-67.6824
-36.5613
-28.5084
-29.6474
-28.4981
-72.2203
-71.471
-39.7355
-42.0337
-39.4727
31.8836
107.651
122.815
63.0585
30.1136
12.7214
32.7091
22.9028
-83.9321
-60.3187
36.814
-12.1316
-30.3377
-10.4135
-0.603944
-19.4027
-36.344
-27.846
-28.8331
34.3529
-0.279949
-42.3251
-27.5079
-53.0138
-65.6889
-43.8759
-69.3183
-21.8322
73.2338
107.89
74.1404
96.0726
100.753
54.5013
15.1608
32.5144
69.8406
35.8091
44.1123
-46.128
-89.9693
-45.7058
-51.4244
-27.7139
-25.7445
-22.7139
10.3485
4.0632
19.2325
-4.70704
-46.6447
-113.867
-89.0763
-20.9395
3.46887
-4.31374
7.93849
36.9031
78.2414
62.6352
23.5315
37.2011
41.5929
25.3029
20.5136
-11.6219
-8.47986
-37.5233
-41.8213
23.1641
21.4113
17.5648
-53.7052
-97.1928
-86.7872
-77.9142
-16.0078
5.75978
36.2683
46.8654
37.5884
27.73
79.1853
8.50838
59.2737
101.518
17.8705
-53.9006
-35.3044
-44.7838
7.96461
32.6239
133.823
201.664
162.817
105.181
39.0656
-9.70059
-71.1616
-110.148
-137.77
-167.564
-88.9522
-75.6675
-125.031
-133.71
-99.8096
-60.8779
-53.9097
-94.9782
-185.615
-106.628
-33.4844
-50.5108
-32.4933
22.4467
55.6729
114.114
150.196
129.234
164.043
260.525
214.606
140.422
124.395
102.899
100.921
35.0669
-62.4092
-23.6371
39.5647
22.113
-100.718
-141.034
-190.75
-202.252
-125.668
-36.7338
-2.01072
57.3138
144.312
198.115
207.505
99.9117
82.4615
36.0652
-88.6401
-135.746
-154.463
-216.648
-232.941
-237.883
-274.572
-191.339
-38.1553
19.6366
49.7589
147.758
239.078
223.887
49.0315
-82.5347
-32.4849
47.6128
-10.9726
-22.4282
9.21197
20.3413
-10.5871
-35.4217
82.1581
122.607
172.75
160.351
80.4616
50.5139
-22.3825
-119.237
-127.148
-98.0555
-21.7381
29.9502
-9.25891
-15.0134
5.2701
19.5403
13.2465
88.1959
168.449
163.212
32.9229
-57.8545
-76.4153
-69.8607
-76.0548
-36.0804
21.5882
57.6317
6.13386
-45.9819
-55.8842
-139.606
-159.255
-156.595
-94.6744
28.9577
65.7937
50.2771
29.9797
45.9936
84.0453
98.6128
1.97022
0.567299
-37.7576
-65.313
-82.5987
-79.8035
-47.5632
-60.0612
-117.178
-9.8576
31.5882
37.2052
16.165
-64.3575
-4.71422
27.3386
22.8015
128.984
91.679
136.151
233.736
139.134
98.4704
58.6297
5.68128
35.2039
46.2023
77.7463
70.1855
-7.9873
-57.6056
-128.291
-105.067
-33.3658
-56.3974
-55.1994
-23.9068
-106.813
-167.609
-232.242
-277.1
-240.68
-50.6245
142.349
170.869
128.676
105.78
60.6373
59.5268
-19.4366
-42.9238
169.14
147.914
27.0297
-9.16663
-2.16657
-44.4046
-62.559
-81.7882
-32.8996
13.6889
67.1721
82.1847
45.4949
90.5454
45.9857
-29.7803
-54.4846
-0.869941
9.98881
38.0086
-84.6859
-148.375
-104.739
-86.1866
-56.1504
68.3448
120.921
209.498
113.153
-35.1034
-14.9624
-79.015
-124.325
-70.0763
-42.1651
-43.7657
-24.4825
-37.0825
-17.4415
24.3494
22.7122
4.48335
99.6883
111.893
37.8443
-68.8026
-52.7015
29.0738
90.4455
88.7445
10.1473
69.6147
50.9122
-32.2397
-52.5264
-8.15777
26.6089
29.5843
22.2422
76.6829
71.6722
19.213
-71.7398
-85.957
-87.7169
-87.0853
-57.4168
21.8718
6.48101
-18.0819
-61.8283
-79.2324
-79.8251
-67.6991
-29.3023
43.2514
23.5349
4.74984
55.5541
6.29007
-80.3264
-117.821
-110.942
-30.5697
10.9377
-9.28963
-54.2277
-58.9095
-6.22559
31.2071
96.2851
46.3551
89.5085
165.398
121.746
144.099
167.11
163.261
121.576
64.3211
72.9749
86.485
84.9349
7.0113
-99.4269
-153.321
-151.692
-204.537
-229.316
-187.222
-75.6566
-18.8939
-43.5609
6.10485
121.785
104.286
121.659
88.3356
123.757
127.275
48.4928
9.80683
-80.0943
-176.813
-194.014
-197.341
-143.103
-73.1173
40.3955
53.1479
45.9064
82.7178
12.1568
-96.0046
-11.7001
46.319
18.4862
11.9805
4.64236
13.6537
107.263
106.87
-5.02966
-87.6888
6.0888
72.6682
15.1926
11.691
9.17978
-3.1839
39.9056
115.198
151.463
142.546
31.7182
-35.2218
-60.5706
-150.265
-276.103
-210.247
-14.3358
33.9747
28.1071
56.5773
95.0905
89.7584
11.5668
-76.0415
-28.3302
25.0437
-43.8173
-72.6389
-69.0854
-41.9331
-33.7921
16.2632
-0.321899
-6.19894
110.684
41.6217
-39.3668
-18.2829
66.4079
61.145
-20.4115
-69.8268
-54.8789
-6.43571
18.1819
17.2176
18.0562
71.4318
89.8193
80.6225
79.918
54.0183
12.4554
20.8122
30.547
96.455
16.6859
-77.0501
-92.9653
-135.47
-146.31
-50.203
55.9116
159.03
71.0953
-18.385
3.67475
-78.6613
-139.075
-60.864
-41.7294
11.4736
21.902
62.602
21.6295
-41.9263
56.0118
129.086
122.705
43.0886
-25.3043
-85.9804
-97.1818
-145.893
-57.0735
-61.4019
-104.898
-62.2381
-27.9254
-1.75673
34.676
-36.2364
-55.2746
-23.9957
-11.316
47.3216
34.0167
-28.7613
5.71104
74.4397
16.0607
5.85099
190.135
224.022
124.525
95.7399
89.6833
67.2372
1.08112
-86.1484
-19.8467
36.6727
30.3236
-21.2538
-75.2881
-110.031
-132.297
-91.681
-64.9651
28.8135
94.1094
23.6891
-92.8917
-81.1446
-6.10208
46.7989
-70.5414
-65.5076
102.032
127.234
53.3868
28.7516
34.0176
-3.56907
-42.9306
-103.598
-57.1583
-60.2587
-8.35046
16.5803
61.8261
42.956
-57.759
-106.562
-152.704
-34.4967
34.2861
46.1094
5.18228
15.8971
-36.7599
-27.4245
32.7916
65.8608
137.131
159.745
80.3372
54.0276
11.9696
-2.22958
18.3925
76.0712
23.3813
-119.43
-95.3468
-73.6667
-55.2817
-43.9502
-100.529
-53.4576
8.71724
-6.21792
-22.4351
-59.3963
-108.003
-119.389
-68.1158
106.548
167.313
82.841
60.7982
82.1946
43.2893
57.0089
-3.23218
23.3585
61.0102
66.402
39.5872
-0.0331011
-28.6325
-33.2631
-46.7581
-64.9845
-52.888
128.357
234.154
121.008
30.4205
-4.88309
-71.6225
-121.345
-160.77
14.2439
202.261
94.6003
-44.237
-106.069
-166.841
-208.877
-196.665
-174.445
-13.2628
63.1915
14.4
-69.7337
-138.634
-148.357
-51.205
13.8756
121.558
117.221
90.2557
48.742
7.44973
36.9009
87.9072
98.9789
202.102
174.823
52.8866
26.1316
28.2116
29.4008
20.5377
-68.2429
-40.2028
-57.5844
-93.9687
-68.2107
-113.173
-88.0005
29.5597
32.9163
50.4147
234.952
284.438
139.612
-52.5891
-92.7205
-123.322
-180.016
-206.789
-194.849
-108.953
-19.0725
-55.9414
-12.6175
70.2535
91.4275
68.8119
129.031
235.504
226.139
92.5376
-75.5141
-142.082
-88.6262
-97.6597
-199.263
-137.396
-12.6989
-12.9888
29.4344
50.1673
82.592
148.696
108.603
61.4159
164.446
143.137
58.5061
-86.609
-133.528
-145.614
-220.114
-252.255
-196.604
-60.6358
21.3405
77.7539
63.4041
65.3851
36.9653
12.8197
-0.371598
-43.6233
39.1776
118.065
67.7397
97.3056
72.963
-35.2954
-87.0253
-109.365
-63.2625
65.2562
94.8039
43.6415
42.0317
65.8167
60.3516
-34.9823
-38.6513
-18.363
-44.5249
23.5755
25.835
-0.646872
-39.7439
-134.251
-110.037
-35.9172
16.5371
64.2849
60.5746
-6.12493
-65.5168
-163.771
-37.8095
8.00941
6.72993
91.8744
105.411
128.48
133.451
104.59
84.3205
126.541
70.9946
43.6111
26.2436
17.702
10.9611
10.235
-56.3159
-206.482
-134.627
-56.611
-127.704
-152.305
-135.052
-108.67
-124.209
-114.865
-26.3186
50.3129
57.7781
30.826
52.9126
94.6828
86.0103
10.3738
-8.63861
113.505
106.491
99.6614
52.6296
1.78236
-50.0489
-0.942924
12.6841
-45.615
-30.226
-28.5105
-34.1068
85.8444
152.151
105.441
85.8362
7.92929
1.93695
-7.47122
-108.499
-185.096
-149.431
-124.975
-112.54
-81.7351
32.8235
158.265
174.96
157.635
143.551
37.3832
-38.9749
-48.0899
-106.3
-107.089
24.2029
81.4144
99.5985
119.049
87.1304
-31.8149
-71.4607
-124.053
-114.249
-107.657
-152.622
-216.398
-155.408
-79.8405
-100.399
-46.17
70.7206
27.5835
57.9427
88.7521
99.6308
158.916
146.911
152.477
240.033
98.0103
0.551029
19.5455
-20.1346
-71.0989
-164.284
-141.347
-34.9177
16.1907
87.4955
106.611
48.0373
-1.91928
-90.4012
-106.07
46.8438
-17.1932
-117.039
-89.8131
-79.2883
30.3633
83.8694
63.3819
22.2322
200.701
230.834
73.3887
-42.312
-66.5197
-51.6811
-34.4722
-46.9215
-94.4686
-57.3188
-4.97971
-31.6026
-31.426
-24.6695
-12.1951
-17.8754
-31.0958
-72.7406
-6.03433
56.8373
-9.67062
-73.1201
-125.77
-152.049
-34.4475
3.11488
-21.2429
-33.3695
61.9499
162.193
101.647
37.6676
67.5431
82.5261
139.101
119.113
121.832
162.833
71.7446
-89.3294
-172.927
-151.971
-86.9674
14.4376
45.3053
-24.6154
-86.0963
-94.9859
-84.6732
-19.8889
14.4484
23.0351
68.4865
-3.62764
-56.3342
-70.2209
-84.4498
-85.7336
-81.4813
-35.339
129.374
158.614
172.246
112.952
-14.8487
-24.9772
36.7351
57.1844
139.74
71.1103
-20.2994
-57.4476
-86.0131
-43.6657
-110.766
-170.542
-44.7967
-28.2861
-47.651
-59.7443
-111.229
-117.58
-137.863
-167.818
-14.3495
84.9411
169.524
354.784
396.959
280.203
168.002
73.3824
-19.0859
-44.0257
48.5935
105.132
-36.9195
-156.217
-136.854
-41.9431
-30.817
9.48467
66.2956
140.239
156.525
107.96
-13.9788
-162.837
-272.901
-218.656
-31.7452
-30.3294
-29.2773
-60.3409
-148.856
-121.213
-63.5655
-49.4468
-70.4402
-126.644
-54.6187
29.5381
-11.6373
-40.2144
-79.9539
-28.0939
68.2347
44.3183
65.1433
115.928
89.0046
138.109
129.37
135.633
119.446
23.9059
69.0294
123.482
104.441
149.182
23.9179
-127.182
-127.742
-161.142
-90.8142
-71.1972
-87.7525
-52.4362
-41.5461
-55.4187
-77.0507
-60.1385
-26.988
-11.6666
59.6368
85.0394
36.9288
-31.9463
-34.8153
-85.3286
-82.6784
-43.0637
118.009
136.046
67.4267
133.564
173.224
-2.87512
-185.778
-152.001
-4.17164
78.9868
108.385
133.573
72.4778
6.93262
-38.8034
-26.6212
-94.8389
-107.894
-56.4018
-37.3159
-5.53846
80.1358
133.651
78.0513
-11.4337
149.847
169.438
74.7018
-34.7517
-58.1738
-74.9196
-85.037
-124.754
-97.6119
-24.5898
-14.514
-8.61014
-64.6203
-92.5411
-95.9771
-135.09
-92.2379
27.0758
139.125
116.696
33.0913
14.2543
73.1345
-4.13019
-130.326
-178.748
-107.854
-46.5604
23.9214
63.5555
173.777
211.854
98.3657
86.2771
119.715
-44.9118
-193.564
-269.977
-227.469
-138.181
-65.955
165.13
408.038
372.695
241.132
121.121
75.5469
47.9916
-30.2657
-109.746
-67.825
-53.6499
-19.5975
-10.5625
-90.8107
-69.9408
-26.8558
-81.9087
-63.7187
5.66504
92.249
32.0494
-98.8785
-85.2183
3.11914
30.105
-106.636
-147.933
-18.3051
-31.862
-72.6939
-66.4292
-92.207
-86.1715
-27.4052
26.5066
106.463
163.784
60.0834
41.4493
5.31707
-62.9705
-111.797
-102.685
21.3706
189.661
190.133
115.754
-31.5831
-65.3013
-88.4227
-112.849
-19.6922
109.412
109.868
117.658
101.127
1.6524
-95.4254
-144.054
-74.5825
-9.39735
32.625
46.5723
15.323
-65.3245
-54.8281
-11.5291
-95.8008
-4.12882
188.44
284.375
213.702
52.6435
-25.228
-55.0985
-34.6335
32.7328
75.0784
52.2563
-33.6967
-11.9119
-48.1931
-101.232
-122.41
-171.722
-122.823
-111.938
-38.0497
48.11
17.4595
-45.8895
-149.418
-161.643
-83.0505
-59.002
24.3135
67.7054
90.5404
101.084
9.21028
-77.9091
2.069
-9.77835
-10.6045
101.64
145.243
74.9896
81.4879
55.7341
-81.5832
-145.755
-77.4477
43.7706
93.686
171.571
278.183
318.979
181.653
2.00165
-72.4619
-85.0679
-41.5408
-102.984
-207.054
-178.057
-123.028
-66.279
88.0844
99.4266
35.1797
16.507
27.4648
39.9422
55.3984
52.4225
-9.00522
-185.586
-222.3
-174.081
-90.5138
-45.7951
-90.417
-81.3597
29.9107
52.9171
160.82
159.028
3.24321
-41.8748
43.0614
81.6709
58.6807
-80.1433
-115.167
-125.921
-106.344
61.4439
179.958
216.114
153.533
187.883
175.235
110.048
91.9484
74.1746
-43.6969
-90.3083
-155.618
-235.711
-152.489
44.1698
89.5201
54.7901
4.14775
-72.1395
-178.277
-206.523
-164.825
-108.838
87.1101
68.6479
-71.4156
9.28717
57.2754
96.4112
-29.3717
-168.492
-114.375
-48.1175
12.0944
10.8315
48.1171
71.9097
116.738
157.323
123.66
85.8437
26.5836
-56.4733
-130.871
-191.205
-128.927
11.4975
106.272
157.497
279.805
396.157
281.509
148.227
-91.9174
-260.474
-298.858
-241.155
-157.277
-202.868
-119.522
-60.5738
-40.471
68.1427
79.9883
36.0439
-10.4994
48.1083
100.178
28.0687
-30.0131
64.0202
86.4803
2.12507
-141.399
-69.1483
190.184
325.208
158.949
14.1736
63.0556
181.43
103.294
-129.768
-96.4789
-53.3122
-163.782
-222.476
-171.241
-66.779
-39.9363
-39.2458
42.2221
132.767
161.258
11.3569
-207.246
-411.228
-354.084
-201.869
-135.862
-79.0958
241.799
442.677
301.371
235.281
286.125
167.682
-42.7869
-48.0808
9.45704
-51.8002
-120.313
-85.6824
110.628
192.154
-64.2824
-229.68
-213.747
-104.989
-66.9269
-37.7175
-106.371
-136.817
-60.9755
69.4112
194.155
252.06
264.78
206.91
42.6938
-17.6426
-29.5885
-99.9629
-246.587
-274.452
-111.507
95.7252
194.62
163.829
61.9954
-27.3989
-116.577
-64.4269
-52.3647
-143.179
-115.115
-64.8808
-76.556
-155.508
-113.454
149.038
234.052
151.556
177.236
214.896
298.025
304.02
156.742
65.1539
17.7849
-70.5423
-79.4209
-99.2889
-195.16
-214.507
-236.629
-169.406
-140.388
-60.8508
-15.0471
-16.4636
-61.2503
-102.073
-109.726
-7.99804
-60.6773
-53.668
74.2278
8.25997
-36.1888
-44.0077
194.972
269.351
119.805
127.704
165.512
145.205
181.655
85.4019
-79.4039
-159.111
-68.3839
123.821
198.727
235.289
76.7344
-164.531
-311.793
-369.554
-310.747
-267.824
-337.074
-279.323
-20.4
152.799
226.291
298.407
238.949
254.697
248.145
20.2593
-200.457
-291.501
-172.976
-70.2089
-14.6404
-14.0025
67.1391
280.501
247.19
212.997
202.199
62.9744
-69.7043
-143.681
-158.319
-148.59
-47.93
34.5503
98.5042
47.2213
78.5882
68.2852
-122.502
-210.856
-138.168
-72.7922
73.9098
32.2893
-11.566
-77.7001
-113.825
5.5072
188.971
187.372
173.68
-33.1831
-162.869
-180.364
-178.583
-90.7764
-28.7403
35.4574
72.4317
-66.5132
-47.0143
1.43722
-60.1567
-46.7215
10.7881
64.8513
70.5449
0.966918
-38.9532
-27.4154
-8.72985
26.9992
94.7749
90.9977
200.9
316
181.519
-24.061
-108.062
-87.1379
-40.3678
157.921
178.65
65.894
-0.528909
21.5729
-51.1613
-77.155
-110.948
-106.437
22.5758
165.402
78.171
-63.9024
-229.292
-354.929
-289.192
-92.9796
57.7371
72.8001
67.1199
19.7964
-50.6923
-71.2339
-158.487
-108.477
-10.6878
73.9701
178.518
263.186
149.37
4.9474
-101.757
-26.408
76.6637
115.971
52.2411
-48.7866
-165.446
-156.469
20.1525
63.7418
35.169
-39.0102
16.5984
25.2917
62.4524
92.0793
19.414
-37.7639
-18.7017
62.2754
85.7606
11.5881
-3.95626
-53.8181
-28.372
19.6215
84.2155
59.4742
-109.486
-223.436
-70.6355
31.1366
19.6407
-11.9807
-41.7958
-27.3167
13.5822
35.1739
117.388
120.379
61.2532
54.4962
-55.4519
-35.873
-15.1952
-60.3691
-75.9386
-122.461
-9.38226
92.717
51.3639
19.5182
36.6232
-26.0961
-105.171
-136.224
-178.666
-149.295
-205.476
-157.103
16.7308
167.205
249.322
297.885
315.605
141.104
7.65244
-15.903
-105.938
-121.114
-91.8587
12.4175
124.882
165.293
253.284
205.147
95.1509
33.7558
2.08672
-60.5933
-193.86
-142.638
-104.124
-185.359
-246.879
-126.298
-20.8938
-8.79404
-40.6887
-4.79167
11.2521
-22.0207
-90.6103
-102.386
-81.0587
-55.2307
-12.5619
-22.0996
-126.374
-51.3934
19.994
93.0266
195.763
247.799
374.511
464.902
330.527
173.575
41.4277
-31.7074
-127.42
-163.155
-192.664
-230.577
-212.232
-56.5813
-17.4073
-6.04838
24.3282
-2.63603
-31.1045
-162.271
-215.949
-229.953
-292.09
-238.393
-83.2014
44.5616
49.2116
-35.394
93.0025
256.29
317.575
328.627
361.901
372.34
207.876
-72.754
-20.2212
34.2826
14.928
-11.3424
-81.7375
-82.192
-128.031
-218.457
-70.2274
-51.2453
-5.85683
4.33386
-153.35
-243.53
-181.491
-108.556
-90.6116
44.0447
266.58
322.664
167.183
13.147
-90.3719
-83.6867
-32.8093
-47.6984
163.407
219.679
62.9133
-5.34116
-44.0193
-112.677
-133.405
-64.4952
-18.2006
34.6437
-22.0237
-144.617
-201.775
-68.0315
-29.5704
-120.157
-73.3976
115.8
180.756
84.2377
-83.103
-104.914
-108.916
-26.1309
99.9877
239.157
275.323
213.216
74.0142
-23.5092
-15.2281
-94.5221
-108.092
-18.2827
51.5384
167.614
226.472
79.0421
-37.3944
-152.776
-229.81
-124.62
-85.8586
-80.8816
-89.8729
-110.043
31.1158
62.5432
58.5441
46.3589
80.61
121.766
109.221
46.8698
58.422
13.3322
-127.293
-143.025
-129.034
-145.698
-146.176
-157.327
-94.1635
-9.70584
75.8884
217.771
238.958
125.291
30.9519
82.5385
102.459
5.29045
-61.802
-9.55593
26.5984
141.618
290.699
258.536
27.6484
-106.263
-139.91
-97.553
-35.555
-41.3011
-127.792
-235.781
-236.167
-202.285
-113.472
3.1973
-38.6089
-30.1908
19.7282
28.8751
-35.4162
-174.985
-212.887
-221.748
-76.9314
63.5986
131.377
158.304
138.552
64.7776
23.3868
11.4166
48.782
103.675
120.685
229.946
293.363
275.91
293.993
136.119
52.4138
24.1272
-50.2383
24.7309
176.421
163.438
3.62444
-199.794
-258.593
-242.926
-123.454
0.0889996
-19.0709
-40.948
28.8144
-88.7173
-191.011
-183.28
-250.068
-186.513
-149.665
-111.19
-109.658
-142.207
-68.1373
-14.0463
-15.1839
32.5616
98.7341
122.981
140.164
75.828
-18.4642
14.2214
50.5364
8.65387
-10.4543
18.3496
66.0947
126.57
170.621
269.185
266.804
54.8445
-110.731
-26.0522
108.165
83.04
17.0247
28.7824
78.8151
80.0056
6.76942
39.9181
92.8366
135.485
81.9885
-1.67644
-38.8519
-172.096
-203.494
-208.136
-136.392
-128.648
-160.854
-224.709
-204.33
-145.451
-134.361
-57.3686
-35.2762
-91.2826
-57.4739
-22.1845
-61.6821
-95.9497
-102.702
-22.2057
158.759
254.257
222.585
210.65
204.811
222.447
237.455
165.449
55.7912
88.9645
36.2716
-46.3369
-123.942
-146.835
-132.469
-134.848
-90.8472
-4.11691
145.621
269.487
262.312
72.9176
-100.253
-214.477
-116.769
-36.0618
-78.5897
-72.6818
-13.2176
-87.4978
-95.2956
-70.616
28.5923
14.2822
-4.56795
22.9995
-7.71639
-35.986
-63.7167
-105.818
-112.151
-37.6168
48.2759
128.027
82.7985
48.9917
66.3298
35.4404
126.812
183.445
58.4238
-0.658342
57.941
166.019
95.3785
-46.802
-159.828
-76.38
117.394
95.2483
-45.0708
0.22867
44.237
2.20927
-138.938
-262.11
-280.403
-152.118
-40.8703
-74.091
72.6952
113.291
-42.6068
-170.457
-161.436
-96.1876
73.6512
36.9188
-29.662
69.8815
110.303
75.5958
53.9541
29.967
93.2395
101.497
113.532
98.7257
-3.15336
-40.6461
-105.184
-88.8945
25.8579
43.7311
70.7767
131.873
60.5341
8.63159
-50.8592
-134.132
-84.9079
34.6034
50.2737
70.4922
44.531
28.2201
32.9216
20.7392
-43.007
29.6389
37.9446
5.67966
-84.4045
-99.8343
-94.0702
-133.407
-171.406
-60.9716
-21.2381
41.9301
107.599
147.228
148.784
60.0746
95.8953
123.338
91.6931
44.5811
2.5629
-90.0318
-130.828
-183.49
-142.258
-26.9827
-0.0770636
104.191
80.2938
0.427945
42.4877
39.3626
-114.863
-213.807
-54.976
40.6591
-23.0806
-57.2279
-77.901
-53.2262
-43.3512
-61.3025
-46.0687
79.1169
101.141
46.0331
40.0615
61.3763
95.1251
50.3513
-38.4191
-63.088
63.2194
107.021
31.9643
127.132
252.637
162.15
49.5434
-90.9499
-76.6712
-52.9709
-12.1185
35.7449
-14.8935
-39.9447
-55.3154
-76.1431
-31.1798
25.3801
22.8048
20.5781
-8.63104
-15.7985
-34.9059
-125.992
-162.917
-81.0886
-46.3716
19.6063
13.1103
1.92503
7.08477
-64.5554
-70.4216
-11.0801
-23.687
27.0836
56.3465
85.4009
-4.0125
-88.177
-150.437
-142.976
-81.6054
18.4843
28.0754
-10.7776
-7.92458
0.158353
-16.0865
-51.7866
-14.8301
90.8293
87.6071
53.4965
106.267
106.991
25.1847
-64.623
95.6751
326.128
317.705
273.022
238.049
102.535
-61.6439
-113.766
-105.539
-89.9341
-52.1814
-98.3653
-116.299
-42.6916
12.1473
-44.8602
-79.6124
-77.3751
6.8584
21.7363
-10.0899
-103.767
-103.911
-91.6596
-88.4003
-66.1532
10.3176
16.8151
53.7448
51.8789
-48.726
-64.6479
-78.0893
-161.714
-117.967
44.1129
125.291
183.413
93.0783
-24.8935
-51.4717
-45.1711
12.5061
73.8484
214.849
122.418
46.6856
50.0316
13.0448
-1.40205
43.1341
54.9924
-14.291
-134.151
-184.542
-189.823
-151.787
-99.8752
-85.0958
-7.73128
85.5042
103.799
134.872
93.1943
-34.9129
27.8284
18.4594
-19.6428
71.8168
82.4191
9.28358
-7.35375
2.45549
75.6841
43.8074
11.2402
52.6693
32.4212
6.20705
0.263286
-109.529
-172.251
-123.29
-112.264
-95.2133
105.976
367.229
404.843
134.217
-77.8874
-128.06
-96.0177
-96.562
-212.953
-234.369
-167.356
-200.997
-206.316
-94.1776
-2.00498
42.9326
54.5026
-18.8679
2.55893
31.5293
-6.25001
-25.9367
-52.7901
39.8746
121.619
60.7348
53.2265
80.977
145.74
217.989
190.41
106.531
123.517
119.867
148.947
234.884
283.203
311.154
226.63
67.3451
-63.0534
-266.909
-291.82
-243.538
-278.143
-220.502
-130.759
-130.765
-122.055
-73.0843
-78.3484
-84.6101
-79.9208
-29.2642
-106.811
-147.14
-188.126
-194.921
-63.9037
52.8462
85.8963
118.083
187.162
214.916
226.629
147.73
-9.63698
-174.85
-183.946
-77.0484
14.6907
62.1407
59.7516
33.9174
39.7887
113.623
221.545
372.925
233.655
51.9625
-42.8149
-106.434
-227.21
-336.826
-238.509
-80.3027
-51.4253
0.277216
26.5596
-17.1591
-43.1412
-58.3273
-81.7288
-5.29569
190.261
190.349
135.669
66.6023
35.9206
86.3135
100.246
69.3397
-6.48628
61.3702
145.585
51.0811
51.7081
119.67
144.246
-61.6643
-252.193
-313.602
-121.439
-61.6394
-77.1516
-37.7341
-93.8184
-90.1114
-28.1883
-14.4403
46.4634
65.1661
11.6143
-121.019
-179.361
-196.013
-199.14
-199.211
-122.467
-63.9027
3.76266
158.793
154.342
162.567
90.6926
66.9772
261.186
370.977
263.011
147.007
79.0334
60.3723
70.0632
26.9385
-65.5151
-69.7268
-85.7029
-99.1419
-85.0276
39.1875
106.665
10.1691
-144.873
-115.182
-79.5508
-54.8093
-39.3907
88.1767
116.618
-34.0275
-121.267
-53.049
33.0223
59.8304
-24.5139
-69.7486
-35.8721
-71.2444
-149.137
-1.12583
-11.54
-58.0606
-44.3186
-30.8268
-17.1345
-7.12187
-12.1769
-104.949
-21.4479
75.8412
148.06
109.094
2.77511
-29.7117
34.2887
-30.1519
-97.2525
83.1019
133.93
20.9267
47.5008
145.406
130
125.495
53.9149
50.9014
8.99368
-143.814
-205.606
-162.202
-95.1396
-45.9838
-29.3777
15.4307
98.9858
245.517
190.879
-22.04
-64.9214
-38.0828
-96.1556
-202.345
-169.033
-63.9423
38.0169
43.1188
47.6517
65.9161
60.6848
42.9448
-36.1923
66.1588
62.7714
2.51358
10.9379
-59.6466
-133.856
-197.324
-177.722
-98.3116
26.7711
185.851
202.008
143.375
80.837
-76.43
-88.6645
63.2892
169.174
187.298
184.159
59.2326
121.438
131.488
22.1703
-140.84
-57.7656
-21.0252
-117.363
-221.441
-171.695
-181.515
-205.386
-235.455
-231.436
-84.5182
57.8602
-33.8319
-67.5572
-17.0907
-12.6665
-10.7701
26.7142
24.6961
51.5841
204.697
171.495
163.092
213.975
179.615
61.5845
20.5312
-41.9145
-22.1025
42.4063
164.016
132.516
70.8073
16.5458
-12.6188
-10.3939
54.7552
1.8056
-20.7377
11.6026
-41.2233
-153.997
-171.335
-201.252
-130.913
129.961
129.504
-11.8265
-87.0886
-83.6601
-61.7655
-99.5166
-95.4404
17.8257
3.13449
-11.7026
-55.6903
-43.0897
-43.6941
-24.7545
-13.9763
82.428
81.58
47.3971
13.3724
-85.2429
-112
-70.9211
35.6235
155.346
126.739
55.0493
119.674
75.0411
87.2167
117.744
31.0217
51.6804
8.90386
-40.211
-128.648
-155.154
-55.1548
88.0344
0.442714
-46.7851
-40.9553
129.045
198.945
62.9811
-69.9525
-133.346
-185.5
-104.687
58.7015
111.97
104.708
72.9524
8.18224
-19.244
-11.1547
-55.9434
-45.5231
-43.6916
-77.6727
-130.356
-103.811
-129.766
-125.829
-81.4264
-113.948
-46.6311
143.228
188.049
58.8253
-48.5211
26.1047
73.5769
102.049
51.7894
54.8587
174.497
137.549
15.4965
-40.625
-87.4008
-85.9812
-52.6967
4.21781
5.52784
132.096
209.695
97.7947
-70.5078
-145.368
-193.049
-42.6863
111.965
196.664
213.787
58.7981
-164.212
-271.261
-285.776
-104.119
33.4909
103.479
56.3176
-67.8906
-97.0044
-66.6104
-11.7211
17.9031
153.687
135.783
151.084
50.787
-63.4924
-139.422
-84.3648
11.8393
-8.63672
50.4657
115.963
40.2377
-81.8359
-151.321
-163.811
-137.743
-163.833
31.6072
172.898
200.335
129.231
116.05
133.19
67.1125
3.02941
-51.7378
-88.3723
3.42737
144.578
4.76785
-75.9634
-39.9751
-71.1735
-107.916
-55.4287
20.1157
97.8858
82.4263
14.9241
40.0356
50.4816
-40.652
-47.4073
-7.94589
17.2563
-18.7048
-22.1142
-71.3257
-157.22
-112.335
-73.6732
-44.1736
70.869
132.292
38.8911
-88.2616
-87.8559
-67.8158
-71.1517
-105.343
-88.2026
110.781
140.204
108.707
131.836
123.667
105.677
58.5941
-59.2314
-6.52719
-33.747
-80.3632
-97.0898
-86.2801
-29.2533
101.821
118.952
90.8884
90.0939
86.3198
4.10955
-25.7169
82.4594
164.616
63.5115
-34.0737
-93.8208
-90.6987
-74.8503
-104.21
-89.341
-59.2582
-115.217
-190.529
-150.738
-15.0508
-10.6433
-36.4412
21.0555
53.7776
192.607
257.251
165.203
79.3739
113.324
66.2441
-35.0402
-157.803
-166.06
-101.25
-107.834
-190.82
-68.8637
96.8376
158.124
121.983
118.598
46.4704
28.1541
-31.8604
-193.189
-240.458
-203.482
-128.836
14.0363
94.786
166.987
289.842
384.978
341.435
259.922
34.9367
-99.1683
-133.869
-229.399
-304.904
-268.714
-170.659
-101.539
-82.0803
-16.9432
34.8158
79.1918
-51.0792
-163.06
-99.12
25.1728
74.2169
89.4005
145.956
14.2141
2.24361
57.9218
52.8439
-26.048
-52.377
55.6932
11.1323
11.5161
100.641
133.173
160.859
44.3504
48.5178
263.591
290.486
132.939
-20.7122
-142.059
-209.963
-107.861
-38.1665
-101.455
-216.137
-158.789
-7.39018
-7.04964
-30.6374
-63.5966
-74.1264
5.7826
-81.9684
-64.5243
20.0069
-12.071
13.4806
2.35364
-20.9474
26.1387
73.7711
37.4788
-26.4735
-13.0762
-63.8659
-149.403
9.08404
102.269
94.8713
-35.891
74.9573
147.396
28.6351
-46.0323
48.4555
70.4987
11.345
-9.26915
-152.981
-124.248
-68.7132
-42.9974
15.6639
70.6103
208.163
183.96
70.8992
20.279
11.7269
52.7151
-35.6111
-24.7704
73.4683
24.5881
-9.38386
11.8185
-5.37042
-83.1276
-55.4706
-70.9229
-184.648
-262.101
-245.441
21.8869
344.543
398.572
123.463
-31.332
-54.5469
-3.96564
35.2339
-64.2414
-77.2306
-63.1868
-29.2142
-12.5655
-16.6623
-105.241
-185.673
-94.8933
1.37518
50.4628
90.8863
-98.7433
-290.59
-225.083
22.1051
21.5751
39.3191
119.73
248.512
376.825
328.981
262.13
212.273
9.16838
-129.347
-53.0718
51.2061
11.6227
-54.0381
-137.79
-167.98
-169.336
-209
-296.144
-172.705
-104.609
-34.0913
85.602
124.831
232.127
323.18
206.546
43.7525
-91.8389
-143.852
-100.801
-91.9135
-117.826
-58.9768
-72.4926
-104.811
4.44766
-16.6074
18.5133
102.814
280.001
271.438
101.634
-105.287
-145.16
-27.7609
21.4294
61.0445
135.266
189.034
113.02
8.03587
-44.7378
-48.0081
-67.8784
-163.423
-338.926
-344.97
-274.896
-154.438
-110.016
-75.1501
88.6427
294.309
202.864
54.4803
152.499
231.918
171.418
-8.28682
-2.91884
117.149
73.1908
-59.9298
-141.586
-136.199
-76.1736
-33.4902
3.47314
58.8435
76.0555
102.922
127.135
101.231
106.267
16.2492
-10.1613
36.6046
10.1766
-38.4318
-65.2976
-132.074
-148.563
-97.6905
-29.8317
-67.4176
136.104
290.156
175.323
-34.6667
-104.669
-114.102
-83.6535
48.4956
111.97
106.482
-129.424
-370.056
-249.807
-41.0606
6.43214
-81.7331
-144.502
-151.564
-94.2834
-17.8887
-94.6042
-72.9099
102.185
186.854
138.009
178.919
133.053
11.0954
18.5124
87.9552
103.957
-20.1848
-51.602
-35.091
-30.5528
45.27
104.751
113.727
186.337
209.416
51.7256
-141.914
-98.2451
-167.23
-153.012
-70.05
9.11616
23.5759
-16.7169
-97.2402
-31.2848
59.0015
214.845
101.609
-61.2365
-86.4096
-74.7888
-116.309
-177.303
-78.5017
38.8666
80.3031
187.261
297.017
192.802
59.5733
73.8815
71.9887
72.3497
-7.60201
1.56102
2.88172
-154.193
-212.536
-179.665
-230.534
-160.792
-135.44
-42.9326
13.0464
-50.9497
-80.7547
-90.6651
-75.8123
-30.5049
62.2885
41.2415
75.6146
134.728
128.327
90.2331
175.766
346.67
319.998
114.165
-66.1343
-181.1
-188.632
-173.444
-67.7446
44.6531
83.7714
44.7332
133.514
168.253
17.0764
-65.9914
-67.2677
-79.0872
-123.762
-155.699
-184.995
-286.72
-272.717
-98.4648
82.0252
219.045
216.619
170.573
25.3472
-37.2797
54.0765
41.0242
102.593
154.391
158.304
160.405
134.236
-14.2337
-40.0339
-78.1547
-227.124
-332.848
-287.942
-166.939
-74.9072
-127.924
-22.2795
-0.762792
-39.4707
-77.5138
-60.9814
-23.6206
-53.9336
46.6968
166.367
114.942
93.665
137.607
107.255
55.8008
146.833
290.076
309.022
306.686
205.941
153.271
112.869
-16.3618
-77.2228
-110.082
-142.479
-94.5518
-172.336
-132.23
-46.6506
7.34804
-175.788
-451.893
-417.196
-169.473
12.5339
150.012
231.813
139.876
-31.9504
-235.941
-166.461
-17.2945
-70.5188
-63.2155
-2.08873
46.5815
105.976
96.4986
65.0361
93.3708
119.268
300.256
321.762
183.243
72.5364
-162.865
-308.642
-235.478
-34.8476
131.305
92.3462
40.0909
49.6007
73.7839
109.486
-17.8212
-86.5744
-82.9732
-159.887
-174.191
-99.648
-57.1448
-93.5831
-72.4406
-20.0264
100.061
53.0036
-37.2728
32.7045
-54.6001
-79.6289
11.9428
-5.60718
125.168
229.762
180.482
263.018
325.444
152.975
-107.023
-195.398
-72.1575
-92.2438
-27.3302
31.2311
-37.8299
43.4624
1.15535
-140.655
-165.844
-277.085
-188.286
7.61801
-14.1485
-91.0208
-24.9358
-5.31615
-133.401
-121.765
-6.63174
143.692
144.805
277.446
321.566
209.206
-54.9945
-220.378
-242.439
-137.065
47.7556
307.807
326.48
53.266
-134.764
-91.6505
-90.9699
45.2764
80.7169
156.18
274.044
171.808
6.8142
-90.535
-283.337
-328.91
-280.132
-226.556
-170.442
-142.333
-97.2532
-64.5472
46.9878
273.387
241.839
187.399
137.767
-76.2754
-105.611
42.2385
77.2871
97.2925
152.564
112.263
46.5624
-1.44355
71.2339
146.156
126.51
18.3889
-66.5265
-217.856
-232.708
-154.169
-87.5571
-200.594
-238.368
-158.732
-59.1076
17.3115
7.5736
-12.0574
58.9455
102.467
82.8497
58.0023
119.189
74.7358
-18.8646
-2.63646
105.454
278.521
157.663
179.509
196.161
88.8337
35.1499
38.5305
-44.4186
-171.634
-196.981
-234.967
-313.249
-366.083
-122.229
70.6584
97.0825
102.635
33.7066
63.8532
-13.725
-209.264
-154.054
17.1591
48.4809
-17.8081
40.0364
30.8129
34.7379
17.0292
-3.97098
142.614
337.513
368.416
142.306
-65.6751
-66.975
-19.264
226.823
201.181
127.961
-28.5944
-203.35
-293.195
-301.743
-205.322
-199.464
-135.153
53.2955
46.9136
99.4454
60.6437
-65.5096
-108.217
-188.77
-99.9901
74.126
77.4612
-93.0051
-61.2856
-15.2522
33.0103
-4.21085
-23.7137
140.974
199.199
227.223
262.685
126.563
-20.7882
-88.697
-111.848
-44.1363
-1.49879
104.141
237.564
187.145
129.941
72.0038
-74.3965
-204.194
-111.124
-100.276
-152.507
-42.506
-33.6984
-125.338
-174.294
-178.073
-7.20321
78.3459
225.174
184.631
39.1279
10.4206
-55.6346
-194.259
-263.964
-348.017
-266.696
-63.1042
50.1397
138.701
306.66
313.231
193.381
131.83
53.2296
92.6625
107.787
293.21
252.776
1.65346
-176.869
-257.259
-260.627
-99.6864
-88.626
-112.96
-88.2493
-61.0851
22.8605
81.2408
104.42
3.12886
-33.4627
-74.1591
-115.177
-99.7276
-43.4276
-74.7188
-109.223
-51.8696
342.023
411.836
140.706
43.7492
64.311
56.629
11.1558
-157.305
-124.172
-135.15
-216.194
-239.009
-35.0829
173.547
186.451
263.483
217.846
18.8957
-129.513
-187.486
-300.912
-151.9
15.2436
34.6057
176.219
212.674
134.308
5.35527
-154.123
-85.9775
105.565
173.618
43.4606
-21.6014
-98.7684
-187.409
-129.724
39.908
7.82216
-7.20898
-69.3839
-98.778
-3.18431
94.6554
103.095
282.44
263.164
33.8354
-146.709
-127.361
-189.124
-270.962
-222.455
-83.3646
16.7662
38.2767
-33.8787
-34.2592
137.016
303.18
325.818
192.531
231.453
72.7451
-96.6419
-226.896
-276.407
-232.667
-104.909
-13.2635
-46.7086
26.905
104.224
122.888
156.674
53.474
56.8617
-81.7439
-108.874
-51.0944
-16.7733
-23.7789
-146.571
-121.954
-2.06963
66.1213
144.164
55.488
72.4131
44.5834
11.2062
-6.72407
53.6953
81.974
48.7577
21.8681
45.4227
150.248
116.598
-78.58
-212.77
-201.75
-94.1269
-36.8968
24.9971
-66.7748
-220.214
-117.51
-66.7341
-82.3411
41.7765
155.525
28.9482
-49.6574
-4.18887
93.5393
114.882
102.033
59.191
86.8178
114.852
148.551
196.396
110.867
-191.436
-291.212
-179.919
30.2977
58.5571
15.5923
17.5072
70.9815
65.7479
-11.5638
29.5271
77.03
-69.27
-186.444
-279.485
-238.121
-116.795
-134.754
-164.48
-100.403
-18.9708
59.0355
190.356
328.273
328.213
238.781
110.811
32.1138
127.127
140.425
51.3954
-0.472174
-19.757
-94.6543
-40.6414
22.3286
-68.2722
-107.413
-44.744
-109.895
-1.53095
71.691
11.6506
-73.2103
-132.893
-163.723
-85.6057
-104.012
-172.303
-141.374
48.9304
116.137
-7.12463
-93.9452
5.15256
3.38414
63.0496
211.898
201.972
202.192
113.726
183.824
213.833
112.032
39.4201
34.9324
-100.148
-142.739
-85.264
-75.5082
-97.071
-42.1766
-74.4447
-25.2549
-124.887
-184.223
-74.4642
-125.318
-246.111
-53.5331
-1.64963
-164.667
-143.653
-16.0796
29.0009
109.703
102.625
53.6052
88.3943
102.287
158.113
148.451
340.465
427.47
304.872
108.88
48.0651
-45.5402
-98.1585
-221.935
-213.389
-151.051
-95.1062
-25.2226
20.1211
-1.4504
-10.9161
-33.0638
-111.135
-200.32
-236.618
-169.746
-96.412
-74.5588
17.8791
105.184
76.1671
190.771
220.243
75.2971
-33.4775
-31.7814
43.6736
-15.5462
-58.467
3.32357
51.0027
72.8704
109.07
110.807
49.3427
23.4231
72.2207
30.5914
-20.9464
-19.597
-56.6619
-82.4544
-73.3448
-82.7596
-125.378
-83.6107
-1.50565
85.9578
-25.08
-132.062
-67.6667
-65.583
-84.8185
-24.716
73.426
34.4746
-85.1292
-51.5726
140.474
226.687
190.425
43.2656
-81.405
-38.0889
90.9754
-3.51912
-129.016
-80.8657
25.0847
109.639
175.373
314.314
239.9
120.506
-57.8032
-137.591
-81.6426
-64.3397
-211.645
-238.282
-64.4867
75.4185
30.5445
-54.1052
-130.992
-96.4817
-138.55
-120.837
36.2219
52.3759
60.7485
14.9173
-80.3883
18.5446
156.466
126.016
13.8151
-82.945
3.06518
-4.39427
-183.648
-159.889
30.0448
82.7513
32.1836
0.917791
10.0116
39.0216
5.10664
54.0283
-47.5965
-12.2788
135.944
100.944
-3.08558
102.529
119.089
115.127
-10.1547
-54.8746
78.7795
108.933
46.7805
4.00504
74.434
160.943
79.5711
-140.541
-235.196
-218.397
-193.869
-183.083
-30.536
25.0119
102.864
-3.58804
-92.9374
-66.5249
12.2216
4.93109
1.26651
-106.54
-112.61
90.9008
241.771
209.896
64.8389
24.3886
40.315
-130.467
-244.829
-127.154
-12.3029
52.0033
-42.4527
29.0942
34.3644
-31.8694
92.2805
128.223
182.142
207.993
8.50135
-147.46
-298.582
-379.804
-113.963
130.629
168.536
210.547
202.889
102.256
-33.5768
-149.772
-104.822
-104.723
-39.7241
307.918
384.213
252.109
-28.2727
-196.395
-86.183
-57.6409
-126.748
-156.158
-145.58
-85.12
-42.7731
-48.2629
-34.2139
-52.5629
-94.8395
-82.4979
-3.48179
-12.0854
54.9187
-21.4552
-21.4934
68.1274
92.3618
-3.19804
-70.9617
-56.2937
114.279
197.664
93.9363
-31.2705
83.1635
340.28
307.664
211.22
179.887
44.9762
-172.549
-264.839
-289.11
-258.865
-201.33
66.4618
262.4
135.475
-34.0351
48.9282
76.0996
-82.6405
-149.129
-98.4888
-157.752
-262.427
-204.97
-205.432
-271.834
-180.23
-114.466
21.3332
346.667
388.589
238.131
-34.0725
-35.7525
183.301
291.755
188.469
10.3949
54.7354
24.2111
-115.799
-205.603
-172.267
-107.417
-81.0137
21.7646
147.655
243.148
357.688
147.35
-176.827
-227.042
-211.625
-155.122
-49.9092
23.6025
-22.5808
-42.3994
-49.4474
41.9628
116.234
174.362
103.25
-12.7259
-11.6408
37.1263
59.4666
54.0184
36.3327
-6.82801
-34.1803
60.118
182.149
-65.52
-151.724
-89.7666
-15.8662
-4.08663
-40.3081
-70.9741
-128.223
-179.824
-99.7261
11.6132
54.2689
96.2778
78.1508
179.606
92.3826
-38.2998
-115.22
-221.639
-314.661
-358.303
-336.881
-154.283
1.21068
43.9669
199.601
483.322
610.646
284.118
165.965
311.685
193.412
-60.8401
-164.264
-212.054
-225.754
-234.689
-189.118
-58.8266
29.5859
96.6052
251.286
271.251
149.707
80.4623
-28.168
-277.091
-347.928
-146.201
-117.406
-154.782
-103.509
-4.38764
12.073
10.1812
33.9334
122.207
212.789
217.584
115.878
47.4303
-124.791
-169.031
-53.7603
-27.6596
181.646
325.115
163.131
-100.521
-263.662
-230.119
-8.90197
38.4474
1.77091
-107.336
-88.7759
-26.4387
-41.4298
-142.386
-46.3916
75.6803
153.117
98.5666
61.7353
57.3641
-74.0586
-254.123
-164.871
43.3015
153.356
97.9131
42.1193
75.9463
129.249
107.905
100.152
53.7115
52.4243
161.43
138.69
47.768
-214.952
-241.889
-8.92808
147.083
-94.861
-177.051
-14.2529
6.68493
-63.4541
-100.438
-66.5707
-54.0865
-159.795
-203.062
-24.7233
87.1129
129.183
34.005
-40.497
-51.0887
18.0878
16.1277
-201.825
-150.362
54.3688
60.1281
-46.5422
-20.4953
114.144
228.849
179.556
264.555
465.78
515.515
336.659
79.6309
-135.472
-214.949
-304.23
-234.281
-127.517
-141.154
-134.571
-178.598
-202.481
-180.484
-150.669
-28.0369
-69.6283
-15.5179
107.453
120.176
-17.9194
-25.327
-74.5456
-33.3427
48.0796
121.66
288.249
205.332
258.554
255.599
-11.3443
-206.435
-208.581
-191.646
-131.443
-61.5268
72.9648
96.1016
108.939
94.3753
-37.1309
-126.185
-50.6622
-6.2937
-55.6433
-92.8157
-99.1428
-55.0713
-125.698
-142.915
61.5777
162.239
263.03
238.01
116.655
13.7115
-70.6931
-31.7043
-11.6477
-70.7608
32.1753
101.455
-98.5431
-140.473
-25.2891
-14.1837
-21.5465
23.9127
79.4285
19.9478
-26.8376
-4.09412
-137.23
-212.762
-201.664
-28.8908
179.893
294.572
138.802
74.5377
48.5212
-3.07365
111.009
125.534
-87.4877
-134.431
-36.7296
25.5517
-7.7755
-22.7488
-26.9536
-95.428
-116.781
17.9051
144.125
77.5828
-125.208
-342.845
-255.033
-180.914
-5.33701
130.843
-1.82918
29.1322
147.667
135.824
169.327
64.0987
136.385
181.689
-79.2801
-87.9553
49.7373
102.723
103.222
187.72
174.134
-70.4626
-59.0051
123.089
14.1255
-111.711
-117.109
-71.6218
-24.2971
4.78591
-113.488
-82.644
-181.708
-278.029
-155.268
-7.31843
134.35
100.325
5.44934
-103.476
-152.676
-58.0096
-64.5953
-168.313
-160.217
-66.5661
208.972
253.236
166.062
76.7183
54.1053
83.6891
155.452
128.018
275.983
304.56
146.259
-128.82
-154.317
-116.447
-50.4277
49.0059
-16.6685
-192.335
-197.83
-110.259
-131.909
-32.0445
96.1824
98.1462
87.751
31.4865
-25.9724
-24.1581
-68.5595
-188.529
-127.667
-32.3533
-1.3071
24.3667
43.2116
-0.954525
64.4413
180.305
93.3806
-18.4898
-47.4993
58.4083
159.61
84.2412
50.3191
-61.3408
-124.322
-175.308
-175.333
64.032
125.619
150.44
185.456
62.6205
34.3206
-25.2772
-199.097
-240.675
-126.884
-44.7724
-21.1709
-138.096
-202.753
-74.8034
6.94985
17.2131
90.4862
178.678
116.673
-63.2759
-63.1141
134.43
157.869
161.538
89.3839
88.1122
134.139
81.0203
63.1274
-30.5087
85.9036
126.449
8.84095
-70.8516
-184.58
-225.321
19.1993
104.759
-50.9905
-99.5175
-31.4203
-105.393
-187.777
-172.795
-108.835
-123.029
-293.192
-92.6094
156.406
316.584
82.9211
-80.2567
-28.5596
60.6112
114.187
99.9959
-78.1451
-124.796
3.55624
75.6968
-3.82991
45.4273
145.352
292.876
250.681
200.214
260.59
268.405
52.7067
-172.761
-181.653
-183.686
-109.918
-113.992
-103.032
21.3256
-104.66
-232.909
-234.516
-163.754
-104.229
-50.0807
-108.406
-153.504
-153.473
-225.268
-85.7084
129.194
244.852
297.187
276.035
216.026
154.45
118.246
137.807
12.5396
-52.903
63.0136
139.038
68.8999
7.05641
-36.7474
-58.452
-209.136
-196.379
-82.3144
17.4937
71.921
12.8962
-137.651
-139.366
40.065
166.863
102.349
73.6064
54.2792
-85.4401
-305.653
-164.808
64.4585
78.1532
22.8285
49.8116
43.0375
13.092
84.5808
72.2884
22.3029
24.3751
-0.539474
-130.07
-151.124
-97.3917
-72.2958
-85.8902
-67.1717
-142.364
1.17871
257.908
360.53
284.311
94.7623
-31.0372
-99.0259
-145.621
-96.4378
159.328
-68.0063
-207.107
2.08713
146.71
55.988
84.7238
26.3367
27.5159
68.6706
135.469
25.2002
-186.694
-205.956
-176.689
-137.653
-179.125
-141.861
-34.3959
110.277
-49.9293
-119.068
-36.9986
-97.8325
-77.2964
60.9261
272.03
474.854
297.451
97.7443
78.5666
20.8538
-218.33
-270.193
-103.759
106.134
267.173
311.421
154.034
-53.3155
-178.727
-90.3981
-51.0002
-9.00244
44.9212
148.391
-39.0606
-373.22
-328.154
-162.247
-107.787
51.2342
138.188
32.8011
22.1734
-17.7645
-74.3908
14.8288
61.718
165.23
179.478
43.8152
18.9112
6.24589
-92.2681
-192.844
-90.9897
81.2269
65.2011
75.3584
110.674
67.3441
10.4844
-49.5296
-76.5353
-145.394
-123.962
38.8844
147.39
70.5042
28.7092
86.8877
35.7643
-61.6334
-74.7503
-159.323
-379.433
-253.116
-4.60305
131.252
275.843
430.609
304.736
94.5318
-139.065
-166.065
-194.605
-190.639
-64.9483
36.5302
-26.6774
52.9224
112.907
110.32
164.918
147.446
112.749
-2.54977
-144.04
-234.295
-206.235
-97.8954
9.73482
97.0251
117.192
100.249
-40.7195
-54.2934
-96.0169
-185.658
-142.394
-22.6402
104.152
186.17
182.043
236.078
256.475
46.0532
-141.347
-142.382
-85.2869
1.66394
149.272
-83.1631
-107.055
-131.075
-59.692
53.939
45.9855
-60.0016
-51.9456
-31.7608
-61.6702
-98.0365
-14.7749
-73.9907
-203.954
62.4025
205.788
83.7445
-117.205
-307.005
-280.31
22.1261
147.407
213.041
209.032
79.2239
-59.5463
-10.3121
193.933
233.252
364.063
366.491
6.62748
-177.142
-146.967
-184.341
-99.0865
-25.1433
101.046
109.345
-14.7551
54.8482
82.5322
-53.5252
-205.87
-266.649
-151.312
58.7468
142.526
54.8496
-73.473
-284.714
-298.825
-214.143
39.0262
162.279
137.166
191.87
129.169
-147.401
-274.952
4.24413
89.5636
198.212
264.265
161.828
68.1923
-128.58
-242.7
-217.535
-116.508
23.2206
72.1764
83.3372
-12.6391
-96.0358
-21.9702
154.26
286.689
392.311
170.577
-258.304
-322.749
-163.294
-51.2635
55.1964
52.8886
68.502
70.0197
75.3152
4.57295
46.6606
35.0027
-74.9734
-127.09
-119.307
-47.5415
48.7846
-19.6505
4.21849
221.8
46.7525
-130.181
-11.4117
-47.657
-121.627
36.2849
228.887
275.356
82.0362
-151.918
-193.967
-104.25
6.97034
57.5197
56.4997
-97.7372
-314.146
-389.189
-355.449
-103.683
219.077
297.285
125.786
89.5658
184.402
89.8781
-145.699
-196.126
-85.6094
41.1946
109.605
154.618
104.3
33.0307
214.113
290.487
175.578
179.626
163.629
-30.5678
-145.353
-127.555
-250.548
-222.803
-220.569
-200.325
-42.9003
79.5863
4.01142
-51.6976
-68.0948
-76.1713
87.4217
321.704
134.362
23.8627
-32.8631
4.60986
184.627
35.9566
-171.676
-166.754
-117.343
-25.0584
-59.2229
-105.526
-126.646
-185.571
-86.2539
25.8513
71.8062
100.792
47.6274
45.0743
278.636
275.468
56.3892
-54.7728
-129.909
-82.2477
-32.6928
29.9793
90.6799
27.9949
-80.4401
-15.9538
20.9898
-51.0148
28.9699
163.227
164.602
119.199
110.427
-53.3025
-125.275
-159.418
-79.4552
-110.887
-236.497
-193.735
-2.33854
210.789
339.218
349.727
323.67
124.152
-85.9321
-200.689
-334.184
-368.168
-319.518
-264.466
-56.9737
149.009
46.2469
3.03796
64.4714
90.206
42.695
-68.6622
-33.5391
96.5508
46.8498
-131.795
-292.207
-115.831
117.498
160.508
251.92
264.391
271.307
212.313
36.2493
-69.1862
-101.808
-133.022
-22.4764
66.968
96.8426
69.507
-81.4601
-338.133
-326.341
-25.3122
158.229
86.7673
74.6933
292.466
246.309
169.556
136.735
26.741
-143.105
-348.706
-331.685
-107.943
-15.4062
-82.0934
-82.5894
-64.3637
-21.9564
-21.3029
40.7941
93.1723
37.2163
19.3913
-27.4634
-75.6479
-61.3322
-51.3233
-44.9809
61.1442
111.669
174.315
141.034
125.683
42.2162
-89.879
-104.136
-96.1505
-105.682
47.6666
162.331
46.8582
5.44102
135.817
179.318
-13.2184
-177.785
-161.87
-63.1287
-24.377
-59.64
-24.732
-2.9994
-39.4584
19.4415
148.615
97.3302
91.5399
119.638
53.1346
-108.669
-154.045
-77.1164
-105.872
-160.679
-21.5263
211.265
173.351
53.2865
-80.913
-102.012
-117.495
-122.378
-124.501
56.0453
61.7012
-57.0819
26.1104
135.643
30.4172
52.3327
187.332
283.867
160.158
-7.61175
-152.713
-235.021
-142.109
-89.9747
-19.4468
147.126
160.194
1.09712
-101.11
-77.4896
-5.34447
116.505
45.5907
-75.4154
-99.2183
-122.182
-123.396
-207.719
-181.852
-116.767
-48.7551
22.6457
28.4362
126.712
194.876
94.6668
-4.01342
46.8885
74.0755
53.1934
74.0281
133.92
292.509
232.568
-42.9386
-74.7376
-2.31881
46.5051
110.113
-27.3449
-40.3958
57.8801
-57.5433
-143.824
-99.1555
-101.014
-71.1407
38.7116
-2.33285
-17.3849
-38.7184
-166.368
-292.599
-252.412
-11.1744
82.1287
180.779
357.848
222.131
67.6553
-130.233
-247.292
-127.386
-84.7638
-131.414
-8.90446
52.2604
71.7498
27.5904
-30.8938
-82.5243
-34.849
11.1711
23.1597
64.0373
47.0321
-130.77
-167.152
-47.4106
123.784
174.16
135.759
142.667
151.386
134.31
93.5166
54.9974
77.7773
171.708
98.085
53.4849
-0.861718
1.64439
53.535
23.0312
-126.445
-310.889
-432.991
-284.675
-143.794
-6.55239
111.607
148.413
148.806
41.3098
-160.114
-172.523
-78.0377
53.8407
65.7063
154.83
97.615
-8.46212
-57.0304
-28.6647
35.5087
199.948
91.8126
-87.3296
-98.5976
-37.4723
-27.2448
-146.804
-184.805
19.1405
230.868
250.591
106.545
-87.7623
-185.09
-243.659
-198.011
-147.687
-132.609
-83.3
58.6807
175.889
285.349
295.872
244.172
56.9137
-44.3839
44.7289
107.594
74.5196
26.1804
-22.3775
-108.061
-116.089
47.9703
48.7727
51.201
34.3048
27.8956
78.0943
-55.2543
-270.403
-265.741
-213.359
-167.485
-115.095
-107.003
-38.7572
78.151
110.453
62.6328
249.081
359.952
231.868
101.77
43.6011
40.4118
24.3684
-38.9773
-162.507
-153.273
-173.571
-295.839
-207.371
-85.2172
85.9751
238.483
195.716
144.864
-21.1727
-114.556
-274.339
-151.738
113.291
73.6933
69.9987
112.824
78.5888
17.4375
-26.909
-39.9231
11.4887
-20.7838
-20.0522
89.2625
-58.3035
-155.692
-57.133
-8.42631
30.3195
-12.7471
-88.5121
-55.476
-35.4617
16.7878
96.297
127.989
142.932
58.2364
-16.0174
-41.7084
2.85739
116.686
84.0494
-70.0242
-40.0407
39.8793
83.962
77.7837
139.767
271.197
369.38
113.305
-221.175
-263.204
-205.066
-165.164
-219.738
-142.901
-44.4662
-13.524
-26.1703
-88.8896
-70.0823
-35.9293
19.6998
32.9885
-32.7005
-100.721
-101.347
-88.6517
-156.618
-196.394
-68.3246
48.6555
39.2958
10.4143
89.2661
210.262
213.397
128.435
134.778
239.836
163.06
105.898
166.488
137.715
32.7552
-10.7839
13.5283
36.8976
-16.8232
-26.5574
-66.1904
-171.241
-161.188
-79.8374
49.936
110.855
142.902
76.2734
-30.846
-86.5286
-98.4658
-124.188
-205.735
-268.043
-139.331
-114.035
-148.339
-137.103
-46.676
82.5215
132.764
70.2326
44.8664
-6.43768
18.3497
-37.3688
-104.975
91.0221
170.618
56.4387
20.228
49.7174
31.9438
32.731
68.5812
152.817
120.761
89.8454
20.0455
-95.9587
27.2439
78.7748
138.908
155.526
79.332
-24.6666
-64.9195
-185.727
-181.608
-108.872
-85.7584
-35.3724
-9.81081
-50.5248
-89.9687
-71.4694
-7.59461
41.7698
3.82348
-0.85518
-22.1732
109.416
148.366
24.0269
-120.589
-51.5274
-30.2205
-36.8808
9.61003
79.538
94.7366
13.8239
-34.691
45.3118
-33.7004
-118.659
-94.3103
-72.153
27.8112
58.0836
58.4543
48.3035
-76.2327
-73.283
-37.9651
-66.0918
-14.7917
25.2833
26.0012
64.9542
44.9723
74.1486
102.728
72.0481
71.0423
67.2327
0.815168
33.1123
34.8616
45.9355
36.6771
-20.2935
-23.8557
-1.44447
6.44265
-84.2282
-76.777
20.4628
-29.7409
-104.629
-91.7051
-37.5775
-20.3545
-25.3446
-33.1362
36.3582
108.577
22.9354
7.9743
40.9141
45.3262
-3.43668
-38.0541
-6.16205
-20.9843
-24.2439
-34.9561
-47.248
-35.7687
-60.2842
-68.3034
19.0482
44.3505
24.0328
43.8833
15.4887
-6.57061
-66.9584
-56.1908
52.4231
40.2719
1.31226
14.7892
-16.8585
-2.86635
47.2686
-37.8596
-64.4231
55.5926
61.2432
52.0104
30.649
26.0221
31.0032
45.8869
-3.33945
1.70353
92.2567
53.6309
-11.169
-15.0822
-23.9348
-11.8012
-55.0485
-54.5696
25.9243
34.3204
19.9076
-49.857
-68.519
-50.6879
-71.3446
-56.9904
-0.16739
-10.0202
6.67708
-7.32958
-44.8357
-24.1603
-79.1691
-69.2933
14.1063
44.9787
61.6181
47.833
-5.13323
9.95513
37.6423
8.15423
-27.2558
41.2669
89.5645
66.8476
35.346
41.3466
45.4773
31.3745
-4.89496
-21.012
7.59735
68.0989
9.87792
-7.20808
26.937
36.337
7.78875
-11.8355
-62.7306
-10.9469
23.3941
-12.7391
-29.9376
-19.512
-33.8086
-54.5672
-46.9976
29.8026
4.66176
2.03455
-8.42765
-39.8149
-33.9669
-56.5508
-30.1347
-20.7077
-36.9053
-12.5239
16.231
2.71864
-12.7733
-85.571
-31.1967
2.74788
-11.6004
9.13581
30.7605
18.0327
18.3103
-4.62184
99.7622
121.609
80.4409
77.5716
66.1967
45.1156
29.7793
-8.14554
-58.045
24.5827
107.339
58.9285
-3.54462
-14.6224
-16.3247
-16.81
-12.6078
-49.8787
-26.6671
1.7483
-66.4472
-88.3312
-79.1899
-87.9139
-92.7541
-147.099
-135.135
-46
14.2615
-50.4965
-101.577
-85.3947
-101.977
-130.758
-148.778
-167.289
-48.2412
30.3544
27.0361
30.4222
33.7888
71.8046
101.384
93.2982
89.2596
176.332
143.173
94.365
64.1403
-3.20024
5.02877
29.2378
5.69624
120.394
175.689
167.272
155.033
155.413
141.723
128.099
48.0782
-25.1809
52.6175
38.4358
22.8138
12.3487
29.9192
-17.2774
-29.8832
-27.089
-46.3389
47.2852
24.7628
-58.9271
-81.8454
-27.6739
-48.3541
-79.3553
-79.2348
-26.4341
-22.1461
-0.948203
-27.4276
-16.4969
-33.1062
-94.1179
-58.9078
8.81657
26.5008
29.5155
1.49512
-80.9512
-92.9819
-141.853
-154.993
-31.5034
-67.9643
-91.4675
-102.53
-128.233
-107.052
-92.4791
-106.684
-26.1395
66.4702
62.3718
34.849
25.4147
87.5503
64.9329
-12.0348
-54.5703
25.6194
122.208
91.5685
-5.11591
15.7463
70.4525
94.9516
75.2093
53.7665
136.694
126.947
50.1922
1.78273
-14.17
-41.741
-67.6809
-66.7131
-61.224
46.9989
47.4803
0.30795
-30.7188
-34.9015
-63.8858
-91.4576
-106.507
-41.8692
8.62263
36.0463
15.3033
9.60698
41.3563
73.0359
72.0428
114.177
103.15
71.2779
71.7907
41.7256
26.9879
-11.2867
-98.802
-57.8727
9.17523
3.46877
1.74725
-30.0063
-48.6208
-10.5219
-53.7899
-16.7571
56.7503
80.7701
69.522
22.518
-22.8582
-57.7792
-71.835
-92.7249
-68.8819
-4.87335
5.08613
-15.9526
-35.809
-18.2717
-12.725
-37.4413
-15.9521
71.805
89.0027
54.929
-5.10409
-27.2465
-20.1728
-53.5688
-18.3771
75.0385
65.1657
50.9977
35.9569
-12.6143
-9.50051
-37.5445
-21.5722
71.6669
8.12687
-26.2619
-66.7721
-131.24
-107.855
-96.7872
-129.684
-144.506
-71.5138
19.4591
-21.0981
-85.7232
-72.2149
-77.474
-70.8703
-45.8092
-17.9864
35.2419
113.859
89.9226
107.686
149.364
135.917
99.8601
100.403
80.7394
152.121
184.703
114.543
52.9496
37.1981
6.86415
15.887
20.0619
77.5119
60.6574
52.5612
0.272825
-79.2932
-88.4456
-50.5639
-84.8398
-9.5196
13.0356
-7.86278
22.5773
-1.70384
-13.8346
-7.51273
-27.0953
39.2175
15.0527
-10.3535
6.35596
-51.5663
-99.9526
-89.4749
-142.017
-144.912
-49.8716
23.8854
74.4557
33.8882
18.0723
4.78087
-5.33939
-77.2474
0.842873
101.105
61.125
-13.2158
-16.0213
-29.0018
-57.644
-110.052
-81.9246
-46.198
-22.78
-7.16798
-56.3532
-59.3029
-43.7037
-74.1242
-97.3041
12.5696
43.5383
55.9074
28.0628
3.05654
11.2044
-8.62503
-8.6853
14.6411
89.8312
164.181
104.889
87.0274
85.0669
63.0115
46.4486
-13.1123
-13.3811
2.26593
29.1048
48.3581
71.4826
50.96
38.0168
-10.3548
-42.6403
-26.9333
-29.2026
-44.0498
-45.7291
-57.8827
-87.2935
-105.273
-71.2166
-75.0362
-19.0714
93.8157
111.924
100.011
91.7028
12.067
-28.5994
-48.772
-103.478
-15.339
60.4047
21.3875
-24.0411
-38.8765
-60.6694
-74.5994
-54.0093
38.5511
71.7392
57.0625
-28.9562
-44.1343
-50.76
-80.1465
-95.9213
-12.541
55.1722
107.916
133.578
72.5018
31.2699
-28.6437
16.4685
81.9828
55.8513
50.6177
34.621
-14.8789
-9.32387
29.1749
-3.82712
-13.948
30.0743
-30.1863
-51.5574
-50.346
-83.7011
-103.114
-60.6487
-109.756
-144.767
-64.8631
54.5479
27.6157
41.2127
111.776
203.57
128.246
16.3466
-75.4864
-22.7617
80.5216
-10.1568
-53.685
-54.5556
-66.574
-12.1181
-11.4284
-56.2643
-27.7061
-18.7294
9.50549
-1.8187
45.3796
19.7162
-66.7902
-84.8665
56.3543
89.5071
26.7616
-11.1296
-50.3116
-5.77845
28.151
38.8549
117.209
74.7557
26.5542
-4.74599
-14.6897
25.3356
-4.57832
-104.498
-125.565
12.6633
62.037
4.57032
-41.2563
-44.251
22.6477
42.7369
30.0605
1.84613
31.9619
53.0128
-15.3855
-41.8201
-10.6059
-12.3042
-69.1818
-42.7484
51.7109
94.4805
45.4813
16.4071
11.2039
-35.8938
-76.6733
-44.8089
6.80437
-15.8228
-12.8724
-48.4525
-62.9326
-8.83208
-54.3251
-50.8777
67.0883
126.1
172.994
141.334
20.614
-76.9667
-17.0087
-42.822
-83.0467
-52.9976
-34.7878
-111.814
-70.1305
-40.324
-44.3123
100.529
93.884
-47.2736
23.6036
80.0981
59.2162
31.7782
-14.8357
-1.76139
27.3982
-1.71099
34.2445
75.0274
91.2837
77.0831
32.9217
55.1823
-11.8207
-77.8566
-171.295
-159.131
-3.60896
82.4167
44.9924
32.5609
-58.2901
-114.423
-145.443
-40.7055
45.3463
56.0832
-12.1369
-101.496
-97.1449
-29.7358
23.5898
105.78
68.2782
142.352
205.742
100.42
15.8134
-37.6969
-117.566
-153.596
-63.1301
59.7949
138.902
-29.5195
-151.127
-96.3733
-37.8386
-72.3097
-0.14815
6.38637
-55.5439
-31.1832
5.48676
-49.6956
-18.2399
115.832
59.3338
84.9199
90.3882
119.035
64.0978
13.6093
71.1433
87.7631
112.783
149.661
46.1596
-21.7375
-117.298
-160.128
-139.621
-106.678
-87.1942
19.0214
41.3953
-37.9151
17.0223
36.0686
-3.80274
-42.0539
-36.5323
-39.4959
-14.1593
4.04511
-48.9519
-121.881
-79.151
75.3639
63.0992
-17.3671
-72.5773
-53.6812
87.4072
103.698
44.9585
71.9156
99.821
36.8351
-16.0831
-41.7156
-80.6975
-78.9136
6.88897
52.6138
51.2459
-14.4072
-14.1012
16.3641
80.3584
120.321
165.976
3.74686
-104.85
-36.3754
-45.1846
-58.1528
-78.4206
-18.4758
63.4038
57.8078
59.0272
30.6201
-70.7981
-129.102
-173.633
-106.034
15.7062
55.5677
37.2068
41.3952
-10.9502
-19.1428
-75.5418
-242.954
-179.332
-22.9078
78.2372
115.522
93.4767
102.239
107.527
102.138
109.68
155.517
176.123
69.3475
-89.2887
-151.905
-112.082
-86.5432
-84.5052
-3.68859
72.2961
119.276
125.01
91.1875
65.7134
-8.83866
-83.7665
-92.5425
-15.3731
12.8764
11.3763
-54.1712
-80.4057
-88.8902
-54.1932
-25.1983
-71.0069
-51.3183
-0.229111
48.1918
113.454
192.201
141.898
-87.9163
-266.245
-119.469
59.948
76.2477
13.308
-60.1587
-120.786
-123.091
-80.3913
33.6537
74.4738
57.0199
57.8868
41.1878
23.425
-15.2243
-100.177
-191.634
-104.372
36.3028
166.121
96.6491
41.9954
142.514
121.883
127.872
89.7621
32.8737
-41.4561
-171.417
-101.175
7.31073
6.22437
-18.8001
18.7132
71.6826
161.166
164.241
95.0102
111.536
52.2741
-64.3155
-156.895
-238.94
-125.937
-15.0771
39.9766
-0.747512
-79.1128
-103.589
-112.696
-87.2184
107.304
233.898
161.668
40.9728
-65.7025
-182.054
-273.256
-196.086
-85.8794
-39.7064
79.0139
32.5167
-112.825
-147.838
4.58969
206.434
133.335
147.907
99.0117
-41.0521
-119.793
-98.4676
88.7456
176.592
122.944
311.346
588.377
327.246
-47.0814
-257.887
-361.302
-313.208
-168.323
38.6956
-8.02248
-79.581
83.8283
190.92
158.928
5.39867
-72.008
-68.3057
-190.939
-255.568
-279.578
-293.075
-366.228
-209.056
66.0857
265.386
218.899
162.28
168.55
101.853
112.662
25.9957
-17.2683
15.4914
-9.2389
132.75
208.475
85.9211
-0.851999
61.5624
90.584
-4.93555
-37.1236
8.42948
144.147
180.468
106.451
33.2986
-52.6061
-206.146
-260.781
-163.589
46.6819
93.0269
-53.7045
-139.17
-182.417
-211.411
-202.069
-218.246
-118.599
-7.21201
23.8186
54.3204
64.5963
85.9606
87.7599
157.66
206.258
156.127
96.1189
26.04
-22.0612
-151.875
-173.181
-72.8663
52.2192
104.016
55.7142
49.5788
98.4988
95.3226
20.9568
15.4676
-52.5561
-93.0748
-27.9499
-46.5514
-93.1954
-29.881
68.675
106.433
65.3972
45.7678
152.979
94.9108
-151.243
-163.216
66.7176
253.928
165.975
18.6925
-138.871
-153.794
-236.673
-272.906
-70.4174
191.445
217.634
15.7005
-45.6545
-90.0699
-232.339
-137.51
-7.13524
57.2456
103.485
47.4983
14.0232
-52.1511
-91.3087
-57.7055
2.4555
64.4194
81.7003
33.362
133.562
114.742
1.45051
-23.9677
-94.3618
3.92623
85.8523
31.8467
-14.0445
-52.3592
-20.7823
15.4935
-20.9741
7.58746
-4.03271
-65.2878
-166.546
-22.9895
153.17
276.677
129.807
-85.2745
-106.347
-15.7543
53.7046
-0.291743
-19.7293
-29.5578
0.416043
165.024
146.184
-36.6324
-289.215
-424.756
-240.987
32.4412
211.943
164.26
73.256
-20.9148
-113.408
-69.7627
66.5486
59.6847
-43.2058
-152.378
-107.193
34.1535
153.875
114.355
112.591
209.536
319.461
273.25
75.3351
-40.7111
-37.9284
-149.776
-147.276
-155.288
-99.4568
-68.5387
-99.8362
-83.3678
-92.6376
-6.72925
89.8338
6.30716
-81.6989
-31.7798
78.5256
16.6122
-107.982
-134.894
-104.442
-54.6245
21.9497
133.604
98.3004
51.6613
51.5739
85.4406
56.7266
-44.8812
28.0666
77.7464
27.365
-2.63736
-101.222
-111.088
13.9407
98.3888
177.431
57.0655
-75.5465
-46.6322
22.175
-219.983
-384.313
-206.454
92.8419
256.141
248.218
217.985
178.787
168.007
87.1209
-40.3858
-15.4011
-54.7055
-116.232
-28.8688
-25.835
14.6698
27.4051
-178.719
-221.624
-25.7855
128.224
81.936
-63.7022
-166.262
-101.764
-44.3393
-100.078
-78.1402
83.0689
114.94
-23.6807
-129.558
-119.969
-95.6836
-0.817657
53.822
31.6721
177.798
210.941
149.761
137.909
103.871
4.10555
-29.5777
-48.8063
39.4023
56.0319
24.19
-42.3216
-26.3159
14.3001
-2.5322
-82.775
-45.3696
-118.594
-53.4533
109.064
55.9043
-36.7863
-68.885
-3.41705
126.1
34.3568
-5.85631
-37.84
-89.038
-12.8613
92.7246
165.454
59.2263
-157.635
-364.715
-341.92
-54.432
177.946
130.046
43.8148
40.9787
24.288
179.669
218.808
119.1
25.1675
-28.3809
-17.3877
-16.4512
-60.7228
-126.284
-255.64
-188.731
33.9429
206.477
173.122
-112.47
-350.283
-224.068
26.771
139.946
140.397
49.3768
58.0682
44.1495
3.59926
-14.4745
8.28626
131.087
130.548
-25.7368
-107.489
-51.1263
5.12965
105.901
105.86
114.511
93.9012
39.4912
-36.1401
-26.3859
6.93106
0.48456
-61.6439
-181.088
-49.9116
17.3144
30.1181
-14.0518
-30.5064
34.6929
-19.182
-152.919
-152.24
-22.4905
38.3416
8.42239
-54.6792
-27.5876
3.52868
-38.7666
64.9987
50.9813
13.0366
58.7009
32.7342
4.62108
-6.76839
-74.6933
-60.1591
-44.8546
72.5419
192.095
218.345
117.82
19.8053
-59.2159
-10.9242
-66.2387
1.87129
-0.832994
-137.113
-78.4621
35.0277
60.8213
38.2914
-43.1024
-104.373
-126.312
-13.5327
82.4016
73.1077
5.20609
-19.9194
-9.09371
26.6915
26.0149
111.03
137.377
-53.6858
-172.245
-15.8448
74.6519
-24.6789
-92.9866
-113.55
-130.261
-66.2981
-71.1126
-81.4337
115.052
177.39
159.076
57.6595
-56.3468
-3.7311
110.83
-5.102
-57.3814
78.4633
137.672
38.8929
-116.805
-116.077
-76.469
-57.7516
-7.92833
171.332
299.113
112.655
-144.213
-129.629
-51.9108
-20.0638
-9.32589
-55.7993
-132.967
-42.6702
71.3028
49.5979
-0.291245
-156.376
-305.841
-184.983
135.248
173.782
102.778
-69.9102
-66.0072
78.8119
155.226
248.666
179.046
85.3356
20.6401
-80.5909
-79.332
-0.496255
-35.9385
-124.667
-151.748
-128.33
40.0988
117.858
-39.4965
-17.4528
38.7525
35.5112
48.9228
13.4068
-4.42418
-150.497
-116.832
-106.575
-49.4953
73.2867
141.056
66.5553
-46.9349
-51.3787
8.63826
169.023
227.259
63.4189
37.3185
32.3063
61.5939
14.8408
-29.3516
-45.3929
-64.4015
-157.304
-155.284
-52.2848
-59.5345
-7.00972
120.427
183.407
73.8866
-96.9201
-203.172
-124.272
-43.5683
149.516
115.956
-4.46105
-68.1476
-122.922
-137.033
3.72663
35.612
72.8388
75.7227
124.401
108.926
-12.8247
-232.603
-203.915
-1.67161
159.053
204.097
153.805
79.4865
-13.3868
-48.2771
-21.6883
-18.6294
35.5195
42.3112
-123.678
-247.174
-107.318
26.136
-39.2645
-67.5864
-19.7229
41.1127
68.2556
88.8347
155.38
154.081
-29.0107
-183.392
-99.2724
111.417
127.772
45.3337
139.392
227.842
101.674
-67.492
-215.164
-146.741
-50.4098
8.87514
10.1585
31.2807
29.5921
-52.8575
-110.121
-34.4139
23.2044
73.8238
5.70677
-134.024
-168.74
-167.483
-69.8881
-7.43071
-13.6498
96.7266
156.384
122.703
68.9102
-95.7373
-243.728
-106.348
-43.6226
48.502
49.8366
45.2253
103.779
182.106
165.301
67.8124
69.1125
90.5824
57.1577
-24.3816
-16.901
55.8277
104.673
-87.7346
-264.063
-88.5056
171.227
24.2731
-130.676
-174.914
-104.55
-29.2124
32.7154
3.26131
25.0453
53.3032
73.0725
114.711
-51.3967
-144.16
-55.3821
-1.85001
51.8206
25.9213
91.3068
40.3908
-54.8871
-43.4934
-21.0332
-58.5411
-4.15272
-55.9557
-48.1442
36.0806
35.9128
50.3755
27.6384
12.4258
-56.4196
29.1516
44.6424
9.73796
-5.94663
45.2791
10.9728
36.8715
204.499
168.465
52.2219
74.4665
-50.0923
-199.134
-248.408
-208.321
-138.997
-41.1608
-50.8376
8.65887
148.9
182.785
151.261
-50.3489
-120.285
83.9746
168.224
29.5
-270.423
-257.448
-6.2685
51.5597
-27.3328
92.9256
139.223
96.3826
51.6343
-67.8741
-155.586
-61.852
69.7963
-30.1946
-94.0887
-6.58931
-25.991
36.0321
141.683
205.81
208.822
67.9811
-46.1746
-51.9112
-24.8568
-53.5454
-91.9364
-58.64
-35.6292
-128.374
2.51599
94.4737
47.8458
166.08
310.009
133.548
-312.53
-470.971
-355.577
-181.31
47.3455
162.21
122.046
71.8872
111.716
137.985
211.244
226.131
185.31
96.7387
-119.552
-191.153
-194.121
-166.183
-173.701
-68.3201
183.627
143.567
-29.1962
-52.3535
-41.8331
-95.7705
-156.595
-181.698
-1.07732
106.162
-46.0739
-152.689
-190.414
34.2238
271.724
217.721
107.838
-49.2881
-124.512
37.0225
222.595
247.498
171.628
-34.1254
-166.287
-35.0378
300.11
267.262
-78.7291
-266.629
-213.112
-152.522
-93.1931
79.7478
128.979
58.9531
47.1778
1.74151
-99.3284
-203.438
-122.684
-23.3488
-31.9372
31.313
91.6883
68.921
-111.91
-137.465
-27.4241
93.6498
171.319
114.282
-38.7145
-195.796
-148.14
9.65178
53.7805
80.3767
86.5735
160.592
231.321
45.3258
-181.167
-132.5
-48.8002
-36.4739
-40.3117
16.6856
69.6644
6.71657
-45.4111
7.19132
98.3798
82.9804
-1.50948
-78.5613
-10.5709
25.6549
34.8937
-27.0056
-135.446
-102.895
67.1881
25.4048
-61.9187
-16.7988
9.38073
-32.5676
-1.80463
30.6383
-39.195
-62.9133
-77.4335
68.4837
156.519
48.3262
-72.9664
-0.401862
173.84
166.679
63.8976
67.3336
85.84
-48.4901
-207.349
-232.226
-125.339
70.8623
116.876
129.199
79.6476
-14.4438
-21.2849
8.36644
-69.5415
-102.709
-104.057
-59.663
-40.9886
-5.15216
37.4926
0.939814
16.8475
43.7342
8.17764
17.3116
48.9588
25.4519
-117.544
-117.06
-34.7487
-8.04202
38.095
27.9773
18.4915
10.8171
32.6051
16.1604
20.9635
26.4624
-1.52317
58.5727
135.508
100.137
-47.0017
-150.388
-131.225
-3.67876
72.954
-21.085
1.02006
83.5645
131.067
78.478
36.091
-63.3542
-130.454
-119.387
-86.2326
-12.0049
76.8455
107.186
33.7547
62.0353
120.541
95.5797
-1.49559
-173.279
-171.337
9.42001
-22.2719
9.9147
53.0636
-20.5004
-65.0046
-16.6943
-13.1951
-97.5922
-122.535
-49.743
-131.366
-163.242
-12.271
39.9771
79.5501
156.026
164.745
98.9327
87.3794
16.5835
-10.9054
-49.295
-81.4244
-17.6387
155.165
190.91
138.906
76.2265
40.6035
35.2769
49.0577
-49.2542
-46.9764
-63.498
-110.848
-111.415
-15.6328
121.834
97.6026
-60.7207
-181.345
-272.011
-170.821
-20.3335
-22.5464
-15.7806
-139.414
-173.337
-84.8683
-20.5853
203.67
199.915
53.941
61.4853
140.296
168.371
62.5083
14.0689
-38.0597
-12.3247
102.872
124.188
65.0337
-16.8821
-207.508
-300.951
-32.4328
313.469
324.082
163.502
-33.9336
-81.8845
-66.1246
-38.1118
43.6054
73.6081
-65.8611
-185.078
-174.312
-146.642
-166.301
-76.9565
-17.1104
-76.7131
-32.553
126.484
145.418
11.6998
-131.103
-172.578
-47.6851
-9.41139
-118.121
-102.629
-5.76261
133.151
235.957
246.273
217.08
110.378
72.1979
114.859
48.445
46.8697
83.855
15.897
-11.9916
-1.89645
-27.0681
-39.9926
-29.2895
-22.4177
-15.4346
4.82716
-85.2435
-396.045
-387.901
-281.398
-228.646
-31.5622
134.029
271.662
314.883
175.989
61.2949
55.2404
72.5055
-38.3829
-34.685
70.6166
119.569
174.144
13.6073
-327.586
-439.248
-77.2987
218.753
275.089
214.211
120.575
-11.3175
-149.835
-174.415
-19.1086
47.0709
32.1184
-76.2257
-129.967
-82.5197
-38.544
-45.7765
-93.4763
-31.9588
152.677
237.564
89.6766
-96.8058
-93.1833
-30.9873
19.2418
14.985
-33.4807
-13.2922
24.5912
67.6545
30.9801
21.6715
13.8808
66.2339
59.2668
-33.7965
14.5076
106.324
139.497
-10.9711
-164.93
-191.139
-89.193
-20.2984
-61.6304
-76.0463
-86.3956
-6.83517
39.6532
96.9427
174.278
105.299
130.102
69.3716
-98.9979
-94.2938
-44.1717
38.1927
56.4488
112.721
161.903
65.4124
-120.315
-215.88
-187.496
-23.9409
87.9863
-1.44648
-31.6291
-62.6799
-90.2191
-1.95065
51.7849
1.216
-68.2272
-200.682
-148.65
-91.5019
-35.1162
54.5827
94.6296
92.975
101.59
155.925
285.116
172.162
30.1885
-84.1132
-106.083
0.857788
-9.08248
-88.8356
-3.68328
42.2453
83.2497
155.966
41.3987
-45.8656
-11.3398
-87.3485
-43.9157
-5.12496
-92.7459
-58.3971
-124.946
-54.3298
-0.0291062
-31.7731
1.50939
9.14285
8.21785
44.1132
-60.402
-81.4303
-1.49023
81.2003
212.165
162.098
31.6806
-70.8633
-102.164
-4.12949
94.6173
-43.3631
-79.3806
-44.6219
23.9769
11.0036
-72.671
-36.7399
26.2862
56.6698
53.9822
15.9518
-15.5998
-13.8053
-65.7114
-55.6869
-29.0509
67.6344
90.078
-20.637
-35.7284
50.8125
43.25
27.8141
46.1897
107.476
21.0769
-181.319
-255.766
-106.024
59.5801
139.187
157.062
18.8236
-71.9622
-0.821465
31.5939
34.2408
52.4631
18.9989
1.12642
-46.1584
-41.2135
-82.3416
-183.531
-129.065
62.6393
181.387
152.052
16.5985
-119.06
-86.1776
-4.46935
-3.87754
25.1847
-26.7004
-25.2606
87.7537
59.1405
-24.0393
-53.9977
-60.0095
-11.5989
52.2034
41.0811
25.3961
3.43155
33.359
76.0932
55.4623
-31.8352
2.97411
0.907983
24.94
38.4255
17.5087
-0.765095
-57.0358
-124.059
-64.9252
-76.8045
-4.79911
46.7734
-2.07985
-62.3849
-75.3005
-37.9746
79.8465
133.104
118.599
123.406
71.1518
20.2394
-17.898
-124.274
-111.769
-41.29
-22.0563
-10.2358
34.3416
68.2388
-46.4165
-163.374
-91.9161
65.3854
79.3078
-27.3147
-8.82518
59.2988
17.0181
-10.4749
-78.4454
-76.1046
96.8533
191.403
184.607
151.624
107.588
20.3062
-58.0713
-84.5974
-134.904
-66.4334
-114.63
-113.411
-18.9438
28.0998
-22.4897
-77.5669
-57.2246
62.3269
96.2635
104.545
-30.5085
-168.971
-273.396
-249.856
-153.32
52.6491
159.335
163.746
181.238
135.769
136.84
79.6854
76.5339
140.697
64.0171
37.2846
29.477
-47.3159
-69.5483
-114.08
-177.203
-67.0097
59.8767
36.7231
19.2599
9.74161
41.0482
39.9957
-11.5354
-74.661
-25.1291
-139.427
-148.783
-96.1963
-30.8968
101.163
153.565
66.0495
87.0964
117.152
84.1647
-10.7369
-73.1794
-83.4878
-42.3624
-11.7723
-62.7182
-76.0993
-62.1725
-45.8896
-24.5232
103.624
118.528
106.75
83.5769
-223.074
-294.892
-145.364
-9.14106
75.6779
103.435
104.726
188.834
175.237
49.5232
-55.9987
-86.3176
-69.6898
5.44798
-21.5205
-97.3944
78.9125
224.452
77.3021
-85.5361
85.0125
159.838
63.4862
-54.1909
-176.803
-93.7976
-9.14968
-100.198
-108.322
-50.0909
-22.7749
-6.13046
-39.1583
3.30724
60.7428
144.451
128.177
-120.372
-134.767
-7.60247
33.6421
48.2738
50.3972
-50.2037
-95.7174
-84.5375
22.3729
65.3717
-71.9817
-56.4286
81.7282
214.651
151.963
28.638
26.6292
-76.8223
-277.451
-183.456
-97.6144
-60.0112
12.3752
-5.83558
10.9795
211.799
143.883
50.4854
108.911
100.631
143.058
127.115
1.08175
-112.173
-53.2153
-44.7014
-96.2414
-24.7409
9.15303
5.05673
-84.6084
-140.895
-69.9018
6.84321
90.6919
108.763
141.35
65.2137
-66.1117
-88.3908
-58.1156
-94.7662
-150.065
-164.864
-59.7148
36.0621
32.9514
-0.755511
46.2621
105.503
130.881
20.9793
-81.5302
-42.9428
-68.2601
-99.5239
53.4782
9.15492
16.7612
165.413
242.278
199.242
-18.0653
-181.73
-120.847
4.18821
95.4014
84.055
-4.58767
-14.2867
173.591
171.834
4.7239
-172.469
-163.689
-116.228
-68.8941
29.6676
76.593
15.2538
-45.9792
-119.319
-31.1615
16.3195
-28.4725
-63.093
-64.5555
-77.5423
-125.194
-106.019
13.8377
136.968
155.668
92.7701
118.418
16.0477
25.7559
106.767
-23.7874
-199.461
-266.73
-132.866
89.3545
182.817
198.008
258.943
190.056
29.2082
-35.4742
-123.422
-154.428
-138.769
-78.1385
27.9395
36.5182
-20.6853
-82.0063
-199.425
-135.306
16.6912
-79.3658
-34.0656
78.5737
123.295
112.691
70.1072
71.3446
116.694
198.21
189.229
-19.8641
-53.5906
-11.4843
-15.5496
-23.2757
-24.8304
-97.2618
-64.7982
-108.606
-182.465
34.1922
146.274
54.7539
2.71593
-160.172
-229.372
-130.298
30.8764
78.7073
32.9363
10.1042
22.0514
4.99278
57.154
-80.7557
-88.3468
18.3681
155.335
294.508
322.785
278.39
244.586
82.8474
-42.4779
-90.2263
-189.283
-302.992
-382.915
-427.468
-318.92
-82.3035
27.3217
163.149
151.823
178.599
207.403
119.909
-99.9564
-111.633
12.9232
32.5757
-62.2662
-83.0673
-44.2589
55.1709
84.7617
148.675
225.35
212.389
164.785
7.38723
-79.6979
-99.4564
-112.622
-66.0511
-109.63
-78.3464
-2.76416
-42.0797
-50.6604
-50.0935
-210.319
-252.614
-160
-33.996
107.775
159.217
165.111
150.685
42.672
10.4028
49.4271
-100.201
-47.5368
124.774
271.89
143.47
20.4907
-62.7987
-56.0703
-2.56266
65.5364
52.6739
7.34182
-11.2928
0.332056
73.5625
132.512
1.37137
-22.3496
-39.3519
-98.1845
-112.946
-122.911
-171.509
-182.714
7.76093
71.4849
32.3419
-110.586
-145.315
-80.8509
-37.649
38.146
23.0489
-22.9818
-20.1459
-14.709
53.7227
69.0225
41.1556
22.1323
116.319
91.448
72.3239
65.8849
94.7143
75.8503
80.3997
82.312
-107.812
-259.587
-155.474
-50.3364
-9.43196
22.221
52.1801
64.9217
84.5199
142.673
116.325
21.27
-42.841
-101.684
-94.6553
-83.5145
-68.8757
-41.6509
-65.3115
18.8076
209.249
280.43
219.585
108.545
-21.1594
-81.8751
-251.662
-293.048
-102.136
-64.1297
-56.3619
72.4436
159.664
85.8579
-140.19
-297.913
-132.446
89.5976
162.504
95.2358
-16.8806
-91.952
-151.416
-50.8704
72.1315
49.346
117.63
180.212
101.456
-56.5895
-77.406
-4.88826
-2.04503
70.1662
165.464
137.303
28.3032
-113.317
-257.098
-97.4071
46.9076
65.4051
18.0439
-21.3364
17.4436
93.3995
87.2918
-106.038
-406.824
-311.922
-95.5078
44.8343
166.516
162.667
61.4635
145.629
66.1914
100.367
235.83
138.514
66.5916
67.6172
77.1546
-25.0616
-149.618
-132.525
-103.786
-77.4137
94.7126
175.768
117.583
38.486
-17.5582
-62.2907
4.64253
-61.9353
-147.746
-102.936
-120.294
-152.647
-160.756
-51.3443
-36.604
-153.114
-125.382
-37.9743
-31.585
12.5128
127.369
74.9545
9.73183
47.2786
66.7532
168.176
168.875
220.352
163.49
44.8339
3.81687
-61.4819
-105.857
-157.251
-138.675
-19.7156
90.1747
45.181
21.961
-34.4461
-48.7191
-1.8171
24.1071
-64.4926
-50.9797
-81.6514
-36.2035
1.16985
51.3421
51.093
33.3222
38.3005
101.113
69.5384
72.829
65.0015
43.9091
34.3906
-51.3284
-95.6035
49.4357
-12.3869
-76.6772
-11.5676
-17.0626
-38.9909
-93.8993
-136.362
-80.2168
13.4486
-17.463
7.19048
-6.908
-4.91229
0.517379
54.5456
113.52
208.725
284.365
201.778
1.63156
-53.9564
-23.6262
-76.1366
-182.661
-217.64
-75.5367
-51.7262
-81.7073
-160.437
-148.553
-59.4036
28.9121
41.7311
70.2986
67.2095
2.91514
-30.9628
-50.1403
-27.4772
-17.0738
64.0801
41.6974
7.22312
91.9221
147.231
82.131
137.883
188.642
198.565
68.6725
-107.745
-115.694
-25.0047
-47.4352
-124.806
-209.312
-294.806
-192.696
-17.6953
92.3574
57.9098
23.9251
35.7304
87.0223
226.933
65.1804
-3.64104
2.80232
40.1622
100.287
156.177
132.473
60.0494
-94.8472
-140.931
63.8507
217.03
143.673
1.68687
-93.4543
-104.608
-85.6908
-141.518
-128.529
-132.621
-106.968
-166.84
-227.921
-215.425
-112.762
-51.5997
-25.1768
32.6103
129.86
182.952
134.441
105.434
91.4414
37.9893
10.453
39.4898
64.1433
111.601
41.4134
-41.7923
-13.8313
4.03905
-24.3421
-8.9026
-1.92197
81.4013
15.3601
-80.8176
8.76229
34.2493
-82.7765
-186.206
-61.0986
92.9563
117.96
72.5239
45.3344
43.0465
-38.3888
-139.33
-31.1165
53.8972
62.1714
107.261
201.606
62.2858
-30.2843
14.4892
-18.1873
-136.375
-145.621
-192.505
-290.939
-209.328
24.0042
192.679
160.24
3.84459
86.6721
283.705
191.052
77.8142
24.095
-62.959
-155.835
-64.5075
33.0116
-20.4901
-85.4551
-56.272
-24.6665
19.7124
-34.9078
-137.868
-103.795
-122.543
-114.554
-21.2088
14.1344
-40.9708
-65.6366
-69.1974
-30.5677
98.863
196.928
170.366
19.8101
-27.4036
-4.81317
-8.70885
131.067
299.61
197.611
50.86
-35.3322
-65.8312
-10.4368
36.532
57.2994
115.736
165.746
118.738
28.2609
-50.2797
-193.542
-299.523
-163.804
-70.5401
-12.6884
26.8518
-84.9261
-267.705
-270.156
21.3079
182.357
75.3514
92.4173
372.258
331.241
-27.3631
-227.955
-221.75
-159.064
-180.66
-202.428
-25.2821
98.0391
62.8966
9.86839
-17.3101
31.905
30.06
110.962
-20.8584
-121.588
-9.6369
17.5947
-131.51
-135.026
-2.3874
84.8002
120.411
122.889
83.6861
97.1197
79.6751
140.991
159.988
18.5313
-35.7723
76.0154
243.169
250.721
197.217
-22.1833
-173.715
-294.1
-350.722
-237.976
-8.05399
21.7159
18.9334
-16.977
35.1233
84.2078
-5.62593
-63.9939
-32.8338
3.08885
29.1865
-61.7553
-113.422
-140.455
-221.578
-143.88
-86.2925
72.8465
229.725
166.341
104.477
81.946
28.5315
48.3545
49.2228
162.668
173.54
7.77768
-52.3682
-11.2677
-26.2786
-129.912
-201.02
-104.865
60.6638
67.1863
-7.81384
-143.685
-151.936
-74.1568
-88.4796
-56.1411
78.5967
149.403
95.4952
51.165
54.9316
128.493
211.021
242.716
88.6929
-20.277
-81.8986
-115.086
-126.575
-184.891
-87.3279
69.2985
44.1692
26.5019
7.27498
-71.4898
-96.2557
-12.5798
-1.45984
-52.3796
-131.921
-185.114
-202.609
-187.517
-34.6413
119.48
252.778
177.726
165.09
266.3
210.393
91.6556
33.1994
-16.979
19.7781
51.2785
-42.5473
-86.4919
92.0274
127.194
140.798
26.6046
-163.693
-204.047
-237.03
-264.604
-119.964
11.155
-60.3263
-121.22
-80.3095
-46.7985
-10.7246
20.2468
24.7771
-3.98088
17.4443
13.1584
-24.0727
-19.9528
30.7224
96.2261
202.065
187.095
218.54
148.997
-5.08086
-43.3911
-87.684
-72.9989
42.5211
58.2705
20.6855
-27.4913
-79.5882
14.766
102.448
119.541
-65.236
-149.62
-71.8549
-1.62498
19.8415
56.1363
50.4134
-10.4546
-140.188
-121.324
-29.9602
-59.9512
-65.5393
-69.4677
-61.6088
-26.1976
7.72017
-2.20304
-72.3008
24.3355
121.406
64.9248
-30.1841
-38.4993
-80.2246
-35.417
43.4692
161.948
161.041
88.479
17.011
31.4406
16.17
-56.43
0.211307
143.323
133.733
76.5023
-26.8084
-238.306
-278.966
-139.881
-78.8661
73.9724
185.578
147.804
37.0774
-23.3303
25.52
32.7411
41.611
-14.7256
4.95478
28.9246
-88.1373
-180.901
-107.382
-37.9089
59.921
128.373
273.861
112.258
-76.5575
-183.795
-178.81
-151.08
-114.414
-83.6761
81.5562
173.577
150.971
44.1396
-39.7293
-55.3569
-6.97926
5.93695
14.7937
-5.83074
-32.4672
-35.8248
-88.3998
-53.7155
-50.6874
-48.7441
32.1159
71.3995
171.509
162.501
-21.8518
-169.869
-178.4
-109.865
50.8234
215.984
221.92
136.876
66.5016
27.661
20.8762
-10.9956
-117.199
-22.9994
71.3876
47.3838
-50.3948
-43.9772
-1.05596
26.5609
-112.364
-97.1639
6.49789
9.75489
29.0392
34.5969
49.038
49.9837
16.8258
-89.4761
-165.348
-115.342
-87.4165
-10.7409
108.367
155.117
89.0602
-97.6557
-254.184
-202.316
-30.3347
114.06
134.744
112.436
19.6813
-66.0272
-86.3073
-167.789
-182.06
43.6942
194.593
83.2681
119.8
130.071
99.2292
69.1371
46.5908
57.8048
5.35653
-97.7166
-80.3629
-42.8988
20.5937
172.256
138.127
123.971
24.8214
-41.9017
-138.264
-266.14
-235.132
-31.5178
33.6766
19.5207
75.7401
117.535
46.549
-4.87951
21.1296
89.4163
-55.1614
-194.039
-95.2076
-48.4262
-90.205
-147.436
-119.331
59.7073
283.596
394.526
287.81
86.1389
-60.059
-190.076
-251.64
-142.696
-8.46199
19.9173
19.1184
-57.5015
-11.9683
1.97197
-111.223
-46.2827
17.763
-24.0225
-9.21617
48.2885
21.0076
6.73474
-17.4475
-18.6352
88.0908
142.626
-6.93159
-121.979
-149.334
-57.2347
66.0024
100.673
136.399
180.187
120.69
-38.2632
12.0917
111.898
87.0943
1.21712
-62.17
-36.1093
126.239
121.283
-46.645
-93.7042
-16.0978
-46.666
-68.0887
-42.6287
-79.6898
-72.364
-33.1028
-24.7357
-118.988
-133.516
-69.3021
12.0463
44.9429
33.408
36.0547
-30.6099
-132.348
-110.255
-60.719
-25.5122
103.659
151.955
92.5283
-82.7682
-222.049
-106.139
15.1975
47.0224
23.7686
112.376
110.132
125.261
106.938
65.1512
176.399
225.975
-5.61336
-73.6291
14.4034
32.3263
-42.9114
-84.6736
-13.6869
61.6923
107.578
78.3761
-8.88585
-49.565
2.15328
-97.1485
-192.279
-241.341
-197.632
-46.793
-63.8242
-105.158
-7.19191
121.301
172.256
191.584
134.895
11.2937
-20.2597
93.119
44.3816
-160.293
-167.375
-64.8119
18.2816
13.6715
28.4128
12.4681
-9.10038
-110.453
-151.427
-50.305
81.6702
45.0194
-38.0847
-17.4027
-24.8648
20.8393
56.6753
13.2623
109.253
176.988
164.762
67.7144
63.3277
61.4885
59.9432
10.6312
-70.1536
-63.6429
-43.2172
-84.8588
-57.771
-40.9918
-18.0525
7.57532
35.6479
9.30482
-39.5526
-68.2675
-24.1686
-28.9192
-48.5624
-60.9909
-44.4668
-52.5487
-108.612
-88.3912
10.0017
18.0819
13.7733
71.7991
93.024
64.9832
35.7339
-6.50386
-29.2424
44.398
-25.0773
-50.4484
-5.93936
129.788
248.125
196.018
41.0052
-1.04262
-20.1198
-60.3091
-71.7563
8.84011
40.0603
-1.64827
-46.2244
-66.8736
-91.9584
-105.558
-34.8102
18.4657
109.558
64.023
9.73255
-134.475
-228.028
-151.957
-149.222
-109.186
-22.8185
48.6519
110.527
105.213
87.568
111.302
89.3461
58.1491
29.7181
41.4452
7.8468
-45.6944
-43.4512
14.1192
24.0048
84.5706
100.068
-2.79401
-67.0146
-88.7239
-44.9848
86.4067
19.8408
-23.5322
2.02054
56.2596
8.12121
-34.2779
-14.4851
64.2517
183.928
67.8057
-108.145
-179.108
-175.195
-127.672
-97.1303
54.8637
261.376
133.999
20.5417
-86.5395
-97.1367
-42.1234
-46.9901
-114.693
-48.41
-5.17644
37.2584
-2.86899
-97.7097
-55.5389
53.7814
123.919
124.311
33.2651
-42.0962
-70.0079
-23.9225
76.1381
30.634
42.7049
61.8418
4.01361
12.002
38.7016
-2.52044
-3.13789
13.4975
-48.5399
1.26749
43.1666
75.0954
87.8548
55.1672
-22.6636
-49.7467
-68.0476
-167.886
-149.56
-16.6229
36.6533
43.051
-38.7837
-93.8346
-46.7503
-41.8666
14.2579
142.584
111.501
-63.7373
-103.738
-34.7234
4.98334
71.7217
149.305
167.636
108.869
83.9076
-19.013
-137.971
-178.309
-185.214
-28.363
150.326
126.217
259.676
151.099
-104.23
-147.546
-133.315
-88.0991
21.9915
-12.3127
-107.893
-111.688
-129.89
-91.7068
-41.9562
-2.58717
5.62701
62.9801
70.0029
48.4495
54.7453
93.5935
47.3878
61.4362
33.4813
-33.137
-7.54233
-13.4729
16.4422
50.2742
124.148
101.433
-28.3153
-129.575
-44.5451
51.699
36.2131
6.5227
41.7299
83.9824
1.73528
-57.1909
-93.2962
-183.089
-119.518
43.108
20.3411
-31.4903
-21.5445
-58.1562
-46.9677
-5.7752
54.6128
102.43
86.7069
201.999
211.074
74.3461
-79.0022
-148.437
-106.833
-66.6696
-71.1857
-3.45824
-77.9789
-59.8651
95.1663
134.088
45.5986
34.9247
-68.9125
-114.3
-69.6971
-39.2648
-41.0633
-85.0171
-115.083
24.5968
141.922
171.445
4.69065
-67.5393
-42.2836
-28.3831
-19.3283
83.2937
128.493
122.6
13.492
-105.357
-154.603
-200.415
-162.555
0.349506
69.1774
78.903
207.391
175.16
3.99676
-89.6722
-13.2457
90.1247
97.269
117.412
139.788
138.865
58.2465
-87.4462
-80.808
-70.7658
-28.6223
-41.2595
-44.6017
-120.555
-127.429
-103.269
-92.6326
-174.926
-46.3064
138.399
195.963
29.0798
-72.84
-19.1571
22.303
-30.3605
27.6897
82.1481
-37.9649
-81.0959
-31.1657
15.8783
84.9064
113.786
134.399
86.6537
-27.2469
-54.6737
-54.3083
-101.222
-197.885
-175.444
-37.6593
58.5238
72.5065
57.4124
10.5662
96.568
164.496
137.246
135.302
7.91451
-105.39
-117.392
-97.889
-34.2512
30.5001
45.0987
9.47209
-16.66
-91.8407
-140.305
-117.746
-66.1901
22.5271
49.6017
-35.6233
27.36
78.9252
2.48749
-15.4286
24.2
44.122
128.609
219.572
247.701
71.7536
28.9538
-29.9149
-71.3299
-108.812
-102.306
-69.5541
-21.8088
-14.3874
90.5541
106.8
-44.1785
-91.1281
-93.8497
-113.656
-18.7088
-3.43149
-30.7396
-28.9418
-49.2535
-0.150169
27.629
18.8663
22.931
28.5833
24.0996
-8.26345
-36.6701
-98.6755
-87.6753
1.42493
-66.9955
-140.544
-40.897
67.9949
81.2319
151.142
151.324
81.9405
-16.8899
-55.4233
-24.7446
84.6058
55.1597
39.201
54.9334
128.61
55.51
-61.4982
-156.716
-130.66
-55.4979
77.4208
165.464
84.4448
-10.1401
-75.9976
-123.774
-85.3813
24.9197
101.608
83.2562
-24.9021
-19.4379
-24.3163
-61.7867
-61.0317
-61.3498
-3.93808
76.8705
61.4057
-19.3442
-65.7013
-128.138
-94.2409
57.157
68.7257
52.8997
18.6422
-55.2027
-19.6653
1.79204
-46.1756
-43.8225
-36.1966
-16.1214
21.0618
130.096
212.183
167.409
99.1333
-41.8122
-139.622
-82.3911
-75.9634
-132.562
-37.122
11.0424
38.5344
8.66173
-24.0531
-1.64779
30.0043
25.6425
61.0691
112.909
37.6134
-106.479
-182.761
-110.426
-6.37741
56.0826
153.484
117.475
67.4333
57.1402
8.12917
12.1568
6.12743
-74.1249
-76.6267
-73.1749
-43.3888
30.9407
20.6092
66.1753
52.4541
68.1647
-32.0206
-66.5967
-113.607
-86.7024
-97.2576
-54.5165
22.3652
102.346
185.904
88.7824
2.41908
41.997
36.7701
-31.8589
-66.4271
0.1615
4.89172
-75.2635
-108.402
-113.003
16.8564
14.9244
-92.6316
24.3835
93.2392
-8.84248
-49.1972
-80.5002
-83.4253
-4.40678
-33.0909
-36.4932
29.9309
81.5247
100.777
111.334
108.125
82.0825
40.1978
3.93645
-40.232
48.8645
170.767
112.662
8.25966
-82.3149
-156.696
-141.867
-137.714
-123.512
-21.6787
67.8349
144.624
147.343
32.4177
-77.191
-47.6627
-7.85267
-0.441509
-84.4703
-25.9084
-92.9651
-99.8604
-14.7539
49.7569
44.7919
18.9475
41.1804
86.4132
47.1476
14.9535
11.4148
-3.12313
15.1085
5.70361
25.7392
30.3851
-76.1801
-98.4804
-17.5908
7.08119
-7.2568
-5.75235
70.7517
87.3228
43.4403
57.1467
12.2852
-19.9828
-45.8609
-139.822
-10.9502
60.6781
4.26363
-33.52
-35.8639
-34.5896
-33.1473
-3.64568
66.3866
67.8541
-23.4925
-54.7892
-55.1024
-10.6325
21.7899
-75.9357
-70.6213
24.0396
100.291
113.84
-11.5628
-20.6652
73.7055
45.9483
9.22785
-38.5998
-4.84571
-4.60683
-82.1759
-88.4514
3.66414
21.6431
-14.2478
101.675
175.854
146.679
102.233
-37.1156
-99.3811
-97.6426
-152.338
-192.658
-158.076
-22.2106
3.8934
-16.0101
-4.55775
13.4268
68.9986
55.1323
38.0779
164.237
122.696
-40.2594
-109.364
-55.2048
-11.6691
57.292
100.049
96.5562
40.4609
-25.4624
-31.6058
-7.99167
41.265
93.4239
29.8872
-38.5052
25.7153
29.3119
-11.3902
-137.045
-112.048
-62.6097
-107.287
-105.636
-1.32835
35.8856
73.2048
77.5087
94.0428
22.2314
-33.0733
-83.4445
-123.397
-37.7709
104.375
138.884
42.9375
-36.2312
-36.1227
-28.6747
-98.9951
-99.0898
-18.887
21.8385
-54.4554
4.87451
128.004
113.524
50.7515
105.479
108.394
-10.839
-39.8457
-72.8345
-81.3977
-86.4107
-139.431
-35.423
78.7991
20.6926
13.0511
25.6046
64.5441
80.5631
73.9422
38.9701
-39.1563
46.0384
12.1322
-81.1602
-77.749
-7.14936
66.9975
65.5758
-56.034
-83.9141
-46.9923
-28.4725
-12.5286
36.7142
65.5445
51.4787
-56.8022
-94.8383
-94.3387
28.8891
5.52463
-42.9156
-46.5879
-22.9799
33.9456
101.96
104.588
178.578
98.86
-10.5029
-70.7064
-103.71
-82.2998
-60.4794
-55.5898
5.93824
2.54386
18.2007
77.2724
24.627
-28.2512
-76.8689
-12.01
71.3839
52.7536
24.8997
-35.2816
-74.5288
-46.9428
-46.3476
-41.2559
95.8754
197.266
97.1049
24.9343
19.7216
48.4989
47.729
13.6825
-89.6512
-86.7877
-20.2226
4.56992
-72.0017
-129.933
-94.0714
-75.6035
-99.3892
-1.98263
149.681
68.887
-25.7455
-96.3728
-49.3626
-4.81284
22.4189
39.6411
110.944
168.038
138.887
83.1612
11.6456
-29.3951
8.809
2.42242
-84.0469
-100.324
-14.301
2.18844
-67.9321
-56.1365
-79.0706
-66.7087
-22.0591
-8.25681
-45.8799
-178.47
-174.056
-95.7291
-5.42082
217.367
246.828
197.846
161.132
187.496
130.996
73.8974
-16.7251
-79.1698
-65.4705
-2.47358
-62.6301
-84.7744
-64.9941
-123.409
-153.333
-2.01203
23.8014
-56.9103
-39.662
87.0141
67.3628
-12.2131
-49.7679
-50.7692
35.154
59.8856
45.17
91.3026
24.1434
48.8007
91.7597
32.3523
-26.5526
-26.644
-38.0895
89.0466
88.1402
50.893
-60.2552
-217.373
-92.4333
-48.1164
-109.712
-106.443
-94.337
-71.3035
-43.2998
5.60678
60.6527
33.65
45.9213
29.5643
51.4641
78.4466
104.165
69.5464
22.5589
28.0955
50.0664
-23.2889
-152.006
-98.4295
-14.1282
63.4834
194.945
255.238
188.695
48.3196
26.097
-22.7228
-69.2176
-68.5953
-55.2064
-48.7316
-113.261
-169.689
-142.483
-137.753
-89.2095
-70.0605
-40.7783
25.74
54.0715
60.6491
45.4769
-48.7031
-18.4043
21.3599
42.0607
61.6373
52.7525
31.6975
37.9797
12.8646
40.1959
7.3957
-36.4558
-48.6412
-12.405
71.8868
152.9
88.2407
50.6688
27.2533
-93.3402
-62.2846
-36.2988
-82.8505
-85.1634
-71.8668
-37.7769
44.2835
27.9509
11.4627
55.4504
131.586
99.9794
18.1503
-57.0997
12.5965
-2.11659
11.8443
12.7659
-67.9178
-85.5873
-44.0725
-62.5839
23.4033
30.501
-48.2696
-59.6788
-69.0658
-81.5846
-133.762
-107.365
42.6175
69.4714
101.311
152.626
99.1547
47.156
24.4072
-9.41362
54.4494
59.7098
61.8182
85.5881
32.5017
-1.90127
-17.7735
-39.9292
-56.5534
14.2719
74.8904
9.01533
-67.8079
-49.588
1.59551
-22.5437
-123.003
-148.674
-127.453
-42.6308
60.8279
24.4978
-99.4067
-124.279
-55.9417
47.9788
97.067
28.4807
43.3879
58.112
78.0085
93.8725
82.5174
67.8099
1.46662
-21.6474
114.533
116.985
47.1009
7.16186
-61.185
-32.8617
-34.1312
-80.2295
-53.2051
-86.6173
-65.3142
18.4728
-0.359474
-28.4003
-37.7272
-23.9009
-85.0699
-126.233
-52.383
2.57428
-41.5602
18.9994
83.494
6.54176
-45.2733
109.576
149.142
133.668
50.5018
-27.1511
14.9827
145.458
162.809
-29.9235
-62.1959
-49.7498
35.1438
75.905
21.8419
-58.0724
-118.07
-57.4316
-30.1895
36.8351
-12.257
-92.3285
-96.727
-101.962
-27.4456
108.735
112.425
-81.7918
-259.328
-124.267
27.0851
4.22887
-69.3046
-68.2626
89.2898
197.794
168.262
16.4669
-56.1762
-18.7488
80.847
73.7589
17.5702
69.208
32.9096
-39.5424
-21.8532
-29.1875
70.6956
146.03
51.2355
-117.926
-76.998
-4.38165
-26.3182
-45.2167
-60.5882
-45.2492
-51.6865
-57.0702
-60.0587
15.2152
44.7835
63.0039
82.6826
27.1938
-46.4601
-52.064
-37.6537
-21.065
1.89441
66.8814
22.2522
-20.0128
-12.101
-11.9182
8.57696
93.5153
180.141
166.214
123.886
46.124
-2.83845
-8.62964
-123.491
-149.577
-142.492
-103.803
-52.3098
62.7425
44.1461
-54.5099
-173.693
-34.8139
-51.653
-28.5841
50.9541
2.0054
-5.23036
-24.0413
-93.8867
-131.916
44.2968
118.507
121.843
137.37
118.229
73.8599
41.0086
-39.5892
-30.7192
90.3802
125.911
-30.3095
-56.9382
-77.7025
-70.6952
-15.7733
-14.78
-87.1988
-14.6986
46.9928
-50.4844
-146.104
-97.6797
-2.81141
18.4375
11.4146
44.8765
99.7198
100.185
39.2195
62.5392
89.3967
106.339
90.1517
71.6103
4.54021
-79.4462
-51.4628
-45.1731
-6.23426
11.0236
-47.914
-109.56
-106.324
-90.3179
-54.6845
4.46293
12.6884
-29.877
-49.387
-24.0727
-140.735
-98.3777
68.6029
93.8668
163.809
188.514
122.933
-27.3584
-110.095
-33.2152
65.3405
36.0734
-23.7147
-4.40115
45.1242
19.8067
-92.3002
-38.9428
70.8793
21.4036
54.0163
37.5004
-70.6474
-110.049
-92.1719
-71.6208
26.7477
62.8202
68.5422
-20.2745
-1.38567
74.1471
-38.3326
-90.6468
-85.7647
-117.402
-14.3907
82.2544
56.2378
132.666
88.6598
-83.192
-73.9503
-55.8584
-22.6728
65.2727
84.9368
133.973
146.132
128.425
48.3057
47.7742
102.837
58.8477
14.4653
-63.8274
-172.695
-223.795
-202.262
-169.77
-140.478
-48.6823
41.0727
76.2535
28.3134
-90.797
-106.043
-26.4499
-28.6577
-24.283
30.3949
9.08365
4.06527
55.3811
39.6257
67.5025
77.4959
128.396
79.2082
45.9445
109.127
132.069
86.4524
78.0254
42.6439
75.8179
14.5154
-83.3973
-124.859
-77.2316
-26.786
-42.937
-56.5409
-43.6251
8.36878
52.6764
17.4784
-88.3058
-107.315
-83.7089
-38.3047
-86.2172
-133.7
-78.7519
0.113479
24.8372
30.7435
57.1743
92.0593
29.4095
53.3922
100.552
1.91197
-95.2871
-26.2111
58.903
-59.1629
-118.35
127.638
248.549
101.911
5.89905
18.8937
39.7027
42.6989
-12.5763
11.8204
90.653
43.0554
-57.7718
-218.451
-199.128
-63.7668
-10.2197
-135.2
-122.679
95.9494
104.347
-24.3999
-79.3024
6.51946
65.6087
52.9686
-19.1833
-15.9577
-39.2141
-83.0588
-86.3728
-21.5715
65.3221
77.0942
111.966
124.178
89.4371
122.871
112.04
96.6987
-17.916
-65.7385
-61.6377
-38.4007
-33.922
-35.5358
22.7192
0.966415
14.5125
4.75474
-42.9182
-15.4848
26.7529
48.0693
-42.7205
-72.4372
-11.0054
-44.5808
-120.217
-120.993
-28.4266
-2.49079
-4.47626
60.9044
93.1437
7.55913
-35.9929
38.0311
35.2178
48.8904
-15.8512
-49.4078
-66.9976
-76.3208
-35.5832
-15.0878
11.3092
73.4792
54.6928
53.0406
75.5952
56.7638
63.3271
45.8316
-38.4271
-137.878
-107.843
-35.8493
-42.9297
-50.3263
2.66063
73.8521
104.037
30.0057
-11.7816
57.1879
8.22234
-77.8332
-43.7213
27.0335
216.257
224.124
124.294
3.54229
-3.03925
38.7506
-81.511
-125.439
-58.7336
-31.7291
-63.0266
-171.619
-151.32
67.2869
99.1014
23.2696
1.89911
3.34196
9.14265
-109.169
-214.442
-231.561
-158.276
-49.8925
-16.4328
29.2378
118.69
175.561
135.861
126.557
123.348
150.41
93.5042
-37.7226
-26.2788
-30.606
-52.3167
-24.2741
36.0915
82.7984
45.707
-37.1356
-75.6273
-68.5655
-97.2057
-35.2135
22.3023
17.5629
49.9051
31.8669
12.992
28.899
33.2186
39.0069
6.6504
-8.40332
23.245
1.25141
-78.8503
-125.092
-55.9396
28.1623
-61.2113
-71.3619
32.9098
24.5918
-35.4158
-12.2211
167.89
151.66
50.9917
41.9638
39.3591
-52.3141
-82.1488
-105.104
-104.107
-44.7855
-34.8724
3.05704
-33.2941
-34.8266
11.7915
73.6515
83.2895
38.9762
11.8556
-25.849
-34.5282
-26.2884
10.9003
-7.65902
-11.4433
0.716037
60.3061
47.6914
53.528
56.1329
4.5053
-31.0958
-60.9216
-45.3874
-45.1623
-84.1266
25.3884
85.4898
106.586
68.4849
-39.047
-55.1703
-59.6101
-38.3901
33.9651
17.9962
17.5275
38.6676
22.7233
-33.4525
-54.6854
-40.2811
42.1315
7.57095
-10.5351
6.3812
-49.1753
-25.0183
10.0974
-19.9465
-61.8793
12.2663
67.561
40.2058
-12.9856
-25.1976
-7.48348
17.7051
4.55144
-55.3173
53.8487
105.834
51.127
34.483
33.2683
40.3924
-27.8068
-68.2865
9.79604
39.2624
8.75494
-44.4421
-48.7487
-7.70717
-45.1869
-101.25
-55.1696
-51.2541
-24.5919
7.64373
-38.3847
-49.1147
-66.1185
-47.1357
44.1678
117.305
95.4253
76.318
0.992926
0.796368
22.9402
0.487165
-21.6186
13.6304
43.9692
83.4764
58.9864
41.8798
20.5614
27.7085
-17.989
-24.1453
31.5613
19.2532
-47.6542
-68.0864
-47.6896
-44.3563
-47.3991
-34.5582
-32.9008
17.7857
25.9572
-13.6625
-4.12994
1.66005
-14.1757
-26.1301
-27.9653
1.81022
-20.2017
-12.2233
-8.26384
-3.80412
0.83999
-14.9836
30.2458
57.6234
24.4884
39.5334
60.9387
16.1968
64.7504
35.4928
27.736
16.5099
-21.0399
10.3659
31.6155
-1.3393
-7.23173
-63.3694
-47.0158
-54.1572
-60.6189
-51.0792
-55.5625
-41.6883
-6.2845
-15.7838
-13.5525
47.147
43.8917
28.1741
-6.43752
-40.7134
-22.4143
4.69644
-10.4993
-51.0667
3.11948
74.6237
40.8417
58.0044
59.4365
54.7403
71.0952
-13.624
-3.5444
129.323
114.809
15.8351
-75.5167
-54.4382
-19.1931
7.69198
-25.9991
-89.699
-58.6105
-20.7184
-49.1804
-53.5933
-38.0656
-9.14675
-17.9586
-91.1484
-70.3809
27.7871
12.8378
-56.8651
-41.3027
-25.7574
-5.9035
-54.3403
-37.5724
52.3179
58.5643
68.9018
14.8923
12.9657
83.4709
181.704
112.077
13.3833
73.6365
127.491
54.9877
14.1133
-3.4562
-78.8616
-93.7253
-110.82
-75.3153
11.4352
34.43
3.37779
1.85255
6.10416
14.6005
-18.9013
-96.9428
-123.062
-89.9205
-33.3217
-44.2827
-25.5797
9.61452
2.25265
48.7923
79.0757
63.4716
70.932
69.9063
62.7416
43.2466
-8.10919
36.8079
73.2038
37.237
7.94397
-26.7259
-77.4324
-53.5341
-51.3595
-72.4426
-8.4171
-4.3814
-19.3247
-39.2947
-34.1038
21.2488
32.8824
-14.964
-69.8621
-2.1591
36.8482
-18.6002
-26.317
-3.12645
34.3622
37.9694
11.1831
-10.5305
15.8739
2.36025
-14.014
-50.6857
-4.23914
32.6769
37.0345
38.7642
17.1254
-17.1959
64.7523
12.7303
-13.5242
-2.93543
4.56584
1.29767
-24.4871
-76.5087
-26.2058
-27.4224
-7.10497
-1.3692
-35.0005
-5.845
7.09549
-13.57
11.8284
32.0158
67.6802
133.732
84.1697
14.709
-68.6952
-70.7483
-44.9162
-66.2713
-55.1082
1.16051
-39.2588
-12.1397
15.1811
-8.06449
-51.8821
88.9589
138.366
128.403
73.582
20.253
-33.8767
-75.9706
-131.326
-57.1417
76.1925
70.9118
93.8353
140.559
68.2877
5.45811
-53.9347
19.3732
24.9758
-16.9789
-43.2136
-123.344
-145.372
-100.193
-86.6738
1.04573
22.4147
-42.7284
-54.076
-61.8618
-58.0349
-8.59076
-49.1922
-76.3958
-61.0867
50.868
65.7094
26.1231
40.1712
70.1778
80.7987
82.2476
7.60228
24.9813
80.3678
57.3891
46.076
55.0875
59.411
46.6975
31.0888
-23.4112
-25.2585
47.2536
101.244
3.76989
-68.7054
-110.666
-151.81
-141.378
-144.315
-123.745
-42.0079
-73.5357
-16.8854
36.5222
28.8697
37.3879
30.7864
46.3524
84.5045
73.5692
92.2041
60.9563
46.9926
28.7302
10.1484
-3.49945
18.8156
-27.9313
-52.2201
-51.4498
-23.0123
46.7264
11.063
54.2813
127.21
64.8414
24.2171
-16.8612
-71.9988
-98.299
-123.443
-79.1737
44.2225
119.079
62.0251
9.94662
-43.0441
-45.7034
-29.0863
0.29489
40.323
87.7521
72.6155
-54.9497
-117.601
-65.3158
-4.66049
-19.0022
-48.7883
32.5402
98.3359
31.2531
-94.2538
-175.719
-140.457
-85.5898
-55.3521
34.7773
132.092
116.175
77.3149
18.5919
-49.6983
-50.1714
-18.001
12.1084
72.4262
164.857
136.856
58.671
6.94383
-10.2091
-22.0874
-53.3243
-17.6403
12.2146
-45.5125
-115.168
-142.566
-107.073
-75.8638
-105.806
-38.8142
139.637
223.402
135.973
51.692
-14.9462
-1.0368
-2.12114
7.28125
-11.2808
36.0167
19.3834
-6.3204
-20.113
13.3607
26.2344
7.15896
-41.8999
-34.9102
-43.0391
-44.8881
-77.9703
-74.3927
60.9409
57.9346
-21.8749
104.615
142.521
67.2405
30.0665
-12.4161
-6.02944
-34.5461
-106.392
-24.7133
-9.91924
-43.0341
-33.027
-77.1246
-49.3664
37.1374
96.6027
122.889
26.4386
-25.9676
-52.1516
-152.709
-176.031
-113.934
-85.1226
-67.9338
17.9837
59.5188
102.156
101.466
114.619
92.1331
94.8402
78.3268
30.6484
48.992
16.6186
-31.3826
-24.5772
-7.72975
40.8064
45.7096
-14.3441
-62.4524
-32.2715
-34.1537
-54.6283
-63.7694
-46.3463
-12.7852
14.005
-15.2787
85.75
113.817
41.5808
-17.4006
-43.3902
-55.3104
-70.6059
-101.325
-88.9269
-93.5015
-11.0862
163.419
151.118
14.0575
-39.1665
39.7363
165.334
124.935
17.0283
-20.794
-87.1243
-119.56
-60.4436
-98.7612
-145.691
-48.0834
11.9298
45.5742
64.9768
65.0575
38.7306
9.2538
-59.6802
-75.7372
6.30023
-26.9684
-66.0179
-84.5405
-25.3314
25.9922
-19.2899
18.0059
126.767
151.335
139.214
46.0445
2.36407
7.39992
-33.0762
3.38824
32.3826
-37.1405
-17.4442
30.2999
10.9716
7.63101
-33.1293
-13.5974
22.0319
40.5695
69.7888
-1.69122
-124.368
-111.683
-69.2093
-34.3252
68.6726
72.857
55.2682
17.2771
-54.12
-83.2688
-5.90184
6.95395
0.475186
56.6013
51.6276
-48.0198
-95.4849
-81.5691
-66.1214
-71.2038
-21.1719
22.7474
155.27
267.856
97.5517
17.3067
16.5148
-10.7826
-54.0735
-105.788
-134.59
-37.5457
-32.2943
-78.3848
-91.3557
-2.24362
87.33
36.3233
-35.8412
93.4204
134.11
115.451
25.6632
-80.7637
-63.6295
-50.5207
-47.8568
25.616
17.3584
22.8246
5.90103
-27.3401
-21.7695
-46.8087
-23.2923
50.0782
76.5581
116.045
106.841
46.8778
10.2446
-38.9881
-123.529
-120.07
23.433
54.1592
62.0134
48.6346
51.619
21.4588
-21.8878
-130.034
-120.149
51.7786
100.646
62.7155
2.17648
-76.3117
-100.94
-150.283
-67.3498
-54.4691
-51.0049
-67.3832
-91.1513
6.6399
82.2159
28.4124
80.3465
109.937
175.831
127.288
11.8869
-139.257
-211.315
-171.351
-80.6512
-57.3256
50.9749
57.0819
45.1795
110.056
124.14
77.3569
3.91589
-43.399
-64.166
-3.29417
86.9935
92.6037
49.7606
118.139
124.636
60.6316
61.5835
44.5784
82.1216
51.3845
-48.1588
-102.349
-204.047
-224.283
-192.244
-32.0976
22.2863
38.5526
85.2205
77.4502
-43.4642
-115.052
-156.497
-98.0251
-69.6491
-59.8911
-26.5017
-24.6841
-90.7906
-60.5273
-3.82004
108.182
146.63
142.651
208.546
227.134
119.873
-35.1747
-131.181
-19.19
39.0798
52.6596
49.8444
-7.42899
-28.8034
-22.3243
-58.8015
-41.1661
-64.1988
-20.9241
6.00906
97.0301
118.058
68.9077
-31.8679
-62.5742
-23.0857
114.544
150.189
70.9723
-49.5512
-126.184
-136.971
-192.078
-148.516
-3.3028
40.4907
43.067
73.1887
70.1579
84.5916
59.9695
11.0764
27.1803
118.538
25.3011
-36.9145
-109.627
-131.871
-160.668
-196.515
-167.085
-62.7766
-33.6758
-44.5519
-92.9398
-27.4958
67.7444
134.983
200.567
140.359
58.8056
34.7438
-3.59342
-66.8647
-53.9703
-29.806
36.606
46.7979
8.86449
70.2544
82.3952
60.3375
38.4398
-1.08667
-65.3888
-54.3005
10.7771
-36.8509
-80.2814
-42.3872
-7.8186
25.7672
85.0061
65.5411
110.264
104.991
41.3248
20.6626
24.6821
57.5074
18.5749
-52.2161
-31.8716
-84.3427
-134.99
-177.007
-200.261
-149.118
-60.9347
76.3951
208.753
193.2
91.6845
80.5689
50.4186
10.5724
-79.9718
-87.0551
36.7018
-68.3289
-111.273
-66.0486
-26.4688
12.8037
10.1546
-31.6888
-57.4766
-16.5245
-74.6469
-150.191
-156.807
-104.881
-7.82739
53.274
74.3824
190.594
297.101
207.883
64.2567
36.6426
9.36061
5.12726
54.7534
62.2944
75.7858
122.58
68.1834
5.29931
10.5232
-45.7908
-116.656
-127.639
-125.046
-104.614
-124.298
-125.248
-51.4424
27.1167
-19.5041
34.0693
56.0856
56.1064
-50.3302
-22.9723
98.4676
71.68
46.8531
-30.2016
-139.388
-128.081
-94.9136
-47.5689
33.7096
83.3812
141.798
192.293
92.3988
31.7208
-15.6965
-79.8362
-139.062
-128.147
-71.7824
-86.7826
-184.989
-94.7623
77.1213
231.784
250.931
258.326
264.261
83.7256
-10.5542
-85.7452
-46.8103
-90.1528
-180.152
-156.321
-57.8713
59.1256
94.8313
20.2584
34.2036
60.0684
13.2234
-99.7517
-217.1
-258.844
-194.012
-205.781
-98.4832
65.3934
130.009
171.977
168.25
177.311
224.859
147.984
48.2011
14.8701
7.21278
-29.6116
-72.8378
-109.788
-49.6631
-70.3601
-93.2099
-45.8876
86.3832
76.0401
5.08999
25.5469
53.105
64.3915
43.1196
14.924
-92.2296
-67.4422
40.8031
-21.3556
-59.0873
-32.04
-18.0258
28.1647
30.5773
-43.0954
-0.856279
8.14258
-24.4102
15.5423
22.7501
5.04412
-26.5605
-55.4217
-3.47162
64.7435
89.1427
64.0934
-23.904
-89.3748
-92.6047
-22.461
-39.919
-98.713
-90.6377
-53.9896
-65.279
-61.2822
-57.1638
11.2355
190.971
225.717
211.493
181.043
101.839
35.0241
-45.0833
-70.8623
27.2167
161.919
97.0725
-52.7522
-104.325
-130.76
-173.073
-181.237
-228.384
-192.932
-61.3685
80.8978
96.0329
70.7347
10.7886
33.6847
47.351
18.6955
150.523
167.513
47.6726
-40.2305
-87.9767
-75.9063
-50.2701
-45.3361
-49.9683
32.8574
133.392
117.537
60.1405
-47.1088
-133.084
-88.2119
-18.7054
49.9533
116.603
95.149
31.9052
-25.2938
-52.6885
20.9949
42.8015
34.768
35.5291
-7.30064
-8.80886
-10.5518
-24.66
-49.3246
-97.949
-120.375
-51.1791
-22.8607
16.6637
29.2345
-48.9245
35.7995
127.049
40.3918
14.2429
-5.21855
103.374
34.7924
-98.0172
-167.355
-166.669
-166.12
-174.763
-49.3571
161.345
230.874
193.834
114.486
24.9831
15.7792
1.69881
32.5256
2.83527
-18.0295
-29.1739
-25.623
-47.4412
-36.2613
-55.7514
3.97233
43.2822
75.9647
52.5699
1.01338
-43.2405
-60.7559
-53.1773
51.0209
72.9717
67.517
36.1911
-16.4856
-119.99
-147.038
-90.0812
-28.156
-2.41768
-21.0178
53.1226
37.9385
-29.4029
-37.066
0.828587
55.3683
-44.3343
57.9515
124.676
71.9883
82.9433
50.829
24.2431
21.5014
77.7552
101.186
87.1715
26.0883
-87.4669
-103.505
-63.6523
-48.4102
-16.0678
-25.0501
-55.2384
-85.9094
-33.5947
-142.126
-196.29
-143.848
-108.069
-68.1586
-48.3256
49.0784
118.523
146.417
97.5017
87.3368
99.0288
59.4143
7.37132
104.597
154.667
62.7909
36.6707
68.5867
70.2591
-12.7704
-95.6675
-27.4412
45.6558
8.21252
13.4617
-59.6631
-123.793
-77.527
-78.5566
-148.01
-156.252
-57.4364
-26.8564
-69.3705
-58.3385
-1.02644
24.1765
-44.4886
-11.4937
156.036
103.677
-0.141839
-68.5767
-7.95302
95.8824
129.129
154.811
198.745
158.99
142.926
125.086
78.0693
31.4872
-108.874
-188.919
-16.1707
10.9202
-82.3533
-132.829
-195.693
-159.421
-83.5506
-63.8115
-58.4749
4.39621
21.6731
-23.578
-55.0485
-38.8479
-15.1071
-20.1617
-32.2445
45.296
139.101
89.9737
-44.4158
-78.009
5.77454
8.31652
-77.5028
-142.365
-128.095
-56.5051
72.4862
253.416
391.281
345.117
190.415
-3.96615
-113.902
-8.18984
-12.2203
-48.3821
-97.7443
-77.0729
-93.0091
-76.1435
52.6327
116.697
142.352
132.932
82.2678
12.87
-29.1871
-185.975
-208.905
-134.904
-84.155
49.6787
140.089
64.85
-34.1693
-72.4606
22.2857
81.732
45.3171
-65.4329
-175.882
-196.225
-169.226
-132.176
-60.1506
94.965
66.5525
8.02851
-47.8977
-23.6578
-3.42959
25.3974
50.857
18.4712
99.0678
157.788
87.749
23.1308
-11.0549
36.8933
66.8481
41.5818
28.1155
120.979
107.085
-13.9545
-60.0235
-82.3499
-60.0299
-33.536
-61.2696
-8.69437
39.3312
20.4941
-72.9214
-140.984
-168.746
-141.154
-101.601
32.6226
67.9759
75.7948
84.8205
41.3773
53.73
5.05994
-22.2904
4.96884
57.1674
4.01057
20.4509
40.5109
52.4942
40.0273
-6.97542
86.8382
120.839
73.4501
41.8759
-51.9362
-69.1947
35.3569
-12.9321
-190.955
-187.177
-80.6631
27.0147
145.635
161.684
132.364
112.652
34.1767
-21.0495
82.9257
55.1662
-47.9289
-108.129
-132.969
-131.08
-138.399
-112.034
-95.8786
-116.93
-49.3958
-3.32792
-17.5151
13.4708
-49.7282
-76.3133
38.3007
60.9221
90.8235
43.2173
-51.4552
-57.3711
-83.86
13.2772
177.796
195.23
160.38
113.745
0.92057
-52.5578
-34.1763
-23.5282
36.1537
96.634
111.342
113.191
128.891
91.0874
-71.6108
-106.19
-49.5083
5.65197
90.1878
9.93136
-131.337
-177.877
-148.254
-118.564
-106.171
-52.2129
22.3483
16.7977
-83.4436
-138.422
-138.919
-169.463
-179.613
-65.8933
147
141.663
195.528
273.571
288.152
205.89
72.4379
69.2984
79.6963
-2.84759
-29.709
-46.4326
-100.966
-99.9509
-101.407
-118.433
-29.6415
-28.4448
-48.7154
-64.457
-109.886
-59.4145
-12.1339
-37.4228
47.7575
111.939
96.1149
52.6567
-23.1145
-23.1301
-23.0415
-5.47858
15.3996
120.348
155.342
63.5436
-14.4233
-2.35021
17.3792
25.9807
13.2001
45.4566
53.6591
-14.1011
-133.157
-169.4
-137.982
-113.02
-134.584
-80.8951
-14.745
23.2208
29.468
2.79073
24.6573
102.785
69.9819
-23.5554
33.9924
3.93666
31.0073
73.872
44.0704
85.8131
127.793
154.748
174.293
137.843
23.3369
-98.9298
-188.003
-164.081
-151.037
-180.876
-148.625
-83.1586
31.2597
165.991
89.0209
27.0901
-3.97719
3.00181
53.5912
97.6993
35.0813
-93.3723
-121.377
-127.105
-57.8169
17.5885
58.7863
38.3085
84.7182
52.1016
-7.81708
-52.6811
-93.2139
-107.893
-16.95
69.4546
69.4025
-0.0817544
-53.3428
-80.4457
-94.1231
42.5107
93.3436
85.7124
179.431
129.272
86.6121
67.9777
-35.3679
-67.6629
-81.2132
-100.455
22.0952
21.3225
-16.0323
-33.6769
-32.7679
-48.6953
-62.1781
-95.4731
-31.2669
-14.3691
11.0286
93.5702
61.4005
72.8079
78.4926
32.8529
-27.2226
102.905
116.277
76.8969
26.9031
-20.9306
-66.834
-94.3708
-133.479
-87.1062
-21.2361
81.2845
22.262
15.8331
-21.5084
-107.992
-155.598
-138.742
-73.9081
41.5516
54.312
-61.9232
-65.8196
-19.1977
-22.2506
-2.20658
106.524
258.634
228.114
165.885
134.83
112.963
41.0935
-75.6727
-93.8732
0.839475
21.5979
-10.3171
-73.0584
-146.325
-141.028
-133.362
-110.538
-26.7671
17.448
48.7515
31.5804
-12.1063
-16.6952
-68.2279
-122.629
-162.103
-76.609
85.1228
98.4638
51.6312
18.1319
56.9134
92.1315
59.327
98.8264
157.097
78.4462
-7.1104
-69.0266
-67.5521
21.3945
-11.9168
-2.05901
26.8999
-23.2979
22.3644
59.328
115.304
99.3095
-79.66
-189.689
-198.93
-236.817
-82.9064
81.2419
42.2233
112.604
78.3885
117.314
151.736
-47.9759
-171.059
-186.61
-135.328
-25.2108
33.4727
50.897
60.7778
0.261781
31.5509
104.753
118.077
139.573
82.401
-34.8578
-97.9793
4.52284
19.7512
-93.6466
-90.5244
-17.4276
72.5061
154.317
206.269
163.847
111.087
39.6458
-69.8222
-93.0781
-64.4619
-2.17498
-28.6748
-122.515
-136.228
-138.93
-127.452
-162.604
-195.843
-139.916
-91.2543
-39.6463
67.6584
84.31
80.8557
99.8147
107.486
69.7966
28.4061
28.7265
126.053
71.9549
70.0761
104.125
46.4057
-24.352
-45.3708
-50.4556
-71.2148
-2.65488
-56.883
-59.2192
-37.7829
-31.7146
-17.162
71.6959
81.4655
-0.198685
39.5285
69.8986
43.3506
29.9341
-7.69622
-0.366657
-46.9207
-115.503
-52.3552
7.5722
-27.4546
-99.5641
-68.5172
-11.7225
-26.0234
-70.8665
37.2941
153.836
209.503
103.574
-5.36257
-24.5615
-25.9349
-68.2537
16.313
68.8243
65.8345
47.4657
-27.0199
5.45212
36.6737
-32.5042
-88.9759
-74.083
-49.6723
-75.6301
-96.1642
-52.2282
-47.6321
7.67665
32.0938
-100.369
-118.168
97.7058
89.3032
64.5941
82.4397
104.876
64.4868
-39.3468
-117.303
-110.069
2.55693
18.3755
63.3808
122.101
71.866
-44.2051
-93.5539
-26.8283
132.785
174.125
106.506
-12.4175
-47.8687
-50.5846
-100.434
-61.9245
-67.7825
-72.0877
12.8201
124.711
134.63
111.558
44.8736
18.072
-51.8697
-79.826
-30.3091
-11.4694
-45.353
-58.134
-89.9946
-25.0136
-57.0367
-148.717
-159.613
-139.077
-90.202
-9.0088
-7.29948
30.7791
113.638
91.5601
78.1135
149.227
163.387
57.5486
12.7634
-30.2279
6.85675
156.041
125.903
-0.812506
-37.0516
-7.35985
18.5347
-57.1641
-97.4626
-62.8201
49.3085
31.6108
-84.7977
-81.8497
-43.8826
-60.5403
-84.2268
-78.4889
68.8212
211.642
175.9
119.976
22.8507
-83.6783
-82.3181
-20.1314
54.144
28.348
21.211
2.10288
-66.4096
-114.958
-107.978
-147.7
-93.1905
-16.0985
-43.654
-39.053
-56.8764
-65.7547
-71.3608
-73.4967
-15.0613
85.4465
119.193
119.64
92.3521
104.967
177.777
140.278
65.6958
44.0219
56.8646
74.9508
28.4925
-16.0051
16.955
30.4488
-25.8847
-101.532
-121.827
-127.662
-73.6283
-66.6801
-7.77074
89.386
134.895
186.798
108.193
98.2795
20.9392
-133.684
-192.971
-161.736
-208.193
-178.6
-146.915
-114.51
-81.6974
-48.0887
39.3398
127.722
83.9565
161.041
136.34
-10.1819
-78.1524
-66.7004
-46.4332
-60.9553
-18.6115
30.7946
68.7644
119.277
119.52
83.0256
94.8061
87.4704
71.2233
80.4255
44.0027
-3.87617
137.678
117.529
-6.21134
-51.8623
-22.2049
-59.5573
-125.158
-156.556
-151.548
-70.1415
-53.5392
-5.68071
32.2134
-49.382
-102.958
-97.7035
-47.836
90.2807
147.202
142.048
80.0288
-1.95762
0.0729629
8.00373
-99.1446
-56.7098
-107.101
-165.429
-156.981
-132.507
-80.4005
-67.6534
-37.6693
103.045
196.386
168.656
146.703
173.884
258.477
114.308
-94.8965
-257.575
-181.871
-38.8515
44.0696
71.7121
107.656
186.002
197.098
72.0183
-45.2066
-3.60047
36.405
37.1189
42.8148
4.2355
-70.7698
-140.583
-226.973
-43.1282
24.3526
23.6037
-57.9527
-111.906
-82.8567
-114.805
-57.0726
-58.6188
-63.0107
-23.4437
50.6209
27.7009
6.93402
-46.0103
5.98508
114.116
160.632
103.248
-16.3515
-45.5724
-3.3744
25.8412
19.1095
40.9837
81.8289
33.2951
-29.5429
-55.2893
-24.9136
48.4237
133.85
110.564
7.98339
-84.0068
-108.743
-70.8798
-55.2653
-55.8608
-47.9917
-53.3327
-29.911
24.5584
43.0926
15.8587
-41.8008
-7.92365
47.359
125.307
90.8175
-2.41288
-1.5764
40.5536
30.377
-16.7777
-100.212
-95.6826
-28.0499
-68.5175
-83.1128
-10.2407
16.8951
66.5224
77.7636
34.4338
-3.54181
-76.2688
-98.2794
-61.3622
22.0791
65.9147
14.9534
25.7277
173.927
260.853
188.29
125.831
18.8659
-66.5884
-91.336
-67.9969
-40.0065
-74.3088
-154.893
-128.726
-11.8272
-3.49388
-68.808
-124.612
-125.425
-119.444
-80.4033
-99.2321
-1.6521
57.466
105.088
124.386
112.267
133.976
126.105
0.991514
13.0574
74.7895
48.3578
-20.0224
-17.2284
92.4085
49.9477
-79.3601
-130.447
-82.7868
2.95082
-12.1783
-24.0105
20.3727
57.6124
53.0016
66.8764
81.772
60.5313
34.6927
-51.7919
-135.388
-130.824
-119.079
-114.555
-122.256
-9.15331
97.4997
85.5894
0.67632
-83.2425
-68.934
1.65346
63.8279
24.7717
-6.56112
42.12
113.081
98.1262
171.449
156.315
107.17
69.2551
15.1031
76.3565
51.2687
-76.2131
-171.332
-115.417
-25.4894
33.1883
46.4152
54.8123
14.635
7.85129
-87.6641
-159.918
-208.607
-247.573
-237.226
-89.0065
-10.8438
47.9264
79.3612
24.1506
26.6272
48.6264
62.4905
133.407
112.845
72.6638
43.4516
-84.6509
-160.386
-146.895
-23.6987
116.993
203.354
164.936
118.824
49.9042
16.1586
-16.7905
-38.9797
-135.647
-193.953
-67.2186
2.28799
-26.9293
-28.2775
-44.0606
-20.5886
31.9703
56.4304
11.3977
46.2474
32.2884
-44.4075
-44.8855
10.0197
126.953
204.22
172.649
150.728
204.543
150.77
-56.9234
-183.369
-175.645
-178.366
-217.656
-122.923
-32.1365
-21.2551
-9.35947
-58.5878
-77.0701
-42.1248
-6.75171
37.5344
-31.8269
-101.767
-43.3286
18.3945
29.625
106.177
218.336
207.601
191.642
148.762
167.638
219.875
195.763
106.318
25.6514
-98.0419
-185.354
-160.488
-134.45
-138.916
-163.545
-181.933
-167.67
-192.559
-172.671
-43.6081
-51.9097
-13.4198
47.5907
75.5034
74.3112
-15.1401
-52.9146
-22.2431
19.8221
117.465
145.6
56.0887
33.9183
62.6565
119.698
119.948
21.722
-12.1298
-35.3176
-103.655
-141.49
-161.211
-153.194
-60.5389
-38.2816
-44.1289
-70.08
-65.2086
-58.7508
-29.4712
9.01008
85.9126
227.386
225.192
133.323
92.7927
140.611
159.88
51.4996
-53.0842
-80.455
-44.33
-35.656
-56.9785
-75.2456
-94.5696
-77.4305
-11.0498
49.0538
36.4513
125.393
215.754
94.7179
105.734
95.17
11.9137
-30.0168
-72.0619
-18.239
53.3753
62.1409
-39.2923
-101.648
-140.097
-183.83
-236.798
-157.698
-59.6607
-22.3721
-43.876
-89.5468
-68.2825
-21.721
-12.9797
95.3356
182.654
192.104
119.157
89.7421
56.1772
-8.70854
-73.9886
-47.5122
37.1058
101.694
152.845
121.867
121.81
127.145
105.71
45.2264
42.421
32.3331
-94.6805
-253.812
-332.133
-347.734
-312.232
-274.218
-57.4426
240.852
231.697
130.142
5.98536
-39.676
-28.1937
-87.6315
-205.177
-110.532
18.5667
134.028
123.773
78.6809
48.7253
23.1757
38.0421
27.2841
35.9443
32.3052
-107.569
-156.897
-18.1325
89.7298
128.866
125.412
119.009
123.966
150.594
-17.8543
-143.944
-169.153
-141.42
-97.7897
-18.5229
28.3182
68.4607
140.313
79.9322
48.1157
21.387
-36.4099
-48.1683
-33.9086
-81.321
-50.2451
-90.8305
-101.453
-9.69598
41.0266
85.537
54.8167
-3.95976
101.144
175.711
122.575
12.8005
-79.8204
-28.9814
-29.3722
-90.6383
-21.423
-6.70142
-37.3363
-57.5874
-109.141
-59.8089
-2.97225
-50.6606
24.9723
75.8633
98.4116
131.766
179.738
207.537
171.72
66.3408
-6.18482
-44.4913
-89.5147
-90.9887
-196.848
-248.31
-216.83
-165.492
-172.113
-70.0514
31.8227
18.6336
-25.2649
-12.8343
52.2718
69.0924
18.2081
18.6826
94.2787
182.769
139.12
94.1191
130.309
133.915
91.5333
87.998
4.29803
-60.8872
7.25635
57.4526
6.83601
19.993
-50.6339
-84.4113
-112.407
-164.361
-215.612
-223.957
-209.512
-107.952
-1.84161
25.8259
24.9371
42.762
59.6514
53.4522
-37.222
-21.9216
43.0509
64.3094
72.8396
99.763
115.402
136.425
157.014
129.001
48.8428
-66.4066
-122.263
-131.72
-71.9604
-60.7257
-7.72553
162.019
305.968
218.588
85.1081
-35.7916
-130.187
-172.555
-183.056
-123.1
-37.1556
-26.4845
-107.258
-57.7134
-14.6509
4.38328
24.9904
28.0388
56.5371
22.1958
78.5539
33.5383
-132.746
-185.373
-148.448
8.30406
28.566
-44.1532
41.033
8.78297
-63.5253
-54.3116
-38.8033
20.5527
114.489
187.327
227.139
162.362
14.4339
-70.2839
-129.857
-152.331
-54.3269
25.2261
77.6072
100.731
111.961
142.216
122.417
93.0585
78.6014
93.6134
49.4468
20.886
-49.1539
-153.039
-167.593
-165.612
-167.965
-99.2178
-7.17291
-28.654
-72.7185
-55.782
-6.95724
-2.69212
-11.1058
-7.64174
71.4102
125.098
103.657
-32.5713
-77.2152
-90.8821
-139.381
-170.813
30.5875
137.577
165.046
103.999
-3.07238
40.702
-5.04383
-20.9256
91.974
174.956
126.782
19.2492
-133.59
-106.089
-14.2395
-0.446714
-16.7577
31.9912
52.8407
-25.9354
-88.4547
-46.6486
-67.4959
-83.3513
-157.836
-206.492
-67.3417
72.9547
62.8264
-7.04564
-55.6108
-23.3189
14.7641
9.63587
60.3856
93.5501
74.9069
41.3777
58.7092
104.433
49.5858
-87.7816
6.08916
190.07
227.472
252.744
184.45
51.4346
-44.4739
-109.709
-79.778
64.0358
63.0338
-23.8937
-126.099
-131.076
-42.631
-8.63102
3.78539
-62.1993
-50.3944
-43.7966
-75.3235
-124.19
-161.94
-203.39
-209.57
-209.626
-215.854
-110.196
-89.5359
-115.602
-91.9142
105.308
393.248
396.845
186.163
74.3323
15.4873
44.7144
70.9921
106.283
192.713
211.481
79.367
52.6233
-3.3354
-6.10503
-6.19495
-49.6456
-34.2575
-48.4304
-80.4606
-46.8814
-157.636
-175.984
-57.6667
-36.5587
-18.3413
-38.0796
-50.4272
132.745
44.23
-90.0919
-54.6374
-50.6519
-14.273
4.92849
0.194499
77.1067
81.4408
92.9391
122.468
12.6258
-88.4996
-40.4277
38.973
7.40622
76.8904
133.494
12.7339
-114.221
-142.577
-90.9493
-13.8879
-18.4534
-10.7489
149.22
132.385
60.6265
56.6233
16.5863
28.2211
10.2489
-51.0749
-49.8552
22.5015
9.12913
-26.4769
-72.9785
-51.5613
-92.0896
-101.272
-132.276
-117.599
-69.103
-63.2505
-130.268
-75.3304
5.27313
42.7429
33.7026
63.7842
100.751
177.025
156.782
54.5403
67.9029
15.7533
-34.3241
34.7391
153.198
267.999
268.732
164.038
42.1438
-45.1909
-112.342
-148.373
-123.967
-106.807
-139.115
-132.921
-139.784
-150.627
-149.179
-135.912
-16.4406
87.3308
7.91258
-71.5922
-155.074
-158.432
-6.16979
13.7123
62.0926
170.414
163.926
120.413
48.5972
25.1586
28.0662
31.9642
143.06
217.841
190.913
133.821
47.506
-11.876
-11.4661
-45.8038
-19.4894
-69.7192
-120.156
-54.2404
-9.52177
-25.164
-26.1702
-39.4097
11.1446
-20.1054
-48.3835
-87.3637
-115.735
-109.901
-66.0972
-42.4613
-87.9837
1.26228
191.829
253.492
153.974
33.6768
-31.279
-60.1262
-146.032
-185.884
-18.0889
35.9194
-24.6012
-69.9715
-53.5905
-117.347
-173.77
-105.791
-51.0937
-7.85019
116.13
102.719
48.0527
19.1635
-9.27622
28.4902
81.9655
80.1734
257.574
270.184
123.623
64.5435
63.5063
81.6701
50.1378
7.18618
72.3483
24.012
-15.8665
2.6564
-50.9731
-125.638
-140.446
-152.868
-80.3747
-51.827
-86.7595
-109.768
-187.023
-169.099
-143.746
-38.5862
-33.2327
43.0324
117.594
151.366
98.5486
62.6246
48.8264
65.8356
29.996
45.0845
76.4357
10.7107
2.70735
13.1494
6.46465
0.0885806
-88.1717
-94.1195
-73.5055
-48.1129
-42.7023
-85.5472
-83.4844
-6.68629
-5.45694
104.817
103.008
-26.1504
-57.6745
-53.3313
-71.2001
-18.6071
-48.4249
44.9874
88.8532
86.7819
110.972
136.573
81.3954
93.6989
310.14
287.054
65.8156
34.1964
16.6366
-35.9835
-116.998
-137.066
-96.6677
-19.0111
-17.9883
-20.9448
69.7127
23.3927
-74.2593
-109.128
-140.275
-129.416
-33.3548
-51.4203
-168.521
-101.297
-60.053
-52.8664
-55.2168
-82.746
-77.0788
-40.6159
73.4212
151.6
182.822
221.079
135.8
-7.88113
-56.5066
-62.8718
20.9437
-31.6865
-125.886
-132.206
-112.717
-71.2913
13.1167
55.6591
193.894
171.051
101.494
75.4162
-6.4107
-56.5367
-73.0065
-123.39
-30.5589
-34.8179
-14.1166
21.3021
-15.7459
-10.3022
34.7242
23.9405
-91.9169
-86.6819
28.299
83.3647
72.5321
52.3551
72.6243
96.7991
42.1266
42.5177
76.6881
46.4064
-39.2426
-54.1382
-30.4653
2.01159
-48.3244
-87.4548
-14.8025
-31.3679
30.2329
45.0417
9.40612
-20.9555
-5.7767
33.0381
40.7272
96.138
128.279
59.2163
-30.3405
-92.8054
-114.82
-27.0073
-6.25288
-16.8875
-34.7094
-48.7024
-63.0611
0.370029
-21.52
-134.595
-269.07
-180.08
-190.2
-108.657
77.4523
219.256
255.142
174.888
130.556
127.518
78.5485
8.80084
-94.9383
-133.177
-63.8706
70.7895
84.0686
-14.2984
-76.9475
34.9071
119.337
123.705
100.36
70.5247
-0.0305313
-146.454
-166.599
-124.606
-94.3039
-60.6308
12.9268
85.5445
154.777
77.4229
86.2477
74.3884
2.2565
-64.8027
-114.871
-68.0229
18.8282
-53.7289
-6.26147
135.25
110.531
31.9886
-40.2988
-81.6507
-51.1291
10.0883
19.1129
-2.56301
-27.0859
55.036
94.6318
22.4772
-43.1925
-20.2854
-50.8874
-89.6501
-3.52322
-45.453
-61.1855
-129.04
-138.929
-111.658
-150.873
-216.484
-192.967
-125.812
24.1115
59.3879
110.991
167.522
139.777
125.647
181.313
192.322
212.407
185.902
104.915
119.16
61.7668
-23.261
-36.4836
-41.8143
-6.36807
104.362
112.603
49.1744
-15.519
-16.8981
-15.5429
-105.819
-149.764
-71.1189
-49.4356
-15.5478
-1.96544
-28.3328
-104.147
-161.755
-204.053
-151.888
-78.8316
-62.6268
-17.6736
19.4685
67.0949
75.1195
53.4179
-32.6382
-0.587784
24.2058
0.163559
-8.96881
-6.49617
-11.6823
-41.701
-65.3359
23.6905
85.0866
163.767
164.612
116.455
85.9702
5.63751
4.82837
72.3974
42.6004
37.5096
78.073
-12.7045
-12.3155
-21.5925
-64.5368
-28.1498
-59.5671
-71.0074
-48.4233
-98.1888
-109.006
-93.1489
-58.9191
16.1325
39.3212
102.99
93.3139
66.4936
102.808
83.2471
-27.7743
-79.1619
-158.892
-125.552
-9.88122
-23.6904
-14.0397
-43.0409
-66.9122
-36.203
-5.7198
-57.0317
-27.4631
48.0306
68.3956
39.0313
47.685
7.47332
-97.6618
-144.468
-3.56537
211.28
390.888
315.489
134.455
30.3327
-14.917
-39.5467
-70.9455
-83.3942
24.0102
30.0808
-37.1532
-125.267
-147.502
-108.785
-132.37
-83.9358
48.4021
30.3526
-2.85806
-97.0523
-162.186
-143.628
-103.401
-34.6373
42.0656
89.0327
175.676
175.187
74.6903
75.0691
48.197
50.2167
165.562
167.247
65.4921
-25.2111
-75.9577
-59.8257
-63.6067
-87.4475
-51.607
-9.86135
-22.3697
-13.8363
-51.3963
-34.5133
-2.64527
-33.8462
-118.676
-33.7468
-17.9345
19.6247
3.92192
16.6387
34.3529
-95.2539
-175.914
-33.6556
2.0697
-1.67804
8.82301
121.379
281.736
265.722
190.676
94.055
40.383
-3.17043
-38.3771
-93.5848
-103.504
-76.3786
-109.159
-220.634
-179.042
-55.4635
67.26
53.0821
104.172
170.174
83.8151
-138.431
-272.772
-171.341
-48.3909
1.74616
-14.197
-44.9573
18.2446
31.6557
41.3434
57.7218
48.7947
35.7179
145.516
262.234
232.097
91.9077
-53.1756
-116.177
-84.6615
-32.4512
10.8137
-55.967
-91.8171
-95.9054
-93.2691
-10.3989
88.1878
56.5458
79.3554
93.0939
121.155
154.235
92.4423
100.111
83.8072
-3.20723
-68.5683
-115.27
-68.5605
-83.2249
-214.988
-158.622
-67.5809
-61.579
-59.8762
-59.8247
-83.9897
-5.26687
-7.29154
-88.0094
-115.509
32.4601
27.5916
20.1041
18.0224
-7.08994
18.0817
66.3252
24.6356
73.5003
149.824
118.605
65.0715
55.1021
71.887
135.802
136.061
13.4838
18.9241
72.0888
5.0535
-87.5353
-14.6318
37.9406
-54.2988
-123.553
-158.515
-131.444
-114.44
-162.26
-93.7944
-47.6576
-2.42845
48.5223
58.2362
82.0121
24.9908
27.8723
8.31177
-39.6007
-49.0527
-85.605
-116.578
-18.261
16.7301
87.4902
207.332
210.402
76.8035
-24.038
-32.0232
20.9316
107.634
198.92
124.109
27.8774
-6.06662
-45.6472
-127.234
-166.4
-140.246
-24.7576
-7.16166
-19.1499
-30.3958
-78.5796
-87.2785
-149.972
-65.4023
66.0365
72.2937
31.118
-47.2779
-122.884
-93.5026
-118.242
-82.2576
102.315
199.885
238.6
258.443
203.694
164.69
-6.47936
-40.3418
71.6508
104.671
110.376
32.5668
-59.9202
-73.0765
-101.815
-181.122
-143.5
-98.06
-25.2189
27.01
-45.8803
-114.784
-96.6637
-84.646
-170.556
-101.715
-32.7329
-11.5641
8.64759
28.815
31.4357
42.6634
25.4077
-26.7581
26.5133
74.8757
38.244
55.0158
81.5819
61.1098
69.0346
116.126
77.7032
109.811
105.084
-32.5637
-68.7063
58.4405
105.237
55.3222
-72.0252
27.5528
32.2773
-63.7347
-89.9417
12.4
-42.3624
-168.756
-163.895
-129.469
-105.052
-13.6666
35.9394
11.1637
21.6978
1.1507
0.485386
11.5756
-36.2805
-44.0224
15.1153
1.65134
17.5757
48.0045
4.33327
45.5929
144.606
144.928
71.8121
-60.0739
-94.186
-60.3163
-21.2022
-85.3191
-81.9487
107.253
129.94
52.3714
25.1522
42.7206
50.2151
1.87225
-56.2263
-1.73433
-37.3984
-143.643
-242.457
-153.356
-16.7919
76.19
138.79
154.231
228.359
247.666
161.8
18.7512
-24.8617
-29.0541
-77.0436
-125.563
-91.4769
-3.25208
36.0598
-35.2818
-85.1251
-175.736
-169.728
-138.391
-157.866
-37.1021
99.7274
80.5151
-23.8387
-47.2779
27.6881
61.4255
26.9556
21.0708
30.5441
26.7399
-43.6211
-143.459
-55.227
142.757
240.426
206.221
150.055
112.566
80.6675
-45.8965
-124.48
-117.977
-54.4133
1.02671
-28.422
-19.317
-16.0193
33.8816
82.7476
129.496
72.7317
-53.4116
-93.498
-50.3445
-78.3002
-66.4474
-8.81282
-0.243645
-2.09661
12.0303
25.1227
60.0672
-13.204
-42.0859
-38.5318
-97.4208
-78.3318
-75.6149
-84.0983
-13.8322
25.5142
57.2325
31.763
-68.6323
-56.7849
-18.4586
-28.2126
-40.3162
63.2503
156.206
108.655
51.4394
43.3178
65.649
81.8367
71.8087
-4.65356
-17.7371
40.7947
35.934
0.161557
-57.344
-62.5197
-37.0414
-17.0525
-15.8053
-40.1141
46.8431
46.8601
-42.4812
-108.674
-73.6362
59.7964
104.518
86.4378
78.2895
-0.229146
-17.1679
-79.3935
-149.374
-125.111
-86.7856
-90.5415
16.6757
62.0384
73.5682
77.6513
0.869293
-74.2467
-181.155
-214.31
-49.8172
110.081
120.766
127.033
118.549
181.56
119.472
33.349
-4.90543
-12.1854
48.9337
78.5541
-18.2931
-8.81327
25.026
21.925
-43.5117
-115.15
-1.21199
27.3243
-79.8948
-193.464
-205.427
-163.574
-119.678
-55.5586
78.305
48.2634
57.0105
135.737
145.031
108.95
-1.52446
-50.7911
-16.5189
27.358
60.8399
105.241
92.0486
105.828
23.9237
-20.5427
57.3784
-0.990337
-45.4088
-21.261
-33.8116
-16.8756
-14.0714
-13.5747
-15.5275
-47.5883
-115.365
-140.572
-115.129
-52.511
-35.4891
-4.58518
1.98346
60.6353
136.839
117.695
67.1889
43.3193
34.2019
0.844792
-41.7424
-40.1965
-66.2289
-82.3521
-102.41
-52.7358
-2.49679
23.0559
1.94885
-7.13628
36.6253
146.889
146.424
55.5758
-33.0645
-54.8418
-30.3333
-4.10014
-37.9387
-18.746
14.2884
6.18726
7.07022
65.217
123.765
34.1522
-76.1892
-36.1652
43.6627
50.6046
10.4725
-71.7506
-106.159
-105.783
-132.031
-128.335
-26.2503
47.9263
79.8315
59.8539
57.6375
62.914
91.1354
64.3621
-33.7964
-15.5486
20.3504
-63.4236
-132.936
-109.914
-93.484
-69.3182
-38.2991
65.2408
157.981
101.102
8.74613
-22.1769
-11.5833
35.1577
44.8791
127.78
124.188
58.9185
51.6081
15.8597
-9.93746
-18.612
-74.943
-56.9874
34.8909
28.5506
31.0795
-14.1273
-9.17823
68.6914
109.391
55.4767
-39.2175
-97.1542
-159.933
-229.87
-237.191
-196.34
-162.612
-87.6578
-51.7644
36.6608
131.739
126.633
50.4046
36.8401
79.7166
130.124
136.601
105.088
-2.73417
-0.244554
7.81412
-10.359
-5.57957
-20.0344
-11.1051
3.15063
-75.4086
-49.3461
41.1185
70.5478
88.7806
121.345
79.552
-15.5665
-37.3496
-8.76948
-23.6122
20.9447
95.3655
92.5819
26.1511
-43.0315
-23.9263
0.414832
-82.1228
22.7664
106.579
43.3662
-12.4383
-89.4291
-136.104
-176.777
-278.987
-256.788
-203.198
-215.863
-164.388
-129.513
-86.5797
32.2773
228.941
259.807
236.424
200.652
216.394
174.157
120.828
20.1309
5.91009
-0.505468
-2.16731
-3.03248
57.0398
105.173
116.824
68.8271
81.2388
86.3675
22.3718
-55.661
-140.54
-125.131
-109.371
-106.839
-119.977
-114.156
-54.4509
40.1712
95.3488
66.8637
14.0103
-42.1824
-107.435
-120.757
-44.6782
-66.1164
-85.2279
-68.1226
-30.5294
-41.6009
-54.3971
20.5125
76.5689
110.465
114.557
-15.6124
-81.3488
3.6545
-7.9506
-6.94627
128.338
168.955
189.213
160.451
92.1239
26.1495
-44.3102
-34.0191
-44.0225
-62.6829
-43.1772
-68.6765
-77.2149
-98.6773
-85.8167
-31.4435
-15.4094
2.8396
-21.7815
3.59268
17.4616
-30.2868
-21.0114
26.7479
-1.72692
18.9141
51.3247
5.97268
42.3297
96.2249
107.022
98.1397
23.5995
54.9861
-3.21302
-93.8576
-106.729
-179.668
-128.226
45.4607
42.7848
90.6752
147.25
66.8641
5.829
-38.6329
-55.1865
-48.5094
-35.4576
-8.15819
10.5872
35.3618
29.5805
-38.929
-71.1697
-16.3105
5.02494
5.88627
-73.0954
-141.67
-139.791
-68.6093
-34.1661
-28.2528
42.063
153.199
133.325
109.011
195.104
173.025
91.0645
-6.08375
-15.1446
-31.1936
-80.2219
-78.2793
24.8495
30.9452
8.34906
-117.835
-172.775
-146.893
-119.841
-37.964
12.0449
-19.3564
41.8297
114.928
93.4347
61.0852
-38.0641
-50.9862
-22.3214
20.2532
92.982
102.143
3.13111
8.89548
18.6694
19.6946
79.8887
5.19078
-60.0594
-79.3949
-67.1651
-39.0662
-16.5439
-58.5571
-78.3046
13.4187
51.958
61.3062
82.0281
118.158
122.902
57.1992
-16.7698
-22.2359
-29.0817
-63.2745
-94.3641
-39.1552
-30.1182
-114.198
-28.7862
54.1474
-16.2939
-45.4765
-52.2505
-52.1322
39.6058
92.4753
108.92
91.874
38.1553
55.2578
59.9282
-16.4098
-68.4121
-76.8268
-78.8248
-76.6485
-36.9414
33.7142
-1.33448
-9.01503
49.4405
71.9373
2.37403
-66.986
-81.4948
-52.9754
71.4116
64.3408
4.80146
-34.5004
-104.846
-165.972
-92.3505
-50.2034
-35.8686
75.5351
193.6
233.015
139.918
28.6843
64.7577
67.8893
32.7106
26.0547
13.9267
-63.4067
-149.534
-120.728
-90.5683
-90.0548
51.4059
92.9471
53.9971
64.6628
49.1663
-35.4695
-100.172
-110.824
-13.738
26.6594
30.6564
32.7922
44.7171
40.8043
59.6711
53.5855
74.777
-4.67361
-57.282
-64.7236
-92.6434
-29.773
17.0955
-42.8828
40.6325
99.7372
43.2705
-27.4731
-86.0123
-76.6383
-113.478
-83.9902
-59.6216
-17.589
4.43545
-7.72869
-48.9966
20.8542
76.2172
91.0391
42.2317
-1.20351
34.4073
67.1249
-14.8205
-71.452
-69.4568
-9.94448
85.9067
69.522
-29.1959
22.9319
36.5785
46.3185
45.121
-8.54925
3.39047
39.4092
39.8285
128.702
130.076
56.3138
-70.8797
-135.527
-100.541
-62.8369
-80.0197
-23.5774
-16.2398
-6.8977
4.82209
-20.241
-18.302
-44.0829
-67.557
-49.0721
-80.8713
-3.00605
13.3482
5.71009
53.6775
25.9781
18.9339
8.09528
-0.458389
103.31
152.085
76.678
-37.3169
-65.9103
-46.783
-91.3992
-54.0931
25.2658
40.1286
54.0788
1.66018
-69.5761
-38.0581
-92.341
-69.688
29.5812
48.642
62.6349
42.6146
-36.5454
-35.4009
-65.3031
-25.1479
65.2039
59.6782
78.4695
102.752
94.0936
80.4184
64.3662
58.5311
67.3819
5.53638
-45.8763
-100.811
-114.813
-75.407
-54.6484
-53.7554
-30.6368
55.8337
31.6537
-29.027
-51.1849
3.89773
17.1229
-22.9651
-119.449
-60.2687
58.5798
109.684
57.768
-14.9948
-36.4922
8.8328
89.1868
160.904
249.462
178.15
44.7461
-97.0229
-174.615
-229.605
-295.431
-279.549
-110.818
-75.1369
6.05808
57.1856
17.1868
16.3471
25.4985
82.4394
167.186
121.936
28.8894
-55.1096
-110.864
-59.1643
-42.9596
-15.7216
108.102
145.745
166.674
149.389
111.422
150.016
145.937
15.1175
-21.718
-15.0742
23.8937
25.8034
-61.3756
-117.404
-134.707
-127.634
-173.356
-145.63
-41.1047
50.2822
85.8847
91.1194
70.0534
32.8985
-101.186
-79.295
76.5508
43.2709
1.5478
-97.1871
-140.464
-114.446
-143.375
-43.4124
-13.6282
15.1637
40.7176
-1.29454
-37.273
-31.3475
-65.127
-44.0442
92.8616
144.325
139.61
72.3556
-8.24678
-13.2975
-38.5034
-15.522
-3.26616
23.2797
60.0561
7.11065
3.11393
-5.49298
-1.77881
67.9571
99.2281
6.67327
54.5629
-9.09706
-31.9571
-50.4428
4.10566
34.4225
21.1006
52.8114
47.5405
77.0699
150.778
130.26
64.8913
12.0656
-69.5596
-140.544
-177.126
-177.523
-137.036
-96.9801
-116.085
-36.8989
-34.787
-82.0428
-113.403
0.375948
162.231
192.165
95.0834
-0.27732
-58.9807
-35.1277
-79.8154
28.5281
121.641
71.3658
3.40237
-40.9735
-45.2028
-11.3627
-42.2383
48.6217
181.021
183.55
118.313
55.8758
-34.8484
-85.5399
-114.834
-173.731
-186.027
-78.4552
90.6054
149.717
180.491
211.774
209.316
132.761
-15.0574
-70.7236
-102.199
-200.839
-272.161
-223.28
-142.227
-108.143
-154.588
-113.09
58.1981
95.2024
79.2005
40.0206
21.3172
-8.57043
-28.1443
0.091807
67.6524
159.292
153.185
95.9844
98.2656
127.776
125.096
77.1294
-2.0553
-33.5913
-31.3965
-50.1342
-86.342
13.0349
85.8889
76.7652
-15.0111
-77.8395
-73.0097
-67.1786
-109.686
-189.916
-180.162
-142.253
-103.019
-139.382
-139.056
33.2888
243.292
362.24
379.264
227.975
78.2777
-7.11498
-120.432
-145.733
-60.1177
-37.176
-110.303
-153.003
-111.133
-66.8879
-70.5349
-48.7869
30.7058
30.9616
41.2468
-9.48073
-32.0385
-62.4763
-89.7332
10.304
172.661
222.279
180.638
97.4383
54.6852
7.59778
-85.2359
2.78607
-20.5018
-54.2931
16.8015
49.3922
11.3829
15.9181
-1.51544
-10.5315
25.7665
-44.221
-31.7683
19.4255
-5.01868
-48.1349
11.1403
83.2184
83.3638
138.371
125.463
0.6996
-90.6352
-138.865
-131.679
-101.106
-138.669
-196.134
