32.8714
8.91887
35.8657
40.8444
-2.91892
-26.5765
-51.4641
-35.1809
20.8459
11.5128
8.15584
82.3776
-15.8222
-47.8384
-39.0854
-23.8066
26.9005
25.9868
0.375697
16.2689
77.4245
-11.2498
-53.6248
-33.5042
17.4287
21.8613
-8.3814
5.55778
71.6325
77.0261
-69.9838
-115.223
-27.725
3.28899
1.25996
8.38887
26.8311
61.2183
71.6981
-55.795
-61.8278
-10.6206
-20.7621
-12.1726
7.64171
31.1778
70.1326
-42.0075
-54.7221
-46.5022
10.6246
-12.7023
16.4864
27.2857
95.9492
56.0034
-63.1817
-69.5926
-63.6076
11.1742
24.9601
38.7101
34.9453
63.5285
34.5735
-55.6679
-90.0042
-18.9537
-15.9128
-32.0718
-6.64375
12.3241
70.6137
33.3328
-51.5932
-29.4081
44.1706
31.9003
16.0407
26.3988
58.2014
33.1861
-40.6549
-58.0139
-38.7024
1.62761
-21.7137
4.77604
79.0192
57.2557
-83.8744
-74.5719
-67.1254
-38.789
-14.2948
7.90799
76.9579
26.9951
-18.4285
2.61394
-11.7551
1.9356
20.4022
17.0779
75.2195
62.2531
-47.5522
-50.5028
-78.8432
-67.7738
25.7344
25.2484
16.7451
79.2367
100.341
-32.3211
-71.8502
-34.8865
-11.8939
0.449963
9.01735
14.4715
43.5084
34.631
-53.8982
-31.9296
13.5017
16.0725
-5.29079
-2.02709
29.671
51.911
-9.90598
-78.0255
-64.621
18.2419
34.2469
34.6496
62.6959
97.0123
-13.6143
-62.7519
-65.7875
-55.4179
-26.569
-19.6753
-0.73545
44.6264
8.87296
-71.3339
-35.9086
-41.2787
-5.328
5.39435
2.77678
60.0596
89.5213
12.2259
-23.6063
-41.5898
16.6485
36.9674
17.4185
30.3683
70.3951
-1.18479
-39.7541
-76.4693
-48.6316
15.1082
22.7159
1.28173
13.2824
53.1997
-7.96453
-34.5778
-23.1774
17.8857
12.2949
-21.6563
5.35726
77.7139
19.1467
-34.9425
-60.3487
-23.7842
6.20554
-1.95804
17.2364
54.9074
12.2554
-61.7148
-48.548
-44.7198
-6.97525
10.2557
10.2545
78.7021
82.4795
-29.5369
-22.8376
-34.4799
-11.6364
-0.651939
-20.2841
-0.944779
32.5203
45.2553
-48.3891
-69.4356
-30.4386
24.3154
24.7366
-4.66898
23.8968
80.0936
79.4648
-6.15981
-124.172
-28.4347
-0.241097
-8.17758
-2.03942
-2.38226
29.7452
23.2895
-34.7329
-34.9776
10.9134
13.5604
13.2835
25.6801
89.5832
-4.70936
-46.5609
-52.1283
-47.4557
-23.6136
31.2929
72.1673
132.34
-6.027
-54.0258
-23.7647
-32.131
-21.3978
2.33145
-6.81683
31.3035
-9.51927
-31.7136
-34.1454
-50.7285
1.46037
23.5227
-7.84716
-18.8384
67.0393
54.7614
-42.1086
-68.0335
15.0586
38.0674
26.6736
5.13145
67.0908
100.152
-5.70398
-131.274
-79.0298
-42.4716
-27.2823
-32.7197
-26.7216
29.2488
76.4328
-1.64869
-36.5125
0.767217
48.6812
22.776
45.5099
89.0271
137.955
-0.700059
-142.944
-128.967
-52.4703
35.1237
45.1362
22.0945
0.358578
30.6271
28.8535
-67.032
-54.9502
-3.95083
-9.37935
18.2473
38.2546
54.0589
37.8548
-35.7001
-70.7105
-18.5327
10.1927
-3.88842
7.50552
64.4491
79.0082
-23.583
-96.342
-85.939
-47.05
3.86956
-10.5705
16.6027
40.3168
126.037
111.93
-39.694
-32.2827
-8.2211
-22.7417
-8.85688
1.86454
26.0534
-9.50615
-89.0849
-103.268
-26.4532
26.3773
15.6811
3.29622
28.1436
35.2237
-16.7302
-16.3859
-36.5515
-32.0069
25.7623
36.0237
49.688
32.5722
3.15921
-0.75841
-18.4395
11.4938
34.4277
27.3053
75.452
-8.1532
-32.9944
-12.0355
-18.9897
-31.732
10.6423
-0.404092
42.5992
36.8615
-43.7539
-27.6428
-32.0311
-39.7647
-9.75445
10.92
6.84717
44.4335
80.0532
-13.4465
-141.219
-46.7522
-9.02999
-4.83215
10.3301
25.2711
74.037
117.963
-40.1377
-117.604
-22.9295
5.09711
-6.51095
-14.3057
-4.22258
33.5187
2.99665
-48.987
-40.5165
11.3284
76.5013
62.6116
36.4632
62.2521
10.2705
-47.0831
-53.4527
-63.4203
-21.5925
30.2286
84.3673
157.115
-21.5762
-71.4717
-36.875
-50.8161
-47.677
-41.1572
-45.5108
-3.38225
59.7443
58.9484
-61.5195
-79.6836
-27.072
14.1305
12.459
-2.97027
-4.43018
49.3241
29.209
-52.0267
59.3549
116.845
107.748
29.4892
7.73305
94.1346
16.0145
-132.715
-124.699
-100.048
-15.3324
-5.22471
-7.01705
38.9435
36.7655
-39.2384
-22.9793
-26.9129
-11.9687
18.8101
58.0573
90.1945
-14.1243
-59.7903
-39.3866
-81.229
-66.493
15.7886
30.8921
104.595
112.275
-43.7148
-37.3105
-26.5352
-25.5459
22.9525
27.2158
10.5293
32.2775
48.5772
-47.1047
-80.3467
-19.4817
13.0418
13.134
-14.1581
7.47548
88.0093
86.0462
-87.3214
-64.4723
13.8066
8.03417
2.093
2.9233
31.0222
99.6863
82.404
-81.534
-98.7714
-53.2391
-58.1623
-12.6527
20.4239
53.5889
35.3181
-22.8622
-50.7059
-70.8522
-14.6201
-7.2112
33.4531
69.805
4.17056
-11.7752
10.5716
-27.1106
-25.4032
41.8369
40.4248
147.296
65.2688
-54.6996
-54.886
-85.9252
-84.2816
-17.046
4.89957
-21.0087
-0.199317
86.3481
86.46
-50.8354
-7.74964
6.67395
-26.7053
-48.7699
-13.3406
37.0407
80.0274
-15.0289
-31.0119
24.0362
5.98431
12.9687
13.1972
30.7996
41.4084
-29.6065
-89.081
-107.031
-70.0116
-7.90187
17.3532
27.8527
124.817
109.009
-48.6813
-17.9183
-23.4649
-24.9128
13.3765
33.9602
-5.35022
-15.1033
14.3104
-32.5666
-40.5043
14.2246
48.341
19.6618
3.0417
32.1657
81.4176
21.0618
-67.9086
-115.964
-32.471
-14.1445
-36.9728
-28.298
-8.71161
39.8736
105.216
82.0618
-100.413
-76.2915
-40.3746
-3.40374
-5.51757
-35.8385
1.41897
68.3302
-0.688914
-14.5704
-6.16924
17.4832
55.4352
54.4096
44.2216
104.096
7.62927
-22.9236
-46.7204
-46.2446
30.2505
37.9623
30.8386
33.5297
-28.7901
-40.5555
-46.2475
-94.5557
-65.4302
1.6982
18.8909
76.6887
25.0378
-21.3501
-32.5792
-58.5973
-8.26988
14.7186
-5.69619
22.2604
82.1196
-30.5517
-54.8441
-49.2992
6.39394
29.9267
24.6522
12.6142
12.2683
15.5691
-31.2432
-45.3342
-4.51142
25.4904
40.5155
9.23706
33.9268
63.8417
-17.8093
-55.827
-46.4378
22.8597
20.5756
-2.44811
-5.15328
-3.90505
28.4899
46.6845
-35.0719
-40.8297
3.87869
26.2718
47.6642
39.6819
57.9573
58.5247
-47.9909
-66.1864
-30.5321
-52.5187
-55.6258
-21.8798
-20.2391
9.87222
-43.3998
-45.5972
-29.5398
-22.4203
35.7008
48.0095
41.7866
78.0062
111.815
-13.2915
-70.5509
-40.9405
26.1652
-2.12323
-12.1531
-2.77706
34.4349
94.8463
-2.05842
-115.183
-71.1037
-51.0679
-40.5123
-49.5896
-1.29673
55.3212
52.3432
-19.8338
-21.4634
51.1608
53.2113
24.9027
31.8594
94.23
42.6659
-52.5132
-60.9854
-78.467
-16.1579
22.8407
53.467
103.056
25.7771
-56.2751
-39.6331
-40.496
-24.1064
-8.51927
-21.3209
55.6687
0.222908
-24.8371
-27.075
-68.4238
-29.7834
41.9973
24.9179
38.5442
102.451
3.9772
-40.5725
-69.7681
-28.4005
21.6525
18.6602
6.51035
34.6731
95.7353
-0.633498
-80.706
-49.596
-22.7731
-10.9375
-25.238
-4.39899
27.9627
61.6481
11.1554
-132.252
-51.5126
6.52665
-8.86938
15.2986
43.8362
57.6835
58.8145
-46.1503
-76.7823
-1.45788
48.3074
59.6062
51.4629
70.4453
131.756
8.90751
-48.6365
-106.131
-116.753
-48.9026
1.99431
23.6808
27.623
-26.4172
-16.6778
-10.6466
-5.72938
39.8156
10.4717
5.67461
35.4204
-25.8191
-20.3356
-27.7397
-52.8061
-1.89797
15.6382
20.3737
87.9593
92.0107
-65.5946
-60.8426
-49.8281
-33.2934
-30.9567
6.97139
51.5067
51.5501
-2.08178
-1.51554
-16.2841
31.6291
33.1171
7.40739
19.8123
17.4414
-24.9904
-34.1151
-70.0044
-36.8092
54.4699
21.5399
33.5087
106.142
62.6705
-70.6251
-85.8671
-47.0237
-15.899
-33.3763
-36.9305
35.4373
78.4233
-24.7214
-38.0677
3.82032
32.4755
19.237
-21.2092
-46.8348
31.6312
20.7652
-47.4056
-41.2801
-7.7354
36.3386
15.0217
15.0907
52.1435
133.066
19.871
-63.025
-58.0423
1.4585
-15.1053
-27.3127
-40.5388
25.8685
-41.0969
-47.822
-26.6445
-23.0433
-2.54406
37.8033
61.6452
114.958
-7.36349
-42.9699
-14.175
-43.7692
9.96295
42.2554
51.3568
114.166
-28.8911
-58.2409
-37.3767
-60.8569
-21.3223
-5.00521
0.581624
34.5777
-21.0251
-24.8605
-22.3301
-33.459
19.9663
33.7123
18.3035
22.6915
121.392
25.8986
-75.5885
-83.4893
-7.53156
28.0994
22.9659
-20.601
21.688
97.8413
12.9652
-80.0698
-41.4902
-65.1319
-90.6268
-70.0691
9.88159
108.002
127.137
-47.2438
-108.875
-44.086
-0.80065
8.40089
49.8549
54.3498
34.3966
66.1027
12.1582
-26.13
6.57056
22.373
7.76888
6.39612
37.4895
40.5318
-22.2104
-52.0417
-59.341
11.2792
12.4833
43.1471
109.013
9.54765
-89.4256
-56.3284
-30.0554
-50.6001
-29.6331
-34.345
9.72121
124.193
47.9463
-108.432
-96.0392
-56.1424
-11.3749
-38.6447
-35.8229
9.31452
77.377
79.988
35.0335
54.8722
63.1197
8.74712
-35.003
-36.8217
37.8154
-15.5124
-37.9246
-86.9749
-29.132
58.1497
44.8386
23.0143
67.7236
33.3719
6.18821
12.3186
-26.8399
-29.0461
-20.2001
-13.4099
38.9797
42.9653
-44.6867
-37.3367
-55.0708
-21.8518
-6.41277
-27.3815
22.8318
2.03744
-24.7098
-24.921
-10.4598
26.0548
42.9564
48.683
40.513
91.8025
22.7628
-73.3071
-64.0629
-50.9081
7.66475
-6.0363
-15.5153
-4.30317
5.34121
52.4704
-16.7575
-28.356
-3.87605
-8.28743
-3.81604
11.2405
11.1084
59.5495
63.321
-88.2701
-51.455
8.5076
25.3507
22.0163
11.8099
10.6255
7.25732
-32.5179
-49.6884
-71.5157
-21.8051
51.4052
79.7678
97.8796
47.6292
-37.2301
-32.616
-45.2228
-58.3653
-15.889
37.3945
139.875
-1.03852
-37.2558
-24.0957
-22.0143
-39.549
-70.3643
-74.8421
-94.2889
-41.6221
66.7992
41.0466
44.0838
37.28
8.63372
-3.35693
3.94312
4.07703
72.0823
125.727
33.9916
55.7621
49.9703
13.4078
-35.0634
-49.9126
34.6989
52.4138
-41.4155
-83.4402
-94.309
-77.3708
-103.613
-47.5611
38.1166
101.093
-12.5083
-32.3476
-9.44837
-48.3874
-65.192
-40.28
32.4811
122.534
-11.0019
-53.0105
-4.79803
9.97513
49.7043
21.6046
-1.83122
47.9387
115.997
31.8402
-60.4808
-53.1886
4.86572
0.777323
0.448096
-11.235
7.07445
115.106
57.9718
-101.96
-22.4056
-12.7387
-59.1205
-55.3565
-19.6133
-2.1864
31.3798
0.725573
-100.882
-31.0372
51.7668
18.4942
29.1359
41.251
66.3526
37.6088
-74.4135
-110.922
-61.2307
6.58606
55.3155
96.8865
133.598
69.0081
-43.2042
-32.8274
-24.5102
-2.42505
-7.67225
-20.1355
52.4689
50.9682
-23.0938
-5.19244
5.03576
17.546
63.1826
56.3466
71.5061
17.9584
-39.145
-121.829
-111.047
-83.6489
-33.2683
-15.4344
-39.0581
-19.9186
64.1831
-26.474
-49.6064
-39.7538
18.736
9.51765
-16.4576
-10.1179
63.9985
-6.33455
-45.0382
-4.30106
31.3685
59.5905
19.4385
42.2722
93.0108
4.91855
-0.37334
-107.737
-177.449
-75.8095
-11.8574
48.5066
99.1537
151.668
174.785
45.6572
-11.4641
-34.1966
-66.7096
-52.6365
-26.0379
31.8464
-9.29731
-99.8518
-61.719
-14.0666
-23.3191
38.9096
59.6518
135.855
120.601
-38.0664
-115.483
-125.692
-125.408
-40.3766
-12.4143
6.20713
32.2066
88.2611
70.387
-49.1111
-87.0423
12.5047
14.4897
20.7572
22.8917
79.9802
137.608
60.2554
-6.30673
25.8154
42.945
-17.5623
-39.4093
1.96186
63.8752
-37.3038
-57.7016
-77.3569
-62.9111
-27.0417
-1.03044
23.2795
49.5882
-50.5487
-68.1989
-65.1681
-74.9208
-29.0434
-18.0494
59.0594
89.2482
29.3448
15.9019
12.1245
-13.5999
24.5443
29.1755
62.3804
60.5647
42.3438
-97.0348
-79.8369
-79.6274
-17.4451
-31.9891
-9.03765
7.39523
87.0171
72.45
1.25542
28.248
42.7615
11.76
2.86976
-12.8499
-0.251085
40.9439
-23.4269
-94.3006
-45.9621
56.9948
43.2332
7.7389
16.2125
27.1038
44.3142
-76.9869
-108.454
-66.669
-23.1034
-38.8246
-20.8294
38.3014
-3.19437
-26.522
19.5177
18.1733
5.70927
31.5472
39.4408
74.5947
-10.3745
-24.5841
3.71001
18.4995
-6.15959
20.4221
20.5052
102.296
45.5316
-40.7704
-74.9331
-79.8409
-34.972
-10.9395
-7.09639
3.54181
64.5277
36.3167
-89.7747
-84.612
-24.3044
-16.5154
9.08639
13.9437
22.6213
104.18
52.0302
-66.6402
-16.6886
40.5144
63.5164
34.0235
26.6308
99.4134
34.807
-97.1772
-91.9789
-31.0212
27.4823
-0.414495
-0.877165
45.4596
0.435435
-52.0427
-48.6757
-70.8164
-38.6005
-12.6995
4.24015
59.0309
37.9929
-24.324
-16.1183
-47.0075
-10.1483
61.4459
11.63
-11.4671
70.4799
118.655
-18.0267
-91.1316
-52.9316
-22.6085
-14.7636
-23.8655
-19.7717
47.7273
89.9685
-16.9336
-61.1655
-39.9576
-34.0994
-7.482
15.0852
32.6632
63.5531
82.092
-44.069
-66.4397
16.5308
31.2461
8.32649
8.25725
76.3665
43.7188
-47.8199
-71.2396
-79.9111
-13.0917
27.2596
57.0293
84.7484
4.99349
-9.96968
8.55961
-20.4679
-56.3561
-11.7023
26.6826
74.5208
-50.4813
-48.8889
-35.3835
-61.0379
-37.9941
14.7288
29.1263
78.9132
41.5756
-23.1855
-18.6953
-13.1304
10.0301
0.0988274
-21.4463
-45.9121
11.2211
54.5185
-28.8086
-67.6765
10.9691
-6.90654
-24.9553
-13.1379
24.5287
93.2048
10.9953
-63.6869
-24.428
48.4619
66.9594
51.6248
51.8372
51.3012
26.947
-52.0284
-86.1447
-52.5135
-29.3784
-15.2853
14.0535
52.3816
122.366
-3.42062
-100.657
-94.4422
-44.3005
-32.1788
29.239
63.0787
74.284
64.1885
-53.8573
-78.4034
-36.0845
9.19085
-19.9344
-5.97903
17.8981
98.1442
24.7875
-94.9903
-111.639
-33.9589
22.7939
8.06805
32.3965
48.3567
50.8683
-20.572
-50.8302
-9.67591
68.3799
55.3729
23.7443
43.5306
74.6715
-41.8752
-48.3531
-77.9139
-27.3399
18.1008
-7.36766
38.318
72.6551
-25.7714
-20.9501
-4.69802
0.173573
35.4609
29.6567
27.5499
-20.4253
-95.8166
-61.5604
-31.8941
-55.0398
-9.39165
-10.4661
23.6702
11.229
21.5783
-0.18867
-5.18178
-5.12246
31.0321
18.5432
-1.98325
34.6886
52.9904
-42.0771
-91.1778
-7.86538
48.2707
35.0823
35.0758
28.881
95.4056
15.1639
-65.6843
-34.4478
-19.2903
-30.3635
-49.8036
-50.3158
-6.74049
52.915
95.4274
-49.1113
-57.2762
-12.0011
4.91239
27.9838
48.597
65.0599
84.4967
-55.1881
-82.6655
-37.1493
-23.1563
6.69335
19.0511
32.7016
46.0681
-21.9723
-32.8498
-45.5341
-46.8187
11.3803
31.9878
84.7707
101.875
-20.1703
-26.2943
-46.1147
-72.6623
-10.8686
-21.3969
-18.0214
47.5963
74.2129
-73.5025
-83.3292
-66.9381
-2.51142
27.0863
33.9385
16.859
77.0615
43.1336
-30.4304
-47.1215
27.7321
25.568
8.7917
11.0259
71.3646
54.9588
-48.7291
-60.0005
-53.4685
19.5852
4.82417
-3.86406
39.3831
-16.4417
-39.9149
-40.8627
-36.2014
-5.74184
16.3885
29.033
89.0211
7.9019
-14.4015
-12.3643
-25.1804
-33.0036
18.7515
17.795
68.9646
26.1491
-59.6424
-61.2599
-52.7615
-9.05998
17.8787
8.99533
-15.8616
33.6214
75.349
-19.4528
-22.7254
40.2143
9.07502
-15.9041
-31.0076
-20.3837
67.236
35.158
-121.391
-49.6016
6.87772
-2.65045
2.49422
13.0355
20.7337
65.9019
37.155
-33.5716
-40.1806
14.5952
13.6267
16.3004
12.9306
40.7139
29.9855
-60.663
-54.6958
-48.8172
18.237
24.532
-1.22827
78.9792
44.4589
-58.9415
-50.24
-46.2211
-1.94473
26.3732
2.09028
44.6874
25.1038
-18.5379
-12.4693
-25.8321
-43.7325
8.65641
-7.32341
-23.6507
28.7808
79.3868
13.1322
-71.3445
-17.583
39.2699
16.7431
-10.824
24.5471
76.5033
22.1113
-100.682
-54.8159
-7.67122
-0.948472
3.75653
7.62133
57.1378
7.76875
-48.8902
-38.689
-29.1747
13.0029
14.6139
2.90555
32.0375
82.9946
-26.7964
-63.4454
-66.5085
-24.4105
44.5186
54.8182
64.1803
59.5524
77.1908
-25.1873
-112.727
-64.0304
-12.9107
-19.6183
-29.1307
11.7693
82.7502
25.7888
-72.9655
-69.4613
1.68008
21.9829
17.6349
22.3489
32.6464
58.8087
20.7576
-43.1366
-61.1001
-19.1056
21.1449
30.5991
32.5803
28.3669
24.1137
-14.4099
-96.0738
-60.1555
28.6055
6.36258
3.81971
56.9754
59.3284
4.35583
23.9674
-17.6091
-9.07442
-22.3765
-62.2894
0.597611
31.6231
-35.0567
-34.9783
-36.6778
-21.1712
9.92209
6.14572
72.414
78.5402
-39.6369
-11.6315
-33.2484
-39.7422
-0.323152
9.26045
33.4172
51.6161
12.8636
-10.8756
-13.2556
-24.0217
-28.8889
-30.9052
-13.4793
-6.91082
50.8654
-0.0271252
-49.0059
-17.2699
50.0622
46.7005
14.9049
9.33472
63.1086
122.229
47.0656
-59.3823
-95.5014
-53.2716
-42.7892
-31.7576
-4.49113
-0.746343
4.25125
40.7416
-15.4277
-56.1563
-24.799
-23.091
-10.7964
-11.6619
18.1041
66.2953
17.1292
-76.6883
-55.6902
18.1047
90.4864
93.0155
75.0686
105.992
11.4942
-14.6626
-46.7185
-88.5654
-83.0447
-39.1756
-10.5977
33.0104
54.2156
13.8244
-27.6169
-61.2151
-37.1888
-6.19223
16.9553
38.1996
30.426
69.6703
-9.74757
-106.771
-19.1888
16.9928
17.3592
3.52799
-15.6265
38.9166
54.6972
-71.8377
-41.3411
-2.54108
9.18358
6.99376
24.2108
75.9175
7.14128
-28.2227
-19.3134
-42.5521
-20.9055
0.0619853
8.66502
14.974
60.0467
-43.777
-24.3579
-34.8843
-49.6678
-5.49801
25.4608
98.5571
97.1911
-13.2148
-25.1212
-56.204
-20.1183
24.2864
29.5987
70.3046
118.303
-19.8149
-79.6429
-83.8269
-99.8546
-19.9522
3.87123
-6.25168
-20.2859
49.8538
52.8881
-45.6577
-50.9592
23.7375
31.7453
15.8397
20.8192
39.2229
77.2967
-5.18391
-90.8927
-23.2864
-2.97764
-23.5824
-25.0351
19.2171
67.2826
92.2436
-46.6163
-69.9752
-50.3227
-15.1134
-12.4359
20.7704
45.1237
35.5698
-25.6202
-15.9201
-37.845
-35.8569
-3.87275
30.6268
101.116
55.6299
-56.4979
-43.0666
-64.0601
-61.213
37.842
36.926
63.0962
123.08
-6.53101
-61.5726
-72.0036
-43.3482
18.845
20.9463
-10.7192
5.78618
27.9765
-15.4093
-26.9469
-16.3191
16.7029
13.4637
4.14858
5.22893
45.7603
-8.71566
-53.5638
-57.7059
13.34
64.5799
68.6816
68.3046
54.5571
-46.9079
-56.4331
-49.4615
-45.4689
-17.2547
-30.0541
-1.36037
114.353
34.0951
-96.7773
-77.6537
-45.7335
4.52629
-3.07256
-11.0685
27.8612
80.7157
37.6922
-43.0479
-10.3954
50.0855
45.7074
22.5254
21.5355
79.2111
84.2295
-36.7034
-174.077
-115.693
-16.2646
-25.4065
-11.3358
0.314602
20.287
88.4854
-3.08491
-39.3069
-26.2438
1.91989
6.56058
27.0664
47.6743
54.4296
-37.8552
-57.7238
-48.8504
1.06618
40.0966
46.2744
82.0536
109.278
-25.2871
-49.1984
-50.6497
-68.5243
3.06526
9.68302
41.8922
51.1854
-30.9049
-10.1281
-8.65586
-25.0023
0.211628
-41.5613
-16.4318
-6.16401
-53.7073
-42.4116
-37.9508
-45.2664
44.1527
74.545
117.038
102.761
80.0943
-68.2224
-106.709
-84.3205
-41.7229
-21.4504
-13.0069
5.16305
84.1752
77.2762
-34.3136
-42.5818
1.68981
12.0497
-0.890686
-30.9281
14.7119
123.247
0.56614
-101.813
-56.0541
26.3427
59.1835
37.7229
60.3111
71.9044
82.9276
68.3921
-82.102
-114.775
-63.6898
-37.1752
-14.5846
0.773338
16.0094
21.864
-84.3792
-129.722
-73.4257
1.14299
22.8759
57.7686
87.4152
103.691
-1.77031
-7.77657
-19.7697
-49.5222
-4.75232
10.96
47.8741
117.376
38.3267
-98.2718
-110.372
-90.975
-12.7105
-11.8345
5.38079
43.8541
97.8348
60.0364
-32.0501
-55.4404
26.7799
20.479
-2.08136
12.4938
97.2579
-26.3366
-78.2653
-89.1812
-19.1355
54.8635
36.6299
21.5185
75.3562
4.57031
-56.6468
-32.1171
-52.182
-20.2624
10.1581
44.1226
82.8357
-8.18116
-23.9029
-31.587
-36.4579
24.7909
25.5984
6.29605
35.9526
-32.9318
-55.0975
-45.1301
-37.6792
-6.72903
24.9577
45.9986
93.3588
99.7887
-1.46223
-87.2608
-72.6357
-16.8205
-0.642882
-4.52611
-23.1014
9.49342
15.2764
-51.9283
-56.1011
34.6917
75.0112
41.8788
-16.3448
-9.92138
49.819
42.9237
-64.5739
-44.8575
17.043
23.8117
4.67574
26.577
35.8133
38.9569
-46.5801
-49.1359
-38.3565
-16.6393
-22.3352
-1.65803
15.7162
7.65057
-50.3323
-23.9984
-14.7595
-9.95226
17.056
17.0885
89.6605
88.5339
-25.1408
-6.43261
-28.8629
-37.0514
21.3637
33.7426
36.4308
125.99
55.2369
-93.0349
-127.013
-103.814
-22.7912
2.8539
-26.2929
-28.5941
46.1742
93.7469
-40.464
-32.2313
31.4346
27.3731
19.8942
-5.85709
66.4303
62.5584
-53.5275
-96.212
-60.4416
6.21818
8.41991
22.2161
65.5521
38.7813
-27.5809
-21.2304
-31.1769
-41.2887
30.2709
43.7246
99.6967
130.597
-25.6009
-78.4982
-81.5922
-64.6179
-17.7373
-62.309
-44.4526
33.8236
71.2411
-17.7489
-47.1697
-6.08451
21.4951
11.2815
5.88563
-0.861693
35.2108
71.1231
50.2075
-31.3185
-49.886
-28.2438
-20.9632
-13.7299
5.38775
-13.689
9.25711
57.0428
-5.33001
-19.5279
-8.74522
-8.85702
-8.77554
-14.9966
10.2267
80.0232
-9.17234
-45.8863
-29.4434
-3.68392
83.0042
64.5499
61.5743
41.589
-32.1395
-25.0263
-36.2511
-58.7595
-57.5526
-6.73815
66.5694
45.9949
-61.4911
-26.1733
-29.219
-65.539
-3.6517
-5.90632
19.5494
24.1855
-0.997309
-6.0416
-20.9376
-30.6216
19.573
32.0911
15.2594
52.4907
113.951
0.635834
-111.739
-97.1518
-21.8214
16.7759
34.9224
-1.90898
42.1105
44.64
-30.7369
-36.2463
37.243
34.3421
17.2106
15.2008
26.4955
29.3486
22.0169
-47.3709
-76.6446
-38.418
-37.3404
-10.9645
45.3841
30.4518
3.04381
35.1314
13.9085
-49.7582
-19.7543
3.13036
32.0318
16.3196
13.3608
81.7556
22.0321
-110.481
-88.819
-51.6825
-48.5851
3.09924
16.1711
39.3681
124.679
-4.7657
-68.2001
-61.8861
-40.0038
18.1729
39.6266
48.0661
47.7684
76.3758
18.1295
-106.67
-63.0141
17.0991
15.9175
20.1495
-0.176449
34.6186
76.6761
-36.4301
-120.546
-34.6151
13.3179
16.5291
32.1005
64.4643
89.9126
-32.8001
-25.0223
-42.507
-21.5364
-4.70168
-0.639314
41.9791
26.4087
-34.5091
-33.3798
-38.9083
-56.3576
2.26517
11.5489
75.4659
91.9403
-40.0406
-41.871
-34.9576
-44.4093
28.4295
32.9
35.3754
117.652
6.09776
-81.4867
-87.3932
-78.6631
-29.8912
-2.14015
9.12595
-4.35289
63.7566
120.999
-71.049
-99.6771
6.81641
27.5998
2.08136
1.25428
38.9906
53.2135
84.7249
-16.9493
-49.7795
-21.2646
-4.15454
-16.0939
-2.41925
2.98506
40.8685
97.6161
-40.7013
-121.117
-22.2805
11.9231
25.3293
35.2673
58.2875
51.3216
-21.3439
-31.8561
-63.7755
-74.7964
-11.0308
46.359
57.9589
50.0898
-44.1259
-42.6499
-58.0184
-86.4017
-14.8129
7.19982
74.8043
141.804
80.5958
-74.2053
-70.4133
-43.9648
14.199
12.98
-16.3621
14.2846
71.386
-38.4472
-59.5666
-41.0057
24.3753
16.2525
-13.454
7.33398
33.4653
-11.3706
-13.1767
-19.5376
12.4702
76.0809
57.3489
53.8517
-56.4578
-47.688
-22.6783
-9.4922
10.5593
50.9463
37.4004
30.8813
-35.3319
-47.1077
-44.4123
-73.5302
-30.7951
22.2613
44.4089
109.508
92.0692
-73.8658
-103.202
-101.759
-10.526
5.0896
0.40675
0.527015
40.6201
43.306
-13.6638
-11.1162
-0.803369
-3.87829
16.2279
1.44148
6.00728
41.1014
84.1765
-75.6727
-103.633
36.3726
61.1881
26.8541
26.9111
50.4336
103.936
-8.90341
-91.5389
-50.2561
-21.7788
-23.9006
16.7339
19.4377
43.8424
21.9732
-71.1807
-66.6413
-89.0383
-51.3109
-5.66213
43.3059
68.2481
84.8905
-0.387333
-6.95196
-41.4417
9.9923
30.4132
7.41529
47.4573
48.9704
-25.5065
-39.6364
-107.082
-119.199
-24.968
-14.1323
14.1651
135.511
13.8712
-51.3474
-37.6721
-33.1558
53.4667
61.6114
18.1922
63.042
91.4938
-23.2914
-70.1467
-88.6534
-2.33066
23.5121
39.1197
77.6268
66.2667
-4.27802
-60.8241
-83.6233
4.63714
63.2597
53.8216
82.3968
32.5024
-101.131
-71.6189
-58.8964
-51.1927
6.94052
5.1446
-15.2522
21.1216
61.8006
-51.9701
-62.6396
-33.6568
-1.01271
-20.9705
-31.9997
51.2728
128.047
-20.7996
-61.3329
-6.25613
54.3958
48.4022
15.1709
5.76452
47.8292
43.5343
-39.0974
-68.0153
-77.5898
-5.32451
-3.8638
-3.05838
11.1906
64.427
43.434
-55.3841
-43.4466
31.2154
1.48636
-10.9932
13.3788
45.1247
-12.8187
-24.7059
-4.98744
-12.7687
-8.06375
16.968
39.119
28.2394
-60.4936
-43.9876
-9.50997
-36.9565
-33.3613
21.1986
60.4217
68.5453
-17.7129
21.595
35.7344
-25.2108
-8.06521
6.98189
31.8321
21.3498
-13.0301
-30.8934
-51.1051
-20.6121
9.22423
-3.32656
23.6389
32.5678
-43.9803
-26.1668
-30.4934
-1.68867
30.2497
26.9353
27.0777
34.1767
99.8084
61.4458
-134.893
-113.672
-28.8552
-8.84535
-33.9654
-25.1987
-21.0869
18.2657
66.2685
-26.2875
-0.642738
9.10682
-19.282
-7.38543
38.8671
82.766
166.529
54.6873
-122.88
-104.357
-33.9922
-35.3
-14.5646
-0.706761
61.5985
55.4422
6.09879
-13.441
-44.4425
-22.8097
16.37
26.2756
70.5208
39.563
-21.1015
-32.3023
-81.451
-23.988
30.0108
27.4471
64.6745
84.6582
58.4758
-81.4199
-110.519
-69.709
-21.1252
-27.3881
-27.8975
-22.635
35.3408
76.3533
-48.0677
-27.0535
2.406
5.46538
-0.251577
2.48829
68.6539
52.3707
-6.76007
-32.6737
-21.5025
35.0506
19.2162
16.4202
99.024
6.34901
-69.1476
-48.7678
-43.8286
-40.1576
18.2624
29.3256
90.336
15.9488
-60.8017
-32.62
-37.3083
-13.503
17.2747
9.81509
97.2408
93.7621
-16.5523
-131.378
-133.193
-58.5637
4.00945
22.8168
20.9897
-5.15237
52.2134
44.4818
-38.2347
-47.7585
9.63723
30.4165
20.4253
27.1922
46.1349
35.7187
19.9929
-38.434
-16.8385
67.3868
37.2395
-21.7952
-30.1007
13.2177
39.8453
80.194
-79.264
-107.295
-52.5792
10.9129
27.1656
13.9723
47.9704
75.6992
-28.8595
-93.1138
-111.061
-39.8341
6.63781
23.892
25.357
75.6156
0.346542
-31.3162
-52.075
-69.5091
-0.576471
20.3871
54.5158
117.704
32.9039
-22.9219
-45.9626
-58.4048
-16.8132
11.7731
-22.384
-15.1231
34.9372
38.2767
-33.2116
-31.3417
29.3489
20.7187
12.0632
23.4639
86.4871
98.37
8.4925
-47.3013
-7.21653
19.8636
-27.334
-44.9639
31.932
18.0249
-38.5476
-34.84
-35.0838
-29.5443
-2.34443
7.35499
100.165
35.9096
-101.459
-114.005
-74.3783
-34.523
7.39555
-0.894827
8.61675
50.6204
93.3032
-17.1197
-30.5285
-4.32333
18.1146
19.384
-11.5864
-5.61543
44.2377
-22.9814
-68.99
-14.105
76.9076
80.3627
43.4421
-13.4838
-16.3829
57.7698
115.969
-40.2813
-106.391
-21.016
-16.3479
-10.9376
-3.68447
37.7905
100.689
-52.2477
-120.948
-73.5935
-41.9476
-29.7193
3.39539
20.6287
75.065
73.5509
2.48191
-32.066
-38.2098
23.4163
11.0245
30.0339
88.0733
29.7554
-42.2458
-53.2271
-71.4537
-11.9915
-4.83741
-4.33551
19.5133
-30.8628
1.75638
19.8552
-9.7033
4.44258
37.8074
21.1819
70.8946
22.2961
-15.4559
10.3323
-42.4891
-41.1755
2.92787
-25.2388
-38.3276
37.2899
28.1477
-15.0407
-40.498
-0.791559
4.72911
21.3912
18.954
37.2547
35.2353
-32.729
-69.8717
12.7013
32.5373
-14.5873
-33.0124
-7.2286
18.6737
34.7037
19.1901
-91.5744
-59.6794
-28.1424
-9.9642
26.081
43.0481
68.8019
38.6817
-10.7053
2.92616
21.7139
-8.85097
6.42945
32.4205
75.8287
-15.4002
-59.8616
-40.5654
-36.0583
-36.5051
9.85684
7.6705
63.0056
106.076
-26.6854
-126.759
-98.169
-35.5066
15.205
21.2389
13.3668
16.2774
111.773
61.2115
-39.834
-20.9099
-5.59417
-16.4758
-19.5061
-6.3543
78.7949
71.1609
-71.829
-112.536
-22.9142
24.7746
7.07456
-7.37003
42.5478
77.1297
-10.6845
-34.008
-77.9441
-60.3661
-15.4741
14.7524
64.2499
64.2058
-6.04053
-9.17145
-8.14758
-6.80032
9.4266
-8.78615
68.8025
56.9697
-28.8395
-48.1109
-55.7788
-40.9178
8.74671
16.3691
31.311
119.278
91.7698
-17.4237
-66.3351
-100.947
-66.7782
-52.9196
-41.579
-19.1805
44.4763
66.8031
-64.3175
-20.2297
35.9366
32.7076
41.3357
43.9472
69.7731
62.298
-103.707
-102.798
-63.4281
40.402
23.6102
-1.57189
13.3744
16.4765
59.5258
21.5069
-35.6186
-36.2819
23.8247
-7.72789
-16.6324
3.30478
59.921
16.0975
-26.6878
-8.75809
72.1551
13.7909
-16.2661
22.6287
114.468
15.1616
-108.266
-97.1905
-109.172
-76.9391
-31.3466
-22.6738
59.8758
110.066
-22.8081
-40.4316
-72.0446
-50.7347
4.9774
22.2077
56.732
79.0016
56.8508
-20.0046
-49.0592
27.7925
75.4214
47.7421
26.7571
53.7161
-2.24355
-70.7582
-57.9201
-71.2753
7.87443
27.6539
3.98291
31.1818
29.045
-27.027
-14.0803
-33.438
-15.6953
2.89829
-50.1254
54.5104
81.588
-69.3905
-91.3134
-46.3735
21.0811
49.3666
8.6413
42.0342
139.456
93.444
-10.0879
-71.1245
-49.7524
-49.6216
-73.075
-49.7731
33.7894
140.476
52.2479
-88.0057
-128.483
-75.2596
-16.2275
34.1616
28.8931
74.0474
166.458
-17.2028
-109.349
-97.1441
-18.7044
19.0835
-2.06301
4.25236
70.0793
64.7255
-49.3967
-36.5271
-14.6907
6.9812
48.3551
99.8311
121.27
-33.9487
-140.082
-126.578
-124.638
-32.3244
21.6591
43.3963
114.674
51.1725
-9.4548
32.0636
37.5115
10.9406
4.60922
4.73809
106.169
38.3615
-114.565
-85.9503
-81.2533
-55.3908
15.2371
18.9116
29.0876
41.1173
1.08441
-0.0718182
-27.4821
7.94556
21.7144
29.0021
30.4581
69.2798
52.3713
-8.42518
-65.2369
-90.8609
-9.35942
37.1514
6.49438
80.5314
58.0851
-14.695
-162.048
-110.987
-35.4365
-0.26821
16.4588
40.9915
46.0301
65.977
-38.9597
-69.9175
-44.1723
-36.5674
-45.2153
36.7092
98.4675
88.298
-28.5431
-78.9822
-37.2606
-9.89163
38.9961
35.2295
74.7612
109.018
19.9959
-13.4748
3.6252
-17.7851
3.51023
-25.7306
-2.56754
35.1997
31.7853
-41.6072
-30.2008
-34.7013
-16.6423
-46.6302
-43.5089
-31.2384
42.108
36.8998
-62.9887
-52.5682
-11.3244
20.2403
50.6067
50.1446
139.766
22.1984
-97.9747
-85.0312
-50.5182
16.999
22.9519
-0.368925
40.746
-2.196
-31.4297
5.26183
-25.8453
-33.7697
33.3167
1.4342
34.6477
37.0323
-26.4186
-14.3854
-23.7116
44.948
68.614
8.85441
17.1987
77.5046
-44.2813
-54.0639
-39.6864
-13.9293
11.3328
-30.7226
-20.0252
41.5938
-6.67196
-14.0057
-38.3892
-30.6318
19.5254
-4.12919
-28.0177
41.933
91.2707
74.0484
-7.43655
-32.6949
-21.9766
-29.4717
-23.9287
-17.224
5.46589
63.4141
52.4839
-84.8621
-41.5959
-18.4161
8.02365
1.44334
-8.75149
20.1744
46.218
-5.13617
-26.399
-42.3949
-60.0396
-39.5955
45.2772
71.062
81.4387
-17.6826
-19.2706
-76.4444
-79.0395
16.7636
46.2676
73.5076
58.5894
-29.6203
-8.2063
-0.794142
-8.88604
3.47326
-14.6141
7.86304
111.328
42.507
-88.913
-120.807
-80.9943
15.3393
12.5723
9.25467
23.7238
76.7163
51.8394
-5.7751
-2.35298
31.6811
7.74889
-36.2281
-35.0167
60.9133
46.8093
-58.8608
-91.8777
-57.3819
30.9584
43.2309
33.1172
87.6033
-14.1446
-121.176
-40.3774
-27.8164
-8.1785
-14.3317
10.2411
99.374
116.511
-35.4751
-75.5554
-78.7965
-41.9578
17.1701
6.52692
30.0872
114.702
121.864
-21.143
-95.8338
-53.4896
4.10247
5.31245
-34.4027
-27.5675
19.0389
24.5634
-0.249066
-37.1432
29.1018
47.7862
-0.22729
-6.38089
1.88301
15.1023
53.472
-47.7344
-115.948
-47.5777
-17.8492
5.69903
37.5399
27.7641
61.7163
13.6219
1.98188
-30.3596
-53.7697
-28.4757
59.7408
94.0391
70.7299
3.40187
7.2294
-21.9217
-53.9384
-15.2772
-25.7736
1.20847
-12.2505
-23.9503
-9.8841
-32.5097
-47.6455
8.05913
20.0666
71.4615
46.5203
-25.5905
-6.01346
-21.2532
-12.0199
11.3924
27.1673
9.70506
17.6423
89.9494
-49.141
-66.0239
-13.8532
-31.5334
-40.4786
10.3472
-4.31321
-10.9773
-26.4495
-66.1091
-13.4657
41.1976
55.9672
58.3677
42.162
64.0434
82.4168
43.5094
-66.6003
-119.566
-15.9716
-14.5302
-24.7656
14.3889
30.7919
68.2852
71.9651
-88.912
-54.7103
-17.2449
-7.60079
-11.3173
-12.9854
26.9153
62.3634
-39.2957
-43.508
-23.8391
-20.3115
-13.6782
38.8208
78.2555
82.1885
-44.5422
-50.7959
-78.0527
-66.3177
43.0258
52.6313
21.7689
76.7349
86.7844
-20.9666
-68.8317
-62.6801
-8.2374
-16.431
-2.83357
16.2801
43.4347
75.4776
-61.6371
-81.8817
-16.6701
-14.4247
-18.1858
-10.8249
65.623
30.1238
-24.8349
-25.3936
-3.33975
24.2676
11.2208
11.8511
112.025
29.6363
-33.9091
-33.3402
-66.6052
-94.4605
-25.5773
-0.0270062
66.9272
-17.0933
-35.3445
-22.985
-23.3973
20.2275
58.5109
54.5087
142.969
80.558
52.3034
-47.4364
-76.3858
-50.1403
-12.9625
-23.0385
-63.7811
-33.7197
81.828
70.8364
-33.2901
-51.4223
-31.1697
-14.9678
-4.81519
9.68934
1.62154
6.77637
-3.30613
-66.9146
-47.3013
18.7554
14.3559
38.3523
46.0137
32.9935
76.9373
6.8498
-68.7073
-62.6143
1.21781
52.1075
30.342
27.4139
50.8132
14.6986
-62.2103
-85.0717
-83.7106
11.8987
4.18639
11.4127
70.4899
34.9214
-11.1087
-8.89631
-32.5941
-30.9834
-29.5024
-27.9338
17.1099
80.7927
37.963
-29.3084
-40.6259
-35.6699
-18.245
-10.5674
-21.1444
23.9471
115.337
130.454
-1.92477
-105.013
-54.7812
-26.0065
-3.33311
-14.6722
-29.0158
61.8999
24.8865
-69.8299
-29.0738
13.0744
-11.0347
5.66172
68.0592
103.359
15.5309
2.0977
-30.3838
-20.2464
-27.1303
12.4043
60.6164
100.385
7.06532
-71.1931
-42.6022
-64.3832
-67.2532
-36.4203
-10.9086
50.3541
80.539
-47.9987
-47.6397
-50.0407
-9.6235
29.9329
26.226
2.75336
25.5523
31.8218
-39.655
-51.1203
-23.9017
14.5367
17.9652
-4.66483
34.4041
124.875
30.646
4.37186
-129.298
-32.8285
22.5131
15.7908
-5.82279
-43.2551
-1.15105
102.69
33.7649
-24.5157
21.1751
-17.1693
-31.4016
-6.41819
33.324
79.2445
-48.9579
-104.264
-53.6662
-47.1074
11.7501
33.1131
40.1841
45.1589
-19.6544
-9.95861
-5.85206
-25.2417
11.3655
50.2222
86.8898
29.2773
6.0944
-5.88051
-71.6769
-105.763
-22.7002
-21.7453
29.1547
113.949
-1.23185
-17.845
-14.1734
-26.5055
29.8321
52.9804
-0.121412
-32.9292
56.969
27.3068
-107.28
-89.3718
-21.7576
16.1142
24.3476
4.82127
69.2179
-32.2093
-84.7302
-107.967
-5.6333
55.6508
64.1643
54.5248
67.2923
43.0439
3.4881
-0.559627
-33.7789
-1.64866
36.8471
12.3402
-13.5313
12.7973
62.2475
-70.8295
-106.748
-27.5327
0.322838
-28.1537
5.86235
49.1238
39.9347
-23.4859
-6.18226
-17.7739
-1.19281
15.1707
-8.9183
2.8837
75.3539
1.03092
-20.2654
-10.4757
-28.6822
28.8788
12.2195
26.2409
26.9128
34.7052
-62.9406
-65.8185
-53.0507
-9.01844
4.99466
24.2402
48.8402
53.8341
-23.5393
-53.564
-53.809
-13.3527
18.3258
15.118
-14.4556
53.8703
25.1344
-2.94384
-36.9335
-61.7742
8.08892
28.841
62.7161
105.941
-26.9408
-32.6347
-25.6916
-36.7022
22.1037
40.2347
33.0463
24.645
-26.7247
-30.6629
-36.0315
-47.4606
-23.4684
-13.933
-8.77381
37.3107
59.2893
-23.9632
-37.1555
-36.826
27.4815
15.8689
10.6495
4.23667
87.1618
99.5275
-13.4504
-111.29
-50.8349
-30.4324
-22.2369
-16.7754
12.7985
53.208
45.6213
-63.9843
-95.3021
-28.4463
3.54617
20.9692
61.7731
68.5999
70.6074
0.966745
-43.4452
-75.25
-42.1632
22.6139
51.1979
84.4862
63.4189
-45.2842
-23.9707
-56.8367
-88.1497
10.7712
88.8727
101.741
-22.7064
-48.576
-14.9923
-12.417
-29.7542
2.18016
17.5357
58.2539
27.0812
-19.2433
-14.6872
-26.2614
-50.933
-16.2731
-22.521
0.888618
93.9594
13.7458
-83.8555
-81.7199
-24.0546
-15.2408
2.30887
5.86025
62.7315
67.8096
-44.025
-57.2882
-6.82871
72.3635
45.9878
11.8593
45.6343
12.7432
-34.8273
-33.4019
-71.7995
-22.6847
35.2939
6.31652
83.655
87.4681
-17.4039
-21.4255
-47.686
-30.4259
32.0757
23.3466
79.3113
100.629
-88.6308
-108.438
-97.4104
-42.1142
7.68707
2.50569
-13.627
16.3583
118.293
-0.411477
-69.1629
-55.6643
22.8227
40.7099
6.20852
-2.26028
59.3878
145.342
34.3199
-79.5971
-44.0626
-105.215
-110.973
-25.5219
6.97199
11.1467
69.6244
83.3198
-92.6184
-21.3723
7.76417
11.9047
28.4715
22.6929
74.0469
15.1397
-45.0346
-85.5575
-46.8779
24.5545
82.92
87.4333
81.1857
-5.99595
-55.0688
-48.3604
-71.5108
-63.5427
10.8663
63.5251
109.274
7.87754
-47.2634
-41.6724
-73.2168
-2.04421
27.7598
-24.2997
-2.49206
105.488
78.6895
-45.8055
-56.5904
-44.4325
-23.9598
-8.03248
-27.0692
-22.2301
70.217
29.342
-88.1265
-8.4884
39.9372
16.8958
-26.2546
-13.7109
101.349
43.9806
-59.6313
-78.4516
-37.3394
47.1215
15.2112
17.1104
42.9125
35.3175
-13.0969
-50.4349
-82.5098
-61.8201
3.87315
55.4365
64.5758
58.2898
94.7072
57.6992
-45.9674
-24.7597
17.1566
-39.3566
-67.7923
5.56132
58.7131
36.5812
34.7212
-127.694
-96.0275
-31.8615
7.7259
25.9697
48.2534
60.0078
61.0494
-63.1493
-98.3514
-35.3721
-9.44333
-7.24926
22.3696
25.8085
62.8375
64.7077
-43.1637
-13.7361
-36.652
22.392
24.3608
5.95534
17.5202
6.51984
-49.0751
-82.2952
-60.279
40.0919
43.1982
42.2536
85.6758
3.39703
-34.187
-40.196
-61.201
-46.2698
5.12195
26.1411
54.0109
37.7594
32.855
20.0346
-15.3809
-8.00736
31.4981
24.3122
9.09415
30.1498
-25.8584
-59.3077
-67.8449
-3.24408
15.3891
28.2139
27.9465
33.4002
-26.5517
-83.6419
-83.1337
-6.08007
-24.8383
-30.0291
-26.3366
48.6333
130.903
19.2275
-66.0937
-20.9916
39.7454
39.8417
20.4767
22.6785
20.951
80.9753
-1.93566
-95.6431
-41.3552
13.6672
20.6789
-13.8797
-49.3419
-30.5301
-38.523
-57.7763
-59.0847
15.8794
83.8176
78.5386
65.0723
69.3426
11.939
1.83657
11.5474
-32.4229
-8.77362
2.91639
8.26798
16.2719
-17.9164
-24.9089
-43.4002
-28.0778
6.53771
-6.20471
-16.1723
14.8134
70.9576
21.3534
-72.8792
-87.4696
-27.8187
14.0793
7.97009
12.6948
32.4204
81.8445
-30.6569
-58.3538
-42.0464
-17.5085
13.5876
-0.308837
49.7959
78.5672
-29.2748
-42.2856
-30.9704
-20.2185
9.26636
33.0009
36.4791
50.4475
-19.6614
-29.3552
-26.5374
-43.0813
17.8591
16.2499
19.5135
26.4926
-13.6598
0.708776
-0.94285
-46.5871
-12.1369
10.7555
36.6928
133.718
119.009
-40.3869
-87.4898
-70.0994
-14.4462
-4.49643
-2.74487
-14.7197
48.2551
53.0691
-24.0608
-73.1915
-42.0717
-29.3433
-32.6744
-35.5708
24.3677
29.1739
18.8193
-21.4771
-62.6001
46.6062
74.8405
43.5443
36.2716
11.6854
19.4335
48.8191
-48.4369
-69.276
-39.8412
-10.3159
15.0358
8.1404
39.7131
39.0623
-10.2809
-8.0879
-13.3197
-41.0421
-33.5209
-22.3259
8.75179
43.6939
-20.0889
-26.2418
-30.1246
-63.7855
-25.6025
1.98601
39.6261
112.341
123.766
13.4932
-68.1408
-81.7623
-20.8381
0.359495
6.0346
-16.9471
45.4396
105.674
87.9594
-68.6151
-33.8583
11.2218
1.41002
-17.4662
-19.062
-13.0267
27.9566
-82.0179
-92.2843
-26.5848
2.56117
-0.135972
10.4903
33.3819
50.5365
-8.57217
12.6978
10.1671
-0.761546
56.0565
56.8059
67.0068
43.8778
28.9316
-66.4806
-115.961
-105.554
-55.9117
-44.0055
-27.3532
-7.45953
28.1901
84.1806
24.7096
-23.946
26.0606
35.5961
18.9592
8.66727
41.5382
59.0883
90.9034
13.494
-101.746
-71.7416
-26.3913
-30.6355
-7.81964
-3.45811
-0.198724
78.8244
76.9405
-34.8554
-24.8379
-68.855
-32.1022
9.01156
9.5449
59.6439
-19.2483
-50.7661
-82.608
-58.0849
-23.1607
38.7868
49.2935
66.9916
20.1279
-33.422
4.47975
-20.727
-28.1997
9.53164
17.0093
69.8771
91.1229
-1.36396
-25.0073
-27.2677
25.0199
-7.43647
-37.102
1.71221
9.36307
7.92405
6.14569
-5.61835
27.3167
17.4763
-45.7045
-51.9288
-0.673451
75.7892
-8.63929
-61.7797
-67.387
-22.483
-5.33298
-6.02051
29.7083
63.5526
60.0412
-54.2849
-18.4558
31.1654
26.1797
-14.2514
-33.1784
24.0564
37.5813
15.9236
-85.872
-113.092
-32.4851
12.3249
27.1942
38.1946
43.2384
46.145
65.0429
-31.1727
-46.7122
22.1988
41.5959
28.896
1.89663
10.2796
31.7548
-71.1068
-70.9784
-47.4226
11.0385
16.3461
31.5207
52.0553
96.4419
64.0976
-75.0138
-75.1288
-55.5971
-23.8063
-28.1154
14.2288
19.5624
60.1429
28.8968
-92.5114
-82.7147
-10.7899
17.288
5.33708
-11.2702
28.9792
61.9078
-17.8581
-21.3514
-1.3842
65.614
13.9073
-26.3422
85.7751
73.6099
-50.5597
-47.6846
-65.3398
-64.0199
-3.92007
18.1245
60.6456
26.3084
-33.5698
-6.01751
-32.9298
-28.8271
19.5922
-2.78294
36.8978
76.7363
-0.719651
0.404134
-27.8652
-38.6184
16.3122
-9.41972
33.6166
72.0778
-0.0276829
-41.6755
-56.854
-40.775
-20.0826
-4.79693
-6.25459
7.42794
67.0049
25.5219
-72.6582
-48.3481
16.4036
50.0164
19.5847
11.9445
16.5969
49.3827
71.4424
-80.5128
-45.1394
-15.9012
-38.1882
-78.357
-44.7882
7.61575
81.489
65.6271
-65.767
-44.0303
15.0364
20.8934
43.8817
50.3849
62.2345
-5.23302
7.70711
-20.5894
-85.0151
-21.028
15.2283
18.3779
54.6329
10.6212
6.42757
4.4386
-24.5918
-18.2102
-17.0958
-3.11644
111.562
69.614
-81.9403
-83.2918
-84.3008
-36.1928
5.98098
1.54066
-19.7387
35.0152
90.1562
4.25259
-63.2345
-18.183
17.5034
0.515185
-30.0323
-16.7896
74.7212
43.8582
-51.353
-51.5518
42.9707
52.2503
20.0976
32.402
82.1943
52.6722
-60.9489
-69.548
-69.2088
-26.5138
-29.9319
-16.2503
50.5282
15.828
-36.2075
-11.3165
2.11651
25.8379
26.9602
-10.9148
35.4425
84.0263
-45.9755
-87.1907
-65.9928
-44.8313
1.49291
-2.77426
6.16201
57.6165
119.818
34.931
-73.4373
-72.477
-46.3314
-10.3643
24.2979
36.1761
60.446
119.504
56.6126
-86.4533
-32.4699
-3.93054
-7.21065
-19.2061
-28.772
-13.0501
34.1061
-7.17374
-89.9688
-35.2817
3.34519
31.3052
37.1282
31.6547
53.031
-20.4898
-55.2641
-50.9742
-0.106856
54.9158
78.5967
95.5716
66.9898
-56.8538
-58.8395
-55.8918
-74.7459
-47.5781
-30.2612
40.0627
44.6326
-9.89164
-21.8663
-22.5069
-32.4773
8.59201
5.13638
20.4189
100.121
73.2296
-34.1483
-52.6005
-48.6263
15.2992
19.492
-5.07584
-13.7303
52.5166
26.8981
-28.3046
-39.11
-12.0233
-33.9495
-22.353
1.25075
86.044
61.0717
-57.1165
-80.0817
-30.1857
51.4599
36.8876
35.604
128.618
108.475
24.6844
-173.22
-172.127
-68.2735
-31.7596
-17.5865
10.4215
49.1324
93.8153
45.8889
-65.9053
-46.1105
-11.3641
-7.88792
13.8466
38.1467
72.9544
17.3186
-74.7326
-53.1838
-12.384
81.2307
64.7258
40.7162
29.1946
58.2448
6.63953
-80.0312
-71.3674
-44.946
8.28952
31.0441
60.3509
45.1122
67.6479
12.8688
-97.4816
-77.2079
-64.5402
-56.4247
-17.1139
24.3192
48.8636
-9.94644
-54.3221
-56.4183
-9.31277
39.1543
14.2228
6.42962
79.9044
3.10679
-30.9555
-50.4406
-50.3573
19.5414
66.9459
102.411
105.638
-5.9056
-30.9428
-26.8099
-54.7619
-21.1042
5.89352
-0.239955
47.018
-61.255
-63.3409
-20.179
-30.2052
23.2225
49.2805
51.8433
56.1465
120.417
89.7228
-57.7761
-130.544
-67.1981
-44.8742
-31.3422
-32.4136
-7.75417
27.6804
34.3983
-58.6373
-0.318168
6.60637
-10.5109
-9.75831
27.4682
28.5172
26.4481
45.9135
-25.5075
-54.7584
14.9381
52.1559
55.1894
33.1799
29.0403
50.6276
-22.6865
-68.7548
-74.5042
-1.89048
38.3074
29.552
68.4344
53.504
-30.3102
-75.3865
-74.1612
-64.491
-25.6433
0.187889
23.8896
14.298
-76.5142
-56.6713
-8.77002
-16.0538
17.3273
34.0146
13.8746
79.8085
133.793
-24.6067
-110.16
-80.4944
-10.3821
31.7838
50.0453
45.9945
53.9354
19.9647
-33.3955
10.8749
65.8145
35.6665
-14.4802
-43.7041
27.1886
-30.177
-64.6487
-55.0833
-48.179
32.8219
58.223
58.4037
95.1312
-6.10323
-54.0812
-74.6226
-59.5308
-14.6755
24.4258
-12.3302
67.6793
23.1293
-77.2462
-33.9933
-24.8712
0.352994
-10.1408
-16.6828
63.2414
80.9399
-14.7338
-46.6876
-57.466
4.97245
42.0198
17.0776
4.56111
12.5157
92.2431
12.368
-67.6488
-31.1911
18.7136
-6.54233
-41.8323
-11.8572
54.8756
113.644
-11.3936
-137.399
-83.598
-41.7251
-6.77651
45.9653
39.1848
53.3319
84.185
49.2488
-84.8244
-49.7001
-10.6624
22.0701
47.5367
35.958
34.392
35.167
-108.151
-138.363
-91.8472
33.8075
80.7731
74.2305
106.969
122.884
-27.9109
-82.543
-74.8307
-62.2755
-26.4106
5.77661
21.1951
41.4364
-4.47108
-26.2044
-45.7638
-67.9581
6.38425
2.3841
-5.32385
43.8507
63.0062
-28.4576
-38.1703
-25.9424
56.6842
76.8843
47.101
45.0902
45.7651
-28.1575
-45.7282
-39.0599
-13.9692
-45.0412
-45.085
28.9371
81.2363
-67.6998
-78.6767
-20.9323
23.6243
40.9251
-11.9017
7.12141
82.5237
7.22233
-26.6164
-22.3438
-2.58755
27.0562
-25.3169
-47.1597
11.0425
90.2028
43.7258
-91.9847
-103.946
-2.51678
26.0546
1.70892
-0.789208
71.0371
141.526
-36.0569
-90.6501
-20.0231
1.53318
-15.8455
-8.12073
39.5725
65.6489
52.272
-70.2232
-94.672
-48.2641
1.18114
16.0972
48.6123
70.8282
88.2707
-1.33765
-54.5863
-102.708
-21.9647
-1.53425
28.0721
76.3763
46.1115
-21.0874
-4.86655
-27.1792
-49.0716
-3.64422
-11.7368
47.9521
19.6395
-26.4859
-34.8463
-55.6153
-50.2194
3.71066
12.3013
29.2873
60.381
-1.93948
9.72138
-31.3605
-37.765
10.6673
28.018
78.8559
68.9577
-53.1523
-61.4918
-69.7801
-28.7784
-15.2174
7.96368
27.1062
42.1845
66.3504
-51.5488
-49.6585
-1.97151
37.337
34.0388
41.4973
48.7744
72.9867
-3.88395
-86.9145
-79.1856
9.4902
30.4689
20.2889
8.58666
-1.86145
52.8012
-19.6104
-93.5863
-64.4433
18.9693
13.1303
6.08966
18.241
60.1979
33.957
-32.2596
-59.4675
-35.6706
-5.24961
21.9932
55.0093
92.5673
14.0838
-125.433
-129.285
-128.807
-26.4109
23.4597
43.3255
121.708
67.5335
34.9467
48.7206
20.2668
19.1605
-3.04339
-37.0965
-7.26463
44.4484
2.58428
-81.0442
-112.283
-95.9319
18.0133
57.4587
49.3191
86.3737
62.3489
-47.0319
-43.553
0.912117
7.8192
3.09458
6.40391
67.0097
-6.75398
-24.1101
-0.209543
-29.5428
-14.7195
55.5831
18.3394
26.7148
-26.7435
-23.9837
-39.319
-61.36
-54.9614
12.0525
45.7454
117.59
-3.67415
-56.5035
-51.8333
-68.3275
20.2196
22.8102
19.2702
87.6196
-3.59488
-103.841
-88.6405
-36.7509
48.085
43.912
40.0355
24.9086
34.9075
46.8559
-59.3549
-66.4543
12.2164
31.1467
14.6014
13.7489
86.1243
140.722
94.7277
-123.124
-141.231
-43.7382
-34.2762
-18.472
4.78777
11.9236
52.6579
-48.8228
-49.6485
-27.8658
12.7497
-12.6123
24.3155
70.023
58.5563
-24.184
-36.3352
-54.2833
-27.1604
26.8756
78.8966
88.1027
49.514
-41.7663
-50.2792
-47.6808
-70.1299
-0.363796
6.43799
34.5065
82.0177
4.12951
-69.9522
-84.0242
-45.1263
-1.57233
19.5535
30.0309
52.9661
66.8343
11.2285
-33.3519
-2.23116
51.1975
38.9326
-1.97152
-27.5711
24.8934
-23.5974
-96.0995
-107.415
-43.7314
37.7052
38.2543
27.1068
100.09
54.7291
-25.3972
-51.6078
-39.8654
10.5894
11.7251
-14.4225
31.9873
67.1797
-23.7756
-97.3045
-61.5696
-17.6568
26.6677
13.6288
-0.102925
28.2448
85.0613
14.5613
-40.0624
9.42298
21.3589
2.45476
-28.4745
-46.4552
7.72405
25.6714
-28.3468
-62.1296
44.274
89.2276
21.1554
-5.42816
15.2564
22.6799
35.2475
59.0475
-39.0632
-35.6468
-33.2095
-46.8913
-43.9978
-31.5567
-18.1952
45.6722
-11.4015
-56.3274
-29.4531
-20.6645
-39.7428
-21.8948
40.0839
119.112
34.655
-50.7175
-29.6577
-29.3662
-4.26431
24.4463
40.5518
87.7593
11.6292
-7.24331
-8.78847
-22.305
5.38392
8.10758
17.6271
43.1419
-36.1183
-34.5921
-19.1012
-54.7066
-23.6814
49.9623
73.4863
81.9457
-0.0230837
-31.7951
-18.9666
-30.202
0.57438
12.4412
9.1893
-10.572
13.8187
52.008
8.3309
-97.8334
-48.8186
-42.853
-35.3826
-41.7534
-1.86971
62.2722
81.7268
-44.6842
-10.929
-4.77206
-22.2087
-24.6504
2.88072
12.7497
52.6137
85.0373
-2.84881
-94.2472
-55.7446
-4.51738
16.1255
5.24143
16.512
57.2377
7.66417
-17.3178
-34.7836
26.8014
43.0789
44.1434
58.3019
75.6723
-15.1493
-38.3916
-54.9354
-77.015
-24.9015
9.02549
13.9273
109.22
87.9668
-3.81757
-132.739
-127.064
-44.1913
-17.6169
-34.0891
-6.01352
52.5165
107.66
-8.62077
-25.115
12.2124
19.2663
7.19995
-33.2034
-3.94956
-4.38488
-33.471
-50.9094
-34.5246
38.7924
96.1638
61.8428
146.85
73.7136
-99.9586
-77.516
-76.3433
-88.8131
3.76715
8.64014
70.649
54.4075
-8.45699
2.03519
-2.18487
3.63355
6.7212
-23.3065
2.56435
-20.909
-38.0591
-41.4461
-86.4991
-40.6092
43.7507
62.4274
108.371
121.354
-4.51359
-60.644
-65.5389
-38.7786
-4.57408
-3.44203
-4.7719
7.08822
45.699
0.56401
-99.906
-65.1641
4.12999
-0.119991
3.34312
44.4309
85.6445
108.164
56.349
-84.601
-18.2714
16.3056
9.42988
2.20467
4.9328
45.0243
105.362
-61.4403
-114.714
-55.5365
-2.36427
-30.8191
-33.2258
-15.4049
18.1678
-29.7745
-28.2874
-41.8365
-25.7563
39.5331
64.6739
78.9894
69.0755
0.662694
0.428656
-33.5872
-71.3577
16.1983
28.1073
17.2385
71.7102
91.3392
21.2322
-91.3922
-95.599
-41.3269
-9.18564
-14.9558
-23.4293
47.8288
102.795
-38.5787
-59.8757
-14.9165
-13.4414
-32.7217
-43.893
50.1839
40.7194
-29.2086
-51.4421
-51.4558
9.52539
71.3563
68.1257
151.818
33.8473
-46.4074
-48.017
-57.2184
-54.9476
27.067
27.8223
68.8492
81.2535
-55.0302
-82.1806
-66.1595
-39.0234
-3.42525
-5.18787
-17.7504
-38.1336
44.0271
0.460398
-66.034
24.3296
77.0041
57.4381
26.4928
15.0256
44.8633
59.9207
31.8053
-54.6195
-16.5359
-10.53
-29.5062
-27.8217
-12.3059
13.9461
70.0026
13.6007
-90.6075
-61.8608
-32.4392
-12.3242
-1.18884
21.2523
78.1998
-37.0694
-35.7941
-40.7557
-47.5532
-0.0215107
25.2505
42.9417
54.9827
-23.5928
-12.8589
-24.8098
-59.8253
7.64074
55.023
70.9589
31.7693
-0.263612
14.4825
1.3708
-38.4527
24.2746
44.1877
61.6847
-21.1982
-33.3522
-8.86406
-11.2934
-16.7556
27.6081
26.1639
42.9925
92.4982
7.13666
-119.555
-131.865
-88.2683
-29.0878
5.15928
10.0338
29.2836
53.4154
-38.6462
-55.8145
-17.4527
9.95613
8.74457
0.801731
31.3795
51.1953
-28.3526
-76.5103
-106.531
-9.78242
92.0196
66.0925
62.4289
77.4601
96.8453
15.9032
-55.0673
-28.8198
28.8511
10.4819
16.7732
25.8238
51.3434
-0.813725
-61.5008
-58.3419
-14.1198
-9.77955
-44.4752
-9.60838
80.8218
-24.2274
-37.1806
-35.8827
-49.3866
-6.20352
3.50387
6.62521
92.4331
55.7176
-27.2774
-44.2556
-56.6835
-35.4669
-32.0593
-24.1008
2.95809
53.2944
55.9808
-74.8252
-65.2266
6.01563
24.8747
20.6092
11.7441
46.0514
69.8788
0.62784
-29.085
-14.0215
21.8668
24.2993
1.66573
30.6736
57.6757
-38.0131
-43.3951
-50.8177
-52.9983
23.9783
19.6823
49.5458
59.8711
-14.1492
-22.0398
-20.3433
-26.9128
4.8899
2.2429
55.9531
75.5589
-21.6644
-32.9059
-51.2687
-63.0374
-10.4171
8.3827
5.05135
52.4418
39.5786
-68.413
-64.2443
-47.1463
11.3588
17.7972
20.9005
35.3346
128.748
105.349
-71.154
-87.3833
-5.84823
-10.4615
-23.1203
-31.187
-6.87713
49.7375
-25.4695
-99.4029
-41.2919
37.7879
32.5478
24.3387
36.5485
63.7453
30.122
-33.1557
-65.4049
-42.5993
30.4621
27.6719
40.4414
79.5484
22.0362
-31.1216
-29.687
-56.2828
-41.4958
-43.0159
-18.2096
47.2051
-23.9677
-31.9993
-11.8679
-16.5393
15.8174
42.9676
25.468
54.2529
90.3703
69.5504
-50.5082
-83.4353
-41.7699
-20.5005
-22.9681
-25.3735
38.7419
17.9357
-43.5228
-38.0025
1.50422
7.31952
9.10456
16.2359
76.1591
22.3952
-28.7515
-43.6666
-18.4546
-3.84905
59.9533
67.94
131.519
36.7946
-71.2294
-58.3947
-61.8203
-41.1396
-3.79088
8.02238
92.5645
61.0438
-87.9393
-88.7906
-75.9656
-24.8492
5.50721
-1.09286
4.09039
33.9441
96.8522
-67.7947
-121.583
-50.5906
28.4921
34.391
27.747
19.5759
63.0512
96.8871
25.095
-77.5877
34.7753
44.6039
1.47797
4.11681
6.78056
5.91683
76.8942
-36.3643
-94.3379
-15.6575
-5.95001
11.0932
24.467
13.0873
24.9506
-12.3867
-84.9702
-111.292
-90.3478
1.52342
24.713
30.8024
122.054
20.101
-31.9752
-16.2586
-38.6618
5.09484
28.1122
58.5201
96.3473
14.3186
-20.8864
-13.603
-34.7453
-41.4047
-42.5785
-40.4889
-1.72988
20.6842
-25.6319
-23.1135
-50.8179
20.3022
59.6021
51.9657
23.8005
31.7294
111.877
74.1208
-101.618
-57.037
-32.2171
-32.5019
-22.2958
13.2024
97.4481
74.1523
-59.9092
-28.6808
27.5385
14.1196
-27.8602
-10.9653
4.90458
14.8951
-17.3919
-50.4057
-82.2593
-57.6189
-4.59642
6.92317
-9.91613
-23.2036
18.3863
46.4657
-97.282
-50.0222
34.6175
52.1258
68.4006
48.0767
65.5329
92.633
-42.8098
-68.663
-24.2764
-21.4239
-51.0989
-16.036
28.2673
124.687
109.954
20.3942
-55.6135
-92.9245
-52.4394
-54.5203
-1.10948
40.2037
78.6969
77.1304
-41.435
-62.8026
19.8985
29.3498
25.0563
52.414
85.5247
158.679
27.9367
-142.608
-142.678
-131.894
-133.986
-101.818
-49.6219
13.927
-23.4195
-21.5875
-23.6291
-44.0461
-3.0085
31.7259
105.733
139.327
22.9473
20.4731
-8.09257
-65.9309
-13.2797
38.8262
110.721
150.406
44.1379
46.129
-2.80604
-36.934
-42.5275
-56.2579
-9.68269
19.4341
20.1745
67.0123
121.318
-6.78537
-42.7068
-58.0769
-16.0671
-30.7637
-52.7995
-59.2489
-14.5453
23.0595
-45.4449
-55.0878
-22.0763
-3.40226
-6.04489
-1.44663
30.5388
-0.677241
-72.7978
-60.0632
-58.823
-4.35484
-10.7721
-4.86632
139.596
47.0452
-33.7172
-56.2863
-41.3995
-38.7842
33.4722
53.5398
122.952
5.28641
-14.024
-14.612
-25.3712
12.724
58.8528
42.5056
37.4991
90.6291
4.49668
-45.7756
-90.7062
-22.4484
19.8982
23.3699
22.5641
76.6717
-4.06433
-30.7784
-27.0086
31.2293
-3.96273
-7.7818
-1.10385
26.7435
65.7746
-85.9023
-153.583
-122.307
-39.1691
-3.90361
-1.79394
24.7466
65.7695
69.3113
5.5477
-7.59878
51.4041
44.9383
18.5781
63.6805
78.6424
-46.4779
-109.77
-91.9799
-82.6282
-20.0363
21.2084
15.3263
60.7892
-36.7055
-39.2425
-33.5067
-54.9029
9.55725
88.7759
98.7272
168.877
35.7906
-59.6909
-65.7425
-75.858
-16.4511
6.45421
2.74794
35.4001
24.6129
0.876081
3.44434
-66.449
-31.9203
7.37456
16.3015
42.6775
87.6142
12.3746
-54.2106
-94.0978
-10.9366
32.2679
50.7616
52.0096
67.3268
-50.7595
-107.849
-79.0761
-50.6242
-27.8142
-18.0663
32.3781
120.399
97.9783
-62.6234
-63.8124
-79.0327
-26.0456
-4.15656
-19.726
12.8367
81.9082
105.851
-0.506496
-19.5636
16.7939
28.0338
-14.2973
35.342
111.726
67.0712
-49.4636
-104.993
-100.93
-11.7942
28.0368
26.5647
18.665
59.8307
6.46507
-77.1972
-66.6226
-26.9221
38.838
16.2716
23.4988
48.2456
32.046
-84.9651
-123.113
-71.8749
11.7794
45.59
66.6144
84.627
7.4094
-105.532
-93.869
-80.7633
-33.2991
68.7152
99.7842
70.3331
109.648
10.2072
39.1871
23.3294
-27.352
-23.6039
-67.7798
-40.9975
12.0538
-95.4889
-81.1722
-36.4882
14.5648
78.0448
102.799
115.729
102.683
-5.261
-37.4082
-47.0504
-63.6506
16.9887
-8.59107
-8.58625
32.9471
-9.36101
-37.0563
-75.8555
-89.5997
-20.5663
-2.57126
12.2293
76.1622
142.056
-2.53395
-60.2171
-52.6566
4.80863
-6.09789
-0.565334
-0.736993
90.7883
121.73
-53.8807
-154.754
-48.1027
13.2672
12.7757
-5.2755
13.529
82.5107
15.0141
-73.1005
-105.92
12.8433
19.3126
1.93079
26.1228
71.3946
7.32179
-13.7388
-26.7397
-51.2618
0.158893
37.7235
92.7836
108.725
-15.9292
-25.4866
9.67064
-70.586
-75.1834
-33.4227
6.63935
59.3083
-2.58402
-21.7442
12.5948
21.5097
57.6169
-45.1879
-93.2551
-52.1085
4.66645
-15.7811
-12.7002
-4.57288
61.1892
57.0858
20.996
78.348
114.447
-48.0449
-51.4305
-51.149
-37.4677
-23.6113
-16.8563
-9.39778
15.2852
9.77804
33.4104
14.2841
15.9163
33.5518
1.65322
11.355
-11.5871
-62.1123
-27.7791
-53.1589
-75.4311
5.99209
11.7678
66.3369
115.152
81.0184
-21.5748
-55.4224
-64.6293
-62.0622
-34.1714
12.3835
38.973
41.3195
-61.0641
-94.7659
-49.5692
5.81488
13.1431
2.73171
48.1921
141.548
119.414
-7.73671
-38.4063
-8.33992
47.2227
28.4851
19.1029
84.8295
89.4748
-61.1692
-190.257
-141.965
-17.523
-5.98647
4.79893
36.4191
60.851
38.455
-54.8369
-67.4012
-43.6406
-16.3989
3.46024
12.2838
40.9036
15.3227
1.70583
33.6503
25.0974
33.1683
49.0521
-4.75294
-24.0354
37.3264
-16.7156
-49.4272
-62.2403
-43.3658
-6.67585
-22.3811
8.22274
23.6313
-48.8972
-45.9765
-16.2135
28.1353
58.8538
22.6694
-2.01704
73.1616
60.1596
3.47607
5.30632
-32.4296
-13.902
20.6031
-18.225
33.8066
1.55889
-81.5195
-66.0226
14.6828
102.585
53.4221
-3.54545
1.53843
39.3799
-53.0795
-62.0239
-90.205
-55.2089
7.07788
24.0323
-9.15135
72.5987
138.628
-12.6784
-57.4645
24.165
73.565
59.3613
4.76941
-12.2033
33.6328
-59.1029
-77.9122
-38.4288
6.59295
-32.5233
-52.3188
-17.6024
44.8126
-21.4572
-53.9578
-39.4206
-48.789
40.4156
33.4784
14.1808
-25.2293
1.44457
-54.3599
-20.6422
12.0658
55.1021
45.6362
39.8793
77.4812
77.2951
-15.6005
-12.4649
18.5494
27.5939
21.9566
5.81899
-34.3807
-40.5325
-150.65
-87.5844
25.516
16.919
22.4382
1.79986
-3.88874
65.2835
30.0831
17.9778
27.5776
54.8488
78.5951
33.2908
-15.52
-88.8658
-105.541
-86.7029
-65.1055
-31.851
26.9779
49.1903
138.296
66.8802
-65.0113
-51.2312
-45.3909
-50.5322
-29.5593
-52.5962
1.50837
141.976
214.05
44.9389
-105.545
-32.5751
19.071
7.32773
-45.1775
-69.7616
-12.4566
-4.54163
-129.5
-75.198
41.8594
88.5967
93.8971
69.736
62.8215
60.7327
52.42
-110.195
-146.544
-66.0022
-6.85801
31.117
28.71
34.4494
70.262
20.4073
-59.8618
-66.706
-62.8622
-63.8372
18.3105
18.3302
74.5772
102.928
64.3749
39.4604
-69.8412
-107.927
-54.5307
32.3578
50.9239
44.449
-34.9635
-67.0452
-121.317
-80.5895
-8.60924
57.8049
177.98
222.935
103.763
-56.0595
-81.5339
-48.8714
-17.631
-24.3418
8.70105
23.5419
7.91971
-49.1665
-31.9858
-52.7374
-50.5056
-17.194
48.7258
64.8737
-23.0322
-118.96
-111.139
-66.3814
19.5797
81.0088
46.6264
61.3542
54.3876
22.4248
-13.689
-3.62174
0.70812
24.6315
64.7927
168.965
106.939
-87.2948
-137.981
-75.8236
10.73
43.4283
-15.251
-67.3235
19.3667
49.9356
-58.7993
-119.101
-95.0195
-17.8934
53.9951
43.242
41.5316
89.7259
111.057
-101.569
-110.489
-19.8524
-13.7241
-28.9716
35.0441
61.88
100.158
150.148
-27.4484
-75.8758
-30.6231
-13.8144
25.4849
30.489
3.05199
-53.3141
-167.404
-105.676
-77.5614
-12.4462
60.3919
111.392
122.616
68.9913
-26.58
2.2608
-16.0389
-7.31314
76.0207
90.4748
98.1341
0.299176
-113.572
-99.5446
-87.0273
-25.8587
92.5746
57.2391
-3.67185
-4.34891
13.0378
-82.0494
-74.8237
-31.1758
16.2612
27.1922
-9.92772
-63.524
-30.2934
-65.0811
-39.4941
22.6683
84.7862
81.9702
71.409
57.4353
92.1752
-9.31888
-104.493
-80.0957
-22.7007
75.2431
31.7881
-30.6945
-20.8664
-90.6477
-124.988
-63.0795
47.3964
124.206
65.1247
69.0038
75.6578
68.4048
13.3764
-48.9497
-66.1705
-48.5279
-4.354
17.1593
22.06
84.7278
78.294
-52.8177
-92.6507
-63.6265
-28.4873
-32.0934
-56.9153
-21.9813
73.5897
99.2635
-37.4533
-103.575
-72.7535
-9.69476
21.224
16.4753
37.2043
75.8009
56.361
24.3671
44.5809
-48.1892
-71.2058
30.1306
31.3195
60.1423
7.89876
-62.4755
-55.9401
-73.243
16.8813
92.7261
103.719
65.8606
-23.9655
-40.6091
-47.2352
-95.4232
-105.461
-81.2343
-46.4131
132.454
91.3291
-49.4485
-24.4244
-20.9147
4.19086
30.6946
35.0463
119.596
118.993
-14.3669
-42.3968
-39.0764
-18.1223
18.2146
32.0734
-22.4776
-61.0705
-121.232
-187.669
-60.6889
64.4302
90.2519
41.2075
39.0455
55.7524
85.9991
100.606
-34.0733
-39.8754
17.9037
-10.7044
-42.7484
-14.3563
-5.37891
3.18055
67.9812
39.844
-62.6434
-27.3491
-14.1901
18.5564
84.0908
13.1258
-56.2832
-17.8892
-114.083
-132.112
-79.5192
-21.6608
1.26648
29.011
61.3862
57.7061
2.97189
-6.31546
-0.928778
40.1
31.0227
-7.7489
10.557
64.8542
43.7037
-32.3834
11.013
-18.2077
49.033
69.7335
75.4724
117.497
157.848
-19.9824
-101.789
-117.998
-79.7905
-124.795
-157.765
-70.8333
78.7781
15.2379
-72.8202
-95.0569
-56.4804
81.9456
92.3152
76.5235
121.275
62.9771
-46.0858
-83.7702
-75.7695
49.2672
43.1766
28.1721
68.3237
-35.0152
-76.117
-84.8072
-59.2202
5.25298
80.1399
60.3355
19.0945
12.5686
47.4107
49.2321
2.39021
-47.0311
-54.7212
-3.53939
57.4767
25.1909
-12.7486
-41.391
-89.4729
-54.5149
-28.8469
-8.24741
39.6344
121.141
40.194
-68.2156
3.455
32.9389
-47.774
-53.535
-15.9149
19.8107
133.475
155.253
-23.9545
-98.662
-124.455
-66.9233
-9.23307
58.8865
80.2129
34.9198
-18.7115
-133.932
-72.0332
15.5494
59.9465
63.3705
42.8919
67.01
34.6518
10.4581
8.5617
-27.499
-28.4012
-26.0942
-5.33881
52.4623
33.6404
-70.4571
-92.0414
-81.9162
-99.606
-67.7169
-67.0002
-8.03162
71.5428
5.17205
-1.41609
-10.8376
-21.2632
18.46
-2.27662
-54.3554
21.1221
151.499
107.568
-7.91334
-48.4553
9.68096
40.1141
35.2805
35.6499
61.2772
107.344
30.2056
-38.6661
-10.907
-17.6408
7.044
68.1031
114.589
86.1457
-3.51609
-17.4758
23.8162
65.346
57.0438
46.2791
133.314
94.7636
-194.346
-255.484
-155.233
-137.36
-119.072
-128.57
-64.3961
14.2668
32.2116
-34.8832
-43.0338
-13.4608
-2.07246
-24.6102
-22.2884
-4.87697
55.9325
1.11476
-73.203
-63.6213
84.3433
108.928
23.8039
-45.7696
-19.2678
71.4599
38.0077
-20.6753
-2.37011
27.0146
-2.63616
21.0218
48.4288
36.3219
44.1611
-8.13592
-8.08459
10.6128
-27.2196
-32.2704
14.5376
26.7657
43.6078
-44.7362
-55.0877
-21.3014
104.454
205.957
137.922
124.098
122.338
-96.9634
-156.194
-92.6679
12.3722
102.991
-8.03366
-28.5686
3.43843
-144.035
-138.733
-111.027
-82.375
-16.7048
4.33289
-14.6384
8.04741
-144.505
-117.131
-34.2052
-17.757
31.341
97.4589
186.485
192.371
50.4704
-31.0657
38.2597
58.8453
-42.1601
-103.164
-39.0015
-11.1179
73.3789
68.035
-56.9094
-68.6795
-1.34226
9.162
-9.08459
18.4406
100.67
115.337
88.7857
-149.593
-125.975
-15.7799
-27.8164
-95.7374
31.9324
130.539
124.961
-29.837
-55.2992
-106.072
-111.682
-102.225
-45.6643
22.8809
179.077
160.413
181.901
130.895
26.2704
-21.3694
-46.085
-50.5823
-75.4213
-53.8743
-39.2607
-131.179
-116.648
-7.57449
-39.044
-54.8063
-64.2805
-78.9101
-26.6706
10.9079
-61.414
-25.2777
99.2215
118.263
117.381
194.693
147.905
68.3724
13.0436
-84.9122
-38.0013
25.0562
12.9521
37.8477
69.0199
122.852
23.0899
-78.4126
-109.812
-90.2657
-75.851
-66.9239
-108.274
-33.5721
-23.9821
-94.8376
-122.505
-116.066
-96.7591
-110.622
-31.7915
117.489
97.2218
133.049
133.824
27.9663
53.6588
70.3829
73.1144
121.339
193.371
130.599
112.198
67.0191
-22.5544
-41.5202
-90.6297
-136.692
-97.8098
-15.6926
-26.7497
-148.846
-204.622
-100.069
-10.3912
79.3956
143.425
155.738
108.678
66.4988
-35.7519
-204.843
-263.335
-228.438
-97.2823
58.8653
209.302
274.718
297.613
108.723
22.2962
-16.1768
-17.9928
-113.741
-216.293
-200.19
-133.073
-146.875
-125.794
-47.258
28.5428
198.999
182.865
110.785
41.9685
-103.796
-62.1198
-31.4862
-69.284
37.3882
-11.41
-9.33229
130.411
358.553
352.352
182.585
-4.71021
-21.6332
-45.1015
-115.576
-166.636
-131.964
-96.2743
-137.458
-155.201
-32.581
-23.1076
-26.4812
-47.6831
-52.7917
42.6515
92.6946
23.0266
-95.0627
-121.924
-91.6806
27.0743
93.6501
155.845
75.4697
-1.34361
13.2682
4.59195
54.468
79.4139
105.156
143.602
114.17
6.04052
23.4632
11.1271
-89.1351
-108.9
-130.25
-93.2545
-59.8757
7.78635
42.4925
-31.3508
-22.3896
28.2454
52.574
49.221
-19.3181
-36.2388
23.3084
-7.35312
-57.7669
28.3533
10.3205
-45.0228
-36.4939
-45.2627
-73.5741
-9.62936
-44.8283
-35.6061
51.169
13.2457
-26.1074
4.16421
57.7566
123.936
70.1464
69.0927
31.635
4.64391
-43.9643
-29.3293
8.71436
-11.1793
-32.4259
9.02092
-3.54985
-39.8536
-24.0608
-19.2663
18.8736
3.21796
26.1677
29.9031
-32.6794
-66.6306
23.1899
56.5344
71.7369
3.92529
-37.4072
-63.9351
-35.171
-11.9257
-0.23375
-18.1523
-27.5237
-4.21515
48.4441
-26.6442
-58.513
-16.5917
19.8111
24.8833
100.057
90.7071
68.1942
-24.2591
-14.4663
-7.33912
-80.7553
-89.0643
-82.9327
46.5947
182.012
197.041
78.6811
-84.2326
-58.6989
-60.7801
-44.0217
-50.6056
-11.5835
83.9142
-17.467
-29.6358
-25.5423
-31.9552
-61.8745
-28.3552
35.7091
70.0525
0.238744
-24.3659
-4.09601
-70.2827
-29.3225
20.2432
51.8486
92.7309
5.03175
-41.2162
-83.5713
-137.105
-125.775
-59.3932
-12.1136
43.4421
81.2737
28.5658
28.2237
53.7248
142.649
85.9203
4.51127
-16.3966
-20.8725
34.1779
-47.9113
-55.7614
-15.6598
60.5103
90.9214
52.2768
89.5677
74.644
-65.4345
-103.319
-98.6105
-27.588
56.317
73.5932
34.9309
52.4563
-64.8467
-71.5147
-15.0778
-46.6704
-111.706
-110.761
-39.7165
34.7173
15.1008
34.4444
0.772949
-42.3229
33.8642
25.3148
49.7014
75.3378
96.3045
-75.6573
-114.862
-89.9891
15.1125
49.4176
-0.173048
1.24183
123.067
78.0776
-59.4373
-98.3928
-61.9124
-47.948
2.03841
59.0572
102.064
117.542
86.626
11.3209
-57.9413
8.05964
6.34786
-47.8273
-38.5352
-48.5329
-12.4534
-69.4896
-79.0568
-17.3722
76.6162
86.8399
22.8262
54.4153
74.5264
-92.8449
-76.6992
-0.0197016
-21.7438
18.2338
58.2399
122.953
40.615
-89.9655
-83.0082
-71.6405
-68.112
-20.501
-47.5348
-9.48286
69.6401
18.8155
3.74394
-18.3716
-66.4078
0.0823005
-12.2576
-54.8544
37.4677
203.774
159.119
-42.4099
-36.6437
0.921714
-8.06374
-1.75571
-31.3904
-13.4936
-0.909836
-69.3701
-41.6205
-10.7763
-0.0889673
-14.0432
9.7051
170.437
132.52
-29.8575
-105.518
-123.565
-69.2903
57.2134
100.131
96.1013
43.1028
-50.9949
-51.9203
-14.8926
6.76
8.52961
-32.5518
34.4746
51.3667
-69.4986
-101.728
-118.606
-47.2998
41.9361
45.8061
35.5529
71.7981
149.177
68.2448
-119.302
-194.482
-115.877
-43.3003
39.9113
26.0121
23.3471
73.9602
51.8809
21.6242
52.1735
36.8109
-25.5775
-44.9324
23.0797
52.5479
86.6774
-38.9427
-213.701
-89.2708
90.9728
177.132
157.847
98.4101
45.2368
-49.1175
-80.6743
-107.125
-110.632
-69.2642
9.67134
41.5976
63.495
15.5535
14.5281
-9.26586
-20.6171
-22.0718
-18.3792
-107.689
-81.8454
-39.0361
45.3702
71.8392
-20.8131
-30.0078
-92.9117
-114.094
1.00992
100.164
121.372
-77.1526
-123
-81.0602
-55.8687
-33.6923
-11.0494
69.6683
208.173
202.751
52.2306
8.54056
3.64974
-33.8246
-54.3657
-16.1043
77.87
112.65
56.7822
-33.5173
-34.6861
97.2392
171.443
215.637
185.226
149.209
-22.1923
-174.506
-192.598
-141.934
-96.9022
-78.4064
-84.9043
-43.5116
10.1631
-21.411
-97.9282
-134.369
-73.8702
-23.882
-9.12643
16.4551
43.4638
26.1552
-83.3704
-73.5982
-9.61395
63.7621
28.1873
-13.307
-64.8479
-30.9995
-5.66605
-47.7362
-0.829582
93.6069
89.1232
27.5091
13.3072
74.8477
92.6468
60.7396
-37.7836
-79.4118
9.11325
35.8541
39.1099
16.4482
12.9413
-8.69655
24.3182
4.10644
-33.1641
-23.6725
-48.7255
-12.3423
77.4571
48.0001
46.6969
-3.92578
-31.1488
-50.6485
-5.4503
129.737
213.113
5.93144
-80.7009
-70.5369
-60.6573
-8.0148
6.02701
-47.5069
-88.5095
-122.006
-72.3366
-72.6412
-32.8933
37.91
-9.92069
-38.8189
45.9187
114.198
-17.2237
-72.2756
-105.727
-37.5897
96.8188
192.777
181.337
177.62
132.844
36.9954
-97.1181
-82.8288
-57.5091
-50.6514
-27.7067
-54.984
-58.9539
21.7806
-91.255
-145.881
-20.669
-73.9198
-54.1916
23.2647
6.1198
74.0907
99.3091
-0.875038
13.6761
53.8817
151.471
132.946
7.75495
-72.9735
-119.308
-128.283
-49.5651
-79.3743
-6.61164
66.3554
90.3414
117.886
33.3228
65.2372
51.302
-56.4317
-66.0033
-10.7894
17.1653
7.04689
33.295
22.9793
-101.058
-65.3332
-25.3872
6.87184
-22.7559
-58.8584
16.957
136.249
22.8509
-82.614
6.51082
53.8085
-4.45706
-51.7734
-66.3557
11.6907
-38.0237
-24.031
-60.4506
-67.1364
79.2645
143.143
155.087
86.3553
-95.3254
-109.041
-70.4096
-55.0887
34.818
100.717
89.3481
2.84822
-89.8912
-40.6604
-19.6578
-21.86
13.8832
35.0082
76.6188
107.368
30.0759
-72.1474
-131.754
-74.1237
51.1606
68.7001
0.593827
-108.796
-19.9636
37.0892
42.1693
-17.3674
0.70123
41.5496
27.7218
-35.7354
-16.1343
70.6927
-37.1999
-79.0921
-16.6149
12.8109
43.5912
74.6126
13.448
-40.882
17.5307
3.50337
-47.3093
-25.9971
-38.5913
9.78793
80.1224
71.0073
58.7274
-2.76959
-43.4322
-109.807
-66.6587
-22.9714
34.0136
55.1784
99.6542
-55.3621
-40.8222
-47.8461
-63.4948
-4.19581
-5.57479
37.7022
92.191
-10.7976
-15.3488
-15.9701
-50.5135
31.2568
89.5646
87.0098
47.4101
-40.1144
-122.746
-133.094
-156.38
-110.338
10.2188
110.856
129.943
168.489
91.3787
-54.5069
-114.912
-31.2142
43.0328
54.5601
59.0781
85.8836
-25.8873
-52.1385
-36.5625
-34.6698
38.2165
38.3452
-13.5893
46.7781
-2.7077
-63.4867
-81.7702
-91.9833
-28.4842
42.8149
31.2676
93.1976
140.599
84.3483
0.198569
-56.5432
-94.3883
-148.408
-91.0921
21.9643
77.5055
-18.7069
-85.624
-66.0191
-21.2446
12.4498
4.84587
18.4779
38.8413
54.8559
74.767
35.0785
-23.2489
-11.7288
-3.26956
24.7096
66.1794
58.7862
74.2985
-40.2171
-146.462
-7.56601
98.0766
107.125
100.913
3.17416
1.44113
-112.732
-162.386
-113.302
-85.5568
-21.6319
30.7516
54.821
85.8673
-10.8241
16.8571
35.6779
-24.7061
-26.0908
-3.40836
2.0618
43.0346
-91.143
-86.2145
28.0855
29.9037
65.0706
48.7249
35.4535
79.4268
-13.34
-52.4938
-46.5734
-81.6606
-27.7269
25.1872
34.7295
31.6706
38.116
16.6991
-58.785
-111.958
-61.0884
3.35816
20.6094
46.8996
110.693
115.385
-5.38644
-115.518
-18.0876
19.7319
1.44363
11.421
27.2485
-0.777217
13.127
-17.8738
13.0767
57.0536
43.5609
-21.6381
-22.3782
-32.2805
-15.6364
-14.9442
-81.9505
-65.8996
-27.6465
-1.23593
24.6716
46.8334
72.918
55.3127
-32.3423
-58.8274
-82.4094
-37.3867
-11.1838
35.2819
150.826
225.471
60.6035
-138.834
-155.873
-172.407
-84.1201
-20.6222
87.112
199.725
138.758
-52.1947
-99.3296
-84.4866
4.82736
71.1265
26.7583
11.6736
31.6087
-54.8059
-73.9198
-86.3815
4.23677
111.249
116.252
118.15
87.4252
-79.7969
-95.8562
-121.386
-108.232
-15.4161
36.5838
71.7253
90.3913
-34.4115
-20.536
-4.84602
-80.3137
-55.1626
-10.6444
-11.3935
51.7715
-36.1805
-31.9216
-29.0218
3.32988
68.0127
62.3503
65.2625
139.278
31.9974
-78.5287
-70.2082
-43.1465
31.7304
16.7346
19.4084
32.669
73.8443
-62.2594
-148.186
-81.4601
9.91502
-3.16926
-2.44978
27.9086
66.9325
147.897
54.5757
-67.7675
-37.9971
44.0606
14.9386
-34.3296
-6.37396
2.6493
43.2713
-40.0707
-140.014
-33.0395
35.4406
28.7868
-2.40303
-23.4539
-46.0154
-44.0869
-42.6992
-44.5898
-16.2413
-9.27354
45.2563
64.1126
97.593
45.7513
45.3148
42.0327
-26.1366
-6.52349
34.3934
3.33793
7.03662
-46.4458
-88.5703
-55.2846
-20.757
13.4433
28.8836
17.6148
31.6051
62.9148
62.4425
10.9126
0.311199
0.410942
-31.6237
-62.431
-51.6518
39.563
28.0526
-84.8182
-74.5341
-47.5496
39.885
14.0725
-25.149
84.5013
118.376
-60.418
-62.9618
-22.552
96.3197
113.852
1.45541
42.1545
113.184
-42.7122
-83.3869
-102.991
-112.288
-39.8181
-43.6537
-43.7869
1.41462
101.737
2.33051
-115.983
-55.5642
56.1128
41.0896
29.7587
34.5099
91.0646
92.1213
-65.3609
-112.242
7.3581
29.4471
29.8985
43.4402
35.9248
-18.0809
29.4334
26.182
-19.0843
38.7533
23.2664
-28.9048
-2.49386
11.6516
-20.1741
-129.457
-119.151
-23.1786
54.6234
71.758
83.5786
65.1167
68.6847
-21.6802
-83.1011
-92.207
-104.362
-55.7085
-34.4187
-27.4168
57.2824
54.9747
6.78014
6.194
14.5172
-1.99329
-37.9748
-8.3511
84.4412
44.691
-3.5698
-10.3049
-32.9076
14.826
72.822
77.0909
83.0175
69.3331
-7.81622
-93.8329
-92.3344
-5.06928
28.4768
1.81231
-6.20166
58.2532
70.0044
-29.8405
-110.215
-63.2016
-38.3559
-41.7941
-45.5437
0.0994217
70.8698
110.068
-52.22
-200.023
-138.624
-23.8138
71.5065
146.583
98.7257
20.2934
78.9355
115.922
-7.66027
-6.75002
-2.22267
-21.7766
-24.2242
-40.3187
-12.8197
-22.4666
-136.866
-138.806
-41.6919
61.8183
85.1302
86.4371
55.2297
-45.0242
-57.1964
11.7644
-24.7137
-39.8534
12.8084
71.3469
92.847
107.169
61.8511
-58.4148
-101.416
-91.9177
-16.3169
4.00278
56.4093
44.8145
71.7558
59.1786
-66.7756
-49.2226
23.9237
0.262066
-68.4447
-70.859
31.1536
49.9019
-29.9942
-16.8459
-7.72972
34.91
41.3851
9.95881
40.8504
48.8562
-29.5379
-63.2187
-58.8339
-37.101
-18.7743
-24.1099
11.6677
-7.48118
-67.5842
-24.0406
10.14
57.1465
63.6272
-6.70295
95.8783
32.926
-58.1855
-27.986
-34.5868
-78.0159
-60.0946
0.566658
107.148
136.373
77.6926
-59.2965
-70.3739
-14.3261
49.5052
27.5565
-9.55805
-33.9682
51.4211
40.8277
-77.4404
-47.959
14.7305
37.4758
13.0856
-23.3275
12.2344
24.7685
-4.37172
-105.926
-99.8825
10.8934
39.901
65.3954
49.7036
45.5246
85.575
20.3713
-120.823
-115.062
-72.931
31.3409
63.2542
42.0305
84.3433
29.2641
-164.154
-148.846
-114.233
-5.06641
64.6023
58.32
64.3731
98.2335
7.37386
14.6644
1.05954
45.402
81.8805
6.47221
-72.6497
-40.9666
1.58129
-72.9353
-22.5742
85.9072
92.5017
0.694672
-40.6904
10.7005
121.257
106.422
-84.171
-113.95
-39.6882
-57.3036
-61.9215
-53.8327
-21.014
-14.391
-24.6235
-10.8694
25.5089
103.893
19.2527
-31.5796
88.8445
127.226
-20.6437
-70.0572
-115.552
-79.5466
12.3837
42.6482
95.7341
45.6397
27.5568
-11.5868
-26.3239
-1.6832
11.671
-73.2293
-126.176
-88.9577
33.6696
29.7786
-1.9155
19.3775
68.0074
48.0428
-39.5008
-53.4913
7.36245
88.0863
84.8606
-2.46503
8.28357
81.9104
72.0447
6.53403
-39.8179
-22.1329
74.6465
94.7779
-98.2825
-136.432
-94.1614
-86.8275
-46.2162
-41.1031
26.1284
100.919
-12.4604
-54.4744
-27.8748
3.83533
-22.5863
-50.666
49.7452
149.046
143.844
89.4087
-35.1578
-102.865
-82.7926
-47.357
29.0716
14.2804
-71.0193
-75.6594
-53.3713
-2.6119
106.442
112.777
95.9456
46.8093
-50.5416
-76.3697
-125.796
-96.9905
24.5492
65.3706
70.6295
63.5902
65.4321
-25.4088
-103.467
-70.9331
10.9261
42.0577
17.5653
48.0591
151.993
129.639
-63.866
-122.019
-114.865
-5.87587
26.9279
14.8491
49.3867
24.1813
-54.9661
-92.8028
-60.8338
-11.6517
-10.2946
-30.1077
7.73782
96.2624
94.6637
-42.6645
-89.9309
-67.7672
34.0973
88.5087
112.088
90.6804
31.7088
-33.3941
-44.439
-69.9415
-86.6274
-105.488
-106.559
4.79795
24.9127
8.24235
24.5146
22.449
12.3262
30.9501
6.99922
-34.7533
-7.79567
72.3445
93.3637
53.3983
54.9093
76.1097
48.8067
-13.6448
-5.79587
67.0215
-14.8155
-73.7044
-62.5465
-34.4617
3.28101
-47.2683
-25.7896
5.70099
-92.0579
-42.9025
35.1952
58.7796
72.6379
59.7247
65.9399
22.6174
-124.711
-139.283
-125.488
-137.515
-11.3421
61.9758
135.066
80.7731
-62.8269
-90.5623
-39.4003
28.0179
58.6253
39.5658
33.2911
52.0328
-34.0921
-38.1837
-17.2288
34.781
70.4844
46.0151
34.8902
6.12016
68.5136
53.1812
-80.3633
-109.757
-67.9166
-31.3463
-50.0859
-30.5416
17.668
106.324
115.915
-7.82801
17.659
38.6832
18.2995
-88.1458
-109.824
-67.0907
40.0582
60.613
-57.3872
-19.7295
-3.01749
43.6537
98.0192
83.903
40.6832
36.7147
-36.7524
-108.384
-99.9976
-0.54757
78.143
76.1622
11.7656
-14.3867
-54.185
-60.9995
-67.8071
-32.0075
4.88036
-12.0648
59.585
113.398
-41.5797
-101
-97.9035
-68.8316
28.5903
42.838
60.9693
78.5024
75.9887
89.051
4.81266
-20.642
9.43434
-21.8664
-48.6822
-57.4047
11.3764
80.762
12.4437
-123.775
-59.7454
-4.68385
-7.96582
-7.33034
59.6321
128.507
44.7111
-90.1212
-101.168
-95.1851
-20.2893
42.1328
79.7962
118.39
62.8025
-16.6084
-62.6978
-97.0768
-86.4079
-68.5076
20.6436
127.849
145.461
65.2245
33.6936
-37.2156
-25.1887
-6.74174
-14.5958
-33.7054
34.9458
102.623
5.28592
-52.2972
-93.3379
-100.51
-90.4266
-89.9507
-56.7353
35.9187
56.0252
-25.1761
-10.8511
41.0809
36.2077
-26.7509
-29.3918
52.7174
138.387
61.6263
-3.01067
-32.6041
63.6307
58.2795
56.911
89.5355
68.3955
-66.2803
-126.481
-108.74
-84.3211
-39.2195
-52.2426
0.141733
65.8624
15.8412
57.4718
35.415
-27.1426
-12.141
-19.827
8.60102
31.4303
-65.4319
-52.5239
-63.1932
-74.431
-3.02703
58.6257
98.8973
80.0277
63.9671
-23.1801
-17.3269
-51.8131
-30.5829
-47.5935
-17.56
-5.23401
71.3323
108.564
-77.0103
-63.1283
30.1585
39.6182
33.986
32.2595
50.0909
99.7422
-9.73665
-109.711
-130.106
-43.7892
17.0719
19.4819
43.8916
66.3556
4.75244
-12.7012
-23.2604
-36.565
-4.0656
29.1385
68.6001
28.3305
21.2735
-8.37529
-97.7194
-108.611
-82.8419
-37.6609
15.5184
51.8473
64.5182
64.238
35.2604
-19.4405
-46.0356
-28.1945
-36.3234
-29.8782
40.0164
117.244
58.8677
-84.1305
-80.3314
-46.9162
16.7669
-1.42899
-18.2232
13.7187
88.2761
9.55058
-63.4492
-65.4212
-43.0293
2.78664
123.398
181.589
123.687
-14.6266
-33.6837
-42.979
-43.311
9.93317
-2.61771
-23.1469
51.1514
9.54547
-10.4826
-16.5371
-68.3634
-44.0864
-51.9803
-7.77281
89.5702
4.81955
-1.66794
-63.3944
-71.8185
-7.74068
-21.777
-49.1705
27.7142
-12.1644
-18.5438
-25.6414
-38.1625
-4.91792
11.1724
23.0382
72.903
117.484
24.2659
-43.9643
-72.8833
-6.23323
-0.824027
26.3973
93.1982
130.791
157.69
-19.8358
-109.194
-34.6941
-20.4859
-27.6498
-28.0303
11.3871
46.901
37.1198
-70.3131
-139.966
-61.4282
39.4922
100.469
99.1481
14.774
44.2573
-60.885
-131.899
-94.6991
-38.4531
-11.0895
-8.61044
-8.83005
72.5524
10.8197
-1.9517
-15.518
-23.668
41.9241
21.6115
6.47647
53.6713
-56.0579
-27.794
-14.439
-41.0398
14.766
80.2449
44.6101
145.948
81.1269
35.5257
-83.744
-137.839
-49.4016
19.3469
5.99719
11.4046
49.2423
47.8911
3.76121
-31.8854
-15.3779
-22.2607
-44.9678
-71.5372
8.47906
35.9952
-39.5629
-49.6784
8.51855
13.8232
50.4197
38.2296
60.9319
22.4811
-42.232
-34.3457
-72.2114
-44.5151
9.14771
-17.1683
24.2737
6.05668
-76.816
-32.7479
11.8103
99.5779
100.471
18.2133
82.3196
91.3829
50.1445
-11.0881
-63.0414
-98.6154
-74.6261
-87.8311
-70.383
-29.7461
33.8634
57.9448
-12.3127
-9.37928
76.4954
67.1173
48.2282
-23.5442
-28.7136
45.2483
15.8232
-97.0576
-25.8345
-5.27386
-53.1434
-67.9872
-28.2693
8.86169
111.299
91.5734
-35.8711
-20.1894
37.7327
40.6451
72.4937
47.4999
87.7617
37.494
-103.781
-154.814
-120.142
-11.7046
-24.117
-26.1901
65.5168
36.2827
0.749173
-52.2052
-88.4442
21.731
55.8392
25.3469
87.454
43.3794
6.93833
-36.8753
-88.2387
-16.6039
96.6295
72.1098
97.9828
114.068
-12.2856
-112.098
-178.975
-105.687
-5.70974
37.2304
31.8652
59.7207
-0.274062
-57.8347
-108.007
-37.3562
15.8019
39.2259
40.3259
51.5335
24.3239
16.3421
-13.5369
-36.3853
23.9198
16.4532
32.7686
61.9789
14.9732
-41.6024
-72.0955
-76.9951
-14.111
34.5909
34.6306
56.698
101.362
34.1543
-28.5434
-27.807
-13.2968
-26.3978
-40.565
-33.8453
73.0983
57.3792
-37.0802
-75.7251
-62.7552
21.7919
6.47338
-38.492
45.2328
101.239
-27.1772
-68.4834
-64.9547
-42.6776
-36.6742
-18.6566
77.451
107.914
15.1976
-85.2045
-76.7315
13.3487
55.7238
52.6564
24.8566
11.5496
16.8067
-20.7198
-54.7976
-70.0696
7.92537
54.1238
48.9128
93.4817
88.4294
-30.0854
-50.8039
-56.9781
-22.465
75.4458
87.9164
72.9106
-18.9177
-53.2494
-17.468
-83.3302
-81.5409
-57.882
-70.4786
-21.7622
44.5096
15.1404
-27.1492
-35.0949
-16.8648
26.8343
54.3902
57.6485
100.386
147.078
-46.9235
-152.746
-108.73
-59.8868
-28.3311
-3.43362
26.1954
99.4097
34.6895
-42.0984
-3.3439
13.6596
16.6719
18.2435
14.5589
46.6745
52.0571
-35.4012
-58.9028
-76.2079
12.725
89.1532
91.3069
51.2576
23.5086
6.225
-83.1257
-80.3788
-37.9295
-3.28534
-16.818
3.03388
55.2451
19.1391
-26.3306
41.7108
19.8628
-10.0734
-25.5261
-63.6575
14.1238
-26.9419
-56.9974
-35.7192
-45.7424
-27.3768
25.3599
24.9027
54.2273
39.1299
8.20278
-14.1945
-24.4419
21.6194
38.4626
5.12841
-23.6085
-11.3384
58.5786
64.0509
-51.7752
-32.5165
30.8303
25.4131
19.2166
25.7604
40.1083
11.8306
-84.0031
-46.751
-24.9169
-3.93604
-14.1994
-27.351
58.1935
69.7161
-17.5072
-26.927
-66.9917
-120.281
-41.6864
80.1653
130.301
69.7318
-37.6076
-67.8039
-71.9161
-23.5073
43.1741
45.6892
88.2189
172.717
39.2139
-47.8072
-103.012
-106.691
-59.5185
-56.8929
-17.4999
48.9586
142.723
22.3329
-127.936
-76.1888
-21.5111
-41.546
-36.9871
6.11071
87.7097
151.606
95.646
-57.7516
-5.55333
19.4567
5.8083
-11.5914
37.3794
67.4809
62.053
-37.5013
-145.087
-102.41
-30.1526
9.31612
22.7591
29.2708
72.937
-61.9694
-123.925
-143.761
-84.8708
8.87213
88.9906
175.62
161.024
-2.9154
-2.10086
-10.8098
-43.2018
-14.7186
-33.8945
15.4367
54.0862
-27.4284
-52.1714
-23.2398
-20.5713
67.4654
29.9749
-39.9716
-27.1927
46.6199
45.0421
-54.3127
-46.3573
55.7782
76.6029
60.9154
29.5215
61.9501
28.913
-70.4733
-17.9886
0.904717
-52.0411
-74.0659
-88.2647
-4.27781
38.5837
-33.0211
-19.3505
-41.8149
-28.6026
-11.776
-19.5562
61.4565
141.321
70.5919
-59.7964
-57.1737
-62.8273
-79.6304
-95.5458
-37.1562
70.712
137.328
18.6479
-64.1591
-34.8119
39.9727
24.9802
5.73089
23.2555
54.2357
78.7512
37.2049
-34.5834
-8.27395
26.223
-34.9947
-40.7306
14.8171
56.098
199.807
217.223
-23.9056
-151.034
-210.357
-132.734
-29.8815
-8.75075
-0.867084
65.4254
27.9399
-78.9605
-50.8585
-49.2912
-28.3211
37.1715
47.9448
97.1437
48.0638
-89.0351
-123.536
-132.178
-59.0235
28.7014
93.5928
117.355
90.9862
7.76197
-15.8523
-34.0248
-3.03787
43.2776
50.8466
83.955
28.4353
2.82058
41.0618
0.631406
-2.41929
-3.34438
-71.4309
-42.3432
-14.6075
-88.1995
-26.4154
-32.428
-29.8587
16.0868
56.9034
27.6392
34.147
0.941789
-84.3503
-45.6133
27.9514
67.6265
70.2683
25.4711
34.0973
89.6252
-26.2688
-168.038
-111.916
-5.03863
0.815709
-44.5831
-50.6035
46.37
110.815
31.1734
-10.6327
35.8863
11.4874
-34.1907
-16.6009
46.2124
36.0326
-64.0141
-42.3997
-59.9283
-28.4215
30.774
41.6431
107.492
89.0281
-16.9754
-36.5457
-50.9393
-100.561
-41.5353
24.4508
102.163
202.324
63.747
6.11169
-47.24
-87.6065
-68.0446
-73.0131
-64.0751
-36.1413
37.2472
-1.12669
-46.9694
-26.7254
22.6304
-2.46134
-7.71065
24.3745
151.746
105.569
-68.8153
-117.884
-53.3674
-17.2441
-19.2655
-22.6681
51.8157
38.4285
-14.9172
-15.4249
-12.3704
14.2364
23.7689
4.86882
78.3943
50.6709
-0.697183
-8.27346
-57.1723
-45.9814
-26.1206
26.2341
147.288
69.3427
-60.8861
-40.1786
10.5888
56.7671
53.1528
29.9292
-4.4587
-43.4108
-156.975
-181.248
-112.863
-18.7648
20.6745
12.2303
48.3799
73.3075
104.999
104.097
-75.1457
-55.1413
-17.5388
-2.2545
13.5821
4.2342
44.8085
47.153
-25.4438
-63.1491
6.89362
66.6667
23.8824
-23.4676
2.76051
40.3596
42.7943
-83.9905
-60.4436
-52.8729
24.0057
26.1172
54.8355
77.7791
19.6816
-11.3845
-39.5955
-80.1652
-55.5812
-27.0665
19.6493
87.6323
105.181
-45.8551
-31.5729
-48.2721
-97.2084
-1.30198
22.6229
37.7751
116.018
45.9252
17.3693
-30.084
-70.6153
-51.2179
-53.9529
-32.4408
18.8393
50.6684
-2.20956
-55.8518
-43.2671
61.9798
61.8525
22.9341
63.2901
103.533
-62.1301
-87.9142
-77.8359
-7.17502
21.8908
39.2124
52.1933
44.689
-46.5612
-67.4866
-70.7397
-51.6291
-3.67635
27.9009
39.8914
122.666
60.27
-46.3751
-74.1894
-109.176
-29.1029
15.0893
39.0811
99.2592
134.043
4.16084
-58.2904
-69.8396
-18.49
8.78189
24.7428
7.46616
17.2174
31.9266
-26.3736
-117.158
-52.314
-11.5427
-39.8126
15.4541
91.7783
78.6701
91.089
-1.82685
-64.3542
-10.0012
-6.90201
-19.3215
11.0763
41.0084
91.1982
-22.1166
-81.141
-138.023
-94.9019
-21.3782
32.0908
124.952
76.4363
-7.42298
11.3256
20.3754
-13.7049
4.89308
27.1101
107.164
21.3897
-88.0302
-106.898
-97.7388
-71.3331
10.3902
27.4563
84.2829
71.9302
-75.2112
-63.0392
-53.5502
-26.3516
11.2286
26.4286
79.5055
85.3091
57.789
-2.0742
-73.1472
-34.7953
35.0944
48.6438
27.4997
14.537
4.41381
-39.1673
-78.3113
-47.7406
42.3937
32.3152
47.2928
124.91
50.5273
-18.0466
-84.9178
-109.927
-73.6374
-61.0825
-32.768
4.57343
38.2489
71.9948
-16.8451
-58.2652
-20.8966
18.6503
12.1839
-5.75894
62.1187
99.9458
33.7771
-32.4447
-6.95754
4.5523
7.59063
8.77935
78.7134
84.8037
-49.9045
-76.9438
-61.8881
-77.258
-41.9421
-30.2565
5.22221
76.3164
81.1401
-48.8908
-91.9676
-81.813
-47.554
-54.4069
14.3948
53.3519
115.37
127.576
37.1133
-17.5343
32.76
27.8321
-8.93436
-18.8601
66.4956
87.6448
-47.1071
-95.6961
-130.487
-25.5746
-5.47058
-28.3521
44.2541
-2.40089
-33.2428
-8.86939
-16.8979
-13.1576
17.9314
5.60419
109.586
68.917
-25.2539
-34.6595
-56.9551
-82.6837
-1.45856
17.7779
69.5105
66.4394
5.32643
-24.511
-42.8697
10.7577
59.0424
48.8004
62.6283
29.8083
-57.6283
-70.245
-87.2351
-51.5189
-3.76693
8.2288
-7.63419
42.2903
99.8738
-5.12216
-91.7229
-87.2148
-38.7247
-13.4134
26.0752
54.4277
128.678
111.05
-63.0336
-92.3083
-7.09096
31.4896
29.7837
-13.58
-23.8987
23.6998
-16.5882
-75.9799
-62.083
-14.4064
-14.7962
37.0974
77.0363
96.927
1.87837
-5.38955
-41.0472
-48.9534
18.0102
37.4108
62.7758
63.8447
24.4178
0.22066
-0.177055
-51.7283
-19.5077
-15.0929
-32.6882
-7.31704
-20.227
-75.6275
-67.8813
-48.1953
17.8124
61.4353
63.2773
8.14046
33.5616
68.2746
-60.0821
-83.5822
-71.0045
7.02613
20.0519
3.5639
43.5718
32.6607
-68.805
-52.1506
-37.381
27.8254
58.7023
41.5279
65.7977
54.408
-43.2716
-15.5991
-23.6041
-53.8233
34.1173
56.9947
75.4512
111.175
30.289
-31.2586
-75.0852
-69.5571
-15.5284
-25.5864
-30.9829
39.1013
73.037
-48.8158
-115.337
-66.4298
38.8365
35.9517
14.8471
35.8882
95.5908
128.265
-34.0806
-159.123
-94.3248
-32.1697
-21.9442
-22.2304
38.4724
52.4369
29.93
-73.5791
-98.9531
-12.6906
34.9233
23.4291
28.7196
40.6286
69.799
6.90421
-4.79336
-27.2976
29.5419
50.511
50.7508
76.7069
28.4927
-67.1854
-68.8011
-52.0766
-29.5228
30.7958
20.7758
56.576
26.2593
-27.6636
-29.2628
-38.9953
-45.902
13.511
26.6862
15.3499
28.2394
-23.801
-29.9352
-40.8084
-55.4522
-14.0866
-0.735377
5.41391
49.6278
-36.5749
-60.9852
-24.1904
34.9821
38.1926
2.89818
11.9844
17.367
73.7057
61.8958
-26.0493
-32.424
34.9265
18.6721
-6.69195
-4.66523
70.9497
81.5823
-17.7662
-139.111
-55.8203
-2.73268
-2.48964
12.3438
5.64595
-8.49276
-17.6548
-96.2113
-82.1489
-38.3849
-6.55967
43.2401
93.4686
125.441
99.8119
-7.43423
-24.2977
-51.5791
-15.1361
8.48076
4.83881
38.7052
45.2618
-53.695
-60.3741
1.79079
35.6319
56.3078
-4.593
-11.5187
57.928
63.0823
-23.6721
-95.0523
-128.958
-70.2908
-67.3652
-54.6044
-8.62504
57.563
17.6058
-10.5404
-40.2553
30.8784
82.9114
108.554
107.629
75.1213
-33.3329
-64.5098
-63.0182
-36.1298
26.6411
19.3339
26.8615
48.4282
-61.187
-45.9101
-37.8642
-58.4898
-6.62432
6.26977
35.6535
76.348
-36.0946
-47.2013
-41.945
-6.14608
69.0449
86.838
111.911
99.2826
-68.3019
-98.6794
-74.2366
-34.6882
26.5447
15.6876
-23.8444
9.16617
80.1186
18.5427
-119.394
-77.336
-11.3128
2.96297
-5.02935
-20.7065
5.43004
76.5352
1.13861
-72.3097
103.998
100.827
3.65112
-30.0583
-8.56868
-14.4939
39.3057
54.8266
-97.7903
-77.7324
-20.888
-32.7267
5.42497
46.6948
62.5937
104.143
7.46574
-60.9889
-24.2811
-24.1904
-31.1805
-56.8841
-19.4982
49.5425
14.1323
12.5152
-25.346
-66.7555
-20.8195
12.8551
31.2976
73.3162
110.649
-64.0508
-67.2234
-41.9518
14.0737
4.52545
-14.6122
21.6233
84.1152
74.5712
7.23819
-43.0058
-23.7228
-32.6678
-41.6453
-31.7878
17.1821
68.5537
66.2862
-47.1938
-69.6789
0.577817
-4.08174
-10.1388
27.4089
75.0517
28.6449
-54.0496
-72.0281
-50.1079
15.3546
14.9754
28.6215
85.5936
-18.9708
-118.231
-88.3703
-34.8668
33.8062
60.7156
22.6149
78.1614
145.389
-14.3873
-35.2176
-46.0552
-35.3573
-6.66576
-8.57995
-9.47363
10.8373
34.0833
-37.9563
-62.48
-26.3649
7.27739
11.8282
-6.59089
-17.8145
68.0457
78.7393
-47.6018
-109.882
38.5575
80.9444
34.7087
-13.211
-6.08389
51.131
45.3931
-55.3573
-62.4289
-25.7948
-27.4654
3.63767
26.8268
26.7454
6.87542
-76.374
-47.3875
-6.29278
48.5209
35.2038
30.1568
53.5429
66.1689
-8.09727
-34.318
-65.0217
-28.5429
14.6572
-22.1343
24.1529
35.2921
-6.54315
7.97429
-16.8991
-45.0911
-29.2835
-33.0811
-9.4065
67.0695
16.6534
-18.8761
-48.6003
-39.5059
41.7351
52.9518
75.1816
68.4323
83.8128
-37.9755
-158.281
-123.484
-31.5021
-24.4708
-20.2935
11.3678
69.1236
21.7989
-18.3209
-1.91433
38.9327
36.0874
26.1212
53.4747
113.283
131.977
-32.4902
-97.8151
-84.1634
-32.0759
-3.19802
-5.49294
0.170349
24.6009
-4.73516
-43.5323
-73.6017
-34.9711
18.6929
15.1941
19.4634
42.3634
44.0421
-39.0646
-57.9843
-78.9997
-7.99723
35.0277
37.71
31.0605
116.306
110.279
-69.703
-98.1822
-70.5718
-34.5491
-22.6464
-16.7135
-24.7184
10.1953
90.2274
56.6341
-76.1945
-37.5253
-17.3335
9.07627
77.1165
86.3747
95.1931
72.1373
-102.724
-128.523
-11.642
1.9613
3.0609
17.7848
38.8696
-9.28146
-17.1785
-13.1522
-24.1872
3.79752
77.9846
104.936
176.934
41.0036
-142.857
-151.784
-149.469
-85.6012
-6.93403
-8.15073
85.3554
-23.3165
-46.4701
-8.3287
-25.4861
17.4083
21.6338
5.48472
35.5956
84.5845
56.7074
-10.4148
-67.4925
-33.7266
76.6296
72.0632
13.5277
0.964699
80.1186
62.7907
-114.576
-69.7968
-42.6645
-40.9256
-38.7342
-7.48412
51.8267
104.428
114.884
-125.521
-124.227
-22.3173
-0.0414524
7.01014
10.8043
5.60928
51.0437
-34.6611
-59.1261
-58.6909
26.5728
39.5526
31.8997
68.7234
82.5018
-34.0437
-47.7365
-56.9874
-71.9978
33.1464
74.3108
120.283
25.19
-35.6396
-35.2972
-26.6522
-43.0311
13.4344
11.8816
8.41669
73.1649
21.0881
-46.1255
-62.5301
-62.3585
-12.3038
-7.98051
-27.7454
4.8933
149.494
128.936
-46.262
-11.9096
12.0693
1.30834
-31.1949
-91.4484
-30.2155
20.9067
-89.9055
-91.8501
-52.2089
-13.7963
-6.1372
6.87189
89.6155
159.056
39.3693
-42.2695
-75.0958
-52.299
8.20196
32.0394
60.7707
80.6896
-2.64203
-26.1984
-22.9513
-33.7008
65.5132
88.2963
79.1966
69.9161
-45.6859
-92.3202
-94.3449
-105.009
-32.5972
-5.46924
-15.8301
-2.97618
81.715
69.5055
-13.5286
-2.07805
58.4819
27.4233
-1.74419
-53.1507
-62.6812
-22.0301
-12.3904
-67.1349
0.883902
31.3053
6.0057
-3.37608
20.5389
55.1788
126.138
-9.5021
-125.537
-91.2301
-3.12763
32.8584
5.54054
12.071
83.086
7.44552
-26.4562
-37.5521
-31.6278
-20.9872
21.709
41.2876
53.7159
-17.3532
-20.2246
-6.72142
-38.5927
46.1144
68.8679
51.6176
76.8934
13.9144
-58.3584
-20.085
-46.8544
-38.2231
-48.7492
-85.6759
-36.7579
64.0926
41.6716
-33.1492
-60.2918
1.23289
31.4319
3.57192
-39.929
3.14468
80.7565
95.0324
-47.1351
-49.0455
79.654
48.2065
0.652477
-17.1296
62.8134
-5.10828
-96.2041
-117.878
-73.0442
-2.45073
2.58069
25.7313
53.6367
100.507
40.356
9.53002
-27.6747
-99.2045
-42.988
-8.53599
45.267
39.6743
51.7161
90.6227
-67.1689
-33.6838
7.75484
-14.3213
-16.796
13.6446
37.828
58.4179
1.33819
-10.0718
-68.6767
-49.2103
-35.7441
-3.169
13.9896
-25.9917
-7.399
85.8103
76.8332
-42.6891
-59.8157
-44.7535
-0.686921
-5.35748
-20.0688
-1.97492
8.31374
-41.9303
-20.349
-23.8761
32.2843
28.981
29.3985
72.0751
125.743
59.0571
16.2873
-53.7761
-95.6025
-54.058
4.04744
60.4661
35.7735
-34.3435
-41.8924
-29.8479
-33.0357
12.8619
21.5177
16.8987
63.1504
-8.72287
-5.32424
-5.89183
-31.9081
-28.1099
-37.1311
-28.5118
52.7499
-10.8761
-42.7858
-60.151
-26.1985
33.5286
35.4431
20.5631
10.0253
87.0506
29.9244
-39.6978
-36.2037
-1.09354
7.16284
31.2421
18.3785
17.4785
46.4592
12.2835
-96.192
-63.7151
-4.22347
10.7815
13.9231
9.69062
-9.85234
15.6015
52.1379
-19.3028
-46.9703
-23.7709
-13.6596
21.5115
45.6909
70.4448
139.093
64.9149
-108.465
-93.7874
-59.4381
-8.84881
0.420916
-22.5117
9.80845
-4.83246
-48.1439
-33.1389
-77.8746
-69.0735
8.12535
35.4526
52.1649
137.125
80.7266
-34.2169
-57.3618
-37.04
26.7541
-8.7785
-21.5825
7.88124
70.1096
119.44
-15.3125
-76.3201
-1.37706
8.33171
-4.89072
2.55131
3.63553
27.272
-15.0011
-69.0181
-42.0274
13.8536
-8.52098
-10.4986
27.4398
54.238
-5.23563
-13.0854
-28.4137
-66.2867
-54.9997
1.04194
62.165
141.913
58.9276
-44.425
-66.3473
-75.4078
-39.6249
-8.53925
37.9665
108.649
-9.03482
-21.8265
1.91339
-22.5499
0.146695
4.6538
-26.9319
-20.7429
74.029
-8.13136
-30.6306
-86.7944
-72.9266
-2.84647
50.5615
62.2393
151.84
166.43
21.8174
-95.0721
-37.7577
-27.8484
-30.4101
-49.0972
-45.9761
-22.4736
32.0458
-5.04008
-129.268
-52.0248
-28.6449
6.70193
79.6629
105.572
112.387
53.7221
-99.9663
-123.599
-45.8911
20.5258
68.581
51.0762
64.8889
28.7655
0.575624
7.13146
-42.0558
-36.0031
21.3757
34.8083
24.3178
-79.2139
-102.061
-39.5422
-10.2978
14.6605
57.1468
22.5001
11.978
53.1753
102.064
-29.0703
-77.3603
-52.987
-18.0996
-27.2385
-31.4101
-12.1335
56.7594
36.3807
-69.333
-3.4213
33.0964
-13.6992
-41.8417
-9.68717
89.2657
99.2383
-30.6168
-42.7207
-54.4724
5.39176
19.3609
23.7909
69.5482
77.3106
33.299
-15.0072
-69.611
-76.3099
-80.2999
-45.6696
29.2027
47.5855
-13.1397
-6.66934
-22.6986
-34.5066
48.1546
42.0572
35.6966
95.367
118.496
-11.7119
-92.1521
-94.5423
-67.7742
-38.2592
-27.2235
-16.6831
3.66328
40.7041
24.2172
-9.05916
46.6245
32.7918
14.0919
-16.578
5.60145
9.27266
49.2483
-20.1385
-64.777
9.13032
9.48549
-16.3874
-22.0482
29.5302
90.3901
1.01803
-44.8592
-34.8927
-64.83
-50.3603
-7.6207
9.7232
39.2234
-3.66482
1.06812
14.3822
6.36751
27.8825
24.2306
47.9181
31.5835
-51.4549
-38.6103
-38.3379
-45.3154
-4.0529
3.95459
70.9247
102.978
-55.1141
-65.7678
-30.9132
-28.8964
13.4251
12.1068
2.17007
14.0812
82.9444
54.9378
-36.251
-36.1569
13.5469
14.6577
-9.4501
-31.6255
20.9392
65.8746
-63.3352
-101.501
6.61228
46.0995
34.5897
16.5062
60.3159
110.992
29.0119
-79.3287
-103.164
-74.1827
-8.86502
-4.22393
6.27279
-14.3181
-8.4797
23.6369
-66.8676
-58.0597
-37.8257
-27.9963
26.855
29.7708
58.1812
82.6062
2.66136
-0.513848
28.064
55.3479
23.2729
7.34848
40.6095
83.6943
28.6071
-97.6821
-80.7183
-52.9357
36.1497
22.9651
-8.74958
-26.2951
-22.5242
-31.5839
-86.7175
-139.726
-70.8516
-99.8999
-53.3489
36.3907
103.481
167.778
167.009
25.4232
37.9898
90.0536
71.3035
56.5136
43.8782
55.7824
-54.487
-134.414
-155.498
-112.045
-36.466
20.1235
61.9826
118.625
45.8731
10.2755
-46.6557
-108.172
-62.7432
-17.0419
-30.2008
-29.1953
-110.715
-84.3052
3.34999
40.7126
125.315
150.261
126.227
138.612
111.208
-33.4101
-59.1344
-73.1409
-26.6179
-12.0339
-10.6932
-21.5533
-26.7299
19.6413
-90.5465
-104.725
-36.9384
-48.3063
-76.1052
-114.794
-66.5965
42.8602
101.988
-1.59983
-1.09652
85.1892
84.6766
60.9362
72.5994
95.9264
93.7281
-11.0191
-30.5178
-66.1254
15.1078
55.3486
39.0892
21.7105
-60.903
-92.3897
-54.5425
-80.2546
-98.6671
-0.861219
11.52
78.8321
9.76486
1.12717
19.4167
-18.2815
-19.6896
39.2476
31.5115
20.4343
59.8823
16.52
-64.7114
-55.3474
5.19619
52.6752
48.0134
47.6657
53.8234
-12.5121
-171.043
-112.727
-14.0107
21.4471
44.2409
37.2496
20.3777
41.0752
-35.6469
-65.9986
-53.2115
-37.3324
0.375479
2.98259
44.1384
114.583
42.4865
-21.5425
-13.9615
8.27142
46.1052
21.3409
46.0039
66.4597
-23.9147
-37.837
-65.0633
-105.497
-45.2557
-28.3367
-10.8771
78.5833
68.5131
-53.4343
-63.8062
-129.246
-109.362
-27.9918
4.71881
117.373
180.662
88.2054
16.3853
-56.0317
-3.83785
27.6777
48.9178
45.2334
42.7254
54.6024
-12.5616
-62.8203
-38.6639
5.98069
-16.2149
-50.4293
-31.3652
24.6218
36.1175
-80.9875
-47.981
3.28562
15.2963
8.45851
13.1079
47.0295
82.3694
-18.9542
-51.3383
-67.2326
-35.5317
-31.7981
-18.8891
33.7749
35.071
-61.809
-55.7833
-35.7727
-33.4332
22.675
39.9788
79.1051
53.8361
3.24308
19.7983
15.4101
-13.3534
22.7573
37.5731
64.6964
123.006
-6.72107
-82.11
-92.3174
-80.6468
-31.6693
-11.2846
1.94855
27.5496
102.798
38.1912
-70.0777
-35.1834
17.1782
16.4867
-18.8198
-28.2841
38.2054
62.5767
-59.8706
-80.8917
-16.8992
19.0004
24.8112
19.0097
114.206
93.3589
16.1162
-140.535
-145.669
-88.4278
-8.03958
25.6755
25.2322
57.4231
86.0179
35.4489
-20.0501
-60.4904
-32.3757
-48.2574
-20.9998
20.4172
1.61653
-43.7854
-83.9858
-64.3213
-19.228
64.7624
85.7456
125.73
130.006
94.5002
-18.2781
-31.6576
-34.953
-10.7063
9.1522
26.3271
68.8926
114.373
10.9342
-133.135
-111.409
-66.3863
-64.5317
-62.4598
-20.6731
29.6133
52.7975
-31.2339
-30.8752
-23.8304
35.6185
27.2197
31.1329
85.197
63.251
-17.4382
-21.8731
-56.7341
-0.68663
51.9169
42.9368
67.3608
-28.5244
-65.2867
-47.6749
-42.7987
-71.6856
-21.8945
26.7278
70.4763
-22.9173
-31.7684
-14.5124
-13.467
-28.0262
6.16494
13.5298
31.0725
49.1697
-25.2752
-49.4762
-56.1933
-25.8304
-7.48274
23.9105
24.383
78.3976
78.3818
-51.2207
-47.8897
49.874
30.1329
14.8019
18.7779
14.8042
65.2204
37.9149
-80.5645
-59.8584
20.0135
44.2627
20.5746
20.1122
21.036
3.80074
-85.7431
-99.6002
-40.9958
32.2885
18.2525
41.4974
95.8975
61.4925
-50.8328
-46.8313
-48.564
-51.2055
-33.4834
-18.5506
52.4992
-11.2868
-45.6239
-17.7912
-9.71101
-21.6796
4.60526
-6.46578
60.4271
110.079
38.9598
-5.56855
9.60502
18.555
42.9797
19.4218
-17.7044
11.9683
74.2168
-69.301
-147.679
-103.964
-53.525
-38.8633
-33.046
-1.28388
83.3953
30.0743
-19.6876
-26.9602
7.06528
61.5629
20.5474
15.5467
141.639
83.9042
-38.619
-68.965
-108.947
-24.6357
14.0821
28.0677
62.8436
12.4539
-37.697
-34.4361
-24.0992
10.0906
26.1063
19.0168
55.5886
47.4348
-65.478
-63.4032
-56.21
-11.3154
56.7724
34.3629
-12.0511
37.1226
88.5511
26.4684
-41.4409
-29.5132
-36.8272
-37.4673
-15.396
-12.9487
43.286
112.611
-42.3828
-102.405
-40.742
-21.6046
-33.4243
-23.1702
12.801
49.6957
86.1331
-22.7123
-55.5318
-23.7603
-19.3132
-3.7491
19.9553
58.0774
31.1383
-25.3948
-39.0612
-76.8157
6.30779
55.3195
65.0781
92.4716
4.26703
-17.4568
4.11579
-8.12373
-41.2424
30.8389
49.7827
79.0162
-15.593
-29.9498
-25.7291
-46.0043
-40.192
-11.3874
12.1882
64.1042
37.9889
-76.3348
-71.0274
-59.3051
-22.3509
-8.26443
2.05897
6.81047
59.7655
46.338
-56.4881
-51.8916
-11.5129
-23.9731
-11.7927
21.1003
71.3189
14.3165
-35.4409
-95.6299
-31.5887
79.6471
92.3074
113.741
171.363
92.0833
-22.8055
-66.7988
-111.02
-82.4507
-45.8096
-47.3996
-12.7632
43.9
36.2006
-81.8861
-93.9308
-33.799
8.09783
8.30669
29.7454
102.968
42.8538
-22.5694
-16.1857
28.7673
41.6464
36.0854
3.58862
70.1922
20.8233
-27.0009
-52.6912
-64.1164
-77.0851
-52.1021
-43.7812
-13.2048
27.9876
84.903
72.1405
62.9909
43.2185
5.78038
-23.2269
-37.336
-9.39853
53.7334
-72.3003
-104.398
-36.8241
-13.7621
10.1746
1.31153
1.40022
86.6156
1.27312
-52.6703
-38.5966
-56.482
-19.7234
-11.4945
33.722
86.6429
11.777
19.7419
23.4663
-14.3862
31.1453
21.3436
45.32
67.0108
-25.7753
-33.7069
-43.9985
-41.8342
16.1302
50.2931
76.5989
90.4016
-47.0176
-109.672
-97.3771
-69.4858
-27.5112
-17.726
-6.93709
24.3619
128.384
26.7663
-95.362
-92.8599
-9.99958
0.501589
8.77193
6.08831
41.2107
90.856
27.1944
-52.5651
4.45527
35.4848
34.7327
14.2217
42.9241
71.1666
99.9091
-34.5278
-105.725
-71.621
-23.7404
-25.0644
-18.8986
-4.73223
32.6583
-21.5854
-4.30032
-27.7736
-30.1465
-24.5793
20.4293
76.4653
35.3086
-20.9113
3.86775
-4.734
-58.6506
-27.8574
-35.3924
42.523
130.447
81.2904
-52.6442
-88.0938
-93.397
-66.9098
-58.6785
-39.6859
-4.47477
90.8959
51.569
-5.06556
50.4562
90.2836
64.2086
47.6034
22.4163
80.1585
40.1623
-59.5719
-81.4309
-74.8055
-8.30862
-19.5822
-4.27841
61.1928
24.7911
-76.5753
-68.1292
-77.9686
-8.94439
12.8481
12.3688
57.418
23.3981
-17.2176
-17.8835
-12.9665
-11.8579
-14.8551
-29.2024
62.7005
106.422
-29.1802
-40.3275
-52.4464
-14.2167
16.0948
13.8299
15.2447
96.4352
123.594
-3.88569
-94.9118
-51.5708
-8.47141
-10.6629
-15.0583
22.7093
82.6695
-68.25
-129.957
-79.1433
31.0017
29.053
6.29992
9.51114
82.8211
52.2559
-45.9403
-51.9909
-54.6121
-4.50763
23.7726
36.4233
117.582
88.9169
-13.4441
-33.485
-60.8892
-4.51192
-24.0374
-8.62828
57.6732
-24.7289
-49.7617
-19.93
-32.8119
-17.5283
43.4602
64.5849
74.4383
10.241
-23.4359
-45.134
-60.4182
-46.319
6.42139
71.7144
72.092
33.5016
-57.4733
-73.5038
-58.4484
-23.1654
-7.43586
9.07804
8.72748
61.61
-4.85078
-46.1109
-39.0014
-12.0042
-5.94387
35.7008
63.0875
106.515
57.443
-35.9161
-51.4106
-7.99476
22.9596
51.5891
46.1828
64.5023
20.9136
-89.997
-131.184
-111.731
13.8487
15.1561
3.72499
23.6955
48.4299
53.141
-54.1599
-55.8201
10.9467
21.8366
-10.2393
-25.5534
24.5123
18.4411
-103.909
-92.656
-48.635
28.8002
47.5827
22.6042
65.4724
76.0786
46.0049
9.97688
-30.2634
-39.502
10.351
-24.4495
-5.4594
6.59944
51.6065
17.3704
-26.7847
-23.9263
32.2849
27.9835
-1.0591
23.8043
102.326
-14.5251
-67.1303
-45.4077
-23.4018
-0.809642
17.4598
40.4965
130.134
29.5987
-87.9056
-77.2871
-61.477
-23.185
-45.6308
-35.7239
35.384
-25.6321
-49.7236
-26.0282
-59.0373
3.44746
28.5357
41.7155
95.6679
40.4395
32.4206
33.2329
-11.0012
2.51349
42.9571
10.2429
20.518
102.571
-25.8855
-109.174
-93.4797
-44.8101
-29.1386
-26.3755
-32.9346
10.5361
87.7954
-20.3829
-62.9705
8.29103
34.9525
29.1916
4.47208
11.1346
34.1258
59.7352
0.920797
-93.2492
-32.8592
37.9444
51.3377
44.0166
19.7277
20.5682
24.8007
22.5823
-77.0796
-47.8706
-34.7433
8.71966
19.7573
-3.91112
39.7639
-9.49868
-37.5016
-42.7692
-62.4128
-23.751
43.3512
70.1433
72.734
-15.0041
-47.0633
-76.3766
-90.753
-38.798
17.7153
59.7703
100.556
89.8071
47.1412
-51.2073
-76.3759
-22.8793
3.89975
-8.40221
-17.2855
3.77237
96.4598
18.8285
-71.9574
-21.5467
-0.100935
15.408
26.6856
-15.5533
14.6525
-1.1552
-48.2098
8.90723
20.7221
44.7177
5.57326
12.4935
87.8516
34.2963
-26.9848
-2.09711
-53.6979
-66.9117
-57.3181
-24.5417
43.003
-28.4224
-0.733164
30.8111
28.3955
21.229
-56.5678
-122.95
-7.57467
87.7789
19.4762
13.7081
-7.27326
12.7987
3.34889
-28.4316
-44.2452
-2.32847
79.5046
37.6702
-86.5756
-13.0922
-14.0366
-23.496
-18.1735
41.7614
163.346
104.775
-36.6444
-74.6923
-5.05799
-3.61307
-5.23261
3.45633
2.88685
32.0252
25.7346
-65.2149
-70.8185
-36.6451
-13.7561
-8.66783
-13.1944
21.1973
-8.93596
-39.1875
-18.2532
48.7084
65.0292
63.2453
76.7476
90.7332
9.4786
-55.9686
-50.0996
-60.46
-55.2423
-1.21908
-23.4003
-3.32844
33.0164
-6.43186
-25.2452
-39.5262
0.231513
4.10979
-25.9324
-17.6414
-13.5299
45.6477
96.6067
-29.1777
-31.021
32.0774
30.5237
-14.2192
-21.9298
20.977
26.9581
-57.5242
-56.0423
26.7219
46.3711
6.08166
-3.86496
19.2955
67.756
-33.7882
-34.3001
-40.695
-51.0773
17.7719
18.2061
35.7814
73.1639
4.87975
-37.2803
-23.1949
-2.57978
39.8472
-5.79309
-30.4408
32.4803
44.9618
-36.9041
-56.1753
-64.7527
18.9143
30.4363
9.28379
16.608
136.105
44.0881
-47.0895
-101.448
-104.236
-74.1225
-34.7935
-20.8354
-2.34622
29.5441
41.2748
-11.1692
-22.0348
32.4701
53.4287
34.0485
63.0726
75.4711
75.3735
-7.15497
-100.174
-41.7451
7.2121
-3.09606
32.6627
67.142
86.5397
-25.2788
-47.5482
-41.1563
-45.223
-39.3747
-62.1035
-29.2969
45.1726
-7.84541
-1.13386
3.31629
0.246857
5.42669
-4.66758
41.8447
59.0878
-14.9381
-45.3964
-50.2881
-67.6299
-22.2163
-18.446
0.839372
32.5724
-50.3619
-12.9198
49.4583
23.8143
26.7742
23.1511
21.7768
75.7058
93.8765
-46.7077
-60.1347
-23.4931
1.09638
16.9132
11.062
-1.5937
59.5385
87.867
-9.414
-125.4
-30.099
-19.4713
-11.8821
-21.383
5.04092
65.0975
63.226
-65.9771
-51.7406
40.3538
29.5844
15.2151
13.0682
61.4597
45.185
-118.834
-128.373
-106.872
-48.0095
16.9779
80.26
153.321
55.6769
-36.4667
-21.7374
-21.509
-31.6039
-2.79463
-18.4226
53.3904
116.399
-7.69703
-63.251
-50.4214
-54.5114
-3.8815
-26.0594
-37.1119
-3.79295
84.7853
121.457
-122.083
-90.9952
-9.63671
-4.26158
-9.69645
12.4717
49.9769
92.537
72.218
-10.472
18.3209
24.6653
-25.3806
-38.6351
43.8959
120.897
-25.5298
-69.7703
-92.4684
-86.4345
-10.3594
25.2142
71.3702
98.2076
-33.9716
-38.1918
-17.0794
-12.9785
-2.43194
-14.3755
63.1897
68.3851
-46.5414
-42.8953
-52.455
-95.9036
-16.3749
-4.27033
-4.26419
48.1718
-30.5238
-26.3776
-18.4547
-9.90425
52.5604
33.1988
25.6783
60.6361
128.522
-40.8154
-70.6262
-16.53
22.3932
7.75965
-4.95117
-24.5183
27.8555
101.703
-14.8144
-120.043
-20.8255
2.73991
-13.3249
-8.11423
51.8122
77.8442
47.9842
-57.6227
-79.2475
5.97925
12.4358
-7.14434
-1.15633
36.9672
6.42573
-50.0214
-32.4359
-51.2774
-26.6335
6.07744
42.9035
63.503
38.034
-30.6762
-30.5516
-39.0285
-25.4246
21.029
12.0209
63.6981
143.813
39.0809
-69.8683
-48.5767
-33.8175
-24.9363
-39.9433
-51.6311
-20.7619
52.9995
97.1815
-70.4179
-91.1768
-34.9358
10.5938
13.4555
11.3628
41.1697
63.9267
-34.1779
-80.5412
-1.4941
62.2691
33.8463
37.8256
94.6449
47.5944
-60.3555
-42.4524
-53.3883
-61.1904
18.9638
74.9318
144.893
131.159
-92.0336
-98.8242
-81.1985
-82.1141
-31.0204
-40.4818
-6.86949
75.421
57.02
-4.04008
-1.47501
-11.3875
-10.9425
-36.9962
-44.4468
-22.3176
61.5798
21.7022
-39.4325
-54.1686
58.8885
68.2706
50.7546
24.9991
26.9787
66.6001
-1.60367
-54.9323
-66.8702
-45.1141
-67.2424
-43.183
-2.56427
60.4452
-21.118
-52.3635
-35.3936
4.00012
5.30253
24.4743
79.5151
97.2361
22.9363
33.0517
37.2091
-12.1902
3.01614
-9.19623
-5.43784
-1.93042
-81.2825
-43.6874
2.79729
-45.6944
-25.0257
-6.7187
64.4305
96.3731
-43.4081
-36.9887
0.541396
-17.8644
5.32409
-5.69035
8.60295
67.3223
54.213
-87.1501
-79.0359
-56.9562
-9.34006
18.122
27.8939
8.78068
39.3523
66.4948
-32.4836
-61.9958
24.8582
16.2136
15.4197
1.83728
33.6295
108.003
60.6352
-115.947
-101.28
-1.8679
-2.4817
-14.9504
-13.9859
-11.3488
51.9158
62.9848
-41.8866
-56.2094
-35.8047
-2.22969
33.9614
31.0044
32.131
50.327
-23.6975
-45.7242
-20.7696
2.22538
20.8134
53.8836
33.6515
20.5123
-62.3659
-48.0499
-60.9558
-55.5658
-1.93497
-10.8986
33.8535
127.626
-12.4128
-45.3415
-27.3409
-20.3889
44.2498
19.6509
17.0334
46.2178
38.8419
-34.369
-15.1458
-8.95258
43.7025
19.9207
-32.235
-20.6074
-1.40202
-51.8283
-60.9515
-60.2476
39.6997
64.4652
57.5135
53.8951
-6.49743
-22.5134
-11.0975
-9.02123
-9.99089
-6.34642
-3.91451
54.677
-11.8481
-42.3381
-59.6439
-73.9308
-38.9641
9.82526
40.2423
71.7427
9.22103
-27.1082
-0.197751
-14.4553
22.4612
29.7571
28.0752
59.4637
24.6902
-8.10469
-44.0122
-90.8094
-15.4861
16.5559
6.22376
-12.9135
28.7153
61.4293
-37.5765
-85.4836
-1.76762
47.6357
39.7058
12.5777
21.6199
60.505
33.8431
-2.46266
-52.7273
-27.129
-29.1765
-35.4135
5.19489
9.09052
30.6507
35.4074
-47.5263
-50.2036
-33.1445
-18.4226
17.6614
19.8794
28.6579
42.6627
0.976303
-24.5648
-16.3262
-21.0712
32.1191
24.7793
-22.5923
123.61
66.0278
-80.1216
-104.028
-45.0482
-15.8689
-18.0225
-11.3409
33.5713
95.942
99.0894
-69.6173
-38.7869
-39.1825
-36.3754
-53.3394
-41.9319
-20.9267
55.9785
8.98935
-62.819
-12.9832
47.9714
60.7598
72.0696
67.2494
88.1524
0.0480319
-35.9823
-58.5075
-84.8747
-5.37591
62.8934
95.1579
49.9783
-61.5248
-55.4769
-57.6686
-78.6421
-20.3861
2.25176
56.0611
107.18
-21.4316
-33.7364
-20.6295
-40.2454
-2.5559
4.01161
36.747
51.066
-60.8219
-52.4914
-46.6285
-25.2198
6.26791
4.9586
14.5768
53.659
45.0283
17.0838
-7.38337
-22.2014
50.4989
55.6658
24.0374
-1.7689
52.1347
18.8969
-98.2394
-130.877
41.0878
108.702
6.15944
-115.948
-41.6914
59.3547
-17.1585
-64.9012
-40.1382
-12.3689
-2.96287
-23.4122
-0.961046
83.8072
136.329
-19.0107
-127.281
-103.255
-35.8154
45.2371
121.801
92.5044
88.516
23.359
-48.4428
-75.7096
-33.4764
-24.0872
-18.1757
-13.1404
18.0686
-36.5587
0.735589
22.6576
31.194
110.837
132.292
109.218
65.8852
-1.99705
-124.568
-146.85
-115.404
-28.9222
-26.1373
-30.0795
9.33538
39.15
5.70121
19.5212
7.45951
31.0741
13.8235
-29.6905
-16.733
29.8346
-32.5616
-39.2676
-68.5381
-81.0039
-47.2965
-30.9938
31.838
44.8483
2.4293
3.43764
23.6069
21.7335
56.6505
62.0679
101.722
46.5938
8.15673
-1.34673
-16.3321
-33.9416
10.8743
33.0638
93.1092
-24.5991
-76.0178
-58.3053
-68.7203
-27.3082
-0.311309
-26.222
28.7622
46.582
-49.1509
-18.1563
-21.2764
26.7361
27.2222
-6.60664
-7.20361
42.179
124.614
-34.2676
-110.93
-56.935
-11.1113
-2.87902
6.80772
28.2669
82.9331
118.837
32.8715
-115.249
-32.5532
-19.91
-30.0884
-14.5939
-4.08466
31.0384
58.8454
-49.4045
-68.799
18.4508
7.01465
9.71845
5.28
0.416751
26.5897
-12.4978
-40.2212
-50.9279
-16.5288
51.6187
82.0465
83.141
65.5539
-3.95084
-8.20848
-29.1824
-90.8153
-93.3226
-55.5575
11.1842
20.3151
53.2209
-20.486
-64.0051
-58.7937
-7.03581
-2.47946
-0.934866
1.9058
52.8657
29.4952
-4.48058
12.2548
72.276
68.6442
36.1995
39.3615
107.268
4.92343
-40.4141
-39.8211
-10.1074
46.0569
24.3808
18.831
66.4792
-90.0251
-122.253
-94.125
-81.5691
-24.8538
-21.2638
-43.2539
9.30149
35.5273
11.3375
34.2404
28.0599
42.6956
38.9143
9.72747
-17.488
37.597
42.4433
-75.8028
-130.003
-40.7688
-21.25
-14.8473
-7.56256
45.7168
114.534
35.0511
-31.4756
-38.3614
12.3784
24.7626
6.58207
1.00784
16.4365
44.7494
-19.2514
-62.1498
-22.4709
27.4529
22.9097
18.1414
15.8434
68.2446
-14.9332
-20.62
-45.2061
0.324372
27.6208
36.7281
93.1925
72.3141
-63.0798
-59.282
-31.2252
-47.3737
-22.2362
-12.6793
-9.12639
34.3196
-45.6105
-38.2306
-18.5719
-43.2141
-12.1539
10.1172
56.112
123.537
0.843068
-55.4355
-56.966
-39.43
25.9427
33.1607
47.4705
104.366
45.5685
-95.9407
-127.774
-103.122
-15.426
21.5811
15.8918
2.50893
59.1773
65.4496
-18.1993
-31.3716
45.9334
46.0308
-8.9026
2.63893
106.624
118.565
23.3323
-154.665
-97.0649
-16.9214
4.71124
-10.7699
-15.6257
22.109
76.6302
10.0947
-113.352
-71.7454
-30.0035
-12.5531
32.6692
45.1665
66.5845
-7.48996
-39.9988
-48.9549
8.54975
59.2974
30.8847
54.9604
71.9935
-34.885
-60.5806
-79.9208
-85.8056
0.797625
75.8044
87.9821
124.564
-16.1234
-93.6693
-56.6463
-30.1297
32.0124
13.2986
-18.1867
21.48
73.9765
-38.6821
-53.1329
-68.6003
-8.94002
15.4528
-3.2216
6.16794
40.9692
-24.0666
-32.899
-62.1925
2.58825
62.2962
67.0673
94.8257
21.0999
-10.4646
-1.32482
-23.6512
-65.3636
5.56412
34.3051
43.4342
-47.1468
-55.217
-51.4739
-46.1962
-34.0954
28.6375
51.575
84.5433
9.63632
2.21941
-1.44777
-23.6072
12.0488
19.3549
7.96031
56.5439
-7.86522
-42.2241
-60.6302
-102.673
-25.5463
35.7099
61.8807
27.4811
44.4886
65.7016
-46.8419
-116.909
-46.404
21.4195
-13.2502
-33.8105
17.8777
112.674
169.693
15.3716
-75.8523
-37.1475
-41.4524
-41.1732
-6.52927
0.705703
63.4823
-37.9275
-90.1253
-73.6616
-6.15186
23.4738
76.49
101.168
125.813
8.2626
-23.6569
-57.6428
-104.317
-36.5212
34.1182
66.805
132.774
-28.4212
-85.6843
-72.7641
-80.2918
-27.6673
-30.2725
-25.0986
43.9653
40.7453
-17.9961
-15.9188
7.13462
52.4946
54.7832
29.4683
-8.76718
23.5924
68.0439
-20.7687
-75.8494
7.39959
51.711
12.1651
-37.5903
-3.4095
39.5884
-35.4036
-48.4817
-38.7202
2.26286
5.12155
-2.10346
76.6468
56.0372
-40.5159
-69.422
-47.6494
-23.313
17.7259
9.2373
91.4772
75.5557
-23.3138
-82.8656
-75.0977
-26.4658
10.6333
-21.9008
11.668
119.704
112.006
-62.9552
-83.1116
-36.6272
6.69657
1.88474
-13.4419
-3.65037
95.7304
60.8006
-114.885
-78.4457
-15.859
4.04499
-6.50868
-25.9299
22.8967
92.7339
43.3125
-30.4704
-38.8179
65.8071
100.569
49.8574
20.0506
8.23167
9.76384
-59.2691
-95.4536
-87.9973
-0.680351
23.2897
54.7783
87.9787
-70.6859
-92.7194
-59.1971
-52.3276
-10.1146
15.574
48.9835
62.2281
-30.6456
-7.65399
26.6483
24.5023
16.8159
32.7246
20.6234
27.9824
-19.3493
-49.377
-41.1208
-49.9951
22.1113
34.0619
31.8771
52.7994
41.6238
-38.7405
-59.431
-44.3354
-22.3315
-22.2145
-10.3424
12.0004
67.5867
88.2062
-25.8327
-34.4197
10.045
17.544
-3.4731
-47.0305
-11.0687
70.7335
1.01359
-87.6659
-73.2835
5.34701
21.4031
2.82486
-0.0646646
41.1779
84.3978
119.78
10.3908
-125.771
-75.1328
-40.66
-8.99721
9.10147
4.74737
26.5188
52.6845
-57.3854
-5.07326
-10.2939
-2.77661
12.8025
9.02723
110.868
69.1918
-52.9427
-54.8736
-57.8496
-21.7041
37.5596
33.8971
-10.0752
19.8907
85.557
-12.7112
-82.4669
-81.675
-34.9396
-11.6783
6.8615
19.4452
58.9718
66.9526
-44.2264
-27.413
25.6153
46.1302
5.76372
-13.9028
14.9869
14.6335
-59.1842
-34.7947
-59.7194
-25.6267
-16.9835
-3.59784
52.9908
100.094
-21.2039
-41.1077
-47.3847
-20.1046
22.2903
34.3957
97.9454
85.6444
-11.3881
-23.196
-44.3093
-85.467
10.1966
55.3307
76.5422
33.2892
-74.1477
-88.0339
-70.7118
-78.8121
-2.25323
19.0181
14.31
72.5358
146.385
20.7538
-84.6649
-49.3299
-24.9507
-12.4536
0.450886
16.1056
49.6327
26.445
-78.9311
-33.3896
25.1782
-1.21608
9.76415
30.2005
35.8319
79.1026
46.09
-74.3928
-93.1274
-2.21125
46.6114
15.7898
28.4121
89.281
56.8344
-17.4849
-52.9336
-90.9425
-68.0102
-42.1605
-8.32119
60.5915
8.45737
-66.3501
-26.9227
-10.7981
6.8766
17.9287
-23.5499
64.4361
87.2837
-4.75483
8.82992
-29.8168
-15.705
6.63001
0.312194
2.22816
42.1012
-22.9549
-85.0323
-93.9771
-76.7679
-22.9241
5.70743
25.6369
61.295
121.1
35.6057
-6.80515
-8.78648
23.7089
17.349
9.86944
29.7751
65.5629
-10.8799
-43.7366
-46.8185
7.18249
58.1319
26.5933
32.4275
37.1148
-11.0858
-63.7251
-69.8696
-75.9951
-25.6445
-14.123
9.29779
83.9653
43.698
-62.7604
-33.8785
-18.4686
4.27913
-18.5174
-52.8795
-26.1936
33.1832
98.0953
-33.2143
-57.2344
-31.4612
0.032874
7.30136
22.4792
58.1633
73.7952
134.047
-2.91554
-75.6748
-56.4691
-34.7791
-44.3672
-16.6801
-12.2823
16.4526
77.413
-43.7549
-78.1885
18.1541
36.229
22.8324
25.0808
42.3043
39.4885
-57.6178
-74.6106
-96.1297
1.49806
54.0038
85.8272
145.253
111.165
31.4736
-10.2885
-65.0366
-88.6772
-42.9966
-105.566
-33.0426
-18.5289
-37.6655
-5.01432
-26.3493
-29.7528
25.0278
36.6238
64.2121
123.064
7.05303
-20.627
-34.9405
-42.448
-13.5976
-12.8397
-17.6446
55.9229
142.273
55.8294
-131.717
-120.7
-63.7083
-14.25
16.6377
21.7241
78.5605
39.9821
-21.6237
-15.3129
55.5266
41.9726
-19.1099
-31.945
73.2421
35.8913
-54.3539
-82.3096
-85.9592
-52.0728
22.2706
66.4922
80.0147
85.4651
66.5011
23.6935
-81.5358
-92.1522
-54.7387
-35.4423
30.4275
36.3862
52.3661
-32.5286
-90.8234
-55.9752
-7.34586
-23.4924
-19.4463
13.545
102.86
104.089
-30.1186
-47.4424
-38.4954
-1.67425
46.5236
40.1359
51.3478
115.544
79.3543
-75.1796
-160.299
-81.5995
-17.32
3.24875
17.0795
49.0943
41.0123
-58.0555
-63.2429
-58.097
14.516
23.7609
14.5909
35.3012
89.0281
-9.11147
-24.9859
-53.4238
-14.527
50.5572
79.5918
62.5367
28.3718
-51.2276
-47.9715
-54.7047
-52.5506
-6.64843
-0.552561
50.4915
58.4576
-37.5009
-27.3564
-21.2565
-22.9483
48.0028
49.8228
19.7737
35.4963
62.3885
-35.3241
-54.5531
-78.688
-27.25
-1.99135
-25.931
-28.6477
40.3193
23.4061
-42.4286
-72.6245
7.51951
23.8593
23.4954
27.4125
37.8377
35.3371
46.1409
-35.6346
-45.4627
11.5535
5.73761
-35.0418
-5.62718
22.2137
53.6083
-3.99587
-43.7219
-37.6511
-26.4351
4.07801
32.4669
68.8413
105.222
20.0877
-1.24079
-20.4285
-49.1272
-0.406992
0.418972
46.7594
59.6121
-21.411
-60.9938
-94.5528
-89.4284
-30.4073
0.646252
-24.745
13.7131
13.0418
-12.8583
-0.695943
-21.0014
15.3254
46.2076
30.4007
43.8841
111.574
19.1834
-28.0605
-29.0249
-11.9881
-6.02315
-19.2154
-22.1605
57.9465
21.2935
-48.549
-46.7537
-41.0784
-50.7832
-36.1979
16.8411
92.8586
47.2618
-16.3903
-46.2669
-52.9949
12.8931
43.7386
35.1118
81.2666
62.3601
-9.83117
-28.045
-66.9407
-44.0107
1.0125
14.6263
60.1901
104.833
-33.6003
-90.7355
-71.4947
-20.8407
11.7775
-1.59089
-21.0351
-2.30044
77.4153
-22.5609
-57.7482
-43.8178
5.58996
2.05289
-9.53282
3.77835
41.0133
89.0764
-10.3631
-63.6927
4.08928
2.13272
-28.9694
-21.7284
36.1081
95.1487
125.993
24.0583
-80.9302
-12.6212
-21.7368
-42.5253
-22.1273
2.52269
25.9533
-47.7954
-59.5908
-59.8895
1.88347
27.678
49.7586
44.7619
84.5396
14.6257
-16.3263
-41.3196
-49.0299
-4.37279
19.3109
77.1397
101.138
-27.9201
-56.3464
-65.3739
-89.8035
-47.9534
-22.1431
-10.0377
20.076
84.6508
102.136
-52.384
-48.4429
21.9665
3.06036
-25.1615
-14.3257
21.1466
74.6901
69.3325
-70.1544
-35.7819
3.0744
-3.28679
-14.0355
8.98617
36.6235
40.7753
-72.5207
-87.3363
-64.2974
23.8565
-2.12982
-1.17605
60.1652
146.76
24.7892
-76.7534
-78.5052
-79.1575
-0.00714753
85.697
71.7564
21.9843
45.9717
64.8913
-47.028
-79.5229
-14.8726
-43.7808
-52.002
6.73678
67.1284
150.348
-7.48218
-146.869
-42.0337
19.9648
-6.13194
-10.8244
4.84404
29.7817
61.5109
-2.69257
-88.3388
-71.9499
-36.1943
-31.8786
6.26014
13.1458
92.6187
128.186
-36.0339
-76.1103
5.54009
46.3401
44.7538
51.3949
82.21
68.4671
-66.1388
-72.3363
-81.923
-33.7993
-1.47177
-15.9841
25.8576
-33.9254
-19.3912
-7.54221
-25.0755
-21.6486
42.2458
43.2998
77.9988
-12.1847
-20.597
-0.829224
-47.617
-50.4965
10.737
62.5576
79.0195
9.84068
-54.971
-88.6871
-85.7813
-36.7151
12.6084
19.8027
11.4878
47.2266
28.1168
-20.7491
-17.5505
66.0033
81.3832
53.0079
-4.78837
-16.4959
66.9442
13.6071
-105.561
-57.8287
9.48061
22.6261
-2.13985
-8.96241
-24.5687
22.0625
42.5042
-66.315
-30.9947
10.9814
18.7361
45.4909
16.7107
19.5212
104.158
41.1103
-123.239
-129.092
-84.3526
-39.8927
-7.84938
5.06148
38.7289
21.0072
-5.42611
-24.4477
-19.102
25.2138
53.3693
20.4683
51.6995
88.1483
33.6256
-32.6295
-108.8
-65.917
0.208439
5.84981
16.5676
34.7919
99.8434
113.587
-67.8051
-93.758
-37.5306
-41.657
-30.6724
1.38733
19.3678
75.6736
17.8677
-58.5243
-8.13691
36.2227
30.2203
41.4064
52.3444
79.877
15.5844
-59.505
-77.0886
-99.612
-53.8651
-1.85389
33.9227
86.5409
44.3037
-71.8645
-55.5311
-52.7681
-42.4452
-8.58246
20.9853
81.6079
34.3987
-14.9579
-21.6857
-58.9805
-33.7704
4.86199
-0.574719
28.7264
116.656
23.3266
-11.952
-65.821
-76.6875
14.2414
37.3725
30.7883
30.7396
90.2929
107.46
-46.7946
-73.3462
-21.6491
-11.5901
-23.3037
2.79979
4.23242
18.4639
34.413
-96.7017
-55.517
-13.5682
-25.8477
14.9396
43.5181
38.9924
53.2121
58.1599
-58.127
-62.0762
7.05219
11.041
3.95922
16.0296
58.7011
54.0515
-50.8539
-78.4077
-86.3812
-31.1396
5.04327
22.9939
56.0895
13.5133
-39.2897
-50.3199
-10.3484
-0.00579442
43.0674
43.7091
77.7562
87.9957
11.6132
-17.3929
-36.6216
-40.5488
2.95412
-29.2404
-40.2175
72.4563
6.72191
-83.9418
-87.6735
-16.2358
46.2224
53.5306
15.093
14.6217
6.69471
-52.2604
-21.8766
-11.2596
41.9519
28.4374
-22.3281
14.8634
6.13954
-39.1648
-36.2466
-45.9501
-0.168156
53.612
59.9713
148.945
40.4126
-49.5067
-67.1505
-62.811
-16.6971
40.5576
34.3432
-5.87449
25.2229
37.1027
-33.4732
-67.7555
-37.6516
-6.28451
-16.8109
-36.4518
-2.64967
80.1443
9.33428
-102.181
-6.82737
53.0199
47.5053
5.80694
-5.14998
10.8098
61.5309
27.1997
-57.7571
-44.929
12.9459
1.55167
-4.66288
7.68234
38.8662
-2.95896
-79.3093
-72.7863
-34.5396
3.16516
29.1959
40.7451
52.2534
77.2925
13.644
-3.1512
-35.8438
-19.6644
38.7668
16.8271
38.0624
92.0206
-51.1143
-87.5882
-123.536
-110.159
-28.7574
-1.55859
40.9948
63.0974
-12.6567
18.7064
30.3627
14.0982
47.9319
42.4263
17.2615
57.1407
-25.1009
-40.4722
-21.4862
-64.7242
7.28955
46.1466
43.7656
46.3367
85.8708
-40.967
-114.424
-62.7708
9.80821
-10.3738
-24.847
-11.5392
47.2712
88.1924
-25.6694
-61.37
-1.49673
-2.56148
-33.4983
-39.6401
0.843758
10.2672
31.012
-34.4419
-47.5369
12.2251
24.4633
-3.1845
24.4273
60.8176
81.5052
-15.5036
-41.8054
-40.2513
46.1718
32.2755
37.8712
76.9458
-7.67423
-79.5402
-52.1033
-48.8601
-35.4314
11.9679
-8.4117
16.4138
63.9263
-1.02553
-42.0749
-51.2093
-33.9976
17.1167
10.7674
13.039
56.7409
127.243
143.927
11.4585
-44.0637
-60.9671
-60.5311
-60.4417
-52.0172
-1.48782
-129.322
-274.473
-274.283
-156.01
23.6796
190.739
331.165
418.076
263.893
124.031
27.4588
-96.6821
-141.84
-105.324
-24.2208
79.8377
-32.6188
-72.2551
-76.758
-75.0027
3.9863
96.661
102.76
112.697
-33.2192
-114.449
-175.257
-194.421
-118.58
-56.6652
17.1633
75.522
138.199
20.8906
-79.122
-89.5198
-8.52165
47.6517
63.9441
40.8694
63.8411
148.217
118.424
-39.5203
-8.11947
-6.88387
-28.2653
-50.1134
-24.0012
14.6058
116.05
-7.59541
-141.056
-34.8377
23.7438
9.16926
11.2059
6.93797
32.942
7.7938
-57.2503
-36.5698
-7.16196
40.1281
67.4321
22.8174
12.8824
-46.126
-52.9556
-17.69
-51.1581
-29.0953
6.77483
36.4893
88.5057
-5.32321
-3.40925
-5.60501
-40.5655
-30.3354
5.5034
-12.4541
-22.5276
53.464
84.4026
-11.1551
-55.8711
-21.0351
10.0463
-12.3807
-44.4123
15.8668
76.5481
20.421
-74.177
-19.6858
-0.595505
0.277124
-2.02743
4.35742
60.9921
92.3189
24.0558
-36.2583
-40.7117
-49.8417
-70.0937
-61.6032
-3.76998
21.3314
5.00222
36.4136
37.8093
58.8459
51.1673
30.13
66.5101
93.2864
-101.073
-169.304
-153.62
-98.0949
-34.9744
-8.70391
48.743
186.712
152.691
42.6428
-28.1865
-16.0112
18.0871
4.03039
-14.3573
5.57695
11.2964
70.6648
-23.9201
-137.374
-19.3177
23.5422
4.42645
-45.82
-52.8573
-39.2127
10.5393
-66.5472
3.46655
87.8702
91.7953
68.9057
42.896
16.0425
21.9306
-12.2435
-67.6628
-87.5466
-79.3929
-44.2805
17.5566
42.5742
54.236
-22.4922
-9.38891
-4.13574
-14.181
-2.62508
-18.9824
26.4578
65.089
-40.0466
-29.0668
-36.6868
-37.9034
15.3746
23.1689
35.1594
91.3764
33.2078
-49.5529
-34.5109
-43.9628
-5.08339
25.2389
23.2977
18.6106
94.6645
65.4407
-29.3449
-75.0975
-33.3381
13.6789
35.7779
-23.2685
20.9664
40.3568
-75.9063
-85.2102
-28.5557
19.7111
2.08613
1.29846
111.329
106.078
35.7188
-112.26
-118.905
-65.1879
-23.1005
-18.9256
5.66836
39.0626
115.103
83.2297
-47.723
-47.4796
-6.05954
-26.3082
-5.32509
23.0608
51.1236
-21.9706
-31.1272
-5.86759
-6.57636
4.09228
50.1866
11.259
-23.9771
27.2477
46.845
-54.2004
-93.2873
-68.3006
5.696
18.6967
19.5519
37.4565
133.02
56.8776
-72.1439
-50.5855
-31.7759
-36.1441
-22.7223
-19.3114
2.71292
30.0422
-47.9215
-29.8366
12.1912
47.8848
13.943
9.99239
49.065
83.7242
-25.3481
-41.8522
-53.2881
-5.50823
48.5352
44.9996
95.9914
73.9376
11.2851
3.6798
-20.0227
-79.037
-87.9363
-68.8016
10.7281
-44.4144
-84.9786
-27.6699
-7.28046
-20.7724
51.1972
60.9276
46.1253
89.0211
15.0997
-61.0587
-35.4795
-24.2887
8.64976
-8.08517
-10.221
48.1993
79.1967
-30.6358
-89.1164
47.6919
77.7756
-0.843058
-46.5025
-79.208
-7.54556
-66.6921
-52.7075
-6.72006
78.2155
126.834
74.5678
21.4793
46.8668
-31.7943
-181.88
-150.645
-96.4767
-40.1413
-15.592
57.5893
145.195
137.093
208.364
282.146
208.443
76.7294
-43.0583
-144.153
-46.142
-63.3643
-293.125
-292.695
-201.214
-116.87
30.286
37.7002
33.1102
108.86
121.57
6.56293
-79.2556
-74.9974
-120.448
-155.742
-98.0465
25.5991
150.41
266.39
96.3187
-20.6216
125.029
152.982
102.013
90.5935
84.1281
42.1269
49.5206
16.8156
-121.747
-111.588
-97.8778
-56.7779
-39.7282
-33.8613
11.6827
-28.7857
-83.8126
-106.053
-40.544
54.2931
101.025
93.1677
73.9407
-11.9121
-34.7048
-45.7346
-65.9139
-67.5863
-17.1475
-1.18077
-32.822
-126.484
-68.3337
-26.3521
-25.1502
22.672
5.50146
-20.2158
51.5798
61.135
48.7458
-55.1999
-49.6643
33.9142
70.2429
85.4853
78.6487
121.466
105.537
-56.2604
-60.4969
34.3643
37.9117
4.57279
-26.0018
19.9797
103.978
6.26835
-12.1896
25.6784
30.5367
34.7028
-9.67982
-2.11889
14.0227
-33.2365
-122.934
-110.356
-66.4509
-11.3741
-15.9758
35.5265
-4.90137
-21.5728
-69.3895
-135.986
-137.893
-79.853
-22.2725
56.2474
105.151
146.077
88.2803
19.1926
-9.07716
1.51958
25.0957
-7.19285
-11.709
18.174
68.1119
-29.8061
-150.329
-92.5572
0.327116
74.9257
92.9644
106.615
74.8349
77.0128
27.51
-47.8804
-35.8954
3.49208
-33.7076
-64.6678
-44.976
-19.4045
-47.6909
-23.9526
-51.7107
-11.1358
57.0205
52.3232
81.4505
102.833
-27.6119
-23.8577
-19.8197
-23.0912
-11.2984
-8.12518
30.7504
45.747
-39.7702
-21.6876
-37.658
-72.5598
-38.9235
-16.1168
6.37452
12.5466
-3.18864
-14.4711
-3.12126
-3.43733
43.2725
38.0685
4.89937
56.3887
115.628
30.0358
-74.2396
-59.7708
-27.9252
-29.5698
-18.0748
-15.5323
47.9487
22.7488
-28.2452
-46.4238
15.9159
2.9578
-20.944
-32.4489
6.14773
16.0941
50.3236
-16.8713
-32.9054
49.2794
76.2119
65.6628
45.758
0.0408449
0.329005
-88.0023
-136.045
-82.1204
-32.3705
59.9372
137.586
151.304
121.111
-41.962
-33.2793
-14.328
-75.4535
-97.3863
-61.7419
-7.51286
50.7937
-3.2936
-10.4554
-14.4247
-71.399
-62.3456
-10.9864
7.50429
24.9894
68.304
-36.0003
-145.919
-101.151
31.6958
71.8924
81.7272
85.7074
107.779
148.618
72.439
-79.9428
-61.5
-44.3252
-30.41
-12.8058
45.3813
90.5755
-47.0946
-87.7462
-86.6695
-18.8258
19.1662
17.616
58.2612
105.983
-30.747
-60.2686
-51.9998
-57.8523
-4.51788
35.9453
53.5818
71.6018
4.07367
-18.286
-7.43075
-40.4176
5.87139
-12.3157
-53.422
1.77932
29.4555
-30.0928
-16.381
-44.3685
11.4024
18.9827
0.420197
-22.0847
-0.67476
58.4599
38.1511
-29.9654
17.469
38.3176
8.82121
-14.0534
6.56442
13.1396
28.5819
9.50798
-87.753
-47.4174
-23.7208
-22.1673
21.8958
24.4248
28.3611
54.8082
22.3104
-20.6367
-11.3646
5.22964
32.9255
21.0756
-9.22064
4.8203
-43.1758
-59.7494
-71.8212
-64.8204
-0.0865354
35.4201
54.727
68.9852
40.9108
5.68834
19.2857
3.13612
41.5796
42.5378
4.17979
-6.64283
3.13265
-95.7039
-82.7952
-55.2323
23.2262
35.7644
-7.26253
-39.598
28.9667
26.3125
-62.1325
-57.9256
-4.01409
-5.99991
-36.7675
-39.4494
11.464
18.9929
21.6328
52.6326
74.1168
170.593
142.192
13.2598
-29.4174
-24.1172
-68.7574
-29.9514
-21.9583
-11.2285
6.36649
19.9384
94.17
147.671
12.8375
-94.7401
-127.034
-134.049
-68.9551
-91.6628
-132.265
-76.594
6.13358
102.555
21.7777
-65.7934
-41.4777
-8.97399
13.3273
49.5571
71.3401
94.7644
59.2125
-34.9501
-2.67247
33.4996
44.4725
47.4538
34.7718
46.4509
57.6889
53.5068
-29.754
-118.618
-43.1146
-6.27943
3.32215
8.8277
-3.52196
29.3311
70.3266
-70.0853
-68.8809
-16.1905
56.125
84.2075
68.0685
52.2219
34.5465
-41.6226
-84.8296
-114.232
-99.1022
-44.7246
2.50746
30.5613
38.1219
-60.1301
-49.0898
-48.7726
-46.1572
-2.52119
-1.91786
85.2025
134.043
47.186
65.2462
22.5129
-11.7142
-25.0242
-65.034
-34.1071
11.3371
-43.4231
-43.5438
-77.8702
-56.9985
73.3118
56.3857
22.1148
15.8993
86.61
-25.9226
-77.6306
-33.4802
46.7258
24.7658
-17.446
11.3342
82.2367
131.956
21.3203
-105.246
-85.0763
-93.4797
-88.5558
-53.0323
59.9286
207.931
361.673
182.463
-63.5292
-76.237
-72.0576
-79.4393
-64.2661
-51.0398
3.53632
-57.5444
-81.2537
-101.676
-68.871
-27.4425
11.6451
22.1659
57.7386
-12.6625
-80.4722
-137.455
-188.066
-61.3685
55.362
108.955
133.648
151.35
74.0607
-19.6424
-25.8895
12.0768
24.82
23.0908
26.3894
79.1519
107.802
-25.9596
-35.6381
25.0594
35.4454
-40.1105
-115.618
-14.8745
19.835
15.5397
13.1361
-35.3253
-9.12047
48.8508
45.5125
78.6412
40.9815
-67.1854
-57.5352
-67.6277
-68.5342
10.6829
14.0664
26.1705
-28.7452
-76.4441
-59.3866
-47.9227
-6.99317
54.3613
9.18987
-26.5105
-14.9902
20.1041
49.0067
38.9887
46.6756
48.1683
24.6464
59.1694
122.244
80.8821
-83.6995
-121.074
-112.149
-122.705
-82.5368
-19.3831
-0.97367
20.0649
-18.8996
-44.4528
40.6074
68.0658
26.4531
14.8342
18.1858
71.2074
128.101
89.07
-96.1672
-76.5795
-32.253
-44.9896
-20.2502
16.6605
20.0836
72.6797
70.8627
16.0156
49.1073
25.5516
-34.5318
-25.1864
-1.93226
80.4213
46.7809
10.9475
-73.3004
-119.535
-77.9232
-19.8886
52.8548
51.9554
-46.5469
-34.557
-43.3801
-77.409
-53.6077
-22.5219
-2.16968
84.0991
103.702
31.9714
-57.93
-112.136
-73.719
-56.9795
-31.462
-15.1567
42.4434
69.8704
21.2193
7.40576
69.1471
77.2699
38.0244
-1.96414
17.2594
44.3705
30.5896
9.77667
12.4164
40.9578
46.9897
17.588
56.7653
3.85561
-72.9289
-72.9854
-71.2602
-63.8783
-20.0836
-19.9602
51.601
88.2145
-48.4046
-52.2564
-37.2634
-20.1785
-12.407
-22.6314
0.0915985
31.1014
75.2211
4.70687
-60.9936
-30.6978
5.54678
-4.70781
-0.316191
11.9525
11.4862
34.3259
-19.6048
-57.3932
-5.64651
20.104
10.483
6.44723
21.0629
19.2866
84.0858
71.704
-32.7082
-59.3671
-32.1352
-23.557
-17.9637
-29.2438
23.4716
45.097
-50.3557
-49.9864
-37.6221
-17.6813
70.7235
81.0822
97.7544
53.9158
-54.0389
-29.3653
-43.4428
-38.0428
12.9128
59.017
104.154
-29.7632
-63.7079
-48.087
-78.4484
-77.2924
7.45082
-12.5754
34.5438
-0.872172
-13.0292
12.4559
0.149775
16.5695
77.1005
38.5283
53.6131
70.3463
31.7945
-82.2693
-85.3736
-16.2176
-0.341029
-24.2151
-28.7777
19.2155
91.6512
-13.495
-64.4632
0.262399
8.14894
-17.4771
-40.7909
-1.16814
71.3409
63.4601
-80.3853
-62.6255
-15.4
33.9173
8.63628
18.4873
30.5698
62.7049
76.2311
-77.5719
-109.664
-56.1784
-21.2483
16.4801
27.4961
36.9972
81.3368
9.12754
-93.7387
-45.6997
52.8287
56.7353
37.7471
10.9255
31.0551
48.2123
-20.5826
-66.2586
-91.5304
-29.0829
-20.4768
-8.89163
-0.835465
10.9461
65.2135
-5.50523
-81.4314
-12.5015
48.2831
27.644
17.5721
29.7442
120.986
70.3662
-72.9544
-75.8139
-23.5961
-16.2049
-32.4835
-1.21241
53.2079
26.9308
-56.5411
-40.1602
-77.9574
-39.4018
12.845
34.9686
108.857
50.9138
-10.7494
-21.9473
-54.9725
-8.58772
53.5332
48.318
109.973
60.3009
-76.4387
-84.0687
-101.755
-66.2718
-11.7705
-5.03928
-1.05673
56.401
5.05641
28.1478
36.2909
46.7284
35.5964
-13.1848
-26.7582
-29.7284
26.9782
6.95425
-107.842
-67.8583
7.94228
21.1721
6.48387
5.15403
21.7879
58.9794
53.9932
-20.8171
-1.76014
-7.92225
-40.222
-38.5828
21.7817
68.29
83.2887
-35.3333
-76.025
-37.1838
-8.75836
27.3307
79.8811
66.7523
59.0748
-59.3066
-81.9272
-73.0361
-59.4832
-20.3438
-1.53985
10.7531
67.6604
6.51927
-33.8974
-22.5697
-28.7016
39.8889
52.404
28.835
65.7267
-2.02255
-117.203
-95.7672
-75.3034
3.49278
44.4077
53.9973
20.5655
57.6217
115.972
-41.3559
-102.659
-33.2754
16.2133
28.8437
38.7973
62.3681
86.464
16.4224
-40.244
-27.8545
20.9025
17.0969
-4.54128
30.1804
13.3767
-85.8341
-76.3255
-54.8504
-39.3882
26.9147
40.2436
86.492
93.8571
-34.5006
-46.5977
-34.9072
-31.5673
-17.4685
-23.1015
15.7732
97.1559
-45.5926
-123.352
-109.477
-88.3777
-1.7689
20.3097
35.5584
