-97.0488
-105.933
-112.74
-79.4244
-91.9433
-87.7648
-72.8065
-82.7631
-18.1035
149.548
118.631
22.6877
-82.0341
-62.0118
-6.94439
33.8574
24.8776
24.8456
134.28
125.799
-20.4439
-115.99
-116.937
-40.7972
-10.7724
-84.1307
10.9201
99.5224
122.864
2.45264
-44.4055
-28.2848
20.0763
23.9236
-47.093
-1.39886
-28.4802
-17.0736
12.1626
100.402
129.392
135.653
127.672
160.932
59.6828
7.51712
-79.244
-92.6508
-121.199
-184.191
-146.449
16.6436
5.42529
-32.2445
13.0355
6.10334
19.4617
-8.54863
-79.395
-15.302
-0.73654
43.6279
101.421
60.0173
-11.8778
-12.9853
-50.0848
-71.7048
-11.7177
23.8224
36.5655
-24.0924
-5.54199
57.258
69.97
34.0335
74.5144
34.4524
4.06904
-99.7437
-145.628
-125.26
-148.358
-232.687
-95.7168
-54.0041
-15.4976
90.7963
142.131
187.095
183.732
63.8619
111.884
59.6787
-71.1106
-128.643
-115.513
-42.8741
4.09079
8.29358
72.8254
139.534
120.822
60.9795
20.2764
50.9683
-11.1678
-12.8593
-11.7479
9.09049
116.6
146.554
99.4845
95.1668
75.9439
3.65354
-64.8553
-103.659
-188.416
-226.275
-213.46
-237.955
-171.211
-65.2374
-51.7609
-10.2953
19.7863
28.2659
140.187
110.597
23.0467
5.24466
-24.4605
-19.0536
-50.6683
-83.0856
-89.3802
-74.3885
26.6064
62.755
62.2925
123.829
177.146
278.298
299.032
253.38
207.311
135.623
-13.0876
-109.516
-229.213
-277.141
-173.675
-172.332
-107.287
-55.4128
-46.2039
-16.6585
-9.57338
-44.7084
-20.4427
0.44995
-49.8683
-64.7258
-46.1906
-46.8271
-13.8755
-19.8436
-131.659
-78.5656
26.5144
118.145
108.785
107.343
138.437
185.871
141.874
143.123
186.231
145.874
73.0674
20.6618
12.3136
-52.4053
-157.089
-162.535
-48.3535
-67.2898
-96.6253
-100.228
-25.4077
27.6123
-30.5886
-53.7138
-59.8059
-21.0787
-11.9275
-26.203
-88.3748
-58.5605
-25.927
-38.0029
-62.259
79.8067
128.114
74.1557
-14.7506
-6.00258
49.3961
47.1567
-40.1331
-121.787
-8.16558
50.5763
54.104
-0.872865
5.9209
14.3063
17.5021
11.2912
59.5952
99.0892
102.493
7.34567
-4.70431
-7.22665
-88.1266
-114.216
-14.7392
87.9036
102.195
93.4132
-14.2627
-29.9969
-26.6572
-108.641
0.925349
60.4438
48.8388
27.65
-56.0453
-117.764
-118.431
-153.326
-94.0366
-77.6887
-10.1397
83.465
147.232
225.225
282.288
248.401
179.119
148.359
25.1348
-15.5532
-151.803
-209.374
-191.762
-208.097
-269.863
-103.753
-39.6455
-51.235
-87.5
-58.7081
-20.4103
-16.9932
-67.6252
-159.139
-158.575
-33.7642
-34.0406
-57.9094
4.73665
75.9832
117.52
151.047
173.231
254.1
364.763
221.905
165.622
115.235
65.9276
62.0733
-5.14842
-87.77
-70.6049
-20.5095
-17.932
-65.2827
-78.1807
-60.4402
-28.9008
-53.8172
20.9388
68.7854
24.6976
-30.1276
-101.707
-111.584
-95.3597
-134.756
-0.38935
125.221
137.201
128.63
42.0045
-96.589
-153.556
-204.537
-183.88
-62.277
-34.7917
28.2793
31.009
6.36527
22.2927
24.2137
-25.7799
25.4008
55.7795
96.1787
25.7718
-34.9071
-41.6393
-71.9598
-103.89
4.90444
21.1617
34.4243
26.0452
-9.24182
42.9174
9.50959
16.8704
68.1109
54.369
49.3587
80.3889
52.903
40.8557
18.3128
70.8265
64.08
40.5385
54.167
58.4125
-12.2789
-22.435
-45.5626
-4.73537
-7.34974
28.8263
5.62586
-85.3123
-172.68
-152.965
-85.7135
-81.7792
-120.333
13.0271
86.7651
42.1225
11.0331
73.3545
150.93
168.844
102.804
43.6068
102.267
20.7338
-91.5314
-141.643
-124.288
-170.013
-138.5
-62.9874
-22.8018
143.335
152.347
41.8515
-46.1426
-149.992
-175.82
-210.195
-177.613
-24.0487
31.9971
87.4512
60.3531
50.8987
56.181
7.99011
35.2312
163.198
117.283
82.596
60.2995
-13.9409
-5.26639
-27.514
34.1699
136.16
117.864
59.6014
8.82237
-56.8283
-26.7263
-29.3722
-74.755
17.1701
72.0227
45.7694
18.8684
-43.8207
-34.8031
-55.2192
-53.658
-100.08
-15.6546
34.7178
63.7683
54.9505
51.9091
51.4949
15.5092
-81.3902
-71.8913
-87.2225
-93.8631
-119.71
-109.216
-13.8562
71.7763
25.8792
49.4221
57.7845
76.2775
74.4058
-19.0821
-67.1711
-79.0333
-134.734
-171.657
-20.8189
41.0222
77.1218
78.6856
88.5089
72.4166
-11.8188
-86.94
-18.2319
0.97226
29.374
18.7409
22.7484
-7.88536
-27.6329
12.8751
74.6212
74.2692
62.2426
76.9825
48.3783
47.7501
-2.43895
-144.543
-113.32
-108.942
-43.4365
59.8684
82.6508
141.147
199.761
151.792
57.2866
-28.7011
-53.8846
-78.4907
-86.9339
-66.4927
-132.23
-245.322
-205.345
-122.154
-41.1928
94.1329
142.32
223.131
238.838
130.704
92.6503
-0.947609
-128.277
-123.919
-50.1053
15.7598
10.7045
-73.2692
-92.1578
-58.476
-39.6095
-2.08197
-67.8674
-61.3527
-39.1392
-65.3383
-106.672
-15.6082
76.6441
92.5115
61.7417
43.2167
26.5234
-14.0316
-64.326
-62.4954
-28.5743
145.014
143.41
67.5402
77.1705
127.852
115.917
82.4247
40.781
-14.7819
-30.4852
-24.3377
-84.8223
-75.972
-92.0332
-23.4555
93.1477
81.6907
136.658
235.075
170.292
-12.3191
-103.921
-99.4403
-102.776
-140.906
-129.653
-104.259
-136.544
-128.336
-131.888
-181.113
-180.942
-210.625
-235.776
-102.881
51.5981
166.865
203.147
154.926
192.281
201.469
123.881
22.8405
60.2642
144.679
125.778
-0.916081
24.8457
64.4862
41.6493
6.72203
-14.6992
45.1321
84.4784
-44.224
-135.383
-185.915
-230.113
-226.258
-201.741
-57.0449
76.0448
144.544
192.555
192.319
111.995
65.7735
-23.1253
34.2216
91.8801
131.309
180.088
182.851
130.815
47.2171
-93.9152
-141.884
-227.047
-331.84
-270.959
-240.321
-177.58
-107.288
-185.441
-148.315
84.0039
127.793
146.352
106.173
76.2552
11.5102
-37.0198
-51.4767
-68.4906
52.7161
117.043
170.639
210.12
226.344
216.883
153.129
113.713
19.9238
15.2689
64.7746
-69.2368
-117.741
-148.167
-193.18
-169.508
-190.989
-140.133
-70.9241
-42.1743
-70.248
-28.3397
8.18301
8.79362
-8.64124
40.0556
90.4509
46.0686
124.82
172.767
91.3646
22.9095
15.3131
84.3977
120.984
103.863
98.2706
45.6966
-1.32989
-14.3684
-140.548
-250.058
-276.937
-183.788
-66.5675
-62.538
-108.984
-119.703
-168.325
-206.299
8.14916
140.917
173.592
162.764
166.822
159.101
129.911
-23.5871
1.54486
42.1063
83.5913
75.9262
63.9801
61.6237
93.7697
77.3926
94.1901
28.9715
37.5787
118.585
20.1204
-89.3953
-151.726
-240.685
-227.453
-62.941
-32.137
17.2466
10.4004
14.5644
22.3536
-5.72101
-97.5158
-97.0258
-80.8214
-111.55
-99.5078
43.2723
120.3
98.9367
-15.7654
-54.4826
84.4741
178.12
152.676
-30.8319
-127.368
-74.7965
-67.6187
-73.327
40.7784
170.09
194.746
122.895
47.3654
32.3682
-17.74
-106.064
-113.179
-78.8614
-89.563
-71.7283
-86.8173
-64.954
-84.4858
-106.598
39.3747
107.599
120.735
124.123
52.1923
2.0612
-32.7827
-75.3018
77.1153
132.838
80.4244
89.2052
42.6854
-49.6061
-47.9354
-53.7298
30.8526
62.9717
46.8625
19.51
-25.3745
-42.3615
-56.6822
-126.768
-135.579
8.17745
56.6219
69.0621
-66.2568
-122.753
-97.6915
-45.9803
-51.1103
-7.49196
130.512
207.427
122.102
51.4739
5.20971
-22.0588
-73.2369
-92.5117
-106.561
32.3279
59.165
-30.742
11.5954
48.6216
-12.8434
-41.223
-42.1685
-83.1601
8.38903
92.6175
21.5095
-20.5159
-54.9854
-41.737
-2.02447
-11.5473
37.5446
128.866
99.5308
9.69481
-53.6208
-85.0491
-49.2966
-61.2022
-59.4175
58.057
92.1573
98.1189
27.9103
-46.3337
-56.1452
-56.2136
-95.7638
69.4627
83.459
116.868
151.981
109.621
102.187
66.8227
-17.5469
-153.821
-133.048
-48.1464
26.1448
12.4054
0.239129
26.4368
-27.515
-119.924
-63.1378
-29.3483
16.5326
-84.4052
-62.2257
53.2581
2.79182
-129.649
-68.8711
-42.5759
59.1393
147.964
109.666
42.9786
-90.9506
-123.304
1.57374
-63.1226
-59.9567
12.5087
-9.66714
-14.8188
-15.3094
-11.485
98.1196
56.8283
60.2293
123.833
108.325
81.0783
-7.61017
-35.2758
91.4504
89.3142
15.3484
-75.1043
-156.456
-96.4818
6.37566
10.427
-51.6382
23.7185
139.07
71.817
-30.9932
-42.2806
-43.9005
-48.4927
-81.3498
-95.1904
-93.032
74.7127
33.9189
28.0567
119.909
134.563
56.576
27.369
-31.5239
23.3975
71.9024
-7.67714
-83.5773
-81.5493
-72.9572
-68.2165
-78.9048
6.69107
111.713
112.7
121.667
22.4157
-80.1497
-113.504
-137.883
-72.108
-68.2469
-119.131
-122.192
-86.3353
-40.5818
-1.1206
-13.706
-15.6105
48.9653
78.6003
77.0875
44.8302
-11.6309
20.1246
113.597
143.614
95.0259
109.936
213.431
102.312
-46.8924
-92.6596
-58.7395
-6.23309
-25.5494
-26.9059
71.1839
59.6173
-28.9573
-62.7618
-11.9317
16.0562
-49.9375
-72.8735
-33.4006
-126.059
-125.187
-77.3709
-58.5426
-7.36134
71.3114
91.0585
161.077
187.839
139.25
90.4126
11.6949
18.8649
-26.2481
-95.2564
-200.599
-214.302
-82.0661
-54.6137
-59.8146
-9.14403
-1.82149
-46.5169
-22.1011
-15.6919
67.5892
219.224
137.409
53.5872
-3.07254
-72.3669
-92.0932
-93.9554
-102.566
-63.5754
37.1374
-9.52867
-15.6171
43.561
17.4361
4.77892
3.67939
8.06251
90.1935
91.8179
62.7739
12.2712
-17.5368
-42.9053
-37.1801
37.4086
100.652
105.031
131.887
123.487
90.9462
64.6007
-84.9049
-103.367
-105.491
-103.324
-65.1406
17.829
-32.407
-52.1125
-54.8046
73.5033
104.751
54.5419
-2.45214
-89.0769
-130.62
-92.8661
-128.032
-87.6721
50.9803
55.0159
90.3933
95.5517
108.846
82.5012
-36.2694
-128.087
-81.7679
-59.2275
-57.5414
-146.02
-140.711
-114.366
-95.6612
-75.529
108.531
187.231
167.614
131.672
49.5584
42.85
28.6019
-11.9244
-71.2514
12.3266
147.399
170.775
67.9454
30.598
29.8569
9.06431
-65.6206
29.6458
73.2761
61.8067
-103.87
-175.037
-88.5782
-34.2537
-38.8333
82.7495
61.1742
0.548855
-57.8695
-156.431
-113.476
-24.5948
-42.6898
153.546
216.877
158.968
118.036
15.541
-32.914
-57.0449
-126.101
-218.247
-113.461
10.5694
-4.17217
-72.7824
-84.9548
-102.875
-113.509
-136.217
-92.2753
-70.865
-23.1386
-49.1382
18.7584
111.841
185.247
192.555
314.138
336.096
272.122
184.447
15.3917
-105.409
-102.711
-165.978
-104.052
1.19992
52.5241
99.947
58.2685
19.5082
-45.5495
-109.275
-18.9984
-67.0744
-111.717
-127.698
-143.902
-77.3389
-24.5519
-0.3703
-32.6091
-12.7118
-4.05312
-44.0828
-119.195
-98.3024
-3.15506
89.1941
110.543
95.6645
190.008
221.495
48.1901
-11.0479
-2.05895
-28.312
-99.1059
-159.249
-192.504
-146.963
-37.4044
-65.4105
-115.443
9.59467
138.318
165.115
158.856
145.42
237.145
177.331
52.319
-39.4258
-64.7466
-63.501
-104.685
-130.784
-44.6332
-11.2723
51.0126
90.6322
69.4222
95.6958
117.503
163.113
138.393
39.9147
-32.0828
-64.2118
-144.466
-124.493
-138.829
-209.38
-173.498
-179.524
-180.589
-128.543
-110.071
-63.3083
-29.1431
4.94263
-61.476
-5.96801
152.254
111.057
109.821
120.093
133.476
130.946
28.1824
91.9784
127.323
89.892
9.71454
1.49947
13.063
8.30319
-51.2477
9.41611
114.252
95.5161
94.2607
21.2617
-47.2153
-87.8756
-204.107
-214.116
-68.7158
-48.0398
-32.1332
-24.1646
28.0675
98.9548
116.612
101.637
29.0749
-5.7718
59.2209
69.2074
-42.0605
-74.2731
-84.8547
-104.3
-124.387
-122.228
-101.074
70.2249
1.33759
-23.8397
24.4572
27.9835
37.3028
88.0601
80.1413
70.5901
57.534
-76.656
-127.325
-127.889
-99.6168
-30.9131
4.52732
-7.86888
57.5287
43.0594
93.7206
55.8496
59.8801
124.629
160.258
106.806
106.606
29.833
-39.6717
-119.431
-116.96
-14.2332
25.4864
63.6409
126.196
86.3388
67.1316
41.5762
-47.7121
-53.8444
-93.1359
-176.904
-184.257
-197.696
-261.73
-251.147
-224.328
-143.711
-44.532
60.0827
69.6531
181.888
261.426
209.68
145.088
111.829
64.081
-6.18728
-97.4344
-117.586
84.9967
221.747
275.706
316.127
335.594
273.002
47.5062
-183.546
-247.888
-238.274
-75.062
-113.608
-192.146
-213.591
-208.031
-136.751
-31.6687
-14.0739
72.4578
109.915
12.7189
-65.2366
-111.824
-136.028
-193.92
-262.16
-93.7493
68.6011
136.664
169.707
159.294
144.997
85.716
-27.9354
-65.6522
32.7831
60.5721
121.728
131.054
168.788
177.61
134.073
-1.59168
-139.601
-144.636
-30.4228
-82.191
-62.677
-16.0451
55.592
67.862
49.8283
82.432
183.375
142.141
52.2449
44.1454
59.9752
-12.289
-149.669
-207.548
-221.43
-270.539
-197.578
-84.7396
-3.97189
29.2545
7.39886
-1.52372
82.9153
79.15
100.37
-21.3997
-181.47
-196.193
-214.226
-164.319
9.41377
59.1647
135.055
127.452
102.492
173.982
174.266
58.9913
-0.586318
71.3692
155.618
110.048
6.89426
-35.2074
-52.6047
-5.63338
46.8641
95.9199
125.537
88.4512
-45.593
-134.472
-204.802
-207.907
-107.353
6.0886
65.385
174.9
241.648
111.132
14.6593
-33.1121
-123.865
-171.514
-221.376
-153.641
-72.7093
-86.2161
-107.055
-119.776
-128.291
-64.3271
-15.5911
193.491
291.703
267.803
193.904
65.3549
-76.5147
-160.575
-293.335
-204.399
-39.3091
100.573
218.393
215.425
186.92
128.663
33.5862
-75.4724
18.3674
83.5402
131.962
53.0383
-52.5397
-91.5364
-130.606
-203.942
-271.041
-73.7489
140.024
70.264
9.86145
-2.17866
-11.4096
-6.64188
-28.6715
83.2663
175.428
191.582
93.175
52.6455
27.9795
-137.729
-300.325
-232.041
-119.451
-30.8158
7.23038
-72.3317
-35.8852
7.43151
-76.9938
-28.0516
66.2934
17.3606
26.4428
12.4452
51.8773
153.583
121.965
121.861
134.452
55.6518
2.06738
-77.9655
-132.444
-79.7324
8.19705
44.5975
53.0169
125.056
135.86
80.287
-40.4806
-67.1519
-45.4869
-89.1305
-186.772
-165.83
4.2702
-38.9976
-96.2848
-26.9553
37.8114
70.8347
100.618
83.226
163.02
202.358
175.389
136.936
120.347
32.2398
-77.4573
-162.633
-116.707
-141.727
-145.474
-176.311
-240.692
-166.331
-112.199
-62.4185
54.7087
67.9167
36.1272
46.5404
5.10681
-23.9444
-48.9775
-95.1579
-19.1722
1.67844
51.8087
87.2255
37.6508
42.4038
93.618
115.741
47.0362
86.0519
186.394
214.458
197.325
107.76
28.3279
-38.2851
-113.421
-128.507
-11.3486
-8.79775
-75.5582
-71.2509
-4.86154
62.5629
-13.8744
-58.1448
-35.5171
-49.6774
-51.3084
-69.5292
-87.3979
-81.2251
-151.807
-142.853
25.0535
65.3401
10.4208
-18.6186
-28.2441
24.2429
76.4049
81.3544
-13.6735
-17.1999
104.333
90.1437
78.0326
82.1327
86.255
90.9519
45.0524
89.3754
44.7019
-26.872
-145.368
-189.569
-154.855
-111.071
-149.617
-200.042
-132.569
1.51885
81.2117
138.088
127.194
105.343
61.3908
-0.571514
-23.9664
44.5615
34.217
-32.2482
-5.02891
62.5581
51.9239
-17.0114
40.534
124.447
51.4424
58.4272
22.955
-66.618
-85.763
-128.024
-51.446
50.0115
46.1194
52.7114
106.158
24.0393
-37.3902
-54.0751
-15.141
23.2475
-0.24296
64.5188
35.5234
-70.0406
-112.603
-142.383
-92.9485
-92.706
-56.6802
31.642
49.488
65.4993
103.292
45.482
-88.1729
-38.7122
-45.5651
-93.9164
-124.31
-126.541
-88.1591
21.5958
37.4814
57.6862
208.302
365.388
303.415
228.358
126.02
-3.26047
-124.721
-161.67
-214.919
-111.755
-70.1896
-136.248
-130.767
-104.622
-6.64581
78.48
101.834
162.637
177.108
189.293
116.656
-53.1406
-169.822
-271.16
-241.162
-15.145
-10.5874
1.48908
61.1608
53.6863
16.3213
-90.0295
-64.9939
69.4285
95.5342
58.6183
24.1049
-54.9138
-58.4954
-69.0013
-121.919
-154.447
-12.3109
127.35
133.373
28.0047
90.1547
129.568
119.378
63.6292
62.9519
173.439
168.172
89.4178
12.965
8.45672
18.1427
-83.9122
-97.8132
-136.643
-160.3
-84.8501
-97.8867
-143.069
-143.684
-178.684
-88.356
-54.0443
-21.7814
41.8133
99.3385
69.4851
62.1766
-14.0014
-10.9263
47.4555
62.8737
90.7984
52.0442
44.4652
58.6312
-13.6221
1.65504
118.281
103.844
43.7404
-39.3685
-54.8316
-26.4216
3.37017
0.218367
-114.534
-159.165
-215.798
-130.515
-51.161
16.6555
95.5129
135.428
92.9792
34.5369
210.526
231.893
115.17
93.1204
78.1524
18.0879
-47.5054
-141.99
-133.031
-108.01
-136.041
-14.6857
121.714
71.475
-49.1808
-154.982
-110.045
-116.913
-128.302
-87.7955
-70.7252
-40.1557
-20.6995
-27.3428
53.2509
97.765
71.7003
44.8724
-2.09224
2.79124
44.545
-1.27504
146.611
201.69
175.221
117.515
57.081
52.6599
40.2369
21.8262
-103.534
-19.8917
44.8377
21.185
-92.1396
-192.254
-176.346
-89.4515
-84.9993
-133.386
67.144
131.317
7.40182
-96.8209
-157.633
-153.269
-157.353
-77.8809
66.2652
105.482
127.376
47.5288
17.5439
79.9135
90.0662
70.0007
245.267
240.467
201.344
183.208
61.6376
-29.0229
-95.2461
-159.468
-100.725
39.8517
-6.44815
-74.1689
-144.251
-213.012
-248.858
-310.734
-225.033
-19.9099
64.5713
140.771
73.6538
28.5389
54.8583
101.595
32.7108
-2.74396
171.743
195.398
90.2883
-43.233
-50.6311
4.73261
57.4763
100.504
140.725
128.656
22.4488
-92.8803
-102.095
-117.063
-191.299
-205.012
-120.425
-107.705
-99.3394
-90.8981
-120.225
-18.0503
77.6478
145.632
226.766
162.25
151.415
161.155
113.278
69.844
6.9003
-57.9551
9.21686
-39.3639
-72.8559
-29.2989
-21.9932
4.81127
-11.1418
10.6757
57.6394
-8.76107
-58.4065
-57.5436
-77.4591
-81.6741
-117.803
-184.96
-138.777
17.979
99.7748
108.754
45.9535
61.5185
75.6455
85.7319
-24.0534
-57.954
97.5675
104.955
-34.9718
-96.584
-102.207
-41.6037
3.33928
15.4721
-32.5822
152.774
140.275
-23.901
-71.2358
-52.7511
-47.5093
-35.5089
-86.3399
20.0317
22.6954
26.2365
-9.15225
15.1795
31.9869
59.6591
132.334
138.67
28.216
-33.4108
-34.8521
-83.3136
-36.2358
12.0822
69.3811
170.745
129.389
35.9062
-35.5904
-137.763
-123.339
-99.1987
-147.844
-151.826
-74.8416
-38.7681
-73.4274
-126.935
-172.014
-113.059
-6.83786
14.476
83.5435
217.332
231.737
132.311
95.5112
93.076
104.777
1.04809
18.7352
23.6792
-4.95404
37.9989
3.85098
30.5081
42.4817
-4.7767
50.8699
50.0481
7.71747
-72.9934
-217.889
-292.744
-290.221
-312.994
-185.905
-51.6111
87.2946
186.056
190.456
222.027
255.941
138.029
73.973
104.7
74.0548
91.8665
80.274
69.3051
27.5353
-1.68918
-48.8422
-137.575
-55.8451
-16.65
-25.5682
-5.66238
-48.8639
-85.5231
-115.863
-166.233
-188.758
-80.4281
-51.0442
-98.354
-70.3002
-56.649
-33.073
0.338939
-17.7204
-21.8105
122.997
111.55
70.5366
89.7196
90.1977
85.8564
73.1754
118.116
174.817
86.6116
78.9011
100.786
76.2748
-51.1071
-207.76
-112.213
-28.7199
-13.9413
-5.87086
3.67832
-55.081
-45.8964
-73.3602
-26.637
47.1197
62.7888
108.392
45.1869
-71.4533
-88.5323
-106.173
-183.438
-191.94
27.9204
150
88.8388
37.0756
13.4006
68.6242
133.159
68.9363
185.145
210.83
87.7183
-77.1672
-195.54
-244.003
-205.194
-164.671
-7.55448
-84.5753
-141.222
-92.0507
-93.6586
-9.54316
20.692
-2.93654
88.8403
233.326
161.42
90.8938
-2.5809
-30.1976
-10.2277
6.0876
41.8537
66.032
122.922
109.675
52.0733
112.481
126.558
67.6147
0.450258
-76.4528
-117.972
1.96969
-30.6726
-134.295
-152.074
-143.952
-140.846
-110.732
-91.2873
-90.6794
77.0172
131.941
110.686
162.499
108.245
-2.66115
-60.2317
-105.936
-56.7487
34.2185
49.0738
35.6097
55.2672
75.6623
101.088
66.0956
2.17409
10.9463
10.1165
-12.0667
-114.107
-149.499
-155.135
-197.304
-204.748
-48.8314
-109.957
-72.1536
-10.659
66.5337
176.133
136.136
108.482
104.062
41.3226
104.318
157.337
114.239
101.112
10.7269
0.0576586
69.8688
-47.7743
-93.2638
-64.4179
-32.4307
90.3053
129.297
41.0472
-31.4602
5.71341
-90.807
-148.982
-127.985
28.492
101.656
48.4328
-68.1956
-80.5604
-62.2264
-184.974
-274.047
-211.932
-100.083
-23.8675
-18.8285
36.2332
208.579
242.769
197.444
67.9863
73.868
83.2258
-24.7008
-176.736
-147.087
-51.716
6.07297
17.385
77.8873
161.939
162.096
95.2929
97.464
59.6181
43.3603
55.7772
-47.244
-73.6043
-95.8831
-107.762
15.2079
13.415
-39.7678
-28.9642
-57.75
-131.914
-123.658
-128.561
-162.776
-29.205
37.5512
94.7284
149.533
139.491
104.65
99.5641
-6.18144
41.5418
186.32
133.496
7.42301
-83.9002
-112.462
-109.018
-173.55
-157.987
1.74053
35.1519
79.9975
63.6652
38.0793
26.3299
-68.796
-66.0384
14.4232
-65.0908
-128.846
-147.578
-161.54
-102.964
-92.4697
6.4667
90.6726
113.734
130.813
134.748
71.7301
57.5201
78.0294
136.144
88.0661
-23.4846
-71.3133
-29.8734
-9.72189
59.5288
80.688
-33.39
-48.8908
33.5728
52.4772
42.0486
53.9122
91.5055
104.53
86.1812
-1.89468
-100.15
-76.9135
-155.928
-164.789
-41.988
23.8027
25.1285
-20.1292
-91.022
-39.1851
33.3932
-85.0516
-89.9089
10.4802
52.1291
37.7764
-23.0161
-7.83779
-9.04355
-43.8057
-0.362053
11.6859
-8.55084
6.64798
-50.9535
-40.2255
-51.1231
-2.50704
102.437
102.914
83.6851
54.39
5.96525
50.6434
-32.0045
-69.8939
-82.3414
-136.706
-108.197
-58.6889
1.5839
18.1542
118.961
145.519
161.574
106.382
70.0571
33.2943
24.3277
-16.4638
-10.5604
19.4865
-33.6904
-75.9134
-29.3132
0.180449
28.576
10.8746
32.7782
-3.95536
0.0284285
2.17081
-41.2653
-17.4275
26.8523
-42.4404
57.1721
45.246
-15.4159
-28.0222
-54.2902
-68.1085
-83.743
-103.055
-117.856
-20.8009
109.731
65.7729
-20.2369
-15.9752
-25.9674
-46.9875
-100.462
-123.849
-3.73559
78.0896
25.2167
47.62
93.2394
132.056
160.452
148.617
160.851
63.6176
32.7172
35.1125
-75.7447
-77.6178
-83.2015
-92.943
-126.327
-196.926
-189.973
-133.48
-91.2076
-7.05281
37.1636
43.0102
9.01884
-67.8719
-4.36595
126.1
90.6028
58.1976
43.5385
-8.2959
16.5962
17.6099
67.9826
80.712
102.933
157.831
135.841
79.1489
11.9063
-7.01938
71.6743
19.3552
26.2588
39.7437
-76.1499
-160.421
-165.087
-139.837
-35.7336
3.46021
4.17242
13.3607
-16.664
-3.12759
18.889
17.1481
-38.0857
-55.8608
-27.6149
-47.8739
-115.087
-96.5319
-52.9984
4.97555
-31.3479
-139.098
-26.68
37.2086
7.64374
-2.83305
57.5442
170.899
166.764
104.706
-38.413
-48.9437
-40.2123
-12.2298
37.6402
128.11
166.271
195.186
91.9974
54.1378
45.9422
47.5124
-39.9282
-94.6373
-104.087
-149.175
-183.133
-87.0454
-31.4247
13.5345
85.9392
61.9247
39.9281
-0.992557
-171.158
-210.418
-165.626
-172.283
-64.2128
10.6233
58.0723
102.141
115.386
90.3085
52.2484
136.658
92.2743
-3.05583
-35.5885
-19.8143
22.4582
10.2236
57.114
164.431
220.542
183.183
41.7616
-4.81545
-41.1461
-113.293
-74.4147
-44.6031
-99.3588
-93.7819
-78.0318
-112.331
-93.7241
-126.836
-105.521
-29.5845
0.77809
79.0095
72.6874
1.0453
-8.24037
-87.8297
-76.9133
35.1957
77.7506
88.821
58.086
46.0015
23.157
-64.2551
-135.432
-141.05
36.6197
160.981
190.269
169.295
185.807
169.112
97.1252
-0.047353
20.738
19.428
-61.5482
-136.475
-148.018
-132.04
-113.399
-66.4637
-52.18
-6.31445
116.417
68.5355
-33.4408
-97.0761
-172.049
-232.075
-157.184
-112.377
-65.5057
59.0531
16.0523
5.72165
14.1323
33.2077
71.4229
92.0751
166.285
190.443
202.897
241.112
203.915
175.77
68.8269
-63.5324
-16.6519
-34.0579
-143.078
-145.453
-100.293
-98.4121
-40.8122
1.43422
-50.9764
-78.7381
21.5544
18.5032
-44.4132
-65.383
-67.2148
-98.0707
-134.003
-154.294
-45.5266
48.2629
60.7662
108.731
150.503
146.91
129.368
40.5926
58.1562
-0.408979
-44.0245
-71.3924
-131.378
-98.8604
-105.498
-78.8496
137.178
194.517
123.116
82.9517
24.5808
48.0458
21.9583
-70.0825
-37.4035
38.843
16.3807
-22.5304
-69.092
-29.2558
26.5022
28.5826
-89.6231
-97.0146
-58.012
-85.6235
-159.993
-126.348
-39.6573
55.3844
82.8486
18.2677
70.3787
153.223
76.3382
-40.5348
-84.0086
-60.3923
-77.8399
-79.0744
-31.8292
133.343
173.12
180.313
156.598
143.491
105.948
5.28045
-79.1132
-25.3659
-65.0807
-52.4109
-88.6792
-110.601
-159.13
-242.214
-219.351
-15.2177
132.243
238.357
274.183
190.216
170.53
106.786
17.3925
10.7412
-82.0453
-146.838
-190.446
-265.614
-257.823
-199.637
-149.714
55.4844
163.278
208.998
223.709
152.307
101.943
65.4218
-27.9578
-127.88
10.9256
45.8847
4.11278
-47.0738
-61.0209
-13.7947
50.7951
-3.31073
-26.1687
76.9717
-5.22199
-108.55
-110.879
-76.771
-32.9743
-67.5808
-125.401
-77.1154
-36.267
-39.0879
-97.8789
-48.6521
50.6184
55.3721
67.0768
111.917
249.672
342.459
278.385
154.82
73.8668
-53.6693
-82.4663
-110.285
-137.532
38.9304
57.7375
-70.3058
-72.2396
-10.9528
-34.8019
-132.482
-207.695
-121.988
16.6746
53.6301
60.1568
105.134
158.114
72.9693
33.5352
-9.33369
-88.6115
-45.3924
-25.1502
-123.403
-126.909
-62.8243
9.29383
5.47952
-108.973
-25.2374
69.6135
6.32143
-89.576
-65.5313
-49.6984
-46.1702
-22.6068
59.85
130.445
107.942
149.911
147.847
149.736
113.726
75.7674
12.8352
-16.5329
-100.923
-93.5561
-110.628
-78.4215
11.2584
43.6368
86.0106
213.967
171.791
72.0018
-42.8206
-153.882
-159.836
-153.165
-102.365
-10.8297
-66.8804
-89.825
-64.054
-55.8664
-12.0232
53.8073
50.6246
34.0238
30.5578
5.67614
-110.197
-230.945
-195.03
-73.9308
24.6057
122.533
136.58
150.283
123.615
20.4057
-16.1997
23.556
90.3945
149.207
165.153
115.089
158.647
140.294
60.0236
32.4919
13.3522
-75.4642
-150.217
-199.449
-150.572
-127.436
-73.064
-17.9884
-12.3715
2.44149
-37.1939
-111.91
-63.9547
-15.9378
26.0362
66.9223
25.6934
11.4207
-3.62208
-67.9055
-6.85069
-47.2142
-89.1756
-78.847
-46.5327
70.8315
186.467
204.983
123.459
105.168
134.901
49.0268
-60.0129
-155.246
-150.093
-103.41
-129.118
-127.632
-20.4497
60.0827
38.324
52.5339
100.936
124.247
87.6051
79.5507
87.0418
21.1462
7.33095
-42.9946
-74.2845
-14.5915
-60.5214
-51.0802
-13.2142
-15.0994
13.8444
0.0947145
-65.748
-69.3926
-146.698
-96.3281
20.4386
87.4919
99.4819
52.9379
18.9628
33.7358
33.2455
-12.7407
-125.975
-66.0206
29.3355
76.7775
69.9832
50.6347
9.86622
-8.40911
-39.8843
-58.2528
73.2768
106.33
20.2192
-20.8732
-42.3646
-58.1507
-84.2122
-113.956
-157.951
-27.6928
102.191
156.013
172.57
133.315
63.1286
-9.97435
-8.65943
3.65562
-56.8442
-46.627
-27.2801
-36.4405
-31.9829
-38.9673
24.6375
44.4302
-43.3454
-107.121
-49.6687
-52.6481
-45.419
-81.9861
-37.6977
107.841
92.9418
64.5415
8.9039
-26.2822
-5.38497
-75.6729
-78.2882
20.5597
10.1161
23.1106
23.9083
23.8152
45.0887
56.1167
10.2799
-63.9968
47.193
123.506
50.816
-58.1405
-64.7421
-11.2365
47.9813
5.67641
70.5814
117.251
51.4728
-38.2276
-41.7245
-25.7754
-52.4885
-114.56
-102.333
67.9267
117.416
137.834
54.752
-27.3111
-77.3519
-139.975
-161.086
-197.617
-122.07
-62.0124
-34.8898
41.7973
89.4654
69.471
51.9018
44.2083
193.538
253.662
225.636
63.6312
7.97869
-26.7509
-69.1082
-138.878
-54.3088
-10.8411
-17.1756
-15.5008
-70.6537
-43.0208
-26.2591
-17.682
-42.7768
-22.314
17.5206
-14.0591
-172.677
-215.85
-170.979
-129.859
-117.684
33.3773
141.894
245.529
252.035
221.846
206.6
129.558
41.1828
86.5867
25.436
-34.7445
-70.9124
-139.107
-153.226
-171.786
-136.116
-35.2827
-43.1558
7.31338
82.878
45.7586
-12.0836
-79.0486
-64.6647
-7.78354
-54.081
-38.1776
69.2643
111.358
123.689
72.1103
68.8626
200.247
230.042
176.787
84.5156
0.361721
-21.329
-93.4221
-159.951
-251.122
-223.061
-108.428
-125.408
-137.319
-57.3905
9.05325
-3.67756
-67.2511
-95.3766
-7.28547
111.352
105.928
50.3051
36.4225
11.9554
12.2888
29.2052
3.81579
71.9686
151.115
148.99
142.26
81.0417
12.7132
16.29
0.224077
6.92742
20.6873
-40.519
-113.427
-165.964
-173.486
-122.288
-106.03
-58.4281
13.3617
16.8023
46.3735
47.1914
35.9238
39.1921
-8.65963
-41.6291
-16.4397
118.751
155.337
85.1799
30.0945
52.6662
58.0351
40.3627
-63.8553
-83.2913
32.9705
16.3362
-30.901
-33.4191
-40.166
-60.5358
-128.273
-142.275
-93.9399
-39.7568
3.93529
-1.1495
49.1207
83.0485
39.7652
87.1454
48.4404
18.9883
22.7198
25.2692
-18.2297
-51.1363
-78.5568
-3.61953
-10.4473
17.8265
73.3073
118.337
128.9
25.7645
-73.4162
-62.0172
-3.43857
-10.2526
-84.6364
-77.0551
28.4734
60.9024
-3.5963
-131.774
-38.532
3.99508
-14.3733
-34.3703
12.2982
33.4867
43.542
19.9844
-47.3858
-38.8066
91.1924
40.9781
5.08051
15.2677
91.2924
97.857
49.5607
-38.4085
25.9755
81.2707
12.7554
-8.47272
-12.5164
-19.6604
-22.7516
-81.7087
-60.1971
-82.4064
-116.218
-58.4006
-86.3571
-95.4096
-87.925
-122.821
47.6728
119.599
123.09
167.314
131.797
86.0302
20.9327
-43.338
-33.327
-8.54763
28.5986
38.6979
-22.4506
-66.647
-59.5331
7.05235
126.881
80.8944
18.069
21.1735
-58.0149
-122.164
-130.525
-145.858
-136.669
-26.4205
-12.9454
32.6987
62.5665
76.485
85.8096
25.6555
21.7095
152.442
117.715
40.1382
-62.2618
-22.4957
20.5502
-0.0306493
-49.503
-2.95026
37.6168
67.9674
12.2204
-27.3664
13.3057
54.7869
-15.7871
-100.224
-1.01511
32.8677
-24.9993
-122.254
-90.9684
-65.1559
-136.282
-124.249
2.30423
67.4989
71.8463
-0.906687
-25.5476
-10.507
-18.6934
60.5185
84.0473
74.187
94.4425
69.0948
-22.2757
0.959746
35.3437
19.9783
93.0147
97.0122
61.1927
13.4896
-58.2078
-52.9603
-101.041
-145.819
-108.569
-14.1368
30.0836
2.75764
-16.612
-24.3987
-14.7679
-29.8822
22.2125
12.8196
-30.415
-76.7792
-113.37
-69.8473
-30.4268
-28.3411
101.884
141.329
206.663
254.951
190.437
67.0874
-41.8742
-172.602
-92.0921
-44.3782
-60.4395
-15.5264
-30.7191
13.9781
65.3545
49.5862
50.8066
118.995
54.9046
21.9817
-97.9077
-148.417
-155.87
-111.004
-89.5914
-134.159
-10.552
97.4426
21.0699
-21.4713
-21.357
-34.9707
-72.7255
-33.5991
20.4661
127.629
210.27
124.492
77.1029
-3.59271
-107.9
-102.145
-124.626
-109.511
-2.36409
46.0437
52.0964
52.1677
52.8717
67.5092
68.8065
93.2519
112.005
48.8938
-5.67449
-80.5707
-131.077
-125.239
-108.982
7.96907
172.304
212.762
219.4
152.136
36.735
-22.4955
-83.2518
-149.059
-128.332
-80.7478
-72.5476
-73.5415
-98.078
-78.8923
-41.811
1.91533
-53.0558
-99.5688
1.32035
13.7308
-45.7435
-70.409
-64.6425
-34.1044
-39.0105
41.9877
128.526
115.422
46.7409
9.72213
59.0783
98.0285
47.7612
74.8087
18.0459
5.2532
42.0898
80.7048
70.0076
15.8794
-92.539
-75.3549
-106.472
-141.614
-89.4926
-24.9748
-2.43535
-8.24391
41.1488
256.99
320.67
259.162
153.371
45.9995
3.08631
-37.1872
-78.2889
-136.806
-174.003
-140.586
-159.361
-182.043
-130.261
-80.9239
-34.8174
30.2525
72.6638
63.3329
86.5872
-6.08891
-116.967
-104.639
-22.3631
-11.8432
-10.3305
-31.7749
-42.1916
31.8578
8.10214
-19.5015
23.4968
70.0383
106.676
70.0762
117.988
165.196
78.6646
56.3829
-22.6597
-126.257
-133.427
-183.4
-206.522
-41.9625
33.7134
82.9631
92.318
67.4667
101.015
107.782
106.078
145.291
65.1794
29.975
-33.1077
-110.676
-73.1012
-48.1033
-105.383
24.4535
149.599
101.613
61.1872
-29.4746
-55.6144
-58.1279
-58.3498
-113.02
14.1167
23.8915
-16.8221
-108.917
-102.063
-49.3409
-8.15135
-64.4197
14.4647
90.9964
107.406
32.136
-5.81052
43.9105
48.0786
-44.0652
-2.41993
44.8283
-7.1721
-13.4327
-78.5573
-88.3708
-89.3787
-53.471
-3.69314
27.8461
105.527
138.049
82.6743
49.9243
24.034
-97.9372
-185.641
-213.242
-103.377
-32.7508
20.0566
43.9127
95.869
128.431
69.2778
75.6105
234.748
159.629
40.425
-35.8052
-70.347
-38.6644
-83.0763
-157.638
-173.682
-96.0709
-58.8664
14.1949
38.0292
71.5218
80.3382
67.5547
87.2388
178.812
144.444
113.562
1.7394
-24.9908
3.24817
-70.3214
-200.998
-161.691
-139.445
-85.6117
-10.9834
7.63908
25.3545
6.94904
29.3335
73.196
69.26
77.2442
51.9924
-37.537
-50.5385
-115.866
-143.22
-59.9171
-26.7563
38.2017
69.4597
54.653
93.0036
130.143
70.0221
34.8212
76.7918
36.1307
-32.1497
-85.8567
-134.076
-142.766
-107.127
-156.721
-123.023
74.5561
90.0855
30.2584
23.5709
55.9424
51.5889
20.3369
-15.4525
-63.9709
90.0374
117.983
98.5137
96.0645
36.5433
-20.862
-112.305
-150.383
35.1158
105.275
94.9575
43.9379
59.9765
57.7925
10.3071
-77.6796
11.6535
-8.0754
-19.3379
19.7548
-28.8087
-94.2698
-177.65
-195.317
-87.3608
-50.3245
7.88472
63.5458
19.7885
66.8293
59.9351
29.4174
82.8494
113.867
99.2854
94.34
-24.7534
-68.6461
-73.9851
-68.3516
-185.846
-166.624
-65.1235
9.52497
21.7034
48.6705
94.171
113.416
19.2998
39.192
43.6783
-8.41025
-94.77
-112.779
-48.8484
-7.31574
38.1189
123.918
88.2751
47.6516
76.0976
65.6608
48.1643
53.5012
38.0257
49.1607
32.6146
-3.4636
-70.8948
-206.803
-229.637
-195.942
-141.384
-22.8306
79.8288
109.5
87.1973
36.8718
17.423
2.59756
10.6419
-13.0923
21.2539
81.3994
75.971
52.7497
21.1609
14.3522
81.4062
129.771
54.5012
-48.3711
6.7847
3.40502
-43.9059
-11.2776
-28.0226
-76.5781
-71.8211
-103.26
-42.6567
63.3931
0.608149
-31.1546
-64.5581
-91.5646
-121.644
-192.403
-75.1233
16.3272
79.2129
126.869
64.2628
13.4808
6.48066
-47.5246
-23.5714
44.6144
47.1714
93.7831
95.1353
28.0399
-20.9781
-70.9525
-11.6715
16.3933
30.0069
94.9724
49.7265
29.0399
54.2978
64.7735
128.551
127.869
16.0946
-76.4925
-134.611
-134.25
-85.1036
-59.0777
-101.1
-12.7977
35.1749
80.6957
19.8164
-24.2088
-67.1379
-134.651
-235.946
-148.855
-53.818
25.7553
46.8992
91.4332
150.744
153.963
101.431
131.08
115.413
100.585
111.603
58.0475
40.0524
6.25414
-45.2789
-84.094
6.7065
47.1064
-19.4964
-130.427
-168.398
-159.122
-192.046
-239.603
-135.936
-4.53933
63.0707
40.4852
37.6015
26.792
26.1489
-57.3653
61.3388
101.296
110.205
134.712
113.223
99.9562
111.752
37.304
10.0914
76.9931
7.26422
-23.6297
-54.5003
-52.1725
-70.9162
-171.435
-142.452
-5.10032
21.9462
25.9272
-64.2023
-51.5657
18.5766
58.8417
50.1452
157.539
157.012
151.807
115.42
8.73871
-86.1741
-228.876
-254.817
-184.735
-144.233
-61.0525
14.9393
43.0649
45.563
-63.9711
-113.901
-13.694
-21.82
-12.8855
45.6738
43.8041
105.459
155.174
142.994
146.497
196.621
207.665
164.004
78.5281
9.59114
-57.5316
-99.5759
-160.203
-205.535
-87.0563
24.1419
-43.3698
-18.9086
-12.2612
-44.0196
-91.7171
-72.0477
-64.4974
-46.1585
-15.6337
-5.62843
38.3853
11.4737
-7.89038
20.7882
-1.21105
-21.9717
20.9076
50.3418
62.9366
52.4734
51.4146
47.2944
25.4835
6.07994
36.7215
-40.3576
-81.9992
-54.348
-88.7711
-101.991
-83.8071
-34.4107
54.3314
95.6701
110.377
112.16
92.1188
84.977
17.5676
-70.4248
-136.67
-56.6811
54.03
117.341
54.3224
25.725
4.39174
-39.48
-88.8446
-142.17
-63.872
15.2162
-0.0187797
6.20772
43.4644
69.3198
51.9287
40.6687
88.4749
121.136
76.8224
-40.4499
-126.147
-167.43
-170.392
-178.927
-77.3058
75.6576
80.4644
125.338
86.194
17.3975
-13.0723
-74.7494
-42.5112
-5.71596
-40.7363
-8.32594
27.9101
25.0899
35.4906
-32.6789
-19.5629
42.1769
-7.42846
2.68312
-18.2093
-56.5436
-15.3569
22.5556
21.5623
41.1926
157.111
177.565
100.652
10.9804
25.1188
23.8103
-48.5145
-116.851
-149.687
-67.5831
24.2908
-9.07235
41.9731
91.7002
58.1992
-6.36099
-54.9781
-101.025
-56.055
-116.968
-255.777
-281.191
-204.88
-64.3874
-8.13956
95.1986
329.199
386.673
365.779
257.64
83.7933
1.94807
-35.0085
-50.3917
-23.4264
-70.4684
-139.839
-119.212
-30.2076
-25.2438
-79.7022
-126.427
-85.6754
74.2948
142.981
68.6671
-27.3825
-66.3695
-90.5072
-123.697
-111.579
28.8959
116.086
170.42
104.256
68.9058
35.2653
-49.3599
-170.416
-115.761
8.48091
25.9022
17.4613
-17.5417
-4.16261
-19.7101
-87.5564
-11.2849
35.5493
31.9177
81.2727
52.0388
25.8281
40.646
21.1288
87.5068
80.418
-1.18476
12.1926
10.997
-59.638
-99.8666
-150.85
-91.9495
-28.9392
-27.2538
25.2187
24.8489
11.261
10.9607
-22.8941
-13.814
47.1605
65.0917
25.0346
-16.9574
20.9504
63.0015
40.1838
-49.9937
-18.9536
28.9577
80.7376
7.08966
-7.59377
16.2746
65.7129
84.3262
11.0402
-15.4167
88.8167
-0.0561941
-111.724
-119.817
-82.9328
-57.8674
-48.3852
-37.2772
-52.4157
-13.4375
24.9773
9.83412
6.47452
16.874
11.1936
-2.44091
-32.6884
-26.8815
63.2174
42.4988
-55.8828
-42.5548
-16.4914
-14.3898
-57.5226
-21.3516
86.0381
47.4159
39.4256
34.9612
-7.89112
17.1137
-39.2228
-101.677
-24.5853
16.8252
32.6842
39.3794
54.8559
96.8715
129.475
99.6206
-14.8809
2.67798
43.2267
-6.00257
-41.8211
-14.0433
6.11672
12.3651
-51.6969
-74.1909
19.3748
30.5716
-14.1649
-32.1273
-29.3675
-24.2947
-73.3946
-74.1326
-6.97254
-63.6482
-74.5889
-84.7117
-90.3769
-81.176
-93.5634
8.83651
168.361
155.617
122.607
103.455
51.5477
39.4851
-28.838
-11.7347
97.1347
27.6154
-75.7512
-91.7075
-100.756
3.94013
76.562
86.739
129.056
225.661
153.585
38.324
-76.2086
-110.124
-106.433
-92.0552
-159.079
-135.365
-20.7209
2.07247
-58.1528
-34.6982
26.1571
32.8053
-10.3424
-56.0344
-175.056
-108.558
-7.3465
-47.4119
-41.1968
-12.0365
37.5523
103.377
105.163
133.001
200.027
167.427
74.1236
1.15778
-73.3134
-67.6492
-42.759
-0.605317
23.4372
52.4577
130.615
86.8436
23.3697
-30.8223
-96.5714
-42.8476
12.9304
1.8089
19.2983
-18.2294
-50.0447
-43.9687
-54.4479
-87.1845
-77.342
-41.6132
-33.8048
-8.851
-7.38231
16.0304
76.1688
79.6612
-1.11096
18.0993
62.4888
-4.58103
-63.2811
-70.5932
-70.4022
-69.5079
-97.7323
-43.8722
-21.4625
-17.7455
30.8013
62.0448
103.169
110.064
75.0102
161.393
212.448
163.061
114.444
28.1514
-52.2779
-166.935
-296.091
-186.255
-65.6786
-21.8025
52.4526
20.2126
-17.4028
0.225004
-32.1724
-141.225
-121.8
-30.8071
-22.3346
-52.5904
-57.0394
-61.1857
-21.5651
15.0699
26.4802
66.279
276.515
244.641
146.428
91.5454
53.5112
31.0163
43.5607
43.0129
62.5885
141.674
51.4956
-31.4133
-71.7531
-138.138
-168.737
-218.159
-207.625
-71.3324
41.0972
143.273
89.8123
31.6401
-10.8163
-70.3108
-105.042
-37.0216
-28.6234
-6.31769
-14.4065
-30.5978
7.1201
-51.3568
-68.4255
8.34249
44.9072
91.3638
95.1588
45.1529
51.9482
20.655
32.7312
54.668
25.7918
9.51208
8.19107
-23.2399
-37.5439
-25.4483
-59.2365
-82.6301
31.154
46.0068
30.3886
-43.1464
-65.3747
-9.06852
32.3934
-3.36266
-36.7977
31.6786
-21.7999
-72.8855
-58.0877
-12.8453
0.254797
-45.4447
-65.6425
27.811
158.33
163.756
65.535
32.951
22.986
17.8623
36.4658
-9.85481
7.14734
56.8876
16.9508
-46.1768
-73.187
-68.2576
-68.838
-120.671
-68.5151
23.252
88.1225
69.9205
26.3906
24.0174
-20.3922
-75.1414
-72.3047
-7.84088
64.2982
63.8621
20.3426
-14.9995
12.9365
2.76479
-38.7001
-45.8349
49.8656
105.542
91.7789
46.5001
11.147
-41.7256
-74.1702
-106.803
-82.0325
18.3612
38.5274
6.92825
-35.9991
-14.1183
-45.8471
-157.362
-102.207
-19.3893
-17.7038
-11.8251
-36.63
-3.82341
23.1515
56.0666
164.1
208.892
172.05
191.939
183.794
118.204
28.6299
-127.361
-133.438
-130.799
-125.002
-81.5776
-115.707
-138.051
-90.4438
-56.4207
-1.20192
125.142
169.124
111.692
24.5125
-54.3836
-109.348
-140.776
-194.967
-175.087
-116.07
-4.88127
29.1756
83.3483
125.982
159.182
160.12
73.1253
39.5314
144.544
129.992
65.8209
9.55055
-18.5567
-58.7994
-80.588
-109.393
-62.7089
-9.87221
-15.789
45.7574
93.2435
74.494
36.6018
-4.73114
91.2125
68.3144
-2.05715
-38.6391
-80.5671
-68.3274
-109.409
-138.591
-93.3162
-62.6298
-24.301
21.8295
29.3092
33.2443
-4.8266
-14.5135
35.4491
14.8027
-11.6485
-18.945
-47.9157
8.07587
69.748
76.0947
-53.3068
-106.104
-8.88387e-05
32.2477
14.737
-28.2949
-77.0966
-52.4448
-26.3719
-6.3043
61.7938
118.885
27.9476
13.0404
43.1642
63.549
17.7598
-32.5636
22.8483
92.7451
104.245
71.9532
-0.393281
-36.2104
-68.953
-111
-29.2687
27.0525
31.6106
44.3472
49.0301
30.3995
7.64429
-106.384
-106.736
-24.0709
-34.028
-7.6532
13.5465
31.4683
36.8164
-1.97003
-108.493
-113.749
80.2687
155.751
89.9458
58.293
39.3547
2.66739
-33.1051
-119.755
-68.2912
20.0874
-72.7174
-156.477
-131.303
-95.2181
-70.3218
-40.5653
-8.82473
74.8441
116.487
103.987
18.0791
14.4637
42.2594
52.3006
18.5935
124.32
125.901
135.342
66.6241
-73.3012
-78.3189
-60.4235
-49.2261
10.1735
-5.06007
-44.541
-41.8449
-54.1598
-6.69011
31.9519
42.4408
95.1837
67.4387
32.1066
4.99883
-71.3971
-101.043
-135.284
-104.034
-8.23077
137.67
134.418
102.768
41.0573
12.5541
-1.27528
-19.31
-66.755
-96.9125
-46.052
-43.7233
-35.9932
16.7378
6.99793
-16.8443
-85.9481
-159.642
-20.5916
50.8621
95.3771
98.0872
122.661
129.043
79.3574
-76.2572
-159.005
9.87582
7.40409
5.15579
-18.095
-63.5233
-91.7536
-114.919
-156.658
16.1223
114.405
134.1
53.5973
11.5387
0.183723
-64.9929
-119.599
-62.1916
18.7256
110.237
154.151
71.8952
126.58
139.807
76.0384
-33.2619
61.8045
43.006
-46.9148
-138.35
-141.642
-51.5694
-3.45241
-44.2804
28.3126
164.171
176.211
47.1097
-87.6279
-113.493
-89.0225
-128.326
-160.947
-70.701
-63.6882
-29.4903
-78.5225
-7.66452
129.801
121.674
21.9889
77.2895
54.6078
28.3462
-48.6423
-118.206
-103.137
-87.2077
-47.974
77.518
156.579
149.63
129.592
30.8726
-27.7747
-44.44
-85.64
-2.79685
28.4621
10.1054
20.9859
-28.7017
-36.1903
-11.5559
-39.6157
-40.2369
24.3353
107.655
118.144
102.121
52.1869
-15.307
-90.2719
-137.135
-192.3
-150.818
5.0973
16.874
90.2553
129.194
139.282
92.4593
40.064
-14.8127
-10.777
15.8252
-51.4252
-119.496
-102.955
-80.1131
-67.7289
-49.418
25.2187
109.667
184.661
189.952
40.7543
-67.702
-83.8604
-116.174
-76.384
-36.2449
-53.6245
-56.3256
-32.2469
-64.9499
-52.7506
-67.1296
-48.562
55.0573
38.8128
42.4736
25.59
28.7552
110.311
148.376
80.5145
-39.4902
38.9498
61.4144
31.5968
6.89697
5.80124
26.8732
40.6319
8.19777
-23.7741
6.19037
94.0256
-7.28824
-53.6372
-86.3425
-79.6248
-97.9821
-149.91
-93.1945
-70.5505
-3.59973
-32.7927
-17.6076
-2.05245
-15.557
-38.2046
116.207
123.385
120.197
120.853
94.5069
-0.355772
-51.6412
-53.9791
36.3783
105.658
105.778
128.178
66.4186
8.00768
-68.5316
-223.028
-174.877
-52.3518
-50.1221
4.43799
-25.5535
18.3747
62.8624
78.2327
-2.53841
-37.813
-6.88909
13.8892
-4.61175
-44.0524
-78.3152
-117.764
-184.081
-164.51
-20.5086
116.055
101.262
47.2741
78.9719
85.2643
15.7504
-41.8951
-152.78
-152.724
5.93591
79.2381
101.339
94.7449
32.2034
-22.0604
-51.4853
123.342
193.735
187.822
111.16
51.6196
31.1276
-44.9579
-118.808
-7.01296
134.643
142.237
181.823
149.324
44.646
-112.217
-323.745
-255.007
-191.642
-126.381
-43.5215
-80.3939
-101.787
-100.031
-112.232
-180.787
-118.345
103.762
188.326
153.553
83.8014
72.2266
51.5358
11.9176
-73.6745
-22.1483
73.6495
45.4976
39.9852
18.6481
26.3971
62.6415
113.425
219.455
179.779
144.235
37.0573
-138.685
-205.426
-319.689
-395.523
-170.078
-40.7684
3.87975
58.9617
66.7205
102.591
96.3558
75.747
20.2809
5.45259
41.5122
22.4048
-23.3559
24.8212
62.1526
48.6177
15.5551
-34.2636
35.4739
59.2876
39.0496
-48.7972
-57.4442
-30.3633
-16.9129
1.40763
11.1644
-36.1024
38.6091
141.283
50.8201
-12.0682
-54.2951
-25.1212
0.844961
-43.198
-60.6347
82.3068
60.2322
-9.72778
-163.488
-160.488
-106.69
-112.929
-53.2205
104.35
80.5952
101.144
74.0943
-26.7118
-68.764
-85.524
-9.30793
91.547
78.5726
72.5044
28.4438
-35.0582
-19.8576
8.61
0.00161421
67.6463
106.95
179.44
151.931
-11.246
-96.2836
-140.531
-85.3522
-82.8233
-5.60887
6.21758
-41.0603
-103.199
-84.7913
-62.9843
-51.1284
-69.7693
-56.1969
89.5928
116.147
72.2705
23.7942
-28.0392
-53.2046
-64.1824
-86.3689
16.8502
145.668
120.771
44.0281
63.8175
57.1706
32.045
-13.0702
-57.9664
-60.2628
23.5418
140.366
46.9769
-39.7478
-68.9893
-36.4206
-7.78919
-61.915
-6.4768
137.169
122.786
-14.9714
-64.5941
-97.7122
-68.9133
-78.5582
3.30122
56.8006
95.6957
129.705
96.7192
-26.2741
-103.473
-116.082
-117.538
-60.0057
-27.5866
-1.471
-56.2365
-32.7496
-14.6149
-31.1631
-53.0476
-90.3679
-3.27727
134.434
53.8714
13.1776
-16.2928
-23.0724
-0.899223
10.7726
42.5522
116.525
120.853
76.7964
59.8113
63.8288
38.5203
-51.6593
-23.1643
-0.644894
-5.68573
4.61834
-39.3291
-86.2071
-89.0084
-81.9955
27.2519
47.2859
22.604
16.8576
26.3712
1.94379
-28.8963
-99.3721
18.7551
38.5701
31.3553
12.052
-24.7981
-30.0047
-16.0213
-96.0754
-75.3252
-4.38783
70.3206
52.5804
22.2244
41.583
53.3442
19.7157
-70.7099
-20.4453
64.9931
43.88
-23.5258
22.2351
55.356
54.607
35.721
22.6855
14.0442
91.82
69.4557
-77.7191
-91.0006
-23.5799
-14.4317
-50.4364
-107.435
-114.462
-2.04172
-40.0048
-62.7321
-39.867
-69.2951
-74.6775
-87.4045
-56.7557
-5.77323
-20.8245
34.2347
84.3931
75.5151
88.7643
15.8773
27.4496
128.754
107.845
80.3644
61.0482
43.7944
33.487
1.16936
-26.7269
-79.1636
-0.431536
101.8
82.5088
25.1425
-26.584
-42.6998
-29.8538
-67.8345
-109.09
5.90978
38.7959
-43.4071
-30.2796
4.03746
33.8601
24.1705
-7.41925
30.7843
-13.8169
-15.2499
-43.3297
-92.8161
-80.901
-105.72
-139.429
-20.6017
-15.4813
-7.69667
42.4683
41.6685
60.7279
43.3597
28.777
13.6348
55.4159
79.0698
104.908
84.0359
124.872
146.758
81.4357
-40.3603
-74.4835
-30.6153
-64.9147
-114.503
-65.9283
-7.73345
13.1279
-30.7645
-106.671
-188.461
-110.742
-1.74784
-32.0802
-40.1824
-19.3677
-2.25154
23.8354
-21.57
-36.1553
110.008
132.154
69.4785
73.8645
43.8036
8.77229
-68.9482
-62.5994
58.6955
75.4687
123.061
119.441
87.4618
68.8052
-2.54676
-14.876
39.6968
-0.66981
-38.2767
-62.6195
-76.3027
-37.5328
-7.78576
90.6595
93.0106
48.9934
55.3419
27.1002
-143.735
-215.04
-223.025
-151.568
-78.6764
-43.8341
-4.23435
-15.2056
-76.7994
-42.5026
-6.33211
-32.8899
-23.8719
90.3766
94.8363
92.3397
114.22
124.877
91.3781
0.530782
-59.0701
60.6269
81.8873
32.3021
-7.77223
-26.7458
-25.4283
-40.7317
-87.0491
-76.1086
56.9544
115.562
65.2623
-27.1832
-34.7688
-45.5339
-78.6058
-109.086
-35.4049
73.1365
97.9384
57.3276
35.6711
-32.6828
-87.5505
-133.299
-83.2237
89.4757
107.042
115.72
91.716
72.8034
13.7333
-105.263
-122.008
66.776
104.011
106.415
93.4328
11.3052
-80.9724
-120.685
-87.0006
-111.274
-98.3096
39.7705
69.2742
-9.41006
-35.121
-32.6389
-34.1221
-37.0281
-59.921
72.3576
57.4959
-45.8098
-36.1765
-2.18841
-10.3366
-48.274
50.2828
71.594
44.5329
56.0416
40.6609
1.49861
-26.552
-86.8209
12.2707
16.9015
-34.3923
-31.1973
14.1055
-4.41235
-5.37243
-30.3515
37.5021
98.9836
34.885
25.6273
33.6689
36.095
-0.800453
-55.8676
68.5364
118.658
51.408
-22.5738
-79.2057
-62.2797
-56.6513
-38.1411
-50.3409
-50.8349
37.6705
0.787225
-51.1517
-75.9366
-43.691
6.13754
-3.1741
-58.4747
-92.1228
72.0301
152.212
76.4461
79.8068
81.1294
28.0833
6.36425
-12.8526
-76.4985
2.95473
95.827
29.2945
16.3478
-9.34839
-46.0622
-62.2542
-118.03
-59.4487
13.2574
72.6838
34.0187
-71.8905
-83.9114
-89.0849
-128.552
-30.488
17.0771
42.7581
101.042
112.198
58.6328
12.2867
-58.1971
18.5389
74.0631
51.7894
61.1107
-14.9345
-57.2438
-20.1378
-18.0648
-120.086
-101.134
75.5748
144.007
98.1544
46.8416
-4.49082
-30.6048
-53.6165
-131.474
-60.3247
4.85221
-17.2099
-0.263817
66.1306
127.283
112.292
47.3918
80.1585
98.3208
77.6286
1.2535
-103.604
-100.29
-158.437
-210.267
-92.221
-44.8874
-49.6524
-46.6736
-37.3902
-7.70118
-34.5907
-138.532
-72.7721
34.1947
74.5973
121.732
88.9042
39.563
53.2648
76.8296
5.46571
-35.5056
63.4881
219.609
159.762
116.063
87.2377
66.753
23.7269
-30.4655
-93.6363
-32.6735
-46.3792
-91.6847
-104.051
-77.5416
-50.0064
-21.6013
-29.4109
3.80251
33.5649
38.3939
8.77763
-55.1168
-132.508
-127.239
-75.164
25.8824
26.5599
-38.0695
-37.9818
-2.49297
43.094
107.838
144.576
246.516
247.036
127.998
18.7754
-109.347
-201.416
-244.337
-307.096
-203.58
-73.2784
22.5504
42.1227
-0.971277
-1.96295
17.2952
4.10171
76.4924
122.59
61.0051
44.7631
-2.47354
-51.6591
-49.4599
-15.8442
-4.69992
22.0686
178.352
224.418
152.428
116.901
57.8405
21.2581
14.5834
-10.5138
62.8334
55.8561
-66.1825
-152.465
-157.96
-159.691
-201.713
-244.24
-177.042
-4.30343
98.3142
132.529
95.3406
95.6008
70.3361
63.4447
49.9594
-39.2784
3.2741
76.9571
82.78
101.848
72.046
24.6685
-12.2742
-54.7803
3.88586
13.2793
-11.9215
-69.3351
-65.0896
-40.978
-72.7588
-133.578
-101.98
-71.2539
-56.3167
-4.97545
-26.3479
-17.7258
-4.89438
10.126
9.41705
-10.5961
66.5952
64.4992
-10.2161
-20.6095
-28.0127
-38.2771
-40.3178
-33.7574
81.4384
115.144
75.3843
49.9581
43.5334
58.8463
15.4024
-67.7725
29.183
96.0622
66.8793
45.1599
-14.7458
-15.4882
-46.1468
-69.2044
-7.73418
-7.31103
14.4638
51.3367
22.7963
38.7188
-7.78935
-21.9957
53.9578
25.3893
-6.8807
6.79724
-70.0122
-117.751
-103.928
-114.498
-14.0496
51.2578
32.3329
24.3759
-8.61397
-9.59951
7.59411
14.518
-70.8115
-84.2435
67.6504
48.5682
-27.1698
-33.5514
-29.7391
-1.92337
-10.3721
-13.675
-32.6921
35.7223
27.288
-0.855788
12.8364
53.5234
52.9597
43.3786
-10.2521
25.3683
55.944
44.0429
-25.9553
-8.42913
-1.43924
-15.797
-39.2685
95.3589
75.3633
31.3341
22.6797
-16.0608
-78.0993
-112.842
-99.4308
15.336
10.6601
9.10281
1.49402
-78.2002
-89.1717
-49.6179
-107.317
38.5238
91.8143
82.8042
69.8877
12.2882
28.1185
45.9554
62.0157
28.8537
54.5143
86.1805
77.3959
9.61673
-6.92166
-37.4145
-37.6316
-56.7336
16.7174
12.174
-13.2754
-128.606
-148.655
-47.3613
-36.9784
-117.62
-69.0886
-80.5352
-74.0074
-20.7821
-29.9373
-17.4334
-11.186
-35.9332
152.698
185.762
171.511
175.235
142.019
135.734
109.838
7.79736
-59.6028
-11.2937
-33.5918
-54.1031
-89.8355
-58.6153
-11.391
-0.598562
-27.9067
-35.4745
74.3963
42.5973
-87.6874
-86.9982
-59.733
-51.9625
-92.3229
-75.6805
67.5014
119.73
103.901
25.7773
33.2771
41.4634
4.26637
-83.7745
-10.9995
27.1359
38.6648
51.724
-6.57251
-28.7998
-108.734
-203.256
-75.4424
25.6774
-20.7122
-38.0406
-44.2607
0.270143
20.4594
-40.4505
-21.1978
-22.8272
-15.7745
50.8701
31.2379
37.8396
53.2663
56.2442
129.624
154.528
132.94
132.863
43.0838
-20.4707
-27.4903
-116.354
-131.696
-43.1141
-28.5789
5.2942
47.3662
80.3621
80.8078
76.7004
32.2784
-48.8986
-52.1308
-65.0787
-120.861
-97.9527
-60.106
-15.8864
-41.087
-72.9982
19.7822
84.332
40.4949
-28.9507
-10.4093
-8.60549
-37.526
-68.3704
7.37608
32.642
68.2323
34.5264
-16.4626
-32.2796
-65.7678
-54.3941
-71.2157
-0.523326
112.727
105.218
100.292
139.884
114.868
289.714
148.986
106.604
-14.2061
-68.9963
-102.43
-168.948
-227.004
-249.704
-265.121
-172.995
-41.3197
60.7282
141.191
153.051
131.203
94.5852
51.2616
-97.9155
-158.044
-63.2275
-57.5738
-115.955
-75.8788
-43.758
9.40267
39.9607
20.8666
-16.885
150.366
123.453
32.6399
-19.172
-19.3951
-57.5606
-87.706
-85.1584
75.4251
130.783
148.469
126.667
128.78
89.3238
45.9268
38.0615
57.1323
26.9704
16.073
41.9472
-40.5401
-87.0914
-97.3595
-30.05
-18.9682
-42.8024
-18.0316
-1.67277
-74.5179
-72.7348
-90.2506
-91.8901
-33.1483
51.7563
52.0143
-10.2132
-92.8512
-61.4471
1.22215
-3.21836
-48.6353
62.4173
85.7975
38.9396
4.35647
-57.3631
-121.247
-121.811
-87.9458
63.9751
100.208
45.9745
-3.97346
-60.6777
-14.7113
-20.4051
53.7605
218.654
182.213
175.856
188.471
123.106
101.742
37.238
33.8964
132.761
109.809
62.8189
-38.3773
-167.188
-180.675
-232.336
-325.917
-194.331
-14.4488
102.116
127.362
12.2885
-21.9432
-67.9577
-187.889
-318.602
-223.598
-45.9786
-49.9739
-66.1239
-7.58673
46.0793
101.355
128.518
69.3208
121.818
194.859
96.8609
-13.9606
-58.3276
-55.0305
-71.8158
-66.6489
-5.59514
128.274
179.731
121.981
53.8494
39.0153
3.9699
-8.91544
43.5723
131.739
51.6379
25.5646
1.60236
-18.0505
-82.634
-156.241
-109.289
-7.91542
-66.8452
-92.7569
-26.5224
17.9878
50.852
-16.2254
-23.7994
12.2498
54.6228
151.966
121.801
19.0064
11.9943
60.7645
-53.7602
-99.7493
5.45169
-8.53418
-51.2678
-111.751
-89.6094
-22.1279
19.2293
28.1986
106.204
104.366
-22.4308
-135.337
-227.506
-282.589
-270.229
-185.848
20.7071
119.684
217.091
240.742
156.752
152.327
144.618
77.8368
97.7629
122.72
216.856
81.4294
-31.9312
-26.4044
-42.5992
-46.1287
-50.7654
-56.5761
5.07348
16.7928
-71.2006
-107.919
-70.0195
-24.4844
-84.4528
-22.6452
26.598
49.307
15.6317
-3.15566
-68.9261
-18.607
-40.2504
-148.19
-103.21
-22.076
-62.1275
-104.625
-176.025
-176.374
-44.3449
69.5189
82.3778
157.516
186.037
41.7956
-131.664
-199.572
-168.013
-90.7419
-92.6472
61.5755
204.085
206.355
222.524
202.297
223.878
250.677
194.808
303.577
299.269
230.036
214.02
71.8711
-130.503
-206.69
-216.999
-190.079
-249.48
-292.659
-215.167
-240.389
-306.159
-194.829
-118.663
64.2543
126.01
142.345
165.545
49.3859
-57.0979
-105.025
-198.94
-203.926
-76.4494
74.1839
137.44
144.275
177.498
162.906
36.2183
-52.8511
-74.8384
16.0058
132.897
26.9353
5.97705
19.2176
10.961
-66.6794
-88.7541
-138.574
31.7144
85.455
29.8683
29.7152
82.6096
68.8921
40.493
9.44928
60.8684
94.7631
95.1272
-41.2723
-201.2
-222.366
-192.927
-116.151
69.9653
89.827
48.5804
31.8303
-50.1117
-68.5409
-83.5995
-8.08073
148.523
165.356
125.18
126.11
110.817
36.5011
5.4468
8.97054
40.6771
113.808
30.7263
-78.2666
-204.661
-251.637
-218.027
-131.968
-177.666
-111.505
2.45849
80.1279
72.0819
87.9804
131.405
112.004
103.45
215.282
171.507
152.641
83.9343
4.1279
-13.1677
-108.827
-166.039
-19.2053
-7.10864
-5.73996
19.1634
-14.9235
11.6121
-95.7509
-204.145
-138.413
-154.918
-152.042
-209.337
-214.6
-75.047
-10.8561
-40.2513
30.7703
150.614
195.141
202.729
158.677
130.986
124.858
120.321
46.01
48.7005
138.727
48.9934
-145.495
-215.186
-176.092
-108.819
-48.8776
-47.6127
37.5294
67.7802
-20.7177
-24.7708
44.4052
89.2611
58.2448
31.411
-22.0609
-1.43546
123.642
151.084
108.924
109.439
128.296
170.726
76.7097
43.6233
31.1108
-52.5839
-115.66
-114.09
-127.892
-125.137
-155.747
-88.9487
-151.142
-183.169
-142.642
-127.755
-74.1686
-63.448
-120.261
101.986
149.491
124.923
142.953
136.641
76.8169
128.204
131.8
142.154
194.969
102.703
-29.3062
-279.121
-353.741
-301.825
-184.433
-105.108
-38.6962
44.9381
89.8415
20.0446
34.3336
89.8492
114.973
30.2532
78.4579
84.3104
52.0393
27.903
-33.5298
-15.2105
90.289
99.5295
196.639
197.445
164.02
11.9135
-129.313
-178.646
-187.874
-190.583
-135.159
-75.3365
62.5599
84.8706
10.1511
-57.6332
-89.1265
-76.584
-149.057
-163.628
35.0178
165.516
183.31
217.422
155.662
131.366
17.241
-76.3785
-25.1767
-4.05021
-33.033
-75.5212
-171.998
-125.635
-76.6913
-32.5462
7.58414
49.8731
49.796
23.6282
-83.6586
-82.338
-87.9618
-113.259
-90.1058
43.2253
105.166
133.061
112.032
72.9224
75.2097
8.11035
48.4032
85.4689
-53.1903
-101.304
26.5615
95.1973
136.409
71.5328
18.5962
97.4116
51.4802
-21.408
-93.0279
-112.24
-48.9441
-92.8006
-161.31
-86.3855
-23.6262
27.3088
27.8232
94.1175
211.472
156.093
15.5292
7.14027
-76.2398
-61.0844
-43.0345
-90.9537
-51.053
-15.308
-92.2713
-223.159
-132.519
24.3651
44.8448
29.348
47.129
32.6771
-114.205
-173.143
-145.239
4.73729
143.621
117.853
148.325
138.299
42.2735
-4.73309
-82.0319
-18.7206
153.271
284.382
220.149
104.711
76.4507
29.5412
-42.1183
-2.55521
114.658
60.9281
-56.8894
-147.137
-172.616
-193.167
-229.898
-138.745
-93.6703
-125.423
-104.83
-141.875
-110.707
-25.8816
49.9058
107.523
99.117
134.124
122.361
59.8321
-40.1918
-95.5057
-13.7576
72.7795
13.0251
18.0735
79.04
92.0958
88.9246
86.7231
173.528
190.159
100.951
91.8668
-11.3149
-87.6917
-85.5919
-153.457
-138.625
-78.5863
-68.5038
6.01682
61.408
-13.5124
-65.2017
-92.8411
-65.3224
-43.9504
-15.4312
96.1355
22.5643
-96.349
-123.683
-111.715
-50.4409
-37.9527
-76.9417
44.9442
78.4512
85.7246
91.7508
50.3202
-9.70895
-20.9538
-63.9434
-140.922
-140.371
12.8118
55.82
65.9519
108.884
181.787
186.362
57.2912
60.0172
232.231
265.257
117.065
66.8296
31.7599
-54.5918
-159.884
-222.126
-34.108
11.5006
-5.11027
44.5062
13.5716
-50.7484
-127.459
-138.296
35.7873
53.7337
-10.4491
-44.6489
-170.035
-271.079
-277.986
-240.616
-65.3808
6.20187
68.2631
92.9937
59.1294
64.189
52.2382
0.255394
75.3806
94.5884
114.005
151.992
27.4681
-64.4689
-142.117
-208.072
-105.866
70.38
232.297
248.762
161.409
133.241
144.29
113.311
-20.7357
-90.1526
36.0053
92.0098
14.261
24.9014
-30.9245
-95.7868
-112.375
-110.693
62.7649
60.5173
-0.619406
-62.3233
-210.865
-225.154
-252.69
-215.018
-118.88
49.6928
68.8579
85.0257
55.3469
-6.40831
-123.612
-113.912
-68.7828
31.5528
15.6435
63.2729
102.833
210.822
241.914
276.842
230.767
143.961
98.6209
76.1174
-3.38157
-157.773
-149.769
-50.4012
-80.7864
-133.986
-140.13
-25.3819
169.228
114.31
37.6401
-3.4807
-81.3673
-117.96
-207.163
-204.964
-58.7359
27.8268
20.9642
20.0588
75.3852
93.1514
37.5983
-35.746
35.0139
98.2283
87.1386
35.4992
-50.0227
-48.7218
-70.9668
-108.55
1.98595
18.1035
16.7624
39.6988
4.43216
-5.33754
-29.2639
-37.9682
36.9991
85.9544
57.5013
-79.902
-130.315
-30.3741
-8.51012
-12.8918
74.2892
9.96142
-8.32624
44.5281
13.8205
-21.6407
31.9948
88.3033
30.344
-53.7302
48.056
202.235
63.1718
-36.1024
-33.9238
17.8057
36.898
-52.3026
14.2402
93.4197
55.0295
-3.62655
-42.1414
-127.591
-195.642
-114.99
-73.4282
-143.166
-74.0799
21.7516
40.3365
28.9842
9.74921
-13.4561
17.9027
19.1279
40.1759
-0.555149
-122.119
-181.702
-188.763
-43.4255
18.7176
56.1565
253.496
363.561
341.324
295.735
158.188
6.5046
-120.124
-229.605
-239.998
-59.6066
4.97787
40.4591
-5.67827
15.0322
33.8065
-16.4052
-90.5883
-122.347
99.8418
191.312
94.4043
-14.2271
-101.874
-181.621
-221.146
-161.067
-69.7356
53.6475
49.1104
-31.5494
-59.41
-1.52032
13.7354
-44.2896
125.728
162.605
136.703
107.951
21.1195
42.8858
-6.84702
-109.212
75.6634
143.117
55.8192
-41.4797
-141.568
-244.306
-310.939
-342.534
-62.5226
147.008
212.345
312.444
244.223
174.059
68.8499
-110.011
-164.22
-51.5942
-17.4357
15.4985
-82.6912
-41.7304
61.1041
72.4946
32.3254
8.25475
218.257
257.136
78.5348
-48.4667
-106.939
-112.309
-175.215
-211.655
-82.9427
160.4
249.425
174.801
56.247
-45.7086
-162.81
-290.547
-310.65
-92.9603
-9.02498
58.2484
63.2927
95.5219
41.0794
-112.785
-271.48
-167.148
-109.706
-22.1677
-16.5868
25.3078
49.0644
-3.45088
-25.3107
131.24
165.981
171.205
200.298
193.913
223.245
173.934
30.6145
-38.5244
-115.795
-25.5405
99.5556
57.7494
29.9843
42.9875
19.6147
-62.0876
-20.6179
5.37684
18.1963
-100.665
-85.3908
-20.5808
-63.3013
-220.322
-165.225
24.77
51.5522
-5.55269
-25.1205
-17.4753
-32.8799
-81.9656
21.6941
21.2308
-24.163
-24.5251
-61.5162
-18.7537
7.76391
-41.773
-21.5988
0.826265
45.5556
159.227
170.874
31.739
3.96887
-42.6118
-118.819
-113.434
-73.4427
-51.3534
-53.3712
10.9777
81.3312
101.844
-13.9197
33.6756
152.623
144.743
95.8485
43.9623
22.3031
-51.5938
-182.997
-212.321
-144.724
-28.5921
106.412
124.81
185.13
241.142
154.868
83.9664
82.3097
-0.648199
21.3591
-1.3621
-47.9574
-24.3193
-78.0662
-88.3128
-88.1971
-119.973
-75.6138
-80.9123
-112.734
-122.663
-130.292
-37.7014
-14.4215
-29.5355
0.504514
34.3829
26.1249
31.9037
-28.5112
-65.9237
-142.014
-133.13
-77.3862
-41.0394
20.0995
77.0959
101.499
152.899
245.093
327.497
261.773
43.9412
-49.6722
-85.4183
-138.563
-140.113
46.4957
137.245
118.082
25.8845
17.0144
1.01224
-31.9985
-110.898
20.3838
156.424
112.496
35.1776
-47.056
-138.751
-152.602
-56.4678
-51.2604
-41.3882
80.4859
23.572
-147.482
-229.18
-186.423
-126.37
-92.4601
29.0067
128.502
157.325
16.2616
-103.221
-90.3494
-47.9235
-35.9392
123.756
202.873
204.78
183.814
119.721
16.0612
9.87665
-50.3881
8.38258
-30.5375
-83.7674
-29.1558
49.0428
66.482
61.2648
-71.9792
-150.199
-111.455
-74.7734
-28.9288
-22.8527
57.7975
55.2694
-49.3878
-158.625
-56.9459
96.8969
82.4963
31.5288
39.2537
-17.4982
-47.2613
-108.09
-50.0769
110.878
171.098
155.042
74.9006
35.6443
57.5014
-80.2498
-138.75
7.12307
129.501
213.401
74.2665
-73.2384
-105.706
-201.742
-73.8982
29.6851
26.9453
-28.7994
-120.255
-149.621
-82.3458
-75.0246
12.6043
102.478
91.9555
96.1836
73.2912
-32.1038
-89.2179
-148.999
-255.227
-143.444
53.1949
179.521
94.0192
59.2742
47.196
59.741
53.2688
-11.4613
-14.3773
111.569
153.71
136.119
77.8551
-13.5632
-71.556
-140.739
-150.749
-147.276
-8.95588
60.3775
-3.42769
0.0709544
13.1499
57.0407
159.034
148.301
174.48
164.797
46.9447
-44.8384
-120.844
-128.707
-95.7083
-87.6896
-17.9932
-39.8231
-39.4557
17.4364
-11.0871
-132.251
-158.722
-167.33
-112.272
-5.81088
-36.4355
-8.12416
-23.6147
-68.3977
-8.97269
63.4747
-24.1382
-90.551
111.415
187.443
138.557
136.875
156.009
132.76
31.9359
-81.777
-15.0662
83.5741
122.22
91.253
15.8034
-26.0656
-36.4114
-61.7589
32.9149
23.1141
14.1371
-4.69596
-119.681
-108.659
-105.119
-141.926
-55.2489
59.6456
100.707
116.913
56.578
53.785
25.2159
-84.3772
-199.634
-160.485
-89.8907
-86.0674
-68.959
-38.4195
31.512
47.3517
12.1805
33.5621
109.964
153.792
83.0841
6.09964
39.9606
66.8077
76.0961
73.2216
-61.4922
-82.4715
107.159
56.7701
-41.4854
-50.9621
-78.803
-75.7751
-129.352
-67.6544
11.9798
13.6106
2.34005
32.2064
52.2716
24.1682
-31.9423
26.8843
54.6571
25.2712
89.196
70.8458
-48.3126
-101.896
-136.228
-4.33921
22.6258
-0.101532
57.3363
69.3673
-17.9191
-88.1585
-239.783
-183.401
6.31623
105.691
165.741
110.587
25.5159
-75.8267
-134.337
-105.508
68.8382
155.668
144.174
156.626
126.643
75.7148
61.435
-29.4368
-149.19
-44.5427
83.1004
59.6132
-54.7063
-56.3591
-38.9396
-76.6887
-165.4
-152.184
34.5749
40.0131
-48.9335
-37.1076
21.868
50.4756
91.8066
70.5522
32.0705
121.34
118.358
48.9386
48.4092
4.9848
-90.677
-173.764
-148.144
-81.6889
-29.9945
-0.140326
-87.0579
-69.1738
-37.473
-37.3009
-7.87198
73.6926
0.781154
-60.0008
-96.7206
-133.611
-32.202
-5.24242
0.30028
162.21
247.282
256.113
201.884
114.816
35.6704
18.5898
55.7946
64.8788
98.7179
19.253
-48.7361
-155.359
-186.174
-113.539
-34.6619
-58.4902
24.9858
104.917
56.4587
-85.6466
-196.497
-193.945
-154.442
-147.753
-45.2095
-2.19061
15.1486
67.5557
74.489
119.762
97.2027
-16.1765
67.9948
79.653
98.878
95.8762
29.3471
-9.42963
-12.5545
-111.631
-1.39026
124.522
116.369
126.134
95.398
56.559
-34.1311
-128.339
-280.969
-156.329
-26.7987
29.4319
46.9279
72.2118
89.82
97.0926
53.631
-45.1579
-40.5436
44.1476
-139.58
-218.459
-158.805
-97.5103
-84.6023
-36.9317
-59.1687
-17.2344
194.124
127.373
66.5488
47.4008
-3.44681
-1.87174
-7.81657
-16.591
6.19373
-67.2512
-83.524
-20.6596
54.571
29.4119
6.72165
110.471
250.251
199.151
110.641
39.2918
-89.2809
-115.92
-139.976
-101.826
50.331
66.7178
8.19815
-38.6967
-68.9337
-48.1252
-9.79905
-13.5837
62.6459
160.641
133.3
76.8323
2.04169
-38.895
-74.2569
-124.538
-150.562
-71.2021
10.1288
29.533
-69.6986
-113.777
-125.547
-115.565
-89.7947
65.7734
174.375
133.436
51.7009
-42.552
-57.133
-92.2444
-114.216
-18.0001
58.9914
54.4349
52.799
32.6023
29.0089
70.9097
2.93258
31.0636
121.249
105.751
66.533
5.26507
-40.7972
8.85576
108.306
115.262
28.8773
-17.5394
63.3855
-39.6069
-83.0409
-24.1107
12.6566
-9.65244
-53.7459
-154.23
-91.4288
-3.2738
-8.36435
17.7801
43.2211
26.1171
9.15925
-16.6503
-103.847
-204.416
-54.5417
-39.0843
-137.33
-154.41
-115.658
-67.8164
-11.0743
67.3251
186.906
246.854
209.348
78.4345
-22.8566
-7.1771
-52.3993
-124.165
-48.775
-58.3119
-68.3912
-18.5973
-9.15045
71.9782
137.471
215.27
305.311
256.558
154.568
47.319
-82.7079
-115.758
-101.173
-82.2418
-49.0017
-3.31652
7.5401
26.0164
-56.5403
-68.7381
-17.51
32.6095
-35.1174
-81.4772
29.3054
68.3018
-37.5975
-81.3973
-107.552
-115.501
-139.346
-156.438
-59.6919
-2.00266
-10.4842
-56.4597
10.051
80.4934
33.6264
-60.6449
-18.9891
117.464
71.0284
4.16408
-95.535
-82.4446
-13.7131
25.3112
-0.206343
40.9912
167.231
225.106
164.398
115.434
126.997
92.9022
-39.7404
-137.258
-19.8707
43.8119
-26.6709
-166.44
-92.5366
-0.340575
-1.40168
-35.9325
-69.8683
95.9693
243.113
185.219
34.3709
-60.845
-113.618
-145.56
-153.281
-169.365
-69.5071
109.954
40.4844
54.1729
81.0805
70.2814
58.0337
-17.8632
-70.9576
-29.1948
-74.5177
-111.59
-99.1429
-83.8713
-64.465
-96.7144
-14.2509
89.1059
126.685
134.361
132.882
78.6433
-26.7209
-131.517
-118.874
3.98919
-22.1118
-96.4634
-100.978
-62.5596
50.1115
-18.6262
48.8213
151.943
175.786
184.022
87.672
24.9666
-10.8412
-41.1762
-88.5479
-59.5502
90.6967
171.787
177.299
47.2308
-44.7716
-89.2375
-132.265
-152.001
-80.4718
95.1311
24.4321
-77.9712
-105.521
-47.2522
-30.6696
-85.8844
-138.127
-44.3017
106.239
51.718
-0.693265
3.97505
-35.9766
-26.7793
-11.1805
50.3817
131.851
129.04
123.951
19.5167
-29.6122
-28.0467
-53.8811
-25.7624
-4.95656
-27.8621
1.7602
-9.8094
-67.5709
-79.2175
-106.848
77.9345
94.8643
65.201
87.5082
99.839
19.0041
-49.6163
-125.833
-191.482
-24.8285
9.58556
-22.5053
-1.03841
44.2672
141.498
199.126
177.746
61.9194
5.71541
105.055
11.6085
-122.273
-235.535
-193.994
-88.0987
-31.8847
-6.32165
92.7635
112.986
-52.9033
-104.93
-33.764
-21.0717
-74.8105
-125.404
-50.3784
33.1419
68.0102
73.6406
-7.87893
-48.981
44.4583
71.2111
117.534
78.4323
39.838
7.79633
-48.1076
-16.4058
-6.58116
-2.07667
42.7002
79.2757
60.063
86.7731
45.2363
-40.449
-55.2791
-31.502
-80.5146
-182.468
-86.5176
32.2074
89.8123
108.898
48.8148
25.8709
23.9032
-46.6956
-59.4946
73.4621
122.942
44.8188
15.8679
-42.5239
-161.566
-214.357
-297.953
-327.287
-119.013
-8.33938
87.2152
171.331
172.188
145.9
79.4564
105.115
184.033
202.186
128.877
28.3105
-20.8263
-59.6053
-127.931
-83.435
52.6507
74.0428
121.384
130.349
19.6041
-15.0192
-146.358
-152.571
-68.4202
-81.7072
-68.7667
-126.056
-209.161
-163.698
-77.2755
-70.9982
-106.956
-23.0524
102.49
111.112
73.48
73.2929
101.839
99.807
72.049
75.0098
135.261
103.105
-6.52455
-15.5286
51.2428
81.2947
-21.0561
-178.083
-71.3231
111.777
107.891
61.1911
21.7406
-16.4709
-67.827
-79.4342
-74.7753
20.0513
43.7626
42.6174
-18.749
-73.8841
-117.636
-133.827
-113.233
-138.622
-2.41842
172.54
147.967
23.6399
10.3639
14.6719
-21.9201
-137.065
-61.0076
125.056
164.349
74.3763
-22.3299
-73.1924
-123.197
-82.7508
-50.8119
-60.288
28.7694
145.879
240.512
160.448
44.4598
-62.4968
-90.2209
-77.5321
-77.3763
46.3657
73.5494
-36.9406
-83.3411
-83.5038
-77.4949
-36.8937
-13.8118
-11.8022
48.8804
83.273
80.2303
40.4032
-60.8845
-49.288
-70.558
-29.3066
145.914
116.539
57.1163
-10.9115
-124.401
-142.477
-146.094
-50.4228
65.0579
76.7026
126.525
122.582
73.1369
100.333
19.2307
7.95802
77.0981
53.3736
-32.9844
-119.641
-201.049
-154.782
-85.608
-38.2878
48.9945
68.9017
50.3528
-37.0524
-63.2237
-3.96123
40.7977
33.6342
-22.5385
61.3723
78.5275
64.1981
-22.1478
-2.32093
27.3216
18.8945
-84.7404
-175.985
-73.0315
1.58062
24.9523
43.6531
57.8059
12.1569
-83.4844
-114.163
-1.46503
96.9005
156.81
123.291
98.8761
80.3805
-30.8787
-121.641
-89.2949
-73.4674
-14.376
20.9466
10.3158
47.2177
43.6746
-11.4277
97.7072
147.615
91.5474
60.5278
-61.966
-154.946
-183.808
-258.17
-178.927
-17.1938
43.4573
45.8715
67.9282
88.209
58.0925
75.0878
17.3486
66.7889
51.6828
60.1738
-12.2209
-50.6477
43.9891
45.2901
-32.4501
31.5473
11.6211
-0.346283
-83.9422
-192.232
-142.122
-82.3911
-65.7788
-5.60741
16.3326
58.8175
91.581
62.9664
49.5669
-72.3072
-133.94
-42.606
-17.0651
7.48989
12.8808
13.4778
68.099
81.4486
15.4144
-0.496688
71.1689
116.168
104.599
74.03
68.8179
58.1204
43.0084
-44.7914
-62.6284
93.222
189.808
87.185
-8.81773
-60.403
-61.9456
-96.0714
-151.749
-226.264
-130.678
-37.9201
-57.096
-39.7516
-37.1744
-35.2335
-22.0203
-51.5994
-68.8439
86.3583
76.7347
19.5597
-21.5784
-17.2674
9.18139
-27.084
-36.278
89.513
148.954
161.001
123.959
69.4104
33.7409
-34.839
-82.4848
9.7688
-21.4157
-63.3659
-70.2151
-110.661
-47.5929
-23.6159
-105.226
-78.7723
80.7853
176.365
164.847
99.3949
54.3665
-12.2911
-40.1831
-48.4487
-139.101
-52.5413
88.1711
56.1769
32.3231
-18.3796
-38.7795
-101.092
-131.861
5.05873
170.695
177.105
100.078
39.1565
-15.854
-110.843
-185.7
-21.4963
64.7044
46.4054
15.5391
-66.8368
-124.769
-185.412
-152.664
7.6856
83.8396
138.609
104.51
46.9207
-21.3528
-63.6297
-69.0122
-17.0046
57.9287
46.7282
10.4395
-39.4259
-118.396
-105.343
13.2814
79.7396
47.2703
152.36
235.974
217.284
163.228
64.6302
28.2685
-49.8273
-166.227
-131.625
-119.464
-118.15
-108.604
-73.7623
17.9243
42.7745
35.0874
0.225097
22.9029
14.5066
31.4929
-50.2412
-161.115
-191.603
-181.248
-90.3944
40.392
73.645
144.881
191.94
208.766
155.46
46.1488
81.4633
114.534
23.7351
-64.2391
-64.5121
-95.8412
-92.2202
-116.345
-109.199
-53.8737
-21.7201
82.9689
98.9353
36.0768
-19.2809
-68.4488
-162.032
-48.5651
21.4325
59.6428
80.4277
105.668
93.9003
80.2874
4.37028
-158.931
-133.802
15.4469
50.8988
109.127
119.149
79.872
0.485525
-72.189
-71.7182
12.9412
4.42117
-134.287
-142.582
-57.4838
-92.9695
-132.158
-88.4506
22.5212
142.766
192.086
158.64
59.5637
7.45995
-28.9234
-71.9039
-72.7109
89.0487
163.637
81.8699
-39.1906
-23.5043
-41.7445
-33.8596
-52.9626
-8.4939
-25.6932
-81.047
-105.401
-92.7807
-28.548
-17.6856
-60.657
-55.2347
115.764
203.456
144.568
25.8088
12.4304
49.5338
72.5564
23.6856
-32.7129
0.992891
1.02416
-51.683
-45.266
40.3607
101.859
24.9184
82.2561
91.4339
59.5837
-13.0759
-147.708
-169.737
-160.77
-214.604
-98.6607
-58.9566
-38.4557
-25.0197
-29.7793
-40.1517
-74.2084
-81.766
66.1079
120.242
124.227
128.121
88.4554
78.0506
61.9622
67.1476
133.771
10.7211
-114.262
-85.6639
-78.3437
-38.4641
6.25903
26.1076
-5.4457
44.3265
120.291
96.1057
36.1375
56.9371
67.5591
38.9818
-91.1144
-195.945
-46.5542
52.3603
142.692
132.95
77.1013
-34.5641
-131.453
-167.494
-242.79
-210.229
21.9403
80.0652
31.9624
22.9144
-16.7889
-25.2063
-42.9683
-16.3971
181.047
242.478
166.636
51.6578
-154.523
-120.872
-21.0732
50.3791
75.85
-22.257
-56.0472
-74.7661
-150.308
-183.441
-179.779
-86.5669
-54.5509
-36.7861
7.75788
43.9728
16.9022
24.7531
4.14821
-4.34206
-17.6417
138.624
190.667
116.56
8.97614
85.1488
179.527
223.949
114.535
36.6613
101.686
74.6106
15.5215
-4.55398
-18.1877
-47.3713
-116.933
-15.8547
-41.2302
-37.4361
-48.7998
-123.334
-134.116
-128.65
-154.241
-89.1609
-67.4733
-21.5738
59.8367
99.7578
93.262
-47.2779
-137.172
-57.5407
-10.688
21.3916
13.8364
-65.2693
-65.5008
-37.7411
-41.4877
-131.404
-91.1859
107.737
183.018
203.553
240.433
240.779
154.426
27.5054
-89.4008
-115.79
55.1761
-4.79393
-58.954
-54.8744
-1.34594
0.0102425
-27.843
-59.368
37.9898
57.0889
-19.3058
-121.729
-87.9956
-67.0555
-51.2998
-52.5544
39.1106
159.669
149.39
162.373
122.457
88.6067
-10.2598
-170.039
-136.369
-150.589
-178.361
-118.939
-67.8511
42.0341
84.3334
-5.65345
55.5262
41.736
52.8879
41.1892
-8.96506
-79.8194
-76.8539
-68.2856
-55.8418
-125.009
-38.8565
60.9744
0.18923
52.8723
166.987
138.994
19.6392
59.9456
69.734
84.1435
35.5373
39.9101
66.601
71.4897
-19.1859
-88.6257
-58.2082
-64.1097
-108.098
-42.469
19.6531
41.8502
-54.0744
-23.039
142.919
119.283
44.8875
4.50947
25.7973
6.36387
-68.6266
-151.036
-180.685
-69.1294
-10.4535
51.0058
52.8891
45.5496
-20.0977
-152.901
-156.702
-34.6522
24.3386
26.9778
-24.4212
39.5433
68.3944
25.1299
167.441
159.393
8.01193
-99.5614
-148.334
-200.944
-134.301
-124.973
-81.2203
84.9232
228.691
335.465
305.444
196.802
114.365
3.60719
-157.687
-279.377
-174.764
-142.64
-144.102
7.27755
161.137
235.501
146.683
53.1243
82.5019
29.3865
-14.5889
-58.8316
-100.237
-85.1362
-140.572
-99.6996
54.85
23.4548
-28.793
44.0252
39.2038
-39.4277
-162.762
-68.4497
46.2302
39.5729
35.5089
11.1314
-88.9365
-102.525
-111.405
-60.0152
-27.3432
8.42626
71.9477
68.0016
28.0616
27.0756
46.3625
-25.0693
51.2152
106.516
53.0359
-10.2295
-7.27932
29.1001
45.2788
51.5611
56.9843
121.385
229.661
158.276
41.1972
-6.58471
-83.0944
-180.133
-209.298
-188.326
-33.5459
20.3543
14.8742
58.1463
98.7301
28.7406
-76.5495
-127.199
-56.5494
-71.61
-43.4695
-49.1721
-56.9941
-16.2083
-20.4617
-92.4528
46.4785
62.2448
55.8947
101.016
96.858
133.667
11.5306
-96.2
0.101905
34.3383
21.5091
25.2672
2.02763
7.08035
-46.1858
-172.1
-278.197
-153.866
-6.52372
50.8933
8.84172
38.9775
62.2478
112.739
82.8524
85.7676
209.345
232.403
134.533
28.8284
-55.4499
-115.82
-199.75
-102.398
22.1221
157.429
195.306
53.1743
-78.8654
-88.5228
-99.639
11.1888
55.5546
85.6703
43.8897
28.068
-78.5225
-160.085
-304.385
-252.857
21.7324
130.326
153.207
82.1012
33.8502
41.0753
21.5194
-91.5982
-24.1576
58.1505
2.6073
-36.0182
-40.3059
-133.776
-215.1
-224.976
-261.236
-121.691
133.292
148.97
15.1015
55.7636
137.447
148.373
141.667
78.7287
83.1194
186.209
135.684
114.721
139.018
94.2846
58.424
-39.426
-23.8687
70.0907
65.6813
-3.29797
-99.919
-139.922
-162.631
-208.106
-120.773
-21.5346
-11.9811
44.1693
58.7801
42.5769
34.1317
-99.6133
-101.992
-105.786
-198.377
-146.672
-68.5351
-49.5612
-22.3106
-49.484
-89.9486
14.6408
68.3649
105.961
127.573
197.713
238.894
144.613
62.1189
-29.0193
-4.05181
89.2689
34.5121
-16.1818
-7.90158
7.2294
-7.68381
-49.0629
5.81283
112.941
123.743
45.6305
18.6847
49.8589
-5.43812
-187.752
-210.933
-44.4517
-89.2952
-131.829
-163.378
-120.584
-70.6916
-36.4077
-2.71605
44.2452
96.9702
129.232
82.9381
41.4096
54.3988
44.5355
-52.8622
-10.9441
2.06309
-17.2015
-25.5134
-43.6666
60.5244
129.795
38.2137
-72.5272
4.17024
-21.1841
9.72382
45.0577
40.7484
28.7361
38.1892
-46.7497
-41.9395
104.193
97.5614
36.0499
1.00223
33.725
-10.1456
-109.708
-183.015
-103.888
-39.2887
20.8405
0.590529
11.3624
-15.9022
-110.652
-144.592
-8.90631
26.5494
72.9831
73.5928
17.1016
61.6226
-33.8215
-74.0137
58.866
36.2561
22.368
71.3882
78.6968
97.9525
30.0917
-24.8549
146.177
155.987
142.826
68.8304
-92.5193
-147.212
-186.145
-199.435
-110.107
-95.1997
-63.085
-8.73908
-59.559
-38.6492
7.1277
46.2685
-88.9619
-56.59
1.14858
10.3578
-7.41048
78.2863
152.793
170.011
158.144
123.94
77.5771
39.9685
-136.806
-109.273
-30.7456
-20.1789
-25.2238
-23.0395
-117.188
-33.5119
173.337
154.705
155.519
135.128
50.7521
-12.0622
-132.692
-244.232
-225.821
-230.473
-149.52
-25.125
57.8945
116.833
58.1426
33.8962
22.5515
-19.5286
22.8773
2.90177
-81.706
-61.1645
-77.299
48.8765
158
95.1719
98.2894
112.557
32.0716
-26.7084
-15.7237
-55.9971
-25.3983
118.361
173.093
117.848
20.2795
18.6094
45.3397
21.6598
-44.4096
-65.9698
-95.5081
-181.041
-268.595
-193.159
-97.2452
-1.82748
74.3441
208.307
218.034
83.8816
-8.59215
-118.921
-127.19
-127.19
-193.216
-63.097
-4.93899
-3.78277
30.6581
49.2035
117.867
95.6672
1.54564
7.6386
89.108
44.4303
-37.6027
21.0186
81.3261
151.35
104.625
-88.7914
-168.675
-34.3919
102.022
-7.9176
-76.5566
-42.5547
28.6032
67.5369
58.3211
-19.5986
22.5371
23.3493
-2.85898
29.603
26.9016
-18.1531
-33.8589
-108.836
-72.4588
45.2618
68.0913
-8.58155
-3.01935
35.6619
20.1123
-59.3787
-35.6542
4.89802
-15.3871
-23.4137
-52.8165
-65.6139
-99.4436
-116.495
-19.8393
41.4586
15.6148
33.8233
27.0648
32.6167
69.5541
25.8626
72.314
79.0102
103.06
108.502
15.3548
-90.4514
-114.128
-108.513
27.2607
108.644
62.8663
62.0317
23.6235
-88.2937
-101.11
-41.5148
-85.7142
-82.0893
56.6586
44.3974
-3.48436
-7.52815
-3.26397
-13.27
-82.5806
-151.127
-54.3173
14.0717
-34.5134
-25.9708
31.1612
46.0564
30.9745
89.919
144.927
186.256
188.268
180.317
85.4249
50.3016
-7.20409
-37.9241
-121.545
-177.292
-59.6237
12.0779
25.4858
41.25
-8.26078
-74.5891
-156.48
-83.294
49.0764
5.51866
-97.0282
-189.15
-169.791
-130.574
-147.838
-115.982
-103.437
38.8288
187.689
272.547
228.446
235.967
205.399
109.746
-78.0086
-24.978
112.427
57.9335
-46.459
-52.4383
-20.0472
-22.9516
-87.512
-31.7955
-3.04763
-11.3108
-11.075
-19.0914
-32.8587
-84.4858
-136.995
-32.2268
28.1161
27.1486
79.9121
47.7849
0.772122
-21.3684
-93.1051
33.4919
40.6781
15.7395
33.6974
-31.3717
-32.2857
-39.1226
-87.466
-26.5845
-23.8243
1.58898
65.0698
29.5069
-21.7231
-30.886
-46.1702
-3.65014
76.4737
120.573
119.857
40.2523
19.7207
65.7058
117.326
58.9619
-67.9683
-31.4208
-16.4228
-146.513
-159.875
-81.1936
-19.8126
-24.2219
-26.9969
8.52436
106.473
181.01
93.3802
24.0764
6.93324
-74.161
-103.274
-68.2629
-40.4217
74.2017
82.8268
63.6484
59.1729
31.4803
59.8
-24.8045
-107.448
-156.758
-254.658
-258.289
-177.896
-142.826
-68.3908
-40.7596
104.176
209.995
219.807
195.482
143.737
32.7618
9.18538
-42.0098
-10.808
56.3133
120.669
90.8277
47.5382
18.7874
38.8034
70.7777
61.4006
-89.873
-42.3628
44.015
1.6909
-60.2286
-76.3259
-71.8925
-42.2219
-91.2474
20.8087
89.1221
103.553
32.8616
-49.6825
-40.0281
-80.4439
-104.612
44.2382
25.8255
-55.7544
-86.5308
-108.616
-68.7622
-59.7487
-106.313
49.1181
111.073
72.662
37.941
1.13129
-21.6065
-78.9582
-155.746
-127.327
1.66483
68.1628
96.7735
86.4323
150.721
168.164
190.366
60.9737
-64.6144
54.0737
81.6521
-96.8027
-283.757
-304.738
-154.171
-6.78866
48.7106
51.6917
124.668
265.76
194.784
147.113
118.302
50.4854
46.8155
50.2896
-24.8872
3.93452
35.2582
-86.2208
-136.591
-162.595
-109.301
-40.1934
-48.011
-27.1367
-49.5729
-49.3216
-73.6124
-150.448
-96.972
-36.7228
10.8325
69.888
12.5381
-7.59715
19.7949
6.95321
19.6927
-25.5562
9.75181
97.3932
119.86
84.4226
29.2083
-3.22619
74.6277
111.811
39.4316
-39.7022
19.7927
-3.84372
-90.3886
-196.346
-173.082
-126.585
-55.736
-23.8601
72.7421
222.302
214.858
194.708
196.738
76.1672
-12.3634
-119.02
-116.04
-27.3076
-7.85914
-35.8865
-95.2427
-50.2787
3.65376
-48.5012
-104.798
-35.411
61.321
62.7343
10.6858
-55.811
-88.9098
-126.288
-105.074
-50.0655
70.271
243.226
203.369
47.2088
-35.7404
-51.4105
-63.3626
-97.692
-120.242
69.909
110.05
68.972
6.8953
-7.34989
-24.7034
-51.7999
-75.8708
-142.217
63.3525
199.87
114.55
-7.07894
-70.8795
-79.3354
-26.902
-63.4672
27.2287
178.783
201.479
82.9931
11.0088
-64.9204
-86.9302
-92.3293
-103.65
-3.18958
-27.2781
-19.1351
-75.5775
-61.4492
-8.83344
-70.8516
-18.5007
104.508
150.141
136.109
17.652
-93.6517
-83.8898
-120.761
-9.04738
118.755
52.414
48.3053
38.9669
-32.3661
30.3115
62.0461
46.9085
135.646
95.66
-21.1772
-94.5623
-146.908
-149.1
-111.769
-82.2608
-125.222
-115.467
23.7159
34.6192
13.2207
35.4256
43.5455
35.8913
-15.3525
-53.7082
-60.8244
-67.1666
-25.243
-3.90792
55.7796
96.2899
130.763
177.772
126.834
50.48
212.933
187.64
81.2587
47.413
23.234
12.1028
-70.1678
-84.3118
-61.7521
-109.932
-77.5882
-114.141
-208.246
-190.352
-184.825
-109.592
89.9218
106.816
94.9901
72.2721
-23.7006
-7.08159
-5.40462
-41.4268
-90.0506
51.8823
146.519
79.3213
-26.699
-25.1418
-1.63413
-28.6252
-41.5646
10.7257
136.528
103.072
-101.259
-120.814
-110.589
-137.319
-101.618
-73.6863
42.0425
108.486
103.038
2.16169
-22.6217
40.3236
29.4642
38.6754
202.503
209.251
166.394
111.325
18.6623
-43.8014
-107.419
-145.108
12.4556
66.1425
44.8991
37.3511
-3.60226
-21.2047
-94.0603
-148.782
-49.8558
-48.0455
-34.832
23.6813
-50.7465
-64.1689
-91.9291
-116.9
2.14341
116.576
89.2591
5.35363
-100.297
-43.9362
-32.1676
-26.7783
-106.376
-118.911
133.096
209.837
136.573
104.975
109.617
65.3267
-20.796
-121.095
-248.029
-175.329
-100.062
-6.41366
82.428
160.383
158.118
98.1496
-1.26466
-113.255
22.5024
171.622
34.8013
-22.1033
-26.1679
8.60519
34.2393
-10.2188
-5.50935
49.522
107.095
98.8144
31.4785
-37.9906
-52.2417
-62.964
-1.8736
11.5084
9.05256
43.1751
-54.5738
-161.945
-209.061
-301.235
-253.483
-131.281
-13.1907
93.5443
108.882
114.914
117.003
96.0431
4.18082
-125.635
-37.8665
60.8157
69.6859
74.984
85.3066
136.111
109.237
-10.9557
77.1552
102.621
-0.239732
-92.388
-135.026
-145.858
-193.998
-180.605
17.4013
132.49
168.738
217.531
161.333
121.474
68.5797
46.295
33.719
37.5972
-71.6849
-83.4845
-151.667
-116.621
-70.6137
-46.7118
-53.4394
-6.31808
158.51
154.831
36.9403
-18.6741
-23.7037
-80.4847
-170.129
-269.817
-206.111
-130.517
31.8998
-2.95898
32.4883
86.4116
38.6301
1.19033
-16.9488
14.4024
122.547
111.799
64.2752
95.2445
136.617
97.9334
-33.2574
-57.5967
-27.6411
-87.3039
-139.313
-78.9311
-21.8802
31.2817
-20.355
-14.9425
118.14
139.252
131.541
123.611
68.4074
48.1443
-62.4194
-100.131
-51.2368
-89.5045
-58.7196
-28.3905
0.710237
100.529
38.6501
11.3448
-42.0204
-92.8019
-26.9995
10.3985
-50.3196
-14.6411
-63.0056
-134.334
-49.6017
15.0456
94.0618
162.285
79.8163
20.7328
9.3059
-22.034
-80.8392
-25.4638
0.608603
-8.3559
-69.367
-51.2064
1.04428
41.7422
13.1577
103.414
139.755
73.8784
-38.6148
-95.6494
-139.185
-133.126
-109.597
-42.2534
51.3381
139.915
104.303
43.001
-12.2287
-89.9569
-73.2937
-13.7229
150.017
121.889
120.244
69.2038
28.6375
33.9447
-47.6895
-70.0245
37.0608
11.6985
-9.11103
-6.91335
-36.1793
-68.0931
-32.4307
-85.2733
-100.044
61.5629
81.734
19.6097
-125.414
-150.611
-133.158
-126.375
-148.72
-53.6932
124.852
129.959
80.5535
87.3565
80.057
67.4252
27.1428
76.9565
93.2543
124.607
146.577
26.5497
-54.3369
-65.4548
-118.833
30.6985
102.241
28.1877
-13.6906
-100.957
-164.937
-107.762
-156.311
-62.767
-40.6879
-5.89889
59.029
15.5624
-23.0119
13.8336
-6.64871
26.8116
80.139
106.075
133.38
55.982
-5.09652
-6.57093
-9.08042
5.02558
76.5074
74.8416
51.5676
-22.7583
-74.1451
-60.8842
-26.3036
-18.812
-49.3766
21.8059
102.06
25.6181
-53.565
-89.2925
-140.546
-198.6
-225.622
-192.331
101.187
221.613
143.379
113.126
58.8057
0.468808
10.9214
-55.943
-16.126
-12.8783
-13.5957
1.24706
57.4108
85.715
77.5059
21.204
57.818
55.4917
24.3704
14.8745
-78.6358
-100.061
-90.1876
-104.289
-6.11806
44.7836
51.6809
65.9687
-15.8347
-54.3166
-31.7122
-167.059
-219.618
-25.696
73.2388
119.467
144.875
171.726
183.426
178.654
85.7016
-34.0832
-11.5561
-36.2736
-90.0519
-133.172
-116.613
-69.5311
-99.2755
-86.0899
-11.7825
17.8826
46.0658
-19.4057
-22.0777
19.1144
-52.7073
13.397
93.678
49.5064
-7.34005
-53.4115
-116.628
-45.8345
-4.845
49.0054
164.877
107
32.5806
7.90295
16.9959
71.4678
50.8479
-36.112
-128.889
-34.2639
25.1289
-22.0881
-56.3392
-9.97174
63.5436
120.554
23.1969
-72.2931
8.92162
20.4904
-95.2566
-106.547
-41.0108
-15.4332
12.2911
79.62
86.8201
48.7297
99.1281
32.9602
-11.5575
-63.382
-73.9778
-70.6478
-117.309
-114.182
-5.31006
-3.34615
-54.5728
-54.1297
-10.5299
70.7462
10.0073
19.4384
125.587
89.3949
40.8744
-10.6133
-32.9436
-32.5015
-26.3917
46.2225
31.7175
-1.71477
-5.58012
-3.29533
25.0434
149.53
81.6361
99.7443
123.203
21.0185
-54.327
-170.498
-188.613
-99.72
-87.2553
-66.9741
24.749
123.813
116.875
56.7881
38.0314
8.3926
-1.51331
-18.9949
-90.9738
-44.7004
-39.0297
-75.1526
-106.809
-65.6378
45.7065
105.865
-12.1739
60.7255
124.275
87.5941
0.419604
-72.502
-49.2007
-69.048
-79.9052
-114.402
-96.1313
48.4398
51.4653
-6.72183
50.0225
57.8355
28.9665
1.85782
27.4936
101.967
141.408
34.7046
-22.5323
-33.3255
-58.8396
-93.7425
-109.077
-58.0685
114.389
186.967
214.637
109.215
-22.1228
-147.772
-170.921
-225.104
-274.279
-61.6808
79.043
80.1679
73.5246
43.7577
63.9176
65.8473
11.8113
45.4816
170.946
141.662
41.747
0.978343
-68.2329
-89.6271
-82.9867
-34.7145
-4.85876
-65.9027
-32.1538
-69.3986
-57.9507
-8.59177
-11.2494
38.289
1.68768
-22.9714
26.6038
30.9126
-15.7774
-34.5129
-91.8333
-6.32432
65.403
62.6179
78.5355
85.7251
81.057
126.008
49.0371
-12.5793
32.0456
-34.6088
-72.3102
-121.393
-90.0353
-35.023
-49.9211
-101.03
-77.4737
-3.34504
32.9877
29.4723
67.251
102.728
81.3933
28.6266
21.645
-31.3603
-33.1192
19.9577
-54.7906
-97.685
-74.2284
-9.87687
29.6339
10.7779
-44.9208
33.0683
-0.899859
-38.5918
-54.7199
-63.8457
-49.8812
-37.1092
43.9812
157.142
159.364
194.11
161.861
56.2631
15.6123
-17.0973
-120.038
-73.916
-86.878
-78.1678
-3.59
21.1611
34.6293
0.237479
-69.5934
-38.9158
113.321
86.9778
65.8287
21.8719
-18.5126
-35.2213
-8.0741
-34.3415
-92.7418
43.1341
93.6067
-7.47543
-35.0632
-29.0034
-39.2098
-154.88
-204.929
-101.152
25.9423
59.2459
-22.1106
-21.7153
-15.5372
-47.201
-122.65
-66.137
-26.4741
26.9836
95.3837
104.523
162.857
116.154
83.315
134.651
94.089
105.086
157.707
122.226
42.1051
-120.458
-245.336
-226.095
-183.024
-148.979
-31.2024
56.9296
121.069
109.634
48.6053
-17.454
-39.2638
52.5191
52.9293
3.46363
9.5517
-0.105378
-25.3863
-32.3668
-25.6648
-37.8188
26.6876
125.674
154.576
149.909
111.941
4.84313
-49.6754
-111.383
-155.422
-54.1598
-59.8287
-119.677
-108.109
-96.2144
-60.3822
-88.6424
-22.2791
7.75362
18.3527
101.058
89.5831
38.3742
-15.8608
-119.851
-50.1572
12.1866
25.7923
35.4481
60.5202
45.7855
60.7274
-35.6503
-10.3191
50.5528
72.9639
130.633
106.67
24.0406
-24.1719
-107.536
-124.99
-33.6436
-7.56964
25.706
-11.9558
-23.335
3.3138
51.9624
45.6701
14.2486
70.7578
105.685
74.0835
16.5537
-35.3457
-119.287
-264.101
-227.61
9.16345
81.1661
56.3415
-7.22313
-35.25
8.26581
28.9835
29.0184
31.4783
127.43
90.0404
32.4152
-5.96713
8.40733
36.4366
3.65338
-51.3514
109.483
141.638
90.4213
-45.8936
-31.8657
-23.9581
-140.674
-199.033
-2.86272
25.4475
5.99025
-13.1864
-66.045
-30.6272
-91.8979
-172.098
-42.9183
-52.1488
-39.7194
27.6827
-73.3067
-94.696
-50.0194
-98.025
-85.1002
100.968
163.349
227.5
144.475
121.231
127.026
52.9354
-33.2899
149.075
178.371
184.728
86.3494
16.4673
-71.3274
-182.406
-215.085
-15.723
45.5261
114.828
137.402
-13.5281
-62.5499
-148.157
-242.779
-144.653
-111.001
-34.9939
-6.25165
-99.5855
-81.2603
-77.0203
-73.3691
26.0449
63.0817
93.5942
103.488
49.4774
33.681
6.71057
18.2031
120.681
179.253
246.681
240.972
97.4023
-12.4949
-41.0968
-54.6579
-154.409
-119.897
-111.744
-134.839
-79.2214
19.2852
74.5708
63.4046
-49.0593
-184.008
-151.748
-154.191
-183.073
-81.5475
9.96248
54.2076
72.2779
29.1212
80.2371
95.8728
40.6959
-5.16418
42.4116
88.6599
8.16346
-21.7499
165.389
202.386
212.127
228.16
141.591
46.9553
-167.026
-299.889
-142.185
-88.165
-68.4977
1.75598
-45.745
-60.6009
-16.4187
-83.2998
-33.1219
20.3206
45.5154
74.4618
9.64546
0.681892
-1.55048
26.1359
-67.7718
-36.1945
78.0447
25.6512
-83.147
-72.5676
-41.2886
-20.6312
-65.9951
-30.969
130.031
167.107
118.855
50.972
37.4944
56.5984
-41.4988
-37.3928
-26.5332
-63.1691
-48.7042
-63.626
-52.6018
27.6546
21.4055
64.6874
63.3913
1.73874
-15.4876
-55.8453
-163.295
-155.457
-99.3566
27.9274
80.2748
69.9872
63.9496
50.9454
31.368
6.84991
28.7512
42.4459
2.16957
32.9656
89.2639
7.24763
-49.1517
-21.7406
-16.8411
-20.6027
36.3461
47.3525
61.7165
116.779
40.9283
-32.9327
-74.6114
-108.933
-101.157
-48.7876
-70.8718
-47.512
77.6595
75.197
15.8636
-23.0489
-55.5258
-54.2803
-39.1692
62.0986
28.6089
77.0477
62.8943
-69.2799
-131.562
-196.106
-164.119
5.92664
5.19556
27.3627
123.017
162.864
108.858
21.9648
-29.1734
139.609
153.291
133.344
139.987
78.4703
17.7631
-94.5467
-262.206
-151.46
-40.0288
28.2891
40.3963
-57.1051
-54.5552
-56.1741
-59.2247
-60.9147
62.9642
93.9963
62.9226
-79.0628
-147.35
-144.679
-102.61
-62.8683
100.861
172.964
173.364
31.6679
-12.2544
20.796
31.8393
-19.2405
76.1172
134.947
104.131
58.6264
-111.97
-156.03
-173.123
-200.817
-161.926
15.7853
113.156
75.8879
21.0754
29.8355
63.9155
16.793
-59.4172
-83.4742
82.9233
119.38
48.9874
16.0097
28.6754
11.9256
-39.7813
-123.398
1.66363
189.187
233.467
95.9438
-19.4347
-40.2331
-60.3326
-53.1528
-81.9087
-92.2923
-4.31417
8.0251
-58.6891
-28.9834
-23.3053
-61.5877
-116.427
-18.7118
79.1007
160.372
78.9042
-68.9075
-94.347
-103.697
-146.559
-19.2227
-24.6172
-18.0928
15.0749
41.118
71.2406
32.409
-31.1938
69.4106
17.9413
15.3615
83.8306
55.1212
19.4449
2.47992
-58.8818
38.1996
62.9561
42.3769
79.8513
13.3389
5.63891
25.9886
14.4104
15.4929
60.532
34.9868
-1.36497
-98.3284
-112.228
-112.452
-103.568
-164.257
-171.361
-4.52725
96.3872
37.8973
44.9544
77.8406
85.3233
-10.0661
-74.7215
-102.694
-52.9077
77.0921
78.7948
119.313
103.868
57.84
78.718
31.1049
-65.9829
55.3552
111.437
57.3951
7.01069
-81.3159
-101.581
-86.062
-180.164
-118.747
-17.1121
0.586611
55.9903
-10.2203
-54.3193
7.73572
11.6919
105.618
100.879
68.2673
45.4707
-41.6236
-129.848
-159.991
-131.895
-18.2927
21.3087
27.9083
71.6308
53.6278
31.2623
48.0511
-2.68191
56.7054
111.761
85.2533
85.3207
-22.5932
-137.563
-276.639
-303.95
-93.3332
145.05
175.386
131.83
24.6191
-5.63824
-15.23
3.65158
123.591
124.363
129.591
134.669
7.49752
-79.9701
-97.4766
-132.762
-59.9837
48.714
177.214
234.073
73.4471
-84.8103
-132.381
-191.417
-117.555
48.2336
75.6701
67.2256
-38.7577
-126.95
-191.925
-154.224
-161.867
-158.573
-47.1104
-16.0597
-27.7649
53.3857
151.179
202.364
132.204
-43.7382
-44.2317
115.053
61.3574
-34.0037
-22.5613
35.8826
36.0389
56.7378
53.4877
94.4616
82.321
22.5955
-57.1568
-8.56563
23.6008
25.3368
56.9394
107.398
11.8735
-15.2126
-64.5401
-135.891
-116.116
-136.496
-64.5899
10.8413
-13.3515
-31.2113
-2.63494
-18.3288
-15.7788
-23.0744
-1.09809
74.9721
0.547189
-26.4793
-12.6012
-27.6669
18.4325
41.0808
-22.0969
-19.8026
95.5505
88.8373
49.5551
-6.87542
-36.0151
-34.2466
-23.9681
-57.4109
40.9762
137.352
98.6658
11.6318
-14.1381
-8.09749
-47.4057
-144.301
-98.4381
39.5529
97.6361
79.2736
13.7611
-3.2798
-52.2994
-141.97
-79.6843
87.0279
85.9851
65.6579
25.8688
33.3043
41.148
13.2233
-61.4593
-120.527
-11.1422
41.1033
-18.5613
-111.288
-61.7504
-40.05
-64.7736
-53.7163
72.4403
123.973
62.0863
-44.0715
-44.432
0.807542
-22.6629
-108.03
-76.3659
45.9006
93.2753
96.1928
7.49874
33.2302
108.03
103.024
23.1462
63.0833
27.0594
-33.9153
-96.039
-41.6805
32.3823
42.7336
-6.72624
35.2089
31.3016
30.1926
-4.46878
-50.4152
-41.949
-94.6813
-125.366
-60.0905
-50.422
-1.20121
53.3708
68.5146
99.9932
56.2967
-2.53852
48.0967
20.2146
-11.1205
3.71215
-71.7606
-133.525
-148.546
-95.1462
4.56985
35.8849
81.548
96.6004
58.5993
50.0742
13.9752
-30.9789
11.0127
100.753
85.1393
14.2591
-70.4023
-103.748
-96.7884
-39.0184
-77.2311
-72.5953
113.54
136.116
45.6551
28.0814
45.1665
1.37137
-89.2519
-135.274
-178.581
-50.9575
45.0248
-11.9995
58.2198
79.4524
44.9933
13.732
-63.2101
-62.2414
59.7137
126.817
82.0192
29.3952
-25.34
-32.9292
-50.807
-51.9224
57.3986
88.4476
137.318
117.058
9.35324
-36.5668
-84.0224
-138.746
-20.003
77.032
75.224
38.8139
-8.18824
-17.7531
-73.6211
-152.226
-214.505
-96.1691
41.9556
96.1578
56.1135
45.2515
46.8433
-7.37651
-92.7749
-135.571
59.5496
144.905
88.6543
11.181
-9.5057
-4.88436
-29.3744
-86.1313
47.2212
62.4982
57.2648
1.50243
-37.8965
-51.3814
-96.1139
-105.754
50.7002
131.233
85.7484
75.2497
-0.071308
-2.8595
-43.7264
-84.2008
55.0565
76.9819
47.2702
38.4328
-64.9121
-38.9822
-5.94707
-100.057
-128.454
35.8045
70.3811
60.7392
-6.80722
-33.5278
-25.4219
-23.0158
-92.0887
-123.595
-63.3258
89.9716
47.6558
20.3499
24.309
44.6581
16.4183
20.3949
-5.94105
70.897
98.3862
-0.108905
-5.72168
14.9484
2.66558
-7.19623
-67.8576
-67.3959
45.2545
55.3393
13.1603
-41.7001
-45.7308
-35.7096
-61.5455
72.0657
124.073
110.88
99.8036
35.1836
-59.846
-158.196
-250.543
-188.216
-74.2003
-25.2413
36.4876
42.361
14.6467
43.1372
-1.42547
24.2962
78.0386
60.8828
90.2765
46.9678
1.74513
-7.58548
-24.9691
-68.3858
-35.9845
121.918
246.323
189.96
98.3371
53.256
33.8957
-1.23462
-102.964
-25.0831
13.0224
-32.1176
-77.7091
-67.3984
-64.3721
-101.243
-151.139
-74.9247
-51.2812
-18.9059
-5.50655
-64.3156
-69.8267
-97.6304
-195.519
-119.878
-8.10956
19.0592
34.1189
8.46301
18.8658
24.3105
30.4019
26.0908
12.059
89.8482
71.7006
24.057
66.8207
104.788
103.901
95.3116
61.9042
92.8109
167.898
70.354
-18.3195
-14.7023
20.682
31.3494
55.4048
23.2973
-67.4898
20.8235
106.403
10.5176
-6.36824
-35.2356
-88.3275
-113.047
-164.863
-162.616
25.9466
34.9134
10.6271
19.3503
11.6258
-16.6301
-85.3633
-140.225
-93.1824
-58.8757
-24.9156
-68.1293
-83.4118
-69.2976
-80.5869
-51.6325
98.4981
126.724
170.797
171.649
86.8913
63.2614
-0.309216
3.27979
-54.8012
-93.5294
-78.605
-130.194
-221.57
-168.361
-84.9784
-6.84493
134.396
162.84
182.024
160.036
88.935
97.6113
114.894
49.4055
-79.6833
-21.1572
42.0297
28.8778
52.7718
105.011
139.167
167.54
113.493
76.0061
54.0503
46.0668
-49.3994
-84.6862
-96.3823
-122.451
-142.108
-149.854
-223.413
-154.245
-84.7601
-98.8435
-109.764
-84.3017
-17.4863
-22.5527
-73.1418
29.5115
31.8368
-7.48747
-33.3674
-76.6499
-138.406
-168.628
-31.2386
93.1785
82.5952
75.7471
118.266
77.8911
29.6108
20.1387
36.5613
159.869
183.996
170.333
169.496
131.85
160.71
146.483
91.5832
4.63901
6.6886
-1.19131
-73.5686
-83.781
-44.3701
-17.7284
-33.3659
-126.869
-35.4981
33.5605
-11.8872
-141.526
-192.461
-150.501
-85.782
-132.56
-54.4496
14.2619
43.8018
70.4421
48.0985
51.3499
33.5128
-64.3942
-11.3733
31.1809
42.6334
82.0964
25.2279
-36.9178
-43.6974
-100.151
-12.2607
12.0822
-9.90158
-9.76596
-3.72441
-16.0406
-23.2382
-53.1811
-48.4477
42.4785
24.9287
30.9141
-22.9544
-59.0186
-23.9436
-25.7109
-97.914
-75.0305
35.1676
225.146
157.643
110.445
100.216
72.8843
27.1644
-28.1323
-133.403
-8.75341
140.385
101.827
91.6363
91.9314
72.9363
65.9179
32.9977
64.2408
115.671
80.3533
33.986
-74.8197
-101.63
-111.103
-170.917
-174.675
-177.377
-125.824
-12.0501
-47.7316
-133.045
-176.408
-159.048
-10.3551
-4.50902
-18.7845
-16.5735
-25.1342
-12.874
7.20317
-58.2391
-93.9793
57.5508
82.6056
116.305
126.15
113.095
75.1937
74.996
14.6278
8.65417
78.5143
88.6395
21.8063
4.13475
12.1471
4.02932
-22.4899
89.9343
60.9386
58.2073
43.1747
-26.0974
-7.07776
0.864487
12.9904
104.35
77.5583
48.7694
12.3917
-61.4733
-106.513
-159.152
-198.586
-87.3648
4.30122
39.5084
31.2537
-31.8422
-28.5145
-14.4542
-7.93536
-113.696
-84.179
53.0409
40.7448
-14.2618
-6.71278
1.3341
16.6153
-2.66158
-73.7976
-94.2501
23.2668
78.2915
-0.365704
-8.63531
21.7394
-10.5889
-3.1977
11.6048
-43.7571
26.3331
16.3675
-10.2825
36.3565
32.4448
44.8252
22.1897
-44.3726
47.345
164.108
177.896
74.2798
-11.8543
11.2938
23.8894
9.53597
58.6707
73.6297
65.6487
62.4407
2.16379
-20.0826
-82.7604
-146.06
-62.1129
-94.9592
-91.9658
-21.5027
-32.98
-51.6376
-13.205
-33.0326
-40.4203
6.09088
-43.4853
-71.134
-116.099
-105.061
-64.5894
-20.2248
-83.3652
-68.645
106.409
142.383
61.412
64.1499
73.1741
70.7026
24.3966
-33.5414
-26.6064
54.43
21.0375
-15.4769
10.5026
43.0056
40.8144
-5.80374
-8.7484
73.1858
191.978
147.447
10.3566
-11.0283
-38.2037
-23.3539
-23.1053
-50.5564
26.278
43.2192
48.0124
-1.92456
-23.3698
-58.8403
-88.1152
-118.246
-90.7397
-110.825
-111.479
-103.097
-82.5572
-30.7092
-92.193
-81.3797
17.055
156.374
142.585
129.654
45.4436
27.4224
36.5468
-10.4749
-5.21868
69.7211
69.105
91.9426
82.4707
104.367
69.6808
-12.6692
-78.4009
-15.8753
-5.0197
-3.30562
-53.6576
-105.032
-69.8861
-71.9253
-84.1834
9.18081
15.0978
4.74508
2.14266
-37.5685
-10.1902
-6.67574
-43.643
33.9224
45.5151
26.8192
16.7033
-27.154
-9.66074
-13.5198
-81.7748
5.56391
40.0342
91.5479
85.9764
22.4745
-8.04728
-57.8907
-96.5731
-34.7986
-10.9035
-39.6761
-30.2601
-16.0383
35.8453
80.7969
63.8804
-31.9352
35.026
113.66
107.658
14.5766
-7.56177
-11.2986
-17.2475
-32.4088
-59.0874
5.77677
78.3961
6.42044
3.34532
34.7629
13.2913
-37.3871
-100.045
-71.3377
37.2814
44.1458
-4.5449
-29.2415
-17.4714
-52.2686
-64.8818
-22.2406
-8.15524
-58.7492
-37.676
-22.8703
-22.6654
-18.8147
-57.3438
-20.6162
68.3376
53.8732
86.2699
66.4608
15.1634
-3.29327
-72.8607
-20.387
41.7447
85.7352
71.8076
50.6666
43.6019
52.4905
52.9818
-8.17211
-75.5252
18.5227
76.701
34.7389
-20.2679
-18.4675
-14.8964
-26.7466
-64.3749
-73.9577
26.8024
-26.0041
-73.1175
-103.93
-64.7875
-47.8935
-84.7475
-68.5296
60.2498
115.137
103.502
19.0184
7.17992
24.0461
-10.5601
-24.0681
43.6622
42.5397
42.6473
63.6044
14.9504
-10.2357
-28.7975
-79.947
5.2889
42.8357
36.8909
27.3073
-28.4497
-30.4684
-2.93155
-59.4935
-128.822
-73.8781
68.3272
63.2856
9.04109
1.33856
5.5494
25.5684
8.14428
-47.0168
-47.4949
92.5218
65.9537
21.024
45.668
61.5906
16.2457
0.466436
-44.5346
-100.986
31.0136
2.33315
-74.4591
-39.1285
-20.8555
-3.50394
-18.8325
-31.1015
72.3334
66.1408
34.9484
-50.3953
-90.1036
-92.903
-103.584
6.97703
49.3464
50.7187
66.0361
74.5278
34.1341
22.2532
-32.8979
55.0024
26.4672
-20.8959
-34.4001
-15.2713
-53.0287
-59.7114
-91.2461
-36.9257
72.3529
91.6867
77.8162
18.4707
-6.31489
-7.27486
6.12328
-10.1616
-53.2332
56.3297
101.803
24.1679
5.51974
8.43457
19.6494
23.9905
-43.7383
-17.8185
103.914
36.7359
-51.2293
-70.5039
-46.4826
-60.9975
-98.1967
-144.912
-5.28871
123.154
116.72
29.7363
-15.8858
-48.9572
-53.2663
-78.5292
-140.752
-52.6551
70.1174
85.3675
51.1632
29.9453
10.3849
11.9085
-18.368
-23.6229
16.1143
-8.16799
-67.6671
-56.417
-3.89379
9.31978
-13.353
-71.234
92.6164
145.868
163.479
94.5691
10.8003
4.70859
-17.1393
-62.7243
-43.2579
47.9522
72.9714
55.7269
42.6723
87.3752
58.2216
-11.6567
-36.6902
-27.8369
-50.9074
-29.1684
-98.9451
-91.6256
-59.7994
-104.703
-84.4473
-30.4036
-22.3043
7.96007
-6.88264
-54.765
-53.3351
-112.43
-30.7072
80.486
44.6998
42.1097
45.3104
34.0113
68.3154
61.0024
39.0899
44.4857
24.9512
14.341
-23.2324
-29.6744
-21.2604
-17.1661
-53.5618
-49.6382
78.4655
153.238
73.9161
4.91844
-6.437
-16.2713
-72.5614
-138.527
-48.131
50.4828
14.1308
-0.489786
29.7031
52.5091
31.8064
-4.5839
-21.3538
-63.008
38.592
87.6223
12.1175
-5.39065
-18.2897
-28.8495
-30.472
-77.2308
-6.83317
75.1384
14.5686
-10.7112
-18.9902
-20.1854
-40.9082
-83.5687
14.3769
102.549
84.7928
94.8488
33.809
-31.9049
-70.3023
-119.412
-39.4139
1.83054
6.50252
27.2971
19.7597
7.55121
9.2582
-1.99927
-51.3571
-73.558
50.8383
63.8227
-4.39932
-59.4743
-43.04
-0.858844
-33.8953
-81.8983
29.6143
106.307
76.6651
55.0621
44.6401
45.1987
19.1547
-33.7809
6.64967
6.1742
-17.5514
-24.9903
-69.9303
-38.5318
-57.5449
-85.5609
17.6108
48.9231
52.9336
79.7432
40.2381
32.1767
-29.8195
-81.1561
-13.79
49.279
32.4483
23.5812
-22.9064
-35.0455
-9.42699
-71.2123
-49.5889
79.6594
47.3309
34.7595
-10.6822
-21.2157
-11.7798
-8.34406
-62.9175
-95.8111
33.0763
51.5743
20.3406
5.18322
18.8132
29.3929
-18.4448
-107.677
3.25208
119.657
97.5509
7.48807
11.6068
33.9311
15.9996
-3.35058
-40.4527
-44.3592
36.3657
35.7289
-54.512
-69.4025
-88.9843
-92.5989
-100.057
-40.9543
44.4982
95.3414
50.7182
20.9329
-13.5056
-39.7014
-99.9449
7.95381
86.3833
80.8889
82.9447
65.5927
9.77025
15.8131
-50.9336
-6.48732
25.9535
12.1931
25.5204
10.0704
-15.5507
7.58776
-20.0186
-84.4531
-1.39644
47.2628
70.3195
-13.9003
-80.1104
-72.4148
-40.7328
-20.0435
-58.3709
-33.4596
80.4705
50.0175
24.5718
20.2229
8.0124
-22.5851
-80.4126
47.9093
79.5019
84.8512
12.0973
-32.3068
-7.49502
-36.0928
-115.305
-0.299157
50.6855
18.7013
9.25282
5.535
-16.2162
7.83481
3.66133
-25.6001
-38.4863
32.48
73.7261
-5.14425
-33.2943
-6.05925
-8.92418
-24.234
-38.4915
42.2096
74.5938
8.49006
-18.719
-12.4789
-12.8545
-16.7116
-44.5459
-101.698
-23.7144
90.5946
79.1781
23.3405
8.19678
-20.5869
-25.457
-17.1515
-45.3212
52.9219
85.8777
26.8742
25.1885
-8.67314
-31.6109
-58.6741
-82.235
25.1806
25.9252
37.8212
-13.2838
-46.6806
-15.1912
-18.2431
-49.6174
16.8446
53.5719
50.6482
52.127
-17.4256
-20.3834
-30.8855
-40.5884
32.8059
27.6921
45.4903
52.5446
-22.7227
-45.0635
-57.3423
-69.8349
16.0243
41.0573
23.7094
43.5352
5.71232
-9.3976
6.31838
-18.8924
-89.9971
20.0529
84.4622
63.9383
-9.92782
-19.1137
-3.31816
7.68619
-52.2119
-107.776
10.4232
110.263
29.9039
17.192
6.88771
6.88542
-5.96267
-58.382
-112.161
40.6578
102.306
10.3693
-48.3581
-21.3259
-30.9694
-41.3172
-74.7756
34.2035
57.8848
88.1242
45.0237
-22.5302
-40.7316
-61.3323
-47.4453
35.4471
3.73084
-1.08199
22.1545
-48.5293
-62.5688
-92.0819
-23.8806
50.7266
25.881
35.0796
96.3919
68.6794
60.4654
61.9998
6.55829
-53.206
-20.2768
68.3137
28.6088
-30.6446
-44.3063
-32.1619
-2.57582
-56.2857
8.12878
81.7333
25.5272
-7.71829
-0.728866
2.34163
-19.518
-90.7618
-2.80189
52.5525
41.4242
20.6181
-24.3205
-57.0522
-38.371
-95.6988
32.5378
62.9533
44.5737
25.4959
-11.8555
-30.3944
-52.1575
-107.721
-24.6772
43.64
31.4384
26.5922
-23.8092
-32.552
-20.0203
-51.8051
19.1951
48.8116
59.3086
64.1586
-8.16039
-15.3784
9.11364
29.4481
-2.64043
-49.6005
56.8756
104.877
67.5815
17.6676
-0.201345
-16.9441
-65.3141
-110.017
-117.583
-2.69065
16.7743
-9.0218
-1.98174
33.8888
42.3845
44.0388
-26.2253
-29.5302
79.9224
92.8132
2.25757
-20.1426
-38.9138
-53.012
-66.7922
-25.9112
58.777
74.5685
90.9887
52.103
-34.7366
-77.6607
-120.731
-76.9978
-40.4496
-37.5522
2.70877
27.0045
-4.246
-5.90321
-77.3588
-48.8169
62.1769
135.799
124.194
72.7469
-5.01788
-19.4843
-13.6291
-31.2638
-78.6854
15.2012
70.6103
44.0817
-6.3278
-8.23324
17.3906
2.39675
-77.9261
-1.02836
28.7571
15.2303
-42.7515
-68.3899
-29.5117
-56.7706
-83.3642
56.1484
93.0379
68.3743
55.1784
-20.987
-26.3712
-19.9875
-86.7785
-11.2512
131.522
133.51
110.68
21.9773
-35.9339
-54.0469
-79.3149
-141.475
-147.251
10.9489
69.9625
4.02138
-9.52819
4.62742
26.5468
16.1655
-55.134
-27.3246
64.9842
49.4695
-44.5479
-40.8428
-16.8047
-1.75867
45.6079
33.6663
-38.4288
33.0753
110.548
45.836
26.437
-5.90238
-12.1871
-12.1234
-43.7051
14.4771
70.6133
39.5699
7.5135
-25.0031
-41.8138
-55.8475
-101.036
-29.4923
33.0388
20.0495
25.9733
-6.71615
-24.6597
-32.2834
-60.8496
18.9209
21.1997
5.87367
27.1004
-9.67423
-7.5667
-20.4283
-81.4043
-35.9923
-1.39928
22.2864
44.4791
-2.08768
-19.5556
11.4573
24.6395
45.4035
71.2267
51.7229
37.1312
-8.67967
16.6049
32.7554
26.7752
-34.6592
-57.9196
33.4201
54.5605
5.05843
-35.4376
-53.3078
-30.1494
-56.0279
-115.736
12.4138
94.2307
44.6074
-9.7745
-22.1986
-9.81832
-40.3868
-62.9909
-92.1643
-70.7842
61.9434
113.949
54.2379
50.8598
24.4305
4.54063
-17.9323
-41.3655
61.2383
84.0615
5.09174
-34.7339
-30.2438
-27.3418
-32.8289
-40.8435
31.0907
37.2011
59.9887
53.5519
-7.52462
-20.3413
-41.7479
-62.3416
-85.505
-54.3453
72.6823
88.4514
3.14208
15.8429
2.24868
-12.5412
-27.9373
-78.453
-89.7349
57.1569
32.7973
15.7115
24.0452
18.4097
-3.64699
-36.0073
-70.4007
54.1417
65.6713
36.6272
-21.1436
-12.6063
-14.2199
-45.2075
-59.109
26.2788
31.8493
44.1078
54.8169
-11.6927
-53.4834
-81.4198
-25.0195
85.8554
78.4417
76.9921
86.2884
33.6362
9.60011
-16.1118
-51.1116
-92.229
-26.4415
-14.2739
-11.5789
9.17162
-33.7395
-32.0133
-9.40664
-44.4254
-86.6298
28.9442
84.5694
102.636
5.59142
-48.5729
-9.18104
9.27272
-45.3979
-51.0595
32.1966
54.8946
2.76859
-15.0956
-8.07267
6.98741
-42.9568
-12.6797
54.5299
55.9598
39.9736
-28.5601
-26.3448
9.14491
-60.4008
-33.3984
40.1346
29.5106
35.9196
33.3659
-27.5213
-75.0415
-171.224
-88.2309
80.2535
73.3186
49.9314
23.2865
-8.85116
16.2791
30.5354
-1.90476
-34.7526
90.3883
90.0971
16.1721
-33.7201
-23.4273
-0.505252
8.93077
-27.2278
-62.695
43.7568
124.123
20.1964
11.2484
19.3664
11.1003
-11.0598
-23.9985
-83.786
-40.6686
19.489
-52.6053
-53.5881
-78.5761
-85.4906
-35.1227
-43.2741
18.3182
31.0261
77.1644
74.3688
-3.79974
-25.9253
-24.5783
-30.27
62.85
53.0166
27.9193
34.8432
7.68926
-5.4164
-44.2091
-37.7116
15.1688
18.7697
7.97019
37.9883
2.38829
-12.6524
-13.7761
-51.1468
34.579
24.3701
37.237
49.6345
-6.42767
-20.4663
-14.5038
-40.4117
-79.8752
-7.70276
10.2667
12.9904
-2.84459
-3.05089
8.84522
15.7573
-45.6506
-17.6778
81.2622
89.9674
-6.76211
-15.7535
-8.92538
-8.28441
-59.9054
-104.202
-5.28611
95.4809
72.8446
12.1496
8.9978
18.1303
-0.422067
-10.1666
-34.6125
33.3062
67.5016
49.5147
-0.956059
-23.4625
-78.0821
-119.064
-149.876
-43.4097
12.6821
31.6879
-6.35197
-5.53352
41.6606
20.2161
-56.2277
33.6024
144.203
98.1117
66.5111
1.08635
-24.0419
-41.033
-51.2582
-85.3217
-16.528
42.2762
56.0996
0.291662
-26.539
-1.1655
-14.4524
-99.831
-67.8084
93.1872
137.372
55.8177
-31.3157
-21.7728
-1.38271
-37.1044
-47.2498
59.3839
51.264
59.0082
-7.77894
-34.2917
-40.2734
-103.742
-59.4591
-10.2075
-11.2304
32.0132
29.155
-41.9331
-28.6865
-87.1112
-33.6745
75.7551
63.2657
61.3895
62.1914
-0.20178
2.13319
-17.8655
-27.6287
74.7378
97.773
96.6996
55.9066
24.9233
2.86314
-0.662242
-30.1842
-128.947
-48.7841
31.4325
-32.4981
-78.0175
-62.9552
-45.5818
-24.9611
-96.2784
-103.467
27.2949
93.8195
8.27589
11.38
27.6131
13.8866
11.2473
-29.5483
25.4857
98.2586
98.3105
35.2654
-5.73447
-38.4446
-66.5587
-86.8546
-2.01225
21.8369
21.3869
30.761
3.42121
-31.9472
-76.652
-93.8516
55.2785
98.072
72.3488
88.5773
55.0736
0.684013
-12.0257
-90.002
-42.6071
70.8627
48.3228
40.6457
-17.4636
-34.4354
-18.6872
-21.2632
-59.4408
-52.3696
28.019
43.3347
-27.6441
-55.0873
-58.7116
-62.0663
-111.778
-78.8152
74.8189
134.587
96.9128
33.5805
34.4627
36.1454
-28.9635
-31.37
26.3168
30.3643
41.4191
22.5961
-11.0927
-10.0919
-88.0393
-49.7208
-5.39307
8.35398
41.6126
23.3952
-37.9278
-38.0745
-86.914
-111.259
21.9824
83.5359
83.099
67.7429
33.1151
31.6447
24.3114
-30.7628
1.94981
36.292
37.3579
3.57743
-10.5827
1.44206
9.61895
-9.95211
-71.2559
-86.592
11.9024
67.1872
3.92574
-23.3577
-11.7728
-19.0677
-47.3284
-92.2756
-90.0241
-8.35464
-36.2968
-28.1026
12.1827
18.3134
14.4017
0.848026
74.1031
71.934
47.7779
59.9803
39.6811
1.17489
-40.4829
-73.085
34.4184
58.4097
58.2845
71.8146
64.3746
28.9501
-38.7226
-54.0248
13.3391
6.39205
0.0190245
27.7589
-9.59547
-30.8614
-25.2676
-66.5274
-67.3714
44.8986
12.7598
-11.653
-84.8293
-73.3805
-44.0704
-10.8589
-25.1474
-38.8526
65.7998
61.0106
10.1672
-7.75561
-3.32745
-2.98781
-56.709
-114.709
46.2402
109.945
73.8945
-11.2992
1.19083
28.1822
19.6776
-16.9415
38.7356
80.2087
62.4038
36.6986
-11.7976
-26.7066
-45.123
-50.5514
-103.748
2.31967
50.181
87.6593
10.6459
-13.8235
-40.069
-107.169
-157.166
-28.8757
47.9323
62.4751
22.814
5.78646
26.1478
19.366
-41.0572
-6.4803
70.4965
60.9469
88.5683
33.9825
11.8341
14.1294
-34.5751
-57.6512
-76.4896
56.9556
97.5646
32.1122
-9.60223
-12.5252
-44.9581
-84.12
-103.452
-3.91738
22.3979
10.3551
-29.8092
-22.2513
-14.2114
-80.4591
-49.2493
12.725
3.13946
31.4848
59.4773
-8.76382
10.2979
-37.7522
15.7721
67.3939
55.2509
61.4059
71.5125
16.8993
-17.1457
-54.0247
2.96234
27.3637
25.8011
32.0692
3.63705
-27.4509
-54.938
-112.987
-65.2132
32.5767
27.4861
42.9715
33.2919
9.63509
-15.4028
-37.2224
-69.0896
-92.7908
59.3587
69.6311
4.6842
-7.48556
1.65559
-0.0580782
-26.8046
-38.0613
38.7792
116.9
132.028
1.13198
-27.0175
-26.4758
-52.4367
-58.9449
-93.2542
-20.7268
95.6713
72.3727
1.00597
-4.86156
-36.934
-53.1417
-71.2034
23.8542
57.4642
48.3963
-0.334579
-4.67165
-10.9911
-24.689
-34.0778
-4.63244
26.8157
5.9867
18.5418
-11.2759
-36.3113
-15.4687
-85.1962
-38.6775
68.8082
55.363
79.3694
33.9502
10.1842
-3.48366
-34.861
-85.5603
-70.1189
37.9551
57.7918
41.6788
-5.82264
-6.68626
24.4278
-2.86102
-73.797
23.9023
104.273
63.5113
-15.889
-9.83756
-1.13305
-44.3144
-71.6617
16.634
8.06674
14.6244
-10.1069
-46.6925
-6.87783
-37.7974
-62.9145
16.7251
43.4749
53.4136
58.4628
3.97009
-9.23796
-26.7103
-99.5539
-11.2284
74.4745
69.1856
38.1778
-29.5384
-9.481
25.3455
21.8494
-38.1713
11.0449
33.4305
5.19185
-38.7472
-48.4786
-54.0443
-35.6509
-48.6717
-74.797
-78.7178
90.6502
84.9578
12.2708
4.02172
29.4361
26.5052
30.0102
8.79948
-51.2323
54.8164
16.2111
5.21082
15.6862
-1.146
3.25326
-37.2858
-16.7467
75.9187
98.2808
106.626
28.2143
-35.6584
-85.6915
-114.63
-103.191
-18.2894
2.56002
34.0959
59.0322
-15.5392
-38.1107
-83.9075
-72.2006
34.8034
41.5699
64.9331
57.3698
-0.154706
-25.2976
-124.192
-99.2174
31.1913
67.5107
66.1688
63.8335
2.55084
-14.1375
-6.49244
-7.55616
-113.816
-16.3732
67.0899
51.4256
-0.2314
9.87707
26.1335
29.7446
-52.2323
17.6241
104.011
26.133
-46.2704
-44.0204
-14.746
-63.0767
-109.7
-23.1688
55.401
67.8292
75.7362
17.5169
8.57553
34.5407
0.990347
-52.9702
-37.5467
27.4533
29.6994
-18.4022
-1.38064
3.22342
-20.371
-59.4616
-9.61857
80.03
89.454
36.7425
-9.50103
-13.4471
-13.4634
-109.579
-154.201
-33.145
43.16
36.4059
5.55676
-24.6789
10.5003
12.7137
32.7737
-8.58539
21.2429
53.1773
23.6813
14.5252
13.6356
-16.1096
-76.1269
-127.38
19.2208
66.2046
89.9198
36.3631
-14.9494
16.9214
-30.2055
-61.4226
24.879
0.965498
-15.6493
-4.99296
-18.4108
8.66025
-9.24517
-11.7815
54.9559
24.4339
13.3222
31.2222
-17.838
2.72985
-5.95851
-36.8097
7.13769
18.8716
48.2242
42.1294
-21.8531
-25.5498
-31.9788
-55.1051
-2.59137
26.7802
21.5127
11.2699
-14.8165
-5.6465
8.4727
19.9883
-64.1804
-69.9331
68.0266
47.5548
-12.215
-15.9461
7.36117
17.7266
-18.8908
-99.0129
-112.426
18.3229
3.32545
-6.48259
20.5915
27.1959
9.02799
-4.05433
-37.2644
22.2783
138.893
131.618
26.5612
-18.8761
-49.3928
-37.4974
-59.0414
3.44379
47.7071
83.1586
80.3907
27.1248
-17.5603
-54.5062
-130.95
-60.5608
-8.20645
18.2797
49.3787
34.6448
-5.08825
-20.5946
-80.0529
-43.5871
24.6061
21.2946
36.5315
-8.13041
-35.9078
-7.12915
22.465
-17.1623
-30.0143
39.6985
65.8162
21.5536
-13.9073
-15.8722
-4.2791
-39.0414
-87.4392
14.7611
31.9676
16.5877
-30.2037
-30.1736
-8.45212
-34.7119
-59.0317
68.5989
101.17
87.2281
59.6589
13.6581
33.2196
-12.0412
-29.0122
21.4209
11.2815
10.2466
8.63533
-34.2235
-15.9585
-34.8161
-108.788
-22.953
41.6129
33.7316
31.6875
-23.7451
-39.2298
-38.2543
-57.0657
-109.37
-62.1573
88.1219
72.5024
25.2867
27.6385
35.7511
47.7521
27.7557
-30.4466
4.0956
123.435
64.571
6.87283
-9.84601
-26.8321
-62.4038
-58.7211
-76.8665
11.3367
85.4752
58.31
-30.2243
-37.1467
-39.6598
-48.5968
-119.611
-64.8692
44.6111
68.2541
36.029
-14.4532
-20.6866
-2.56184
-12.5398
33.0085
72.4293
19.8444
25.8727
-13.7303
-32.1406
-4.01121
-68.2222
-43.1795
43.3639
34.5057
67.7187
28.3742
-44.7742
-16.2935
-37.6929
-120.787
13.5166
128.963
117.453
65.2538
13.9838
15.3373
4.88962
-43.1
-95.6526
-6.04032
14.2205
2.36297
-37.537
-7.63296
18.7248
-18.7062
-78.9646
9.15747
33.7297
37.0072
-54.376
-119.296
-71.6967
-59.2281
-104.562
-69.3689
66.9907
178.534
168.127
84.9231
62.3378
33.7009
-8.06579
-29.7926
-4.77872
75.0483
81.9816
32.6335
5.64694
-0.068578
-45.2995
-117.845
-70.9497
8.09226
31.573
33.3723
-22.9894
-73.5992
-47.2805
-91.016
-73.4124
-17.0677
47.0259
62.9474
52.6748
6.44744
-17.5743
-45.5273
-24.9594
-23.7268
41.5186
47.861
24.8505
-2.54273
10.5394
16.2087
-28.4169
-74.0629
41.4514
46.9216
43.7082
20.6924
-24.0188
-21.4036
-41.1308
-33.3288
26.8797
44.5305
27.4882
45.3208
4.87698
17.0626
-19.0936
-75.2351
41.4255
34.4302
21.9353
12.0433
-64.1957
-60.1608
-48.1687
-50.0028
16.2231
31.2655
36.36
20.3649
-10.4414
-34.369
-26.6008
-46.9238
-50.7498
77.9152
109.804
70.3007
-18.0703
-12.4828
-10.7234
-0.956042
-70.5312
-102.245
35.3052
76.6641
22.2209
9.29219
7.61647
-4.47489
-8.00951
-8.00429
-37.3908
28.4479
85.5526
-10.2867
-22.2897
7.74461
-5.59152
-11.8477
-37.3958
19.1494
66.2031
82.9702
10.8451
-12.4457
-35.2154
-52.7444
-52.2659
-8.45112
-22.5795
-18.7363
19.8134
23.3585
-19.6824
-65.5625
-74.7866
16.7011
16.7665
11.3794
27.1478
7.68333
1.06501
4.26459
-56.3667
-35.9882
-14.8154
52.2733
48.2356
18.8149
28.1175
15.0901
12.4052
-42.8694
-64.7985
29.6517
47.711
28.1157
31.0053
51.6951
66.1539
-14.8055
59.6767
91.9645
57.3019
4.89406
-44.8443
-90.3207
-112.389
-189.3
-104.579
18.7914
36.7636
54.9998
35.1301
-14.8201
-22.7342
-87.6171
-6.82881
23.1556
14.8726
23.2216
-33.0607
-35.4119
-9.46993
-44.462
-41.3909
98.3078
124.429
137.642
93.8115
36.0098
26.0436
24.5556
-6.62576
-72.0094
-4.60838
58.689
-18.3903
-59.1842
-62.2778
-35.5971
-41.1686
-83.8898
-95.7303
35.3176
73.4158
-43.0984
-28.7307
8.49279
-3.45563
-30.1498
-52.3971
-23.2254
77.8039
89.1757
49.2753
19.8392
2.35277
-3.63688
-50.5147
-46.1313
93.6911
91.2951
60.5126
-3.27842
-29.5704
-49.4731
-79.837
-60.7584
5.21538
-7.87019
24.4422
35.7952
-6.96799
-7.09114
-65.2381
-47.5928
42.6863
59.4355
67.3405
55.2539
-31.8651
-7.33178
31.2428
24.1905
-27.7326
-36.7053
62.0614
90.2519
-21.744
-68.9417
-68.7302
-58.5091
-47.5374
-51.0561
-25.1927
51.4892
2.55203
-16.7177
3.12763
15.9609
-9.40066
-35.593
-35.8284
33.8391
55.6802
54.5228
21.4108
-0.0139519
4.03758
-9.49794
-29.7065
40.2108
80.5102
74.1917
63.4927
-1.47751
-37.3736
-52.2741
-100.069
-132.508
3.45408
38.9072
26.1346
-4.24703
24.1706
37.5149
2.94511
-72.7852
-80.7467
62.0541
88.4314
38.1818
-4.73627
6.46217
14.527
-0.576254
-38.3522
-117.919
59.7618
95.0193
-24.6923
-28.4715
-10.122
-25.4744
-35.1636
-68.727
-13.4553
72.3172
58.9834
5.35061
7.39801
-18.1481
-50.504
-83.2722
-6.60682
6.80827
27.0729
94.5281
50.4905
47.2232
1.53697
-40.9792
13.0008
21.5755
13.0313
4.89669
-30.2899
-43.5207
-41.7879
-75.5593
-35.5211
43.2994
36.5648
61.1702
21.3642
3.85426
16.9349
-25.6829
-108.189
-34.8579
2.44907
32.2227
23.887
15.0484
23.49
39.4711
28.9523
-19.1826
-2.6668
59.9226
14.0531
-51.493
-50.5249
-23.7088
-26.8806
-45.4858
-80.9139
65.5738
157.765
103.066
34.7641
17.6691
-18.3655
-52.4497
-52.5556
-65.5825
6.3094
29.7204
27.2485
-10.5225
-5.72195
-16.1426
-33.5046
-63.9352
-1.88809
-6.21768
9.25377
-17.799
-40.2611
-46.4389
-47.4538
-48.5471
66.7761
68.2734
35.8808
31.7288
-11.4899
11.9329
23.5157
-23.4384
35.0164
62.5783
59.9747
65.4903
-6.1395
-26.7007
-8.56725
-26.2203
-77.8532
-0.548887
27.1022
40.9008
-28.4019
-30.1312
-10.2255
-49.7461
-70.4302
25.3317
40.5901
40.9593
-0.761363
-22.9758
-7.76436
-5.25631
-38.2365
55.2714
61.7786
38.805
31.5668
-33.6064
-56.3051
-59.4832
-107.738
-17.1952
11.7023
61.3542
63.2945
8.38491
2.28693
-35.4021
-66.1236
-4.81045
61.7553
40.6439
33.1872
-4.13882
-3.46583
-6.07664
-18.0054
-37.6746
42.7021
56.947
36.3903
-19.4196
-19.973
4.99024
9.37061
-22.3791
-75.1989
-6.71831
62.3378
-11.018
-49.5971
-17.2892
5.64754
2.10142
-48.2095
-52.5777
39.6927
124.903
52.9527
29.8202
27.3057
2.47967
-15.3267
-70.5279
-28.2855
10.2449
15.1848
4.63452
-22.9774
-20.8742
-38.1396
-66.8899
-4.60153
1.82148
25.3565
30.8885
3.47089
-28.6328
-55.8285
-81.581
55.1456
96.813
65.3103
64.9278
17.8387
-16.7342
0.930376
-26.1306
-56.5828
16.719
19.6631
28.4488
-31.491
-50.7225
-15.1059
9.20958
-20.469
-59.5233
67.1015
79.2452
3.98218
-35.7869
-18.1059
18.0842
-49.2548
-69.8345
106.646
123.206
92.4156
26.3199
-5.57419
-12.7767
-54.5322
-70.6279
21.6079
8.48162
-1.49852
-4.76122
-49.0999
-21.3711
-86.8461
-138.534
0.468809
18.5816
35.7757
31.4615
-45.0256
-36.1592
-15.5275
-36.2754
-88.5255
28.5094
125.919
106.918
38.597
32.0915
27.7487
20.0052
-30.4772
-71.6853
-17.0008
121.068
80.5075
59.171
53.8571
17.3584
-46.8576
-60.7593
-114.166
-86.8133
6.2999
-42.2819
-57.7091
-24.2648
-18.0643
-0.772994
-14.6128
56.3793
97.3797
115.887
82.2067
13.5582
-39.1269
-63.7401
-52.1465
26.4427
13.0199
7.58845
38.7126
33.8748
36.854
-20.8462
-49.9521
0.870535
-61.6213
-84.9939
-51.6215
-48.2561
-57.2974
-102.026
-58.9896
73.8574
52.8356
52.8458
56.771
22.7168
19.2981
4.58632
6.16976
50.3343
45.4217
42.0672
29.8178
1.54136
23.0799
32.0999
7.39246
-44.061
19.9555
55.339
10.9143
-84.0344
-78.7221
-44.7823
-53.9899
-112.104
1.79209
72.0725
70.7953
23.0477
10.0417
16.0013
2.23497
-23.8302
-83.1709
-21.4868
92.5773
55.6505
-29.3226
-22.3512
-13.1938
-31.6137
-68.5764
5.01551
52.0817
77.3041
25.3846
1.07135
7.25085
-30.3973
-75.8344
-4.63183
42.6582
31.5288
60.2854
10.434
-48.7315
-28.3872
-47.5812
-84.1364
-3.53954
51.2901
54.1151
19.2837
6.3288
4.63015
-29.4871
-40.3391
-88.5031
-28.7314
78.215
38.6911
23.0524
30.6935
49.0427
27.2635
-47.0093
24.2883
58.0086
90.9766
30.7611
-24.3947
-14.6843
-79.0995
-79.7028
35.4139
5.31271
-18.4733
5.97632
-19.0862
-46.853
-88.9873
-36.9097
25.9655
20.0719
16.797
39.0339
0.660767
-30.7363
-86.2215
-71.0369
65.1624
63.9613
52.5218
28.9015
-18.6706
5.86722
4.20434
-26.2292
62.6192
52.5618
5.41241
-51.2712
-58.0823
-18.5412
0.566656
18.7598
-13.0716
-11.5802
101.881
71.3284
-48.0576
-53.8236
-20.7031
2.91167
-10.6946
-54.6407
-60.841
132.829
66.783
19.9681
41.7592
24.1999
-5.67186
-48.4203
-79.5759
37.4545
28.3018
28.455
18.1603
7.02918
-32.6746
-63.4155
-41.7333
7.23208
-38.9982
-24.6065
4.12743
-49.1985
-71.7398
-105.155
-75.7913
84.8618
74.1463
72.7806
69.077
-15.5893
-17.2234
-8.15493
-35.6444
-45.3608
90.8479
140.278
109.727
53.0416
34.2439
15.3333
-27.2143
-139.841
-125.293
-26.8412
29.2271
-20.1442
-9.10383
7.27511
10.6257
-45.5633
7.82403
28.7451
24.0723
26.1409
-45.9719
-40.1043
-52.503
-57.0075
56.3787
88.9116
116.29
121.225
65.7752
2.35275
-70.6872
-189.111
-66.8319
3.64946
26.999
49.1031
35.9262
20.9874
29.2613
9.72132
-109.66
-132.855
23.9702
37.5745
-17.5511
-29.8847
-36.3106
-8.64853
-18.6347
-48.7053
50.635
128.345
70.7003
65.5864
68.2809
43.5536
-3.21347
-61.7733
-121.61
-0.498836
26.1001
39.2525
-19.7603
-15.2495
-33.1177
-45.74
-47.1717
55.6203
36.4192
34.8361
10.4986
-3.09099
-37.2411
-104.664
-25.8991
9.17014
-3.41391
10.2827
51.9991
4.89373
-13.4987
-76.7368
14.3837
50.6609
56.7445
76.9913
76.9934
10.6086
-20.0437
-46.9188
38.4342
34.3813
-31.7614
-30.4384
-68.1703
-62.0988
-30.8494
-28.6275
-66.8187
-9.75041
91.761
89.2443
-15.7142
-54.7841
-73.971
-49.4853
-7.59304
-38.1889
50.9872
118.474
12.9566
-35.4332
-13.8105
14.8806
-12.3395
-90.3657
-72.373
29.5495
140.818
70.712
28.2456
79.3067
49.2139
44.9014
20.0545
-32.6418
62.0089
64.5181
39.1104
28.8508
-7.8559
-31.4581
-46.4536
-79.9057
-16.1736
15.9577
-19.3567
-79.3882
-91.9909
-78.908
-83.2253
-72.0504
-56.3318
81.1002
82.1919
53.853
-35.9339
-44.7393
-37.0132
-60.823
-102.683
-11.7338
65.8642
87.6881
36.1736
46.6506
50.9434
43.9784
29.6505
-23.9674
56.5438
53.5027
10.8922
-75.0622
-70.4014
-45.1043
-96.1889
-85.4609
41.6559
65.8438
96.2852
63.8147
43.2858
46.3675
-17.0059
34.5583
105.188
63.1364
10.1112
-22.6142
-65.8349
-37.8367
-64.3775
-45.955
34.9935
19.0751
-5.87741
-15.7075
-62.9314
-37.7516
-59.5198
-64.1506
31.6124
66.3419
64.2506
6.24667
-49.4623
-38.5145
-16.2002
-14.5005
76.332
88.7534
90.6754
12.8579
-48.8575
-32.8182
-12.3745
-0.0735995
-59.3277
-50.2407
32.6966
19.7026
-55.7069
-67.8956
-35.8413
-16.8315
-27.0916
-55.0582
60.1069
99.6641
-9.82899
-36.0227
-11.2683
-5.40406
-32.7508
-31.9518
82.5654
75.6428
59.572
49.3969
29.5114
26.9957
-36.6884
-64.1753
44.0106
29.633
16.7009
26.5664
-56.1998
-79.9297
-119.34
-119.977
-19.4259
24.0967
50.5157
76.6558
47.397
63.5837
47.3183
13.3667
57.7928
44.981
14.0181
11.0739
-40.9561
-42.981
-42.3297
-48.6294
-53.8964
90.7876
76.4687
55.2449
7.3631
-16.2536
-28.7516
-81.9032
-105.129
-15.5745
-0.122885
9.89422
-23.587
-29.0269
-12.7445
-35.111
-44.7186
23.767
25.5545
46.3465
41.4374
-21.3592
-13.2294
-30.8607
-77.2527
68.135
83.4451
74.212
33.1343
-20.2902
-4.96195
16.0132
-23.5681
-78.74
-39.7691
99.7366
71.3064
18.7722
11.2553
17.7029
3.43548
-58.1004
-83.145
3.19334
27.5976
-52.2164
-39.2553
15.3941
28.9425
7.51769
-46.4882
-0.859301
40.5058
29.5805
-23.0437
-78.6756
-62.7426
-45.2853
-68.2326
5.66858
108.464
115.512
120.338
82.4216
52.8172
-23.7561
-93.1926
-41.821
29.8773
6.63129
25.9836
-16.7581
-45.8364
-1.6468
-20.048
28.8764
27.0216
1.80163
14.7576
-13.1776
-55.9284
-75.242
-141.591
-41.2714
83.2719
57.9568
80.9383
45.0224
-21.6819
-33.5102
-55.9397
-120.245
2.40491
82.6816
78.4625
2.15864
-21.0014
-9.56919
25.0831
-13.6806
-54.6543
58.5713
110.959
35.372
-46.6902
-43.4763
-20.9083
-40.5831
-83.5191
-22.6154
97.2744
130.573
27.1562
-38.5787
-32.3609
-51.0301
-27.5593
-30.3265
5.37778
79.9155
68.8509
-3.98303
-12.965
-52.2472
-93.3003
-115.006
-26.783
47.7582
88.6024
76.0393
48.5394
48.3489
-20.5632
-93.9912
-72.7921
87.3797
76.2599
49.0975
-1.33832
-69.0087
-69.0812
-81.5213
-24.8153
60.7171
74.71
83.663
41.4758
10.7687
0.905815
-23.9279
-87.2278
-105.358
39.1412
79.2411
79.2665
-20.7127
-35.5819
-17.9219
-44.9126
-75.0981
61.5691
56.9676
35.6341
-13.7815
-23.2206
-10.2141
-54.0443
-62.3394
25.8623
7.67911
7.90076
22.7485
-41.1019
-29.7327
-56.045
-38.3451
11.1937
20.856
44.0805
68.0461
26.0137
24.1193
-29.4565
-16.6874
-19.1571
-6.13365
16.4634
19.4202
-39.9696
-46.1528
-36.4799
-40.9526
-68.7846
40.4544
148.155
69.8316
33.6947
52.16
73.5381
67.0968
-20.1122
-53.504
35.4223
7.16311
-15.0797
-31.9034
-36.5597
-23.6435
-38.0868
-64.6783
-14.7607
43.0422
68.5927
45.956
2.00809
-25.7132
-88.8992
-157.14
-25.6615
3.03614
-5.8197
12.425
13.2663
17.13
8.82601
-7.86483
91.8131
62.0097
33.8904
33.6664
2.74141
-19.8178
-94.0187
-54.351
22.3337
55.7961
65.2446
79.5637
-15.4838
-63.037
-94.2828
-103.791
-74.5029
2.28499
51.2309
49.6513
-15.1667
-14.9621
-8.00441
3.15689
-11.2697
8.96333
113.012
57.3139
6.87862
-1.0111
15.0192
32.7514
-41.1992
-60.21
38.187
49.0584
25.8356
-13.16
-7.09432
10.6294
-59.8077
-41.2231
0.672178
7.26799
15.1712
11.0635
-1.70874
-11.2905
-74.3659
-75.4096
60.2167
43.5875
20.9809
34.8334
-6.54742
4.45811
-12.4298
-117.707
-101.16
42.8575
143.202
85.4074
27.3046
23.0107
10.4959
-19.0986
-86.657
-17.8734
18.2968
14.785
-45.2543
-38.3923
-11.588
33.4304
-10.4548
-4.56108
87.1799
94.0629
55.4203
-37.7473
-106.432
-95.7331
-111.253
-71.2998
37.1762
52.0008
50.5353
2.89215
-7.15352
-15.0765
-77.1864
-25.451
77.0874
72.6008
74.968
71.3754
9.59764
29.5733
-21.6177
-33.5872
36.2039
17.7415
16.5521
4.68529
-38.1449
-51.3141
-105.55
-30.2489
52.5163
79.0918
78.1436
47.6179
-14.2101
-27.6788
-29.2052
-86.1894
-108.106
-27.7129
5.78212
5.10964
-22.3385
1.27822
23.985
22.4735
-40.0733
-32.817
82.7981
8.82923
-33.2718
-25.8632
0.442853
14.0703
-31.4132
-102.394
20.7504
175.521
123.947
36.0227
13.2023
-7.42148
-33.4325
-19.5441
-52.4749
-6.36648
64.9921
55.8654
30.7553
-1.29236
-23.7749
-30.208
-65.3677
-14.9506
25.6663
61.8159
1.54878
-49.0012
-34.8795
-12.6466
-61.4305
-73.123
-4.09231
2.58589
4.0831
-34.6546
-54.9276
2.57311
51.1728
44.7548
-35.69
-7.3405
134.209
67.7379
20.6754
26.0435
-6.08953
-30.9594
-36.1513
-74.1515
28.9557
55.2156
2.08254
4.69175
32.7501
32.4089
-2.64793
-51.2937
-3.54473
-10.5453
21.5583
-2.53566
-75.5934
-65.0448
-88.7166
-87.1791
62.4208
51.8336
37.7743
46.5472
41.0787
31.8823
-8.02088
-18.438
61.758
55.5007
35.6484
30.4832
-31.834
-46.4859
-62.4499
-131.662
-103.546
5.63192
68.8795
93.7984
15.8395
9.68956
21.4744
24.6896
-25.5432
-45.1382
45.3998
46.4664
-10.0488
-27.8192
-8.67461
20.0088
-8.97567
-16.5236
-19.8088
69.0404
62.8509
-1.07674
-9.69868
-1.36266
-41.0891
-51.2746
-82.3851
-13.8137
8.37125
-7.48348
-42.6608
-28.5003
-22.0681
-21.7284
-43.1222
41.9923
95.2956
74.4015
81.586
57.3867
29.6434
-13.6933
-62.1713
-3.6548
-21.2506
-28.6918
-6.65582
-28.3633
-9.85373
18.841
-22.715
-72.2877
16.9303
100.584
87.1115
15.6263
-31.3732
-22.1729
-10.2842
-85.4345
-108.614
53.7106
77.5185
20.8736
-8.37759
-16.6485
-7.02154
-43.9503
-9.58867
65.2713
49.2273
68.7451
27.6813
-4.07614
4.96465
-77.0319
-75.1456
10.7888
5.14142
35.1151
30.2859
-56.4372
-53.8395
-88.5996
9.77623
74.6476
39.9096
40.3038
44.1361
7.18605
-11.4324
-73.7385
-94.4986
3.44575
28.9658
33.8301
-3.35574
-48.9848
-16.1188
12.431
-26.5733
-120.827
10.6252
94.7369
49.1397
25.8567
54.6641
67.7679
36.3957
-44.9435
-36.5399
11.7761
37.7956
46.9879
21.9324
42.325
56.1442
47.7954
-3.08334
-81.6494
2.26647
19.9325
-52.015
-75.9672
-91.2408
-89.3007
-73.6783
-78.6723
13.8087
39.6434
33.937
49.8342
22.4596
-61.4869
-79.2753
-54.3982
28.8999
46.1771
46.7369
69.3289
32.876
39.1914
18.629
-8.03879
94.3684
66.5231
33.9105
23.4831
-24.046
-18.1171
-10.4059
-46.905
-24.5595
-32.883
-24.1744
-19.2212
-65.9158
-82.2944
-53.0759
-68.2747
-83.6422
57.7445
91.8594
103.203
34.2842
33.5933
53.6495
40.9359
-34.7476
50.1756
26.4738
0.232705
-27.7318
-39.3985
-11.4567
-21.6894
-100.582
-14.5267
109.935
122.25
103.769
7.06155
-34.6126
-46.671
-101.648
-118.135
-47.4563
2.09472
14.0517
-23.5156
-0.0417239
36.5142
0.0539179
-56.5458
19.5339
73.7459
85.7238
32.2142
-26.7097
0.348316
14.3334
-45.8996
-82.0181
-11.0011
17.5966
15.2022
-9.40911
-10.434
1.15211
-37.5146
-115.796
-36.5562
85.0084
119.563
48.2189
13.3544
24.466
-0.00909987
-31.9491
-43.7295
40.6174
38.848
45.6218
5.83445
-18.4639
-21.0225
-63.4881
-117.894
2.89601
28.6923
81.6382
61.3487
-2.83415
-2.40999
-41.4241
-40.2478
74.4246
61.7309
10.1965
-2.06301
-60.8927
-58.4255
-48.3131
-68.4358
13.9535
32.8225
44.706
66.3478
6.89041
9.74135
23.5824
-62.4488
-77.65
63.6041
83.2882
50.264
-54.581
-96.5737
-68.0057
-30.4281
-103.985
-81.075
123.719
168.888
89.7384
51.2418
24.6402
10.6192
-41.6511
-101.944
-48.7384
61.5145
51.2599
-36.5837
-37.2513
-34.2439
-31.98
-51.2996
-60.4557
50.0808
73.0074
66.6039
-23.9164
-33.9418
-47.3927
-112.433
-72.8599
106.37
100.443
99.8084
64.4066
22.2381
4.92531
-77.2631
-75.2614
39.5541
25.1991
28.3476
17.3812
-38.381
-26.3222
-39.87
-132.924
-98.0602
52.4768
109.406
97.964
16.4892
17.4568
28.204
-24.8409
-113.543
-48.0605
41.2738
51.5874
2.54292
23.1703
47.0692
53.273
-16.8218
7.16502
75.8095
53.238
5.89275
-73.0898
-42.8212
-47.5868
-132.996
-102.414
27.1594
44.5191
82.8546
46.3777
3.62672
-43.1
-165.869
-108.939
16.0489
21.7618
48.8636
55.5819
32.4591
55.2204
-5.90799
-54.4347
42.8351
47.9239
57.882
38.9804
-18.6657
-0.401761
22.3325
-15.6302
-81.698
-24.5378
108.787
51.7144
-21.2441
-11.0933
-2.53274
-6.22063
-48.8376
-118.375
-14.401
134.166
75.0582
22.7729
7.46043
-13.428
-48.1092
-46.2096
-71.157
12.193
61.8711
40.569
-7.4313
-11.4097
-26.5956
-48.9255
-88.9026
4.62666
22.7939
55.5767
27.842
-45.9919
-41.0045
-68.3582
-83.8725
41.6405
60.2786
48.6248
67.8088
15.2178
-10.9322
-49.5354
-101.692
32.2822
49.7524
60.0314
70.1375
13.6476
5.22485
34.1588
6.65311
-69.8369
-14.4335
36.4083
33.3326
-38.3932
-39.205
-25.9149
-0.612419
-22.7637
-71.6288
10.6942
105.727
18.7591
8.56417
19.8458
13.5087
-32.8617
-82.298
12.8252
43.8307
39.6159
-6.88875
-4.31565
11.1831
-31.9161
-93.9121
-25.06
90.8609
49.7047
44.8871
20.0925
-14.2087
-37.1103
