-4.50845
-8.58591
10.0791
3.42211
-9.12008
-5.97207
-26.8253
-23.7775
-23.5849
-22.6487
-13.7169
-1.50569
-1.69452
29.9222
19.309
17.0363
-22.8971
-23.9508
-2.89732
8.76291
0.354927
-12.6682
7.31007
27.5874
14.7783
12.4979
28.7218
31.5354
26.6143
19.8809
25.222
23.3114
-17.8376
-44.0723
-42.0925
-23.5979
16.31
9.85315
5.47462
5.94657
7.90131
5.71733
-3.25584
-14.5677
1.91395
3.1533
7.96623
15.5515
-27.0881
-40.7204
-31.4309
-21.9169
-13.4917
-27.4132
-30.5904
-36.7159
-6.50504
-2.835
-1.4382
13.9781
31.2113
50.0294
43.0757
28.0774
23.1587
13.6575
17.9112
-12.3555
17.1802
29.8145
8.08051
-14.8699
-11.8087
-4.63326
13.7916
6.54902
-1.11208
8.5165
0.348242
-23.3006
-35.2269
-35.904
-12.4659
-20.8838
-18.7972
-12.9481
-13.8115
-13.2295
-21.3593
-29.6411
-15.1467
6.46282
28.2186
33.0484
31.007
25.9598
16.6164
13.8774
15.6163
11.134
1.07548
-3.90627
-14.1358
-2.61136
2.29263
15.521
29.2437
37.2736
-7.47533
-22.4854
-23.9419
-13.6661
-10.0083
-12.5465
10.4261
39.856
41.1782
23.3241
2.55844
-11.5797
-15.4945
-22.9072
-35.3146
-34.5111
-22.2582
-17.6733
-19.1477
-21.9357
4.16686
19.2918
31.7372
51.9758
31.6259
-2.49711
-28.9499
-26.3784
-22.3992
-19.184
-2.64054
16.0544
38.142
55.0597
15.5792
-10.155
-28.3357
-38.5111
-44.0499
-35.1796
-15.3337
-1.51091
-17.8024
-30.0471
-6.66977
21.1337
26.3758
21.846
24.0472
20.6603
20.9893
22.0007
9.3718
-0.992995
7.95779
7.92176
16.5249
9.78774
-0.305137
14.0968
18.4478
-1.49689
-1.29955
-4.8824
-5.05487
-0.508755
1.1299
-4.22969
-27.7964
-28.3492
-24.7666
-28.2598
-28.6611
-32.4308
-7.70363
26.3826
21.9431
16.482
22.0088
11.4941
22.7073
43.4037
49.9514
30.699
-13.8098
-33.9274
-40.4081
-59.1535
-46.0646
-22.0242
-15.6745
2.3288
-0.764782
-7.85428
-0.711612
13.8875
24.3094
24.6121
23.7063
34.936
43.4552
28.852
13.3734
-3.50677
0.927257
6.13347
-2.4748
-10.8162
-13.5438
-2.53333
-17.3965
-60.6978
-56.8934
-39.4632
-26.7764
-24.3113
-10.588
2.58492
13.8076
17.2836
-13.2314
-16.9134
-7.15676
3.75043
18.0773
33.7322
41.7537
52.8927
29.9292
5.90114
12.8435
30.8815
27.1502
21.1478
28.4763
30.8531
-8.91128
-24.4584
-19.5305
-12.6387
-6.48918
-11.0417
-11.8073
-37.7176
-39.301
-27.5653
-14.0245
-1.65998
23.0249
22.3319
25.8069
34.042
3.79898
-17.59
-18.5853
-30.3166
-23.758
-11.7931
-7.50799
-21.6001
-43.576
-54.3234
-34.3702
7.57746
29.726
26.5404
22.07
17.7434
8.00071
4.24535
4.74077
-4.18304
4.94777
14.931
28.0448
55.2767
33.442
23.2937
15.6382
14.0356
32.7087
34.7889
21.2251
-7.08221
-36.1339
-49.7899
-55.2853
-52.9843
-31.3734
-17.6194
-10.6366
-2.79101
-12.7748
-22.4349
-20.4315
-35.0424
-3.93553
12.5083
15.6907
10.6213
32.2
40.5818
32.0226
32.8971
33.2087
30.3935
22.9452
6.93424
-0.825869
12.0216
0.876931
-44.3862
-47.1814
-21.1902
-11.8125
-5.85149
-0.059466
-15.9698
-28.0519
-30.8635
-27.8565
-10.2805
1.33966
9.13316
18.7761
24.8688
44.378
34.5301
12.0201
2.80629
3.80983
23.7413
40.9118
36.0011
19.5968
-33.0433
-36.112
-27.7988
-26.141
-22.3219
-19.6015
-7.03487
-11.5089
-31.843
-18.7387
-10.1339
-13.921
-3.52005
7.59367
-1.10715
6.18408
17.1417
2.83552
10.1844
10.2348
20.8875
24.7309
31.776
38.6161
43.7328
35.5485
-6.62752
-17.3776
-8.09797
-12.1977
-24.1022
-32.9697
-23.5288
3.36877
-5.57072
-41.8563
-32.5112
1.99674
10.27
-0.325564
3.32391
7.24082
3.70111
-12.7512
-8.88828
-6.33513
-3.10029
-10.1617
3.42322
5.42849
15.9168
1.10615
-2.6503
-6.90849
-7.86716
6.59833
17.3515
18.3233
11.7892
15.2884
3.92059
-1.95651
-1.33249
1.15153
-3.44396
-3.44695
13.5168
34.88
45.2786
-8.16999
-14.2136
0.33258
2.32063
-1.79366
9.84076
27.8214
27.374
16.009
-16.0049
-30.3299
-21.2096
-13.2906
-13.1679
-18.2021
-18.0991
-17.7465
-20.4052
-33.7315
-40.8021
-5.375
-3.39544
-7.42032
-9.36693
-25.9919
-45.335
-46.0222
-28.0284
1.64428
31.6516
47.6438
70.998
73.6399
60.98
51.5255
30.5079
6.11022
-10.1086
-10.0284
-3.14886
-21.5735
-35.1349
-15.7754
7.25229
24.662
38.6354
40.1006
30.303
25.529
-11.8203
-50.5524
-66.2193
-64.2501
-46.0941
-30.1777
-18.9376
4.99297
38.307
19.9934
-16.1571
-5.42531
19.59
24.649
15.9162
11.4864
12.5514
30.1441
5.12667
-45.1113
-40.0626
-13.709
-4.91138
-11.5604
-18.153
0.377913
7.5732
-1.40859
-1.76238
10.2413
21.5124
33.8896
28.0107
18.2866
-0.882667
-22.6821
-12.8508
-18.3855
-13.2398
7.78972
20.061
24.7531
19.0012
17.0976
14.4436
9.66768
11.8117
9.29336
-0.39348
2.82604
12.6975
-16.2489
-40.5905
-55.1617
-48.0229
-26.5048
-21.8466
-21.9704
-3.82887
20.5104
42.4176
16.9433
18.5449
15.0804
5.8919
-15.5524
-35.5076
-19.4466
7.51713
-21.1958
-38.4205
-3.28128
14.8135
28.5258
45.6235
46.4231
31.0629
1.58065
-6.08677
-11.7702
-21.4023
-16.5633
-14.4969
-2.85155
13.6571
23.2832
29.162
13.157
-5.92257
2.74149
-4.99779
2.13972
1.54358
-17.2625
-29.7465
-19.0491
-18.738
-8.06013
3.21552
0.299667
-1.24817
23.5418
35.5555
19.2437
12.681
39.817
47.3046
12.2148
-25.5216
-35.5829
-25.5572
-5.91955
3.35446
-32.4772
-34.6445
-31.144
-18.9513
-11.3756
-13.7695
-0.475663
12.6639
-17.631
-22.5096
-14.8164
-20.2681
-42.0324
-32.8397
15.5438
53.5007
57.3135
51.6525
37.239
47.0201
55.5894
25.6105
14.043
1.41249
-27.5292
-28.6188
-29.6887
-34.5557
-15.2717
-12.8414
-7.80774
-3.73706
-5.41872
-46.6604
-30.4201
-6.01328
52.5862
75.9962
33.912
4.46781
16.2519
12.1336
5.70401
13.5446
37.5521
39.3968
16.1453
-15.2551
-19.9077
-36.6174
-37.2637
-44.9193
-56.4599
-34.349
-37.4838
-41.4039
-26.4541
-18.3807
-14.3503
-13.0536
0.428201
15.567
6.3596
-7.79623
6.02877
19.7267
12.8476
23.7239
33.4017
34.957
29.9765
30.5603
30.5144
36.3428
29.0854
17.388
-10.5822
-10.8572
4.09458
12.6422
15.4024
14.7514
7.58516
14.3287
7.64743
-14.2537
-0.838739
-8.942
-15.4003
-31.7668
-38.8467
-23.5607
-44.0041
-37.6628
-27.4785
-22.5015
-10.4982
-14.8618
-7.64923
-10.2085
-7.54222
2.64435
-3.15522
-10.9628
-16.9848
-7.32534
21.304
30.487
29.2531
34.8767
28.9837
16.4234
30.3092
32.9421
26.0102
15.3623
-2.14287
-12.5207
-22.3308
-33.4381
-27.3128
-20.4893
-6.10919
3.48526
13.3602
30.0479
-11.2216
-15.7349
-12.488
-9.05572
-4.80138
-5.91017
9.96393
35.2705
40.5011
25.9898
10.4464
-0.838159
2.00116
0.945125
-6.77236
2.78704
24.7972
33.0325
-5.49327
-24.6038
-8.24641
0.478601
2.6676
4.34058
-3.53495
-16.511
-34.4552
-57.617
-59.5037
-56.4172
-42.3781
-12.5523
13.8374
34.6081
46.8513
34.365
-18.5092
-40.8675
-17.4399
-3.15558
5.8748
5.16048
1.31302
13.6513
4.94821
2.41626
25.429
32.0278
30.3404
32.8263
27.8919
18.9188
-11.1085
-20.5333
-13.8563
-7.38215
18.1894
31.0339
27.7893
12.9595
1.80874
-3.81155
4.3654
-2.55742
6.96825
9.57101
-4.18392
-5.976
8.42926
-16.4145
-49.4416
-47.1338
-37.4269
-23.1227
-16.2665
-12.206
14.3403
10.0185
8.21103
7.32861
5.44197
5.42257
-3.99372
-2.70488
17.0852
-15.0233
-21.5733
-23.5484
-27.0167
-4.05646
28.6084
41.0052
74.7262
28.5094
-17.6511
-19.9279
-22.0783
-14.045
-14.3128
-25.6709
-20.607
-7.17121
4.56595
6.28401
0.409883
29.0683
48.5074
41.4298
25.7789
14.1502
0.0662119
-23.7834
-45.1243
-23.9311
0.754925
7.42385
0.797167
-5.29325
-11.4137
7.40844
8.12719
0.761588
-21.3167
-32.0237
-13.7995
6.35362
8.54567
26.3486
-6.33983
-3.58124
15.3077
21.5973
23.0113
24.9751
9.81976
1.25296
6.54208
14.0926
16.788
6.08657
3.34149
10.0382
13.4477
8.53105
-5.87423
-55.932
-65.7979
-64.9365
-38.5269
-22.5702
-9.47037
8.36435
11.8824
-11.5343
1.79046
6.13195
-1.48587
-11.6122
-11.1796
-10.9206
-2.45845
6.9604
28.6938
37.512
29.5905
40.2091
27.1077
7.80979
5.12681
11.9889
18.1235
-11.878
-21.5334
-6.27204
-0.654623
0.622828
-2.72337
-8.9286
-18.2141
-13.3131
-2.43115
1.16188
-15.8268
-22.4441
-13.3651
10.6295
18.5041
37.8746
53.5798
46.628
27.0563
25.3282
27.1278
30.008
15.9064
-66.8168
-92.4594
-74.5515
-35.575
-5.99108
9.79568
7.97093
22.2103
-4.54338
-23.4099
-19.3239
-20.4527
-37.8475
-40.1344
-25.2946
-2.14631
32.5251
23.5405
16.1498
11.8676
33.561
37.4955
33.9825
22.2079
14.472
16.3082
-23.8999
-44.4922
-25.8812
-7.42402
5.76388
19.481
34.9858
-1.80602
-27.8166
-35.7892
-38.2741
-23.5326
4.44663
25.6269
61.1898
54.6513
44.5398
27.4078
9.68092
-12.3539
-0.737673
2.28925
13.1858
-7.45931
-26.5953
-18.8898
-32.8793
-17.7731
-2.91483
-6.3056
-2.83641
-24.393
-37.3887
-45.993
-40.924
-10.3583
24.7958
43.512
44.0911
39.5805
22.6825
27.793
32.2891
48.0173
34.6695
-3.28258
-22.652
-13.6616
-45.1043
-54.675
-60.112
-46.4815
-28.7942
-10.0762
9.90175
31.0513
37.5533
-16.9773
-39.1534
-47.8117
-27.6946
-24.4638
-29.0975
-30.1338
-10.3481
15.7795
37.9971
60.9586
85.8675
86.229
69.5738
54.322
57.6234
45.5875
-5.75609
-27.8697
-46.9729
-30.7667
-23.7512
-10.9487
-7.33086
-19.0415
-35.2218
-22.9186
-7.78318
-5.55394
-1.42294
-1.18792
5.40867
12.4957
14.438
-8.53088
-20.475
-16.8346
11.7576
6.89226
-11.0343
7.61735
30.5854
-16.2973
-20.9234
-11.6637
3.88476
-0.25717
-0.933216
15.4242
19.0923
-33.4234
-48.759
-56.7294
-61.2314
-31.551
-20.6109
-2.95409
29.6471
18.6247
39.6269
55.9312
39.1521
47.6718
50.9262
54.1392
44.4113
25.4477
4.51132
-4.30543
-13.5393
-8.5875
-28.8075
-34.1661
-12.7707
-21.3942
-15.8799
-20.8019
-31.4049
-21.2142
-21.3181
-19.1046
-15.3045
-5.62794
-12.1406
-7.64375
10.5526
17.9267
14.28
3.46705
9.80795
52.4233
62.2216
27.0045
-32.9297
-12.2574
-6.88838
-18.5386
-21.0552
-6.55272
-3.61133
13.5178
-8.42197
-4.3089
-8.35991
-20.7651
-5.92452
16.4019
44.637
59.1547
12.5291
-7.51797
-11.0286
-7.33981
26.2202
33.2077
39.6716
13.9525
-21.9902
-33.8296
-39.3024
-51.3707
-43.0335
-33.5543
-7.32537
14.5876
-16.8258
-20.3896
-22.1242
-30.4618
-17.8715
-9.87024
-1.17495
7.54393
1.8994
-20.1959
-19.7304
27.8406
61.2219
72.8531
76.9001
61.1664
53.959
42.5932
11.6053
-29.0516
-41.6155
-40.9645
-23.9565
-24.7456
-6.98536
6.51089
-24.5747
-23.6277
11.8122
51.527
29.0937
-9.91974
-22.3913
-44.0195
-57.8087
-39.7454
-20.863
-22.004
-16.5791
2.05752
39.7911
50.8663
8.03839
-28.0005
-14.5324
-13.6697
16.453
29.797
25.2184
13.725
13.7731
5.90061
11.166
12.5134
2.89943
-2.82828
3.38039
20.3604
21.21
37.1642
23.4464
-25.7404
-31.6389
-9.78824
-1.02324
4.95199
9.40542
17.3142
4.7716
-41.1083
-41.5432
-32.6247
-37.3912
-35.1621
-21.5848
-10.078
-16.05
-8.60597
5.80683
0.310414
-6.58924
3.28884
23.7682
39.2823
-3.60057
-9.10883
9.11773
15.8641
16.9146
18.9125
13.1383
40.0098
35.1832
25.5797
24.5856
21.7873
12.8206
-17.0062
-14.711
-9.90692
-29.8433
-20.7439
-15.624
-20.7372
-5.27475
-11.3493
-13.3503
-4.25593
-2.19626
-20.4377
-14.9605
-22.4604
-14.2464
-0.0149988
-1.39941
-9.76252
12.1673
16.1108
18.358
10.2518
14.487
8.62841
1.27049
8.89366
47.1594
17.3293
-3.87856
-14.7303
-16.2697
13.0813
3.07463
-12.1433
-7.75237
-4.40909
1.31267
2.52101
-8.35922
0.388788
-5.29027
-6.30465
10.5847
27.6178
39.3381
-0.908097
-44.6736
-19.1356
-6.06885
-6.99566
-3.26111
19.6758
42.3381
36.0702
-7.36031
-17.2928
-33.5897
-58.5713
-59.5444
-35.81
-17.1943
11.7252
48.904
38.2858
1.95764
3.05048
4.50151
-2.89497
-10.7724
-15.9088
-8.12355
-15.7844
-27.3467
-8.65837
18.5226
15.2884
10.7275
37.3724
59.1785
22.0643
3.3886
-8.39211
-14.7772
-5.62731
5.16687
26.1146
41.6539
1.64145
-0.252663
-1.99773
-10.9157
-10.136
-5.36559
4.20171
27.6917
-12.3162
-10.4227
-6.84401
-22.7719
-21.1635
-21.7195
-20.2651
-30.4649
-29.5689
-10.4698
-2.37294
-4.49708
9.64305
17.3641
24.3026
31.7442
35.5392
0.469861
-22.3583
-32.964
-4.29379
11.2186
16.9103
10.6779
15.5837
37.246
-2.62996
-18.1229
-42.3906
-29.8262
-18.5832
-12.0214
9.09136
18.1133
22.4754
23.2937
-17.6463
-5.30218
0.169474
5.62523
12.3205
-1.89314
-22.5738
-28.0964
-8.23336
-5.26416
15.7319
22.8298
33.1248
27.5032
44.8667
36.0502
17.3595
-1.22123
-13.7251
-31.9653
-19.221
0.381978
19.9814
-6.76897
-42.2841
-24.7835
-16.9957
-20.1302
-21.2043
-28.0021
-18.3437
4.29079
25.9732
2.2249
-20.0514
-23.4086
-14.5278
-10.1163
-0.638884
19.042
42.5575
2.39127
-19.6443
-1.061
32.033
30.0519
21.7795
26.8282
24.7123
9.59454
17.6912
7.09973
-7.19531
3.89658
7.44608
17.8778
20.5985
8.79555
-9.6345
-35.3923
-52.7532
-37.7467
-21.4466
11.1644
16.5638
15.598
-15.8001
-7.41985
0.84381
10.1163
11.2123
-2.29362
-18.9553
-3.88559
3.62556
-49.8949
-43.1308
-25.653
-15.7581
1.71714
16.6668
34.6377
44.2829
37.6611
-4.13466
-5.45035
19.5019
13.6902
12.1289
6.85489
5.07846
18.7286
26.9025
-18.3154
-47.1482
-33.518
-38.7338
-30.5424
-8.76866
6.90938
17.5255
23.9972
10.8166
6.54096
41.88
47.1485
47.1525
16.2815
0.0592421
-33.2112
-41.2564
-43.9611
-37.7206
-21.5461
-17.5539
12.5075
22.8465
-16.6725
-23.0736
-20.6754
-18.8871
-15.7741
-14.2241
0.258081
7.83059
1.37579
15.4487
24.3047
20.0311
30.8551
24.7321
29.5811
35.4904
54.4895
28.2959
-13.5527
-16.611
9.68132
17.7928
14.6939
2.48668
-0.441368
-10.978
-33.2666
-16.0915
-29.171
-43.4374
-31.1689
-23.0001
7.39349
-5.7116
-31.3887
-30.8938
-31.4864
-6.34207
27.9296
34.1142
38.1136
30.3301
27.1969
19.7824
-4.06797
-16.1261
-26.8044
-35.6781
-31.0642
-12.5872
10.0092
9.39756
-2.57813
9.71153
1.43424
-14.2672
-10.0879
1.48524
21.3693
26.6325
9.41114
6.01135
6.29225
17.133
26.0259
28.7618
26.153
28.0574
34.1868
11.3716
-9.05525
-16.0171
-29.0454
-36.9766
-24.4623
-8.78057
8.03667
-22.079
-31.6109
-24.1537
-6.48918
-11.6556
-23.4271
-14.9713
-5.66962
-11.8079
-9.73409
-0.552286
-0.205061
11.4459
8.643
4.5522
21.105
6.98915
10.8822
10.1554
-8.3279
1.81893
1.85173
-1.55649
31.367
30.6783
3.34632
-8.99733
0.926087
27.4894
39.5516
24.5283
26.4531
11.5156
6.52771
-3.90084
-18.1648
-13.6183
-14.7617
-9.78574
-5.12479
6.34482
19.0441
6.22189
-49.8405
-48.3848
-29.6032
-20.6666
-18.6942
-23.7747
-26.4866
-19.8527
-6.38803
-6.24974
-24.6574
-2.54879
7.71099
18.4432
17.3298
8.34951
11.8534
9.55732
15.7822
26.407
33.4141
16.9356
-0.371727
-1.60511
8.78758
12.3316
17.5262
18.4487
-9.80439
-5.03162
22.2635
39.7635
43.5482
27.7419
6.91737
-3.8551
-19.578
-21.2348
-31.3074
-32.3095
-20.4962
-15.4852
-37.2758
-31.1922
-31.1766
-23.5165
-19.196
-13.911
-6.51943
16.6075
11.9495
-6.86706
-5.23873
4.29246
16.8786
24.9113
28.434
36.6931
13.0279
3.78056
12.0261
10.8841
14.8796
1.49276
17.3181
33.4457
-17.6748
-27.0081
-28.1642
-30.9571
-32.7994
-40.9685
-26.363
2.73333
-26.4313
-21.2563
-3.08537
16.988
33.7403
29.8855
27.0623
40.4311
43.8384
21.2701
-7.56051
-25.6388
-4.21726
-8.43109
-10.6174
-2.2584
41.1599
25.6576
-17.7197
-15.5951
10.2503
9.32834
8.47951
4.35227
6.37451
20.408
-13.3589
-29.4385
-18.6732
-6.93908
-5.90027
-18.5657
-14.135
-5.85622
-4.48618
-37.1497
-47.6556
-30.0842
-9.32419
-15.354
-1.90718
23.7577
15.8392
-0.108203
0.909124
5.07011
28.2334
34.6737
41.5822
41.5274
15.2936
-10.5165
-2.5112
-1.0551
4.91876
24.8856
23.2929
27.6125
18.9856
-15.8955
-23.5606
-27.1895
-17.9495
-11.2406
-10.6726
12.7472
-24.4998
-40.0316
-34.094
-17.217
0.32508
14.7776
4.9513
-3.2899
-4.1847
10.5403
3.66623
-2.46378
13.5536
25.2587
25.8121
-1.7035
-8.61658
15.0055
-2.24325
-41.5158
-18.3625
-8.80866
9.13423
24.1302
40.1107
87.2181
23.194
-20.4356
-17.4409
-29.2239
-34.4158
-26.4937
-25.6576
-15.5209
-12.7616
-12.5224
-4.87515
-39.2182
-22.2639
-4.62683
19.8028
30.7972
24.6181
17.0396
11.3578
-24.5825
5.08028
20.2268
14.8241
9.85896
4.62094
0.324343
0.198608
8.57604
13.8572
13.3623
7.30193
15.7936
14.5088
6.64023
2.13089
4.15388
11.9366
-21.9783
-54.449
-52.4817
-19.9505
9.82056
5.61057
3.49628
13.504
3.1023
6.68085
9.49375
20.5111
18.1569
-5.36182
-2.2965
6.83522
-21.4596
-21.3183
-18.4164
-12.0824
0.31806
7.00082
21.6424
25.7868
-5.28592
2.57501
-0.905516
-17.44
-8.03391
-8.0108
-1.93499
-5.2557
-21.9171
-13.5711
-17.5307
-20.2753
1.83997
19.5563
24.95
15.9226
1.03228
26.4447
-25.9357
-23.7336
4.28156
15.0643
27.4706
20.3827
16.9269
23.3069
-23.9424
-28.6445
1.21563
17.0909
25.7669
14.9999
5.69218
-10.2962
-8.45585
-6.25314
-25.1429
-28.9464
2.24255
26.9824
46.4419
37.0752
16.0968
-0.879174
-38.6655
-39.5205
-15.4675
-20.3343
-22.7882
-23.3049
-23.1206
-19.8249
-34.8672
-15.944
-5.59915
-7.20367
16.9427
14.2212
30.4728
23.8775
0.726704
-13.9725
-8.06551
15.396
39.1997
26.3634
28.1171
20.49
24.0678
2.8422
-2.58967
3.64477
18.8175
7.77463
-7.0772
-9.64542
5.12832
21.4353
16.272
-21.0154
-24.1868
-32.0565
-37.4462
-31.5909
-8.5825
8.13596
4.03988
1.00457
-1.95416
13.2938
19.1826
25.6402
19.5901
-6.02556
-41.4002
-39.9183
-19.3891
-17.5054
-21.4577
-7.6148
6.69858
17.1486
22.637
-0.151736
-2.74886
-4.73824
2.85404
12.2768
7.56673
-13.6259
-22.2669
-35.6442
8.59534
35.3444
54.2339
48.3325
33.2566
19.2659
20.5594
-9.07477
-25.5782
-15.8175
-11.1386
-2.74295
-3.84138
-7.11149
24.3076
27.627
-17.6231
-20.4406
-15.1133
-11.1474
-28.6791
-35.5291
-23.9348
-11.1917
1.62927
24.3163
-13.3126
3.63827
21.5776
21.7485
15.6275
12.9248
13.3721
-0.555924
-34.6047
-39.627
-9.16764
8.80842
10.7624
10.84
10.4111
19.3918
20.8559
7.25345
-9.06204
-25.2723
-1.01853
21.7102
27.1059
6.50543
-36.702
-41.3461
-40.8999
-39.9958
-31.1199
-17.1683
20.7254
45.9657
63.3293
75.506
57.5487
28.3244
16.0047
3.26531
-8.25057
-32.9368
-26.292
-45.5787
-56.9177
-34.8749
3.3836
21.4354
34.5142
26.0287
10.0184
-12.5476
-16.762
-20.6217
-32.0066
-33.5434
-28.9457
-8.85428
7.34789
-15.9681
-14.1377
0.431186
13.6606
29.209
26.3811
10.5283
15.5333
32.3861
10.124
9.67802
18.8142
30.3254
17.939
7.38245
1.05532
-2.9315
12.8114
-15.7769
-33.6404
-13.6286
-5.50181
-11.5001
-12.58
-2.0736
4.8726
15.4783
-4.12382
-36.0509
-19.2033
-2.6198
-3.55298
-7.06857
-13.6342
-6.17191
-11.7909
-3.59258
-1.3266
19.7537
33.9517
41.6021
31.8357
14.0845
-19.4207
-33.4112
-29.9988
-16.6012
10.9045
28.8488
36.6115
30.2643
14.6472
28.767
35.3716
11.6963
-30.8315
-58.5775
-34.3395
-15.1603
-53.516
-47.3483
-33.5596
-13.6243
0.333313
0.516347
15.2489
31.332
2.21943
-4.50607
-21.9184
-10.8244
8.09817
13.908
15.4773
21.4097
52.5972
59.8687
11.9208
7.65709
25.3055
21.8962
6.89229
-8.47882
-9.25401
9.52662
-26.9305
-41.3943
-22.0648
-13.1476
-15.7282
-17.528
-1.42388
9.26551
6.61591
-21.1238
-28.5452
-33.1437
-28.7369
-22.4036
3.83363
22.1216
36.2997
42.5261
48.4657
28.9741
22.9158
-1.77435
-1.42162
0.862806
18.1071
-12.284
-21.818
-26.5189
-25.0698
-4.74403
-1.67073
1.97029
24.5021
-25.2596
-39.0078
-23.5004
-16.2089
-13.0423
-6.13382
1.30797
6.24055
10.8376
7.55182
2.49114
4.76973
22.4153
22.1106
15.4456
15.4788
23.9386
11.9851
11.575
8.97296
31.9033
28.4578
14.7224
28.2639
8.1872
-20.9301
-23.9642
-13.428
-10.8309
-7.97292
-23.0926
-31.9711
-39.1929
-51.9134
-46.6717
-34.2974
-9.47229
14.0469
22.9161
15.6314
12.6677
-11.7659
-10.445
-16.3994
-6.21848
11.735
19.8312
33.8126
42.4407
29.5068
14.2339
30.8901
40.5408
31.4813
6.13537
-17.9685
-33.123
-27.2873
-28.0813
-29.7844
-18.7087
-8.66054
-16.9969
-23.0197
-8.14002
10.0183
7.12908
9.15392
-26.5184
-15.408
1.02141
-2.84948
2.94246
16.4686
32.5739
18.9605
12.414
12.5381
14.5555
7.79722
2.08553
15.357
19.8802
6.67801
5.26835
4.36714
0.512173
-13.2804
-6.64459
-4.77567
2.76928
-23.1718
-32.8876
-15.4371
-14.3484
7.71739
28.4112
39.2897
39.3258
28.4992
-16.1074
-31.3621
-52.8496
-48.9944
-35.4748
-35.6634
-28.3202
1.80811
37.0804
29.2287
25.6084
17.5074
-12.7729
-48.4296
-33.5649
-2.00011
-3.66461
-27.2333
-22.772
-2.08573
40.4622
57.1059
50.9861
44.4258
22.9641
13.1606
13.2543
5.11401
-0.717148
1.04426
-5.35023
10.9815
28.2171
8.77187
1.0902
-20.3849
-39.7886
-34.278
-23.7089
-9.45092
2.34777
6.84099
-2.03495
-14.3396
-4.36629
18.2098
21.48
11.5024
17.7004
34.0918
23.2573
11.8599
2.26103
13.1225
-0.829624
-16.6441
-26.9519
-40.9727
-43.2598
-37.2879
-55.2905
-41.1421
-17.5403
-4.44678
-3.15401
-8.87959
1.64272
5.25494
-35.8902
-39.3512
-10.521
13.7358
29.3746
38.1951
33.5815
24.2428
34.2871
40.8982
29.8462
9.98576
31.9791
35.3109
40.3965
32.9052
15.556
3.96303
-10.5275
-17.8735
-4.43743
-10.7089
-3.58875
-9.27543
-53.3193
-38.1313
-25.8179
-2.95508
11.6191
18.0087
16.7422
16.0004
17.1101
-0.397439
-8.03149
-1.26273
-1.70845
-12.6894
-18.5187
-13.9211
-27.0809
-52.6626
-75.4811
-66.6092
-20.2559
18.1941
45.6489
54.799
58.1589
33.3627
22.1548
9.92112
-3.12073
-12.591
-27.1417
-34.9433
-26.0189
8.41854
9.49568
-1.93692
10.9184
30.9244
38.6987
36.7188
42.7483
33.7578
18.2657
-28.54
-47.3685
-37.0734
-30.6252
-19.5699
-4.35926
12.693
15.1016
-2.30726
5.74413
-10.6183
-16.8168
-14.0826
-14.4227
-6.04012
-7.80662
-1.43005
16.5405
18.9571
13.1858
25.0857
21.6821
27.7014
33.6444
4.5667
-14.252
-23.3573
-16.3036
-6.19408
-14.2603
-13.4278
0.706232
-26.1823
-14.0059
-0.959878
7.77114
4.04247
0.386989
-7.06663
-16.5103
-14.2901
-11.6482
-8.76423
-11.4995
-2.9698
-0.456751
5.29913
-0.188543
10.0976
13.8894
2.45177
5.29734
34.6098
38.634
49.7438
29.3582
20.8436
12.3838
-9.54602
-25.1753
-25.6882
-26.5583
-15.1962
-6.92621
6.95149
7.2801
8.27087
7.08905
-2.08982
-10.323
-8.3842
-11.1879
-7.11853
-5.22755
-26.099
-33.6668
-38.1402
-30.1333
-14.8412
0.442835
22.9852
30.0475
26.9888
23.7409
20.4113
9.7479
-11.716
-16.8677
3.19431
29.7851
42.4802
30.8889
27.2423
16.5995
-8.83753
-17.2154
-17.715
-17.7526
3.00782
2.76297
-41.7133
-38.2562
-23.2142
-23.2558
-26.5997
-16.174
8.64844
9.63905
-13.4821
-36.3279
-40.0289
-22.9761
-2.66906
8.06719
32.2241
64.4636
60.448
63.9495
57.0532
59.516
53.6454
29.8346
-2.31966
-29.1219
-23.6233
-20.5604
-28.2303
-19.578
-11.96
-12.0231
-14.7222
-18.1341
-13.5536
-27.5427
-24.2565
-16.8441
-10.289
-17.6882
-26.4033
-28.666
-2.54466
-18.6688
-15.1561
3.04715
7.91082
16.6693
16.8101
23.3889
38.6102
31.4291
18.5433
21.3115
17.0197
24.4707
17.0111
-0.0768074
-4.58165
-3.69652
-12.35
-24.296
-21.1888
6.58092
12.2148
2.63321
-11.6201
-15.7674
16.56
26.0803
-21.2277
-28.1509
-13.2517
-14.8614
-24.7864
-12.4715
-4.77124
-2.19009
16.4578
8.61605
-13.9521
-13.7348
-8.81461
1.49473
13.9631
22.934
17.4383
0.919217
-9.62882
13.1334
54.092
56.7968
43.9765
31.004
44.5179
36.7848
-16.8726
-47.125
-85.7434
-92.6137
-64.9733
-34.3609
-2.59598
1.05118
-8.50401
-6.53889
7.15905
26.163
15.5053
-7.77842
12.7029
-1.06041
-26.0908
-18.4202
-29.2346
-17.8933
20.7739
40.8325
75.5329
80.4853
27.9459
13.6465
5.96645
4.70215
-4.55661
-15.3184
-16.5478
0.143331
-13.9689
-38.6531
-32.6268
-12.8198
-3.76504
-8.12241
-12.0824
-4.80647
-8.40478
-5.86406
-12.3734
-12.9301
5.35142
3.19794
11.2654
28.8429
48.1688
31.9634
5.91819
-11.2227
-1.69735
14.3563
1.76773
1.86948
15.2546
7.90377
-3.92576
-17.1923
-19.8753
-21.7487
-23.6311
-14.6148
13.4368
2.49143
-20.6886
-7.94195
-0.574571
-2.13556
-5.42948
-16.1323
-8.08306
-4.28091
-12.4475
-7.51445
-5.48073
3.57541
18.3969
19.704
31.4014
55.5742
52.6117
6.83858
8.80675
12.9268
1.72541
-26.3937
-38.5448
-20.2635
-21.1036
-22.229
-26.5616
-27.632
-27.0253
-25.0732
1.58132
32.4377
21.5015
27.3763
31.6426
23.7204
17.7877
28.9009
16.1208
7.65441
-10.5724
-17.7869
-22.0097
-23.0133
-5.32788
4.93433
11.1772
19.1292
-1.03214
-3.57069
-17.0709
-43.4279
-51.8459
-49.7921
-24.1208
-2.03679
10.649
29.3291
18.832
14.7888
17.6862
10.2402
12.6611
11.6393
22.196
57.575
31.6846
14.5001
17.9026
14.1816
5.75877
4.39536
-4.55406
-27.8377
-34.5701
-32.0978
-59.3495
-45.451
-21.8025
-2.75446
7.1826
7.13762
19.1929
28.6153
-6.14542
-26.4349
-24.9576
-17.0031
3.10621
18.6361
30.8453
34.9576
9.49043
15.6514
11.3382
-6.3052
-25.9503
-21.8087
1.35503
7.15552
9.14353
0.243273
12.4069
20.5846
11.5413
10.2623
7.5944
3.2593
13.5259
-24.4108
-38.0143
-28.5573
-15.5454
-10.6494
-4.83446
4.55009
6.72728
0.673301
9.93952
4.27527
1.25212
1.8155
0.64998
5.7589
6.52478
4.30551
1.84166
-12.8786
-29.8126
-9.34635
13.6095
23.6284
21.779
25.0309
28.8113
10.4125
-2.93807
-5.5707
-15.5845
-14.2824
-8.70664
9.19736
19.382
7.26881
3.00956
-5.61469
-12.5197
-12.0722
-33.6229
-28.2151
-8.24409
-0.988873
-8.35178
-3.67958
-23.0624
-25.1841
-2.37245
20.1599
42.5933
50.9819
18.8899
-26.0353
-14.4343
-0.0946518
3.73739
-2.14412
-16.544
-2.91705
12.2202
-13.4821
-22.1817
-22.0642
2.08694
25.2292
43.6141
46.719
31.7216
3.70373
-24.7473
-37.6443
-22.7643
-4.84661
-15.3764
-22.0063
-15.6236
-7.34803
10.7407
9.69114
12.248
35.7423
41.2169
29.9258
11.9992
-9.34499
-16.0735
-10.9218
-14.4519
-12.8383
-16.7916
-19.1755
8.35173
32.7602
-7.929
3.70011
15.1018
16.5053
0.389243
-7.64018
-10.5675
7.27368
22.2073
-25.5318
-34.2756
-32.5688
-23.7527
-15.453
-2.9763
4.20259
19.6379
27.217
-8.65312
-12.3353
4.13088
0.313037
-2.87485
-2.12997
5.308
-1.23954
-7.66923
-11.0711
-23.5359
1.42828
17.1282
23.9432
43.021
34.4481
16.7042
7.69735
-8.88362
-28.5935
-26.8888
-10.0061
33.9434
13.692
-1.62812
-7.80207
-5.81764
2.31938
2.57751
-3.27938
-6.29723
25.4386
4.62726
-2.58618
-1.11793
-0.516717
-17.6954
-20.2083
2.84962
18.5784
39.6756
-10.7922
-40.3753
-31.0328
-20.6099
-20.566
-26.4316
-14.3934
2.43615
18.9713
6.41315
0.573608
19.1992
12.0121
-11.9669
-9.56741
11.9884
24.4681
4.64841
-13.397
-3.68528
21.4976
25.0369
30.0667
22.4607
36.0901
46.3272
-21.8617
-33.3868
-33.1819
-25.779
-24.4869
-14.1103
3.39185
-1.61796
-17.206
-9.3285
-9.90639
-4.5549
6.09482
0.801532
16.2522
22.3828
-21.5
-25.5316
-22.1295
-26.8305
10.9706
27.3076
40.3833
59.947
50.2727
40.8845
-24.4144
-35.349
-16.5133
-5.07941
-6.6429
-13.4787
-10.2568
-20.884
-39.0824
-35.5456
3.76608
22.7867
17.9606
8.86455
26.002
16.8737
0.483524
-8.29593
-18.7409
-28.6673
3.4205
12.467
15.3004
1.45743
-15.2751
-17.2356
-13.9785
0.0261649
14.6115
12.2435
6.81816
-1.15549
-7.84906
-1.76295
5.9479
6.87475
1.55229
-7.59257
4.22082
17.7904
39.6853
6.64777
-3.00552
-9.53712
-4.54879
-1.17075
-1.54036
-0.31159
6.77786
-0.713751
-3.58704
-29.3101
-27.5888
-6.66718
5.37155
2.54006
1.40247
2.279
19.9323
-0.669303
-25.0248
-23.1941
-25.0516
-24.1078
-16.2117
9.0666
41.8586
33.2241
22.6228
21.8298
28.2603
33.137
23.3123
8.16446
4.99325
-7.24911
-19.0526
-25.6439
-29.8228
-15.6066
-0.554915
27.1321
31.0265
21.795
4.16672
-6.6192
-21.981
-37.6728
-46.6216
-46.8968
-31.2059
-26.001
-30.2946
-25.6344
-20.7211
-1.80255
16.396
18.2584
10.7258
29.2612
32.8262
17.8554
17.5318
24.4477
33.142
32.4341
23.6235
30.1732
16.8816
-1.61342
-11.0136
5.04066
14.8916
-1.41275
-10.4877
-1.1022
-34.7501
-24.5096
-9.20902
-0.446999
-1.51783
3.96981
3.61785
-8.00743
-5.96937
-25.1366
-36.6177
-34.6107
-15.2893
5.51657
12.9305
18.2351
19.2329
17.9797
-0.331216
-10.8736
5.73694
7.50817
4.94494
-7.72082
-13.9992
-4.07764
7.07182
-5.3726
-19.6141
-7.8494
1.81243
7.85206
21.6757
29.0457
24.8986
13.9571
3.13757
-10.2248
-10.4979
-15.0259
-21.9841
-29.1185
-16.893
-1.36063
13.805
28.5027
27.06
44.1245
27.988
8.46013
9.00936
8.06743
-25.7615
-40.0194
-31.0858
-19.292
-6.19662
6.9812
25.0277
27.0003
15.4503
6.07147
-16.0518
-30.4819
-35.3946
-39.9114
-29.6706
-0.19175
-8.691
-8.35675
2.04214
11.997
25.8796
28.2768
8.80866
3.71711
6.06155
5.01526
11.542
5.4749
18.2935
23.1312
13.1652
15.8689
8.71196
5.92929
-34.6665
-58.4529
-19.3113
-2.62205
-13.3336
-25.1607
-21.2412
-2.79152
22.6004
-4.61891
-7.92984
5.00156
2.64232
7.42074
18.2692
26.6517
42.4627
29.238
22.5666
4.96342
8.86074
11.1974
4.85282
-6.15694
-14.6941
-33.2242
-35.7922
-24.0453
-2.51678
23.3529
20.8914
25.6402
5.26371
-11.0538
-10.5374
-14.3101
-20.6201
-20.7342
-22.2739
-17.1411
-0.398508
14.8686
-23.3259
-24.2988
-18.1473
0.713774
19.5445
16.6539
-0.601739
1.46688
15.4829
11.9955
-14.4093
-3.65072
-4.66721
-14.1896
-22.8873
-12.2785
28.6361
55.1411
10.4073
1.00547
26.348
34.6615
25.9301
24.1245
18.6482
5.97331
-9.16996
-11.1155
-9.02166
-10.071
9.72345
17.5157
25.5821
7.7271
-14.1726
-21.8558
-37.4521
-56.2784
-24.2447
-18.9658
2.57867
-4.79413
-3.17044
-2.97862
-4.54082
-17.7341
-13.193
-3.52924
-20.3806
-34.8331
-17.0477
-21.9544
-19.345
6.32678
22.9449
22.6209
20.7562
35.0486
49.1931
42.4138
36.5078
27.186
20.8403
28.0972
24.8986
23.6419
17.7605
-0.87075
-7.33449
-27.3783
-43.6541
-41.4382
-42.2886
-38.2991
-26.1541
-7.50818
1.29643
-30.4574
-24.9045
-17.467
-13.9393
12.2424
19.995
29.5794
28.1654
3.01286
4.46176
-0.141045
2.15826
22.7875
31.2952
35.0201
8.9121
2.03349
0.995798
-7.55885
-19.7347
-7.30846
-7.81863
-0.547216
22.8481
-22.2369
-36.4514
-33.8183
-23.1119
-0.964937
-6.01481
3.06743
18.5538
33.9441
3.166
-3.36161
14.0558
18.4609
11.3276
7.47435
26.3716
53.2556
4.92934
-17.8846
-33.6124
-9.13876
1.40124
-7.85385
-12.5443
-12.2035
-20.7073
-34.4107
-38.188
-33.1541
-6.75912
-1.97935
2.87392
7.51011
26.3967
37.0895
22.6166
16.6252
43.4569
35.3962
-0.601138
-21.1291
-15.24
-31.2155
-54.7832
-40.6558
-25.6269
-0.0788794
19.4933
25.5898
40.9384
43.218
33.0436
26.3617
23.8083
10.8603
-15.684
-48.7146
-52.6092
-29.1087
-11.4708
-4.45744
1.6253
8.34642
20.7318
20.4432
15.6516
17.0054
9.15049
-27.2826
-10.0535
-2.1895
-1.86774
-8.2117
-21.7899
-13.8433
-7.44622
-26.0629
-15.0206
-9.24062
8.30752
24.4089
17.9806
29.4964
23.4554
13.276
10.6727
-0.686649
-7.36633
15.6531
8.69701
8.2454
2.26521
-9.51412
3.38151
-14.6844
-14.5883
9.11151
17.5468
15.9259
16.5164
10.1927
4.41608
-8.89568
-15.7692
-26.0162
-16.486
-8.17622
-16.679
-11.2471
-19.6577
-48.0175
-21.3573
-6.87953
-16.8297
-6.31082
-1.48033
9.94993
12.8014
26.0449
13.3911
-10.8589
-10.1391
-6.57033
8.57983
23.9463
30.9998
44.0993
36.3879
-12.7283
-24.1801
-25.1378
-27.8053
-15.6819
2.42466
27.4701
45.5652
22.4433
18.0438
5.82399
5.41939
22.6185
22.4706
26.0415
27.4873
9.96676
-15.9985
-29.6026
-35.6106
-15.583
-8.82273
-0.718374
-6.17114
13.1294
-18.5915
-51.174
-55.7814
-30.4303
-22.3927
-29.444
-27.8526
-12.9695
-1.41705
7.2888
-15.789
-2.84036
8.92592
2.06615
15.165
38.2596
55.7196
42.6432
29.3497
12.4608
8.03047
9.66288
5.35149
7.09311
3.70308
1.95595
-0.259537
11.1987
8.05984
-0.623349
7.9126
10.9344
22.9992
-6.45041
-15.9967
-14.8945
-21.4067
-7.97999
-8.23007
-19.9958
-8.36557
-17.7637
-22.4887
-24.4437
-20.9606
-13.886
-4.72307
-4.46276
-11.6924
-6.97845
29.1672
11.9561
-25.8555
-2.09145
12.2772
9.65025
2.38555
8.03665
19.4681
42.8833
25.9572
32.8194
36.0329
33.0181
22.4545
4.00925
-3.94888
-3.66951
-39.6041
-62.8534
-65.9309
-31.2025
7.98338
17.4096
22.6158
24.4989
-1.45497
-14.106
-29.2338
-39.9132
-18.0466
-12.4332
-6.4181
1.22824
-3.52384
6.71746
17.3289
19.2766
36.4446
38.7315
26.5866
17.624
12.0016
3.93568
-6.12963
-8.71531
-0.411512
1.526
12.1067
24.3609
4.87252
-16.6632
-29.9621
-35.9239
-20.0447
-11.7041
-10.4554
-11.4729
-4.04111
9.40493
-1.80552
-10.7385
-10.9545
0.471372
-3.08401
-7.35355
-1.93909
12.8972
1.17437
-9.50509
7.4163
19.5851
20.3463
23.928
34.6824
35.3614
14.2801
-20.9287
-28.0973
-13.5053
-4.85509
-4.77236
-12.0099
-15.4163
-4.5128
-4.32188
-3.07607
-4.43927
4.0156
-6.03198
-5.66659
2.48464
5.50546
20.3904
13.5089
-27.1186
-18.8649
3.62201
13.7453
4.29119
0.332561
5.18641
8.2198
30.1815
16.5828
-9.37472
-2.69476
-2.45826
-1.63532
-11.0918
-11.2169
5.56118
-3.43497
-32.2642
-33.8509
-16.09
0.532697
18.6412
20.1537
21.8072
15.1264
-7.40413
-5.53788
-14.4249
-6.92992
10.2516
13.1393
20.9171
17.413
-1.69235
-4.67864
-10.5944
-5.77207
1.03414
-3.52697
9.13376
3.81186
4.76282
16.2993
9.51227
8.79734
8.79244
-3.9147
-19.3928
-23.3788
-2.98603
-0.301316
-19.3887
-24.6897
-13.7521
-12.9787
-14.8174
-5.07492
16.7284
19.7752
-16.1046
-24.0552
-14.3058
-17.7031
-9.84496
12.5038
43.0498
62.1296
14.7705
-11.0908
-9.47837
-9.17452
-1.5115
6.51437
10.9716
10.2445
11.7455
10.4564
-22.0747
-16.8603
8.39571
7.79252
5.455
21.6463
33.4497
10.2725
-19.3418
-29.2124
-4.70686
12.5818
15.6787
14.679
20.64
11.0448
-19.8795
-14.804
-13.77
-16.251
-4.5103
-8.53206
1.7178
27.2905
-3.2915
-53.0166
-62.1531
-46.4457
-26.2084
-18.655
1.41874
15.5707
10.9685
0.694599
-14.2565
-5.8708
21.7413
22.7813
26.3633
39.4246
67.4843
29.7773
14.0759
-3.25477
-17.31
-10.228
-26.9956
-42.8588
-29.0074
-15.5671
6.71209
24.4811
28.1714
35.9244
41.524
37.6341
28.1394
5.42999
-8.43785
-17.9997
-31.3605
-9.49371
4.26489
1.05315
5.44726
8.80545
8.67049
15.0446
-2.60593
-19.6962
-33.6225
-40.2763
-34.8617
-45.1629
-60.8227
-49.9651
-29.8251
-15.0494
-11.0676
-4.50767
0.270568
26.5545
53.1747
42.1186
44.7919
48.8019
51.4636
53.4694
43.8482
32.4004
21.7523
3.87622
-17.819
-36.564
-28.2929
-25.2622
-24.9599
-21.4489
-19.1554
-18.5074
-23.7576
-32.4092
-40.0461
-31.4675
-14.7661
4.03497
14.1188
23.4412
25.8386
1.29913
-3.66078
4.82018
17.6522
34.9238
34.2253
28.692
59.2193
55.8105
-15.3714
-28.3721
-22.0568
-15.4067
-12.1477
-8.03694
-4.41253
-2.97718
8.31849
10.6634
-38.9241
-49.4779
-15.8503
-9.48066
-6.06378
5.85014
12.0323
23.7182
-0.207362
-3.06746
31.9667
24.4564
10.0933
0.123983
-16.1177
-17.455
-23.3555
-22.7655
-26.6794
-30.6578
-1.50161
25.0716
21.1479
13.3497
-8.04131
-10.1074
0.931799
1.24971
-0.672628
5.04895
35.066
48.8885
0.0581741
-10.6985
-16.5728
-16.2534
-13.3336
-30.7823
-45.7192
-20.8969
32.3149
15.9875
-10.5816
-4.603
26.0234
47.2889
53.2724
52.3467
50.4974
52.5626
14.9542
-36.3178
-14.1139
-24.3768
-32.6667
-37.3141
-30.0394
-11.8413
7.62356
-12.5791
-43.1564
-17.1756
9.03181
11.6127
-0.172727
-22.4154
-37.7872
-58.7053
-56.9789
-47.0777
-17.1683
17.9205
42.811
63.2005
65.8382
47.0535
39.3379
28.567
15.3896
1.29925
-9.28
-10.2759
-34.9586
-33.5842
-13.8523
0.663196
5.0948
9.86155
17.7549
46.6778
7.41305
-20.9765
-19.7705
-13.4733
-4.89208
15.3169
26.3554
27.0971
15.792
19.8595
35.3122
-5.83082
-11.9037
-13.8173
-21.785
-25.8282
-27.6669
-21.2126
-13.5852
-35.758
-14.0585
7.85168
4.79891
-1.64701
-10.7289
-12.7206
1.68929
-9.77969
-24.5721
-20.8007
-12.0165
22.57
41.8382
48.5871
34.7883
27.4966
12.5264
-9.17653
-10.2704
-14.6477
-4.50936
-2.46059
-5.91482
5.18021
-14.7727
-16.473
-20.4583
-1.86279
17.5683
19.88
17.8411
26.7599
12.7988
-11.5572
-13.477
-19.8338
-31.0377
-31.4431
-17.8264
15.0501
48.782
30.7901
1.28902
-11.9882
4.41758
7.67376
7.60552
12.5915
12.337
1.94772
-22.7413
-24.2217
-13.2452
-2.73554
-3.79433
-3.48261
22.2268
42.6198
4.76651
-18.1295
-27.0551
-12.8641
-7.75909
-16.3148
5.8769
9.54731
-25.5319
-16.2386
-7.2201
-5.39905
-2.69634
-10.9416
-16.8412
-19.7952
-8.13109
10.2202
11.4559
26.497
43.9099
27.2134
19.6813
38.9752
34.59
-6.80881
-23.6938
-18.1343
-4.39336
-5.64717
-0.456631
16.0226
33.9168
1.52591
0.482052
-5.79801
-11.9099
-14.213
-9.68534
-5.75565
-8.99103
-5.32684
4.34288
-43.8616
-36.6149
-6.47914
-0.479927
-5.18626
2.12019
2.28846
14.0275
8.15988
12.1166
35.3342
19.8397
20.1805
17.7931
7.02725
4.31529
-10.0885
-25.6207
-35.0405
-54.2187
-45.5913
-27.5719
12.1545
32.7642
14.6467
4.46183
-0.60858
-10.0675
-8.66571
-9.79282
3.10879
25.3798
18.0494
-2.09651
2.38537
-2.29693
-10.2742
-1.85754
7.21104
12.8635
30.5072
28.6822
15.4233
10.7707
24.2808
30.8471
20.6528
9.50803
0.732724
5.42553
6.4118
-11.5997
-13.3747
1.49666
1.10216
0.253543
-8.29097
-14.1065
-38.1156
-47.1861
-33.1691
-24.0197
-20.9588
-26.0527
-24.5972
-14.5579
12.1485
-17.8822
-15.0271
-13.1108
-12.5633
-9.49643
3.39903
22.9203
34.111
-2.74759
-1.41096
4.1595
17.1521
30.9472
36.8817
28.805
20.6946
35.7772
35.6778
27.6144
16.9425
30.3076
16.069
-3.62833
-11.9112
6.68846
12.4628
-34.1306
-68.3941
-46.1049
-25.6117
-11.519
-1.69234
-0.226729
0.463985
6.2891
-11.8298
-28.3318
-24.5248
-15.3815
-15.3481
-4.89308
4.58357
7.92835
1.25648
-5.90366
-2.22076
15.0525
26.3387
31.9376
35.611
49.7245
11.5352
-7.77122
-5.9148
-4.76743
2.36213
-6.62041
-3.71264
-5.32088
-22.0636
-20.7377
-17.1048
-12.0305
-4.58309
-9.85007
-10.092
6.18874
4.6683
-1.27436
-8.93011
-26.1099
-15.6432
-9.28261
-1.02061
25.1969
28.1081
52.6734
61.1294
39.8647
25.9095
23.957
15.9657
-2.2973
-18.9846
-33.5138
-33.2644
-32.7889
-35.2462
-24.5623
-25.2098
-16.8368
4.50031
-0.36248
-6.83351
-16.3335
-8.31554
-15.9636
-24.3975
-19.4981
-4.97737
19.2368
18.9246
-6.73999
9.6037
21.8715
17.4881
19.3562
28.4272
33.3645
21.9298
15.6508
31.8305
42.8763
32.2629
11.6419
2.61157
-5.60092
-8.73265
-10.7708
-29.1059
-52.088
-50.2415
-22.6452
-7.2436
13.7912
24.0535
9.94887
-17.9662
-33.6052
-33.2954
-29.4582
-33.0443
-32.0535
-12.2465
1.06121
3.56874
9.40073
10.5659
19.163
36.1684
44.4083
54.1303
37.6837
4.54226
-12.3758
-29.5825
-30.1578
-7.95417
19.1027
44.2575
37.6154
-8.06429
3.15321
0.0540002
-8.35178
-0.973248
-0.734688
4.47973
-15.1582
-23.0943
-27.4849
-34.7497
-20.3438
-5.3075
-9.51162
-0.859577
10.9413
4.44431
-13.0144
-22.6521
-22.1628
6.48925
13.7293
15.9951
24.5192
34.8761
8.00184
15.929
21.913
15.4266
-3.17629
-16.4234
-10.4644
8.78577
20.0677
3.10767
-13.6821
-3.10161
10.3351
7.56703
2.24619
7.74102
5.2875
-28.5065
-34.3197
-36.3871
-22.4841
-32.9058
-21.0235
5.17242
15.5837
2.51373
11.3909
8.9748
-3.28221
-0.841826
-8.30136
-10.3344
2.12406
7.97952
22.9333
37.9614
40.3835
46.9932
34.3523
22.4276
17.198
10.0052
18.1016
-22.327
-23.8784
-16.4931
-19.9055
-29.3937
-36.441
-26.4817
-21.9689
-26.9166
-40.0736
-27.3183
-17.4373
-5.81276
-7.51541
3.37621
28.5444
10.0592
5.29208
-0.620845
-8.47667
-0.66313
1.66759
23.93
37.5263
30.3696
33.3047
41.6998
61.8205
65.8871
50.2227
33.3035
34.1407
-36.1308
-69.2059
-66.0435
-74.4511
-62.5812
-45.6636
-31.8134
-14.9022
-14.0117
-32.6596
-28.5308
-25.5039
-1.06033
12.5492
16.4654
16.9234
33.7854
52.1527
4.72521
-19.8235
19.9648
36.3049
31.6642
22.0923
27.6223
28.7454
31.4928
-5.14235
6.9325
13.8231
6.02663
-4.65961
-8.48328
-13.2278
-20.7093
-18.8393
-15.673
-59.9134
-41.8751
-31.3269
-17.9998
-8.38078
0.72337
7.3219
3.66811
-10.6334
-17.9123
-3.51892
14.7018
32.636
40.877
55.7197
42.5648
6.34832
-1.39085
-10.9223
-21.8037
-2.55317
12.6828
22.5139
23.8179
-11.8916
-37.2941
-23.7725
-14.409
-5.86216
-10.6052
-9.1264
-1.07762
23.0825
11.3626
-44.8143
-36.8954
-7.7023
-4.45117
-6.35555
-1.67696
18.5771
33.9388
10.5571
-2.9212
9.04604
11.8425
-2.33363
-3.21427
16.2726
25.1063
0.783068
4.87017
2.25935
4.29227
23.914
19.4972
10.5734
18.6508
14.4595
-36.9993
-47.89
-41.3546
-24.959
-11.0076
2.96884
12.7903
10.1427
18.8567
-21.8859
-18.5433
-30.7897
-33.5989
-10.0519
0.305089
16.7824
27.2299
3.44905
-25.2743
-23.3856
-2.61651
33.5727
30.1921
15.1738
2.25069
9.50607
10.0987
13.4992
11.9274
-0.290335
-16.366
-10.186
8.0642
42.1091
11.5385
1.79546
11.391
26.5955
24.7195
-1.72888
-24.9615
-19.9631
-0.465051
-5.24229
-34.0435
-27.8127
-9.87722
0.090488
1.66285
4.86715
21.9569
16.8137
-13.5783
-26.1297
-4.60178
-12.3199
-34.0251
-25.8409
1.14243
11.2099
7.68858
13.2643
0.797565
-3.28757
2.59788
-6.46265
-16.6547
-8.82761
-28.5474
-1.41421
23.444
45.0808
55.5309
37.0335
20.5249
1.29451
2.63644
7.72839
-12.047
-23.4093
-14.4291
-9.52757
-18.2073
-13.2143
5.55791
2.068
-4.62097
-11.3509
4.44017
1.5453
-2.19546
-10.3236
-6.89703
-30.1986
-27.9287
-7.69505
-1.96665
5.24043
23.598
35.8315
39.6888
12.1204
-2.07873
4.9573
5.23321
4.1986
8.83252
6.24283
19.3264
2.65034
-5.91855
-11.8085
-14.672
-5.46526
-1.03595
-8.25025
0.127601
9.34789
-6.0423
-38.4493
-33.3182
-21.1988
-13.9777
-7.8794
2.08765
14.8424
31.0114
3.32769
-25.6805
-11.0564
5.70595
13.0331
17.6277
17.5519
5.27666
10.9275
3.59585
-20.0927
4.12719
30.1218
30.9243
25.2451
18.6357
14.8887
9.02088
-24.1408
-38.1497
-26.8364
-4.91389
0.660441
-5.84834
3.69924
-14.2573
-16.6467
-1.05282
-8.7446
-17.5063
-3.42624
2.16034
14.7904
-2.25579
0.403317
0.514771
-5.96605
-12.2814
1.61669
-3.72431
12.7911
14.1661
-24.9126
-12.3298
-9.26761
5.32826
11.9861
9.61384
7.04792
22.4375
34.7654
-15.5719
-16.1781
-7.16461
-2.85685
1.34738
2.77334
10.4113
20.8084
15.8937
9.1176
1.43972
17.275
7.6019
-10.3796
-8.22716
15.3787
-14.4925
-11.081
-13.418
-15.2733
5.44245
1.45333
-4.07431
-11.8936
-22.2912
-11.5369
-6.86874
-11.3759
-15.0642
-9.66127
6.46182
26.2343
38.8347
12.9169
2.87779
-7.40821
10.588
13.5316
0.42672
-18.4743
-7.26222
-15.8335
-23.8478
-29.9605
-6.40527
13.4622
21.3801
21.5099
23.6308
25.935
36.9625
-4.35537
-30.576
-18.7563
-19.7676
-26.6572
-17.2175
-16.1149
-9.0475
-0.79313
4.51344
13.2394
21.9866
30.8575
22.6899
9.22343
6.86814
-5.15036
-6.49722
-9.59463
-19.3066
0.80116
4.38886
15.4795
11.1423
-14.7186
-11.5455
-10.3746
-17.0547
-15.3338
-5.53875
16.4214
16.4137
6.55783
11.124
10.2232
5.65036
6.20916
0.290295
1.83708
13.93
-8.66233
-5.54168
-7.51333
-3.73565
5.27099
-2.46059
-9.42149
-8.84092
11.4672
2.71071
-29.7721
-21.0828
-10.6547
-13.4999
-11.8092
-2.18008
15.4423
38.8064
-1.06187
-59.2492
-13.6326
13.492
32.238
28.492
14.7011
12.9441
25.7346
24.3293
-1.34708
-1.59009
19.1688
8.32765
-1.76705
-2.60699
-11.9566
-19.8067
-36.6507
-40.19
-16.3753
8.77526
-1.11008
-24.6895
-32.8119
-28.9994
-6.57522
-2.4277
6.52971
13.2581
27.0256
29.7693
16.6564
14.9452
30.6364
37.9171
9.45227
4.60073
17.347
17.1604
26.1399
22.4233
19.202
24.4188
-5.37457
-22.3912
-20.784
-14.9838
-31.221
-26.6638
-18.2042
-5.15349
-24.1607
-66.4115
-67.8873
-55.4163
-20.8807
-9.48932
-5.88216
2.27331
2.43925
13.7051
23.5019
16.1262
23.0648
34.1117
47.0008
61.6086
25.3734
-5.8866
-11.4012
-12.3861
1.23948
26.9877
28.7586
31.3371
16.8603
-1.71467
-2.30347
-8.06275
-8.7376
-9.23973
-9.57869
-2.42175
2.70792
10.1626
-24.6968
-36.4066
-17.8339
-4.6415
-12.168
-21.4969
-6.77985
14.9113
20.1666
0.923327
-8.94368
3.62605
5.00194
6.13188
11.8585
-2.6802
-27.3349
-45.5189
-26.8495
-8.24218
5.99228
9.8857
28.645
40.4074
36.6592
2.93695
-15.9988
-16.4283
-18.2539
-19.9225
-4.88216
7.33458
26.6505
-18.4584
-35.6949
-17.4535
-4.30366
-0.180464
2.63211
11.7797
44.9245
25.5235
-3.32783
-0.68916
3.18561
24.7611
26.3625
23.3159
16.3361
23.3255
24.235
-16.7639
-33.222
-13.3257
-10.4207
-13.2631
-21.316
-26.4709
-12.8518
-42.167
-52.9621
-29.0495
11.8603
31.2769
38.2291
48.4184
59.7421
33.8859
10.717
-6.06935
-24.077
-6.52488
-3.12797
3.66475
13.8402
-11.2629
-5.9983
-2.07142
-14.8217
-10.0474
-15.8993
-12.0372
4.64599
-7.15847
-55.9021
-69.3769
-52.196
-18.4561
4.02184
7.86783
18.7041
31.0192
26.2518
25.7935
23.2018
35.5444
40.4773
39.036
34.7492
33.4203
25.656
12.9981
-12.9189
-39.4771
-27.0022
-19.3732
-28.4057
-37.1551
-41.6112
-18.9191
3.44606
8.67094
14.3502
18.244
12.4067
9.34061
7.41918
14.4715
-8.98533
-25.909
-26.5946
-17.8319
-9.69422
4.9662
23.0318
42.0546
13.663
-7.07142
3.13523
2.24845
-1.91775
-4.73543
-2.36928
-3.22046
-17.563
-15.3538
-1.31663
2.59222
12.5583
11.9597
-2.25486
-5.84359
-24.1085
-19.7656
-2.90831
4.94786
20.994
36.4319
32.2451
19.0661
19.3212
12.7999
-36.3229
-39.4449
-25.3206
-15.9164
-22.3535
-20.7724
-4.77415
2.75299
4.18726
11.2781
17.555
21.1505
26.6628
27.1793
34.7127
34.7006
13.0106
-18.643
-29.5407
-24.9304
0.47505
8.69089
12.1703
3.96606
1.47111
-15.0871
-33.3599
-32.6159
-20.6489
-14.8651
4.51132
9.64563
8.97927
-4.55308
-36.3566
-37.1904
-36.5928
-12.6861
-0.705515
10.015
24.9367
-4.91896
0.266436
13.8456
18.249
27.6141
33.8127
42.9887
45.8886
50.5695
32.8381
-6.36519
-19.0484
-29.5102
-17.2538
-10.1487
1.27065
13.1469
10.5413
-32.6892
-40.4374
-23.7759
-18.6707
-11.6397
-2.03749
8.69684
-4.21652
-4.26049
4.31695
-5.59095
-8.34222
3.72926
1.23497
5.53812
1.83406
-2.05955
1.55367
0.156674
0.434186
18.9658
22.2259
30.4411
-21.6491
-38.601
-22.6009
-14.0287
1.4465
23.0125
41.3985
52.9129
14.6171
9.08835
7.65507
2.39742
7.90569
6.23128
4.65589
-0.13185
1.32562
-25.0672
-42.8994
-36.4722
-0.988398
9.13534
-3.26345
-14.3649
-15.6425
-6.10545
-32.3589
-59.279
-27.2926
-10.056
-7.64794
6.92163
26.2526
29.4487
34.5905
34.7637
-15.1339
-10.991
-9.3545
-15.8914
-0.339136
21.6525
38.2549
36.0722
25.3278
15.072
22.7898
31.1585
28.5175
17.5962
24.4702
-25.2731
-69.4607
-56.0656
-32.5196
-15.7062
-0.23966
14.9821
27.3156
35.8862
3.54567
-4.27816
-19.7768
-23.7785
-18.078
-23.2868
-27.0817
-25.3811
-13.3661
-8.15123
-31.3353
-5.53475
24.4343
24.9624
7.35455
-15.4931
9.5867
24.1682
8.66578
10.0038
35.4845
35.9921
28.5328
29.0532
29.6862
16.1866
9.43676
-3.15734
-18.0869
-24.5829
-16.7663
2.60027
29.1541
-8.41467
-29.177
-29.1059
-25.5965
-20.6689
-12.5203
-17.3455
-4.25465
19.1494
-22.3965
-58.6572
-42.077
-32.5817
-23.1549
-10.8085
0.464423
7.99032
26.4866
-1.19249
-8.75301
23.8773
57.463
71.2393
64.732
53.6136
56.8206
55.7938
19.6518
-22.3372
-13.2643
0.65923
-7.67179
-15.6544
-19.619
-16.5232
-7.2568
-30.4069
-58.8109
-41.9743
-21.0711
-0.257868
-0.408069
1.00427
34.3648
37.6243
-7.44002
-7.53667
-3.77856
-36.86
-61.0733
-63.4605
-36.7248
-27
-37.858
-17.218
8.69281
44.722
61.3263
66.8361
60.8933
39.1033
17.646
8.24335
-8.11029
-3.51262
25.37
34.9072
68.9866
38.2726
-1.40171
-9.5443
-31.3106
-22.2751
6.76495
2.23794
-33.4488
-37.6659
-30.2329
-18.599
-12.1506
-7.05857
-14.5934
-27.5146
-47.8826
-37.2401
-42.1864
-55.1478
-46.7699
-2.16596
46.7604
67.4818
90.5261
108.906
56.0467
21.4584
18.942
-0.650273
-16.5789
-22.4824
-36.736
-32.5596
-15.3435
-29.6109
-64.5159
-100.601
-112.249
-92.7719
-55.2863
16.1868
70.8136
58.2307
56.9613
56.5274
77.6137
74.4789
58.1747
75.3342
89.412
61.4202
56.3765
50.0085
28.7009
17.9327
28.3446
31.2921
44.8433
35.3281
24.2679
7.37853
-19.3388
-65.8707
-144.551
-182.516
-146.506
-86.1866
-98.594
-188.86
-204.483
-134.107
-69.9295
-54.6056
-37.6052
59.3845
79.4635
70.5743
71.4134
72.0001
90.9619
97.7227
92.997
169.355
203.868
153.686
71.0319
-9.11256
-35.2559
-18.769
-1.0667
49.6176
28.6915
-34.9431
-66.597
-85.2093
-4.48699
56.3427
79.8525
83.4999
-32.5121
-198.79
-197.257
-140.54
-93.6102
-43.9187
-3.22543
94.332
171.48
147.996
43.8824
-15.5593
-40.6711
-1.95837
13.8549
-12.1069
-50.3761
-103.883
-177.199
-255.911
-244.439
-23.6345
109.341
118.642
127.664
153.156
162.5
98.9415
-18.8166
-39.3132
52.3066
95.6742
83.7987
-4.81511
-49.167
-25.0045
-32.5018
-10.6015
64.6125
165.865
213.691
78.1154
-118.064
-200.341
-161.849
-92.3968
-70.5478
-97.5552
-28.0856
92.4953
164.458
177.691
119.192
65.209
7.83691
-108.935
-197.693
-238.749
-291.727
-262.775
-63.6861
91.6431
242.662
279.139
227.547
120.351
16.1028
-84.768
-111.184
-118.206
-60.3713
-92.2731
-163.929
-202.962
-187.3
-99.1957
-69.9446
45.0877
191.391
172.785
62.6037
-3.70984
16.0553
93.7738
94.595
91.8749
119.135
183.435
269.36
282.009
194.406
114.644
32.303
-7.38677
28.9656
-2.31659
30.3909
-10.7797
-77.9714
-93.8773
-122.736
-138.482
-124.406
-185.556
-237.986
-225.816
-188.529
-108.485
-67.7833
-85.3789
-101.437
-198.401
-240.696
-198.161
-128.914
-22.3693
72.3221
201.583
303.254
293.507
232.061
206.365
95.3877
-23.4359
-7.36205
34.919
60.0375
24.4803
84.5366
180.157
171.14
112.744
126.04
232.19
192.78
73.1179
-10.4419
-102.865
-207.462
-221.115
-236.581
-207.534
-137.083
-20.6143
-0.857948
-10.9855
57.4833
83.522
-34.6502
-173.524
-296.502
-254.244
-121.203
-67.0858
-62.3095
-18.7478
50.1306
68.7401
117.075
132.644
92.8789
61.6064
68.7501
121.898
210.44
229.587
129.207
69.4445
-72.9011
-178.429
-156.832
-112.819
-76.999
-36.0079
55.9545
91.5668
-11.2281
-78.7638
-53.3977
-14.6173
56.1318
134.307
167.313
83.4882
-116.851
-285.726
-262.307
-142.714
-23.1879
72.0909
127.789
199.348
220.811
215.608
197.67
234.197
223.221
132.448
18.6837
-86.9143
-167.347
-263.586
-365.093
-340.3
-273.646
-129.707
-70.3609
-19.7037
-11.0631
-57.4659
-67.3849
-35.1124
5.16764
-10.0882
-25.668
-39.7228
15.1238
111.194
162.99
206.49
230.624
207.715
194.996
155.642
146.179
113.367
66.6639
15.1893
33.4102
58.5745
51.475
-12.7476
-64.1084
-78.4478
-154.491
-235.86
-246.378
-168.174
-50.1813
30.8058
24.5534
19.8859
-40.0017
-128.532
-155.24
-213.656
-241.025
-211.857
-146.306
-71.1092
-16.6175
97.4344
219.398
274.155
271.691
278.455
248.935
137.273
37.2617
-3.33652
-47.5789
-118.888
-99.9585
-25.4243
-0.777633
69.9186
132.766
99.5858
46.8991
108.031
93.8639
37.5442
-29.2465
-41.7987
-6.07204
-15.8842
-47.4916
-134.835
-226.028
-244.64
-165.326
-72.6122
-1.4483
80.3877
134.234
97.2877
50.4297
28.0705
1.1278
-81.8896
-64.9593
-8.146
12.137
-19.3618
-9.69541
6.49141
7.22538
75.9463
95.2069
66.4591
71.4178
38.2277
-68.4892
-137.811
-139.264
-81.2601
-69.863
-74.8383
-49.6309
18.3508
25.7148
-2.81907
11.2852
4.88886
-7.19521
26.9736
87.3452
88.2143
-6.60294
-97.672
-89.7028
-18.583
69.2869
116.749
158.053
194.754
237.555
226.61
163.78
84.9855
-3.0675
-74.2562
-136.157
-147.345
-159.186
-195.86
-152.353
-35.9178
109.627
141.897
29.2798
-36.8418
-44.9032
-75.6702
-164.854
-166.077
-160.35
-201.981
-167.799
-81.1436
22.9925
56.5674
85.1241
93.607
86.2164
139.389
138.924
70.0663
15.1552
81.5678
205.201
176.275
70.5766
-14.1675
14.1649
-15.7327
-27.9271
20.5758
26.0309
-5.33475
17.2444
39.5911
56.4474
12.2654
-49.8391
-157.444
-263.88
-308.601
-232.655
-133.022
-93.5864
-60.5203
7.10397
68.541
106.344
62.7356
72.0139
114.851
130.971
116.014
96.0301
87.1458
87.9784
50.4176
34.0728
22.7084
19.1373
19.848
-12.0631
-76.8038
-63.3583
-11.3922
18.8268
42.9759
40.6509
33.3931
-9.80512
-27
-55.1622
-77.1586
-120.106
-140.747
-117.985
-20.2429
6.42824
7.82741
76.4161
85.3056
77.7275
95.7573
12.9986
42.8288
115.876
48.7517
-151.264
-161.607
-158.032
-140.854
-72.8454
-39.0065
-14.0178
27.5205
-4.12082
22.2737
83.2589
77.2809
95.2112
172.158
179.342
19.8113
-70.2929
-138.162
-160.527
-88.6198
39.8728
58.1599
44.0003
-10.6992
-47.1131
1.62594
38.7864
68.1195
52.3698
4.78351
36.1135
99.7456
85.333
58.2521
-18.5907
-18.4346
10.1043
14.6687
-4.66817
6.02852
39.8576
70.8702
68.6198
22.2638
0.345561
-65.4973
-181.526
-244.074
-235.036
-194.977
-120.422
-38.6792
13.0615
5.84393
43.3343
85.3172
102.732
121.664
127.342
128.603
93.1745
16.8144
-10.3614
-15.3188
-45.1182
-95.7917
-75.6109
-43.1789
34.9179
89.2628
116.287
83.2495
32.758
-31.4493
-76.1193
-176.239
-223.908
-196.625
-151.17
-99.8219
6.47598
88.3582
174.638
243.461
249.699
225.021
205.578
118.841
32.3694
-73.508
-154.304
-133.144
-113.933
-58.9157
16.8307
102.97
105.546
8.03731
-123.255
-174.856
-144.326
-55.0011
11.1664
29.1328
25.1195
9.02533
-70.4106
-107.982
-70.2205
2.17921
60.5951
115.487
188.229
164.759
79.7896
57.2324
57.4242
23.9112
-18.9407
-47.4509
-68.5535
-120.585
-139.314
-134.457
-105.777
-23.7842
112.444
169.205
141.145
93.8751
-1.64764
-132.378
-190.824
-180.439
-134.793
-32.2394
72.7733
115.242
172.968
105.289
-48.1392
-157.949
-223.056
-200.867
-138.794
-40.3165
33.7195
35.6239
62.2404
149.303
217.259
212.891
135.474
144.717
156.037
-5.49942
-95.6814
-63.4278
-72.0404
-34.1466
105.17
198.606
189.322
115.316
93.795
74.6957
39.3048
22.9389
-64.6067
-145.148
-153.329
-158.622
-222.011
-228.822
-204.034
-114.134
-37.8645
-20.8119
2.53345
8.29995
-3.63781
12.7437
-12.5726
-27.8628
-24.4797
-37.0191
-26.9868
21.5945
65.1206
67.9879
12.2948
-46.067
-84.7268
-72.546
-5.94325
96.3579
147.785
161.994
145.343
50.2229
-39.2007
-35.5335
2.50239
62.6995
74.6306
88.9884
115.527
74.8233
17.2764
-18.797
35.0829
134.277
187.376
108.177
32.6474
-47.9242
-177.536
-276.804
-299.589
-272.718
-200.93
-95.5699
41.0741
125.255
138.101
77.9401
0.952694
-69.2863
-126.704
-103.084
-104.332
-178.062
-110.773
14.8352
82.7237
106.058
83.1523
101.636
144.393
248.646
290.685
205.476
102.775
-14.3132
-85.5925
-43.9395
-63.492
-84.749
-66.151
-7.16092
44.6662
111.536
126.709
27.6285
-150.785
-268.6
-246.864
-143.093
-24.367
24.4524
46.394
17.7682
-66.4102
-78.7489
-41.6709
-41.2245
13.7207
127.707
205.201
171.961
39.6219
-87.8129
-190.954
-170.208
-98.5796
-3.92028
136.272
231.723
223.484
220.802
122.953
49.9402
20.2174
11.6969
-75.6655
-150.151
-208.785
-223.901
-186.122
-120.491
-40.9903
-1.64142
-7.58928
43.4897
90.8257
104.39
79.2307
60.3607
57.8717
17.0463
11.0933
19.6598
40.4292
17.0426
0.634905
-15.0531
-23.4971
-2.78787
10.6852
-19.193
-17.9983
21.0368
60.5219
22.1549
11.6262
32.3168
8.42306
-34.0672
-77.9512
-59.0815
-32.6949
-32.9629
-37.6694
-48.8147
-87.5962
-69.7251
-6.43229
26.9709
25.2253
-1.50477
-28.3272
25.2069
77.3734
53.8233
21.8188
31.8072
48.5102
34.8007
-5.90433
-30.1254
-17.9201
-22.0571
-52.9138
-46.0679
23.4378
57.5219
49.961
23.7703
5.43783
5.70812
28.9096
-4.51133
10.5622
50.3227
75.7897
73.0956
63.3277
25.9197
1.42758
-56.4055
-128.443
-171.844
-157.018
-81.8627
2.50502
32.2579
21.1708
16.9919
39.6689
61.407
109.245
152.569
88.4415
-12.1972
-125.931
-210.076
-163.881
-66.723
34.3877
80.9881
140.022
195.964
176.103
-34.8902
-158.898
-187.41
-131.109
-84.4539
-72.4847
-61.5639
-41.5094
9.25542
60.3163
90.163
143.472
205.554
194.476
145.166
72.1767
13.3284
-99.6724
-132.48
-83.6629
7.93026
20.788
20.0691
18.9953
-4.62275
-28.8543
-51.9127
-98.5818
-121.421
-97.4568
-51.2151
-17.9025
-11.4014
-67.8384
-94.9822
-106.451
-82.7671
0.545111
58.2486
115.531
184.593
182.407
117.707
43.966
24.8271
47.0924
55.0717
-5.448
-51.4935
-46.3152
-78.0568
-131.761
-76.449
-7.67531
56.8831
106.819
140.57
110.451
46.8761
-32.2085
-61.8338
-67.7236
-88.8251
-66.6554
-23.102
10.8897
24.8465
48.0303
20.7936
-1.77866
53.5755
147.782
93.2362
-70.088
-233.9
-246.327
-161.705
-114.32
-75.623
6.33383
64.8329
116.028
162.511
160.972
123.901
75.955
40.2784
12.9801
1.74363
-21.8933
-36.7304
-21.7381
-12.2475
69.6712
89.4601
27.3747
-35.9336
-65.769
-93.9303
-117.754
-107.742
-86.403
-92.395
-88.4072
-72.235
-26.9408
50.0396
106.367
156.154
146.716
112.827
89.1776
82.0129
66.6993
80.4603
21.223
-102.069
-145.367
-133.31
-128.265
-93.7499
-21.4361
33.3324
34.3854
49.9715
7.77196
-102.075
-145.458
-86.666
-57.3272
-47.0942
-34.8466
17.7609
116.952
178.206
217.257
258.602
179.211
24.4974
-136.682
-246.129
-182.537
-29.1334
69.3688
61.7466
78.9654
66.1025
53.0252
25.4262
14.8804
20.9899
-2.51263
-48.4602
-131.478
-143.169
-97.3266
-89.4967
-33.1851
80.8062
192.792
236.059
137.451
12.1898
-30.9883
-18.4068
-30.7957
29.1121
26.7799
-5.90313
45.0377
-28.5103
-152.591
-252.476
-274.124
-269.416
-231.179
-151.2
-33.707
62.1833
137.705
193.5
203.787
194.896
174.926
161.443
68.6406
12.3924
5.10793
-31.2422
-77.9125
-21.8171
43.7989
94.0592
46.8369
72.6646
112.076
71.1986
4.6989
-64.3959
-98.8076
-73.9765
-79.4701
-88.039
-94.2835
-118.311
-54.6212
7.57482
10.9458
-47.9506
-91.8802
-58.5533
27.9791
26.0612
59.1675
50.3175
30.9401
61.9251
119.124
163.869
127.514
66.8156
62.3268
29.4505
-82.0098
-208.981
-330.211
-354.061
-271.823
-138.762
-6.45224
62.8879
130.825
295.761
395.255
351.245
324.181
184.807
-71.3684
-401.141
-538.149
-457.911
-250.498
-22.9507
154.519
330.715
414.242
316.613
145.232
37.0968
-66.6723
-130.454
-150.459
-172.394
-157.75
-124.029
-76.9325
25.8962
198.496
376.568
463.105
405.721
224.572
0.13924
-164.64
-308.925
-385.351
-353.645
-207.79
-10.8131
102.418
58.7473
-39.0749
-152.675
-266.749
-274.547
-218.413
-118.649
-31.3978
52.6313
109.787
111.672
97.503
65.1052
48.6884
115.809
220.672
233.977
197.617
85.6873
-4.90789
-7.05146
3.27387
-0.918899
45.7607
81.21
43.2524
-13.1855
0.661367
41.3758
17.6119
-45.5769
-95.8525
-48.984
-25.1406
-24.7017
-68.4524
-118.894
-165.672
-166.571
-113.428
-77.2044
-70.8318
27.8985
88.0684
99.5307
80.5179
104.772
117.202
146.172
156.97
116.85
37.6801
-54.0646
-71.4952
-56.7926
-45.8805
-44.544
-70.6973
-72.2603
-54.4222
-39.9286
-43.7952
-98.4478
-109.964
-88.5689
-69.379
-66.7492
-62.222
-44.4294
-38.5647
-29.6394
26.3614
87.5798
135.09
107.766
110.178
163.448
141.629
97.1028
81.9731
133.191
197.2
195.285
144.391
109.792
-7.07199
-144.918
-193.561
-224.367
-261.947
-186.363
-84.5601
-24.1764
-59.4753
-63.5151
-65.4857
-31.8538
51.4861
89.7223
94.0614
97.6922
88.3953
24.6093
-36.6045
-80.5852
-41.1635
6.70182
12.1962
71.4201
107.34
-1.1706
-119.089
-163.91
-119.994
-66.8854
-24.22
14.8657
41.805
51.4384
46.2268
-17.734
-19.3649
4.58339
45.7814
72.7606
52.9858
52.7534
88.809
16.2612
3.95583
54.4753
57.4041
39.2999
-16.6067
-139.023
-221.024
-194.039
-61.8776
-9.36491
-21.052
29.3253
57.4639
128.348
182.342
137.858
83.375
27.3954
-3.51104
10.2467
24.8948
28.2331
25.8632
19.4233
-6.0252
-16.5947
25.7265
28.2901
15.9443
16.0467
13.3577
-56.7512
-150.84
-246.61
-307.808
-254.708
-120.91
-38.4944
-8.68014
45.9233
39.3757
16.3156
39.5157
29.3198
50.7633
120.458
123.393
93.2348
68.5557
76.469
56.9608
74.7477
120.575
191.765
205.091
114.299
-11.9463
28.6886
49.0498
13.7531
13.9983
-55.7941
-185.816
-248.723
-201.727
-96.2092
-21.4547
-15.116
-62.0395
-86.3285
-85.976
-101.137
-146.754
-148.783
-91.5913
-11.3464
41.3268
44.6696
42.7835
25.3837
32.4379
107.696
197.78
223.776
185.848
151.996
141.277
103.7
45.4445
-25.1954
-62.1909
-63.6531
-37.8919
-22.5502
-14.3987
-1.10386
-44.2468
-109.068
-131.313
-141.652
-105.605
-51.5293
-48.7891
-39.1026
-6.19006
-33.9517
-88.4553
-100.042
-43.6744
30.5745
80.3025
89.0226
138.005
127.378
74.4237
46.7452
78.946
83.8761
5.16552
-19.0661
8.47038
26.1505
31.7671
34.3399
72.6533
105.437
87.2878
13.3302
-76.4033
-109.461
-76.8037
-81.2518
-120.269
-126.762
-70.2489
-67.0244
-74.4134
-81.1713
-56.8964
29.5797
51.5733
68.9986
106.353
55.1188
-9.7766
-63.9923
-61.3478
-15.4962
36.0842
36.654
-5.08771
46.142
70.8897
111.023
64.9535
1.40744
8.53693
20.5193
31.4651
9.66967
-23.7471
2.58249
-22.8717
-18.2716
-8.59269
-21.4641
-10.0904
33.0189
21.5342
-29.9252
-73.5782
-85.0707
-56.623
-56.7683
-40.3337
-9.40854
16.3272
67.9534
66.1579
46.375
5.72477
-50.3529
-31.1131
40.5966
64.0482
90.8953
92.2114
-0.289413
-57.2915
-93.2174
-86.8516
-52.0534
-23.76
-20.1226
-8.42474
44.7527
44.3458
-11.6075
-24.9679
-41.5108
-59.5255
-53.1196
-38.4441
-74.182
-67.7552
16.1168
115.369
239.893
289.102
266.352
160.509
46.8659
-31.2741
-93.2352
-142.59
-192.661
-170.991
-131.074
-99.3075
-92.1109
-61.7315
-36.7955
11.9605
80.0865
117.117
72.3143
-23.8303
-40.0956
-25.4225
-49.5387
-14.1992
14.6642
34.139
76.9803
94.5864
89.4659
78.5883
74.4637
53.1499
75.8075
78.1271
5.46351
-76.9509
-125.202
-145.235
-119.714
-96.4249
-83.4943
-71.0312
-51.6536
-15.2898
28.7279
21.9424
-32.1134
-52.5626
-62.5679
10.0298
121.766
172.55
166.851
114.445
10.467
-58.5622
-56.2801
-43.7816
-18.4001
-31.586
-36.682
8.34047
87.113
109.222
41.5071
-15.2089
-38.9356
-20.1927
23.2743
-10.397
-56.5522
-21.1935
12.4592
31.2698
38.6925
38.4818
15.6473
0.979162
-0.938692
32.5405
-3.53905
-109.875
-207.308
-258.315
-192.169
-3.90465
121.858
170.402
190.217
167.816
118.194
50.9297
-34.1433
-58.6244
-49.8373
-35.4736
-18.9133
-49.9869
-65.5447
-66.8
-57.0489
-45.7504
16.9411
116.375
164.545
112.178
36.834
-46.1769
-83.8872
-83.5564
-67.0767
-55.8473
-41.8003
-17.3777
73.8291
144.419
64.266
-6.45243
-99.8559
-106.174
-54.0393
-18.8258
56.1756
115.809
88.7152
-23.6847
-68.8858
-39.0011
-30.0473
-48.3594
-37.4966
4.74331
35.0703
36.5916
3.12882
-33.4878
26.7669
79.8235
89.8501
78.0248
47.6391
3.9025
-53.4255
-101.13
-74.981
33.5408
117.103
132.855
118.386
94.1455
23.9045
-37.9368
-74.7844
-123.363
-113.092
-58.6816
-46.5573
-12.5052
11.1321
-68.5023
-165.639
-185.298
-162.738
-141.315
-60.1332
30.471
72.8308
63.0907
56.7189
75.7657
80.8876
45.8852
31.1904
53.8112
2.55196
-31.5788
27.5203
88.6547
136.963
216.751
257.649
242.536
209.222
129.482
51.6408
-12.0978
7.16276
-0.309522
-63.3987
-164.644
-272.796
-319.919
-338.36
-323.383
-273.051
-176.302
-92.9973
-46.3832
20.2551
96.3765
150.062
170.788
198.263
240.212
176.363
19.4535
-104.744
-113.548
-98.6481
-54.9168
28.7079
75.6064
127.266
149.325
149.08
107.422
66.7345
66.8595
41.1
-71.078
-81.63
15.6752
-0.511126
-122.509
-259.112
-271.564
-311.742
-316.907
-117.545
21.619
69.0814
121.096
179.788
232.534
238.942
217.304
227.306
239.532
200.549
178.566
117.59
-77.1629
-218.838
-257.002
-249.896
-143.623
-8.09341
103.148
65.3155
51.486
26.1036
-35.2205
-159.804
-208.971
-163.231
-100.759
-98.7408
-154.878
-118.973
1.73213
47.5898
92.9543
136.366
183.089
214.727
113.551
34.7422
-0.000857267
-30.9887
-31.1843
27.7052
80.31
96.9179
37.0018
-26.4578
-74.3338
-121.393
-100.38
-72.1334
-59.839
-43.7015
-19.8591
11.1507
33.5818
46.2806
62.0276
24.5207
6.01992
9.49974
32.2436
35.9339
27.2287
-8.18152
-20.7272
28.5846
59.3763
60.651
43.2338
-60.2511
-167.572
-182.004
-102.774
-6.05445
3.37123
61.9502
85.5496
96.8509
71.6093
58.1739
29.3003
22.7062
29.4782
29.7012
34.9865
8.61377
-30.8534
-34.8171
-36.7798
-7.73523
1.70393
22.6556
16.9895
-3.05219
26.414
9.88525
-22.5995
-44.0521
-81.0753
-89.6703
-117.297
-160.588
-163.642
-91.6708
-1.03869
71.2957
102.927
85.309
54.3311
22.7118
35.913
31.4733
12.1996
-6.70877
9.47562
-39.246
-130.039
16.0441
153.978
141.214
149.478
205.91
204.993
155.883
45.1722
-23.6204
-32.6732
13.0905
31.4537
2.70111
-71.6615
-173.244
-373.658
-454.652
-337.184
-136.998
58.8578
112.831
145.072
135.443
56.8892
-48.1378
-88.4529
-70.7359
19.6311
94.8447
73.9372
36.539
6.79781
-3.54298
7.29282
78.2171
205.409
259.227
176.225
69.4572
40.1371
-14.7274
-74.3408
-93.0514
-109.783
-114.481
-101.93
-56.741
-11.0476
21.5337
19.4499
2.38509
-4.86551
0.583081
26.325
-4.05423
14.1484
53.5538
79.5536
106.419
56.0112
-114.33
-228.96
-225.681
-166.755
-101.604
-55.7997
3.50801
42.206
1.86673
6.4257
51.4575
72.319
74.6403
75.5308
98.6594
136.911
109.953
47.7468
23.5206
-17.3985
-31.6888
-5.95112
0.710043
40.672
56.5867
46.7274
32.84
11.787
-4.04439
-17.2294
-17.3069
-38.123
-62.3598
-102.524
-131.281
-129.223
-41.2678
12.9935
-24.7476
-132.462
-135.888
-26.7179
75.9061
133.858
149.365
94.5822
65.1541
50.7085
27.9654
18.8305
-0.4551
-48.99
-67.0477
-37.8418
40.8739
109.684
74.3914
37.4336
48.6003
85.6269
112.11
60.1419
-16.2997
-88.1005
-129.04
-123.236
-179.738
-236.068
-155.411
-126.006
-131.328
-83.7832
-39.6926
-24.3917
-9.75423
67.7691
112.036
116.246
102.808
158.794
169.14
86.083
40.2118
38.0955
64.9926
91.0365
77.3676
84.7353
53.3953
45.783
55.4609
47.5454
50.5386
70.4078
32.323
-77.7555
-136.412
-148.273
-139.62
-99.8719
-36.4578
-6.07941
-33.1918
-35.5374
-49.6457
-45.0936
23.2829
62.6272
-10.2159
-106.621
-237.879
-275.923
-186.646
-75.9548
1.43408
66.1127
107.591
108.566
102.465
107.907
104.63
140.861
161.778
129.152
113.312
62.1454
-47.4575
-103.074
-147.85
-111.217
10.8657
109.429
92.1922
25.9308
1.14318
-7.60175
12.0024
36.8031
45.9388
68.023
42.7284
-13.0729
-35.1839
-101.949
-127.469
-34.8874
43.3094
52.6537
53.3587
1.16034
-67.6242
-79.8627
-81.7108
-87.3547
-60.2052
-56.4918
-56.6599
-66.1669
-83.8464
-82.9068
-44.1954
-11.4803
37.6501
51.4018
48.0078
37.4416
44.0023
61.4905
122.445
181.565
223.737
200.339
162.37
87.7793
-20.5796
-64.7967
-59.2879
-30.7076
8.85548
-0.260216
-59.5264
-133.601
-170.433
-138.988
-79.4122
-115.284
-133.139
-117.925
-66.6613
6.93736
85.2197
105.71
117.582
105.002
110.424
-3.14393
-126.683
-128.008
-54.0979
12.7533
56.0342
54.4626
41.5846
38.0813
7.35877
64.0982
115.404
33.2194
-67.6531
-100.613
-121.344
-87.4951
-55.3289
18.37
42.4666
106.104
150.498
125.879
73.7894
-0.484685
-40.8488
-22.3919
3.13087
36.5093
51.3695
36.8905
-12.1783
-14.3385
14.7882
3.82072
-1.56308
-17.7824
-53.3131
-66.5704
-58.0746
-47.5401
-41.7475
-67.7726
-73.645
-89.5973
-94.1306
11.2918
67.4039
14.095
-49.0884
-120.804
-109.22
-18.082
69.2935
131.234
123.368
103.002
101.017
78.0083
32.8749
37.6076
65.0881
34.3629
-5.81224
-4.93382
0.272692
-23.1211
-28.1172
64.4008
142.646
117.713
42.3564
-41.2828
-184.725
-233.646
-178.113
-153.928
-107.617
-33.0226
7.95526
-28.1424
-112.806
-80.4371
-55.2617
-46.2328
8.59628
75.3259
109.679
136.95
214.115
189.98
129.523
115.414
156.522
109.573
30.3198
-9.65907
-44.053
-98.6221
-121.031
-74.984
-31.5661
-17.8587
27.4107
65.9461
26.6437
-16.729
-64.2331
-127.476
-197.105
-92.0335
26.3309
36.5167
21.9219
11.1877
2.00036
-57.7899
-99.6253
-58.2196
-65.4019
-56.417
10.7847
50.6324
49.9978
45.9442
44.6059
30.3006
47.3619
85.612
91.6998
97.3252
79.4532
27.5968
-12.0904
-20.7693
-43.2786
-24.3488
-7.47521
-21.6112
16.4206
64.5254
34.8742
21.0204
2.73394
6.12905
-0.966346
-60.4621
-95.2474
-95.2147
-81.0871
-122.279
-96.2598
-52.3461
0.482247
24.2693
12.5391
41.6602
78.0293
111.54
142.66
161.725
157.104
62.1164
-33.0761
-97.0557
-111.157
-70.0381
-57.9783
-77.8886
-99.2767
-75.4103
-23.8902
60.1854
81.852
85.2685
100.911
33.8764
-76.1503
-191.758
-245.862
-221.614
-91.6149
45.3599
139.974
153.922
82.9661
4.45165
9.31358
53.1963
66.1842
51.7019
48.9454
26.1387
7.62759
30.6976
83.8659
151.386
202.463
237.502
178.211
84.8826
-10.9487
-102.081
-166.127
-124.868
-35.1904
8.22197
22.4381
-37.3884
-174.699
-228.204
-225.044
-188.409
-149.901
-120.27
-98.0901
-69.7972
-59.5473
-34.9738
-10.6778
-38.9499
-29.4144
7.9274
42.3416
57.36
82.2842
101.491
115.353
112.867
126.872
135.565
110.755
96.3091
137.137
109.077
63.737
36.0625
66.3221
79.432
93.2388
88.3899
49.8912
7.6867
-78.9398
-92.4029
-86.2226
-102.997
-125.378
-111.027
-51.2862
-2.4693
-56.4173
-87.7684
-129.253
-134.7
-110.622
-70.6915
-36.6998
-4.24314
13.1488
52.9846
59.3253
87.5524
104.332
-1.73549
-44.0322
-27.6778
-37.4313
-24.3269
1.08231
38.9526
123.36
101.134
82.006
95.6778
-10.859
-163.701
-232.706
-137.523
9.20261
101.129
152.584
220.873
237.146
157.782
23.1748
-71.5971
-99.2712
-98.736
-68.2526
-30.803
-48.9137
-65.8544
-98.4278
-167.11
-110.43
30.4098
110.541
81.5763
40.8202
-16.0748
-71.7491
-136.267
-125.416
6.3476
130.487
176.377
153.737
113.462
87.5324
48.3281
-4.28607
-24.2635
-8.97518
40.1447
75.5091
64.3507
58.8391
14.195
-63.9315
-120.867
-153.687
-161.632
-163.568
-137.233
-77.8816
-26.4782
-3.63607
9.57886
14.8608
3.19501
10.5534
33.5051
84.0813
133.819
74.4223
5.16921
-36.8724
-59.4096
-37.5946
-10.0733
44.9964
66.511
83.4429
77.653
34.4293
21.7396
23.4044
24.4435
7.55318
-28.5454
-35.046
-26.1505
-42.5377
-39.3566
-5.94938
40.5633
43.4992
-2.77819
-52.8337
-87.9956
-108.69
-131.389
-106.289
-58.8839
12.5057
69.3804
108.584
99.3981
86.4798
66.39
39.8602
7.15447
-22.748
-54.4069
-35.7981
8.08719
58.6536
106.741
121.486
125.88
88.4405
28.6375
28.1963
12.0639
-40.0581
-84.3019
-133.188
-130.657
-120.933
-106.175
-101.243
-76.2111
-6.05656
53.9279
83.401
23.165
-53.1281
-71.1304
-57.4863
-51.5934
-6.57541
54.5365
65.1102
50.7951
41.7582
5.57659
-12.0483
-47.8134
-25.1373
42.7009
78.9745
3.285
-60.4539
-45.4784
19.0203
96.0707
119.62
98.617
94.1716
43.8934
13.1495
1.19214
-2.56208
-26.0539
-55.4269
-46.5559
-23.1344
-33.8538
-15.0223
-20.9087
2.92555
102.871
116.451
76.2649
18.3013
-0.911738
-87.2196
-196.751
-272.547
-223.41
-122.473
-14.2653
34.3815
59.0755
64.4285
62.0125
112.23
156.833
138.193
125.652
115.228
51.9188
-4.05239
-99.9304
-176.513
-200.622
-132.801
-44.4667
17.3228
66.5002
55.6082
14.0494
-25.723
-8.43618
47.5398
77.276
-0.219722
-62.5314
-57.9794
-5.37132
2.61273
58.8149
114.607
149.374
127.515
67.3707
45.2032
39.3264
31.8295
6.84096
-58.78
-90.0076
-99.1736
-92.5008
-79.2187
-99.4001
-116.175
-110.722
-69.4476
-82.9475
-73.2503
-52.7726
-50.162
-22.9491
51.3048
78.6887
75.3006
126.419
139.639
106.258
79.9498
42.2961
19.5592
-13.1756
-34.8783
34.8397
102.761
107.162
61.4773
26.2887
10.5016
-3.11374
-32.593
-56.0531
-46.0455
-25.6505
-10.2281
-17.9659
22.9746
63.9594
51.8447
37.9113
38.537
-13.8522
-129.446
-223.534
-276.935
-275.611
-231.479
-152.119
-64.0968
33.3068
101.677
127.317
115.808
123.03
131.018
75.4119
56.5167
36.0797
36.1988
47.4083
50.3463
92.9716
161.042
151.436
119.547
94.8559
36.2726
-20.5986
-76.1986
-81.4787
-32.207
10.2036
-35.0192
-85.1517
-104.774
-84.2752
-108.043
-161.458
-161.395
-103.14
-64.3424
-25.5358
-2.59719
15.1461
61.9161
120.717
155.277
174.449
122.025
20.962
-40.2336
-48.7403
-27.0253
-16.6018
3.67972
-5.11024
-72.6733
-48.0198
0.960138
2.66471
-1.90294
6.83064
12.4199
30.1756
28.562
0.869883
-29.3803
-88.5378
-79.1861
-27.3465
-22.7823
-53.7152
-16.7491
21.8028
26.363
55.3244
80.4745
86.2946
81.5366
77.5806
66.4287
36.7298
19.029
10.171
5.10101
7.58594
-3.22402
-14.1724
39.8911
26.4001
-15.3061
-48.7548
-26.2466
-29.905
-53.1277
-33.7658
12.0391
19.2704
-45.6231
-141.916
-154.799
-127.184
-87.8974
-22.8475
41.7662
96.1657
95.6662
52.3163
35.1055
27.2179
47.1003
59.389
25.3918
18.01
66.1709
-14.7217
-68.6253
-81.8535
-65.6803
-18.961
15.1577
45.1968
59.6918
36.3483
2.05898
-16.1512
-3.61216
29.4361
14.216
-24.9682
-33.374
3.98303
-29.3322
-27.3648
-19.7355
28.9111
73.0106
80.4969
50.195
29.6223
-30.8443
-101.645
-108.793
-91.8202
-27.2509
17.8827
32.4708
61.5162
66.0707
94.3042
80.2155
7.09908
-35.5646
-59.9643
-88.2037
-95.3128
-125.458
-83.8673
22.4344
72.031
76.2135
76.3173
60.092
22.9612
24.6781
43.7693
3.46302
-51.0535
-88.3363
-82.4921
-28.8144
54.4318
127.225
151.516
92.538
-8.4052
-2.86595
1.24802
-12.3622
-15.7785
4.88473
-7.29015
-14.5753
-36.1655
-123.716
-164.684
-139.724
-81.8738
-49.8829
-4.72972
41.6646
23.7917
-7.98002
-63.031
-82.0017
10.8809
70.5512
86.9089
82.7384
62.2626
68.6193
74.0597
39.6852
28.8672
41.56
51.6308
99.6627
147.798
176.876
111.363
24.9213
-29.8038
-84.6278
-128.434
-144.322
-191.147
-196.303
-135.165
-97.9374
-54.4396
-21.1778
72.8606
164.231
142.336
78.7364
1.33063
-35.5591
-77.1828
-104.031
-102.962
-81.6328
-31.8526
17.8349
35.8033
64.0555
99.4514
102.394
62.3757
42.3168
35.637
45.2899
14.9812
-39.4067
-57.1817
-58.0302
-52.0134
-69.9403
-62.8891
-52.1142
-32.4668
-27.3212
-1.56066
61.7868
105.006
127.273
146.252
118.185
9.74127
-46.8181
-40.534
-58.7069
-72.8638
-68.2318
-18.2192
42.6491
84.4819
57.2064
16.104
-25.3137
-60.1425
-68.3959
-57.1211
-53.5188
-31.1422
-17.7943
-13.5488
4.13247
32.94
21.4305
14.7004
19.665
16.4716
15.285
-18.0499
7.01301
28.5225
51.7845
43.288
35.8188
30.7713
5.27564
-93.5582
-101.251
-36.3816
28.096
59.4366
28.6952
19.5034
51.1335
7.88424
-47.5391
-101.529
-110.363
-41.9608
-10.1226
18.3707
68.8758
62.6053
24.9866
-3.56375
-16.0741
-21.8704
-28.3441
-37.0378
-43.8477
-26.4961
-18.3136
12.0814
36.5998
61.183
94.4471
114.33
87.1854
10.9012
-58.3625
-88.8035
-105.49
-70.3068
-12.8186
15.2451
42.2877
51.1446
-29.7434
-39.2989
-2.0197
24.983
56.3368
69.4
71.3312
60.1984
20.0912
18.4384
-19.8163
-6.5595
14.7533
3.89325
11.269
39.0148
35.603
-16.5986
-103.777
-146.86
-142.099
-143.842
-141.234
-81.565
-17.8225
-15.389
-14.3408
8.1789
25.8694
40.9689
87.6336
87.4547
62.1579
61.4213
40.0274
1.15762
36.4654
84.449
125.775
185.12
207.007
155.761
72.9564
-30.7149
-79.9055
-103.387
-155.982
-178
-145.251
-116.269
-72.0066
-43.4859
-18.7274
-37.8333
-47.0161
-8.54834
18.5849
44.5756
47.4978
27.2309
-22.0249
-30.8973
-22.5893
5.07822
16.2077
44.1595
66.5826
34.4682
-37.8589
-40.6174
-13.6247
22.677
27.6816
50.5432
94.0773
52.3736
17.3034
-6.43499
-37.4617
-67.8607
-76.6203
-83.6498
-59.7757
-21.1442
-4.20537
17.803
32.8213
61.6883
101.628
82.8089
43.3549
26.5569
15.8426
-18.0863
-50.5532
-35.5691
-28.8611
1.50077
45.6514
73.7387
113.149
104.309
44.9012
-17.2786
-44.8528
-75.2846
-57.9896
-17.106
-18.6578
-37.7856
-55.0198
-57.3537
-70.4764
-120.443
-159.771
-172.615
-119.707
-56.1159
-90.6082
-36.8836
61.5261
152.421
217.872
249.368
211.189
113.535
64.7654
39.59
29.6281
13.6963
-3.05296
-19.4611
-6.09046
46.488
44.5111
-62.8241
-132.045
-97.1961
-12.5985
-18.5952
-59.184
-81.474
-87.095
-119.702
-81.4685
-18.9103
6.43174
26.7498
26.9098
2.19046
-1.44461
-22.4238
-3.4475
33.8297
104.523
166.996
152.666
92.5845
81.7272
7.23882
-13.7244
-18.1964
-55.5012
-68.7589
-67.1856
-43.9643
-35.2555
-68.3318
-64.5554
-45.7127
0.358255
60.8939
73.7483
96.718
115.172
86.8004
-2.8074
-96.6369
-142.619
-104.612
-46.5454
-20.8361
-10.7318
-1.70863
33.037
8.2483
27.8075
74.6499
101.812
112.457
56.5509
-2.37888
-73.6107
-165.198
-273.04
-250.382
-104.134
68.9402
148.297
142.177
127.564
112.223
61.4449
30.6164
-7.26473
27.6661
40.043
37.8611
73.8633
56.3761
-13.3783
-67.8846
-54.5482
-48.0056
-38.7877
-4.49573
-0.620244
-27.9269
-25.1492
22.0949
29.5963
13.9183
17.0465
-1.20968
-45.7026
-99.6648
-150.844
-130.386
-119.473
-69.5558
-14.7746
-12.8421
-35.1633
33.6946
131.224
181.329
135.063
61.72
27.6413
58.4184
62.2419
40.8338
59.909
52.7423
32.0854
19.6584
-11.322
-70.7325
-97.5614
-93.7974
-60.2388
-31.361
14.8511
11.6192
9.85386
29.488
47.17
84.8394
77.9648
14.9832
-66.9545
-60.4576
-18.81
1.19574
11.1096
52.6251
48.3177
-22.6939
-67.5074
-72.0649
-77.6309
-39.7198
-7.63841
-45.9022
-159.191
-202.881
-188.269
-102.096
17.7015
88.9445
119.799
131.023
144.053
163.881
118.897
66.1942
-10.839
30.6529
78.789
108.823
99.4126
26.6274
-49.082
-64.6446
-51.9195
-23.3844
-8.14968
-40.368
-57.0728
-42.4673
-23.2046
-70.4941
-129.175
-157.18
-118.342
-45.2855
43.2706
94.8175
117.913
71.6802
65.0027
97.6884
128.436
141.788
149.575
87.2462
30.9461
-84.4694
-206.271
-241.576
-194.016
-136.805
-97.6262
-32.8017
45.4656
68.0029
80.2175
66.3475
25.7931
22.1679
36.7385
41.054
47.7736
58.5605
72.5076
60.0952
31.147
33.4362
26.5616
-4.33414
-36.3689
-40.9164
-58.5443
-67.1153
-110.291
-112.537
-62.8042
6.70469
35.2167
-8.00973
-46.3243
-58.869
-118.926
-131.362
-43.0343
60.1347
157.514
211.224
195.014
146.457
61.9037
-54.8968
-56.4845
-18.4371
17.542
33.3166
25.2944
-0.831492
-66.8412
-73.9914
-45.0537
-6.66083
24.1897
44.5632
26.059
5.40698
-34.2604
-59.3871
-34.4589
-6.10137
16.2399
61.5569
64.884
32.9021
-5.43657
-49.7349
-74.4959
-85.7803
-53.2551
2.72932
38.9522
48.807
46.6016
-9.60051
-63.055
-50.4118
-52.8965
-100.713
-87.4353
-17.9528
20.417
65.0518
56.8286
40.5653
29.5808
22.6855
31.9238
36.4548
34.8863
21.7756
12.2734
7.32675
31.7854
42.1761
29.1108
-27.5855
-58.9625
-10.6631
16.6888
19.2263
27.7413
32.0753
46.8875
34.6128
24.257
39.1449
-18.7293
-83.8625
-92.8644
-95.1032
-85.4486
-58.0002
-0.349714
65.6487
94.17
144.113
85.5789
3.40151
-21.7745
-18.8335
-40.6292
-111.601
-177.354
-191.592
-133.067
-141.125
-105.856
-38.6419
27.5776
59.8113
68.993
92.3244
133.042
138.766
117.528
79.7496
98.9421
129.631
110.299
62.0009
44.1718
65.979
95.692
95.0592
65.7717
52.561
25.486
-28.6133
-63.3198
-86.208
-119.989
-138.781
-183.197
-208.833
-167.411
-140.616
-90.6229
-74.8327
-78.7556
-53.8663
-30.2209
15.3435
61.4138
77.8159
67.402
68.9124
53.4812
52.8375
77.3472
96.9887
46.1855
-18.3965
-35.6098
-41.0384
-50.0738
-47.3327
33.7992
98.2108
142.649
149.463
130.361
77.7139
17.4925
-33.7134
-48.7037
-45.8071
-37.5501
-65.296
-114.869
-92.5792
-19.0817
-22.9133
-25.5673
-13.9837
-0.0376344
4.0287
-11.7845
-2.96439
2.189
-7.62527
-17.6789
-16.4276
-3.43036
24.8407
28.732
29.8597
68.8704
110.498
45.8501
-28.7685
-26.8019
36.7673
51.2408
53.6041
21.0528
-7.73219
-21.7042
-48.6032
-91.9641
-167.381
-162.558
-95.0872
-12.9528
103.372
128.297
70.2544
24.5926
-35.4107
-39.6512
1.1962
13.1944
-10.3423
-24.9019
2.78542
30.7663
12.9086
-13.1714
-19.2477
-17.1153
15.0352
54.466
75.4438
58.5377
-19.7327
-46.4486
-30.2627
-29.545
-7.90619
26.3756
48.749
16.4986
27.2941
27.4486
4.7265
-9.85622
1.49828
4.83433
22.0851
52.1251
18.0559
-4.5929
-41.1569
-110.568
-149.294
-133.731
-69.6082
-10.7921
27.9638
38.617
-22.475
-0.613606
41.8156
74.6747
92.0807
100.699
111.923
78.3439
-13.0305
-48.9581
-29.0793
-29.465
-27.6454
-15.33
-3.25995
15.206
8.84138
-2.35341
-12.0129
2.03338
26.811
21.7821
10.8369
-11.6978
-43.7832
-33.4076
-49.0688
-49.6991
-40.7009
-72.8318
-79.8666
-117.115
-144.032
-61.3604
20.5051
76.4405
156.984
242.084
291.177
234.107
156.876
104.64
44.1861
-66.0382
-120.722
-164.587
-192.572
-188.113
-119.328
-47.0632
6.18496
59.6847
84.9955
92.4689
33.7172
-41.3036
-130.325
-186.92
-180.866
-114.728
-50.7706
-37.287
-55.9544
33.3158
128.538
109.23
91.8655
55.2169
-34.5685
-3.3579
105.879
157.478
127.941
82.0047
91.0362
78.9703
31.6374
-0.693768
-30.1457
-25.5677
-32.8753
-32.8522
-13.1608
-37.9765
-53.9588
-16.2188
5.1373
36.1084
97.1964
82.0944
-10.5946
-33.3523
8.21678
-40.9147
-108.056
-139.818
-111.555
-76.9224
-62.4727
-52.0293
-13.3997
9.12258
8.9317
36.1118
45.3346
40.9254
15.2224
-3.50334
-5.69924
-24.382
-27.2808
-21.6155
-11.948
15.5004
49.7826
69.825
51.7013
24.4529
4.11237
-48.6991
-32.0334
27.6896
70.492
49.8028
-27.7524
-101.297
-71.179
-4.31677
62.489
109.894
124.997
74.9622
0.347438
-41.1458
-21.0303
-53.3266
-55.2932
-51.2452
-48.7772
-9.59059
26.3448
29.0675
-10.316
-40.063
-4.05626
26.1579
16.1234
14.071
10.8104
-15.1827
-26.8055
-2.61493
52.059
102.707
85.3539
49.9388
-12.9619
-74.7385
-137.103
-132.865
-201.798
-191.739
-96.1259
-4.01782
40.3194
105.561
147.404
141.517
99.1806
78.6353
69.2363
55.8729
32.069
4.94765
-5.64712
14.9706
23.0108
15.3346
21.9013
14.3532
42.474
38.9685
24.6886
-11.0042
-48.257
-70.9928
-83.0878
-72.1561
-22.4892
-12.9602
-42.1827
-71.4269
-109.717
-169.454
-152.507
-58.0292
4.48071
59.1461
109.831
120.558
118.721
89.8506
58.8427
25.4797
13.6728
43.7589
43.936
-42.3246
-136.299
-141.841
-64.0873
-1.26033
42.9118
75.7407
65.7989
36.5394
45.8064
56.934
43.6401
35.7484
38.9329
18.6797
-4.74061
13.5517
-1.36933
-52.2771
-77.1057
-82.4661
-75.5382
-90.4458
-102.646
-55.0141
-0.968379
51.6629
85.0806
118.536
142.477
118.236
64.0493
-10.5525
-71.2292
-34.3016
3.39815
-26.2025
-49.6603
-81.9038
-60.2089
-58.1661
-70.4544
2.16798
63.9514
44.8
33.059
37.3683
40.3703
12.5952
-10.3715
34.1996
51.2157
14.8628
-12.4926
-76.1722
-111.289
-45.9356
36.8559
60.4501
48.3633
85.4882
132.656
42.7586
-49.9861
-92.8304
-72.2155
-48.5483
-57.4955
-101.033
-157.467
-217.512
-141.964
-30.8643
37.9353
87.3694
111.48
130.511
131.929
91.291
75.2274
55.6227
42.6619
82.7518
87.1775
62.6999
39.4662
-8.89124
-62.0481
-65.7421
-30.998
-1.31348
-5.55877
-4.46257
15.527
9.83851
-9.55005
-41.7983
-79.5407
-42.9352
-23.3484
-16.2006
-11.1702
-68.1859
-41.5689
16.5496
44.5197
90.2769
90.353
6.16655
-114.223
-197.969
-174.468
-75.4187
-35.152
3.97007
62.9554
108.34
113.402
93.8204
70.6745
42.8595
41.1324
81.0274
68.696
42.9488
-16.6771
-106.485
-92.4126
7.75296
57.5906
73.4981
49.6114
-3.86466
-20.7231
-47.2002
-63.4585
-69.0173
-63.3363
-34.5384
0.761726
40.604
37.3668
51.8434
18.7924
-68.4892
-130.323
-125.327
-66.8822
-12.5852
66.7957
127.27
110.834
54.0069
63.2202
68.7491
49.6167
9.0465
-22.2181
-20.7875
-27.0259
-32.1689
-51.6078
-102.652
-95.624
-44.6853
24.5159
27.101
-30.4767
-26.2061
20.0878
20.3607
33.1491
44.2855
-0.542495
-35.6628
-60.1036
-74.4803
-32.3576
15.7618
31.4167
34.9934
25.2845
8.10819
-41.4244
-18.2808
33.3309
69.5091
111.456
120.303
98.2427
101.029
102.906
123.413
102.318
47.9522
-43.8757
-101.856
-140.546
-149.27
-137.364
-88.7059
-39.2926
-5.33957
-0.999326
-7.73146
-23.0375
-7.85819
-24.7321
-52.7215
-54.0804
-31.4388
-64.9223
-76.7035
-53.7399
-10.0973
48.1121
64.0128
63.4735
41.8874
-3.95416
-22.8733
7.04383
62.7717
111.363
121.916
39.4062
-52.8337
-130.592
-94.7606
-49.998
-45.6432
-13.243
24.6558
36.8851
41.7493
80.3972
104.286
78.5264
97.4303
100.783
61.6346
14.7816
-5.98179
-3.32562
-6.6555
21.1523
21.8119
43.8922
9.63434
-17.1062
-38.966
-58.6411
-65.6446
-70.8475
-114.156
-125.472
-91.0064
-35.7125
-13.8352
31.8649
51.1127
40.502
-42.6981
-127.798
-204.395
-224.574
-181.746
-94.5055
29.4927
121.466
154.838
156.917
121.666
88.4473
121.076
131.863
128.931
132.37
65.2862
22.6114
-6.31704
-54.542
-91.0228
-72.662
19.9208
116.644
159.963
141.446
78.2292
32.3197
38.503
12.0924
-65.9432
-129.284
-139.866
-141.637
-167.583
-185.595
-148.439
-100.994
-69.1959
-16.4769
61.8291
50.698
25.3677
-9.48847
-15.5978
-5.14752
-42.8554
-90.8914
-112.363
-67.8327
20.3963
89.9456
123.553
120.662
109.289
95.5972
68.3841
53.8621
72.8301
65.0046
62.9624
86.359
80.3249
75.4682
84.7243
94.4513
84.7799
0.482299
-91.9002
-180.242
-206.981
-193.688
-169.496
-117.86
-62.4773
-18.1193
-11.3802
-22.5212
-33.8904
-8.31113
11.1529
40.9478
52.7649
51.6311
63.7285
48.4001
37.5341
58.6635
84.6331
102.511
86.8604
74.3495
72.9112
-24.6987
-79.8138
-66.8161
-48.1197
-55.9656
-83.107
-102.83
-57.6265
-18.9177
-9.64513
4.05265
23.1137
-6.18859
-28.1846
-6.90456
8.51313
9.27005
13.2796
3.66612
-19.2531
12.6784
54.5957
54.4229
11.148
-2.65769
30.1746
35.4206
-54.2158
-60.5396
-8.03626
11.8594
25.8649
43.8555
23.8447
41.6149
56.9212
49.4988
39.964
-1.83858
-74.8368
-83.5182
-52.3189
-75.3197
-47.4723
12.0553
56.1926
50.9421
51.8895
40.1193
6.36313
-4.93653
-61.8112
-90.3034
-84.3192
-71.3616
-75.9459
-55.2556
-6.18056
45.8751
93.1705
103.507
64.1885
37.9164
27.4331
8.33046
-11.2852
-29.9041
-17.0481
-4.29334
-15.197
-26.3066
-9.65405
-0.730714
36.006
53.5986
23.4686
39.1818
75.0983
101.924
75.1639
35.6716
4.38803
1.49085
-20.128
-77.406
-112.768
-77.5178
-36.1657
-38.8728
-37.0373
-44.2764
-33.0916
-61.4776
-85.296
-91.5276
-43.1402
-14.7645
-39.5064
-39.515
24.0704
63.2345
121.776
149.578
183.461
176.999
116.481
39.8585
-8.87918
-52.4308
-53.6539
-34.5424
-14.4314
-41.4929
-93.1536
-77.2976
-29.1803
-8.13637
-40.6754
-37.131
-33.1274
-3.4624
16.1924
25.4124
-14.6686
-40.7869
-33.5145
-14.713
29.5681
34.0159
27.8044
35.962
17.8528
33.0845
67.6705
43.034
27.4776
26.013
26.3839
-17.2392
-62.8608
-94.2414
-125.649
-105.06
-67.3343
-4.38066
54.4591
93.504
94.2404
92.411
57.2637
23.7214
8.64739
11.5941
-2.36957
-16.9642
-14.6637
-21.6044
-42.2911
-19.0997
-7.20146
7.0771
14.6193
-3.33782
-6.11645
15.2852
43.9267
53.9454
4.71983
33.2768
49.394
16.4882
-16.2614
-15.8666
-19.5899
-10.3269
-41.2288
-73.0545
-39.3521
-34.1075
-34.8703
-45.05
-71.9171
-70.0349
-55.0128
-31.628
-2.93369
-7.41509
-1.62642
-25.056
-12.1727
-4.97245
-15.5907
8.69182
31.2081
16.8687
51.6548
135.523
123.431
66.1084
74.8585
78.2965
56.902
-48.7473
-53.3269
-12.8143
2.15402
30.0983
80.0878
131.013
114.421
78.0263
13.4631
-14.8396
-38.7004
-54.9079
-75.5328
-122.815
-117.226
-101.364
-149.175
-180.527
-157.446
-46.7731
-0.102239
-11.8193
-15.6128
-10.2204
-26.4134
-22.7674
-0.71215
36.653
69.6681
68.0985
59.6901
79.7025
85.9564
104.184
69.7738
70.5718
90.1456
103.907
113.629
118.143
99.7457
44.1022
14.601
-11.6609
-39.3322
-103.826
-152.381
-178.981
-153.779
-97.0245
-63.7558
-64.0387
-67.3066
-80.6883
-19.1899
29.8324
76.3462
123.475
73.2775
30.2848
44.3588
41.2994
-23.1174
-47.4392
-48.8702
-59.0431
-63.2545
-25.912
30.5155
34.7328
62.491
92.2931
90.6416
92.6762
74.1528
-11.4832
-133.976
-212.68
-188.607
-108.244
-58.8924
-31.7591
1.45499
53.2384
60.1258
87.8968
111.839
96.7274
91.0116
103.487
88.0985
49.4765
38.1384
34.6304
23.8698
-3.66101
2.46036
43.4071
65.9813
66.7143
31.5733
-14.436
-68.3049
-127.892
-124.781
-116.915
-121.948
-103.371
-41.7291
-4.78016
-28.1792
-44.3104
-59.868
-93.0474
-100.661
-27.7151
85.7397
129.571
115.257
49.2929
-18.6053
-16.3252
-12.9304
-69.98
-118.037
-84.8856
-51.8365
-19.3765
40.5336
74.9749
100.621
79.1066
48.3973
37.8313
73.8759
153.718
143.876
96.6263
64.1412
41.2511
38.7327
22.4673
12.3302
55.4868
69.4055
56.3217
65.1828
54.4298
-45.5631
-157.175
-169.11
-139.904
-109.664
-71.0599
-65.6974
-67.7561
-72.5712
-80.0402
-76.7587
-96.8863
-104.331
-92.0594
-72.9876
-54.6044
11.9032
22.4599
29.573
34.0878
27.7156
53.8158
94.8981
132.282
144.423
130.644
92.9876
12.542
-59.5584
-72.8869
-17.8672
23.8801
-6.36937
-4.17759
18.7538
30.2773
58.5627
92.4759
78.2286
54.1221
94.5646
96.0964
46.9066
-2.62784
-58.5521
-129.73
-138.054
-106.373
-59.1574
-38.4979
-35.7781
-67.7783
-96.6556
-103.653
-93.8709
-26.0914
-4.35734
-9.48272
32.6307
96.1578
109.775
77.9666
60.6634
36.5594
-24.2455
19.4585
71.8974
85.4368
73.9241
82.4786
71.1952
67.0257
64.5922
-7.54751
-46.7228
-52.4509
-50.9502
-61.7544
-87.9918
-132.137
-177.951
-192.014
-162.841
-95.4472
2.30519
14.7959
-15.3773
-19.3495
-32.8475
-72.3765
-62.0403
4.68753
126.417
198.978
215.033
198.337
178.217
177.721
143.921
65.8994
31.144
11.3377
-20.5308
-30.0245
-26.57
-98.0631
-101.814
-78.4289
-31.5147
23.2499
27.1556
6.31435
-7.92494
13.1535
23.4104
-8.91261
-110.965
-168.233
-163.899
-111.832
-92.36
-63.1352
-44.0922
-17.7751
12.1022
34.4513
43.8158
33.2202
39.3425
37.3308
7.08103
9.04716
29.1877
22.5602
10.7657
2.89215
10.5154
6.84065
26.1811
40.7935
38.0854
62.1771
103.788
81.7989
67.9496
41.8166
-22.294
-65.1253
-40.8729
61.8237
61.1045
8.08477
-16.2319
-24.8295
-11.7741
0.92704
13.2261
2.97656
-11.2355
-22.3844
-40.5783
-62.1428
-58.1036
-62.2026
-74.282
-4.65466
43.9832
38.4658
-3.09984
-53.7968
-40.8442
-49.6487
-55.6154
-21.254
-49.2589
-46.2935
10.2821
2.77061
-26.3553
-13.7416
32.7217
96.2733
107.001
97.4605
62.0734
24.3032
-34.0658
-51.5701
20.061
39.449
19.251
44.8039
96.3368
129.191
167.514
105.046
6.79428
-55.6425
-108.988
-173.58
-218.392
-186.826
-157.163
-146.437
-87.2504
-49.1884
15.5322
81.0349
77.2748
70.5418
113.327
86.8943
19.5722
11.6682
16.8963
12.5345
-14.2717
-19.0268
20.8231
31.4578
49.5326
48.2155
60.6281
80.8809
72.5199
62.8841
25.4081
22.7761
22.6937
-11.2079
-51.7671
-89.927
-193.707
-327.389
-282.908
-107.053
82.6662
157.478
143.559
173.338
136.035
69.2701
21.6534
32.0246
99.5929
131.473
150.984
138.277
98.5071
65.6155
13.0019
-50.1078
-90.2882
-150.85
-231.845
-283.91
-326.846
-289.83
-157.831
-32.2502
49.0607
55.7314
41.5796
14.4855
-28.236
-7.86658
19.4023
41.6239
38.7432
-16.4799
-1.31663
37.3259
85.9948
112.642
86.4588
74.4969
130.325
160.75
63.4026
-119.013
-98.2222
50.8821
157.29
184.009
166.635
86.0034
17.9859
-34.5291
-97.9272
-117.55
-190.943
-188.002
-140.303
-8.36016
120.017
224.68
347.425
410.104
328.67
208.513
14.5195
-193.809
-331.798
-360.169
-296.041
-197.01
-185.885
-205.8
-224.79
-274.366
-328.918
-191.741
11.8255
120.748
110.465
11.4239
-89.2804
-71.4995
34.3299
131.347
179.296
159.746
82.753
13.0858
-123.539
-126.369
1.73345
56.1695
144.049
325.614
500.383
526.784
397.796
355.175
294.97
146.904
-19.8536
-169.848
-273.591
-336.297
-305.449
-201.89
-168.032
-136.121
-40.7148
-38.0201
-38.4639
-14.8342
-37.2152
-86.3091
-111.231
-127.52
-121.38
-119.288
-43.0855
67.489
109.462
28.0594
-77.4141
-62.5578
-3.79167
-33.5564
-7.29158
16.5326
-65.4905
-143.417
-135.446
-62.7218
-8.41129
26.7456
79.1023
74.2303
114.73
89.4021
47.693
2.65744
5.16997
73.8156
171.301
200.744
153.034
167.624
178.129
168.969
146.473
112.507
42.2909
-7.69573
-26.8804
-51.655
-80.3924
-124.556
-171.623
-209.344
-187.316
-111.757
-104.146
-103.944
-74.3945
-19.1871
21.2729
36.2047
33.7936
-56.097
-37.2285
79.3594
144.51
109.749
76.6528
47.6708
55.367
85.5289
70.6696
1.43216
-158.681
-259.566
-250.63
-187.501
-107.766
-33.9707
16.2641
35.5821
18.4484
71.333
85.6006
52.4322
-2.22825
-27.4831
24.4007
78.6986
103.811
74.591
27.7167
-28.0544
-57.3121
-28.9308
39.6678
111.734
164.394
120.315
32.3525
-35.5582
5.73463
63.8715
104.349
67.3988
32.6266
34.3571
2.50071
-114.567
-224.868
-318.004
-292.574
-140.042
45.5132
156.276
183.84
152.058
101.954
70.4913
34.7779
9.47211
-18.1739
-37.5089
-64.6466
-68.772
-37.2927
-20.6156
-62.0767
-106.497
-102.667
-66.0386
-97.3399
-123.54
-52.8118
32.2182
58.646
52.4255
77.8142
102.72
168.379
188.068
106.712
98.6263
45.9091
-24.7146
-84.7769
-112.217
-109.648
-59.4582
49.9461
110.66
75.4353
27.6721
24.8531
57.5059
109.422
122.41
78.7845
4.92872
-57.0794
-133.323
-228.163
-319.588
-272.309
-169.288
-54.4915
11.8397
32.1573
80.209
64.2041
65.9188
105.979
59.0446
-17.8162
-64.5069
-68.639
-42.5416
1.03579
83.1628
132.315
215.107
345.214
279.448
129.814
2.58372
-77.6414
-94.3694
-86.9981
-64.5402
-79.794
-73.9642
-76.9823
-19.2124
-12.8227
-72.9574
-120.908
-142.952
-185.186
-206.388
-198.913
-156.154
-50.8821
69.0783
202.628
276.027
300.393
219.788
70.244
22.4128
73.6228
119.872
151.356
139.287
41.1609
-43.5419
-148.317
-241.063
-227.694
-178.765
-102.989
-45.1139
-57.8706
-33.0161
-20.9946
9.81428
25.1742
44.7607
188.922
220.18
91.6939
-81.97
-153.357
-96.2555
-38.8599
-76.7352
-54.1304
-1.08408
56.7955
104.932
85.6647
20.4845
9.52553
32.0329
-43.9934
-82.4933
-75.7037
-50.7158
-58.7016
-89.0908
-65.3986
80.9199
194.755
204.1
214.337
189.27
129.968
99.2523
16.532
-54.4956
-112.393
-187.529
-181.654
-140.527
-48.9562
-19.8486
-65.8558
-80.88
-48.3137
7.0112
68.3126
36.2191
-24.404
-70.5127
-92.7316
-75.495
-56.7226
-24.3246
11.5172
93.2969
260.367
392.499
292.293
108.904
-23.9861
-62.8057
-11.9548
-25.7087
-97.2879
-96.318
-63.7912
-47.9941
-45.0212
-62.0635
-74.7237
-70.976
-96.8781
-98.5296
-85.5743
-108.645
-171.969
-186.243
-116.113
-36.0748
3.06715
33.4516
24.5753
85.9876
156.706
174.508
180.247
196.841
149.67
119.86
92.7444
89.5394
86.904
65.9553
65.1682
82.7102
31.135
-73.6464
-132.764
-108.888
-67.4388
-94.9869
-104.163
-58.2427
-46.7634
-56.2122
-106.339
-124.017
-63.2285
-10.5484
20.5683
23.9198
10.1661
9.62966
55.5269
63.0026
45.6429
27.2379
14.0286
67.8615
159.897
141.213
16.0572
-45.0816
-27.752
1.55954
42.4665
34.0572
-35.7448
-76.6777
-64.4009
-56.3281
-45.5678
-53.8703
-105.823
-151.713
-165.716
-115.315
-19.1797
43.7954
-32.7838
-105.427
-136.142
-97.071
-12.6862
90.6743
182.813
179.88
171.555
222.737
266.23
295.626
217.382
58.1355
-33.1937
-89.1775
-121.032
-98.2878
-54.0382
-49.5387
-30.0358
-14.8456
48.5998
51.3484
-66.3472
-149.606
-180.818
-128.372
-72.3453
-104.191
-155.668
-155.924
-51.9735
20.0561
55.0556
103.904
124.088
103.595
63.2274
20.0165
35.5788
67.0881
80.6529
56.3303
86.2134
74.4728
17.9379
9.97291
33.8048
9.12414
-33.4844
-69.7232
-87.5807
-53.9322
-30.1988
-10.2982
40.9146
75.8748
34.2582
-24.2685
-28.2516
28.0969
63.5492
21.7789
-29.1264
-107.303
-112.263
-30.6241
-77.4574
-94.4215
-79.8056
-24.7506
31.229
60.5021
37.956
53.1344
60.2895
-0.799576
-67.4829
-83.2606
-76.4069
-16.5993
51.3301
53.2191
-11.2605
24.7804
130.298
115.302
16.0609
-43.3185
-41.8296
29.0162
76.8647
65.7543
58.7651
26.6555
1.55989
15.2182
59.2419
55.5555
-23.575
-124.274
-156.224
-84.5509
8.12619
59.0273
45.7189
18.6229
26.25
-7.46451
-66.6147
-65.058
-56.1721
-59.6712
-38.8688
-16.7175
-33.2175
-78.9259
-92.248
-38.9698
24.8114
52.4183
58.0848
52.6097
63.4881
62.9862
16.2017
-26.624
6.40306
38.9275
38.6416
28.5343
28.6748
50.9339
58.3535
-0.560392
-59.9409
-36.249
17.8654
68.2424
91.1228
87.702
69.3902
44.0064
-11.1879
-81.2591
-86.191
-14.3149
37.1436
19.0174
-13.6461
-68.7085
-114.422
-93.9225
-60.9768
-19.7535
3.29104
-5.21401
-30.0578
-51.6984
-30.2005
-16.9357
-23.6345
-33.0996
-16.4719
28.1817
48.5997
4.00958
-40.1188
-61.0688
-36.8258
-15.3329
10.6834
37.4152
82.4532
129.016
107.466
74.6093
26.7651
17.4589
39.9463
40.1851
52.9369
72.6636
157.032
143.725
-5.44486
-174.723
-206.837
-123.765
-32.9047
15.9057
15.4328
-13.1628
-34.1922
-69.885
-121.541
-120.807
-76.8428
-62.4305
-30.3731
-9.34407
-9.71776
19.2792
4.91109
36.264
167.834
305.994
286.368
203.736
36.778
-131.486
-201.89
-191.496
-143.697
-72.9125
14.1798
46.1345
35.7381
-19.6097
-86.5079
-103.873
-82.9469
-38.6505
-26.7793
2.37594
74.8708
79.849
13.0069
1.40746
46.251
89.699
137.001
136.282
85.3581
34.4504
42.6508
27.9418
-14.5877
-49.3859
-50.5363
-19.2156
-9.91707
-51.8741
-59.7546
-38.391
-31.3566
-39.8569
-53.8232
-80.7471
-118.813
-100.455
-56.1605
30.1643
93.2527
119.147
123.496
104.108
125.575
125.237
-14.0019
-135.777
-100.178
-29.9219
4.43188
-41.2575
-102.774
-95.8347
-54.3561
1.49377
62.6503
75.7202
43.1602
17.0639
-12.166
-26.8192
-45.2733
-102.188
-121.392
-56.7985
56.9107
122.433
159.884
175.076
88.2111
18.9208
-24.7353
-60.7
-13.791
6.19234
8.48431
18.2808
30.5697
-5.58552
-44.0293
-105.782
-112.237
-33.2358
-7.31462
-24.7846
-8.55785
-18.0975
-42.3008
-46.5127
-8.86993
22.6713
60.3783
114.958
90.7928
44.4244
38.8994
18.142
35.6907
80.5214
95.0113
53.1611
14.1526
-0.462152
-9.60517
-23.7053
-37.8502
-11.9266
-50.0829
-120.15
-135.236
-119.941
-118.728
-81.085
-51.0093
-58.3173
-43.6779
-29.4468
-41.9825
-52.1139
-6.18263
62.3449
111.238
88.7153
125.717
158.39
137.622
106.815
58.1408
36.0013
12.1127
-112.841
-143.743
-86.1002
16.9319
102.726
93.2346
102.501
89.2433
33.1681
-27.9586
-51.0533
-61.0554
-19.8105
-5.04159
-10.6224
-44.1881
-54.9033
-79.6196
-147.443
-148.73
-44.8117
22.6541
61.509
100.485
111.012
70.8381
-22.3756
-126.897
-192.111
-183.742
-133.369
-73.1484
-32.8654
38.8089
103.305
187.879
237.64
271.58
283.325
181.652
78.5437
9.39804
-59.344
-140.511
-191.368
-200.39
-150.955
-62.9414
14.6752
57.4965
87.0249
78.9698
89.7323
-4.40107
-124.975
-175.447
-181.176
-162.547
-151.846
-75.3945
83.3855
213.142
223.323
158.144
88.1485
89.6521
93.7864
50.3635
42.7135
-2.41092
-41.2867
-66.9135
-92.3727
-100.838
-73.0883
-64.0817
-45.5975
-31.3887
-6.76628
-8.4915
-30.7779
-80.5032
-97.2266
-56.4872
0.213987
7.08383
43.387
91.9895
94.58
86.9967
83.9604
75.3708
35.2959
-38.9915
-75.5387
-42.3898
1.17665
45.6986
132.574
218.173
196.023
108.217
25.9104
-85.673
-138.388
-123.326
-114.802
-77.8348
-49.9392
-65.4912
-123.23
-148.114
-96.0704
-7.45669
56.0286
69.8908
60.0014
36.9805
1.55243
9.11863
-17.2034
-89.4963
-94.7574
-38.6205
4.75767
50.9459
72.2103
38.4168
43.404
89.9913
154.139
149.589
72.1877
-2.20285
-20.2507
-9.4566
-54.505
-76.4701
-86.8916
-106.29
-46.3647
35.208
56.3839
95.1037
27.1666
-79.1984
-109.971
-80.2398
-84.0396
-44.6737
-10.3878
9.61494
13.2251
59.6112
69.1821
64.6164
89.6474
72.5262
40.8778
6.07767
-44.232
-32.0173
-17.9076
-26.9819
-20.5216
-31.7091
-8.78681
15.0805
6.95282
77.5418
132.563
148.072
117.767
45.4199
-15.9305
-71.1779
-130.843
-149.703
-122.862
-80.2958
-49.7694
-63.0749
-79.6908
-84.4843
-54.9824
-27.5514
13.5228
40.7953
33.3822
-43.2069
-82.8708
-56.938
38.736
116.85
114.838
97.2736
84.5541
107.13
125.665
111.556
57.668
14.38
-5.52155
-32.3947
-42.5384
9.86072
5.66201
-6.8002
21.5869
-9.8721
-50.7398
-64.8644
-123.564
-109.39
-54.9123
-15.7733
29.5971
46.6502
72.7733
72.4649
-21.9574
-159.049
-154.626
-70.4451
-8.78854
47.2581
87.6346
109.538
94.9071
73.2643
101.544
60.7901
-1.94304
-55.8915
-73.3396
-60.8286
-23.052
-66.1964
-137.107
-162.901
-97.625
0.660802
34.1477
59.8837
113.657
142.772
89.7425
47.5447
26.2777
-19.9208
-95.9564
-92.3912
-22.1884
46.5786
100.755
105.099
41.6733
0.411711
-5.60044
-18.8046
-2.42748
48.0444
56.3188
30.4892
9.29598
-19.1446
-48.1825
-83.7059
-88.9149
-37.0699
6.46851
13.0606
41.812
13.7302
-31.0044
-53.6081
-58.8342
-54.9537
-89.6552
-71.9566
-17.3339
30.144
37.9487
10.536
-9.95489
25.4712
79.4904
20.3538
-20.6614
-16.5443
6.18147
38.2862
38.4877
18.029
11.1536
37.3906
34.7871
7.18055
29.911
37.9474
34.5368
32.3617
35.6986
42.9094
29.7219
-6.40494
-36.0488
-13.68
-14.4634
-56.7608
-80.4363
-65.9935
32.9428
119.493
90.8511
-2.9556
-35.6266
-27.0634
1.90866
9.78468
-46.9262
-136.292
-178.709
-206.134
-153.142
-106.442
-38.7887
48.1811
109.837
156.705
142.427
140.422
75.5142
-38.3101
-80.8226
-55.2885
-9.17241
87.0886
120.26
137.768
143.393
61.9465
-37.893
-42.3496
15.4885
40.6207
-34.8663
-81.0906
-116.668
-153.503
-147.654
-128.018
-75.6136
-38.1778
6.23961
39.6425
50.4753
34.0071
15.0522
-9.96348
32.2381
101.772
114.259
122.247
73.5613
46.7421
70.8252
61.3021
16.3042
-6.52165
26.696
26.134
-50.367
-76.103
-71.7083
-49.5697
-21.6579
-25.0742
-23.7368
-43.6967
-53.4341
21.3393
87.0202
53.567
14.4425
-14.804
-38.0855
-71.2367
-81.439
-70.2053
-56.2675
-41.7308
-32.1971
-1.75396
22.8575
36.2443
51.7258
28.9315
-29.4849
-56.9991
-50.2028
-45.7433
-38.494
-8.11125
-15.3657
-19.096
13.6343
36.0837
78.7929
103.31
120.029
213.664
233.311
113.925
60.1573
17.5886
-23.4866
-33.4028
-35.1076
-42.7456
-107.706
-91.0881
15.9636
26.7029
-32.7423
-93.523
-124.695
-103.961
-85.9697
-87.4283
-101.014
-170.67
-190.869
-112.987
-46.864
0.749003
11.4976
19.4988
39.4241
85.0129
157.67
165.386
129.222
102.916
111.149
104.38
100.339
67.3779
57.464
61.3293
66.9525
37.5662
9.04882
1.35393
25.668
3.14157
-16.029
12.9254
17.7689
-14.659
-48.8839
-78.0237
-98.3696
-74.3487
-71.74
-57.0691
-67.6479
-67.0213
-43.8375
-26.3972
-42.2661
-53.6688
-71.5148
-71.4604
-105.291
-92.3836
-61.2207
-34.5634
-11.9466
61.7064
107.427
69.9365
84.438
79.1803
84.351
93.1828
101.628
127.281
161.709
142.879
53.3338
-21.1879
-43.5657
-50.148
-79.9336
-73.9092
-45.6658
-39.3163
-36.3548
-74.8353
-83.2748
-26.4917
3.389
50.9538
38.2849
-32.8035
-77.662
-93.4275
-97.8102
-68.9553
-34.5865
-14.5649
25.9846
40.9247
28.7802
40.9636
37.4196
6.36704
-4.19053
5.48251
24.8721
23.352
20.2154
50.4516
136.589
184.051
125.322
80.0655
16.4134
-72.9588
-108.961
-114.617
-78.5169
-0.0439789
73.8354
14.4292
-9.40256
33.5248
30.4439
0.599254
-23.3162
-34.4065
-66.3244
-77.0318
-59.3471
-37.3239
-24.1351
-19.9144
-21.75
-8.52123
22.1693
37.1015
22.3705
2.53264
-17.0068
-2.31547
-36.7153
-61.2869
-29.0417
-4.74599
-5.08022
11.0166
19.1173
0.952524
-53.8186
-64.4256
-23.0269
21.3961
61.7987
104.003
112.216
88.2999
9.56796
-3.62262
16.2617
27.3841
34.1653
30.7715
27.8399
49.5558
44.969
21.8182
-1.97996
-21.6209
-35.6427
-57.9901
-56.4148
-51.7496
-40.1167
-56.9773
-44.8127
-17.836
19.0595
14.3626
3.36467
-9.53698
26.135
24.7352
-25.1484
-33.7893
-37.8237
-34.951
-23.2621
-5.38518
22.1131
12.5412
19.6543
5.49251
-26.8229
-32.174
-28.6852
-2.06533
62.8635
63.0733
38.4982
56.6312
25.6954
-32.9092
-28.4496
-25.3139
-7.54376
9.94017
13.0011
-9.33241
-24.2177
24.1321
30.5446
-7.11697
-29.2396
-0.202556
72.478
49.8591
-39.293
-64.803
-60.503
-54.071
-6.96948
51.2832
72.9149
51.903
14.0108
-14.9065
-29.3969
-42.1206
-31.3031
5.37874
19.3957
57.2743
84.4912
23.8115
-49.3683
-33.6911
5.27015
12.2807
3.12814
-16.292
-6.97336
-20.7292
-28.4524
-20.8647
7.18826
18.446
2.12932
-5.44399
-17.3078
-35.2336
-25.5836
-34.6838
-27.6268
22.6543
26.5835
11.4767
-10.4999
-24.1017
11.4132
18.5826
5.51017
1.00939
-14.5958
-2.97721
-1.63426
2.64888
6.21048
-22.7425
-20.6539
-1.04326
18.48
35.0117
22.9983
22.8093
-8.79816
-5.34246
75.989
155.244
118.234
58.1075
-17.5243
-48.9793
-84.7405
-87.1287
-82.8874
-110.621
-75.399
-16.9892
25.6075
97.2544
142.121
71.2723
50.4124
31.7679
50.4194
25.1709
-82.8165
-148.004
-125.665
-107.555
-72.9668
-42.8389
-22.8712
-38.3755
-53.203
-12.1722
27.0216
32.3005
10.5263
-17.1517
-26.2524
4.96031
-13.8382
-4.8016
45.3416
80.3851
114.141
102.518
85.1732
93.0284
54.3753
-16.5484
-29.3222
25.3314
83.5709
68.7024
36.3813
42.1217
34.7022
-36.2432
-96.0077
-99.1322
-70.2855
-17.5065
-8.45425
-14.4694
-39.9379
-83.8694
-113.843
-65.6156
-23.3057
-15.9198
29.1626
21.2598
25.8196
63.5362
47.0167
26.0766
9.01373
-41.1926
-51.1944
-26.0163
-13.0331
-32.4875
-61.3436
-38.5245
3.0194
4.75637
11.8378
0.073424
15.8508
53.898
58.3737
11.3102
-12.3841
15.4653
-2.48852
50.6953
136.103
198.093
198.056
173.663
77.3647
-40.5253
-118.913
-183.426
-199.993
-148.741
-115.715
-67.4692
20.2179
114.568
123.175
71.4283
-23.6458
-117.008
-151.056
-191.214
-200.242
-151.866
-66.786
46.4261
94.5189
68.0973
73.5284
103.632
104.444
120.165
108.092
82.39
54.3221
16.217
-1.83947
23.9366
57.4091
65.5694
85.0558
68.3374
2.47631
-39.9958
-94.3429
-162.407
-172.926
-90.0996
-21.4647
9.09604
0.105395
33.129
-12.6438
-22.9576
5.10026
52.8533
57.2544
36.1388
40.6771
51.8333
8.25407
-34.0692
-40.042
-55.4506
-65.1431
-38.0669
20.2583
62.9037
24.988
12.332
26.1397
-3.9493
26.7533
12.4662
-40.8266
-69.1022
-79.2077
-55.5143
-40.5042
-41.5938
-34.9139
-5.91067
22.4606
60.837
50.8723
42.5253
103.257
96.7987
24.012
-40.4008
-56.5075
-52.0434
-4.35776
27.5202
16.4586
15.7425
25.9105
23.6854
27.8138
21.7611
27.0197
10.6082
-10.3987
-37.2284
-101.915
-111.022
-99.5788
-35.9371
63.7192
80.2549
80.6312
48.3905
27.9104
39.1489
103.861
100.369
44.1754
-26.1634
-59.0419
-78.5025
-118.34
-141.44
-160.604
-130.503
-20.9833
36.9021
51.7457
36.7631
38.6512
35.9854
12.3501
32.5811
64.2529
77.4216
60.5245
16.0325
-9.88819
19.0452
53.0824
63.3719
32.9113
3.77649
30.2193
9.14225
-1.70429
-22.3786
-76.8589
-109.131
-97.6898
-68.5639
-28.9684
20.2314
-9.84843
-88.2265
-133.415
-118.945
-57.1363
7.72246
29.9513
74.6871
131.25
95.7984
42.364
64.1938
126.975
130.438
88.195
47.5731
14.1448
-44.4914
-46.6481
-58.9943
-58.229
-45.9678
-64.067
-89.32
-71.3008
-14.3768
16.8877
-19.1037
23.4304
86.8752
107.334
79.0492
34.0979
18.8826
17.6262
-20.2312
-36.7776
-10.174
5.89083
-15.6257
-24.0689
-15.0306
-25.9166
-29.6731
-34.8069
-53.3582
-61.3034
-17.1154
10.183
13.85
16.9763
30.0383
-10.9094
-81.0223
-100.924
-61.5429
-21.2581
29.6705
50.1312
63.4653
98.5778
53.8682
16.4155
33.4003
16.7507
-24.6262
-32.3009
-20.0304
20.4394
59.8401
48.2212
17.6486
-0.123586
-9.92893
-12.1481
16.9813
44.5318
8.45943
-18.0646
-58.5224
-67.7456
-12.6477
36.9728
50.09
44.9548
9.59527
-29.1283
-54.4335
-69.6425
-46.4431
-26.5155
-34.2707
-34.3405
-19.1476
4.67013
13.193
17.51
47.2575
55.8273
36.2868
1.44486
-5.47334
-8.81604
-38.0405
-39.8701
-7.46862
26.2028
42.9222
35.5617
30.3175
37.987
-11.8441
1.18955
67.432
87.5687
51.2405
-21.759
-69.6474
-103.883
-122.024
-109.381
-27.1612
79.3138
62.4063
25.9748
12.112
9.15493
-11.7345
-20.3015
-0.374641
-15.7738
-24.1949
-37.0016
-49.9302
-78.763
-72.3357
-2.09822
54.1506
75.2322
120.062
130.46
81.15
51.6373
76.6454
92.3433
37.8787
-75.8856
-106.466
-96.1898
-108.492
-90.9893
-25.4742
15.8433
-12.263
0.190824
11.1452
-15.5517
-18.9401
-3.12719
9.86076
17.6741
3.50646
-63.5306
-58.0963
-26.2047
2.86383
49.5515
76.9966
66.5216
51.3926
27.2125
19.5428
-7.82279
-8.16204
-6.7533
11.2765
17.904
12.2698
6.85556
50.7854
72.8815
48.9584
-4.62845
-55.1032
-80.4204
-77.0524
-33.8517
-21.3159
-2.10012
8.10112
17.2788
13.6005
10.4255
33.765
69.6663
34.2824
-12.4463
-49.1072
-57.6929
-69.5128
-69.167
-74.0609
-70.0661
-41.7992
-14.2073
8.18361
25.7809
34.9334
20.6064
-14.1852
-17.7061
5.0034
14.474
13.7535
25.1028
42.8892
46.4718
53.1481
60.28
45.5906
3.88535
3.91651
48.8073
70.4893
26.5429
-13.7545
-14.8071
-2.72926
-11.3409
-14.4459
2.62371
20.4658
20.2464
-8.62152
-50.7363
-54.6648
-44.8365
-9.88508
-4.49015
-49.3376
-75.4727
-93.4121
-82.7353
-40.6729
-20.7113
25.221
30.8253
18.936
6.77109
23.8561
72.3355
94.9178
68.7505
38.1852
32.4241
34.2654
4.81099
-89.4031
-109.898
-79.9198
-19.9712
40.0648
41.4499
31.1902
67.4876
86.2532
79.1894
54.658
20.3065
11.4739
-55.9508
-117.809
-139.348
-126.672
-95.0116
-26.5299
68.206
167.468
202.588
192.726
104.499
17.5694
-62.5939
-114.172
-102.78
-76.4718
-31.6352
-22.0436
-85.3891
-135.498
-125.16
-88.8021
-29.1907
22.986
20.435
10.2396
22.6788
5.38149
8.7415
18.459
48.1902
71.2259
128.736
173.599
139.707
82.8887
4.6217
-38.2908
-22.1745
-12.66
-17.1892
-43.0454
-40.4609
-9.93877
-6.8638
-14.1626
-39.3278
-24.798
-29.5289
-38.4512
-46.8841
-57.3579
-64.7791
-71.5601
-68.6372
-46.4887
-25.4301
7.86855
96.3251
154.101
129.544
102.139
72.9108
32.2309
8.98059
-15.2686
-37.0236
-37.6109
-55.6931
-70.8438
-46.6451
-28.4249
-33.0455
-50.6357
-32.8312
21.636
38.2228
42.184
89.4253
85.0665
33.6707
-10.2116
-15.2938
-19.4705
-28.4005
-16.9059
-37.3268
-34.1721
-12.8028
3.12789
2.99012
7.6557
8.64241
1.34148
16.7209
6.10032
-40.7916
-51.3934
-59.5547
-47.88
2.04774
45.8136
43.2691
19.5879
17.5259
30.7224
74.2458
96.2454
73.9473
24.5097
-26.311
-69.8456
-83.2713
-56.4218
-19.5388
-9.98712
-2.01365
2.79901
23.1407
37.6536
10.3247
-40.7828
-64.1723
-35.2637
12.2647
24.2417
58.1428
48.5425
29.7662
24.5586
21.9262
14.3911
0.597976
-14.9565
-38.829
-60.7742
-75.5166
-112.474
-97.2546
-62.8548
5.66145
66.5756
123.09
169.757
180.256
116.327
23.7529
-71.8057
-140.865
-138.751
-95.6705
-51.7527
-25.9132
-24.0639
-2.10163
9.13993
45.2091
74.8463
43.1081
27.6978
20.6595
32.5232
56.7405
-9.15311
-88.4019
-90.8538
-79.6155
-47.0173
-20.5401
12.7261
34.5699
72.5691
85.7825
89.1732
71.2139
55.0565
78.9292
73.2901
10.0355
-62.5664
-82.6321
-85.5405
-100.757
-86.556
-63.5968
-35.7221
5.42602
-2.66004
17.4713
28.9292
30.4487
15.2646
26.5542
25.1812
20.1631
31.631
23.6869
10.4323
-21.9726
-41.2752
-45.4289
-34.7909
-11.4177
-11.1156
-12.1855
-6.60431
-0.0990083
15.649
20.1644
20.8838
27.8768
33.5049
17.203
1.0625
-24.5724
-59.5963
-69.5756
-47.7461
-13.798
-13.6835
4.94903
42.1718
63.898
124.092
163.48
114.14
34.7291
-1.37955
-22.0717
-42.6441
-54.3405
-42.8032
-26.9481
-28.7286
-28.1551
-31.6423
-60.2896
-57.7427
-31.7009
14.2941
30.5549
2.88826
-35.1603
-43.1434
-108.551
-99.3541
-50.7257
-1.17004
35.4809
69.3049
79.9637
69.1355
53.2211
77.0065
103.084
49.0242
13.1256
-11.8624
-25.5507
-17.6737
-10.5664
-7.677
-33.0818
-42.8588
-12.7434
-6.04737
-12.8875
-1.28466
25.9382
35.4879
11.1253
-33.5874
-49.6079
-58.9936
-75.9214
-56.1316
-13.4113
44.5422
72.8087
43.9285
47.0814
30.2078
17.9705
-1.98047
-33.9539
-43.8807
-39.7524
-37.5802
-32.3865
30.3325
100.28
107.002
54.0146
8.21383
7.49743
26.0797
3.78988
27.3602
24.9335
13.9699
-20.2176
-49.7514
-37.3476
-71.0811
-75.7919
-44.0082
-32.0461
-6.03702
2.4381
-39.6461
-42.1814
-8.03124
10.9809
19.5165
-14.6286
-21.7755
-0.429612
-15.2128
-13.6987
-9.34669
-8.87236
10.4324
19.0892
54.3741
102.381
113.44
89.3164
51.5068
9.7407
-27.3048
-66.0889
-71.2956
-47.5801
-22.8856
-19.3187
-20.8927
-10.0849
-7.10079
22.4115
85.5131
125.47
86.8288
26.8584
-7.17025
-33.3153
-51.641
-60.069
-62.6413
-20.7546
-26.9013
-47.3307
-54.3963
-46.7726
-32.6992
-12.4473
19.7889
44.0035
43.9118
22.4355
-7.98757
-43.9734
-38.5447
-29.9863
-25.2617
-10.0131
4.95615
17.252
-30.1315
-79.5634
14.7749
60.1983
78.8451
129.391
152.924
156.54
142.834
125.249
102.421
38.791
-76.4618
-152.488
-155.922
-133.52
-108.356
-78.1509
-90.85
-91.4415
-52.1705
-19.3791
-44.955
-56.682
-43.1333
-26.1227
-20.4981
0.460173
29.7469
0.73876
-20.8962
-2.32775
42.1515
78.9817
105.56
117.275
114.286
86.9829
74.7312
72.6339
79.1963
71.5489
25.5882
-1.78975
-28.3542
-75.5593
-99.6658
-101.34
-87.2764
-58.9131
-41.9645
-19.4756
-8.41621
14.0169
19.669
17.736
27.8812
66.4063
113.452
101.779
49.1343
2.13496
-43.2695
-82.1573
-117.026
-126.606
-104.72
-73.8411
-28.4812
24.7831
31.6886
-2.65485
-16.4618
-0.791803
25.4663
58.637
59.6401
29.7599
-1.04002
-15.775
-81.5438
-75.1965
-27.8618
38.4107
94.9581
129.346
106.616
48.8561
-47.7915
-110.018
-124.927
-63.9051
23.1805
47.7477
43.5235
24.1938
-17.1648
-29.5724
-39.5633
-28.9497
48.0832
86.6265
85.0278
80.6006
46.1271
10.5147
6.40023
11.9149
3.67263
10.2804
24.4776
-2.42792
-29.0422
-79.8244
-69.5339
-53.0566
-34.7844
-32.5631
-31.1379
-16.2146
37.0736
42.041
9.26787
-4.22604
-5.66221
-16.9187
-24.0937
-38.5181
-40.209
-39.4791
-42.5088
-36.7996
-15.4203
21.8284
30.5259
34.2399
39.1391
50.8259
21.8911
-17.6769
-19.9907
-19.1527
-2.15718
12.3858
30.0742
46.119
71.1523
83.696
80.7012
26.0131
-29.7522
-49.1175
-60.6761
-47.1182
-25.524
1.86039
6.02967
-36.5934
-16.7982
36.901
78.4409
64.5015
40.0118
24.2915
-16.7601
-81.8715
-117.519
-109.178
-63.8484
-5.99257
37.8862
49.0388
49.5882
46.743
15.3235
-8.78961
-34.618
-26.2228
-11.6786
-10.9868
-16.1793
-21.5241
-22.3221
-35.2926
-71.4773
-53.1924
4.06038
47.0558
56.412
25.3457
39.4481
79.2538
144.492
182.171
164.882
70.5593
-51.9632
-113.551
-123.478
-103.297
-84.0556
-55.4603
-52.2384
-6.9508
36.5956
44.0914
32.4381
-8.66814
-26.7704
-10.2862
-35.4202
-44.7781
-54.0889
-101.455
-121.259
-77.8634
40.8007
90.1655
97.094
89.4041
75.9454
76.9055
16.6326
-29.302
-11.1283
26.6333
29.9404
34.3171
20.8577
40.2101
69.1521
22.8043
-61.2627
-74.9863
-67.4343
-53.8781
-40.8597
-12.3789
1.03673
-9.47271
-38.4
-39.8581
10.9084
21.3993
33.6828
43.7123
26.8035
1.80863
-12.3014
-5.92064
3.96472
23.6938
50.9774
41.9525
14.65
-5.32251
-9.38749
-11.5787
-16.4399
-23.5156
-11.8956
0.875129
12.7329
22.2592
2.45934
-47.9293
-44.9694
-21.8484
-5.37334
-9.01083
-20.8273
-22.4597
-12.0949
-42.3937
-30.5119
4.95732
26.1962
34.8662
22.1801
4.95045
-5.20725
-39.2724
-22.2218
-6.21004
15.6037
37.4348
60.9503
104.88
115.522
55.8293
-11.5476
-47.9622
-75.0388
-34.8962
12.59
91.9821
74.9481
28.3291
-2.78616
-60.1136
-103.998
-71.7772
-29.5986
-8.57179
-8.63657
-30.0347
-31.402
-19.8988
-21.5843
-38.2491
-47.1274
-31.0089
-20.9257
-34.762
-45.2305
-44.053
15.1763
68.6203
97.3588
157.807
150.305
136.817
90.455
16.9248
25.9324
46.4493
-27.6666
-99.7222
-104.863
-48.1385
1.53853
-35.1024
-63.0589
-39.7845
-30.127
-57.6766
-73.5045
-52.9566
-19.593
-26.0565
-17.4794
-26.8804
-13.8045
-29.5331
-35.2351
40.8804
87.3875
94.4096
88.7808
62.2356
41.7781
54.1044
82.9437
113.682
79.0388
-3.46496
-38.5195
-67.3972
-73.6451
-40.3196
3.5649
24.6167
21.4581
15.9337
-12.3197
-52.3394
-71.2586
-85.0666
-74.3831
-36.0625
-7.5783
11.0118
-23.9081
-85.4527
-55.5809
-13.4886
9.04162
44.1402
45.1943
51.847
42.728
-16.548
-39.9465
-17.1442
0.143178
2.18686
3.86558
22.4381
64.8964
46.7015
45.283
78.4606
96.0209
83.28
60.1752
32.6153
5.82015
-23.1133
-74.5133
-71.9215
-55.978
-34.2834
-21.3903
-7.75048
-16.5319
-46.1488
-42.5563
-18.4014
-8.06652
25.1101
36.899
22.7655
-6.3232
-21.4848
-66.2551
-101.246
-51.5671
-32.2103
16.7046
16.9099
-11.2479
1.66426
11.8522
44.1034
51.2283
76.7592
87.0625
57.3195
4.75989
-16.4921
-20.3646
-43.3028
-86.9328
-63.3206
-4.02717
28.8582
11.7309
27.6517
37.4696
28.466
64.408
71.1467
36.9828
-0.599246
-12.8748
-18.1338
-24.87
-50.0001
-52.8018
-45.0667
-57.3761
-47.4843
12.9018
49.9875
68.0301
68.4441
7.55745
1.82385
2.09203
-2.71512
-23.6898
-51.5057
-45.817
-2.31426
-6.54494
-3.04716
13.5773
20.655
11.7919
6.65413
-6.34465
-30.2306
-72.6436
-76.7324
-45.3567
5.68543
37.3011
63.6004
76.9371
81.0544
93.6329
156.745
164.036
60.3309
-35.5842
-116.169
-152.206
-137.318
-111.332
-79.5718
-32.2752
5.52914
67.2569
57.2469
16.7885
-18.6746
-28.0237
-31.4075
-37.6742
-75.2989
-116.017
-129.809
-99.8395
-37.4305
42.4664
128.958
189.148
170.405
114.567
68.5293
41.1705
4.76192
-40.3497
-39.9704
-17.1999
19.9625
25.8057
22.4158
43.8568
121.627
121.47
5.40317
-75.5039
-82.6313
-23.4272
-20.1246
-74.6701
-106.694
-107.874
-75.3719
-40.6547
4.31873
57.3675
47.541
27.9389
-2.04693
-1.94389
-12.8128
-51.4019
-72.0917
-40.5484
-33.7365
-31.173
-0.181592
38.1471
55.9329
38.2035
20.6155
53.1319
45.5971
36.0395
36.8998
41.8946
66.9067
50.0095
24.5447
5.27234
-16.1839
-31.2175
-84.1444
-83.2811
-35.4349
-5.59605
-5.92197
-11.5736
4.16559
51.0639
58.1761
-18.4662
-26.7686
-35.3844
-33.6074
-27.2037
-37.4715
-30.0985
11.7002
38.6438
-20.5217
-53.875
-32.3171
-6.20724
41.0302
75.4478
91.2662
76.667
7.83622
-26.7357
-32.8628
-2.29016
3.44483
-7.76586
-17.259
-7.74059
-2.43129
0.572969
-6.31242
-11.1306
20.099
29.9321
28.7175
9.35172
-26.6974
-23.243
-13.9481
0.371322
12.2114
-11.1063
-58.7168
-124.691
-113.566
-67.8835
11.7126
80.3996
150.877
188.412
173.2
140.297
152.673
105.557
-18.5748
-72.1252
-91.4294
-143.453
-178.003
-185.246
-167.547
-107.702
-3.86627
66.5171
94.2333
102.518
54.0993
-54.7385
-104.242
-109.396
-127.758
-109.267
-59.7278
33.4459
86.996
76.9328
105.603
129.055
83.8351
54.7666
11.8112
22.6714
51.3762
65.241
25.3515
-0.731594
-9.50846
2.76603
-33.0246
-67.3332
-31.8805
19.4377
26.4719
3.33083
4.74714
-4.59261
-12.3532
-9.54167
18.111
21.1777
49.0549
18.566
-9.12282
21.4305
1.19928
-29.674
-37.0063
-36.1801
-29.7823
-24.8184
-24.2532
-42.008
-70.5138
-69.5099
-26.2749
0.195348
14.7362
28.5498
34.3311
41.5348
21.2007
-11.411
-4.30101
20.7145
35.526
21.9338
-0.902493
5.01603
-1.35264
-4.88513
-16.8773
-22.1755
-34.7231
-43.6366
-24.6692
5.40898
8.3821
15.9925
41.6641
40.7394
55.334
53.6005
40.6499
0.275375
-33.0081
-19.2638
-7.61459
10.8949
57.952
68.2555
29.1062
-38.4071
-42.0121
-0.184972
-21.4618
-83.3299
-76.3019
-41.2206
-24.4426
-36.1927
-38.0999
-26.4189
-11.0153
-10.2247
15.2688
30.2981
34.0165
14.2959
-17.3447
-30.1862
4.93689
41.2851
42.4641
6.03568
27.6994
78.34
67.7486
40.9858
41.4962
72.7662
49.192
-1.79599
-13.2924
-23.1419
-36.1586
-47.0675
-43.4064
-38.2101
-72.9079
-115.107
-112.988
-74.8003
-37.1364
2.33849
37.4159
64.7664
90.5747
52.7129
58.5589
62.4996
103.572
107.913
28.59
-7.14266
-9.26905
-39.5929
-76.8255
-75.0158
-46.8272
-26.2238
-17.5278
-5.78174
-37.6077
-124.671
-91.7734
-46.3383
-29.1728
6.04945
16.9456
25.7175
34.9633
64.2435
92.4015
94.5427
45.887
10.2215
5.79128
13.4096
25.9939
5.76055
12.2058
0.76913
4.20519
53.9432
31.2733
-7.51722
-26.8922
-41.7993
-63.1486
-69.0308
-40.0469
-16.2914
-16.953
-10.8057
4.5135
16.8179
8.29111
4.36282
24.1445
75.4135
85.8286
42.3342
24.0211
24.129
-28.3075
-97.6135
-89.014
-39.8548
-16.2867
-24.1728
-25.355
41.8816
76.6375
53.474
9.06308
-23.9619
-24.3305
-33.7949
-46.0219
-67.0999
-67.6722
-22.9257
15.1668
21.103
38.6434
51.1458
34.6709
12.7688
21.2079
41.807
-12.7448
-92.5413
-97.612
-56.629
4.0271
56.0934
66.9934
51.8066
40.2705
53.6447
43.9792
28.1908
0.900418
-7.07751
-9.03248
15.1955
29.8337
9.09547
-38.9322
-65.9347
-44.1019
-37.3177
-29.2502
3.90043
38.586
18.7593
15.1613
3.70022
-12.3073
-13.913
-10.6128
-9.87531
19.3909
30.5518
31.1413
39.0606
28.1391
29.5426
34.6424
14.548
6.44119
-42.3296
-58.5674
-74.5994
-98.7316
-60.6631
-15.7245
19.688
-0.103796
9.94533
9.00483
-4.92344
-2.0393
12.7437
24.6685
37.0406
39.6742
70.4209
52.8611
-30.5072
-69.7989
-66.1212
-64.5454
-36.9815
-4.92384
-2.79296
-27.9454
-32.6062
18.6783
36.206
40.5841
59.3649
-3.61931
-58.1847
-10.101
18.5871
14.5427
3.63364
1.97019
35.203
60.7896
102.875
136.104
90.7785
15.5454
-4.14957
-7.82878
-11.3735
-12.2832
-18.8453
-20.6588
-54.3245
-50.5052
-23.3649
-54.186
-111.52
-138.773
-98.2505
-36.3344
-2.85164
-11.4636
-13.8361
-21.3987
25.5543
88.6709
87.8137
69.1274
17.2493
-6.99981
-4.67584
21.8117
69.914
86.366
74.2558
55.4521
54.02
30.9938
-60.0637
-107.099
-95.8222
-72.6831
-75.2048
-85.8674
-77.6628
-41.1676
28.6497
80.2385
93.8633
79.0387
92.9308
78.5832
26.8653
3.81495
-7.82099
-38.112
-68.9128
-74.7753
-58.2053
-50.9487
-27.062
-16.1922
1.02947
1.87591
1.62921
18.6947
-2.00786
-14.6137
23.2415
75.0423
41.7112
-0.792032
-33.6202
-37.2209
-45.2611
-30.8214
22.494
84.3453
96.7401
32.2253
-18.4719
-13.3794
19.638
45.2928
52.5695
20.5259
6.49458
36.1706
55.0773
25.8157
-36.52
-82.5546
-84.9465
-71.4486
-46.9245
-37.5065
-18.8835
-47.3897
-56.0964
-23.6348
1.80145
12.0432
15.5909
30.7337
29.6096
-4.48245
-6.04122
-18.3705
-27.0722
-29.2313
-3.70321
15.124
23.3984
21.5999
20.4839
26.3489
24.9329
43.1015
50.8156
90.6585
93.0978
10.8853
-28.8336
-45.7907
-57.6764
-50.3543
-61.3553
-62.1535
-28.6526
9.51696
67.9285
93.1504
88.186
47.147
-9.27113
-42.2072
-49.8521
-21.1023
-16.3707
-14.8114
-9.69327
-8.2205
-54.1257
-76.8324
-43.6641
11.1241
13.9655
-6.5844
4.40861
16.9614
54.9666
72.8155
57.5632
10.1268
-11.805
-26.7577
-49.8227
-50.3381
-37.034
-50.1326
-67.2673
-38.0283
10.8737
21.6734
15.3647
17.6632
41.0338
50.6157
1.94802
-24.4059
-57.6029
-53.4916
56.5566
140.875
145.344
147.404
104.004
14.1244
-54.8098
-83.1589
-36.5067
-27.6128
-9.25456
10.9091
1.38616
4.36474
21.8074
-1.53735
-35.2162
-38.4362
-106.688
-130.719
-142.335
-104.567
-38.6037
-15.4949
-1.64287
43.7573
84.2913
64.6613
34.4139
49.4558
46.0646
28.6863
6.18675
-4.42588
22.1857
5.65107
-3.48424
-8.68601
19.3541
48.0264
40.6409
24.8709
5.90747
-25.5023
-5.93016
7.98686
4.08358
16.2168
5.41837
8.47899
21.2331
12.4329
15.7407
-0.279946
-42.9637
-51.4965
-49.4824
-32.8947
-10.6979
-21.2037
-47.7565
-56.7934
-59.6143
-7.77717
5.51774
-1.09222
7.33757
23.6723
18.0437
7.90442
-17.6068
17.8789
53.3279
51.069
33.2882
46.8652
57.2324
40.6482
13.315
-26.1483
-24.5327
-17.5704
-4.14098
-22.3624
-25.2704
-2.12198
-3.08743
-13.5129
-15.6085
12.5697
38.5966
30.1886
-14.7713
-38.7072
-60.7163
-39.5738
-2.12745
16.9192
22.4029
9.37608
-17.6509
-2.34285
32.8734
37.237
46.5836
25.6023
14.8737
27.7754
7.94612
-7.28592
-38.1182
-36.3627
-29.1233
-30.7516
-29.8072
-43.3032
-56.2174
-73.1332
-68.9231
-18.3997
7.83817
33.4884
48.8543
52.8848
48.8051
52.3366
70.9523
48.9151
11.4132
8.30322
4.51217
4.50106
11.8088
0.517114
1.14847
33.2519
26.7858
-48.5164
-55.2283
-62.8039
-68.3698
-74.133
-47.1884
2.73386
17.5339
34.0804
10.5691
7.57328
33.1248
36.6835
30.8313
-19.4877
-40.5408
11.8166
74.5756
101.327
63.1944
84.0452
87.3341
50.8774
7.55836
-42.8159
-85.6409
-135.769
-143.404
-138.331
-79.1294
-20.4132
-1.39609
-30.2931
-57.8672
-80.5379
-59.2813
-18.359
5.76269
23.1493
88.9268
130.895
115.973
131.063
167.441
122.094
52.677
0.423843
-40.5456
-43.5214
-60.003
-74.2968
-39.2262
-17.3497
13.1896
47.3724
34.0021
-2.41226
-25.0394
-41.0546
-50.6111
-67.1716
-71.3394
-60.7037
-50.9632
-28.8903
-8.64499
35.3979
58.0409
46.6676
45.694
18.7329
-1.91646
0.112849
21.201
66.5197
42.9258
39.8226
-4.52208
-25.4244
-43.1501
-75.3065
-99.7597
-97.1144
-73.2752
-37.7374
-48.3997
-24.0658
42.0432
111.262
145.624
152.721
129.4
90.2844
43.9092
1.6439
-36.2254
-53.158
-47.476
-51.3428
-40.6281
-21.4733
-15.7771
-24.2422
-68.3822
-44.0002
35.4107
75.1283
52.6149
-15.2858
-42.131
-42.1086
-89.9864
-86.8212
-41.7665
-10.4118
32.884
20.0367
11.3803
6.89655
-6.71161
15.4334
31.397
37.993
45.0462
32.8762
17.4227
6.35186
-8.48385
-6.03832
-19.9238
-19.1358
20.1148
35.0151
16.1684
-15.101
7.84789
38.4357
30.2174
4.56087
18.6064
26.9633
35.5915
23.0536
23.0122
33.3982
11.2667
-29.7592
-58.6753
-79.0162
-87.7635
-73.7331
-48.9437
-31.2181
-33.7185
-27.1587
-7.33677
-8.34584
-18.8994
-20.9854
-3.11774
-3.92726
1.02893
20.2779
34.7666
30.353
36.3781
39.0059
58.5717
51.0476
28.0411
28.6148
22.5808
5.79784
14.6662
28.4581
14.1672
9.63836
32.9396
11.7123
21.5312
19.2503
-27.16
-45.2701
-43.1677
-51.1777
-28.3741
-16.543
-21.6715
-11.5285
-18.7372
-32.8358
-29.1558
-20.1578
-8.8199
1.01334
2.72376
-32.8814
-38.5179
-5.50111
-9.08867
0.899412
14.5006
7.60798
4.69574
-26.311
-59.019
-47.7109
-17.8427
45.6927
126.624
142.95
125.571
123.368
117.259
82.5193
-16.4875
-53.3845
-45.597
-62.2759
-146.915
-172.443
-83.0261
11.0172
46.6351
83.1762
97.7406
68.9637
79.3894
35.2858
-20.7801
-62.5276
-99.9369
-128.968
-138.18
-120.243
-66.3564
-26.3564
-9.16226
21.4157
41.8647
61.4753
48.7689
26.5348
16.4235
27.2529
50.4052
14.6932
-30.2357
-37.3173
-24.8728
4.18611
42.5558
59.1634
69.6277
47.8962
38.3762
4.62809
-15.4262
-3.77822
45.3687
55.5571
49.236
32.6228
19.5899
2.90861
-25.958
-17.016
-30.8402
-35.1982
-44.2691
-58.1209
-46.9797
-31.0246
-18.3896
29.6916
29.4885
30.308
15.1104
2.23707
-27.1569
-63.104
-63.9626
-65.392
-54.3231
-42.4822
-32.0744
12.9987
-7.36474
-13.4955
-9.50028
4.48701
1.52651
1.50879
7.702
-7.5327
22.1226
27.5684
54.8583
65.2935
57.7279
47.2552
31.1068
47.8856
47.5968
43.7068
47.0391
21.0355
8.68499
-17.661
-32.0614
-16.2501
-9.06466
-5.67629
-19.79
-30.7385
-16.7056
12.2918
17.39
-17.6541
-29.8304
1.87796
6.00833
-18.4174
-33.3151
-27.6742
-31.4
-64.5695
-87.7833
-37.6777
-6.83553
6.93136
20.7455
31.1985
54.9029
52.0856
35.4823
25.9795
-34.7107
-33.138
-22.5696
-21.1545
-19.1734
-11.8254
-4.46256
-3.9643
-3.04835
-5.0546
45.1136
49.8467
31.8489
-4.4345
-14.613
-0.0823221
-0.989856
-3.90563
-7.07868
-7.66491
38.5002
84.8362
76.2459
36.6801
-18.1084
-37.0637
-29.9239
-35.0612
-20.0641
38.5159
60.0136
65.4989
70.7435
49.454
16.1344
-26.7098
-61.7726
-76.906
-79.8167
-68.1847
-47.9691
-76.8444
-89.444
-44.7655
-19.8356
-33.0275
-56.481
-47.1084
-23.2273
11.6724
20.8424
-3.11363
11.4362
49.2336
99.9523
154.623
131.438
96.855
77.2796
34.7692
8.65649
-32.8398
-45.9162
-51.2355
-27.0783
19.3774
46.4687
35.6073
-6.78728
-42.2818
-47.0632
-49.5991
-58.327
-57.1521
-59.6247
-68.7625
-63.1863
-29.6011
-0.343407
22.6951
34.382
68.6302
91.6033
104.92
75.0172
15.9438
-21.4777
-43.6542
-35.2253
-4.27998
32.3299
-12.3453
-60.9239
-47.3581
-28.8076
-39.6859
-23.4046
-2.06337
9.95689
35.3985
29.5814
-11.5553
0.798162
4.7684
19.2292
13.5252
4.47062
34.5436
86.0269
65.3453
-1.03915
-12.9416
-16.3741
-35.1278
-52.8931
-30.1493
-2.07401
13.0679
-15.7668
-32.7755
-56.891
-34.7661
39.9063
76.8036
62.7433
20.8221
-18.4417
-39.4795
-69.6141
-87.8257
-65.995
2.94409
76.9128
75.5528
26.8295
-3.20038
-16.3913
-34.5166
-11.215
4.05213
21.9928
38.8045
19.2363
-38.9518
-26.612
18.2741
40.2469
30.5748
7.54651
9.65441
16.0226
-3.89585
-31.0721
-22.7731
14.4998
20.4224
-2.43012
-26.6694
-19.8993
0.714302
12.0936
3.44703
-34.3308
-42.3032
-39.3425
-22.3862
17.7552
69.0794
90.6195
86.1472
57.3606
25.0741
3.59901
-16.8314
-17.3266
-21.6551
-0.477781
-16.0165
-47.6631
-63.2637
-54.5145
-29.7117
-29.0273
-19.7235
-5.90832
-21.7094
-20.0987
-29.6204
-35.0175
-27.9588
-17.5944
3.57999
15.232
42.6849
48.5186
3.41782
-1.64997
20.3808
42.6731
52.0414
51.8485
55.5168
44.7454
1.79887
-15.8433
-10.5479
-6.60248
-3.79987
-1.95164
10.535
20.1946
27.1268
25.7851
-17.1929
-36.9821
-39.0539
-50.9851
-25.1092
-5.72263
-26.1264
-13.5811
-14.8657
-9.63273
2.97528
-20.2818
9.33435
24.9056
10.3852
-0.456875
0.840715
23.2064
31.0731
22.8202
37.6073
68.8883
-18.7623
-42.0561
-36.2637
-8.79134
30.5745
14.6718
-7.82483
-12.8897
-23.9404
-36.5019
-52.2727
-31.2274
-7.13993
-9.39573
-42.7971
-50.3362
-33.1479
-4.27833
-7.64168
-58.1406
9.89866
47.3813
77.4395
83.844
58.8296
32.8406
24.7561
21.5734
33.9157
50.611
45.0132
20.3977
6.43967
-18.4801
-9.10851
0.412816
-13.5482
-52.0586
-60.9006
-40.0348
-13.4966
-9.26979
-17.6641
-43.5861
-41.6316
-37.1879
-26.9242
-18.0287
20.6451
74.1688
119.771
104.019
32.0211
-7.92176
-24.8464
-27.7208
-19.2932
-20.9349
-34.7838
-31.9842
0.713764
-5.90934
-27.6511
-37.4583
-35.1143
-20.4272
-12.9205
-6.41515
5.66975
1.15607
-14.8583
-17.7111
1.68634
11.1024
-12.8066
-35.9355
-5.23428
21.2008
51.258
82.3494
90.3629
98.1283
74.2275
44.774
26.8856
-15.1681
-41.2911
-76.9832
-64.0385
-17.4594
1.31493
27.2529
30.7353
39.9314
42.9396
6.06749
-34.8109
-20.1391
-8.56093
-26.7673
-39.0705
-58.6866
-76.623
-63.1504
-50.3124
-15.407
6.05854
31.9303
18.1073
-8.28916
-27.3723
-47.4118
-25.5222
-10.223
13.0054
49.8743
55.6788
58.8581
56.4214
-7.12809
-28.8978
-36.6941
-16.3792
14.2274
38.2812
45.5909
31.985
18.1342
-3.3027
-14.5309
-14.8654
5.25763
34.4213
41.3527
36.7558
43.1858
38.1572
20.497
14.8254
25.3737
-27.7683
-51.3441
-28.1896
-8.76871
-40.4567
-60.6991
-16.9679
16.0441
10.2414
-20.3802
-32.0356
-21.1524
-74.9756
-158.055
-119.341
-66.1572
-39.4138
-36.2762
-37.8418
-4.25459
86.0804
177.899
184.542
158.831
103.01
89.3932
68.8326
70.3557
71.8339
2.17602
-81.3361
-125.938
-85.5089
1.32665
17.9135
-12.7984
-38.0073
-58.5964
-106.255
-91.3987
-62.8683
-46.0678
-37.6773
-51.3048
-21.8456
7.04709
-2.03079
-29.8678
-24.7035
23.7699
80.1051
96.8746
90.53
97.1508
79.4398
50.106
38.127
25.0376
37.8612
28.3503
11.5509
-3.57126
13.4355
7.21584
-16.7674
-44.5796
-88.4892
-85.8907
-90.2361
-82.7245
-55.6807
6.00831
83.6018
103.392
49.9625
23.3536
7.05219
