47.3339
61.0265
-47.024
-113.971
-130.527
-131.036
-26.7015
54.6131
84.0712
36.524
23.6868
55.7919
45.1207
-27.2237
-68.1374
-30.3371
-1.04756
-48.6235
-33.7685
-10.6081
-24.8471
-1.59431
99.908
205.488
165.829
41.9282
-80.1415
-209.916
-281.936
-189.472
-29.2074
57.9679
77.6711
130.753
127.525
-24.8968
-135.302
-132.793
-27.8815
73.7321
70.8735
83.1433
120.512
106.061
80.865
69.0164
146.935
192.619
162.312
40.0097
-141.451
-226.85
-225.059
-214.32
-84.8774
20.5722
68.9191
56.0247
-15.2671
76.6186
106.572
-69.1675
-114.853
-72.6655
-98.9482
-153.622
-206.033
-73.0071
72.2917
88.9786
85.4692
124.594
160.228
137.036
12.2364
-54.0794
-54.7899
-51.3006
-72.5096
-133.416
-80.9944
9.34271
70.4025
80.834
71.9482
165.383
185.906
78.3473
-6.39212
-1.28891
105.576
103.425
26.906
35.7505
-14.8407
-116.721
-128.164
-104.84
-25.7683
-46.7704
-96.9315
-73.7033
-43.36
-20.4932
45.0547
19.4181
-64.6568
-80.592
-89.4378
-147.653
-192.025
-101.733
86.7438
109.637
57.0506
78.1967
136.956
172.08
184.717
129.524
54.4171
38.7992
-38.6933
-82.9438
-26.6499
-8.07762
-33.7877
-96.1318
-67.202
-44.0852
-22.6572
78.9226
138.658
145.981
119.885
70.3667
-47.9413
-158.736
-151.182
-74.8633
-3.61983
-45.5835
-84.8525
-67.7444
-51.9513
24.4736
36.7473
-20.7925
-52.3552
44.4325
77.4638
-86.3563
-232.913
-152.569
-11.2074
115.75
98.8174
53.5958
28.1659
-5.28119
32.6175
91.1122
137.859
179.364
206.795
190.339
197.796
212.195
119.547
28.462
-33.0612
-126.933
-203.393
-224.007
-288.027
-375.672
-288.587
-87.4847
-44.2943
-46.3382
-74.4126
-27.3085
58.4986
86.2185
111.536
142.042
88.3129
-21.0322
-92.3541
-54.5096
-1.96981
107.922
184.757
155.877
181.297
196.503
139.365
79.5483
36.261
31.3275
19.7217
-145.529
-222.294
-174.236
-215.471
-259.643
-211.849
-112.916
20.7187
91.6305
96.2901
57.6949
101.066
125.459
92.3624
91.7826
133.369
182.098
104.364
18.9
-55.311
-92.6879
-116.552
-173.223
-114.659
-9.14348
116.085
164.703
111.248
51.6815
5.82238
-127.885
-290.384
-333.822
-271.237
-160.796
-58.8851
-15.477
73.3847
159.871
197.663
244.285
242.312
159.741
57.6403
-63.7588
-143.34
-92.6025
5.7339
4.682
14.2583
115.909
159.666
159.082
105.503
17.2807
-71.7243
-93.3176
-94.2962
-138.068
-86.6436
27.112
29.5777
-7.46028
-90.5186
-70.1724
-20.0981
-2.21915
-11.7843
-12.7947
17.3699
54.0039
57.0835
-23.2483
-86.942
-54.8475
-43.7713
-81.2298
-25.4472
88.3961
91.0905
27.1276
-7.13501
25.5355
21.3741
-124.67
-132.849
-33.6256
-11.5186
-44.2691
-79.8192
-78.1014
-9.05876
154.741
296.869
321.954
269.02
168.436
-6.46157
-187.368
-219.207
-65.7961
68.5856
99.4641
78.057
63.1102
13.4262
-68.9117
-94.9053
-106.552
-121.964
-63.8326
-13.0778
-15.3288
-29.0214
-10.9476
54.0728
58.3845
-8.76741
-21.3649
-158.337
-300.423
-254.822
-114.199
30.6658
153.013
178.311
90.5696
46.9005
49.0462
91.1268
106.74
114.373
61.4349
-28.9985
-110.713
-128.312
-69.1826
36.3155
59.7368
85.3974
97.2272
73.016
38.762
22.4416
14.7193
-1.72815
-21.4345
-33.8637
22.3113
27.2486
-36.8799
-119.907
-73.1038
-5.13411
-5.71415
-46.969
-43.7588
2.28191
24.1523
3.89932
17.2656
16.9552
-76.6034
-160.344
-154.098
-78.7103
65.7736
166.873
191.563
164.842
53.6984
-27.0847
-82.3427
-66.6664
-14.8042
34.3564
71.0106
146.206
197.767
186.906
79.4956
-38.268
-143.311
-179.388
-144.884
-102.964
-86.625
-105.669
-63.7946
55.6934
116.029
93.8508
77.6979
46.2428
-88.583
-241.452
-309.818
-284.724
-172.69
11.5718
154.329
192.739
242.962
244.778
178.152
48.39
-8.69219
-29.2482
-2.78008
-5.46158
7.70594
97.3733
76.3485
18.919
-19.4507
-16.6182
-11.0734
-24.5743
-83.3301
-41.4821
-63.2087
-135.235
-114.326
-9.05249
43.8585
53.3794
29.7725
51.4979
-39.5405
-144.027
-114.938
-61.3241
18.9814
66.3413
121.074
142.144
147.367
159.267
120.415
20.5107
-27.6089
-43.942
-48.5734
-144.49
-169.222
-112.683
-39.7915
18.5195
-1.11867
-31.3309
-42.6507
-40.2063
-77.2284
-55.7475
-6.59524
86.7315
226.728
263.982
243.003
143.284
-11.3084
-109.62
-184.847
-175.821
-171.169
-100.627
12.6195
87.5167
129.022
196.003
202.168
76.6317
-79.7729
-137.131
-111.836
-123.813
-283.8
-389.478
-197.583
-33.19
48.539
152.567
200.401
190.203
92.5971
-31.445
-7.29492
39.1428
21.4378
-8.47909
29.856
95.5917
170.635
159.245
141.878
99.8964
69.219
40.5834
-105.53
-242.551
-217.052
-100.501
40.6354
130.855
206.38
219.73
50.8073
-138.175
-226.611
-202.616
-196.046
-178.751
-140.852
-76.467
25.1574
119.052
149.68
127.831
60.8619
46.7802
18.6292
-80.11
-108.768
-82.3075
-49.4332
-26.0619
-26.4222
6.00832
64.089
34.0623
11.6621
-12.3099
-42.0424
-14.4192
5.91784
61.0983
107.13
96.9358
87.6332
70.6972
45.9204
31.7751
13.0423
33.8649
18.9305
-40.3545
-58.2845
-0.668231
142.64
210.165
186.688
205.806
109.487
-90.9343
-289.924
-348.694
-336.501
-309.568
-290.764
-212.345
15.4776
154.796
147.984
82.6355
82.4521
101.571
70.4964
-3.86055
-90.7046
-106.803
-32.059
1.04542
65.8208
193.821
315.23
275.144
98.3553
-24.6131
-24.878
-73.2631
-182.907
-42.7517
87.7137
25.4992
-29.2454
-113.025
-94.9955
-40.6708
-60.0149
-56.5343
-67.7946
-133.229
-108.589
-44.0421
-57.5804
-44.7549
64.6705
111.331
119.994
169.804
279.324
227.62
126.177
50.6354
-98.2487
-207.677
-168.197
-132.854
-108.813
-43.9458
48.4921
188.17
206.091
157.153
46.5363
-78.3889
-29.9575
-14.4887
-41.6969
17.0742
18.7714
-118.437
-242.398
-196.068
-132.392
4.4028
36.0323
-42.8635
-60.0843
-41.8174
-66.6047
-137.23
-138.563
-124.722
-79.6759
-1.54799
55.9989
205.764
336.177
318.313
225.048
154.343
123.102
104.321
152.731
170.262
69.677
36.9422
0.00378617
-130.177
-157.818
-143.217
-132.508
-139.844
-119.513
-32.3291
4.16192
-47.8162
-91.4818
-51.1176
-77.7699
-61.8504
-8.2655
18.1654
-32.3481
-76.6639
-48.0059
62.2366
120.711
72.4221
-55.8046
-108.614
-152.532
-165.868
-64.9289
74.7812
203.481
254.152
223.316
149.033
5.2287
-73.8617
-107.589
-21.6488
130.492
138.038
54.9353
-37.3598
-228.524
-291.279
-192.793
8.51779
211.792
326.822
349.47
224.53
-28.0129
-211.775
-237.193
-215.124
-127.785
-116.592
-113.375
-28.1377
37.3235
47.7954
6.89617
-14.9152
45.3677
128.5
183.882
156.203
44.2372
-141.72
-172.346
-107.691
-150.07
-166.635
-105.44
60.2911
244.934
305.468
307.314
191.477
38.7389
-32.4234
-34.2599
-84.567
-52.6307
39.4744
-73.9347
-365.589
-419.18
-201.323
-63.5705
-23.7296
102.402
151.869
109.544
43.2757
-9.53647
12.2908
24.6231
-7.64746
20.0459
-23.3617
-8.09303
86.3859
145.524
174.721
225.643
348.696
377.455
216.448
92.7093
-41.5685
-196.908
-293.62
-283.103
-263.77
-273.133
-276.162
-221.184
-157.739
-78.1171
71.8073
182.86
128.39
34.0669
-80.9071
-90.5095
-47.9623
4.42938
75.8214
117.468
118.003
41.406
15.2344
-31.9987
-109.427
-123.431
-84.8867
-68.2574
8.75254
114.891
163.781
89.6703
69.2855
173.722
197.474
195.403
201.479
160.909
48.5513
-151.821
-252.016
-150.979
2.69417
84.3013
93.0451
81.8495
123.134
87.5617
-9.58772
-129.808
-236.828
-243.543
-266.231
-334.424
-268.313
-34.6082
90.8164
75.4215
136.684
134.898
99.3256
49.3716
-52.9795
-116.26
-0.722326
190.791
110.041
-46.4795
-98.6447
-98.3464
-122.566
-182.36
40.8633
270.246
246.525
67.0146
0.335977
72.5899
115.453
104.82
103.122
53.3816
15.7176
-24.195
-204.34
-340.936
-278.865
-106.513
-10.9545
75.9106
159.267
191.454
113.447
67.2994
22.6583
-51.0496
-121.131
-145.846
-156.308
-84.2016
-35.0443
79.4968
185.836
214.982
237.339
201.15
124.793
97.8108
9.54118
-181.364
-203.022
-109.311
-51.8179
-36.5561
-8.64348
-46.7945
-98.5174
-156.909
-231.075
-208.662
-74.0986
68.7757
137.735
130.274
163.803
120.139
74.2915
70.9322
115.041
110.211
34.5097
-5.72887
-105.661
-162.436
-118.769
-45.1792
13.8297
2.1679
20.8969
45.4463
12.3635
-43.2364
-51.2059
-88.5385
-90.0386
-22.6756
-5.61033
-40.837
31.4235
173.848
179.667
52.7744
29.546
14.4883
-137.151
-200.898
-29.8502
56.901
64.5517
84.7207
66.4262
94.1376
29.9557
-84.2999
-125.274
-105.685
-56.7067
-60.8672
-2.3849
90.1986
138.635
66.2604
-52.2481
-53.9485
59.4285
139.771
84.1575
46.8788
51.4042
37.1879
2.73128
-102.814
-169.178
-109.33
-16.5568
-9.62212
35.2829
121.901
89.393
18.7892
-3.63548
35.0422
47.821
12.5669
2.7191
-28.2139
-169.957
-195.744
-115.072
-50.1147
22.7611
112.489
222.353
238.843
26.7897
-131.04
-210.918
-273.053
-293.533
-299.533
-184.978
35.6074
162.94
163.868
138.504
59.0178
61.0543
122.788
97.2394
88.087
114.367
156.843
169.421
131.271
55.6221
-93.1019
-125.478
-111.787
-211.933
-232.1
-97.8278
149.664
271.352
201.496
143.111
124.901
58.2163
1.01333
15.3623
-69.3496
-203.852
-253.911
-245.146
-168.083
-75.1094
33.9281
96.8629
137.523
245.399
292.832
191.602
5.70944
-64.4702
-139.559
-231.968
-205.209
-124.592
-127.323
-180.196
-117.86
57.5775
83.9991
29.509
42.9219
63.8311
-23.7084
-94.2605
-173.297
-186.741
-45.1637
155.613
215.833
123.473
82.4332
143.859
187.024
162.457
112.611
124.778
35.0889
-128.653
-172.16
-88.3593
-19.1449
27.0915
136.405
197.115
177.343
92.0279
-46.5647
-163.766
-219.199
-186.911
-39.0356
51.7113
-21.0382
-94.3555
-90.1187
-90.9666
-12.8178
19.2473
-36.1943
-28.5277
-34.5191
-73.3199
-65.4825
-37.797
98.1509
147.615
4.76101
-142.721
-104.702
103.612
206.632
193.936
119.783
3.49759
-74.0107
-157.791
-253.012
-185.242
18.6692
115.177
109.727
80.9554
63.289
106.778
82.1535
5.75012
107.726
312.84
220.76
-32.0341
-209.474
-288.248
-303.204
-216.025
-86.5804
62.8407
274.481
344.659
225.174
82.0102
13.5412
-79.723
-147.436
-250.108
-304.08
-122.346
-12.8835
-119.832
-72.4286
13.5194
129.592
171.821
190.308
104.612
-87.5133
-143.427
-196.949
-169.502
-98.8913
-108.151
-76.4928
90.8313
207.022
261.737
301.187
208.113
35.0657
-77.8272
-98.9349
-59.3309
-67.0649
-4.92351
88.4023
172.139
167.583
13.2021
-56.0637
-86.1205
-141.562
-74.7803
12.4788
54.5649
73.1071
19.35
-20.7442
-63.9321
-57.9737
-34.8793
35.0046
85.4566
6.27587
-123.427
-268.707
-322.407
-158.022
28.4242
145.181
94.6391
6.40154
-70.1365
-131.555
-60.1055
44.7302
164.351
233.815
260.537
228.957
106.419
-62.5698
-208.983
-221.762
-133.156
30.7454
145.305
150.107
146.412
98.4806
46.8384
12.5376
-32.0556
-41.4968
-75.7983
-155.064
-213.219
-190.712
-187.714
-121.882
119.99
268.012
245.904
158.974
77.1364
-9.10199
-45.5428
-90.3496
-41.7859
22.8638
24.4954
18.8685
98.2539
164.579
73.6164
-72.3076
-134.31
-64.7025
-64.1889
-97.1279
-161.006
-206.699
-149.954
-63.9361
4.24113
113.574
117.035
146.954
98.4961
-32.4356
-127.222
-116.533
-128.199
-153.507
-90.0217
60.7228
228.931
217.083
197.218
139.988
6.56732
-32.8923
-73.9401
-10.8235
103.054
139.017
172.643
182.213
69.7414
-20.6894
-9.37005
57.9813
70.9006
-35.9465
-129.506
-96.7792
-146.571
-302.001
-279.865
-149.351
-72.8567
-78.894
-75.012
-62.2784
-46.9085
-88.7618
-49.8525
9.41256
68.2872
107.604
130.175
124.006
135.143
147.276
122.378
114.305
100.712
93.2236
68.9914
-19.4397
-56.0922
-129.924
-132.319
-44.379
42.1482
86.7843
63.2119
43.2495
54.1997
-6.1631
-9.14077
-53.0082
-45.1893
25.2873
90.9906
80.6486
-17.3124
-57.385
-86.3874
-110.621
-112.301
-80.1254
-36.6701
-126.091
-240.099
-170.18
-78.5026
5.71479
116.698
92.6538
-42.1744
-98.6814
-101.497
-40.9624
43.2771
101.436
189.645
256.886
278.824
265.458
167.695
109.823
123.451
78.8201
-66.4757
-132.379
-11.6653
35.999
-46.2196
-26.1373
73.607
116.982
-7.06656
-123.414
-165.588
-236.42
-226.424
-192.637
-187.736
-157.56
-85.7416
-46.1237
-59.1507
38.0452
133.956
133.216
59.2062
-20.7811
-51.1301
-71.9453
-84.2005
-29.3667
80.3389
127.14
123.505
108.649
97.2006
115.849
119.845
-1.36357
-133.76
-145.766
-56.813
37.1953
153.741
217.16
215.728
174.194
73.4418
-5.00486
-39.5166
-57.3775
-89.0717
-167.588
-236.127
-149.955
-25.5034
22.8699
77.6965
133.462
157.355
89.2902
-46.4719
-149.241
-224.18
-206.418
-192.489
-184.38
-118.523
0.0497076
82.1263
77.3095
13.071
74.3537
207.681
177.515
72.5857
-64.5277
-150.095
20.0456
233.727
258.634
185.126
143.712
104.401
-63.6374
-221.737
-261.354
-229.089
-151.678
-18.4839
56.3184
143.421
183.891
35.783
-94.2315
-76.8132
4.73843
4.57616
-67.1962
-144.02
-111.219
-71.7748
-107.156
-101.661
45.2649
165.194
212.777
240.259
180.526
33.1576
-51.002
-79.3139
-93.4197
-45.8996
12.2142
-8.8532
-1.28704
10.9699
-11.2684
7.01339
41.2209
45.115
54.2394
42.0414
17.5603
-51.391
-142.042
-162.806
-94.436
-42.0455
-20.3037
-11.8821
20.8428
34.2005
37.7648
52.3551
62.4275
90.4412
64.2586
-14.0177
-91.7254
-85.8561
2.13041
76.4086
7.34717
-34.4616
48.4674
43.9721
10.5812
86.4391
101.334
35.4075
-60.9936
-69.2195
-56.1343
-66.0431
-64.8476
-10.9447
50.235
50.7593
34.903
-57.2801
-151.559
-83.3241
65.0376
185.871
223.702
124.419
-61.0598
-216.8
-260.452
-250.714
-142.668
39.2513
27.8673
-39.5785
5.0224
62.9393
85.0689
123.19
268.308
355.85
232.508
22.607
-114.611
-154.146
-170.033
-145.117
-27.4452
56.5464
59.2237
87.8011
121.148
58.0646
-70.8417
-41.6956
31.324
-80.4896
-151.164
-166.874
-158.401
-128.974
-125.462
-94.128
-77.0267
-77.6535
-14.7307
53.6328
194.736
301.48
306.188
232.086
1.36454
-137.165
-21.7696
-13.8606
-118.779
-154.95
-122.171
-4.48081
31.8988
14.189
75.8654
145.172
159.351
92.1613
32.9517
121.898
78.2015
-106.618
-72.7988
-7.03933
-10.0659
-67.8311
-82.1554
-74.3292
-66.4804
-30.1203
-39.7475
-46.4639
-37.403
-81.7429
-109.134
-54.772
21.7992
14.4663
61.966
164.635
229.343
164.858
-67.8686
-199.132
-188.515
-247.374
-314.72
-228.736
-18.4466
174.698
233.178
134.892
122.21
194.395
192.295
167.981
208.194
240.46
161.141
2.68463
-184.198
-197.565
-143.094
-118.642
-54.5743
120.204
210.349
109.948
0.397954
-35.2874
-76.8066
-102.233
-218.493
-263.929
-136.555
-8.03357
-5.94368
1.70228
-67.3488
-138.356
-83.2789
-70.0499
-56.0804
33.3783
106.313
105.979
199.11
242.673
144.122
13.9487
-91.6705
-153.968
-143.859
-106.138
-155.01
-207.101
-123.749
56.5961
141.626
166.94
193.198
224.499
212.278
153.863
60.5655
42.3576
95.1521
141.866
82.1483
-95.4826
-118.847
3.33895
164.46
207.273
171.221
-9.35442
-287.599
-495.66
-531.68
-454.868
-260.728
57.151
352.309
355.652
299.656
170.951
-145.609
-385.771
-316.807
-106.516
55.927
109.986
-31.2445
-59.5695
-7.64887
46.6914
150.585
323.19
442.412
320.645
48.1754
-229.773
-466.078
-536.052
-501.014
-334.982
-127.16
185.353
367.602
385.705
414.844
360.76
224.95
175.26
164.81
40.7354
-18.049
-8.74627
0.807679
30.614
55.7053
-11.4756
-140.417
-206.255
-121.919
32.2895
119.712
72.438
-50.3901
-171.789
-257.503
-226.614
-204.941
-252.022
-229.605
-136.587
-45.8903
-26.1533
-47.6778
-24.2048
-56.343
-9.76319
58.4562
196.509
275.004
245.098
226.5
73.814
-69.1517
-26.9802
-45.0231
-3.56098
175.433
276.616
224.261
200.734
197.539
97.4604
-13.191
-103.991
-130.721
-163.213
-235.822
-325.727
-321.899
-329.193
-290.775
-132.662
78.7508
189.749
190.734
118.112
101.667
83.9549
13.0427
17.4011
-14.0187
-13.8967
52.4241
105.341
122.426
30.4461
75.4942
246.623
213.707
145.408
200.735
143.379
-6.74502
-60.4265
-48.3644
-107.047
-197.486
-259.885
-241.715
-238.783
-237.891
-229.157
-189.283
-100.843
-4.08047
133.323
262.242
264.496
202.299
83.1843
-102.089
-119.78
-94.8111
-118.901
-89.7931
8.8916
30.2815
-83.56
-231.083
-270.242
-184.682
-96.8212
37.5667
263.487
439.97
487.734
476.561
402.587
254.497
126.731
-47.1536
-172.461
-249.375
-326.864
-399.156
-336.278
-93.2406
119.769
239.697
288.967
250.532
149.769
31.8827
-89.0036
-217.809
-301.5
-339.44
-326.26
-196.261
-28.2558
163.197
277.203
288.821
288.87
273.9
191.104
7.71968
-65.0498
-23.6075
-97.5285
-244
-210.765
-133.571
-214.615
-218.644
-134.118
-58.2841
43.6733
70.8852
56.1836
109.854
164.222
34.1546
-108.53
-42.2111
20.0869
39.9405
42.4402
103.281
230.246
282.83
139.822
-100.351
-111.116
-61.5972
-85.7028
-111.808
-103.255
-50.0897
-19.0792
-25.7433
-37.1465
53.906
170.348
183.18
90.4192
3.38918
-107.114
-195.279
-180.635
-86.3288
-15.1132
-55.6709
19.479
184.907
268.845
246.985
220.851
181.656
-1.90157
-149.598
-101.72
-32.345
-47.8359
-109.014
-125.974
-118.987
-155.274
-89.6024
-23.1659
20.1799
80.3401
61.5352
-56.5037
-172.285
-232.87
-183.057
-100.277
-33.029
72.5709
120.996
8.61951
43.9279
160.671
194.328
139.019
58.8539
66.4042
66.9209
22.209
3.06957
20.0639
70.4265
37.1525
-49.2824
-47.0145
-10.8502
-24.5872
-6.08755
-26.0729
-10.6951
-20.0471
-41.8865
17.7791
99.9862
146.202
111.951
160.595
147.069
-4.09893
-186.346
-188.156
-39.1987
-53.0967
-142.546
-101.05
-109.794
-126.95
-50.4873
25.9636
9.27985
-30.8166
-77.0853
-159.662
-203.335
-149.426
-44.5398
36.2998
185.194
260.402
186.211
64.9901
49.5697
106.941
125.942
81.2947
82.0883
37.2517
-104.897
-173.941
-97.9763
-7.80168
122.946
175.137
92.7121
-20.3106
-86.9537
-59.1739
-67.8407
-156.028
-43.0436
79.584
63.1527
62.3897
83.7982
101.513
99.1591
-10.4479
-39.4134
-25.0225
-92.051
-110.557
-184.577
-195.552
-152.4
-27.2114
96.9537
109.177
57.6379
173.838
202.836
75.5842
-44.7211
-49.7354
-46.7679
-48.1961
-52.9652
-5.42672
7.00869
50.6705
51.4901
37.9116
-32.9572
-128.331
-119.563
-71.2384
-107.524
-76.0607
-48.007
-82.1153
-59.0009
32.5744
62.8301
89.3493
108.836
142.989
218.019
222.393
190.622
139.125
84.4682
-54.769
-248.776
-361.588
-273.31
-85.5358
45.5828
-68.6425
-92.5795
110.919
216.398
88.3747
46.5606
99.5063
137.872
66.564
-84.5519
-103.256
-86.5893
-107.191
-136.565
-94.4878
127.181
298.343
265.881
95.1234
-3.71385
1.86913
-75.5422
-164.669
-167.57
-119.06
-66.292
-60.0652
-18.6455
-37.0371
-79.0393
-116.217
-54.5133
50.1644
44.4275
51.0715
78.357
26.5928
16.7914
-20.7711
-83.1036
-22.4937
33.257
55.2286
65.2822
68.0064
101.943
131.683
15.3037
-92.4058
-97.0323
-45.0001
-7.09981
-14.3443
-40.376
-10.7405
112.194
127.842
66.7753
22.3837
16.9387
26.0962
-5.71961
-18.0034
0.638669
16.5055
26.7803
-30.5349
-82.6119
-126.537
-104.172
-75.7892
-55.958
-10.7059
110.805
151.329
-11.9037
-1.6902
85.7846
146.561
159.882
-0.297758
-146.947
-93.1818
-100.597
-130.442
-107.039
-138.537
-102.169
29.4791
107.629
117.567
131.202
80.94
57.5561
16.2916
44.6571
68.9358
-83.1198
-233.027
-228.153
-139.006
-16.8613
-40.0398
-33.0221
99.5006
136.93
142.079
150.53
97.4845
-67.3422
-142.149
-173.073
-207.95
-132.727
20.6539
109.709
190.606
231.972
205.182
247.357
292.311
292.812
223.3
97.7098
70.1127
-60.0155
-320.689
-420.586
-359.382
-255.901
-144.449
-73.6272
83.7582
79.2235
-28.5716
-84.6203
-115.815
-182.109
-212.828
-155.458
37.7756
226.139
253.462
135.012
-60.7678
-86.8133
-41.3138
-39.3826
8.32659
175.951
254.936
146.406
-50.1808
-84.3881
91.9539
138.695
33.0177
49.2804
160.653
162.734
56.8344
-49.7951
-203.978
-249.768
-195.816
-53.7205
102.538
159.511
96.405
-23.191
-101.002
-30.3592
62.0909
131.495
47.6583
-58.4673
-112.932
-135.392
-170.902
-274.338
-243.566
-228.426
-154.652
53.1822
140.57
81.265
76.4434
163.543
270.292
197.022
-11.6332
-123.137
25.9354
121.909
89.0754
59.2271
49.9315
88.7433
65.7424
62.7664
29.3724
-5.47115
59.4652
137.79
123.103
6.81971
-50.3141
-83.3022
-133.821
-97.4864
39.6468
45.1683
-13.5668
-173.653
-319.794
-270.346
-163.468
-211.364
-304.221
-259.882
-91.6351
56.9024
214.227
330.502
390.381
314.74
165.19
101.114
77.5535
-3.14092
-78.5034
-18.5426
-37.9001
-221.196
-264.354
-94.9454
105.861
198.327
277.429
304.453
222.267
100.64
-60.3674
-274.054
-386.61
-283.021
-127.129
-82.2367
-41.403
159.541
371.606
283.325
-4.98535
-99.0597
-70.3045
-51.7726
-67.0432
-19.3551
112.979
115.151
-9.7468
-160.833
-361.009
-301.578
-40.2538
58.817
102.993
158.676
157.843
38.3277
-81.0166
-60.5338
88.2552
316.465
411.529
176.592
-52.8038
-96.7096
-132.326
-195.382
-226.53
-116.116
50.5455
-1.20459
-137.183
-53.4952
32.8555
-28.3401
-151.753
-241.278
-188.542
-85.7652
-68.4209
-24.6894
98.2953
305.19
387.158
304.457
212.097
87.1863
-44.1766
-134.601
-218.815
-240.392
-105.881
76.9
96.1884
67.6251
190.537
286.623
197.167
10.0272
-68.3076
-58.4278
-118.413
-159.219
-103.616
-2.17127
37.5671
85.4836
109.631
160.154
175.231
-0.948153
-225.203
-360.556
-324.28
-232.235
-152.609
-28.5318
125.939
216.64
246.936
197.228
28.0153
-159.773
-274.162
-332.588
-183.918
29.7749
173.013
178.461
108.653
161.436
87.3271
-11.6796
-0.863687
-9.75598
-4.12855
-31.5124
-92.6508
-58.0678
1.15714
41.3897
52.4062
51.1748
129.707
209.664
145.032
117.477
160.839
129.495
48.8993
-44.7823
-20.6499
-157.442
-455.509
-501.589
-160.79
107.297
153.413
126.045
40.74
-23.3588
-39.6922
-177.039
-261.442
-183.715
-86.771
80.8371
157.403
185.627
264.401
311.959
234.492
195
239.361
233.975
-64.5182
-260.225
-276.425
-291.851
-332.216
-324.407
-149.242
109.744
188.806
118.921
71.8261
-13.0648
-42.4531
3.33071
4.14025
-47.7899
-26.5477
-23.6433
66.7994
204.5
205.854
190.528
55.6613
-70.1182
-74.6343
-14.0652
-39.7551
-36.235
-22.3396
-39.9232
-50.2271
-26.9894
-80.6785
-113.831
-28.2767
-48.3599
-164.74
-131.511
16.0338
101.548
88.3809
171.421
204.271
84.131
7.76265
-82.8925
-58.3689
19.6864
7.47847
104.766
111.988
-97.2716
-224.525
-184.491
-198.045
-135.239
167.568
418.892
377.607
61.8399
-72.1665
-177.485
-230.442
-164.206
-50.8099
26.1183
77.0722
136.353
141.677
18.9887
-6.74261
27.9523
17.9191
64.9596
156.908
209.359
29.3865
-157.471
-251.305
-243.679
-193.277
-153.582
-118.927
12.4977
199.283
259.442
80.8993
-106.386
-122.766
-44.541
-64.5458
-157.007
-72.5027
-15.0564
-39.2277
-4.57311
12.7673
-31.2066
1.67727
77.5014
203.77
232.662
282.105
268.807
183.67
196.272
63.8233
-211.683
-249.566
-263.116
-363.778
-216.936
-27.835
0.743742
35.9111
156.375
187.766
110.703
58.4258
11.5393
-84.4637
-73.4639
29.0104
124.381
121.355
9.42983
-39.2466
-21.4087
-111.404
-247.124
-124.458
72.9096
120.079
9.45496
-86.6593
-38.1803
-77.2999
-45.0499
-19.055
69.976
112.475
75.6005
6.42998
-17.0433
-59.0243
-61.1656
-17.2947
-106.873
-187.156
67.1181
256.789
192.865
50.005
121.109
209.126
57.7763
61.9462
145.7
104.981
85.4382
-63.6397
-193.263
-275.352
-289.355
-269.698
-283.032
-80.875
154.042
176.943
145.702
-8.84784
-257.58
-351.875
-312.144
-247.084
-60.4741
200.612
320.082
318.642
196.394
107.173
69.5147
135.153
86.5805
-15.9435
5.74847
96.541
217.828
322.101
277.428
231.626
191.969
83.924
-94.5819
-188.073
-199.637
-204.075
-227.018
-272.617
-330.251
-327.784
-221.651
-132.102
-54.6951
37.4028
80.4318
39.598
-21.0171
-31.6992
-33.9549
16.719
124.969
155.499
147.702
141.639
42.2618
-39.7417
-120.873
-79.2793
39.7577
74.5629
39.2364
18.0542
83.5055
195.353
281.241
137.148
-57.6217
-119.371
-293.546
-305.665
-73.6139
124.193
201.7
125.682
-12.88
-81.4437
-78.0565
-91.6481
-17.8078
230.488
340.597
156.176
-42.046
-125.124
-298.583
-354.151
-186.149
88.9944
300.704
290.3
81.2389
-132.633
-221.031
-187.611
-141.43
-120.264
-66.1596
-10.7289
44.8813
63.5427
-14.812
-29.1718
-1.12285
27.5787
152.06
261.219
288.394
206.273
98.7851
-33.7452
-154.189
-161.692
-158.52
-25.7058
74.1269
-2.72252
-28.3852
-0.265663
-5.95388
-129.295
-138.522
-15.3773
90.3382
-35.0915
-116.778
-37.4433
-26.8536
-130.016
-79.1023
23.9581
77.8083
182.459
244.483
108.306
80.5142
211.587
154.239
46.9982
-25.3705
-69.2842
-154.906
-281.465
-219.489
-58.6647
-7.36128
16.0616
78.1408
101.051
51.5576
7.14736
15.3405
12.1476
24.2481
-75.2804
-117.405
-71.9968
-11.3709
-64.2381
-34.4488
49.7075
59.1844
84.8814
13.0535
-53.0922
-36.5023
48.3641
134.621
123.859
17.9499
-21.5993
-7.85653
-6.871
-56.0918
-137.666
-192.863
-88.2488
-19.2638
76.6593
148.094
143.768
135.491
78.2793
-51.8465
-45.682
-35.3876
-109.261
-168.313
-151.915
21.9605
172.144
175.814
147.245
131.233
188.655
87.1631
-235.463
-326.589
-150.034
-15.8044
-25.8054
-19.1116
115.193
209.157
163.286
109.795
46.1408
-8.67845
-88.6602
-215.788
-336.105
-296.298
-144.146
-77.1648
42.4752
192.072
249.702
225.947
124.104
-73.226
-170.871
-134.134
-75.1378
24.295
128.841
119.936
33.5779
18.4395
65.4399
69.5213
55.6009
33.3227
-20.3997
-9.98896
15.4982
1.01803
-27.0408
0.569734
-7.62796
11.3851
51.9733
40.9349
16.1052
-124.367
-226.788
-199.303
-104.983
25.5795
109.117
165.091
199.51
182.267
108.047
20.689
-43.4129
-70.7846
-167.137
-276.018
-144.26
-59.3721
-103.491
-84.4167
9.08957
116.214
153.908
145.986
120.972
-7.00518
-111.303
-161.272
-110.915
-21.9903
-3.1975
-40.1573
-95.7595
-108.521
-1.71509
134.303
179.272
241.238
325.95
260.31
63.0259
-82.0179
-36.6183
33.9777
51.8446
27.0257
23.7529
-44.6878
-245.184
-256.401
-135.702
82.5135
222.956
170.199
144.757
179.181
29.0249
-140.593
-199.166
-218.89
-262.249
-226.863
-193.32
-242.203
-220.642
-171.704
-115.444
40.0461
250.499
344.091
288.831
150.681
69.5709
8.33407
-94.4555
-146.442
-93.7716
-65.0731
-7.54784
89.649
230.398
356.964
350.64
334.869
253.618
143.562
30.8773
-182.68
-273.653
-179.38
-166.762
-99.8691
113.56
246.441
193.138
-32.736
-279.623
-392.614
-497.915
-533.652
-339.238
-184.351
-101.012
52.5614
157.015
188.99
158.422
190.297
185.62
40.7785
22.3933
-22.2449
-190.291
-109.577
230.133
393.722
371.3
301.057
225.347
159.277
-52.1219
-186.145
-181.544
-98.509
-54.5057
-34.9973
34.7502
92.1914
159.593
101.191
11.2349
-101.956
-213.292
-195.049
-215.251
-163.534
-72.4832
-1.22907
99.6896
94.0144
12.8609
-31.952
-61.7587
-152.631
-219.958
-122.573
7.75052
107.921
70.9332
-12.8759
-115.61
-151.33
-11.2255
-39.0046
-112.28
26.134
225.276
345.647
343.124
313.455
264.204
68.8758
-128.114
-74.7097
74.5752
119.798
-22.7135
-109.204
-154.849
-224.125
-95.8682
140.052
292.621
250.025
141.343
-17.6118
-187.394
-417.946
-566.055
-477.295
-183.463
89.7522
240.199
177.012
60.9438
-32.6422
-11.8212
89.0473
86.95
-19.1867
-112.452
-68.5261
58.2203
32.7468
-129.972
-124.296
92.4267
232.329
198.827
155.837
188.84
150.436
51.6856
-30.2005
-76.069
-75.8821
-32.3813
-21.4618
32.3663
57.0501
75.5947
41.4941
-84.8621
-105.086
-35.6273
-25.0345
-137.51
-141.821
-28.696
-61.3961
-146.123
-62.1588
1.33967
-104.388
-51.3947
91.5548
124.926
106.118
135.494
230.788
170.26
-72.4431
-242.674
-115.311
86.3378
101.189
150.632
183.53
62.082
-53.2024
-233.619
-199.462
-27.1999
51.6103
-19.6743
-92.3935
-84.8167
-174.471
-200.008
-89.5896
-8.82393
-3.85153
-108.736
-6.99517
304.735
413.721
212.857
33.0472
90.5283
178.28
185.942
70.2569
-28.1388
-76.3304
-196.342
-267.959
-144.98
11.0577
39.5163
83.6592
173.809
159.137
100.128
-69.074
-312.125
-391.609
-238.174
14.4638
124.581
118.906
77.248
26.75
-3.78334
-2.73267
32.3562
54.9639
25.7325
-64.9672
-211.53
-283.81
-201.594
-90.7215
4.84773
99.3325
121.523
145.875
159.535
126.687
123.727
111.436
64.328
-4.27708
-32.2041
-4.08069
-12.1874
-8.69428
-59.6157
-7.54819
109.882
179.249
143.763
249.065
247.28
40.4444
-136.454
-253.091
-290.428
-197.135
-25.4896
64.263
96.3819
96.8945
-29.1559
-31.5906
36.9675
-60.2303
-144.702
-213.552
-251.302
-132.496
-105.893
-137.157
-84.3552
15.6459
61.9103
106.959
189.505
201.63
71.6924
-47.866
-90.3384
-115.37
-130.046
-115.869
90.9972
321.319
331.669
263.367
289.288
215.413
118.451
-47.1238
-170.498
-151.8
-89.4991
-116.008
-186.261
-136.27
-101.449
-25.1408
48.8195
106.29
219.16
91.3135
-195.372
-316.901
-279.914
-132.485
-39.5479
-126.06
-198.647
-51.2485
213.813
251.938
212.452
252.914
194.421
57.513
24.2519
58.5278
160.242
152.785
-35.3389
-158.064
-231.753
-261.544
-153.72
-44.6936
97.8412
211.304
281.786
201.676
18.7526
-59.1446
-70.2391
-230.13
-345.921
-295.783
-144.012
-76.4052
-81.2069
-27.5691
29.6157
66.1862
182.099
374.183
388.969
163.306
-102.679
-284.924
-195.241
107.292
196.936
117.953
-20.3767
-71.9006
-59.455
-48.0696
25.0377
61.6962
23.0254
-52.213
-142.609
-87.7342
102.69
88.0925
26.1112
-44.9987
-75.7611
-52.6566
-76.3296
-187.713
-108.852
65.8179
117.438
190.796
304.316
260.195
54.4652
-88.255
-190.999
-185.873
-50.8028
29.4971
47.4966
32.165
31.1134
40.0258
-51.5868
-182.026
-361.273
-470.465
-236.33
14.0511
95.0482
155.112
244.889
233.813
180.86
215.562
211.732
115.46
75.2833
73.3556
-91.5209
-155.64
-147.548
-201.782
-163.505
9.59827
205.203
322.592
240.645
99.1502
38.4117
17.3906
-166.59
-364.022
-303.048
-154.78
-75.6468
-40.2906
-2.36429
88.1134
191.771
173.749
36.9112
73.2628
154.143
130.771
54.4372
-18.0251
-205.11
-348.352
-380.431
-276.168
-151.32
-37.7944
60.9896
58.051
-44.9906
-46.4566
1.18394
53.8117
228.171
323.479
238.73
225.449
257.186
183.322
95.1602
64.7968
-1.16548
-67.4878
-92.1959
-128.905
-115.094
-27.9141
-26.3941
-74.6884
-24.5933
81.2702
172.555
146.23
-48.0913
-199.992
-122.662
-56.0904
-107.619
-160.398
-258.43
-338.254
-288.579
-129.429
126.721
202.238
154.826
167.272
157.353
148.442
149.486
0.080118
-165.711
-198.266
-226.373
-213.288
-104.49
25.012
158.855
323.081
394.536
377.932
376.539
277.579
48.674
-85.1029
-135.56
-182.309
-136.969
-174.492
-212.302
-108.502
44.5398
74.9036
46.192
29.1731
-71.6449
-130.082
-166.292
-127.813
34.8806
128.523
72.1039
-64.1175
-109.691
-141.701
-56.1462
-83.9978
-251.562
-166.992
47.6157
159.858
213.95
250.643
297.727
221.544
115.213
2.59766
-44.4784
-92.1364
-206.773
-263.299
-200.301
-86.8629
84.1023
271.462
347.246
314.96
129.203
-111.618
-239.451
-127.272
4.5547
-1.11528
-24.6954
-162.291
-270.353
-206.865
-195.35
-159.321
102.98
236.932
188.883
191.978
185.071
123.95
7.51595
-25.9155
-13.3007
-38.5653
-64.3806
-175.766
-143.031
-92.6786
-160.14
37.6342
344.717
460.885
407.742
269.34
32.8956
-196.793
-223.661
-183.52
-208.788
-238.711
-245.221
-235.393
-112.913
126.059
184.257
124.412
-20.9363
-54.6309
-14.6029
-54.2957
-41.1561
-19.2939
36.7013
19.5474
-67.2126
5.86566
25.8533
-91.1061
-77.0073
72.5252
165.36
235.483
265.472
165.107
115.837
-22.325
-182.426
-222.495
-198.815
-128.501
-5.98475
-36.6267
-56.646
74.3216
90.6407
48.6104
72.1301
151.154
148.277
84.0578
52.408
-94.8924
-141.159
-14.229
108.143
179.501
129.06
50.7507
8.6262
-43.9698
-98.655
-142.71
-227.478
-251.564
-104.486
-78.7807
-117.645
-133.074
-119.16
-62.4381
60.0745
255.236
339.357
302.432
192.929
47.6501
-67.1792
-137.851
-207.187
-221.513
-177.724
-100.524
32.5911
55.7513
-44.0955
-59.7446
-64.0614
4.77545
162.329
141.92
62.1874
84.8022
145.824
91.1586
-6.77164
-52.9903
-165.037
-143.468
49.4044
141.47
100.8
124.534
144.529
173.337
178.423
111.733
74.3811
9.6459
-135.136
-256.544
-297.546
-200.319
-165.084
-99.4201
6.03722
27.6974
129.948
148.588
32.435
20.4264
-48.2407
-72.4575
-35.653
-21.5126
63.2791
110.823
47.1432
-6.27367
-137.679
-126.411
-88.4175
-159.934
-242.873
-287.525
-184.366
89.4474
217.055
219.281
322.62
341.59
187.108
-24.8107
-171.623
-198.306
-259.939
-201.499
-33.8265
174.586
319.964
345.695
289.01
172.851
116.606
51.0506
-14.176
-99.9175
-80.9568
-57.7746
-172.748
-200.815
-52.8399
86.4509
112.253
53.129
-11.4147
-91.2427
-156.188
-250.154
-335.163
-317.085
-178.101
-25.1566
76.6636
239.034
415.166
432.699
289.39
83.8592
-216.351
-426.066
-523.778
-510.986
-285.339
27.4905
291.791
432.765
361.428
301.654
302.47
196.641
14.9509
-118.777
-155.88
-201.096
-140.394
-91.0236
-40.0795
95.618
238.451
266.486
248.253
122.958
24.2836
-135.969
-358.227
-360.278
-142.65
0.474698
82.4963
121.244
142.383
121.433
-10.6174
-47.6426
-170.654
-237.406
-184.675
-143.087
-49.8022
84.8873
50.5019
23.0935
-15.0011
-64.7491
125.682
250.98
227.591
201.14
149.713
98.9593
-45.5426
-172.266
-142.555
-136.944
-199.785
-162.258
-62.1619
-81.9543
-88.0232
-33.7977
67.5106
228.572
245.377
125.649
3.20694
-134.541
-138.817
23.9221
147.864
77.8301
5.67658
19.0153
14.766
-23.9618
-52.8666
-6.92766
69.6052
114.491
149.89
34.1261
-106.917
-160.559
-103.349
-76.4296
-133.644
-116.468
32.5856
9.31409
-132.035
-40.6721
105.698
116.351
44.1612
93.3185
176.178
52.8067
-25.1021
-48.1134
-51.5819
-8.01349
31.4713
93.1455
47.3097
13.8772
23.9898
-88.071
-328.443
-329.503
-115.299
-51.6633
-34.383
-5.1037
115.654
185.491
184.005
143.67
35.7757
78.8652
94.2925
78.9413
93.9543
53.0823
18.6067
29.3793
43.8108
130.92
126.451
-15.2353
-107.437
-66.5975
1.56388
41.5158
-36.9284
-264.42
-410.051
-324.741
-187.14
-104.943
-53.0486
-25.4093
73.1105
158.558
174.31
197.852
253.854
279.378
212.06
-91.0132
-439.094
-466.807
-340.816
-174.452
104.034
386.979
475.152
429.288
229.091
7.73335
-125.934
-292.39
-274.544
-133.773
46.7608
85.3399
-78.0932
-150.3
-75.8492
19.7174
43.3863
44.4973
100.541
148.957
109.766
67.7205
55.2247
107.526
107.219
116.496
73.183
20.2944
-41.0958
-166.35
-259.08
-177.989
-22.5611
-11.8246
-141.287
-74.8301
59.7454
52.8173
54.5504
86.7964
73.7335
-37.8795
-84.5731
-144.004
-126.978
-102.236
-59.0386
77.6451
194.857
240.45
249.036
156.035
-128.296
-268.995
-147.244
-84.9992
-144.723
-139.369
24.5563
21.7722
-32.1518
13.5926
64.2166
99.9405
176.744
159.673
126.452
96.574
-79.3901
-263.359
-297.658
-208.779
49.8489
267.099
319.514
322.454
333.597
191.425
-113.536
-254.128
-239.642
-280.289
-273.758
-96.8989
25.5587
79.5026
95.3335
132.249
187.145
157.532
58.2074
-25.6376
-84.9366
-124.497
-46.4058
-32.6257
60.8072
94.6091
-20.4675
-82.9592
-94.5593
-8.90425
24.2204
-95.9012
-162.014
-122.192
-59.8081
-42.8478
-46.0509
-41.4623
-23.2058
-9.56919
-5.17671
95.1604
173.386
159.767
66.7774
169.549
287.009
160.322
-58.7821
-242.905
-280.137
-323.53
-368.771
-236.855
61.7332
178.233
162.765
244.786
200.44
145.18
145.472
95.0657
23.8829
23.8681
57.8407
16.9847
-99.9805
-105.328
-6.74903
101.649
136.908
132.127
114.278
87.5111
-67.9027
-106.475
-121.542
-226.317
-128.056
-6.95626
10.5465
-13.7442
-114.153
-97.3223
-106.424
-180.304
-188.236
-25.9952
18.592
-108.379
-127.271
74.5213
179.341
149.881
158.478
170.406
151.534
101.553
55.1979
28.3435
-3.76653
-52.1327
-85.9194
-141.509
-124.533
-124.524
-168.913
-151.911
-3.77588
167.191
263.974
241.3
203.131
141.497
86.4263
41.5383
25.2239
-56.4292
-213.786
-286.016
-152.788
-44.2066
-23.7643
32.4769
126.769
188.017
181.004
183.66
96.9739
-47.2854
-100.771
-94.8741
-65.6939
-64.2312
-164.256
-245.978
-205.545
-45.4296
60.701
68.3533
-45.9113
-160.082
-91.5849
0.585166
138.097
299.509
288.081
95.5444
-45.4347
-138.78
-187.686
-89.7243
-7.88234
49.2777
94.2861
46.9168
-49.4406
-166.07
-332.121
-226.993
124.494
297.309
281.087
192.701
215.474
138.498
83.6128
64.7964
53.2495
58.7517
-32.4885
-47.0168
-16.0943
-46.0776
-62.4858
15.3695
19.1669
-62.201
7.38524
9.40575
-101.87
-84.3907
34.3619
96.5062
-97.9109
-314.866
-410.74
-363.53
-248.599
-63.2249
99.5933
62.2147
4.98183
20.3047
50.741
92.7403
142.017
250.275
275.023
193.27
37.8106
-71.4383
-108.911
-105.04
-98.996
-30.4875
166.313
348.353
409.089
368.611
183.165
-30.3872
-186.717
-352.914
-469.511
-421.368
-174.268
140.552
184.096
172.61
111.562
24.4735
-88.6221
-185.942
-167.181
-105.991
-39.008
15.8633
79.6777
94.3548
33.9846
32.6012
122.629
169.737
168.347
103.051
9.70716
-27.3802
-27.9937
-58.1975
-50.489
-49.6859
-80.267
-95.8659
-41.9157
15.987
-40.7855
-126.772
-242.022
-346.107
-282.048
-179.101
52.2249
273.03
443.485
509.307
463.033
261.211
78.7769
-114.55
-223.253
-238.743
-243.386
-227.241
-156.441
-76.8323
72.1322
134.212
81.3546
91.0429
95.3621
37.9283
-100.561
-169.175
-91.645
15.4765
15.577
17.8953
77.0314
129.742
54.7016
37.66
114.64
104.688
-7.56812
-26.7045
-25.8523
-99.0196
-161.472
-122.629
-15.3588
103.897
199.065
193.758
115.236
41.508
-61.7455
-164.881
-140.388
-47.8794
-35.6871
-98.7876
-107.731
-66.9582
-132.986
-226.357
-229.54
-83.7294
123.801
264.878
266.942
176.858
46.1597
15.5396
-63.2831
-208.587
-190.421
-102.748
-12.339
45.2855
190.879
310.308
300.393
296.386
223.782
174.834
119.133
-1.95772
-48.5983
-58.5363
-160.317
-302.234
-346.486
-289.409
-198.925
-77.2662
41.0072
83.2052
54.3628
4.98128
25.0395
-39.0249
-94.2548
-70.6759
-19.0562
-88.7674
-119.603
-38.8851
11.3077
-106.915
-22.4149
212.753
204.807
98.6755
163.491
212.809
96.8789
12.948
-29.827
-40.6768
-107.629
-62.3806
14.4329
63.2457
98.7978
128.952
114.087
34.8102
-85.2723
-75.1065
-9.47687
-26.251
29.6895
125.145
91.879
25.3711
-24.5288
-37.5389
-75.0083
-141.618
-76.4764
-19.5871
-25.7106
-52.9788
25.1594
-20.3589
-161.614
-238.903
-193.287
-67.8321
71.7726
93.2862
13.0776
-37.4367
-145.204
-355.341
-211.354
38.4016
170.955
185.372
160.144
154.237
171.368
137.246
89.907
160.26
295.936
248.601
143.023
83.8205
-51.2132
-175.978
-172.366
-129.782
-66.4281
90.2744
126.837
74.0456
4.13052
-22.5991
-41.1525
-7.47856
-33.7391
-107.342
-209.726
-295.581
-299.039
-174.752
-54.0951
68.6384
224.676
264.069
107.832
-22.7212
-81.2205
-115.12
-145.808
-114.773
-33.6646
-33.1495
-23.7082
35.6847
70.7744
3.1847
-42.4705
112.849
191.588
173.864
236.189
132.964
-150.146
-151.199
43.3118
85.2094
67.8076
74.2204
-24.6057
-148.806
-189.501
-102.759
13.629
108.076
190.069
184.363
146.73
101.018
44.3188
-83.7619
-163.631
-97.6353
-79.373
-99.337
-60.4335
-15.459
34.7922
46.6103
-1.8823
-127.554
-135.756
-4.60677
38.0331
-44.9042
-142.947
-56.7168
45.3106
121.77
162.401
180.998
48.3711
-238.221
-340.405
-327.59
-342.93
-201.347
98.4439
208.683
184.753
214.936
198.024
150.437
255.047
236.994
55.7373
-65.6943
-21.6401
-1.49219
38.1083
132.599
192.723
212.86
109.102
-86.65
-96.8838
-34.1277
-88.5716
-196.942
-198.5
-168.335
-50.8939
32.5965
-68.0569
-108.203
-52.4718
-2.1301
47.1621
34.3075
-40.6081
-117.476
-153.029
-79.1015
33.6717
135.717
175.072
149.283
38.1303
103.682
151.187
103.085
-23.8545
-213.256
-361.323
-387.147
-361.683
-257.877
61.4937
212.991
167.794
116.146
187.889
212.081
89.8847
28.455
37.4541
-1.19944
-179.082
-235.098
31.6536
307.977
389.761
357.423
319.918
239.212
137.256
95.9669
-69.5492
-234.09
-256.667
-196.569
-199.248
-119.158
36.8431
120.211
105.298
12.3343
-20.4157
-125.598
-393.342
-505.423
-449.636
-269.48
-54.4564
109.982
194.132
171.97
30.5865
-34.9116
37.4344
96.7544
75.5747
37.8593
50.3703
40.8231
157.561
264.275
225.808
189.225
116.208
23.2237
-44.1577
-103.193
-229.022
-141.558
-70.7778
-103.946
-107.812
-92.5272
-53.8876
10.7892
101.123
141.031
128.37
118.114
20.2464
-8.31955
120.438
211.68
249.826
170.306
8.29407
-80.6461
-129.061
-301.9
-258.923
-61.7112
43.2232
40.4053
-44.2363
13.1676
26.5892
-67.198
-95.4402
-35.1509
39.66
-32.77
-133.939
-103.11
-88.2637
-61.2915
-37.0545
-45.0068
21.413
43.4883
11.7328
15.7094
98.0435
225.936
180.145
-19.7574
-82.5492
-95.8837
-105.589
-91.6694
-80.7105
73.7449
213.212
256.399
185.825
10.5888
-3.93207
-132.607
-377.892
-253.717
65.1022
155.172
144.133
107.887
97.9646
85.8147
46.0822
45.5117
7.70281
-45.3784
-31.6124
-42.652
-11.3572
-50.9939
-5.28515
116.302
138.42
178.044
192.368
68.5909
-120.783
-241.807
-280.38
-206.603
-118.323
-78.9551
-44.6283
-8.08454
49.7763
108.826
-17.0894
-198.412
-308.728
-300.787
-165.209
-28.8288
106.065
299.766
419.712
299.576
171.048
109.831
-75.7989
-210.319
-181.406
-129.597
-35.1805
108.274
239.542
270.141
319.319
324.34
201.117
69.9179
-66.0558
-184.522
-378.434
-550.544
-431.839
-167.571
-28.835
75.1957
216.946
241.905
115.51
76.6076
71.6375
-40.8413
-194.653
-283.855
-246.862
-187.911
-112.842
37.3858
132.111
169.489
356.342
499.309
405.76
177.579
56.0006
32.5353
-44.0935
-117.205
-50.7608
-15.7135
-66.2162
-115.774
-167.615
-102.49
-121.429
-188.685
-186.171
-211.778
-189.832
-123.611
-43.8382
91.231
206.853
237.168
138.497
-83.2177
-180.223
-148.86
-62.732
-26.3443
-57.3954
9.8927
163.232
151.061
143.647
180.571
167.467
97.7326
26.5431
-9.56063
-42.0548
-37.9977
-4.72699
-87.951
-150.534
26.99
136.689
126.262
75.4248
120.115
180.305
131.787
54.1021
-59.3922
-144.655
-116.053
-66.7804
5.53906
49.0353
24.1049
-144.934
-266.157
-306.747
-192.369
-11.4591
11.557
-3.37998
14.695
-67.0851
-122.056
-102.984
-62.3549
-55.5048
-39.6066
9.1132
19.9861
56.0012
100.076
163.593
253.119
314.216
275.065
264.893
242.128
66.5007
-41.6137
-24.6345
-21.2286
-43.7301
-144.203
-193.193
-68.9649
-9.23705
19.0406
-46.8559
-121.39
-108.887
-69.5395
-55.1844
-53.9391
9.86892
6.70521
-164.131
-307.064
-214.844
-49.8126
27.5776
-44.5255
63.4635
157.995
97.2092
-33.2975
-19.2898
83.2645
132.716
133.154
180.901
183.19
170.775
186.26
87.9051
12.8673
31.1296
71.3776
84.36
-3.57182
-98.0881
-56.0515
-15.5603
-5.12886
-50.0768
-47.5056
-24.9622
-102.583
-230.911
-326.139
-394.007
-321.798
-155.529
-37.4389
95.8113
228.854
248.317
151.761
57.4012
42.8715
50.4249
72.7638
18.2034
-49.0334
-22.8185
-16.5099
-3.16265
32.9805
76.9946
104.181
134.789
213.57
175.566
100.527
-16.7787
-144.407
-249.561
-270.072
-181.041
-98.284
-6.88306
64.3031
70.6503
74.6102
76.2212
129.447
158.721
12.9505
-64.9133
37.4854
26.0787
-63.1984
-177.067
-178.768
-140.933
-154.61
38.8387
254.172
181.27
53.5138
-76.1605
-178.668
-58.4101
91.3148
85.6963
-33.3803
-116.438
-86.7543
-31.9674
44.6934
190.461
249.169
257.225
129.264
88.0959
128.27
48.827
-70.205
-136.174
-198.708
-196.631
-170.744
-165.323
-151.363
-49.7331
95.3303
98.6664
45.0402
73.2251
74.3065
-23.3605
-205.73
-228.856
-82.9476
-59.7099
-166.143
-148.028
74.3052
192.356
186.688
214.541
185.553
76.7577
68.8589
109.291
54.3425
47.3447
129.267
121.904
-109.742
-269.771
-236.156
-203.65
-185.273
-72.1428
70.8101
158.957
79.928
87.5237
168.012
100.452
47.0932
-11.857
-69.1719
-159.633
-118.265
45.1412
174.649
234.39
262.233
201.802
54.1573
-74.6121
-140.973
-202.55
-114.648
-67.6857
-139.637
-194.687
-215.562
-181.213
-82.1083
18.8019
80.3393
100.739
17.5943
-98.1393
-198.618
-287.117
-123.365
82.8588
203.062
274.44
241.739
169.564
46.7884
-51.5097
65.8574
194.89
220.754
293.517
314.317
112.573
-147.697
-243.775
-275.215
-334.023
-185.317
-19.0825
13.7746
17.6619
10.8516
-65.5612
-124.958
-53.9172
47.7921
129.746
139.333
96.5642
51.0027
-26.6813
-107.652
-76.3433
-11.6706
20.6037
48.6675
83.9571
83.5235
55.266
-30.3171
-97.1467
-82.1378
-17.9287
18.7248
-32.4222
-56.1505
-9.10718
-135.729
-253.699
-173.393
-90.1262
-31.0665
44.7451
106.603
118.918
104.236
138.091
91.0906
54.7251
94.3655
125.116
144.556
254.344
277.121
105.709
-57.3401
-242.87
-244.019
-128.861
-57.018
-45.2175
-37.2009
13.654
74.8652
117.09
94.6694
63.0221
-20.1319
-131.679
-224.1
-375.446
-461.966
-430.534
-360.947
-74.8802
251.385
403.059
375.777
304.49
228.364
148.943
99.8137
89.4855
11.8408
-41.409
-10.332
16.9673
34.882
43.3703
26.5847
104.6
149.093
86.9261
34.9071
-13.5234
-151.52
-207.406
-167.034
-61.604
-33.4955
-44.669
-66.3709
-75.3151
-67.3011
-61.0279
-0.304199
8.81716
-18.6397
-10.5517
-14.2355
-27.7591
-89.0568
-94.1441
14.5667
117.184
154.63
70.9459
13.447
-64.6228
-143.465
-153.655
-64.5873
28.6255
114.701
157.286
158.188
157.056
172.978
77.8206
-93.3531
-74.3558
106.414
161.249
52.9704
-75.3221
-136.661
-165.79
-160.637
-93.3915
-0.548274
42.2876
-9.12305
-60.3253
-60.252
-62.986
-48.8015
-13.8783
22.3508
86.5533
154.167
153.332
157.973
91.9775
64.6501
23.2545
-69.3805
-49.5824
-16.4034
-84.2097
-158.124
-137.208
-30.5568
-3.88703
-1.07551
16.7382
-19.5079
-75.348
-113.862
-57.3466
47.2722
100.395
55.663
30.7338
30.2337
50.7783
46.9721
65.2104
89.0971
138.114
164.406
129.086
1.40188
-134.337
-279.1
-298.659
-134.958
28.9101
18.357
84.8934
149.771
66.2449
-41.1681
9.89729
70.8792
112.709
85.8474
-28.3637
-146.124
-193.279
-143.235
-82.6886
-57.3832
24.2564
108.805
67.5928
-21.7165
-103.64
-107.55
-103.07
-15.4724
126.408
215.514
183.928
19.5541
-129.877
-234.255
-226.477
-20.7927
165.414
196.095
158.312
152.107
162.873
146.977
101.572
50.5833
51.4419
90.0655
9.88549
-77.9111
-116.054
-162.234
-210.646
-153.159
-66.8623
107.865
205.373
135.73
-48.654
-214.365
-186.683
-53.456
2.43201
4.06246
20.0117
6.76493
-52.8912
-60.0725
-71.3187
-145.896
-192.886
-99.1741
-39.7702
25.6079
31.5029
87.3889
206.994
189.551
188.387
300.341
257.688
95.3795
-32.9283
-101.165
-142.539
-175.564
-166.229
-183.492
-158.717
7.31343
191.663
171.065
-7.23063
-119.196
-65.4774
-49.5077
-67.3199
-33.1614
-4.46158
12.5025
19.0611
45.2614
68.014
81.742
105.179
149.109
161.034
163.325
168.904
101.962
-60.8707
-165.382
-92.9571
-47.309
-63.9529
-50.6245
-40.0928
-49.1617
-82.7767
-138.274
-158.114
-171.28
-148.318
-102.186
-40.8231
7.8608
81.2026
214.924
292.344
111.31
-54.1155
-47.2694
-71.0306
-74.6902
-40.3806
-18.4257
-30.2703
-79.7584
-66.2501
-16.5686
29.1753
102.091
144.65
156.782
158.137
127.284
61.9558
5.7309
-63.9324
-41.4848
-20.157
-44.9654
-50.5237
-86.6564
-75.7333
-76.8113
-21.4991
152.929
251.539
296.136
231.51
80.4287
-91.2698
-250.114
-290.03
-271.512
-311.139
-233.453
-105.814
-60.3858
1.7337
40.4107
96.1971
217.356
238.223
187.59
111.485
-2.99268
-65.6309
-154.586
-197.027
-132.288
11.5767
163.215
172.994
85.5979
56.7127
-4.48208
-58.812
-11.6414
43.0714
-3.84639
0.432671
61.3312
65.7392
48.7624
8.30377
-25.8584
-28.3133
-43.6935
-31.3921
-11.0965
-16.9741
-19.4629
4.1924
0.379876
-9.3305
-66.4203
-66.0846
-30.293
-24.3262
22.8232
59.141
29.9747
2.86391
-16.3151
11.9037
21.6111
-15.2913
-72.6285
-115.675
-97.3354
-49.8056
-84.0112
-75.704
34.7111
169.376
210.937
187.105
135.246
44.8042
-50.5809
-165.773
-202.332
-141.749
-76.1796
-58.7706
46.9648
148.354
132.517
135.794
88.5159
67.7745
112.704
84.0105
8.04805
-78.5456
-121.428
-120.254
-79.9847
-15.6573
58.242
81.8878
37.9983
-48.4914
-83.3174
-52.3882
-29.8642
-28.8345
14.3494
68.8565
55.0426
43.4346
-4.7676
-53.9377
-88.8551
-95.0703
-91.6062
-72.9423
-46.2568
-24.3553
-2.55119
56.3867
104.219
115.632
81.6473
46.7178
12.9983
-68.4825
-74.8427
-48.9064
-3.45853
2.44244
40.4702
98.8538
128.777
135.954
87.9582
-3.59596
-67.9286
-98.2803
-127.92
-97.955
-64.5337
25.9063
89.6212
58.9572
-12.7108
-38.534
-30.2975
-33.9602
-27.0901
-26.4652
-23.2611
-19.119
-35.6056
-46.4442
-35.1998
-24.2186
-3.94695
53.2612
107.498
113.947
76.7025
18.6498
9.00751
10.8788
-8.39783
41.0813
53.6338
10.8954
-29.4255
-80.9542
-116.51
-127.64
-57.0697
12.5664
60.0375
46.1075
48.1901
51.4802
54.1458
42.7127
32.0147
13.9902
-16.1312
-3.39944
-26.6598
-46.1597
-42.0239
-9.06232
16.5587
23.2578
39.5449
49.3648
33.3557
-6.57065
-14.272
-18.003
-21.2859
-41.9596
-45.7304
-19.7651
28.5222
14.8666
-19.77
-52.2119
-73.4103
-90.0815
-98.634
-74.2138
5.64439
28.542
52.8236
63.1733
50.1677
47.443
22.8814
9.70738
-5.67141
-29.5883
-19.8164
-21.4364
-44.1195
-35.6394
-2.41732
39.6511
90.4926
76.4324
62.77
48.9571
22.4762
28.2095
24.565
10.5714
14.0805
7.60205
2.07052
21.0586
24.6794
25.657
-0.0360104
-24.8896
-35.3352
-32.9507
-33.4764
-26.7861
-32.7464
-26.9958
-23.4656
-54.1464
-33.4454
5.7156
3.22076
2.49813
-14.1569
-23.9221
-23.3733
-32.0879
-14.2789
7.18506
34.6279
37.9777
15.0208
-10.207
-36.0405
-65.1837
-23.0749
-24.8451
17.2423
104.61
51.8144
0.911971
-0.576228
-45.7183
-48.0723
-24.5688
16.6045
48.144
55.4761
37.6937
30.1763
10.1708
7.53491
37.7879
88.5043
41.9547
6.61223
28.1286
-7.25408
-48.9762
-36.5165
-30.2093
19.8878
90.7869
61.6234
26.5722
-5.71652
-43.281
-79.3979
-69.3774
-109.647
-155.557
-113.743
-58.4374
-18.2743
46.2803
63.1857
55.8897
-8.19918
-38.9479
-24.7161
-33.3247
-38.2029
-12.041
31.8006
49.4934
19.0759
52.4245
93.1962
82.6388
75.5073
98.2478
77.3855
47.6704
16.6769
-20.8529
-27.724
-20.2283
-6.09958
-26.1051
-65.061
-65.6208
-46.6786
-6.67338
-12.3057
-20.1652
2.93959
-20.143
-32.3844
-23.3204
-16.7693
-4.80459
-25.0093
-32.4562
-18.3664
-3.65575
-23.6086
-35.6888
12.5158
57.8453
67.0257
77.2107
41.9584
-3.67773
-3.52256
-18.5574
-32.7976
9.35293
4.72069
-21.7955
23.872
47.6141
70.3692
57.7755
2.32486
-21.943
-46.6687
-95.1114
-114.716
-59.0532
-9.28976
19.7021
71.3255
86.0985
62.503
38.0164
24.7553
-13.9017
-9.0254
21.2675
13.2752
15.199
-4.3583
-19.9018
-26.0071
-21.2348
-1.26686
91.1242
55.2889
-35.667
-80.6984
-74.627
-58.8734
-56.8174
-53.7566
1.65451
13.3643
-14.6076
-58.8752
-64.097
-30.1016
20.0887
69.7161
65.6229
46.007
-5.82942
-68.3472
-75.4048
32.3656
88.8615
97.2447
78.8763
62.8276
43.91
36.1031
8.87639
-12.5951
-11.7482
14.4892
40.2156
-5.04353
-35.2316
-56.593
-64.6721
-68.6698
-24.3123
14.5009
-13.3619
-29.0793
-11.0016
29.3347
27.8331
-27.7727
-24.2594
4.715
-42.6145
-18.2296
21.5306
32.1488
16.7493
-3.68579
-42.4443
-66.8925
-73.9308
-26.5993
52.6494
73.5715
56.2965
46.1311
26.3278
-2.90174
16.5269
47.401
16.6255
-15.8663
-13.0698
-33.388
-56.1172
-72.0029
-71.0685
-11.8051
63.1617
129.542
203.746
144.544
37.3106
-69.4909
-154.175
-184.193
-127.138
13.8811
62.261
51.9699
15.1169
-10.2657
-14.0717
21.329
31.4534
17.3139
39.9727
30.6463
40.2794
29.6735
-46.3112
-79.13
-83.8245
-33.7632
23.7305
28.4759
22.8587
-18.8809
-54.137
-74.2302
-25.1886
25.4223
52.5132
59.4029
66.6297
57.5568
27.0759
14.1641
-33.7717
-130.349
-208.892
-144.645
-41.1071
59.7289
122.734
149.214
99.6373
22.2139
-33.9112
-5.91515
-8.49278
-71.1444
-57.3872
44.447
64.3531
27.9934
24.021
52.2891
27.1694
21.7033
60.4405
36.6252
1.64095
46.1511
17.8229
-31.4103
-27.7164
-46.0879
-56.5455
-50.1298
-17.0778
-11.5822
-63.9188
-149.31
-141.509
-101.894
-56.4548
15.1733
36.2012
23.014
62.2268
136.836
142.854
65.0653
34.6853
113.411
67.8735
26.7228
56.8513
36.4207
-1.36181
2.90129
-2.90539
-13.6307
-54.0038
-37.0843
-28.7002
-50.9675
-15.2837
28.1145
19.6391
1.30331
-55.2713
-114.663
-186.841
-238.594
-142.483
-63.6229
-47.7489
-7.14948
11.0714
86.1777
168.772
152.953
238.059
349.644
317.873
170.218
-52.7457
-218.722
-296.515
-267.736
-224.902
-280.451
-252.676
-107.563
8.27432
56.1385
99.0606
103.87
165.865
185.163
211.957
249.468
130.629
12.8556
-99.3961
-117.72
-53.4945
-23.6414
37.1227
72.6913
117.973
219.626
302.995
220.781
69.5381
-18.9404
-83.4403
-145.062
-247.669
-363.869
-292.303
-129.117
-56.3058
-114.731
-222.337
-263.26
-222.041
-129.681
40.7099
179.972
208.9
203.84
182.625
190.85
252.731
279.971
278.424
147.581
46.7149
61.0991
-84.7388
-291.909
-315.914
-273.713
-147.185
-56.185
43.4756
120.295
126.342
78.9653
92.1606
73.7924
50.3002
-83.4414
-199.188
-205.156
-184.134
-83.6606
35.647
93.7588
89.7455
38.35
31.9301
-3.03828
-19.5711
-16.7922
-36.9648
-11.93
-29.1052
-115.275
-137.887
-55.7201
-19.1261
69.4497
221.138
320.516
306.157
198.996
103.621
7.98455
-85.3937
-71.4059
-77.9192
-101.354
-61.3176
-26.9242
43.2186
104.451
96.0546
84.8409
25.7393
-75.131
-104.143
-119.68
-175.957
-123.978
-92.8923
-129.991
-142.911
-93.5401
27.7848
84.8833
61.6873
44.9626
37.5003
-63.0063
-83.7356
-114.395
-121.545
52.7891
218.519
205.803
138.109
127.684
68.5503
-66.3371
-76.9264
3.06296
99.0933
130.333
45.1387
51.3411
125.539
127.214
162.336
196.93
46.4521
-93.8842
-190.729
-259.691
-316.323
-296.879
-182.503
-106.986
-79.9196
-71.3003
33.8349
81.4779
20.4978
-70.4943
-178.911
-258.381
-203.195
-39.9589
64.3579
158.18
313.575
451.625
464.06
274.179
122.525
48.7611
-9.17362
-107.026
-166.764
-164.418
-241.296
-275.976
-178.449
96.4198
326.11
361.736
289.003
204.06
67.7772
13.3988
-24.5062
-104.121
-120.518
-99.0679
-116.305
-133.216
-202.781
-293.423
-319.869
-294.298
-51.0836
208.949
235.481
144.023
-9.75196
-123.218
-177.785
-165.909
-116.96
17.8411
61.2887
104.038
116.348
89.9956
148.592
166.127
225.087
399.98
442.556
291.636
29.94
-169.89
-244.992
-341.872
-376.206
-282.295
-109.17
93.5896
230.701
138.077
28.5402
-101.188
-183.204
-123.184
-32.5895
98.2335
158.653
63.4333
-50.7821
-94.9767
-130.619
-104.163
-105.622
-74.7471
123.41
204.962
88.766
-14.4405
40.5105
112.088
91.3318
64.2657
2.2368
-116.831
-175.715
-242.424
-290.066
-247.535
-197.418
-51.8221
68.4376
161.1
313.722
367.258
334.092
275.363
269.573
297.747
108.051
-17.0084
-121.793
-183.215
-210.123
-234.751
-209.839
-45.147
72.6145
162.319
211.393
161.307
41.7004
-150.929
-318.022
-351.667
-179.076
99.2066
130.686
-92.5708
-300.795
-413.889
-375.267
-309.535
-69.9434
209.659
315.397
299.363
273.302
236.404
187.34
141.772
122.41
132.163
152.183
171.45
69.811
-75.7856
-194.639
-197.921
-85.1217
55.9053
100.093
155.96
109.244
-2.4144
-107.348
-137.817
-49.0795
-6.45842
7.42637
-60.2333
-157.243
-108.246
-87.6144
-158.315
-289.697
-329.801
-210.486
-39.2908
197.345
361.988
349.101
200.799
-5.23394
-6.38276
40.9326
-64.7207
5.18726
7.24304
29.2995
129.186
120.099
-36.2359
-167.015
-200.947
-56.3727
60.5699
105.664
136.037
63.053
-94.1924
-56.8753
54.2356
171.905
232.786
114.475
98.582
-27.1689
-143.984
-128.304
-110.343
-77.4661
50.1852
191.412
228.05
207.593
44.5539
-214.647
-361.124
-378.311
-326.686
-140.122
-77.4655
-110.193
-198.209
-111.389
-54.2067
-103.344
-106.779
14.3148
268.465
440.231
384.946
225.761
49.9353
-115.486
-152.251
-4.13895
150.184
224.35
297.419
256.507
204.394
178.649
128.418
68.1962
2.14154
-92.2314
-157.152
-283.552
-428.171
-494.388
-409.807
-201.515
-20.9309
78.0336
258.875
313.602
177.26
9.84688
-175.12
-294.974
-254.458
-171.043
-125.367
-65.3486
137.822
250.7
279.266
254.508
112.377
52.103
63.6465
55.6596
26.5305
-146.457
-329.588
-185.161
13.2671
167.531
254.583
240.489
255.917
273.898
141.365
-11.1327
-135.032
-211.841
-236.426
-144.724
25.2519
120.284
96.176
43.8066
55.2155
77.3252
21.6693
-69.8198
-121.323
-281.892
-337.218
-262.478
-232.602
-201.336
-84.2296
94.3748
201.137
171.325
222.797
251.723
75.8213
-121.409
-228.701
-246.889
-160.681
-20.1404
138.503
209.518
203.306
208.328
148.779
41.5088
-62.5161
-116.484
-54.395
-7.42087
-67.1721
15.3741
71.5389
14.7112
55.1388
124.702
119.276
140.726
244.27
245.876
89.7204
-109.011
-239.136
-213.543
-113.154
73.6515
190.927
183.111
4.79724
-252.669
-354.016
-309.846
-235.36
-193.288
-216.989
-166.675
-66.0529
-27.8445
111.607
258.654
196.601
95.1486
-2.91362
-62.8234
-54.3756
-100.538
-56.5104
31.8016
168.666
266.176
282.08
193.148
98.8626
-60.8199
-92.7858
-16.6528
63.0037
130.338
59.1091
-63.8315
-86.6341
-82.4446
-59.235
-36.7284
-28.9832
12.6479
97.6522
96.6732
24.4786
-5.29982
-15.7697
-48.7513
-41.4354
16.826
-14.1951
-200.695
-274.18
-201.073
-100.156
-21.1677
76.1974
156.421
158.702
146.956
105.065
-2.44218
-205.573
-241.529
-137.318
-11.1292
11.1143
69.0684
129.734
195.714
251.445
327.414
370.014
295.332
-91.5028
-348.159
-369.842
-284.946
-281.676
-182.976
57.824
189.129
181.462
42.7692
-87.4221
-101.01
-86.675
-106.097
-144.108
-144.153
-21.1282
128.423
191.614
114.511
59.1589
78.5923
62.0021
5.73257
81.651
129.929
50.3666
6.91463
-16.4589
-62.521
-46.9385
-77.5112
-78.3589
-13.864
37.9316
76.0402
44.0309
61.5968
58.2142
10.2853
-6.58119
-33.6515
-155.443
-120.886
-52.855
-27.6168
46.9399
76.6201
82.0716
91.5402
44.2957
-57.7892
-188.742
-238.537
-191.593
-71.6783
16.6325
76.846
146.026
117.106
28.0244
137.001
172.394
120.04
21.3045
-91.7502
-102.918
-127.206
-138.896
-5.6327
169.286
237.085
247.647
160.065
3.70213
-100.844
-149.971
-224.298
-306.63
-247.917
-111.613
-42.1613
16.527
44.0885
192.709
235.69
64.27
-13.4654
62.6976
25.417
-75.4758
-164.387
-153.423
-132.386
-91.6039
58.7068
144.941
98.1019
50.7525
10.7412
-0.545527
32.6547
185.439
340.578
327.064
153.469
-50.4637
-269.065
-356.926
-188.774
9.9915
160.874
162.792
186.272
126.113
-36.3174
-123.679
-235.717
-330.167
-290.136
-211.313
-73.8568
22.1732
102.619
148.276
140.793
110.476
68.5219
16.8856
-105.756
-264.499
-297.765
-143.873
13.0814
149.492
217.982
268.19
266.043
139.833
-26.9889
-42.7886
-36.6879
0.212679
-33.6667
-36.341
-15.298
12.204
130.314
185.103
227.71
215.764
86.1316
-51.9938
-111.233
-99.1206
-50.56
-160.358
-121.259
108.152
125.338
-42.0628
-288.319
-366.21
-257.303
-278.475
-218.362
-71.4849
140.425
244.455
127.345
28.8863
-66.3178
-89.596
-76.2563
-19.5392
65.5575
191.025
239.611
155.588
55.285
98.7011
209.812
198.883
89.3025
10.5951
1.10563
-38.7426
-119.128
-164.407
-121.934
12.19
199.387
262.131
185.777
49.8619
-147.421
-235.298
-276.756
-305.578
-209.204
-84.4771
-38.5674
22.6106
-7.84383
-17.9515
-33.0883
7.01823
79.1022
58.968
16.8073
-18.5053
26.7758
91.8074
46.152
-38.693
-95.6241
-102.449
-9.93038
105.682
176.507
206.868
165.951
106.534
17.1796
34.0142
141.183
98.6973
-78.5946
-220.669
-270.826
-203.96
-125.432
-82.9947
-45.2167
0.701684
-4.49184
63.7983
181.274
248.454
227.743
197.631
125.401
-45.1033
-218.815
-264.669
-315.987
-228.856
-31.0509
184.273
250.202
200.726
171.328
126.2
97.4364
122.642
28.9396
-221.938
-393.693
-450.779
-340.203
-217.507
-22.1836
66.9719
77.3161
73.5794
23.8715
13.0873
92.0875
131.694
185.93
197.092
152.965
78.5618
18.2837
2.06185
96.0863
159.54
126.949
63.8096
34.0579
-25.296
-145.671
-155.416
-97.276
-62.3614
-59.4965
-67.2107
-132.444
-118.189
-51.7511
17.9599
67.4147
33.6766
30.5203
-22.4608
-43.8256
-10.5493
-35.0509
-56.09
18.4845
68.7317
62.4329
95.1637
93.9373
25.3356
13.0741
103.365
233.987
260.231
38.184
-184.892
-216.377
-178.12
-148.526
-150.004
-183.96
-250.503
-290.641
-161.836
-18.2796
111.236
153.524
96.0205
79.9056
144.396
209.523
120.206
-36.8203
-71.784
-33.8841
35.9534
80.1443
141.553
192.379
183.262
249.103
252.316
215.243
105.684
-20.6156
-91.8687
-195.38
-248.412
-129.201
-53.2816
-69.7479
-219.102
-260.715
-168.873
-69.3797
26.2341
29.8217
-16.0118
-98.9609
-127.79
-112.613
-22.2058
83.68
187.074
150.422
1.42722
-64.25
-118.552
-171.236
-151.669
-93.3568
121.328
304.422
328.747
296.415
162.396
-37.9308
-130.793
-133.832
-66.8572
-27.142
9.3032
61.6256
57.0715
38.1312
45.5481
87.5383
155.553
217.938
181.542
47.9115
-87.4302
-261.674
-453.968
-349.693
-113.003
102.348
184.643
161.058
77.7258
47.2706
-1.27984
-119.349
-228.858
-182.727
7.25293
135.742
111.305
5.32772
-21.7657
-65.4265
-109.424
-101.719
25.7631
4.55485
-65.1649
-66.5168
-23.0807
55.2533
97.8477
33.4632
-35.2335
-41.5036
52.7378
91.8905
36.7191
1.3356
71.3274
176.426
225.073
194.469
130.89
30.9297
-48.3155
-127.447
-168.094
-83.112
10.4421
26.8273
74.4609
28.0965
-57.1378
-80.18
23.3219
67.8359
-55.3585
-164.634
-95.7743
-44.1987
-100.918
-16.4132
42.6766
26.9313
29.0816
117.023
142.068
-13.0712
-146.156
-113.856
-97.459
-71.4615
6.45414
66.7128
34.2433
12.8935
76.9559
43.0782
-85.1914
-136.052
-151.338
-119.328
-78.6393
-1.1221
77.6193
110.307
50.9562
-1.53951
5.58213
-31.8418
-19.2583
119.327
253.98
312.744
239.651
126.194
43.9868
-0.667783
23.7392
28.3082
4.82235
-76.3463
-87.7976
-79.5792
-198.062
-245.185
-146.983
-30.5931
20.5617
33.8347
58.2783
-4.93654
-86.602
-115.115
-107.903
-132.674
-135.895
-54.6279
32.8306
49.612
42.7282
109.475
312.608
332.59
212.783
120.662
19.7221
-24.8938
-128.891
-206.339
-169.177
-186.566
-181.354
-27.6728
-13.8105
14.1036
61.9216
95.9635
38.0691
-31.8521
23.136
198.485
139.325
42.4795
-0.332277
-65.7869
-107.473
-116.014
-22.6848
109.883
109.925
48.5205
-21.0208
-155.15
-173.232
-73.9412
-35.1213
-16.5621
21.0865
43.7555
117.635
72.3748
-22.106
-26.4394
37.1269
48.5824
44.6472
57.2733
43.7138
47.423
119.007
110.135
10.4057
-128.332
-248.336
-243.546
-148.287
-30.1636
105.072
146.944
197.963
222.452
52.7883
-83.4095
-98.4647
-72.0979
-136.872
-301.198
-287.891
-164.353
-101.625
19.1649
184.391
305.691
288.379
168.779
104.88
63.2965
23.1138
8.96047
-82.6313
-182.663
-43.8767
123.049
141.239
112.689
113.311
126.419
32.2175
-87.2927
-156.985
-149.787
-41.9363
42.1533
116.759
122.785
40.6291
-45.1539
-121.414
-189.129
-194.183
-190.867
-165.986
-64.8943
44.4654
34.6884
-73.4723
-134.197
-150.771
-147.531
-73.3183
16.036
27.049
-27.4307
42.0213
120.526
103.439
156.543
210.618
218.162
163.379
90.6383
18.8907
59.1416
143.983
202.091
186.277
112.253
52.6029
-23.9999
-76.3597
-8.81131
66.0678
84.4569
0.722557
-116.994
-196.531
-194.003
-133.474
-112.567
-179.973
-185.605
-153.264
-187.031
-150.06
-4.0844
161.413
183.063
122.549
-8.51245
-176.457
-277.577
-157.18
-7.89895
59.4469
112.828
199.535
224.115
120.947
-41.9705
-163.673
-257.652
-221.147
-105.16
-20.5087
57.4929
101.016
188.801
293.773
394.992
433.656
391.151
230.136
88.597
32.0641
-76.2817
-127.535
-197.611
-260.133
-244.355
-179.953
-13.4883
84.5424
0.911271
-137.431
-176.052
-100.497
3.75191
93.4642
117.995
106.257
-20.5236
-188.148
-264.861
-258.539
-191.829
-54.6693
48.8758
133.252
180.007
170.627
84.9146
-42.661
-90.8108
-24.2096
-31.9404
-44.9431
1.99295
20.0031
70.7494
180.517
192.366
117.995
34.828
-83.55
-125.038
-132.102
-136.694
-146.244
-130.122
-50.027
81.4234
160.108
214.824
232.257
179.523
117.007
78.5948
53.7255
9.36347
-80.6223
-76.5888
-69.4277
-24.4052
22.5444
65.7507
71.9145
22.7559
-29.6341
8.78653
5.22831
18.3959
22.5341
-52.8339
-134.72
-149.742
-140.408
-111.257
-135.268
-188.819
-279.048
-291.614
-165.655
-6.59243
129.203
273.915
200.714
83.805
86.0545
123.017
120.406
54.9032
23.1707
-22.5059
-33.4847
56.4105
101.305
53.8661
10.3713
23.5667
75.0603
97.495
74.5636
-17.0768
-84.2486
-154.028
-139.198
-82.582
-22.2651
11.6259
21.6618
2.00778
9.56922
78.7955
91.0274
34.3919
-27.3046
-102.167
-71.7193
67.4677
77.0849
63.6303
131.346
19.9233
-52.2598
-53.5213
0.113224
50.8095
75.3212
51.4354
11.6521
-67.5909
-122.114
-129.853
-164.626
-171.488
-104.05
5.4477
115.691
76.631
-35.3964
-89.7769
-182.24
-108.069
28.6287
120.853
151.64
89.6205
-12.8357
-76.6776
-65.8732
61.616
155.602
123.124
57.3954
63.856
-0.0485096
-120.611
-176.376
-93.3372
40.2464
119.723
143.45
113.61
124.974
113.813
38.3353
-45.4844
-118.756
-115.9
-12.7544
16.812
6.72943
67.8474
157.113
98.8547
-2.76952
23.0313
52.3352
-25.5871
-118.716
-155.874
-98.5747
-27.9644
-68.7968
-145.715
-153.344
-82.9045
-36.8198
12.5933
77.4515
133.281
42.2812
-96.9195
-145.903
-124.673
-17.6448
54.4419
25.0897
27.2405
35.5815
77.6629
86.0815
94.692
81.0195
131.933
130.954
13.5648
-23.1488
-24.9875
-38.506
-150.12
-206.977
-87.3949
22.1353
-101.476
-217.975
-131.74
142.595
307.75
347.542
221.934
123.705
-6.71656
-159.409
-196.963
-124.577
25.5801
73.3745
121.203
175.576
199.887
174.615
59.8091
-37.297
-23.6542
-26.4313
-50.8886
-152.787
-247.571
-257.303
-178.527
-171.733
-131.055
5.88035
43.3125
-5.97084
-19.0191
-16.5246
-29.5664
-68.7338
-36.2452
56.4083
94.1937
68.9598
101.843
205.005
159.208
42.8424
-37.5795
-24.2135
-28.2166
-38.3908
-32.9151
11.5077
163.843
171.366
80.5033
-58.682
-230.69
-329.423
-204.716
10.471
141.038
138.351
132.664
129.246
70.2152
-61.8678
-149.684
-132.676
-44.1601
107.23
268.877
334.308
142.584
-94.58
-136.806
-27.8286
105.457
112.268
-24.7854
-95.7233
-158.556
-192.271
-146.825
-29.2971
4.05947
-26.5499
-85.392
-107.2
-63.6968
-27.8148
-11.9734
-64.8809
-81.9406
4.38703
31.9141
10.4237
48.4461
152.108
203.73
219.956
101.261
11.142
-98.5273
-194.793
-168.395
-59.7653
123.425
115.248
-41.894
-178.481
-195.659
-119.001
-70.7416
32.4146
145.326
198.824
126.451
80.1334
92.7554
120.286
128.905
97.9658
48.2347
-23.683
-97.6671
-117.133
-61.5365
130.642
225.708
220.241
150.078
80.3433
-65.9145
-238.417
-238.174
-163.884
-84.0066
-68.7076
-123.131
-230.25
-206.312
-93.2303
54.2001
121.89
166.469
143.435
3.90579
-136.623
-177.982
-197.25
-115.494
-32.3917
7.03599
193.144
286.818
247.279
107.422
-106.696
-221.941
-318.415
-228.56
9.67748
234.891
322.247
329.535
324.531
196.314
-18.2493
-133.233
-162.415
-189.46
-134.436
-9.27077
20.8915
-54.2502
-80.0184
-6.11055
106.733
197.511
274.316
241.469
65.2009
-181.653
-303.74
-301.026
-221.251
-42.8445
98.1185
169.389
232.414
149.296
-58.2786
-115.809
-105.798
-106.246
-41.0638
-114.742
37.2569
150.838
183.019
131.215
-69.9772
-206.561
-228.75
-249.067
-202.695
-139.887
-38.4205
25.1646
84.24
108.59
47.4349
49.9292
26.8773
-8.30929
-47.2683
45.0645
217.315
339.779
264.473
120.484
9.7676
-16.5772
-28.4273
-61.6982
-128.852
-149.755
-117.816
-32.1925
5.6994
-10.9823
82.4469
158.546
158.991
119.833
80.0525
9.58804
-109.896
-143.707
-32.5878
80.6602
67.2595
-30.4563
-121.863
-155.224
-174.503
-143.514
-46.4167
-19.5707
19.4254
-2.94138
27.5841
92.0563
51.9425
4.73244
30.0128
33.1475
-45.8606
-149.686
-188.72
-156.775
-25.8382
73.4668
55.3916
71.9755
180.44
224.409
150.733
29.9123
-65.9783
-46.5178
-74.3837
-132.201
-157.82
-114.06
-69.7892
-14.8781
91.4086
142.305
151.374
118.724
17.0787
-30.2841
61.3408
153.517
240.529
202.2
58.8721
-30.2709
-142.325
-207.891
-189.626
-130.865
-9.57035
115.462
154.027
119.712
67.186
11.5121
-119.882
-211.103
-151.635
-76.9615
-22.4803
1.35849
-72.6426
-93.0656
-97.7422
-47.482
6.51756
33.5983
78.4806
39.6789
22.5117
15.061
-73.5747
-188.654
-300.809
-321.052
-132.796
146.606
388.543
475.024
393.553
222.778
87.2069
12.996
0.340674
-34.4204
57.8675
69.0085
-31.76
-37.5169
-43.3361
-58.592
-35.7462
-6.12488
45.4627
30.1939
-43.0698
-123.348
-157.609
-153.097
-187.209
-202.551
-80.2689
153.627
200.281
90.8527
-111.348
-222.8
-192.182
-118.504
-26.8466
43.0498
102.272
184.473
219.275
195.894
161.504
111.657
21.8503
-13.3036
-10.7211
-6.93364
-84.2956
-217.556
-156.715
-46.714
-2.68261
124.524
156.936
113.13
7.33062
-18.127
12.3688
16.7596
1.59486
25.6245
-12.6354
-85.9044
-95.6576
-69.1533
11.3352
62.9658
40.9603
-125.34
-252.919
-195.139
-13.3777
95.341
183.109
157.861
156.528
176.453
172.63
83.0715
-40.8981
-114.613
-83.4593
-75.4277
-104.1
-136.727
-132.152
-102.011
-28.9219
50.5261
88.8928
106.631
45.0364
-67.4513
-159.592
-111.001
-3.38422
-22.1857
-29.7013
30.0185
71.9675
30.5347
-16.4734
47.9318
129.188
71.1812
-25.7283
-60.4726
-51.8251
63.2456
140.297
139.57
213.252
258.923
168.046
12.2795
-110.471
-234.841
-270.081
-200.997
-160.793
-97.8085
-20.3318
64.6074
84.2482
103.44
93.3676
65.2869
27.2
-17.9145
-51.7621
-20.9771
-104.881
-134.146
-3.30086
39.0532
68.5039
91.0424
21.1154
-40.8622
-42.7282
110.09
207.52
79.7163
-58.6032
-110.86
-187.475
-266.671
-215.503
-87.8417
42.008
116.884
107.297
19.4105
-23.5899
28.4235
44.0652
37.5869
64.7899
102.494
114.659
58.3536
-30.6736
-58.1087
-96.2005
-63.0936
11.804
54.2594
68.7743
64.8622
54.0967
69.1414
68.7364
71.2267
-31.3679
-83.1251
-101.343
-63.571
-54.1506
-40.1599
-58.8037
-111.371
-101.429
-70.7623
1.89082
61.3579
117.759
193.829
167.293
112.701
27.1511
-80.5089
-145.794
-162.144
-96.2596
-35.285
15.663
55.8581
58.2293
46.2748
66.8017
67.1054
68.8233
46.2289
-12.0318
-27.5648
27.1966
89.7934
94.7485
-5.30228
-138.144
-264.73
-220.423
-98.4561
-54.027
-25.0834
-11.1453
-17.5567
-0.00159441
0.0154926
114.275
140.777
83.3487
117.539
212.061
162.685
22.4021
-183.777
-222.779
-133.233
-3.51163
69.7184
88.7279
30.537
-11.9954
1.07258
-18.278
-51.3491
-122.874
-227.458
-263.789
-129.964
25.271
99.5027
90.2801
50.2708
116.327
192.712
153.133
133.253
166.714
263.978
280.142
169.283
70.3939
-12.1734
-28.6111
-65.7108
-88.2429
-143.64
-252.716
-314.76
-341.739
-249.599
-83.5474
72.2379
95.8458
90.539
84.4631
27.8684
-5.91056
-94.0674
-146.696
-108.145
-73.0473
-8.93415
19.4392
2.84325
40.9425
151.409
259.67
228.731
156.675
-59.4577
-203.975
-133.335
-79.4603
-40.2016
31.3983
57.8943
69.5073
35.7691
-30.2807
17.2568
99.8088
114.808
59.2821
54.4401
127.966
131.083
51.5247
-61.6255
-137.558
-125.939
-153.878
-152.216
10.5798
219.595
231.247
86.6357
-128.534
-249.783
-253.272
-192.455
-72.2772
-7.58245
-25.2724
-40.7503
-38.4795
-1.88681
102.076
202.944
209.853
187.238
198.692
143.82
14.1961
-74.989
-101.931
-108.846
-99.7038
-57.7877
-61.653
-83.098
-66.1099
-95.876
-104.258
-82.2054
-72.2504
-8.94568
52.7528
106.861
163.264
230.302
168.579
62.7731
25.8732
-68.4736
-162.869
-108.119
-32.6146
-9.03049
29.9768
46.3387
-17.452
-36.5923
-31.846
-22.6519
88.6697
74.9602
-107.428
-240.327
-204.939
-21.9779
97.9341
68.2003
-49.7619
-129.34
-92.874
21.3192
166.383
257.341
246.728
132.192
24.8497
28.4016
96.2475
172.27
112.627
85.1453
96.0196
96.1779
15.2061
-171.678
-268.695
-250.686
-184.914
-92.6797
-54.968
-40.072
8.74452
27.979
22.7669
28.2996
13.4089
33.8181
16.4927
-41.4131
-95.4851
-141.208
-151.178
-136.988
-138.911
-86.3374
-3.79473
40.0831
72.7019
84.996
58.22
80.4772
105.906
158.183
178.237
166.877
192.709
77.5952
-60.4038
-168.684
-233.569
-109.364
8.11404
5.9691
21.4724
-7.01204
-57.1047
38.0223
138.713
158.114
133.893
34.4442
-35.7931
-139.949
-144.018
-40.9296
-35.1141
-27.2152
43.8317
95.7627
103.937
56.2374
88.0067
112.625
2.45017
-78.9925
-99.0607
-160.473
-193.771
-83.9587
25.0879
43.3034
56.6847
206.679
181.723
28.7766
-71.2422
-113.859
-120.562
-101.292
-75.8294
-126.421
-201.317
-134.071
15.0816
157.232
209.591
128.76
90.7042
7.73325
-93.4265
-160.335
-225.722
-253.691
-217.442
-115.59
69.1148
254.922
308.232
274.413
245.608
142.574
79.5493
84.7777
106.52
103.32
74.4086
41.4714
-71.1487
-188.705
-203.804
-167.099
-105.192
-14.9736
49.2723
72.9254
60.8426
-34.4464
-45.925
1.00246
10.2708
35.2892
40.2173
-14.7243
-105.259
-135.491
-114.454
-59.676
-19.6301
0.167839
42.8754
89.7141
113.629
23.5679
24.6929
73.9545
19.2595
-142.218
-217.359
-133.784
-4.9237
127.356
79.6561
-6.20406
-41.6806
-155.122
-172.259
-27.8428
84.1644
145.937
90.3135
64.026
92.8846
71.9713
65.2781
61.474
46.2939
114.669
97.0384
45.9907
36.5542
64.6602
26.2122
-31.7946
-50.2608
-36.2583
-63.5636
-129.457
-136.883
-90.9061
7.10668
11.0061
-54.6805
-31.5745
-24.8531
-73.332
-85.4943
-7.47536
86.6152
60.7804
-35.5267
-58.0501
-30.2861
-39.8062
45.2303
97.0032
93.2734
44.7737
-12.0378
-32.3276
-50.4048
-110.285
-75.7012
55.4149
115.684
124.12
70.4282
-43.0137
-151.971
-213.017
-141.748
-52.4151
112.558
222.142
198.992
173.919
102.031
-1.46831
24.8535
53.1386
62.3414
75.444
-3.62673
-144.224
-17.335
15.0557
-50.5529
-154.229
-228.269
-156.97
-169.194
-208.599
-171.039
16.7136
213.687
245.462
237.773
221.262
115.708
-27.1412
-56.7404
6.76433
88.8575
116.015
-63.5646
-208.332
-243.302
-134.1
101.197
312.517
353.941
177.761
-76.826
-274.233
-384.876
-316.787
-91.4417
18.7419
16.7585
3.14064
-62.847
-107.324
-112.237
-50.8316
-2.96477
97.8295
229.578
289.66
228.369
95.7439
44.0272
40.0524
153.341
232.418
112.578
-86.0845
-248.45
-278.382
-217.01
-164.778
-70.7805
40.8538
59.8472
-4.79511
-24.5638
69.5311
156.282
136.745
82.4332
27.2168
-18.9432
-43.0977
-74.5316
-66.7145
-17.3033
29.8064
-32.3577
-48.8774
-4.22956
39.1399
18.9811
25.3269
2.9445
-43.7671
-83.012
-99.45
-41.702
62.1708
100.767
5.357
-62.2673
-37.2142
-56.1454
-99.344
-4.87261
114.247
79.0365
-0.923095
-58.9972
-40.3042
10.8034
-39.6518
-12.0585
103.534
231.294
277.208
162.967
-75.0597
-256.826
-302.013
-235.477
-122.041
23.9831
94.383
71.9233
73.5673
160.896
213.638
230.078
150.726
68.2481
26.3504
-88.493
-179.821
-251.002
-316.272
-251.78
-87.3095
135.034
318.07
315.573
198.492
71.9083
-41.6388
-139.308
-220.187
-145.272
-63.3477
-58.1891
-84.3969
-47.482
-41.3919
-32.0719
-42.793
-42.775
0.878524
46.5768
23.6997
46.4303
11.4398
-58.8008
-59.1906
4.03473
46.3051
66.9726
114.922
143.002
173.816
128.054
107.381
115.953
97.4086
33.9776
-40.4209
-78.2534
-141.253
-164.718
-28.6765
82.5912
95.1987
26.456
-52.5688
-159.353
-235.108
-200.324
-72.8956
-10.2867
-19.0185
-13.13
35.8994
55.7926
75.1709
87.6333
96.5529
68.3732
59.1752
53.7137
27.7384
-65.2224
-113.182
-59.5167
13.201
85.7432
116.141
94.3289
17.0394
-56.6655
-90.3523
-103.609
-98.37
-44.4426
5.4256
27.4113
10.5087
-5.12862
-12.3052
-72.7892
-83.4439
-70.0256
-15.3679
21.1997
99.7649
232.498
266.213
198.634
59.5728
-47.2027
-91.3495
-168.856
-152.313
-129.381
-56.9282
28.0599
58.6882
37.671
-21.5941
-73.0047
-92.4477
-50.1914
-23.6809
-2.4615
-37.3228
-47.2359
23.5266
59.4992
95.0517
134.805
218.702
244.071
121.458
-17.2553
-155.594
-240.646
-160.629
-66.756
12.9854
73.2845
54.2131
-2.25629
-7.43005
69.2151
170.338
135.366
-24.4078
-71.9665
-52.9028
-116.972
-243.768
-233.433
-118.244
-66.7014
-41.2246
26.3126
88.2978
123.466
138.605
130.334
119.092
64.8372
10.1258
31.0557
9.28283
-81.319
-138.772
-99.2144
-54.6552
-77.5778
-71.3656
48.471
98.2589
149.849
215.372
209.166
122.748
94.0523
106.123
60.8609
-42.7073
-146.844
-194.235
-304.874
-281.046
-112.307
-15.1283
-4.96674
-59.711
-42.5436
11.3642
-7.38026
42.8773
134.951
178.743
127.509
17.699
-66.3596
-175.536
-227.711
-118.259
3.34604
15.487
69.2727
61.4747
-13.9224
52.86
144.643
192.447
200.799
172.579
112.14
27.2746
-67.2954
-83.6842
-19.5994
9.08124
14.537
108.277
177.777
87.8138
30.8541
11.7562
-19.9358
-30.6779
-101.376
-189.268
-312.947
-349.992
-272.049
-167.541
-42.242
-0.166133
-19.8961
-48.785
-54.1907
-18.2314
46.0818
109.817
135.252
123.92
72.6816
62.3113
10.2202
-86.5462
-6.81243
180.004
309.151
288.925
211.361
111.652
-9.96302
-102.029
-165.672
-144.933
-111.635
-87.6628
-87.1253
-95.0278
-33.0107
94.7668
148.926
57.1723
-17.9327
-70.6276
-105.392
-127.641
-32.1932
104.858
133.61
120.778
87.3334
49.5664
15.5901
-7.55608
7.96201
11.9869
1.18605
-103.148
-240.504
-266.917
-186.254
-84.2921
18.9358
78.2001
43.6607
27.8866
-72.3154
-96.6785
-46.7032
-5.16661
3.24621
57.9855
124.497
130.301
132.882
120.027
56.8752
53.6103
92.452
94.059
63.3903
52.5005
95.6379
59.1769
21.8347
32.2519
-39.4508
-176.833
-249.362
-251.067
-173.337
-47.0038
74.802
132.341
88.5938
-9.07029
-71.8771
-78.3113
-26.5134
-4.19241
-45.1778
55.1361
178.362
215.414
133.821
-5.67776
-25.6977
40.7987
98.0824
109.418
92.2714
-0.232435
-166.858
-323.965
-357.121
-310.155
-170.186
-5.70924
106.29
103.106
73.5079
76.8336
19.8783
-82.5027
-83.6713
-71.8845
-41.4801
31.1394
101.304
102.934
121.984
144.994
155.137
178.569
180.152
151.623
65.8537
-60.7613
-130.467
-108.125
-86.4687
-83.2485
-60.1315
91.0189
195.356
186.656
75.2993
-68.1589
-154.388
-210.842
-223.673
-181.304
-84.6598
-14.3893
59.3684
87.9387
34.1804
-48.3672
-67.7
-75.7298
-3.18199
67.1636
116.469
144.499
50.9731
-71.4788
-134.685
-185.128
-201.826
-73.9702
62.1537
108.492
107.059
110.027
95.4636
90.7379
90.577
105.809
60.8818
42.6344
37.1154
-34.2944
-179.993
-145.842
-28.8655
18.5897
74.57
147.57
180.299
75.6147
6.82085
-28.338
-91.1493
-168.704
-186.305
-106.768
-25.4927
-5.08103
6.26586
19.0402
34.3152
25.5831
11.0498
-42.3759
-44.4664
10.2162
73.9208
98.2392
71.9694
56.307
8.17611
-48.0743
-39.7696
21.8314
-19.8881
-74.6079
-51.5292
-22.5928
-27.2969
-32.6225
-58.095
-76.0242
-39.7077
-40.0692
-8.79825
60.615
90.3568
70.8506
91.9813
138.157
122.706
96.3324
52.0142
12.6345
-39.2314
-82.1438
-119.968
-86.7004
-60.6276
-68.2797
-100.587
-46.0023
3.88117
29.6151
23.6547
36.8814
26.7574
20.3687
-14.2219
-49.6881
25.5394
154.873
223.468
162.957
1.6907
-129.351
-160.935
-92.9446
-12.8957
9.77444
0.848134
-17.1673
-34.2701
-79.6026
-109.982
-80.1683
23.7002
142.486
176.923
135.278
-24.8961
-104.374
-73.7141
-33.9374
13.7414
94.5508
148.232
79.585
4.85107
3.18737
-0.563897
-82.3846
-137.884
-155.024
-84.7625
-8.21314
22.0836
-5.751
-58.9797
-76.2016
-91.2613
-128.272
-113.388
-44.8463
141.514
277.832
217.606
95.6446
-8.16736
-35.2801
-5.21864
13.7434
-2.89535
11.7275
30.6543
7.75661
-41.5918
-36.5253
40.6655
104.346
120.648
75.5453
13.6822
29.9507
13.4954
-30.5868
-29.8849
-43.4792
-60.7069
-83.8619
-68.99
-69.2875
-23.6958
45.6024
57.3015
41.5913
19.592
54.0566
30.2805
-56.4995
-127.219
-194.905
-248.186
-240.662
-213.749
-162.854
-32.877
156.263
233.405
252.556
229.403
279.926
249.245
125.998
18.7252
-53.5543
-98.5827
-143.24
-135.659
-111.519
41.321
287.726
282.11
100.792
-77.0299
-160.234
-267.231
-327.462
-237.515
-88.7897
-21.222
-4.99312
40.8319
50.3817
8.13177
-4.49911
70.6226
115.039
79.18
74.9127
55.5611
-20.2881
-3.84196
80.4519
188.438
226.234
252.039
265.816
194.58
-28.0888
-248.992
-369.29
-350.464
-219.727
-146.81
-71.7868
-46.8181
-52.1955
-15.6714
14.8989
-14.2297
-93.1716
-96.4427
-38.2445
41.5272
82.4824
68.5626
-0.00529329
16.3972
132.552
178.804
144.107
55.002
2.63651
2.50909
-21.6146
-3.7118
23.9183
36.473
50.0964
72.0594
112.973
132.601
62.0251
-27.4235
-63.5084
-78.742
-115.517
-167.692
-153.808
-64.6573
-51.3179
-47.2359
-3.43815
87.7778
65.3887
-14.5848
-30.5877
29.9108
45.8716
-12.4552
-107.457
-181.569
-149.78
-62.7467
-14.635
53.9296
153.682
203.242
183.756
144.223
70.6149
63.9902
41.3122
6.40071
7.71188
-30.896
-102.586
-147.046
-149.901
-78.824
59.6417
143.13
53.7806
-63.8731
-83.1138
-30.906
-10.9129
-11.0955
-68.6496
-107.907
-37.6726
10.8722
57.4694
113.355
103.321
45.1576
-35.1933
-162.452
-172.75
-87.4583
-14.7986
96.6411
213.229
205.954
98.7403
-38.0198
-50.06
-57.9054
4.08684
58.8167
150.412
154.954
-3.00851
-145.089
-158.066
-88.8216
3.67906
105.713
85.9141
-13.7358
-72.1191
-113.541
-72.4617
0.283088
33.1821
95.1157
70.4399
33.8818
7.64728
-30.6574
-94.0372
-106.592
-34.7399
13.1242
-16.0587
-28.4443
-75.1076
-84.6439
-48.4672
27.0042
78.0957
89.6375
47.3811
-8.73684
-43.4567
-31.1039
-43.3276
-41.2761
-29.3529
13.2898
16.6471
25.5228
57.8866
67.6215
148.552
206.928
185.267
47.1821
-65.6195
-103.561
-139.223
-144.827
-74.2914
-18.1543
0.518543
-15.8841
-24.2349
-18.2843
-25.0038
42.1485
228.177
353.151
291.812
70.0209
-202.333
-397.673
-419.52
-368.466
-149.837
24.3914
97.7925
115.298
93.8621
96.3228
120.488
99.6151
72.2056
67.7376
66.016
34.6258
-47.5314
-145.72
-204.745
-159.577
-0.737799
91.7392
191.561
330.103
313.168
221.205
21.7338
-87.9845
-113.633
-74.6998
-75.0279
-141.224
-157.295
-137.93
-158.057
-179.107
-239.518
-203.449
-83.0334
25.8139
119.507
187.672
174.62
185.525
170.37
41.2387
-15.536
-39.1713
0.25378
-19.555
-29.2038
-9.97626
-6.06133
3.84473
-1.62073
-5.46586
-10.318
-14.5523
67.7693
141.605
119.082
113.565
47.6425
-88.3564
-200.646
-175.902
-64.1742
-21.8257
-42.7732
-24.9131
1.67082
53.7226
132.167
183.839
230.008
235.714
169.447
-5.99717
-180.604
-239.745
-221.565
-153.939
-62.2769
-7.31131
27.9203
23.0376
-43.5514
-48.7478
-59.673
-92.7744
-51.1981
54.3167
139.077
135.856
23.399
-85.4962
-193.384
-255.362
-172.827
-38.363
86.9721
137.614
142.741
153.924
133.948
69.8899
45.3465
57.3156
87.4694
94.4126
30.735
-38.7714
-127.153
-159.535
-99.0775
-54.0477
51.8263
165.854
200.856
145.852
90.1614
47.9638
-55.9086
-134.551
-127.764
-113.49
-47.8597
-31.0768
-68.1011
-76.0682
-44.799
-104.852
-95.2702
-11.2632
19.3278
51.6303
108.898
157.184
151.141
88.4723
-12.8104
-80.3457
-76.5118
-50.1459
-43.527
-11.7671
17.6911
23.2212
4.13269
1.65999
6.31258
64.3105
20.5831
-45.0537
-47.343
-20.004
18.9552
43.4351
112.64
182.557
102.419
-91.5544
-235.071
-275.372
-250.323
-173.006
-67.3668
63.5806
82.1735
71.0046
30.7076
52.7994
138.547
155.073
147.023
182.362
94.3072
-46.7109
-172.17
-219.224
-135.839
66.2144
226.318
264.935
208.177
104.283
-19.0569
-104.49
-59.2359
11.5295
32.329
-5.74644
-78.4781
-140.818
-134.316
-134.563
-111.407
-65.9583
-116.545
-170.527
-105.107
-8.12734
82.8425
73.8893
23.1223
-13.849
14.9247
17.2274
41.038
44.9214
45.7559
55.7572
88.8908
66.9983
11.0392
-55.9035
-35.6135
22.2672
80.2002
141.244
90.8089
-9.40454
-43.3841
0.157845
69.6008
125.073
141.216
149.114
74.3555
-97.4315
-218.931
-257.024
-248.372
-165.604
-70.8245
3.77319
35.0159
1.00496
-15.3953
0.836237
-15.9301
5.46189
-0.360668
25.2268
75.7953
90.3699
99.021
30.6344
-45.741
29.5874
13.239
3.72045
52.3701
48.0917
59.8207
72.7314
112.625
111.342
-2.48816
-119.016
-138.672
-131.654
-14.191
73.8727
56.8969
-27.096
-182.936
-215.373
-129.996
-96.8947
-33.6004
9.59331
-4.74032
-21.0292
-14.2408
77.2909
144.864
138.244
115.172
49.9737
-2.74392
-58.4089
-88.2815
5.37564
117.471
185.71
134.049
81.3655
83.5508
111.409
62.7945
-49.2099
-137.532
-157.188
-161.506
-127.269
-88.1747
-9.2884
43.8301
67.8995
81.9348
87.646
24.5904
-99.3677
-168.831
-162.019
-87.1887
-18.3364
-80.7355
-65.7521
76.4611
178.907
214.448
242.297
167.364
-6.25302
-220.039
-300.13
-199.679
-55.4975
39.9183
94.2374
113.071
45.9036
-71.2713
-60.2168
63.8528
46.8087
-49.4948
-124.194
-49.6635
49.1088
84.1295
48.7003
132.386
143.008
112.952
82.0308
35.3721
-18.4503
-46.7392
-52.7726
-19.6796
2.27999
29.1318
50.5983
-27.3259
-95.4539
-17.5
29.5242
38.6941
125.195
196.831
108.442
-179.29
-291.56
-276.186
-302.801
-307.457
-214.473
-98.5698
-18.2989
13.5175
85.8387
138.847
100.02
96.8951
166.386
250.287
268.148
240.475
99.0314
-43.1982
1.14149
74.4632
71.8336
74.2455
79.7303
112.778
126.394
64.2139
-55.4437
-178.241
-185.977
-193.161
-208.165
-212.162
-176.022
-176.091
-166.938
-131.099
-103.708
-93.8731
-86.1389
-50.4852
-39.0961
-0.349634
182.131
252.856
177.088
141.423
123.304
167.045
123.156
122.342
188.413
246.642
253.683
133.937
141.339
71.9478
-174.444
-395.056
-513.328
-428.091
-265.674
-170.034
-31.8486
53.0832
92.2345
122.516
121.439
59.6531
30.458
50.8568
100.265
106.387
5.79206
17.5811
-24.8036
-68.5201
3.66614
118.245
189.969
177.189
144.841
162.836
47.4296
-88.3352
-131.725
-131.478
-89.2956
-53.3273
-86.4883
-107.644
-191.412
-265.207
-260.197
-177.87
-146.226
-76.0388
18.9829
110.264
183.153
210.447
197.008
167.421
104.13
34.7428
0.578536
-4.65424
-17.1304
-35.8835
12.9134
42.352
88.5658
118.637
130.13
54.7082
-62.9942
-129.242
-103.087
-9.80807
87.9663
85.4242
21.1322
-13.6281
-23.3399
28.2944
24.0294
-51.0494
-58.9643
-74.4146
-130.978
-138.532
-90.6435
11.4899
73.8797
84.9124
63.6512
48.6307
35.819
-6.90427
-67.6726
-100.203
-90.6673
-58.6626
-30.2974
1.55953
39.5555
56.1876
58.824
35.2567
-2.0407
10.254
35.9696
4.26049
-50.6181
-65.5764
-26.2918
8.57079
17.1001
14.8697
-6.63816
-5.18346
28.7498
42.0329
32.3062
11.7601
0.775489
34.4249
91.3144
128.291
171.368
122.794
3.58866
-136.649
-227.299
-225.295
-141.196
-74.313
61.6231
99.8805
93.6156
36.9823
-43.3556
-116.057
-133.989
-122.884
21.4759
195.66
167.516
82.7095
-17.1338
-52.7829
-19.3313
1.06226
14.7544
51.5782
53.7188
46.0384
-13.8185
-53.9724
-8.7191
57.0835
92.6849
112.388
81.6193
61.5324
-6.45939
-93.3215
-109.259
-108.158
-78.7838
-66.2265
-61.9577
31.612
76.3717
17.3621
-32.9756
-70.9127
-146.63
-153.364
-138.508
-46.8896
66.9807
125.311
130.728
88.2318
0.405657
-161.716
-186.115
-132.662
-51.3899
5.71734
-13.6079
-18.3615
35.6693
141.919
210.19
255.628
256.618
206.326
137.989
57.3722
-23.7971
-98.6708
-129.003
-53.5178
33.9855
72.0312
131.82
169.046
87.5213
-63.4048
-180.798
-205.415
-159.712
-143.34
-93.5283
-61.5209
-78.8731
-81.6687
-103.27
-111.414
-106.546
-54.6705
37.3828
63.8684
31.7671
45.1607
39.7706
25.4339
17.5339
51.2524
147.883
189.466
170.707
159.679
55.1388
-81.1906
-133.285
-103.852
-31.8763
57.5107
74.7476
-13.3455
-59.0882
-64.3866
-99.9076
-112.518
-77.9268
-25.6151
38.7755
66.9529
58.1896
31.523
36.8559
-1.57684
19.8206
28.1315
52.2604
78.3961
27.609
-69.0386
-102.296
-52.1073
23.9311
-40.4261
-54.2798
22.3356
58.7074
48.3916
28.4696
9.6883
-21.9437
-101.584
-64.4956
17.5102
47.4286
47.7777
-42.9262
-104.05
-86.0007
-66.9558
7.761
92.9049
124.336
167.706
140.68
97.4851
30.6473
31.837
45.111
33.1326
12.6971
-54.1047
-154.738
-202.76
-237.306
-123.316
16.499
67.5194
106.341
166.407
205.226
137.5
-38.1903
-142.362
-204.422
-247.643
-248.24
-176.605
-84.1541
-11.1766
44.7581
137.303
196.24
187.815
184.366
124.315
95.496
77.043
0.646363
-78.606
-170.516
-209.808
-98.8286
62.0318
218.602
314.145
259.162
63.4826
-67.4364
-108.411
-144.302
-141.812
-99.9241
-9.31719
76.919
52.827
-67.4357
-151.479
-185.342
-193.543
-132.654
65.5071
155.328
66.7209
8.19192
-15.9091
9.19549
43.5053
70.9369
83.4127
48.6194
16.8354
1.1789
-58.2417
-120.492
-36.8268
92.5581
94.9944
51.2053
76.9236
70.7234
-10.8482
-43.597
32.737
49.9848
0.963942
-66.3691
-71.8533
-110.394
-100.725
3.27199
73.7154
8.25263
-16.2901
-1.28093
-15.5365
-3.34043
29.0079
25.175
-46.7546
-46.4421
4.81268
16.5689
41.183
48.8301
18.1995
3.04333
-65.3436
-47.5997
-22.9922
-27.7664
19.4973
65.6828
51.4385
89.6754
129.469
62.1775
6.36097
4.73755
5.60004
-33.8059
-87.6499
-113.684
-178.293
-201.836
-122.175
-29.8924
81.7499
163.683
198.264
124.156
76.0255
44.2826
11.925
-64.7198
-153.334
-143.552
-95.437
7.83186
122.541
127.324
35.5771
-19.4493
-68.4373
-83.6303
-29.7655
29.4246
96.3841
44.381
68.7018
180.017
81.0975
-72.3931
-159.875
-214.648
-253.868
-184.222
-66.8072
-0.866568
89.0116
160.188
157.079
129.753
183.381
184.015
71.0326
-23.8552
-70.4862
-37.5841
-73.6298
-122.622
-119.889
-95.789
-44.2775
23.4959
127.901
207.464
188.639
147.06
51.525
-52.584
-96.1429
-95.3472
-74.3641
-52.3235
-17.696
-59.3322
-130.802
-164.388
-189.668
-184.921
-77.1371
47.6595
122.782
149.592
136.67
89.018
24.7394
-27.0629
-44.1203
11.6347
43.7897
30.1867
-12.3634
-22.345
-52.1682
-16.8828
57.3232
118.918
140.369
105.647
115.557
130.581
46.3662
-71.5148
-167.334
-235.553
-180.554
-62.7081
20.6919
18.6502
39.7392
50.1358
60.5298
64.8626
13.7216
-19.875
-27.3273
-46.9277
-55.8877
-29.8188
-25.8843
-21.9944
34.8904
52.2193
66.1949
44.6816
11.9302
-50.0351
-92.0577
-29.2652
14.7206
35.9632
137.534
151.145
59.1008
-97.2785
-227.175
-241.287
-219.45
-215.489
-98.3501
53.6878
120.629
151.445
157.866
193.987
187.457
184.958
170.703
124.317
86.7763
30.353
-105.856
-179.954
-169.294
-129.454
-48.9388
49.7822
119.595
162.167
21.6216
-137.687
-220.957
-220.538
-163.453
-51.2414
66.6606
88.3043
99.4137
66.1986
27.1395
-20.8562
-87.0438
-59.1754
-9.03268
78.2544
158.901
135.733
38.0721
-44.623
-76.7422
-43.2159
22.4055
71.5519
100.247
132.147
74.7525
-28.7011
-145.679
-224.101
-209.788
-77.4542
24.5774
-59.2344
-41.3155
2.09091
-43.7315
-12.4577
117.452
245.267
258.853
138.707
-11.0868
-106.757
-182.473
-283.574
-247.542
-180.654
-83.4019
27.3862
78.4005
171.073
236.456
212.603
166.003
130.386
90.9808
53.1267
0.951232
-82.9585
-105.484
-103.772
-47.7507
50.1676
99.9216
117.598
73.3019
40.303
-4.10446
-33.1742
-20.0509
-72.0294
-142.531
-58.4025
33.031
40.6494
67.3269
20.9724
-95.1591
-200.875
-275.135
-222.772
-65.4583
-9.87768
-14.5801
-21.9649
-4.85458
39.2952
75.0148
104.208
92.3727
88.5506
66.112
38.0273
10.2263
2.35465
0.990229
-30.1276
-40.3607
75.3903
214.927
207.934
106.937
20.5102
10.0459
-16.4576
-97.8003
-99.7914
-72.7103
-118.137
-133.832
-117.065
-17.5556
77.9032
57.9663
12.6384
-69.6297
-77.624
-27.5973
-21.7343
2.82477
27.7995
-12.2455
65.5213
151.098
203.446
207.428
164.036
0.480565
-147.348
-231.994
-238.14
-233.823
-222.454
-111.232
73.6916
142.286
120.891
124.253
111.219
79.1354
104.345
141.554
122.745
47.8809
-24.2795
-66.4618
-98.7704
-32.1078
36.713
76.8052
81.305
8.65188
-73.6023
-186.913
-190.827
-3.56494
65.6471
-15.6554
-154.413
-231.611
-176.9
-85.1491
-57.6041
14.4168
45.6646
112.272
128.279
110.475
115.509
109.361
68.4485
52.1785
24.3756
10.0313
-66.3504
-169.658
-77.2564
125.624
229.941
235.662
154.553
78.8308
30.0899
-33.33
-110.797
-220.727
-324.177
-339.142
-248.151
-123.565
-22.285
115.62
247.43
277.013
219.917
144.54
75.2282
-10.8695
-75.0018
-117.519
-116.784
-109.215
-76.24
-46.4829
0.98597
65.5478
151.684
177.827
146.214
135.593
52.6232
-45.389
-103.865
-111.32
-101.585
-69.7355
-21.4544
56.0102
93.5795
58.8754
-6.89255
-76.2462
-108.048
-85.1496
-67.4652
-46.5028
-16.9511
12.5379
4.15341
-69.6887
-146.673
-184.413
-112.709
15.5223
131.897
180.059
145.938
53.332
19.597
-27.5008
-43.4231
24.9401
108.301
224.13
215.309
146.66
125.14
60.7354
-46.9933
-159.635
-125.508
-35.1333
-59.1153
-120.757
-168.496
-183.103
-192.815
-170.845
-39.4286
80.4253
124.239
86.9747
25.3551
-82.0257
-98.7381
-24.3901
37.0144
59.8153
120.562
201.975
215.409
141.842
71.7265
74.525
87.3175
10.3039
-89.3642
-132.896
-129.748
-18.1552
30.4302
-12.9253
-61.7428
-78.903
-59.481
-35.2798
-28.7575
-14.607
20.1677
32.8498
-2.0757
-28.1178
-12.0946
-2.43292
-13.9025
-1.85584
27.5705
41.1969
-0.953757
-35.9392
-22.0192
36.0096
45.1831
-7.6799
-36.4181
-45.3397
-32.7635
-11.2536
-19.2733
-0.509938
-10.7068
-3.44627
14.2922
10.9424
4.38863
18.2143
18.5655
40.8647
42.6391
24.6232
29.4869
36.797
26.1868
-4.90446
-28.0756
-17.3852
-23.883
-12.6728
8.07764
5.23066
8.83383
8.25508
-0.0549224
-13.8228
-6.59516
23.1596
29.0868
7.07336
4.4647
-5.55583
-13.3627
-10.9901
-23.1692
-21.2687
-6.7105
-11.5457
-19.114
-11.5526
3.24838
-6.6504
-5.37347
19.6356
10.5602
7.84338
-1.14468
-7.20657
2.98879
-19.9138
-14.2719
10.1414
3.00121
16.0932
22.1119
4.90227
-3.06797
-24.7682
-12.4203
-12.3551
9.8318
14.2617
16.2706
1.71878
-4.18657
-8.01267
-7.70123
-23.3559
7.04197
24.5089
14.114
-2.04647
-3.8731
-12.3342
-7.43912
-16.7436
-16.8071
9.02873
25.9374
20.1308
3.49201
6.77842
17.3446
10.7128
3.54856
-13.3648
-14.3973
-9.59161
-12.5636
-20.4278
-44.7464
-42.1782
-13.3167
-3.68925
11.4015
34.0545
38.0637
25.8837
10.0503
19.6565
7.90464
-18.1938
-3.88852
10.3363
12.9204
19.7256
11.6031
22.5017
-0.538527
-18.6318
21.6837
32.8231
16.16
8.76461
36.4035
32.9797
-9.25754
-56.763
-55.4625
-80.144
-84.8655
-49.1994
-54.5618
-26.8081
26.4465
57.2835
53.7238
53.2227
69.0666
41.1714
-8.73654
-88.8727
-133.56
-127.823
-112.186
-47.3959
92.3384
127.347
65.9178
40.0937
58.1728
81.0948
65.1853
35.3282
38.5575
24.8794
7.86883
-10.445
-22.7715
-3.31969
4.97116
27.1884
37.3374
71.8062
41.9839
-9.72909
-67.1796
-63.2832
-40.5091
-26.8568
-53.5313
-39.7737
-16.0745
-9.25216
-25.5255
-35.5996
-32.5049
-30.3928
-10.8762
12.5552
-5.41585
-13.8459
18.1982
13.0099
-22.4339
-81.266
-117.744
-93.5016
-33.4944
-37.0099
-57.5177
-71.7261
-39.8839
-11.2871
-2.42665
7.11329
78.9529
141.029
103.819
97.0505
127.627
176.234
200.633
167.397
157.63
157.703
126.791
62.6828
-35.1715
-88.3421
-90.258
-84.6311
-98.5998
-111.293
-42.6561
12.9328
-62.455
-150.7
-112.829
-45.7254
-59.4823
-105.417
-55.6345
2.92709
-53.8916
-114.881
-132.926
-172.174
-151.16
12.2732
171.551
197.022
166.428
140.943
57.4629
3.94418
19.4977
68.512
66.7938
31.6659
1.51749
-15.3155
-40.9174
-73.7035
-41.6922
-24.5191
-31.1259
38.5561
76.8201
55.232
-25.6873
-82.8356
-50.4854
1.4964
55.9468
112.243
106.515
55.6519
21.4512
-4.71639
-20.7461
-17.5913
-66.3486
-100.472
-89.3231
-30.1068
70.6325
132.443
148.55
127.738
29.3249
-56.3056
-110.714
-169.629
-251.903
-366.97
-362.042
-187.725
-30.3901
102.462
165.522
172.472
138.298
119.848
160.568
194.632
148.886
59.9385
20.0246
46.9185
81.8625
80.8173
62.3972
44.2728
34.2103
72.8079
75.1128
8.01786
-70.5278
-147.499
-126.341
-88.6456
-75.3419
-42.8334
-54.9351
-73.6486
-98.3586
-139.438
-134.616
-137.504
-104.038
-19.6241
48.9568
98.4977
103.977
93.8717
97.1339
59.4885
23.5517
8.06192
-5.06277
12.0769
69.4561
47.4589
18.5193
2.13835
-17.1171
5.48736
20.1873
-15.5607
-18.0609
25.5167
32.3014
31.8012
71.8425
54.0361
17.8427
-23.7185
-107.809
-196.17
-205.951
-69.6604
58.8321
53.7131
13.5404
30.1257
40.889
34.6248
24.57
26.3699
21.0982
-12.3389
-22.278
-18.9742
-20.7164
13.7038
58.5511
74.4285
135.505
177.558
199.393
84.5201
-84.9355
-116.47
-74.8072
-99.3639
-111.222
-96.8446
-92.1904
-90.3661
-66.977
-2.40133
33.3403
-2.37546
-13.1481
-3.20222
-17.5354
-36.2885
-62.1023
-42.1875
-44.7931
-41.2436
70.3847
128.22
82.8872
77.2893
106.109
49.099
-0.647446
-45.6888
-178.208
-235.815
-89.2828
39.6007
42.4593
42.7925
75.6272
144.776
117.659
93.4215
125.768
88.2222
-31.8167
-87.2192
-32.633
29.0649
82.2801
175.437
199.489
184.64
183.642
100.054
-66.5659
-203.014
-241.207
-214.263
-253.713
-316.771
-223.45
-132.095
-121.685
-78.8949
-3.23742
22.1729
-6.03194
-11.3733
-23.4716
-46.7986
-42.5884
-25.9377
62.3841
170.042
193.127
223.401
247.689
230.328
213.045
157.512
80.1412
-24.9782
-84.9416
-156.388
-196.498
-122.039
-5.35272
47.9491
60.8966
15.3462
-10.2273
25.5516
43.2112
7.14892
-56.1354
-84.3156
-76.2167
-52.9676
2.07
30.6085
7.52921
-24.9455
-66.3973
-52.7858
-75.6028
-133.64
-103.369
9.24359
37.45
41.016
35.1407
25.6784
43.7426
32.2491
35.9288
23.1667
-3.91709
-43.5969
-68.2863
-53.8079
-33.1421
22.6289
139.862
181.058
165.976
148.893
69.8262
-60.9477
-117.197
-108.063
-87.8623
-0.553114
63.0088
62.0796
-5.99259
-54.1253
-25.2125
-43.8287
-89.3438
-63.4936
-26.3259
1.59117
49.3633
84.9265
65.3528
39.9359
51.0073
5.99517
7.92529
41.59
7.2489
-55.7294
-100.024
-111.233
-85.7999
-10.7809
8.55735
58.921
67.5257
-13.9752
-84.096
-134.143
-248.056
-310.954
-163.239
51.8969
131.157
162.576
145.462
138.799
145.26
104.458
84.716
94.374
109.233
118.375
109.03
64.0795
39.1515
34.2589
41.609
43.7123
25.1209
9.61807
-77.6258
-151.407
-152.758
-113.842
-87.4342
-46.8311
45.7574
89.033
15.8583
-76.674
-121.928
-171.953
-190.423
-189.975
-135.228
0.111012
64.183
117.379
183.794
262.492
259.909
146.533
27.2397
-51.3472
-89.5151
-123.132
-138.495
-137.228
-113.236
-92.5737
-62.2836
7.48643
29.1165
54.8656
68.4446
44.1411
43.2984
38.3371
-1.05824
-40.3437
1.73405
41.5778
31.5054
18.0797
20.367
24.7363
17.0371
9.88177
-4.63615
74.0546
121.09
72.8695
30.5198
-4.79667
-39.0076
-64.4198
-89.2913
-69.1363
18.5933
44.3831
53.0111
85.0628
66.214
18.8661
-17.872
-37.1156
-14.8317
-16.1647
2.708
10.7704
-17.7223
-74.504
-102.012
-79.0182
-55.9294
-53.3969
-5.51649
9.20451
-7.28215
-30.3383
-74.7592
-84.991
-64.4366
-51.7003
43.8165
176.841
150.522
79.8792
19.5131
-67.8513
-90.3524
-73.141
-90.2368
-125.705
-56.4395
132.775
227.472
182.221
86.8974
43.556
72.2542
37.0662
-16.8153
-45.4509
-86.2231
-116.366
-137.413
-96.0434
-26.2743
36.3092
114.472
184.159
210.467
223.979
218.686
100.291
-16.2178
-98.3869
-142.429
-155.176
-178.064
-156.976
-108.529
-86.6335
-112.548
-117.958
-94.4702
-42.533
0.28828
31.2718
24.631
-25.3806
-68.0044
-15.6855
-32.7873
-107.457
-81.4253
58.4439
157.504
202.664
175.115
148.667
173.315
166.182
92.8355
35.4349
38.2799
-23.9758
-35.1356
-57.2615
-95.6845
-83.2116
-47.7597
-84.6904
-86.0904
38.0705
55.6108
-34.5475
-77.0416
-47.8001
-13.8929
34.1444
37.6746
65.6977
60.3354
-49.0778
-116.858
-142.716
-209.606
-210.369
-95.6831
53.0376
173.349
196.711
217.18
166.715
106.817
90.0321
71.1505
35.8079
-5.49819
-72.0059
-103.375
-84.2166
-50.0351
11.0533
35.4044
44.7828
70.8404
71.3215
3.35318
-80.0255
-65.1351
-12.3709
-12.8973
-57.9093
-80.3968
-85.0997
-93.3482
-143.464
-184.368
-154.459
-69.5799
6.66031
75.9416
83.7688
96.4032
114.256
114.219
122.78
98.9534
54.3598
8.97993
18.1234
62.8318
82.1356
76.8369
69.4198
30.9338
36.554
9.41938
-62.6358
-130.404
-205.668
-237.964
-139.735
-36.2892
28.6398
99.6706
158.994
156.591
128.287
60.5545
10.2121
-67.232
-110.091
-116.633
-92.7907
-40.4961
-37.4762
-32.79
35.0937
77.7263
107.624
112.413
23.3405
-60.8155
-24.1484
-17.7644
-98.7488
-63.8624
-3.2708
49.453
63.859
20.3346
2.03857
10.6448
-28.7661
-47.6387
-96.1094
-119.554
-116.391
-11.3282
76.0901
60.1593
62.658
111.204
120.447
147.701
219.054
225.97
138.443
17.3423
-89.6717
-152.524
-204.015
-265.364
-375.529
-315.54
-8.66555
201.928
191.709
131.683
69.0825
83.2827
91.5219
26.7257
-54.3389
-122.786
-159.575
-179.763
-88.9045
-35.8215
-2.51771
49.2901
97.7895
150.266
257.318
255.597
112.495
15.4329
-14.1932
-103.272
-175.076
-103.084
11.8425
40.99
18.1078
-22.6999
-53.9938
-96.9983
-144.299
-106.185
-68.1213
-8.92129
55.9816
74.6185
113.877
82.7868
-8.44528
-35.8781
0.0260732
23.6625
41.5821
26.5236
46.5786
100.589
146.783
118.227
25.0381
-44.5337
-62.0552
-94.1514
-141.513
-151.767
-61.2386
52.7764
74.3928
37.3884
4.96284
-18.3862
-10.468
0.646043
-20.3399
-51.4567
-85.3161
-117.318
-137.662
-119.912
-87.2984
-18.0723
29.2275
65.6078
162.415
241.686
209.444
135.189
71.6145
42.9596
51.0849
17.2714
-76.9609
-130.772
-64.4266
-52.4612
-163.599
-229.979
-120.829
74.9501
154.834
122.03
70.0695
55.4558
35.1756
-0.957568
-38.0351
-15.1744
41.3382
80.3852
85.8239
128.087
133.804
13.0806
-119.315
-136.185
-101.155
-22.5707
-56.2289
-126.238
-74.7017
11.8117
36.8651
18.2856
4.30619
-24.5515
-77.6139
-105.23
-84.6543
-65.1103
-50.8441
-52.5743
32.9696
164.672
201.763
136.923
71.7349
23.721
-36.1676
-120.308
-190.598
-231.671
-136.775
22.853
118.536
155.178
219.379
236.668
275.208
257.786
138.973
-28.3072
-212.582
-423.702
-490.812
-256.296
16.3106
80.9307
96.4975
146.465
191.521
220.837
178.067
76.2017
-3.88574
-72.7658
-128.636
-137.975
-141.654
-118.982
-35.9372
30.1966
94.6037
209.363
258.037
138.219
0.554404
-28.8152
-22.7055
-44.9477
-95.2389
-138.509
-136.754
-97.661
-77.1096
-58.1938
-70.4578
-78.4031
-83.0318
-73.7014
-63.8136
1.28932
25.0649
28.9117
-9.2228
-47.177
-1.07566
103.333
124.386
156.432
239.2
314.328
263.519
144.361
4.44785
-133.559
-218.463
-206.536
-229.827
-248.837
-153.2
-3.04626
128.398
181.05
171.627
131.493
43.7333
-80.4573
-120.954
-107.168
-120.918
-139.666
-156.005
-135.552
-19.4763
99.5735
132.643
121.12
106.84
138.274
140.822
58.3995
-13.8462
6.11002
82.7937
58.5907
-28.5911
-50.9044
-41.4012
-45.3768
3.38978
53.85
66.5837
57.5831
65.8283
98.1019
55.0755
-70.4342
-94.178
-98.8316
-136.474
-81.8295
-64.1844
-102.071
-89.7004
-43.1125
0.0257353
3.92034
-43.8077
-137.094
-169.447
-71.0403
14.4367
13.5241
-19.2542
-40.3924
15.2509
91.0735
131.971
185.499
239.552
217.744
160.579
122.083
85.8471
32.8612
-26.0518
-107.321
-185.497
-88.0965
12.8417
-47.1868
-66.6903
15.0844
13.6304
-24.5769
-65.1304
-82.9868
-59.4651
-59.1566
-103.958
-97.4519
31.8996
130.312
156.915
176.884
170.117
145.274
117.522
28.7398
-54.0385
-120.985
-171.687
-189.269
-165.986
-123.841
-74.849
-30.2238
-8.89836
-13.1696
-1.27532
-7.72055
-58.3197
-44.6164
-41.3591
-35.619
28.3635
105.162
172.037
177.143
122.387
80.1106
52.2614
0.23725
-8.33499
14.1968
52.545
91.9211
33.9248
-42.4323
-51.7635
-76.0224
-102.491
-71.71
-43.4021
-36.1477
-33.2674
-16.0367
26.971
83.4165
135.575
152.656
129.215
110.808
55.7041
-2.41215
-71.4847
-190.611
-240.435
-233.493
-145.757
-52.6366
-11.0767
-29.0841
-13.3829
27.3301
43.7345
53.3529
68.9955
17.057
-103.508
-187.651
-162.892
-75.3027
31.6669
97.6416
160.356
188.256
198.941
195.223
155.321
94.1717
37.356
-13.4645
-34.3232
-20.7909
-8.92802
2.56294
-45.9072
-76.3755
-49.2339
-16.2203
11.2578
24.0989
-10.684
-36.6795
-28.9119
17.2556
42.5257
35.4516
-30.7113
-82.9834
-68.3154
-61.7976
-104.749
-101.998
-66.4854
-72.7835
-53.5403
-1.55648
14.4953
30.2064
33.2585
30.0917
58.8537
106.748
139.937
138.117
67.8981
26.9555
1.23329
-18.5833
-38.093
-58.422
-51.5191
-18.4201
-31.0834
-41.3649
-42.5538
-10.3284
70.7588
80.734
39.5932
-1.53391
-28.6887
-76.482
-110.734
-115.743
-67.2994
-25.64
-9.52039
18.2252
4.6812
16.0867
68.7437
58.6484
13.6246
-1.99037
67.5693
109
59.7004
22.8263
24.9157
35.4268
25.2241
4.84813
-20.3324
6.80004
41.5702
39.5776
16.0179
-4.39766
-18.3186
-32.789
-55.5982
-91.1905
-78.5529
-57.7036
-23.2963
27.9251
54.2116
69.098
58.4969
25.3046
-32.5819
-110.437
-117.496
-87.4644
-77.14
-70.8846
-33.55
22.5655
55.8124
41.2662
56.0373
71.9323
87.8944
107.931
74.6654
13.8842
-16.6816
7.48016
6.80668
-49.6877
-77.431
-91.0435
-141.786
-171.175
-115.188
-33.2749
-3.98776
51.6158
161.92
234.494
191.548
110.441
88.9048
70.819
-5.78153
-45.6473
-27.3602
-62.8843
-81.0461
-43.5444
1.94862
93.8092
140.434
95.5036
19.1504
-77.0222
-170.179
-252.637
-239.2
-169.779
-105.941
-33.2553
48.624
79.9368
86.6623
74.5079
48.5322
1.74048
-8.44893
16.4139
36.9652
64.627
53.2624
53.0285
59.0421
60.2264
79.6535
55.4351
-10.7165
-27.1698
8.56548
63.5265
51.2447
-8.88482
-40.058
-63.7126
-48.6883
19.1208
31.7844
9.7766
65.3696
32.0797
-6.54984
-52.1953
-108.404
-131.485
-132.549
-96.6397
-38.4045
-59.1894
-55.5909
-32.929
-45.8759
-28.8772
-14.5529
-0.0615163
-35.84
-55.6687
-26.8856
14.296
23.897
34.1374
71.2306
113.06
178.476
202.028
211.033
204.815
154.429
106.531
80.0716
35.0377
-3.9421
12.0633
-2.25571
-41.2864
-93.6947
-172.66
-208.67
-161.049
-130.71
-101.479
-51.2623
-51.9014
-70.4282
-47.6629
-27.7571
-44.1286
-76.5675
-55.6191
5.95096
3.57141
9.62021
17.0339
31.5729
37.7293
50.1287
69.014
110.266
101.055
18.9716
-36.2965
-40.4334
-0.0309205
48.8147
87.6516
111.817
121.326
134.914
105.033
27.4355
-43.2382
-112.912
-127.055
-100.045
-111.943
-70.625
4.05553
35.7919
23.5751
47.9389
74.2699
62.0115
51.1325
-0.335865
-30.0469
-33.5369
-94.3127
-154.449
-136.511
-104.122
-55.8639
6.22978
56.5948
71.1944
68.7884
53.1372
30.9438
-7.44162
-45.8892
-55.3744
-16.6766
-1.13215
-18.9694
-26.5758
-8.54364
28.9338
76.1084
69.1627
81.6689
85.335
78.1248
57.7478
26.0843
13.8871
36.3878
59.6978
103.402
120.076
94.3365
19.5882
-113.037
-227.147
-253.275
-225.485
-217.284
-128.598
-2.98204
36.6833
46.7409
66.4832
72.3073
36.2495
1.37408
-33.6371
-63.6386
-51.7901
-46.4518
-23.1076
-1.01059
33.8643
97.912
156.388
178.622
210.675
220.999
126.927
22.69
-11.2319
-46.2368
-107.463
-140.089
-122.975
-81.1819
-54.458
-30.9491
-45.9674
-66.5693
-72.7115
-72.2726
-46.3925
17.3263
72.0037
88.9867
76.7095
60.6489
57.2765
34.3112
41.8346
89.1228
81.4775
34.4233
-9.48417
-43.8047
-49.0712
-73.6703
-101.84
-82.5987
-94.4608
-112.492
-119.485
-124.132
-102.056
-43.7259
-5.89715
29.3405
50.9484
66.1279
79.1167
23.3835
-12.4549
12.4877
66.6957
87.7028
133.733
149.311
116.363
35.1076
-20.4565
-21.8452
3.22855
0.159915
-35.4001
-12.601
88.4238
127.385
69.9342
-15.3999
-72.397
-73.113
-35.9394
-24.762
-38.1033
-72.4779
-90.4623
-79.4146
-79.3101
-38.5015
65.5298
96.0304
89.552
81.7487
57.2826
16.1312
-46.0606
-120.547
-89.1057
-28.4688
-49.1445
-52.0619
-13.1401
3.9984
6.39424
8.6288
-8.97234
3.91278
64.8689
73.509
47.0013
20.4042
-30.8814
-82.0727
-96.6423
-127.49
-164.406
-108.424
-47.6173
32.0745
118.594
157.864
158.923
151.329
104.692
74.9963
86.3721
72.1594
19.8607
-30.3377
-43.2556
-24.6534
-16.4102
-9.09021
30.5117
24.1987
-35.5196
-77.1287
-106.84
-80.294
-28.8193
-21.7483
-30.648
-62.4072
3.33434
37.6299
-9.37542
-59.2457
-71.3916
-50.4236
-23.6752
42.3188
81.9439
113.22
118.172
114.137
100.946
94.6068
50.6557
-39.8549
-64.1485
-75.1631
-108.855
-94.3753
-77.4327
-81.3522
-131.668
-122.002
-32.6775
32.6998
50.2206
56.6264
66.3976
65.1854
84.9047
150.971
153.535
63.3774
-15.7121
-69.3894
-119.452
-132.854
-108.508
-40.8742
-11.9278
31.261
120.215
169.426
139.514
97.5621
9.29516
-82.4648
-82.1385
-47.7809
-35.1352
-61.2396
-69.4548
-52.4818
-52.8554
-44.713
-31.811
-21.1093
-6.56001
10.6172
8.09368
-10.5853
-41.0559
-48.3869
-21.3111
2.04608
42.0554
102.723
120.407
111.566
96.1856
82.3334
78.5962
53.3035
43.1988
32.6529
50.5034
54.3933
-0.195262
-89.8019
-176.249
-203.353
-159.187
-126.267
-85.5485
-9.6102
38.6487
19.5412
-2.43168
-1.92061
-14.0649
-39.3094
-39.3543
-8.22634
50.938
106.035
94.6655
49.725
42.0786
24.362
0.0789499
16.2279
67.9286
98.6308
66.0101
3.24686
10.7098
-0.274065
-12.4153
-43.4065
-84.7937
-111.147
-90.7191
-82.9688
-114.435
-104.501
-111.475
-70.9699
4.37151
124.545
212.378
185.107
67.6877
17.9733
44.0956
63.1805
26.0279
29.3862
65.6752
112.731
162.006
94.5733
6.4149
-26.7957
-70.5159
-190.119
-282.907
-246.237
-162.946
-102.294
10.5861
103.017
109.188
67.3685
17.8035
-25.7137
-42.6022
-52.5142
-45.1987
-63.0892
-92.6591
-47.9825
-51.5
-53.4784
10.1559
78.6601
165.378
206.272
203.613
128.129
56.859
9.51775
12.748
13.3043
-16.7637
-25.3372
7.92999
21.0287
-44.9219
-100.342
-122.492
-99.738
-57.4982
-10.1481
65.5055
136.774
181.53
156.074
58.7263
16.05
-20.6022
-55.9665
-38.3113
-1.97314
-3.92803
-28.2537
-81.4908
-114.287
-139.642
-167.209
-176.841
-150.364
-49.5257
53.4556
107.092
111.595
64.4245
27.0795
7.51694
0.264175
-22.7047
-11.9421
9.39846
7.11297
-14.7507
-40.6417
-59.7162
-24.2013
-41.4655
-60.3273
-3.9931
110.613
168.012
162.961
119.549
84.256
86.0947
62.7956
26.8618
-59.6435
-110.345
-40.1949
-3.96308
-5.71056
-32.6536
2.24415
23.7909
33.1816
85.7344
132.645
79.3156
-12.1751
-73.6978
-88.2149
-97.8026
-107.808
-101.223
-80.8259
3.57694
82.7499
105.369
36.5464
-21.4817
-77.5748
-80.1535
-52.8857
-34.0039
-45.2846
-33.0945
6.51433
72.4804
56.6081
-0.122457
-60.8547
-92.9377
-81.8577
-55.8146
-26.5355
-25.0816
10.43
2.89168
-2.38752
-2.26231
18.8971
42.2463
25.5286
23.2479
84.6455
128.584
110.717
78.1447
76.4171
51.446
3.94927
-24.6329
1.28833
30.7387
29.3045
24.168
10.8318
23.629
25.6971
44.5403
48.2587
14.0628
-8.54739
-4.32198
-34.2116
-50.7022
-68.557
-102.236
-99.6586
-82.2753
-51.5245
-33.9012
-74.0612
-107.937
-98.6517
-71.7334
-58.5079
-24.3472
-32.627
-76.2257
-27.8128
52.4613
92.506
96.3047
60.5796
25.8965
65.1456
112.465
111.639
126.972
116.816
95.0521
85.6329
70.2756
10.329
-23.6314
-44.7555
-73.8533
-73.4185
-42.3598
-41.685
-50.4937
-67.2262
-63.2439
-71.3795
-66.9172
-57.0422
-24.075
38.7788
43.8768
49.0858
50.4225
8.72646
-33.7346
-64.7373
-111.67
-169.276
-175.694
-23.4855
166.47
265.658
236.612
151.574
79.0838
41.637
0.017954
-52.527
-103.857
-143.056
-124.072
-39.6084
40.2179
80.6152
105.441
102.748
120.952
135.244
89.987
3.62633
-108.278
-221.381
-250.663
-235.042
-199.178
-93.2025
29.2614
113.367
149.619
163.744
179.778
135.032
37.6038
-24.7017
-56.364
-25.3233
-57.2441
-87.07
-68.0771
-61.3097
-61.7621
-45.1988
-12.9853
49.8662
88.8529
31.325
9.28864
0.82634
-29.8452
-54.2837
-44.749
0.331571
26.3582
27.3545
13.1534
-3.72964
-2.41609
21.6681
28.3071
21.9616
57.0503
71.3879
85.9341
63.055
33.2507
42.7645
-28.7253
-120.957
-91.3456
-29.964
-9.04929
-18.7884
-43.265
-20.9564
1.09771
-6.9397
-9.09543
22.3055
62.4936
60.6148
62.9814
58.4798
30.3536
5.86498
5.56061
27.6997
75.2066
81.8962
49.4398
-9.36902
-52.0588
-100.795
-144.218
-154.276
-126.489
-70.2113
-24.882
-12.3135
-22.179
-37.9183
-92.0362
-117.564
-57.5893
8.94507
31.004
24.5904
40.5648
85.9246
90.4413
97.9989
99.1531
34.1083
-13.9269
-41.66
-73.238
-73.6062
-24.6272
35.7602
103.928
182.078
206.672
200.506
150.435
105.458
45.103
-15.109
-73.3664
-119.942
-134.806
-126.04
-153.555
-115.098
-35.9692
14.8477
50.7539
23.3773
-36.5072
-54.45
-47.0279
-57.1062
-45.0835
5.77186
4.18682
-32.9954
-86.266
-62.8095
8.46528
61.469
59.4516
-7.13823
-47.8161
-39.5432
59.2365
117.858
56.2644
55.2751
142.434
163.245
49.8213
-41.0715
-88.1886
-115.655
-71.9611
-50.8512
-51.4141
-66.7291
-61.7121
-24.0907
20.1326
65.9272
89.0496
85.1765
28.6506
-4.89672
34.4968
37.225
-28.2221
-72.6972
-44.3274
-11.3245
-19.6409
-18.0138
-8.03569
19.2361
74.1383
100.938
49.3634
23.4875
-3.50801
-8.39966
-4.0216
-12.5979
-35.7874
-36.0313
-16.6922
23.4955
-31.3259
-63.3079
-22.9077
9.42677
17.1133
15.905
18.4853
64.0263
121.617
87.7905
22.8998
-46.7324
-95.3689
-133.702
-122.616
-80.8425
-22.2624
19.5252
27.7826
25.2444
57.9257
70.7011
19.8398
-92.4027
-160.135
-153.415
-155.723
-155.023
-114.83
-46.2357
23.9454
106.587
188.669
213.488
200.474
178.822
91.0625
21.2696
15.0029
6.38275
8.87558
17.6522
46.1447
109.12
141.024
113.717
57.2386
-20.0341
-119.573
-165.85
-144.162
-189.469
-270.198
-221.933
-135.413
-44.6843
89.4707
175.07
220.107
189.57
185.84
166.752
106.072
16.3046
-67.2113
-141.878
-128.354
-59.4319
-27.8806
-19.8771
-50.8814
-75.3929
-37.1896
9.58284
10.8295
-51.8875
-80.1744
-64.2992
-81.4481
-81.1656
-89.6612
-95.947
-70.6968
-17.7497
67.9763
113.645
104.725
94.5969
102.579
88.0394
67.0384
57.3291
34.151
44.8624
86.0781
111.609
60.4256
-10.6581
-36.7073
-51.3916
-73.6274
-85.1218
-25.2892
44.9245
48.6222
38.3276
33.6286
22.741
12.9651
-30.0109
-56.3959
21.6141
61.0036
21.7107
-52.361
-88.3683
-75.8116
-70.4089
-80.2365
-131.6
-92.8292
-23.4081
-11.9127
-20.6789
7.74939
51.1013
66.3114
54.9065
35.1595
76.1978
87.6227
42.8202
13.6479
-34.4267
-55.0694
-54.8874
-53.4411
-2.61597
10.2194
46.7094
51.4241
26.9518
12.1329
0.495458
-32.7778
-25.0376
-15.5632
-26.5961
-26.6565
-21.5778
2.35533
22.6967
48.2221
84.2126
54.8558
29.8987
-3.08022
-36.0785
-30.0372
-20.2172
-18.1585
17.0828
23.0592
48.1184
45.4887
13.5288
-1.87377
-40.4596
-93.4289
-138.031
-85.788
-2.62692
71.4753
115.572
148.214
108.699
62.6228
19.2995
-120.989
-198.615
-112.208
-58.2738
-17.4408
-11.3693
-8.24177
-47.8963
-81.9806
-43.253
1.25883
47.8371
58.4042
66.9061
65.7795
31.8092
15.5225
42.2044
58.8109
68.8534
121.468
152.328
38.0662
-49.3797
-76.513
-119.266
-124.797
-63.4469
-0.946863
46.9395
102.063
118.447
88.1436
29.4092
-19.6978
-51.1998
-61.4514
-99.8509
-103.3
-116.783
-83.7582
-31.759
-4.36763
-26.7865
-44.7012
12.1988
57.4087
63.0765
36.762
15.9095
43.2023
33.6019
-17.3239
-76.0285
-61.2465
-15.0162
15.1926
60.5662
94.0008
97.0782
92.8366
57.071
28.9501
-28.5661
-77.4207
-104.642
-100.246
-66.9173
-4.42152
34.4676
52.5144
38.0275
18.8383
9.01651
-29.103
-63.8071
-56.7551
-39.7663
-20.8889
-1.65202
39.6026
78.0131
66.6748
77.9355
95.5523
50.1786
16.6571
27.1662
-3.402
-23.5989
-54.3341
-48.2089
-24.9944
-22.7705
-63.9214
-60.6841
-4.7739
35.3668
49.1127
35.8279
5.86627
-35.851
-44.9716
-11.0825
-15.1029
-16.2461
21.4493
39.1812
35.6296
-5.85726
-45.481
-40.2108
-4.25632
51.5053
122.18
89.5164
-31.9368
-121.436
-130.051
-86.5116
-112.268
-141.508
-60.5242
77.1982
154.627
174.508
98.0142
-0.193327
-36.4419
-72.0805
-70.1494
-62.2556
-78.8109
-77.1243
-28.2647
55.9236
94.4512
89.8076
65.1497
74.0372
112.339
139.973
106.153
36.6566
-19.1976
-46.9569
-54.0526
-37.6908
17.0686
84.6407
86.2106
61.5573
45.5008
9.35591
-63.6113
-130.191
-157.353
-127.761
-137.262
-107.489
-30.551
29.1317
28.4787
3.02325
15.7311
12.1525
-4.54972
-6.8199
-24.5301
-56.0251
-78.6396
-95.5663
-91.9566
-28.1899
32.1364
60.2951
100.971
110.125
111.712
67.4199
31.6672
17.5514
14.563
-1.30643
-24.6957
-18.7226
28.6518
42.4564
24.557
-2.08022
-46.6941
-44.5603
19.146
60.1104
73.8799
86.8046
73.8912
57.7269
82.1916
80.6409
41.3218
10.4865
-48.2979
-81.1465
-77.2057
-58.5107
-66.8961
-115.328
-151.51
-116.554
-43.7102
-10.2827
-48.3368
-67.447
-61.4599
-55.617
-21.8387
16.568
-38.9111
-104.62
-46.1142
57.041
100.885
93.0282
72.0296
75.1286
59.4271
52.3221
87.8464
114.623
100.359
81.6938
53.2021
42.2671
31.7819
-14.0931
-22.7745
-22.4875
16.3635
47.0588
20.788
-47.0701
-86.7797
-62.3298
-56.7967
-96.5479
-110.212
-70.5305
-13.6069
17.0419
40.3781
58.6762
71.1429
21.1822
-20.9082
-42.7597
-70.6813
-70.1339
-76.1929
-74.1551
-75.9249
-30.3708
-8.78656
-24.6215
-14.1288
20.1434
50.2354
77.9397
67.6276
103.297
129.893
140.427
125.385
93.9654
30.6686
-11.1325
-36.1158
-13.1744
-13.7672
-23.5826
-51.1877
-86.224
-90.8105
-109.299
-144.82
-127.018
-28.0119
48.9753
68.6409
21.5511
-12.3715
-16.3836
-19.5448
-34.683
4.81821
40.7926
53.2086
17.0518
15.3171
38.2423
69.3974
62.7663
89.6747
106.262
115.607
100.483
18.3935
-77.3695
-136.614
-155.451
-83.8557
-36.7634
19.8592
69.2548
57.054
70.9807
88.4649
49.999
19.3356
-29.0825
-52.0027
-72.6364
-62.3204
-52.1293
-49.736
-85.0324
-74.8301
-78.4587
-133.631
-147.42
-109.341
-53.4702
8.22683
49.805
68.8021
106.448
79.3211
47.1479
-7.68763
-33.0177
-2.29485
63.2664
77.4268
99.3074
157.748
167.887
109.574
60.6228
65.226
43.2369
-27.4959
-87.8856
-150.14
-127.863
-44.0907
-48.4322
-25.9345
2.59268
25.1344
46.9341
35.4279
-12.5556
-33.5982
-34.3377
-35.1453
-1.41218
37.6656
82.3779
91.3583
84.9035
87.2882
55.2816
13.0888
-58.9311
-129.749
-146.335
-151.686
-119.524
-45.5258
-16.5114
-24.7973
-28.5391
-45.807
-45.1699
-47.6073
-21.1403
-15.0409
40.3315
90.6546
95.566
59.5546
34.155
22.174
9.20661
-20.7012
-0.146586
-2.67456
19.7119
17.2329
39.1192
58.4661
69.5752
58.4386
26.9871
10.6617
17.5215
17.1171
-15.2656
-44.8288
-36.094
-25.8611
-25.7346
-21.5692
3.93188
32.1627
47.0562
57.3822
75.6744
74.4876
34.3004
44.4253
40.2402
0.0341153
-61.9375
-102.463
-128.853
-127.008
-134.151
-69.0988
-16.6769
-37.0235
-56.833
-43.4629
-36.9271
-60.9972
-96.6738
-86.1587
-60.8366
-18.2105
23.2076
23.1085
10.3397
39.2877
116.336
157.151
109.126
93.3361
135.362
161.648
110.867
82.0499
69.7179
52.0822
19.1499
-22.2844
-51.3272
17.186
43.0689
17.0658
-17.8095
-54.1154
-70.1817
-57.6082
-49.4136
-27.3609
-9.72808
24.0956
21.2401
-24.2252
-61.767
-118.298
-153.711
-126.776
-41.8881
26.7982
47.5342
-6.10592
-60.061
-85.7565
-86.1048
-30.3259
2.6268
13.6178
29.0138
51.2701
78.1219
55.2995
-0.238451
-33.8825
5.93299
38.3986
66.2123
62.6538
16.0052
-9.08025
-5.00179
-31.4077
-59.745
-11.8771
34.9749
25.0064
48.7696
74.4293
90.2155
77.3164
89.5407
129.127
82.0133
32.3051
3.05985
-18.3867
-42.4259
-85.3959
-108.448
-47.5862
-6.34442
15.002
23.0647
5.87347
-14.2501
-38.4173
-68.5327
-149.266
-173.411
-138.176
-117.468
-88.6522
-5.51963
31.3157
39.12
54.8228
76.2478
58.1328
34.1721
-9.3738
-25.3841
2.03224
34.7876
50.1786
69.1342
81.5091
115.089
147.518
127.737
47.9966
-1.89258
-31.3829
-21.7155
-45.3732
-49.5533
16.0266
50.1354
50.7236
22.5964
8.50926
2.67275
-35.157
-91.8896
-112.237
-130.837
-158.394
-166.06
-114.514
-62.4526
-50.9682
-28.9991
-3.34209
3.92453
51.8433
88.6149
81.7668
55.7152
30.5615
63.0555
84.2097
74.7161
80.815
94.6626
88.3436
45.3651
25.1046
45.3784
36.9425
-43.6171
-82.0692
-91.1936
-141.616
-163.011
-90.5615
-15.7004
39.9596
86.4574
132.274
120.647
61.5228
16.3695
-3.00236
-13.0692
-14.7031
21.9986
42.3932
1.16222
-41.9503
-20.5879
8.87887
-19.5724
-38.2728
-48.3211
-72.922
-60.2702
-72.9574
-78.2724
-60.5265
-63.8731
-59.9898
-42.7061
-19.4734
52.346
93.0183
93.5075
71.5143
52.6233
46.4423
18.5994
-13.8512
-28.3928
-37.1525
-4.41963
44.9915
62.0814
62.6238
34.4667
17.236
21.2323
2.14299
-17.3288
-34.9398
-65.475
-76.8787
-53.7884
-29.9309
-10.0226
31.4575
46.9569
61.807
69.0949
63.7826
52.2923
14.0532
-54.4777
-46.2798
-23.1336
-20.7586
-27.3492
-22.1695
-18.3018
-25.2056
-24.7601
7.69579
7.95549
16.0964
8.45213
-0.298443
7.91439
-0.904479
19.4889
55.4174
44.2518
9.36714
-27.8208
-56.6814
-31.2451
-24.0891
-10.6037
32.4332
14.6216
6.25447
1.36599
-27.8599
-43.4773
-54.3941
-56.1105
-30.663
-2.268
26.4195
46.0326
40.1277
43.4657
32.8547
15.8375
-21.6142
-16.2469
16.6212
30.5059
44.4974
75.2364
70.4335
39.9604
-18.3742
-50.7575
-57.0068
-32.8732
-15.9818
4.04094
-7.8714
-47.6373
-76.1567
-87.4265
-86.562
-37.7102
9.4175
27.9968
48.3377
58.499
33.1176
7.52485
-18.2093
-6.28239
0.711997
-1.65697
-13.2723
-33.3643
-19.9042
-5.88512
32.282
98.6535
100.54
105.099
122.494
125.816
86.5101
8.11105
-41.9335
-60.9185
-110.036
-111.795
-87.7198
-100.424
-86.2814
-43.866
-24.1016
-8.17914
17.3665
19.8836
-0.527777
-25.0421
-1.49224
11.0425
4.83885
-24.0007
-29.0616
17.4688
32.5392
5.97704
12.1961
49.6359
57.0178
30.4561
26.8277
43.3809
52.3624
52.8074
7.04595
-10.4291
-14.5164
-32.2666
-13.7577
-5.71704
-58.2259
-82.8292
-58.8926
-46.0881
-43.5181
-37.6839
-10.85
-9.85882
17.347
56.2094
91.8787
107.81
97.3182
61.7333
11.9355
-21.5199
-17.4309
3.26308
-26.8199
-48.6954
-25.8708
-11.3126
-16.2002
-32.0034
-30.9917
17.2881
50.5652
45.9989
20.9884
-3.24253
-29.5595
-46.4595
-49.1722
-36.1896
-8.40225
-20.5901
-38.8426
-53.8997
-51.4856
-57.459
-55.7733
-23.9668
54.8463
114.02
145.807
131.772
102.564
68.292
19.0937
-30.6951
-26.2162
-25.8131
-5.23232
15.9544
1.65381
-11.8654
-46.0909
-60.6808
-39.6724
-46.647
-34.7625
-30.4062
-99.6298
-103.241
-66.0729
-41.7639
-9.05958
20.9349
42.3918
64.8425
80.4875
68.8983
71.2943
71.7344
36.8382
-11.5034
-19.1297
-21.861
-19.3425
-26.3658
-17.8304
-9.07736
-11.2105
-21.1116
11.2036
37.7343
59.3003
66.7657
57.2923
46.4223
34.8515
28.0464
57.1112
47.9988
2.83666
-49.8419
-91.7587
-103.708
-124.428
-88.3434
-19.2865
11.216
33.6405
45.7477
30.2636
16.712
3.50524
-12.7821
-36.5458
-24.3364
34.895
68.3273
55.7469
30.7484
-11.8964
-30.1468
-3.93934
-18.4152
-30.4444
-61.1295
-79.8076
-80.5035
-83.1702
-73.9605
-65.6445
-52.8106
-15.0674
16.054
54.8259
69.9537
65.6182
57.2643
35.0671
32.6878
70.4559
80.6824
62.3586
55.0812
56.7836
40.9879
29.6228
36.2508
15.6392
-5.77807
2.8643
-7.59886
-30.252
-43.2078
-38.1028
-35.0185
-63.5174
-87.1569
-61.3514
-42.1393
-33.8907
-30.6978
-47.0733
-40.6832
-62.3248
-54.8784
17.8098
73.9057
145.18
176.103
144.984
101.859
30.4854
-11.5304
-19.201
-35.3876
-56.9323
-60.7951
-84.1012
-102.77
-91.8796
-34.3027
-9.33853
18.6014
73.6052
55.2837
4.39465
-27.4293
-37.7676
-34.4295
-26.7495
-4.12445
44.2752
71.3942
69.0374
25.4434
9.1652
1.39334
-13.3237
9.95783
30.825
-1.3156
-23.5033
-30.1732
-12.0123
9.35248
-23.2795
-64.3172
-53.957
-34.0343
-33.954
-18.1528
-7.30906
-9.23604
-4.63453
53.9809
84.9596
61.524
64.1045
47.4314
26.7538
6.09336
-3.55969
-1.22722
-18.0459
-25.2442
15.3678
31.1922
10.4183
-6.64177
-4.67787
12.2193
32.0723
4.11362
-67.9244
-90.0281
-53.9684
-14.5182
-19.2599
-18.6764
-2.16504
24.7683
48.5942
54.576
25.8002
5.64732
-15.7483
2.62289
-16.6065
-57.9262
-75.7915
-33.8465
-33.5727
-23.9895
3.71334
8.34112
2.25143
-3.96443
-0.744804
38.8663
33.8877
23.8378
10.1191
1.34551
20.9548
40.1484
28.1847
27.0362
4.38495
13.6913
41.9169
12.0244
-15.6435
-21.2333
-10.8302
25.1051
15.9338
17.1051
13.4463
-12.1609
-19.7387
-22.9175
-32.6455
-45.9071
-15.4642
2.26216
-12.4824
-11.9115
9.51966
12.389
4.24251
-37.6893
-42.8366
5.76149
16.8658
0.568448
9.5195
-10.2167
-6.88491
18.2093
-4.2993
-17.0172
18.5643
25.99
-8.83021
-13.1639
14.6316
15.4485
7.12416
-1.90383
2.25719
-6.28611
-8.80622
-2.16957
19.9713
13.3463
2.5792
19.9093
35.9044
16.2221
21.1898
13.4623
-23.6178
-32.0629
-39.4668
-29.9147
41.1331
43.8045
38.7336
15.3877
-17.2237
-21.2452
-18.1303
-38.1312
-36.094
-29.0486
-32.766
-34.1631
-31.9867
-40.3104
-44.0777
-34.3101
-12.4694
22.8079
59.0496
70.4407
23.3005
1.28142
0.714055
-6.68106
6.46041
49.5969
66.369
60.7439
33.5297
3.96327
-5.79915
-43.3843
-55.1823
-8.65587
33.0047
53.8046
34.4352
26.7365
34.3248
5.51505
-16.4997
4.12081
6.75998
-0.495707
-19.7397
-35.125
-55.7908
-88.9207
-95.7609
-52.8894
-28.1393
-11.8342
9.41541
11.4038
0.439667
-15.0988
-14.521
-6.28429
14.8603
27.753
13.8242
1.68882
-28.7839
-25.1094
1.40789
17.9228
55.2884
70.3816
72.4693
70.1182
49.7048
56.4694
61.5901
45.9006
20.9004
-11.5144
-41.1962
-53.1533
-75.1282
-68.4384
-65.468
-57.3325
-11.5499
28.7444
27.5098
27.032
2.36504
-5.06824
-11.1569
-47.7213
-39.857
-14.8141
-3.43376
4.72701
8.60116
19.9557
20.7545
0.461817
-5.6376
-7.54283
-8.07661
-3.48338
10.0095
10.5749
1.63039
-25.2949
-39.3821
-23.2437
-5.68687
0.418353
42.6691
51.368
49.8765
38.873
29.267
33.1818
25.1367
-11.0234
4.14168
5.07809
2.88993
-19.2966
-28.0145
-19.7097
-29.0547
-15.0915
24.1969
30.287
14.4051
-2.22436
-21.6133
-52.1037
-91.7421
-99.9279
-33.5587
31.2739
38.5964
35.5071
37.7079
45.4838
40.6312
30.6146
6.10453
15.8495
39.444
30.3903
-7.49953
-27.1258
-39.741
-47.4487
-59.2149
-37.3776
-25.2404
14.1824
11.2608
-17.264
-9.42713
3.48361
-7.94201
-15.944
-33.1891
-23.3024
27.167
26.272
14.7948
4.32258
1.77112
20.2355
30.2232
45.9974
65.1087
54.5182
53.7309
27.1969
-8.57445
-19.6944
-22.6098
-15.704
-9.99674
-14.4204
-14.6534
-21.8176
-40.3589
-28.2842
15.8552
62.0674
47.426
31.9084
34.3799
14.8065
-14.3865
-30.2114
-49.8977
-33.901
-49.6563
-67.2621
-55.9083
-32.8818
-38.3305
-43.2461
-39.7041
6.40634
20.0768
22.6796
4.6404
-10.3989
-10.0254
-2.45117
14.505
21.1631
23.7834
47.1559
58.9286
38.9933
36.4927
32.4401
34.7031
19.519
20.423
48.0831
44.0057
-6.69642
-12.6594
-17.036
-45.348
-49.9892
-17.8465
-21.9182
-6.45972
29.1896
25.9555
4.11003
-10.0778
-31.3132
-18.1665
-23.6676
-47.6036
-12.563
-8.92407
-13.2809
6.00191
16.9222
1.87845
-18.8861
-19.9329
3.83119
3.44407
4.96651
-5.39242
-17.2038
-19.2478
-2.19969
0.455157
-40.8332
-5.51367
53.4152
57.0663
52.6601
62.3533
47.6633
35.1949
18.9278
4.99905
8.869
19.2574
-15.1004
-44.4313
-69.12
-85.4034
-73.1812
-38.8873
12.3625
56.0932
81.0093
63.4096
31.1164
21.7668
-22.5789
-70.181
-72.3635
-72.1686
-57.5593
-42.7297
-25.8049
-18.0203
-32.8432
-14.8315
69.8869
91.231
83.0977
66.6781
39.56
28.746
23.4969
-30.9876
-32.9833
-29.0452
-29.3418
-8.53185
-8.36132
-0.635473
8.39609
-0.271664
-20.1439
2.93894
56.4199
87.1212
65.6927
36.4161
4.99385
-22.7711
-47.1007
-73.8556
-70.6292
-33.243
-33.9779
-10.7952
23.6879
44.5656
64.4902
58.2943
-0.523098
-28.7008
3.80941
-16.0261
-50.6222
-62.2944
-55.8423
-31.5496
-36.5993
-29.4818
13.3624
38.097
40.8273
5.63275
5.37929
2.31011
-30.9511
-8.43549
-15.3387
-15.0517
2.47744
28.0199
60.4177
89.1975
77.1477
69.8615
60.6794
15.9463
2.34303
15.867
-8.37245
-31.8349
-47.4816
-64.0312
-47.0844
-6.98661
16.5847
-15.797
-61.2781
-82.7595
-56.8522
-24.203
-40.276
-11.4535
28.4971
21.795
-8.26317
4.5168
41.81
52.826
29.7882
59.6
105.091
84.6151
-1.28795
-74.8045
-85.9365
-105.59
-119.007
-65.1789
2.10024
50.5342
59.4179
17.3849
6.10308
13.6093
9.46554
54.1375
82.3953
54.8526
26.5347
-9.73546
-38.3591
-10.8467
16.4397
17.192
0.861057
1.87556
11.0327
37.1074
56.0748
49.758
25.6295
22.5998
-2.49042
-21.294
1.12921
-35.5234
-115.627
-138.83
-102.88
-71.4527
-48.4989
-44.4115
-56.7457
-26.3916
-5.05039
14.0753
62.4246
74.6156
62.3249
29.2353
21.794
13.0367
-3.41652
0.630884
-21.0266
-27.1565
2.2398
-1.15818
9.03808
6.46295
14.3767
47.5258
73.0353
70.0776
52.6875
60.5988
100.594
90.7226
31.8387
-24.6134
-50.6223
-64.3367
-80.1117
-99.0442
-68.4231
-45.448
-32.7768
-12.8356
-9.61977
-17.6572
-45.5664
-69.011
-85.7135
-110.713
-49.5986
45.2206
118.814
155.719
160.649
150.063
130.992
72.0051
39.9822
4.51211
-39.478
-64.2741
-67.926
-63.4723
-70.7158
-88.9415
-75.1663
-51.0147
-39.857
9.60387
3.85229
-62.7657
-125.93
-164.49
-167.148
-91.0013
-14.2027
44.0563
87.2155
135.281
153.486
144.019
123.96
147.042
142.396
112.689
79.3972
54.8001
47.4792
13.9238
-22.332
-16.6092
-26.7405
-59.1253
-72.2673
-83.6884
-82.9979
-74.6158
-73.419
-89.6331
-98.5837
-40.1156
10.9446
8.93528
-2.97745
7.11858
10.0314
4.71092
14.6859
57.823
74.9953
39.7392
17.1712
20.6218
24.6298
-8.23473
-57.8513
-39.9839
-31.884
-24.0201
-21.5002
-31.4676
-42.2792
-57.4375
-33.1477
13.8239
25.6259
31.1564
30.4115
25.411
29.2192
16.4746
-4.08207
33.5906
42.1505
36.2004
36.1992
34.9649
47.3617
21.0941
-32.7551
-32.8133
-36.0188
-3.33446
19.3323
31.2399
61.8353
83.5564
62.0741
11.6787
-10.2059
-51.0363
-85.3695
-92.2853
-78.2603
-57.9766
-56.4148
-82.4579
-74.7294
-50.0128
31.4981
71.2778
68.8714
37.2489
4.26694
-8.73815
-47.4692
-106.92
-106.021
-52.5118
-3.40993
70.9547
100.803
74.8656
67.6813
54.2599
60.863
85.656
50.9472
38.7736
22.4183
-1.65689
5.66322
-4.26389
-4.71605
-1.35258
2.60116
38.3733
55.8783
34.1821
5.22944
-24.539
-41.5678
-43.2038
-50.6564
-51.4796
-62.252
-71.2252
-56.7082
-44.1828
-52.184
-75.3254
-30.4975
15.4779
6.26015
-0.685082
11.5981
44.0987
99.1718
95.682
60.0122
30.7809
2.48955
-32.4426
-35.9198
-31.0435
-43.5331
-51.7457
-4.73352
3.52073
-3.10321
