-3.29112
-0.112418
-3.56926
-2.20266
-0.938847
-1.42717
-1.38474
-0.140143
0.220566
4.07422
3.47334
6.46876
18.9793
14.8569
13.677
13.5972
11.6803
7.7264
1.75718
-5.22435
-0.191042
1.87781
-3.9236
-12.1539
-17.3331
-16.7727
-16.3858
-19.2741
-12.5721
-7.13606
0.457624
1.68519
-1.38826
1.88689
1.85185
-0.368716
4.29072
7.51814
10.3696
15.1756
11.0776
7.75752
6.73661
0.725547
6.44927
8.95135
11.5091
9.74505
-1.42055
-6.7334
-11.0532
-13.5588
-20.3184
-19.533
-6.27021
-0.170404
-3.29172
1.55985
6.51801
7.11298
0.638655
-10.9416
-3.86819
11.1412
11.6364
6.4314
3.42518
2.04582
3.45013
3.32207
2.96418
4.89044
7.34645
5.84246
-0.718831
-4.53569
-7.90049
-12.3371
-16.3017
-5.70101
-3.16476
2.03187
2.13078
-4.44581
-7.66154
-6.73023
-7.92213
5.95225
12.6281
15.6329
12.6196
4.05717
-1.16578
-6.27819
-7.68135
1.69507
2.13543
2.29316
6.31193
1.98236
1.32267
-0.950987
-6.60309
3.85241
5.56089
4.54636
0.101566
-7.99132
-12.2336
-15.181
-18.5841
-5.59063
3.68729
9.07829
5.77322
1.75421
-0.0365309
0.600391
1.1905
-3.9947
-1.22321
10.7754
17.4724
7.02295
0.452214
0.137418
1.55333
-5.77792
-11.0792
1.71719
13.4965
9.86639
3.46283
-0.342211
1.89106
4.7053
3.58899
-5.02086
-7.44681
0.965361
1.34301
-3.68337
-6.26608
-11.1036
-10.5288
-12.0184
-8.97628
1.05038
6.11629
0.990487
-0.802027
-1.87782
1.69703
0.79389
3.49849
1.88619
-0.872462
4.77155
5.8269
1.26925
-1.03179
-4.93734
2.62031
9.96739
6.01896
3.72397
2.63732
2.39224
1.875
-2.89954
-13.4581
-8.32842
-6.88703
-4.6704
-3.6662
-4.30954
-2.69741
-2.91278
-2.6576
3.64769
4.5947
5.97506
1.8117
-5.7777
-2.86319
-2.07478
3.81316
7.81509
8.62867
8.02612
12.1723
8.51004
3.887
2.95571
7.76679
7.03761
2.58561
-1.6624
-3.88809
-8.70217
-10.8077
-11.7237
-11.7071
-10.1652
-5.17454
-0.605199
-0.673498
-2.17803
-2.0667
-0.857441
1.02661
5.69351
13.5134
17.1191
6.12443
-0.0797039
-0.264706
1.10959
0.963088
-5.92114
-0.500411
7.04576
4.84628
3.58281
2.97004
2.77867
-2.88308
-13.4637
-11.0583
-5.80054
-5.47165
-8.40926
-12.4542
-14.4268
-13.1329
-13.6975
-3.89748
5.72091
8.07144
10.3002
8.99022
6.99319
3.81561
-0.77258
2.99309
5.54755
4.65717
4.77009
2.25262
-1.86443
-1.864
-4.80786
1.1349
5.27693
7.92602
11.8039
7.99953
0.069523
-1.95098
-3.16421
-0.479793
7.07393
9.97856
7.87549
2.48741
-1.52644
-1.93656
-2.38033
-5.27281
-11.2245
-8.15539
-8.19959
-13.5194
-4.77046
1.40609
-1.87274
-3.05733
-3.55602
13.606
25.0085
14.507
-1.06875
-5.17509
-7.07644
-10.6136
-14.1255
-11.5761
-9.13661
-8.47308
-4.86934
-3.55646
-3.79818
-5.8158
-12.8861
-7.22195
3.40199
8.51532
14.5094
15.7372
23.4101
24.9249
17.9676
9.73903
4.35521
6.04482
9.81071
9.70915
10.9975
11.3564
4.39362
-2.2078
-7.38518
-11.2948
-10.0062
-20.8211
-23.3853
-21.7747
-17.3361
-20.9604
-27.1029
-31.8456
-26.8988
-16.3558
-13.9731
0.976991
22.6119
22.7482
4.37959
-10.4128
3.57382
23.6423
51.2595
58.9326
51.5622
40.7355
23.8361
-6.0872
-6.09123
-20.4774
-27.9274
-5.64378
8.08008
4.50168
5.03486
-16.3158
-30.4108
-41.8471
-3.15404
15.0502
16.6787
9.44753
-30.2643
-54.589
-34.0487
-11.5773
-6.25383
7.80882
17.8007
11.2866
-9.93897
-50.0964
-70.4606
-60.9918
-31.6235
3.84863
68.2131
121.222
98.7878
63.5227
18.181
5.55912
4.83271
-37.78
-53.8846
29.8887
94.6086
76.4357
27.9922
1.27816
-24.1212
-39.6409
-38.4351
-38.2141
-40.0786
-28.2728
-20.9957
-15.4319
-23.5023
-79.9343
-99.8346
-70.4064
-32.9598
9.52185
39.7134
-30.8989
-47.8132
-10.1551
122.957
170.013
120.448
96.8938
85.6191
51.4384
22.3872
-15.6278
-30.3218
-35.8295
-13.5296
-2.74003
-13.4868
-22.4286
-29.5653
-3.12223
10.432
57.5611
54.8674
11.997
-72.3529
-101.062
-79.6425
-72.1883
-69.9024
-56.7815
-35.9806
-13.4892
-26.2002
-70.1983
-111.114
-58.9628
-2.91365
30.4523
67.042
36.2761
31.9444
36.4921
64.5409
98.7787
67.4001
29.7947
2.50943
27.9342
47.4907
26.4542
-4.15691
-13.0531
-30.4818
22.8423
78.8982
128.454
125.322
50.211
-14.841
-20.2505
-40.3832
-91.8098
-142.318
-139.854
-91.4201
-26.9583
33.7246
24.1561
-0.732526
-3.20184
-6.04056
0.92566
3.3943
-8.70424
8.72631
29.9847
39.9816
46.4198
21.9377
5.13271
0.938575
3.70785
7.57977
-31.4325
-62.0432
-34.0518
29.8103
22.6752
7.69476
19.3601
29.0595
16.1446
5.93144
-5.22305
-53.0458
-85.1448
-69.7874
-37.0849
-10.8637
-35.3221
-89.1113
-81.4206
-50.3598
-17.2768
8.14629
35.2601
34.8735
73.3331
112.031
152.623
167.12
152.203
166.293
75.6869
-21.8005
-73.7215
-127.579
-106.68
-56.217
-9.33687
43.5755
69.7417
57.7655
36.808
-19.5193
-112.211
-142.545
-133.305
-101.35
-85.6412
-62.1899
-5.86864
30.6212
28.6649
37.068
39.4378
39.0783
-18.7667
-35.0559
16.1151
44.4832
66.2304
43.3866
44.2336
34.3551
60.9298
89.1514
72.6186
30.6941
-4.67918
-40.9375
-76.1431
-119.36
-90.0302
-26.626
-43.0749
-76.9795
-21.735
34.9558
36.6044
-23.1769
-11.25
97.6144
189.105
184.133
54.8771
-29.611
-101.758
-118.855
-192.025
-281.641
-262.297
-71.3012
131.418
213.331
218.792
183.652
109.231
56.5324
3.96551
-15.1247
-49.8698
-100.673
-87.1795
-49.7934
14.6251
52.8971
115.807
87.3448
92.0857
127.516
81.9419
-46.6273
-146.32
-155.063
-128.547
-9.12872
65.8221
0.537739
-25.9439
-7.6533
-27.6449
-30.0794
-120.014
-112.994
-28.6412
16.5097
0.0586237
-41.524
-17.5452
49.6943
80.0341
51.5533
53.1402
6.56896
-29.1034
-5.98324
-5.43855
6.29113
73.717
63.248
32.9263
17.9738
31.987
69.7998
32.2856
-76.2006
-103.746
-43.8523
-41.8012
-29.061
14.7493
37.2265
12.8066
4.33759
-36.2278
-43.8428
29.3088
74.6983
45.9241
75.2999
121.27
139.984
65.4018
-91.8248
-150.798
-147.747
-207.762
-318.924
-224.192
-85.1783
202.902
342.203
225.852
129.39
87.9615
35.2411
-25.3114
-130.385
-163.593
-72.8865
91.9432
148.899
174.892
107.732
4.60342
-60.7047
-86.6288
108.371
117.896
-34.6245
-73.219
-89.5265
-81.3353
-124.629
-229.575
-245.472
-235.667
-98.656
61.6686
151.352
118.91
22.8954
22.123
57.1479
110.292
199.155
236.08
115.813
52.4903
72.89
-79.139
-220.031
-182.189
-100.596
45.7562
114.608
139.6
98.3104
1.50436
-119.78
-281.459
-304.9
-188.943
44.4678
223.719
248.72
193.68
152.567
58.3575
47.5614
-66.7233
-124.8
-101.74
-93.9355
-47.9094
-29.5518
-24.7882
85.9244
148.488
161.529
151.551
3.01778
-160.895
-227.275
-296.216
-335.541
-221.571
-138.665
100.294
177.214
40.9203
45.6633
185.692
241.751
268.462
241.67
154.464
65.4145
11.8244
1.97919
-34.7602
-21.8394
-42.9211
-66.4981
-54.0889
26.5303
70.2371
21.2463
-107.253
-114.326
-99.8362
-123.526
-169.437
-12.9339
43.2726
65.5005
43.5489
-18.2536
-131.122
-153.884
-144.884
-158.821
-174.94
-114.578
84.0612
159.622
164.768
241.709
245.626
192.285
110.809
34.3616
-16.3606
-83.4829
-49.8331
0.0940653
-19.9367
-55.826
-84.1075
-160.353
-123.615
-22.6533
87.2614
114.82
106.187
76.4496
51.8632
58.7093
-15.7094
-26.883
80.7382
90.896
54.1678
-6.41714
-31.9291
-93.6759
-64.1283
4.23391
46.534
-64.7886
-136.339
-29.0328
59.277
20.2087
-144.705
-247.993
-156.391
-104.255
-52.0375
-5.60298
-3.09943
-16.5396
-13.9079
7.13815
-2.12199
26.6228
46.4489
121.977
261.824
294.222
291.543
241.203
184.595
105.926
-76.8138
-120.482
-164.591
-163.661
-88.5715
-192.816
-188.934
16.2463
90.0963
32.6886
38.0665
14.3035
-23.5161
-125.337
-274.574
-150.677
-57.0394
70.7796
217.795
180.607
99.2637
81.8015
-38.8244
-202.274
-165.98
9.75732
86.8801
11.2705
-74.7028
-74.8825
-35.9192
67.1071
75.3385
48.0589
83.4766
19.9062
-16.67
8.86771
-53.1523
-72.7075
67.7009
182.029
223.773
222.422
147.178
-6.66553
-41.8543
2.4655
31.9821
-68.4419
-216.231
-223.203
-225.797
-234.995
-186.477
41.8585
128.034
56.1294
-81.6507
-147.607
-121.748
-12.2303
109.79
142.918
140.022
138.532
22.8673
-89.7133
-103.275
23.5959
173.075
127.758
144.788
220.613
246.393
133.728
-12.4232
-145.845
-157.954
-31.3372
-41.63
-193.789
-200.1
-90.2921
-174.651
-216.605
47.6105
164.136
131.34
142.214
66.9001
-80.3628
-150.499
-143.181
-103.065
64.2539
191.06
106.806
25.3056
-157.875
-202.356
-150.657
-8.9533
286.059
336.737
198.479
103.913
64.6267
-5.49376
-91.9123
-106.494
-65.9563
-30.9096
4.07769
21.1295
-71.4349
-149.844
-147.403
-86.7929
106.589
183.539
124.385
-7.19362
-172.95
-163.524
-13.859
-32.263
-62.2578
4.60134
82.056
92.5921
45.0332
32.5214
72.4778
30.8335
-221.839
-307.384
-163.346
-16.7143
127.796
211.313
209.176
282.462
129.791
62.107
101.152
74.7251
50.3786
106.542
102.116
13.0722
-59.562
-115.079
-187.057
-245.544
-106.045
5.27414
15.4714
-55.6523
-105.923
-161.206
-89.3659
-37.8643
-8.47872
-50.1539
-12.7131
-24.2418
-156.974
-172.715
-178.745
-117.188
21.3151
97.4995
121.533
204.431
262.19
281.495
293.954
262.011
179.072
119.583
5.51459
-54.8877
-83.8777
-156.75
-159.441
-134.61
-49.6985
-46.6001
32.657
-55.7569
-173.101
-17.73
206.655
195.805
28.928
-1.57783
-49.7527
23.2622
97.6113
47.0818
11.3632
-91.8387
-248.505
-269.101
-262.609
-209.352
-100.299
-11.28
-24.8058
52.3739
197.27
195.65
84.6637
-2.81601
49.4136
14.0181
-35.0017
-74.0298
-183.08
-135.834
22.924
144.886
278.677
338.016
169.993
-16.9531
-105.871
-91.3001
38.4265
88.5093
48.1193
-11.2958
-122.085
-132.68
-35.7046
101.701
69.5759
-39.7319
44.1995
114.702
45.0339
26.245
77.9566
-22.6223
-64.1019
10.8661
85.5722
177.965
132.386
-29.0625
-217.746
-292.182
-283.011
-125.289
-77.6761
-126.979
-172.914
-176.197
-49.605
4.41367
8.69748
-40.4309
-11.8601
96.5819
109.023
123.222
70.9764
-94.2123
-187.497
19.7811
238.879
209.708
268.665
292.388
154.942
-47.378
-91.3432
-80.3705
-115.399
-106.96
-12.1391
-55.8239
-66.0283
47.6925
198.841
221.705
155.783
101.152
22.8877
-16.9451
-21.6006
-19.9284
-136.8
-148.995
-38.4307
-4.0791
-54.6902
-48.2865
-66.1671
24.4805
111.054
107.496
0.561178
-131.193
-215.647
-223.325
-180.903
-164.204
-101.327
-57.0953
-34.6024
1.23897
46.5627
5.62941
-29.3373
-45.9687
29.0655
154.113
138.1
153.329
121.377
133.563
87.7675
42.3975
26.0253
-34.6294
-13.6937
146.051
216.311
107.232
29.0268
112.894
141.378
69.1992
-55.8888
-94.9281
-81.3053
-193.241
-344.571
-330.43
-276.181
-165.272
-6.5475
121.296
208.382
227.897
195.376
117.263
33.1099
-55.8456
-62.0748
-58.1448
-177.039
-197.347
-42.9438
141.774
221.323
202.83
180.519
38.7302
26.5413
-140.641
-316.268
-190.177
-31.2561
34.4865
33.8218
-96.0623
-220.401
-65.957
61.9169
41.3921
106.928
8.75545
-136.492
-211.039
-119.046
88.4297
275.361
402.278
397.344
239.687
107.344
61.8742
-5.39227
-58.8254
-114.313
-154.884
-67.8021
68.7779
33.7429
-38.8621
-106.6
-153.181
-164.572
-135.113
-2.59669
119.11
91.0443
-66.7927
-333.167
-234.354
-21.4579
60.9223
3.65103
-75.7721
11.4766
67.3093
75.6233
36.7836
56.3141
152.421
299.678
223.629
43.4485
-9.11174
-98.354
-184.512
-233.178
-94.3964
67.3897
117.913
115.562
53.5629
30.3795
43.1545
36.1622
33.1527
-25.383
-142.415
-200.147
-195.978
-175.265
33.8579
244.129
244.985
152.575
48.3348
-18.5162
-67.6507
-45.9659
-32.9146
-22.1764
46.0099
91.3413
99.7466
29.8085
-27.9376
-124.498
-198.327
-259.782
-138.849
3.27076
57.6292
47.4024
19.9306
15.3782
8.46932
7.87679
-42.2134
-38.3055
18.9681
11.9249
18.1351
157.685
232.399
227.978
180.622
145.15
-8.97246
-49.8407
-122.049
-140.542
-165.306
-112.382
-17.6623
-15.3177
-21.5298
69.0548
68.3499
-0.29133
-96.8782
-117.13
-172.492
-255.219
-247.448
-136.75
48.4539
193.286
300.929
258.173
107.931
-64.3175
-87.9147
19.9466
111.311
123.851
50.2941
39.498
41.3823
-5.16916
15.9949
5.54332
-32.0249
-74.5449
-85.3576
-154.536
18.8617
213.653
153.929
144.185
126.084
-34.8972
-151.954
-290.997
-350.449
-301.339
-106.191
21.5514
112.805
183.984
109.562
44.2255
86.7738
109.694
87.8512
64.5903
-72.9691
-140.269
-135.802
-108.772
-73.1107
59.8538
182.774
184.593
156.432
123.445
73.4843
-36.0157
-165.9
-211.808
-118.106
48.8589
117.346
77.4154
38.1317
18.4859
-117.667
-223.126
-56.4776
67.4767
128.546
79.2037
24.095
5.10396
8.79173
31.2574
-29.3974
-47.5617
48.8668
101.532
-44.8873
-194.366
-219.004
-179.982
-132.869
2.04083
121.039
124.919
131.103
111.418
37.4245
-8.7009
-20.9832
-4.01722
51.0153
30.424
-59.0011
-152.949
-98.1571
26.2236
156.371
182.23
151.903
178.638
99.6921
-33.4148
-177.803
-190.38
-91.774
-25.8996
50.0951
37.8146
43.0793
59.2629
-7.02438
-18.8095
44.8106
105.113
51.4328
-115.351
-168.23
-139.877
-125.067
-141.187
-80.1303
-83.3194
2.41999
125.046
77.6472
125.276
51.1373
99.4321
202.553
146.254
79.8979
75.4572
54.4889
-103.402
-292.923
-285.286
-133.996
-47.2826
-79.5135
-88.4694
99.9454
202.415
115.668
21.0482
48.6617
17.6303
-4.90719
36.8019
-47.3105
-101.738
-146.744
-171.491
-174.636
-50.4504
160.419
337.161
301.214
177.435
105.156
96.8241
51.3974
14.4328
-20.7317
-81.2146
-58.1118
-54.115
-84.1558
-107.587
8.53674
55.7081
-56.0139
-248.19
-156.675
75.906
115.307
91.9978
103.471
35.202
-37.4093
-171.819
-249.416
-220.203
-185.06
-48.4876
8.17687
0.237393
57.1155
1.73156
-88.5334
-18.8336
156.856
280.98
248.356
189.156
143.114
36.5703
-38.593
5.13448
8.39507
43.8804
86.6283
98.7611
92.7438
37.2098
-63.9554
-145.695
-165.216
-128.755
-122.56
-24.2304
124.413
162.167
100.974
-91.8231
-210.989
-267.126
-285.378
-69.1737
85.3697
62.1335
5.79863
-12.5088
49.848
99.7438
99.1948
75.0292
104.682
193.545
182.327
118.195
-19.146
-133.846
-268.63
-332.764
-312.873
-96.8453
100.878
86.5274
75.9485
114.718
143.178
150.518
97.2848
26.6997
-96.9123
-89.7353
-29.4745
45.4418
15.6881
-76.2339
-54.5214
-20.8354
-23.4616
56.3007
171.622
115.083
14.4837
70.2565
72.4897
30.8363
-112.901
-114.81
54.5006
89.0223
154.744
97.6462
-11.7859
-181.188
-203.969
-153.984
-95.1187
-27.6256
90.509
109.258
93.1508
40.1045
7.76998
-54.6669
-213.674
-282.406
-193.73
-189.318
-134.115
-5.42604
47.9074
77.2224
13.5297
-49.6684
58.8965
148.515
152.223
227.433
277.014
221.879
107.72
33.1711
75.7908
171.649
254.338
255.999
157.632
14.7935
-203.418
-375.519
-373.063
-313.195
-153.002
-7.72722
26.9659
0.217471
-59.2954
-105.413
-164.938
-85.3938
-13.7545
44.2986
51.1086
-53.5489
-75.7955
-164.909
-184.283
23.8426
196.712
172.438
37.8546
35.0653
51.6819
44.9521
36.8897
117.34
146.405
82.048
56.8949
33.6905
34.1736
74.5378
142.252
107.483
2.30096
17.3439
51.4205
2.19254
-87.5368
-88.8588
-32.5023
-0.14231
-11.4319
-12.9488
89.8138
-10.8212
-142.85
-133.995
-175.524
-210.8
-135.207
-95.5352
-189.083
-269.737
-127.643
52.4683
132.36
139.115
136.092
129.327
140.192
155.519
108.93
131.819
54.0351
9.1724
88.4828
105.875
97.8583
-27.9603
-248.703
-326.632
-177.858
-47.5943
-74.3975
-44.8774
52.7684
170.681
171.067
223.32
273.98
74.8555
-16.0005
-90.3347
-202.297
-96.5281
-4.41881
21.319
52.4075
215.922
262.679
112.024
-63.9308
-120.674
-157.567
-163.31
-173.837
-146.487
-83.1373
-87.3103
-121.537
-29.6982
-30.7105
-19.5805
59.6895
41.1243
-21.1159
-33.8363
-62.8538
2.72307
105.348
161.064
104.201
-45.9157
-54.6942
-83.2737
2.49569
12.2698
49.2907
176.15
72.7735
39.2243
120.907
123.774
28.0018
-21.6562
-49.6884
-84.951
13.2298
38.754
20.3713
76.4146
85.419
77.904
-1.45721
-83.9506
-184.952
-109.461
-49.4794
-54.7621
-58.738
-47.2955
-175.257
-209.326
-89.5257
-55.8457
73.3756
320.548
274.837
47.1283
-42.8873
-38.4703
67.1646
149.645
166.069
104.899
19.2801
-120.922
-338.463
-425.435
-127.604
70.0832
191.464
247.224
217.872
95.132
-141.686
-304.593
-272.502
-189.435
-108.524
-11.7044
6.86668
-97.5812
-66.2637
190.002
280.901
253.252
251.082
193.085
73.8962
74.2192
122.276
20.7364
-130.351
-150.646
-124.001
-45.7226
148.7
157.856
51.3598
-54.2793
-102.737
-10.7752
51.135
-26.6489
-0.00653696
27.2408
35.4722
-29.6855
-80.9273
-79.3448
-105.989
-120.548
-123.693
-245.4
-293.461
-314.564
-285.638
-16.6693
85.8228
168.136
195.224
98.0091
123.893
188.767
137.268
219.651
212.987
116.431
74.5289
42.4068
-21.6353
-43.2767
-93.0443
3.82116
72.0586
114.54
143.375
55.3888
40.4591
4.19339
-77.9024
-73.3076
-70.6703
-65.2251
-1.7749
-104.783
-174.416
-73.4183
35.6411
-54.755
-116.014
-164.528
-157.679
-182.346
-112.906
-36.18
-62.3892
17.6882
112.378
77.3423
2.05243
202.16
304.771
129.708
-2.171
-51.9649
43.8431
40.8927
-58.9078
-86.5679
-50.591
38.2439
122.985
216.637
225.242
139.592
34.3785
-90.0446
-112.077
-72.9223
17.0365
-0.752449
-100.006
-40.1776
-80.4901
-30.2138
51.9664
-34.826
-236.61
-378.664
-367.52
-53.4689
246.545
404.793
444.96
251.852
-16.3439
-217.246
-215.413
-166.009
-179.711
-30.5964
76.7201
70.6345
135.899
107.245
73.346
48.0939
85.2221
105.214
67.4199
29.4815
6.38445
-131.373
-174.344
-200.015
-95.1176
-121.316
-45.1843
149.404
140.112
1.93522
-207.541
-146.678
-143.325
-149.265
-28.035
93.3153
116.156
232.977
276.857
163.66
12.1616
-61.502
-78.1947
1.04051
-1.22776
41.1539
41.6992
43.3748
94.2458
26.8963
131.991
146.452
148.741
0.00251956
-130.946
-86.8933
-56.1229
3.91539
-41.5337
-123.324
-180.978
-154.814
-109.276
-84.7002
36.0404
124.745
10.8589
-210.354
-283.192
-252.552
-65.2269
62.1221
99.0339
117.958
104.422
92.5229
52.6843
-26.1848
-25.1363
-76.4821
69.199
303.939
358.061
373.752
126.281
-71.4918
-139.354
-59.3212
158.314
139.566
16.103
-108.658
-207.189
-327.212
-325.831
-180.735
-39.816
56.414
124.661
93.1834
-11.5105
-83.0565
-8.90273
-26.6735
-24.997
177.544
214.001
54.2434
-38.0137
-39.2691
-92.2137
-22.9032
62.3698
97.6501
36.1657
-127.014
-83.8251
-65.2602
-5.77648
71.5478
19.0212
-66.1574
-49.5912
65.1203
136.215
104.095
-16.8316
-70.0256
23.6447
104.406
-68.6008
-116.789
-1.25478
126.937
83.7431
10.7753
-121.704
-238.836
-240.927
-96.5077
1.00071
-1.49264
-65.2072
-77.4694
63.7918
143.914
127.624
166.525
93.2649
57.8458
165.291
87.913
-45.5858
-98.3805
6.96305
178.088
260.561
190.668
-41.0396
-347.94
-422.645
-304.559
-200.997
-102.035
-10.4504
122.264
200.655
105.983
29.5526
23.8844
86.8308
109.242
23.2453
76.7856
67.3751
-58.2278
-115.728
-40.9286
161.566
221.855
180.841
206.206
77.007
-37.0792
-99.0455
-268.172
-377.825
-250.429
-137.812
-167.479
-135.861
-122.812
-101.993
-14.0141
66.3862
28.9132
19.2665
113.977
178.676
314.509
394.541
258.626
69.3673
-100.959
-243.221
-320.857
-37.0683
202.019
292.527
281.565
161.976
-34.7076
-150.496
-334.86
-400.612
-164.669
45.5379
-8.38383
-102.345
0.216413
44.488
82.8511
215.471
132.249
91.4486
189.926
231.904
6.94897
-279.908
-322.647
-294.011
-265.437
-236.382
-184.549
-37.2583
170.799
197.177
174.856
133.53
3.86214
-57.0232
-25.0856
17.3432
120.518
178.518
153.338
49.5532
-8.96346
17.8461
84.8976
163.924
265.616
329.39
230.117
-14.7532
-180.089
-194.77
-103.242
-52.6759
-98.8313
-152.321
-279.131
-397.416
-369.646
-271.835
-53.5567
151.954
226.575
210.257
-0.038095
-130.897
-142.14
-87.061
73.4158
281.418
120.734
-62.9661
-96.1881
-62.7983
-14.1043
15.2186
41.4398
149.609
253.113
274.042
207.876
48.5609
-78.4076
-172.105
-52.0723
102.537
162.448
131.093
88.5157
-29.3282
-97.8027
-135.225
-207.615
-211.589
-83.3404
-40.2516
-57.919
-111.969
-95.2448
71.2511
116.732
-91.7909
-141.956
-26.6859
19.6826
-18.5645
-3.39456
27.9197
76.2094
110.339
152.579
184.175
226.406
179.686
17.0827
-34.9029
-82.6037
-73.4604
-85.4707
-142.958
-215.435
-161.83
-110.342
-47.7821
84.8741
148.394
125.712
131.809
47.0794
-41.7606
-46.6314
22.1757
-39.9873
-105.119
-54.6088
-12.2272
-28.3464
26.4745
113.501
156.821
170.252
103.487
16.7132
-59.4918
-139.085
-224.723
-153.799
-25.1307
-12.7859
3.1393
28.68
32.7594
19.6697
84.0178
128.271
22.2702
35.6951
75.9755
85.9372
6.46887
-104.904
-118.806
-177.064
-103.897
-71.0228
-20.6824
17.1794
20.6752
86.7177
28.8679
2.22632
8.72241
-15.3467
-13.9623
-112.183
-117.636
-14.1155
-16.4125
46.8623
46.0471
44.9425
106.42
235.979
213.116
258.159
117.213
-98.2537
-108.475
-79.5694
-206.381
-268.978
-203.529
-42.1705
212.47
275.615
178.908
141.075
50.4194
-111.974
-85.9967
-81.0751
-115.333
-116.413
-91.2145
-58.3825
81.5583
76.0002
23.0603
91.8232
234.732
144.887
46.2648
-104.115
-531.847
-659.997
-369.383
-107.88
234.215
381.757
264.59
217.525
176.907
166.251
19.7782
-141.969
-264.161
47.2979
52.9231
-194.692
-159.331
-214.513
-137.472
132.012
451.507
387.346
205.877
140.48
-85.5487
-222.534
-129.139
-43.9907
-14.2786
-48.5273
67.3544
126.768
235.102
108.372
-11.2854
-1.36798
4.08962
154.327
156.337
53.646
-97.7685
-9.098
-53.1889
-213.223
-266.903
-313.947
-274.548
-259.499
-167.973
-93.3427
-68.6343
4.70469
74.3988
112.652
178.489
185.629
103.876
-23.509
-282.916
-385.065
-236.908
24.6167
290.115
359.437
375.437
357.107
118.486
32.1707
36.8863
71.2887
130.671
136.316
-12.3002
-53.7304
4.15977
-44.0316
-203.869
-104.242
97.8977
207.477
57.107
-94.4854
-129.243
-227.786
-240.211
-203.33
-109.046
-24.012
-18.7605
-33.1948
-98.5259
-88.9205
195.353
316.68
145.562
15.4609
-19.6929
-22.7719
-31.9226
-94.0879
40.8094
84.2039
-27.3578
-27.5525
-101.083
-120.004
-23.6077
25.4347
74.8466
156.755
97.1865
-144.162
-312.937
-342.457
-118.418
83.7508
218.359
302.986
231.737
140.276
-45.6135
-103.485
26.3267
134.751
244.585
296.455
133.986
-49.7892
-143.147
-141.941
-186.436
-293.201
-340.185
-197.147
-27.0905
153.09
318.578
465.343
343.229
112.792
-151.262
-403.068
-560.068
-482.005
-219.699
49.6566
186.769
204.07
269.786
138.042
139.257
266.966
168.225
-52.9159
-118.56
-169.609
-226.033
-363.836
-117.995
24.5582
200.412
374.483
278.794
225.117
115.885
12.8433
-17.2214
-167.612
-302.689
-300.074
-216.631
28.1396
194.13
93.2854
-90.5676
-82.2287
-38.7449
-0.304271
-9.95083
17.7742
-99.4514
-118.673
70.1366
166.459
164.571
114.155
37.0101
-21.5103
-1.74526
122.716
134.094
-56.6023
-45.4762
124.795
70.7523
-49.2304
-152.305
-159.838
-199.2
-194.429
-115.63
31.4466
159.131
130.065
0.0173689
-28.9634
4.1733
5.64528
-49.8855
-9.55785
34.3158
70.2832
138.221
119.236
-36.5454
-164.707
-73.2348
-43.8599
83.1211
314.554
516.59
406.714
18.8402
-246.38
-415.034
-500.91
-346.136
-12.8872
175.048
68.5551
-9.02655
-100.689
-137.089
-53.1808
86.5161
222.115
337.286
115.382
-149.866
-244.127
-227.277
-100.546
-5.66756
-37.3229
60.6548
102.162
65.2511
45.8123
-52.407
-86.1266
-2.10108
163.319
129.693
-43.4529
-55.7404
43.6114
-30.844
-10.3352
47.7658
52.6193
83.3289
14.3773
21.1985
81.8691
57.0807
43.2707
-44.4828
-172.435
-100.691
94.4756
174.973
126.75
-3.73261
-83.8329
-88.9824
-239.221
-350.619
-160.968
5.60998
122.814
140.21
12.4175
-41.4667
-33.2348
-73.4512
26.378
88.2936
74.0404
129.516
189.414
129.435
105.751
10.4394
-165.115
-311.544
-314.125
-9.97409
193.811
246.309
135.749
47.4061
32.0585
161.376
120.264
70.6869
104.196
151.263
109.594
-118.1
-408.283
-396.449
-291.465
-83.9182
164.789
110.496
45.5393
-109.275
-208.73
-139.187
-29.5779
-5.01025
30.261
58.2312
106.297
97.1537
-37.3927
-116.633
-1.06723
184.886
154.906
58.6495
-19.7165
-107.08
-26.6465
251.274
265.649
57.3386
-22.2773
-36.5065
-134.331
-225.174
-181.432
-80.3507
-3.03344
119.012
185.534
108.221
-10.2614
-106.171
-40.6072
-11.7345
13.8317
129.295
-0.826411
-30.0184
154.419
225.616
140.56
-39.7201
-174.909
-180.659
-119.876
-144.329
-91.512
-130.217
-158.529
99.9245
165.845
103.871
10.4767
-120.819
-209.213
-282.774
-71.5362
46.7958
179.052
153.633
103.891
166.98
290.974
246.167
123.934
-37.6527
-145.007
-70.6461
-60.8442
-181.643
-182.879
-142.127
-56.8151
-5.38987
110.183
83.3101
-5.42921
144.565
167.008
61.7061
21.8426
52.1997
22.2985
15.775
-41.2486
-29.4589
-27.2859
-7.19165
-91.6626
-178.624
-248.128
-248.137
-102.585
94.2035
132.618
103.132
92.4972
47.9628
-15.7805
66.1697
-5.34849
-206.184
-246.777
-77.0903
191.79
271.772
209.957
48.715
-13.0034
-50.9526
-1.70521
32.3174
19.5164
52.0701
135.939
205.799
98.4341
-53.48
-111.885
-55.5902
44.2758
19.2798
25.6959
202.999
40.9115
-115.707
-290.909
-575.477
-599.275
-335.919
-89.0332
191.392
345.741
392.689
318.267
178.413
93.0213
-66.5583
-181.685
-154.801
-50.872
11.8178
1.53766
21.018
28.8886
74.9678
138.176
192.198
165.704
92.3136
4.42895
-54.3855
-26.3096
-27.0955
-63.4087
-88.9691
-5.68689
27.1165
39.3098
69.9096
5.53755
-15.5002
-155.024
-369.234
-382.426
-403.728
-132.442
132.823
263.328
341.519
235.506
259.094
87.9517
-208.432
-251.905
-119.654
35.8597
37.8146
-1.4531
-45.0171
83.2924
89.7747
63.9823
187.682
248.161
251.627
46.547
-67.9992
6.77638
65.3301
8.88621
-73.7
-98.9068
-152.429
-142.139
-88.2853
-80.9205
-53.0227
-105.067
-57.6789
37.0669
0.394986
-14.5049
-75.8043
-186.228
-119.913
-27.842
102.187
201.373
163.796
134.272
100.326
99.8215
154.956
111.61
-71.6068
-96.1176
1.77942
46.565
-161.27
-321.425
-335.111
-212.478
-70.9487
-29.2887
127.521
174.991
66.4543
-94.376
-151.391
5.50656
127.985
204.47
253.943
257.577
327.945
469.691
263.009
-95.1064
-283.168
-530.423
-534.698
-264.977
17.2711
240.226
170.307
66.0131
56.6977
8.68827
-38.515
-4.42914
50.5616
93.437
107.482
100.355
-95.2981
-399.413
-385.26
-187.885
113.386
351.453
347.673
39.9557
-47.8992
95.5839
110.467
-3.95263
-94.6036
-278.18
-338.447
-191.664
-92.4629
61.2223
128.658
77.353
122.056
54.0604
-13.9277
73.6194
97.1078
118.985
173.329
237.789
155.025
-36.7899
-130.817
-143.284
-196.888
-129.461
-60.6848
-112.426
-168.364
-235.914
-104.821
48.5774
12.8791
61.11
215.875
302.148
206.918
27.0518
-47.0701
-99.6319
-132.907
-110.13
-15.3992
87.2044
147.137
205.52
175.008
46.4844
115.626
193.986
18.5299
-230.542
-374.282
-246.707
-237.649
-12.3496
172.255
233.468
5.98618
-148.869
-161.967
-173.974
-187.82
-74.5571
69.7565
15.6762
7.00239
47.3744
-22.5247
-16.4013
284.421
485.292
424.265
331.06
202.049
-114.614
-300.836
-440.377
-383.368
-125.997
-14.9449
-92.212
-187.881
126.505
205.121
156.142
131.787
6.73631
-105.754
-126.882
-173.757
-80.7093
78.3524
-51.511
-181.254
-104.281
30.7337
150.244
268.08
176.257
122.335
161.34
278.688
89.792
-76.6548
-49.2665
-74.8864
-76.7941
-105.732
-182.045
-278.02
-314.277
-119.726
84.3683
301.033
306.859
134.397
38.227
-127.173
-217.093
-95.1138
67.1508
20.2251
-40.7065
-47.1411
-27.0326
-0.816321
165.804
229.592
158.55
78.3044
-86.2777
-254.481
-354.548
-272.691
-156.527
-139.942
26.3298
249.342
362.991
330.28
172.667
54.6645
-84.7437
-62.5641
4.94822
34.5311
39.8177
-17.5964
-113.136
-130.922
-80.1406
36.5356
128.152
87.636
36.7781
6.27848
-42.422
9.3515
-79.5213
-193.046
-125.78
-24.6202
-53.9245
-151.34
-80.8671
-17.2398
-40.097
-104.528
-25.6485
196.487
350.149
396.059
332.268
108.452
-58.7804
-9.56225
-13.0984
-153.011
-221.355
-285.119
-178.83
-117.187
-111.758
117.3
231.86
71.8391
2.19777
-157.883
-240.162
-197.175
-76.4871
176.598
288.537
333.209
142.411
-0.0307596
-37.6926
-80.5236
24.1834
165.498
128.138
86.3416
33.4351
-115.522
-227.778
-104.51
41.1021
269.338
331.606
66.5765
-206.408
-418.047
-556.835
-325.405
-122.931
-183.773
-42.7924
162.486
196.028
111.178
58.4803
122.616
183.87
116.453
60.6849
8.45757
-50.3397
-48.9104
-35.5372
-76.651
-71.4774
-140.261
2.10802
234.689
294.659
281.751
203.272
286.579
221.484
38.9397
-62.6976
-140.938
-203.057
-229.848
-287.947
-228.985
73.1055
207.853
173.386
28.3439
-241.274
-377.584
-361.329
-349.214
-256.672
-137.509
-90.4322
-100.957
-14.4419
323.975
321.316
272.637
235.538
132.74
120.053
145.358
-54.7479
-253.722
-86.9807
197.749
343.283
369.5
242.933
101.982
87.2173
235.252
255.236
64.9827
-93.1138
-322.831
-389.727
-312.991
-134.552
-0.26956
65.4907
-48.4147
-313.859
-317.534
-192.385
-22.9124
49.731
-89.7597
-146.102
-211.41
-163.82
-4.7121
-32.9674
-117.955
7.08168
131.7
259.219
196.339
9.66436
-35.7914
-24.3278
103.374
273.908
274.264
107.937
152.994
391.804
310.252
149.087
38.887
2.94638
-123.936
-196.859
-113.153
-139.782
-217.064
-240.932
-160.686
-52.5393
-28.562
54.7849
135.193
131.491
229.107
232.427
5.63786
-369.407
-487.828
-331.013
-94.4033
43.4213
8.76348
15.1261
6.9749
-41.0516
48.0384
106.025
95.8317
73.8421
119.268
50.0369
11.4045
51.0899
-61.4763
-110.161
-156.23
-48.4301
219.274
459.797
308.28
66.713
-57.934
-108.935
-166.651
-56.7828
59.204
39.0301
11.362
52.7352
50.2319
-12.2449
-144.365
-271.946
-181.549
-67.0351
27.4601
46.9674
64.7422
-7.58791
-22.6425
14.6322
2.66768
-95.1739
-124.826
-74.2413
-95.8714
-40.7747
144.931
144.58
18.6045
-49.1622
-83.8975
-84.55
69.8587
190.097
148.87
95.5116
88.9495
-11.6267
-60.6385
-44.8167
20.8618
146.379
222.524
67.2203
-21.7771
-96.183
-171.95
-156.114
-106.877
-14.848
112.994
223.771
267.665
57.7876
-227.758
-282.089
-187.562
-103.745
-155.53
-225.168
21.2992
155.869
72.5885
-2.2799
-46.153
13.97
62.9356
65.9951
180.744
193.923
87.3031
-37.5892
-168.935
-144.747
141.77
244.962
-15.8647
-154.839
-177.386
39.5615
95.8837
89.8742
139.057
115.33
-19.4071
-105.332
-185.292
-119.376
-6.94378
-20.7792
-12.3596
-9.12383
-61.6594
-52.7736
-29.9672
56.5019
195.815
95.5237
84.4241
45.2985
-151.669
-243.418
-148.784
60.3365
194.941
198.871
160.398
65.2987
-88.3253
-181.714
-176.336
-87.0334
-0.658819
22.0371
-131.394
-182.249
-14.658
167.318
149.521
28.9893
6.70186
87.9751
102.617
-12.0928
-32.5703
-9.17144
-15.1052
43.9675
73.6391
146.461
76.4116
-150.383
-240.033
-340.93
-219.689
100.914
216.77
127.888
82.0967
118.734
83.77
-49.5612
-128.557
-93.4923
-21.4173
110.978
175.558
105.413
23.349
-11.1662
83.5699
174.225
113.542
119.485
57.809
-138.163
-403.109
-438.795
-310.407
-152.55
16.4145
100.641
131.579
80.2108
48.6801
37.8547
35.638
17.1122
-61.6863
-121.901
-129.615
14.5133
109.622
163.019
189.053
176.666
214.756
227.481
175.505
30.5197
-100.99
-156.079
-139.626
-63.5676
12.4629
-7.32291
-152.692
-171.511
-111.805
-92.5277
-179.772
-134.17
-80.8803
-74.6867
-73.9816
-100.429
5.72266
99.2299
240.901
255.58
147.9
175.892
135.196
89.3789
62.6106
-50.821
-19.4997
-33.3566
-22.4568
31.9878
88.6687
-28.239
-187.998
-245.635
-36.2988
108.487
136.571
139.482
27.0626
-126.031
-166.697
-100.114
39.3188
63.8442
15.4805
-156.009
-362.177
-327.136
20.2528
188.267
223.475
221.222
240.719
229.943
121.86
26.4851
-83.3905
-198.754
-153.133
-6.14682
137.795
33.5663
-144.759
-80.9144
-143.211
-158.626
100.294
319.1
190.385
85.7159
31.3706
-34.6595
-74.0497
-96.0879
-135.573
-0.405199
167.28
159.224
33.9689
-75.4288
-258.37
-541.158
-380.014
-101.492
79.6921
192.613
78.042
-94.3871
-128.312
1.43149
182.679
293.538
361.554
317.284
198.492
57.0736
-55.2366
-39.6809
-44.3784
-113.55
34.0374
260.55
145.795
-99.9
-158.139
-36.4277
86.283
43.2697
-115.472
-144.013
-203.198
-235.194
-220.784
-151.734
-79.5121
-92.1186
-45.9277
-54.9989
-43.9377
42.6469
61.5276
188.299
357.273
432.37
251.428
154.034
107.829
-132.815
-291.984
-387.221
-291.323
-320.719
-246.012
-27.6118
61.1784
124.189
101.082
51.9531
100.421
167.104
320.577
304.2
96.5907
-94.6903
-109.751
-62.0706
-31.523
105.817
166.668
92.0489
-29.0362
24.0421
124.708
-6.12609
-68.5272
15.0148
-2.70513
-58.5601
-141.088
-151.301
-235.795
-99.0652
22.7577
-81.3772
-47.9767
-229.869
-328.531
-211.557
33.9582
218.357
275.644
266.466
103.165
10.1202
-62.8661
-179.241
-126.963
17.6302
182.02
283.452
281.297
181.866
28.8508
4.40918
-10.7436
-14.0858
-67.4916
-106.523
-181.03
-189.07
-130.473
13.0947
2.52896
1.05329
133.887
135.293
-17.3007
-30.921
-21.9676
-105.317
-110.967
-33.3853
51.7919
93.8513
79.3428
-39.444
-211.604
-94.0358
132.34
224.896
130.949
41.7254
71.8328
27.7717
-125.284
-251.357
-177.283
-60.4585
-1.09646
50.7059
78.4465
30.801
10.1235
-18.9961
-72.8188
104.224
292.416
188.11
53.977
-40.7334
-33.7258
-129.923
-240.488
-168.094
12.3117
166.661
234.608
187.328
26.2727
-54.7129
-188.036
-302.32
-300.407
-166.452
-4.50483
26.6516
46.4295
195.245
136.883
10.3167
88.8037
197.838
224.855
220.539
198.478
70.1566
-180.548
-341.558
-346.924
-259.494
-39.4185
120.815
190.199
127.107
-38.3595
23.5559
47.4225
-151.032
-61.0289
11.7932
17.8865
54.9232
73.0309
-44.8231
-141.744
-140.696
0.180299
-17.8228
16.5208
72.1344
-49.7305
-64.3939
-38.6822
32.3957
150.332
146.492
172.507
145.968
-17.9744
-41.0342
-96.754
-126.744
-94.2761
-52.5074
-87.4748
-56.2313
80.5534
316.737
200.081
67.1685
58.4114
74.9976
45.2676
-14.9626
-125.388
-250.111
-196.755
-79.797
-47.2639
34.2795
179.706
127.61
-42.4198
-43.3504
-55.4758
-144.12
-256.539
-186.17
-22.158
57.1526
143.395
-34.8811
-19.1999
20.5656
33.1261
87.9477
77.1613
108.598
82.1456
-88.6511
-173.346
-183.157
-0.396306
127.915
82.9751
52.4167
15.2084
-20.7254
-17.2559
94.1645
115.566
181.742
234.519
144.889
176.871
196.209
168.703
-5.30094
-93.4556
-132.677
-278.38
-252.258
-93.0012
-21.2541
14.4906
63.5693
120.824
18.5892
-156.151
-345.119
-313.553
-220.331
-168.381
-141.467
-168.9
-133.391
-98.9246
-20.0899
62.2232
200.691
223.273
230.587
135.379
114.404
181.158
220.098
187.459
97.9632
165.557
72.452
-143.744
-84.4948
109.976
207.192
-27.9778
-82.8486
4.05725
30.9247
30.1685
34.887
73.2141
28.3819
-156.221
-330.795
-343.288
-312.181
-228.595
-36.6179
44.5667
111.252
149.553
83.1166
-46.0652
-86.6875
0.41282
64.4212
40.9653
19.3945
83.705
160.587
167.915
125.453
-81.5774
-164.146
-112.449
17.3037
42.9917
-13.9608
35.3164
25.4424
14.9675
-16.5828
-167.719
-166.302
38.4525
185.103
128.163
63.9705
22.1599
-71.6669
-115.264
-78.4358
89.4524
263.076
250.229
123.25
16.7945
-28.9525
7.62257
-27.0046
-64.5941
-73.0796
-134.037
-152.644
-136.773
-69.426
-9.13864
-28.3432
7.02635
14.3839
-88.8957
-266.672
-225.035
-187.167
-297.471
-94.0912
203.884
256.943
70.3399
-6.10233
61.5372
87.8471
142.708
280.914
287.607
117.655
163.912
268.959
225.345
104.52
-124.213
-224.529
-225.064
-249.824
94.5576
248.969
182.384
77.0854
21.7416
-17.9702
-96.5926
-128.99
-181.05
-237.754
-187.05
-159.733
-206.404
-150.743
-81.3039
-51.0483
64.5408
201.647
266.273
185.108
-18.0112
-241.149
-199.502
-56.6925
9.65004
101.033
132.537
69.0713
79.811
-51.3953
-125.44
-23.3679
107.428
84.3255
-80.2906
-12.9032
50.6932
64.2134
78.2166
91.0853
-11.7523
-38.1111
-69.4892
-40.4077
71.532
103.701
-44.9467
-38.9679
81.3143
173.08
143.056
41.4822
-109.198
-257.85
-176.692
-62.9597
51.9277
115.86
115.586
113.202
150.12
96.8046
-12.65
-92.3735
-117.428
-111.148
-75.5456
-85.8602
-103.449
-58.6799
21.1647
24.4884
-91.2332
-50.4025
33.8032
-7.95714
-75.2566
-85.1644
-39.0248
95.0829
175.048
126.12
75.1328
36.0151
-0.38299
8.91182
68.2997
-3.30458
-41.7681
65.2744
-5.89566
-53.3596
30.8919
-103.971
-283.96
-313.722
-135.984
32.1754
105.917
133.685
125.073
105.914
81.1116
34.8562
30.1311
45.8604
84.5081
176.082
150.328
-4.68597
-41.0605
-58.0372
-19.9507
40.105
68.8227
52.8322
-61.9739
-134.682
-63.7362
-53.1052
-55.2821
25.8598
32.1345
-68.5253
-41.7934
-14.1256
-49.5698
-41.2027
-27.5601
-77.1426
-153.569
-308.531
-309.74
-70.8833
228.916
300.885
252.129
300.567
307.911
232.606
118.773
-78.4674
-215.653
-206.437
-237.59
-95.1488
15.8703
13.9644
-58.9864
-66.3474
-7.72469
88.0128
90.7824
25.0873
-74.8446
-81.2282
33.742
28.6308
-86.4237
-97.6309
-15.9974
117.686
145.369
178.786
152.055
17.9183
-4.88698
-25.7017
-57.7044
-149.466
-85.5676
33.6802
109.277
76.6229
-74.0771
-46.0609
138.583
181.126
19.4022
-145.257
-236.014
-165.589
32.6249
309.548
249.814
-219.379
-429.612
-548.559
-370.893
30.7401
245.446
297.803
202.506
191.503
275.094
297.442
85.7298
-185.25
-317.252
-283.023
-213.795
-5.37546
49.4561
-116.555
-53.7943
235.632
356.53
362.987
218.868
99.9815
22.2494
26.864
71.4727
58.0173
-48.1044
-286.838
-391.17
-207.181
79.4765
137.302
77.0385
-89.8165
-161.435
-154.095
-156.235
-77.5073
-6.26125
145.48
168.791
26.3229
-66.6721
-81.0598
-78.9776
-80.7671
-39.2728
20.8136
46.3136
7.89088
-31.2791
37.328
134.121
137.397
139.249
122.641
92.1434
63.2836
6.49253
-146.283
-184.095
-61.5553
32.3625
44.7275
-23.6213
-44.049
53.1526
120.888
47.8233
-67.4674
-34.9802
80.1701
79.1073
8.13929
-92.0131
-105.876
-32.0722
10.761
30.1318
166.979
104.222
-108.86
-262.523
-284.831
-162.832
75.1337
103.107
65.5929
154.593
294.879
251.508
61.8999
-62.8637
-102.884
-71.9724
-49.3173
-57.8869
1.70895
-71.8998
-159.701
-116.324
-86.9631
-19.0569
-20.1032
-28.3289
-108.946
-123.808
-11.8624
12.1986
18.1128
83.601
71.6587
134.317
157.771
133.754
143.112
14.6316
-93.1649
-163.285
-84.1777
125.934
241.687
216.734
65.1356
38.7991
103.419
91.891
-26.2753
-146.984
-161.408
-206.011
-189.74
-180.704
-158.461
-157.637
-196.545
-56.7717
124.588
212.975
245.488
153.705
137.229
102.252
57.0627
-35.9139
-116.311
-164.441
-26.8112
106.823
-47.3645
-177.357
-30.9883
118.237
135.784
59.3819
65.1023
114.704
2.42145
-58.9371
-141.758
-196.661
-158.549
-48.1358
43.5556
64.5439
-67.6842
12.3665
54.0991
81.2539
185.362
239.57
49.4435
-130.277
-181.412
-82.7394
-3.36746
26.3319
60.0373
91.3109
-2.58599
-67.0141
-23.2116
-47.8955
-102.358
-147.017
16.4477
72.2708
-0.605944
3.07394
29.8321
48.0855
39.6287
8.77355
8.1922
41.646
93.679
73.2083
-47.1099
-60.3043
50.4888
9.47496
-53.4385
24.3879
127.044
129.208
50.8444
-25.4136
-115.071
-147.683
-118.81
-85.8625
-54.8834
-15.2909
8.10827
-8.51105
-61.1854
-103.727
16.7515
228.325
226.664
179.181
94.4225
-38.5304
-155.913
-187.517
-253.251
-335.437
-280.058
-209.804
18.311
224.099
222.029
317.018
255.365
57.9911
-80.4975
-47.8558
64.4878
117.059
191.667
139.944
35.479
-44.938
-84.5231
-54.7693
17.8803
101.077
95.1947
-6.58618
-35.4649
-51.556
-47.4051
-137.654
-169.077
-2.27967
111.152
-32.1613
-225.382
-228.894
-117.023
28.1332
27.9046
-8.72972
93.7478
184.634
174.945
121.965
85.6847
21.1623
-188.161
-320.066
-221.346
22.5116
144.357
-48.1197
-105.742
-37.8178
-44.243
-65.6008
26.1332
190.763
216.806
197.976
173.429
104.403
72.0128
51.4284
7.53714
10.9736
-57.4807
-115.392
-15.8464
-85.5114
-64.5932
116.852
68.5771
-11.2042
-18.103
-135.244
-196.655
-133.959
-47.0243
-19.2051
-15.9402
-18.3801
-48.6593
-68.0613
15.5994
196.902
240.107
131.217
-97.6208
-231.934
-198.229
-11.4543
87.7617
125.118
39.7037
-31.667
-68.4001
-116.584
-103.724
-14.8508
115.316
187.331
229.402
211.966
135.45
36.2273
-30.7418
-38.5522
-26.8366
-17.5952
-31.0979
-138.831
-142.395
-36.9962
127.933
226.2
168.149
-17.2777
-159.28
-158.778
-125.247
-130.587
-132.762
-69.6196
-85.5212
-119.587
-34.322
19.3995
13.7159
3.26238
-38.02
14.3622
160.209
160.485
83.0878
85.602
71.1332
-75.0679
-38.7809
6.86119
-168.57
-262.312
-239.48
35.6398
316.95
252.634
55.1265
33.3083
81.5012
43.6959
3.73
48.86
14.3332
-1.03296
23.3779
-7.52161
-72.4889
67.2574
99.5829
118.58
127.937
172.981
172.618
-159.342
-398.07
-215.648
-1.20357
53.4899
21.4006
-18.6609
-60.7251
-67.6897
10.7412
47.7805
36.4048
-95.895
-267.832
-302.126
-288.145
-204.323
-35.5535
98.3324
142.359
159.884
139.067
74.5605
84.3629
123.862
157.825
156.258
165.827
67.3959
-129.148
-203.747
-65.929
114.566
141.395
118.53
151.08
84.8289
25.3962
0.663573
-87.8785
-151.693
-62.6676
-101.65
-157.432
-132.351
-9.0854
116.324
25.3663
-58.0192
-108.569
-87.4284
-36.2285
-2.91897
115.272
121.718
45.0934
42.5275
51.528
-32.3522
-7.69828
151.288
105.123
8.33246
-96.7041
-159.972
-147.796
-126.604
-129.847
-81.848
51.1342
183.907
150.108
25.1966
33.4301
6.3002
-57.3874
-175.958
-180.834
-106.401
25.4229
31.3561
38.0464
110.918
171.181
183.75
60.3741
-14.7595
71.9521
114.215
110.117
73.5293
23.3291
82.6435
6.91484
-113.521
-115.955
-63.5066
-66.5234
-25.1632
73.307
15.8736
-68.6254
-55.2877
-79.4075
-139.49
-62.8011
16.4964
34.4066
-60.9736
-134.641
-196.164
-189.245
-172.884
-54.7828
140.816
226.422
220.505
191.689
108.9
7.68942
41.7817
53.2967
-10.963
-10.5532
59.8587
44.5663
1.30253
-4.90967
8.97134
69.4187
113.869
77.6039
3.68256
-152.143
-239.012
-238.393
-179.273
-8.32625
101.595
17.1855
-77.8024
-149.322
-88.237
32.986
142.552
242.238
195.043
146.187
167.44
46.4587
-94.3938
-125.551
-84.109
14.2088
131.68
343.76
272.573
-103.69
-396.088
-408.902
-304.256
-93.7447
19.7446
-34.8126
-69.1598
-70.72
73.7407
89.719
68.4801
103.467
133.03
48.446
25.9369
19.0997
-49.5989
-140.772
-61.1535
23.3348
185.649
267.297
108.359
15.4007
29.9045
81.1157
24.4907
-86.1197
-174.618
-189.325
-181.897
-140.75
-31.9947
187.902
293.411
252.456
361.569
274.707
-177.367
-535.387
-546.257
-379.747
-127.773
-59.5561
28.9616
116.607
129.036
112.766
149.61
172.781
91.8977
25.3419
-4.78757
-51.1319
-84.4792
-3.49157
-80.6916
-178.343
41.3773
317.958
306.369
173.755
106.097
57.0687
-47.4456
-95.7616
-77.8798
-93.449
-155.913
-100.131
-52.5326
-32.6447
-73.8638
-113.383
-150.726
-142.893
-118.76
-15.4702
183.406
345.611
250.151
108.777
40.3004
11.9725
-44.4125
-70.0195
-87.7801
-69.2101
-45.904
-31.1909
22.804
16.0988
29.6437
49.0057
-38.7787
-98.2108
-130.933
-67.6004
-56.2727
-156.342
-58.3116
92.7194
194.738
175.515
173.415
111.286
51.3357
46.6908
-35.6169
-155.29
-142.573
-35.6924
5.81365
-5.37852
2.99381
49.1637
25.7956
-25.4503
12.6512
92.1971
102.913
32.7367
-55.4119
-85.1462
-118.384
-70.1359
34.7678
61.9374
52.2596
75.3181
29.8879
-61.8628
-15.846
7.21132
7.65838
-52.8209
-70.5136
-73.5668
-17.123
38.7887
46.4381
172.849
118.303
-105.759
-203.33
-203.189
-251.335
-65.21
114.103
156.907
123.839
80.6779
-5.36334
-73.5545
-44.0428
31.1808
47.903
104.314
115.878
81.2328
18.1338
-200.453
-232.872
-45.9084
112.582
216.811
282.3
109.022
-15.0003
-36.4599
-55.1319
-61.5604
-23.2254
4.9462
48.8145
-30.8063
-63.5063
-42.981
-147.24
-147.327
-69.525
-62.5015
9.3592
69.275
59.0438
19.4994
-66.5124
-77.0026
-33.3482
-18.814
-8.74101
-6.89367
17.3793
99.9915
65.4303
78.6992
140.37
88.0687
33.4521
21.2084
31.9578
57.7508
35.7948
36.8027
15.7784
-4.28037
-32.4529
-126.249
-166.391
-148.276
-98.7108
-62.342
-24.2326
-7.46414
-10.6601
23.0702
53.9097
50.3717
63.8526
75.9366
34.3338
14.027
4.16334
19.7716
21.7755
-1.13129
2.40249
-28.9828
-53.6872
-41.7697
14.5097
77.0473
39.5831
-54.2809
-64.2761
-58.0881
-45.915
-27.6473
-13.5136
6.15976
19.3556
-2.83794
-17.672
-30.4786
-46.4429
-58.048
-23.7181
71.2575
142.276
146.139
102.306
63.7615
22.4537
46.1181
62.891
17.8523
-26.6417
-56.4991
-31.1897
-31.0509
-96.5207
-73.5351
-39.9096
-10.0139
14.7546
3.40048
5.39787
-13.2765
-37.0836
-2.92505
27.7051
41.5796
56.9335
46.4901
27.237
24.228
15.579
5.90068
-15.4749
-33.5177
-17.0633
-18.6684
-40.3266
-39.4682
-42.2058
-37.9047
-30.5496
-13.2342
-13.1248
-25.9858
-48.051
-62.1487
-72.702
-61.5318
-18.777
15.742
30.4572
24.515
-2.11286
-3.8509
8.91516
27.4342
56.7811
80.6188
92.2686
74.8594
55.8169
32.4015
8.94093
7.26011
14.397
5.59139
-3.5573
-18.8902
-23.375
-6.31786
24.8406
46.0361
60.4504
55.7909
28.3484
-1.49126
-10.8027
-36.1451
-61.4554
-54.5977
-35.4156
21.9428
93.4395
75.0627
33.933
2.60327
-29.4646
-61.6321
-77.6807
-93.779
-97.6582
-87.5491
-59.9237
-52.8871
-42.3724
-8.5508
-5.23203
-7.5638
-5.95539
-13.0401
5.00805
16.751
6.46335
5.14323
-7.92609
-1.61373
-4.61
-18.2522
9.5904
52.0156
30.2678
20.9984
6.78295
-0.704765
41.8401
110.746
165.123
137.347
119.124
155.443
163.056
92.2763
10.9598
-40.1511
-79.5098
-131.229
-148.091
-139.833
-139.813
-123.939
-64.1782
-22.6024
39.4566
73.3087
-44.1665
-131.41
-130.725
-72.0472
-23.4637
-35.7224
-70.0652
-88.3526
-79.8763
-41.6609
22.0428
65.4897
88.524
119.043
134.857
161.094
156.398
82.9138
-14.3831
-55.9443
-8.32613
14.9562
9.04636
44.4071
62.2031
47.8662
13.404
2.61473
-10.6262
-5.91779
11.1878
30.3455
62.311
76.4137
83.3939
76.8647
18.3414
-29.1961
-29.0421
-25.8847
-77.4236
-157.765
-182.658
-171.046
-158.241
-87.8661
-13.0362
22.6943
43.9366
34.3577
19.3757
6.57533
11.5749
-2.09375
-18.2404
-55.1577
-62.1759
-39.1882
-34.6868
-21.8493
51.6541
116.654
110.753
67.0811
54.4582
21.3254
-4.7083
14.8879
38.2373
36.201
42.3913
47.5769
16.2306
-26.2322
-71.6291
-106.584
-81.7219
-39.1107
-16.35
0.162158
23.831
25.396
20.2134
23.8607
-2.03375
-9.12642
18.9427
57.1414
87.0092
103.024
85.064
46.457
18.0536
15.8642
12.9754
6.20813
5.97093
7.34247
5.28725
5.64908
3.17264
-29.1127
-72.7313
-97.9643
-100.632
-101.336
-80.3978
-74.3441
-90.2217
-100.949
-116.411
-101.885
-50.8914
-5.03551
23.4752
52.688
76.3733
72.565
36.5466
39.2978
79.0536
129.081
185.96
183.591
92.2525
-60.726
-169.586
-186.994
-29.9008
125.988
228.568
233.359
159.21
94.3319
37.7246
14.7064
-39.8139
-117.77
-155.334
-195.431
-248.092
-211.748
-136.383
-78.6533
-31.4858
-6.15917
-31.0026
-106.765
-190.045
-184.595
-129.808
9.89668
148.915
163.874
157.396
146.097
194.381
294.328
282.198
205.357
127.657
29.3513
-76.1795
-162.387
-142.713
-22.6548
80.7311
175.38
188.755
112.589
42.2337
-95.7731
-272.282
-279.504
-169.991
-110.932
-76.9963
-91.5455
-99.9637
-75.1244
-65.6824
-29.6372
11.7003
-36.4693
-89.9859
-84.6518
-38.5657
45.546
113.82
122.659
200.076
289.122
253.174
95.8516
16.1175
-40.6807
-127.422
-188.529
-0.388067
119.753
157.389
160.749
63.6262
27.3221
38.0993
-17.4792
-90.3292
-188.486
-260.142
-244.849
-226.176
-198.771
-110.751
36.9479
124.51
149.503
34.0563
33.1601
40.0065
6.5944
18.0253
30.9069
81.4176
189.982
251.301
304.524
228.745
46.7751
-128.308
-182.702
-210.992
-192.604
-90.7385
-36.2689
-86.7763
-124.143
-69.3889
-37.7338
-45.0622
-7.17565
-28.6569
-16.8631
55.8623
47.6158
119.614
77.259
-41.4999
4.9265
40.9292
-32.8959
-66.2515
-39.6855
-26.6491
3.07093
78.9
173.604
271.078
191.41
-14.2801
-157.095
-50.4462
-10.2773
21.3656
94.7562
1.81765
-77.8696
-75.5271
-51.7431
44.6362
128.023
61.571
-106.065
-231.057
-228.23
-179.445
-106.487
-54.4474
96.1178
187.128
95.9272
-27.3909
-43.9787
-10.0101
-22.6492
-64.3444
-95.0769
4.41488
116.794
145.867
125.602
91.625
134.82
151.24
73.1679
-31.8328
-149.687
-218.606
-222.747
-134.3
39.9778
135.346
155.667
34.608
-20.5508
64.8575
167.689
85.6412
-56.3788
-151.493
-175.58
-71.9348
41.4252
95.0119
166.646
179.03
111.19
82.0054
37.7697
-42.945
-54.7598
-83.5571
-179.444
-192.778
-166.869
-183.725
-190.527
-106.878
-39.8057
37.9244
105.61
71.2
41.7064
74.3945
51.3731
-12.3811
-61.3618
6.95638
85.5582
56.1986
-7.52806
-29.4565
39.4628
93.3573
124.236
151.586
209.499
235.724
134.991
-29.8531
-72.0768
-43.7199
-122.014
-166.171
-217.194
-247.557
-112.582
-88.0985
-119.912
-21.1653
81.9525
132.869
164.491
109.859
51.8209
-11.7615
-79.0046
-76.8607
-14.1245
32.1057
61.7629
86.1931
73.0561
-23.6519
-3.27443
43.1126
-138.9
-278.334
-58.3649
255.324
310.026
147.096
-96.2515
-170.651
-114.364
-43.9606
-72.7284
-57.3576
-36.7026
-90.9463
-130.317
-154.345
7.93635
274.44
433.947
421.313
403.851
347.876
64.7246
-280.429
-404.381
-344.443
-210.861
-120.983
-201.355
-298.606
-179.695
-83.4598
-22.0833
33.9946
48.0484
10.4244
-35.1995
-22.9411
-32.6307
26.0695
69.7778
156.166
215.709
155.104
71.2188
48.5856
72.0011
168.975
149.921
89.4416
93.2768
66.0688
30.5125
26.9672
8.45551
59.8216
84.9561
-33.3812
-140.425
-198.232
-178.403
-174.728
-158.785
-115.728
32.5049
105.622
-10.6097
-152.432
-79.0821
-7.59052
-82.8562
-79.664
-0.734816
62.6504
57.535
14.2358
-20.6338
-9.75957
-0.637491
26.5657
73.071
98.0782
15.1688
-24.1386
20.6381
71.1903
141.485
141.828
104.988
46.3896
-90.4258
-105.221
-33.0322
61.644
151.602
132.554
29.3789
-135.223
-245.4
-213.431
-110.846
-5.99348
10.6102
-15.4443
28.2677
48.6046
-32.265
-36.3075
2.47707
88.6132
234.419
233.315
172.394
119.512
20.9264
-73.0734
-148.117
-217.202
-262.581
-226.106
-233.523
-212.138
-46.0644
76.8051
21.7318
33.07
99.4472
37.8815
68.8875
103.816
80.6276
37.7424
-47.4601
-51.1999
51.5801
164.689
228.16
233.145
137.308
-2.12771
129.292
209.31
82.2049
-56.0062
-151.359
-224.501
-183.824
-105.539
-146.947
-173.003
-145.881
-135.282
-85.3713
-27.087
-36.6489
-74.6925
-88.3631
-20.1898
130.543
179.122
120.391
42.1827
-1.72714
9.57105
17.0396
36.2234
133.665
216.467
192.747
96.2985
61.0019
46.6603
-17.9913
-91.8286
-174.821
-166.89
-87.9434
21.6462
94.6436
141.835
-8.73313
-196.658
-153.726
-103.07
-16.9986
-40.7253
-125.816
-165.198
-143.116
-48.1719
33.7664
158.311
259.161
144.257
83.7746
148.453
112.457
89.0803
-37.0464
-162.198
-72.7149
51.7066
95.5531
108.221
36.2889
43.4819
56.6051
-33.1508
-109.004
-14.3071
92.3136
108.496
-25.0785
-113.752
-216.069
-336.558
-282.552
-208.838
-70.8378
75.2353
127.445
175.194
143.998
9.86527
-35.6717
92.0946
159.236
138.103
131.842
89.828
36.3824
-129.489
-242.106
-198.433
-0.43146
154.819
157.935
63.1552
41.6163
-25.7381
-119.241
-136.843
-144.951
-34.8278
104.965
67.1995
-16.6829
-31.9156
-48.2974
-83.4981
-130.612
-100.603
45.2216
146.21
146.357
89.7743
40.8366
13.7106
-12.7297
-8.31711
40.139
116.177
199.064
195.453
79.6141
-2.56783
20.0286
-40.582
-128.331
-163.431
-147.154
-102.428
-53.1422
-32.9782
-43.8737
-106.237
-42.1618
105.68
124.46
46.9408
-60.0054
-182.563
-166.679
-54.8908
-12.1827
-81.472
-91.0356
41.221
233.395
243.561
130.093
24.5704
-21.0115
-4.86168
5.69963
65.665
86.411
49.5674
39.837
-29.2272
-34.6049
33.0596
-13.687
-80.6528
-153.862
-92.4022
-55.425
-80.6624
-71.5269
-79.3414
-114.225
-60.8965
95.0968
162.196
164.789
151.653
101.604
65.2243
100.848
144.461
93.7537
40.3455
-43.9719
-153.3
-206.928
-240.616
-152.56
-48.1505
-65.4531
-62.4357
35.4112
117.476
143.871
170.439
179.357
78.1096
-43.5328
-77.0337
-99.8644
-84.0789
-93.5636
-143.808
-121.287
23.6281
161.64
226.335
113.07
83.3476
113.545
41.0235
-26.5366
-99.6386
-196.53
-228.237
-212.722
-129.033
-111.726
-120.549
6.10903
165.502
149.557
56.978
6.3725
37.7055
148.436
233.763
172.508
96.0513
40.3137
25.8423
-30.8702
-122.706
-126.042
-130.567
-238.215
-193.523
-29.7326
56.5599
75.7876
103.431
169.339
272.369
269.71
85.1084
-88.3238
-162.956
-112.996
-122.902
-183.404
-177.634
-32.7671
107.759
94.5382
137.387
233.275
134.396
24.2165
-10.2945
-124.663
-262.974
-234.294
-185.77
-138.546
-50.5933
-9.76773
-57.1635
-41.1248
66.6398
233.371
348.836
275.712
169.159
113.28
37.9911
-23.2475
-54.2857
-117.014
-197.837
-220.53
-226.67
-191.758
-72.8761
82.1523
142.472
116.203
135.97
188.978
93.5353
-96.3512
-149.512
-70.3875
-21.0609
-88.3163
-60.0096
-14.1375
11.4179
78.1993
68.9593
39.4358
63.3145
58.7384
-35.1295
-116.901
-94.6637
179.854
291.766
117.785
-65.2523
-97.942
-129.022
-209.958
-120.591
52.2405
61.2678
-16.0664
-14.393
5.7094
65.4061
128.433
200.864
304.205
242.552
118.244
-21.8325
-266.752
-382.307
-285.785
-147.531
-63.3745
46.0551
46.7075
-4.23466
-65.8289
-143.879
-116.472
-40.6646
6.02527
62.4232
57.8263
51.8669
2.76172
-61.9442
-62.8045
43.3432
86.6458
51.4828
9.39892
23.4773
43.0814
42.1355
86.1638
134.747
129.219
68.1988
32.243
90.7659
100.67
76.5278
-1.4853
-114.792
-109.126
-0.325471
39.4324
-39.2216
-105.955
-87.2399
-88.1619
-46.8197
-5.76967
-54.8314
-89.3512
-70.4489
-45.9122
7.41162
115.736
82.4035
70.4871
88.5002
65.7585
46.0553
8.70048
-62.7506
-110.389
-135.088
-83.1296
-125.516
-127.329
-33.0603
30.7599
104.532
236.722
180.548
64.7277
-1.62538
-8.07064
-26.4839
-76.0492
-125.506
-146.241
-113.433
-38.6286
18.3041
98.1568
168.011
99.0606
68.6244
55.4101
-16.9779
-77.5592
-105.422
-121.894
-50.3105
29.3956
35.1189
103.691
180.443
137.177
47.3936
-11.0588
-64.5879
-121.655
-130.034
-76.68
2.81114
47.3709
89.9923
178.476
187.52
156.883
89.5763
-22.6538
-127.711
-112.972
-20.4828
-81.3534
-173.969
-214.52
-170.476
-77.2074
16.7173
25.1515
52.7724
82.1253
-31.7846
-53.1536
-33.0432
-73.4853
-86.4139
-115.146
-92.554
-8.33168
127.577
224.982
242.539
148.548
104.259
101.53
5.78408
-9.7076
45.4685
-30.9571
-47.2527
-99.7573
-106.227
-106.925
4.03961
133.333
117.836
98.1025
51.3798
-116.203
-221.441
-129.888
-22.2224
88.756
93.852
62.461
103.681
35.4558
-133.539
-64.9769
13.4041
-23.5016
-35.1152
-17.4721
-52.328
-31.3544
-10.9707
-37.82
17.7616
101.769
76.1823
-89.0735
-92.913
2.78493
-37.9138
-59.5153
-94.9535
-36.8298
121.217
149.744
77.7392
18.7221
-25.5468
-21.0187
24.9172
45.5847
91.8443
113.093
-13.5644
13.343
125.849
148.273
9.10702
-194.074
-156.37
8.5664
50.8638
29.4745
57.1911
55.5831
-59.1711
-102.202
-32.1297
-73.9153
-179.706
-241.642
-186.811
-105.774
-8.82439
67.6922
81.4876
15.6047
34.055
127.894
151.752
47.3081
36.8166
130.942
83.7141
-79.7822
-37.1291
-28.543
2.77072
100.264
182.565
175.309
108.88
72.9861
-12.2679
-187.282
-204.954
-153.696
-141.117
-124.619
-106.329
-66.6357
-33.2735
-4.95006
9.51496
27.0523
18.6126
51.4284
24.5637
69.0137
93.2626
41.5127
-39.8292
-144.243
-244.604
27.8524
403.166
447.933
217.977
42.9348
-13.3173
-27.1679
-49.6088
-51.02
-51.3411
-69.6028
1.14902
-5.83888
-35.8374
-106.18
-220.325
-230.709
-147.466
-21.3944
131.207
-42.0661
-304.087
-228.827
43.1616
186.612
133.931
49.589
45.7271
77.6533
154.656
192.047
120.061
105.313
39.7179
18.2246
98.1128
82.7209
7.99429
-41.495
-98.7708
-117.099
-135.361
-160.452
-180.726
-147.669
-41.5176
43.4423
23.899
-14.1799
12.4044
135.124
118.917
47.9264
101.301
72.5083
-74.2468
-123.183
34.1958
202.783
217.083
138.047
29.8482
-52.3287
-142.091
-189.56
-142.528
-94.1114
19.7567
35.1237
-80.8487
-152.219
-183.986
-140.012
-58.4262
42.1954
72.4102
78.0636
48.7295
15.805
88.7912
161.873
120.694
82.6771
45.2599
0.432497
-47.3412
-91.2358
46.4129
137.494
91.8827
31.5552
19.5089
59.5936
118.868
51.2479
25.8767
-3.00933
-47.4861
-97.0994
-112.305
-141.403
-194.951
-224.845
-172.449
-153.575
-54.7496
2.00847
-74.514
-32.3703
90.8535
162.793
201.566
164.627
9.90236
-144.011
-142.671
-76.6445
-49.1487
37.3835
117.799
146.787
151.814
133.788
107.078
112.129
66.8387
83.2464
9.88766
2.69208
60.9294
74.1865
32.8565
-35.5022
-69.4849
52.2928
-2.52546
-79.6249
-5.68891
-130.005
-215.323
-183.723
-151.647
-93.9888
9.65618
43.4806
-4.25244
-67.2419
-67.2023
-24.5208
-64.3075
-101.864
-29.1803
0.24065
10.7707
45.8694
90.1834
86.8224
-34.9631
-3.69989
90.2541
101.198
165.734
160.271
170.114
128.5
107.907
196.934
141.59
-119.764
-314.312
-310.315
-214.508
-40.773
28.0938
18.4979
132.573
132.945
-56.1817
-80.864
-51.8717
-103.666
-152.876
-20.4823
85.9737
63.3745
-18.0173
-111.925
-157.376
-38.0805
179.799
209.148
54.8856
-125.689
-158.603
-57.0269
32.0407
149.532
307.631
202.835
11.9875
-48.8488
-47.6011
8.99778
-40.087
-122.761
-16.0194
150.521
233.144
93.4001
-157.207
-180.778
-42.3286
50.9055
16.1172
-57.1501
-110.312
-98.6404
-56.8976
-42.2495
-29.1024
29.7813
35.9914
-94.7215
-130.409
-44.74
-117.375
-313.235
-316.25
-90.4261
178.565
326.277
335.29
380.435
443.02
250.078
13.6513
-50.3464
-47.7093
-40.8749
-66.821
-132.34
-207.841
-163.761
-100.396
7.65201
-2.63893
-32.273
51.4047
65.2598
-48.7551
-126.842
-138.252
-146.536
-132.84
33.9108
154.945
99.8221
66.6339
102.849
112.1
115.849
43.7785
-3.59166
-25.8219
-32.1925
137.431
306.131
179.256
56.8382
36.4213
-32.3111
-79.3595
-123.563
-155.203
-212.335
-283.006
-232.834
-166.328
-146.344
-63.3208
7.46572
36.5385
22.1999
86.9498
138.671
183.293
110.533
52.4061
-33.4415
-97.6773
-120.507
-155.585
-135.476
-50.6866
32.6453
162.12
226.674
215.43
293.999
187.523
148.165
162.656
60.2176
-131.644
-264.969
-313.142
-187.423
-49.5584
59.4927
119.118
141.858
175.67
97.1826
10.6488
-108.002
-121.634
-76.0175
-108.512
-177.162
-145.018
-111.071
-64.0116
-35.8118
-38.5836
35.0487
61.0029
35.3645
47.1176
65.6995
124.813
95.2807
53.5833
85.9664
24.5216
-83.5093
-37.1881
-45.813
-68.0618
24.1959
113.221
77.648
4.76595
20.0781
47.1694
19.4894
-39.1177
-80.9576
-65.9988
-136.913
-278.938
-184.33
-97.1621
-85.3933
0.619927
281.208
411.314
312.336
131.513
19.0883
6.30769
-14.6737
9.05617
46.0283
98.5961
97.4932
-63.6761
-139.106
-165.778
-204.562
-113.648
-87.3931
-123.925
-45.4761
50.3284
11.7682
-116.221
-95.4199
-9.35427
-15.5307
-98.6247
-90.2367
25.3456
106.432
33.2881
-52.8985
29.0773
102.099
321.528
459.707
412.941
289.702
165.383
-13.3535
-69.1098
-61.7026
-179.431
-337.944
-468.892
-438.285
-235.716
-123.647
-44.9967
-33.6413
115.658
185.2
129.96
219.543
80.7942
-94.0212
-18.9831
-71.7933
-39.1846
115.6
146.062
19.7206
-92.9502
-73.5018
110.044
159.421
158.279
170.313
56.5646
-13.6845
-91.5167
-161.656
-113.425
-217.145
-291.296
-212.077
-103.953
72.4429
131.132
155.99
265.093
241.015
138.458
101.534
89.2183
63.6877
-5.77231
-31.0247
-16.3875
-61.2203
-114.903
-97.8188
-116.574
-108.274
-85.8104
-58.7851
-120.538
-170.328
-124.217
-139.13
-195.48
-110.564
37.5622
209.698
260.898
151.598
61.4558
14.0617
36.636
180.175
232.259
210.953
217.838
139.851
-19.7419
-118.513
-44.2982
39.159
-37.167
-104.129
-222.118
-199.389
-40.5289
-97.0749
-95.1948
-94.52
-40.7815
277.051
388.442
156.192
-32.1571
-126.359
-169.951
-153.901
-106.212
-34.7965
-62.8239
-111.482
-109.403
-91.3894
-54.7723
80.7553
109.137
92.3019
27.1134
78.2422
91.2591
-134.715
-246.357
-191.762
-7.63789
188.68
186.118
165.157
257.777
207.561
53.8866
-1.20921
19.9682
44.4891
76.3936
-13.769
-84.2159
-103.236
-119.695
-46.1511
-2.83684
-45.36
-35.2056
33.1928
-17.7777
-150.658
-177.507
-96.3183
-20.0901
41.7817
37.7626
-7.57587
44.2407
75.6152
-8.66887
-11.0303
17.8164
20.6773
25.5582
-19.2452
-6.73409
23.6929
-19.2217
-23.9444
24.2786
60.5218
60.7737
85.5483
76.2244
17.187
-10.227
16.9555
3.43927
-37.273
-71.2765
-112.019
-17.5093
83.6593
138.066
110.162
49.3914
-12.0668
-152.617
-203.639
-135.572
-86.0788
-57.8273
-39.9962
-26.4571
33.5669
104.343
98.7789
109.79
140.905
112.085
58.0541
-2.60988
5.35888
-63.2993
-130.119
-147.277
-138.908
-5.19034
35.5239
59.6827
62.7078
68.944
24.9495
-86.6343
-191.351
-212.203
-120.106
132.369
255.296
217.834
63.6761
-26.7094
-63.8066
10.8755
105.357
154.706
93.6043
-19.3344
-90.3164
-112.82
-16.8166
61.4129
-30.382
-43.3898
64.8159
107.44
86.29
-92.8017
-220.732
-247.726
-162.212
-87.4158
-72.5694
-38.1726
12.5512
1.77726
61.2086
177.273
214.745
24.5534
-67.7923
-29.7533
53.8405
76.4248
20.4944
-20.6375
37.3818
90.5195
97.0982
137.471
106.728
-8.87267
-102.022
-125.595
-164.988
-265.017
-217.357
-113.257
-93.6675
-15.3979
59.9683
134.248
178.693
184.584
210.423
159.739
69.7555
23.8898
27.8737
52.9157
61.9494
145.42
96.9464
-13.0708
-42.43
-35.9935
-117.328
-104.58
-10.0137
-37.8553
-147.132
-244.877
-348.975
-308.34
-143.504
-113.027
-32.2259
-40.5975
-19.6007
102.778
124.695
64.0049
130.857
148.834
51.5291
91.6479
172.913
102.227
33.7287
107.93
132.85
77.3759
62.5496
27.7215
-23.5348
39.0743
41.5744
58.7652
-25.4918
-168.785
-252.231
-224.173
-143.074
-106.435
-33.7609
-11.3743
9.10987
103.105
194.579
280.382
245.33
230.243
172.528
44.9831
-82.6921
-165.505
-204.997
-237.161
-217.493
-158.85
-88.9508
-35.6089
63.2822
141.734
100.94
-15.8452
-120.212
-187.466
-222.461
-117.462
80.2604
135.117
106.933
100.543
38.2964
3.07345
-52.5649
-48.2754
55.0028
59.9161
82.7904
91.1737
47.1316
-10.5553
35.003
107.798
247.048
319.981
133.136
-137.976
-204.962
-181.116
-179.542
-170.397
-96.7321
-12.5671
70.9279
63.2562
33.2044
104.077
111.846
55.6368
3.80043
-49.4477
-64.9993
-76.1768
-228.505
-234.03
-59.5322
-22.047
-63.8864
-45.7579
40.3662
57.7397
22.3556
21.1087
8.50394
41.5675
17.1889
-29.882
66.4765
144.201
126.907
190.959
128.94
-48.4577
-66.7125
-59.0001
-53.6445
46.494
111.566
153.872
142.633
115.421
93.4947
14.0708
-64.1093
-170.735
-171.888
-97.6276
-143.816
-171.626
-163.734
-165.501
-134.583
86.3343
277.232
158.093
16.7375
-98.767
-187.287
-192.67
-133.245
-40.3968
-3.92096
69.0377
129.666
101.652
96.6608
101.874
85.9779
-3.08646
-37.1436
47.1515
150.745
158.239
76.2847
130.172
176.77
52.2402
-6.95184
-118.798
-202.53
-168.683
-118.748
-98.7835
-60.1263
7.76358
-3.08848
5.35638
79.1113
136.319
82.2102
-47.4573
-110.432
-153.593
-177.967
-167.989
-128.507
66.515
286.344
346.649
203.546
-37.4773
-76.1323
-52.244
-129.118
-128.509
-37.7968
-54.8967
-86.672
-120.464
-78.018
97.4163
179.972
107.68
45.4677
-8.0184
-48.0973
-50.9469
-113.983
-143.442
-33.8457
121.945
160.789
105.152
54.7048
68.483
135.85
217.95
181.938
46.6031
-36.847
-134.392
-146.253
-71.6684
-25.5172
-11.0137
-12.8937
-4.43411
-105.642
-139.713
-61.4094
-10.7158
-5.1984
100.49
168.195
91.4127
-75.9668
-172.637
-181.344
-44.6191
50.0914
23.9744
-42.7113
-65.6607
-101.458
-146.616
-89.25
-43.7329
15.4093
52.4061
38.8365
119.011
188.145
126.767
36.2205
59.1287
65.1446
50.8922
71.7881
21.1204
-68.4836
-107.627
-8.63802
203.02
295.006
174.026
66.5058
-1.73352
-83.2063
-88.9687
-39.6135
-65.3287
-158.015
-197.868
-174.157
-185.036
-156.361
-87.9243
-81.3126
-61.4973
146.982
253.929
182.604
71.5942
-49.5806
-47.0464
-22.3162
-46.1872
-40.0885
-15.6539
-1.55477
48.1307
78.0661
10.782
-36.2123
-42.7059
-31.1956
-48.8742
-15.7939
19.8786
14.2053
36.8866
35.2252
-20.2329
-17.1217
12.8139
-37.5416
-20.1912
55.3311
87.7848
94.6173
32.665
35.5077
138.119
203.954
190.312
96.6478
-30.85
-121.562
-132.497
-138.683
-154.341
-184.854
-133.784
52.6588
210.055
183.748
54.7281
-60.9133
-140.475
-139.429
-108.256
-117.732
-113.509
-58.6015
-47.0461
-34.2937
-46.3132
-50.5391
-50.1877
131.845
187.54
123.331
92.7201
54.7851
5.04608
0.405261
-36.6873
22.3916
104.087
102.621
46.6516
21.1375
-32.5325
-107.085
-88.816
-52.4518
31.6329
105.192
165.375
7.40035
-21.6019
14.2667
-26.7353
-79.5273
-82.4425
-5.69599
67.7719
26.8569
-84.6664
-166.146
-104.429
-20.5675
19.1231
70.0841
74.2348
76.5896
106.344
112.35
128.85
13.7602
-71.8338
-94.4857
-176.041
-210.346
-199.511
-179.586
-83.7994
38.6612
140.96
230.668
174.901
5.76114
-108.946
-97.5457
-24.814
49.4339
58.5677
40.6028
3.10878
-13.0683
23.7528
149.748
219.87
191.016
111.878
18.6101
-50.8754
-27.4191
-10.6012
0.478695
-40.6356
-82.0655
-97.8643
-126.879
-203.613
-206.93
-214.911
-125.641
-25.7581
86.0125
147.65
96.0223
45.9786
74.2409
113.22
135.63
120.839
77.916
14.9719
-89.3949
-134.144
-10.5084
103.166
43.7772
-26.3359
-32.1308
-5.19902
38.4762
63.1561
-2.93103
-44.6132
11.1227
4.69988
-92.6733
-105.895
-88.4056
-229.568
-200.226
-43.521
-78.1372
-54.9503
26.5134
101.841
140.959
226.122
235.379
199.048
117.524
10.0113
-61.7146
-119.408
-120.81
-64.9506
-72.7186
-39.2977
72.8522
144.078
57.5227
-64.6213
-75.7444
-22.2606
-8.1226
59.7856
41.1901
25.3917
48.1004
40.6743
43.4044
55.4846
1.40057
-2.93863
2.25879
-64.2774
-121.793
-95.3703
-58.9382
-34.0394
-108.697
-15.4933
223.698
229.718
75.6851
-105.763
-167.62
-140.627
-108.139
-92.726
-100.221
-83.149
-0.935487
3.83487
-55.2277
50.907
153.281
142.852
69.2578
116.961
115.016
-41.5521
-116.984
-15.9569
36.3719
5.38499
-5.66295
25.0912
42.3773
77.0004
128.456
76.5424
-9.03814
-74.1765
-68.1032
-84.7677
-102.675
-79.4915
-49.3477
-34.7924
47.1579
149.686
89.2962
-36.4987
-36.8603
5.7554
43.173
114.312
103.597
-7.65015
-163.392
-163.889
-152.76
-199.409
-227.551
-28.9293
222.946
208.813
300.121
334.273
151.526
-9.69423
-161.307
-220.012
-176.48
-94.8858
28.8148
79.4173
8.10374
-11.8576
9.38053
-3.82514
-17.9396
18.095
43.3963
-61.2468
-158.815
-126.679
-123.348
-114.555
2.94566
48.5435
89.7882
100.569
88.1504
86.6316
9.46574
-100.077
-137.589
-51.6415
52.9602
88.0961
158.304
186.693
148.06
131.272
55.4342
17.0519
-43.3077
-65.41
-42.3949
-77.1655
-119.184
-126.604
-99.7455
-110.5
-73.6289
78.2067
152.822
77.1118
9.16266
-20.0049
-142.092
-84.5193
134.664
157.648
171.304
138.855
133.559
192.602
131.252
-101.771
-238.967
-235.253
-165.761
-81.8755
-44.6215
-140.05
-152.619
-45.0963
46.2722
29.4511
93.3214
62.5686
-40.2838
-76.5085
-85.7593
-108.254
-270.832
-250.202
-101.45
15.2895
212.399
329.457
280.799
199.665
174.882
115.215
67.7912
18.6531
-29.5939
55.6581
184.573
161.252
51.8949
-70.3
-149.906
-152.852
-73.4715
-109.637
-160.171
-46.9862
44.2687
-19.1238
-67.9354
-67.5286
-51.7888
-49.2321
-42.0864
-4.15205
-4.27599
-44.2421
-66.0545
-25.5155
-8.42979
28.1825
75.4917
115.104
125.098
64.8697
19.9967
107.995
99.2495
72.2629
47.9766
66.418
97.4639
-70.9739
-194.782
-75.6888
-31.3149
-76.9278
-39.5078
-80.3155
-141.427
-81.2483
23.1533
49.9289
81.773
80.9157
-3.48414
-2.65328
75.2802
69.2111
24.926
-26.7805
-102.046
-56.8884
-22.1089
-64.7931
-40.7096
38.1202
-17.4795
-51.9149
-4.26383
-54.9609
-106.911
-73.7056
-2.99127
113.823
187.161
81.1476
-42.5799
-34.3188
113.913
101.112
25.2128
39.2245
106.144
71.7261
23.5419
-17.2288
1.70952
66.332
114.064
125.897
57.0108
-22.9721
-100.64
-237.534
-321.955
-440.308
-309.771
8.71888
115.832
179.311
202.036
238.806
184.432
-19.2753
-114.371
-106.585
-98.4751
-9.83823
60.8538
55.1312
18.0935
-12.2514
-18.9407
-16.6002
39.1167
123.283
73.9723
-115.565
-210.879
-133.64
63.7759
97.3912
78.7411
84.6825
56.1972
31.4409
3.92764
-18.0347
44.341
78.5084
36.3167
3.47233
-11.4559
20.689
-27.5504
-42.9578
24.2205
53.6187
75.7615
-11.998
-128.333
-158.37
-142.581
-76.5939
-80.2799
-108.975
-126.155
-82.7254
-63.5476
-51.0483
55.7775
79.0591
101.31
96.524
172.294
324.245
325.369
175.088
-7.76513
-129.982
-146.219
-137.269
-80.1813
-43.9213
0.914666
55.0475
92.6078
53.8303
12.5705
-32.1266
-141.504
-164.425
-144.211
-159.83
-157.718
-104.073
-21.6283
23.8921
24.9994
54.5887
-10.5878
-12.6595
270.228
432.441
286.8
100.498
38.2409
-24.5995
-28.4874
38.8253
133.882
95.4122
-60.981
-197.848
-262.913
-312.583
-302.398
-171.376
-68.6581
70.705
198.369
193.664
-26.8063
-221.575
-153.174
-2.99803
109.988
141.466
36.6118
17.268
-27.9344
-104.2
-0.211867
195.376
229.221
171.025
43.2031
18.6542
157.926
156.799
31.2912
-37.5191
-143.47
-137.701
-111.779
-166.428
-240.648
-217.605
-133.454
-50.9893
-10.8741
88.6891
165.622
162.767
137.646
80.3132
49.4212
10.7411
-71.5907
-89.8818
-0.801105
83.1507
23.8779
-49.6569
-71.304
-35.2022
45.5567
112.245
133.414
111.986
101.665
99.9667
-9.5943
-111.627
-148.518
-94.6653
-33.0018
-16.4342
-119.855
-180.615
-134.176
-59.7208
-22.0701
-37.0082
-47.0848
-19.9572
38.8697
66.9413
86.3986
104.171
112.542
138.659
78.4211
3.89165
33.0663
91.5866
113.692
148.239
207.811
75.0251
-100.109
-206.273
-184.231
-121.905
-20.4288
60.6768
38.3516
54.9558
-7.08084
-174.019
-202.314
-152.908
-115.66
-48.6561
40.1715
63.4814
-28.828
-142.87
-171.338
-67.4904
70.6671
63.6363
22.3158
70.3567
133.844
157.938
114.072
62.0816
40.2368
10.232
-48.6031
-143.618
23.6854
173.807
172.717
63.1085
-49.5211
-59.5753
-16.5933
78.6367
94.1804
134.754
153.012
148.796
76.8466
-2.48438
-137.694
-197.277
-115.068
33.2148
135.464
19.5478
-180.988
-285.327
-260.639
-130.038
-34.0795
20.8213
9.72787
-73.1386
-113.754
-106.225
-79.0449
-28.1036
21.3469
93.0006
161.446
71.4589
-50.0475
-96.007
-84.3803
1.81921
77.1046
131.959
159.213
159.622
217.702
196.972
44.2702
-24.7203
-90.6844
-67.4398
41.8866
90.1369
94.575
0.0288064
-100.807
-91.95
-114.515
-66.8272
-16.5568
75.5495
81.2429
-10.0928
-11.7873
-33.7235
-47.2137
-25.4087
-61.3547
-69.3945
13.1622
31.517
-26.9637
-105.758
-122.017
0.111394
75.3475
50.4304
8.22961
45.3165
85.1689
8.58816
20.01
47.4701
-20.2111
-55.4418
-95.7957
-97.8603
-19.5941
13.5976
-10.6216
-94.1563
-134.235
-91.7296
-19.5493
9.57106
159.417
301.605
281.327
179.642
142.041
107.279
-38.8298
-130.702
-137.471
-152.393
-66.3002
9.35527
-1.18684
-17.1402
14.1172
54.1819
16.2005
-56.9277
-101.981
-114.961
-75.4943
-114.765
-102.566
-112.174
-124.734
34.2304
156.192
220.325
146.463
86.3379
15.6631
-14.424
44.093
-15.4837
-142.434
-55.2986
82.0327
95.7622
28.8431
-77.9609
-118.209
-61.6077
49.9532
121.361
105.093
8.6128
-8.76093
21.1351
-1.21484
-48.8055
-19.2457
11.7851
28.6467
77.9729
127.921
64.5813
-75.7728
-128.325
-74.9503
26.4681
50.3029
56.3481
18.5491
-105.104
-148.419
-80.5134
-26.2812
-14.547
22.9807
89.0166
125.05
47.9894
-45.2847
-74.6221
-107.953
-88.74
-17.8709
39.8557
85.7254
67.0885
-4.46151
-107.48
-71.4209
10.7018
33.4125
-7.08788
-91.0251
-132.396
-72.1667
-65.5838
-131.796
-121.644
-36.9624
134.421
290.868
297.369
279.791
280.981
204.874
117.728
113.898
38.6906
-158.455
-250.507
-236.577
-152.171
-65.1477
-28.0181
40.5713
104.087
56.3746
-52.4005
-77.1931
-62.8149
-90.6195
-137.552
-136.821
-88.5238
-38.4989
-49.5462
-130.077
-34.1391
115.076
115.083
86.9363
138.476
152.35
97.5121
58.3947
76.5973
56.0287
-9.20504
-25.8433
-7.37481
5.46677
16.8181
-17.8995
-43.5589
-57.2683
-75.6733
-88.1515
-108.252
-96.9601
-43.3793
0.364594
13.7336
73.8147
175.399
65.8886
-45.5275
-35.7076
24.3137
41.1411
45.7602
-1.68304
-75.0757
5.96962
83.44
104.749
116.556
76.1063
-0.674755
-45.6141
-42.7267
-39.0868
-113.409
-174.588
-183.439
-134.155
-53.7949
35.4297
84.0021
46.4379
-60.1699
-24.9818
87.2512
68.4908
-18.7429
-96.7647
-66.4476
55.2257
105.735
118.857
115.201
36.8971
59.6355
87.291
15.3082
33.0935
23.4189
-30.3864
-48.0583
-49.2885
-12.2981
-39.5354
-65.1437
-49.2278
-18.556
-10.8819
-58.899
-62.1032
13.4312
78.6072
117.457
102.699
35.9521
-59.1292
-101.391
-108.318
-79.8044
-39.4234
160.896
241.523
59.8686
-46.4218
-137.197
-90.9412
-76.4903
-25.5907
95.5112
138.991
54.2035
-26.3005
-52.2604
-100.341
-139.769
-120.022
-61.9007
-59.6132
-30.3226
-34.2168
-141.818
-124.089
17.3581
98.6804
196.455
181.866
155.005
131.183
55.2306
-26.5548
-15.4243
10.4715
11.8274
54.584
37.6598
5.37123
-41.7455
2.43558
70.2152
151.156
172.276
88.5167
28.9067
-16.4122
-26.8235
-73.9646
-146.484
-195.394
-149.928
-86.7461
-118.007
-93.3752
-38.0371
-39.6526
-59.89
-52.2606
44.2078
38.4819
-10.5675
-49.9851
-54.5738
42.5172
95.7727
124.058
166.518
150.78
52.7987
-58.3179
-138.903
-170.088
-120.076
-36.8232
39.2945
67.3692
149.434
159.949
98.8591
28.217
-41.3498
-93.2917
-162.123
-123.057
-1.29463
-5.85375
-45.8561
38.073
155.796
260.455
230.136
140.046
55.2664
-71.1637
-186.053
-105.23
-69.9719
-80.7579
-98.9429
-63.8597
-2.39224
38.4784
34.9729
-19.3782
-57.4841
-9.27533
19.9774
-53.5192
-63.8067
-76.4658
-67.9442
-17.4034
54.1532
89.2058
74.3092
-2.75715
-19.9112
50.677
134.059
187.762
120.406
4.15063
-95.0831
-164.668
-144.408
-90.587
-76.625
-36.3202
26.7392
39.6734
23.1273
29.5555
54.8147
40.8683
30.8065
35.1758
28.2008
22.0377
-12.7707
-58.6455
-49.7505
25.655
110.98
185.13
151.663
144.311
96.9993
-90.1594
-169.725
-145.48
-133.544
-52.9776
-8.26417
-40.0944
-63.5235
-62.2963
-84.2432
-106.465
-109.372
-99.8212
-40.7441
-3.2419
51.3026
17.3359
-21.8232
-10.0481
63.0428
123.973
115.901
155.502
192.167
63.8909
-26.2674
-2.77485
-63.465
-133.444
-112.678
-66.9149
3.04982
62.7761
131.094
135.337
92.2831
86.5559
13.8098
-131.029
-139.112
4.16242
101.114
91.6254
-10.2089
-66.7562
-32.8614
-25.6257
46.7263
61.0408
12.3093
27.2288
56.2145
87.1206
27.3963
-113.896
-126.093
-60.5962
-37.8219
-85.595
-167.746
-178.112
-119.749
-110.401
-103.749
-11.6462
34.0477
93.3786
108.662
96.3466
-31.9854
-117.893
-81.5113
-99.6072
-68.3155
95.3039
120.139
107.626
188.898
299.292
369.19
274.9
99.2974
34.57
47.8493
17.4876
-45.5752
-147.789
-170.956
-134.985
-37.5256
63.6526
47.4222
-0.184231
-96.2305
-58.084
-35.709
-112.585
-191.245
-151.295
-180.629
-188.245
-126.996
-72.2566
-0.725757
47.6459
66.9282
89.1152
76.359
31.8642
73.5335
143.454
170.454
115.285
72.4536
-16.3789
-57.5013
-36.9057
-15.4265
-90.8862
-189.401
-123.987
-22.5472
47.9205
126.62
115.232
83.7945
69.7939
40.8428
-1.43692
-31.9407
-54.8463
-22.6204
51.8322
49.732
15.9909
-0.909229
1.80619
68.7662
122.21
123.788
60.1479
22.468
57.8176
69.3504
72.2912
-26.3809
-149.164
-121.953
-95.5595
-99.4951
-67.3492
-89.6007
-80.82
-87.3041
-150.212
-188.32
-160.949
-76.2956
32.2727
59.3915
61.4439
74.2541
-23.5622
-55.3016
-63.9006
-42.5767
47.0524
78.6069
244.696
246.593
128.268
120.86
136.981
190.987
183.397
143.22
41.4623
-169.135
-415.895
-432.182
-254.684
-95.1755
-15.527
-36.122
47.3666
155.595
238.126
163.505
38.2957
51.8359
0.537176
-60.5711
-54.5557
-70.749
-89.5207
-63.9831
7.98653
58.1889
149.88
253.987
235.976
83.4009
-75.0393
-144.68
-196.445
-141.092
-57.7488
2.59024
-8.53424
-66.518
-104.178
-138.097
-60.0758
10.64
60.6693
158.69
119.681
62.7828
12.5547
-72.6225
-117.973
-127.227
-15.2612
152.591
123.897
-27.4446
-106.154
-93.8764
-12.7789
29.259
23.7615
82.3704
83.8906
-7.16926
30.4211
9.06242
43.584
71.126
49.2091
31.9847
-5.06518
-36.731
-22.6473
-89.081
-117.75
-52.4227
-4.9131
69.4174
118.806
114.817
68.7983
-73.1575
-155.278
-185.452
-29.9228
30.776
-93.1678
-67.7208
62.7986
119.989
121.417
114.878
77.1913
-22.7948
-120.279
-93.9349
-71.7449
-11.4857
9.25883
107.634
117.597
55.6615
-10.7487
-41.6537
-147.872
-163.285
-50.5927
71.4065
159.569
167.775
103.695
15.8196
-77.6987
-135.898
-77.741
-42.3101
-54.9034
-25.5485
-13.0931
-39.4013
17.4831
28.2015
-5.65983
13.8949
7.38834
18.2684
150.947
214.736
101.138
3.78901
-36.8088
-44.2981
-72.3445
-17.2174
12.2554
13.5554
8.80552
-12.9642
-56.1658
-41.2275
-12.8067
-36.7894
-25.3916
-26.1245
-135.089
-164.469
-170.2
-120.694
-33.0115
0.0826638
-5.6837
39.3917
117.171
186.717
170.061
114.65
95.6946
53.3269
-28.4868
-106.664
-118.624
-77.3451
13.0311
146.719
231.93
217.989
252.859
149.994
-29.8967
-104.646
-71.6472
-63.5362
-67.52
-35.9052
-21.8543
-72.7987
-80.2979
-94.768
-102.652
-74.0075
-104.003
-140.987
-242.759
-232.205
-123.333
-45.898
-66.877
-73.4166
79.7891
184.339
171.409
97.3228
83.1417
77.6131
89.3137
50.9163
54.8745
97.1477
201.584
144.989
49.6622
88.3064
93.6562
87.7338
57.3362
-21.7136
-16.5649
-17.9781
-102.262
-69.4547
12.4981
48.8837
45.3144
19.479
-3.0155
-25.5695
-100.032
-221.074
-308.484
-263.624
-161.614
-81.2648
-10.5867
50.3239
-6.16775
1.81131
32.8881
59.4305
1.09292
-103.247
-140.659
-119.791
-82.818
-0.310874
165.004
249.335
184.723
142.235
97.5164
19.2878
11.0339
78.4968
167.062
230.879
246.875
213.862
106.532
-51.3873
-147.438
-198.804
-223.34
-198.419
-47.753
-6.31463
-124.345
-94.5074
-5.74225
55.4553
129.023
180.536
96.5809
11.5899
-33.1863
-197.691
-222.811
-161.632
-105.132
-33.1728
-20.353
23.6104
82.2341
106.391
-35.0282
-111.656
31.3008
108.084
23.4026
-52.4967
-104.118
-59.3919
47.3352
84.7721
96.058
157.934
52.5148
-172.658
-221.058
-162.219
53.1909
180.341
264.744
370.408
344.149
209.049
-30.4489
-214.367
-282.249
-295.185
-136.332
-37.8162
2.32443
68.7544
-7.9602
-99.1666
-15.5369
109.961
128.797
123.262
-40.4529
-166.714
-226.937
-295.432
-223.77
-75.8738
137.285
294.802
336.274
243.854
72.6866
-11.0106
-17.3639
-87.7117
-89.5376
-67.8381
-76.222
-19.4348
29.1726
24.1583
2.35291
-56.1764
-88.4321
35.0898
86.9883
-45.7393
-64.043
-27.2515
15.6537
103.947
147.531
279.756
347.543
198.483
-19.8778
-170.568
-298.436
-326.729
-269.834
-123.451
-24.4735
-25.8649
-87.0997
-382.444
-331.589
125.205
272.881
288.59
335.083
285.635
118.509
-71.6817
-127.574
-78.9175
18.1185
128.813
202.936
66.6981
-227.776
-203.288
-7.22708
-5.54321
9.48341
187.386
233.972
112.192
-79.2406
-233.551
-212.142
-143.666
-47.8558
10.738
8.18875
-22.6429
-21.1055
-29.6534
-89.6822
-50.3329
152.843
109.23
152.197
354.921
240.108
42.9634
-29.1372
-162.926
-342.193
-383.561
-298.821
-145.934
-31.7415
87.6495
87.5772
98.2314
64.3099
26.3221
102.346
261.077
272.658
140.863
39.0065
25.0172
79.7247
125.122
-71.7025
-216.361
-124.744
-64.4909
-22.0967
-13.8682
-54.2552
-94.7668
-100.292
-156.459
-193.299
-24.7154
136.51
98.9056
11.4548
21.247
-37.9047
-117.535
-69.9636
-28.8597
16.4531
6.37115
12.5297
133.748
149.232
79.258
68.9176
73.1455
95.2011
178.306
56.929
47.1752
68.4588
-45.207
-73.3496
-102.848
-74.4896
-84.084
-101.488
-54.5412
47.3236
98.8531
48.2221
-52.2396
-119.647
-108.488
-19.5989
-15.822
-76.9513
-148.154
-94.5363
48.7175
239.091
300.041
231.77
103.401
-4.10215
-118.113
-237.524
-208.42
-133.714
-90.2099
54.6154
71.3209
-44.5006
-141.168
-285.333
-220.025
-96.2949
-59.278
-45.2725
14.8284
50.2268
216.606
487.079
636.431
552.702
347.026
182.472
59.2364
-100.981
-212.037
-253.827
-253.632
-195.434
-138.7
-42.5164
-34.6558
-61.6016
-90.163
-25.2519
-73.553
-112.086
-93.5036
-137.682
-198.411
-139.646
-64.0023
-2.23586
-17.6431
-3.69479
7.39377
-4.08008
76.779
103.695
116.278
191.416
244.243
355.376
356.633
219.506
54.6887
-79.8976
-287.683
-416.477
-347.523
-204.791
-19.3762
77.8014
115.37
119.899
149.419
114.994
46.5407
59.6576
39.1122
-126.241
-157.118
-113.259
-58.2304
1.26491
96.7281
29.8186
13.872
31.1176
50.322
143.394
32.8442
-28.7867
-34.292
-38.6867
-94.1096
-113.221
-3.26004
79.5702
122.88
118.072
37.1516
-141.218
-180.414
-112.496
-120.291
-96.167
-8.97898
47.9875
77.7293
-12.5745
-47.8926
-0.569787
17.3438
-10.7145
-11.8344
60.824
89.5416
-57.0007
-116.899
-1.55632
71.5962
84.7265
91.6428
-2.0914
18.6858
97.9974
162.347
151.729
78.277
9.25229
-3.80134
-60.5858
-78.1656
-35.4719
28.406
-35.1794
-97.0692
19.709
65.7325
57.7464
11.9886
-46.5591
-86.1
-58.5798
-54.7687
14.0976
-29.3013
-103.758
-215.409
-271.123
-118.024
66.0715
75.315
95.3788
101.287
71.502
14.5553
-25.8007
-60.3212
-69.2957
-17.4476
83.4394
149.762
230.26
143.567
-5.22941
-60.28
-125.686
-69.5993
45.6439
147.738
90.5838
-9.38254
-31.9794
-71.6457
-29.8922
71.7534
98.4419
74.2347
42.1868
3.11777
-4.96918
-59.0468
-95.1928
-110.824
-128.998
-75.7474
-25.0585
-15.7905
78.0737
39.7108
14.1543
72.8466
20.0467
-53.2777
-25.0978
-46.8557
-44.6424
-67.0486
-101.387
-73.6582
-6.44043
51.2012
63.4738
83.5563
67.0024
-14.981
17.4433
54.5127
-37.8329
-62.4371
4.24139
-58.5447
-242.912
-278.885
-221.729
35.6647
273.231
342.086
397.889
320.843
180.395
-19.5323
-104.531
-80.1438
-20.8217
75.0342
55.225
82.1
97.2989
-22.3323
-103.666
-95.2158
-36.1681
-21.5555
-68.6779
-167.581
-211.188
-214.492
-219.246
-182.8
-139.923
43.0659
126.584
28.5645
11.8503
-3.2959
35.3316
37.1792
15.2684
-18.413
-27.1071
97.0118
257.949
279.525
214.538
-8.57262
-246.938
-158.511
-6.14811
132.71
130.322
-17.6148
-49.7848
-6.56819
57.1692
82.6595
43.5676
-107.516
-248.537
-147.504
-6.32849
99.7469
149.719
139.221
148.328
197.102
169.389
38.5283
-81.6564
-238.294
-223.275
-156.201
-81.2702
28.1685
-10.6637
-68.9914
-74.85
-98.6199
-65.0037
24.9281
-19.8601
-63.8382
-84.1632
97.0791
240.515
221.389
171.807
35.0677
-117.173
-233.332
-172.611
-96.0536
-118.929
-97.6055
-28.3148
84.6195
216.66
390.699
342.73
81.0174
-8.63051
24.9909
40.0842
-201.943
-271.211
-133.364
-168.086
-99.4734
32.8696
161.564
169.899
127.195
66.7782
45.0257
-11.3764
-80.8609
-153.358
-282.498
-264.203
-112.317
20.5178
104.663
188.859
241.952
84.7057
-137.132
-120.703
-45.9682
11.9675
167.713
158.751
45.9823
56.9052
126.085
80.7912
-6.05556
-32.0077
-40.2307
-25.4233
44.5552
-16.1565
-197.643
-264.59
-176.289
-105.393
12.4728
150.974
146.493
73.7709
46.176
24.7114
59.8727
14.0937
-120.367
-141.175
-15.2715
82.1902
183.286
166.262
9.01966
-93.1023
-103.293
-99.0354
-29.9996
-85.9876
-137.669
-137.89
-75.578
-22.0213
153.351
268.775
268.83
180.911
73.485
1.50357
-111.118
-185.845
-201.485
-84.6228
20.7334
101.021
97.5298
17.2754
-63.4773
3.01717
70.2269
54.6769
17.1175
5.3813
-183.593
-252.72
-184.136
-97.5185
13.0106
104.103
156.345
129.416
160.749
94.6384
16.8598
-62.285
-10.3622
52.9552
-0.574888
11.8101
69.5761
124.657
58.2246
-3.97327
-53.897
-97.1648
-25.7702
30.1471
8.14064
-25.4307
-79.2314
-113.213
-190.573
-123.07
-66.7633
-51.7839
25.9336
102.138
117.181
65.2562
-65.9196
-97.2709
-45.3652
7.82254
8.85974
87.0382
100.924
45.1492
52.3463
72.8983
56.4
23.1515
27.9538
15.8712
39.6063
59.9441
4.28777
-72.5127
-88.7135
-56.4054
-0.817871
12.0117
39.4595
27.1649
5.18853
-58.709
-67.7416
-16.3459
-48.6573
-55.928
-19.4867
21.9016
27.0948
7.67033
-5.7347
14.3434
-7.49131
-38.6225
19.4012
61.16
45.7064
20.5014
35.8924
41.0735
-7.80041
-81.421
-132.781
-142.126
-87.3912
-26.8747
12.0364
58.6877
95.0087
86.4437
79.7676
70.9167
23.8973
0.754329
4.73218
3.59109
-4.21796
-17.6077
-14.9876
-2.5992
3.26053
-2.17899
-22.1466
-17.7179
-1.27577
8.25233
23.9191
27.7744
10.2046
6.28273
14.0343
4.40479
2.47309
0.79295
-6.4143
2.70702
3.2425
-16.775
-32.0172
-55.9776
-81.3578
-69.5057
-39.5363
-22.6678
-10.4037
-5.85425
-15.52
-1.93678
30.5131
74.9936
83.3691
71.4703
69.9403
47.8982
0.920622
-27.9252
-11.7009
35.9753
41.6267
4.63462
-10.4058
-31.124
-45.9994
-40.2494
-47.795
-131.073
-135.982
-81.474
-60.1982
11.7659
87.7658
106.473
85.9852
48.2992
63.2694
91.4787
45.1897
39.1487
44.3911
39.2114
2.49199
-0.0259194
29.1954
42.9978
19.803
6.50854
-4.55357
-48.7365
-58.1622
-84.3995
-91.9157
-80.1652
-77.7942
-51.8418
-48.9398
-67.645
-49.9443
-70.6005
-64.9443
-26.6806
67.2439
106.292
46.1214
1.05604
10.6948
73.3593
84.482
65.7172
55.519
12.8972
-28.2987
-6.9401
25.3991
9.75712
3.0678
5.17798
8.06061
-5.94452
-23.7445
-15.8316
-0.153728
10.7233
32.3077
24.2802
48.217
85.7366
31.189
19.5906
31.2713
-18.6302
-112.932
-172.923
-125.785
-66.4119
-123.626
-74.1576
81.5223
130.279
127.505
79.033
-11.2771
-59.1475
-89.092
4.1055
182.367
197.201
147.916
37.2708
-85.7287
-93.6509
-48.4028
-21.8363
-108.111
-104.154
93.3881
106.134
-86.7148
-170.222
-160.421
-108.981
-19.8292
-2.27566
77.6867
99.0129
-59.4172
-227.249
-278.406
16.7685
242.576
204.764
190.779
161.992
132.917
70.9508
-16.1537
-24.6714
13.2395
17.4224
14.9431
44.6427
6.85872
-74.4984
-113.97
-85.5164
-8.12206
119.801
119.593
-34.7401
-59.8139
-23.8405
-22.0762
-46.4036
-87.0914
-33.4446
-70.2955
-143.242
-63.7972
51.5113
104.764
96.2609
67.673
18.0143
-118.552
-128.689
-39.0048
-43.9474
50.5258
115.187
176.298
184.069
79.2043
25.9876
-8.6367
-50.0342
54.578
171.55
65.6808
26.1626
9.84267
-49.274
-131.534
-184.131
-291.583
-415.066
-366.557
-166.609
103.709
238.553
116.502
24.8215
29.5065
-3.03074
-21.1881
24.1386
60.8789
-59.8787
-62.3428
76.2198
180.522
233.86
188.637
129.825
98.0966
78.9994
-65.8931
-87.4771
67.1775
141.778
108.832
29.6814
-26.8348
-22.4157
26.9856
-11.6552
-173.66
-92.296
-47.0155
-177.816
-159.226
-111.323
-114.576
-2.16427
234.071
370.195
342.17
279.358
-41.2814
-395.989
-477.238
-382.362
-276.803
-117.811
-46.2992
9.72049
45.6942
48.9689
87.4112
97.5507
-7.69137
-156.516
-106.969
84.2819
125.001
63.2057
154.874
127.398
45.2836
-11.7916
47.2384
191.069
256.772
270.725
304.075
280.088
196.197
117.834
17.7286
-154.417
-327.354
-319.08
-245.052
-245.501
-74.365
47.8718
-94.4192
-204.119
-400.275
-414.597
-224.91
-122.042
-98.1282
56.8952
250.549
186.266
-25.2503
-18.565
39.1414
104.675
311.4
404.408
332.055
273.193
255.733
180.535
156.257
50.5289
22.695
24.7308
-84.9931
-163.484
-116.037
-222.469
-367.823
-270.211
-27.3116
-44.0936
-108.371
-74.4819
-113.83
-92.3231
20.6562
34.8014
-85.5407
-177.477
-110.689
11.5269
177.937
243.856
188.876
153.478
88.9613
14.9826
-61.5432
-96.0488
-26.9451
-16.1713
58.9347
51.7478
-37.8727
-32.705
-26.4392
-12.1912
-20.2563
32.6846
163.505
148.079
49.7124
-13.272
-125.411
-137.366
-17.9396
46.0791
119.369
189.075
339.201
327.864
48.2569
-102.751
-139.632
-255.163
-312.97
-303.63
-234.825
-198.245
-266.079
-168.157
-18.9538
111.534
177.643
155.729
227.48
193.875
85.9396
116.694
41.8471
-80.1671
23.6379
40.0206
12.277
13.8548
8.53189
12.6464
14.3989
90.9082
15.5771
-157.186
-264.386
-208.848
-61.3812
-9.07991
-88.4128
-48.6019
34.4515
-18.839
-38.2238
122.737
216.639
187.446
120.852
110.996
15.4092
-57.9193
16.7492
82.1886
119.422
228.196
319.214
196.16
7.15351
-180.265
-312.334
-282.961
-313.352
-331.937
-320.839
-233.206
-132.18
-8.30259
90.1063
169.227
301.409
240.578
101.54
-7.97619
-28.6949
25.2317
158.77
178.904
140.328
116.03
43.6511
-55.9866
-48.9919
-30.9303
9.62261
6.70521
-122.423
-200.161
-113.279
-25.9482
2.43354
65.5838
92.5915
31.7565
-102.859
-139.423
-185.632
-130.134
-110.416
-91.7778
-2.17518
17.5677
73.0039
96.217
47.8981
-38.5379
13.2321
147.376
118.003
56.7538
96.9752
114.172
111.581
135.803
147.331
24.2057
-45.7882
-106.093
-71.4893
-24.5229
-35.9756
-65.1014
-116.838
-141.97
-96.0902
-35.2322
39.4284
67.6935
66.8487
46.1402
9.85799
-6.86858
-70.6971
-152.285
-130.69
-34.8615
1.96607
21.8574
42.3077
82.9055
93.8495
94.3205
85.4531
75.1388
23.8803
7.09938
-10.292
-31.0756
-48.5491
-55.8488
-50.5946
-26.3004
-15.1183
-6.68923
20.6829
29.4216
30.6967
37.2843
27.9025
37.5929
50.833
62.6345
46.7862
4.82337
-32.5083
-55.3369
-64.3329
-55.0055
-35.3644
-13.98
-21.3049
-32.4691
-37.9073
-32.3651
-26.9355
-60.0217
-53.2619
1.34314
47.7182
18.4831
10.0773
7.10845
10.4295
12.8353
14.4594
4.81529
3.00806
0.873873
6.88798
-8.14321
-6.70618
17.1672
11.1604
10.928
27.5946
53.4713
30.3997
2.90239
10.086
44.705
29.7201
24.8017
30.7015
15.3409
-2.01051
-8.26623
-12.5061
-25.7612
-25.312
-21.3757
-25.891
-29.0839
-30.2013
-23.9521
-16.2923
-4.79905
-9.40357
-18.6441
-18.7991
-5.37797
-8.99201
-23.604
-40.2827
-41.3688
-32.3789
-9.51334
8.30824
23.3592
46.176
76.5461
91.5332
61.1727
28.9815
12.8536
18.0819
17.4015
8.53219
-10.2776
-9.22269
-6.4491
-2.74441
4.54044
-1.88811
-1.61634
-16.5699
-30.877
-25.7254
-20.8616
-22.0951
-37.7766
-51.1843
-42.2179
-25.8884
-33.1626
-52.0644
-40.243
27.6581
62.4145
86.3933
91.2687
61.1982
72.9107
66.9821
33.536
-8.35215
-49.197
-63.6383
-67.3298
-73.7544
-89.9837
-80.7515
-41.3556
-10.8439
20.213
45.5673
75.0702
92.7097
85.9395
43.0656
-17.4278
-35.1245
-36.8291
-43.8152
-33.9255
-4.14805
30.5231
44.0024
35.6436
23.5832
12.0494
0.640617
-9.19959
-16.529
-19.1824
-22.5116
-40.6026
-70.3011
-71.7734
-48.7975
-5.59102
24.0471
26.3982
58.4921
76.9698
76.4885
43.232
7.03871
13.528
56.834
83.0049
57.771
7.43911
-21.5732
-31.311
-16.9312
-9.49053
-45.5961
-78.816
-91.9884
-81.3333
-61.3858
-53.1352
-40.4637
-29.3108
-18.7012
36.0409
72.4646
57.997
26.4941
13.2336
27.5792
42.0568
30.0707
6.6809
-24.5254
-35.1099
-32.6429
-37.6788
-51.9343
-16.2577
29.401
63.9652
66.4586
48.5605
27.6121
-11.4273
-24.8885
-17.0312
-24.7366
-28.2455
-30.9448
-18.7808
10.8609
42.8667
50.4299
36.7526
25.7997
12.2044
-3.26112
-16.5792
-25.9152
-28.5819
-15.8345
17.0748
33.4051
20.2113
-12.0206
-41.7841
-62.0042
-45.5362
-14.2784
8.67262
19.7097
13.8296
7.58355
-8.33934
-20.6235
-5.02425
29.858
32.7205
26.8899
27.6605
28.4501
4.45361
-13.3887
-9.62132
-12.8885
-23.0113
-5.88972
-27.1747
-43.9005
-57.7838
-76.5276
-62.3237
-24.8058
13.9856
53.6763
64.2478
78.8538
71.8231
44.5897
11.0028
-17.4261
-21.7073
1.14948
14.51
27.9292
40.2961
39.3907
43.1951
33.1301
24.6888
23.2302
14.7333
-16.9789
-46.6757
-54.9856
-46.5984
-42.8732
-38.9702
-34.134
-30.3859
-15.9577
-11.5389
-31.1056
-28.4097
-12.4311
-16.2162
-21.2978
2.70628
26.6596
26.0738
16.3898
8.53403
5.64262
5.42866
-1.95924
4.36353
1.47619
8.99858
12.3403
7.73394
1.36926
-3.28711
3.34626
6.47779
9.51066
28.5571
31.5446
16.0521
-1.11075
-18.304
-24.4978
-5.64412
24.6546
53.0966
37.2357
13.745
1.98401
-2.95322
0.165412
-5.51457
-15.1053
-18.495
-29.7088
-42.7932
-50.2733
-37.6491
-39.0489
-44.44
-44.3678
-18.9851
17.0165
53.7078
51.4818
16.6284
11.1588
28.8276
32.0281
46.3724
32.5769
5.53341
-17.2669
-33.2373
-33.6023
-19.2021
-3.05961
-16.9237
-18.7049
-6.42097
4.75887
54.4866
93.6625
66.2462
12.776
-9.9552
-13.2409
-22.1244
-52.0227
-73.2473
-34.5561
17.3685
33.8728
19.7581
10.4565
-17.1925
-41.3104
-26.1298
1.41545
18.3131
26.9128
31.6703
34.1065
34.5236
42.1985
13.8011
-23.1547
-47.8752
-75.6319
-103.078
-79.5845
-36.8349
13.9687
34.2654
35.2359
38.5814
53.6528
58.0362
61.0818
29.0566
0.71441
-50.3791
-104.04
-113.546
-58.6181
12.6349
11.1064
-9.35997
22.7224
77.8997
97.0839
43.8399
-51.3119
-52.8295
-29.7922
19.0445
98.9979
125.266
91.852
45.2709
33.1569
58.9804
28.5588
-21.549
-83.3046
-110.923
-98.665
-75.4757
-62.271
-62.6112
-60.8257
-30.273
12.096
26.985
26.5711
-6.18313
-52.5534
-69.4343
-72.254
-30.4928
-0.404758
-12.3924
3.3975
8.35718
78.6106
180.119
216.344
205.084
136.688
15.3391
-48.2524
-79.8263
-95.8187
-85.1394
-79.6707
-40.74
-7.84137
-15.2936
-4.16289
14.5582
1.09257
-4.42845
-13.2822
-14.7362
-49.418
-110.13
-104.206
-57.4009
-4.47337
52.6719
53.2798
57.567
83.2886
83.5338
62.9122
30.0223
4.66099
-13.3333
-12.9675
-1.14454
31.4022
32.9469
42.7936
66.8867
46.8467
0.593732
-32.6255
-53.3493
-22.5635
-10.0066
-29.2171
-37.2491
-15.9345
-14.7687
-10.7532
7.94935
-26.9321
-51.8905
-61.7698
-67.0349
-75.6748
-75.5387
-84.3363
-79.7048
-50.8529
-21.6945
60.979
123.252
96.2654
57.5154
23.7116
-29.9811
-20.4762
-9.14034
-53.3348
-43.7223
14.7649
165.036
306.958
319.249
263.745
142.123
51.9365
-16.6575
-104.51
-173.213
-192.077
-190.098
-171.49
-132.002
-96.4705
-52.0213
-43.1812
-9.24366
2.67921
-41.5394
48.2057
91.3983
-23.8396
-190.442
-201.074
-100.399
-70.3651
-61.3191
5.98659
178.446
320.026
298.41
114.226
65.1784
151.07
200.032
136.204
48.844
68.0398
14.7486
-212.148
-358.598
-313.09
-170.437
-54.8008
32.7961
60.1193
62.3362
54.6121
-5.32828
-133.663
-146.42
-22.9443
6.73239
24.4959
43.8574
49.8763
48.8873
117.333
186.843
171.192
89.4022
16.0391
-4.13662
-90.6081
-135.2
-49.3747
12.06
25.4414
20.38
14.521
-2.33495
28.3075
47.4545
-32.5699
-65.7225
-30.9059
7.90698
-34.0455
-73.8869
-73.3584
-69.8967
-39.6359
-2.87307
31.079
36.3361
11.3053
-19.2914
-44.9141
-104.319
-91.704
-38.3521
44.9859
103.695
164.475
122.823
14.674
-24.0966
-0.967473
-4.18305
-12.4537
-28.3467
-28.466
44.2026
74.7003
43.5661
30.1016
16.7025
38.242
77.1628
34.6418
-32.123
-105.82
-113.466
-153.337
-164.374
-56.9887
42.2466
60.2187
58.5111
88.3262
75.3867
36.6663
-55.407
-55.1161
-19.8044
-57.0391
-82.5314
-107.567
-73.3272
17.0027
63.1925
101.293
106.508
123.063
124.806
145.76
142.632
11.3711
-46.2115
-94.9944
-107.308
12.2413
121.988
39.193
10.8222
38.0974
38.8977
-1.45022
-81.6262
-121.665
-106.408
-48.9268
-67.0995
-123.43
-135.34
-167.994
-165.169
-63.8658
17.4514
113.971
168.19
85.2604
-7.48663
22.58
50.0767
58.3642
75.8379
101.866
145.002
114.775
62.6733
33.7009
50.8264
-7.57965
-62.199
-83.6758
-113.111
-126.473
-92.292
-18.9657
26.9297
2.44745
-24.9466
-25.4276
-90.163
-100.578
-36.5309
-29.3483
-56.7905
-52.6342
-4.17105
12.2802
18.8122
92.7166
110.001
58.4393
108.433
98.8749
42.9976
-10.3138
5.19246
23.8567
-12.2637
-26.9997
-37.783
-11.4882
73.0033
139.661
29.882
-21.8482
21.4187
45.6925
41.3472
-6.80882
31.3446
12.2278
-135.555
-216.751
-203.578
-117.794
-48.4556
35.4462
169.265
219.63
135.177
13.2604
-100.827
-109.578
-9.32133
29.8475
10.8595
-57.2251
-118.987
-125.955
-106.324
-52.8992
5.57594
115.278
145.288
53.1917
-59.2073
-161.902
-201.167
-155.442
23.9435
153.042
171.072
152.106
176.418
156.504
17.4055
0.191925
73.3091
111.464
77.9772
61.7094
18.807
4.49043
39.9223
33.7165
7.66188
-7.60341
-79.5622
-133.882
-183.714
-164.166
-163.794
-133.343
-99.2035
-64.6898
6.09241
25.6631
-19.4974
-35.166
-8.48251
59.6948
101.132
95.3914
31.0473
-11.2456
-1.70484
1.87752
0.548086
-16.0918
1.63639
55.1037
104.963
52.1829
19.7023
-14.495
-6.75076
-8.24189
21.8145
78.1167
96.225
28.9425
-17.0307
-27.1399
-39.5798
-32.1875
-24.1506
-16.9114
-13.0603
-28.0001
-49.4403
-71.8498
-92.0783
-45.9407
-5.41274
-6.93629
-9.24592
2.9683
5.42879
7.05535
26.0647
45.5743
47.6087
17.1927
6.21489
57.0353
72.7288
95.2761
117.677
68.1227
32.6441
9.11753
-36.2818
-64.7461
-96.9539
-107.776
-107.806
-67.1845
-42.3296
-31.6118
-28.2113
-27.1264
-40.3679
5.07359
166.758
235.984
128.792
-3.71649
-71.3625
-73.1582
-67.2483
-79.7803
-77.883
-61.7717
-14.6304
32.4221
55.0264
88.0834
99.1799
11.692
-89.5179
-90.755
-25.4396
-2.95735
-67.4571
-127.193
-97.9955
-13.6975
57.4154
50.5607
49.1783
102.737
90.8772
69.0444
30.0356
14.495
38.3034
44.857
70.1062
-11.9473
-16.61
38.7361
6.06008
-1.71961
45.7904
28.6381
-12.9399
-46.1964
-91.189
-59.7613
-41.0916
-22.8704
69.0805
87.7561
25.4308
-31.7415
-115.206
-201.881
-205.223
-20.5509
77.974
64.2809
93.0446
113.302
42.4877
16.3635
32.8995
-10.8467
-36.4311
-65.1838
-181.815
-199.472
-142.586
-70.8602
4.70264
114.297
217.007
245.934
227.772
237.133
123.438
-11.5385
-0.549162
-23.9574
-137.438
-164.112
-110.579
-36.4662
-66.557
-100.768
19.4977
48.7915
-1.8481
-24.9384
-10.864
37.7785
99.5198
43.6459
-138.785
-223.036
-97.5914
38.87
-12.9653
-38.8413
29.8325
83.6504
82.8979
102.479
156.477
174.853
84.4431
132.943
169.953
33.671
-56.605
-101.509
-214.095
-275.824
-213.639
-139.723
-54.9244
34.7943
82.0066
43.5645
16.4178
-23.5239
23.8916
45.6011
37.9513
21.6328
27.4055
-1.59987
-32.2582
52.4911
58.1748
-76.8805
-93.1971
35.8742
117.069
111.378
89.7181
38.4182
13.4613
-0.783554
-29.9833
-72.0781
-87.7883
-48.392
25.5402
48.9825
106.22
47.5278
-32.1092
-77.2798
-55.3418
-20.7796
-28.8747
-50.8046
-42.6364
-46.4292
-104.041
-110.475
-114.01
-70.9796
-6.96687
48.57
138.929
187.123
139.205
132.115
129.551
-19.4702
-28.0052
6.23433
-28.855
-19.6167
11.2587
-37.001
-32.6715
-17.8979
-16.6114
23.0171
-13.325
-75.0326
-47.9479
-58.5463
-45.715
-43.7645
-91.9569
-101.014
3.2776
95.0282
70.8829
79.2582
93.5669
98.8268
42.2956
53.1294
82.3474
-9.3613
-38.696
-26.0644
13.8198
111.525
143.353
124.638
33.7769
-18.399
-11.5725
6.84968
-175.084
-242.775
-197.378
-177.636
-110.32
-63.5746
46.3251
72.76
23.5564
61.6908
66.2015
-10.3583
-70.5966
-204.401
-164.667
-9.47513
123.398
118.889
39.6691
39.7023
132.372
157.519
135.732
126.218
84.3734
-22.875
-105.647
-115.566
-113.857
-117.481
-117.702
-60.7045
38.779
36.0793
-46.8146
23.4755
169.243
165.449
129.562
140.388
135.447
72.466
-26.8723
-76.5003
-85.5058
-110.548
-81.9994
25.7635
19.0942
-36.7484
-33.5435
-123.311
-70.9232
74.082
90.5164
-42.5516
-171.811
-164.953
-109.779
-95.9071
-133.896
-68.7909
-2.72567
67.5484
114.79
119.453
22.1846
-59.9631
28.9799
128.305
140.126
211.095
218.166
180.39
71.0529
-19.4675
-148.985
-171.274
-86.9319
-60.4114
13.6398
9.9965
2.83986
2.66164
-10.9264
50.6376
97.4024
24.3098
-79.4472
-113.336
-41.4778
-109.163
-165.858
-127.003
19.8501
107.695
87.9261
50.1892
35.1718
-6.45296
-47.5641
-23.2807
1.62947
-15.3648
-15.7229
6.66029
20.772
60.2223
103.813
51.0945
6.52418
10.0889
-24.8412
-142.584
-161.564
29.7891
203.63
83.902
38.3865
92.9268
57.9683
2.54991
-36.2481
-26.3218
-70.2224
-161.418
-131.816
-9.54275
50.9166
19.5091
-39.356
-34.8754
10.209
118.608
63.8751
-120.161
-204.592
-87.4644
-5.87841
1.46007
45.6393
88.563
160.045
193.415
102.279
-13.8027
-125.212
-88.3819
-22.209
23.6056
64.2208
152.122
167.506
119.043
35.6338
-48.3999
-76.041
-63.2583
-49.435
-64.2019
-103.283
-139.068
-153.022
-180.491
-118.16
10.948
105.472
78.9447
19.5711
18.8062
-11.432
-59.1127
-65.7442
-32.4338
49.543
85.1364
122.216
130.998
49.2489
-8.77033
27.8681
74.395
95.3659
40.8451
59.0281
118.097
106.417
-25.4036
-61.6836
29.3086
8.54985
-45.725
-86.2022
-134.119
-121.913
-86.7865
-131.88
-146.518
-26.1203
65.8498
8.57929
-38.3157
-105.099
-110.512
-67.0741
-6.91334
59.3
107.214
56.8961
91.0261
102.772
39.4251
13.1243
21.2934
12.6247
7.9466
21.7175
42.6831
-0.937242
-64.3528
-57.2042
-8.70877
35.832
47.7749
98.121
141.479
91.3494
-42.3723
-107.186
-92.6961
-12.5947
45.7699
56.1513
53.7822
22.1132
-15.957
-106.481
-143.009
-62.6389
-11.8495
83.8685
149.694
175.458
221.077
162.3
-25.1888
-209.199
-279.997
-229.766
-216.281
-140.668
-56.6057
-40.1399
-21.8226
16.5994
30.216
64.0277
121.115
112.596
103.423
76.507
-13.3163
-81.2432
-66.7363
-75.1494
-113.026
-40.5056
54.1607
103.519
65.9231
57.3332
122.121
140.153
135.373
145.516
166.013
58.2627
-40.7445
-117.096
-197.397
-214.321
-148.856
-51.9427
-39.3623
3.95277
40.5244
52.0511
104.516
-10.9043
-96.886
-112.963
-46.2403
53.0654
87.4509
46.4094
8.00274
55.3262
41.1964
-22.2973
-9.22801
-32.4789
-61.8741
-12.2102
-13.3145
-33.3153
-9.63465
-4.74635
-68.8621
-32.1993
40.2413
34.6035
-42.3924
-80.7369
-53.3625
6.06668
71.0044
148.988
161.094
129.77
136.522
73.9375
-17.7509
-81.4447
-98.3246
-91.2922
6.91816
68.0538
92.6111
61.7796
-19.3682
-37.5439
-24.8057
-24.1356
-73.9786
-7.80625
30.9256
-24.1161
-78.4961
-88.5017
-153.373
-145.782
-34.5011
13.4953
30.2282
55.1787
103.273
69.9402
-30.6934
-27.4765
8.22061
-59.9453
-58.5355
-49.4668
-13.2851
-68.7612
-115.662
-77.5679
6.70097
70.995
111.178
200.715
183.02
141.839
132.199
38.5847
-120.097
-129.987
-26.9358
89.4815
122.6
114.205
71.8976
43.9668
19.3955
-72.0185
-153.692
-106.002
-19.4215
-32.385
-24.9814
-26.4299
-19.6922
-44.5749
-80.4647
-44.0708
19.7303
32.3032
17.0628
24.9285
24.6072
39.0186
-4.14125
-18.4528
21.7077
2.31865
-18.0348
-71.1046
-91.4439
-71.6192
-31.3763
-17.2702
-39.9543
-111.308
-129.433
-6.80998
60.1416
152.533
177.511
56.8619
23.6671
32.7604
51.2914
34.5849
16.447
13.0757
25.3541
23.3862
46.1039
76.8437
31.093
3.84401
66.3291
95.714
127.894
86.7008
-52.4282
-211.192
-195.332
-123.278
-93.4356
-113.318
-93.9655
-60.3373
-92.1836
-30.8691
32.7149
87.1785
142.178
104.869
43.5715
4.93043
-105.976
-201.561
-230.957
-155.155
13.6229
127.825
128.458
188.202
163.912
110.162
47.5555
16.1279
37.5117
22.1941
-0.486181
4.32943
-67.5972
-11.7349
35.1432
-29.2508
24.242
125.637
181.986
133.723
7.69958
-10.739
-6.45553
-52.9324
-67.3714
-88.7483
-104.821
-118.199
-72.6878
-63.8572
-117.933
-92.8454
-36.2711
-23.1615
-55.0321
-0.00822339
103.799
103.022
-12.968
-123.864
-20.0434
25.4071
23.3401
-11.9057
-47.9842
8.80785
52.9386
74.1516
32.6035
39.8843
64.2833
40.1282
-24.9013
-85.847
0.0837739
53.5663
-23.5729
-27.4738
-15.5194
22.7696
16.5008
-6.83879
4.95967
60.656
69.7984
9.29291
-23.6318
9.78405
27.2278
11.4829
-9.9677
-58.2716
-54.8171
26.5898
177.364
267.768
115.675
38.2212
-8.96674
-51.2803
-179.825
-211.219
-112.425
-86.6624
-78.6805
-44.0521
22.0132
-7.10571
-42.1381
0.683367
16.8101
45.0965
92.4346
16.5435
-70.5903
-172.114
-179.78
-63.2274
78.0153
117.863
171.014
163.96
83.3756
39.0635
64.5933
49.5224
-72.1027
-125.086
-96.2242
-24.5342
26.4693
57.8336
44.2998
29.1029
45.3068
95.6272
118.046
76.0621
-41.2717
-129.438
-156.671
-124.16
-61.16
10.4585
18.7238
-8.51446
-123.664
-173.896
-50.4956
100.494
173.149
129.828
75.5059
72.9814
-20.3978
-81.7435
-49.528
-79.8929
-58.7372
-31.0035
-10.9041
14.4689
-8.02326
-41.1669
6.86634
58.6659
93.8421
169.713
101.664
-44.883
-61.1032
-14.3905
-38.0109
-85.4441
-68.2995
-88.5914
-32.9443
0.790517
0.0138333
94.8007
197.591
138.514
99.1031
79.2523
63.8715
35.3583
45.8445
0.962012
-76.6515
-117.794
-144.423
-192.996
-131.679
53.7975
87.7661
85.6927
-0.582024
-33.0831
12.4281
-77.6177
-102.297
-3.56387
16.8751
-68.4422
-94.111
-30.2541
51.1694
7.46374
-119.131
-71.4043
58.327
72.6137
55.2759
60.1523
14.7144
-64.5679
-74.9744
-29.8889
38.3354
111.846
136.169
126.037
50.213
-10.2628
-115.349
-170.677
-111.974
132.609
346.575
370.358
218.75
-24.1839
-190.327
-234.89
-154.898
-63.723
25.4123
83.5342
8.78056
-111.569
-195.103
-84.0931
71.7392
144.947
184.197
133.057
95.4647
33.089
1.59022
-100.782
-249.084
-185.867
-68.5401
-135.12
-154.779
-101.42
-47.5224
-52.3521
-74.0253
-11.5582
26.7393
22.2244
41.1288
38.5895
64.4431
85.3688
39.3146
-51.6674
-35.4736
30.4694
144.216
217.227
202.242
170.487
112.649
20.4835
-18.045
-20.1109
24.2092
7.23115
30.999
75.773
70.3651
6.4668
-32.3926
-18.0043
-68.904
-159.869
-207.929
-187.005
-93.9745
-23.3979
-27.5375
-33.567
-8.31661
-49.3739
-133.893
-110.968
-40.4744
98.6395
146.799
69.2011
-5.95768
-26.347
5.29484
68.0831
223.924
350.897
264.841
53.0462
-128.641
-184.245
-187.094
-129.667
-122.944
-42.5516
69.8858
104.551
119.419
101.113
-41.117
-235.45
-271.618
-188.156
-106.166
-24.3251
6.23991
32.8578
78.0935
59.1148
65.3286
131.718
127.831
35.7171
29.2429
64.5208
67.7479
37.4567
12.5473
-70.9918
-30.2333
15.8416
21.5858
128.824
165.933
118.191
12.4943
-105.089
-161.362
-128.104
-29.1337
-31.2985
-32.7667
-55.5134
-49.775
39.4069
68.7918
37.943
-59.9823
-64.5464
-57.5803
-84.5158
-44.2572
11.7029
44.3819
53.5098
-7.83196
-29.6432
-41.3791
-79.4827
-98.4585
-14.3572
58.3173
147.905
188.995
133.354
85.1104
45.712
21.5433
36.4506
48.1892
72.7658
48.7856
-9.16416
-83.8648
-204.583
-269.31
-310.936
-254.391
-54.5954
29.5949
-28.7286
66.4181
176.787
205.151
184.68
183.854
148.171
109.842
47.4577
-12.9051
-29.0674
-68.6435
-141.353
-227.237
-200.396
-27.5243
110.359
155.844
69.6183
72.7756
141.096
98.6553
11.0832
-84.9933
-114.081
-126.175
-129.355
-120.486
-148.825
-166.954
-67.0104
104.411
133.29
95.6254
168.867
271.659
218.888
95.7688
23.145
-128.448
-221.874
-208.659
-147.343
-98.2907
-90.6166
-93.7382
-72.6463
6.55079
121.303
228.89
245.68
154.953
74.6049
105.875
36.2162
-117.156
-126.497
-102.159
-80.7121
-23.6132
-27.0295
12.9153
43.98
-29.5081
-101.617
-156.766
-136.991
-18.3295
71.7031
130.078
109.753
66.9292
44.0068
24.0385
-18.9899
-58.9659
-66.9275
-60.6111
47.612
164.291
173.444
81.2214
-26.9093
-17.1228
46.0355
66.7141
52.1349
-5.26288
-11.8825
-48.1215
-48.6337
-102.711
-213.677
-244.495
-98.0421
11.9777
17.3818
92.3469
96.451
84.2411
87.3996
17.4451
-39.8094
-118.138
-102.553
-1.68669
13.3959
-50.7929
-155.769
-172.847
-137.563
-33.0258
88.071
163.312
230.084
223.401
204.954
148.852
19.3876
-63.6527
-58.7022
-31.0043
-12.5871
120.089
251.57
150.488
72.4011
49.4397
-94.5694
-142.476
-118.58
-70.682
-31.6552
-76.9625
-184.164
-212.672
-130.67
-45.3278
88.6558
102.236
81.306
50.2704
-11.2996
-66.4292
-222.611
-274.347
-179.837
-90.0746
-30.0195
-1.77235
-11.4315
32.4735
142.2
173.92
156.455
154.594
93.7272
18.1164
6.888
46.6905
18.1641
28.3632
151.695
121.826
92.0211
158.755
145.3
147.989
206.121
239.727
97.1536
-129.988
-251.112
-252.716
-227.103
-193.466
-184.007
-209.612
-203.977
-173.82
-108.974
-52.6328
-46.4535
72.678
103.301
70.0429
1.75407
-59.1853
-20.8657
-33.4918
-11.7282
-10.4396
81.2097
228.496
187.259
67.4548
-29.7881
-63.0983
-127.008
-144.024
4.03399
159.789
223.199
162.286
65.2253
-34.0093
-71.0738
-56.5346
-4.05849
15.6841
41.6032
76.1275
36.7804
-0.70769
43.6148
19.1139
18.544
53.9696
121.831
135.48
17.6401
-123.731
-206.754
-265.535
-147.467
-60.0469
-20.9746
-27.8201
-9.06304
11.7861
48.9644
31.4484
-28.1385
-66.8235
-86.0946
-113.259
-102.059
-34.7643
24.5603
-6.66945
7.80964
34.9336
63.0866
68.7181
79.1175
112.021
145.658
217.347
104.04
-47.8408
-79.2245
-36.837
66.8641
79.3012
-12.2115
-32.5465
14.6551
31.7164
-15.2519
-58.6908
-58.3772
-67.8026
-86.7576
-66.9721
-106.989
-43.8414
44.4183
34.983
57.1695
65.9259
-33.2616
-23.9406
-46.397
-65.3193
-14.8082
50.369
25.3787
13.6201
1.57694
4.02633
-6.85282
-38.0322
11.0292
50.8174
75.8422
70.9067
33.507
-45.4753
-74.1709
5.64145
97.0796
22.3549
-125.832
-231.712
-206.066
-57.503
119.336
234.536
311.076
300.644
152.029
60.4758
-19.9873
-27.8441
-120.887
-197.225
-115.137
-69.1718
-39.9961
-86.4906
-136.545
-101.472
1.15309
77.8304
82.829
38.3215
4.97404
-67.8441
-159.302
-139.299
-78.5139
3.17594
-2.43518
-41.8217
10.4456
72.519
42.2636
40.5532
13.0384
38.809
45.3318
85.0144
138.868
173.26
174
173.644
111.411
39.3014
-42.8115
-120.664
-117.454
-102.223
-100.546
-71.4251
-14.7988
72.0784
86.3893
36.7569
-15.2446
-72.9377
-83.0129
-102.636
-63.7855
35.6666
48.0605
-32.9924
-55.8275
-20.8862
-40.9143
-50.206
-36.6021
-12.3112
23.4719
-8.06415
-24.2926
-27.3343
-41.4219
-5.96127
27.0279
46.4671
97.0693
93.5665
46.2554
3.47103
-38.4646
-45.8001
-47.137
-2.29418
101.579
106.85
92.6265
33.7153
-6.67491
42.0392
57.5741
-4.43798
-44.9094
-63.3684
-30.5356
26.3262
7.11428
-42.121
-83.5079
-116.437
-59.9355
40.7832
89.1676
45.8735
-55.2895
-88.5772
-65.6706
-20.0891
62.4144
93.644
45.5942
5.37572
-24.6921
-92.4127
-191.532
-173.834
-32.1541
159.129
273.135
184.388
82.3111
103.565
2.22282
-63.5227
-6.4047
33.2875
0.469509
-68.1219
-106.831
-102.86
-81.3816
-84.0422
-92.0768
-33.782
84.147
173.338
103.375
3.66937
-77.7539
-89.8209
-63.1744
-82.0356
-42.7137
38.2428
121.219
134.116
73.1986
61.0484
70.9603
31.4087
-7.9557
18.0328
-1.75527
-76.2209
-100.297
-113.885
-61.6332
-44.2477
18.5761
21.0629
-43.8244
-104.139
-88.0752
-104.516
-93.94
-23.3539
14.7107
51.8146
53.2358
55.2127
144.614
241.55
275.131
232.764
198.379
92.0296
-8.51309
-37.2036
-90.6781
-79.4708
-46.1084
-57.273
-107.899
-185.934
-209.902
-77.293
10.5272
-14.6852
-1.66292
-19.5038
-85.1575
-152.438
-105.827
-39.9686
-42.4121
-41.38
44.1684
18.1597
23.3664
21.4379
64.0068
96.5761
102.779
140.195
73.4504
50.4397
147.392
98.9596
-15.5164
125.415
161.833
4.0031
-138.835
-147.553
-164.188
-100.612
-30.9891
20.5091
-21.0313
-16.4532
-38.4487
-78.0344
-64.9235
14.0686
175.949
128.395
8.64772
83.2963
190.418
-59.0277
-234.358
-196.497
-157.073
-97.3545
64.4178
166.809
154.189
64.5723
-22.2136
-65.5719
-57.9971
9.58258
102.131
91.958
-36.55
-121.224
-126.332
-118.702
-137.898
-36.9683
56.4713
149.381
218.686
107.883
8.18363
44.4878
67.4044
71.9404
61.566
-5.29837
-20.0391
-72.6541
-98.6195
-106.19
-172.072
-143.911
-30.8374
28.3344
21.6684
-38.2242
1.27507
-3.11536
-84.3728
-23.8781
99.0197
166.129
126.177
27.1497
-81.4306
10.3288
112.909
83.8996
52.4526
32.2891
-17.8122
-31.6056
-34.0861
-22.1789
-42.1584
3.84559
26.2888
56.6164
131.296
68.7625
27.3911
-85.8867
-156.17
-81.3292
-93.6177
-167.334
-148.594
-31.4645
82.9368
120.002
175.779
156.628
-20.2536
-152.954
-204.203
-188.111
-83.2789
3.0847
91.5005
162.118
79.0099
-54.332
-125.566
-149.706
-39.9115
90.718
111.464
116.686
42.7983
53.7773
127.606
133.187
131.882
96.3615
53.2472
31.6451
51.3285
133.235
111.994
29.4012
-65.8854
-91.7591
-94.8327
2.62514
63.2279
-14.0834
-102.803
-220.047
-334.36
-481.808
-469.055
-129.255
52.5036
83.409
96.7038
151.874
162.956
88.4181
0.438329
22.0522
37.9059
-10.6078
14.1492
69.2112
146.424
237.438
214.202
193.793
171.589
135.706
91.5204
-91.2094
-138.866
-40.6501
-3.39674
-107.361
-237.816
-216.812
-137.101
-99.7819
-84.0113
-44.4179
-32.5484
-52.4563
-40.9764
-19.305
9.07568
33.8611
170.598
310.847
302.58
137.963
15.4866
-142.512
-203.835
-91.7477
27.3547
100.05
230.977
207.497
52.1444
-37.5411
-89.3679
-155.628
-156.193
-148.697
-192.379
-102.661
7.37577
-0.0782245
-49.2942
-70.4601
-73.3367
2.21021
79.6682
59.1969
30.0129
-47.2613
-120.883
-109.473
-7.52684
112.718
160.209
125.827
116.608
111.636
56.7056
-31.7351
-72.9886
-75.5344
-67.8119
-71.0542
-43.9588
-9.28282
67.6652
143.818
163.76
121.664
10.5053
-49.1943
31.4277
71.0295
21.3139
26.7089
6.80725
-40.392
10.7347
60.897
-27.3617
-83.9142
-114.532
-136.639
-48.7118
29.6627
54.7524
33.2417
-15.0676
-24.3165
53.4584
124.872
41.8549
-117.261
-196.26
-190.972
-172.445
-138.258
-96.943
-43.4615
6.43895
9.48833
53.2612
139.246
107.529
29.0521
-9.47482
67.8346
137.847
71.924
-94.6535
-142.147
-74.1826
24.7457
107.057
152.035
166.585
121.122
76.7454
21.318
-26.8283
-13.9574
-40.4588
-26.8275
16.0156
71.2432
115.772
31.6825
-76.911
-123.566
-174.998
-148.341
-111.011
-62.2801
56.8317
178.962
111.964
3.15139
24.263
78.8194
54.2944
22.1214
37.0964
2.81724
-81.1145
-147.457
-256.393
-201.932
-99.9739
-65.6912
18.4472
149.33
264.499
363.102
174.565
-175.192
-220.449
-62.5372
-102.066
-161.963
-72.7128
3.21138
23.1876
-1.04083
-15.3996
76.7991
152.051
38.7949
-39.5734
-59.9406
30.3795
84.8975
103.36
32.204
45.9922
70.1663
19.9286
-72.0133
-84.1924
2.1999
-21.8546
-73.6761
-22.5763
36.0809
73.7492
21.0194
24.6839
45.0118
60.014
164.559
139.39
20.7015
-87.1185
-189.445
-192.201
-143.397
-97.336
-64.1794
26.6086
76.436
83.0384
116.909
129.885
65.7548
10.7751
-31.65
-169.849
-193.689
-146.495
-112.49
-27.1537
4.95647
-104.643
-127.485
-30.147
92.7203
173.028
116.033
88.9034
124.483
67.3187
-25.5513
-88.6595
26.2953
218.932
202.066
175.628
166.52
20.1586
-132.936
-156.043
-122.001
-73.3413
-12.7277
-17.4128
-36.7119
-46.3908
-11.247
-12.9597
-110.874
-119.684
-27.6333
55.0169
54.788
-50.7689
-44.6546
62.7732
76.1592
43.4532
63.3784
22.6855
-56.8346
-122.46
-165.494
-128.106
8.18461
152.852
93.7544
-13.0049
54.596
195.254
170.029
63.8609
-37.1033
-64.4354
-43.9294
-46.5263
-52.661
-44.1105
-76.6235
-55.4806
59.2393
117.506
97.574
75.7081
-40.6789
-244.254
-185.868
-72.7628
-76.5828
-150.664
-143.741
-83.4285
15.4287
84.2439
189.657
291.17
186.5
148.092
97.0957
8.27076
-42.3426
-21.6454
20.7946
-46.8458
-8.58256
11.2263
-8.81615
1.33148
-7.54243
20.3842
20.1502
-34.2072
-45.9348
-37.2626
-12.0976
-20.7896
31.843
35.9273
4.58019
26.5381
-15.6871
-77.5727
-86.0866
22.8705
16.8189
-24.8163
0.765256
78.3682
14.4085
-21.6433
21.1635
51.4337
-27.0447
-65.9712
-132.794
-192.515
-162.134
-119.544
-80.0931
-51.5919
24.104
86.64
103.49
56.5448
37.694
98.2907
114.356
63.9342
63.4646
77.0953
53.7981
62.4582
-6.6029
-56.0911
-81.6265
-17.9299
34.3934
43.7477
34.1611
-35.0417
-32.3732
39.4435
47.9531
72.094
87.2989
60.4684
75.2123
52.191
-41.7327
-94.4375
-101.168
-122.769
-43.536
3.37577
-22.4799
-64.85
-39.9905
0.589701
70.2357
107.668
20.7512
-109.453
-116.624
-113.964
-86.0203
-54.4649
-101.878
-77.8597
20.0132
146.27
321.604
285.029
127.712
-23.7112
-94.7276
-93.2817
-68.3983
-94.3384
-150.132
-101.081
23.7058
73.389
6.577
-30.7133
-57.888
-29.5108
44.2105
88.5352
80.4752
-14.765
-113.68
-100.038
-79.9066
-86.0583
67.0801
131.848
73.2618
36.2241
77.7425
81.896
-2.52303
-8.29888
77.9056
91.1238
21.486
8.56057
65.0367
92.4619
57.8715
-17.3403
-77.4065
-61.182
-5.5363
17.1617
-45.8859
-94.9351
-126.864
-60.4005
18.8138
53.9548
62.7255
52.7676
5.92568
8.28257
-3.50939
-76.3371
-114.523
-162.277
-180.219
-164.985
-133.586
-71.5995
-25.6456
32.6803
64.7411
142.488
238.421
230.193
116.352
30.7568
49.9423
74.3979
29.1451
-95.871
-80.1194
7.73589
-26.0821
76.8528
112.66
35.2117
1.90525
15.4182
63.0036
56.89
25.2942
-35.633
-103.249
-95.3819
-69.8452
-112.915
-119.778
-72.6097
-44.0801
-39.9579
20.6899
93.0093
85.4002
-47.4049
-123.332
-60.0246
-61.6447
-36.3469
-9.7273
13.9522
34.3038
36.4223
46.5986
65.3995
84.3102
109.695
56.9941
4.18163
1.94756
49.8228
47.6183
4.42943
-23.4247
-35.9167
41.1716
54.2736
34.0099
-23.0873
-6.37839
29.7518
126.695
74.7535
-57.5655
-207.049
-294.142
-223.301
-124.972
-38.6532
50.278
126.194
155.191
120.634
111.154
94.4085
34.7136
-7.73176
7.19511
8.59419
-30.3081
-27.3562
-65.9748
-65.7164
-39.1075
38.733
114.38
50.5723
-45.4254
-90.4052
-163.993
-168.193
-104.06
-14.605
89.6372
116.625
110.902
108.259
44.1632
13.0355
11.4091
-24.4592
-107.599
-90.3786
-18.8814
25.7087
38.8379
46.2779
63.0123
69.6957
82.5484
82.4457
39.4764
4.48484
-31.3531
-77.6416
-132.357
-134.361
-75.5837
-51.2116
-15.6887
42.3857
-22.2526
-44.2157
0.039844
18.009
41.8371
109.473
91.8508
39.1101
21.5201
29.8915
40.0489
16.9122
-46.7114
-20.3316
33.3874
55.0424
64.8519
35.2952
-50.8673
-82.4989
-7.56364
28.2325
20.6516
-8.29317
-16.2515
-60.3365
-76.3452
-39.4741
-15.9871
-64.0004
-93.2107
-76.2316
-26.4113
-26.0769
-5.28999
-1.35458
-5.41563
47.7173
92.1058
73.4061
53.3933
-4.92635
-32.7116
-2.15917
51.5165
88.2623
48.6988
-9.36575
23.5377
15.1322
-44.0713
-70.9943
-34.9803
-3.92863
2.33039
17.8151
36.7097
22.9341
42.7603
50.6781
22.7654
8.40509
26.6549
30.0306
-30.1288
-81.3269
-66.4517
-31.7287
-25.7641
0.844256
39.4782
61.2764
25.8589
-22.8469
10.0955
-0.345583
-81.5223
-47.3724
20.1131
16.3683
-46.1464
-127.947
-69.4386
-19.3147
31.2994
34.8356
43.356
98.4508
85.6442
43.2505
25.0711
-13.639
-54.5407
-81.6686
-118.458
-59.5934
-5.4749
-7.54865
-46.6844
-36.4617
26.0512
94.916
75.7298
92.494
89.8355
31.2796
20.5601
-4.34395
-36.2967
-4.55694
16.9874
-30.1709
-108.415
-96.2144
-42.4793
26.9856
116.286
128.211
90.1038
97.8379
74.2985
33.0989
-27.5182
-75.1811
-90.3836
-88.1461
-42.0131
11.906
26.6166
44.1805
41.6607
36.061
10.3564
6.0854
-84.2473
-206.02
-196.584
-81.6222
75.0399
54.0201
1.40412
43.7896
53.4367
56.6214
55.6854
43.4477
-16.719
-83.6522
-81.6198
-113.871
-140.556
-127.85
-54.9411
27.2901
116.365
203.724
171.193
132.287
48.9728
9.52723
103.67
119.087
62.8571
-6.39917
-78.4796
-101.748
-127.922
-127.32
-96.5021
-41.8095
51.8276
179.77
209.977
133.021
20.1273
-76.5033
-123.993
-98.2476
-45.1497
-51.2247
-128.61
-156.954
-114.421
-58.9615
-14.8644
37.1832
126.241
175.51
141.623
126.013
49.0341
-13.0215
-40.833
-110.78
-95.8038
-65.2859
-8.6695
3.91143
-63.3628
-117.716
-107.495
-66.8909
-34.7326
51.566
160.983
248.411
211.771
83.3639
11.4218
-8.781
-4.74147
-0.422542
31.4079
51.367
58.274
88.7876
41.4846
-97.7206
-166.397
-135.337
-87.074
-5.35769
78.6957
6.44325
-90.3833
-172.297
-168.335
-36.6487
-37.5546
-126.981
-91.2942
-37.9682
-37.5985
20.4345
110.997
158.222
189.787
166.821
148.591
120.446
105.224
30.0511
-57.8206
-76.4564
-38.3615
89.9337
140.316
73.8813
47.2379
15.4048
-94.2436
-179.774
-172.46
-165.411
-138.136
-62.0895
-66.3425
-84.7548
-30.5804
79.5529
97.1159
56.2212
25.2018
-25.0974
-4.74324
46.8335
98.5174
86.6968
52.2521
37.1271
10.1765
-66.3252
-47.2529
43.5638
34.8267
-33.4292
-42.9072
-18.0438
-22.3507
4.9702
67.8898
114.844
94.9467
2.33553
-89.7415
-126.073
-152.237
-156.489
-127.376
-84.0155
11.8972
144.231
172.344
111.73
49.7463
22.2416
57.6099
79.8674
118.996
91.5051
5.7698
-85.021
-104.402
21.9275
67.9709
-101.4
-192.241
-135.439
-69.3501
-61.0271
-38.0385
40.219
53.0234
51.3334
70.7941
68.3203
37.8194
0.897539
-66.5263
-50.6886
118.742
155.934
112.808
-15.5698
-305.994
-357.025
-230.172
-163.755
-6.19391
319.254
450.449
331.174
174.846
9.51132
-0.711325
43.7215
23.9308
-54.2262
-172.706
-308.554
-390.275
-241.475
-87.5937
25.9036
204.237
289.062
238.832
172.624
163.784
5.33077
-34.0472
-3.04827
-97.9196
-92.9109
-86.4155
-130.97
-142.005
-75.7891
50.6042
92.0466
49.1577
-4.25129
-50.5877
-48.0051
58.4365
111.8
114.126
157.233
128.676
-45.7719
-133.146
-176.52
-175.912
-148.717
-49.578
-32.3048
-53.0265
2.49043
80.1715
159.09
136.405
88.1123
20.2474
9.57597
83.2325
112.94
54.144
-27.8231
-119.161
-106.499
-123.369
-134.182
-15.1115
90.0497
45.6108
-45.3256
-16.5943
20.8168
13.3827
-10.4258
-27.1542
-12.5148
54.8997
58.1372
26.1758
0.362999
2.32191
38.9482
73.1474
85.7748
7.37566
-11.7779
-22.9519
47.0131
46.0661
-38.4816
-54.8666
-52.2925
-50.0255
-40.4622
-27.2165
1.66961
-6.62849
-99.5212
-135.944
-154.941
-128.692
-70.232
28.0755
39.0885
54.156
176.927
254.705
142.255
-16.559
-7.53764
-39.0801
-60.2167
-44.0052
-19.863
20.5027
28.2171
100.841
174.532
99.149
40.9547
18.5724
-26.2625
-106.884
-58.6747
-16.4024
-80.3308
-101.837
-101.945
-21.7026
62.2536
99.6073
112.508
68.1288
52.1843
17.2046
-39.1998
-78.4468
-19.2989
57.501
29.5329
-26.8856
-171.277
-237.342
-101.568
-61.9217
-130.58
-109.857
-46.0847
44.6441
131.224
91.2915
-60.9775
-112.749
-67.7761
-18.2343
-8.18637
43.1912
109.957
116.985
198.262
306.132
322.099
175.249
6.82615
-42.4126
-65.4595
-22.875
61.389
-46.5583
-157.235
-147.459
-19.5886
63.712
137.449
259.122
227.846
63.3161
-101.49
-308.058
-471.023
-471.13
-272.517
-127.245
-48.1764
51.15
71.1878
54.1568
61.643
159.921
176.781
96.3656
40.5408
-5.36497
-89.7273
-166.511
-95.511
-11.1387
43.7736
148.207
211.159
241.789
156.479
125.359
29.9356
-115.734
-67.8066
18.2214
7.97887
5.87362
76.8121
69.4464
-1.01826
-65.2331
-84.2408
-171.046
-198.324
1.71021
142.858
155.46
-11.9181
-162.076
-118.686
-11.9466
85.3746
99.3269
34.7738
4.05289
-23.5944
-104.508
-136.66
-70.4028
15.3209
2.40418
-41.0524
-43.7386
-27.631
-72.2967
-75.4855
-10.0398
78.5042
33.6135
34.8829
-9.15336
-56.5965
54.0658
126.476
31.7186
20.8969
34.7826
64.8827
45.4904
-61.4077
-78.0338
-32.765
41.4436
78.5942
-5.65027
-53.4273
24.5634
140.425
127.804
21.2298
10.4072
77.7018
-16.9219
-54.2212
68.4346
65.4872
20.8037
-12.5134
105.668
185.462
4.25276
-140.594
-80.7934
11.3336
32.9619
-22.9553
-188.362
-215.869
-160.55
-130.761
-71.5059
-94.5097
-91.6078
-30.7504
-55.4703
-98.1515
-76.3282
-38.0429
-23.1092
28.2269
139.149
192.257
152.537
63.1959
-11.3568
-30.2198
77.7794
198.472
181.365
165.153
149.926
70.42
73.8769
-53.8379
-225.597
-267.339
-234.166
-177.431
-100.515
80.6309
226.192
157.6
173.931
191.217
145.892
53.7319
-53.9697
-173.29
-234.57
-250.811
-186.744
-53.7615
-36.1777
21.4346
80.0126
139.912
98.7435
-83.7319
-150.489
-181.129
-29.8723
125.678
69.4559
86.001
112.691
85.7049
64.8576
32.585
102.167
90.6135
-37.1011
-154.723
-127.249
-71.6386
-54.8733
43.1987
205.202
370.851
195.544
-62.0895
-182.62
-159.838
-116.312
-162.966
-194.458
-146.969
-56.7507
37.255
55.916
66.2223
87.0738
185.645
223.761
50.8444
-78.3497
-173.014
-172.081
-77.604
58.3444
136.981
80.8115
35.6969
4.53004
-87.2888
-118.338
-28.4775
71.9733
29.7464
-34.8341
-14.4264
10.8158
-52.9524
-138.793
-91.4628
57.9409
76.2248
80.6737
39.1989
-12.4821
5.1373
49.0481
110.6
64.8684
26.764
19.538
16.7628
-113.653
-113.453
61.9034
99.0555
-15.3033
-73.8709
-93.4568
-3.48508
58.2938
78.1515
97.5494
37.0182
-29.2357
-77.8411
-36.8252
-11.9642
11.206
76.4968
150.263
124.852
1.93562
-119.644
-191.103
-158.004
-74.1555
-48.5661
-8.29204
-55.3263
-7.64086
12.9286
-58.4692
-99.442
-19.4565
69.4464
17.9549
-83.6659
-89.6871
10.1498
40.552
49.7327
91.4408
153.315
98.8028
25.9149
81.5776
141.153
129.021
212.366
133.338
20.802
-74.004
-110.799
-57.961
-66.982
-107.383
-140.996
-127.813
-105.399
-123.933
-160.129
-52.5605
44.1616
111.881
125.895
108.895
139.217
237.924
155.115
-8.90112
-84.6194
-123.292
-142.255
-159.782
-159.333
-88.5188
31.1567
45.8745
-49.646
-24.2941
18.2336
27.0581
-26.3582
-66.8567
-75.8654
-34.7409
-1.46
-29.8673
-3.94725
14.4403
73.3859
153.68
172.737
159.182
122.731
69.8817
55.322
80.4514
34.0862
-58.2554
-58.4193
-33.6714
73.8752
115.451
52.112
-7.65187
-51.7662
-92.4048
-122.84
-63.8745
-50.8561
-73.1228
-49.3144
-49.116
-133.698
-168.74
-88.8093
-21.4156
101.425
78.0951
-114.174
-140.409
-66.1193
23.0718
163.159
96.2647
50.3033
7.10145
92.6107
171.247
142.679
68.6457
23.8625
-22.61
2.93978
15.0558
-132.965
-159.368
-115.754
-77.9136
-7.24191
58.1285
-2.85217
-37.8597
-21.0944
-10.5915
-3.85979
22.9829
-37.2334
-76.831
23.8725
126.758
87.4602
53.3554
128.976
188.584
183.991
57.7463
-25.5183
6.62214
69.11
17.992
-32.6045
-1.4441
-74.0762
-144.876
-200.124
-151.167
-60.9592
-39.1614
-63.9927
-138.141
-119.247
-40.9182
-27.7991
13.3723
53.6381
79.9675
-20.1061
-85.7701
-9.95762
125.415
187.46
92.6079
52.9158
141.852
162.73
108.621
51.8345
25.5757
-42.8287
-108.769
-133.154
-102.131
-82.8051
-98.8039
-69.5895
-0.0941307
76.3653
100.621
112.237
25.597
-63.326
-95.4753
-109.089
-108.596
-108.377
-108.943
-29.7245
95.6425
159.205
209.931
255.414
213.217
98.6941
-17.8367
-77.9203
-107.739
-194.889
-175.387
-170.464
-254.921
-210.943
-64.2791
34.6476
16.5202
125.097
230.537
123.261
-22.4847
18.1506
104.426
117.794
13.9947
47.6047
103.266
84.328
-2.61742
40.296
104.425
156.313
181.289
62.4612
-67.2366
-114.319
-108.692
-153.569
-167.139
-157.926
-123.238
-88.3955
-123.51
-133.366
-60.1032
-86.4182
-60.5144
53.9839
93.601
157.9
205.736
140.105
28.104
-16.5168
-93.3052
-92.0309
66.3649
4.66691
-172.677
-153.108
-17.7443
37.191
106.862
156.794
142.779
113.729
43.7552
-41.2717
-11.5218
-27.9836
-68.2711
-59.311
-8.66482
125.354
186.185
78.5703
-49.4915
-11.4829
63.5564
31.2522
-65.2639
-130.392
-96.1957
-58.6123
-113.799
-144.747
-96.8053
-9.91
30.7233
76.2339
57.967
-67.2349
-139.946
-170.94
-4.06227
191.282
203.407
185.149
172.491
113.137
-0.701317
-50.7296
-41.8087
-23.4056
30.3706
43.4896
11.0351
-34.4861
-57.1767
-84.1555
-102.752
-46.9299
18.5019
-28.2445
-124.453
-147.695
-102.428
-50.1129
-27.5861
20.7073
181.124
256.243
115.251
-39.986
40.4616
132.799
89.7453
-5.68545
-75.3869
-109.21
-148.044
-99.2686
-23.8039
33.0758
69.6916
112.81
155.762
85.9814
8.35914
-92.6703
-198.205
-296.055
-286.254
-145.718
-14.4473
53.1104
42.1728
-25.0996
85.5862
328.657
385.016
366.76
249.544
140.886
26.8872
-85.8208
-202.594
-213.934
-196.236
-135.327
-91.0064
-41.9424
9.90129
28.3598
-2.14957
2.73931
55.2798
116.085
63.2139
-92.0414
-156.504
-178.099
-105.505
26.9335
38.9213
-27.7949
-46.0375
-27.8842
-32.7632
33.4739
129.712
116.509
87.5443
49.2414
-38.1329
-115.602
-116.116
-65.1315
-71.3453
-14.0813
96.8445
-3.18475
-73.8497
-71.479
-17.3085
132.828
196.174
209.372
225.878
143.72
43.81
-18.1132
46.1493
45.2206
-50.3473
-82.8396
-105.196
-91.88
-36.3773
-65.553
-86.8604
22.214
117.833
33.2937
-123.836
-171.586
-118.509
-109.234
-101.806
-51.0296
9.68334
61.0662
83.9275
94.0082
64.9364
38.9546
31.1128
-5.16263
-60.4261
-86.727
-43.9355
-13.6603
-23.5426
59.9809
183.742
142.258
78.7501
113.248
164.04
96.8576
-26.9278
-93.3462
-231.955
-261.27
-169.037
-57.4432
-16.9749
-3.28211
13.1329
75.262
95.6889
12.1368
3.37155
93.1318
185.745
178.15
30.9112
-60.8845
-73.7721
-50.8664
-54.3045
-60.0745
-47.0685
-15.5608
0.213545
-17.5779
34.0746
1.04775
-70.82
-202.595
-298.881
-135.122
-1.40356
3.88152
37.1528
120.523
175.055
147.064
74.7375
65.1699
49.4351
-13.7827
45.7241
56.3563
32.5255
93.8798
183.549
258.593
108.654
-42.4908
-46.2405
-106.743
-203.177
-174.924
-139.337
-142.559
-69.9403
-13.693
37.2102
61.474
34.1541
31.8736
28.9788
18.2269
72.8776
-26.4773
-114.222
-99.6704
-22.8516
23.0299
16.6922
-20.8432
-39.0174
-46.847
-37.0273
-72.7699
-56.663
12.3758
16.1145
-16.403
-23.2801
15.5488
21.2921
15.3574
55.2097
109.757
106.288
75.9383
95.1842
109.575
104.2
142.158
135.017
12.0533
-38.6724
-60.1613
-112.894
-131.863
-96.1206
-80.2838
-45.5328
7.22928
15.4578
-29.5322
-70.2007
-46.1283
-78.8437
-78.8759
-0.117322
85.4009
86.1519
27.3245
-1.53809
-24.0985
-72.6328
-63.7396
-21.463
-28.7026
-34.605
12.62
71.0762
106.765
66.3414
115.232
169.754
93.3467
0.609423
-79.3656
-142.04
-131.068
-81.3577
-21.4
77.6835
155.103
100.899
26.8475
-19.3769
-56.3962
-107.477
-198.981
-134.539
-93.2131
-19.2025
15.9299
-3.06521
-19.0913
53.9532
125.145
193.819
159.496
19.13
-24.8347
-12.3113
19.0961
-55.0152
-51.4844
-6.71779
-3.40549
46.3561
83.4754
34.8079
15.766
7.59575
-24.8542
-65.6396
-29.013
-29.5397
-38.2928
-26.4267
7.55128
84.166
66.8473
-78.6542
-188.733
-214.499
-214.915
-143.399
-44.1455
77.847
241.286
231.008
122.027
-2.54385
-72.348
-60.5784
28.2287
99.7657
100.707
74.2269
105.634
70.6614
63.1938
135.008
92.9379
69.6525
26.7445
-32.0589
-67.7151
-173.704
-304.855
-270.812
-64.8101
130.523
182.079
111.875
-21.2991
-99.8133
-148.522
-144.598
-125.087
-106.733
-116.177
-105.583
-9.30301
106.552
119.888
75.7286
100.21
129.898
164.347
141.395
18.5123
-120.046
-194.002
-138.644
-16.5646
36.4455
67.7673
67.6119
41.2211
135.086
182.047
17.8549
-167.358
-160.093
-19.7373
105.889
135.405
126.504
157.551
166.039
86.315
-43.2679
-87.726
-90.332
-127.365
-114.875
-43.4059
-19.4761
-76.8734
-158.982
-116.465
50.5074
95.9471
51.0887
-8.25017
-111.794
