-19.8769
-10.8196
-26.916
-38.1138
8.02691
19.1954
47.8479
80.2109
39.6701
-2.35213
-46.0273
-47.753
-22.7457
-11.5767
-23.3189
-29.8103
26.5931
31.3051
-31.6018
-35.7352
-13.2413
-11.8584
1.6177
19.8575
61.184
-4.37147
-38.1566
-38.5413
-19.5938
4.69121
27.7294
43.3878
88.6977
8.9608
-38.1066
-39.7708
-37.7314
-15.1007
15.0382
16.3284
67.5546
52.7251
-42.3384
-58.0139
-63.4651
-26.9747
-15.2216
-1.74628
15.3501
36.9585
56.6654
-9.00827
-38.3348
-4.56179
16.9059
13.1939
9.17697
24.7215
34.1365
14.0873
-43.2237
-70.7866
-23.9971
-8.79341
-4.04733
17.1765
21.813
32.9171
17.9946
-14.2648
-11.0204
5.95728
-8.20717
7.64613
30.18
53.8436
3.66717
-19.1169
-21.2914
-28.236
-15.6752
10.8213
34.2042
57.8023
10.98
-26.0547
-41.023
-56.3868
-38.7793
-13.8931
-4.37495
52.301
-2.3537
-12.5751
-12.0397
-26.293
1.34597
-7.68524
2.79573
48.4644
-5.65404
-4.38268
-0.531576
-24.5521
-0.0913635
33.0969
53.4242
67.5422
19.7434
-31.37
-35.5523
-52.8552
-15.3678
3.30103
4.97191
-4.81295
15.9762
24.6614
-17.0855
-33.3209
11.9773
12.8585
5.22722
-12.5255
2.5632
68.7204
9.05624
-78.4659
-51.8789
4.53907
11.129
-5.32551
3.978
15.1456
43.8759
7.052
-36.0487
-24.8092
8.23719
2.25024
17.9856
21.7539
29.3784
30.6704
-36.26
-55.9618
-10.6986
14.6541
9.53199
5.59336
50.7876
35.6303
-19.8868
-30.9036
-48.9105
-22.7135
7.7767
12.2119
11.1706
30.1234
63.3698
7.18001
-71.6365
-62.8634
-12.9665
-21.9652
-26.1383
-5.35429
26.748
86.2091
8.47584
-52.0872
-11.2597
0.75465
-7.96316
-12.6889
6.09129
45.0333
22.7842
-29.9778
-33.342
8.1225
46.5784
32.9092
33.2846
39.4307
11.1296
5.6054
-5.73486
-41.4637
-30.4973
10.2473
44.4393
40.6698
-35.0509
-38.6055
-30.3619
-38.2488
-19.3685
-12.2772
-0.326788
-3.02517
-9.55602
3.90087
5.31595
-16.0871
-1.39387
0.532444
24.051
21.9246
17.3787
-17.1892
-51.4519
-36.3825
22.3349
37.7059
21.3421
1.8756
36.2459
50.1199
-35.8223
-42.9573
-14.7853
-16.1748
-14.1555
-18.8229
-8.68097
9.16648
20.3807
-26.6855
-24.4263
33.6377
58.0414
42.5487
37.0448
41.4833
54.32
-30.5791
-53.4019
-55.1071
-16.9363
11.2074
16.9123
33.2677
21.9107
-20.4595
-12.1321
-7.25334
-26.9958
-16.811
-11.7146
15.0449
-5.99288
-35.4465
-16.9394
-15.6705
-16.013
11.3175
-5.91543
0.590537
55.9739
21.6309
-25.5525
-42.1654
-17.4177
17.9733
36.8833
27.8465
9.54113
43.2653
-1.04074
-46.3527
-23.0003
-1.74184
-13.3927
-17.5249
-8.87446
33.1362
43.0363
7.74076
-10.591
-7.41119
10.7574
5.83281
5.37127
36.4055
11.0383
-49.5788
-42.9464
-20.1832
24.2837
36.9365
17.5055
43.0562
6.77554
-26.8632
-51.5458
-36.49
-29.1024
-9.90549
-20.6775
-1.55239
25.7087
56.479
17.8284
-18.2197
-13.3839
11.9425
4.32623
-10.086
-6.80962
4.0132
28.1171
1.3635
-26.5618
-10.8518
-5.34887
-4.4886
5.51587
11.9648
13.916
65.6681
25.961
-58.4957
-45.3624
-37.9136
-27.0574
-0.499055
3.04946
39.2129
-8.30523
-38.2408
-29.7348
-5.66395
46.1249
47.4855
36.0551
55.7186
25.8197
-22.3685
-26.4947
-36.7442
-10.1534
8.3453
18.5784
52.6832
21.716
-23.0915
-15.3869
-42.4931
-16.4858
4.99295
-7.33607
21.4867
33.2477
-31.8598
-22.1977
-35.8318
-32.8091
-5.54696
1.92757
-8.30258
10.4219
43.9217
17.8879
-26.6738
-16.862
16.4443
15.0234
-2.18602
3.85783
42.9265
46.4723
-24.0341
-44.5435
-3.19603
-3.24117
-14.4946
-11.9727
29.0402
41.4313
-3.90455
-36.6384
-32.5066
-7.08965
3.21413
5.24395
14.6673
17.6987
36.5373
4.00924
-34.5925
-27.1935
-6.5559
2.87893
11.5877
22.4356
32.1984
3.61815
-38.1208
-36.7181
-13.7285
-3.81197
-5.62137
10.2457
44.9712
21.9624
-6.38339
-9.51629
-19.261
-1.62813
-4.40769
-5.87001
7.56516
38.9829
77.5966
19.139
-64.5468
-45.8253
-19.3445
-15.3471
-10.9433
-5.63559
20.3935
-5.23721
-31.7542
1.03444
21.4643
7.73767
-5.05437
24.4408
31.8778
-15.2742
-23.0366
-37.3496
-58.0515
-28.1306
20.8377
67.8575
70.11
11.6731
-0.326844
7.91291
-10.962
-0.108294
4.53453
34.8781
26.2294
-18.7
-39.135
-40.0542
-25.9825
3.914
-6.53448
6.66064
14.3144
9.5219
3.19715
-17.6465
-21.3913
-0.274724
3.43234
3.46433
-1.41038
39.741
8.23557
-30.5426
-19.2282
6.11497
6.5148
0.852908
-2.76673
30.3224
69.1775
-9.50135
-47.1534
-23.74
1.4842
-8.7912
-14.2315
6.04533
48.6363
20.5576
-30.1287
-49.1755
-29.2315
-14.5296
2.42988
23.9142
41.1707
9.31906
-0.237138
-8.21491
-34.9642
4.48725
28.3678
32.8006
66.1563
17.3372
-33.5138
-29.2372
-40.5616
-26.1607
-4.31857
-5.79826
32.8279
-3.29968
-27.3089
-26.8118
-24.4809
-6.15468
2.1692
9.86568
10.0962
42.0189
74.7399
4.11847
-51.7228
-26.0475
9.22986
18.3979
15.9791
10.7552
26.733
0.0738518
-48.4174
-19.8703
0.36663
1.53976
-5.17141
16.7889
35.8961
-22.6744
-34.4202
-31.1096
-34.0386
1.80419
11.435
32.3256
67.3054
-2.8922
-34.1958
-18.581
-10.9176
-2.40301
11.8875
23.3224
58.8681
37.5317
-37.8024
-33.8823
-40.0339
-16.2806
-4.99552
-7.56668
-11.7713
20.8599
32.5467
-16.3983
-30.6483
14.459
19.4202
10.2536
4.42843
10.9556
21.9335
37.4293
-28.6146
-47.4427
6.71014
15.3742
-12.6395
-15.869
-8.79322
13.7453
35.2434
-22.312
-20.1433
0.593572
-15.767
-5.87136
7.06772
37.4863
34.0582
-12.3767
-24.8478
-26.7825
2.30012
13.4523
18.3795
24.4034
-3.7137
-11.9697
-17.0114
-24.3636
-25.2448
11.0939
22.5011
46.5988
6.23299
-27.2324
-14.6122
-18.5159
-22.4131
-1.38512
8.81916
34.7764
-27.8021
-22.7146
-13.4959
-24.8144
10.7276
29.4756
26.6774
10.3386
8.8017
35.9173
-17.0117
-33.2412
-0.888017
22.6026
14.0431
-6.4506
5.62432
33.66
-3.19225
-44.9975
-12.0254
2.63442
-2.3749
4.34076
23.2954
31.8584
4.11676
-17.5402
-26.316
-28.2124
-5.60135
-4.77962
-5.41107
3.6951
30.9261
27.4443
-7.10558
-16.0414
-7.24158
-20.596
-8.51481
9.20233
47.4274
14.8854
-20.414
-22.5247
-10.3967
4.80754
-1.79432
-6.97671
58.5233
32.6014
-23.4667
-30.6188
-42.0687
-31.6573
-25.035
-32.5422
-3.78471
29.4288
58.4169
10.5042
-21.1647
-9.6259
1.4896
5.9228
11.3176
15.3092
29.4258
-3.88776
-33.1747
-5.42228
26.7739
12.3482
-11.082
16.5549
54.2556
-20.0733
-25.4171
-31.6402
-32.0915
-10.4488
-1.47488
28.7241
28.4892
-6.08812
-4.98074
4.34903
-10.0334
4.85777
3.16744
29.6843
25.7139
-13.2228
-24.7437
-17.1016
-8.48283
24.7806
13.376
16.0759
28.6459
52.4145
-16.2865
-48.2945
-34.7496
-18.4313
-21.583
-24.2811
-14.0714
10.7327
29.7258
-36.5584
-38.4125
-7.524
2.50467
-3.59458
-10.9855
14.0178
25.4856
52.3451
15.5382
-62.2433
-23.1168
-13.6735
-14.6265
5.49362
18.8119
45.4383
72.382
27.8948
-46.8656
-16.7085
21.1366
37.8616
28.5327
13.6079
21.8534
-12.3593
-21.2257
-41.1012
-34.1131
8.51745
27.1993
30.1306
15.5693
-26.2178
-22.1235
-33.3061
-49.6258
-16.5245
11.6182
30.5117
38.5374
27.8793
-11.9367
-57.9659
-62.3211
-17.7344
2.11563
1.00559
2.37604
33.9003
20.4323
-25.5301
-11.6303
17.7104
25.9874
11.3752
-11.0891
9.2668
17.6123
-28.3892
-20.9043
2.33029
25.6151
35.0342
19.6636
53.059
32.2883
-54.5422
-30.9327
-11.7803
-5.70922
-4.61751
-12.5913
29.4882
26.8944
-13.6779
-17.308
-27.8177
-18.3589
13.7351
13.8728
35.0397
41.6273
-22.6697
-47.5178
-54.7715
-35.5304
13.4987
13.8935
2.20673
32.1869
44.5079
25.1546
-37.9438
-27.1344
-2.68098
-7.38977
-5.03247
6.01288
33.5251
54.4713
-44.1678
-61.5944
-15.186
5.6399
5.64819
6.46775
18.3553
21.2204
29.1527
-22.3022
-15.1981
-1.26174
22.8771
4.75926
5.306
23.0787
41.9966
-13.3489
-53.3612
-62.2707
-27.3724
-17.501
11.9837
37.0932
49.2609
7.58362
-8.61269
-23.0757
-25.4873
-7.2633
-3.30455
8.91118
24.168
-17.6303
-3.20599
-1.17851
-14.0238
1.72587
20.0274
27.3058
65.7372
17.4719
-7.29063
-22.1627
-30.9947
-10.5385
2.07636
5.37719
-8.39563
9.00974
28.8397
-23.0394
-34.336
11.7425
8.9419
-1.82468
-1.70493
21.1565
21.6082
-37.1546
-48.9125
-7.83753
8.75812
3.86748
11.0759
17.6386
20.7616
14.6867
-17.6652
-25.3489
-35.5065
-10.465
-5.90299
-5.39325
11.2329
39.9198
-6.27023
-20.1576
-17.1841
0.260741
12.3947
36.4733
57.7176
58.9227
-39.4854
-39.385
-24.0127
-19.6668
-1.56275
4.17025
11.0671
28.8179
12.4385
-9.42501
-25.3364
-40.1598
-14.6339
-2.89401
-6.73554
23.4433
66.0253
-6.32147
-32.2256
-31.8332
14.0546
9.7018
-4.22081
0.0818246
34.2058
4.14313
-8.84558
-6.31278
3.99197
22.0423
23.51
44.6301
82.7814
-11.264
-72.3063
-67.8353
-74.2038
-16.6191
-12.1704
-3.26696
30.9431
-23.2044
-19.092
-0.736109
1.51445
17.4199
16.8334
34.5816
39.486
-22.7198
-23.4672
-43.4279
-42.697
28.4697
66.7655
59.8389
63.5558
10.7376
2.63673
-46.2586
-55.2394
-17.077
1.21347
-0.614265
-9.18972
12.6302
51.5551
-35.6793
-53.3988
0.379791
6.96017
-2.83725
-22.8754
-8.26564
14.7088
35.1734
-20.2195
-2.46521
9.04274
15.6057
11.0008
28.5409
23.5631
31.4333
1.36163
-61.0951
-73.7692
-23.3365
4.10905
16.9602
13.4639
29.4135
-2.49436
-0.561243
4.2057
-9.05419
4.95907
20.7009
10.3139
45.1083
-14.2022
-24.6031
-26.0881
-28.6856
-10.4058
19.8938
17.7702
55.2481
41.9813
-21.7495
-29.2287
-28.7832
-6.56777
-4.69298
-0.953546
-10.9037
10.7237
33.129
-25.6282
-44.7407
-7.33
0.12321
-4.66763
-20.5121
1.54624
26.2376
-5.37596
-11.2001
-11.6062
29.2806
32.0179
13.831
61.0822
25.1564
-44.5305
-48.7205
-48.6489
-32.286
11.3105
1.67381
26.5915
20.5211
2.21818
8.7503
-5.38102
-13.5512
-6.5026
-6.83306
6.79159
54.9155
12.351
-25.9798
-49.8754
-23.8735
13.5218
18.5187
16.1974
37.5968
73.1189
-4.78652
-43.9225
-29.9654
-13.1501
-9.27293
-9.28395
-5.27348
25.6888
75.6767
5.58717
-51.1393
-32.9753
-9.92264
-17.6425
-20.7287
-2.39719
36.4121
38.7771
-30.9144
-33.7451
2.68593
13.977
19.9541
18.5916
32.6679
10.1433
-27.2736
-35.3171
-57.2892
-21.3792
8.56314
29.3389
57.9869
47.1584
-6.80333
-2.80404
-38.0013
-38.0197
-11.0472
-21.5697
27.8568
41.2231
-4.86769
-10.877
-24.8211
-0.522565
24.8599
5.09441
-23.1107
28.2766
67.952
40.423
-62.3027
-62.0476
-4.19518
-4.66464
-12.8823
-16.6453
11.5076
26.4042
-15.9996
-15.3818
0.107838
4.13609
9.24228
6.52587
19.9498
28.4202
-34.0899
-62.9019
-55.4851
-10.0363
34.3435
33.3771
67.3483
93.3371
23.4581
-24.4478
-39.0352
-40.8449
-16.5849
-4.93797
9.0397
15.4501
24.4436
34.3664
-14.7862
-34.7853
5.31223
3.65315
-29.0149
-26.9917
12.0855
18.5802
1.99942
-35.4408
-10.6631
10.8116
9.06478
1.69677
13.0769
7.55
20.4252
50.2582
-11.3246
-60.4464
-28.3309
-9.22643
2.53284
9.4611
16.7432
56.2957
33.5535
-52.3792
-53.7708
-31.8246
-12.6019
-5.25995
4.39053
27.2023
18.7811
-15.7444
-22.0624
-41.6284
-7.18543
32.5852
25.0264
22.9985
36.8613
-21.4595
-15.4204
-29.6023
-15.2709
35.2513
44.3944
69.1238
49.8525
-19.1601
-27.0548
-37.6583
-13.2228
9.40219
7.24983
16.3901
53.5026
0.303063
-58.3118
-57.6462
-49.7591
-5.33963
-9.53405
-35.1109
-33.7998
16.6726
54.1672
-7.86909
-0.744015
42.2263
41.5537
24.5939
7.44776
25.4499
40.1634
21.1729
-70.7005
-56.2377
-0.0395132
-13.4794
-19.285
-3.16212
4.5366
36.2967
6.6884
-30.9531
-41.1132
-19.7446
4.31252
20.4735
26.1361
35.6785
-12.6549
-33.5149
-36.1071
-35.0212
0.606276
15.4121
47.1748
83.7845
31.6786
-12.814
-23.2303
-33.7989
-1.10464
21.599
4.20229
32.1513
35.1797
-58.0543
-61.3243
-45.6181
-8.90709
2.85007
-5.17501
-10.262
20.5239
46.1918
19.1551
5.93768
19.8539
23.042
16.2342
9.57111
37.5781
29.4033
-44.2669
-60.2842
-48.6967
13.5485
4.26668
-4.75805
20.4452
22.5889
-35.0237
-28.9437
-20.5985
-12.7275
14.8519
9.63921
18.768
37.5333
-1.62104
-19.7314
-30.6917
-22.8868
10.1733
16.2704
31.6548
52.8001
-9.69218
-24.3014
-15.7288
-23.9806
15.2114
12.3786
8.56216
30.3523
-59.7591
-63.9516
-26.4628
-3.33142
23.5408
16.786
-5.48987
-3.14115
37.5492
35.6277
-20.9233
-21.9416
25.6948
23.355
2.39808
2.18078
7.6018
3.30635
24.5966
-13.7223
-12.5013
-6.16768
-10.6678
-13.0397
-9.65926
-12.3707
17.0486
1.39994
-26.123
-9.79938
11.1179
20.6431
22.6431
14.4301
38.9779
-16.1132
-21.0726
-6.88281
-15.0767
-29.3752
18.6894
44.685
83.3279
-13.1403
-44.067
-27.4668
-33.1374
-36.7064
-18.7688
-5.43635
30.9759
46.7459
-13.8086
-30.6521
-35.0267
-4.40787
5.19796
-7.14603
-7.11093
20.8447
66.2903
-18.7459
-59.4239
-4.65055
20.5081
25.0406
8.85053
29.6116
78.3049
-5.04027
-51.8643
-48.9811
4.33296
11.0986
-12.8254
14.6185
39.3062
4.76857
-22.19
-27.5456
-25.3092
3.26388
-4.68231
20.732
38.8333
26.1086
-18.809
-29.1441
-48.2186
-8.67417
3.01031
-7.85728
7.84198
37.7428
58.5808
7.92432
-38.2464
-19.4636
-17.2365
-7.26592
-8.21034
-0.778094
29.729
66.8898
-7.05047
-58.8435
-40.7368
-23.418
-14.0328
3.50136
18.0196
27.0531
54.5127
0.667569
-37.8021
-5.35248
9.47007
9.09953
6.72755
4.7499
21.0659
9.98686
-35.0462
-48.1426
-9.37082
19.9524
44.2441
44.5168
65.1098
10.8399
-42.662
-43.0238
-46.8555
-14.0511
-12.6915
-10.2173
29.6471
5.95279
-12.9091
-22.3587
-30.4645
0.643059
-1.21165
-15.8698
12.6401
-5.41836
-0.203641
12.062
-16.686
12.5021
35.9205
46.4075
75.8062
8.39162
-36.0792
-18.9583
-28.711
-14.7225
-6.92117
6.11136
15.2185
25.0798
-14.364
-17.937
-13.591
4.01362
14.6009
9.92346
-0.636377
38.5769
-13.4921
-76.4348
-84.0679
-17.7733
21.1133
22.8621
20.8671
46.5742
65.0719
4.44045
-35.7169
-28.4117
2.91179
9.05001
9.3853
31.0503
49.7622
-11.0102
-48.174
-50.5824
-3.18863
21.3401
2.8066
24.4798
68.8743
-13.7427
-46.6856
-37.6015
-35.9159
1.01292
12.5509
-1.79743
33.6465
7.50626
-40.0891
-35.787
-37.6927
-17.1459
-2.3362
2.09496
41.8226
79.3948
-0.888979
-12.535
-22.5119
11.0723
6.99339
9.88485
31.8508
55.8791
-4.77245
-27.3737
-30.3643
-10.9087
5.19573
0.859999
20.7077
42.9633
-20.6545
-31.1965
-21.832
-21.6798
10.8514
2.40036
13.6895
22.5928
-18.186
-34.6485
-32.7826
-19.3667
27.1836
39.6026
30.6461
2.87471
-21.8273
-1.95627
-18.1284
-34.2723
-2.56858
1.90241
21.4251
56.913
8.92004
-27.2282
-39.9318
-10.5988
32.7144
27.6547
-4.621
-34.1692
-12.4219
6.30048
-23.0935
-16.3476
26.4318
14.4114
0.848297
7.52815
23.9457
26.0256
37.7839
-45.4616
-35.3677
-1.85017
-2.99399
6.34314
15.4873
22.1588
62.4608
14.3299
-40.8366
-55.2929
-41.3124
-12.2236
-6.63749
-2.29199
15.6791
0.673275
-10.0251
-7.28217
-18.5253
3.43557
24.0853
17.0922
42.611
15.1873
-9.97208
-6.66563
-27.0057
-2.01314
20.5829
16.3156
35.087
4.85911
-19.4285
-12.8039
-30.8242
-17.3621
10.6274
3.17493
-11.9238
18.7138
-27.5612
-19.0602
-19.3414
6.55478
14.7551
-2.49358
1.17604
40.5813
20.9887
-22.1207
-39.6169
-28.0047
7.40475
20.4843
25.0784
42.3141
8.59394
-6.3988
-17.726
-21.6774
27.8489
32.0812
21.9284
33.6316
-21.1526
-36.6405
-48.393
-40.2188
-11.6226
16.6267
23.1515
24.4116
24.3306
-6.22907
-28.182
-33.8181
-15.7151
-13.0016
-2.61848
1.6608
35.0809
89.5899
16.8516
-70.0549
-27.3259
-16.6582
-18.0708
-9.31146
8.22079
13.3129
38.2785
16.6578
-32.2862
-12.8127
2.94911
1.36407
4.66072
18.3215
35.4261
4.48587
-8.38273
-42.6182
-20.0148
14.6896
27.3989
44.8372
49.243
-20.213
-19.2664
-8.93828
-21.5477
-0.342575
7.72903
17.0564
4.41705
-27.8349
-8.89489
-10.8917
-26.6343
-15.2367
-0.244213
22.7207
-4.50551
-37.2689
-19.9182
-15.8132
-18.9854
19.9142
26.3061
34.9552
61.4267
-12.5781
-20.5787
-31.2992
-29.8338
-12.7391
-12.295
6.55803
25.8559
53.0265
2.51911
-40.2016
-5.32591
37.4424
29.4196
9.88276
-1.48575
13.6957
3.83554
-22.1297
-65.9826
-11.5287
10.3726
-2.2708
2.91792
26.1747
74.4647
32.9153
-43.2668
-60.6535
-27.527
-15.6837
-6.37169
9.72116
39.8614
51.0146
-2.19637
-26.3394
-23.6895
-9.71207
-6.13354
16.4639
52.6019
37.078
-5.66809
-18.9494
-43.4868
-24.6777
-5.76216
-14.0432
7.54089
28.8105
22.984
-12.1395
-31.8175
-20.946
11.3777
6.88575
-8.00879
7.90604
44.8877
-2.30031
-33.9835
-26.1401
-3.6888
-7.16567
-12.9164
13.7691
61.0767
-0.516415
-27.8868
-30.5114
-18.682
-1.8821
-1.55649
12.311
35.0617
2.45348
7.67716
7.50924
-20.7711
-6.22575
-0.746474
18.7717
37.2773
16.0904
1.49715
-18.4248
-27.4443
1.76971
16.2096
48.3094
21.9755
-2.65018
-43.3769
-42.1536
-38.0551
-14.0412
-5.0899
-6.6672
28.1753
19.5661
-16.7515
-27.4418
-8.7193
23.6043
17.8913
14.8393
7.9333
54.3223
39.7623
-62.1341
-55.2951
-7.88194
15.4638
-8.18167
-2.77729
14.3169
37.1844
3.38764
-27.6724
1.58114
14.4417
8.10362
-2.53171
14.0261
25.466
-41.7175
-53.8451
-59.9299
-35.7836
-2.4784
29.1975
73.1145
71.2488
4.18042
0.727438
12.0707
4.67258
1.51359
-14.1762
24.8777
52.7646
3.22181
-63.82
-60.2823
-47.0606
-5.82223
1.73434
13.3178
51.2262
9.1763
-10.9066
-28.8935
-26.1661
2.63385
-14.2443
-12.1812
13.9088
40.3753
-20.5792
-45.1054
-50.7654
-19.369
35.7556
43.3962
61.0739
68.3342
-28.6483
-43.4079
-40.4899
8.63079
15.9913
0.692238
23.5172
52.954
-0.378443
-21.3992
-35.7374
-22.3976
14.4246
18.7413
28.7379
55.5031
-0.96177
-32.5897
-39.7412
-19.2399
28.3015
21.2198
3.31827
33.953
41.5821
-42.8846
-58.9911
-49.3473
-1.57637
8.16937
-10.533
-15.8909
22.3817
34.8675
-29.6463
-57.0387
-21.5937
2.24159
5.44205
9.39613
24.1786
34.4631
24.5208
-48.2178
-44.3095
23.8296
34.7815
23.0348
35.9157
68.9666
-3.12011
-47.6267
-42.0417
-43.1229
-18.0252
-17.7192
2.96432
38.3644
14.9398
-21.7774
6.99281
4.87811
-7.07079
20.151
20.1684
50.8713
4.15449
-22.6559
-19.6664
-27.8906
6.12305
22.7982
21.7822
64.3354
29.8024
-47.6433
-38.2671
-42.4175
-29.698
-7.13919
-3.88055
2.6818
55.0708
39.5261
-46.7198
-57.5191
-25.9176
-4.58449
-12.5867
-19.8807
3.34963
33.2149
52.32
-45.053
-23.2642
25.295
33.7584
26.1691
18.7818
42.0303
24.2638
30.6664
-54.4483
-57.6079
-11.2788
-9.11664
2.74603
6.42119
3.54434
48.6738
25.3759
-33.2651
-50.2774
-29.1273
-8.96752
16.6858
20.5838
16.1181
16.0241
-43.3062
-27.7956
-27.6641
-11.4069
7.35039
24.9393
49.446
64.376
8.61617
-18.9588
-66.6915
-37.7826
12.0788
4.11122
6.2891
15.0565
41.4184
48.1039
-9.73997
-43.1765
-15.4827
-11.5647
-11.3887
0.257008
7.384
23.2373
37.1727
-20.7295
-3.49956
7.17517
-15.0126
-10.2367
-1.61356
-3.2111
17.0657
-26.2313
-16.6871
-8.33278
11.0184
10.2731
12.4394
44.8607
66.4147
-26.4857
-36.1236
-27.8263
-51.9815
-32.1434
-12.5571
10.6482
57.5797
-1.44125
-14.6271
-21.6297
-25.507
-0.705894
-16.2721
-6.94803
38.0495
19.6327
-3.233
-17.7548
-36.2186
22.5492
40.7483
28.8639
26.0549
30.8909
19.8449
2.81718
-26.1451
2.61185
9.98116
-3.18228
-12.8687
9.0037
37.3281
44.9416
-29.0662
-47.2928
-19.5635
-19.1917
-26.3257
-4.35609
3.79218
20.9442
-9.41002
-13.9196
4.87074
-3.68889
-22.5492
-6.0909
9.22327
53.7326
-12.0764
-44.2566
-50.019
-59.4283
-26.0644
15.1825
28.8326
43.4887
11.0836
0.774352
9.13346
-0.0152224
5.09997
7.96251
8.30147
37.9093
82.3762
13.2737
-52.9401
-71.8267
-10.0993
33.7463
33.2651
7.11079
9.51413
39.6458
43.5226
-37.6541
-45.2146
-30.7121
-21.8057
-16.2098
-13.0417
12.0853
22.4
-40.8087
-59.661
2.5101
36.3692
17.1575
25.7425
41.4869
23.1228
-13.7246
-10.6737
-21.1693
-28.428
-7.53879
19.4137
45.277
30.8602
-3.20844
-16.3849
-17.166
-11.9811
7.53015
-8.80259
24.7121
45.8047
-19.8313
-35.2967
-30.8197
-17.2017
-12.9176
-22.3528
-23.8023
-17.1687
21.5351
15.3544
4.89459
11.011
23.6315
23.2852
0.273285
-12.7055
12.929
42.9467
-7.98778
-50.7855
-24.6617
-6.32636
-9.77016
-11.0651
-0.928759
39.0659
34.9088
-9.25749
-14.3442
-3.57488
4.86748
-2.67341
-4.02091
20.917
29.7827
-15.291
-19.8558
-40.2445
-12.408
16.5233
40.1619
61.7249
28.6122
-14.5892
-19.2609
-32.1393
-19.2372
-1.27265
8.31582
36.1179
20.106
-19.3627
-14.7056
-24.1284
-17.6723
3.97256
-0.771835
-6.4627
40.6597
32.2883
-25.8478
-31.6501
-23.2256
-17.1077
-15.217
-12.0399
-1.55643
57.2252
42.7902
-54.0959
-48.3266
-7.62662
-2.46094
-1.63179
-6.12825
27.8292
73.6173
3.02639
-79.3789
-44.6152
16.5815
14.7146
10.0897
15.317
52.799
62.4519
-3.85355
-30.8306
-30.4958
9.45683
9.52288
11.5079
12.9066
35.7285
53.0776
-29.4665
-62.1248
-20.6928
12.8971
7.1772
9.01461
25.4432
35.5918
-13.2993
-64.8995
-78.6458
-29.7909
-16.3572
-5.1571
15.3541
23.5432
65.2761
12.7448
-37.3028
-51.2101
0.241835
-14.1067
-11.6238
3.68491
15.1615
55.1051
-17.8739
-29.8469
12.0722
19.4228
16.2255
19.1569
26.6545
79.736
8.96823
-50.1266
-64.6977
-28.6136
-7.3715
-2.99231
16.8563
43.1729
18.7348
-0.573502
5.13896
-10.4581
5.68498
-13.626
-11.9794
29.7007
1.28011
-14.1117
-20.5835
-49.9305
-6.55886
21.3374
14.9671
40.738
29.6188
-17.0507
-36.178
-42.0109
-8.09307
13.4909
1.73275
-14.3416
4.58135
36.6012
2.39218
-25.6126
-13.226
2.53576
-6.57064
-21.786
0.0884302
37.9533
38.8937
-27.5456
-32.394
1.9017
16.026
5.92669
12.9514
10.4372
25.3139
38.3673
-21.948
-44.7102
-12.1172
-2.57701
5.72609
6.11107
14.2093
20.2804
-18.8058
-23.3152
-21.4652
21.4037
22.5982
11.292
24.9158
60.565
-11.879
-38.228
-53.9886
-55.5727
-12.8914
0.375601
32.4112
59.1575
25.527
-17.8365
-38.6975
-40.504
-9.59137
-5.27
-7.42823
5.10024
43.7371
76.5604
17.1139
-72.4121
-27.2044
-5.92531
-13.2907
-11.3857
8.11339
30.7035
41.4419
-41.5873
-25.5744
3.35744
3.96169
-10.2574
13.1786
43.7887
46.6875
-15.1364
-38.5042
-50.8023
-13.7253
12.3943
22.9641
41.1131
13.8675
5.33529
17.8989
-7.05448
-35.7856
-6.18514
4.92209
35.5992
4.42311
-12.9788
-6.1605
-21.9785
-37.0108
-4.57158
17.4729
49.8248
39.2351
-16.7615
-64.2475
-61.7495
-33.7771
-14.7822
-10.9461
11.277
55.7325
82.387
14.88
-47.5042
-27.0596
2.58533
9.54829
-2.34797
-3.96948
18.543
43.3173
-1.68413
-51.1021
-7.69534
38.5259
28.71
23.5842
7.0012
22.099
30.1689
-39.8823
-51.1501
-24.6403
1.85164
23.3549
6.50644
33.6533
26.8465
-26.8893
-17.7249
-38.981
-37.2411
3.64766
14.1112
33.72
14.6263
-25.909
-24.9271
-32.9024
-30.5625
-8.18096
-13.7613
3.35074
60.6073
70.3068
-25.4689
-62.7898
-41.9889
-7.9199
-8.67941
-12.8594
-0.92311
64.3094
36.3846
-15.3246
-17.415
15.467
15.5969
9.31941
-0.0628112
20.108
47.0907
-12.4378
-40.8303
-50.4395
4.08725
9.72338
11.7836
44.716
32.923
-6.54268
-14.5644
-42.6533
-7.71719
25.415
31.3768
86.3245
74.9818
-36.7785
-74.2783
-68.4126
-63.7264
4.03344
9.0928
0.587745
25.2113
49.7179
-15.9575
-41.108
-17.7781
1.40351
-1.34925
-2.18839
0.777421
24.8591
45.7627
-34.2626
-65.9712
2.3236
25.1526
12.0021
-11.2915
-1.40051
6.31935
41.4395
17.1638
-40.3645
-5.89867
0.36239
-5.20303
-0.285372
3.96765
35.2249
-13.2821
-40.7139
-36.5264
-7.96184
18.8068
35.2254
32.8452
34.1615
-1.59929
-8.37259
-15.7684
-22.9928
-18.0343
-7.57115
42.686
73.4638
17.7021
-27.8643
-30.9379
-42.85
-3.26016
0.393445
4.36172
23.7464
-25.5602
-5.48115
-5.72522
-12.0939
5.70926
9.05668
8.20748
15.9706
47.5951
-6.05519
-46.9628
-52.7685
-18.9041
2.67447
10.6302
4.05685
48.5973
58.6644
-35.3202
-64.2332
-16.4633
-11.0967
-3.17057
2.75627
33.9171
73.1154
-17.6077
-56.7401
-34.9113
12.5536
13.6219
0.792935
5.66141
9.74373
37.463
33.1635
-29.176
-32.1304
-0.811573
3.20961
11.6353
10.1311
47.7203
39.1791
-32.5284
-63.9916
-17.2071
-8.47096
-16.5619
6.42816
35.5616
38.0937
-11.833
-1.2284
-13.0203
-15.2157
4.73848
0.59494
13.3017
33.8509
22.9276
-1.95383
-28.8663
-32.3789
-11.6924
-15.2931
-8.60006
29.8869
44.4145
-26.0386
-48.0369
-42.5216
-1.53974
9.90528
2.54675
10.893
33.9983
-23.7358
-17.1713
-17.0077
-1.35398
13.8827
9.03855
26.1849
43.6384
-7.06731
3.75667
-6.37686
-18.3442
19.969
21.4332
26.6452
34.5908
-9.51389
-21.7986
-21.7823
-27.3086
-1.7052
2.1941
15.0248
18.1529
-21.457
-20.7634
-33.1139
-30.2472
2.41333
7.96127
-9.82572
20.9188
37.8072
6.564
-29.496
-22.9811
1.87467
6.36305
-3.02001
-4.6725
38.154
51.2691
0.914026
-41.1983
-17.7095
-18.805
-9.91982
7.59535
8.48928
16.9784
24.961
-42.352
-30.3166
7.93971
27.7343
26.4353
28.1044
30.5886
5.43814
-16.1944
-16.065
-29.0972
-7.41344
15.6555
22.5382
30.2397
27.1012
-30.6562
-23.8127
-23.2066
-33.1596
-8.4558
-0.533613
17.7492
6.53347
-19.5875
-25.2558
-20.8117
-2.38078
2.21135
-4.31491
2.64398
49.9737
60.4016
-15.2794
-50.349
-45.954
-6.19227
3.27323
3.41131
7.14083
33.4065
75.2067
-15.4483
-35.0082
-8.16505
7.13658
-0.140192
1.68397
26.5742
29.9277
-13.3567
-37.5284
-36.5389
5.10471
19.7344
11.2211
34.26
27.5877
-24.8051
-16.8286
-14.7507
-30.4953
-3.81893
2.11728
37.9217
42.8792
14.3708
-36.3948
-43.8216
-38.7178
-6.50548
-15.3327
-8.33033
26.824
53.8212
21.8415
-41.0213
-25.4639
13.789
11.5591
-2.72104
-18.3677
7.85161
47.1734
27.0606
-26.6791
-16.7773
18.6701
12.4076
-2.57507
-3.64409
-10.0605
17.9674
-6.45918
-33.2153
-15.5014
10.4182
4.16924
5.4266
23.7909
30.1362
-25.2333
-7.02394
-2.15418
-18.7167
-5.11152
-10.6044
19.7605
24.5712
-46.0839
-42.1744
-33.3926
-21.6124
15.3115
12.7124
34.5093
53.7865
-8.58845
-16.0196
-21.3436
-23.0947
3.16522
9.70521
23.8803
23.3092
0.55029
7.7221
11.4632
10.145
36.4599
35.9331
20.4973
17.1004
32.3196
-36.8613
-62.9749
-51.7873
-16.0965
-7.0473
-16.2601
-13.2499
31.2729
28.5425
-43.248
-48.3964
-17.4153
-2.51988
5.68553
12.1835
51.3458
63.6753
8.69147
-44.459
-54.3146
-14.6871
-4.05101
-3.5263
6.62546
16.0029
44.5727
35.617
8.48286
-8.71602
-3.46981
-3.18799
7.6504
6.7942
29.1308
-17.1971
-38.465
-39.7762
-16.789
-4.22921
-3.43034
40.9458
61.4157
4.59027
-17.7393
-15.5741
-35.4863
-26.9351
-19.3317
-5.3158
14.6027
32.2008
37.0988
-12.7639
-29.7215
-4.68337
0.262598
-8.46625
6.16701
30.4949
28.4834
-20.5468
-33.957
1.14152
32.85
20.8563
10.5404
34.5243
-15.9675
-47.4634
-42.7342
-36.686
-11.0519
21.2265
14.1308
39.938
10.6315
-0.549693
5.94299
-6.45484
-3.66625
5.81749
8.49609
22.7136
-4.63583
-9.76342
-14.4005
-21.5763
6.9023
18.8983
27.9706
43.2409
-17.062
-18.499
-28.6937
-25.103
-5.03376
-2.98076
-2.42569
-5.33425
25.5785
21.339
-40.4937
-36.0565
-5.43469
0.755482
-11.3241
-20.8023
2.45494
41.9719
49.5105
-22.2256
-35.0992
-22.3496
-15.9787
-4.28537
11.9344
18.6752
51.2121
44.6118
-36.1209
-24.5119
9.69681
15.1031
8.22626
18.843
36.1922
32.1239
-26.2276
-37.6895
-34.0633
-0.772156
39.5483
22.0869
32.3344
11.9225
-42.447
-29.1845
-36.8156
-24.948
1.79858
4.10741
44.6426
67.6922
-7.81379
-67.4205
-52.5758
-32.7471
6.56384
-3.23758
-10.7762
6.64754
18.3568
-3.9657
5.58187
20.2259
43.7215
25.5754
0.225763
-3.85098
-0.840191
-30.8474
-35.8065
-35.7106
19.4714
41.602
29.3973
31.5882
1.33287
-11.9217
-16.2115
-12.5182
-5.28917
20.1855
16.8416
9.86488
-17.1517
-19.7826
-24.6406
-23.9527
-1.46558
21.8882
15.605
20.8664
41.4499
-27.3596
-62.1775
-52.0742
-1.65601
5.54033
4.71808
9.22005
38.1553
47.7724
-24.1942
-33.9202
1.13753
1.77541
-2.58558
-6.69189
-5.39362
25.5999
43.195
12.0508
-46.4062
-5.54069
5.06436
8.68855
17.9752
9.89144
13.5101
29.4508
-40.7101
-40.2189
-9.54275
-7.96402
12.5695
17.397
43.957
3.77328
-22.8645
-27.2082
-43.1502
-37.6947
-3.31301
33.5257
66.158
7.71423
-24.4875
-5.15718
7.3105
-15.0142
7.13642
23.9783
73.5438
-7.39383
-48.4782
-33.9548
-37.7443
-14.0055
-3.5043
8.18126
58.2195
5.3025
-26.3482
-5.71745
-20.0813
-19.9316
5.56219
29.9726
24.1443
26.9225
23.599
-45.8027
-57.3257
1.89649
28.5754
11.2819
0.0026102
13.8469
54.842
-12.3707
-53.4407
-15.3288
20.9769
21.7795
17.4739
44.9574
30.2454
-21.7279
-51.8519
-55.3541
-35.5867
-2.10693
-12.9956
-0.376324
23.0425
47.0997
-4.57769
-29.1037
-34.5705
3.49053
-4.50685
-5.86714
16.1305
48.1018
1.08027
-9.8665
9.69503
7.45095
-1.883
-16.9597
-1.30432
49.3333
30.6914
-36.426
-23.5727
-18.5
1.61932
4.35772
-12.0221
13.8689
43.297
-11.1971
-23.3721
-30.083
-10.4493
-9.5085
-11.9923
10.4586
50.4747
2.1481
-10.5449
-19.8335
-10.5874
31.7299
29.4836
34.1864
19.2504
-17.7983
-25.496
-31.7553
-46.204
1.29064
27.4479
48.9495
-2.14457
-18.3575
-20.7927
-21.08
-17.2908
14.4254
40.5867
72.4791
-1.35051
-29.9371
-36.1799
-48.9121
-19.064
12.112
24.1624
36.4003
-29.0123
-10.3599
1.14573
-21.3954
-3.78217
3.59486
12.6591
31.1612
47.1764
9.52707
-32.1898
-60.6703
-24.1829
11.0247
16.9705
11.1025
30.3034
72.8807
36.2986
-55.9081
-54.862
-37.0802
-40.8087
-39.4953
7.89083
25.8143
37.5135
-12.2424
-43.3112
-5.71037
23.1025
28.6022
26.2056
33.2081
40.0502
-11.1014
-12.6783
-14.5179
-5.69775
22.7551
46.768
54.4586
25.8054
-34.4968
-36.7783
-40.0465
-43.4897
-8.97232
-11.6987
18.1588
41.5396
-16.3084
-24.9069
-16.3114
-21.9873
0.0956808
-13.773
-31.796
-17.6932
33.4079
49.3588
-19.0463
-12.6164
9.07758
8.49783
6.13329
5.14517
19.7931
27.4419
-22.5064
-41.3541
-8.58008
17.4018
18.3228
4.81306
18.4223
23.7707
-20.9894
-18.5912
-10.1008
-7.80085
7.43812
4.97538
23.4861
18.6839
-6.39703
-4.18703
-23.9154
-32.3298
-0.586521
12.6466
46.8927
39.5237
-6.04095
-29.2512
-21.2132
-31.8957
-25.5458
-18.6447
-1.84228
19.7185
53.5524
-13.0904
-35.3846
-23.1697
14.7258
10.1083
5.99062
13.8687
39.7444
45.4435
-33.2121
-37.1197
-5.41056
-0.0986852
-6.16003
7.57954
31.1255
42.3088
17.2538
-32.9633
-41.0248
-5.51102
3.75297
5.52297
8.66413
32.0135
-8.84005
-31.8652
-29.0817
-19.6695
7.5972
1.72338
21.4833
46.2713
-6.7082
-17.491
-11.6161
-20.2378
-23.9279
-14.1022
9.12939
47.1
3.15633
-17.486
-27.6881
-36.5776
2.81272
24.535
36.2157
45.9044
-0.578412
-25.2104
-30.2701
-28.2527
7.97525
16.4983
11.6381
-2.71486
28.1489
25.7306
-45.4147
-40.7389
7.12351
17.8379
16.0774
11.7218
49.8859
47.4153
-35.4118
-60.1488
-22.1421
7.25833
10.2421
7.6099
48.6641
61.1001
-8.87064
-43.5754
-40.8778
-27.843
-4.4657
-12.3761
-5.42464
25.7136
21.8056
-27.4043
-34.8898
-26.8855
1.77417
-4.12439
16.3754
59.572
51.0125
-22.0805
-55.8171
-53.4143
-0.534681
26.3323
28.2858
56.5648
97.6513
-6.33
-49.35
-56.061
-40.2034
-4.30225
-12.7852
-16.7053
2.40142
17.6773
6.46277
-27.4196
-12.7942
13.7495
7.29916
1.2987
15.5813
39.0909
17.1652
-36.2053
-51.3343
9.3543
30.1252
25.2303
25.3954
50.7327
-0.613649
-21.4544
-9.10787
-19.4759
-10.7215
-8.49274
-4.98311
45.6913
-12.9325
-27.0989
-17.0981
-19.2567
-22.6846
-4.5081
24.5071
50.55
12.9792
-23.0634
-26.2537
-38.1667
-14.0053
9.11756
28.4058
45.3371
-5.20274
-32.1338
-23.4208
-25.5921
19.2231
23.8083
19.103
2.65889
21.8586
59.3014
-38.4221
-44.2026
-6.01127
7.67109
3.29304
-5.51117
0.479408
32.2535
60.9451
2.81583
-35.2426
-23.8294
-39.6115
-41.9943
-13.7383
-18.9609
-3.51252
45.1886
-0.815188
-43.2569
12.7829
18.1654
12.2263
20.2791
22.3084
39.6112
53.4099
-24.5926
-53.3328
-34.8006
20.833
32.1855
22.04
42.0788
24.2422
-13.0483
-15.1983
-32.1168
-25.7683
-26.1992
-12.9809
20.8082
6.38861
-12.3603
-34.3548
-57.6559
-48.8489
-4.90596
-5.52952
5.95708
48.4692
78.4107
24.8526
-19.0748
-13.6632
8.04676
4.898
-19.5289
-13.9691
8.06821
-20.7483
-34.0616
7.3601
27.0946
21.9868
20.9175
46.1131
46.0129
-24.3615
-12.8604
-11.1564
-34.7817
-13.9304
-0.582098
48.5445
46.1553
0.234991
-13.0512
-15.9533
-19.8327
-2.77669
10.8036
6.39701
10.6021
36.4549
-30.5406
-64.329
-53.7918
-9.08582
-12.1066
-30.2592
-1.55657
30.4684
-17.4911
-22.4362
9.15582
23.8891
10.8261
13.5072
21.5379
52.8746
50.8032
-17.8694
-36.6413
-38.667
1.91027
10.3375
0.837181
2.0425
24.1618
54.5188
-26.2671
-28.0341
7.6211
-0.244741
-12.1156
-2.96356
32.6711
9.13479
-9.97009
-22.411
-34.3578
-15.5664
-13.2705
8.21678
61.4638
-5.10867
-14.1849
-1.43795
-15.7641
-27.4889
13.2727
31.6224
38.5261
-4.57189
-18.6411
-13.9929
-24.0036
1.93454
11.7944
8.5975
12.3401
-1.67735
2.7464
-19.2207
-38.4439
-2.89287
3.26131
5.76901
-5.75898
28.0213
46.3533
-20.5831
-19.9296
-1.09204
0.104866
4.98591
2.99348
9.5801
40.1382
-24.157
-51.8692
-22.0412
-12.723
-9.35609
-3.52124
30.5836
61.541
44.6955
-18.7899
-39.8083
-31.7259
-2.88975
5.33048
12.3318
22.0664
31.189
-10.7174
-30.8258
-39.7973
1.97949
16.9566
39.1288
41.514
53.871
-24.6942
-37.8949
-50.5433
-41.232
-4.49943
1.69858
22.2676
57.4525
48.2443
-34.4255
-52.8023
-54.5432
-31.588
3.37861
5.79007
13.3038
57.1228
54.1552
-37.3336
-54.3537
-11.2878
-14.8778
-10.7841
10.5439
50.1134
41.8203
-12.0083
-14.2975
-9.74941
21.1835
22.6734
11.6233
45.8517
28.4885
-18.3259
-22.1203
-46.6803
-39.0948
4.40238
9.44035
31.7188
20.5373
-15.67
-15.5526
-13.1915
-20.0041
-5.40935
0.521591
38.6518
22.8465
-23.9928
-15.7277
-31.5739
-35.2815
-10.7844
3.31003
25.9112
61.5284
1.87145
-48.9035
-44.4442
-28.4014
1.1435
20.7162
6.18677
26.1812
62.8179
-5.70574
-49.2569
-12.6159
16.4681
18.174
12.0307
3.42019
36.1254
84.9775
-8.57729
-64.5034
-21.1729
-0.0472724
6.5685
12.8227
15.0438
16.7274
16.9454
-63.1654
-64.713
-2.73663
2.9727
5.93846
26.4355
30.976
40.655
-12.504
-46.1243
-69.1458
-25.1461
-4.36344
20.1223
39.6829
45.4471
-10.1111
-1.7085
-20.6081
-22.8578
10.7969
0.867919
27.8387
58.6676
4.74755
-42.6739
-47.3486
-48.1788
-2.73313
3.7875
-6.21096
6.98338
26.6112
19.7238
8.54627
-13.7997
16.7219
13.4734
7.43554
10.4764
41.309
-5.50534
-25.9487
-35.5042
2.24654
29.909
15.395
27.4343
44.7016
-4.60949
-29.8636
-26.7099
-30.786
-0.0327741
1.33851
18.9279
24.7934
-26.7212
-33.0216
-29.7949
-29.1713
-14.5688
-20.0013
18.8902
76.5365
21.6299
-30.6523
-56.4102
-36.2901
-3.70643
8.26175
15.526
19.938
64.4757
5.91372
-45.8032
-30.5437
14.7393
27.2721
20.2724
5.45702
8.3695
25.2741
0.426491
-50.6569
-13.5577
20.4425
16.607
3.19526
9.5223
5.65087
11.491
10.2514
-30.821
-12.3467
-12.4357
-3.5672
9.09554
8.71419
54.2579
34.802
-43.3446
-59.8276
-68.0182
-39.409
8.16722
22.9081
35.1172
1.37204
-20.8187
7.09462
15.9799
12.3524
11.1583
26.2736
48.6267
-7.62971
-22.8521
-29.2076
0.34762
8.68147
-9.13631
13.1421
52.422
-18.2396
-16.3236
2.06916
-10.5764
-4.66581
-0.628968
-7.08223
13.3876
29.9515
-25.9502
-26.8119
-28.3095
-6.24228
1.61259
1.13934
22.8972
40.753
-9.92782
-31.1474
-44.2144
0.753445
1.55396
2.29106
29.873
47.2337
-7.34594
-10.0209
-10.5416
-28.2812
-8.79469
0.0530763
17.594
8.6732
-17.3563
-19.5112
-20.9543
-11.015
24.7736
19.8541
29.6321
26.3186
-0.398385
4.69268
-14.2888
-20.2352
9.15132
11.165
26.5577
38.2236
22.6576
-37.2093
-37.6488
0.143308
3.02881
-22.4467
-8.71437
17.2534
52.0088
0.195175
-35.8292
-20.4489
-3.50552
-15.1436
-27.8179
-17.2977
29.3661
4.69871
-16.1425
-31.334
-23.5638
21.2644
20.0621
9.38223
24.0299
42.1884
-2.45863
-29.7674
-47.6358
-17.6933
0.744939
16.9213
39.4433
41.6152
4.47215
-1.04471
-14.5359
-7.89105
-6.1543
8.57306
59.4942
45.9021
-21.6252
-26.0037
-24.6262
-32.3994
-22.6836
-17.2682
4.66785
50.8613
2.13927
-36.5368
-27.4307
-17.0547
-1.4378
-9.39465
-13.6607
2.08971
48.9571
23.4377
-34.9521
-22.2709
11.8354
26.153
29.4627
31.5295
73.9782
24.0968
-37.8397
-54.6714
-30.2199
-13.8907
-20.2238
-10.8863
23.0721
13.9621
-12.7498
-18.3751
-41.2701
-14.2809
25.59
32.1655
51.0024
33.9553
-7.83265
-19.3463
-40.8521
-21.6299
-4.07838
-9.92187
33.5893
21.2524
-12.1511
-24.7229
-10.1823
1.18164
18.6915
21.9041
11.1368
9.59752
18.2821
16.7242
-43.1296
-37.3022
-18.0142
-17.7607
-16.1552
10.892
18.8339
34.6411
30.7464
-5.85535
-13.7282
-7.585
-16.9212
-8.89974
-4.43508
-3.38417
29.6429
30.2211
-31.069
-38.0112
-6.37491
-7.28606
9.45424
28.6791
55.4672
21.4896
-14.2606
-34.9569
-39.1478
2.51096
23.0831
28.132
50.8474
0.209288
-9.59826
-11.9677
-27.1285
-25.1702
-6.03878
3.76896
61.3742
27.48
-53.2046
-61.6036
-60.0206
-11.3972
23.1612
20.7242
33.6627
21.4909
14.4209
-1.16603
-36.1175
-8.82347
6.8526
6.41362
-3.94865
27.1089
10.1131
-15.8483
-41.1046
-9.26916
40.6979
22.5461
15.5023
45.5337
-7.32311
-48.336
-53.1946
-42.2143
-25.0903
6.71755
20.9917
65.8135
62.337
-0.511551
-11.6047
-28.2663
-10.6428
1.83964
3.56166
10.2174
42.4863
44.5022
-29.6477
-61.4788
-25.1132
12.104
6.62096
18.6893
40.6852
16.9326
-41.6675
-52.5395
-46.0425
-3.5344
-0.89855
-11.8806
30.0955
1.6334
-8.25607
1.4672
-8.99226
-15.7967
8.17602
4.58235
19.588
40.1836
31.8737
-10.0999
-6.46792
-14.2746
3.55189
-5.96347
2.87664
63.3292
25.6563
-39.295
-43.7468
-15.4649
-15.208
-13.9091
-4.52511
34.9966
51.8123
-30.3985
-22.1236
-14.3415
-15.4166
19.4349
8.1213
33.6426
2.63716
-16.738
-13.143
-31.0972
-14.6654
13.1489
21.396
67.3353
62.2619
-32.4893
-37.9208
-49.3717
-41.6857
6.34115
10.4146
16.7231
52.5464
-3.22008
-28.2887
-38.4568
-1.02715
6.98208
-5.14595
-13.5321
5.7148
55.1609
21.5755
-52.2833
-32.7888
28.3092
24.8809
9.52058
-4.73198
-3.44157
5.68465
29.9954
-22.2539
-34.6813
-17.0852
-9.03111
-4.48574
6.46966
20.1492
29.7266
36.536
-35.1283
-33.4488
-3.99468
-14.1801
3.0629
13.8019
12.9046
20.5397
-1.06864
0.0278839
-24.6342
-15.7175
24.9149
2.28893
9.14423
33.4781
-17.2454
-12.5967
-9.64214
-12.8266
-2.65601
-14.4037
11.5366
33.9057
22.0054
-17.8599
-23.9086
-24.8247
-4.10719
-3.71034
-5.39333
-5.83871
43.5961
41.9718
-38.7652
-36.1759
8.96824
3.63362
-8.86732
1.67361
50.5498
29.2277
-5.90472
-22.6807
-6.42328
11.2462
7.41048
20.4252
38.7332
-22.5587
-38.9809
-44.6081
-38.2615
-15.0485
14.8029
29.1328
44.2363
-32.0366
-37.5608
-24.6886
-9.12772
9.80214
15.0524
49.9445
70.1402
-2.91102
-34.672
-35.8522
-22.0241
12.5296
4.74462
14.1189
27.6815
28.2479
-4.60709
-35.5851
-36.1483
7.52585
13.3571
0.0465362
-17.0017
3.03694
30.9677
0.925354
-62.5505
-20.5214
10.1223
9.9783
23.5686
29.7646
29.5914
49.4109
-11.3619
-32.9393
-2.34651
-6.70463
-7.91631
2.87385
5.41616
12.0246
4.46826
-37.4053
-37.1731
-41.2658
-4.37894
19.1605
24.0313
33.1198
-29.2625
-23.2313
-23.2375
-24.591
10.2113
13.8052
28.9697
35.9861
-20.2552
-7.96119
-1.3247
-2.91765
-7.38552
13.5362
23.84
83.3573
72.4248
-29.4227
-47.2586
-46.8716
-14.4466
-13.2406
-5.86493
7.64465
47.1593
-14.7912
-34.9949
-31.5604
7.23795
17.2938
6.62836
4.82547
43.2623
-1.21565
-32.8047
-57.6346
-36.7422
24.2006
32.706
44.686
47.246
-6.81052
-33.0899
-34.0692
-39.0881
-2.08408
9.18094
9.07461
24.1987
60.5499
11.931
-29.0977
-42.6763
-11.4887
5.18376
-9.30045
-0.275297
70.3432
9.62136
-49.9243
-42.5035
-2.04866
17.8762
-4.18948
-20.1201
27.1597
72.5054
-1.97178
-56.029
-57.5285
-20.1959
-3.24172
-1.66943
27.1638
35.4194
47.1414
-23.9927
-35.4119
11.0853
13.1505
1.73462
19.6011
32.8217
45.9065
-7.61751
-18.8412
-33.7197
-0.0694638
16.3989
-12.4157
19.4652
15.2798
-24.2396
-8.73097
-16.2873
-41.8733
-2.43657
4.36689
28.146
7.62677
-15.0437
-8.2216
-16.4089
-31.4824
-9.11054
-10.4526
18.3199
56.2194
-9.54453
-12.7668
-17.281
-11.6006
2.25998
11.7231
21.6695
27.8833
10.5955
-22.9615
-23.4174
-13.8461
-2.15313
4.54286
9.92559
18.1146
57.7058
43.3998
-56.0373
-62.6098
1.72167
5.53966
4.70262
8.95359
7.28157
19.6667
16.7934
-37.0027
-20.6245
3.25158
7.73899
14.482
18.9169
36.0549
63.4974
-28.5441
-78.2442
-57.6494
-21.2897
-6.73884
27.5428
35.05
29.6928
-15.9574
-20.1331
-14.2216
-3.47804
11.4734
17.5865
35.2364
34.6638
-19.9324
-27.751
-31.4748
-48.3053
-4.65857
17.794
33.5687
68.9263
-3.00127
-20.2111
-20.1665
-23.9972
-0.602976
8.42519
-4.99378
5.06822
-11.5349
-26.7871
-19.5401
-17.9872
19.0273
20.8804
11.3085
28.9373
13.5528
3.16548
-12.2447
-30.7403
-4.16452
2.63493
14.5992
26.6856
-1.29721
-10.9257
-6.82255
-7.65346
-0.225302
22.0279
34.6032
42.8977
-21.9307
-27.5605
-20.9782
-33.4623
-4.54319
6.07947
20.9356
48.0951
34.7896
-37.578
-62.8098
-60.2784
-20.9681
3.00555
17.7181
16.2565
35.03
8.70163
-29.7162
-30.2325
20.906
19.8216
4.30784
-6.78147
7.88887
54.2327
29.3372
-73.4761
-52.9434
-0.100939
19.5324
16.5097
31.9486
33.1582
25.3611
-28.1421
-29.3129
-0.2336
6.34226
-9.87247
24.3139
54.5889
54.5644
-12.6444
-18.2868
-41.256
-40.5645
-5.91875
5.90986
51.4974
23.182
-24.2221
-26.517
-24.5812
-30.3939
-16.2879
5.41273
41.3487
31.9017
-19.6911
-29.8481
-39.2998
-32.6783
-8.15065
-9.88097
-7.64513
35.5459
15.6993
-27.8125
-26.9336
-10.1595
13.8287
22.28
18.0947
10.5586
25.7013
18.0789
-24.7416
-11.3515
10.169
9.56993
2.39039
1.89622
37.7078
38.8082
-14.606
-39.6219
-8.74383
14.2079
13.1743
5.91658
28.3671
53.4031
-0.250328
-33.5879
-38.8307
-41.8977
-18.5205
-11.5132
-4.32202
14.0072
27.8754
10.7387
-32.5718
-25.0144
-3.44053
-15.4688
5.7231
28.9014
49.266
45.6603
-18.1343
-46.0256
-20.9619
-1.23637
9.61657
14.6133
28.3242
32.0265
-9.8165
-39.3001
-36.3605
-27.2383
-7.00363
-9.95106
-7.6327
25.8835
32.9797
-11.6684
-28.2522
-12.6065
17.9253
15.5167
27.9486
50.8831
13.6481
-19.8037
-24.8175
-23.4538
3.46735
10.5753
14.5574
25.8636
-16.8408
-26.5835
-5.4053
-8.19821
-6.30859
15.7644
23.628
18.8767
-40.6573
-40.3601
-21.1337
-20.5217
2.13463
20.9176
57.0081
39.8638
-33.994
-33.7568
-23.094
-19.0119
7.54781
26.9626
31.2226
50.9914
7.59814
-24.5839
-45.4469
-40.7615
11.992
20.7035
17.3467
-5.38204
6.18339
35.7179
-24.5031
-25.4046
28.9533
29.1006
5.95422
-3.55883
17.8223
40.2761
48.5741
-62.8917
-68.6867
-18.7566
-8.20659
-14.6933
-3.43275
8.3507
34.3527
8.31285
-21.4304
-36.9028
-22.008
-21.1
4.91324
23.1368
39.7534
-1.54946
-17.5696
-27.0094
-24.6952
14.0954
20.7794
29.1933
39.6375
15.3607
-8.59709
-19.3448
-31.8912
-0.513708
14.0639
1.73901
27.7621
44.7868
-16.6398
-32.4516
-37.0483
-14.0047
-0.00947297
12.8018
6.7866
22.844
-3.09489
-15.3388
-27.3513
-6.38738
23.8478
14.9123
6.46676
33.917
13.0579
-23.2623
-39.6554
-34.0774
19.519
26.4682
13.9551
36.487
0.636622
-23.6941
-29.6649
-31.7759
-2.35755
-2.73764
-1.66981
35.4164
6.54313
0.0064873
-5.93038
-24.9085
-5.45254
12.3076
22.0173
45.1614
27.2563
13.0962
-33.725
-36.251
1.74853
4.71639
-5.27206
-12.6154
17.4449
11.5891
-19.5507
-31.131
-5.04298
-1.18331
-2.55582
-8.10693
2.76154
69.5522
33.3026
-78.5127
-46.8676
-21.697
10.0151
13.8362
11.0114
18.5698
46.299
-16.6729
-24.1044
-11.022
-2.14375
-7.19606
4.9937
26.2392
36.4608
-8.11246
-8.75743
-20.8492
-15.9564
1.7076
9.61981
43.9253
49.1961
-20.2943
-16.6974
-26.581
-34.8195
17.5903
28.5694
56.7163
48.3062
-43.1153
-40.9168
-34.1855
-31.9595
-2.43479
-4.73457
-30.4763
-4.64595
18.8526
-2.43622
-20.3207
-15.8376
14.0286
18.8418
22.056
7.52774
26.1264
4.19171
-39.2862
-26.2884
18.0074
22.2722
5.98304
12.9105
45.3566
24.6186
-16.5703
-29.4933
-16.8539
3.14427
-6.72089
-17.0263
19.6733
50.8921
3.41652
-40.46
-32.3449
-14.3626
-0.628479
-10.9814
2.5555
21.336
61.8247
-20.145
-45.2881
-20.8542
8.27969
3.54887
0.218586
11.9101
44.1865
15.1215
-38.3944
-58.7993
-18.6624
7.18555
-1.80748
-5.62875
13.9033
71.3218
32.2432
-50.9157
-77.7626
-19.0635
0.0448331
14.493
20.7849
20.3155
50.3347
32.2589
-16.9502
-5.29726
9.44992
-1.69146
-10.5875
0.60631
30.9772
18.0612
0.633626
-33.4184
-14.1185
27.3262
16.171
34.1813
56.2526
-26.1755
-43.891
-40.7842
-49.845
-30.1492
-10.2705
12.6387
27.0397
-11.051
-5.6942
-5.16108
-18.4319
-5.61475
-8.81525
0.471016
17.5062
2.6004
-22.8254
-12.6228
-22.4484
12.3722
18.3591
15.282
38.9226
58.1553
-16.1806
-38.6216
-19.8768
11.402
19.5893
14.1848
0.778968
9.81585
54.3416
-21.1504
-50.0253
-10.5566
15.6817
3.57154
-11.303
4.83541
16.0691
32.9695
-13.0033
-37.454
-4.94093
7.97214
11.8368
1.16087
27.9609
43.4729
-38.8592
-63.3311
-66.0024
-11.0109
11.2746
4.60915
6.83891
40.1217
12.5098
-18.0742
-15.0797
-11.8085
10.3309
3.58928
18.8456
54.1679
29.1708
-8.54536
-44.1336
-42.2468
1.13522
17.9857
-2.7958
-8.92403
22.9194
80.2801
48.3063
-54.6133
-68.9137
-16.2516
-5.45929
-9.30603
-0.53745
18.5356
43.1094
-41.5448
-44.6964
-10.9624
2.87467
3.41692
20.3774
26.6543
35.0093
-5.02629
-13.5034
-37.0442
-26.3743
6.635
35.262
46.6467
50.3411
-2.34883
-20.712
-26.3533
-34.4045
-11.4582
-1.06331
19.095
32.8904
2.12367
-1.72801
-15.9893
-28.8221
3.58023
4.43828
-9.27049
27.0129
6.73278
-14.0846
-17.5197
-22.0849
2.44474
-0.91974
20.6221
71.0763
30.8907
-54.3283
-56.0081
-47.2223
-18.5745
-2.81761
-5.55101
-5.63642
27.1523
44.4815
-0.502554
-44.1012
-19.9686
18.5583
31.4819
13.2693
6.41409
32.8179
6.80688
-45.9688
-12.4597
31.6081
36.4195
22.6546
11.0667
39.0745
1.53902
-22.6483
-25.6786
-33.8506
-11.226
4.42517
16.8346
26.952
-7.78409
-31.7985
-4.49307
-3.49401
-15.9813
-25.9268
-15.3853
23.7636
64.5924
-17.3569
-37.0045
-55.251
-21.9826
-6.90552
-4.78885
16.4036
56.2098
9.98782
-9.03348
-18.4381
-19.0346
6.86091
12.0139
0.523718
32.5662
19.5068
8.92568
14.4648
-17.8821
-1.45161
6.4326
19.4909
58.6488
22.4184
-12.1702
-32.0153
-44.6625
-13.041
-1.20303
15.4681
77.3852
20.3766
-56.1245
-75.0782
-60.4697
-25.5838
-5.28812
-15.4901
-16.6062
39.1844
45.0075
-7.60891
-14.9129
7.75236
5.65687
-20.1404
-28.8609
31.7489
69.9939
14.4949
-18.3986
2.71922
28.2428
32.8108
6.52921
-0.357643
57.4664
27.6883
-62.0882
-68.1736
-38.8612
-3.04796
-12.4823
-4.00355
3.6676
35.5895
12.7981
-36.1048
-29.6337
-13.3801
-15.9857
0.197358
14.0338
53.0978
26.101
-9.91191
-34.0542
-23.9922
14.1332
25.1859
36.0934
72.0228
12.367
-41.1943
-30.7111
-33.528
-20.2839
-1.92028
3.20417
22.0164
-15.0763
-11.8366
9.98979
-8.67561
-5.70514
12.3542
6.58242
19.534
51.3041
13.9905
-31.1965
-55.6905
-24.4333
16.0437
19.1656
8.48859
29.2062
62.7143
-28.5047
-83.3627
-46.2318
-17.5616
-12.4905
-16.7775
4.17632
72.4444
49.8184
-26.5661
-33.3053
-15.8146
-11.706
-16.6317
17.8025
36.1711
44.0465
65.2974
-20.6855
-55.7736
-13.5159
14.8267
9.9538
7.67058
11.2615
38.004
26.7065
-65.7656
-59.0322
-4.98144
-10.1227
-7.73187
19.1894
54.0622
17.3172
-12.7104
-33.0136
-56.7154
-8.07635
0.0550682
20.7239
45.0252
82.0818
11.1641
-42.4066
-44.0045
-35.043
-6.27927
-2.81271
6.48212
11.6887
48.8443
31.0665
-36.3007
-30.134
-11.8892
-3.79893
-13.5492
-8.31935
16.4312
39.432
-2.52248
-31.9973
0.378338
22.9203
6.29598
4.58288
25.9144
21.0193
-6.9385
-9.28731
-23.7707
-22.3953
-9.56314
3.62808
19.4528
39.1201
-11.2352
-26.613
-36.2997
-37.2088
-6.60002
-12.3511
17.7647
34.6522
-5.91818
-2.94292
-2.12675
-1.1247
18.7395
17.1282
6.09136
27.7842
32.1169
-22.9929
-28.3359
-35.0772
-10.2085
4.84917
0.161289
8.75658
45.1748
46.0251
-22.133
-46.8897
-20.414
-10.3017
-10.81
-13.3481
4.27855
26.0477
52.2653
-24.268
-36.8533
8.11524
12.6098
2.84379
12.7517
31.7636
47.1976
-22.7418
-38.8484
-38.199
-0.833457
12.1056
16.8445
35.2653
31.1252
-1.93481
-7.30256
-19.9944
-36.6335
-3.98247
7.20069
37.5733
-8.03701
-27.0509
-8.19404
-8.52437
-23.9988
8.73519
-5.28948
2.71357
46.0613
-10.9668
-18.523
-28.4306
-30.8826
-11.6271
-4.31237
2.8221
29.7982
25.6272
-27.7602
-32.7539
-8.17243
5.2792
11.2948
16.8336
34.6644
1.36085
-10.8183
-13.7596
-13.4831
27.4157
24.0296
21.3933
33.1264
4.44228
-0.426291
-6.28857
-32.8103
-17.2925
12.3094
32.9846
57.54
15.6974
-36.8723
-40.7807
-42.76
-10.3598
4.60058
0.437362
-10.4812
25.4743
43.6278
-20.9543
-36.0016
-3.78108
2.4021
-3.4484
-14.4594
-7.6813
32.6129
23.0411
-33.9992
-19.1952
3.49476
3.86775
-0.865256
13.3541
18.7872
30.1101
-11.9261
-26.353
-25.357
4.00484
3.85335
9.33771
18.9709
28.1473
-26.6353
-17.5024
-14.4037
-20.2905
1.03547
8.12996
41.1539
26.1815
-15.1198
-11.6522
-14.419
-18.5966
6.90068
15.3998
35.5821
29.3178
-35.2189
-40.3518
-29.7698
-19.7497
9.84788
4.85778
17.9485
2.14174
-9.86223
12.5374
13.0902
15.2913
19.9626
14.3897
12.0089
21.5703
21.1233
-26.1626
-44.3437
-37.5837
-1.29803
13.1835
-5.82734
-11.6075
22.0751
-1.06995
-36.9037
-23.927
5.4365
4.66628
6.72658
17.0429
40.2414
30.2359
-24.3435
-38.8506
-18.9133
12.2499
-0.129841
4.1881
18.5142
32.7385
60.4014
10.681
-10.8386
-4.03156
-5.75469
-16.3229
-12.4461
-0.778286
0.608121
-44.9666
-68.7935
-38.5279
6.5912
3.24275
-1.94192
17.3436
24.6746
-0.242
9.66189
6.16678
-14.2068
-9.28774
-17.1017
-4.14811
29.2396
23.3307
6.98717
9.18551
1.50494
16.3005
23.7824
27.3566
44.9945
15.7959
-29.859
-23.8182
-12.1588
6.63943
6.8719
-3.73639
6.02371
5.77824
-25.6892
-17.0306
-22.0884
-17.8488
-5.10865
-5.43353
22.3237
15.4166
-24.0599
-35.1991
-29.7372
-24.7256
2.75928
16.5607
39.8704
35.9124
-17.2313
-17.9966
-20.3978
-8.03654
15.1019
32.4337
47.0032
10.2837
-19.9947
-16.9861
-33.4878
-16.7674
13.8242
4.29557
-11.7619
24.4611
33.4419
-24.6881
-28.1249
8.57794
51.669
40.3723
27.5051
30.4582
72.8084
47.4219
-70.9258
-66.1343
-37.1719
-45.9526
-52.8641
-41.3597
-44.0868
-17.3648
-28.8312
-49.9828
-32.4708
19.8631
37.3702
29.5986
29.8537
60.592
36.6369
19.9794
1.76981
3.2824
42.3034
47.9922
79.6723
94.9173
-15.2404
-50.9479
-26.3859
-24.3644
-12.9074
-31.7915
-23.8078
23.703
-13.4662
-36.0717
-33.4438
-72.7009
-65.7722
-15.729
10.2503
30.7802
95.9503
32.5333
-6.66169
-15.7892
25.9726
34.2547
23.4743
9.40591
40.3919
76.9348
-22.9908
-142.913
-145.07
-95.2716
-45.0442
-18.4676
-26.1762
-26.4755
-36.93
-14.6228
11.2897
62.5771
38.2716
-8.80843
-10.6674
46.5477
27.4898
51.0307
79.1477
84.338
111.668
111.112
109.82
87.4965
24.7394
-55.6894
-63.4264
-39.9495
-43.5809
-70.5735
-71.8201
-33.3545
10.5114
-15.1608
-51.183
-66.9726
-36.7676
-39.5728
-9.15502
-49.8154
-65.371
41.8549
81.7991
-29.7849
-78.1574
9.94561
109.097
89.3809
45.7745
13.9626
10.6611
-18.4398
-104.345
-28.3593
59.4599
3.89696
7.36503
16.4209
-9.02694
0.564481
67.9659
62.9307
28.2007
35.9807
23.0257
26.148
28.8025
-29.8083
-82.161
-54.6922
-21.1902
18.359
32.2508
42.4925
-23.4444
-103.208
-121.901
-132.056
-153.515
-109.562
-20.4639
51.0453
81.6939
84.4189
105.442
83.5775
54.3782
106.629
140.378
32.7982
-84.0763
-59.6055
-26.2284
-62.3129
-20.2826
21.4684
0.64178
43.0932
103.376
84.289
-0.293177
-68.585
-82.1091
5.88935
69.2447
48.6584
-43.3632
-91.2126
-147.595
-191.032
-99.0732
-34.4599
26.2833
50.4077
53.3157
111.017
109.368
-5.11788
-64.9558
-30.1599
33.123
79.3471
36.443
10.1038
36.3789
27.986
26.1696
9.82368
3.47421
38.3564
26.2686
-32.9551
-9.47865
-54.8523
-79.161
-53.0256
6.27382
58.5439
10.127
-24.8297
-51.6825
-50.6082
-24.8508
-43.5967
-51.9808
-30.3558
-10.942
-27.4235
27.4952
140.288
180.621
92.8448
20.0422
28.5021
81.2068
80.0584
13.7222
-25.2322
4.61794
-49.1982
-71.9009
-102.258
-100.019
-67.3475
-46.9995
13.9924
59.6944
24.0797
-3.26506
-33.9974
-83.5565
-80.6198
-56.9001
-26.8178
-20.9875
-46.0305
10.0696
31.0638
28.9283
56.3557
41.0436
50.2764
83.9358
28.2955
-5.92903
-4.87369
-8.88327
23.2645
66.6696
62.8612
29.7608
36.8815
-44.3014
-71.1344
-23.6658
11.6494
-1.03779
14.6553
21.9631
22.1648
36.9428
-28.8539
-90.119
-53.238
-59.0323
-48.3159
-61.119
-49.8331
-9.64664
53.9708
48.8727
33.9663
89.9809
69.8285
0.499298
-24.5667
8.53172
69.9925
36.4718
-40.5698
-50.0473
-13.5946
5.49245
27.2224
24.5777
45.5835
38.9159
-13.1171
-60.2457
-124.394
-130.375
-52.1096
29.6203
88.7195
95.6864
-9.15216
-65.8336
-107.525
-106.275
-16.7789
37.1372
74.4109
105.109
109.122
68.1348
-64.4282
-71.9713
-4.19653
14.8164
0.0626735
19.271
58.9026
24.2585
-44.8058
-25.1711
76.9233
82.3301
47.5629
24.4598
17.5725
-46.9422
-124.289
-151.331
-107.699
-51.5129
7.52194
46.7985
94.6179
70.1197
38.4576
-14.2452
-41.6147
-16.6017
30.4027
27.6101
16.8934
7.12185
-36.5837
-85.9599
-74.0669
-30.4588
2.4545
36.8453
38.8222
22.9352
22.9649
21.208
-1.34753
-15.8752
15.1926
14.1678
-0.085194
-36.8986
-47.7008
-16.3859
44.4537
-12.2013
7.6509
43.7271
57.819
87.7523
79.0793
4.55719
-43.9264
0.0670523
19.5043
-18.8822
-41.8651
-23.5062
12.348
54.128
62.3848
99.368
30.5414
-112.988
-145.464
-115.592
-99.904
-48.9626
-49.1413
-17.5735
-0.889552
3.3296
34.1734
49.6208
24.9804
-3.67993
-12.6796
22.3646
-19.2124
-55.8596
-48.7794
-23.9033
47.5203
107.649
75.7375
117.864
115.906
75.5694
0.0964396
-43.5216
-38.4646
-37.0327
-25.6641
-20.5174
-6.69056
59.3426
-9.45927
-125.314
-56.0989
37.7087
51.0377
7.86639
-14.7999
2.17448
-11.906
-57.1313
-5.53996
21.5861
-4.56867
-52.2614
-34.1264
60.4374
10.1018
-74.8126
-96.7373
-83.431
12.0564
108.925
96.9967
56.754
32.434
22.452
-16.7069
-53.0886
-24.486
18.8617
8.76986
9.39395
73.3522
67.0933
23.6816
-41.158
-47.3423
-12.1258
8.48754
16.3256
66.3769
94.2111
41.7535
-84.9964
-128.593
-140.044
-65.4266
-5.41278
28.929
-10.0289
-8.67325
17.9378
-2.42057
-11.052
-5.45254
6.12595
50.3529
59.3038
70.6767
-11.4739
-82.0438
-86.7019
-32.5496
56.0354
73.42
53.1797
56.0854
-11.1169
-59.4596
38.028
40.0378
19.611
18.784
-9.14729
20.0843
3.66711
-0.606943
-43.9422
-96.3779
-21.0632
30.2222
-8.17917
-29.5416
-25.7275
-13.3335
-13.8318
-16.2035
26.199
15.581
-24.8507
0.910929
16.1035
-2.08494
2.78284
-17.268
-6.74705
-12.3285
-1.99467
49.3708
63.2448
61.3947
33.994
-35.9168
-33.9665
-50.1401
-23.0891
26.3288
17.1292
-9.42135
25.235
15.8175
-37.1658
43.6207
61.0809
22.4926
25.4882
12.4302
1.54532
-22.8317
-70.8825
-83.8172
-56.4045
-4.22884
-2.47077
32.5672
53.8306
20.8828
41.0466
56.5466
4.58487
-97.2762
-104.397
-47.1608
12.9756
-50.4122
-47.9155
-33.0493
-15.3905
5.72754
36.8916
39.9731
51.7108
40.4068
29.7364
3.66604
15.5304
0.407598
-11.2824
6.30216
-1.8094
80.4313
125.559
24.5451
-19.9422
1.38018
-11.6593
-20.6451
0.631422
19.3796
-0.100574
-38.1949
-30.5725
-5.90091
-3.30738
-7.47334
-27.3171
-11.3094
-5.06178
-15.5169
-39.6135
-61.9921
-33.9752
-9.78698
-53.1991
1.99349
64.718
-0.904454
-24.5199
-31.4547
-24.8657
31.4144
48.5085
25.0694
16.8013
-21.714
-25.4534
-25.9143
-10.7978
54.7217
88.083
86.6443
70.4005
31.6558
30.6399
-47.5441
-72.2993
-26.7613
-34.2506
-30.6199
-24.4716
-12.7503
59.987
55.6302
-15.756
-30.8564
5.74602
26.2234
23.804
-4.55905
-46.7792
-68.2753
-65.0855
-48.3652
-0.392294
46.6558
16.3581
54.7335
66.6177
35.0893
37.5411
8.24146
-31.4968
-20.8024
26.1578
37.6954
-0.766763
-26.9134
-41.4383
-49.4847
-2.57903
23.2442
-28.0301
-56.1842
-51.2023
10.2319
38.3863
-20.5144
-7.77428
-23.9356
-47.4557
-27.4087
-25.8173
-2.8266
48.6063
99.1071
88.7463
-11.9383
-29.1691
-22.9507
-41.2801
-46.6531
0.645676
42.5561
74.6856
69.1418
13.0207
-23.553
-4.63511
12.51
29.7105
8.86141
37.3214
95.604
-11.995
-60.846
-64.6598
-14.1513
-1.63342
-38.9129
-68.3534
12.6409
8.49735
-26.0234
-27.7696
-4.08021
13.8806
42.2986
36.3684
55.775
42.9867
-0.640678
-86.5851
-125.235
-69.3611
-61.1918
-35.7366
15.5419
86.4838
114.016
36.6028
-35.8492
11.7061
42.2223
19.9563
2.14822
3.90936
58.5107
45.5648
-29.9199
-34.3705
-18.7804
-39.6957
-85.7373
-30.6421
20.0254
63.5861
70.5869
-8.16832
-4.34596
42.7745
0.271878
-59.2753
-70.4623
-43.2848
-46.5844
-13.2269
-19.4123
-22.7172
30.251
46.1871
78.5968
85.8664
21.3883
24.0079
-9.07976
-49.943
-25.2942
-7.37186
13.9569
26.2775
-47.5641
-36.6188
14.0575
-1.89434
-1.59526
-31.2656
-13.4445
36.6358
39.4624
-5.16085
-2.60937
7.54322
8.99175
-20.8185
12.2175
12.2688
12.2795
-12.3323
-75.3441
-26.2881
51.2584
28.2236
5.57077
11.4944
40.8588
90.1256
67.9247
-77.8054
-84.6534
-40.4243
-33.2513
-3.62094
43.1796
47.4773
59.4917
-38.096
-92.8731
-76.6051
-80.3499
-39.3488
18.6435
71.974
109.328
47.1361
-1.88446
-39.0334
-15.0312
23.7895
8.60764
-40.8271
-5.15503
-38.2523
-58.3873
-34.6277
-30.9287
-3.73848
-6.5419
28.9851
107.241
49.0725
24.1909
29.4015
-4.6697
18.9015
11.4565
22.8847
-14.4506
2.24537
66.024
3.90639
-62.3029
-29.4932
30.6183
53.3727
34.6079
11.0344
-7.11692
-37.715
-41.8321
-21.2954
-12.493
-6.3276
-12.1235
-35.2735
-38.0801
-60.3376
-36.5191
-21.5609
-46.6724
10.4864
10.2673
11.8572
12.9133
-32.1599
-32.0932
15.5367
24.8976
4.03049
-8.61718
62.7172
75.6814
-7.06372
-52.6819
-0.0132743
37.306
46.3022
51.0476
74.2935
49.8173
-33.8928
-20.1378
1.43018
-23.8264
-2.62188
9.78927
20.3221
13.2037
12.5546
-2.70219
-44.7321
-77.1455
-68.6866
7.79853
39.8
14.5416
42.3943
-16.4835
-39.5
-70.3271
-26.2904
19.3481
93.2264
81.7283
-29.0035
-14.9853
-21.5442
-28.188
7.35494
10.7134
-1.96277
8.12233
-5.72302
22.5147
26.9792
-6.1505
-55.6765
-32.5907
1.71423
14.3615
30.4267
19.7329
-83.3524
-128.932
-53.0802
-4.29682
64.3285
55.7204
18.728
32.0151
15.71
-11.184
-0.0401121
-46.6443
-11.6056
55.3278
43.3882
21.8176
26.0546
53.5179
18.3542
-28.7163
-25.8628
42.8557
69.8772
-27.0554
-66.3944
-11.3834
-13.6962
-15.601
-8.85809
-0.81989
1.84171
-11.5217
-2.80799
16.7893
-24.6781
-2.80017
-42.9381
-43.1198
17.1447
37.0168
76.5967
83.7118
-22.5465
-62.783
-61.7645
-55.7079
-26.6274
-9.10073
16.8876
52.4866
64.9021
14.0614
-52.1242
-78.202
-45.0604
-4.35437
34.0277
61.6991
62.0823
-34.5362
-81.5793
-64.9835
44.1324
90.1454
26.9145
35.9515
85.7084
95.0312
0.91547
-59.9196
-59.2647
-9.15429
16.0366
13.8657
35.04
30.8617
-21.3026
-119.988
-76.0155
-15.1612
-22.6908
-31.8124
9.4729
33.5176
32.08
16.7914
9.4405
-30.5859
-34.8958
-18.9246
18.7032
32.3441
-11.0623
-52.8464
-39.8234
-21.744
17.5967
66.9171
63.796
104.628
88.8458
-19.8985
-72.5743
-62.8396
-10.068
-24.9485
-31.4928
31.8444
24.8314
-1.84136
5.7966
-16.4841
-21.2318
-6.48149
26.9052
39.3574
35.9323
21.826
-19.9399
-43.9021
-54.9836
8.92588
10.9186
-30.1525
0.0694976
66.0477
73.5697
-20.9595
-31.254
-9.09749
-53.2039
-37.0289
-1.03104
23.0501
-4.9381
-20.8835
-31.6896
-12.8007
2.77769
2.95461
-7.09998
-2.81003
23.0814
68.1011
30.2665
-0.181879
-13.9909
-34.4996
7.4017
21.2343
-0.163452
-16.7201
-32.1168
-14.4687
7.89399
-6.39559
6.51003
28.5311
62.3629
74.4743
42.152
7.99585
-23.7375
-28.895
-24.8557
-34.3989
-31.7493
-5.42316
21.9552
-9.02862
-49.1061
-36.8157
-0.739818
14.6375
26.5841
9.98811
-0.97068
2.31763
-39.8048
-56.9191
-8.46631
30.9119
27.2826
19.5541
50.2537
54.4061
12.4118
-30.8515
-64.6525
-51.1407
11.3951
32.3581
22.4394
42.1871
35.1907
-3.3616
-22.1426
-23.9843
-6.92701
-32.1916
-8.70625
66.2027
44.3648
-45.7951
-72.5707
-72.0062
-46.1331
-38.8812
-31.0138
61.995
106.646
49.3756
19.7199
-15.1186
-29.8534
-13.6934
7.45516
6.8847
28.5763
87.145
41.7782
-66.2145
-39.6492
13.0798
-9.19602
-44.8479
-14.9772
39.6051
66.0434
42.934
-13.7385
10.4251
16.5228
-27.5556
-85.7787
-72.3749
-2.59026
53.8086
23.8323
-48.0826
-58.9234
-15.6829
3.86081
-1.7572
17.0911
47.6675
-3.5592
12.37
9.07472
-16.6672
-19.6679
-31.6343
-36.271
0.524729
48.7582
86.5103
61.9761
-43.7856
-70.9109
-70.3056
-32.7073
29.1031
66.2271
44.0917
-5.81036
-42.4012
9.26706
33.1375
21.2364
9.77692
64.5293
81.8033
-6.85832
-12.7641
2.52682
-49.1279
-73.2119
-31.1767
13.2625
17.9974
10.5104
-31.6848
-74.4884
-44.1941
14.4655
34.3552
34.2705
-16.0825
-29.643
9.34643
-1.612
-2.64641
36.5015
25.3873
31.9089
29.0861
-15.9445
-12.6792
-25.5347
-11.3953
-1.31209
-4.35217
-26.5041
22.6651
37.6799
-22.712
-17.5021
-8.78925
10.7568
-1.33994
-32.8951
-33.4948
35.8177
62.1494
-19.8127
-70.5743
-26.5625
-16.6319
-2.06747
38.4167
86.8103
90.2072
43.9116
-18.2525
-33.0992
32.8409
5.24233
-12.006
-6.56467
6.26437
-31.6041
-52.4887
-34.2518
-29.2258
-12.682
28.5377
40.9031
53.3188
7.38091
-72.1561
-92.5739
-56.8911
4.59075
41.8343
30.102
42.6053
-21.2646
-41.1552
-51.3461
-59.6562
9.46896
22.9829
6.70793
30.4427
43.2555
38.7373
23.529
9.36454
31.8337
45.1939
29.2318
67.1071
47.2257
5.16956
-66.2761
-118.041
-81.5219
9.65997
61.2005
25.4607
25.8594
45.1381
-20.1396
-49.3436
-40.0914
-3.08578
32.9101
15.8743
-14.3396
34.3367
1.54896
-92.4326
-62.9799
-57.9612
-16.7848
32.183
62.6341
50.6157
48.2224
24.2357
-47.1046
-63.4842
-31.9259
-21.576
-11.9063
17.2523
37.8676
43.0623
-7.5415
-8.77027
5.08658
-2.10673
-30.9758
6.99036
67.4286
31.5595
0.495654
-15.6315
-27.2113
-5.44266
9.44185
-3.31236
45.5109
55.1292
11.4253
-45.5779
-103.418
-60.2163
-37.6499
-38.8579
5.78786
44.7218
70.5753
37.4205
-5.44097
-11.9936
-2.81327
-4.09064
5.76601
35.4441
76.9694
32.5238
-1.36981
-57.9576
-35.0625
22.4112
23.9753
49.9956
117.088
26.6722
-48.1832
-35.8935
-49.4557
-92.1398
-93.7096
-46.6737
30.1222
9.841
-34.6704
-64.4252
-67.1874
5.96312
27.1637
59.6585
81.7147
5.06277
-14.9318
-45.5451
-27.8108
32.7137
50.7844
16.2479
72.0012
90.72
59.1524
-13.4269
-66.2557
-53.1642
-38.2526
-20.3419
-5.49395
-3.37285
20.3627
1.3285
-53.9547
-35.5665
10.6254
5.44412
-5.8611
39.1337
47.4766
37.0412
-1.86535
-32.7813
-39.0243
-16.6989
-14.9646
3.29736
33.8582
86.7277
30.4244
-4.69994
-21.8791
-12.0239
11.9887
22.5372
-18.4035
-32.18
-37.3894
-41.1814
-13.2666
6.35981
-10.1865
4.19474
25.1824
57.1982
31.213
25.9056
1.79208
-40.7334
-28.8957
-7.53739
-68.4692
-49.2004
13.689
-6.15242
-27.4861
-23.6919
3.3882
19.0137
11.2637
21.0699
47.5478
34.9619
-0.638219
2.94648
38.0875
43.5475
33.4141
0.165054
9.05805
3.67927
-32.9963
-94.4989
-98.5207
-16.6841
34.8912
30.9964
77.5154
27.5434
-37.2191
-41.3322
-39.5527
3.10438
36.005
40.4711
58.8519
55.4453
-50.0644
-64.7233
-42.7684
-44.8098
1.34106
30.1608
37.2392
54.3975
58.7639
3.2196
-31.6553
-21.8026
1.00372
-0.0793115
9.8796
-1.32092
0.167214
34.4213
-54.8299
-142.718
-51.6035
-9.83214
-4.22048
22.7785
43.4312
68.0492
54.8715
-36.1093
-65.101
-29.2118
-32.0807
-9.63984
29.2096
39.6459
61.256
28.093
-33.1061
-63.0929
-17.6124
21.5777
44.1927
49.1334
80.7811
63.8746
17.5843
6.66049
-7.92764
-9.38675
-41.2096
-25.7077
-2.40576
-44.7999
-12.0637
-10.4874
-57.4451
-51.6762
-34.3947
-11.8513
50.4528
59.0221
29.1851
9.70682
-30.2879
-46.8876
-24.4299
-17.1437
14.0406
90.0913
83.5694
-4.32597
-51.8818
-11.2468
-22.1234
-24.8187
-15.1647
13.656
72.0683
16.9466
-38.6208
-23.7626
-28.8794
-21.4374
-0.205555
-2.12307
28.0377
33.3632
-7.0108
-49.891
-31.7296
13.1512
1.91536
7.09972
17.1556
4.41533
14.8348
35.0129
-35.336
-33.0737
-2.71801
15.9132
44.227
39.3102
35.918
57.0906
14.4092
-12.7874
6.33169
5.14534
-28.3941
-19.1947
-11.4354
-14.9077
-72.0935
-106.186
-76.9815
-37.8066
36.1187
40.9893
22.189
22.9949
43.2077
13.5557
-0.973922
-2.02674
-3.78446
-2.57098
-18.9799
-5.07933
86.1347
69.7566
-56.9519
-40.5422
11.6818
56.5962
67.2022
39.0074
23.9029
-15.2861
-68.0057
-83.4888
-58.6964
-6.56724
-8.84215
-20.1681
-0.700746
-19.8562
-16.7831
5.98754
-3.61663
1.84113
51.3045
71.8859
112.158
46.975
-35.7764
-56.2245
-45.7493
-28.08
-6.53803
23.596
39.3713
44.2243
-11.1465
-45.1385
-35.5036
-10.2437
10.8132
-0.938094
-41.9593
-32.6201
14.819
-11.7808
-76.0662
-29.3155
7.92136
12.0069
4.3654
16.3834
52.0976
80.5541
65.0186
-38.1075
-65.4112
-29.3606
-18.4318
-30.4327
-20.7174
-11.5957
25.2999
11.3221
37.7959
37.06
72.6715
79.8628
33.5396
-0.113461
-6.95833
-6.16147
-21.5806
-42.6401
-24.2202
15.3771
32.1094
52.6251
4.47735
-42.4056
-61.5606
-37.7674
-19.2745
10.1416
12.2096
4.78097
-2.04912
-34.1798
-39.2469
-16.688
-16.1909
-34.3343
-7.11125
33.1903
5.16572
-63.2916
-41.9451
-4.977
22.2468
49.3461
73.5167
88.764
90.6737
44.4471
-39.494
-65.4606
-95.5887
-70.3239
-39.3725
-2.1329
52.5284
52.9432
46.2038
4.57797
-44.6062
-3.93648
-1.44717
-20.4135
38.3102
47.6339
29.6186
11.4192
-27.9048
-34.5352
1.68233
39.6173
48.1934
10.1261
-11.8468
-15.1577
-26.1768
6.66816
-16.7085
-37.5888
-16.8587
25.4732
9.90781
-18.0282
-42.5125
-7.32404
-5.57306
-44.9017
-65.4337
3.51569
81.1905
46.533
-13.7273
32.8696
51.0938
12.1188
-34.8478
-54.5195
-19.2457
48.8996
-31.4296
-57.5388
-27.4387
-12.9526
-0.623122
4.68152
27.8666
38.4845
-6.69826
2.89161
13.2791
16.9515
32.9573
23.2752
30.3798
63.4492
29.5463
5.1221
-29.5176
-79.2009
-22.5465
5.98752
60.4236
119.123
41.2246
-23.5978
-52.7189
-101.628
-86.4384
-51.731
-18.8746
-9.56332
10.5181
-7.61825
-10.7776
-8.52783
11.1729
14.2753
14.223
-5.13292
5.58814
36.4605
34.4551
-63.8257
-40.7126
-17.8335
-1.24124
55.8933
73.1646
76.1006
15.6325
-9.93826
15.4838
-8.54394
-46.0023
-41.5496
-34.4559
-2.11085
25.4333
-1.94209
4.41901
-4.73533
-28.4912
-1.46604
7.08858
17.4509
20.883
34.8143
4.77495
-49.4275
-41.63
-17.9992
-33.2925
1.04525
72.8126
102.36
34.9785
-18.7355
-41.0829
-21.2641
-41.4035
-46.5575
-30.4083
8.15455
27.3416
-29.7845
-57.0935
-24.747
39.0238
34.5773
39.4628
43.4542
34.8475
49.9411
3.53933
-33.5927
13.9269
15.9014
-3.76568
0.110719
36.4945
88.5724
38.434
-65.5977
-73.661
-35.6013
-5.76534
-40.4353
-47.0236
-6.40003
-30.7191
-17.3215
9.88619
11.8634
21.3198
-14.7794
-6.15891
25.222
-55.2682
-61.8425
-38.6216
-30.0805
11.7602
45.4039
78.5442
104.604
10.8739
-24.5468
-11.3558
-8.97039
8.18763
3.84711
-0.677352
10.4818
32.107
-22.5362
-35.3624
-27.3978
29.234
37.7494
28.8924
-33.6425
-36.2859
67.4959
-2.4682
-70.2283
-22.3048
27.1675
36.7926
34.4862
18.3728
6.14654
54.3014
19.9502
-41.2839
-6.12269
-15.1295
-35.7817
9.9742
-3.46971
-33.4656
-7.88843
-13.0057
-74.8665
-32.0625
15.976
29.2673
13.4769
33.9046
31.1755
-9.09648
-7.29059
-45.2695
-81.6527
-64.1803
-11.3575
61.0256
85.128
-3.40329
9.31305
17.5935
12.4871
21.5564
29.5248
38.4498
19.3563
2.19819
8.55423
-34.4349
-76.3091
-35.8524
-40.7725
-17.2894
28.6958
4.1444
-5.41074
-40.9987
-43.9283
14.6833
46.8741
99.1109
83.9038
10.1992
-18.74
-28.1688
-22.9971
-13.1616
-30.9357
-7.76925
23.3066
17.5127
27.3806
-6.22571
-2.96291
38.5076
21.6486
25.5473
17.4408
-8.97972
-31.2447
-59.7618
-56.7428
-18.6119
12.0608
16.1398
2.93631
-3.83077
-20.5463
1.40492
-0.446551
1.56584
3.56738
4.59383
12.2137
24.4502
0.41948
-22.5877
-24.5138
5.86476
-4.60549
-13.0006
-49.5484
-40.0614
41.467
61.8673
-5.88231
-23.4942
5.84973
-6.41273
-16.9439
9.61593
38.7481
57.6647
-2.05662
-19.7532
5.6761
1.03122
-2.95405
-7.04374
-1.91296
-0.746551
-15.3409
7.9551
-43.7894
-65.1175
17.3372
78.7033
104.389
68.7351
-0.402895
-14.9075
-22.2842
-56.9879
-54.239
-40.1924
-2.87562
13.323
4.54223
-5.65363
-12.8269
4.61419
27.5156
9.131
9.22724
59.061
20.0062
-68.6136
-69.0296
-8.51424
7.2074
-26.6919
-31.655
1.21832
58.0515
42.7473
-32.175
-13.6425
30.1571
49.4138
23.7739
-22.1828
25.032
29.0366
-99.0669
-96.4864
-20.1265
31.3685
22.053
-6.87418
36.3168
86.1646
-0.49772
-12.6126
2.09207
-14.4566
8.09433
-16.6386
-50.7459
-2.82445
67.3296
37.1298
13.5226
11.9733
25.8717
-26.171
-41.954
-20.062
12.5943
-6.09143
-15.3187
-30.6156
8.37323
9.14475
-2.60207
7.44848
19.8723
81.0364
26.4344
-103.691
-138.767
-83.5359
-44.3716
-5.66772
49.2256
67.0797
96.2305
38.1204
-5.31958
12.7748
26.518
10.9695
12.6988
24.0503
14.7323
-44.6473
-64.7221
-69.0826
-22.1377
23.5691
41.7428
80.9197
17.5093
-5.89554
6.17067
2.64021
-29.0655
-20.1974
-32.0671
-14.3058
-30.045
-3.17586
34.9012
10.0333
-27.4823
2.64307
45.6906
22.4358
-12.6646
28.2612
20.66
-34.469
-26.9142
-15.4419
3.74136
28.4369
32.9566
-14.8886
-31.6358
-43.5134
-40.4295
-29.6706
-23.1665
-27.8051
16.2348
99.6297
68.5385
23.0454
55.5083
52.4436
-16.1969
-57.995
-79.6811
-68.031
-4.17573
-65.3988
-66.684
-14.2813
1.42692
39.1661
77.5633
78.3408
76.2881
52.285
-2.39663
-23.4653
-20.6725
-15.0946
17.372
20.6251
20.3313
73.7661
37.2999
4.06702
-47.1095
-26.7707
-17.9546
-23.047
-10.8793
25.8666
10.2317
-103.93
-123.073
-96.336
-24.4153
-5.83956
-0.132861
38.3774
65.068
26.2643
32.664
-71.8094
-33.1036
-0.726746
21.4111
18.1214
2.14414
22.0578
43.2898
-15.377
-4.18377
70.0381
78.9801
75.074
36.0927
1.15511
19.1571
-31.0063
-73.4437
-54.4892
-29.7461
12.1798
44.805
51.6223
25.6463
-33.8674
-52.1779
-27.6729
-44.5868
-30.546
-12.8662
5.40976
17.9928
-39.4251
-52.1441
-14.2437
19.2268
33.6615
-1.6102
10.6655
47.2442
33.6768
-6.14847
-19.2576
-34.7971
8.08752
35.6972
36.4221
22.9825
14.629
20.643
-27.2039
-61.1774
8.10489
13.5413
-38.6778
-71.7893
-39.6845
10.5204
37.7518
-11.0274
7.89576
50.2839
39.142
9.09506
-6.39927
-5.45214
37.4343
17.0808
-8.33514
-18.3264
0.666917
32.0132
30.1353
17.389
33.0951
-4.59721
-49.3847
-55.7428
-69.1609
-32.837
-6.21931
3.35414
32.8025
-5.77538
-4.70575
21.1195
2.06738
4.12216
11.1005
8.59109
42.2834
-0.338709
-28.2481
-24.794
-26.5913
11.7029
46.4276
29.6791
19.4445
-8.84798
-24.4882
-16.6772
-31.9883
-22.301
10.1271
13.9465
-10.6042
-5.87924
-35.7568
-27.7035
-11.7736
11.8063
30.7854
24.0808
20.943
-2.61359
-27.616
2.92974
17.1181
12.8783
16.1397
10.1974
28.6157
66.7284
34.9793
-15.5058
-22.9897
-13.4996
-16.1174
-30.6362
-51.9485
-43.3863
15.0685
-12.948
-10.9468
-4.47514
17.6858
22.6578
-1.42762
13.8163
77.0107
49.1454
-39.6546
-68.4595
-40.2807
-19.6917
6.13802
19.9174
70.3428
58.1441
-36.2859
-96.7982
-89.3109
-1.1807
17.6121
35.4846
38.3175
34.7582
40.767
-24.278
-43.3667
-4.99909
17.0128
17.6356
2.20802
-13.9672
-68.6568
-67.4011
-33.2546
-8.379
61.1528
112.353
98.2761
119.157
47.5133
-18.8605
-44.8633
-80.4547
-80.4444
-30.0238
-30.6213
-11.8586
-4.13757
-9.91533
1.90456
5.11851
26.8623
20.1925
-3.49468
9.5324
33.0339
2.16444
-14.8406
-41.0186
-27.2495
-9.55792
9.72318
26.335
58.6788
59.7814
19.082
-66.6649
-51.6245
-14.115
-2.27577
6.42498
8.34792
16.9836
6.53847
-63.3401
-73.9896
-11.253
-12.8281
-12.0525
4.30021
23.517
26.9997
49.8335
-4.37116
3.00396
9.31174
0.604135
14.3113
56.6708
66.8174
66.5385
-22.8681
-51.5881
-25.4918
11.9308
29.0731
15.0067
12.6801
23.833
-46.7997
-52.0537
-44.9196
-40.2756
-29.1126
-40.1842
-45.4104
35.6076
58.5048
-19.5605
-39.7369
-10.7452
41.125
49.1633
32.0378
20.21
20.645
32.285
-17.383
-72.7847
-12.0446
10.4652
-7.04033
-2.6829
9.45422
18.5837
37.2137
-29.9061
-45.1758
5.59973
14.6684
-5.5311
10.788
23.3678
7.9819
-33.2812
-39.9259
-69.2676
-39.4332
-9.22769
26.0112
64.6964
98.6821
10.7405
-11.7083
4.43026
10.1017
34.4583
26.9662
29.4848
12.9032
-40.005
-18.8356
-8.35871
-28.5014
-18.6054
-20.2299
11.5173
71.4998
36.4946
-75.3954
-98.6218
-69.5363
-10.1406
24.1841
31.3388
28.7162
14.6508
41.897
4.81508
-76.045
-39.1195
-0.838039
3.33848
-3.1814
19.5818
27.6521
21.1686
-20.0229
-45.5985
11.4443
32.5242
35.4549
43.8117
29.6068
22.244
15.6098
8.07622
-18.4653
-22.4233
9.43813
18.119
-20.3899
-20.0287
-41.0181
-18.2773
11.8693
9.02357
-19.7679
-4.28432
29.112
50.0279
-28.0723
-33.9338
4.83757
-7.53089
-30.262
-17.4045
-17.4196
22.3022
29.491
-55.8317
-54.8613
-27.0095
13.1887
31.2897
34.1702
41.2047
46.1798
50.7333
10.2241
-24.374
3.62414
4.54171
-2.09321
4.59422
11.4854
-38.3652
-65.4266
-51.407
-0.693883
60.6608
66.7961
38.4889
53.1509
-27.4139
-65.7468
-67.3385
-56.8946
-35.3549
16.2005
30.5316
61.3945
50.2276
-21.2683
-86.6105
-66.2841
10.3749
36.4234
20.3655
27.7707
56.659
50.2321
-27.0503
-65.6154
-27.2822
-6.04075
11.5315
5.08684
14.8754
30.6712
76.144
50.5285
-43.2841
-39.166
6.49047
9.89484
-1.29974
-10.1163
-14.3061
-15.0739
-13.425
-33.8481
-13.5474
-27.6906
-22.0042
17.9498
25.03
40.6027
30.3237
5.67478
-35.2026
-28.5298
-7.52864
-7.62427
-2.91038
1.48837
13.5685
-17.4189
-12.928
-6.17993
-4.79407
-1.26883
17.3865
36.6703
79.3501
13.4778
9.11908
13.2272
1.33114
11.2832
-22.1306
-25.8763
43.5519
19.7763
-56.6178
-51.827
-52.4808
-38.3506
-29.6337
-20.7119
10.8522
57.0865
12.6305
-34.7756
-29.4059
2.07538
-1.60058
-8.77982
10.055
26.2381
14.1882
-19.2083
-5.72359
13.7518
39.1972
34.0958
38.112
67.2204
86.941
27.3849
-55.3836
-59.0621
-20.0649
0.0864717
-9.96477
-0.291124
7.9753
27.7092
-5.22242
-39.3327
-29.3763
-21.5329
-35.8496
-12.3266
20.3018
19.215
-39.4991
-34.6106
-34.7155
3.79874
15.8213
-11.8478
33.0628
64.4583
24.7871
-31.3219
-54.5741
-63.7991
-23.3567
11.9523
-1.64834
22.52
66.9345
57.0605
13.6858
-22.4091
27.1559
26.7494
-4.67968
4.00299
47.752
55.3279
-47.0393
-70.5415
-55.8373
-7.21409
1.40213
0.791007
31.6147
68.9065
-2.60889
-13.1184
-30.4278
-28.9195
8.89802
23.5176
29.707
27.9741
-39.5877
-48.495
-39.4557
-50.5465
-20.8588
-8.12229
39.9691
62.5692
-5.52554
-12.1166
-12.3198
-33.4289
4.18155
9.1463
51.5925
73.4619
25.777
-47.4792
-35.6549
-36.2085
-3.87005
1.03316
-18.337
-12.4751
35.2421
14.5146
7.37245
-7.45484
18.4917
12.6707
0.653412
-3.31395
34.248
72.2861
-32.7595
-51.561
-11.3782
33.7562
-9.92939
-65.8594
-49.1641
-7.61265
38.1473
-2.97218
-10.3294
29.0257
17.6096
-4.17
4.47271
42.57
36.2922
-6.80573
-30.871
-72.3427
-53.6426
-40.4824
6.89397
72.4179
44.1407
34.0225
48.5891
19.4834
-25.6345
-14.7474
18.929
60.5284
-15.7572
-109.326
-103.984
-82.8664
-33.8911
-9.89393
14.1119
61.0929
113.465
44.4759
-15.5857
-41.2686
-8.61793
34.7861
44.8012
23.4349
9.25777
42.2762
15.2846
-19.9377
-8.53139
27.4839
19.363
-30.9213
-14.5251
20.7787
-37.4481
-74.0402
-93.3373
-47.7174
-30.6921
-13.0502
53.8589
73.0787
15.5478
10.849
6.46961
8.25858
-19.4645
-53.466
8.90579
70.251
38.35
14.6316
-8.79327
-3.5549
35.9429
6.47536
-21.4303
43.362
34.7854
-33.8684
-74.3047
-61.8186
-20.1101
1.86561
33.7962
40.6895
50.5361
-17.8679
-76.791
-55.6883
-48.264
-36.0908
-10.5373
13.5181
55.4448
91.5531
48.9922
15.94
35.2343
25.8153
-25.2284
-24.7028
0.484035
1.278
-44.454
-70.5855
-25.9379
26.5194
34.97
20.6699
59.6919
71.6544
-49.2153
-69.3511
-57.3343
-45.4206
10.9478
27.1913
19.5868
42.9626
46.779
27.9511
1.49805
-5.57417
-9.91773
-3.17155
-11.5329
-23.6663
-52.0736
-78.4913
-38.4135
5.40501
60.3764
56.8264
45.1069
24.2359
33.4523
-27.15
-100.831
-83.8921
-22.4821
8.58554
14.2296
-12.9443
10.9405
37.1037
-6.45988
28.8417
62.0029
87.0753
68.5416
19.9035
11.9911
4.55737
-25.9049
-103.115
-116.015
-68.0314
-22.7654
9.91493
52.5387
26.0926
22.9055
30.3532
-16.2021
-40.931
-7.58016
17.5434
16.7268
18.1749
48.6544
43.906
39.284
29.7672
3.40291
13.8845
-0.947099
6.55597
42.9599
-2.1156
-82.3812
-120.861
-69.4158
-37.5259
-2.40517
-0.764524
-1.06975
-8.30843
30.1856
-2.25284
-73.2567
-38.2812
-7.1818
-20.4372
8.09937
45.5864
50.5082
69.85
52.1868
53.8659
59.7142
62.5433
16.9008
-31.4239
-55.464
-39.4108
-81.4629
-70.7529
-26.6275
27.4194
59.9906
37.3914
30.6078
27.9906
-24.9841
-38.5891
-40.3259
-36.9791
1.69199
11.6753
11.663
-8.11634
-54.3776
-51.9944
-16.8625
28.2983
62.4608
40.2039
55.7879
42.9281
25.4729
-28.4275
-37.6746
-21.1992
27.0391
51.5287
44.3443
21.0191
26.5388
1.64775
-53.4395
-19.5221
30.7769
54.9965
44.2533
6.33509
16.1632
36.4385
-6.65944
-95.073
-96.4745
-47.3716
-39.2799
-50.5877
-43.5226
-16.1669
30.4452
-7.1541
-55.1039
-47.6617
8.87623
13.7351
-5.53815
21.6743
75.5558
28.9719
-21.3571
-38.9549
-58.5717
10.3915
27.8747
24.5244
24.5288
-19.0604
-25.8484
-14.7571
-13.4656
5.10109
31.6112
72.9913
103.979
99.1348
29.0946
-21.4695
-48.429
-78.0398
-82.4567
-64.2432
-32.3593
41.2149
78.8628
20.2556
9.67716
40.6506
41.4928
3.90225
-20.2436
-20.7288
-2.85155
-53.0364
-60.8729
-24.8121
37.6122
39.1067
27.3941
81.6624
107.976
12.6734
-23.9517
-50.9485
-63.8093
-43.162
-44.469
15.0898
17.4011
9.02521
7.82542
-19.6345
-43.9425
-23.473
-26.5262
-26.044
9.64412
-6.15588
-25.757
-33.3183
-25.5052
20.9101
28.809
16.1358
26.4259
56.0968
-1.5389
-42.5943
-6.7803
37.2457
29.0195
17.3359
12.1319
51.4613
57.1214
-33.1204
-62.12
-29.2623
-5.22091
12.2883
22.6083
28.9272
21.3144
18.5679
-21.7656
-46.0816
2.52915
6.7963
-19.6251
-45.8898
-30.8427
24.8893
44.4145
12.1253
-8.65519
-2.44858
12.3574
19.5865
25.2006
63.3969
19.0838
-22.1121
-50.3781
-63.0176
-64.8041
-35.0747
-27.5631
13.9009
32.8335
9.2207
12.588
9.95483
-8.81278
-23.9862
-47.8183
-27.3185
13.5258
16.3307
-7.23688
-27.1409
26.3247
44.3298
29.9518
35.5344
39.9189
63.3038
63.8498
-10.179
-29.6046
-43.9215
-42.2061
-32.8823
-21.2795
19.8354
49.2622
0.0789942
-28.1682
-15.184
8.21185
4.33358
-4.45067
29.7675
78.7385
-4.99654
-55.1114
-59.6941
-44.6466
-33.4458
-10.5365
31.0703
13.7183
22.5885
0.852532
-65.9839
-46.2431
23.7852
33.7743
46.1835
21.5374
0.554352
-25.6281
-41.9584
-45.4157
-6.19509
21.5411
29.1658
14.5889
32.604
82.3642
75.9875
17.2938
-12.3335
-8.47204
6.81518
-21.1762
-20.6248
-17.3317
12.9461
-14.343
-51.2389
-32.2481
-23.5284
-42.4087
-25.0601
4.9405
16.986
-15.5997
-7.92503
-10.5316
21.9463
43.7754
27.4409
55.8919
80.8776
-6.4419
-34.0691
-50.9912
-42.1977
-13.2478
8.62644
12.0982
25.848
-15.0318
-17.7641
-14.3669
-14.3227
28.4957
25.0431
-10.0136
1.47027
-3.3195
5.04634
-11.0453
-26.8031
0.50342
33.5376
38.6414
-1.61237
3.91927
-15.1506
-10.9393
-19.1696
-30.1158
-36.2096
-6.54192
27.1877
58.0239
46.1593
11.1208
-80.4865
-44.1792
-16.8511
-5.22175
-4.69125
17.8817
29.9342
28.2975
-48.6448
-30.8724
2.61742
5.31793
26.5349
43.8791
67.8222
76.1263
-10.4014
-24.8063
-14.6235
-7.42342
21.8188
23.6563
41.9484
15.7372
-59.0763
-72.174
-77.1047
-65.8886
-25.3132
-22.183
25.4243
61.9396
8.32974
14.7714
10.091
-5.84408
10.9662
5.18207
8.35028
18.8408
18.6899
-60.505
-70.9271
-54.6858
19.5909
64.8784
52.4397
40.3181
72.9105
29.7591
-14.8707
-44.5429
-43.2992
-30.2096
-16.3595
-10.9065
40.928
-17.0645
-28.479
-11.9966
-13.77
19.8856
7.94935
25.9448
69.0478
-9.89884
-5.91771
4.89055
-3.36296
6.40084
-40.2715
-34.7519
38.8897
-26.6305
-44.1496
-31.488
-20.4578
14.3025
17.7175
13.014
56.9944
47.7349
-13.9068
-23.1765
-41.6861
1.2725
-12.2154
-21.4936
-7.57922
43.847
97.8855
42.536
-4.1756
35.3162
28.954
-8.68121
-35.406
-44.0037
12.5089
17.2091
-56.3464
-71.6718
-42.6276
-37.7628
-20.4077
25.5878
34.5285
20.4341
11.3369
-48.6013
-74.5042
-50.134
-16.9931
17.7019
26.7399
48.2227
64.9143
64.6603
8.59198
-28.8989
-17.9284
15.8084
35.5328
58.2713
50.075
21.3498
-2.3274
-4.8847
-11.2166
8.90462
1.13425
21.6935
40.7515
-5.69091
-45.555
-60.3135
-57.8469
-31.4287
-33.7751
-63.0215
-49.8553
22.983
67.138
-6.58407
-38.1478
-15.6303
6.55205
-1.45097
-15.094
-6.95268
35.7044
-19.9016
-54.7365
-10.1566
29.989
35.1295
10.7465
20.4846
60.3906
27.6549
39.0186
42.8055
28.7017
31.0493
24.2978
27.9514
34.6977
-17.7199
-58.8598
-47.9052
-63.8648
-18.7532
-3.46337
-16.3428
-20.1188
29.0631
26.075
-54.9384
-48.4993
12.8855
26.895
-2.34017
-23.3941
34.3397
74.4827
16.5032
-97.5789
-80.243
-40.3033
-59.261
-57.6999
-2.79843
39.4338
120.97
110.014
-16.5144
-36.3461
22.9685
25.7925
41.2314
41.7203
40.0182
42.2952
-49.6282
-71.6186
-47.5671
7.60917
19.5518
34.421
76.9055
95.2082
2.33334
-42.1415
-77.4833
-76.2408
-25.6987
-0.871775
9.30768
-17.1339
-41.6873
-32.0919
-40.8998
-61.0288
-19.1249
-13.4031
21.9412
79.5838
60.5339
54.0181
40.325
9.31975
13.5227
-24.5356
-15.5342
-42.5911
-66.3036
-52.2674
-21.6706
-21.7153
-0.263793
26.903
25.0288
14.4398
76.1999
47.8156
-3.23952
-8.17508
14.7142
-0.928443
-11.0289
-2.01781
38.7448
83.8526
-5.55903
-26.2795
9.16558
16.7754
5.97243
-10.0093
-21.9017
-43.2726
0.863412
-11.3569
-81.4834
-47.1594
-8.72603
5.62949
11.1987
16.2235
36.7828
-17.9471
-48.1675
-34.4275
27.6248
63.0604
47.8567
21.5545
27.6911
-3.97568
-10.6648
0.5599
-24.3717
-0.635512
13.9848
-7.9124
11.7613
8.76692
-32.9033
-73.7726
-61.9527
-18.5288
1.77733
-12.4848
-6.23655
42.7831
76.092
4.86889
-28.6141
-3.57188
18.9281
18.6066
11.9659
25.9397
50.0925
17.8631
4.63149
-11.518
8.99213
25.5477
-3.46938
38.5151
22.6959
-70.0555
-66.4914
-53.2224
-45.3494
-2.84392
-1.13572
31.2711
36.938
12.7175
-6.3164
-25.5492
-37.7791
-23.8512
-38.0444
-38.6834
-20.8859
-8.80712
10.3088
19.8758
45.2764
74.4324
66.1546
71.3096
28.1719
1.03321
-44.8122
-51.748
-33.5833
-8.57409
16.2109
26.0846
-3.37611
35.8759
35.6385
-32.0109
-20.0863
-9.67975
-17.2205
-19.7969
-8.1526
10.643
31.2738
16.4503
-56.2858
-49.0972
-0.993524
13.3857
7.57517
-9.71971
1.6217
50.0745
12.8581
-54.6589
-40.5104
-2.72948
11.7273
27.6332
26.162
28.5194
-3.67593
-2.95369
-20.3293
-43.5855
11.0569
47.1089
67.2994
53.8554
-16.7119
-39.9814
-51.2362
-59.1065
-21.3163
9.57574
9.38144
52.0916
-5.42728
-16.6388
-33.7095
-36.1707
-8.02088
22.5126
13.3909
-2.85127
28.6629
56.3031
2.45354
-28.8169
-23.2567
-0.67827
8.96725
-4.53985
20.4839
26.1604
2.05724
-0.389486
15.7991
6.49228
6.013
18.6951
80.7381
5.31808
-43.5515
-59.1462
-59.3483
-43.9496
-14.7141
-33.4763
-6.8116
45.2307
-16.7615
-68.9595
-66.6327
-21.7977
34.1077
46.3603
46.4623
52.0509
65.4668
1.95526
-39.3805
-6.68853
25.9614
33.4702
14.5211
-3.82991
43.0394
45.9182
2.57549
-33.793
16.9562
37.4005
23.7324
-10.4514
-33.3093
7.6489
4.268
-45.6993
-44.0886
-11.2325
-31.4427
-41.4283
-48.5584
-29.2763
4.17671
-58.6826
-68.5194
-45.035
-12.591
-4.53256
21.2667
62.9528
110.574
44.912
23.5761
-15.1811
-5.78877
9.86042
9.06441
23.4494
29.7312
-3.45981
19.1797
18.6413
-11.3262
2.29291
-13.087
35.7075
74.8448
52.9875
15.8587
-26.8849
-54.2393
-18.6911
5.93951
46.8852
20.525
-50.8969
-48.7601
-45.637
-56.4451
-22.3888
-18.4012
-26.3791
-26.9014
6.37783
-43.5931
-47.4806
-21.6015
-3.37435
16.911
19.3138
22.6765
80.2375
37.4611
-39.4539
-32.6539
15.0926
6.23889
-7.88234
11.4319
48.4952
66.9376
50.0747
0.571304
10.7827
46.0974
18.7442
1.76633
5.7225
7.71271
22.7812
-45.277
-70.2571
-51.4282
-32.8214
4.27838
34.9576
19.1166
17.9891
-32.2223
-42.3509
-55.0267
-37.1381
13.3439
13.7021
-3.0899
35.098
70.4703
-9.83309
-61.6192
-67.7834
-27.0959
-21.1629
-3.40064
10.6231
19.6451
52.4343
37.4073
-20.991
2.55341
22.8749
16.7655
18.6351
18.2189
18.6116
31.5962
-27.288
-46.8453
5.45774
31.2452
26.0576
39.5067
56.7917
17.8717
-30.1289
-32.8414
-37.6934
-24.6588
-2.84831
11.9687
14.5101
-28.9921
-34.1071
-22.078
-28.6153
-30.5475
-13.524
10.2799
28.8721
-32.463
-41.634
-19.1838
-17.6772
1.03035
23.5597
29.1505
59.6666
44.0212
8.91289
-39.4299
-43.3962
-9.01374
15.3893
31.5295
33.5872
91.1614
82.5404
-42.1405
-80.8621
-43.7867
-17.0173
-23.961
-13.5266
15.2961
25.058
46.6165
-18.7413
-20.981
6.05347
36.1203
35.7963
36.1477
20.2522
18.7833
-33.6154
-56.8397
-72.6389
-38.6823
-2.00139
18.6914
68.896
74.5958
-23.7916
-35.7749
-17.8035
-48.6544
-46.8421
-28.7232
23.8402
38.7128
-42.1
-35.8672
-18.2534
-20.8933
-3.95804
-7.57948
17.1199
72.9298
96.4197
36.5735
-54.0403
-40.633
22.744
27.8812
14.9121
15.0602
53.1573
21.4137
-50.1492
-42.9607
-5.52293
-12.3187
-18.6709
-21.7305
23.4686
33.2701
-9.95712
-19.5836
-33.8226
-3.4384
19.6763
33.8829
51.579
17.7987
-14.0313
-28.611
-58.3334
-37.8584
-13.5094
0.582907
54.2994
45.6903
9.62244
1.51852
-21.7732
-47.0193
-29.975
-19.8737
-13.2123
23.5215
18.2228
-22.1798
-17.8915
-8.41065
-5.74168
4.57227
21.7951
19.5571
43.5582
39.9276
-6.66575
-16.0209
-9.65371
-11.0911
-6.92226
-14.7138
14.2333
59.1745
42.0678
-18.8906
-5.50427
0.232594
-1.15571
6.64549
6.10362
25.2402
4.59279
-32.3534
-28.6398
-35.4377
-14.2669
3.06793
11.0036
16.1567
2.66089
-33.8581
-26.0029
-41.925
-38.8387
-0.893996
18.7532
69.7564
61.9761
-19.2131
-14.2279
-23.0671
-18.3201
19.0005
13.4863
20.506
72.7853
1.11458
-20.4698
-38.2255
-42.2312
-15.2783
-11.7245
-12.434
6.22348
42.2767
-0.830647
-57.1592
-45.5946
23.0971
31.4932
25.1216
26.2894
36.2857
78.9642
11.9009
-84.13
-32.7744
-20.1303
-16.7581
-15.5398
1.45513
31.1536
60.6574
16.6674
-9.97204
5.23633
-0.0677655
-17.095
-4.83765
-10.5716
4.78027
33.1268
-31.5281
-75.4275
-35.1994
9.83307
22.5208
37.1945
52.7809
63.4554
9.23196
-31.0439
-70.713
-52.2523
-26.0377
-14.0464
26.21
53.1639
-15.732
1.31032
-0.597416
-41.0989
-9.71578
-10.6926
-14.2529
6.15475
61.6198
8.32647
-27.5377
-25.6081
17.1073
34.3856
27.6662
41.8968
89.2053
46.2169
-73.3894
-93.099
-27.2111
-11.1325
-10.3781
-21.4119
-5.94549
-15.3575
-7.93323
-10.8773
-39.1582
-12.7606
6.93879
26.6759
80.9502
44.0069
7.91333
1.54379
-27.8921
-6.12016
38.6258
24.5201
67.3777
48.5484
-39.1865
-36.4349
-26.4352
-24.3274
-11.1338
-0.318236
28.5941
13.5877
-3.75719
1.26014
-14.3124
9.67419
15.084
-10.3601
-29.4186
-1.22492
19.051
-75.1489
-83.9615
-63.2353
-43.1728
-28.4604
-0.756517
44.5817
90.3761
70.0846
-38.3105
-37.3729
-14.753
-14.0254
-12.2103
4.28449
22.2299
66.8419
33.6971
-13.4276
3.45838
67.6031
67.2073
55.9346
64.5376
72.9448
-18.7943
-53.0825
-77.6829
-53.787
-27.3423
0.0822318
23.8982
28.8383
-43.8864
-100.587
-85.1202
-62.6847
-25.0403
-1.39804
8.27453
61.1077
-5.51199
-15.1057
23.8748
28.1451
83.9444
60.5154
22.8699
-7.37573
1.88649
-23.5734
-61.3915
-71.081
-21.6501
24.2518
32.1151
9.0508
58.2131
66.1966
1.63938
-28.0109
-1.34239
0.721024
-3.15723
-22.9887
-12.0355
4.92539
-33.9921
-19.2373
6.81497
35.426
29.3649
15.0386
65.317
58.528
-3.53201
-32.4404
-61.7684
-61.3529
-29.2935
-15.528
26.91
-1.80243
-46.6826
-47.6886
-52.4598
-61.3901
-22.1469
4.55274
18.0463
41.4664
109.77
71.4269
12.9322
-6.40418
-5.73638
-25.1991
-46.815
-31.3556
16.274
83.033
35.2469
-6.07731
9.33787
15.7592
5.02447
13.667
32.0567
8.12164
9.61308
-21.1797
-59.1719
-38.7359
-33.4526
-13.0324
22.8057
56.6527
18.001
-29.1091
-3.59183
-12.9468
-0.783712
13.4874
0.372635
-7.32942
-8.46366
-18.1675
-18.1439
-29.4564
-37.5556
-27.1608
-4.84226
60.8114
1.37539
-33.0876
-11.7026
-4.11666
21.642
48.7693
28.2186
23.5337
0.147077
-29.3094
-2.75825
0.677171
5.6501
19.4559
21.7906
40.6303
40.3386
35.1013
-50.1595
-102.157
-31.6269
15.8843
14.7405
-0.886461
-8.83562
41.1224
19.2182
-68.0774
-45.9384
-1.73302
2.18305
11.6898
36.4936
69.6251
31.3643
-45.7552
-59.4587
-53.2569
-1.09945
10.6659
9.4403
12.6647
40.6075
52.7243
-19.5202
-58.328
-16.4457
14.6359
-1.07287
5.32352
45.5893
61.4131
-6.65635
-41.3735
-33.4216
1.87551
9.05505
32.8825
60.2766
51.0434
-4.5164
-17.2774
-60.2562
-70.4297
-29.8413
-10.0283
-1.95517
5.97416
-16.9236
-32.6214
-17.751
-15.1033
27.5635
35.2443
44.1947
71.8425
29.6124
-36.34
-53.2612
-82.56
-50.6335
-8.0626
10.4788
35.5075
45.913
19.4907
-4.59693
-5.13216
30.5166
50.2256
26.6534
35.9025
-4.91412
-36.4999
-29.493
-34.5624
-10.3608
31.8717
45.6209
63.6073
28.8326
-19.6024
-12.8005
-17.7952
-9.05913
-36.6263
-74.9556
-38.2935
-75.3046
-43.3087
-10.2272
-19.9594
0.631708
13.2895
20.6901
33.8577
91.4605
64.1448
-23.3616
-33.3906
-0.703716
-3.63353
-15.3349
16.1742
41.7142
67.0473
94.1474
6.45337
-16.7869
-30.6912
-50.3901
-36.4487
-4.82655
-2.60311
2.74566
-11.4317
-71.9053
-46.9812
6.69882
28.7776
43.7235
40.394
37.8288
-19.8858
-41.9764
-10.8828
-19.7109
3.54517
33.6062
36.636
52.1606
6.0002
-31.0818
-56.3078
-57.7446
-38.7065
-28.9359
-25.6679
-11.9685
28.3845
34.8094
22.9191
28.0142
34.9237
23.5664
29.1339
6.19211
-9.05658
15.2789
21.0101
-44.9735
-66.0521
-26.8094
-3.52093
0.38167
14.0069
11.9392
26.4065
11.5916
-36.5529
-15.395
-2.33512
4.55263
32.9952
41.0883
69.0465
31.1477
-41.9785
-55.3028
-53.6721
2.29452
11.7105
6.57786
23.0317
-3.69316
-28.8939
-17.7993
-32.8712
-24.9494
5.36076
10.3009
42.0564
11.8152
-7.26769
0.31288
-15.6232
1.27025
45.4819
25.5591
18.6551
5.17402
-31.4875
-20.6415
-11.3435
13.5533
25.9179
19.9468
13.3749
28.6936
24.6751
-33.0381
-41.8572
-20.5496
-9.7911
-36.8805
-42.2811
-2.35917
9.75139
-34.1944
-48.7046
-16.1286
20.64
25.14
7.74317
25.8356
64.6145
-2.47542
-31.2993
-32.5357
-10.9392
25.4461
15.3588
14.0615
34.1215
66.8628
-2.29489
-27.195
4.44063
30.0285
8.88861
-3.78239
12.0003
11.2971
-37.2075
-48.11
-59.0356
-14.9484
13.3289
12.0651
33.5641
44.0997
3.85955
-13.0208
-34.4173
-47.4049
-12.7798
-8.91096
6.98099
52.6876
12.9309
-15.2046
-14.9243
-28.2517
1.86598
18.2072
25.8461
57.1941
17.8091
-10.0406
-16.9773
-9.4489
-0.0664644
-10.4714
-3.95276
33.8241
8.92116
0.873098
-19.1618
-51.5008
-29.1984
-3.52367
-0.0433524
34.961
23.1664
-3.73174
-17.7486
-25.4313
-5.35642
0.966364
-3.89587
27.3929
13.6326
-12.2233
15.1686
-13.619
-9.33216
-6.88761
-2.50088
19.245
6.94862
-40.3412
-47.201
-50.7661
-5.73715
22.4024
12.1194
3.82032
19.4458
40.94
16.5547
-27.9402
-5.207
29.1064
22.2466
7.03164
17.3769
26.0004
75.1412
16.116
-18.3385
6.63277
8.25666
-3.46046
-17.6533
-21.9165
-3.68482
7.93089
-33.0484
-36.0502
-25.5621
-9.01986
-6.56884
-2.99622
8.46379
-11.5243
-31.4959
-22.9866
-42.3428
4.60975
32.3702
30.6999
63.1872
48.9388
-24.4885
-30.4747
-25.2165
-35.4409
-11.7621
-1.96787
15.1582
60.4719
36.338
-25.4499
-20.0559
-6.01868
14.5685
11.9838
-0.249285
-0.180094
38.2565
38.2605
-26.0235
-27.6752
11.0289
17.7131
8.18097
-6.76233
31.9406
27.6846
-31.3176
-70.6188
-48.0924
-7.50008
-32.4691
-28.2291
1.97522
0.245603
-27.4826
-28.8588
-15.5553
11.7908
28.7976
22.1924
51.5871
33.3567
8.00336
12.9261
0.878626
-11.0927
2.32522
11.3844
57.6724
79.6155
13.891
-23.8092
-11.7997
-12.3318
-12.1874
-25.4519
-64.6081
-60.9067
-48.8134
-84.5022
-46.9668
-4.1784
2.84983
26.5525
54.0678
71.4492
111.489
93.8342
-45.1204
-64.7312
-11.2957
14.8463
4.72182
5.32889
11.3606
44.9911
47.1302
17.1154
11.4392
27.843
9.41706
-6.75463
-3.34712
7.05045
-44.8534
-67.7932
-83.4143
-80.3081
-20.2268
-1.73221
20.5866
42.2605
-7.5579
-20.1388
-17.559
-25.2773
-13.0005
5.44196
18.6742
45.4505
4.95983
-39.3966
-33.3712
-41.9921
-35.7174
-26.8565
3.92425
71.1223
93.3835
42.0296
18.8933
-4.50891
7.73022
17.5816
25.086
-1.47518
8.9099
50.4834
5.28919
-13.2938
5.02403
19.7176
12.0697
2.09696
22.9261
50.4059
-38.2808
-94.0352
-68.9802
-19.7685
-8.86949
-11.0511
17.4484
40.7473
-14.6861
-44.6639
-35.8539
-34.9299
-3.90725
2.83339
11.7789
33.0013
72.2368
11.052
-22.6274
-43.0254
-3.15697
-8.8842
-7.78427
-1.29757
11.6728
-1.29947
7.67575
-10.9519
2.30966
16.3919
16.1524
11.1815
25.3298
9.48988
-39.2588
-48.558
-33.0253
8.98159
28.3984
24.8386
44.395
45.9295
49.6689
10.1307
-12.6032
-14.5081
-28.477
-27.3742
-1.43233
36.1143
32.9714
-30.0234
-40.55
-20.0875
9.2321
9.03055
-18.2549
10.905
-1.02624
-28.964
-16.6063
-13.1647
-16.5798
11.7086
15.9795
36.5058
-13.7162
-47.3589
-32.345
-12.5248
-11.0122
19.1613
50.8918
60.8623
6.26522
-20.1856
-21.986
-29.1133
-3.18017
12.1567
1.43868
14.0468
44.5434
-1.84546
-40.9805
-36.5631
-3.93092
25.0748
26.7989
-10.3493
3.33183
67.9094
78.4644
38.6286
71.8008
78.9291
43.7614
-17.1098
-78.2831
-133.73
-140.123
-96.0863
-177.982
-140.331
-50.2768
18.1883
37.861
31.9197
4.40732
40.3844
19.9773
-35.771
-36.7026
33.7662
70.5994
61.991
71.5454
139.512
130.059
144.528
103.417
2.46761
-8.06866
-7.63981
-11.4909
-2.54489
-16.8323
33.4008
81.2824
53.4537
5.61646
-40.6497
-60.0965
-30.9184
-52.0619
-36.689
-23.2534
-59.3552
-88.3565
-120.864
-125.039
-92.7984
-48.1974
-78.515
-104.607
-93.3591
-67.5487
-38.5159
43.7252
88.465
142.566
106.396
50.1509
1.04176
8.93699
16.8552
4.74671
-7.54236
32.4788
-15.2465
-19.3129
24.2465
86.9445
145.606
171.455
174.847
243.104
179.038
112.298
52.2786
-64.945
-159.039
-253.057
-288.038
-252.521
-256.896
-248.706
-236.152
-100.892
23.0844
143.425
223.64
276.32
315.914
278.116
126.8
1.26306
-96.1834
-215.559
-302.842
-241.651
-58.1228
111.007
190.564
165.656
55.9627
26.853
40.701
15.7375
37.2533
13.637
-26.5641
-19.7223
-80.7281
-126.193
-120.742
-123.995
-90.1209
-75.2156
8.54206
154.194
208.336
135.318
52.1707
-32.9218
-36.1919
-43.2974
-3.23475
35.4873
8.51599
-15.7153
-31.6072
-77.4298
-49.0637
-25.7128
-14.2554
39.3366
30.016
20.0143
63.1053
23.2514
-28.6864
-35.3684
-41.3899
-21.7397
71.9074
129.156
63.62
-71.1096
-49.4613
-22.654
-43.7371
-69.7178
-81.2067
-54.6529
-20.2144
-58.2796
10.2323
89.1504
91.9102
54.5959
53.8091
92.4963
63.6754
37.684
35.2305
-4.0219
1.53113
63.3267
43.7145
22.8107
-0.495895
-21.722
-89.2442
-110.985
-85.4435
-49.0495
-39.2383
-29.5186
-27.5998
-30.7691
-129.044
-130.661
-78.0197
-24.3651
13.165
68.7715
85.2741
110.962
130.622
56.7709
53.0676
74.6746
103.783
51.0693
-2.71762
-31.0792
-20.2077
11.2181
-68.2912
-127.218
-73.8917
-50.6242
-16.5775
6.35434
-2.40343
65.4794
103.691
-1.07086
-14.8655
27.9629
41.0302
-15.899
-35.7843
-17.2744
-42.0078
-55.2879
-60.4571
-74.0455
-26.4064
35.6363
93.3602
116.118
53.6653
3.2703
-11.4897
-57.8408
-74.503
-33.8198
-12.7099
24.3836
1.08482
-20.9026
27.3394
59.5405
76.9331
68.8564
42.0917
35.1584
57.7753
-8.07355
-67.5384
-78.5965
-58.6517
-15.6749
6.51657
-15.2052
-13.3021
42.6161
-25.3091
-83.0835
-82.4463
-44.7124
-25.0445
-4.48158
1.64721
25.623
38.6439
-17.8652
-31.1478
21.4592
49.252
12.7685
12.4987
33.8838
41.1885
57.1289
-0.975702
-44.2888
12.674
65.7703
50.3577
28.2108
15.7397
4.57019
-21.4807
-6.75264
-13.182
-3.90122
-16.635
-32.5592
-0.450293
-9.45984
-55.8624
-61.7832
-55.3855
-66.0049
-23.841
-3.59177
29.4828
30.5142
-13.6609
2.39444
18.4426
27.703
56.1944
53.6669
31.8751
26.9455
73.2939
31.0526
-54.7575
-43.8057
-2.29054
34.0546
50.4377
33.2241
60.4396
53.6564
-99.9751
-150.024
-113.763
-93.2531
-65.7814
-17.6575
29.1821
41.0706
-3.92268
7.60213
-6.76248
20.6493
65.9071
68.3079
82.3078
63.2974
-45.5791
-65.8793
-57.2309
-39.1719
34.1352
47.1232
99.5408
95.701
16.2526
-30.4046
-48.0659
-71.9428
-48.9704
-30.1806
-10.2434
21.5091
-2.26712
-41.0857
-33.2553
-26.3885
10.6701
4.24556
-9.47991
-0.944742
57.8371
52.8874
-11.7214
-19.6344
7.60603
14.8557
4.14513
-18.6848
0.986197
24.0405
37.081
-12.3565
-26.7262
1.31963
1.13477
-3.15815
17.8494
24.0169
46.6168
-28.5945
-54.6168
-41.7422
-15.6918
-1.14763
7.29381
3.75756
31.6273
13.9252
7.69261
-3.63564
-38.0133
-26.4882
7.75476
41.0346
67.1524
20.9979
-41.9915
-31.1043
-41.6684
-19.8081
-9.39373
12.4272
24.0627
54.1082
5.11598
-18.3727
-9.38905
23.9652
25.5135
18.6015
-18.1814
-16.1132
10.9574
-39.3805
-84.7192
-70.9266
-32.6993
-16.9948
-6.42314
32.057
88.9711
87.803
13.9086
-5.89828
25.4745
49.5346
38.1959
18.3212
-13.5518
-100.317
-89.2414
-42.3835
-53.4423
-25.958
21.6705
45.3409
74.1217
71.2852
38.851
8.83366
-21.8579
-20.718
14.7323
6.15913
16.0608
30.1088
-1.60927
-48.7793
-34.3586
10.5958
23.126
22.8336
23.5693
12.4354
6.97161
3.84155
-44.9944
-69.4711
-43.0306
-12.61
-18.0962
-22.5058
-17.5562
-1.61924
1.09045
-36.1447
-29.5245
2.92811
-4.0829
12.986
26.2265
50.6386
28.3718
-18.8384
-37.0194
-31.0865
2.28665
34.7498
30.8969
41.2834
28.382
4.67864
20.9657
8.82683
18.4459
23.0102
17.1793
39.7032
-0.674986
-20.0477
-24.1126
-29.8314
-16.5079
16.903
22.221
38.4561
8.32144
-21.5459
-10.0827
-15.8939
-14.0138
-15.2458
-13.5111
-27.8033
-19.0307
-34.4954
-69.7291
-55.7203
-10.1143
9.74015
33.2372
34.6354
25.1016
36.4871
51.835
-10.7133
9.4944
24.6758
2.69078
-14.9421
-20.2968
1.7816
25.1912
6.16338
-41.6101
-50.4864
-26.767
-13.6055
22.8593
30.7697
20.5867
51.0783
46.7247
-38.8896
-57.8212
-25.797
-6.5356
-0.174878
-4.40185
14.0383
9.5987
-12.2849
0.619039
4.06887
15.6936
22.9459
38.8937
46.2384
35.5562
4.22892
-18.5586
-52.8973
-33.6149
20.3803
-6.5013
-11.2376
8.92703
45.1006
48.4196
-37.7166
-61.014
-36.471
-50.7183
-27.4492
4.88343
14.2691
30.5488
33.8391
-29.9248
-14.8928
-8.59973
-25.558
-8.52497
28.5426
37.2398
53.1477
-6.73104
-34.8768
-34.9255
5.25345
24.7676
18.4982
32.0393
52.7413
-6.79414
-12.326
-14.9541
-34.9799
-9.56893
-0.337007
8.13873
15.4941
-27.4627
-24.2712
-11.5765
-16.1007
6.70316
-1.91867
9.1111
54.4993
10.9149
-22.321
-27.6153
-26.797
12.5462
25.1833
15.7845
24.8247
29.0316
27.0388
-45.3099
-59.2027
-24.6668
-13.7244
-16.5949
-13.6147
7.91938
24.1058
37.9988
-12.8089
2.74173
31.2885
19.9208
-5.21931
-2.80754
9.64928
40.1498
-28.9635
-35.762
-10.971
25.204
24.8362
21.9753
38.637
47.2805
-18.9699
-31.2583
-42.5709
-68.5453
-49.0594
-25.4345
-0.315688
48.722
-4.03237
-15.8843
-11.8358
-17.7243
11.1352
29.4282
17.2936
44.3064
46.3491
-2.21244
-41.4067
-42.9985
-15.025
-8.98672
-9.6718
3.27734
26.939
73.985
53.0379
-36.7874
-35.1312
-14.0351
13.0487
-9.94299
-5.17663
13.7165
2.33817
-31.767
-18.2023
10.8841
16.5505
0.420318
5.06746
42.7818
-7.14821
-39.6018
-15.6258
-20.7602
-20.2899
-9.40304
30.6793
89.8664
27.5287
-67.9492
-58.9525
-44.9543
-28.9295
7.30407
17.9796
50.8596
54.4455
1.97218
-7.80332
-21.9247
-12.5619
13.5887
14.8871
-3.00137
-1.48995
26.7266
28.2746
-47.024
-27.9789
30.0454
31.7568
15.9979
6.58646
4.35504
21.6516
8.18812
-41.3437
-34.7554
-18.7197
-26.6527
-7.39439
-18.5148
-14.7122
24.2238
61.051
-18.9618
-52.3917
-26.952
-13.4565
6.89256
24.7963
29.9864
50.6453
6.44757
-29.2193
-31.4095
1.33304
23.4369
28.717
45.0713
46.1485
-14.8463
-9.60452
-29.1243
-56.3546
-14.7506
22.0031
37.4984
12.2307
-9.33314
-33.5539
-38.177
-36.5005
2.21143
-3.78304
-2.38011
47.9668
6.56232
-14.191
-25.4659
-20.5119
17.16
-8.29665
1.82634
33.38
22.2803
8.61591
-12.4816
-14.234
4.47299
16.8197
28.9114
50.4253
-13.3526
-50.6406
-40.6096
-36.1006
0.665619
14.1695
37.3558
63.5918
-4.98924
-27.0609
-32.8872
-38.6866
-9.49678
6.96993
6.55537
31.6246
67.7439
25.1335
-28.2542
-65.6442
-27.4718
7.40965
5.20717
-11.7706
41.7586
63.4235
-23.7081
-51.9035
-2.75748
10.7355
0.369954
-7.26843
22.5417
63.7729
0.100777
-27.4122
-35.45
-24.036
-4.2903
1.0161
24.1081
54.9188
1.94136
-31.7039
-41.9608
-44.6458
-10.7416
-5.10975
25.4774
50.1513
-2.06908
-12.3942
-7.13161
-44.8007
-19.3318
-4.65867
-0.466104
46.3089
7.15119
-5.15996
-0.381412
-8.1618
15.453
19.2022
46.0643
49.5058
4.06239
-28.6884
-15.6347
-21.7832
-8.34956
-3.89734
4.91827
24.1816
8.97266
1.04845
-12.1769
-20.6837
5.6368
6.07226
-4.30192
3.27074
53.2532
-14.1671
-82.7774
-93.3174
-28.6613
8.80109
7.01226
-3.64195
20.5634
56.5438
36.4654
-5.24261
-13.7647
4.55559
-1.23426
-5.54074
6.98433
6.22074
23.5523
-2.20627
-45.1954
0.562179
15.2094
26.8845
25.0267
4.28265
14.6678
51.5013
-11.0919
-47.7322
-32.5917
-13.0666
16.399
12.9386
34.1693
27.7508
-20.5998
-26.7647
-29.5677
-26.4704
-24.325
-10.4996
38.071
15.8188
5.63868
1.64255
-6.97986
-14.0035
21.3922
10.7941
28.0801
21.7752
-22.0829
-38.2409
-31.3815
-15.0967
-0.784165
-11.5181
8.38025
56.3307
6.03448
-43.6999
-65.8786
-31.8326
10.0566
36.5408
29.6336
22.7678
5.60078
-10.0144
-24.3155
-15.3868
15.135
22.111
23.4312
41.13
11.1571
13.2599
2.17942
-44.7602
-8.61551
36.5422
77.168
78.8709
-37.5727
-72.4884
-56.1187
-51.1185
-16.8896
3.75421
14.0185
42.7171
1.5384
-31.3565
-37.6395
-46.7097
2.9152
18.307
2.48012
-9.44203
33.5131
34.1445
-43.4714
-62.607
9.55455
30.1897
34.6073
23.6282
40.4613
48.2999
-11.1438
-27.4998
10.541
34.1209
14.4341
-10.1304
-3.72034
-17.1069
4.58812
30.2139
-38.1312
-40.4139
-19.4998
-19.4227
-8.59557
-6.73448
-10.9003
4.13243
-32.6706
-38.5188
-10.7856
-13.7091
3.31652
8.93531
28.644
40.0001
12.9823
6.1334
-7.26537
-16.7314
13.9206
37.4389
55.2517
39.9413
-4.95825
-9.5851
-9.91641
-26.9035
-3.11685
3.06225
16.6646
45.6016
6.60479
-11.6107
-28.6755
-34.7348
-7.54397
-5.60529
7.98023
34.0753
3.69548
-57.5282
-41.1212
-17.8083
8.77836
0.716163
-12.7506
26.6503
-9.97693
-23.8006
-9.91948
-20.785
6.63911
17.8302
19.8573
42.459
47.6204
3.73353
-33.3459
-54.2983
-15.4015
16.9622
4.46822
10.227
36.6879
92.09
31.0881
-56.5172
-28.576
-20.7647
-27.5217
-24.5657
6.90367
58.5677
27.7006
-36.8207
-34.5166
-3.92517
1.15223
-17.614
-0.32234
26.83
37.3872
37.5331
-13.6683
-67.9879
-44.5164
-16.0734
12.3967
6.36703
-4.31838
37.3052
7.19356
-45.1443
-46.549
-17.6098
12.7668
38.0569
56.4684
83.3839
49.9115
-46.5688
-66.7489
-57.1781
-17.3253
2.79584
35.4461
64.3088
45.0446
16.5964
4.05098
-37.187
-28.5646
-18.9256
-0.118766
40.7081
19.7964
-44.3592
-43.967
-39.4553
-18.2886
27.4784
20.4191
25.8097
-14.9191
-24.0792
-10.6236
-18.7652
-11.2115
3.99173
9.45872
3.16389
40.0367
51.5917
-2.1907
-20.9817
-24.1011
-0.0755573
-6.8243
-17.2449
1.71684
56.988
43.5153
-39.7194
-21.0156
-10.5478
-6.14449
-3.557
1.77248
17.5556
43.2288
8.20727
-52.0342
-42.4191
4.46396
7.88115
11.4713
21.3922
36.3522
26.4733
-37.9131
-35.487
-30.891
-8.5661
20.9647
17.3574
13.813
-6.71523
-38.0094
-27.653
-25.8743
2.16038
32.0566
20.2795
45.8338
15.9224
-11.6124
-9.61806
-30.445
-29.7947
12.3077
22.1445
18.6959
35.855
47.3904
15.6803
-17.688
-11.6004
9.80211
-7.41677
-25.58
-25.9169
2.94985
28.9731
-36.9405
-27.4109
-2.324
14.4037
-0.0990225
-2.65734
56.7577
47.0837
-64.7075
-78.6005
-77.2121
-50.3838
-7.01954
18.6436
52.8703
69.8729
1.19027
-7.54532
-3.46858
-6.56178
16.0493
10.9941
37.5519
32.5829
9.11574
-3.23997
-38.4163
-49.5281
17.6962
45.3627
93.5196
51.0866
-29.874
-46.3301
-42.163
-38.1136
-3.93187
-13.0467
-20.9357
-6.12375
40.8625
-19.7108
-47.5184
-28.4983
-0.460362
-0.787989
0.478644
12.5663
82.4358
68.9935
-52.6735
-47.3167
-1.41924
-7.31053
-29.2733
-22.7348
14.016
43.1824
48.8067
-6.04852
-19.3015
19.8011
16.8562
-4.25036
-11.6082
25.819
50.4651
-30.0666
-52.9054
-42.0077
7.31662
24.3675
16.2059
28.3539
52.1744
-16.1371
-29.5834
-25.0435
-20.8901
-11.3992
-12.7489
24.5599
49.9328
19.6128
-51.7763
-72.9663
-67.7762
-16.2074
-10.2793
-2.31033
14.775
34.3589
63.9418
9.70227
-37.3769
-4.55562
9.27934
12.0127
6.30872
3.49484
16.659
60.7243
-14.1941
-12.5014
22.2277
1.48319
-10.8388
10.2275
10.4664
26.9033
-12.4536
-30.9055
-35.6777
-6.28293
13.0321
24.2997
51.3091
78.4586
2.07716
-53.6328
-51.7164
-70.7671
-38.3734
-10.1945
13.4889
15.4493
34.5311
-8.28754
-12.0165
-8.97372
-21.1209
4.90276
27.7334
34.5298
13.6105
-11.5077
-23.0671
-30.4025
-27.6813
3.83753
14.9861
2.79287
-4.5821
26.0467
-3.39504
-47.2495
-28.9568
0.457712
10.9858
6.6128
8.10629
32.981
74.8729
18.757
-54.3241
-38.9657
-19.2242
0.742755
8.20644
14.1929
15.4741
50.1598
63.676
-25.6092
-23.269
-6.43032
3.51689
17.9839
29.4661
46.101
71.9979
-36.178
-108.242
-75.002
-28.681
-4.92202
17.8605
0.875429
9.08319
-3.24876
-20.2812
-31.8393
-26.4913
14.5106
16.1935
14.3539
38.7623
62.4742
5.36449
-40.7935
-54.382
-1.7312
1.13512
4.96384
27.9394
60.3515
68.733
-30.597
-54.7875
-26.2009
-12.2469
-12.9097
-15.8115
-1.11477
47.2293
-11.9555
-38.5065
-46.217
-19.2692
8.85079
8.21065
29.2537
59.9364
5.68176
-7.87499
0.0616432
-10.8318
23.6418
25.5526
65.8183
38.7199
-42.4975
-62.922
-46.8251
-36.448
15.4586
16.5331
2.34046
33.5361
-1.96861
-24.9509
-23.2552
-32.786
-5.65002
14.0599
12.8051
45.7344
51.6344
-14.311
-56.0804
-32.9613
5.23904
16.7598
17.0113
-11.5989
29.802
25.1786
-14.0897
-46.0846
-14.5296
-8.63263
1.11812
3.04208
14.3228
25.3086
38.4656
-28.8664
-30.2249
6.96083
5.38466
9.8918
23.7963
24.1041
39.5982
-14.4789
-37.1125
-24.8711
-10.4087
3.8705
8.91989
34.3425
66.5035
-23.5177
-60.9271
-37.6406
-41.2339
-29.5136
-4.81245
26.2208
37.285
-9.99375
-2.44361
-2.90106
-11.0674
5.63893
-4.61002
-10.0575
23.2342
75.9496
8.7016
-55.8958
-57.8782
-9.40264
15.0274
11.2073
1.82237
44.8271
58.4245
-30.5024
-52.8783
-6.25168
2.63455
-2.74608
-16.4211
19.2644
38.083
-10.4905
-23.2342
-33.1422
22.5932
47.3423
11.1676
31.2872
57.9486
-7.90176
-25.8956
-49.0835
-46.1496
6.17247
12.1126
63.3901
44.7591
-1.70202
-50.742
-58.8637
-45.3086
5.02837
2.37082
-20.7143
-17.3908
14.8982
14.5564
-5.94416
7.20656
39.4397
14.2935
-15.748
-37.2191
-19.4803
23.4206
23.0668
-21.7296
-12.2874
14.839
17.6507
4.7902
5.95166
4.91245
29.3653
14.3209
-18.0343
-2.61091
12.6391
-4.32166
4.06102
14.0393
31.6437
-22.9772
0.325442
1.35454
-41.1205
-17.3511
-0.642088
20.9046
34.3203
-31.4603
-28.0609
-18.5946
-25.9411
-8.70426
-3.03017
26.4587
52.594
-43.0872
-35.5515
-29.6425
-34.697
11.5508
27.7935
37.5534
37.2212
-29.6467
-18.7925
-4.8369
-10.8305
28.3497
37.8115
28.2413
39.0252
32.151
-19.7912
-33.0354
-27.5927
23.6095
20.2198
15.5996
27.4231
63.8471
-39.6671
-99.7847
-68.4951
3.44205
8.91583
-2.51573
-5.66941
33.6694
8.7773
-20.6432
-33.8984
-20.5643
17.9869
17.7309
5.41601
21.7385
33.8947
18.5648
-28.9404
-31.7922
17.5545
24.124
2.41388
26.0515
77.3159
10.8402
-52.4456
-56.1949
-28.6359
-0.543389
-9.79075
-5.7019
29.0763
18.1806
-29.1258
-30.5378
-42.6734
-17.5621
8.08411
3.06191
21.2069
39.6131
31.4248
-28.4706
-64.0748
-29.2885
16.9863
19.7507
21.8265
26.4412
39.6083
54.0508
-20.157
-40.0052
-13.1179
6.55988
7.07999
-3.61356
18.9139
9.74006
-18.4181
-21.3868
-28.4409
10.6166
1.11876
8.04743
49.8915
18.8863
-38.4238
-22.8196
-14.9721
-20.001
15.8541
41.4477
78.6399
16.0698
-46.3008
-34.0834
-33.9448
-26.9092
0.809304
-1.07574
41.1125
41.8951
-17.9404
-13.036
-25.6459
-11.3865
18.3073
4.01099
-18.3064
0.472759
35.6137
-48.9922
-63.9335
-17.1305
36.9823
35.1496
8.98767
4.95344
24.0347
8.95555
-32.8796
-16.9789
16.9139
15.6278
-1.77296
-13.2748
6.10551
34.1601
12.8851
-42.4443
-45.5997
-4.45885
-22.8647
-10.1539
20.9691
54.9067
61.215
-13.7829
-22.1782
-22.247
-10.8717
-4.73742
2.47177
35.2307
23.8879
-12.2148
-14.2765
-21.1767
-13.5463
7.47693
-3.94457
42.9549
73.1256
30.0477
-12.8537
-36.5589
-49.0039
-23.4257
-5.80942
-2.7328
-15.2227
20.7756
45.7938
-28.2331
-33.5454
0.14507
7.06924
-1.87383
-1.21313
12.3362
39.2092
-25.0066
-35.4414
-8.31137
4.64235
-4.93102
-4.3615
30.7141
25.9052
-13.5287
-6.50126
-14.6395
-19.1829
-4.56048
-20.4829
4.8457
47.8535
-16.3404
-13.0438
-5.70227
-14.831
13.1316
10.8961
35.9589
70.7859
39.1246
-51.477
-52.7973
-38.2555
-3.16033
0.180125
-8.02398
-15.9614
25.8966
67.8614
30.788
-69.062
-32.464
-22.9512
-2.48831
2.80311
8.27864
14.3104
28.3977
-4.66819
-40.8615
14.9045
22.9923
16.6089
17.1882
13.2462
19.4768
58.0046
-13.0441
-50.4851
-42.4112
-3.41425
8.82816
8.92521
4.92062
33.461
-12.2888
-65.3566
-56.5766
-25.4685
17.9619
39.8096
34.1865
53.6101
-8.25935
-15.0157
-0.0586299
-35.2591
-9.9471
-6.25542
5.71616
42.7983
4.13226
-4.22173
-14.6962
-37.2311
-11.3876
14.1215
19.7364
43.4166
56.0328
4.49616
-54.7457
-70.074
-31.7896
-17.9038
-17.696
-11.7248
33.7598
17.5793
-20.7693
-23.0784
20.2134
31.4425
31.0128
17.7319
55.3565
38.3411
-18.3946
-39.1104
-38.3201
-10.7199
15.1151
-0.333816
71.1324
81.8903
8.38273
-51.4379
-60.4807
-30.6346
-8.40586
-16.2776
-13.3784
-5.02125
30.1392
17.0097
-44.7227
-30.0898
-16.6988
-26.036
-30.8859
1.32814
63.57
41.0193
-8.29184
-24.0542
-10.5454
14.3702
20.737
32.9755
48.9008
20.1614
11.4549
-24.3003
-41.3654
-33.9857
-5.63571
5.54952
15.1655
12.3954
49.5846
-21.6028
-50.1146
-22.7164
-16.7652
-22.8635
0.342162
37.5371
47.1329
-15.6662
-17.2825
0.0498192
6.05834
17.977
-0.524877
15.7514
34.4226
-6.36783
-18.8539
-36.8702
-57.1294
6.93148
21.8503
23.3535
26.2606
-20.068
-12.0229
-5.72115
-12.3438
10.5031
3.30889
15.7276
32.134
-10.4932
-10.4869
-17.1046
-16.1446
16.0524
26.0802
37.6327
55.6624
46.9751
-14.4989
-55.7777
-61.0292
-9.69274
-5.49278
-36.9925
-36.9215
14.667
29.4495
-35.2865
-22.065
7.34
-3.32684
-8.91541
5.6709
20.5238
31.2205
56.1915
-27.2404
-41.0502
-6.47078
-0.544492
-0.161824
7.96386
19.8774
66.8655
36.5667
-15.8463
-30.6058
-4.45813
-9.84508
-4.8162
2.76947
39.2747
-6.36889
-20.5585
-25.0121
-42.0988
-13.1298
8.87817
34.5888
54.3228
-5.89028
-12.6745
-18.4741
-37.808
-25.4545
-8.8899
-3.53251
44.6683
69.834
33.416
-42.8172
-70.232
-45.7111
-24.4987
-5.77649
0.410964
28.9234
37.664
-18.9862
-19.095
10.4824
11.3944
17.5935
16.2017
29.319
16.762
-17.1225
-31.091
-30.6478
6.56571
49.5526
50.0181
88.6307
44.1443
-45.1304
-46.4949
-26.4866
-20.2945
-9.70607
-13.1438
56.7783
21.2582
-59.5931
-52.4559
-41.469
-20.9379
-3.32869
-6.67866
8.95762
36.1983
-7.53821
-40.9949
-40.6339
-13.3132
31.2178
24.6306
8.77256
13.8428
61.8265
54.8804
-53.9211
-39.593
10.4338
13.2579
10.4983
4.93747
18.2274
53.6728
15.4739
-38.488
-20.0959
2.18156
-7.86683
-0.405526
5.16366
3.34127
17.8726
-10.8498
-55.0624
-42.6987
13.4275
19.1458
27.5172
26.2886
33.1999
-9.88511
-32.0722
-39.5238
-42.9082
-21.7911
10.4255
34.0646
46.9745
-7.2044
-6.26682
-7.00066
-19.3504
-14.003
-6.05684
25.2179
34.761
-20.8202
-13.2421
-26.8093
-21.5263
19.0282
24.884
12.8054
45.766
25.4588
-21.9037
-37.602
-41.5307
4.59132
15.8127
-0.282332
-0.0634176
17.5479
3.05939
-15.5734
-8.71443
30.2693
26.7281
13.6468
5.52398
-0.484108
-16.1493
-23.2678
-34.6725
-4.67286
36.3475
39.3761
54.9298
23.4842
-23.6417
-41.3736
-40.5786
-35.3633
-13.3893
-12.5485
-8.57836
20.1586
48.7193
-11.5414
-25.023
-12.0163
7.2954
-0.662015
-22.9853
-2.65822
27.6804
-28.018
-27.8602
2.3946
30.3907
36.9435
25.2602
22.3737
48.989
9.88718
-28.9999
-43.8725
-39.8555
-4.43686
-4.99274
0.778581
-0.206893
19.6789
-0.180103
-38.7014
-22.4068
26.2921
12.5053
11.7708
24.5855
58.4589
12.3113
-19.8576
-34.0304
-26.0995
-19.2614
-9.34796
-7.72168
48.7399
30.0152
-17.4349
-6.62211
-18.0551
-12.4284
6.74311
3.46672
41.7202
-23.2713
-47.434
-38.4139
-30.3838
8.59398
31.4113
18.1486
30.5521
10.8823
-0.411373
-9.48335
-13.9673
-6.82457
11.7586
14.6683
54.1719
71.0057
-26.8628
-69.8689
-70.6364
-25.5225
5.07844
13.4658
8.90977
24.545
54.0796
7.32139
-23.6856
2.00167
9.1004
-0.795618
-8.33174
-8.05376
3.98944
31.2123
-23.2194
-67.9983
-7.48155
19.8227
0.297866
3.89392
29.1654
75.1836
22.1114
-48.9065
-65.8065
-21.4231
-7.41982
2.6851
12.8175
32.0288
13.3782
-30.2206
-22.1339
-22.3877
-4.30378
28.1731
50.8307
52.0464
16.4312
2.44165
-5.31389
-45.9714
-38.7059
-2.96734
-0.301149
31.5797
24.3085
-5.52931
-30.5329
-45.6094
-30.7198
1.80887
4.86132
-7.83131
-4.80663
36.3056
37.8778
-29.6992
-18.0032
0.194599
2.00538
0.146375
4.14804
41.1605
26.4832
-49.6323
-30.0346
-4.81487
9.56234
15.764
29.082
78.7003
49.1187
-44.8184
-45.5864
-56.5676
-28.3202
18.7799
20.6338
41.8613
4.93009
-17.0278
-3.02679
-19.0059
-28.486
-5.87393
19.5912
65.5821
58.9315
-40.8032
-70.2314
-65.9421
-23.4264
35.5349
19.8501
-7.13101
13.1997
53.8508
8.72342
-46.6631
-23.3897
-16.7517
-1.04857
15.6516
12.2727
30.7479
49.2963
-22.64
-50.5297
8.5665
24.6504
3.53244
-13.3036
-8.98221
6.77233
46.2113
-10.0045
-41.4094
-9.91651
9.3051
20.6912
21.0635
12.2545
9.99918
-24.5887
-12.2471
-22.4127
-10.0322
1.14069
5.07321
31.6276
18.2392
-41.4659
-36.509
-33.4032
-38.7768
-5.8487
11.4248
33.4636
43.1765
-13.3726
-14.8417
-7.95927
-8.09279
16.5927
7.17956
-9.66983
26.8317
69.4096
14.8474
-36.5946
-33.4514
4.4697
10.0665
13.2941
5.65314
36.898
28.8883
-34.3957
-32.3016
-7.79659
-2.52054
-2.21272
-17.4622
20.8651
41.6533
-41.4878
-52.7654
-31.371
8.24868
13.3908
8.23376
29.1454
47.0905
-4.56168
-26.6227
-17.585
-11.9372
13.2319
10.5325
17.9272
32.2333
45.0465
8.3106
-37.9915
-52.3792
-17.2873
-11.7399
-7.35348
8.28316
23.8216
3.021
-14.5753
-18.2033
-12.9696
-6.94959
-8.05867
-9.67423
15.509
77.2257
33.0515
-48.0992
-66.7449
-32.2548
-9.16419
0.915309
21.3223
28.4158
64.3459
22.0215
-39.7105
-23.636
-0.652551
-12.8626
9.51261
30.5807
18.1889
-44.4005
-20.2003
-41.5696
-5.8631
32.216
35.7844
59.9474
56.6257
-5.26133
-10.8278
-20.1268
-53.2303
-18.8886
29.7561
80.4922
13.6466
-38.4672
-38.8648
-42.0722
-32.7545
8.23693
11.3471
35.4591
38.2622
-32.3898
-37.8825
-37.7043
-26.1028
6.47716
17.4799
15.7551
8.82457
37.9754
35.9442
-69.4357
-46.2422
-3.80803
8.00991
-3.77572
-16.5788
17.4482
39.5961
20.3176
-10.7718
-2.76698
1.42122
1.99443
8.28644
10.5898
7.56724
12.5566
10.2177
-16.5255
-21.7851
3.27399
21.6081
28.4102
17.0632
26.8211
30.9729
-25.49
-53.2991
-71.2995
-28.835
31.0337
27.4599
66.5128
26.4481
-34.6333
-37.0542
-29.3781
-38.9055
-27.1331
-22.078
-0.376129
34.3471
27.971
4.23343
2.25501
0.200247
22.7179
11.8455
-1.89263
0.481896
50.9533
0.0626191
-53.9063
-35.0857
8.43768
11.7302
-5.5265
12.0112
44.157
28.1251
-33.0925
-35.4026
-24.1871
0.414396
-6.79458
-6.909
36.1289
-9.35828
-21.8649
0.809137
-7.56138
7.26333
-3.42938
9.60343
50.5971
-6.22616
-1.30425
-15.9683
-25.4753
-8.69689
35.2082
36.1707
22.0503
0.210483
-10.7311
-11.2225
-22.6147
0.420576
2.46179
-0.663197
11.7256
6.61094
-31.1239
-25.1118
-31.7688
2.79419
7.93371
-7.69632
-19.7498
31.1018
71.4128
-21.642
-37.4707
-12.813
-4.26105
-2.83395
0.339528
11.8451
37.8861
49.6179
5.78224
-16.8518
-27.0889
-9.45386
-6.13896
8.6924
0.797915
1.10929
32.1376
-9.20915
-64.2321
-13.373
13.479
14.3923
-1.30776
-13.9921
11.3511
36.6557
-24.8278
-37.9804
-19.4263
13.5366
39.2347
32.0548
39.9006
47.9246
-15.0544
-33.1119
-40.2948
-28.8748
-10.4659
10.6968
36.3414
49.1575
-28.5951
-31.7703
-35.4532
-50.3784
-29.7927
-15.9592
13.9079
58.2116
38.7089
3.78466
-0.044476
-2.50837
11.6199
2.34772
-8.06311
18.2099
15.6729
-14.1841
-30.8552
-39.886
9.30602
24.7245
18.944
43.3284
28.7577
-2.93132
-17.9139
-39.4841
-28.6864
-9.85545
-3.92243
20.0151
37.1221
-11.2816
-26.7082
-38.5712
-13.5264
16.6832
18.9292
8.8106
48.9734
47.027
-32.2017
-43.3846
-14.7534
-2.9357
-9.56292
-17.354
1.65906
48.7341
31.9572
-32.2469
-26.5978
13.1675
10.1814
-9.73792
-9.39775
-10.2011
12.0374
21.1819
-42.787
-34.324
9.88701
-0.0252493
2.0249
11.9286
36.9725
27.7904
-3.81839
-15.6848
-11.0811
8.36779
6.2094
18.3114
33.2666
-3.34491
-18.1101
-5.85214
-16.3404
-26.4989
0.321311
9.2566
44.8058
-15.5358
-28.0663
-15.914
-23.0563
-10.5642
19.2102
13.5862
27.9025
11.112
-7.46786
-1.53038
-20.4425
-8.8378
-6.95157
1.4681
42.2581
33.1172
-20.3963
-24.0238
-7.90305
15.4992
11.934
1.95097
-16.6031
4.49313
35.084
-29.8079
-50.2962
-28.9106
-6.04996
6.6269
3.53726
23.6025
82.9247
40.7117
-81.4705
-74.6922
-18.5957
-14.6384
-17.7262
2.64464
14.5412
32.2292
42.6494
-5.77771
-17.6069
10.5417
17.7689
16.2023
16.9246
29.5981
41.8244
-27.3586
-40.8934
-11.3137
20.6932
14.5689
27.3707
38.6418
11.0866
-15.4338
-8.52513
-13.2594
-22.9554
-2.57328
-10.0053
13.5053
33.1065
-7.78043
-77.3691
-83.543
-54.5889
7.00056
-3.35212
6.05892
32.9374
37.6974
20.63
-63.8791
-55.9854
-14.2941
14.8205
27.9794
22.2001
34.2682
35.202
-3.39996
-18.4778
15.8916
52.3432
36.051
15.572
40.7781
34.0336
-32.2476
-39.1086
-25.2972
-13.9379
7.3908
8.61796
28.1023
38.6411
-30.4454
-33.7366
-22.1731
-11.107
-5.09577
-31.3717
-3.79401
26.8998
-15.9465
-24.1264
-28.093
-28.7546
1.65471
8.41831
39.7832
69.7315
-1.64896
-44.5641
-23.832
-27.1156
-1.86647
4.9251
-2.63254
-7.77368
42.9805
53.1493
-16.9896
-15.233
9.92342
4.92215
-2.73936
-4.31653
12.166
21.5723
-28.3655
-72.791
0.0472575
45.1825
36.8485
10.2952
22.1685
54.5867
7.56288
-25.8351
-42.1745
-43.3671
-6.32141
8.1808
18.1082
30.728
10.6084
-31.7807
-11.0061
-16.3424
-17.3854
-12.0995
15.1192
49.3767
4.1323
-25.9449
-30.7677
-45.1508
-25.4307
-1.14797
3.47553
47.7771
57.3901
-17.5372
-23.0779
-29.2022
-19.5589
9.143
10.329
6.13512
36.9617
22.7724
3.81823
-15.5025
0.558273
12.2245
9.51685
3.85626
47.9478
8.51928
-17.2101
-31.2732
-19.3196
9.32953
12.0913
18.5344
3.98579
-17.9747
-14.808
-8.89729
-18.6217
-11.8898
-0.252703
35.1206
49.4723
-37.1975
-57.2409
-41.8123
-32.7684
-22.53
-3.74447
16.3736
32.7707
47.0677
14.6469
-19.9877
-5.57209
16.1707
7.84548
4.4637
-0.331637
12.2006
37.0078
-6.9673
-31.8819
-1.47414
14.0684
11.2661
1.22419
26.9561
13.4254
-3.49909
3.67237
-42.9989
-21.051
-11.7784
-13.889
-2.1115
-3.84094
12.5168
15.3037
-25.5109
-33.7916
-26.9294
-6.89398
37.067
38.4218
26.5448
17.8292
2.64594
-5.30459
-19.3268
-23.2913
1.10241
6.92607
34.24
50.9932
-16.6742
-24.3557
-27.3471
-20.2889
19.2844
10.9221
1.27358
-7.00786
-8.91041
3.41141
-4.1717
-8.17449
-2.12992
1.26317
23.0649
45.7472
-7.07622
-29.2703
-27.8212
-25.1971
12.5194
19.6987
5.93065
-10.3557
8.69418
-16.113
-13.7433
-10.4507
-12.3665
-13.4258
0.978726
23.155
84.0139
15.1145
-51.8963
-54.2402
2.5635
11.0881
2.36364
-3.4194
30.7
64.4887
-9.89335
-32.3827
-11.3169
-0.868972
-16.108
-11.4504
7.88301
29.1664
-13.4931
-39.6058
-49.4487
-4.97001
17.4486
0.818384
19.6697
55.1082
-8.79819
-20.4639
-9.48519
-18.2981
19.2026
29.5402
35.6008
74.0331
-5.33134
-61.7979
-42.6675
-42.6298
-3.53782
6.90533
-11.386
27.5494
48.8704
-2.02918
1.78424
-12.0977
16.2498
21.8067
1.84789
-1.2352
10.3526
-3.42054
-24.2359
-52.3266
-12.0698
27.1718
36.099
47.6305
-0.645125
-13.0956
-14.7239
-19.5785
-31.8605
-21.1416
-4.60181
9.9049
-11.3957
-9.38894
-1.69837
-17.6092
-12.9674
6.01539
38.2185
52.4053
-23.4301
-28.5351
-16.9996
-20.257
5.38942
12.7366
8.1793
32.6626
41.2132
-11.5019
-12.6353
-17.6163
3.03996
-7.89849
-6.4683
-3.36206
9.67559
25.9763
-44.1025
-70.577
16.6843
37.7686
11.5631
1.98974
28.5848
61.0273
83.3618
-21.4999
-85.1387
-36.6812
-19.2063
-3.72529
11.9332
12.7549
39.4449
21.7572
-38.4275
-50.1697
-28.5101
-10.2164
8.87118
18.2623
55.5646
31.93
-1.673
-30.8144
-51.6359
-9.68657
22.525
47.6705
74.2773
-12.2638
-41.2961
-27.4609
-34.7279
-23.4834
14.2557
7.5656
36.1273
46.8707
7.93697
-43.7529
-59.5316
-42.5804
-9.44521
0.652137
-7.6352
10.8274
53.2263
22.7873
-20.1081
9.93496
22.0921
14.8629
-3.31094
-5.57131
11.097
-7.30745
-17.6552
-37.3471
-17.6326
19.8856
25.9354
47.168
9.03971
-13.2449
-5.5352
-6.06963
-25.8994
-10.6045
-6.2671
25.6397
18.1754
-20.8956
-24.5122
-16.3352
-4.76052
8.39883
1.33006
0.0196774
37.7274
37.5128
-37.2084
-56.1255
-21.5338
-4.71331
-1.52275
24.2755
50.2726
62.1192
-25.6605
-38.5452
-24.9214
-1.64438
6.21569
12.2592
19.0731
59.2676
18.2647
-18.8906
-20.8226
-7.20887
6.12605
-8.57699
7.9868
62.9779
4.0392
-43.059
-60.2258
-55.9184
-9.39242
1.18138
18.1703
46.3787
-4.9709
-9.70498
-10.775
-25.5674
-9.16824
0.940269
7.05371
10.0874
3.47445
16.9599
6.94009
-31.1932
-6.20167
17.6846
38.3764
43.893
-6.29692
-30.7944
-29.0573
-34.2106
-2.53177
-2.15183
0.263602
34.9147
42.8642
-22.4836
-36.01
-31.008
-1.46651
8.3173
24.6984
13.2559
18.2024
40.1336
-13.2127
-23.4306
21.1903
27.4969
9.28295
0.273067
19.9511
67.8671
15.0383
-63.372
-84.86
-32.1781
-18.0831
-14.9197
7.82505
5.39337
-12.857
8.60012
26.5148
-15.574
-21.3609
-25.2661
-2.13621
8.20723
12.6216
33.9573
9.46573
-58.7213
-9.17781
4.74593
25.9085
47.9293
39.3792
75.9682
12.3322
-49.6852
-48.404
-44.6853
-23.7182
1.8951
15.1094
41.9697
57.9117
10.4015
-30.7697
-44.4994
-34.671
-18.4794
1.89958
8.2726
19.5543
32.4202
-10.2295
-30.7498
-4.7927
15.4173
12.4478
6.37424
18.9602
20.1507
-22.4117
-39.0156
-41.0511
-9.24554
26.8531
29.0531
51.5647
-12.1782
-32.1136
-9.13019
-3.02454
-6.88197
4.15113
-3.37172
34.3807
3.30968
-7.99671
-14.348
-30.7541
-19.096
12.3147
23.798
43.1373
0.0317407
-29.6959
-19.0181
-16.228
13.1053
-7.11771
-2.6661
43.2645
63.7679
-4.6722
-41.4811
-34.1842
1.46401
4.7518
0.937449
-8.18561
1.0204
42.2335
-18.9789
-45.613
5.05925
19.9021
-7.33833
-11.8387
25.3009
69.643
0.321782
-57.8907
-62.1309
-14.1559
-5.31161
-6.67594
27.7784
55.955
16.5242
-5.16618
-29.1372
-23.4905
22.9326
45.2331
49.6793
53.7513
-15.8117
-35.276
-49.3097
-55.2169
-6.76633
-1.85282
-2.55085
26.5405
13.017
-14.2601
-15.3982
-28.3112
-7.20093
6.74107
10.9156
28.6523
34.4811
-32.7346
-46.9442
-27.0128
17.8998
2.23361
0.294548
4.39126
13.8811
35.2531
-15.4191
-6.24614
7.16925
13.5432
5.75465
-0.395617
26.7673
29.282
3.54808
-32.8835
-20.0207
12.7548
14.1627
-3.08145
12.4216
29.8461
-3.42641
-21.8401
-15.1821
-21.5364
-10.698
-8.60802
12.8853
51.5268
24.4291
-41.6896
-48.5045
-31.3488
-5.59292
-7.50669
-12.9443
-1.47652
38.5148
49.7857
-5.6909
-48.1827
-16.1028
-7.25141
-5.35754
-8.13174
16.4635
57.6204
39.8277
-46.5946
-34.122
7.78482
11.9149
13.4044
30.0789
19.654
12.0736
27.1392
-42.6664
-53.2503
-26.5751
2.22413
28.9781
27.1528
42.0942
35.0555
-14.2443
-34.6307
-57.8954
-41.9752
-11.2335
32.4361
57.2148
13.5227
-11.0922
-11.5847
-22.0212
-20.2913
7.54755
1.98744
38.1783
14.6854
-16.996
-23.4386
-36.1499
-35.6021
6.6962
3.91462
62.6907
83.9616
-17.2594
-49.0668
-44.5078
-14.8508
-11.844
-7.06037
16.646
46.4425
7.86528
-18.3533
-19.0206
0.796796
10.1576
5.36968
-1.21884
23.2556
31.5805
-19.7828
-44.638
-31.9462
16.6431
22.2924
8.6295
33.509
65.8672
74.4612
-27.828
-78.9804
-40.0402
-7.76853
-12.1324
-7.0655
4.82527
18.8256
19.3025
-56.3373
-43.5734
-9.92977
-4.38873
8.28191
37.9232
44.0594
41.147
-34.8633
-57.3385
-61.0362
-8.21274
12.9196
30.3403
50.5177
92.8935
32.3501
-24.6307
-24.8837
-31.2587
-14.1518
-15.8543
-2.92102
16.507
40.5126
33.8614
-21.6549
-74.2198
-32.774
-18.4106
-14.6533
4.80867
15.5401
43.3487
2.91131
-35.522
-1.33026
21.1406
10.5696
12.8733
23.5032
37.9861
4.82302
-30.2823
-43.016
-38.0726
-6.66319
29.0267
44.6832
60.3289
20.5961
-16.1673
-15.9092
-35.0073
-37.7884
-40.6623
-6.36086
48.1284
-17.5242
-25.0193
3.63201
-2.5994
4.28953
3.96018
3.73182
47.6323
53.2704
-6.54769
-31.8734
-50.3485
-25.1525
5.70162
-0.829149
-5.69175
49.6812
31.0845
5.77535
-40.413
-31.1565
-13.0605
12.3429
-3.95942
-10.2169
-6.83173
17.5312
57.4564
19.8822
-54.8292
-44.6282
-15.695
20.7743
35.3355
13.7277
29.6954
24.5403
-21.4915
-13.3223
1.13175
19.647
12.5858
-0.574228
27.0743
33.3568
-29.1681
-50.937
-75.6351
-41.3504
27.939
31.8925
48.1611
24.6893
-20.7049
-20.5472
-19.2964
-27.8487
3.5486
15.4735
16.8301
63.9658
31.9638
-47.7284
-61.5529
-49.7431
-10.5865
-12.7025
-15.8925
12.4193
59.0468
77.7443
-6.37835
-43.4093
-9.66963
12.0094
0.531833
-24.1231
-10.8924
47.2279
39.778
-46.2647
-31.0992
18.104
17.3513
12.6309
16.071
33.5555
-0.587744
-22.0849
-14.8837
-25.6549
0.631556
29.5048
20.4744
35.5421
-13.7912
-24.4732
-24.9129
-57.4995
-42.0445
3.1421
27.7234
62.9338
19.2429
-22.1522
-9.45739
-20.2473
-9.92406
-5.70027
-8.19708
-6.76777
13.5773
-2.19514
1.45523
-10.7483
14.7023
17.8074
18.7592
-0.702818
-1.51138
30.551
-13.2728
-43.5418
-49.4539
-22.0277
-1.66568
22.5612
33.0024
33.371
52.0485
44.5735
-33.2725
-43.4495
-26.3672
-14.8585
8.65761
8.42391
20.8913
26.9771
-28.9218
-35.001
-3.97651
14.7361
35.3763
23.873
27.3869
-5.28063
-50.9825
-40.0575
-35.0514
-29.1004
8.38564
29.3757
62.3253
15.788
-11.4878
-3.72787
-4.93956
-19.3562
-1.508
-4.9102
11.2591
10.7856
-14.6942
8.5639
1.52538
-10.5583
10.7576
21.0438
7.65136
13.5372
-19.6554
-14.6025
-16.1263
-11.1962
-11.162
7.74393
24.9043
13.5018
-0.804705
3.44201
5.85588
-10.3032
-5.90945
2.13124
8.795
23.8209
-26.1153
-61.2613
-35.6831
-23.2032
21.6174
40.1176
33.9187
15.4916
31.5821
40.7949
-39.5664
-46.8742
-11.2459
-8.76953
-21.0931
-9.65401
30.8552
59.3523
-25.2508
-53.9116
2.63404
25.0041
20.5687
13.9124
15.8737
11.8795
20.3709
-1.10123
-47.7128
-78.3565
-10.0992
17.7823
16.0893
11.8497
13.4527
32.6167
38.3214
-34.1681
-9.42623
-10.4047
-4.7032
15.7241
11.0664
34.7747
29.0336
-51.7156
-57.7562
-11.5903
3.66762
-2.63796
-8.99128
25.0973
38.0528
-1.7339
-16.172
-33.0957
-29.9261
-5.15683
9.64539
38.039
35.0339
-16.7097
-18.3317
-32.023
-17.5119
19.9229
1.5721
38.6529
60.2033
6.71407
-29.7708
-48.3192
-23.9848
11.2415
20.4012
22.8944
26.3141
50.2965
31.3198
-56.9823
-58.9445
-19.1746
-13.5668
-21.9656
-2.24136
26.8322
47.0221
-4.83141
-51.548
4.82621
23.4068
-6.56778
-7.33969
1.6519
-6.2802
-4.51396
8.54168
-20.7289
-15.7469
28.195
20.0073
13.3881
3.23166
-4.58318
22.3276
13.3352
-24.8256
-18.5964
9.58816
15.4278
18.9378
9.07309
9.59143
-23.9247
-52.51
-42.1243
-29.7568
-10.045
15.0712
27.4333
45.0253
81.7661
12.3712
-29.5773
-46.3075
-35.8537
-35.4128
-18.5029
9.30661
31.1527
80.8733
55.5764
-36.4897
-42.0568
-11.3999
-9.89854
-12.3192
-7.29913
6.50558
24.4223
-29.6906
-48.0987
-6.05913
18.1596
10.1071
18.574
37.3777
33.017
4.26125
5.91558
-27.0309
-21.9663
11.5164
33.1307
84.3414
10.9125
-39.0006
-37.2106
-38.4064
-36.3434
8.83256
0.608994
40.5676
10.1597
-13.8752
-10.8518
-16.8792
-21.0922
-17.9593
-20.5967
13.2516
28.3435
-21.6411
-32.4412
-51.2674
-19.9208
-0.99346
14.2646
15.468
15.348
77.9364
60.1958
-48.7286
-47.8441
-28.1696
-3.48791
14.8854
20.4837
37.5002
45.2559
34.5652
-20.6636
9.89545
25.3402
7.46473
8.413
2.12135
-20.0941
-17.9411
15.892
-63.6982
-54.9566
0.236447
22.4734
20.366
10.176
51.4528
17.0231
-60.9103
-63.6634
-58.9232
-12.2658
12.1609
9.58971
21.8251
73.1953
8.06461
-5.70917
-3.14514
-20.0354
-11.1023
-7.47334
8.79212
47.0666
78.4045
-2.80099
-64.0448
-44.7988
5.12544
6.97853
-15.1869
-12.6426
22.6174
64.1748
-13.2056
-54.6165
-16.8019
-7.65838
-12.3963
-16.9769
9.19539
45.1551
4.21461
-35.571
-37.4828
9.94201
9.64428
12.645
53.4817
77.3182
-17.5884
-21.4034
-22.129
-35.2809
-4.99957
-2.35204
33.161
56.1971
17.5696
-50.053
-48.2702
-45.7112
-8.14319
0.66622
-14.2771
5.84833
37.428
15.6052
-2.95435
-31.9904
-7.1187
4.83009
14.7612
17.7376
30.463
34.7602
-2.20331
2.62201
23.4911
20.035
-7.76351
-18.1658
-2.35429
49.4569
21.1129
-19.8773
-40.4921
-25.5743
-22.0643
-27.0452
14.2378
30.5187
-27.4598
-46.1355
-30.5667
-24.7501
0.547868
-14.1598
1.08464
59.0033
5.75838
-6.34375
-4.90155
-27.9211
-24.6977
-4.7685
1.45782
39.0195
22.1749
-19.3449
1.43317
2.01997
9.55993
4.90032
32.3994
54.8448
12.4935
-5.95757
-17.9024
-20.5438
15.9763
12.4667
15.0557
18.1304
31.7562
-3.43916
-33.0277
-33.1228
-15.7912
3.98683
6.94984
9.05907
42.9988
79.2489
-32.8673
-92.8443
-40.9887
-14.775
-7.18738
-9.16018
16.1597
57.089
12.3036
-83.5656
-80.207
-27.4545
-15.0536
-9.6948
24.2649
45.6279
61.8461
21.7468
-12.6491
-38.4874
-13.3904
9.09424
26.7587
48.8921
58.3435
7.67727
-17.8692
-20.0581
-1.52193
19.0193
14.1158
25.8879
48.5641
7.23049
