-286.246
-206.997
-78.3982
81.6656
157.763
274.473
462.225
654.331
836.938
977.525
1076.67
1161.28
1239.81
1208.35
1165.71
1134.65
1112.68
1051.2
959.187
833.067
701.436
562.009
326.952
95.3926
-99.6775
-297.665
-503.547
-685.811
-775.209
-833.388
-979.27
-1118.39
-1182.57
-1201.02
-1248.32
-1337.72
-1437.1
-1505.6
-1544.99
-1538.98
-1442.66
-1296
-1100.39
-883.327
-610.7
-309.695
12.5873
261.333
461.133
655.996
886.089
1081.58
1224.75
1381.29
1539.92
1659.06
1722.25
1756.45
1745.77
1673.28
1513.09
1301.05
1077.22
850.33
589.037
278.564
-3.38102
-226.959
-418.434
-610.498
-752.23
-869.492
-969.991
-1101.12
-1196.23
-1232.29
-1207.33
-1149.53
-1056.64
-935.176
-797.327
-691.948
-595.963
-537.759
-471.834
-351.364
-252.873
-162.742
-64.4985
-37.2189
25.9486
97.1982
139.074
199.215
256.301
318.694
400.022
429.856
460.464
478.818
471.761
489.083
504.869
512.163
541.603
517.782
454.944
392.99
335.791
302.14
245.967
193.756
126.4
59.4617
3.70089
-51.1916
-101.94
-129.09
-134.826
-137.39
-152.334
-149.891
-136.612
-91.4982
-108.178
-155.128
-167.387
-177.175
-200.217
-214.024
-199.903
-176.551
-122.806
-63.5765
-88.0086
-86.6826
-55.2517
-37.8143
-44.1688
-31.0935
3.58362
27.0366
-39.9845
-112.545
-98.0134
-37.3985
-0.529164
22.0213
47.8758
80.1823
63.2272
52.9195
37.162
31.2084
54.4189
76.0078
103.118
164.357
152
114.066
91.7162
79.6496
110.434
114.58
100.444
125.368
129.282
66.061
-0.543711
-20.8535
1.94837
-14.7171
-66.8931
-86.4309
-85.3388
-128.377
-148.559
-146.568
-106.252
-73.4062
-72.5423
-59.9743
-44.959
-45.325
-36.843
-4.80399
56.3895
121.168
173.328
234.184
196.799
129.393
110.724
80.0247
41.8361
17.0415
5.79341
-21.1663
-87.0074
-180.466
-255.556
-354.711
-422.058
-447.737
-440.392
-397.028
-371.03
-361.667
-356.576
-344.555
-270.255
-172.112
-98.2038
-36.9929
28.6185
103.578
145.145
115.241
101.017
166.956
245.08
302.535
354.903
409.036
457.322
467.508
429.171
396.437
413.958
408.309
400.391
393.433
370.524
365.374
394.148
364.545
345.227
369.668
402.173
403.981
372.886
368.14
361.902
224.45
86.6265
-26.3979
-126.439
-201.897
-268.074
-331.121
-381.709
-498.763
-591.578
-682.721
-770.754
-785.27
-783.872
-780.166
-732.314
-690.238
-692.374
-675.32
-631.185
-532.645
-453.434
-399.2
-323.213
-209.069
-117.444
-98.4026
-68.0012
33.7597
121.662
189.822
252.196
336.693
411.59
431.171
435.927
455.165
512.011
540.435
551.634
573.344
555.133
495.152
461.891
413.527
345.31
311.104
263.859
235.249
229.689
170.98
73.2645
-19.902
-88.9293
-107.097
-127.431
-164.514
-188.301
-173.678
-199.436
-222.973
-220.677
-188.181
-165.458
-149.221
-151.606
-121.479
-84.1574
-110.233
-120.008
-88.2442
-53.1991
-42.4221
-53.9962
-35.325
16.3679
78.3848
29.1761
-56.2222
-71.8146
-73.7012
-35.577
-6.38999
-6.94922
33.2086
51.1838
-32.8097
-81.9412
-66.4624
-68.6629
-68.6916
-55.0481
-59.3522
-28.8078
-36.7603
-55.2309
-98.9927
-79.5662
-48.2231
-28.6208
9.00412
17.7698
-21.9561
-30.8697
-44.5112
-37.1213
19.3394
79.6061
120.151
22.583
-176.267
-339.293
-403.721
-413.199
-339.515
-225.789
-76.2142
125.919
243.191
324.778
417.133
472.859
542.811
602.767
622.529
623.975
642.805
564.013
444.751
427.4
457.252
486.112
473.983
407.14
331.474
244.899
66.3313
-132.818
-234.478
-316.391
-408.822
-472.454
-503.473
-533.587
-560.625
-621.187
-655.094
-610.29
-533.819
-456.019
-346.09
-257.188
-171.656
-180.047
-177.344
-206.815
-191.188
-145.493
-122.661
-97.7723
-96.8731
-131.579
-113.923
-102.909
-90.8392
-56.3033
-18.4638
0.526599
49.8696
97.2137
95.4963
129.945
164.136
211.062
230.792
229.232
240.138
271.117
257.037
227.554
223.077
211.71
168.544
139.635
136.107
192.242
166.574
107.299
48.2062
-6.57068
17.658
72.3467
99.8997
127.859
122.806
84.1124
61.0463
31.6691
22.7509
21.458
19.5394
50.6718
8.39248
-35.3155
-66.3823
-89.8658
-62.0866
-31.6905
-13.5255
34.5399
15.8344
-14.5929
-6.89502
15.7456
5.72353
-2.88606
5.20503
13.7196
43.5081
-10.6857
-108.742
-151.817
-150.636
-177.104
-223.988
-258.566
-259.413
-202.824
-175.709
-241.479
-265.221
-273.654
-290.978
-289.956
-241.982
-185.027
-123.188
-118.591
-172.132
-140.588
-36.932
9.03046
46.448
104.249
164.043
208.056
200.57
175.743
182.842
209.266
232.855
231.401
204.666
139.52
56.2247
25.5408
21.2961
44.0018
81.4842
115.391
172.566
166.044
129.242
106.122
82.7601
63.9001
84.3317
102.479
129.755
211.207
267.33
238.015
209.493
213.874
244.929
259.65
230.112
180.549
148.972
108.22
51.5828
51.8173
65.504
73.2611
49.3215
-3.42394
-10.7164
-75.3454
-159.621
-212.042
-243.123
-255.181
-249.958
-241.078
-246.779
-281.381
-329.313
-341.272
-314.18
-265.635
-254.622
-270.618
-222.183
-241.248
-320.445
-338.406
-337.785
-294.869
-240.721
-220.606
-186.562
-105.994
-28.3801
15.4678
-33.8813
-32.5167
6.15048
38.7688
53.7974
77.2349
105.297
161.88
140.661
167.698
233.823
259.668
267.259
273.87
288.424
311.19
291.703
256.97
219.531
206.827
245.303
253.376
251.863
242.008
150.819
56.2283
11.8159
36.4855
33.7313
25.0569
48.0102
56.7842
-28.9414
-96.0494
-126.992
-130.056
-115.724
-127.238
-133.663
-121.967
-143.406
-153.872
-166.147
-163.957
-121.807
-81.8261
-31.3882
-64.2991
-111.744
-127.356
-113.907
-100.408
-65.4079
-14.9813
25.8939
24.5605
52.542
63.9643
30.8604
23.3712
56.4227
79.9708
77.3991
49.895
73.4563
111.154
64.5263
45.8789
82.6121
80.5795
48.0739
33.5682
61.7389
85.647
76.5118
15.6581
-27.2726
-39.3598
-45.6812
-73.8376
-66.3091
-54.0093
-30.1511
-28.6591
-47.8458
-21.4564
-21.0811
-45.3897
-71.3101
-55.3942
13.0223
34.3467
22.6033
12.1557
11.183
44.9222
51.7875
56.0444
86.1752
54.76
-13.1276
-57.9622
-75.4739
-61.1186
-55.5898
-139.273
-206.676
-254.037
-273.056
-310.26
-368.836
-381.1
-338.017
-286.125
-239.995
-185.446
-106.468
12.086
36.5824
74.8352
175.432
285.139
343.302
404.403
471.197
528.049
546.474
586.985
629.017
631.923
604.945
584.469
557.309
491.229
386.131
310.992
216.272
75.6232
-60.9964
-147.363
-183.815
-246.087
-357.936
-434.746
-508.119
-565.044
-580.853
-605.761
-595.38
-558.039
-539.294
-572.166
-567.009
-546.177
-499.209
-477.093
-463.034
-392.85
-280.634
-167.601
-174.104
-179
-108.01
-44.981
40.9201
150.234
272.838
384.623
504.297
574.928
600.065
644.836
655.172
649.846
639.554
617.537
627.946
600.506
555.091
522.338
517.604
495.101
449.719
394.158
335.137
239.936
127.068
9.82653
-123.918
-219.826
-254.808
-288.051
-322.035
-352.299
-417.368
-455.959
-483.942
-500.682
-490.589
-510.084
-493.23
-456.229
-419.321
-418.029
-434.306
-421.146
-403.604
-397.664
-381.15
-342.25
-294.943
-226.332
-160.505
-182.18
-133.746
-80.5756
-46.3572
-7.44277
45.7001
116.533
160.829
157.011
185.183
249.872
316.912
321.963
316.53
341.18
297.438
248.324
251.895
239.665
193.941
186.924
186.645
203.925
145.859
67.5447
18.1225
-37.2526
-95.6497
-120.958
-151.349
-175.67
-202.893
-249.056
-257.006
-259.414
-246.349
-218.623
-229.146
-235.365
-182.866
-86.7284
-61.5762
-60.1632
6.04584
93.4938
175.231
224.016
278.823
353.233
352.286
306.318
317.724
390.359
432.329
453.977
498.091
523.315
533.754
530.163
472.767
428.337
404.58
384.742
366.194
309.365
259.008
204.616
117.58
60.5376
9.07914
-27.8579
-71.1996
-103.227
-122.486
-174.425
-289.284
-372.085
-434.315
-485.096
-521.65
-525.371
-462.019
-477.336
-535.675
-546.985
-545.282
-566.775
-547.885
-534.315
-486.534
-406.539
-406.537
-406.495
-374.832
-329.998
-237.021
-140.624
-88.4878
-17.5821
52.0446
25.0711
11.7627
77.512
136.34
169.36
182.509
213.522
246.927
235.228
273.717
307.187
351.85
405.028
411.552
375.743
361.171
332.01
319.218
298.202
293.06
312.951
250.226
192.179
184.683
193.761
157.974
108.762
68.9914
61.6533
31.4148
-17.7756
-49.9226
-90.0607
-159.738
-158.228
-189.414
-219.689
-237.007
-264.923
-273.207
-243.581
-192.495
-220.665
-226.55
-235.16
-211.343
-170.518
-148.699
-162.991
-148.804
-152.242
-189.655
-214.645
-172.258
-104.628
-56.5042
-27.3462
29.1328
82.8547
67.0499
75.6423
102.633
158.133
196.795
219.308
260.331
317.637
336.677
377.871
355.453
339.531
384.414
407.538
425.02
409.97
344.731
278.907
211.557
161.237
129.632
61.2746
-3.76084
-28.7944
-87.2891
-143.182
-217.874
-273.999
-312.616
-371.821
-416.275
-427.717
-433.303
-518.087
-571.112
-594.822
-563.573
-574.612
-581.783
-531.278
-503.528
-483.531
-468.714
-480.399
-466.931
-404.989
-313.22
-227.516
-132.586
-25.0419
50.2195
20.8586
15.4786
137.125
273.27
385.351
560.846
784.635
948.428
1045
1198.92
1305.61
1400.42
1494.56
1532.58
1519.78
1492.91
1330.37
1151.03
997.15
875.159
775.995
605.66
416.071
150.07
-145.552
-394.899
-638.277
-861.743
-1069.97
-1231.57
-1365.97
-1482.88
-1566.17
-1641.63
-1680.53
-1694.15
-1569.67
-1422.72
-1271.49
-1123.77
-931.009
-768.125
-641.297
-485.017
-282.752
-133.686
-6.67997
139.207
280.871
318.088
353.684
408.581
465.602
542.798
584.84
594.116
611.516
593.171
532.422
501.2
489.208
478.426
476.195
480.08
487.764
431.835
375.255
303.066
212.374
157.652
130.743
80.486
68.4491
81.7938
-4.8767
-49.3609
-82.544
-77.2914
-40.0457
-84.3147
-142.209
-140.229
-96.0372
-121.48
-150.877
-151.369
-150.155
-156.399
-117.653
-87.7698
-8.38408
51.1528
-1.06267
-31.0217
1.99808
2.5307
-7.68534
-32.1722
-34.6188
36.3425
73.3984
68.1306
62.5035
84.4773
71.5359
74.9031
89.2102
116.535
58.4104
22.3951
4.68821
-3.18121
3.99264
11.5089
64.9578
87.6655
7.45473
-38.6946
-54.4123
-77.364
-80.547
-58.6068
-66.0229
-57.1441
-74.4609
-53.8496
-29.4215
-29.1995
-22.9616
-13.8562
4.74694
42.2151
44.5133
-8.26744
-38.1562
-58.9088
-36.8247
7.6696
28.1892
-9.69148
5.67484
-5.84958
-67.2476
-80.7883
-35.7071
-25.9926
-14.1075
10.0298
49.709
51.9407
0.921955
-37.459
-14.1104
27.7431
37.4078
47.5447
98.5197
145.601
77.204
30.8602
-19.6223
-20.0328
48.6611
64.4203
76.482
84.2491
51.57
20.8027
-34.4306
-88.8967
-109.061
-134.129
-147.19
-126.953
-80.2163
-81.2262
-110.217
-164.184
-155.781
-122.985
-98.5087
-64.5452
-11.6838
42.7196
-0.719401
-50.623
-54.2819
-52.8991
-19.5123
33.0055
74.8759
111.893
138.906
76.9652
19.9667
24.8375
69.193
74.8609
72.9598
105.059
135.976
115.93
81.2001
38.326
27.57
35.4025
65.4123
115.027
124.515
50.7944
-27.8089
-65.5688
-5.76921
101.876
64.4659
20.0755
-61.0036
-221.658
-297.953
-316.713
-323.584
-313.543
-292.341
-233.474
-214.988
-202.202
-175.673
-161.731
-127.287
-32.9901
55.5779
132.798
206.439
237.181
251.822
286.12
343.442
462.262
531.699
547.111
554.87
576.099
435.775
275.668
184.27
109.762
31.7036
-44.0018
-107.314
-146.136
-144.671
-139.015
-248.121
-324.249
-325.061
-312.672
-264.745
-192.574
-135.059
-84.9075
-92.6311
-109.733
-53.3699
-29.3256
10.5374
83.8742
104.21
75.05
21.6334
40.2081
78.2955
0.634254
-59.452
-92.9798
-73.3225
-49.0859
-116.724
-186.314
-211.083
-257.061
-260.253
-221.375
-183.707
-120.655
-38.5527
-36.4297
-58.4006
-54.8799
-50.7375
-65.7946
-101.217
-68.8017
-8.15103
21.9577
42.0649
45.9409
73.6962
120.912
142.203
140.604
160.34
141.148
117.271
111.937
101.882
95.6093
98.5391
105.456
136.996
142.171
101.643
85.6564
44.0155
11.3187
24.9541
42.2713
99.7419
60.2777
16.1045
29.2355
4.98988
-29.8051
-11.4692
9.10323
4.23596
-9.40169
-43.7171
-77.2959
-62.1786
-34.088
-26.8136
-35.4626
-70.3667
-39.3291
10.1637
28.6075
-57.5669
-94.1457
-105.304
-84.1242
2.01568
32.9474
25.7613
13.885
19.9541
12.1439
-12.658
4.32152
-2.57748
-28.9792
-11.7583
4.16361
35.3453
83.4111
55.7403
-40.6769
-59.7742
-17.5726
17.1891
8.73427
-33.7512
-23.3048
-34.3874
-36.7583
-40.1701
-28.1483
-16.075
-16.7206
-13.2787
34.5357
61.3876
99.12
103.423
32.1462
2.09825
25.0015
23.498
34.1247
55.0275
53.9245
-29.2819
-91.6318
-66.1914
-60.2026
-76.1061
-60.111
-2.19045
57.9646
45.9612
1.79259
-39.8135
-70.2368
-63.7695
-34.2127
-13.6435
24.3304
17.5343
6.61993
-5.48136
-10.1132
18.4544
37.0734
68.8891
85.7492
43.5712
-1.33736
-4.4423
-6.45537
11.9765
23.9321
19.1343
21.2033
-12.5365
-44.3029
-65.1143
-88.2518
-57.715
-1.03934
17.281
3.92682
6.26162
52.3458
29.5832
4.63806
22.2177
17.0256
-0.707128
-5.28309
1.65406
10.8771
48.6526
-2.67225
-44.8158
-53.3767
-9.25601
10.8952
34.9235
18.8995
-22.1443
-3.65843
-3.02311
-37.1624
-46.3008
-63.1201
-27.9392
29.3141
53.3952
56.7433
21.9737
-16.556
-53.3717
-43.0043
3.40827
30.1015
11.591
17.9679
21.6296
10.0444
2.85089
-3.42083
-2.9289
-10.1667
0.0411709
30.2074
13.5746
10.7932
23.8368
-1.77178
-28.6507
-19.3688
13.5424
36.3072
11.3841
10.8344
6.82405
-12.4025
-16.8292
-22.4578
1.80378
24.7862
53.3646
13.9895
-30.7909
-54.9451
-67.5281
-39.2643
3.2933
10.2202
32.8976
34.16
-16.7422
-37.0063
-31.2101
-33.4569
-51.2088
-25.4469
27.944
62.745
23.7716
-21.1795
-22.15
-4.14196
21.383
63.2381
68.7696
23.1042
-9.07221
-39.967
-39.1739
-32.51
-18.8006
-3.51795
28.2439
40.2175
64.8825
42.8583
-13.3107
-17.5902
-0.825375
-11.1302
-32.216
-4.23132
33.4434
-1.00575
-23.3693
-11.6242
-17.0076
11.5535
33.0481
13.0934
9.09835
3.62121
19.4519
-4.79672
-28.1021
-52.3896
-43.572
-36.589
-11.3703
-7.3073
9.44459
-0.720545
-52.5786
-21.5084
-6.29521
20.3969
88.8675
110.783
70.0444
31.9979
-36.4468
-59.3641
-47.6412
-9.97939
10.8036
1.7963
-2.83485
3.91049
-20.5936
5.17093
-4.19302
1.21603
19.3638
8.76716
31.8356
-10.9343
-36.8307
-32.4384
-15.2474
-4.36731
7.38268
26.2624
39.5021
0.484974
-27.6223
-32.6007
-37.1017
-36.5923
-7.14034
-5.04919
26.1292
85.9584
73.8928
23.9046
-19.8353
-23.8884
-60.6732
-78.893
-45.3902
-19.1286
11.4967
53.6878
71.1607
37.0764
9.71154
-11.5233
-10.1038
-2.58709
13.4292
24.1819
41.9565
-13.7993
-33.2955
-5.96162
27.1695
15.2909
-16.9882
-10.1142
34.6654
13.376
-14.8144
-53.909
-78.6134
-28.7051
6.76361
54.8199
43.3099
-0.140979
-13.9738
10.8313
-33.3447
-55.9116
-22.2064
4.60686
44.7163
37.7575
-1.2054
-30.4269
-57.5725
-15.828
32.5922
28.3165
8.62706
17.4226
43.6838
8.56305
-13.8627
-19.7812
-13.3587
-18.5935
-9.05421
13.0784
45.3686
34.6807
-26.2639
0.0858404
14.3178
20.2575
33.1568
12.0155
7.74343
-6.37925
-45.7668
-51.0157
-70.3525
-43.4064
-4.10361
6.74796
40.4022
62.3331
23.1698
-16.8358
-37.5947
-31.6687
6.61604
32.9813
67.4374
84.9439
21.5818
-51.8681
-80.5123
-55.6826
-12.7055
-1.05815
-10.1593
-0.560939
46.2035
21.36
-26.8988
-47.4712
-22.5974
5.06963
12.4519
25.3936
32.0717
53.4984
27.4575
-20.6171
-14.89
13.3307
-4.96516
-10.6203
-4.17347
-2.30481
33.1128
9.98205
-39.3515
-25.1893
-17.6093
-27.8053
-18.756
11.6852
24.9925
11.1785
2.9556
-29.5945
-20.5261
-14.3177
-10.2449
28.1855
66.4624
64.1467
27.0696
-3.31725
-32.2442
-32.852
-20.0448
14.0782
40.5051
-12.8526
-35.0865
-21.8744
-11.0336
-11.3468
-26.308
-22.0913
19.3166
15.0063
5.73717
14.1315
0.200376
-38.2978
-33.2442
-11.4357
3.16539
56.9599
31.022
-2.50485
-16.8777
-1.9176
21.8743
29.4818
23.1541
32.2347
62.9426
7.61211
-36.3412
-22.3804
-14.6939
-23.8434
-26.3292
-15.0569
30.0578
14.6048
-27.2802
-46.3685
-32.3762
-11.6569
-15.3898
7.43474
15.4683
20.4042
31.8048
15.5361
-3.55348
2.01518
2.41246
14.0053
29.7412
45.3336
12.9119
-16.9463
-46.3922
-35.015
-25.4856
-17.5935
1.09341
24.9618
38.3193
11.6791
-12.2785
-24.6997
-30.9194
-19.3133
-25.783
-8.55234
18.5712
34.1202
-15.5785
-32.7858
3.22106
9.55258
-20.6258
-6.06573
22.7696
24.8721
13.7788
-3.843
-6.6797
20.1733
45.3601
38.0968
45.2611
35.044
5.38306
-13.4422
-43.4232
-60.6969
-18.1963
-6.20914
8.39541
-3.20078
-4.5708
1.78681
-1.02073
-11.3938
-11.3793
-26.3957
-38.819
-39.4063
-26.8067
26.7001
52.4896
54.55
41.893
35.3974
64.0976
23.2432
-44.4632
-70.7977
-55.9735
-20.7855
-10.0079
-25.8592
-41.0532
1.84177
36.6654
4.9114
-16.1002
-17.8331
-10.492
-12.1024
-12.0405
-3.33097
26.2145
50.5006
44.9278
52.9672
33.2416
22.9321
-10.0421
-30.6645
-21.944
-13.6577
42.0616
47.1276
0.594794
5.02102
-16.5754
-10.8013
5.5156
-0.844618
-3.99697
0.871633
-18.6697
-32.7212
-50.9714
-41.8954
7.17946
52.7985
82.9974
26.8646
-25.5242
-27.0759
-47.5592
-69.1965
-31.729
12.802
64.0309
44.1525
21.8882
12.2916
-23.4942
-48.18
-40.6901
-24.9762
-8.6372
23.5043
16.64
-12.5993
-38.4245
-1.23119
16.866
11.2252
21.1018
38.097
-13.3403
-44.1079
-36.7337
-6.52616
11.7943
16.121
35.2726
57.9446
37.8269
17.9336
11.5249
7.02859
-4.98308
-17.9734
-11.0994
-16.6743
-14.5671
2.41357
1.2571
12.553
23.9531
32.8359
57.1049
35.6698
5.97961
-63.398
-94.0019
-82.2806
-43.2922
-13.5512
-10.4706
-21.1133
26.9294
25.1568
6.50349
7.16674
8.3931
-17.0357
-37.1899
-32.5985
38.2984
94.7455
27.1098
-14.5907
-36.2429
-17.5565
-1.57753
10.8289
21.6591
34.6917
58.704
26.8149
10.8885
4.01287
-7.91569
3.66317
12.1096
34.8957
0.945795
-39.3491
-61.4935
-94.184
-89.4479
-43.8225
11.8774
95.2179
82.4296
26.2064
7.24194
-5.38325
-33.3689
-14.8797
30.2214
64.6135
15.6862
-34.384
-45.9112
-40.5042
7.15116
6.40211
-26.5802
0.439015
36.3097
3.68908
-14.5647
-38.3038
-25.5179
-7.76422
4.10806
4.78926
-1.20589
30.3966
-1.68687
-54.5001
-37.3018
0.493351
26.833
33.1279
23.0278
25.3651
27.5029
11.2173
-4.95626
10.2082
18.2623
6.22788
22.3151
89.3381
79.1361
9.24805
-33.3293
-56.53
-64.2082
-57.3729
-43.3502
5.07676
42.2583
22.702
-42.5912
-58.8094
-48.2052
-43.669
-23.4712
13.4759
60.8225
53.7116
-6.74284
-62.8878
-55.7404
-12.9109
7.09348
19.6552
20.6945
54.7163
44.512
31.3039
24.0425
19.3732
16.5528
-20.1039
-15.6221
3.82919
17.2725
11.0086
-35.8392
-34.6549
5.23098
0.580025
9.81672
39.8642
60.2912
12.0906
-30.7638
-45.1254
-31.9479
-25.5241
-34.4154
-13.4844
39.1519
29.2787
6.73451
-10.6432
-26.6684
-13.6354
-9.71033
12.474
43.6815
13.2776
-0.0351077
-32.1513
-58.1728
-25.7732
10.2532
56.1544
73.4547
9.62569
-23.4883
-45.3144
-54.6171
-21.8919
8.39098
16.3341
34.9177
23.2432
8.30734
-6.28522
-19.6699
-8.38572
-13.9498
-15.5506
11.0426
39.9699
38.1146
-0.746836
-10.3761
-3.12598
-7.11519
-5.22698
11.9144
29.0385
40.7224
44.3991
-26.4601
-54.9879
-55.5769
-63.2084
-39.4276
11.4623
46.9339
67.0934
67.0747
-8.15176
-42.1562
-51.9641
-40.5493
2.56306
20.7959
18.7117
-23.0138
-59.7106
-17.5788
11.7318
24.9067
45.1263
61.0777
52.2835
12.4353
-6.53654
-14.4846
-38.9967
-67.7936
-23.6252
12.6736
37.2719
32.6467
-1.19856
-5.83804
7.66194
21.693
25.191
-11.4277
-29.9454
-6.46867
3.51681
-31.25
-29.7128
-19.3619
-13.4146
-4.10802
-2.05922
14.6694
30.2345
-5.95451
-13.8438
8.35551
21.3919
5.317
8.38895
39.4532
34.6266
7.53403
-23.7872
-29.6675
-26.1809
0.657247
10.3198
47.0065
21.4273
-15.6371
-20.3783
-23.5725
-26.1841
-2.74725
12.8949
8.37035
-8.55578
-29.3384
-11.1466
0.114411
-31.4693
-44.4012
-11.0398
21.8061
30.0841
3.34619
-20.4959
-28.4258
36.2425
72.2842
11.366
-17.2783
9.36603
51.4808
42.8644
11.2538
2.10849
2.71605
-34.3623
-61.2996
-40.1287
-11.6048
26.646
80.1619
67.1489
32.0975
6.27893
-28.2304
-62.1252
-62.0229
19.0929
23.1341
-26.2554
-44.2588
-40.7016
3.42505
26.86
14.4185
27.717
19.5252
16.1203
2.88467
-66.7149
-99.539
-67.428
-8.19664
27.9548
18.5732
-10.7909
-13.059
0.616686
18.4297
42.7154
43.3976
43.5382
42.9934
12.3162
20.5404
9.07655
1.45202
13.9564
-0.254454
-1.20119
-6.35202
1.53119
-18.3726
-27.6611
-29.0982
-8.67724
-0.232137
2.15181
17.4635
0.276092
-21.9642
-33.7405
-39.1458
3.63165
8.87389
41.8023
63.8271
36.6875
7.58529
5.84006
-25.8271
-24.6532
-10.5059
-38.3362
-14.5283
-0.98358
2.43502
4.5948
9.01137
15.3933
19.2818
1.50699
-14.9065
-4.79049
31.3398
-31.2024
-60.5692
-33.6611
-1.69844
-7.50512
-6.96286
-8.63627
37.4156
60.6589
30.0607
15.0986
-3.32224
-17.1489
-14.6674
-0.551698
13.076
24.589
12.5353
-32.5139
-45.0089
-19.1616
0.558682
11.7107
-3.19637
0.638693
30.6016
13.813
-7.02329
4.28807
26.4592
11.8011
-7.78667
13.0627
-19.7676
9.36088
44.3312
8.76581
-21.0292
-21.3059
-14.8371
19.4604
2.18633
-5.95042
-2.5847
-24.4313
-52.5268
-32.8017
-1.79357
64.9844
55.3421
0.676867
-21.7827
-34.2885
1.68118
3.1477
-35.6185
-56.797
-12.209
22.0688
12.9044
-11.6024
4.33107
3.75615
-10.2017
0.591636
22.3297
26.9919
18.9903
-52.544
-29.9911
33.6655
40.4592
20.1003
4.03397
-28.5677
-15.9955
42.3312
36.5184
68.0413
46.7585
-7.14183
-23.8705
-16.3081
25.7685
42.9765
-5.24259
-53.2253
-74.003
-48.7008
-46.1832
-36.5834
5.18889
58.3728
32.0907
-5.70357
-7.92624
-7.48583
-15.0339
-31.371
-9.8155
22.6509
-7.55963
2.47962
-2.11108
-2.22799
13.7482
16.4949
33.8099
57.0031
11.1622
-19.1043
-26.3565
-49.461
-26.5835
-6.13831
-7.29958
18.12
21.1529
-21.2481
-40.41
-29.453
-3.73071
1.73839
26.8997
61.7931
67.8528
25.2323
-9.77367
-21.9261
-7.32382
-15.7699
-7.89044
25.1091
55.3869
62.6766
54.4329
1.55098
-45.1874
-43.0037
-21.1961
8.29646
-16.2348
-49.0045
-61.9864
-68.6474
-50.517
-18.2
-5.19048
26.91
36.0935
27.5842
10.1178
-17.9459
-19.2589
-1.64313
-12.4398
-20.8812
35.0559
113.772
84.2667
2.66059
21.2281
38.1608
28.0578
17.4005
0.258955
-21.0603
8.45244
-28.1875
-49.3186
-25.037
-15.2002
-29.4308
-40.6524
-48.8687
-45.203
-12.2633
-31.1491
-52.0185
-29.9438
35.9876
12.5121
-2.89164
19.1937
32.1414
50.2506
0.950866
-59.0278
-59.7271
1.71417
36.2786
44.876
78.6258
61.9436
31.8563
19.7916
9.70297
8.80322
9.88484
20.2443
5.70366
-14.0005
-5.65972
-1.23693
-37.2974
-56.157
-15.4359
11.0641
54.0463
13.4063
-21.7328
-28.0064
-43.8513
-32.0842
-18.7376
11.3022
30.8914
68.9589
50.23
-19.4542
-62.2354
-19.4675
-3.11305
-8.63638
-16.8898
8.78283
-5.86024
-42.2803
-54.6159
-28.4251
22.8693
56.4987
52.9801
64.5283
26.9029
-7.05368
-20.8958
-49.7104
-71.584
-43.5978
-17.242
22.8878
71.1548
37.1979
-2.29349
-16.8187
18.1712
8.69609
-19.2335
12.6633
47.9917
7.89058
8.15568
-9.70144
-13.1487
2.26746
-0.160043
-9.44396
38.5397
25.775
-21.1751
-29.8543
-31.8923
-17.7279
-0.0786676
-7.35205
8.46234
32.033
5.13322
-25.1695
-56.4451
-47.5697
-53.7204
-49.3925
19.2555
53.6936
42.429
41.9778
-12.7347
0.41447
27.751
25.0677
19.5194
-17.1097
11.2686
27.9917
-0.24526
-4.41153
7.72829
-2.76976
31.0746
14.483
9.26385
6.09986
-10.2982
-12.4171
-18.7285
-17.5409
9.05707
-8.80293
-11.0356
-26.3347
-43.4597
-4.06511
-12.735
-22.54
26.4797
26.4936
-23.4524
-12.7062
-16.7793
-14.7826
-18.4942
-3.52784
8.3319
19.8195
57.9701
27.7863
-22.5139
-15.0848
9.23555
33.4125
-7.12716
-8.95806
11.1001
19.8948
9.86326
-25.2052
-7.60207
2.39841
-14.5245
4.87077
34.9417
73.1815
79.5213
-3.41749
-50.027
-38.1744
-34.4315
-28.7568
-28.4869
-41.4086
10.6669
16.1342
3.97167
-25.711
-53.5246
-10.1319
39.6889
70.7581
88.4332
39.8255
-33.8963
-99.8657
-114.089
-80.5783
-37.891
122.036
178.41
73.5171
-18.4871
-58.4566
-79.5946
-66.6402
-39.4051
-5.64658
22.2698
28.9112
-4.49902
-17.4747
-18.2604
47.2748
92.092
80.3755
48.2206
85.6299
29.8889
-79.0034
-114.677
-50.3576
-2.34785
10.5255
12.9423
7.28276
-19.8173
-38.9485
-36.5783
-19.7492
-27.6396
-44.6945
-33.7023
27.4431
16.7787
-1.89839
-0.961216
-8.96202
20.1889
-3.73672
16.976
90.5085
86.1347
33.5534
-4.02687
-28.4327
-12.1399
-6.44376
0.832494
-8.47368
27.2943
22.809
-34.5357
-69.3362
-36.5984
19.7423
36.6616
3.11789
-16.2287
10.3145
19.117
-27.0497
-38.9413
19.5701
37.0352
7.80738
-9.11432
15.9228
43.4806
16.7125
-8.81611
-11.4948
-28.952
-49.2411
-35.4833
-6.17824
27.5909
-3.31107
-9.18258
-32.2081
-72.2484
-40.4642
-0.818133
7.3844
34.9783
69.4576
69.1108
22.2204
-33.268
-14.795
24.1314
29.1352
54.238
55.5613
-10.1386
-46.9231
-66.7005
-23.6209
3.25895
-5.2319
7.3706
32.331
22.0358
0.134711
-19.1672
-16.6265
-12.6546
-6.26765
-12.5126
-20.1467
-19.0769
-23.5311
-28.7071
-15.7993
9.33595
9.18528
13.4186
30.8605
32.1216
21.4847
37.7117
17.442
-36.6026
-9.05154
4.22746
20.9931
51.8826
9.78905
-28.5738
-36.5371
-26.7564
-12.926
-14.311
-49.2723
-16.6261
48.5243
25.5576
21.0854
16.8029
18.4853
8.35833
-5.00308
17.0572
14.609
26.8371
-29.7371
-75.296
-52.1095
-10.313
6.23919
-4.87675
-9.15284
7.01206
30.8424
31.927
17.5512
18.9434
-2.06456
-10.5435
-14.1554
-27.2485
-20.3027
6.24921
-23.5869
-37.4352
-13.2948
9.48014
33.1532
50.8096
67.0342
56.2435
5.62357
-38.2097
-40.2123
-22.9235
-19.0155
3.62895
37.2749
28.4626
-21.3717
-41.3524
-30.8928
3.50073
24.6967
-7.68057
-0.164036
15.4844
-10.2687
-36.5672
-38.3971
-19.3915
30.4387
39.493
33.5939
31.7241
-4.32736
-12.6815
-16.6621
-1.84444
14.7682
10.1803
7.179
41.2467
34.6238
21.389
-20.1379
-61.4553
-35.1053
10.3881
2.79371
-28.2852
-32.829
-2.83585
9.92329
-4.3607
-4.68946
-5.44877
-27.599
-18.2662
4.27948
6.45966
43.8933
9.88977
-51.6136
-56.8835
-19.7706
35.2911
60.2533
44.3985
40.4018
17.3062
-20.4478
18.6376
33.6041
-6.27297
-22.9942
-24.7126
-22.6778
-5.03851
9.67235
19.7891
-18.0226
-41.9475
-8.24404
20.9754
62.3355
81.7062
26.5599
-22.7644
-33.9733
-28.6855
-15.8409
-37.8629
-40.617
-0.67043
53.7473
59.2193
-7.11448
-47.6761
-42.0473
-30.1814
-28.5378
-7.43712
39.2398
32.7741
-26.049
-45.5922
-24.2864
-23.3983
-18.7603
4.63894
37.4637
31.0104
2.71569
4.96288
3.7543
13.4026
40.2128
55.2331
82.2145
34.7694
-23.6629
-37.4447
-40.7891
-11.3964
-1.18774
-15.8439
10.28
4.6626
-21.7966
-42.344
-66.283
-29.1932
30.1399
74.207
44.3528
45.9635
5.17948
-16.4521
-26.3245
0.988158
25.161
9.55323
-8.01697
0.338139
37.5927
-4.12995
-59.9224
-42.7816
-43.1427
-40.9184
4.0317
10.1025
-6.88428
8.45315
10.0245
-40.9651
-30.3107
-23.0472
-35.3646
-3.23982
23.1206
43.8968
73.2463
17.7871
-20.5318
-22.7606
-10.37
19.2766
51.9056
77.5365
91.3515
27.9042
-20.4304
-72.692
-64.1577
-24.9949
16.76
21.5426
47.7236
24.8603
4.80606
-26.9026
-57.6739
-48.7212
-34.7237
-4.90768
75.216
50.1243
-1.42632
-12.6827
-32.2446
-19.1471
-7.03671
-24.8656
-18.0449
5.72552
38.4187
24.889
-26.9264
-33.004
-31.6358
-11.2446
6.77297
32.6572
46.3922
18.1576
-30.6662
-30.2844
-15.6798
-15.2283
-15.0899
-6.02186
15.0465
3.53214
-8.51695
-22.4762
-2.29865
61.4427
72.1715
59.4107
68.0303
47.2814
-15.0361
-41.4969
-47.0705
-21.7689
-24.7365
-22.5237
-5.43691
25.3697
17.4098
-37.2583
-80.1178
-65.2378
-29.4345
2.8241
9.51304
-21.639
-3.11727
58.8373
43.3747
22.7522
21.0696
25.4226
17.8118
6.647
-10.3236
-5.53428
21.6256
-17.3902
-32.5795
6.03425
32.2659
29.5441
16.424
32.1178
7.73556
-15.8074
-4.60971
-42.838
-59.03
-45.2024
-7.00798
-5.53623
23.6814
8.14034
6.16324
-0.574565
-27.1773
-21.8311
-24.7212
-19.6059
26.6351
28.6181
0.828112
-34.3698
-31.1283
16.5909
40.2404
54.2585
73.6209
45.7493
5.74377
-16.2385
-71.2561
-78.124
-41.2441
12.1914
34.8609
56.5846
54.6406
30.8929
-2.88874
-1.25086
9.94413
3.80028
-7.06635
-23.6601
-20.0331
-34.0667
-73.4028
-43.2546
-3.4634
26.4269
25.6289
40.995
73.1649
69.7931
1.54293
-54.2536
-64.3918
-51.1681
-30.1677
-4.247
-8.45542
-1.34162
25.9628
0.336574
-5.01662
10.8815
30.88
16.2006
-16.6768
-17.0075
24.8988
11.2879
-28.7119
-54.1154
-13.0428
20.0597
27.6924
38.9146
55.5955
38.4859
-8.53942
-28.406
-42.6066
-10.1914
-2.57808
0.301455
22.6908
13.2079
-5.59029
2.45257
-3.19416
-4.53468
-8.61677
-3.60255
18.5867
43.2822
-3.30177
-16.0675
-36.4291
-24.3857
13.5421
20.4733
36.3279
9.45303
-67.132
-75.1443
-46.1695
-24.1822
7.52552
14.3318
30.1968
57.4269
6.8371
-23.0174
-27.9785
-35.3612
-1.10437
-1.59768
1.83007
47.6993
57.3896
57.4522
22.8953
-19.6618
-19.8252
-14.4557
5.7906
68.0506
28.8964
-15.1934
-37.6756
-31.0339
-10.9198
-1.00061
3.12187
6.34105
47.84
37.4969
-25.0252
-56.1652
-60.7634
-56.7124
-31.1758
-10.6078
22.6293
62.8779
26.4302
-8.36914
10.8048
-3.93174
-13.3423
-0.54021
26.251
47.3846
23.0218
-52.3329
-48.7395
5.12698
20.4632
-5.67392
18.986
52.8838
21.7763
0.547309
1.86443
-25.2176
-26.9073
-43.2314
-22.2378
14.2797
19.5255
-1.44477
-14.0582
-33.2555
-29.2278
10.665
12.2767
31.472
30.7176
-11.2654
-37.1438
-32.3963
-1.56138
23.5138
27.4971
25.139
46.2455
49.407
2.43284
-19.5354
-25.0009
-15.723
-19.1685
-39.718
-34.9534
10.3113
-13.4273
-43.928
-26.8207
-2.49055
11.3236
10.7135
26.6326
63.806
37.2102
-19.8361
-38.6954
-36.3132
-11.447
-4.05078
9.29199
30.6268
22.2738
17.3908
15.0114
-1.15978
-9.95997
-13.1978
-3.42299
38.1063
45.6149
8.4006
-11.4394
-15.9407
-5.75957
-1.11095
-1.26565
1.09575
32.6935
47.9896
20.0043
-45.8629
-42.7072
-24.5134
-20.1446
-24.2946
-14.0751
11.7091
14.3059
-10.235
-14.4778
0.0841387
9.11629
-2.48791
-5.84567
16.9585
14.8028
-18.6362
-24.9248
-22.3093
6.67938
27.7013
28.8298
46.6077
47.8335
-6.53017
-25.0905
-25.009
-15.6192
-20.9255
-29.8071
-13.3318
11.7565
-8.05008
-2.54693
-5.79519
-9.69247
3.47227
34.5064
38.4863
23.0746
-2.02325
-4.23986
-9.02419
-20.0563
-2.57414
0.970499
21.9218
16.2176
-4.5786
-10.4295
-23.035
-44.8735
-27.8531
-4.55867
-7.04913
-22.361
8.85716
1.33408
-12.6797
-6.28689
13.4127
8.04929
-1.40884
16.4678
66.84
83.7325
12.1208
-14.4394
-3.52558
8.78937
17.8807
17.5266
34.3634
70.1828
48.7602
5.53795
-48.8587
-62.135
-58.2567
-56.7144
-46.6507
-44.2762
-29.6941
-24.7992
-46.8327
-54.7653
-21.2663
21.6519
30.5206
20.0993
48.0198
16.1512
-14.3942
-32.9564
-14.2681
21.7158
52.1576
56.2271
79.5989
45.9636
-10.8377
-16.5827
-20.5221
-5.74409
7.51464
0.874178
-17.0014
-6.84382
36.8579
14.0974
-28.781
-29.1053
-21.2777
-37.7409
-15.9857
-5.11242
18.2867
32.0856
-25.2819
-30.6999
-0.919966
30.8511
39.6659
20.8921
5.15694
2.98274
-11.2953
-10.6299
-24.4734
-11.0074
-7.05651
5.87214
41.043
15.819
-14.7085
14.4584
-0.235068
-47.3036
-41.5786
-14.6
34.7423
9.07921
-9.46546
-21.1906
-30.7022
-23.9782
3.16641
25.8948
75.0833
103.895
2.19946
-77.9924
-73.7161
-32.4621
-8.08213
-8.60862
5.45147
49.555
23.1883
-1.25369
0.829641
1.68167
-5.68069
1.60339
7.57275
17.1366
38.9588
32.1388
-26.2449
-64.4711
-14.5285
47.8159
47.9714
20.9872
3.54217
-0.820364
-18.2826
-36.7355
-6.27913
9.94033
-5.67835
-1.50699
32.6827
45.1999
-7.71873
-37.2104
-60.4227
-84.8704
-67.909
-27.935
30.0216
63.465
20.0764
6.50644
-0.242397
-7.69953
6.15707
8.01205
45.7845
72.0653
6.8224
-42.6793
-59.4737
-55.394
-8.63894
9.82052
-5.62649
3.13134
18.5014
-12.5731
-7.9734
10.4162
24.5527
13.5969
11.8588
27.7269
50.0192
31.513
-14.0775
-34.7378
-10.3038
19.0033
22.5921
14.3287
40.1505
27.8802
-12.5457
-32.4188
-42.0615
-18.7087
-16.3841
-17.5021
9.46299
-2.17862
-0.441488
4.35508
-12.0274
-34.0507
-36.9471
-19.2712
13.6081
31.5905
5.63771
-6.33454
-18.7821
-24.053
-9.29342
6.56012
6.62664
41.0469
76.2587
32.4334
-12.5641
-13.8105
-34.7351
-59.0086
-46.7637
3.30168
56.6154
11.1792
-18.8468
-28.3695
3.5545
0.675067
-7.1988
12.3998
72.6448
60.8938
15.3167
-10.0685
-37.4985
-26.7428
-13.8981
9.41694
67.5057
54.7109
-8.23686
-31.2326
-48.0229
-33.9852
-15.5767
-0.216249
26.8123
-8.07229
-29.6923
-35.9824
-52.5791
-36.9819
2.68577
17.5629
35.3221
12.0339
2.8368
7.70984
-2.85452
15.3943
15.6795
38.1624
67.9832
43.9198
4.68758
-29.2002
-71.0706
-38.3508
-18.9442
-10.2812
-10.8436
9.53532
23.7476
-2.3022
-33.8738
-14.5844
4.04928
20.2643
15.7686
8.28756
49.8426
30.4324
-31.8507
-33.6079
-21.6075
13.6721
29.4791
24.561
53.2748
66.1795
25.514
-19.164
-53.0164
-51.8731
-39.3834
-5.97837
2.5349
-11.8151
9.37828
54.4194
14.8924
-32.9041
-60.9201
-61.2754
-29.6284
0.377396
11.113
23.8013
-28.4398
-45.2319
-9.98904
7.23894
21.209
32.8569
37.1325
75.1457
67.333
0.384042
-25.8373
-43.5034
-30.352
-28.2754
-14.6834
20.5517
93.1097
77.4313
26.9865
-17.5936
-30.0942
-17.8394
-16.741
-18.9903
6.95974
-8.01307
-20.709
-32.5927
-39.682
-14.2582
4.38858
1.81035
28.505
21.3523
9.06886
3.02833
-30.3447
-35.5004
-24.5163
6.52412
42.3859
0.515011
-11.2947
1.019
-28.5048
-20.1066
-0.670167
15.1349
17.6426
20.0013
8.91386
-3.13561
-10.126
-0.966765
4.51689
30.8473
31.6023
-4.56727
-18.1226
-24.6024
-35.5503
-37.859
-37.9962
-15.0852
38.2391
83.7071
50.2459
-5.47384
-9.60294
5.44365
-8.54754
-22.962
-22.6769
-1.81302
26.5679
17.1539
-37.3492
-30.7758
4.08443
19.6667
36.8035
45.4444
40.1588
37.8142
-6.03705
-50.2737
-36.9335
-11.9568
2.11967
18.6156
29.7828
52.7234
3.2129
-16.4281
-23.0501
-30.2666
-26.6306
-19.0968
-5.24778
10.3061
-19.7996
-20.3187
-29.5137
-47.7334
-37.7447
-19.8538
2.40099
37.6357
81.486
66.4644
-4.46861
-59.9498
-45.6426
-15.5729
-3.66872
4.45253
33.2269
50.0379
16.6398
-9.83502
-14.4271
-23.61
-13.0155
-9.36692
21.3689
65.5995
54.284
1.35283
-40.8784
-34.647
-1.98822
7.03931
45.3947
45.7775
-0.77526
-19.3671
-32.7491
-30.9808
-10.0375
-2.07144
27.7597
23.4947
5.55175
2.39987
-2.19799
-27.8967
-25.8415
-13.4176
2.76398
-13.8853
-22.6664
-12.4068
-14.4845
-3.28437
21.8125
11.9859
0.672521
16.0249
21.1058
-7.25513
-25.0118
-13.1546
-4.24197
5.4668
-2.88056
-14.5062
22.3472
51.4419
-11.7452
-26.9944
-12.396
-2.39649
0.688082
6.33924
-2.18736
-13.0365
21.904
19.6796
-9.73304
-5.50684
-7.64856
5.7758
27.0534
20.9939
25.5069
14.5165
-31.5347
-44.7264
-3.02138
15.4956
19.7278
27.0717
46.3855
43.4577
-8.78665
-13.0398
-27.481
-50.0822
-45.3143
-13.309
38.9725
41.5297
-0.160653
-22.196
-38.5849
-53.1477
-41.4707
-24.937
-5.96297
38.021
31.1469
2.88137
-22.3126
-37.9232
7.24379
21.4711
25.5105
81.9147
73.474
-3.51793
-48.6501
-34.259
-10.2689
-1.73144
-1.55955
8.55093
7.4309
-13.3964
-3.48195
-3.89164
11.7345
13.2859
1.99214
26.8978
35.7259
-13.5503
-48.5364
-53.4671
-19.6901
18.3055
23.9295
20.5178
47.0379
60.3805
21.9371
-22.6901
-39.1256
-40.3983
-36.1129
-39.555
-18.2293
27.3646
-8.64324
-32.9572
-15.0091
4.79935
6.64214
-26.4454
-38.7968
9.5259
26.6363
-1.91696
-15.714
-27.5706
-8.49667
35.8492
58.9282
65.9821
87.5325
55.4472
-5.90904
-25.7536
1.39288
-4.80536
-5.90443
26.6342
50.6449
-1.59971
-24.6912
-42.3221
-63.1062
-37.711
-29.4268
-32.0187
22.2206
11.1246
-14.2916
-14.8682
-41.1664
-31.1432
11.7045
49.1648
58.2686
21.3454
-2.44051
-15.1486
-32.6162
-12.7076
11.3528
17.8046
29.9376
-6.57149
-28.2198
-12.2598
-9.70127
-2.25815
4.74087
-1.25482
22.8614
57.1566
13.1622
-53.3594
-54.3452
-33.2132
-27.7601
-10.7692
14.6203
34.1554
69.5513
69.4762
9.3192
1.00465
8.09979
-11.8251
-34.5455
-15.8191
4.12392
14.5837
-4.10459
-37.7329
0.272838
10.1091
1.29653
2.64186
2.47311
19.2246
23.9667
-15.7167
-49.7181
-41.4832
-1.22725
42.3141
47.4057
55.5472
36.14
-24.4065
-47.9939
-59.0208
-56.4556
-48.6199
-19.389
29.7863
47.3137
15.3863
-3.47478
-5.04748
3.41916
28.6304
21.5507
-1.85662
-13.4228
-3.21073
-13.3924
-18.4356
-17.9372
4.34393
7.88583
7.67079
10.6454
50.5725
38.7142
-13.7298
-19.6061
-11.9246
-12.7598
-13.4044
-16.2196
15.7401
7.50158
-22.9501
-13.8367
-13.1011
-17.0365
-31.8093
-8.47922
56.0041
38.9423
11.6399
1.20819
-2.22353
5.77903
13.5024
25.3357
92.7811
47.728
-11.9026
-44.0042
-57.1082
-41.6494
-6.23098
7.60637
33.8461
23.9244
-19.4855
-36.6391
-49.6579
-25.2599
-14.8311
-4.43751
-1.19673
-4.51884
32.1266
3.05518
-53.2357
-21.6087
5.56845
16.6481
19.4928
2.69433
14.7063
47.4977
-10.3211
-37.3791
-12.5349
4.62636
9.06117
17.7647
34.3562
37.7453
31.0007
-15.7928
-35.5847
-16.2889
-6.34018
7.41498
17.8749
26.955
26.9541
-11.9869
-24.5471
-33.2672
-22.3038
0.42985
15.6834
53.4148
55.1094
7.72246
-27.8513
-51.5127
-46.6037
-15.2878
-7.42897
-3.38114
22.385
15.9133
-2.76954
-24.3016
-43.7159
-16.8657
-3.1776
-21.0775
-12.1279
73.854
59.0421
-2.81027
-22.6686
-13.9365
-6.18241
10.289
-2.00119
17.9654
54.7345
8.50901
-23.2169
-15.3683
-10.1235
-10.1358
-8.67135
17.4174
23.8261
-2.24708
-5.04223
-50.0695
-41.6079
-23.8192
-11.3153
28.8507
70.0104
46.6601
-3.0314
-16.504
-32.6301
-7.6194
13.0678
23.7513
25.2673
36.6768
20.1542
-16.5815
-21.1181
-10.3399
-17.7541
-30.1709
-14.7147
26.5812
22.6574
-20.3063
-51.3015
-60.5203
-30.4707
-18.3113
-19.4213
10.1235
38.63
61.9555
15.4447
-15.1206
-6.85508
8.06856
4.42543
15.5869
29.2755
64.7716
33.6613
-13.1957
-3.85206
29.2381
34.1215
43.2186
50.8144
31.0739
-20.7229
-30.2012
-32.0486
-62.866
-42.092
-45.1721
-22.8506
-23.2605
-68.817
-39.805
-9.97656
-40.9405
-31.6776
-24.4345
0.896362
16.3749
-7.51857
0.387136
6.24448
15.3483
28.4922
28.6966
39.734
66.8387
38.788
-7.34574
-24.1527
-7.90306
17.9975
11.0308
-13.3537
-10.1112
35.0941
26.7686
-20.1343
-24.2886
-1.95227
-3.34015
-12.2165
11.3367
43.4962
81.4441
27.1262
-23.4264
2.85441
24.6706
16.5553
14.9125
20.7171
8.7876
13.3431
-17.3672
-67.1606
-59.1646
-43.008
-43.3726
-29.9164
-2.17398
34.9587
2.24999
-26.7698
-46.3856
-29.5462
-20.2381
-15.4991
0.779119
19.6941
5.62231
11.3071
13.4384
-2.48098
4.94676
18.49
53.0964
73.0116
16.8216
-0.138431
-7.07891
-21.5772
-19.6431
-15.7295
-21.236
-12.0906
40.6032
35.3789
-9.19355
-28.9383
-23.3387
-19.8028
-11.9819
-18.8204
-6.23862
-6.72988
-26.3948
-27.1051
8.81058
29.306
34.8082
37.9152
60.172
29.6349
0.719127
-2.47004
-25.8757
-32.5068
-6.89555
21.4724
61.1123
23.612
-4.35755
-3.83692
-6.45053
-7.73542
-13.7674
-13.5487
35.747
13.0457
-31.0306
-46.3732
-49.4458
-19.2984
1.82557
3.34829
27.6007
19.5168
-4.86282
-31.1804
-55.239
-31.7376
-22.6443
-12.0495
1.49485
28.451
34.7236
2.12936
-15.88
-12.2389
9.83086
16.646
22.5932
25.8225
4.02199
16.717
-15.4473
-20.6071
21.3003
21.5674
15.1611
26.6388
36.0171
52.058
31.8709
-19.6485
-45.4307
-31.7426
-16.1043
7.27351
20.3486
31.2307
18.4262
-32.4092
-36.6044
-47.595
-44.1059
0.156991
-5.49697
17.2282
19.7323
-11.1299
-18.9102
-35.1479
-40.1693
-17.4461
8.64046
59.7849
32.539
10.0888
1.16763
-6.33654
-2.56363
12.5927
18.7699
14.3474
38.1089
42.882
-8.11848
-44.043
-39.5946
-28.6539
-26.0962
-11.9206
11.6578
37.4784
13.9005
-37.0953
-36.6985
-27.0797
-19.0046
-8.98347
18.1663
68.7896
66.034
25.7611
-12.6732
-32.6698
-5.41157
9.18542
-3.60047
27.4182
50.3013
-1.04034
-17.7941
-20.1534
-19.9995
-23.7592
-8.49316
9.55382
11.9
20.6676
7.66467
-31.3375
-31.0855
1.23726
11.2299
14.6017
18.9317
34.0524
54.2571
-8.80824
-58.0313
-50.4413
-41.8543
-41.7887
-26.6386
-2.14833
10.7568
24.0724
-7.39291
-15.156
-13.811
9.19254
3.53351
7.75161
24.8072
37.7557
14.2419
-14.1879
-17.8292
18.2888
41.7444
42.715
59.3
33.2916
-35.2641
-63.9272
-32.7336
-6.6779
17.607
4.74187
10.3329
35.0844
6.22873
-12.5246
-31.4731
-49.9483
-20.8537
-16.4383
-2.47386
12.9204
-8.51449
4.10143
-10.3845
-6.79507
27.4503
40.5596
27.8309
35.1828
12.6802
-18.6313
-39.8457
-52.7002
-25.2983
-1.17783
-6.85124
-4.17033
21.9186
29.1425
-20.9331
-24.1888
0.0750708
2.80157
-4.8885
-2.62575
12.7095
33.2589
19.0104
-21.7181
-8.75525
5.76438
8.94915
4.3317
22.5342
33.376
59.5546
48.0534
-19.2754
-43.5369
-24.252
-23.5733
-33.543
-40.7434
-11.0446
5.52999
9.02013
2.70098
-13.8373
-15.6005
-2.36922
5.36496
44.8332
28.3149
-1.81356
4.15726
-4.62099
-22.6385
-11.2164
-9.38847
7.23373
51.3593
59.1501
13.1706
-36.4814
-46.0219
-36.8951
-40.1148
-23.2714
-7.79536
11.6012
-9.2907
-18.0199
3.31772
17.2362
9.74356
4.76359
28.7054
43.2524
16.8285
-4.32357
-28.7517
-16.8534
16.1736
21.0669
63.048
66.1272
-2.36778
-33.4433
-43.9675
-41.474
-18.7475
-23.0255
0.0518815
27.6344
-9.04209
-20.8222
-22.4523
-10.4972
-2.38695
-6.27665
-8.02893
4.91467
2.34388
-8.73409
-47.4947
-37.3019
32.971
79.0336
102.205
107.02
79.6113
-8.25435
-57.4203
-58.5937
-39.6065
-31.8192
-30.1437
-23.4559
6.71387
25.2333
-17.6277
-38.1224
-17.6423
-14.2778
-14.2223
-25.1979
-20.5339
6.71529
15.461
-24.624
-18.5074
18.2168
27.2318
29.3259
33.8495
64.7651
53.6541
9.91875
-5.55222
-15.0964
-4.50633
-10.563
-3.60482
18.0962
28.4588
-10.4704
-20.1517
-39.0117
-61.685
-44.1617
-5.50489
41.5824
46.9176
10.6884
6.11087
-20.4161
-19.733
8.15341
10.6971
14.8829
76.8721
69.9159
-0.290183
-39.7099
-73.86
-57.7413
-25.0684
-30.582
-42.9539
-6.49973
9.6558
-5.07114
-7.49982
-7.98983
-12.7328
-16.556
0.287006
51.9425
47.2675
20.5677
-19.2215
-33.9886
8.33963
28.0497
59.8323
123.275
56.6682
-26.7315
-44.9016
-45.9522
-43.3824
-30.901
-5.84681
24.3985
23.3332
9.44105
5.73568
-5.72384
-4.47436
-16.0587
-52.482
-35.7982
30.1709
49.4576
3.3967
-38.405
-23.0047
4.39673
14.3605
7.07971
7.49485
53.7381
33.2542
-14.3471
-32.8502
-32.2126
-31.6895
-36.7315
-23.6246
-0.670284
41.3016
24.425
-11.1499
-20.0847
-23.5812
-30.3434
-2.64104
36.5427
62.6893
40.4828
4.30783
-25.0397
-28.1945
-11.8409
21.4714
39.318
42.1474
16.4787
-22.6278
-23.1774
-22.3475
7.24923
5.08022
-1.02571
30.5989
14.8735
-16.0401
-28.0916
-51.9217
-30.2631
1.79034
7.72567
40.7276
26.4935
-3.0083
-4.07917
-7.35894
-11.8597
-6.19681
-11.2202
-18.0522
-7.54833
-10.572
-27.1931
-29.518
-1.48257
14.871
21.5371
27.7394
34.6869
37.3496
4.05168
-26.6309
-14.2427
8.20185
12.1929
1.91775
17.0504
56.1428
11.9273
-22.2577
-29.5123
-23.8891
-9.8811
-13.1467
-21.0754
10.1829
28.7442
-4.17893
-24.3814
-33.0021
-24.1046
-16.1192
12.1439
34.1079
51.0548
4.43328
-5.69858
-4.7247
24.8282
18.2769
3.43738
14.9683
22.7583
0.396989
-15.3853
-31.4295
-39.8897
-19.6176
-9.91352
-9.41016
16.0265
9.81127
-2.47158
-36.7578
-50.559
-24.9137
-26.589
-44.4064
-3.63781
63.0895
48.6229
22.3295
22.3575
25.9053
13.4477
11.4432
19.713
64.3293
44.0833
22.3266
0.684782
-6.54732
-6.21702
0.71281
9.85841
46.6339
11.6496
-34.0381
-46.2809
-71.9451
-61.1713
-45.9611
-25.9604
17.3868
-7.39031
-27.73
-28.0694
-36.0146
-24.4949
-17.5958
-9.06495
36.1023
23.4605
18.7422
8.11498
-4.11679
10.4085
34.4801
38.6913
49.5491
55.6023
12.7358
-9.51409
-20.6584
4.18292
21.1518
25.067
5.91956
14.1397
54.5525
7.21246
-43.4887
-34.2114
-29.4696
-36.8563
-39.3606
-31.6368
-14.8981
11.8
-16.2193
-43.6487
-22.0426
-12.1767
-2.4252
23.8606
21.8266
20.5359
9.91433
-17.7025
-35.9159
-4.73947
9.31125
24.9438
42.1354
52.452
23.6793
14.5827
12.5031
-24.8773
-36.6868
-15.7387
2.16299
50.3484
19.7543
-16.6411
-17.7532
-18.8373
-4.18099
15.978
10.6448
40.8017
53.1382
11.5378
-25.1475
-34.8875
-11.1649
3.98765
-2.30059
-4.54705
13.1563
53.4513
26.5567
-32.2565
-46.4125
-52.496
-65.5035
-55.6701
-17.7322
4.86578
-19.2597
-21.3345
-18.9567
4.42886
27.3178
29.5225
60.8962
60.2877
5.31366
-22.0233
-26.5967
-51.3936
-32.9484
-15.1113
16.0815
71.2686
69.8584
22.968
-0.824384
6.9471
30.2588
21.3515
-0.507063
-1.09939
24.6816
-8.14928
-37.9457
-34.2163
-12.2605
-6.43431
-3.53956
-9.31112
12.1984
52.8141
32.9096
-26.365
-45.1194
-27.2449
-30.0059
-36.3172
-32.0587
-16.6751
20.8084
2.764
-73.9288
-70.7059
-64.3894
-46.7571
-15.6054
13.127
47.5234
54.7806
66.9223
46.0779
37.812
46.4049
57.2183
59.4295
70.8019
37.9841
5.19993
-7.65571
-19.5116
-9.47957
7.94919
34.7488
33.052
4.74691
6.84655
-17.6721
-44.498
-30.9592
-33.7175
-24.958
3.25422
4.15051
-18.222
-41.5524
-59.6947
-36.0727
-15.2485
0.88045
14.4876
12.3797
-14.0302
-31.9774
-33.0819
-29.1235
-12.774
14.2276
39.2209
74.9004
54.464
-26.9554
-96.2576
-98.4199
-60.5693
-3.56543
52.9666
93.0729
35.8281
-23.2251
-32.1296
-1.01072
41.0198
49.8739
52.8818
59.5771
72.7155
56.8543
-17.8261
-71.3759
-74.3037
-47.6652
-6.72363
19.9986
41.1224
34.8102
-14.148
-36.0748
-4.88224
18.1077
7.09075
6.69676
39.4275
47.7011
1.9905
-12.3963
-27.0345
-29.3457
-10.892
-16.4723
-13.1321
8.2392
40.9609
52.6534
4.20963
-57.6624
-69.4916
-70.404
-41.3981
-20.8839
-12.0051
47.4663
68.7731
8.92482
-14.7287
-19.1928
-31.6473
-27.9459
-15.8987
4.39301
28.9136
-7.49505
-28.9916
-24.198
-4.36749
21.0857
24.9296
36.8756
54.0408
33.2117
31.4055
4.5856
-34.7828
-22.6079
29.0075
73.1707
50.1904
12.8711
-7.33822
-27.9639
-38.4408
-15.1453
0.656612
10.4023
33.2981
11.7376
-12.1258
-25.3951
-27.3852
-6.90556
-8.68125
-39.0192
-45.3716
-3.99897
20.0297
-42.6192
-72.1424
-60.7878
-36.2332
-13.8287
-5.44872
15.2907
47.0486
61.8478
37.9142
-5.60823
-14.4018
-3.39401
6.34497
14.6624
10.0524
15.0834
28.6148
15.7714
18.7486
44.1943
49.9998
50.1012
40.2326
39.4504
36.9919
2.12892
-35.9413
-67.0535
-79.7062
-38.7169
8.7151
47.514
38.4853
-18.5257
-33.625
-44.1483
-32.7051
-21.8234
-34.694
0.550542
37.0289
-18.0447
-35.7676
-3.53229
28.1412
22.1304
-9.57364
-33.4356
-9.47266
42.4608
8.21095
-33.148
-30.6273
6.942
22.1979
20.6717
44.6447
69.0202
10.7437
-23.9225
-34.8118
-15.879
-7.56467
-32.9094
-38.7993
14.6651
2.9751
0.0620617
4.01925
-0.762727
11.8202
-0.810738
4.87422
21.5541
0.269232
-10.6604
-35.9323
-42.7134
-9.42817
-11.8193
8.8765
84.4274
89.0601
28.3288
-16.0186
-43.2845
-40.7984
-32.2027
-32.0392
-22.5063
18.1966
35.3636
11.056
7.95745
24.0367
30.4701
20.8533
9.95606
24.9029
48.5165
72.67
-5.4108
-54.4651
-44.8471
-45.4626
-39.4888
-19.4338
-6.64587
30.7201
15.7087
-24.4011
-23.0164
-8.61486
-5.16894
-4.30114
-0.274269
30.8953
0.377929
-17.0621
-28.6381
-56.5487
-42.4752
-0.12168
33.966
45.491
23.809
22.8496
5.3878
-34.2207
-30.2702
-7.07888
33.2652
95.2849
35.6511
-1.95561
-8.66906
-36.7946
-29.7956
1.18221
21.6549
41.7967
28.2371
-16.9754
-51.7498
-55.7708
-14.9604
5.0885
2.6699
-7.21662
14.5281
30.545
-17.2655
-55.4282
-22.2583
10.82
25.3749
29.7692
65.2468
59.0554
0.513674
-43.53
-32.3927
-13.5585
-0.500908
-1.10752
4.72307
30.7279
-6.02175
-19.3704
-20.2445
-15.0609
-24.0097
-47.3057
-26.0357
1.78375
43.663
7.07705
-34.5557
-29.2431
5.65969
20.541
27.5821
38.5833
72.4595
41.3103
-9.47891
-38.2515
-11.905
-7.57418
-29.5423
-44.5268
-26.5914
9.9373
39.3602
8.86963
-18.8084
5.47433
10.5769
8.24702
26.3728
21.6807
33.7436
35.5022
-16.5456
-16.1555
-4.45229
-2.27976
17.0552
17.0308
22.6932
1.33816
-7.35985
-7.91483
-20.1612
-17.288
-19.9556
-1.55351
23.957
-17.8421
-37.2409
-42.6768
-42.2176
-38.3208
-41.8202
-0.655353
35.075
13.3034
0.289259
-6.81942
-19.2089
5.8923
46.232
95.4731
91.2713
24.8765
-27.5615
-41.9234
-34.6295
-9.8676
-14.153
-18.6285
4.13247
-21.7239
-39.7585
-28.234
-8.08548
0.340237
11.106
39.8616
62.9932
95.9223
48.4315
-53.2979
-47.2204
5.28287
17.5522
11.0481
-5.23297
-0.0738555
10.8139
40.9884
-12.1637
-31.7234
-30.7618
-68.2298
-63.096
-31.0366
-17.8831
23.6639
30.7474
-20.8497
-31.3124
-13.4066
-15.9125
8.35699
34.2502
50.4099
57.8978
30.1382
16.3397
-2.11831
15.0276
33.4217
50.3444
67.99
33.7386
-20.2495
-51.2963
-98.2687
-104.007
-61.5351
-20.9739
13.5028
53.097
66.2492
7.38296
-37.8344
-54.4776
-35.0812
-33.3956
-14.7112
-1.19795
23.6175
23.2688
10.1587
4.87734
6.803
18.3086
36.9996
41.0734
33.2078
-8.49059
-23.4941
-36.7191
-50.0514
-16.4646
0.724977
26.3678
77.0659
41.077
-0.896363
-32.7698
-23.8126
19.2981
28.399
23.0153
38.3059
16.2541
5.63119
-0.0955342
-5.54494
17.2371
24.4911
26.3469
28.2238
-23.422
-75.5548
-102.992
-111.479
-72.4547
-37.9128
-2.44144
22.5438
47.8553
51.0722
42.2829
36.3543
36.4974
19.1459
-58.705
-88.19
-46.1391
21.7193
25.6455
6.20571
41.8115
61.7276
49.8601
14.7149
21.6294
5.28187
18.4367
11.8152
-35.4774
-58.4907
-65.9048
-62.7597
-46.5396
-2.62825
77.4145
42.8435
11.358
-25.9495
-31.0853
-26.4362
-21.8342
-3.44425
57.3218
62.0586
49.9239
33.4352
-12.1419
-29.2578
-27.7705
-16.2384
16.8701
-0.739342
-0.413618
-14.2913
-35.003
-0.727002
15.7735
20.904
-6.50891
-35.025
-25.4492
-0.681129
-32.6044
-18.3253
52.1262
47.419
65.2362
21.3102
-12.9908
-23.1321
-22.9131
8.0198
7.58039
21.2882
38.4418
8.29498
-23.8119
-62.3903
-62.3679
0.575075
23.901
5.31984
53.8157
25.9328
-52.8986
-52.5243
-96.9226
-70.3597
-25.3069
4.24496
20.0881
92.6906
99.9103
21.601
-17.424
-17.0382
-8.21568
12.3012
5.78931
14.3285
20.8372
28.6955
4.90366
25.9682
41.8691
61.9105
64.0812
61.7285
72.9721
7.6948
-53.2804
-82.8467
-77.7372
-46.9574
-39.1472
-14.2788
-16.3323
-4.30971
-17.9966
-33.9836
-8.65474
-3.91751
-20.5414
-14.2917
-29.0169
-12.4767
-31.5459
-28.7618
-38.2474
-32.8794
-31.4639
-54.4112
-19.7072
23.7788
1.81423
0.69106
30.8492
26.0143
51.2077
47.22
84.1987
94.9266
27.2136
15.8222
5.8008
-53.3134
-36.4691
2.45368
16.9006
53.1936
34.3909
12.4468
14.1485
2.76311
-14.2391
-2.01644
23.9496
39.2012
22.2802
36.9434
-11.9613
-52.7956
-38.0374
-49.8341
-53.7552
-31.3992
-0.0876255
8.2517
-33.5845
-29.1975
12.4559
-2.96198
-63.5059
-59.9254
11.9768
51.3513
67.8611
-1.7574
-66.3019
-73.8087
-31.5582
12.9638
48.0472
67.8277
78.1554
71.1588
30.4726
1.49652
32.6946
28.2112
7.29832
13.3451
41.6365
32.6987
-20.4545
-48.2501
-97.1259
-89.3276
-9.3491
9.21048
-6.22771
57.0748
41.7978
6.59825
14.9059
10.6361
10.3129
-27.5389
-81.3194
-63.3649
-3.21226
23.2866
-21.8317
-39.7873
-11.2624
-18.7684
-27.5613
-6.18307
-6.75762
-17.697
-17.4717
-17.7401
-6.63174
3.37131
8.03463
4.84316
31.8123
72.1198
54.615
31.9976
-0.146821
-21.0518
-2.74606
-12.4693
28.4565
62.7736
31.2656
1.73557
-0.161097
6.63898
17.0753
-7.63059
-20.6907
-10.354
-29.9242
8.75904
45.3193
-89.5248
-80.3221
-44.4803
-13.1483
-6.19209
35.6512
66.8551
59.9538
46.4295
7.75816
-8.56372
14.7343
28.5024
60.0608
88.6415
87.2688
3.12766
-72.2641
-88.5197
-40.9801
-29.6819
-33.3124
-38.3183
-26.5532
-52.3532
-56.2476
-26.085
-2.66972
-10.4655
-23.7192
-10.9475
34.821
17.0248
10.1889
19.2156
7.93059
-12.915
-22.3272
-20.0227
30.9685
58.7257
45.9724
-16.9552
-44.6723
-33.738
-3.96826
-11.5926
17.7392
33.0192
38.58
-11.9113
-37.624
2.47396
37.3615
23.0615
2.0657
39.964
81.6986
27.1705
-35.2208
-64.3857
-72.3515
11.5896
30.5395
39.0465
40.5424
38.5345
67.3883
35.1475
-34.5088
-53.5211
-44.6433
-35.45
-29.6823
-59.8281
-33.9906
-22.8385
-52.9677
-36.3779
-36.6897
14.1827
57.5422
56.0536
70.1038
60.4212
-2.48148
-15.2289
-28.7656
-14.8217
2.77562
10.2404
4.68707
-0.249382
-3.65229
17.8642
16.0915
6.11505
7.5472
7.40653
33.0455
0.451232
-27.2974
-47.4489
-52.7568
-44.1632
-19.1395
-0.892373
27.2405
16.741
-6.67294
2.05444
6.34427
4.93841
-27.1049
-29.1049
-16.3946
16.1131
58.0414
41.1429
2.16762
-7.41761
-11.4413
-17.1053
-16.8048
7.20558
56.8767
47.41
-48.5376
-50.3256
2.13695
29.4625
26.6793
20.9566
37.1246
46.1075
20.7472
-15.5013
-22.3792
-15.6879
-25.6202
-46.6464
-41.5497
45.4005
32.4296
-17.9699
-38.5637
-46.6843
-3.16958
39.3594
38.2362
37.9902
-22.3789
-33.9317
-8.73815
-36.5064
-27.2929
-8.48728
-7.23248
34.5792
29.4965
20.2221
28.1655
-30.6891
-44.3537
-15.2707
-5.93421
6.06847
48.4438
41.8786
-5.3523
-28.4802
-2.8607
7.91324
3.97623
1.06915
17.7851
51.2371
-9.55547
-34.5386
-29.7675
-35.4542
-21.3368
-21.6614
6.16819
55.8563
27.5682
15.0379
-14.0816
-46.5765
-37.2519
-0.345969
48.5384
65.2022
22.9199
5.8787
-6.42186
-48.2278
-48.7186
-27.8036
14.4405
65.657
30.1213
-9.76894
-14.8865
-34.7815
-33.5995
-14.912
1.33424
58.1853
55.5791
13.9005
-3.15354
-18.2558
-22.8334
-43.6199
-54.7613
-28.1165
50.8182
59.621
2.75033
-42.847
-27.9149
-22.3417
-14.1533
2.76905
42.4155
33.1737
60.2657
31.8111
-19.8631
-37.8906
-60.6414
-21.7598
16.7222
23.0165
33.4298
23.6277
-33.477
-49.6306
-1.98723
31.293
41.242
31.4307
22.6845
6.00607
-9.2769
4.29246
-25.0733
-40.1945
4.38561
27.0723
43.2833
8.87359
1.56173
17.5613
-6.01618
-35.7119
-44.5305
-38.5807
-26.1556
-22.2436
-27.32
-20.6727
-27.6445
-26.6314
-5.38035
10.9966
2.69867
-5.10063
37.0273
31.1756
21.3218
14.216
10.1453
5.05508
4.50774
14.3665
44.3122
13.5781
-19.8046
-31.4496
5.84089
50.4608
53.4673
50.9588
66.4839
2.62472
-43.2641
-29.168
-21.6
-13.8839
-17.9577
-27.9219
7.94073
4.17699
-33.9869
-48.3439
-62.7123
-39.7604
-16.7277
4.26861
14.4413
51.7856
6.54939
-36.141
-52.8732
-25.4691
8.65946
14.1198
29.5058
56.0779
88.0087
61.2116
-32.0577
-63.8743
-58.773
-26.465
-9.65006
6.53696
26.1908
45.9355
54.3598
10.2211
1.52954
-4.25316
-4.4482
26.0352
29.8893
49.752
53.2353
-29.1947
-75.3282
-78.3332
-40.4169
15.3063
41.6805
35.0594
18.8067
-19.3534
-21.4318
-31.8698
-46.1646
-22.5849
24.0866
54.4174
43.7424
-11.0828
-41.1841
-62.4025
-54.6382
0.144157
2.83027
26.1782
58.3617
12.3324
-6.23642
-15.9009
-9.09665
11.5881
8.29421
9.58516
1.53121
-0.821787
-19.6218
-40.6633
-45.1802
1.99317
30.0398
22.9885
-9.56444
5.11169
32.3482
17.0305
6.87988
23.6184
39.8671
27.4875
-3.425
2.59415
33.5562
29.0395
-11.3717
-77.1869
-84.1794
-45.1929
-21.7517
-22.9847
-1.96953
47.2885
48.2408
-3.78559
-27.342
-22.8538
-14.4385
6.02074
22.6001
18.2767
56.5035
40.2192
-14.9185
-22.9563
-17.7175
4.33118
28.7927
40.0072
41.3335
16.8328
-27.5943
-59.4625
-33.1849
9.15921
12.0881
10.4993
-4.71999
-0.299531
28.3027
18.6868
-18.4192
-42.0015
-64.5718
-56.7736
-13.2623
-5.69974
5.3001
32.5946
80.2075
64.2464
44.7773
11.5449
-19.1206
-43.6047
-40.9117
-20.822
-9.86476
-42.3305
-82.5157
-49.4956
-6.06567
19.6634
39.2685
76.1717
70.281
19.4069
-10.2006
-26.142
-52.1549
-34.6264
10.2906
37.9216
40.6028
0.0899067
-2.94431
-0.381053
-3.21225
19.1437
21.6121
4.79387
7.16021
4.12066
-4.82744
-25.2811
-24.9742
26.8684
46.6707
39.3977
57.4296
22.0647
-58.3125
-96.263
-85.6961
-41.9947
-16.9866
3.15681
11.4752
42.3647
61.5354
33.6652
-6.90019
-3.53195
2.76468
-11.465
-17.1658
-17.5139
11.1577
2.56553
-49.0735
-17.9676
31.3354
46.9597
40.4244
61.6276
61.037
-14.1812
-77.1741
-108.711
-84.6248
-26.7721
10.1807
29.2285
47.2096
29.5415
-0.345902
-29.9214
-47.3472
-3.7385
20.7067
24.2062
54.1876
64.3878
33.3085
-40.7186
-53.477
0.261219
32.8335
8.17018
-15.58
-1.20427
22.9419
6.96811
-44.5769
-38.6669
-13.3342
2.2298
1.3312
-5.55992
0.388706
7.18842
-8.75406
-26.48
-14.6335
27.7427
28.8256
36.4211
54.1136
37.7824
10.0966
-8.02627
-21.892
-4.99519
10.8948
-4.41373
2.07168
10.335
-11.8999
-42.3846
-38.5947
-20.102
-5.08321
-3.08328
30.1288
45.8503
2.01632
-53.44
-67.0045
-36.5769
-10.2811
11.7342
-8.8818
-16.4465
37.5853
26.1405
10.8421
25.727
40.8126
22.9294
-6.98228
-3.79039
9.83061
14.7453
1.16914
-45.9184
-58.1052
-15.6028
28.9472
50.612
24.26
0.866942
16.807
-59.7351
-86.4207
-28.5226
-11.5266
-4.70494
1.57505
4.73836
49.7499
37.8467
18.7587
12.3163
9.7445
36.789
44.8259
40.1364
56.2769
14.5539
-20.8233
-20.2847
-24.3577
12.9316
21.3402
12.9787
48.43
5.00395
-34.5149
-54.9195
-80.5647
-65.8867
-51.7327
-35.1495
2.7013
69.4438
49.4423
3.54782
-51.0181
-60.9835
-42.563
-44.3719
-18.2963
41.2494
51.3251
13.6119
-50.3023
-26.7512
12.2285
41.0521
34.1117
24.8118
47.8357
54.6506
-3.23921
-52.3677
-34.996
-18.2091
-16.5572
13.454
44.0629
78.5124
16.4103
-24.5813
-45.4722
-29.2577
-2.17393
12.516
17.1265
34.1902
54.0953
38.2508
-33.3932
-63.9818
-42.7791
-19.1105
-2.47977
16.6079
64.5528
97.9279
63.1339
-4.03355
-24.1269
-31.1274
-33.7322
-37.9727
-34.6502
-26.2881
20.9612
-13.5657
-56.2099
-52.9724
-28.7491
4.90806
23.9413
13.9212
32.4358
30.9846
-32.8751
-53.171
-42.7142
-68.3392
-74.0815
-10.8024
50.6051
97.6435
59.6592
31.5531
-7.9656
-6.75442
14.2649
16.8859
44.5359
61.4594
15.8098
-12.4479
-26.4442
-34.7572
-25.4234
-21.848
27.6436
71.7135
57.3749
11.8952
-22.2157
-25.2644
7.38954
40.3975
78.4739
54.7303
-32.9275
-54.6565
-60.1978
-64.8503
-36.3531
-28.9748
-30.2133
1.46697
40.7831
9.70921
-43.5132
-44.936
-10.6011
-8.39016
-43.1061
-63.0738
-28.9224
-17.6744
-21.285
-5.66441
39.1193
64.4164
69.0369
35.4796
24.936
42.4739
61.773
81.3265
15.0553
-28.4517
-56.3296
-54.4899
-18.6927
-3.21284
27.9768
83.7232
65.0567
-14.8154
-91.9838
-89.1497
-34.9825
13.4933
35.426
46.9876
43.9804
7.3991
-35.4572
-79.529
-54.8878
6.23425
38.7803
31.9891
52.2183
62.584
24.3536
-44.0835
-62.7283
-63.7196
-54.0257
-16.9776
1.83557
29.3774
37.1177
-18.8644
-53.1484
-35.2427
-4.58633
-9.69182
-8.7263
15.9811
46.7399
36.0375
40.6184
48.2681
43.2262
19.9008
-14.3062
-10.2567
-8.68737
-47.9874
-20.2278
3.25795
-0.451688
24.4971
51.2392
60.7172
41.2297
7.35326
-30.035
-50.1077
-35.0218
2.73253
-2.38289
-4.73979
-19.8103
-58.5852
-44.1246
-1.30244
20.9951
45.1944
32.8521
35.8426
18.3222
16.6056
-41.5979
-46.1273
-36.3361
-51.6245
-49.5656
-21.77
-9.36788
15.003
38.4087
-7.46331
-18.8934
-4.80594
4.28378
10.3392
21.3366
38.0934
44.3154
33.8303
39.5534
3.15104
-13.3349
-39.9035
-34.4567
-7.74696
-1.9416
14.9216
41.2436
28.619
-41.1896
-48.0117
-9.60888
20.673
27.988
42.1877
80.9337
93.6849
-5.55759
-95.6069
-93.1669
-47.3665
-0.528245
26.9005
46.7887
62.4353
54.1125
36.3512
-9.83434
-50.0332
-58.1134
-51.2638
-41.9001
-5.0437
15.1514
-18.7877
-41.5942
-60.0935
-43.0188
-16.8001
-4.69978
23.4823
47.4301
22.6713
11.0035
21.8122
35.3395
12.0243
-18.0961
-18.8431
-3.06917
-24.5606
-5.60071
-22.8228
-14.6374
15.8563
11.8947
37.451
80.7893
24.8767
5.78893
9.10379
7.44295
14.7245
7.75551
29.9799
49.5163
10.0424
-38.6547
-46.9411
-47.0829
-28.4128
-18.6096
-19.2811
-14.4951
21.4795
2.31879
-40.926
-40.811
8.92398
22.4066
20.543
22.3091
2.54719
-0.931488
7.47743
-30.6439
-40.7538
-4.28281
7.10829
19.0207
38.5677
25.7631
34.4593
40.2995
-16.0626
-30.2015
-20.8338
-16.6631
-4.66824
7.72658
11.3719
-0.117269
10.8567
0.0780401
-31.0441
-24.5318
-3.78376
29.2431
45.2618
5.30832
-15.5886
-7.68887
-6.37933
-28.2755
-6.89252
33.0186
69.3871
21.3294
-16.4758
-38.4642
-45.8233
-42.637
-30.6612
-23.1209
-21.2363
-32.8012
-8.1838
-10.6622
-15.331
10.0798
27.8214
20.4441
19.5906
53.2483
46.9893
13.392
-5.35383
17.2239
25.7594
20.1067
12.5249
20.3213
68.646
36.6109
-16.2905
-8.7274
-21.0126
-36.7032
-37.9666
-11.3729
23.9305
23.3442
-53.6001
-96.1665
-71.5999
-43.2916
-39.9991
-6.65477
19.432
49.5737
54.0625
15.506
-15.0768
-27.6416
-37.7444
-28.0512
3.50195
42.7794
39.5686
4.76433
-4.77518
-0.868358
36.2883
42.384
31.1778
38.2905
12.7556
-2.02174
-5.45866
-12.547
-10.1273
10.7559
12.2891
33.3348
55.9037
30.9927
-24.3158
-35.0778
-38.1768
-20.2611
-35.919
-66.9882
-43.8148
5.37597
7.53305
-3.85432
8.33215
13.3507
-8.85256
-40.3394
-25.8771
20.141
-21.1289
-24.6359
-22.9057
-23.2327
-0.947904
27.7552
60.4237
58.981
10.0204
1.85031
27.896
13.6608
3.60296
2.65017
33.0885
49.5637
1.39909
-17.448
-37.5234
-50.3464
-11.4395
0.776872
22.1886
48.1747
34.3374
5.96129
-19.7956
-2.91032
11.059
-4.88357
-15.276
3.22274
-9.26924
-57.901
-68.3182
-47.1833
5.45165
19.4119
13.9677
8.11344
50.46
57.3391
5.41203
-34.3025
-31.2929
-23.4543
-19.2325
-25.6705
-5.0993
25.7004
27.7257
-24.001
-13.3497
16.2637
6.74952
-13.5412
-11.0104
4.23806
7.4137
-20.5078
-11.6505
5.78325
47.4176
72.8022
51.7206
46.2908
44.659
-20.8859
-30.9075
-24.3835
-34.8797
-44.3902
-34.3631
17.6706
26.4815
-17.9398
-21.415
-25.8063
-17.2598
15.0142
8.70592
4.79746
27.9963
20.2087
-25.8419
-86.8909
-82.3213
-6.68831
28.375
19.3878
19.933
79.7429
57.108
-0.655417
1.01588
11.9398
15.1617
23.5106
1.87525
-5.76878
-36.2488
-24.2481
-25.3481
-17.7601
14.0494
26.4026
32.9599
42.2945
38.621
20.421
-17.9753
-64.0596
-60.4781
-49.7162
-3.45314
27.6382
-3.33755
-20.5955
-16.839
4.08977
13.8971
-7.25904
-16.5938
-0.164814
37.3015
20.8359
-0.454991
-21.1475
-34.2292
-17.4418
3.66249
10.0016
45.239
79.1821
20.5162
-30.1793
-10.9398
-4.23708
9.20752
5.78625
5.96367
12.5199
14.5998
-35.5585
-50.1497
-32.4046
-26.6302
-12.6319
2.01182
29.2337
57.9949
11.2369
-33.9659
-43.9794
-34.4479
-9.73867
30.9835
51.8334
63.4448
-1.70817
-34.6817
-19.3897
-20.9207
0.0844283
4.58609
10.8527
34.9556
0.577508
-15.8899
-11.1029
-8.69676
-1.42136
-2.76625
-4.01547
8.79825
13.7828
-19.5008
-13.1446
-11.6809
26.5369
36.0101
8.32401
-10.5909
19.226
55.7522
24.5741
-22.2125
-6.94587
6.22322
-10.698
-41.6532
-41.3409
1.29169
20.4041
1.24371
-7.9424
4.82201
-2.94607
-21.4406
-1.68202
51.2588
27.8264
-19.9407
-44.0432
-69.3003
-42.5667
-24.1533
-15.4568
-10.3163
2.90879
33.7972
15.5416
-15.5531
-19.5592
5.57841
29.8011
41.9267
44.1366
48.2606
21.1942
-23.4626
14.5757
49.6286
35.1495
4.58986
10.8466
26.3507
14.0694
-30.0299
-49.9473
-55.4505
-37.5659
-36.801
-46.3767
-28.3805
26.6759
65.1881
5.67907
-27.2269
-6.65504
-11.29
-32.299
-28.3048
-2.74042
19.3254
5.7431
-15.1903
-6.04456
9.60915
5.74864
20.1722
56.3542
86.3458
68.8008
10.3202
-10.663
-33.0906
-32.0136
-44.5288
-24.1731
33.2661
11.9017
-19.8964
-28.7449
-32.1431
-11.8518
-1.44777
6.63974
45.2706
27.9757
-13.4558
-38.0427
-57.7071
-52.7666
-13.3215
15.7684
49.123
51.8538
20.5838
-1.29379
-11.4277
12.299
23.5137
30.3881
32.8524
35.9943
43.9226
-12.0078
-60.3878
-54.5645
-32.2194
-3.32655
8.51465
8.16348
10.2348
9.59325
16.0454
-12.5319
-11.9686
-23.8074
-43.8001
-34.1471
-22.2131
-16.6459
6.54434
-12.225
-29.8281
-0.338034
25.2638
39.9988
34.8798
24.7897
26.5438
10.5719
-2.39943
-35.3758
-83.3492
-46.9569
29.0662
83.2479
69.056
28.4735
24.8788
-3.05453
-36.451
-12.3453
13.5037
54.2397
92.0143
44.6101
-48.8207
-79.383
-61.5277
-26.0113
-40.3853
-51.6568
-24.6258
18.2617
4.41215
-16.9485
-10.7616
6.98515
1.92668
17.1357
36.6226
48.4799
-11.1517
-28.8127
-39.1902
-20.8565
33.598
44.7686
39.9492
45.6821
29.9346
7.93792
-15.317
-8.49796
8.1228
-5.82002
4.81825
36.7434
-3.61774
-25.9569
-45.3635
-68.626
-41.0479
-33.2659
-16.8322
34.6808
3.21678
-39.0495
-16.9188
0.363818
6.8587
-4.83268
-17.9816
-9.00347
32.2505
34.2611
-8.13595
-12.8046
24.4363
42.2025
42.3185
33.6225
23.4213
43.6626
8.23525
-72.725
-32.241
11.6978
3.63775
-5.92577
9.45083
39.545
72.2717
24.8673
-29.9202
-39.4857
-19.7327
-15.8958
-1.61383
-14.7818
22.4043
11.3609
-19.0063
-59.3978
-42.2552
5.08545
13.1762
5.11972
8.80595
-4.48756
-12.7126
-42.2363
-60.8557
-20.7183
-12.3151
-0.904969
48.5992
29.4323
16.9979
10.5642
-16.8007
-12.9294
9.20428
20.8574
28.7537
12.2364
6.55434
-0.561375
-38.3423
-32.5925
7.80124
31.9694
30.5355
34.78
56.9483
34.4882
-10.8681
-4.90759
-7.6099
-7.74084
-12.6684
5.6883
38.2797
10.9897
-11.3545
-21.6341
-24.7619
-12.1875
-15.2109
-4.68894
22.3321
8.61179
-19.2493
-43.2293
-49.7321
-32.369
-32.5802
-26.2215
1.51368
16.4781
57.0048
44.644
-2.4837
-34.6456
-50.4176
-20.3663
-3.09988
32.4019
65.3507
31.1875
-21.2379
-17.8407
-20.573
-38.4278
-33.0197
9.09531
36.2665
82.5475
86.5692
30.4826
-27.259
-34.933
-22.4098
-3.60219
-2.18801
3.06747
49.6707
55.9377
-19.4166
-38.1596
-39.8064
-32.1314
-11.9699
21.0224
45.5869
39.7273
-3.53003
-33.0725
-38.3437
-17.8774
-18.9929
-20.3921
1.11914
25.9001
1.29555
-17.1069
-48.0239
-60.4162
-18.3467
18.3647
48.289
54.3258
34.6924
27.5001
-5.45843
-32.2331
-2.34773
2.1789
13.1803
38.2847
-7.48171
-21.6028
-45.4259
-37.106
4.64655
16.2232
13.4005
32.9039
25.7864
1.99497
-36.3128
-31.788
1.23164
20.9396
28.7429
26.2567
37.2423
17.8034
-24.1193
-44.7503
-43.8566
-34.0565
-12.1329
-46.2301
-40.7722
-24.419
4.97727
35.547
17.4452
11.2899
32.2382
32.1743
48.1073
48.0181
49.1133
14.5925
-3.26757
-8.12061
-21.9522
-28.5174
-10.055
2.72941
30.4481
50.5482
31.9921
19.5263
-22.6403
-69.5932
-43.6574
-5.64613
43.688
44.7772
-34.1008
-80.2355
-87.1756
-56.2767
-52.2473
-25.8817
0.93315
-5.37242
40.2722
62.7123
25.4241
25.6665
9.10251
12.5561
28.2265
5.94472
14.4418
11.7647
-45.6053
-57.0269
-26.8413
8.18946
20.5596
29.1938
54.185
30.9429
28.2197
34.9958
6.53843
-32.251
-28.7326
-13.3951
8.91747
-5.62389
-7.03702
-0.403186
-6.80361
-6.75175
-8.081
29.7865
60.8813
6.61307
-28.5365
-37.135
-55.8147
-41.2338
-23.8596
-7.13738
2.47664
-11.1756
-21.352
0.229422
25.3314
41.2491
28.5386
5.53517
-18.802
-1.50551
34.2866
-17.2395
-29.6244
3.05694
26.14
38.7335
39.157
19.695
19.0427
60.9345
53.6546
-15.0076
-49.1883
-51.43
-59.6797
-55.4717
-36.2804
-3.1383
37.2258
17.5255
-32.0763
-30.4425
-13.3029
5.86852
6.39825
0.998202
9.97367
14.0304
-32.0361
-53.5701
-29.1573
44.2007
81.5599
74.8312
63.8695
21.6699
-23.3809
-9.41328
-20.6757
-29.9539
-23.2478
1.99308
37.1106
8.50911
-22.4594
-30.866
-28.3927
-22.6948
-10.9445
-27.6281
-17.8634
52.3179
33.0232
-35.8887
-40.1234
-20.2514
-4.95568
-14.784
-8.69186
29.798
70.1088
26.9561
-3.11593
12.5598
20.0692
32.109
28.1699
23.3689
34.3708
15.6707
-21.0187
-50.9547
-54.5686
-22.0819
-0.927611
36.6187
47.2733
-8.41678
-40.2702
-65.378
-70.0153
-42.1888
-38.9948
-21.8068
17.7616
45.2024
23.3913
-4.63209
18.9596
39.4295
36.6736
24.0808
32.4865
37.7501
43.516
8.0454
-22.5662
-15.2448
-1.84198
4.92054
6.72928
13.976
-1.10414
1.65733
34.7821
-12.2857
-53.454
-55.0963
-24.2245
6.90184
4.30523
-12.4881
-18.014
-44.9375
-47.3115
-27.0677
-13.996
5.07544
14.7219
32.1185
-8.64291
-32.3618
-29.8339
-18.6303
-39.6275
-5.19703
43.7405
84.3251
77.0265
1.03912
-33.3941
-61.3075
-30.2997
26.8968
29.2498
41.3178
44.1453
33.8122
25.7404
7.25318
17.2199
46.9753
56.5884
76.1264
48.8867
16.9736
-31.0338
-50.7386
-55.8201
-24.4263
-10.6574
10.0506
7.74449
34.9418
-12.5869
-74.2555
-78.1175
-52.4993
-35.4366
-36.3124
-16.1406
7.11727
17.0438
-27.5301
-31.0479
-23.8454
-0.728421
0.591234
-9.34062
-6.38151
0.226699
32.6076
24.4342
-29.094
-18.5124
34.3305
54.6532
29.6395
19.0963
39.9555
16.4466
-6.67259
-22.2925
-24.39
-8.15302
-1.04
11.0172
43.4937
15.3601
13.8183
16.8986
1.48691
9.78955
15.285
25.7348
32.0186
-5.1935
-29.0622
-21.9805
-39.5144
-53.284
-42.8645
-14.2049
21.6464
49.2389
25.1148
-1.9411
-4.76628
16.0674
-2.69406
-12.3707
-9.60988
4.56347
-26.8546
-43.1832
-43.9964
-31.5953
-6.79666
2.77018
21.2196
76.1195
30.4507
-17.4908
-26.2167
-23.5546
-9.99308
-0.520559
5.68029
46.8414
59.3491
39.262
-14.6515
-41.881
-12.5825
4.43418
17.8587
53.1673
17.0993
-21.9619
-45.7267
-51.7551
-18.2599
16.7236
42.9983
30.4365
17.0158
-6.10284
-39.922
-61.2922
-54.5742
-37.2715
-4.68631
14.0812
50.9715
60.5003
11.574
-20.2093
-16.3599
-29.6819
-34.5465
-19.2662
12.7599
21.2301
59.0644
27.9279
-2.47448
2.21227
7.91901
-4.88428
-2.22603
20.3688
70.9444
51.4594
-22.8907
-40.8101
-29.5503
-24.6836
-10.3435
0.476476
27.005
1.67398
-24.7988
-28.1474
-54.8392
-32.9039
2.36213
21.4421
52.878
51.7791
17.2357
-4.91016
-38.6051
-37.5739
-37.6638
-33.2682
30.4479
61.6744
32.0862
13.3981
0.574334
4.6745
8.28537
-9.97866
-42.4137
-23.9642
0.451771
-16.7714
-26.1988
-5.93472
19.8355
15.6829
-8.22682
-3.6958
31.775
20.8869
-13.8071
-26.9406
9.61646
31.9899
22.8453
40.4262
24.5455
-25.9073
-32.3651
-27.6656
-23.7919
21.901
8.30102
3.33758
41.1078
31.1183
4.34592
-18.9466
-33.4586
-41.7982
-50.0825
-37.8131
-25.3604
-3.53083
-11.026
-37.4038
-22.0592
28.5319
38.0519
29.2015
24.8428
39.9281
92.0034
56.1186
-19.4064
-46.2463
-35.3717
-17.7649
4.15885
11.2082
2.91505
38.751
27.9077
-26.6476
-32.4116
-23.0471
-31.7755
-6.04023
-4.62883
4.21833
7.64593
-2.5892
-27.7574
-15.3202
2.75833
16.1215
30.2998
51.2402
15.3712
-2.32652
8.69401
-11.7398
-19.9236
-19.2887
-15.9377
18.5131
18.2896
6.26187
18.8924
15.9466
-13.6681
-27.2596
-18.5199
16.0855
6.81325
-6.67899
-20.4589
-17.0835
1.71126
17.3215
19.8799
32.9883
50.347
13.4732
-53.2696
-92.0418
-53.5229
-15.3226
-15.5006
-8.39909
41.5737
57.0558
-29.3579
-75.036
-24.7512
19.5965
20.3844
5.09638
13.5679
40.5415
-7.82788
-28.0941
-15.0155
13.1006
50.2252
57.9978
64.0555
79.4717
39.8648
-16.3258
-22.0306
-29.5922
-18.1805
-8.6711
-0.225236
17.5043
2.52341
-35.8421
-47.9628
-57.0146
-27.9284
-22.4045
-18.0339
32.7869
44.1444
15.0949
11.4415
-19.252
-36.4852
-18.8922
5.42697
14.6976
36.0964
-17.6823
-35.5388
-28.8631
-16.6228
-21.6728
-15.643
-9.76082
20.2922
59.5461
8.99042
-17.3844
-7.8431
0.643969
-22.2419
-19.4266
33.1987
66.4884
6.78865
-11.4934
-10.7035
19.994
46.4907
49.3747
60.4145
72.3692
21.4728
-15.2969
-36.2588
-66.4101
-25.2557
-6.84576
-7.20878
3.60802
-15.6338
-20.1451
-25.8764
-43.3072
-37.709
-35.5878
7.64877
33.0542
4.75507
-6.92336
-3.45076
-11.2706
-5.58575
19.4201
48.2306
43.9103
23.9672
-6.15153
-20.7192
-52.4274
-56.3924
-19.9381
13.5738
20.9075
58.3602
33.8794
-17.4994
-29.5323
-24.1551
-26.0795
-34.9393
-20.5831
15.0865
48.7605
37.8326
-15.4141
-7.61308
14.3221
22.1614
51.7837
63.411
65.8441
45.8814
-28.1913
-62.4826
-45.6747
-35.6017
-17.3586
6.89971
33.5276
18.1054
-10.6689
-7.31831
-25.2288
-41.3156
-30.3856
-27.225
-30.8407
-31.1153
-37.0042
-16.5074
-26.0281
-20.3311
20.7237
28.819
60.0381
92.8481
72.5205
42.8157
-12.024
-16.4142
7.43716
-8.64631
-32.3118
-34.808
18.0135
16.8391
-4.04218
-6.51438
-3.88594
3.61504
-5.74856
-12.66
43.7812
12.7691
-36.2838
-59.6951
-49.3797
-29.8926
-15.8478
14.2794
42.5456
29.9541
9.52628
14.5041
-0.737162
-5.60002
-4.81236
7.90659
44.8474
30.7411
1.23043
-8.14108
-31.2148
2.7502
21.0847
19.4947
10.26
7.00093
42.8989
-10.4397
-36.5616
-12.4889
-3.8156
-19.8403
-38.1176
-24.6309
10.9621
10.7689
11.1407
-29.0415
-44.4838
-19.2564
-9.9855
-12.6184
-0.00768788
36.691
70.5168
-12.0618
-71.311
-36.4027
-13.2956
15.3591
30.3362
27.734
38.7147
13.6967
-6.04537
-29.112
-38.787
10.3885
30.3108
25.2125
39.5078
19.8001
-8.40331
-28.1719
-30.2319
19.8684
40.9795
46.8238
58.0369
9.56074
-12.9075
-9.27834
-26.0545
-21.7637
-26.4601
-0.781747
27.1184
7.11652
-29.7595
-48.4195
-47.7023
-24.7811
-10.3554
16.3689
29.8844
62.8816
47.4652
-27.3824
-85.4643
-67.6419
-39.8338
-24.7172
-13.0178
12.9978
64.0131
39.0437
-15.605
-13.7453
1.30061
10.3445
-1.52766
23.2713
53.6279
33.122
-21.8383
-39.7627
-27.4724
10.9361
26.7068
26.217
19.6299
19.8492
21.1452
0.844918
-36.6615
-17.6891
7.61645
28.1117
41.4002
36.4227
55.9464
35.3073
-48.7119
-88.5386
-75.3904
-54.9899
-22.4611
7.29508
30.0101
47.9897
-2.37189
-40.3606
-49.4266
-26.8192
-32.4427
-22.7189
-7.20616
17.041
39.8068
27.26
-14.6777
-15.3963
31.9678
46.1256
48.3716
37.2738
70.7185
33.1529
-25.9811
-34.3893
-10.7341
-10.4562
-26.543
-24.5864
12.2719
12.7752
-21.7007
-32.2482
-55.3209
-39.9243
-5.24263
10.7978
32.9607
11.8763
-0.815999
30.4565
16.1638
25.3603
28.1822
5.11539
49.4286
48.0133
-5.44528
-31.4587
-49.6235
-44.7565
-35.969
-25.6726
3.94838
37.1788
10.8269
-29.9556
-45.6951
-32.77
-2.91297
3.75332
-17.657
-8.86634
24.5079
46.697
-16.9985
-39.7994
8.8867
31.0765
20.1539
18.7719
32.6863
55.6489
65.5738
11.7532
-32.2925
-30.9367
-18.014
-10.3484
-18.8591
-27.6775
-9.8166
19.0342
-17.7784
-37.8859
-14.2649
6.92094
5.53425
12.8586
36.0441
56.6062
15.7038
-25.3311
-62.8573
-56.8089
-25.7281
5.61493
49.8389
74.1664
21.0938
15.9577
7.80733
-16.6264
-7.0104
-18.5653
-14.8014
20.231
30.413
-15.2336
-52.6337
-57.2832
-19.7787
-16.7833
-1.68305
21.3973
44.1152
58.287
2.56564
-33.3511
-18.4534
-25.1886
-9.77126
13.8095
33.8967
45.2218
-0.155704
-47.7753
-28.2026
16.3303
19.0463
13.1866
36.9635
11.7293
-20.9939
-28.7406
-42.8129
-45.1597
-6.51444
25.2404
64.9113
42.3567
8.82665
-13.662
-23.2107
-28.266
-5.30707
21.0143
69.7524
60.3553
26.9748
-49.1275
-84.8825
-64.7621
-29.4277
-11.2527
0.175701
10.4985
25.9024
-5.43404
-1.37045
7.26552
-10.2
-13.6344
-13.0786
-5.67433
24.6775
55.1593
-5.57686
-45.6051
-37.0853
14.1672
36.6941
31.8805
27.7003
16.6413
30.9309
-9.26376
-30.0948
-20.9873
-33.1634
-31.5288
-5.01688
43.7912
17.5199
-4.15561
5.57337
-12.5895
-20.3105
4.07274
21.3403
54.6422
21.7957
-5.06577
-10.7297
-19.0057
-25.919
-1.91683
36.2486
59.8817
13.8665
0.92202
-16.2013
-50.4682
-25.0814
-13.6557
-20.328
20.2677
21.838
-29.8058
-36.6769
-39.1253
-26.716
-18.0046
-17.8187
7.08298
39.5252
57.5264
-0.939169
-27.4159
-3.73725
-1.95997
2.31622
4.7437
15.5795
38.5739
8.34171
-32.614
-30.4982
11.0435
22.2854
5.14767
11.8012
59.8965
67.5631
-1.72508
-37.9271
-31.6017
-0.418188
-11.0001
-19.2788
-1.70139
31.149
53.0259
-2.81904
-29.3851
-26.436
-43.0235
-36.1524
-2.38856
17.7835
3.00688
-14.5363
-19.6266
-15.927
-0.742163
-9.84155
-14.8241
-5.97064
23.8751
30.5704
20.4027
-9.45964
-33.2967
4.18414
23.8112
29.332
23.2624
48.8418
20.8281
-16.8116
-28.181
-14.6137
-11.3194
-20.7036
-1.04745
41.5963
32.8378
4.8048
-17.2255
-16.6267
-22.9307
-32.4475
0.820725
29.4441
-0.941878
-5.85602
-12.2314
-43.5562
-24.6703
-1.88356
35.9787
20.0142
-12.9591
-18.3161
-5.58679
-14.9972
2.41625
22.737
63.1376
33.0591
-26.8011
-15.1708
18.9504
24.0981
12.6773
7.13505
9.83812
34.0452
-6.82837
-39.4879
-47.207
-28.5097
-21.7559
-19.1233
-5.35907
-5.39012
23.0022
25.917
-23.5975
-12.46
20.5165
24.1726
-15.7729
-15.1615
-3.77057
-2.19468
17.2664
-48.1854
-32.5758
24.0863
31.7194
36.2057
33.147
60.0768
89.2331
10.3264
-77.7563
-97.2604
-69.9327
-23.1931
12.5118
23.042
40.471
-1.7519
-14.884
-12.5745
-5.71812
25.0179
40.9557
58.7498
90.8213
23.4653
-32.6684
-67.8206
-84.6739
-46.0164
-14.9248
19.078
54.3426
36.3469
10.6325
-9.74883
-45.6557
-29.717
-29.8237
-33.8294
-36.6094
0.299862
9.93902
-16.3389
-48.3305
-9.80077
19.5659
26.234
18.8916
44.2414
34.7898
9.88686
-16.4122
-7.52008
25.9765
44.9963
60.983
58.7369
30.0951
27.8034
6.14916
-33.7141
-51.1819
-45.7781
-12.1319
-24.6029
-28.4696
-17.1783
-11.0704
-7.0793
0.208212
7.60171
43.0956
54.6936
48.3412
-13.2692
-53.0558
-58.2847
-20.156
-4.39507
-2.04787
2.65847
27.3776
-13.0836
-73.0496
-54.2683
-14.767
4.39415
1.50555
-6.82305
19.4405
66.1782
44.7723
-2.19443
-15.8208
1.93312
9.27699
-3.8733
-13.4464
2.14891
19.6599
-8.48248
-3.9269
22.1751
24.0943
28.3807
24.7642
40.3742
35.5985
14.7509
-12.4108
-38.7715
-36.5722
-11.1797
1.15845
42.3162
11.5172
-5.83047
-6.626
-12.6966
-21.0486
-13.9653
-8.42476
32.4667
3.39456
-56.6299
-54.7053
-50.4047
-49.2679
-15.5937
6.78774
12.088
24.42
3.79733
-22.7347
-30.8595
-8.73985
13.514
31.9882
30.2859
24.0667
47.7384
8.67771
-27.2742
9.10495
36.6124
17.0224
2.27785
12.8899
33.064
13.9655
-12.2647
-31.7242
-2.78323
5.13247
-8.8605
19.7985
38.1177
3.15254
-34.9574
-37.4208
-29.5976
-10.3021
-9.80857
-7.09075
25.5595
41.5837
-1.34185
-15.5218
-27.5113
-19.1163
-10.5814
-2.39712
23.8355
58.5959
-0.765345
-37.4375
-36.8053
-20.8693
-6.17644
6.83404
16.2397
61.7008
29.0404
12.2774
10.2833
-20.2365
-20.3657
-22.1591
-28.8714
-11.2815
13.3001
-8.09025
-12.9637
-52.1076
-47.4751
-3.75437
29.8637
91.1634
70.0054
6.14541
-29.9415
-56.449
-32.0059
-25.5001
-18.8552
5.62566
22.4937
10.2536
12.8384
15.2791
5.14526
24.8093
23.7157
33.9818
41.0768
16.6814
4.50413
-29.0548
-11.7094
15.6168
8.50204
0.809901
-1.95741
-36.4085
-56.0677
-46.2527
-5.64244
25.2035
32.7045
33.7041
23.481
1.3032
-34.8306
-34.4739
-12.8579
-15.0885
-33.7451
-41.4596
-32.0445
21.9533
35.1787
-3.46992
-16.9978
6.02011
21.7254
13.4921
5.28691
21.2829
45.7033
72.9993
29.6821
-41.8655
-35.169
-22.2527
-20.5414
-13.1808
-9.75821
53.7405
62.1804
-7.09423
-44.5476
-52.4014
-26.5825
-7.5044
2.69282
15.3077
25.3606
-8.74078
-34.0873
-54.9575
-35.9375
13.6938
22.5906
24.0994
66.1548
52.8806
14.614
-14.33
-12.2834
-2.70532
13.7362
36.836
70.7213
33.9187
-4.73612
-30.8205
-51.6319
-37.0872
-24.171
-26.0635
-4.87495
-3.10411
-28.2345
-17.2316
-12.1007
-4.56152
14.7687
5.53521
32.5119
-1.60643
-30.9687
-20.7668
-36.0841
-18.9353
-5.52379
3.85085
26.3066
34.6837
12.5296
4.03744
-10.3171
-4.69003
18.0435
31.0303
35.66
7.22246
0.12809
-3.74156
-18.2523
2.83277
20.1378
22.229
47.3056
38.3297
6.05085
-28.4061
-38.3167
-38.359
-25.0394
-16.5543
-3.55226
36.1212
70.3048
5.82752
-55.0799
-70.1901
-62.2858
-51.2835
-45.7942
-7.15184
34.1268
91.4842
19.7679
1.18799
11.8317
7.7211
-6.81508
2.89123
-17.5818
-28.1197
21.9249
11.8785
-18.8308
-4.04025
8.34985
40.3534
48.8022
49.6047
70.1155
10.4081
-28.1053
-63.8035
-66.3556
-57.6005
-33.2465
10.8477
25.2444
-13.0421
-2.23856
23.47
14.0544
7.86512
-3.18201
21.6194
74.2377
58.1611
2.53982
-31.1084
-49.4576
-21.0369
-32.5213
-72.0518
-48.0024
9.11191
34.8098
16.5038
-30.8499
-11.8315
7.87774
-10.7497
-20.9292
-4.19893
22.9661
41.3656
-3.00153
-4.66295
14.1399
11.8502
-1.94037
21.6057
52.8612
74.5972
31.6735
-1.30031
-24.8059
-42.833
-16.6101
17.9115
42.5138
56.0851
2.14641
-42.8508
-61.6592
-69.5741
-62.6796
-45.853
0.585199
14.8722
26.3575
32.6224
6.21262
-11.7494
4.9052
6.80301
6.05722
-5.41553
-25.6912
28.0202
17.2076
-28.6581
-26.1559
-4.42727
-6.29037
-6.50802
36.0982
50.3961
64.9403
61.8512
-21.0675
-62.8198
-51.2066
-38.6781
-12.1431
-7.22134
9.20033
64.0085
38.3792
-23.18
-29.5125
-18.0311
-19.7487
-7.1209
39.6272
64.1905
5.7914
-19.3501
-58.1632
-76.219
-28.886
6.22711
39.9673
52.4298
24.2468
10.5925
-1.58408
-4.65061
13.2627
1.45902
-7.3693
23.9251
-7.57814
-6.224
-16.5042
-23.9612
-4.39155
19.7286
42.7364
58.2762
43.6669
-34.5817
-60.2697
-64.4063
-36.2979
-14.3194
-4.20643
-11.5438
21.5044
33.5023
-0.53297
-27.9438
6.53087
35.1059
47.056
32.9129
26.4716
36.7147
-22.9263
-92.5522
-86.1761
-23.1943
0.256625
5.73826
2.17634
3.46006
33.2016
25.096
-7.8694
-32.3561
-12.6279
20.7405
25.8565
-4.65618
13.2887
-9.53506
-26.1214
-46.2235
-9.83406
36.711
46.0319
62.2889
73.4739
17.9326
14.3145
12.6624
-18.7703
-24.7181
-16.4627
-26.1359
-28.2046
-0.413116
9.55638
11.8076
-14.2087
-17.3353
0.790284
1.68163
1.60295
5.72998
30.2569
16.7325
-46.7575
-46.1303
-39.2317
-29.0963
-29.4326
-28.2778
-3.88215
43.5114
18.0522
-24.1918
-18.3715
-3.55327
-12.1373
7.67554
19.0494
38.6971
28.0869
14.9647
-17.8439
-22.3195
3.19244
38.1005
59.6426
60.6536
8.2523
-4.6821
-7.66698
-15.2475
10.5752
13.6148
32.1319
8.03607
-19.3844
-35.7788
-39.4903
-37.5147
-24.2569
-16.3813
16.1052
40.7497
2.77854
-28.8143
-44.957
-47.7815
-14.209
15.5195
19.5163
22.3395
66.4842
55.65
-23.3939
-34.1424
-9.09401
7.24946
5.26732
-3.94767
16.8954
38.3128
30.6574
-35.3373
-41.0921
-23.217
-19.9513
-19.9326
-3.95513
-1.98313
11.7899
-27.9121
-62.0812
-52.2958
-5.19243
17.4074
25.4967
47.7887
59.0469
29.1813
9.53262
-8.65179
-22.1682
10.1014
39.7375
70.3169
41.8668
-0.807148
-15.2187
-24.5357
-24.8375
4.69266
9.68742
14.2156
22.8589
-9.00119
-22.5644
-39.2963
-36.4143
-8.97781
3.7332
2.51526
-2.23179
-9.0331
-23.244
-33.1445
-22.9492
-8.78672
1.51359
18.4079
23.0014
-12.8666
-33.275
-27.0927
-22.9001
11.7898
26.2167
39.9715
51.3201
24.8738
3.31417
10.829
6.93637
18.4732
24.6867
2.24477
34.7044
53.158
-35.6902
-84.867
-92.4539
-56.4411
-29.9145
-26.5809
-4.32379
51.2795
90.9427
39.2638
15.4273
23.7434
8.65544
-17.0787
-39.9971
-61.7195
-26.8942
29.7482
-6.51036
-27.9622
16.7529
29.1542
23.1396
24.6684
30.1152
29.4116
37.4454
14.528
-22.0095
0.0944424
-25.0925
-52.2691
-32.1425
3.75648
45.3879
43.7363
-1.71283
-44.0979
-29.2157
-19.375
-2.7638
12.4187
33.7323
39.5211
8.94359
-2.42175
-34.5904
-57.1202
-55.8592
-32.6666
29.2438
25.4849
0.0964487
-27.4494
-60.1352
-37.3141
-2.26039
31.4882
67.7755
49.1137
17.5455
-2.77841
-11.838
-26.576
-30.0348
-3.43857
26.0607
70.9602
54.9805
-14.8385
-62.1053
-13.3349
19.6941
13.8906
5.34718
18.3268
36.4913
34.5969
-10.2342
-11.4175
-1.38325
12.9881
-17.3409
-30.5389
22.5572
33.7642
0.528006
-50.4693
-64.8212
-22.3627
4.80278
9.41507
-1.35709
-1.27877
19.8957
-11.6766
-24.047
-26.7282
-39.684
-23.2038
7.99649
21.723
48.9399
34.9108
11.1867
-24.0931
-15.6581
4.35601
18.5562
47.4311
46.3154
11.842
-21.5767
-21.8517
-34.174
-5.33613
18.0934
-12.6849
-22.0192
11.4298
1.78152
-11.4848
-38.4619
-31.7248
-17.3639
-7.6205
-3.07554
8.42251
45.8483
17.8742
-17.6933
-11.8085
14.0977
17.3487
15.8178
51.8969
52.3697
0.101143
-5.66599
-16.0087
-12.3293
-18.2469
-16.1802
12.4015
34.6687
6.12767
5.86467
3.94695
-8.82804
-14.1298
-19.7645
-3.92797
28.4538
5.8713
-6.27452
-40.8929
-73.2875
-46.8811
-7.89094
36.2936
77.6062
58.2706
9.89171
-30.3997
-59.2804
-30.9432
-19.9131
-29.8948
-38.256
10.8525
57.545
2.15188
-22.1859
4.4848
34.8741
27.2159
5.94473
10.3853
24.2409
24.5168
-13.8535
-35.4344
-9.09784
5.93028
-7.96277
-5.06427
8.06703
14.067
31.1469
-10.2034
-33.8978
-8.97144
10.1026
18.284
4.67673
29.6055
16.3321
4.41668
-14.8875
-48.4036
-36.6518
-4.18259
13.1406
37.9552
24.2584
27.1928
10.5657
-0.209121
-11.3495
-4.03327
5.29621
23.436
-7.81711
-14.4833
-37.7546
-68.7043
-50.0293
-26.0003
-7.83259
-5.20072
11.5136
29.1737
46.9788
-3.4998
-5.59662
-12.8066
-25.2638
-23.0265
-12.5217
20.9548
46.2913
24.3049
4.69971
-0.650747
21.8192
26.9609
20.0336
55.9327
79.2204
7.05552
-33.6518
-31.0711
-30.6735
-38.0978
-39.3852
-4.38732
5.23926
-11.6641
-10.7966
-8.6747
-13.1195
9.47109
20.816
32.7618
17.1422
-22.5277
1.98502
-8.25555
-49.0894
-26.515
-2.09298
4.91997
25.1834
77.2713
51.1268
-29.9762
-48.4836
-36.0214
-14.8738
-3.84784
-13.2694
11.7493
31.9179
27.7403
-8.116
-31.7217
-20.1206
-16.6483
-10.4868
11.0642
12.8776
25.839
-11.9083
-34.3872
-5.79555
29.7708
36.5063
25.7884
15.3451
19.4784
-8.74573
-24.8526
0.132146
-12.7775
-10.8351
12.3756
11.4429
36.0003
23.419
-12.5095
-11.0605
-32.9209
-27.8795
-25.4402
-25.4984
-9.8585
-9.94966
0.00703068
4.63543
-5.99792
12.3247
20.9557
5.31297
15.2841
54.6176
28.9518
-18.2178
-40.6852
-29.4619
-1.99321
14.9889
14.006
14.0677
44.8851
22.019
-28.0135
-29.9413
-9.30442
-9.99053
-30.4723
-29.1293
-7.3778
2.18631
-18.1697
-6.37316
19.6483
28.0741
15.0782
8.12728
14.5632
23.6745
12.5716
-29.3523
-52.998
-32.3382
5.3795
24.3147
27.7516
25.3466
41.8518
42.6129
-12.419
-34.9502
-21.1124
-24.5916
-8.99736
11.8474
13.5493
14.5191
-2.33069
-22.6294
-31.5227
-4.25719
-2.74732
5.22195
5.53505
43.126
39.1431
-11.3745
-16.167
-10.5131
-3.09871
-8.03366
3.65038
20.7112
29.4635
-30.9781
-67.3315
-44.0007
-16.3087
-3.61524
13.0561
20.6542
32.2111
22.5882
26.2316
-6.61756
-34.697
-13.4675
9.99047
27.6657
46.6756
14.3814
-6.91812
-33.3949
-39.3566
-2.40952
26.5081
55.3656
49.2304
-16.9859
-53.6419
-63.8204
-69.0892
-31.8147
-17.2257
-2.94307
26.6584
27.7249
4.67879
-16.6066
-13.1292
21.4856
39.4455
49.8114
81.0149
92.4282
31.1927
-39.7818
-57.0221
-23.1417
-7.02977
-8.66178
-11.3729
11.5271
49.0601
21.6758
-34.3932
-40.5251
-36.4246
-28.7868
-23.9675
-29.3036
-9.80852
11.2061
-26.1024
-32.712
-11.6198
-15.6942
-6.68107
10.615
38.856
33.9992
18.6231
6.09048
-9.47495
3.42091
27.1121
19.5768
35.6513
22.885
6.21314
18.1101
11.3635
-26.2731
-51.7202
-42.5573
-2.42777
19.8995
1.06613
0.0905589
-6.87782
1.4404
7.98254
7.97451
1.91418
6.06653
29.755
17.3604
-1.30252
-9.10509
-9.14165
-8.85697
-13.2247
-5.63606
15.1718
5.78187
-10.129
-11.3584
-1.84538
16.6615
28.3986
24.8244
31.4263
-23.6668
-58.2748
-56.2214
-37.6107
-1.49946
3.2067
15.2664
29.7202
3.00463
-6.19585
-19.4156
-13.0856
-7.0695
-1.55706
35.9516
56.2012
-2.87846
-35.122
-30.0369
-33.6215
-31.0182
-16.8092
-0.463954
35.9289
56.2034
20.8007
-2.23628
-14.7243
10.1189
13.2967
4.20537
-14.1293
-3.05228
37.548
-11.1488
-31.2421
7.59993
4.01683
-4.74922
-14.7182
10.3752
39.2015
61.023
45.2656
-5.53867
-34.0396
-35.8745
-12.2501
7.30466
3.23342
6.47771
42.8478
52.8536
-35.8075
-64.3712
-56.3656
-48.5747
-27.9701
-6.41925
16.113
32.8749
1.24203
-27.9501
-42.7978
-19.8274
14.0338
22.7619
36.114
30.2358
10.8983
20.4768
12.6348
-2.33054
9.11554
22.6433
36.4888
19.136
-0.147469
-25.2678
-27.2387
-18.3964
-5.25281
-12.0988
-14.6072
7.24732
-5.9156
-0.722393
-6.49309
-14.2569
0.104335
26.6463
23.4808
8.6843
6.56249
-24.6128
-46.0529
-34.8076
-20.9893
-24.0842
-11.0707
38.9132
48.0525
0.501492
-20.5553
-28.1555
-12.9907
9.17917
17.4482
17.4765
33.9439
0.49278
-11.8294
-10.0028
-17.5318
-1.25822
-1.94322
7.40049
19.5448
40.815
31.4053
-20.9353
-25.7445
-15.5268
-3.9717
7.79366
14.829
26.3204
43.9118
34.6899
-17.4182
-32.662
-24.619
-32.4155
8.74118
44.706
10.0841
32.5451
13.7438
-15.1925
-17.9778
-26.7566
-26.5613
-13.6972
-11.8972
20.8501
30.311
-13.3314
-44.6031
-40.0161
-17.2334
-2.39259
-1.07767
56.4609
24.115
-10.7303
-5.78413
-30.1074
-27.2422
-18.4545
-14.2538
23.5079
19.0545
16.0376
14.0653
-9.21093
-0.218796
6.85894
-6.58965
21.0777
13.0046
8.47827
8.97818
-6.86989
0.908313
2.69071
20.7347
49.0828
33.0887
-13.3754
-34.7056
-63.0201
-61.0644
-35.3161
-9.73038
-7.77879
9.44455
61.8302
44.0735
-24.4899
-30.924
1.41911
14.2919
-26.6836
-35.3724
29.7278
68.631
-12.4547
-19.6454
18.9112
18.4263
-8.15877
-21.7971
19.933
72.8675
83.586
11.7351
-35.6399
-42.2993
-32.5858
-7.48621
-0.651436
23.7389
10.6933
-39.6481
-68.1005
-74.7412
-19.3004
21.1145
32.5189
37.5314
25.4446
-12.9635
-20.6534
-37.4158
-32.707
7.52727
14.1834
43.6952
77.2493
29.1387
-5.26855
-42.2309
-46.4022
-24.0208
-12.9099
-4.15575
20.4987
61.3811
29.2006
-2.49846
8.11529
39.5966
14.0593
-37.3796
-65.8223
-32.5771
-31.9138
-29.034
-17.235
17.0877
25.7969
14.2973
34.8776
103.799
66.6543
-18.1352
-50.0421
-69.6714
-45.0774
-21.6159
-1.02058
33.5264
17.7938
-2.80712
-8.18042
-17.6908
-4.71616
7.77162
1.14626
25.4695
31.93
32.3444
11.2778
-7.38347
-12.6382
-15.9191
-20.8479
17.6414
25.2977
-22.5737
-50.3685
-39.7924
-23.5952
-20.7822
-19.4983
-1.1431
21.7757
39.634
17.6286
1.38094
-1.82402
-13.2329
-24.338
-37.5496
-18.3093
20.7318
61.4147
47.1324
26.1925
43.5613
36.8181
8.40144
-13.1769
-19.8047
23.2154
54.6893
11.4879
-12.7848
-6.60037
3.09135
3.7565
-12.3848
-24.833
-58.414
-86.3977
-46.1999
-30.5151
-44.1064
-44.8997
-13.8232
53.03
71.3906
44.3619
23.5925
-4.10819
-28.0927
-6.22012
-33.4616
-21.179
-24.7442
-43.2446
-17.017
18.8156
35.0771
50.9769
56.3253
35.1449
27.5875
70.16
35.9146
-44.3711
-83.797
-43.0762
20.2197
33.1841
29.5094
49.8257
29.7101
5.68396
14.727
22.9685
13.5406
0.878232
10.3918
30.5727
-2.58307
-61.9391
-77.4927
-76.2498
-59.2703
-37.3324
-3.38835
40.5144
39.7927
-12.1391
-45.8201
-64.8332
-32.3264
3.36751
7.1459
4.15047
11.5731
26.262
2.28536
-10.7697
-5.77087
6.97688
5.33281
-4.11488
12.9678
59.656
44.3287
23.4488
-14.6647
-10.2944
-2.3002
1.92346
4.18718
0.0893836
23.8519
40.7974
22.4054
-16.11
-16.5232
-15.9202
-5.59742
1.59167
-7.6632
-10.0943
-32.233
-37.2577
5.65851
23.8948
21.9253
22.7824
30.1737
50.9678
-5.14122
-28.117
-28.2155
-20.2309
-13.7609
-6.16586
15.6058
44.4712
11.3687
3.43503
0.435442
-19.5512
-15.2029
-27.4916
-34.3805
-18.2051
-22.6392
-9.3053
-5.28664
-22.3333
5.8386
22.3423
27.4422
64.4101
77.2844
15.511
-44.0842
-72.8504
-52.5923
-31.5583
-16.7661
-4.43407
31.6803
61.5389
7.34525
-33.3154
-23.7449
-8.04446
-13.6298
-10.8348
26.0681
61.958
52.8031
-31.0623
-52.1936
-15.907
26.2689
29.5206
17.0374
10.2405
34.4949
44.1179
2.18376
-37.2163
-30.5633
-22.8383
-3.3049
-14.6734
3.17607
33.5945
21.1958
-32.1788
-55.3519
-24.6791
-8.84852
12.5154
32.0516
65.1997
43.5591
-3.78907
-34.2633
-34.2044
-23.3685
-26.2705
-6.91312
13.0424
54.0571
44.0166
-9.56404
-43.0028
-37.7479
-20.6473
-11.2637
-4.24425
45.6834
56.9882
-8.39672
-65.158
-45.1457
-17.3417
-35.7094
-37.6007
6.25668
45.186
20.1441
3.7865
-7.34844
4.59377
20.5615
16.0575
57.6931
47.8064
-10.8288
-31.2055
-36.8052
-24.5512
15.3617
45.7653
87.9452
52.9458
17.2489
0.256212
-22.8945
-24.9264
-5.31735
-11.7575
-26.9566
-16.6843
-40.6215
-34.9342
-20.2315
-6.01374
20.084
36.7624
6.62822
5.09459
14.4605
-43.1053
-84.9429
-62.3583
-22.2384
4.42352
18.858
13.5667
44.4107
74.2061
30.6671
-18.3697
-6.60362
-13.7975
-31.3973
-13.7245
8.50778
6.22687
22.0323
3.85102
-18.6667
1.60621
13.1984
29.6229
29.2314
36.1993
47.3058
-2.79903
-35.8366
-52.7232
-19.8502
12.3883
16.7525
29.0564
46.409
4.38962
-49.2933
-50.6845
-46.1678
-24.5759
3.15049
16.0649
38.5872
21.7051
8.03527
-3.52853
-15.3962
-15.9956
-13.8287
-16.3707
-7.05362
40.6451
33.0226
-6.32811
-40.6028
-25.7495
17.8207
20.4899
-1.95209
19.0782
44.6988
-14.3183
-53.2236
-28.524
11.0751
13.1204
-27.1955
-30.0829
5.46094
-0.134692
-12.3186
-14.0933
15.8238
19.1717
-4.46089
14.279
58.3269
23.7657
-14.614
-34.2134
-19.3785
24.9596
26.3721
49.4968
49.2788
32.2654
-22.9296
-33.022
-36.7275
-22.6431
-15.413
-33.5003
-9.91042
57.9557
36.2642
1.69143
-21.3724
-4.17762
2.8126
-13.8197
-33.6229
-17.3123
15.6025
31.2274
-21.4128
-52.3556
-24.8506
-5.65654
-14.3515
-9.07956
15.885
31.8911
17.8456
-30.1187
-27.1663
-16.3471
-17.1006
-2.44756
32.2403
81.1336
31.3164
-11.1163
-49.1003
-57.6188
-9.55266
24.3241
49.7408
73.2675
41.2387
16.3371
-11.3833
-17.137
-11.8788
-4.45377
24.3473
74.2832
48.7617
8.39219
-27.2558
-64.7447
-69.6468
-43.0692
-5.88613
12.3569
-18.3744
-24.9525
-11.5709
-32.1576
-38.6745
-21.1757
8.17494
19.8955
70.4431
60.6804
34.5608
-5.9889
-7.86096
-17.2895
-32.6655
-54.8451
-36.4336
26.9354
27.9105
-8.82197
-12.7313
1.52202
-8.90876
-17.8507
14.1359
62.3013
59.7697
2.76644
-34.6919
-33.6366
-22.2277
-19.9445
1.61754
49.3622
121.731
111.853
50.1047
-37.9097
-78.099
-89.9158
-76.5468
-45.8545
49.4599
80.9663
-24.9018
-106.809
-102.233
-46.8312
-7.13931
31.177
58.6659
94.7675
74.0228
31.6569
-29.2219
-73.0498
-49.9246
-1.20872
24.7885
41.1954
92.2901
66.9913
-13.0599
-32.2456
2.73044
15.1419
-3.14737
-38.3212
-61.0433
-18.9116
11.6237
-2.7023
-19.8697
-49.1092
-96.3499
-66.8664
25.5258
42.8711
40.7388
34.5093
7.78753
5.83632
-1.5226
-7.04855
33.1733
34.1649
56.8693
87.2226
91.4183
9.36165
-66.3598
-85.3077
-23.8514
-19.5275
-41.9692
-24.1814
-19.7135
-2.19355
5.80414
19.1654
26.1278
25.725
-8.33863
-17.721
-5.86797
-0.992001
-7.59631
-3.41391
-6.15959
22.6104
59.7327
18.7601
-38.345
-14.9889
43.3927
63.0414
37.1079
7.35463
-33.8492
-37.4799
-69.5226
-121.212
-96.8613
-43.813
-11.2945
-0.821898
3.42551
16.4252
23.006
-14.3231
-35.0088
-33.8802
-18.6562
11.0535
52.7205
94.57
132.447
111.242
83.7962
13.2282
-20.5551
22.961
14.5212
-42.0692
-19.177
-19.0192
-13.54
-25.2349
-40.955
-22.1719
-13.2903
26.0498
61.7029
30.875
-5.05702
-36.449
-61.7986
-49.2505
-21.692
-8.5713
-9.0869
10.8093
51.1059
50.587
18.396
6.93396
-8.89825
-30.7157
-62.2863
-45.6499
-4.95672
-13.6103
-22.6079
23.6227
48.0351
29.0671
-6.39343
-1.58422
-33.9144
-61.7068
-36.851
-18.1446
-4.48846
14.0446
3.6231
35.033
20.29
-7.19655
1.9554
19.4691
20.9459
21.3302
9.41136
21.0245
19.6766
-26.2592
-44.0544
-37.5055
-8.26868
29.4632
40.9112
28.1448
12.9319
33.6899
27.0315
-39.2986
-32.3024
-0.32827
7.91217
16.9151
17.5635
25.5163
28.6225
43.534
16.7961
13.5813
-4.17054
-19.9363
3.39674
12.7916
-5.0417
9.82631
32.2543
-26.9737
-62.4681
-48.5142
-31.6012
-29.1077
-25.5771
35.7069
52.8778
-4.14926
-61.2929
-82.6151
-45.4385
-20.2432
-9.30636
3.82185
10.2687
-6.10638
15.7084
4.38712
-30.6842
-38.204
-24.8525
29.6179
74.4323
70.3001
70.8675
0.536817
-52.1409
-29.714
0.76658
12.6809
39.9758
77.9204
37.4867
5.02901
-17.709
-27.5509
-59.8252
-62.8998
-16.439
30.0248
56.1905
3.09116
-33.335
-16.089
-17.9124
-22.3461
11.9703
57.6074
70.7138
3.62603
-52.264
-46.9689
-9.86728
-1.17274
11.7574
76.3812
80.1077
22.7682
-28.6034
-25.2677
-39.4484
-40.4624
-34.8
-26.4134
-26.3145
4.40091
10.296
-15.4457
-9.04623
16.826
25.3609
25.7131
33.4536
46.9717
13.2895
-26.1676
-19.471
4.58899
-7.08683
-26.2815
-0.115202
58.6422
72.0112
28.3526
-35.333
-80.3818
-76.1302
-37.9282
-22.4895
-9.92574
13.9105
-2.0351
-65.4234
-47.2478
11.4949
13.5636
6.33094
8.92636
35.8827
51.8486
31.3885
6.53904
-20.4839
-13.5732
3.41049
28.4938
75.9502
37.5785
-14.2021
12.5086
18.6471
9.68483
40.0558
13.4959
15.792
-4.70271
-28.5391
-40.7247
-53.9321
-51.1034
-35.7662
-36.4551
-20.5293
3.19834
23.2825
19.9274
-20.1673
-15.0702
1.99768
8.02643
14.4599
40.2537
57.4027
3.58628
-44.3312
-21.286
2.01587
6.8636
9.67547
1.90081
14.4807
34.7868
-9.90063
-36.2134
-18.97
-21.8147
-31.9483
-23.9678
2.33544
6.56435
15.4156
-18.9822
-14.4956
7.61797
28.6454
60.4938
64.4225
36.7464
34.3298
-13.4703
-44.3406
-42.0883
-42.0944
-31.0255
-5.67388
14.5939
42.3345
34.6009
27.9258
12.3262
-32.0313
-48.4315
-30.931
36.0188
38.3179
-24.9279
-31.3234
-5.74791
-2.07931
21.0632
9.01712
7.68246
82.834
57.3449
9.98144
-43.4157
-61.286
-50.6861
-37.7601
-26.2672
-12.1641
44.5023
41.4972
-18.5323
-39.9605
-38.0914
-37.6392
-31.282
-27.603
24.9586
51.1207
3.84947
-36.2333
-9.86705
14.3477
26.5857
20.1432
45.6359
37.4039
-6.09207
-6.59136
6.1292
25.1721
24.98
11.7789
44.4847
57.1178
3.63424
-26.95
-43.4882
-51.7976
-40.6769
-42.3163
-6.30916
22.3445
8.20829
1.50768
-4.72437
-12.6554
-3.968
-0.2282
6.52381
0.940992
-14.1246
21.0692
-4.05946
-16.2977
20.137
30.2059
-4.27231
-32.7291
-23.274
20.8184
-7.99829
-14.0758
11.8315
12.4392
6.69515
6.84201
19.8329
35.4929
37.7578
-14.2591
-23.1498
-32.8025
-22.5186
-10.8599
8.41056
19.2218
39.0575
22.5036
12.7438
-14.8743
-10.1281
-15.11
-11.4825
7.49462
8.46066
-10.0767
-11.0028
-28.6476
-41.3999
-13.0297
1.05348
15.3506
1.03325
-19.9902
-21.1075
-6.24518
6.16843
24.3197
13.9736
12.158
46.2482
25.0016
-21.343
-40.493
-23.6718
6.44618
15.7313
11.2655
3.56247
11.3078
-1.43358
-25.3565
-25.61
-14.7512
-1.92128
2.49171
14.9189
44.8654
16.5066
-22.0615
-19.9065
10.2194
36.5898
25.856
39.8381
91.8668
46.7741
-71.2119
-97.5723
-83.3811
-66.0942
-39.9308
7.18861
39.9877
72.3305
25.0608
-29.9661
-34.182
3.34442
11.6148
-12.4133
6.55135
65.1511
12.0815
-41.8811
-53.4932
-31.6239
44.0953
56.7094
52.1857
68.7431
53.6101
10.4737
-22.6487
-41.2151
-19.3003
-1.94843
-8.38426
-11.4899
7.41888
6.18892
-37.0576
-61.2322
-42.975
-25.8511
-33.1934
-4.64921
57.4723
42.907
13.7713
-1.30831
-26.4779
-14.9459
-5.70188
-6.67264
30.561
10.6548
-33.8733
-37.0104
-45.517
-31.3355
-7.51049
2.61193
68.3221
62.758
21.874
8.87608
-15.7981
-31.0301
-16.6966
-0.549047
45.2039
35.6187
15.6359
2.10932
-18.5256
-22.8527
-28.9105
-5.28819
48.901
59.2295
52.2575
-2.16656
-52.1297
-67.8311
-48.5843
-10.9644
20.2986
58.2619
75.7715
21.6012
-25.6759
-32.5757
-22.55
-31.1191
-52.0998
-34.698
27.0469
70.9535
8.23999
-28.5232
-25.049
-5.40488
11.5762
35.4159
42.4338
57.0174
-7.21942
-73.3424
-84.559
-36.6083
-7.4681
-3.19527
22.6859
69.3323
31.6489
23.1887
5.95277
-47.9267
-51.4112
-28.0374
3.01998
47.8442
9.68849
11.6745
9.16509
-38.6744
-16.2216
14.2248
21.0448
35.2133
58.7976
70.3204
7.97891
-63.8261
-32.4869
-13.4169
-1.21557
3.15794
17.4752
37.3054
13.4768
-56.8607
-41.5134
-26.9268
-25.82
-32.7385
-3.48586
28.4517
41.9765
-5.28646
-49.9974
-55.4833
-27.4907
-16.2348
-16.6195
5.69382
33.5957
11.8623
13.1264
0.220413
7.33764
24.086
32.9989
48.967
20.1055
11.2207
8.76044
0.85954
-25.6843
-16.2407
-7.783
13.4244
36.7715
17.3211
16.9581
2.22157
-24.4733
-18.1078
-23.4742
-28.791
-5.76228
45.3306
41.3095
-18.2784
-17.1242
-0.793608
-1.5295
-6.25039
-8.40208
15.0013
41.5393
6.0824
-28.5156
-17.7342
-6.70139
-17.3973
-27.0756
-9.14436
-0.0125261
5.94498
-28.9851
-45.4202
-19.536
6.97772
10.1986
10.7402
46.9616
46.3531
24.1605
14.095
-24.1136
-29.4959
-14.8984
-13.9105
11.5363
23.0108
12.034
-2.6848
-23.0218
-35.0074
-6.0969
18.9068
64.0696
78.4601
24.2603
-2.25571
-38.0961
-76.8107
-77.6719
-48.5589
-14.7717
43.0117
70.3745
31.9574
-21.139
-28.2406
-5.66314
8.37625
8.44822
10.5883
10.6297
2.66201
-25.6525
-39.381
-6.27527
13.5683
14.2786
27.4198
31.4807
31.4338
-0.173188
-24.6919
-29.6939
9.04191
33.5598
23.9214
9.88389
36.1141
11.2454
-29.9056
-32.5982
-32.1536
-31.8705
-24.1262
-8.4467
3.43868
43.031
30.4743
8.20702
-17.5782
-33.3474
-50.9815
-38.1205
-10.3242
29.863
64.9392
10.6504
-36.9315
-31.8341
-4.75759
-3.85423
-7.29609
-5.13806
-0.103083
27.8043
1.27099
-41.8219
-0.591037
48.54
43.1743
36.6424
53.1241
65.4737
32.8988
-43.369
-74.2509
-26.7153
-8.14234
2.25583
12.2263
53.7898
29.2151
3.47712
-14.1685
-39.9602
-44.8001
-44.8552
-20.1602
32.6586
23.8727
19.2978
-7.66612
-63.2925
-71.9446
-30.2091
22.3236
81.0319
43.2131
6.8342
-5.12808
-57.9778
-59.1388
-23.6607
5.65568
42.0909
77.4028
39.7646
1.32072
-31.1629
-19.0205
-18.5806
-45.3714
-26.1657
21.8953
77.0142
47.0578
-14.3504
-16.8039
-1.75521
2.78591
1.65068
19.6369
64.5352
46.411
13.14
-48.6994
-42.9065
-26.4448
-24.1561
-22.3055
-14.1707
12.4267
23.4062
-3.84051
-38.4693
-46.1271
-33.3141
-13.0815
11.7893
41.3982
50.7766
16.3287
-27.2782
-20.9406
-20.7276
0.0795959
25.1572
58.6567
50.2881
-11.9592
-13.8493
2.61369
-7.33364
-12.9807
-25.9262
-5.17111
-1.60772
2.53992
-2.99556
-24.3861
-31.0948
-4.47181
-7.86047
-0.708189
47.3329
41.6768
14.1796
-15.6189
-18.8197
18.0772
21.2458
21.9773
28.1811
-2.61584
-12.8671
-10.3618
-10.9028
-10.9355
-14.6469
-20.4726
11.9841
13.9015
-6.39486
-13.2287
-13.8352
13.5103
5.38759
-12.8289
-8.76862
-12.0976
1.99899
-7.47785
-11.5739
26.6314
30.797
32.9943
13.0482
-31.1225
-34.5392
-29.9255
-37.9605
-25.01
-3.55707
36.1483
47.6994
2.69504
-6.11887
-6.53622
-11.058
13.9089
17.6614
13.4489
10.6228
58.5762
19.2821
-74.9827
-71.1656
-20.4776
2.09176
15.9571
16.5294
16.2725
42.2933
37.3008
-26.6918
-37.575
-13.7434
24.4572
33.6962
25.227
10.1652
17.6532
-20.0863
-57.6818
-32.7899
12.7924
16.1067
-2.53989
-6.87015
24.7585
-7.5785
-21.6524
-38.8271
-46.8575
-27.4742
12.4715
55.3671
62.0056
10.1394
-2.40104
-18.9638
-32.9229
-17.8736
-13.6734
4.39893
44.4287
16.231
5.47866
5.34721
-15.4934
-3.79215
9.28064
-15.1692
-11.5085
23.7934
17.3492
13.5697
-3.82144
-17.729
-15.2433
-1.06381
9.40342
13.3941
2.91348
-8.40877
-35.8287
-12.3607
13.4199
34.9286
49.4949
22.1852
-18.4345
-24.4322
-27.2366
-25.9044
1.14732
-6.99547
1.99287
35.672
9.09835
-15.191
-19.9897
-5.64185
0.186315
-6.5543
1.67081
37.2759
45.2856
-1.88706
-45.2899
-42.2885
-18.8563
1.34881
-1.45385
-10.3859
43.3678
64.9191
-7.87026
-35.1786
-13.8927
-0.674533
-16.5136
-28.5217
-32.0707
9.69787
50.381
-12.1728
-40.6255
-20.5395
-9.99359
6.73294
16.733
49.2866
89.5257
34.4958
-23.6561
-42.5033
-22.2423
-10.5143
10.3785
26.1696
32.4411
7.20646
0.852119
-13.7961
-41.1221
-21.8052
-10.8467
-1.97925
22.9037
9.35418
4.44925
-2.59918
-19.5949
-3.63202
-15.6717
-20.9752
23.6052
4.54861
-8.36212
-6.49032
1.09142
3.84108
-12.3172
-26.041
20.9041
58.6035
20.3765
-4.1304
-19.5614
-5.79239
-4.42498
-6.47091
-22.027
-4.60057
35.3593
7.53739
-13.1128
-3.09227
-13.244
-16.479
2.38262
41.2823
70.3167
62.5917
-23.5428
-63.2689
-43.8245
-25.8803
-22.1115
-4.16886
11.511
31.1344
-1.96723
-17.4629
-16.0297
-0.0132279
-1.40082
16.7478
37.6465
48.1261
-7.35098
-37.9145
-40.6952
-31.8233
-12.2205
6.06437
45.9519
81.8182
4.33379
-38.5067
-37.3356
-47.4504
-22.427
-5.58015
-0.0567477
26.1792
52.1176
15.4182
-1.21272
-20.5612
-6.05625
2.37203
-6.03481
-18.5303
-3.41408
25.0893
-12.1151
-40.8087
-24.9308
-7.87869
20.4204
20.0323
49.4133
94.7323
27.0469
-21.2655
-37.1752
-22.9012
-21.1042
-31.6486
-4.60203
36.821
24.5019
16.1387
0.987941
-16.1298
-10.524
-22.7248
13.727
43.4011
5.09355
-17.3753
-34.3027
-53.5578
-21.3016
-3.12201
4.58422
35.008
22.052
-21.582
-41.8858
-23.7885
0.192197
-7.6526
17.7871
75.0964
33.5284
7.6502
10.9154
-14.8812
-24.0177
-33.5388
-30.1934
-23.936
30.6051
64.6509
17.0975
-6.83693
2.83026
23.6008
6.97644
-18.8914
-18.9589
5.62435
10.7151
-37.5878
-17.7153
-9.88082
-1.49693
7.55707
14.7955
16.1657
-2.91571
-19.6982
-19.0397
-18.8885
-0.960517
2.40175
15.4437
40.522
48.0281
-6.82611
-27.0651
-17.884
-19.7597
-26.2685
-4.21536
36.3191
33.258
1.09136
-14.1625
-12.1918
-3.68497
6.20988
-8.94904
-14.4574
26.9097
26.4588
-12.6401
-24.3086
-20.8659
-2.51365
11.5724
9.59761
-20.1514
-13.2895
1.31455
-14.1129
-14.9538
3.10433
20.3725
18.7522
15.141
39.6978
15.8429
-25.814
-50.3661
-30.5464
4.77583
16.351
3.12557
20.7448
7.0437
-3.83035
14.8405
16.7961
-2.42654
-9.21362
-10.4791
23.1062
44.1114
21.5711
2.2629
-32.5014
-22.9033
12.5074
12.1302
2.50416
24.8015
51.9857
18.1774
-34.7519
-51.9847
-39.9333
-37.4376
-36.2877
-16.2327
16.9076
12.4662
-31.4899
-35.8545
-17.335
-7.40812
3.6382
10.6889
12.9821
25.7913
43.8128
3.45653
-35.6661
-6.69752
15.2676
19.6692
20.1318
28.4071
44.3937
11.8982
-21.5621
-27.2835
-31.1067
-46.2245
-18.5434
27.9014
23.3174
11.8187
0.44915
-13.3641
-12.2952
15.8724
41.4145
78.7516
27.058
8.034
-15.1051
-23.9687
-30.8029
-17.7095
0.57054
15.3805
-8.32046
-7.99432
-12.8915
-39.6568
-36.5503
-34.6735
-23.6387
6.89482
60.6939
42.8658
-30.0184
-66.135
-33.3
-16.7021
1.29897
19.9788
23.9693
41.4628
29.0121
-12.5757
5.91175
12.6064
10.1283
6.53038
-6.60147
20.5104
82.3115
58.9472
-51.9983
-59.6308
-26.1228
-16.9417
2.51429
19.3855
20.2356
10.1749
9.68884
-17.9687
-41.4513
-30.9742
-5.6515
4.33495
5.08289
16.7329
73.1076
33.4688
-40.9713
-61.7667
-21.395
-4.71663
-2.38357
-4.012
17.9754
-2.9724
-22.5858
-31.709
-24.8225
2.32327
15.155
20.0179
45.2543
68.2279
25.6534
-29.5401
-68.2074
-48.8091
-32.3651
-15.355
0.32758
20.7288
47.7697
24.9531
11.8379
12.4651
17.2139
13.6577
-8.37517
-1.26876
29.6778
1.6464
-25.5564
-33.1566
-10.6414
10.9995
18.359
40.8829
54.5758
11.2479
-18.4942
-35.594
-34.8032
-21.9123
-27.7428
-2.20561
40.9705
8.75336
-11.3236
-25.2407
-46.2206
-21.229
-10.2681
12.8076
56.2834
21.1972
-26.597
-40.4284
-48.3701
-11.4617
6.61031
18.3571
32.4079
62.3896
72.8414
14.3494
-27.7307
-36.4421
-35.9837
-23.4478
-23.8594
-2.44797
50.1377
33.2591
-17.6323
7.67562
29.8134
19.6168
-11.6453
-27.1381
-29.3166
-1.86274
-21.6838
-11.1466
-16.8567
-5.10695
25.7587
63.9442
74.682
80.5011
19.9181
-23.37
-64.5666
-81.7441
-65.7307
-30.5694
9.65262
21.2538
-5.04411
22.6656
-2.10255
-17.7828
-4.23413
-11.2055
-23.937
-14.1707
12.56
37.4045
16.7139
18.3127
16.5551
10.9043
3.73574
-9.74636
-6.11237
28.3022
22.8344
-8.24188
-29.0691
-27.6722
-30.1249
-23.3114
-18.7105
-12.4224
16.7667
53.5406
-1.21635
-39.1468
-17.4257
6.09181
18.7003
22.3184
31.808
15.7994
-28.5309
-52.7547
-35.4819
-16.6292
36.5554
49.4212
59.5645
64.3275
14.8826
-14.6414
-37.1211
-51.5878
-15.3357
11.7045
43.8537
10.0818
-19.844
-11.7194
-17.0545
-16.1958
16.6023
21.113
3.05591
27.3744
27.5086
-1.79677
-13.7983
-32.23
-13.5738
-3.97664
-4.28158
-7.07153
7.46072
21.0893
-15.9122
-36.029
-9.08433
-1.41431
-8.68618
-8.2354
8.00825
14.091
-13.1993
-46.9862
-45.0076
-17.2934
-1.73495
10.5528
34.5669
71.1762
34.1578
-18.7795
-18.4069
-6.88051
-1.63541
14.6389
21.6226
16.9193
51.9205
32.3509
-19.3487
-39.2719
-25.0693
-23.1371
0.876137
11.9448
16.8554
20.4677
-22.8957
-62.7839
-39.3736
4.64263
23.6841
9.23442
5.18819
30.3401
55.962
21.869
-22.2768
-20.3885
-9.04861
-17.374
-5.49021
-8.6071
-5.11913
19.7267
-12.3008
-38.4341
-7.24585
13.7001
23.967
34.4554
40.0645
40.9027
-1.03497
-23.9577
-48.1271
-25.5407
-18.7642
-7.28785
8.28596
31.2473
24.7689
20.0941
6.92506
-15.2433
-21.5149
-32.1666
-13.8081
25.2477
6.02822
-20.6384
-45.5129
-57.4387
-20.31
4.1018
25.0656
39.0023
7.13001
-9.98077
4.34645
5.24781
13.4743
12.9284
8.95249
19.217
67.5385
40.4608
0.437969
-26.9539
-18.7374
-18.2361
-23.6033
-16.046
3.83412
57.5368
27.0341
-33.3778
-29.6764
-11.8828
-11.0613
-24.7797
-20.9972
-16.2311
24.9402
35.3222
-23.0602
-30.2997
-12.5607
-15.0896
-8.75498
-0.0646011
7.24918
30.3105
6.70247
-15.484
-5.77365
18.9333
33.1727
37.6616
53.0202
56.2271
-5.67769
-27.8762
-47.3683
-58.5865
-40.2776
-5.58589
32.1636
34.2176
39.8385
4.69813
-15.4382
-39.7187
-17.5874
-19.6798
-12.3021
25.5055
44.2523
7.95388
-19.5211
-31.0751
-5.75373
-0.686716
-11.0416
-8.86967
26.8883
9.09161
-23.7088
-25.8568
-18.6479
10.0268
33.1789
54.2057
90.8057
35.118
-30.6895
-47.4793
-56.3573
-50.0027
-22.0829
-12.387
23.8589
13.2994
-19.6719
-10.6115
4.76031
11.932
9.86246
15.5916
48.8857
31.1063
3.02671
-10.6021
-36.5381
-25.4962
11.2939
30.9692
55.6814
38.4327
-23.9873
-56.0892
-51.694
-27.7811
-5.22517
-15.9579
-31.6972
6.00969
32.0157
0.21406
-26.406
-9.28094
4.17975
1.30996
0.0346409
8.11662
34.9554
52.7456
5.85105
-6.10475
6.81967
11.7608
5.25372
24.93
19.7544
18.5551
16.6031
-23.4662
-42.1815
-32.9627
-29.9765
-9.88465
-4.08249
16.3519
3.48129
-18.5351
-18.1618
-28.0403
-12.0372
21.1312
30.8454
53.4727
24.8873
-23.1442
-17.2613
-11.6389
-18.6987
-4.2239
4.12657
48.6386
34.8409
-4.9737
-36.7304
-62.4647
-51.8532
-17.2632
-0.532502
0.87009
33.6543
49.1281
6.85551
-6.74431
1.31649
15.952
8.62699
5.03973
7.39728
22.4776
-10.6058
-52.3553
-40.4823
-9.61976
5.12737
14.7515
61.0795
88.4402
42.7624
-8.24319
-30.1841
-27.9373
-9.556
-7.6768
0.256845
41.0482
53.4041
-12.4045
-55.8855
-51.1711
-28.1759
-26.0902
-16.6365
14.3964
42.2058
14.343
-20.3925
-30.4249
-17.4238
-7.71874
-13.8013
-0.497097
41.2158
45.8301
12.0163
-37.1916
-54.8824
-31.2433
-15.5719
-13.3628
12.5559
41.9667
47.0631
-16.9241
-39.4442
-7.27382
-8.35162
-24.0197
5.71736
20.5786
26.947
25.4675
7.27547
7.65212
16.2571
11.7355
14.1872
47.1254
96.2288
60.7375
-8.20399
-49.4015
-64.3316
-33.4668
-23.6428
-28.3039
8.47458
9.20839
-6.86281
4.45587
-10.0266
-21.9472
-16.5611
-27.6134
0.278157
-2.33702
-10.373
-13.2418
-30.3004
-17.0786
8.31658
18.984
51.7095
33.8276
48.4047
20.4276
-24.507
-21.407
-19.0129
-22.8071
-9.07636
40.8253
29.7068
-9.34647
-31.822
-17.1082
-6.99081
-3.77442
-2.86471
6.28173
20.2925
4.67076
-37.8782
-18.6275
-9.86825
23.2895
30.4442
16.3419
2.73003
9.05416
20.0083
-1.09867
-2.23727
15.6966
16.4726
9.68357
-10.8114
-16.2413
21.4275
-6.21468
-55.9916
-61.4274
-46.2848
-7.38354
4.99647
15.2732
59.3274
38.5743
8.32852
-3.54273
-16.2794
-31.1009
-15.0983
9.94554
30.384
57.6436
20.32
-12.9486
-48.679
-41.7882
-8.25079
3.44562
1.48521
11.7822
46.6384
29.1544
-21.5039
-21.52
-8.06057
2.14923
5.4444
3.87554
18.7081
-12.1373
-36.2618
-38.5823
-7.14039
5.70422
-14.2392
-3.17917
40.9429
27.2723
10.8792
13.2149
-17.9318
-25.9954
-10.6118
26.038
59.6303
36.3351
-8.17894
-27.251
-49.2033
-37.0221
-22.1633
-11.9682
28.0645
36.2648
22.4753
18.403
-2.7662
-9.488
-12.6302
-16.3592
-3.7904
21.311
11.3716
-0.150604
-13.6376
-19.3137
2.75768
17.3993
14.5962
24.7041
38.4549
29.7318
-26.3461
-43.3311
-32.0964
-23.7748
-27.5328
-12.7564
9.4573
40.8585
10.7726
-20.0816
-26.4838
-36.3772
-31.3234
-3.28214
26.1259
49.5188
21.3578
-2.77381
-29.9987
-54.8365
-27.87
18.2966
44.8634
76.7843
42.7306
8.99242
-11.8849
-32.5966
-17.3637
5.46246
19.606
53.8236
0.844016
-21.1965
-29.2719
-46.0963
-22.4321
-3.31586
13.2351
34.2771
64.8495
59.2797
4.97342
-32.762
-15.2747
-6.9675
-19.1855
-40.9333
-37.9804
-14.4064
32.1105
-8.87553
-26.3034
-29.1791
-25.198
-0.352005
13.1831
13.362
7.00885
-35.9535
-48.8156
-46.0658
1.64664
9.45398
0.0353265
13.3234
53.947
37.2283
16.6279
2.02481
-6.79944
19.9042
61.9226
93.8488
99.1003
38.858
2.04098
-40.6707
-54.2148
-38.1866
-32.6527
-28.5581
-23.8793
2.25167
17.2771
9.0764
-1.95793
-2.80067
-14.7957
-38.2839
-57.8657
-46.2145
1.38694
-19.8329
-34.7182
-6.55657
23.3112
40.8812
24.3993
14.7023
22.292
3.21597
-8.74441
-8.58899
-2.73075
-2.37226
-17.8839
-1.99099
36.3058
21.5468
-4.08477
-7.53275
-8.96805
0.916325
-0.223096
6.90361
38.6296
16.6868
4.33132
8.88567
-2.61029
-4.47823
11.6189
30.3697
30.638
-3.75609
-43.5737
-48.2706
-42.798
-17.5043
-8.20874
13.5978
31.6496
5.0092
-7.30047
-13.3069
-12.9879
6.32863
8.47071
25.0965
66.4193
72.0255
5.51473
-51.0634
-63.6476
-49.7599
-22.0126
0.321521
7.84652
21.296
27.8668
25.1161
-23.8822
-37.5613
-25.7512
-18.7238
-30.6561
-3.57573
44.5646
66.6167
-7.3357
-46.6115
-35.4419
-28.6149
-28.0901
-0.487029
27.1543
32.5209
38.8327
27.9617
19.1912
7.33087
1.44869
3.16532
-1.62662
9.95402
36.495
-2.45443
-30.3234
-48.0108
-34.566
-12.3764
14.3552
28.4535
52.6127
30.0932
12.7393
-7.56686
-30.1671
-27.3578
-29.6432
-28.4115
13.6736
57.3327
29.4334
-0.539474
-25.9446
-22.8556
-22.8608
-26.3784
-8.94186
23.8727
29.5708
-23.3654
-37.5263
0.642749
11.6798
20.2025
23.0976
43.0902
13.261
-15.3421
-27.3485
-21.6318
2.21325
6.39793
-13.4355
-13.6197
-26.7035
-19.5626
2.41352
2.70015
8.13242
29.672
31.7921
26.3117
-11.0268
-18.9803
-17.3226
-32.8844
-16.1987
12.0884
30.7385
28.5104
8.22572
4.07028
12.5101
23.7881
18.8856
0.884127
-8.4262
-10.5192
12.7667
8.07283
-11.8021
-22.5233
-17.3528
-23.036
-30.5173
-13.1789
52.3319
66.9829
7.91214
-41.1183
-44.978
-46.7398
-40.898
-24.2904
1.94163
29.6932
40.9995
-6.98316
-32.5492
-17.5984
-12.3266
-5.504
11.83
27.696
36.5204
-9.10652
-30.8445
-21.1169
12.4478
36.0593
48.8646
84.3042
76.3792
27.1719
1.43914
-21.8348
-46.8124
-34.3237
-27.6626
-1.46582
24.616
-10.8499
-21.3539
-25.8666
-25.9243
-10.5786
-19.3258
-10.7543
12.9831
58.2676
35.3865
-29.2907
-43.225
-23.7895
-7.65645
-6.09376
-11.811
4.22267
18.209
-3.63275
-21.7722
5.528
24.6145
32.7664
22.2574
40.6018
-3.33166
-41.8775
-51.2208
-55.6094
1.18467
35.5763
41.1987
67.7933
20.4203
-30.138
-23.9085
-10.2896
-17.8401
-7.03943
19.4299
52.0364
28.2741
-20.3564
-46.4324
-46.5137
-19.1204
-12.5411
-14.3944
-11.7965
14.9563
3.794
-19.6436
-20.1751
17.6514
41.8123
31.3871
17.1421
12.5586
21.9436
19.4456
-11.3802
-19.8683
15.7562
32.6412
21.807
6.03505
-5.60464
13.1517
-3.89629
-51.895
-42.0138
-17.5825
-10.1838
6.69776
5.09799
11.6467
-10.3559
-5.83231
-10.0069
-33.4951
-29.7096
-18.3385
4.08707
34.1002
0.935995
-3.60403
17.7976
10.94
2.78303
18.7618
41.4972
79.1819
8.69124
-30.7352
-23.9403
-22.5624
-15.7546
-17.0833
-4.85275
15.6568
-14.4322
-28.0421
-39.3743
-58.7273
-31.0628
13.4278
25.4805
33.8203
76.4849
62.0018
4.17762
-23.3942
-6.05737
-8.03186
-18.5994
-15.2977
9.39893
18.9584
-12.5075
-32.4606
3.30626
19.2185
12.6023
15.792
39.0444
73.83
60.3809
-19.1861
-62.6019
-51.8522
-24.9557
-25.5786
-15.7439
-5.17264
24.014
13.7524
-18.9912
-36.7452
-26.7803
-32.2179
-16.2615
14.7353
29.226
32.4245
10.5266
-25.9419
-32.8434
4.34146
6.5082
7.24737
31.4482
32.7835
23.4504
-14.6179
-12.9849
-9.40114
-2.21816
-1.2293
4.56766
10.7194
31.317
-13.4772
-31.9505
-12.702
3.6221
-10.7945
-11.1977
15.8199
47.0266
12.5678
1.74647
-0.0281932
-7.11143
5.60554
-5.27261
25.969
40.5898
-5.30623
-21.6825
-29.4858
-45.5745
-20.9286
-13.8075
1.71605
15.3194
-10.0502
-11.5161
-10.7338
-14.9171
7.39136
6.73102
9.57125
47.1511
36.5579
-0.842043
-39.8498
-47.7554
-16.9117
5.30387
29.3372
39.7904
11.6701
8.51833
-4.81596
-4.47035
27.8309
31.7789
3.24923
5.42424
20.4554
-30.577
-48.721
-38.5649
-10.733
-14.429
-11.0085
13.3576
23.0997
31.2799
36.8178
0.748174
-25.6888
-34.8833
-48.0664
-44.7144
-35.0601
-20.6558
28.069
40.0987
-5.14162
0.964109
9.91294
10.3757
19.0036
25.8851
34.2542
24.053
-1.3213
-15.5964
-37.7681
-24.2998
19.6091
20.4834
30.0411
20.8699
1.26582
5.30799
0.290392
-14.5459
10.8128
53.0417
93.5399
42.9614
-26.3549
-41.6617
-49.2111
-64.6968
-44.0511
-19.1207
-16.4571
-2.55749
38.3451
-6.0704
-31.0005
-23.1874
-3.6775
0.385997
-1.18784
-9.65487
-3.30905
-35.5935
-88.7587
-54.5389
10.1397
41.2734
40.5545
54.3643
84.7712
65.7165
6.25541
-28.2523
-42.1059
-2.63311
11.9351
17.89
24.9345
15.7254
-15.29
-23.6611
-12.981
17.964
28.4573
19.5206
37.1858
42.5162
-15.8009
-48.284
-81.5825
-77.5917
-19.0147
4.64788
4.39083
51.8803
81.2304
17.6376
-28.898
-42.9688
-30.1193
-30.9197
-27.4214
-10.4067
11.4043
47.2266
0.00657643
-34.1802
-6.60438
19.6472
25.292
28.9355
60.9927
86.5755
19.7917
-39.2024
-61.278
-30.003
-3.3363
8.78207
31.5639
67.0414
19.9765
-37.6893
-51.2067
-57.7891
-29.5296
-3.30713
24.8113
52.1909
19.7642
-13.9104
-60.0857
-88.3401
-57.2566
-41.9724
-20.6043
28.2197
30.0964
22.4958
1.64129
-8.67812
31.2682
61.99
92.3323
61.8233
15.8731
-2.53647
-11.2787
-21.162
-13.9277
-18.5405
-2.07938
21.6303
42.7217
-5.77671
-40.4317
-39.7424
-28.3442
-21.7586
-1.49311
-8.48388
1.16659
-12.991
-29.7396
-21.5848
11.8225
23.9643
8.78195
9.78722
15.7375
2.46051
-12.1709
-22.5768
-21.1353
9.53001
7.89702
-15.9671
-1.52918
38.3696
16.53
6.27931
5.99852
19.6845
3.29847
-5.97753
2.36038
21.8764
1.71703
-12.5918
-0.789016
26.8269
28.7071
8.17061
12.2507
62.4857
19.7126
-35.2033
-52.1049
-56.975
-40.8787
-41.7311
-35.5202
-8.36859
5.81091
-3.4202
-2.27988
-12.1885
8.86709
9.2032
7.9462
18.7518
19.6588
-4.15511
-11.8379
-27.7391
23.9793
83.8222
83.4053
71.5577
46.4723
4.68873
-24.5253
-59.7786
-85.0227
-53.2483
-14.5212
18.3059
3.33242
-13.1913
-11.6639
-19.3541
-34.9881
-30.1412
-10.0591
5.9609
-2.13802
-35.4963
-34.2325
-29.2102
3.64386
35.8993
54.924
94.5807
80.2672
25.3823
-14.0993
-51.3499
-40.2919
-16.2153
-1.98768
-8.23411
10.7324
37.0569
-12.8264
-21.2174
-1.26262
30.6142
40.4219
28.8651
30.48
35.5626
10.443
-18.6752
-33.8572
-6.78135
-3.90209
-6.74557
-7.52088
-33.8
-18.8654
13.6916
-11.9645
-28.9896
-16.1309
-37.9284
-44.3765
-23.4827
-0.155846
25.0053
-9.10049
-11.8162
0.991609
0.54064
18.2911
22.4764
21.3256
15.7585
-4.71849
18.4788
25.0979
-4.39882
-2.15681
11.3152
57.4354
74.5515
21.6559
-3.75543
-21.5557
-55.0987
-42.7542
-28.0802
-17.4733
0.497006
31.197
11.8562
-7.86236
-16.7452
-1.41133
-3.5688
-18.0282
-15.9496
12.6462
-19.7137
-55.3296
-56.0848
17.5348
40.4646
27.9383
33.2317
35.9475
1.41581
-3.49918
-11.1956
-16.8863
12.7309
35.3267
53.9748
29.1805
-9.37217
-25.2389
-6.07307
5.82633
17.7494
25.4654
41.8481
20.0923
3.42273
-49.7527
-89.2871
-90.4621
-57.15
-30.2479
-17.179
5.64786
34.3703
-1.92088
-16.2703
9.58637
28.7438
20.846
-0.590061
-3.50477
34.7374
72.4122
32.4869
-41.3329
-58.4457
-19.0942
7.3964
26.0712
33.2809
23.1694
32.9844
-6.043
-13.0707
12.3375
12.7168
17.4833
17.3319
26.7665
16.3904
-19.7965
-56.9261
-91.9288
-76.8742
-24.7243
4.18484
35.3978
26.7627
11.5556
19.8019
22.5963
3.45689
18.2283
19.3916
45.5097
13.5463
-39.7165
-53.7281
-55.8101
-38.7486
-7.22786
18.1539
53.2389
42.3754
10.2478
-21.8488
-38.6591
-16.9751
11.9829
19.3926
24.901
44.9118
52.5191
-32.3149
-70.2723
-52.8472
-17.9867
2.78194
5.52423
9.95884
20.0892
10.3861
-11.1497
-21.128
5.98412
27.4925
26.5707
20.3617
39.4141
63.1149
4.60454
-36.4904
-55.8099
-36.967
-27.0904
-2.3766
21.6939
32.2068
23.7734
-24.7013
-17.4323
-3.58539
-18.8616
-16.5041
-4.86658
1.65284
-3.80804
-23.3759
-19.0512
-8.69176
1.0682
-10.5422
-5.30292
55.8041
44.5561
18.9707
14.6904
2.70702
-5.51909
26.0244
18.1569
3.95019
22.2474
9.37445
-18.6795
-28.8613
-25.5033
-23.7855
-23.101
-29.4976
-0.791227
26.6305
-8.31847
-23.7442
-0.506666
11.931
16.3096
12.4753
32.6905
0.444851
-26.3478
-26.3905
-40.2256
-27.74
5.82483
17.841
51.3671
33.0466
0.695241
-17.7356
-22.3198
-24.5445
7.80546
29.2588
43.5055
2.73653
-23.1439
-24.2332
-36.2886
-0.707407
21.9331
20.498
25.8224
6.54222
-18.1593
-17.8284
-17.8369
14.7285
8.87373
-6.74137
-0.0519864
47.1808
58.4456
11.0844
-13.6932
1.85003
-11.4977
-13.0057
0.857876
5.24513
9.47213
32.7629
-15.4918
-42.172
-45.1748
-48.2178
-46.6345
-26.1723
-11.3239
13.677
34.8154
-11.8419
-44.2225
-31.1631
-9.55753
15.728
29.5927
24.2194
36.4536
21.0488
-2.92264
-17.1326
-2.53583
18.9632
24.821
32.786
56.9021
31.8328
16.1159
8.25419
-1.35474
4.74215
17.5266
14.1364
22.0073
3.12422
-38.2314
-43.5846
-53.7468
-35.0906
-20.2255
-26.6415
-32.7381
11.8112
43.9132
3.31755
-36.6211
-32.4887
-30.8177
-28.966
-21.9162
16.9629
26.3652
19.4881
4.56658
9.73992
18.9633
9.79312
27.2719
70.9748
14.5456
-16.9752
-5.32177
-14.6042
-24.8916
-11.3344
7.53916
57.2499
21.0366
-13.9834
-18.169
-25.111
-13.6826
-6.15505
-13.0811
17.4258
65.868
4.293
-53.2511
-75.4922
-29.7694
-0.9958
-0.780498
-18.7134
-0.864356
48.7183
21.2825
-10.122
15.0604
17.4725
13.4284
8.51154
9.79063
19.1119
37.1058
13.704
-38.3694
-11.2962
-0.0997891
-9.18311
-2.57843
-8.79443
3.83108
32.2268
-5.22542
-18.0326
-0.448617
-2.93959
4.2076
5.01518
-2.60038
-2.2953
-29.3858
-43.3968
-36.846
-28.1181
-0.26661
19.8399
25.2473
53.8161
19.6869
-3.58179
-14.8529
-21.3787
0.332014
-6.21846
0.726912
24.3893
-0.439527
0.34235
-0.637385
-20.6628
-7.03193
8.63589
28.6958
41.2057
51.626
15.4712
-12.0436
-48.341
-34.7947
-28.6507
-24.3321
-15.5806
18.5628
4.48536
-25.3085
-20.1894
27.6339
37.0151
35.4315
29.6233
54.5596
6.49706
-37.4531
-48.7005
-53.4206
-22.8771
-8.13071
18.9172
62.9089
62.6466
8.72918
-30.285
-46.9154
-28.4741
-4.77579
9.52645
6.7905
22.1941
-11.0686
-42.7199
-39.9346
-6.71186
-5.01975
-15.3638
-12.4851
9.78526
10.8976
6.80425
7.66977
6.06461
0.47477
30.9854
45.8445
58.775
54.418
7.33095
-40.8576
-52.9901
-25.267
-3.59037
-16.6665
-16.8224
2.38884
22.6596
19.324
-15.9922
-7.39803
0.569049
10.0588
6.82219
-8.00333
1.46588
29.7527
0.789039
-39.9923
-17.1924
11.5428
19.4682
14.5077
30.526
64.1059
66.6731
-8.51417
-59.747
-62.8365
-51.1914
-30.0993
-16.883
-1.45093
-1.8229
-35.5087
-19.558
-9.72336
-9.34468
3.62356
16.0286
35.3637
24.3927
-7.03253
-13.2679
-15.2444
-14.0853
12.9244
32.5344
37.5951
59.2938
38.7971
5.03567
-26.5229
-42.1962
-27.2123
-15.4022
-12.849
-8.33758
36.4463
32.2906
5.34427
-4.1142
-7.84149
-14.8109
-14.4077
-11.4522
21.6717
19.5629
-21.5347
-40.1096
-21.7718
-5.92803
12.2329
30.7215
70.0569
66.3384
24.6314
-8.98486
-38.3531
-36.6774
-25.621
-32.5116
-4.97286
17.6558
0.336485
-18.014
-21.8756
-18.1129
-12.6144
-26.5776
2.31659
47.3235
35.3834
1.51937
-21.134
-5.33187
21.2498
29.4885
21.4804
45.3934
42.9232
5.48517
-34.2211
-49.058
-55.035
-56.7647
-30.6141
-11.765
1.98219
33.5225
-4.47378
-24.2579
-5.93681
3.23827
0.880972
-6.49932
-3.57856
9.37881
55.1122
23.0794
-19.6746
-12.8025
19.4688
37.9163
46.5139
43.5411
35.926
0.870704
-4.61521
-12.9577
-12.8536
-21.7889
-14.847
3.10221
7.57372
-17.7302
-20.3621
-24.7492
-45.3588
-44.0912
-16.5409
16.3173
17.8876
-0.768171
12.392
18.0759
3.60332
10.0666
1.42178
-6.132
23.4745
1.49241
7.73942
-3.5956
-14.475
-22.6168
-37.204
-18.926
-9.10953
17.4219
8.42667
-6.53319
-12.987
-7.49452
-4.06456
4.40457
5.11855
37.369
24.6725
1.46976
5.40787
23.885
24.5813
31.9674
39.7972
78.0627
88.5578
-3.36845
-59.0393
-64.6764
-37.0593
-29.651
-35.9998
-36.9937
-18.5892
-0.547044
-30.4059
-39.4142
-19.7522
-6.52735
0.864313
10.4833
26.6575
29.6795
0.700611
-9.36773
-9.36414
20.3016
22.0014
6.45051
20.3456
51.1624
54.9431
-1.62838
-43.4311
-68.3675
-50.5851
-20.5769
-0.456979
6.13409
29.4
35.151
-6.48147
-17.3874
-7.80764
-23.4641
-26.1429
14.5168
51.1822
44.1216
-0.112329
-27.121
-18.6951
8.86656
19.6129
31.3808
72.9984
43.8913
-5.59408
-24.7552
-50.1445
-49.9875
-34.9194
-15.5139
15.4576
14.4956
-1.2654
-7.1142
-23.8971
-21.405
5.36809
16.3845
26.6942
7.10055
-3.48145
-11.4558
-32.6038
-29.8982
2.65405
15.4844
46.0938
43.7977
19.3694
-29.0376
-49.326
-48.3956
-42.7729
-27.4551
-5.54079
31.7438
63.6572
14.4386
-22.0956
5.39216
16.6345
17.0651
11.792
5.42881
13.4008
28.6735
-38.891
-47.6497
-19.555
12.7234
17.9369
32.437
49.5077
53.7418
14.4188
-9.14557
-28.8676
-10.3273
-1.72563
16.8173
43.0567
13.5805
-26.0169
-27.2825
-27.2826
-45.8601
-33.6754
-19.4782
15.713
24.9826
4.77158
2.06587
0.541323
-1.75752
2.09471
-12.2716
-4.31705
49.8297
14.1682
-38.375
-68.3497
-59.6285
-34.1574
-22.4733
-14.7273
-0.89612
48.8611
38.2938
10.8533
-7.32972
8.04173
16.2157
5.95293
8.55533
40.7515
15.2395
-6.3715
-33.7297
-9.83181
24.7599
29.8382
55.5209
74.059
33.7898
8.7939
-5.43501
-26.3415
-22.5096
-24.3909
6.87853
19.7429
-10.902
-8.18746
-12.8366
-25.3376
-25.0059
-42.1201
-34.3723
6.01209
-7.12273
-32.1509
-45.283
-47.6245
-12.8068
6.37538
11.5229
21.6851
67.8973
39.2088
-14.9593
-24.5674
-12.6412
-4.93863
-2.07464
8.88456
31.0473
50.8904
51.2127
-14.1266
-19.3835
-6.19624
-13.3478
-25.3161
-37.8784
-22.7702
14.1129
23.1041
-19.0056
2.39542
28.0282
26.9201
25.0225
25.7894
72.1204
38.3192
-1.37259
-25.4067
-56.1339
-44.0925
-12.9988
24.8045
57.9122
13.462
-0.0147948
-7.60138
-24.6763
-43.591
-35.3012
-2.64733
31.0914
-11.9425
-15.9793
-13.279
-38.8114
-28.9784
-14.7372
-8.10161
21.7175
50.2503
2.29162
-28.27
-39.3451
-12.7211
1.56576
10.0458
14.9176
27.6193
-4.40898
-18.4062
-10.335
23.4788
32.1616
21.7084
2.29339
13.2304
7.67941
-6.91955
-19.2075
-11.0553
27.43
29.5997
21.8994
69.112
57.875
0.534874
-42.3538
-51.4401
-15.895
-12.3973
-24.6982
-9.04489
4.67634
3.92558
-13.8247
-22.1024
-23.3918
-27.9254
-34.9106
-37.0578
9.38238
37.0578
4.53932
-17.0192
-15.0363
1.85762
28.4681
19.699
9.03465
17.3324
54.7449
54.8646
-17.6472
-39.1442
-27.4671
-26.8673
-2.44427
15.9258
33.8791
50.1357
1.78403
-27.8099
-28.1563
-35.7257
-33.4586
-20.4122
-8.15599
33.9159
17.0459
3.51638
-18.354
-21.358
17.9786
24.9658
35.912
69.7294
11.5934
-18.5241
-29.6006
-27.0887
1.64636
19.0592
34.9957
48.6116
-16.5243
-37.6807
-22.2576
-42.8901
-29.5875
-7.35715
8.8637
42.0174
28.5008
-4.87694
-14.264
-25.7643
2.23017
8.19508
-1.78337
-2.16186
26.7186
34.6443
-35.0365
-88.06
-42.6855
-11.8265
-3.05053
3.60795
16.6268
20.7366
27.5101
13.4084
-4.80068
-0.860924
-7.68798
-24.418
-3.19167
6.12754
17.5356
33.5894
-5.64279
-28.524
-10.2402
-0.67067
23.7594
44.1387
47.1327
47.763
7.18939
-19.1812
-33.5006
-32.9417
2.21004
30.3791
37.9628
70.9799
39.0164
-11.7661
-38.4324
-62.6614
-58.834
-44.3134
-13.476
13.3037
20.8712
-1.34187
-28.9262
-42.6081
-20.5173
-14.1721
-22.6348
-23.041
-9.63783
17.9811
36.1108
-23.6181
-19.3273
14.4993
13.5913
17.3374
53.254
90.7882
66.7202
-8.01032
-40.7155
-42.259
-39.7688
-22.1826
7.80297
39.2042
48.8457
-5.16043
-6.7006
-13.9826
-23.712
-13.0519
0.821266
35.5309
39.1779
-0.463788
-21.5622
-40.2572
-22.4004
4.96365
22.1926
73.0026
50.9187
-13.8789
-30.346
-37.9009
-42.0558
-14.8187
-21.3497
-0.821412
52.7364
0.407612
-23.6502
-23.9259
-20.4066
-14.4145
-36.3957
-73.6331
-42.1019
54.0519
50.5164
-6.42774
-4.60816
24.9064
34.1326
17.6223
10.2229
17.4691
37.9652
50.9867
-5.87435
-13.4263
-16.1537
-22.732
-7.62217
12.0445
12.1729
47.3087
24.7609
-23.5902
-21.4545
-17.544
-6.88817
1.07312
8.32207
34.925
-21.4499
-38.7905
-21.4251
-39.0235
-41.7449
9.21604
44.4868
71.6159
4.509
-28.9383
-32.7542
-33.4859
-7.36401
-16.3532
-3.92358
35.9083
3.06008
-26.3177
-20.2722
-29.9892
3.75545
29.2357
22.1199
12.3889
38.1854
14.7133
-3.46272
-29.1663
-6.59474
5.1388
16.2334
22.815
41.2909
5.77554
-31.6799
-48.2283
-15.147
13.922
12.2646
17.0933
54.3483
18.1521
-2.00564
-2.0835
-31.2552
-14.0881
-2.98678
-12.1375
9.12877
11.6566
-27.1344
-37.7332
-30.2218
-12.5039
-0.411766
-9.93003
-1.2867
55.6654
56.684
-34.7295
-68.986
-32.2414
-10.6327
-1.95037
4.19407
24.6198
51.4892
41.4017
-0.305585
-5.7308
15.8439
17.1774
4.8052
6.88869
15.9385
28.8903
35.1745
-32.2694
-50.4754
-9.90342
7.70278
21.8617
14.6554
25.3317
23.2948
-20.804
-59.0094
-56.1757
-24.1445
-16.136
-8.98687
10.2798
6.13175
-0.320401
3.54286
-6.3863
-19.9013
-11.9099
1.8636
35.7682
13.7494
0.684451
-2.31814
-25.3231
-20.7848
14.2462
33.8181
51.3948
31.8371
-4.95349
-1.09872
-18.5974
-27.8609
-30.8409
-35.7205
-32.262
13.5531
17.6874
-2.20416
-8.20328
5.33453
17.1532
12.2946
-0.970666
-0.9943
35.5827
0.10205
-24.774
-6.51339
28.7789
28.0784
12.2173
26.3322
60.8994
45.1405
0.509476
-45.1043
-49.0291
-42.5681
-31.7435
5.20044
31.8347
43.1016
37.3116
-23.9
-47.8232
-29.5674
-33.1442
-27.926
-25.1116
-9.97845
29.6413
3.68484
-21.0363
-21.9465
-14.8837
-5.23098
15.4317
51.0218
68.6183
15.4525
-14.6723
-24.992
-28.6161
-5.27877
5.2123
25.229
43.5908
8.73084
-1.50686
-6.14293
-30.3943
-19.4221
-12.4697
-2.81505
17.8501
44.3904
12.4006
-11.7713
-31.5826
-13.5387
-8.8701
-10.0636
13.5638
52.921
15.7594
-21.1828
-37.5387
-26.6217
-18.4217
-17.279
2.10989
43.8514
11.81
-1.3088
-5.87766
-17.4648
-6.72111
-8.64451
5.69745
25.0404
2.23813
3.41238
-6.46944
-38.5181
-33.1695
-10.2878
52.3306
100.324
40.8832
-4.25475
-27.2249
-41.9572
-15.6817
6.9668
15.9059
40.2992
34.7177
-7.93663
-35.8408
-32.3311
-16.8808
-15.5625
-9.7491
-4.50072
26.9997
31.316
-29.5239
-40.7129
5.03608
22.9163
12.7602
-13.0796
9.49367
17.8939
-27.083
-72.7011
-57.3014
-5.81653
25.7456
23.1393
32.9147
46.8269
6.76976
-3.88401
-1.58913
-0.588214
-19.2614
-12.951
33.3835
50.1259
8.97479
-4.55097
-13.5013
-17.1155
-7.02965
-10.4437
36.2018
12.5397
-22.2771
-24.6116
-36.802
-36.5146
-6.39224
18.9299
27.0992
49.2516
76.4608
41.0077
-1.66951
-37.5348
-40.2424
-27.7733
-38.4374
-36.5949
-3.38862
36.3948
1.04737
5.23524
15.8518
7.90881
8.43765
4.6948
12.9716
25.3232
2.6356
-28.1357
-30.3246
-27.8144
-29.4615
-13.124
20.8021
40.4663
-4.79181
-27.5288
