-75.0684
-2.66474
-14.1841
-39.1841
-23.1687
-15.8063
13.1668
58.6218
13.7144
13.3126
33.3895
-65.1003
-32.6518
-77.2711
-88.1607
-99.6363
-128.633
-217.625
-144.634
42.114
100.267
108.715
147.492
167.201
187.317
134.023
52.1184
11.386
73.9104
34.027
-33.5724
11.2571
20.1163
-69.3094
-80.1858
-56.3243
61.3053
124.745
78.3516
-20.3123
-48.0477
-85.4052
-83.8807
-76.4503
-22.6314
4.06829
42.7141
7.25652
-74.6347
-153.969
-239.999
-186.685
-56.9177
68.9618
140.782
136.105
78.2788
71.4928
55.4008
-15.1918
58.8523
104.908
70.612
36.5903
-17.509
-47.2267
-96.8746
-95.508
-111.693
13.4019
94.0362
44.6104
17.4978
4.39588
9.59211
-6.88215
-110.096
-28.5506
65.8647
97.9232
53.8433
2.22608
1.85701
-0.328959
-75.4224
-33.7536
70.2208
51.0084
61.5237
-5.69714
-48.6361
-26.6738
-50.8688
32.3805
83.6405
94.0789
127.988
59.0567
-46.1517
-132.013
-222.356
-225.843
-101.722
-25.2641
65.5491
45.5293
-10.5229
15.203
17.0348
-35.5204
-100.926
37.5222
143.654
85.8758
59.9384
16.4223
-36.1391
-69.0235
-112.198
-74.3959
124.207
136.509
84.1827
92.6736
111.757
107.915
58.6185
31.2465
-31.731
-54.8771
-53.1306
-135.916
-149.667
-146.483
-158.788
-123.759
-50.1013
54.2076
159.03
163.398
66.742
23.5104
6.15784
-22.3016
-114.914
-34.4927
24.1795
16.3906
40.6787
31.4689
42.7561
45.4217
25.4764
65.7497
50.74
58.9193
65.8769
-21.3553
-69.5018
-31.899
-71.6971
-112.719
-58.0986
29.4087
34.245
-41.8753
-77.8056
-57.1373
-37.9474
-54.0282
-91.1936
-14.2863
49.1262
38.1261
30.3798
35.8172
34.0399
2.9513
-30.881
37.9917
77.6618
83.4137
38.6698
15.8947
84.1214
59.3609
-51.5862
25.7272
71.3757
18.8961
-30.6085
-108.346
-124.105
-99.0913
-74.6265
-79.1404
67.8218
133.683
111.788
37.6639
-11.3865
-16.1169
-15.4469
-67.4439
-56.833
57.2642
72.6134
20.6313
-10.2638
10.7641
57.5172
20.7634
-67.895
-163.796
-24.5799
107.484
23.1552
-20.5846
-16.4471
-38.53
-44.5415
-43.1754
7.46677
86.8619
55.6407
-26.4852
1.62341
-15.3852
-27.7824
-75.2572
-51.0303
-5.41698
29.6396
95.2644
36.8172
-18.3791
-30.2052
-38.2438
19.9354
56.3728
47.0322
93.096
44.2035
-44.8417
-83.6911
-176.589
-101.448
0.122936
13.4335
59.387
73.2101
54.4745
62.1954
93.0766
121.931
129.366
21.2839
-66.6655
-123.883
-198.597
-209.308
-108.072
-40.5309
-40.7907
93.9042
182.856
117.677
15.1539
-7.08369
31.3202
49.4647
27.2475
17.652
87.8387
53.2673
-61.6653
-83.7251
-77.8898
-61.4481
16.9633
75.9993
32.8605
57.0958
32.6766
-49.9112
-92.2649
-90.6154
-101.508
-97.9937
-22.2172
83.2754
75.6171
42.3451
-48.5965
-87.6623
-23.6361
4.89944
63.5673
136.52
57.4401
-21.1917
-84.5707
-102.048
-24.9389
-23.2583
12.4728
167.362
182.376
111.604
22.2887
-74.0307
-107.236
-95.5399
-71.9078
-81.2127
-4.24121
29.1121
41.763
19.1571
43.7659
87.3021
80.3784
6.12983
27.0819
95.8631
23.8998
-78.009
-102.354
-76.9017
-63.44
-78.74
19.7915
37.5562
14.809
21.8905
1.66865
28.9696
12.4569
-34.7744
16.6443
-50.036
-79.7472
-73.3211
-59.7225
-83.229
-106.251
-59.4832
118.025
147.836
128.646
104.055
44.8135
19.7638
-44.751
-109.045
-9.07215
71.6436
80.8349
72.177
13.206
15.6936
17.1039
-43.7293
-93.7268
-75.5078
96.897
50.9267
-36.7906
-20.8349
-5.30463
1.60386
-41.7877
-40.5332
61.6604
110.602
-12.9931
-80.3948
-76.1527
-36.9577
2.09706
15.721
-14.6802
112.882
162.737
115.448
20.8524
-38.4502
-146.31
-225.604
-283.162
-137.439
-16.0995
53.9436
55.8386
38.9644
8.13152
-31.5066
-82.9608
57.7706
95.3752
97.316
140.888
91.7056
48.4916
54.8608
46.0359
81.8861
57.9303
41.562
25.8517
-81.8726
-109.732
-60.7104
-39.9505
-51.3267
-55.2729
18.1973
73.897
17.2906
-3.81
-2.43711
-6.65871
-57.6116
-45.462
48.2297
7.04
-39.8389
-48.8951
-40.7924
15.2736
-7.29116
-30.097
29.44
6.80138
6.74994
-0.325072
-5.0737
-0.562321
-66.0184
-72.9334
27.975
79.0792
17.3393
-44.6833
-131.877
-98.5191
-15.3917
46.1851
83.6618
170.78
224.581
193.028
77.2292
4.0734
-30.6113
-59.5111
-146.922
-150.015
-54.8493
15.2377
-2.86993
2.25139
42.0585
4.95701
-37.0026
-12.3525
-37.8616
24.2911
125.138
67.1998
-13.4492
-69.8343
-125.595
-104.611
-55.0242
-40.425
67.8885
74.5912
22.4796
-15.8362
-24.4073
-14.0082
-45.3055
-66.0006
38.2094
70.27
36.3023
-14.3719
-22.1546
11.6254
31.7651
23.4237
110.761
123.992
85.175
50.083
-0.452919
11.9272
-14.8586
-56.3082
-15.6826
-34.0217
19.8096
55.0964
-46.427
-117.343
-127.486
-163.289
-173.383
-67.9071
60.4078
86.965
25.6146
13.2154
14.6472
15.4266
12.4704
-16.4123
95.3942
130.707
44.1105
-16.5026
-97.4519
-118.248
-74.5911
-41.447
28.8151
162.523
159.882
89.8634
29.2725
49.4839
40.9118
8.35494
-73.4081
-32.1434
62.4204
35.6696
-77.1239
-91.8683
-69.9594
-49.8352
-8.14326
43.672
103.439
78.1038
58.9666
26.5572
18.7604
-28.031
-124.739
-170.185
-174.885
-189.074
-60.146
9.68267
-12.2527
26.4122
-5.51697
-65.7785
24.5816
166.325
176.317
136.672
50.7736
48.4769
43.6247
-13.6214
-66.9765
-22.4671
-14.2116
16.808
15.9761
46.8667
41.8055
-29.7172
-99.1629
12.5541
53.2272
79.4303
50.3434
-2.82798
3.01169
-45.4451
-130.827
-73.6603
-73.1788
-81.3034
13.7771
17.2657
37.0042
-22.0562
-109.987
-48.1703
-23.8592
39.594
75.9762
51.5828
52.4456
40.3597
-38.5815
-26.0712
16.6349
60.3636
77.0906
28.4877
17.5799
5.36909
-27.4037
38.5651
92.2813
83.8165
71.203
3.63368
-17.3337
-32.1468
-14.1452
-69.3792
-123.788
10.2586
61.9428
-40.5941
-90.5838
-84.6451
-70.5882
-90.6096
-79.0295
-89.6329
15.4895
47.4341
-3.37949
25.529
86.0629
87.371
64.0675
12.3501
-55.8632
4.42128
101.565
26.165
-11.0103
-1.5236
10.6894
-4.71061
-34.2176
61.2195
67.6146
64.3112
-6.23596
-88.563
-61.0796
-13.199
-0.397306
83.6778
33.6918
-13.7838
-30.4428
-94.7163
-140.175
-103.769
-90.1074
-59.7204
4.24765
182.994
223.946
104.358
42.928
21.25
-43.8399
-108.941
-119.292
12.8942
81.3714
11.063
-3.64597
18.8029
57.866
48.6957
-13.6808
22.2496
13.3584
-25.8355
-63.0194
-96.0629
-26.4021
-12.5246
-85.493
9.4189
102.343
79.539
59.6311
-14.7364
-57.7471
-84.0661
-135.261
-66.4072
97.4167
105.306
103.559
26.129
-3.99011
-12.9526
-34.1246
-80.5924
-49.7109
7.48617
36.9494
2.58211
-26.3762
8.30398
48.0426
16.4668
-17.441
38.3537
133.687
107.799
-17.7211
-13.1109
-7.88802
-50.8166
-67.3075
-75.3111
-128.001
-73.8574
23.335
41.7221
91.0635
56.8006
1.22445
-23.4322
-69.8291
-48.0264
-3.80834
-4.50467
19.7137
27.8739
-16.1451
-65.8027
-69.743
35.206
49.1577
85.4005
143.343
76.2509
-35.4058
-82.9248
-53.0895
24.317
19.7499
11.3177
22.7619
3.24365
27.1077
-17.4095
-106.162
-26.9484
62.991
35.5273
12.9333
-28.7901
2.01004
21.1468
39.2445
-18.316
-44.9854
40.668
19.0163
-34.5688
-44.5954
-37.7255
18.5868
16.756
-58.0931
7.25525
62.9856
1.34801
-62.7439
-56.176
-11.4881
-17.5652
-79.6939
-127.929
-1.90538
45.4762
10.3995
-7.05681
57.1196
107.631
127.139
83.8176
-34.3365
-126.794
-9.16439
-20.9257
3.76009
13.6712
29.4163
64.2006
25.7501
33.0066
148.283
150.616
57.4598
56.0879
57.2272
1.23424
-69.203
-216.358
-156.5
-70.0512
-28.0414
22.6709
-14.8652
-32.8203
-20.0616
-39.7558
-96.618
-44.0491
98.0396
52.5129
-8.52535
-4.12036
-15.9397
-28.6729
-39.2921
-74.3596
6.9775
35.0544
-10.9811
-31.4017
5.28
52.4614
23.3891
26.1192
109.307
86.5461
73.1548
28.6828
-64.9602
-86.1843
-117.542
-5.78268
43.3179
22.8259
6.13623
-8.59368
-61.7548
-14.9661
-42.2858
98.6647
166.531
100.128
65.1779
43.758
-42.0609
-81.075
-111.217
-3.79844
82.2632
122.582
102.624
8.47711
-86.1566
-157.504
-219.939
-208.723
-90.2993
87.9649
117.126
36.1887
-14.3737
6.02216
28.3309
14.4389
-77.3805
-26.0314
133.19
77.3127
-12.7236
-15.2154
27
34.8895
26.4799
0.987057
98.6903
80.3807
-24.5689
-70.3175
-43.9283
-69.6618
-78.1771
-57.7487
40.7039
35.2168
47.9127
10.3046
-43.0104
-37.787
-76.8386
-72.0397
5.56507
2.74749
-1.11158
59.1682
125.291
190.114
134.112
-39.9876
-66.0892
-81.3889
-141.019
-120.831
-91.0265
-30.5852
29.6565
32.7992
-35.0382
-35.2341
83.4916
66.054
8.42899
9.3336
33.6504
66.0911
18.1564
-5.29802
89.4453
99.4338
58
35.764
54.1798
13.7912
-108.397
-118.305
-60.1862
-23.7344
0.169751
-8.71817
-47.841
-56.1214
-91.856
-28.5838
11.2014
23.8332
37.0458
26.7132
-38.791
-43.474
-87.7131
-26.5315
44.1965
92.916
105.297
85.376
67.3704
35.6859
-0.198532
-17.1097
-79.0151
-17.0455
67.2365
41.2727
-1.3793
-47.6311
-91.4135
-81.1222
-87.0488
-100.182
-45.3576
62.3563
114.038
108.811
104.356
85.953
28.462
-22.3729
-118.52
-120.339
-30.5424
-39.3987
-38.7336
-13.4194
7.32643
-15.3986
-61.286
35.185
22.7058
78.7944
125.029
54.7288
36.5328
8.97542
-28.0752
22.4779
9.5916
23.6929
70.9097
50.8053
24.1293
-16.2105
-59.8743
2.59222
-21.0293
-9.88046
-5.74685
-90.6936
-105.717
-93.6569
-111.711
-22.8543
42.877
10.4629
8.62243
-18.4112
0.954746
15.8147
29.9783
-17.7389
24.736
21.646
20.1601
-20.2209
21.5819
63.9412
57.0086
3.39637
79.5704
76.6995
62.3018
-28.8354
-76.2226
-48.5304
-75.9194
-90.3227
42.6593
66.7027
33.2844
22.1812
-38.8666
-52.3113
-54.8348
-70.6791
-80.6933
-12.8076
72.6672
98.6676
72.8995
61.8742
61.6515
6.05722
-86.2567
5.02824
63.3209
12.1326
-79.4944
-100.25
-56.2039
3.37032
-25.9491
16.6079
66.6976
22.6471
32.788
16.8908
7.35807
18.0796
-5.90922
-53.1044
30.4445
-7.72344
-5.33002
-46.2377
-50.9879
-23.585
-49.7133
-66.088
48.9267
121.417
118.451
71.0006
13.4465
-13.1073
-35.2777
-95.3439
-66.7506
-57.9218
-14.1571
46.1804
25.2742
28.1454
8.10842
-25.9545
38.296
15.9243
8.16643
82.3505
63.6757
17.2174
-45.0375
-94.0079
-42.2058
-55.2192
-65.2235
-10.0069
5.29897
7.7765
-41.6784
-62.5673
-11.8919
73.65
72.868
68.8332
16.6859
25.4657
34.0633
4.98593
-57.1758
-65.1459
66.8265
126.377
34.1333
7.89755
9.14859
14.5527
-1.53433
-3.29108
-46.0992
-22.7003
22.9523
-3.83336
-21.75
-32.5686
-55.7666
-51.0882
-48.9972
-81.8298
-78.8264
17.1007
-28.7044
-43.2038
-39.5215
-2.25602
57.6562
85.3022
63.8674
135.539
105.274
32.6611
-92.4211
-148.313
-41.5894
42.1656
64.2306
85.7668
19.2025
-19.562
-57.633
-144.582
-90.0444
-41.0281
-25.2262
57.6118
130.566
79.5889
50.7705
0.624375
33.312
78.8078
80.2976
40.2286
60.2504
35.1081
-27.1571
-70.1922
-63.862
-69.5913
-51.5379
-38.0549
23.1731
11.6771
13.5242
-7.06413
-41.3071
-29.9795
-33.7213
-69.8579
62.1522
36.0944
-31.0215
-29.588
-88.4452
-119.29
-86.834
-71.3476
68.1127
111.199
98.0994
92.6388
42.1623
33.1606
7.2072
28.6736
5.02748
-1.52059
40.4268
0.648294
-10.2911
-32.3157
-95.1824
-59.7097
-33.9342
11.8369
-24.2037
63.297
71.1904
60.9458
-9.35798
1.56518
13.6135
22.2428
-33.3651
12.3768
30.341
3.89805
-35.8273
-16.353
14.4593
47.435
23.0051
63.629
85.5857
-0.980995
-39.4311
-133.026
-174.022
-142.569
-188.503
-82.2415
58.3052
126.857
103.963
47.0779
42.7218
43.1671
8.96566
11.7885
-1.7647
54.6615
47.5933
6.47523
5.61046
30.7052
56.5016
30.0007
-16.1053
37.0199
53.6633
-13.5665
-103.042
-110.369
-48.673
-31.0795
-46.1653
-83.2786
-29.9611
70.713
102.186
64.3966
44.3772
-25.7725
-70.8198
-124.289
-159.321
-11.1544
96.4216
95.2657
97.0199
82.7303
45.7566
-41.0925
-62.3079
11.7826
19.6698
54.6132
23.2711
-3.12906
13.7429
-55.2527
-56.6915
46.9216
20.9004
5.47775
-4.46439
-103.981
-90.3425
-77.3567
-19.2226
61.4619
48.0114
49.1378
47.3083
9.81252
24.3175
11.1166
-21.4274
4.73473
3.80352
35.4348
29.2957
-50.0224
-42.912
-15.1041
-37.9884
-78.143
28.4787
96.1283
51.1892
-0.990853
5.68949
23.3089
14.2211
-54.6621
-103.892
32.0266
84.0417
10.9288
-11.2202
-33.063
-25.3245
-33.2697
-18.2281
-27.8255
86.5775
135.223
64.0513
-20.1558
-40.737
-55.7801
-51.1209
-96.1
-72.5686
32.4277
41.9853
0.976345
-20.4701
-19.1603
-11.5472
-51.4596
10.5899
17.4631
30.3737
76.512
46.6217
23.9623
-3.24402
-57.0181
11.6775
37.5146
12.4821
37.4766
39.9997
9.07508
34.4033
-14.1345
-8.37928
-13.3817
-34.9985
-79.9596
-141.879
-93.2814
-45.1381
-5.54736
5.65837
39.8234
107.346
90.0462
46.9134
18.3542
17.4955
42.3306
25.2082
23.4222
87.1831
42.0226
-19.4118
-59.2148
-58.0826
-17.172
-22.5049
-36.1483
71.4219
51.4567
21.5711
-5.9973
-54.8534
-35.3222
-88.8285
-87.36
-17.696
-32.564
-36.3711
-42.8256
-39.5886
-10.0839
-43.0758
-45.7013
84.4031
124.372
110.701
78.4832
2.69337
-17.3652
-13.6157
-39.0339
-91.7176
-26.2268
38.1782
77.1314
5.51526
14.1431
18.4247
-10.7927
-39.9599
-67.7055
39.2274
61.4864
-7.9572
3.12994
18.9718
25.4024
11.8918
-1.09297
-43.1018
106.637
115.753
49.2061
-12.6347
-76.4597
-88.1234
-124.906
-117.979
-2.2612
7.25964
35.2447
11.5062
42.9214
42.6463
11.1625
85.6391
48.1159
-24.5205
-53.7933
-57.6822
-123.135
-86.4891
-87.035
35.417
49.0683
56.8933
83.6581
81.5576
33.6283
69.736
46.2756
24.171
-14.699
-19.8278
-15.1758
-109.541
-88.3796
-15.4258
32.0305
20.9062
-3.37575
48.3799
36.0849
-23.2937
-26.8669
12.0189
38.2186
-20.2972
-56.301
-24.8238
5.71173
5.07823
4.91122
-15.3717
-7.64487
-55.1194
-66.4794
-27.1633
22.5007
63.5827
47.7696
2.91779
17.4904
2.0527
7.61647
22.6948
88.6709
55.4903
6.03828
-61.0212
-86.149
-72.926
-53.9759
-75.1522
17.7378
88.4355
94.3653
56.0803
26.2422
31.4252
11.9632
-52.1984
-7.85073
33.3151
40.0481
9.15961
-40.0771
-0.244218
20.3891
-6.77658
-61.6199
-82.01
-48.969
-32.6357
-19.1808
12.1163
25.5237
-3.35481
-55.1981
-8.35573
64.6447
39.8171
37.6599
18.6309
10.6534
3.11076
-46.1176
-3.71679
72.5558
32.9374
27.7257
-5.93174
-32.7337
-23.678
-64.6012
-22.2585
56.6979
32.9758
44.1112
33.2756
-4.89464
-5.84209
-50.5224
-56.6684
72.1672
24.1959
-19.5667
-55.2107
-99.9174
-75.1994
-15.7817
-15.9771
-8.29046
33.7045
55.7157
12.8807
-24.7434
-15.4354
10.0466
16.1241
-27.0478
-22.4311
94.7684
114.765
-16.9822
-19.2972
12.6364
17.9123
-18.7074
-27.7054
15.9398
101.516
71.6218
54.2081
28.4985
5.84561
-32.329
-67.7175
-68.4136
-8.00098
-17.6721
-3.97693
-58.059
-81.6089
-91.6655
-106.818
-33.6738
27.9269
29.7153
47.7767
50.7816
39.9955
53.1001
-15.3874
-16.1742
53.6276
40.7399
42.6541
27.8217
-19.5141
-8.6678
10.0579
-23.5871
-61.2427
-17.0958
82.1037
44.5062
-2.21844
-38.2241
-67.8109
-52.365
-62.1494
-70.4114
51.6325
41.8283
-2.34665
5.30029
20.8759
40.6317
21.6481
-2.48142
62.9217
47.8074
39.1921
-6.54441
-34.1246
-25.6231
-37.5449
-36.7361
54.3735
42.6773
27.3483
41.2824
-18.0085
-43.0886
-85.9661
-98.9641
36.0308
11.0099
-17.8417
4.15604
-21.3687
-15.5072
-23.2252
-78.4062
-6.7302
106.656
104.369
86.4124
5.39674
-39.1125
-26.8492
-2.68477
-43.9405
-84.1587
63.1658
83.963
-5.9626
-16.1768
-21.531
-16.6252
-40.1565
-66.908
-17.6273
112.797
102.031
-6.15407
-27.8868
-6.00569
14.9716
46.0869
26.0502
-14.8219
18.7349
-25.3832
-155.817
-164.463
-128.425
-61.2782
-49.5801
18.1571
125.559
105.713
81.7151
51.0567
19.2316
21.214
-7.56467
4.69824
143.063
139.19
79.6427
42.3176
-9.39056
5.08811
-23.2381
-68.5068
-76.133
12.3984
42.3662
0.724291
-52.6902
-25.4486
-33.5167
-54.6684
-64.9184
-113.329
-19.9937
8.53299
-95.2553
-97.7446
-52.1318
-22.502
-23.7816
-12.5023
63.0602
177.136
129.62
33.6886
-8.65846
-2.76528
-7.52283
-46.7253
0.941999
-0.988111
-26.7715
-0.41856
9.27242
23.5731
13.7979
-39.1763
-53.5051
83.3537
72.4896
76.0251
49.9453
15.9615
14.5746
1.31558
-44.4025
-53.8756
0.924803
120.257
60.1104
7.6948
-17.7127
-29.2726
-68.3428
-164.434
-174.418
-7.49963
71.7053
2.93531
-0.00586934
19.9087
19.397
11.7373
11.1736
-24.6659
72.7392
48.0948
-46.0228
-72.3307
-52.0236
-28.4117
-11.1182
42.6813
153.825
190.412
144.856
15.9688
-69.9887
-141.951
-178.626
-103.234
-77.9319
-52.5995
-11.1694
2.68372
-13.9837
18.1002
10.4567
78.9299
85.5185
77.636
72.2772
73.2462
34.4784
17.0517
-24.4663
-22.9881
-5.13059
-50.171
-14.7591
5.10973
23.0564
18.7401
-37.8909
-52.0819
44.0235
47.0975
35.7125
-34.7502
-55.8511
-48.0988
-35.174
-73.2267
-105.476
-6.87277
5.45207
-14.2724
2.45033
54.7077
69.8371
-26.0646
-53.2415
57.3292
91.4397
88.0923
10.3348
-16.6763
-25.2329
-20.7908
1.14222
-17.2912
18.6633
5.14367
-45.4081
-99.8954
-60.4823
-6.17725
-5.62643
-4.00681
79.9742
87.2413
82.3043
12.5946
2.80131
-2.43899
-66.3365
-68.4064
57.8833
54.7124
6.72554
11.8396
2.89265
12.8326
10.8996
-48.7279
48.3064
100.219
59.1252
41.3181
-35.4481
-62.449
-65.6938
-125.952
-194.083
-54.2722
29.578
44.6031
-14.3333
-25.5272
8.33011
4.80192
-61.6507
-5.19311
93.8006
116.279
61.8665
-4.02484
3.37735
12.5745
-25.8535
79.6512
76.1405
49.3698
71.1332
-0.113918
-27.7461
-40.0386
-106.442
-38.2605
-30.6405
-5.69719
8.7926
-14.9061
-47.7538
-38.5452
-107.674
-49.83
25.7259
26.5793
37.917
15.3136
22.093
18.5144
28.571
-5.34329
54.4641
103.074
45.6182
-69.4436
-113.859
-133.611
-87.2098
-17.641
-18.3469
39.8093
140.656
69.9416
31.0001
76.6738
87.848
41.1325
-0.772775
-58.1192
-50.7251
15.1494
-85.9419
-49.5617
51.1358
71.9698
76.0434
22.3098
49.8925
94.2115
68.3709
26.844
-53.1855
-102.211
-150.558
-207.379
-174.847
-121.769
-46.6341
44.7094
81.33
43.6424
41.1062
-39.2283
-67.0369
44.6172
134.139
137.829
87.1723
-7.75442
-28.977
-22.4109
-17.1649
-26.0353
77.2496
86.442
56.1363
6.62319
-34.7485
-42.6068
-36.3796
-48.6902
-21.6234
61.8983
33.5343
-39.2948
-76.4624
-33.9065
-27.2041
-80.4551
-50.3929
45.1447
49.0052
76.9369
36.9325
33.0943
11.6726
-39.8023
-55.49
-10.8177
-37.2123
-14.2444
5.21124
-9.89246
24.9075
-7.33486
5.27045
142.404
119.205
55.7976
2.52902
-80.7507
-112.905
-113.027
-99.0551
-83.8731
50.2655
181.347
126.851
63.823
26.2589
-49.4109
-73.543
-138.005
-131.082
11.3615
68.5238
-7.80465
-21.1306
16.7512
64.2343
80.3609
76.4018
87.2278
130.885
123.036
1.82027
-137.682
-159.674
-178.421
-160.605
-87.2265
1.35212
54.5755
98.5234
96.8951
69.993
0.473831
-53.8599
41.2358
-0.686528
-91.1876
-112.052
-57.3212
-13.9001
-31.9013
-81.0415
-0.0332796
7.69095
4.69043
39.0319
120.464
172.626
152.559
63.2551
18.6536
-9.89941
32.7862
160.598
78.4437
28.9301
7.01988
-39.5641
-190.174
-232.706
-132.732
7.0306
43.5869
100.141
144.33
134.559
53.9031
-54.0267
-57.2364
9.66355
-160.402
-260.069
-248.188
-239.021
-197.406
-122.581
-40.3077
112.783
330.68
260.68
189.317
133.262
93.2003
98.1963
65.897
37.8911
-47.1543
-80.5147
-52.3619
20.1525
25.1077
45.6315
26.5418
-5.86855
-13.4168
-40.7432
-75.2744
28.3842
-32.6162
-67.8673
-60.4575
-62.2433
-63.8624
-53.3271
-42.243
-57.1914
-58.5685
-67.326
3.53299
-40.0989
10.6728
52.7012
60.7698
61.7722
56.0708
69.6404
46.5987
33.0055
74.5073
59.7214
16.8888
-11.0529
3.75303
12.5499
11.7407
-33.0967
10.869
124.059
101.221
42.9458
0.923175
-65.3994
-119.723
-143.862
-168.152
-90.0943
103.328
52.8596
-8.66029
-9.89834
-9.17853
-31.5775
-34.1889
-45.147
1.50653
109.744
75.0314
-21.3999
-102.007
-103.242
-23.6807
73.1309
105.459
74.9039
147.457
137.554
6.87028
-77.009
-83.1317
-63.4701
-42.1411
-37.0792
-68.1774
-53.891
51.3823
100.824
69.1573
17.5405
-2.67831
-14.6408
-44.7832
-44.8263
-50.6087
-52.9076
-28.6189
70.0394
73.5061
51.1324
14.156
-1.808
-1.19053
12.8123
28.1248
-34.4972
-89.3377
-23.0526
34.9563
-24.2438
-78.3803
-84.2533
-68.2942
-54.4603
-65.1578
-1.82939
98.0204
29.2146
12.3818
34.5557
55.0572
102.202
112.751
82.6844
-38.4908
-20.6044
18.6706
-62.6881
-82.4317
-5.36714
39.12
39.2171
28.2088
9.4446
12.7116
35.1852
-21.8984
54.5655
42.376
28.5977
5.28517
-44.3073
-76.2076
-81.5579
-69.116
21.0029
51.656
6.86438
8.42184
9.59976
13.567
26.2926
-5.22283
-92.7946
40.6919
107.648
19.8146
-118.451
-144.382
-149.035
-118.37
-92.7686
-99.7365
29.8259
122.991
114.304
78.4624
101.424
92.8258
34.5144
-44.4592
-125.238
-9.23532
92.6869
77.7347
40.014
30.0178
9.48298
32.9038
44.6154
19.6078
-14.6385
-9.59702
-14.647
108.548
60.21
-29.753
-72.3135
-58.1761
-33.7976
8.23328
0.404079
-91.648
-46.4148
-55.1361
-60.4454
-23.4755
-33.0962
-22.1978
2.74857
6.97547
23.2904
50.594
-6.61527
-106.53
-34.1689
15.7022
28.6967
10.526
12.8082
51.4452
114.792
104.839
49.14
106.423
85.8027
1.53246
-30.2076
-55.9168
-72.434
-86.2285
-135.887
-155.402
2.74719
89.6892
90.4183
55.0404
25.9794
4.35967
-11.0104
-42.4083
-60.9431
-82.2844
-66.693
-8.91035
56.3493
69.0583
55.2883
31.708
19.1783
30.1517
90.8942
96.0627
-59.3771
-114.03
-79.3119
-127.018
-85.9503
-21.851
22.8298
59.0579
95.1692
63.7653
99.0885
59.0908
-20.8808
-27.6285
4.35283
30.6118
38.012
-2.28886
-49.0252
81.0933
105.291
42.5256
-59.2118
-86.3396
-94.2032
-111.779
-187.714
-186.78
38.2669
154.095
111.214
27.3925
-18.9891
-47.1114
-53.5188
-42.1017
-32.9612
-58.9591
-13.0216
-1.7688
80.5547
64.9687
72.1286
120.426
109.699
86.3753
87.9965
44.0623
-129.939
-150.1
-83.3836
-10.5585
-6.74114
8.08301
16.1878
36.3155
46.5427
72.7734
60.8094
-46.6023
-139.475
-11.717
1.09657
-29.1864
-37.8679
-17.431
31.8607
67.6086
46.6265
27.9507
39.4367
-34.5859
-51.3047
-9.70739
-6.98366
-49.8904
-66.2205
-67.3577
-95.244
-86.8787
10.4157
9.06712
51.5947
82.8531
73.9022
59.4662
32.8991
-29.6585
-65.4077
25.6296
84.9887
60.0848
-5.13205
-77.507
-54.7563
12.411
32.2117
32.8747
33.5679
171.034
176.377
28.9824
-76.5688
-114.533
-105.982
-78.5181
-69.0196
-47.8909
118.731
131.547
-4.88532
-80.323
-57.5995
-61.1502
-87.2146
-133.225
-130.479
44.4897
144.937
57.8109
-25.8039
-5.99526
12.1994
11.0333
-5.38197
-8.72551
100.645
176.168
59.7261
-26.7143
-63.0807
-47.853
-6.24234
24.1985
9.13703
29.8978
89.195
59.3923
-17.0395
-56.8521
-59.6519
-5.45033
12.2
-8.05289
-43.3202
-92.6083
-122.097
-97.1707
-74.2584
-46.8641
-4.59937
32.0747
57.7526
62.7783
71.3382
42.0869
1.51841
4.20868
77.1819
57.0976
13.4273
-22.8821
-24.8734
11.8197
45.7327
7.53436
17.5058
64.4373
36.1138
26.8199
14.1198
-5.19699
-35.1441
-55.4347
-118.259
-100.065
45.1471
15.6484
-18.2543
-22.5918
-23.9068
-0.0550722
12.1464
8.41163
-23.678
82.6528
42.802
12.2472
-49.4723
-82.7519
-64.9135
-9.50648
36.5474
72.4153
93.786
51.1644
-29.3545
-6.58613
-11.1465
-44.9785
-74.5817
-54.7999
-13.5032
8.67564
-1.21559
2.54241
105.781
44.3046
35.8474
17.2238
-10.4185
-24.306
-22.2704
-64.2603
45.5201
149.444
99.617
1.89222
-52.3236
-41.2171
-15.6862
-50.703
-134.9
-69.1763
56.848
35.0558
-44.0489
-58.8078
-8.05825
34.2436
90.8517
60.4602
-13.3749
64.871
54.3842
-73.7913
-174.547
-138.265
-58.3633
-2.02476
30.339
1.3675
7.81917
51.4204
26.1513
81.405
29.5347
14.7451
34.4989
45.5677
19.6129
11.3016
6.18697
-33.2564
10.8402
99.4841
106.028
72.0261
26.3023
-17.4009
-52.1664
-27.1555
-23.4812
-92.166
-27.8126
-44.5175
-72.2409
-50.3413
-34.7637
-32.2564
-50.5552
-97.383
-72.0112
68.284
60.3709
36.3616
47.8631
37.1015
20.1339
13.8777
11.8203
-62.4281
-37.4685
71.9202
82.3627
26.4536
39.8668
31.3201
26.3462
32.7579
17.4249
-26.3459
-42.0981
-43.6575
8.67431
-52.6292
-89.0133
-55.9979
-15.9167
10.198
33.5028
70.3757
72.5934
79.5488
-37.9622
-71.5122
-94.6344
-124.063
-69.8683
-32.9092
-63.9858
89.1919
199.738
95.5049
8.40491
56.5021
99.6764
47.0108
-51.097
-87.2396
7.2835
48.0248
31.1321
-66.6545
-44.3602
-10.1618
16.7573
19.7874
-4.11769
90.1444
124.039
61.3565
-54.2157
-140.34
-228.99
-228.671
-118.268
-24.5097
11.8341
0.451328
3.14693
147.451
119.653
36.9731
16.6468
29.2763
39.2073
57.8585
43.9547
-80.857
-52.2329
0.474642
70.801
71.1345
74.8423
67.644
17.0764
-12.922
10.1623
-5.74731
-107.097
-133.296
-14.5792
-13.2765
-1.18214
-6.32807
-9.51585
-2.13807
-38.7529
-66.0771
17.1116
11.8565
-7.08548
24.9463
45.4963
60.8543
39.4804
-20.0042
-63.3931
16.5502
86.0854
17.0862
-41.1974
-32.0413
-24.8358
-13.4716
9.85224
18.3738
2.48637
-44.9739
-76.5929
34.7545
62.6272
77.5611
72.5018
42.3868
-21.6938
-65.8817
-96.0001
-85.5209
-5.52876
47.2125
31.6132
15.3419
-12.6917
-42.5737
-60.7965
-10.7902
69.3895
157.527
115.151
-39.3556
-95.2775
-125.366
-123.898
-43.3161
-15.0676
24.9644
182.838
165.381
48.0921
-21.7775
-36.7856
-23.0755
0.0249107
-13.7679
-12.0258
35.073
28.2398
-11.9292
-39.0927
-43.3928
-22.9281
-5.8975
-3.64118
-39.9156
-15.1777
71.5719
46.6172
40.6571
-0.014715
-7.45051
-13.5384
-39.5366
-58.9376
-58.4063
-99.6519
-155.429
-95.1713
-15.1788
30.8187
74.1198
92.1103
91.553
88.6886
78.1256
45.3772
-16.7429
3.57375
14.6095
70.8441
50.1554
17.4264
-10.8851
-28.7758
-36.8386
-60.4878
-97.476
16.4383
43.1054
-1.79284
-36.8189
-26.8591
-8.5781
-2.15437
-6.4428
69.7865
70.991
15.027
-10.3517
-38.2229
-54.3059
-65.187
-63.2159
-99.5718
4.96967
97.2005
112.668
23.7743
-9.18466
-10.0821
-4.18149
-50.3861
-39.7789
67.9096
50.0956
13.9295
19.9427
-5.27976
-25.1966
-47.4696
-67.8686
23.3879
52.4797
90.9739
59.9034
57.3811
53.8664
-31.4442
-70.2119
-12.2626
-21.7264
-11.7464
-26.1714
-71.2939
-30.6454
-68.251
-87.2626
29.659
23.8596
-11.9816
-4.1748
-23.9901
0.552314
24.6047
-8.77992
38.5728
84.215
38.6963
22.3967
6.00421
10.931
22.2856
31.2722
-40.5189
-43.7362
17.1832
49.8572
0.827493
-17.94
-22.616
-20.7331
-38.9388
-81.2849
-83.2742
-17.5269
84.4924
25.7094
13.6165
21.0863
11.6111
24.0439
10.942
-22.4691
61.0324
66.4303
28.7125
9.27387
-31.1786
-11.0626
-22.0478
-38.2235
56.0438
35.379
25.6431
-10.7733
-105.89
-80.6575
-60.3092
-54.587
30.4859
13.4889
24.2367
42.0278
30.44
25.9159
22.0956
-28.525
-104.401
-8.60823
140.834
147.275
67.4559
-40.0946
-25.2705
-26.1323
-70.7396
-127.269
-99.0082
46.7536
114.266
95.0941
38.1884
-29.2024
-127.704
-150.722
-168.9
-23.7102
97.365
65.1621
3.57517
41.4911
50.8118
15.705
-59.0308
-7.95266
59.3467
77.2928
61.4862
-2.37758
-10.9283
-22.8211
-51.4877
38.2367
93.0799
100.86
125.687
44.8751
6.00736
-27.2299
-112.548
-47.7066
-28.7728
-38.2452
-3.82574
-28.9462
-54.4364
-61.8652
-90.6009
-88.5136
-26.0861
-10.3649
-15.0999
10.3582
25.8029
49.8498
46.8058
-19.2346
-0.368269
46.182
36.9279
8.83208
35.2371
77.227
66.7301
10.7687
-70.418
2.10592
79.2664
-31.3183
-85.0585
-54.4603
-5.12552
-26.358
-48.0933
-69.9621
-13.1655
99.9537
88.4406
38.8913
34.5811
8.95311
-7.3156
-30.1688
-40.2311
37.5065
32.1685
18.0799
12.7347
23.989
6.95498
-16.5501
-4.47517
20.6724
-19.9591
-0.556161
-11.8688
-46.9843
-39.9217
-77.5714
-80.7737
-51.1672
42.9534
29.3515
30.4087
-14.5167
11.7043
10.9611
-6.09042
-8.33326
-19.214
16.4763
92.2539
30.077
8.6945
10.0348
12.4442
-1.85095
-30.4513
-41.2332
48.1689
18.6731
-38.4977
-29.3808
-6.66467
-20.3319
-42.4711
-7.2555
94.2053
67.7568
31.5243
-18.1948
-66.2876
-74.6383
-83.9316
-41.104
73.3006
36.6528
29.6567
66.3152
56.5645
59.3037
-17.6587
-6.44859
25.1938
-28.136
-29.2317
-70.3727
-113.793
-36.7043
-9.57592
-21.3374
7.31796
138.618
133.007
82.8378
-7.61479
-11.4756
3.36884
-18.56
-84.7448
-38.4951
-32.671
-29.4076
-27.0039
-3.06047
32.1149
51.068
-12.5769
-53.6381
47.4024
48.5591
38.2075
-28.4689
-11.55
-20.7924
-75.2884
-79.9545
12.363
33.5953
29.5937
-5.8446
-3.58078
-4.04349
-44.5691
-35.3338
45.9699
33.5201
29.405
35.7939
-9.43365
12.6704
-35.315
-12.3697
34.4351
32.6941
22.9632
19.7543
-23.9723
-17.4714
-52.8844
-35.9941
30.468
29.209
30.0526
31.1807
1.14754
11.8028
8.7514
-6.61084
-67.5299
24.3106
70.6265
-11.5771
-32.1019
-12.5014
2.43375
-3.06496
-83.8369
-48.1673
26.4505
10.2887
-7.39897
-5.30391
14.8003
14.5209
-36.9327
-59.2769
51.5069
57.4809
59.7772
9.22273
-14.6455
-15.8667
-41.7947
-34.0314
22.8986
49.2198
49.0204
27.497
10.8296
-1.69142
-6.62632
-7.83913
-69.3175
-16.3453
28.7869
37.0173
-25.0552
-21.2975
-6.44917
-34.0851
-63.4929
-89.2144
13.1607
76.7924
32.5227
7.95866
15.1794
13.6301
20.9354
3.31911
-50.1872
0.265403
84.1001
35.6427
8.76614
-3.78622
-38.6614
-15.7336
-26.6674
10.9269
75.8844
71.8565
8.43571
-53.9509
-86.0461
-110.793
-115.109
-13.1539
26.8144
32.6681
57.7061
22.5473
0.832441
-23.5579
-29.1547
51.0486
40.1364
36.7066
35.7533
4.39886
-24.8458
-36.7559
-17.2892
49.7358
53.1991
59.3719
60.7058
1.03146
-29.4926
-58.1212
-54.722
-18.4049
-5.61353
68.2307
26.4668
-22.1713
-22.4214
-16.4433
-6.62786
-65.8666
-104.785
24.935
68.3931
4.61871
-6.57706
-5.66635
-8.12549
-50.1242
-98.192
-23.97
82.3748
42.8524
30.0397
0.547175
17.3504
19.7411
29.3867
-9.19565
-16.9657
40.4818
35.3739
-12.1713
-18.7759
-2.46579
-2.11928
-51.5756
-8.22134
72.2163
41.0893
-3.94231
-46.3983
-32.6844
-15.6425
-29.1512
15.6378
52.2254
23.4939
23.8868
11.5956
-3.59985
14.4871
-10.2348
-96.1181
-82.6759
33.4519
50.4005
25.9716
-3.44186
66.0759
78.9652
4.47973
-50.1353
19.1519
6.34487
-76.7608
-134.73
-87.9631
-29.9685
-15.9811
-39.265
31.2655
81.3279
124.643
93.6627
33.1922
55.3431
-3.25874
-105.429
-90.5994
-111.506
-69.8622
-16.2809
-42.7308
-6.83278
19.5858
89.4561
131.842
93.5171
88.0303
93.4004
32.191
-26.5925
-75.0442
-60.8144
-6.15877
-21.09
-2.12663
22.6631
27.4855
53.4962
40.0149
6.35258
-24.1207
6.62371
44.1306
4.88673
-37.4965
-48.1539
-62.9001
-69.2637
-90.3879
-142.961
-96.0668
-22.5817
13.6783
13.1128
26.4744
42.4872
54.9613
80.2702
56.4513
27.9453
47.6844
-4.92569
16.7848
-2.5192
-20.1753
-36.2954
-100.671
-121.233
-97.1711
-95.3645
-20.974
28.9281
15.3612
48.7002
27.8103
137.823
180.204
105.8
61.185
92.5671
60.7456
66.575
9.88651
-1.8827
-24.8238
-68.4521
-63.9761
-53.5222
-21.509
42.4503
30.1084
-18.7771
-94.6033
-19.7227
54.4867
-26.3521
-85.2342
-78.6481
-52.7841
-35.7065
-55.4363
-53.0259
49.3506
65.4045
144.89
241.588
243.575
170.318
-15.4589
-248.356
-358.295
-411.776
-330.328
-223.301
-93.9966
20.3994
77.2457
99.4883
182.713
172.966
173.558
139.904
76.5083
50.722
-35.1769
-109.537
3.35264
138.397
162.744
245.188
249.627
213.424
117.663
12.1308
-84.9305
-59.1391
-74.8956
-100.953
-161.295
-185.919
-196.288
-196.791
-199.825
-206.796
-112.949
21.176
-9.07009
-37.0983
27.703
102.156
111.691
100.418
58.2624
102.353
80.3886
-4.32749
-33.1524
-27.512
-10.4161
-5.37974
15.1046
126.938
179.685
146.604
14.7076
-134.116
-208.764
-283.14
-217.222
-35.6241
65.1711
136.559
171.561
119.332
89.8055
15.3714
74.7468
168.172
103.841
17.4815
-58.8751
-154.5
-223.985
-198.921
-84.7371
72.537
125.647
149.152
139.624
71.5766
22.0022
-6.79441
-29.0653
-119.797
-6.38301
29.1921
-32.9447
-84.253
-81.2731
-51.5391
-25.0745
-53.666
-50.5297
86.5973
49.7916
-3.74978
-16.8489
-18.3603
-29.8354
-131.775
-138.584
42.8898
94.8861
105.756
27.456
-10.6948
-3.18596
-6.4232
-6.65114
38.5554
122.346
74.6075
2.93689
-45.0661
-33.1085
-47.8052
-65.8272
-5.16213
106.605
134.318
100.757
-16.4267
-39.0187
-23.105
-64.8827
-51.3777
0.0838864
-2.3638
5.14818
15.4839
-12.2778
30.264
78.2598
14.3356
9.48047
31.0001
11.1997
-46.5172
-113.33
-55.4732
-0.316569
-50.0403
-104.828
28.2328
29.6616
3.55611
-37.5744
-32.6951
-6.1296
-18.0773
-68.5161
39.6455
51.3244
51.5927
50.4534
59.5292
93.9561
90.0652
34.8099
34.1447
-52.9498
-117.498
-70.6833
-77.8275
-35.7532
-12.2099
-37.4197
67.6419
66.2291
31.8709
-2.90406
-65.0935
-20.2694
-1.49645
-46.8824
11.9666
50.7727
8.9639
-4.7249
-8.52375
32.16
75.173
83.762
-6.89352
13.4904
41.8556
25.9719
-42.3446
-51.2345
-27.8299
-10.3672
-54.2402
-37.0193
33.1201
104.366
28.1231
-33.2563
-28.4432
-57.234
-86.5663
-62.2922
-38.415
54.231
93.3697
42.2597
-0.760601
-13.6505
-66.7674
-85.6194
-57.6805
45.8874
118.688
77.3436
-6.16665
-77.3182
-112.233
-100.24
-72.332
63.9021
165.343
123.355
74.9042
7.47316
-12.1078
-12.4079
-56.9061
-5.97984
22.049
40.2045
45.3767
12.5898
-23.1642
-17.7138
-8.76999
-24.9887
-8.63968
40.6069
37.2399
1.11887
-44.0111
-21.015
-25.0201
-82.4994
-57.0423
17.5894
18.9189
-27.9472
-34.3043
-0.723477
6.78726
-20.6593
34.23
24.3646
-3.6466
9.52657
17.4262
48.1347
69.6676
14.5993
15.4999
-19.1993
-18.1756
-22.7101
-52.5358
-69.1406
-59.793
-38.9175
44.2053
114.26
62.5811
29.7406
-33.6128
-59.1464
-52.4979
-11.329
-24.7122
-3.11388
60.0861
46.1767
-4.64642
13.8203
34.7156
55.6167
34.7309
-49.6958
-18.1193
121.412
54.4245
-23.1453
-29.3476
-36.4975
-73.015
-83.8189
-77.8021
12.2924
37.5113
-4.37449
-14.7828
10.4363
9.5652
-23.3639
-27.9991
91.1981
80.5374
74.8008
36.9264
-74.2037
-106.593
-176.704
-126.465
6.7484
44.0508
74.4998
84.1023
38.6379
21.9712
-30.9075
-7.95949
38.0078
28.3817
44.9732
43.3204
12.9223
26.3568
-26.8148
-30.2267
-18.8734
-41.5451
-26.3631
-21.8215
-13.8548
18.8665
38.1106
33.7967
-35.9869
25.8896
40.6964
0.827584
-29.715
-43.7475
-19.4527
-28.1479
-98.7993
18.224
65.0021
50.963
7.54841
14.1917
56.8789
66.5009
-19.7247
-88.3053
15.7319
42.6815
29.2543
-12.9579
-1.45465
-16.1895
-48.2135
-80.3968
-93.6789
5.99332
66.013
-39.297
-29.7467
-6.04292
-11.8262
-5.67697
-30.9907
56.908
91.0171
100.341
28.9344
-2.18713
-15.9613
-81.6769
-133.067
-20.3786
52.6651
87.811
89.9369
30.0524
-17.8092
-44.7249
-25.4541
-31.9404
-19.7989
63.7228
75.5284
16.1699
-1.30163
3.63962
-30.7622
-43.2838
-60.5272
65.0816
101.005
9.59265
-31.2172
-26.615
-8.26352
-41.4979
-76.4897
-51.0791
16.6171
24.0047
17.5209
-13.4246
0.174697
-22.7039
-73.0992
5.64229
22.5774
33.0739
57.1627
9.99739
3.99515
-22.3944
-80.8815
19.923
39.1125
18.7936
19.8478
0.647409
-20.203
17.284
-4.36774
11.9185
80.0725
27.6129
12.9635
-58.9828
-87.3709
-59.7788
-16.555
-53.5988
-57.1532
42.3603
86.4433
6.98997
8.65798
91.1375
152.094
133.989
28.9049
-115.585
-44.6264
-37.6987
-73.6402
-33.3221
-11.488
-21.2397
-49.615
-82.4643
0.372598
62.8133
70.5239
29.3239
28.912
14.6062
-15.5549
-86.9133
-22.182
22.3266
29.97
60.4732
-13.7662
-80.3236
-123.02
-127.296
16.1997
45.8051
91.3232
103.928
41.6293
6.54157
-16.4123
-74.5649
0.766889
25.5833
50.1145
40.6877
-13.9258
-40.3758
-37.0862
2.43837
3.20918
-16.1427
21.8686
101.217
12.9158
11.0497
29.1716
32.2197
6.74201
-50.1271
2.51137
74.0067
8.37594
-31.9683
-60.1268
-54.3371
-96.1142
-129.419
-46.1599
72.3411
84.6972
99.2177
94.6738
56.491
19.7967
-64.4631
-84.8802
-53.5543
-96.2719
-85.2308
-52.2201
-69.7897
-59.6239
-75.0082
-0.300552
115.226
84.2632
79.6608
60.5884
28.6433
30.0015
37.7704
14.7905
18.4124
88.3395
91.151
55.633
28.1031
42.3387
52.7461
6.24957
-46.1
-49.9349
23.8181
12.7358
-47.1256
-51.4719
-49.3948
-92.7369
-135.21
-158.69
-190.383
-19.0497
10.8989
-3.64435
25.1755
29.6465
33.1041
31.5251
43.7649
109.116
89.0444
50.2626
6.00987
-17.0754
-41.5796
-56.935
-64.69
68.3651
73.2804
76.9023
102.48
31.6507
1.1627
-46.3333
-33.3071
19.3752
2.67336
10.0944
1.10735
-54.235
-45.1702
-78.3461
-47.1536
4.91343
63.4796
56.8705
62.293
-3.51453
-13.0592
-5.72806
-6.42324
-60.5738
-16.6898
-13.037
-2.85858
-19.9789
-6.70187
1.54477
-31.62
-78.5399
23.2708
44.5172
15.3684
-22.7118
-36.3428
29.5378
37.0957
-0.616087
9.86168
76.1826
30.4268
-21.2062
-87.187
-80.2871
-20.5154
6.45329
-12.9243
-23.3554
74.3196
89.5643
36.0591
51.7012
48.3068
18.9665
-43.9457
-40.0469
31.2131
6.23042
-3.00132
-28.9284
16.6469
45.5447
37.4012
-46.6819
-31.2614
57.7526
32.0611
11.2276
-24.8544
-36.0856
-56.8086
-45.4435
-73.5079
23.0364
44.4274
18.9322
-28.1945
-52.2674
-77.8188
-112.673
-103.984
9.21282
29.8746
88.7458
57.7816
-14.224
12.0196
17.9778
-26.6941
36.8164
72.6552
58.7292
65.9787
-4.2337
-13.0038
-25.9087
-47.0575
58.6031
79.1243
67.0991
67.0005
-3.33437
-10.817
-2.97332
-55.7227
-26.8283
-31.8104
-32.7606
-21.8096
-48.3995
-62.0392
-38.7716
-52.4566
-50.224
-16.6417
32.6565
36.0899
-6.92651
2.79678
23.4189
44.9851
-9.55245
-71.1568
70.2855
152.189
65.6369
44.8442
29.531
19.2973
-6.78122
-32.048
-67.2819
3.67445
26.4463
-25.4277
-52.61
-45.7842
-44.9987
-47.1332
-102.909
-28.4044
47.6295
63.2434
8.62926
-27.2791
-38.3878
-29.4484
-48.1903
33.0262
71.8547
62.3775
79.6463
59.1383
18.3599
-15.5678
-82.6805
-53.5497
-63.7384
-26.2596
27.8109
14.2834
6.35212
54.075
-35.9153
-52.3983
54.2249
74.0994
102.119
58.682
19.6674
-9.28034
-13.394
-36.6056
-50.4441
21.5106
38.8756
22.477
15.3635
3.21526
10.361
-45.3908
-42.9469
3.21804
-3.71975
-4.0245
-59.5217
-58.0712
-51.0107
-99.8165
-79.8573
14.7334
17.5512
18.6417
6.24215
-19.1766
0.0411882
-35.3346
35.1619
94.006
93.3778
73.7157
20.0163
-15.5715
4.06341
-28.1448
-68.117
24.4845
40.1705
41.6866
33.3165
-7.52409
-1.28192
-4.93225
-21.4742
-66.6268
1.48752
63.956
4.73577
-37.9709
-25.0782
-1.09879
-1.4522
-27.7651
-81.6889
45.9626
73.0809
-0.0344307
-7.12755
10.6508
4.59605
-16.9877
-9.05695
-26.7845
25.4353
53.7908
13.416
-9.90894
-6.48656
-14.0155
-27.4535
-60.8941
24.7157
59.1108
64.8959
-5.60225
-26.1323
-18.4621
-14.4296
-44.81
26.5713
1.00472
-32.0135
-26.8406
-66.509
-68.4568
-44.5207
-37.019
52.542
58.5825
70.3033
71.5246
20.2723
19.6162
32.9496
-57.307
10.8021
51.8212
44.8388
41.0236
-17.1429
-18.7945
5.12003
6.88397
-30.8217
55.4522
40.3558
12.9555
-36.6407
-22.6318
-23.4124
-30.6475
-82.361
-37.3969
-36.7285
-19.601
-51.1739
-71.0817
-33.9674
-11.4419
-43.0647
8.4762
57.5469
77.0733
84.9846
37.5463
13.9557
21.5314
5.15918
-35.1142
13.5638
39.131
40.0356
0.464699
17.2124
40.8341
6.76077
-45.7278
-0.757602
21.3235
20.8137
-6.37269
-34.9329
-38.7177
-28.7703
-90.8856
-77.1454
39.9377
66.3481
33.4836
-4.37027
5.04258
24.0687
4.83765
-28.8987
3.51628
28.1031
16.3008
-28.1055
-29.9868
-15.4375
-22.5592
-67.9195
14.0737
62.1702
63.7864
67.3019
3.55933
-35.7061
-48.5872
-125.926
-14.177
75.3738
36.1985
57.9794
33.6258
-4.68636
-1.71198
-46.5283
35.073
32.9594
2.68159
24.8557
-11.1182
-34.5382
-32.3881
-71.8747
-17.6803
-17.0052
9.36425
57.6446
7.65111
-36.1069
-33.4633
-61.8043
-43.9425
52.9481
53.9759
47.0488
3.10075
12.3668
23.7457
20.9318
-53.3374
-61.4903
93.731
103.128
19.6898
-16.0367
-11.1516
-3.1903
-29.6362
-70.5979
-62.5912
57.9763
51.1442
-15.2105
-19.7853
-4.84083
-9.65707
-32.9702
-35.8413
32.5015
62.0613
53.614
-28.2181
-21.34
-26.6992
-38.8562
-72.4019
-21.1514
-61.7113
-27.2149
36.6292
30.9182
32.9768
-13.9484
-16.0407
69.1896
52.4385
49.2643
32.101
-8.23754
-1.82331
7.56339
-60.8896
-71.0513
12.7067
91.5968
92.9647
60.6135
66.0388
39.2966
-6.8325
-86.7219
-23.5385
-6.15392
-10.6529
-52.3192
-43.9591
-19.6892
-33.6005
-85.685
-5.78551
-8.67556
-9.28087
-0.0564568
-53.3685
-68.5367
-58.3133
-72.0034
72.2017
78.6008
52.76
59.0192
23.8551
22.7949
19.901
-10.2526
59.353
29.7452
41.8027
42.9296
-21.6243
-13.8984
-22.9477
-35.1025
47.981
38.6174
47.8861
40.7372
-39.3558
-50.125
-31.7134
-41.3844
-39.49
-11.788
11.0006
-2.05386
-53.651
-39.0754
-24.2832
-4.33831
-27.8349
-79.2735
35.0277
115.957
34.0267
8.57196
15.754
17.1619
-15.6906
-33.2281
-61.1939
60.43
40.9109
20.56
17.0992
15.9724
-18.769
-60.4918
-66.1798
39.5459
37.8275
46.0018
-2.14395
-8.0181
19.5677
36.4871
-28.5367
15.3239
-38.5497
-20.7779
29.8382
22.9534
19.6167
-35.206
-30.8217
48.8171
11.4973
30.7226
21.5845
-47.7296
-51.2109
-17.6279
-116.419
-48.0431
6.96109
3.89554
44.8243
-6.16947
4.94086
8.56849
11.0539
-60.0263
-5.27859
33.6081
24.195
-16.8899
6.99548
38.3661
58.6074
10.9684
88.3628
77.694
81.8066
0.0572111
-83.2148
-103.726
-117.917
-148.072
-71.4233
79.5154
114.775
82.1792
23.8005
-1.71296
-1.27182
-0.714291
-26.2265
8.62309
55.2576
44.2891
-3.10698
2.47076
35.5218
10.9494
-83.2442
-31.1636
88.2485
83.3516
38.4491
-62.531
-80.6598
-54.1916
-89.9319
-81.7091
-8.16644
19.4306
9.67368
-0.709444
-17.3339
-11.5759
-29.4815
-51.0777
-21.8337
45.4104
63.2569
29.5311
-5.54271
19.5747
26.766
-35.7139
-5.62347
54.0982
59.1866
48.3321
4.30047
-23.9972
-27.6139
-97.5786
-43.2504
85.8848
50.3455
44.127
33.7869
-9.14239
13.0296
-40.5231
-25.7479
53.3325
29.3739
14.7374
-33.7607
-55.8257
-28.3003
-44.3768
6.5461
12.2929
16.8736
24.3185
-20.8736
-57.284
-39.3696
-49.7173
-16.5559
56.7337
62.7503
64.7418
36.4755
-13.7245
-23.0379
-28.8587
-71.7385
-49.465
73.1517
77.161
11.9449
-25.9672
-8.82835
30.0579
24.3858
-21.4257
-44.3938
75.2994
57.3205
-10.0869
-17.9951
-43.6578
-71.8701
-95.3448
-147.632
-24.3531
125.902
85.3921
22.6573
26.4908
-4.93719
-5.55632
23.4182
128.002
94.0504
13.2283
-13.9408
-62.443
-63.7468
-33.1205
-44.99
-50.6115
43.331
5.47151
-59.8505
-103.723
-33.3496
-10.9737
-34.0042
-69.8753
-34.567
122.25
141.108
60.1802
35.0337
34.4868
46.8043
27.3276
-36.0104
-57.3669
57.09
60.8018
-18.9819
1.74529
47.1656
17.5251
-62.0958
-124.651
-93.394
27.6475
40.6356
-6.3988
-4.67239
-31.7474
-24.5934
-20.9818
12.0846
87.0854
76.8394
65.3248
-27.6823
-65.257
-54.0925
-65.4419
16.3748
69.225
-1.48932
-13.7043
-8.13085
-22.0146
1.98648
-80.0532
-30.1338
63.1567
32.0663
17.843
27.8688
5.04159
35.1858
39.6239
-61.8118
-29.3471
30.8559
76.0564
4.10926
-49.1444
-49.5034
-31.3856
-16.5533
-48.7604
23.1964
30.8546
11.3201
-43.0944
-52.4232
-44.5243
-49.6752
-25.9315
53.4378
45.3811
83.8338
69.4303
34.1061
47.2128
27.681
5.34676
37.9488
37.7552
25.1214
17.7312
-17.8106
-2.93403
-10.2373
-35.99
-76.3128
-24.5325
42.1338
-31.2007
-63.9889
-28.897
2.02023
-17.5474
-90.5686
-64.8585
3.50083
7.02313
-12.4099
1.63195
22.4655
19.4841
-62.868
-80.4094
33.6093
129.122
130.247
70.7205
0.128808
-17.8897
-29.0235
-43.6219
-20.8905
21.3569
32.9585
15.8149
6.59737
-1.725
-12.1922
-69.0275
-21.994
35.1062
52.5907
78.8808
17.2959
-52.5678
-39.9042
-81.332
-15.9416
69.2327
26.1675
13.6641
-1.49628
-19.9248
-0.869334
-42.9387
21.7415
38.9611
12.5482
23.906
-12.359
-37.989
-0.787454
-13.8996
-48.9716
-5.46697
1.96318
24.0695
-7.65802
-47.024
-17.5775
42.9334
50.6049
8.33995
30.0907
41.3986
-31.2281
-34.9622
-18.4537
2.45416
6.1625
-39.4089
-32.9729
101.789
69.4199
-45.0235
-49.8595
-34.9043
-66.1958
-43.3099
-11.5119
-44.1658
49.2612
55.557
16.126
12.3285
11.2247
-5.20161
-28.2519
-26.2209
35.9026
44.914
42.9659
-0.755556
16.1775
11.8961
-8.79246
39.296
62.8518
12.5198
-8.92147
6.52951
-45.9765
-47.0762
-53.5415
15.5652
34.1538
8.63978
6.67206
2.44114
-51.2465
-36.9748
-58.0489
-104.086
39.4473
50.9492
49.3536
28.9793
24.098
37.7935
15.3225
-51.1772
-24.0647
-12.0592
3.09174
-19.815
-34.6073
-25.6134
-24.7632
-40.542
32.7579
38.1296
61.344
70.0235
-12.0511
-22.7643
-35.6961
-47.3433
36.0453
48.2246
6.1408
35.0012
11.0432
7.18181
3.79516
-54.6116
12.7793
25.6926
11.0728
18.088
-33.7553
-27.4215
-20.9171
-39.8495
-40.726
32.028
53.4753
59.3716
-4.71676
-29.7286
1.62607
8.90206
-67.3221
-95.8314
-9.16814
120.233
44.529
12.1557
19.5318
22.5071
-12.1458
-51.6535
-71.9165
36.728
-6.92856
-36.5388
-3.20133
4.69551
-16.2795
-19.8892
-54.743
-1.59001
63.6235
74.3383
47.5178
-0.527056
14.5878
15.1552
-43.9284
-18.6925
-23.6466
-26.1569
-4.61953
-21.4119
-9.40283
-20.4694
-24.749
55.1835
12.7337
3.24636
47.3293
40.6883
9.35085
-10.4113
-59.4844
18.3313
37.6416
20.5514
41.3254
17.0698
8.24322
31.3237
-0.415378
-57.746
-28.5348
44.3576
40.8993
-17.6743
-22.6854
-21.0083
-21.4292
-54.9401
-32.0695
32.8224
21.7201
-51.7209
-66.1327
-32.4451
-10.1922
-65.3644
-12.9257
44.3834
50.4425
36.3533
7.05914
-35.4005
-29.7273
-79.3535
-30.5062
55.0774
131.626
91.0551
46.1869
14.7903
12.1499
-27.6266
-49.433
-65.6676
57.1934
78.3422
33.0292
-4.2094
-10.0884
-24.9041
-38.0666
-89.0111
-27.3419
83.5786
48.2038
-17.4618
-61.4831
-38.8611
-16.2343
-3.86126
-46.3567
-8.82938
32.3989
87.1365
30.8422
27.9788
5.94426
-22.6407
-22.612
-68.6451
-93.7006
73.0459
64.2315
20.205
12.4905
3.21789
-1.64858
0.803152
-5.92461
48.5988
57.5869
4.96374
-31.6036
-70.4833
-87.507
-87.3707
-48.1283
44.5106
49.0455
93.8582
105.597
11.2721
-33.585
-84.057
36.9414
38.8713
17.356
17.3004
1.94495
-47.1923
-37.863
-94.377
-106.314
-3.664
-0.0309162
40.3694
40.4331
13.3889
34.4305
26.3482
-30.9779
-70.6392
84.1241
88.5846
-21.8733
-40.895
-21.9729
7.34004
4.1463
-58.8308
-17.5439
97.264
145.258
60.4675
24.2716
6.08388
-21.9962
-52.3891
-38.0243
-54.9453
15.6427
38.625
-51.9005
-40.5371
-33.5925
4.48102
14.2887
-24.0423
-7.76554
11.2403
-27.1803
-70.9765
-90.4775
-51.7638
4.2092
6.21746
3.28461
59.3885
36.6518
70.3965
62.4063
17.7039
-14.4466
-9.94825
-49.7664
-35.3209
51.4046
63.6999
47.2105
57.9132
70.0229
49.0085
26.3394
-47.7574
-71.1733
-13.2103
-12.4547
-40.0277
-24.0771
-21.6435
-29.048
-70.0625
-33.1726
70.6653
60.1459
16.9066
-45.5386
-28.336
-34.0499
-55.9962
-13.4203
30.4074
40.272
45.3793
27.0591
3.0582
-5.28681
-56.4991
-27.2687
27.7941
38.4227
64.1836
37.455
-38.3742
-52.0525
-111.206
-102.1
-24.3603
17.7616
32.6791
23.5129
22.4918
43.2045
52.3304
5.4794
45.1061
74.9821
58.3137
30.7764
-0.130003
4.4911
12.7445
-5.88483
-56.7973
-65.2218
42.12
55.2824
-7.87491
-35.4618
-42.3268
-34.7005
-13.6135
2.09855
-66.7873
-77.7486
22.1863
27.0744
4.0884
-14.7881
-23.869
-20.72
-46.1188
-70.4936
60.6362
91.5653
47.4508
4.80208
11.5242
17.1606
2.82445
-36.9615
32.3664
10.5705
28.1489
48.553
-22.2683
-32.4905
-38.1966
-74.4892
-19.6736
53.3622
53.5386
53.743
-10.1358
-5.66507
-8.1735
-31.4367
-42.3057
58.1167
91.1402
63.3588
-39.6344
-47.2079
-19.0273
-0.56186
-71.3749
-46.4292
20.6609
46.1084
8.38308
-33.9977
14.0497
34.2566
-33.3772
-4.80322
35.4347
3.05279
-22.6342
-100.815
-82.4778
-27.2366
-50.1519
5.01271
92.4407
78.4839
52.0345
14.493
2.86763
14.9394
-62.5262
-19.5205
60.3587
49.9152
60.3835
54.2092
17.2554
11.6979
5.15884
-67.05
-123.264
-39.4569
7.71675
9.50451
1.29831
17.9642
5.92353
-0.035369
3.32294
-32.2386
1.01809
47.7818
30.8131
-1.67178
-16.3339
-31.1537
-38.373
-13.6492
15.3918
47.7975
124.859
56.7707
8.40604
-33.7531
-64.0664
-72.7312
-81.4129
-111.754
1.39053
31.5731
39.5044
-27.7118
-60.4346
-29.1885
-47.5593
-50.7472
85.8826
101.569
76.6522
61.634
26.7583
7.58709
-7.3303
-7.81717
43.808
40.7794
38.7023
37.8033
-38.5559
-33.6243
-52.2293
-114.336
-6.35328
-13.0638
8.86859
38.6315
-23.2369
-17.9494
-17.0818
-85.1252
-54.425
76.5091
115.188
88.2886
12.1878
-12.0049
-1.68484
7.25937
-69.4259
-23.9058
55.3823
49.6471
-25.0104
-15.8131
5.45914
16.1921
-74.785
-103.895
35.7361
111.294
55.2566
-37.1768
-67.7506
-59.5693
-52.5356
-46.2336
-64.0168
32.8583
123.063
66.7319
16.2877
18.5398
-4.80426
4.46816
-29.6388
32.174
41.8569
38.6963
-35.1916
-28.8418
-10.9002
-19.7762
-64.5611
-28.6914
59.6704
56.1355
64.6156
13.8902
-20.1718
-13.1433
-49.3367
-110.825
-59.4961
66.6534
44.7999
-17.4119
-2.01338
13.5211
-11.096
-23.2299
-6.47729
73.4066
95.8211
67.1298
-17.2339
-29.6311
-39.6917
-101.971
-115.098
-54.5263
10.1781
93.9411
52.1993
-26.7549
-2.81438
-46.4578
-32.3273
67.8537
47.1256
60.3033
41.6987
-26.6098
-2.71093
-31.5435
-18.3292
6.68778
13.4478
50.7601
50.9363
28.3601
14.6091
-30.1393
-59.8849
14.0492
-2.08568
-2.94953
-9.95088
-37.7057
-13.6082
-19.2738
-89.1281
-63.5284
24.5649
40.8291
7.15658
5.20224
26.9386
30.2436
23.291
12.2152
-31.1935
32.5408
28.6478
-48.8251
-19.8353
10.6265
18.8378
-10.4673
-49.7404
-29.899
108.274
45.491
-14.4734
-11.5525
-20.7448
-30.7423
-80.3731
-31.788
35.3493
37.7242
47.976
17.5714
-10.3649
-37.2453
-31.2066
10.5198
71.6675
24.6064
13.5451
7.43083
-30.1816
-38.8279
-56.7055
-55.4427
50.3717
55.5151
60.6118
28.9502
6.38153
9.14919
-11.5057
-70.0625
-26.3826
51.7764
41.4057
-1.51054
-43.0071
-18.6032
6.62724
-9.25682
-48.9983
41.0847
40.1729
55.8973
-17.5477
-38.7234
-26.7644
-63.4984
-133.061
-41.0394
23.4029
52.2601
25.0801
-27.1859
-6.84438
-21.7134
-48.1745
62.6484
80.378
69.5338
59.424
1.01876
-4.24418
-18.646
-68.2521
52.5501
120.408
80.7834
57.0463
-13.9604
-17.32
-5.64554
-22.3542
-74.8176
-53.4338
12.0071
-0.377912
-57.34
-48.5727
-25.6261
-20.6181
-52.1789
-63.1945
-47.8284
22.962
69.7696
15.5637
26.4198
36.4919
14.1367
-5.62779
-37.0268
11.8367
42.4297
12.0893
-12.0916
7.0106
-14.8684
-24.1466
-60.1149
37.4841
55.9945
47.1868
36.6953
9.11385
-61.6477
-90.8893
-78.4341
81.6455
79.5545
46.5414
41.1683
-7.84075
-20.7492
-4.59423
-41.0983
25.4237
2.67982
-3.02148
29.0917
-6.50577
-12.2858
0.579164
-22.3279
-59.2779
5.76924
71.7086
56.7476
-36.9254
-51.9595
-32.8829
-6.74336
-7.69786
-35.5312
-9.82084
42.669
47.3136
9.63674
3.20308
22.0069
2.35221
-9.89122
-78.3866
9.9511
68.0783
-18.1131
-43.8251
-28.9249
-41.5385
-37.0194
-83.8382
9.46453
94.6968
82.7913
85.4982
70.9491
15.0178
23.0101
-5.56968
-94.2687
-76.315
-24.6294
-22.9271
-43.7906
-48.5729
-25.5551
4.20745
-12.3093
6.09639
55.628
88.1124
47.7826
-3.73077
17.3263
2.80871
-10.829
-68.6126
-31.5797
91.0027
110.264
56.9622
15.3164
44.2216
26.3727
18.1368
-51.2268
-71.772
43.9129
-8.06718
-48.5025
-39.264
-61.803
-76.7206
-125.012
-131.025
15.8638
47.961
17.6616
-22.8957
20.7315
25.3861
-8.52115
-3.73824
81.3196
68.6122
53.9614
28.7438
-4.58527
1.26275
-44.7117
-23.9779
45.773
19.3397
49.5223
48.1355
-21.136
-12.7782
-61.7485
-39.2314
36.276
14.6633
16.9313
33.9588
-18.1165
-27.9367
-52.0673
-71.5477
10.1822
-0.172279
16.9864
25.1486
-11.7327
-1.89361
18.8713
-1.05965
-70.4536
11.7504
94.1283
39.2667
-10.7891
-5.45005
-0.277246
-2.09882
-30.5014
-54.1617
-55.5735
62.8454
22.1216
14.145
16.9423
4.56084
-20.4486
-17.0278
-4.54666
50.7499
39.2272
-2.52422
-13.6266
-34.5544
-45.7489
-52.6427
-36.1925
106.881
81.9752
61.1861
27.5733
-58.4508
-113.124
-140.113
-104.972
47.7796
67.3219
44.6491
41.5423
18.7396
23.3267
8.97486
-17.9425
-27.6825
29.5575
57.3639
44.5783
-24.9924
-28.2237
0.88377
31.6953
15.7065
-42.0073
87.804
75.5862
-13.9871
-35.9552
-24.4007
-32.7809
-65.9547
-94.2717
-0.116056
57.0004
25.8047
-13.4663
-19.6249
-7.28063
-45.3562
-77.4674
19.5099
43.5873
31.1787
45.6416
2.46726
1.16525
-35.014
-60.8039
2.46177
19.0362
18.8796
40.125
-16.5963
-34.144
-21.7284
-48.6622
-5.76163
53.3066
100.268
85.6364
20.4334
3.82901
6.67154
17.262
-21.7311
-82.1717
3.41902
71.3838
14.9559
-15.6345
-16.4258
-2.16746
-30.2541
-55.999
-85.4665
-29.159
56.4674
23.5613
-16.9774
2.96236
-9.91138
-5.35609
-4.91692
-25.1197
51.8037
69.7919
-2.93573
-22.0853
-7.44715
-4.64527
-48.2098
-8.49224
59.7612
18.9949
29.6614
7.53441
-51.4257
-48.3444
-76.3673
10.3562
39.8352
31.5153
42.405
64.2428
26.1641
15.6359
-74.7949
-83.9934
-11.7331
-1.49598
28.8636
30.5033
-13.4211
11.5166
40.6429
7.54052
-23.3499
35.0403
27.2652
-8.82382
-35.3329
-23.339
-18.1294
-18.4438
-70.3977
17.7119
60.3606
35.2978
-8.24042
9.73379
31.5178
-4.57812
-66.2954
18.4884
63.8827
51.8757
12.5399
-44.3055
-28.1321
-46.6182
-89.9174
-31.1939
39.7864
28.4573
19.9646
-25.413
-24.5123
-9.76484
-16.8029
-47.492
10.4826
50.3623
50.029
11.9796
3.39414
15.7799
17.5641
-40.9913
-85.8629
23.1392
125.528
72.4029
8.26356
-3.77023
-11.391
-16.3748
6.89927
-35.0157
-61.9366
48.1554
64.1661
-3.6286
-25.0298
-43.4206
-46.9059
-26.8288
-33.7319
-8.90071
105.751
21.5583
-34.8235
-33.7608
-4.86315
21.1879
-29.9157
-10.569
39.8608
15.2588
-10.532
-77.0028
-99.5804
-71.8412
-60.5996
59.5633
135.772
96.1232
78.2478
63.9528
20.5723
0.337339
-51.4182
-32.3864
15.6454
-10.805
26.6749
29.8129
6.31659
37.4357
4.61603
-55.7747
-13.6482
24.7126
11.3237
-86.4429
-115.222
-52.8981
-12.5725
-8.06233
-63.4437
20.8654
112.777
90.453
-7.21873
-19.8722
-17.3969
-50.5504
-90.9966
-131.267
-56.669
144.988
106.538
69.056
83.8779
65.8191
34.6134
15.0611
-5.48749
-32.7803
47.504
3.70187
-40.9121
-56.887
-56.4714
-26.803
-46.2517
-47.002
83.4675
114.455
71.3793
-25.4636
-49.8518
-53.5168
-45.2291
-52.8382
0.0502691
-8.05117
-8.01354
13.8478
-9.98821
-30.7983
-25.1314
-29.6746
-49.3747
35.1972
81.6375
84.4683
8.47952
21.8674
30.8887
0.253168
-54.8659
-85.6263
68.1381
67.6193
-2.67936
-12.1595
-5.77384
6.70886
-46.1602
-52.3163
29.7557
18.2526
20.1152
-25.7059
-24.2618
-8.36587
-58.8271
-0.406532
64.0229
30.7876
44.5739
63.9403
-5.33524
-18.2572
-76.782
-7.94391
59.7695
25.6438
24.3714
14.6011
-35.4814
-20.8739
-52.1352
-31.5881
17.4932
3.15639
-2.74734
-21.4125
-37.4178
-25.8306
-9.41543
-51.0749
-48.2861
62.7452
84.1538
42.2884
-4.26272
11.0918
28.2542
21.6376
-23.4221
-68.9948
2.79726
55.9601
61.8926
33.0338
21.6934
2.08926
-21.052
-18.874
-48.0339
-6.92398
44.913
0.634525
-11.8635
-25.2218
-26.7265
-12.7211
-20.2086
-69.1153
-3.19786
52.6154
43.0776
-43.1625
-72.6322
-31.6187
-22.6638
-27.9996
35.3413
32.4905
54.1236
78.0654
18.1889
-30.1796
-39.818
-10.4731
31.6564
48.3848
66.3336
79.2998
12.335
-7.50983
-18.4422
-64.3186
-70.5387
-14.355
44.7997
23.4379
-37.3552
-38.6843
-26.1693
-36.0359
-81.0799
-69.2641
62.7206
38.2531
-4.99717
-17.0884
-14.7893
9.3972
-31.6881
-35.7249
87.5718
88.1078
70.6973
37.8116
-2.78966
13.6125
-7.47656
-48.0766
57.9414
53.5941
46.5345
30.2923
-17.5165
-24.5477
-69.1901
-113.537
-16.9167
23.9185
28.8899
50.1994
-14.0822
-7.18395
-16.9884
-61.6822
-85.488
-51.5489
69.7334
82.636
1.51006
-11.4221
-25.3775
-23.4165
-23.8324
-23.9448
-52.9735
13.7012
-11.9377
35.7905
49.159
56.4192
20.3783
11.5023
-0.84779
15.4678
5.63321
-30.8344
-48.1962
44.9511
5.48561
4.23069
3.97853
1.92544
-1.21808
-17.9386
-30.2481
55.2504
59.6311
-26.6826
-28.9953
-37.8577
-56.739
-38.9879
-35.1372
-46.1245
87.5871
115.123
42.4026
1.04591
11.7224
27.6711
10.757
-42.6063
0.132807
60.0192
55.9678
-17.0576
-59.5284
-51.6444
-25.0744
-5.54728
-44.1586
-42.7919
-18.621
68.3246
-15.4437
-27.0776
-22.3538
-18.2506
15.5607
37.5432
25.5011
11.7796
19.749
74.9307
41.5166
-35.2923
-67.3551
-78.5136
-64.6189
-65.3654
-67.8459
41.1423
84.21
45.8097
44.2552
33.5592
9.04782
-5.21487
-23.9355
-63.7996
-62.4144
50.1594
88.1122
6.40428
36.239
39.4122
10.4262
19.6864
49.5276
40.9207
14.9866
-12.9222
16.7146
-20.31
-58.5349
-47.4481
-25.1613
-18.7348
-23.1821
-49.9442
-22.569
5.83187
-72.1838
-61.245
3.89115
14.5374
20.0303
31.4584
2.68572
58.3593
118.949
26.2178
-30.7628
-14.4303
-4.10975
-19.666
-79.8825
-22.5583
-3.01658
13.8595
27.8151
-13.4759
-31.6626
-25.6662
-24.0773
56.3437
61.3477
10.4719
-14.0548
-46.2715
-31.3701
-6.94579
-25.74
27.7339
37.6586
26.7034
60.3115
35.3093
29.7042
20.7809
-21.817
22.8944
12.4942
4.25043
32.126
13.3832
-3.59511
-22.4824
-53.602
-48.1069
1.32642
95.5663
96.0956
26.753
16.8918
11.8199
-75.7332
-169.781
-148.32
-139.906
-80.7677
8.3493
72.6792
48.2451
16.5845
-39.1202
-43.2123
-10.5599
10.457
21.6608
80.2734
51.9707
16.2445
-1.8003
-7.64664
2.49071
30.8499
35.9092
6.95403
23.2783
75.8935
49.9767
-11.5092
-9.49365
4.5046
28.7636
58.0072
35.9181
-48.7313
-28.2191
41.5241
-34.6492
-45.481
-54.2885
-33.8973
-1.66993
43.6984
11.2902
-80.784
-18.4511
43.2835
-41.6615
-58.6119
-54.8488
-43.5759
-50.4356
-60.2473
-61.7801
101.279
153.193
111.175
43.5111
5.9533
-1.09777
-24.9536
-60.7518
-70.7242
-51.6475
100.275
167.016
93.0901
50.9334
13.266
-51.9457
-130.28
-150.23
-152.516
-18.3953
85.659
66.1956
-1.28485
-0.109646
4.30424
-11.4336
-56.581
-112.189
10.1351
140.385
52.8227
-31.7449
-61.2975
-62.3654
-11.1299
32.7437
23.935
75.2057
181.463
130.077
37.8946
-12.3766
-77.284
-68.1526
-17.1877
49.4827
32.9503
31.8779
58.7222
48.7606
30.6439
-16.7162
-79.0117
-94.6495
-59.6914
-31.2757
-29.2767
-97.0587
-42.2394
42.9001
8.63773
-10.0034
-58.6055
-68.0901
-45.4301
-60.2813
-42.2364
8.49513
41.1582
8.15707
9.53104
25.6363
48.0325
55.8135
36.717
36.6388
39.2081
111.639
76.556
-27.7319
-67.6804
-62.5719
-55.8534
-48.8253
-55.4497
-88.1396
97.2948
143.775
27.607
16.7809
39.9157
-5.09206
-6.09841
21.4535
16.279
4.96619
28.532
58.8182
46.1851
-8.60851
-36.6711
-67.0383
-67.2135
-37.0284
-15.2354
-8.49287
-128.018
-47.1551
40.0192
5.65388
3.55048
16.5631
33.8368
25.6905
-22.7015
-17.0787
110.806
101.351
13.2445
-8.40276
-46.4731
-48.7007
-23.3254
-46.31
-75.9978
55.5657
106.169
39.2103
-25.4359
-36.9695
-34.1957
-23.4607
-84.6261
-83.7943
38.9726
57.0006
-1.94975
-19.3859
-32.3323
7.8341
59.6127
57.4813
-21.6258
-54.5334
44.6297
50.4842
4.89241
-13.3261
-34.0683
-11.6189
-21.2674
-25.3277
-38.1816
-42.6056
48.2705
129.626
70.3819
27.6346
47.2947
23.5873
17.9417
18.7262
42.2417
13.6377
-54.6367
-75.3247
7.6474
4.86889
-16.6124
-30.3791
-9.42263
3.93479
22.6892
28.8747
-34.4261
-79.4072
-53.2795
-55.33
-55.9759
-46.1778
-71.2116
-76.3451
29.9785
131.053
109.493
54.1706
-25.4188
-22.86
-24.3084
-29.7182
-55.8763
-12.0373
66.8491
94.2508
17.205
-9.5368
-15.6763
2.23798
5.66724
-0.777853
-22.3221
-17.2397
-8.43244
99.5144
83.0396
36.3027
10.3807
15.296
42.6485
9.29315
-74.8067
-53.0396
34.8906
18.1074
-13.7198
-3.76767
14.5133
-25.072
-83.4364
-139.381
-38.0901
69.5735
26.411
-51.7879
-59.7733
-54.2355
-33.7991
-39.4252
-103.986
-5.97467
134.756
86.029
37.76
42.4531
45.1399
26.443
19.8305
-38.8168
-20.3078
162.834
128.467
22.1685
7.43307
-19.055
-1.09208
-30.7057
-58.997
-66.299
-84.8186
-59.2046
63.1775
93.1727
40.9986
14.5301
-9.69377
-40.7128
-52.8416
-31.6906
-74.3814
-104.861
15.9575
52.6851
7.87252
-20.6757
-33.1057
11.1897
36.5534
36.0353
41.7232
47.5866
28.3104
-4.29874
-22.5095
-40.4424
-42.8721
-45.081
-62.919
-109.022
27.462
117.629
46.3632
26.8842
55.9987
44.1854
18.5606
-3.38938
-22.324
-41.1604
77.0257
72.6321
-52.9132
-80.2427
-72.4794
-48.6
-1.20535
9.12293
-42.6108
23.0767
97.3628
33.1875
0.597131
-2.3797
-15.6322
-9.46455
7.68629
8.15179
3.93956
-24.3691
-3.07597
22.9885
-4.28078
-12.2515
-14.1094
11.1899
9.63264
-23.6471
-30.8473
102.432
70.2385
24.7767
11.4355
-24.7441
-38.638
-37.3966
-29.9954
-61.1879
-39.7193
76.1556
24.141
-41.8957
-22.1719
-10.0718
-0.457208
-8.58905
-47.5038
39.5956
119.083
47.131
-34.1901
-68.2148
-52.5616
-33.7725
-21.1244
-20.4848
-31.7201
35.8737
67.3985
69.1525
24.323
-6.44344
-15.2468
-14.4669
-0.714005
11.0163
36.0637
-21.6785
13.7141
32.8381
2.8942
-13.821
-27.9439
-23.7476
-26.2158
-12.3564
20.5722
3.55881
-41.5666
-40.9883
41.7505
31.6441
13.9846
-7.68938
-25.6958
-27.6532
-12.8353
-30.8866
23.656
83.7556
55.7724
-0.159308
-29.5534
-2.47794
18.0415
-20.3108
-78.9454
38.5158
78.5859
23.1364
-19.1721
-23.8238
-3.77269
-2.82261
-22.8136
-38.989
-72.4905
-25.8326
20.0904
40.4781
18.6326
33.5897
40.0193
28.611
12.3235
11.6345
9.80583
-66.2324
16.8295
46.1396
42.2708
50.4033
-11.2123
-32.1499
-17.1908
-77.9784
-69.7175
-4.06077
-65.9007
-139.582
-83.8674
-23.0449
-1.46561
-3.07089
-23.0136
22.4216
168.115
117.985
18.9887
-19.8277
-26.4802
-6.91018
38.8208
63.749
87.4703
166.103
122.28
53.2275
4.55906
-32.6383
-50.8557
-55.9287
-82.6995
-94.7946
-1.88406
36.6096
41.7162
-3.96114
-44.7718
-68.113
-70.5637
-73.9593
-57.6172
-92.3366
-68.2713
-22.2503
88.8208
52.7712
21.1053
8.15019
1.1382
-9.56622
16.457
33.3963
-48.3749
-80.0294
-2.10246
87.6766
68.8931
67.489
46.2259
6.19455
-9.57944
-2.42817
-61.2376
-10.3942
-3.09108
10.7224
36.0932
28.1009
10.4142
1.98447
-3.86418
-32.09
43.5072
96.5416
-10.0082
-57.7325
-50.6261
-38.1084
-27.3872
-15.8697
-58.2563
-8.47478
71.0675
41.6219
32.5539
18.5849
-0.385236
1.33554
1.98491
8.34976
-1.5815
-28.2913
28.7317
-10.0931
-14.7564
-41.1795
-45.8267
-35.306
-19.9366
1.97204
26.8782
-14.8798
53.5696
36.4153
-14.0739
-6.72735
-2.89674
0.832322
19.7636
5.02704
-41.0154
78.1387
57.5239
-7.19699
-53.1034
-19.5364
8.63244
2.76365
-45.8358
-63.9424
27.2464
69.3357
-0.379518
-24.2371
-28.0995
-13.2739
-3.14123
-20.3854
-74.9483
-22.9167
120.707
59.8681
-18.6301
3.97158
2.66213
10.798
13.1956
1.71753
-49.293
-2.21045
79.4688
60.8337
12.7771
-25.8755
-28.7456
-28.6517
-25.5838
-2.60039
-7.79975
-35.4593
37.3877
51.438
-1.10639
-17.1643
-25.7656
-26.2289
-25.126
-7.34231
30.2748
-30.8723
-59.7817
15.908
-6.03387
-18.8521
-5.7984
9.08059
24.2274
16.4272
-20.0995
68.7649
57.0553
27.6337
32.1032
17.7457
-13.3341
-44.5496
-44.9981
-72.7304
-37.9243
63.5783
27.1212
5.37865
2.93604
2.86813
-2.98063
2.4057
3.48597
-27.7707
11.4185
49.2327
3.35513
-8.06424
-16.9913
-3.98905
9.74857
20.5582
16.2982
-1.97308
7.46297
63.1876
10.1479
-23.1648
-35.4226
-40.8361
-48.4181
-62.3078
-87.1566
10.3269
91.65
5.39903
-53.1216
-40.844
-8.73852
-1.21501
-27.5584
-53.2164
46.177
115.372
82.5219
10.9425
6.17808
5.35247
24.2905
21.5168
-37.3459
-20.1851
52.3575
85.7156
44.4089
-2.01645
-39.2143
-39.9607
-28.4062
-3.53704
-20.3863
-14.8806
-15.9943
19.4317
7.36257
-51.9932
-65.2387
-41.5289
-22.9216
-10.2929
22.9888
-17.8977
-7.43717
11.377
26.3752
28.7515
32.1784
23.6151
-7.25
-49.2946
-18.9791
-9.12392
-60.7004
28.5619
40.9471
32.9345
58.9647
59.0398
7.89019
-11.3723
-32.5972
-9.47137
97.2535
25.1802
-12.2994
-43.9309
-53.0493
-35.6026
-17.6254
-19.0592
-13.5714
98.2952
82.1249
-13.2665
-7.61859
-14.2338
-33.4478
-36.7711
-11.0988
-59.8937
-46.97
27.84
9.97934
-33.4027
-34.4048
-11.6864
10.0461
29.7368
36.8514
32.444
-15.4855
-14.934
50.6486
8.91118
12.5522
5.27135
5.00523
6.11122
-14.8486
-2.54666
24.5991
76.8134
-3.51613
-8.72308
-7.65308
13.8353
28.591
-17.0662
-80.4086
-45.6528
31.3171
-14.0271
-60.3123
-66.261
-50.1168
-31.234
-43.1916
-67.0875
-29.7824
137.72
158.356
67.2902
5.86354
3.11246
11.8234
-10.0295
-25.4742
-60.7554
-38.7527
94.5997
127.221
52.9231
-1.03897
-22.631
-31.8325
-13.2719
-1.86813
-0.104185
-49.8294
-77.2947
15.2058
31.4083
-14.2878
-17.4239
-16.3906
-15.7936
-13.7698
25.0905
7.467
-76.8897
16.5577
24.8656
-11.1555
-9.00765
2.19499
-0.0400322
1.19357
-5.92501
-15.6168
40.6709
36.6453
-25.5065
-3.86806
12.6614
8.3352
-19.4438
-73.1261
-42.8947
93.1079
69.8787
-19.2508
3.71696
23.9444
5.78314
-5.01048
5.32202
-31.3689
23.1656
84.1768
20.0587
-40.2837
-31.9998
-18.3248
-9.97279
-0.743016
10.0998
-1.62654
-33.3555
-11.6683
-4.66661
9.28705
-17.1533
-2.56764
6.61011
9.1112
-4.48339
6.38117
-44.7222
6.07823
40.6832
6.50577
0.464729
-9.31244
-7.82228
6.03924
-20.1099
-7.41059
70.4
41.6104
21.6445
-27.309
-19.6604
-12.2352
-6.99849
-41.0552
-89.8019
-30.2355
125.692
59.0728
-24.6668
-15.5761
-12.0648
-40.1423
-48.7765
-30.4279
-57.7958
0.940828
89.7018
74.6662
16.2184
-9.59567
10.8917
9.41563
17.0007
46.3068
16.8172
-14.2199
-17.3219
29.4693
9.11028
-2.57445
-28.1865
-30.2661
-19.6097
-13.2625
30.6939
-4.56228
-74.7975
13.8048
18.8174
2.7966
-12.365
-17.7329
-29.1425
-37.059
5.52333
75.7565
4.3173
-11.6768
0.571302
1.47737
7.83273
-10.3809
-29.82
31.3913
50.781
39.8666
18.0955
-44.7949
-28.7404
-54.7678
-74.8734
30.0262
37.4937
36.482
37.7761
-1.3946
-29.1056
-41.4742
-77.5626
-55.462
50.2165
91.9085
94.1969
53.8491
54.93
60.9652
9.73802
-112.466
-110.153
18.1786
32.7665
-30.4102
-11.3921
0.0035435
13.7344
-46.2409
-73.5896
34.9203
64.3415
54.2207
-8.97974
-38.1942
-49.9919
-80.8633
-81.7898
25.3342
41.6303
57.3726
49.3106
0.253316
11.8993
0.304778
-28.4612
-69.0197
26.9204
94.8656
64.0397
-20.5098
-26.7922
-8.9357
-23.4094
-36.2647
-3.66929
58.7953
62.4488
-16.2433
-31.2402
6.31685
33.9629
20.2987
18.129
-36.0314
5.33709
32.4929
-13.8913
-41.7902
-25.9628
-43.8807
-40.3625
-80.3961
-63.7672
88.0376
81.2813
25.8881
0.180108
-17.1937
-23.6951
-65.5813
-4.57708
25.6764
-3.32931
9.29107
-2.60297
15.7102
6.38536
-34.6156
40.0577
74.1138
48.1931
47.2277
43.7347
0.812067
-34.7255
-88.1832
-27.1156
43.6757
32.0111
34.422
-16.3152
-59.9868
-51.6864
-76.6406
-51.3329
35.6698
3.77085
14.7159
-2.88045
-21.9626
3.48017
35.7685
10.7639
-29.6144
46.6554
55.0505
26.2709
-20.7496
-12.3042
5.69945
-37.2139
-49.9102
14.2438
87.0553
54.2342
10.6457
28.616
33.903
-22.9875
-47.3843
-67.8662
-12.1251
27.248
4.02046
-17.0372
-12.3537
-7.88591
-2.16373
-31.0465
23.5627
55.0193
29.4252
4.72427
3.30182
-8.73803
-46.6565
-111.294
-59.7803
32.8622
6.44784
18.3249
5.88344
-8.08487
-10.6419
-46.0892
25.7453
37.0167
15.1826
33.8251
12.7181
13.7407
24.4404
2.36079
-45.8641
12.7168
18.6462
51.8328
28.817
-25.5226
-22.8384
-38.5023
-32.4394
23.8791
47.0625
36.5316
-1.81386
-11.3893
-12.5763
-13.7495
-33.5215
50.8831
30.7467
-0.0693322
-9.98435
-48.5751
-46.3296
-22.3891
-19.6066
20.4997
15.8509
11.7787
-11.3216
-24.3046
-7.47943
-10.1391
-31.1902
33.4388
47.1474
47.759
45.7481
-6.42389
-14.4114
-48.6976
-106.087
10.9011
62.7016
7.77581
-11.94
-36.2171
5.25022
36.4423
30.8038
13.0075
-39.5952
48.2281
65.2612
11.4912
-17.6039
-27.5207
-15.7035
-29.2405
-25.9398
-27.7507
49.7951
27.9658
-16.4445
7.01043
12.061
-1.29914
-2.42459
-11.6642
-29.7289
11.349
19.7259
-24.5676
-25.041
-49.1451
-33.9874
-21.8874
-42.5307
34.2755
50.1275
79.5421
74.7032
-3.83682
-13.0307
-24.3568
-38.6503
4.23356
-0.798996
5.84976
28.7843
-8.49132
-14.8796
-31.1863
-28.314
51.0426
45.3216
48.2246
32.5893
-26.5429
-39.7347
-47.3407
-67.5149
-46.0686
21.7246
49.846
55.1097
14.1895
15.1657
19.34
-44.9867
-71.338
17.971
35.6765
23.8849
-29.0289
-33.9229
-20.9412
1.67822
-39.2419
68.1696
54.8288
49.6242
8.93223
-37.4167
-19.05
-27.1843
-78.3434
8.95122
28.6136
42.5934
41.7681
16.9086
10.9066
9.54072
-27.9517
-89.3774
-64.2024
24.0996
16.4742
-14.6415
12.5419
17.9934
17.4887
0.689477
-48.7221
-2.85799
99.4974
19.1954
-21.1067
-27.9836
-20.9238
-23.6199
-24.2607
-59.9662
2.94272
111.238
69.8429
1.03651
-4.15691
-19.6973
-7.54054
13.3559
17.4041
32.6579
41.0363
10.4499
-36.955
-44.9933
-36.6107
-27.355
41.6624
21.6915
0.651973
16.903
-19.1284
-39.4289
-14.229
-43.471
15.6455
6.49384
5.46185
5.77383
-33.0705
-48.7252
-27.1192
-52.7879
15.4269
54.4679
25.551
44.4697
22.7196
3.67265
-16.4601
-48.1209
-66.242
51.2518
71.7037
60.7976
22.6905
11.9353
7.69799
-5.09424
-4.82486
-54.6303
-20.7722
27.6203
-12.2734
-33.2483
-11.4673
2.41129
-5.35949
2.38737
-10.2172
46.1284
86.488
-15.1977
-47.4263
-28.5699
-4.43029
-1.12457
-32.288
-46.6076
18.5155
68.6264
46.265
37.8793
-0.189486
-21.3855
-7.03762
-34.3907
-9.19203
-1.15169
12.0753
10.6533
0.264469
-4.86651
-14.3286
-30.0666
14.0692
-23.9994
-39.1168
-31.1367
-30.0301
-1.44866
-28.9318
-34.5536
51.8161
32.0545
16.9681
36.0705
3.85764
8.08118
26.4705
26.8201
-35.655
-8.38793
59.8415
74.6348
-5.65701
-15.2315
4.99786
33.0762
21.0091
-38.4868
-71.688
-12.1251
-24.2617
-24.4278
4.79589
28.0264
7.20639
5.63496
-25.5169
-29.3081
50.0513
31.6164
-24.9234
-22.2844
-15.341
-18.0949
-16.3704
-66.289
-68.4931
45.8909
89.99
55.2619
-9.76656
-6.7064
-9.85769
-8.69245
-45.4334
-59.7849
49.9385
106.838
49.8599
3.49565
-0.284904
-20.3944
-40.9907
-26.8339
-33.4674
-30.379
86.9696
69.0583
49.7739
0.957138
-22.8933
-15.4471
-20.2251
-11.522
19.5082
-52.6515
-116.726
-6.38752
27.9135
-11.172
-23.0614
-10.9574
12.4193
27.0873
46.278
62.0139
-37.8383
-82.3271
8.21525
64.5575
30.4093
28.5153
22.6679
4.5485
-0.27288
17.8863
-3.051
-50.3515
-73.4788
-44.1842
-16.5539
-3.84496
5.55433
11.3503
-27.2673
-24.9836
27.5138
42.2346
28.1438
-3.5977
1.50599
10.4409
23.7554
19.3872
15.618
5.83288
46.4589
-13.7093
19.5836
34.4414
10.4445
-6.23369
-0.693985
1.25267
14.4537
12.8759
-77.7951
-41.142
-10.7207
-24.6853
-18.9973
-11.0571
-19.9886
-31.2549
-22.6822
2.04114
56.3712
66.961
17.0195
-23.7005
-31.8646
-16.7746
-18.0301
-54.4004
-45.2569
70.7378
103.1
27.1325
-26.6101
-31.7586
-19.4847
-19.0749
-45.9945
-71.8397
10.5951
99.4989
31.2862
-18.2721
-21.89
-8.34475
10.1735
13.6607
-3.74921
1.20003
50.9438
98.396
40.9408
5.84554
-18.7871
-26.6548
-32.5042
-31.5294
-10.349
-16.9834
7.36728
-1.49587
26.8381
-11.0456
-19.5511
-19.2407
-13.7475
6.38374
16.165
6.06199
-27.2978
-25.6544
36.9409
10.1868
-4.25847
12.4697
12.0598
-12.8997
-41.9136
-68.9841
-35.3206
83.4963
22.3597
8.35359
15.9585
16.9502
7.62978
5.02503
-1.96909
44.8606
75.1886
-19.8581
-55.164
-32.5673
-27.3044
-32.0813
-18.5005
-1.55814
-26.6644
64.052
77.0937
-13.6401
-28.0918
-22.4687
-12.6501
-13.622
-8.54793
-0.509439
-10.5741
-46.6302
30.0049
32.9748
-11.8935
-15.4654
4.75536
32.1769
22.4256
-21.4181
-9.10557
74.9751
22.9902
-24.2891
-28.5512
-22.4634
-3.98764
6.08769
-30.0995
-20.2781
46.6572
37.6527
-36.3333
-56.3816
-33.8737
-21.6764
-61.7461
-24.9386
84.6935
90.8296
104.509
45.6037
4.53339
-5.83888
10.5694
-14.3331
-59.3998
-20.7648
65.5489
25.7598
-14.1423
-5.04725
-28.417
-49.7262
-36.1359
-34.9964
-50.0959
15.1361
28.428
30.5654
28.1593
0.608988
-41.9521
-60.4572
-36.7752
-24.5076
-43.1834
29.336
49.3026
53.9174
29.6907
30.8441
20.028
0.954839
6.14245
37.6959
32.2407
-36.1607
-27.6355
-13.1243
-1.175
-16.1733
-40.6879
-39.4454
-59.9397
-40.0045
124.308
59.2101
18.8712
4.77044
5.72111
9.22651
-9.54672
-59.0299
-9.46428
88.2905
80.6289
31.9369
-42.1412
-42.4854
-43.222
-34.8937
-29.7762
-48.9113
21.883
76.0841
22.9703
-14.3792
-33.8785
-21.2319
-9.8508
2.49826
13.8788
13.9908
-20.447
-2.9098
17.135
17.8531
-1.83717
1.22572
9.42438
-10.5792
-56.9875
31.7602
9.57892
0.558579
-12.1888
6.13027
7.19948
-36.7933
-59.5327
10.5446
13.0845
35.722
16.1941
-38.4253
1.64501
-22.6047
-20.9842
-6.08433
29.0744
54.9194
76.598
48.6298
24.8623
14.9323
5.67292
-56.5305
-39.4803
19.7279
-1.40656
-46.1549
-32.4451
-3.28277
8.22981
-14.0178
-48.2271
-44.5578
13.0694
86.5873
45.3957
25.5541
25.8475
2.55405
4.94476
-18.247
-68.3217
-71.3828
7.41207
25.5058
40.2038
22.8251
15.1866
18.4448
2.44904
-48.2575
-45.0503
57.8421
32.4003
-46.9644
-44.2273
-45.401
-25.0477
-18.3327
-35.5954
-65.711
65.4511
144.265
29.5246
-3.01332
9.84023
6.31507
3.47136
-19.178
-64.8442
-30.1808
63.3839
42.0416
-8.26388
-14.2079
-8.8924
-6.13064
13.5831
20.3796
0.0273518
30.6094
43.9255
62.4448
14.9368
-23.9607
-26.8247
-23.3496
-27.1938
-33.8836
-20.6061
6.87907
4.44913
-45.5544
-60.8705
-38.5597
-21.6369
-18.1109
-16.1548
-22.4825
38.1733
127.93
39.4392
-8.99485
-14.5527
-4.14403
-0.856987
-35.9491
-73.6341
-14.5193
72.8441
14.6487
-12.7845
-8.85931
11.7456
29.87
40.1002
13.1217
16.8463
95.2987
73.2692
-10.858
-58.3783
-63.4413
-22.3322
7.05779
14.442
10.6237
17.3988
50.1658
36.454
7.75691
-16.2388
-29.0607
-39.235
-51.6887
-95.5352
-49.0496
41.9569
-39.3442
-46.2592
-30.5399
-9.41245
-6.26665
1.17166
-23.1833
16.3707
79.6127
66.7342
1.87441
-38.7809
-24.4796
-3.61746
19.5688
2.75617
20.8058
113.832
45.1372
-30.148
-34.6559
-21.6922
3.0616
-5.91899
-57.1332
-33.99
7.31484
-4.74533
24.4158
30.0614
22.7504
16.0915
46.0674
39.3883
27.1373
7.59155
-6.73144
-3.63915
-3.07441
0.608188
17.4622
-1.47023
-66.7709
-50.6198
10.1113
19.0195
-35.0796
-31.1564
-40.0284
-40.2064
-21.9905
-14.4895
-33.9961
14.9759
48.4554
22.6645
16.8614
20.5612
24.5067
6.97236
-65.3979
-66.2919
57.761
96.7787
50.6551
4.21347
-14.2575
-2.24215
-11.5029
-48.1371
4.9766
30.3785
50.1479
39.9896
-32.2591
-39.8709
-27.3528
-55.8828
7.2093
8.11007
32.7715
30.6153
-4.21295
-7.98275
-19.3565
-85.5128
-19.2148
14.565
10.6113
24.1778
-11.1768
-16.3425
3.17469
13.4276
-33.7864
26.0494
37.3236
46.2929
19.341
14.9026
23.1442
26.8403
-28.4755
-29.6224
34.1235
67.336
-4.10601
-33.8453
-35.3748
-20.2568
-0.619879
-39.6446
-93.7308
18.5267
63.7219
-6.0197
-10.7218
13.5651
8.16237
1.20903
-49.6021
2.1269
13.5657
4.69853
-19.6015
-23.8997
-24.1787
-37.841
-34.69
41.019
31.0526
50.9928
75.3313
-4.80945
-18.0109
-18.3085
-56.3492
-9.72122
17.8134
74.0293
69.2931
3.29467
-34.9034
-46.2096
-56.4846
-45.3611
8.2729
52.5145
52.2163
22.6878
9.64974
14.8412
22.7048
-37.7389
13.8462
43.5531
43.3318
7.25352
-44.04
-97.0428
-100.569
-100.298
11.0696
53.8688
34.0718
50.3405
28.8261
2.06906
2.87986
-42.4915
7.84125
36.2269
41.3789
44.2502
-6.38917
-27.4244
-23.1618
-70.7127
-25.1394
43.0343
33.4607
25.4968
-16.2045
-34.3612
-29.7089
-40.1061
-42.3649
16.8244
87.7876
52.0602
6.71729
-10.3983
-10.837
-7.4196
-30.1613
-70.2533
36.2833
49.8114
6.70265
-24.095
5.23512
14.7621
16.0955
-6.19647
-47.6476
46.4134
28.5052
6.30595
-30.4684
-18.8933
-31.2014
-69.7786
-56.6814
58.2495
71.7154
74.1747
16.3324
9.17536
0.204809
-16.7853
-19.98
45.0933
50.7072
45.2726
28.2773
-56.8832
-87.8268
-132.288
-130.443
-15.1612
6.99453
47.414
67.7782
17.5498
13.198
33.8986
-33.0786
-34.7192
91.6234
53.7262
42.2843
0.670219
-18.4485
-9.84221
18.3505
-22.3588
49.638
55.3647
21.7857
-23.0569
-30.0443
-30.0125
-39.0233
-83.4163
3.05645
20.1647
17.5732
2.68171
-66.0064
-32.6104
-17.1347
-20.1038
17.2744
6.43301
8.24321
18.3435
-10.0283
0.747022
-27.5172
-50.3108
51.6068
78.7768
48.154
38.555
-25.3057
-29.6561
-2.85513
9.54994
-69.2674
-26.9692
74.7631
29.5099
-19.5604
-18.1157
2.33847
12.93
-31.9469
-6.98925
100.485
130.391
23.2136
-24.2935
-24.0923
-32.049
-53.7486
-66.5393
-68.0064
17.0358
27.6593
-13.7885
-56.9602
-36.0354
-14.2239
-15.0521
-11.1091
41.6352
44.9291
43.349
16.2793
-8.19745
-21.1457
-60.4772
10.5144
79.4262
49.7646
35.9295
25.849
-5.00848
12.6297
-17.0627
8.55952
13.7583
10.5576
28.7244
28.6199
1.31806
-22.9139
-77.771
-65.7669
-67.4698
-56.4401
-7.77976
-28.4376
-45.4896
-26.7735
4.29018
9.05426
-8.82957
21.5657
92.7291
50.406
30.3423
18.0027
8.20065
8.81616
-0.0562745
-18.7549
40.5787
23.7305
19.0365
29.8829
33.7661
8.75196
-24.2809
-39.2295
-6.67692
43.9889
28.7994
-7.57274
-38.6499
-47.6943
-52.6088
-73.661
-102.704
-45.3945
28.6881
47.9022
24.9885
11.2572
-0.412258
0.705305
-19.8661
13.5726
48.9799
42.3061
11.8098
4.84617
7.43252
-3.42661
-46.9895
-7.15821
41.6857
44.9658
54.8678
15.8462
-30.6009
-21.728
-82.5254
-26.8807
51.5741
52.5109
49.4781
3.56204
-13.4101
2.24358
-30.0034
-68.2372
9.99266
8.91489
11.3168
-14.4251
-26.1664
-12.138
-19.2817
-56.2135
14.7037
18.2039
54.822
22.6085
-30.716
-29.9923
-33.0513
8.38189
58.0078
36.0511
18.1327
13.6674
-47.786
-69.458
-83.894
-33.0936
35.4332
27.1833
53.8947
67.543
11.551
30.1727
-2.51164
-52.5718
46.8903
37.6465
37.0723
23.1884
-19.3282
-15.29
-5.75363
-1.33918
-38.1976
-54.2315
90.2645
80.3469
0.158272
-25.5497
-55.6908
-49.789
-49.2999
-31.6782
-50.0278
-53.1927
-25.9756
30.6357
47.5638
7.3026
-25.2298
-10.3017
14.2121
36.976
47.092
30.66
-65.46
13.9754
7.6924
20.5982
36.3368
29.8235
-6.84782
-4.92949
14.4148
35.0087
-1.50247
-20.711
-7.47799
-11.0054
-41.7307
-58.0963
-71.5337
-83.9744
-9.3131
97.5768
80.5458
3.54394
19.6289
32.0685
22.2757
-19.0118
-40.9529
24.3438
104.208
70.3192
-21.4727
-43.0858
-31.0255
-14.2621
-5.16148
-27.8545
46.5949
65.4987
12.9682
-53.7982
-38.1515
-41.0201
-70.4332
-87.3422
35.6244
93.5074
38.3583
-23.5894
-45.1621
-35.6781
-40.0839
-70.2174
-17.8115
14.6611
18.7418
56.6551
15.5815
2.81557
14.6469
-0.382692
51.7661
37.2377
18.1272
20.6966
-32.8138
-26.9762
-1.35652
-29.4418
-7.99791
81.8702
69.7604
51.9429
1.58951
-14.2905
-6.19005
-3.89805
-12.2068
-21.3232
23.5423
26.9575
-33.663
-81.4799
-51.8643
-20.3362
-29.3635
-67.0101
-59.5276
43.3619
61.7981
8.53192
-7.50776
3.99368
2.10851
4.51862
-22.9886
-43.1204
52.7016
41.3921
-6.52887
12.4433
20.8267
40.2541
19.7891
21.2246
36.1352
28.5401
37.9673
-7.54683
-20.6901
-30.1434
-83.6984
-39.3671
8.86466
-10.3573
3.5194
9.14413
-55.6151
-39.4351
-72.0257
20.6853
83.9517
52.8076
43.6201
23.9837
-9.73541
-4.94052
-25.3832
-82.3441
-33.6465
35.2932
42.9199
25.2491
-5.88041
-1.50379
10.7499
24.1223
-10.1351
31.4071
34.0018
14.2674
-3.74571
0.899217
-0.954038
-41.3407
-93.9146
23.2866
28.8293
13.2989
-21.9254
-46.64
-1.20669
4.02215
-31.7258
8.17148
49.3494
30.4486
16.5662
-9.56197
16.6239
-1.70331
-37.0862
-61.7008
-20.7635
54.0706
58.1768
-17.3568
-18.5828
18.4579
-3.13206
-72.1486
-56.7728
39.615
46.4627
20.6712
1.57037
17.5116
18.0962
-13.7606
-52.0225
44.5813
29.4623
19.8298
3.67068
-4.44372
12.0818
-6.76469
-28.3603
-55.9196
1.24397
13.2607
27.8118
-13.4034
-5.79283
-2.01911
-35.2893
-45.1071
53.9156
40.0004
33.0635
-37.605
-32.4935
-1.46522
-17.1361
27.836
54.6278
18.2093
44.6604
39.0649
-17.2747
-31.9522
-76.5179
-46.9919
-26.7556
-39.858
-8.67496
33.0024
-9.31555
-14.1571
-36.8056
19.4503
78.8886
36.538
21.8663
-11.964
-10.6008
8.48913
-6.76802
-25.9003
63.9842
83.9443
74.9416
17.154
-4.42462
-16.1289
-36.0205
-52.5809
-107.963
-23.2799
67.0229
-16.5909
-59.611
-38.9436
-10.3118
-13.9796
-20.8034
-52.722
-16.3883
95.1315
10.6728
-3.88975
7.0674
-4.02681
24.0367
20.7617
-20.4217
85.7028
96.4288
34.8045
7.72403
-10.2965
-26.8628
-24.9576
-44.2005
-9.90275
-15.5383
4.09781
9.05397
-19.8474
-30.9691
-52.1548
-76.6208
13.1924
44.415
26.1863
39.6658
-12.578
-12.9331
0.188836
-29.1138
-11.0855
40.706
30.6109
33.5823
3.99391
1.89297
1.05931
-1.35055
-50.3514
-6.08307
36.3265
39.4245
-23.3448
-45.8362
-10.338
7.75354
-41.6031
13.7005
30.6442
41.963
19.9212
-10.049
5.62673
-9.75315
-10.4988
1.87965
-4.74575
8.24735
26.048
11.4093
8.61285
-23.7703
-7.54777
9.83556
-2.60458
5.85478
13.7267
-12.0918
-42.3274
-81.425
-30.2499
-6.80626
45.7488
47.103
17.9996
2.14458
9.14481
6.34771
-4.49589
-68.1251
-8.07593
31.0325
-2.0011
-5.0451
5.59876
13.2253
21.5247
9.17124
-26.8333
-24.6709
52.7438
2.74157
-41.6275
-8.91484
2.13132
-3.57902
-19.2143
-76.1729
-29.048
34.9258
-4.29004
21.7884
18.5998
11.562
7.28365
-12.0099
49.8474
36.606
47.3814
68.1802
-4.17012
5.57653
-4.18383
-12.4664
24.0449
7.01107
-6.37255
7.96993
7.06548
-4.08573
-43.4445
-65.3556
30.6536
40.4619
8.17908
7.7044
-25.5765
-27.8767
-19.0511
-39.1919
-28.9231
-24.1496
-25.5984
-31.6959
-54.0824
-20.9305
10.6216
21.9718
-11.1287
33.7173
42.548
39.6101
-30.0046
-49.5402
-11.182
-17.3247
-72.8546
51.8713
115.392
106.348
42.2015
29.9413
14.3564
-29.5605
-130.159
-31.7703
50.3221
6.62544
8.39719
1.91217
18.0694
39.1407
30.7912
-9.15079
10.7617
49.5161
20.3446
-66.3316
-84.153
-49.4755
-47.7541
-95.4082
-44.7666
85.6977
130.667
45.4848
-7.8881
21.2773
16.8357
-31.9075
-53.7861
0.329927
-3.66687
2.89114
-3.54652
-8.40371
12.6512
-5.14968
-28.8714
11.313
31.0293
38.881
11.8924
-40.7786
-13.8706
-2.50097
-29.1047
7.43839
39.5847
10.953
16.1957
-7.90535
-26.3077
-22.4142
-34.7502
19.0733
29.3374
7.27112
0.923714
-14.1523
-30.7022
-36.3097
-33.1288
43.7471
34.7551
21.9584
26.8613
25.8801
6.1294
-48.5967
-19.9356
35.6515
-5.62974
-9.18825
-1.20932
-33.3714
-26.2831
-25.9094
-12.6353
-30.6157
24.2687
105.279
92.4534
15.5729
4.38353
-11.4205
-27.6312
-42.9105
-88.9161
-12.1944
87.625
8.92345
14.5723
22.8346
25.5594
19.2654
12.8513
-44.8242
-73.0984
28.2535
0.312086
-31.9974
-28.207
-49.3575
-31.4924
-28.4686
-22.1611
62.0761
100.197
67.6841
-17.6987
-26.6703
-31.3405
-44.0285
-66.5841
-22.6958
31.0722
54.3663
66.1079
14.2237
-18.9057
-21.7915
-54.7624
-52.9637
16.4231
68.3994
55.2026
13.7144
19.5574
22.0898
-11.407
-29.9827
-61.699
-1.72827
108.965
48.8399
4.02088
4.76358
-4.32002
-21.8721
-24.2718
-48.9453
25.247
11.7778
-34.8684
-57.157
-25.4733
-26.5753
-27.1678
-49.9693
7.38119
21.4419
48.1155
24.8511
-23.8159
-9.37017
-32.8501
-38.1382
61.6146
54.81
13.0063
19.8387
17.6712
27.4601
26.3994
-7.35354
29.0515
21.4395
10.8796
12.7324
-39.4705
-48.2143
-57.3231
-104.812
-62.1624
39.1809
41.556
63.3007
13.6722
1.1882
19.9387
27.941
-21.7283
-14.2634
34.9524
35.1009
-17.3227
-47.4507
-45.7634
-12.0135
-10.3428
-7.98009
6.22675
113.893
59.7819
-28.1247
-7.92687
11.1622
-11.0091
-25.7469
-58.0919
-0.918404
28.1738
18.5318
-26.2457
-44.0446
-32.5994
-15.9931
-49.0507
8.97357
61.1174
28.0794
41.4195
15.1071
10.4535
-19.5626
-42.3706
24.6484
33.5983
26.7061
35.5733
2.62901
0.981531
-9.98699
-47.6551
-82.4024
8.42811
37.4996
50.2314
13.311
-31.6174
-4.55027
2.63874
-69.1831
-68.5308
38.8489
55.9616
-14.6486
-31.3304
-20.5624
-6.68407
-11.9094
-31.8077
-22.3373
26.7573
63.8986
32.3402
18.8482
23.8269
16.1271
-13.522
11.12
27.8149
28.9407
18.5453
-21.9038
-10.3042
-16.9723
-36.9047
-17.6094
-0.214219
40.1046
49.5334
21.8513
-11.8818
-3.4111
-22.908
-34.3631
-54.186
1.24889
15.1216
10.9206
7.90591
19.6569
16.6357
-13.3394
-24.2007
-66.3566
19.1058
32.99
7.04203
-41.396
-40.1964
-26.0797
-26.8519
-15.1745
-83.0489
-16.8172
111.909
41.5369
17.4552
18.2999
7.03223
8.80676
-33.0946
9.06744
97.9612
76.0892
13.8613
-12.6966
0.906385
6.03788
-13.6804
-36.4034
5.83316
8.56731
26.3166
-5.28188
-40.8271
-34.0413
-56.3861
-21.191
28.2188
24.1616
40.8621
-1.84502
-38.9785
-21.6109
-55.3882
0.159082
-1.74786
-15.6199
6.02372
20.5571
-0.882761
15.5165
-15.8321
-14.7959
78.88
33.4561
18.7999
0.0844461
-16.0969
-4.16747
0.43034
-31.9931
-81.8527
-4.83099
49.8487
5.03071
4.51272
4.12644
13.6257
14.314
-13.8662
-22.6375
45.0914
38.316
-43.2483
-17.3126
17.4788
15.8265
-12.5689
-25.0486
-56.123
15.4799
73.2728
39.278
1.48221
-20.171
-16.5159
-18.1657
-38.6091
36.9395
23.6007
4.76657
2.17512
-0.0920741
-11.0031
-32.6215
-79.3177
6.98188
71.0552
48.7917
42.6745
-20.4177
-58.5603
-43.7648
-36.7378
-72.5294
-35.1606
86.4507
93.4163
36.7652
34.8961
41.5571
10.65
-27.9564
-84.5738
-82.0168
51.0164
-16.9946
-46.2724
0.651753
33.3535
29.8008
-24.7999
-60.721
-2.22721
82.0326
61.6033
9.82255
9.72485
-11.546
-12.034
-34.474
28.9036
26.8283
16.9748
36.6635
4.24213
-10.3223
-52.0373
-85.1345
29.8152
26.0733
36.3486
36.2061
-6.29698
-21.2738
-49.4951
-121.083
-28.3174
38.515
51.759
58.2911
8.06641
-0.945082
0.906151
0.0523809
-60.496
-41.3901
17.6541
33.3332
-9.65443
-12.9794
11.2597
34.2916
20.5213
-38.2513
-49.4887
77.3189
22.9866
-23.8265
-36.3554
-42.9033
-50.3729
-21.5972
-19.2053
-24.4652
129.842
94.0176
29.4501
25.4902
0.699561
6.82004
-11.8449
-8.23514
41.8196
35.1718
39.7879
-10.8331
-15.8914
-25.3691
-50.1399
-18.7354
4.90558
-9.23621
-6.00791
-0.410964
-69.5292
-69.2268
-111.908
-8.98208
51.5059
46.1186
37.7128
19.4133
-24.831
-0.885688
-1.5573
-60.9383
14.6544
8.80559
23.3731
35.8005
35.986
35.9109
46.8082
19.0443
-11.6664
51.4974
42.9221
-16.5663
-60.4337
-58.8762
-43.8773
-89.074
-64.6369
63.9507
75.3758
67.0683
7.25755
-4.78845
1.86821
-35.7895
-29.2909
33.3521
-12.8581
-6.91843
8.12121
-9.33704
11.5042
-18.6435
-59.4443
16.5273
35.572
46.2492
20.1113
-24.1577
0.010098
0.462515
-34.4989
-85.6317
7.40342
96.6545
48.8482
-8.42097
9.20698
24.0606
-7.36095
-58.5997
-67.9162
71.7662
86.5774
12.4924
-1.1879
11.4519
-5.06651
-47.3388
-58.8814
-80.619
-25.5137
26.0724
-12.1853
-36.6984
-18.3318
-22.1406
-18.1715
-31.8703
42.6491
42.8273
56.8977
-9.18913
-4.3549
7.50295
-8.53414
37.1599
108.552
70.0612
41.8458
34.0777
6.57007
-0.692872
-67.5814
-56.0625
-50.6412
-61.5037
-26.5508
13.2374
-17.3672
-19.293
-31.1913
-9.50576
9.63266
32.3688
43.601
28.9993
-10.2579
-11.9411
7.52059
5.49895
-7.47031
66.1766
53.534
0.0833834
-7.85052
5.21944
1.13227
-15.8368
-90.0167
-40.2141
28.8955
-18.612
-31.2427
-40.796
-16.316
-6.4467
-70.4476
-32.0102
83.9872
137.595
90.5218
4.77729
3.91118
-17.1809
-25.0144
-31.52
-76.4727
14.7609
61.0194
43.7112
34.5736
14.7999
-6.91051
-24.4713
-68.2107
-66.5163
20.5204
3.65027
-47.0669
-48.9579
-29.1931
-4.92428
-2.72519
-52.7602
25.2775
86.4402
91.0804
43.2385
34.963
18.1675
-4.22853
-31.38
-62.1896
12.2837
77.7622
72.8695
33.0196
18.568
-19.1293
-38.0546
-41.4528
-85.4555
29.7155
54.7526
-10.061
-57.9459
-29.9124
-45.9333
-58.0777
-77.7941
-12.476
6.76573
39.0352
9.97968
6.41047
3.74582
-16.8608
-47.87
14.5832
83.8808
62.9875
64.5168
4.48472
25.5558
-2.9417
-60.9913
58.0235
56.7587
28.0293
31.4932
1.14291
-14.8254
-19.3821
-64.956
-84.715
28.8458
16.4258
22.7502
-17.0158
-61.9994
-41.0263
-45.679
-84.6349
-8.5521
107.623
90.5348
-5.10057
-23.694
-14.0971
3.99597
-6.05427
-33.3092
-8.77944
47.1508
55.6211
-3.56938
-3.65347
3.81685
-9.4901
-56.104
-32.5128
70.0709
55.8028
2.54461
-57.8188
-27.2226
-33.243
-59.6777
-15.0526
75.0693
53.7677
54.7139
41.4137
18.2986
20.1153
-39.3208
-13.9127
52.5562
10.28
8.2902
6.97921
-20.0588
6.10169
-10.0144
-89.1592
-38.9318
-5.84829
11.3031
8.49069
-39.3409
-42.7994
-7.9744
-16.6857
-50.3766
0.654634
68.2001
46.4897
4.74995
2.90225
4.87678
-0.54395
-44.7884
-30.0713
24.8917
34.4669
23.5873
3.69736
23.9374
14.7498
-54.3595
-32.0382
45.1266
49.9303
46.6491
11.6762
-31.7029
-33.6423
-87.5792
-32.4466
61.0921
42.4265
42.1204
8.00651
-27.7708
6.35816
-35.1607
-36.8153
69.2552
42.2669
36.5554
13.1879
-33.689
-17.9718
-6.38129
-44.7885
-68.0187
15.5237
17.8415
-5.64754
-38.2503
-17.408
0.323663
-15.2986
-66.6452
-2.44725
60.4467
86.234
11.5804
9.35459
21.9541
14.8724
-6.63672
-47.7754
-24.7349
49.5639
39.441
-1.28867
11.1558
-1.49109
-26.8073
-61.2131
-23.9289
24.6443
37.4728
4.9818
-23.0311
-40.3923
-48.4031
-76.1699
-28.9476
76.1442
52.6332
59.6905
33.1583
0.374851
16.0918
-25.1688
29.8217
35.7922
8.42153
18.4052
-7.97278
-21.7977
-4.24289
-19.9735
-38.7978
-34.5382
6.3004
19.0642
1.55412
-48.8918
-30.3502
-5.14073
-5.5743
-50.7004
-34.1077
73.4694
53.116
19.4945
9.23462
11.0393
1.91303
-10.6558
-34.4114
36.5566
58.0833
29.3414
-6.01744
13.5842
-10.7823
-58.7521
-78.9532
-19.9842
53.8672
47.6604
39.5682
-9.59406
-14.3903
-0.686374
-7.38382
-67.1802
20.7102
55.9251
41.123
-25.1784
-30.8211
-10.1964
7.89375
-47.1095
3.23221
15.2185
-2.48086
-3.7166
-37.1298
-28.3293
-22.7292
-38.9608
-39.7432
55.0865
108.448
59.8027
4.60528
-12.3382
-8.37261
6.04527
-40.4677
-58.9826
27.6776
71.7562
7.40589
-4.35428
-13.7981
-12.846
-11.4678
2.43425
-39.0564
-16.5402
77.5002
29.7793
-9.99707
-6.81895
-19.28
-18.3757
-15.0176
-40.3025
32.3459
49.4602
7.71324
-3.73803
-3.26091
7.57821
-17.0718
-35.1013
39.1895
11.5929
22.2461
9.32684
-59.378
-77.1664
-77.2343
-57.4628
-8.02979
64.7283
68.0151
80.6714
51.6306
34.6025
-3.84913
-43.5198
-75.4392
17.944
53.2279
47.1556
-23.1916
-19.9184
5.36221
28.9263
8.7779
-47.4669
18.9698
41.899
5.45308
-38.9396
-34.1383
-30.1096
-77.2111
-93.5098
15.3714
78.2352
61.838
2.22316
-6.49328
1.34217
-23.542
-43.9295
31.758
49.6968
36.6454
49.9993
22.5274
5.2871
-13.946
-65.0531
-5.54043
0.640707
-0.54359
27.6935
-19.5526
-47.0081
-45.3007
-81.0143
-12.1794
104.105
52.0486
43.4093
-3.86692
-13.4724
-17.701
-6.52868
-41.2498
-13.3995
30.8034
18.391
-22.0862
-23.8132
-5.94428
22.2816
13.0256
-44.3381
-31.7715
110.08
71.084
-20.3322
-28.9209
-19.9674
-29.9461
-24.7217
-72.3114
-52.6604
90.9791
53.6038
13.5721
28.894
14.585
15.6015
-5.21234
8.92296
19.2132
31.8038
36.6475
-34.5217
-51.2056
-53.0443
-42.0307
4.10644
64.1384
36.8684
49.9693
29.0697
-46.9197
-48.3874
-67.5461
-35.5489
6.72571
9.04715
6.58753
-7.10766
-21.6361
-1.33556
13.1497
-43.3321
-85.1413
17.609
64.7709
41.286
-0.281393
2.64718
16.256
21.3178
-32.0046
-10.3661
55.0182
25.8111
-20.6577
-24.0921
-4.16669
-13.9659
-81.1341
29.8222
87.3032
56.7138
59.5391
-5.85369
-14.6039
-11.1437
-69.0914
-73.9447
52.1138
41.4854
29.9448
23.1479
-12.9359
-2.53008
-2.66996
-26.1723
-45.6133
26.5338
48.7487
-4.92826
-35.5594
-32.3401
-15.5323
-63.2498
-120.161
-18.597
72.9347
74.7775
10.5435
14.067
19.962
7.33903
-7.87631
-44.1644
-88.5088
41.6419
104.813
50.8488
50.0297
9.13614
-3.74008
7.72189
-6.26435
-28.9699
66.5297
-3.40658
-34.6665
-24.9372
-52.8614
-48.2031
-65.0124
-38.188
20.4247
31.0951
62.8207
10.5946
-12.683
-22.443
-41.1486
2.65931
-1.97992
-6.68355
24.0655
48.5728
21.3096
1.13614
-47.3058
27.626
46.7193
22.1502
16.3838
6.19725
-46.3565
-30.4084
-44.6992
-77.8277
-8.91711
104.92
97.8299
35.9948
16.3708
6.30746
0.666848
-30.3202
-94.8043
-9.49043
70.6315
5.33184
-11.5628
3.24553
-5.92669
-33.7494
-62.1932
-79.7693
50.3926
80.9519
17.3105
-51.305
-28.7129
-29.8243
-30.87
-12.7384
-35.8584
-6.26229
80.3526
19.3349
-4.81833
1.27358
7.57016
2.98365
-21.5852
23.1141
70.9641
83.8581
28.7104
-0.795916
-13.0538
-36.6759
-63.6696
-25.4255
29.5389
22.5375
35.7207
31.7955
6.61731
-19.8152
-51.841
-116.185
-59.9271
-3.9356
26.3943
18.8039
21.4473
40.4016
12.4135
7.90907
-35.3934
-24.76
110.273
59.1735
9.28467
-9.02197
-19.8201
-36.2541
-93.4874
-47.0106
21.0941
41.2091
6.58163
2.14038
26.234
10.4692
-44.7823
6.48459
36.4265
14.8919
26.4176
1.0483
-44.0434
-48.467
-100.193
0.261124
91.2734
76.5116
77.3349
36.4089
-8.86251
3.76824
-52.0486
-17.3522
12.6455
-0.0884349
14.1438
-9.43202
-41.1696
-38.5119
-38.9573
-74.5834
-39.3426
32.2393
59.6202
20.3074
-19.4324
-7.79233
1.50359
-31.3089
-70.1771
-1.4325
85.7329
34.5793
24.1008
6.11517
2.1981
-6.7901
-29.112
-51.2736
53.3919
70.629
22.3027
-10.4835
6.76561
-7.48549
-28.6962
-39.9029
51.2503
59.1017
62.7131
28.4283
-17.8048
-29.0259
-76.4558
-57.1025
9.18434
17.5597
5.46124
13.0751
-29.6312
-4.98698
-23.5341
-55.5893
29.8987
15.007
13.284
29.3149
-18.3433
-15.4679
0.598807
-19.6273
-83.7561
28.4222
73.61
54.4497
19.3415
1.78216
8.40097
25.694
-36.1177
-58.2828
59.5917
62.7799
5.16915
-13.4907
-27.8505
-28.4864
-71.9845
-63.1687
2.47496
7.96044
26.8753
-36.4106
-33.3774
-6.4543
-29.6686
-48.5447
60.3859
48.8212
51.3014
56.0856
-6.0519
0.609924
-41.1749
-42.0186
17.4764
72.4715
64.9288
39.3563
-0.220514
4.7424
12.0083
-16.5431
-46.6616
-27.4444
44.7898
38.7906
-25.0048
-21.0998
-4.09325
2.57272
-29.1576
-70.3735
-69.8541
44.6727
56.1225
6.74222
-1.73726
-0.410201
-13.8734
-13.3857
-51.6805
-51.7266
45.9572
27.5482
-19.0265
-14.2982
-19.6225
0.73285
-16.9083
37.7618
29.958
46.9497
56.1547
8.53187
-32.381
-74.1442
-96.068
14.1287
16.7581
25.071
62.612
55.5585
11.4788
-31.7041
-48.4448
48.5365
53.9294
19.5812
17.059
-21.4267
-31.5147
-30.002
-49.1992
11.6374
27.1478
28.4086
35.3535
-18.3295
-17.4699
-9.62552
4.04823
-37.2592
2.79002
80.5412
45.5667
-15.3482
-35.7687
-21.1922
-11.0613
-63.2412
-93.5279
19.9361
71.6219
-2.44725
-26.5809
-5.10577
20.1295
-12.6328
-61.4
-46.1908
35.567
43.6156
4.23789
-10.3404
8.15533
-3.10887
-10.5413
-32.7524
12.8356
60.6526
47.7312
-8.42174
-17.075
-12.1578
1.6152
-15.4659
28.1313
64.2806
70.6268
47.1445
-0.867817
7.9303
-21.2404
-80.2783
-34.0983
21.4964
8.62762
19.4261
9.99571
7.13479
15.2247
-8.46517
-51.8187
-48.8504
-13.2449
5.19161
-14.3272
-35.7359
-19.2131
-17.477
-41.0176
-24.0118
50.9969
53.4307
24.9555
-20.833
-10.5845
7.87422
-35.4953
-1.88519
36.841
24.8516
39.2516
14.5083
-11.1818
0.114066
-31.6001
31.0871
34.881
16.0585
13.399
7.63938
-44.8104
-49.6183
-70.1554
-30.7253
27.6518
22.9568
39.2549
18.4238
8.3271
-9.55285
-40.373
-0.805808
48.8623
37.249
41.5588
-18.4334
-32.4554
-28.6242
-21.9107
-35.5569
-65.6567
71.2116
71.7361
17.6028
-23.127
-15.458
-14.2906
-50.044
-61.1608
-6.4743
49.504
104.889
24.1591
12.7651
11.3991
-5.36912
-6.84772
-51.0747
35.2841
57.528
40.8621
-38.5969
-37.8989
-42.3925
-53.0192
-50.3163
21.8912
40.1554
44.6886
21.4589
9.56754
-56.1561
-86.203
-74.3719
34.6019
42.8109
27.1846
44.6362
-12.0002
-15.5241
-21.6763
-63.2511
-16.6732
80.1238
55.9169
39.5675
3.04826
2.7009
8.45468
-1.77963
-22.026
-75.2361
24.1367
50.4961
-13.8228
-31.509
-11.0621
0.931234
-30.175
-82.0066
13.0499
64.3718
33.8969
-26.4835
-5.58484
17.592
-6.61445
3.72809
56.8169
53.7627
59.5817
46.7351
-7.56294
-22.4014
-97.2455
-63.7562
10.8468
3.54462
-12.9722
18.5671
-4.91958
-19.4472
-68.5348
-36.5554
54.2422
68.6997
70.0443
66.8763
9.70793
-17.1152
-21.9852
-36.3141
-54.9827
15.6197
27.5832
-7.04672
-43.5569
-32.1686
-25.2707
-4.45505
-28.6802
-56.6037
53.1951
62.0972
-8.63387
-20.0897
-23.8084
-36.5941
-25.6871
-19.809
-5.96889
54.0596
50.9201
19.454
27.3204
21.5148
14.1626
-16.7052
29.4454
61.6774
38.8152
38.281
6.54805
-41.6483
-52.6233
-66.3248
-2.95776
7.325
1.93224
6.80434
-0.650908
-26.4698
-44.7251
-64.5758
3.63965
51.9141
-0.579272
5.60805
-16.4593
-15.7849
-1.47488
-30.3377
13.7481
67.6432
50.6973
48.4591
-6.27419
-19.0239
-13.4986
-12.3916
-37.8718
-32.6122
81.9943
63.9795
19.4578
-21.3371
-15.341
1.08474
-50.0925
-100.221
8.56499
73.3852
14.4687
-31.823
-24.9087
-10.5529
-11.6395
-53.8227
-55.7354
61.197
91.092
56.357
-7.42071
2.49608
-0.402171
-15.7512
-17.909
-26.5182
60.8804
66.5937
-0.980194
-21.725
-38.4273
-60.9066
-60.0332
-75.7994
37.7428
51.2158
35.1952
-23.363
-15.7321
-16.5817
-65.266
-50.7024
39.0168
42.312
55.3418
70.3772
29.767
38.4953
6.55909
-42.3452
-35.4731
36.9297
25.65
37.4711
-20.4765
2.13193
6.68455
-55.0348
-22.7288
28.6607
21.501
26.1886
-13.2117
-19.0334
-27.3278
-55.3265
-22.427
-5.56038
-3.64276
29.8613
33.0719
-17.0005
-24.9797
-18.0953
27.7798
14.0691
6.32638
8.7028
-7.71094
-24.1129
-34.3707
-46.1122
5.96859
9.92851
5.24181
31.0093
16.4559
13.4171
-22.6442
-62.6757
30.757
49.4303
45.3446
47.2247
-0.479617
17.277
14.4719
0.434253
-47.1742
-40.3286
44.2477
43.4361
-33.3364
-42.1598
-14.6711
7.60034
-19.9713
-68.2068
-61.2785
42.8656
86.5032
9.71281
4.42789
15.216
-15.5219
-11.4546
-31.7102
-0.510834
39.3161
20.8444
-12.5948
-18.6953
-26.4576
-4.41716
-38.9462
16.2527
54.9616
67.5623
71.2013
28.8341
-64.6381
-75.5924
-88.2768
-7.56746
8.70073
-3.49482
5.36794
-1.69322
-0.0862463
3.96673
-37.1062
32.6403
63.8051
33.3565
43.5131
7.05245
-28.0346
-15.7282
-14.9854
-82.2609
-48.697
62.5432
67.8192
11.4683
-20.4187
-7.72886
11.0383
-18.8426
-72.5262
61.8745
92.1477
31.6389
-16.4167
-16.3426
2.78231
-26.2716
-58.46
17.4622
13.4956
38.8707
4.29028
-40.3514
-12.6887
-47.0993
-38.6775
17.6316
2.57085
-2.74627
15.1197
-56.4451
-48.6843
-59.9461
-49.1056
18.7304
46.7634
54.4369
61.611
25.1485
36.0578
42.4652
-2.18836
-51.0453
46.0718
48.6054
32.478
8.72668
23.7083
36.3273
39.6486
-26.7035
-68.2212
0.449148
47.435
-3.46097
-30.7029
-36.2545
-30.8997
-47.8289
-69.2069
-53.2941
10.5424
-0.640381
-44.6919
-21.733
-5.96253
-15.4262
-44.9382
24.7189
56.3463
44.7941
60.4322
42.962
9.12933
-17.1941
-62.804
22.5302
18.1184
4.71708
22.0721
35.7873
6.74988
-24.4907
-62.3606
43.5229
68.3155
29.6344
33.2802
0.887996
-11.911
-23.077
-51.0963
-30.2576
30.9694
10.4642
13.4216
-48.3117
-47.6539
-32.0548
-12.9403
-17.0459
-43.5102
64.1035
62.7279
1.44868
-27.2829
-26.5784
-2.00377
-27.509
-73.8482
67.0239
101.158
48.2171
-7.50667
1.32138
6.82715
-32.744
-66.9225
-10.745
46.6394
52.6732
48.9901
5.17532
0.152503
-31.0158
-37.4328
-54.4407
-2.73746
32.6943
48.2387
-19.4047
-13.1663
-11.1016
-38.8042
-70.3777
-53.7755
52.2748
54.9234
14.2728
-8.64986
0.543237
-4.53614
-35.8642
-39.9108
0.144624
76.0591
79.0642
35.9703
7.85349
15.8642
-17.2264
-30.6109
-94.2724
-25.0336
77.9154
70.481
11.4648
26.1532
9.54072
-10.6968
-67.959
-47.0083
29.9193
14.9226
-32.7328
-75.1999
-57.8622
-57.5988
-82.0328
18.9694
46.1007
56.3643
93.5617
47.7164
9.52375
-7.34291
-48.0351
18.3568
14.6166
0.234039
27.8378
21.8546
-9.55335
-37.0524
-26.4399
40.1093
62.6518
37.6202
43.3495
6.75062
-6.89293
-6.87978
-43.5106
-35.846
35.3109
25.5397
8.72697
-20.0363
-14.0678
-9.0012
-8.13854
-63.9982
-94.8555
6.24859
24.7247
-41.7298
-53.2501
-47.3837
-38.8215
-44.0788
-36.4787
-40.7215
31.1892
87.9891
19.6261
26.5081
42.1834
53.5308
47.8919
-8.98557
-51.332
100.326
174.904
161.787
147.603
89.7397
15.2151
-36.7817
-89.318
-82.1964
-113.781
-113.783
-74.0731
-111.972
-126.481
-105.51
-109.451
-19.3427
10.5071
40.9031
60.6284
-6.63895
-46.5241
-73.2164
-145.688
-68.7084
70.3761
80.2499
126.419
127.025
155.231
199.736
192.756
73.6126
40.0198
126.169
199.564
72.5592
30.4653
63.9015
44.8141
-102.066
-132.762
-74.7243
-125.27
-241.927
-300.587
-218.421
-183.925
-235.648
-138.635
-87.6533
-32.7012
22.1499
98.2488
110.723
11.8748
-50.0161
24.3824
14.527
31.171
75.2338
74.2199
40.6451
84.7021
81.0421
149.141
211.577
205.945
248.33
203.583
88.6649
-25.9876
-40.3906
-88.4357
-173.47
-70.2345
-27.4688
-21.2053
-63.398
-56.5692
-32.8072
-43.2783
-61.0137
-39.6843
-13.908
49.9033
7.97256
-6.42953
-25.3485
-75.3769
-62.4667
-54.5469
-70.4349
-37.7473
8.41865
-15.2653
-7.04693
-55.4825
-42.5219
-56.7392
-74.434
-26.3796
33.5086
83.6081
145.61
110.24
67.0075
19.1822
-43.455
-2.22856
56.6397
48.8408
71.0203
36.8894
-5.17716
-39.2757
-64.8284
-42.5924
9.56692
28.4815
65.4315
50.2674
8.23158
2.21738
-29.3321
-136.925
-55.5055
50.7321
74.1216
-4.63871
-59.0965
-80.4061
-75.9936
-111.168
-230.606
-194.056
-99.7056
25.9846
314.986
543.671
488.187
300.044
126.527
230.818
153.419
-45.3902
-225.631
-281.539
-239.785
-259.161
-308.993
-221.115
-109.117
-50.9512
-4.93541
-36.7246
-40.3727
-101.285
-234.578
-308.235
-234.932
-95.2092
-59.6904
-120.48
-72.2284
-9.03573
158.445
425.368
678.666
667.753
425.894
251.828
123.445
66.4482
43.1925
-17.4614
-95.5727
-102.68
-72.4408
-130.209
-133.016
-122.095
-62.1541
-81.7561
-66.2229
-10.0794
31.8091
-109.517
-266.885
-257.241
-87.5819
-17.9778
-20.7031
0.780174
106.584
124.859
149.726
88.1118
-22.9889
-51.2928
-89.993
-41.8178
37.0601
9.56342
21.5135
98.8253
51.5778
-27.0649
-145.065
-127.147
30.2147
65.4938
81.3066
70.3345
34.3499
40.0257
18.0584
-16.2049
13.7831
-10.1706
10.6692
-13.5692
-35.2083
-29.0122
-15.0698
-32.6392
-18.3865
31.8211
19.3089
1.59384
-15.2028
-17.9479
-18.3418
-11.2529
-43.5573
-12.3083
139.394
102.696
-5.73227
-24.4829
12.8988
33.6972
6.69458
-19.5532
23.3414
87.2091
-16.1137
-154.831
-241.034
-208.11
-114.887
-84.1534
23.1859
101.447
132.051
216.311
339.943
340.436
169.444
-0.523174
-112.936
-123.918
-143.564
-128.514
-136.198
-121.664
-97.2378
-86.5673
17.0226
6.9292
-25.9486
70.375
78.823
-13.1573
-62.3791
-121.049
-276.622
-170.155
-17.4371
90.0687
157.112
192.081
277.277
237.443
91.3195
-19.1952
31.5943
19.6744
7.23009
32.509
18.8013
-37.5122
-104.666
-99.0472
68.7253
35.2459
-48.133
-115.966
-120.995
-83.7878
-129.473
-127.569
-24.3649
-5.10967
46.2518
99.2538
82.4548
99.6889
65.9563
25.2368
90.7743
47.4959
25.4521
30.0555
-29.0433
-28.7725
-54.1549
-105.257
9.26464
83.8658
84.7937
29.2919
-90.8133
-104.514
-75.1037
-75.3821
-115.151
13.2837
119.069
105.889
19.233
-2.46934
2.50262
23.2449
-19.6656
-53.9423
-33.3452
47.2415
-13.1515
-37.7759
-17.9179
-38.8684
-64.0468
-42.4829
-25.7666
75.9741
160.47
62.8905
-17.1785
-3.65202
13.4291
46.3718
48.2197
95.713
103.599
23.2286
7.127
-14.4126
-37.506
-70.6935
-110.559
-64.2764
-30.0712
-19.7771
15.6628
-7.21082
-33.1739
-38.9139
-99.0607
-30.0253
-7.1712
-59.607
-79.0744
-99.0165
-95.7457
-35.3447
-40.4615
-22.0435
127.341
221.592
245.534
178.518
106.017
73.5348
24.1625
-41.8264
26.6518
55.8755
-1.48178
-73.0596
-101.841
-56.3951
-23.6538
-65.0017
-17.9569
31.1775
39.914
21.6091
-46.4475
-77.7361
-78.7194
-102.077
-73.501
52.9878
87.791
67.6805
-9.43887
-33.0202
36.3163
42.0672
-5.00615
7.98282
60.0493
40.4603
-9.66002
-4.29852
13.9495
-2.19538
-88.415
-96.8249
-1.53167
22.1426
8.71584
-44.9259
-44.015
-20.2989
-51.1973
-86.5799
-2.7053
161.956
154.151
78.9679
13.6373
12.7074
-9.92063
-25.1438
-65.3285
9.02277
-8.38945
-31.8785
-41.3452
6.80101
38.8025
14.4734
36.4794
149.614
61.1556
-12.9211
-89.0946
-196.314
-160.806
-121.742
-75.1245
54.3462
112.212
137.583
132.986
30.1698
33.8778
14.9268
-49.0876
-10.5797
-48.1931
1.73036
24.3202
-92.8705
-40.3186
124.705
207.046
165.316
26.5925
-63.1099
-127.284
-173.64
-177.788
-111.349
-101.524
-43.3643
123.777
222.261
151.987
-26.6165
-92.8537
-112.814
-99.7558
-89.122
-18.7035
37.6065
75.9327
145.897
191.392
129.641
62.8976
16.7791
-48.9267
-117.59
-44.3549
-94.0342
-182.516
-181.175
-72.8258
26.4211
45.5957
10.1042
105.428
126.883
78.9283
9.26333
-35.3826
-87.1299
-56.2995
2.828
130.995
137.704
124.035
94.1388
46.2704
17.4656
-69.7995
-163.145
-138.371
4.50442
52.8454
70.6079
5.03549
-7.54825
-7.76724
-48.7397
-124.531
-82.2542
75.785
102.783
18.7545
-14.9274
-12.8956
-15.731
-37.0509
-40.4938
37.8527
42.1346
33.9921
-23.8508
-16.3207
-17.8906
-57.9498
-68.4057
15.5227
12.4372
32.3334
-20.464
-87.0936
-46.1384
-55.6277
-73.0144
34.3336
56.2617
79.2228
135.997
67.8568
18.2814
-37.1461
-84.4749
3.79401
38.0371
84.4631
85.5952
19.8635
-1.57997
-33.8631
-128.221
-99.4056
9.60433
54.9017
62.6651
-11.8435
-28.5783
-29.204
-41.6411
-96.6506
-12.4247
72.0627
161.484
145.24
82.1163
34.2526
17.0948
-4.97268
12.5417
-47.0161
-16.0286
30.7614
-45.0995
-105.422
-122.312
-118.106
-85.3122
-67.4713
-69.0447
59.2346
175.705
92.7881
-23.685
-1.51426
21.7886
-74.9523
-137.127
-55.2814
71.3044
127.785
109.374
-22.2465
-67.2968
-43.953
-63.467
-38.6867
59.3048
57.4511
58.2102
17.7998
-55.7271
-29.4564
-31.9537
-125.711
-34.8416
73.2628
89.2664
47.2468
-4.89967
61.227
88.8469
50.8376
-2.77128
46.7718
153.217
97.6381
9.33866
-12.2416
-20.0324
-46.0025
-97.8117
-118.076
-49.9798
26.3831
-42.9852
-60.2875
-19.3842
-23.0072
-68.1262
-111.335
-11.6702
-5.81456
23.0473
13.0884
-6.58069
1.33341
-20.1161
-54.5625
5.48638
91.2896
56.8156
70.5762
50.6027
12.3247
-6.41977
-16.6196
-38.2814
-11.1839
46.7841
45.3862
-14.5685
1.39356
32.5955
25.9869
3.36068
-22.846
8.30865
69.0298
33.1593
-23.4851
-26.6261
0.459029
-0.660438
-27.9143
-30.7094
14.1383
22.3887
-26.3322
-90.9743
-82.2578
-87.4037
-76.1899
3.06005
76.1744
79.683
68.7063
25.4228
-6.61504
-18.4572
-60.8068
-41.8999
48.0037
33.8996
67.0934
49.9907
7.41651
15.7742
-29.9694
-36.8105
43.3351
15.9866
14.1079
-12.4795
-45.6195
-31.7268
-32.8599
-53.4423
55.9547
39.6914
24.5288
28.7926
-21.4605
-34.503
-95.933
-117.138
22.1864
43.227
54.1083
39.2193
20.9076
33.9794
38.2891
5.98112
-31.5841
19.7314
8.46253
4.29389
-48.7969
-23.809
13.4146
32.6499
41.6756
38.878
30.4583
37.2633
-69.8436
-56.2014
-24.6633
-14.8804
-24.1889
-49.5107
-18.1957
53.8996
64.0913
4.96115
-2.80163
-4.45192
-37.0154
-64.9624
-24.6965
14.5907
13.9302
17.6428
9.22405
-7.60823
-44.3907
-70.4979
8.2741
79.2588
54.295
53.939
37.7223
-4.67906
-26.7339
-68.741
-55.5275
-0.198701
6.26533
20.586
-14.7462
-40.7348
-42.1315
-13.5751
-8.28147
5.04631
89.0508
99.904
59.7851
15.5371
12.8104
9.19212
-52.0289
-53.4833
26.161
58.2255
57.7
41.4979
39.9224
30.5845
-29.4324
-54.8394
-26.7378
-60.994
-55.8597
-32.6047
-45.0512
-7.50644
-23.8678
-7.9622
52.9721
32.6931
22.9983
-8.62996
-52.8145
-44.2048
-67.5309
-57.8116
37.4892
30.9136
37.5463
28.6468
-8.1616
-3.16634
6.56663
-21.9659
20.7248
50.8824
26.338
9.98208
-25.2553
-2.07141
24.2873
8.46179
-56.5383
-46.0406
46.2846
26.1361
-20.4672
-9.72436
2.72019
13.0704
-4.81684
-3.57776
46.2742
70.2858
24.3876
-13.974
-8.10404
-28.6318
-39.9406
-32.6659
-33.6137
45.9894
62.8227
41.98
3.51647
-19.8485
-46.2651
-49.8544
-46.6041
38.8954
28.9857
23.6732
10.9368
9.4477
-27.0049
-61.3808
-68.8467
60.9749
49.8998
30.1869
24.4742
-17.4872
-13.9056
1.07512
-31.2014
-4.53347
28.6919
20.6673
14.8591
-34.1501
-37.5795
-29.7475
-30.1783
-67.6355
-48.4232
40.412
44.8718
-13.9362
-0.786578
13.8174
6.39176
-51.1055
18.8844
70.5032
68.5719
41.194
-13.9586
1.6811
15.2854
-46.9043
-9.1677
42.996
26.024
39.7496
9.02097
-15.2167
-0.0832084
-73.9955
-64.0288
12.2667
44.5492
54.9008
19.3218
-12.9651
-3.43287
-9.13126
-36.8291
-84.495
-9.56112
53.3782
28.8348
-2.04716
-5.0033
-1.404
-21.4217
-51.6459
-85.4916
-50.3035
85.4047
46.2488
20.1412
31.1761
18.675
-2.31911
-0.688359
-5.30963
-10.4906
58.622
7.48826
-25.0668
-25.8703
-19.9732
-4.93049
-14.8946
-4.83155
44.0939
53.4163
36.958
-40.0226
-46.0448
-34.2842
-63.3692
10.8554
22.6228
10.6896
18.7697
41.1613
40.3193
7.39805
-44.0607
16.5041
-16.3648
-43.1325
-34.4085
-21.072
8.57307
35.7444
-5.17026
23.0472
7.20666
-5.17635
31.2778
-18.1854
-22.0001
0.930923
0.241879
-27.527
-14.1829
17.6831
35.2749
3.64091
22.8324
62.2192
87.5367
55.4021
-49.3993
-9.59585
11.3055
-41.4741
-41.8023
-31.4153
-26.603
-51.7458
-70.3491
-26.5251
14.7205
22.1875
-9.75721
-21.7178
-0.611909
16.7578
52.4918
60.2593
34.5631
34.4301
64.0496
-4.8705
-21.6476
-46.6228
-38.4446
-28.0362
-52.5061
-1.93541
21.9651
13.364
-1.75059
11.5892
9.46468
-22.4931
-79.4441
-75.3024
-12.9334
-33.0521
-23.9965
1.80141
8.6934
18.158
14.0607
-0.392149
47.0621
88.4072
92.2477
45.697
41.6287
36.3603
18.0393
-7.21015
-37.1185
28.2821
54.7484
26.9505
-24.9487
-26.7009
-23.43
-43.0604
-65.0128
2.2798
17.7403
12.1934
-12.8674
-24.814
-5.10207
-39.0154
-53.1549
1.85501
27.5824
9.10419
11.2402
-23.7361
-4.31909
-19.2542
-71.4483
-9.8829
-0.387621
-1.61207
18.7449
0.684767
13.7409
-16.1947
-68.5631
28.0418
91.0798
74.0579
60.5431
8.91635
-22.4804
-8.89458
-29.8281
-77.0766
8.6719
60.7838
40.1984
-13.1275
-17.8677
-12.6812
-2.75397
-29.4474
-85.9126
-11.8082
103.054
27.257
-7.66386
6.49645
12.3976
-3.99736
-8.0552
-37.8463
31.6753
65.5406
15.0315
-23.3229
-11.8351
-15.1608
-31.3027
-88.9714
12.086
107.067
103.79
49.0973
-9.9221
-38.7338
-55.1888
-74.2428
-13.2953
10.6297
-4.77258
6.04721
-13.7584
-15.8792
-34.527
-73.303
-19.5609
39.549
38.6585
63.7072
10.1002
-34.6071
2.36015
-0.0413718
-41.5327
-21.9943
37.1577
51.7547
8.43861
-14.4376
-16.4154
0.689702
-0.763562
-34.03
9.41706
37.4892
7.57212
-8.5019
19.1994
34.9687
-9.0851
-70.5124
11.9348
15.9466
37.5491
20.2297
-21.259
-5.86817
-31.0628
-58.5642
29.7036
42.3542
22.3049
37.0645
7.64658
3.63102
-12.6605
-87.4204
-22.6626
85.3657
49.0021
44.0485
2.77903
-0.584443
-7.95786
-16.7399
-46.2453
-71.8523
31.3382
31.4745
-25.0545
-22.5281
-0.275475
13.276
-15.0432
-61.9871
-81.9299
55.9752
52.3496
-15.4685
-9.77665
-0.281249
-10.0375
-1.68068
-0.508199
-50.6485
-9.70685
82.8942
28.7718
34.4261
7.44213
-2.89807
-13.72
-49.3529
-15.5871
59.9457
61.7337
7.27626
-21.6862
-38.2129
-22.2635
-49.9773
-7.46051
30.2563
33.6168
55.2535
30.11
-1.18941
-50.9436
-52.312
48.3977
37.284
23.0964
36.0896
12.9558
-17.4401
-28.6473
-119.216
-98.427
31.9118
28.4191
40.3147
14.892
-0.408994
0.174813
9.67274
-32.6833
-66.5961
18.01
96.8983
10.3606
0.256442
-3.2075
8.59595
3.62355
-48.1399
40.7137
84.1912
37.6714
-35.1768
-22.8
-4.13057
-23.283
-71.9661
-14.2585
36.4677
27.6128
16.1258
-18.5814
-43.5768
-40.5971
-24.5564
-41.4062
-34.6261
27.7941
52.1526
22.3363
19.4074
20.5636
-7.60481
-30.5781
-27.1397
50.2251
53.1976
5.21739
-23.0931
-2.87323
10.0417
10.661
-41.0966
-26.1787
45.4633
38.1699
27.4279
-23.5281
-3.20698
-7.7169
-19.4555
-53.0651
16.3876
24.2586
2.68157
-41.2274
-1.39934
14.1585
-3.84313
-44.619
24.0088
67.1097
54.0383
17.8099
-25.1948
-7.80795
-2.70698
-38.7618
10.5178
5.66004
4.98115
21.7424
-32.7602
-12.6946
-3.74907
-46.0047
25.9498
1.0659
-1.85503
33.7018
0.122331
-34.9395
-54.6128
-15.8221
44.0812
15.9873
-1.29249
6.88007
-15.0792
-15.5844
-42.4212
-63.4738
50.1717
54.1835
47.3947
43.2741
1.6688
-4.34626
-5.85519
-12.3994
-65.8492
-23.3701
84.5687
49.04
-16.5112
-3.94438
-1.36654
-11.331
-43.6282
-67.1725
11.8291
83.8423
4.79958
-10.7136
6.52107
10.9428
-9.86911
-4.47812
-22.7583
-3.23235
77.7765
11.1371
-43.6169
-49.1252
-51.2993
-22.119
-30.8108
-22.2312
72.6268
71.4925
44.3203
17.491
-28.7887
-21.2225
-62.1712
-5.00664
55.1587
37.18
30.8377
29.0959
-9.74346
-19.3857
-14.5869
-42.834
-61.5858
18.2483
57.321
49.1633
-6.67458
-0.132842
-11.2823
-17.9575
-49.6832
-72.0202
33.8543
10.8472
-36.1829
-25.7211
-1.87487
16.3811
-24.1732
-48.0005
46.5528
75.7093
49.9356
5.97781
1.6153
9.18106
-24.0185
-33.0968
21.2465
13.0169
5.98242
21.3528
6.4137
15.4176
-20.7457
-38.8418
33.2407
16.066
13.8416
26.4544
-19.8471
-19.9061
-49.4376
-95.5097
3.71685
59.5608
32.7486
25.7914
-10.155
-5.93164
-2.12661
11.7705
-36.3285
-47.2794
30.4256
36.3278
-5.41704
-12.5394
-0.135461
9.79819
-7.91366
-27.3293
-32.5329
63.7359
46.3245
-5.24335
-5.26047
-4.38929
-38.0464
-42.4672
-65.121
-48.1074
82.8343
57.133
11.5983
19.3325
3.96381
10.0715
-4.25872
16.0779
35.217
22.6606
39.3493
-1.00283
-37.6606
-29.305
-59.0441
-31.8277
44.8909
22.0336
27.1619
22.5959
-35.6896
-36.8466
-85.2938
-39.0403
3.22498
81.7954
67.942
34.4982
-10.1756
-6.41047
7.33877
-52.3872
-44.2291
-5.72762
22.0263
21.1081
-13.6981
-0.203146
8.68737
-12.2349
-45.043
43.1751
41.1937
13.2189
-11.6448
-44.2073
-23.1715
-38.5765
-64.6685
21.8734
56.2193
42.6301
9.92144
-11.4653
-0.18001
-4.55534
-54.0966
2.92971
77.5312
62.2096
47.8656
6.09505
27.7558
32.0278
9.40429
-58.432
-80.6892
-27.3508
-41.9352
-72.729
-61.9574
-26.8842
-9.35995
-25.6451
-58.9674
54.1661
137.386
89.9599
31.3368
37.2873
28.4177
5.90537
0.945297
-36.9451
-45.1263
47.3
69.0476
31.1336
45.3199
23.4407
-2.62789
-12.8317
-65.7308
-56.8018
51.8154
-11.5558
-50.7858
-51.5587
-55.7103
-44.3008
-56.3591
-66.4683
10.0095
18.5091
21.1272
-13.8858
-11.9685
-5.80112
-26.4234
-18.3619
77.9118
65.523
54.5589
37.4895
1.64301
-15.0655
-48.0354
-37.9162
22.6282
11.5817
23.6997
32.3562
-1.25337
10.1414
-8.87134
-77.8422
-0.408569
81.4921
84.6362
52.3883
-15.7327
-20.946
-5.07044
-8.83366
-82.5387
-66.1156
63.6496
56.1099
-8.57317
-5.9846
-6.91641
-19.9108
-32.6384
-53.1058
-29.6588
83.8104
42.8897
-10.4535
6.44506
3.66719
-33.3121
-38.2421
-48.1412
-59.4847
48.5975
39.6745
-25.6381
-18.0156
-11.898
2.78028
4.31928
-20.9009
21.1415
88.0527
70.3072
20.4202
0.250587
-21.7432
-27.9093
-40.0762
25.6342
29.4615
29.9394
37.6646
11.005
1.33058
-21.8124
-36.8506
-88.5438
-3.18305
26.85
37.4947
-1.67838
-20.144
-10.4647
-28.296
-32.0816
-61.905
-17.6841
48.7433
13.6066
13.3851
18.3953
21.5489
12.4965
-9.91439
-36.4425
26.0415
40.8043
-10.9235
-12.1573
22.8442
17.5368
-18.5066
-0.784391
16.5078
-28.1178
-38.2895
-50.6685
-73.0691
-51.0855
-33.8694
12.9584
118.184
76.0622
57.9214
49.924
18.5824
26.5448
-38.826
-22.9328
40.4868
-13.2782
-11.0235
-2.57991
-11.7882
11.9549
25.7934
-14.614
35.5156
55.058
26.3328
-6.11712
-64.3664
-56.5378
-48.9082
-51.3457
-130.101
-71.6004
60.5406
72.9856
6.06718
11.3323
17.7588
3.22875
-10.4493
-16.0395
-8.36869
62.4298
52.7829
-2.0673
-4.36793
-12.3108
-13.6175
12.5351
-14.149
9.03491
69.5791
28.1634
-29.8157
-54.1437
-67.1619
-41.0754
-53.0606
-7.52368
36.8512
52.1278
60.575
27.5785
-3.38189
-13.8545
-44.1714
-38.8764
62.7688
33.9532
33.2741
15.1878
16.7041
17.944
-2.4898
-49.9568
-74.4986
44.0342
76.1168
33.2661
-0.783237
-7.30275
-16.3206
-14.9525
-36.081
-77.9453
47.5306
31.2372
-47.6799
-37.2549
-4.44054
4.51486
-19.3296
-23.3394
-0.61761
33.5978
21.6371
-30.2548
-22.7547
-6.16521
-15.4901
-24.1565
48.3904
31.3442
19.1677
31.2731
-9.19447
8.55987
-46.2729
-89.2418
19.5448
46.9283
39.2745
32.979
-0.821305
-2.62824
33.3215
-5.25276
-17.5192
18.0147
25.8357
27.5293
-4.6039
3.15288
4.25288
4.02098
-22.4723
-73.6103
-76.1327
80.1521
37.02
-10.7864
-6.38486
-3.38355
-11.2918
-5.48798
-14.5562
-53.2316
45.4998
10.3973
-2.3132
7.23542
-12.3115
-9.08756
-17.7554
-39.3374
60.3083
71.4775
46.102
-23.6259
-56.2969
-40.5831
-48.0011
-54.427
38.6254
23.6459
29.7565
39.5137
-10.4282
-19.3331
-53.2179
-30.936
36.6055
26.1191
31.9106
45.4871
-17.7606
-4.78128
-29.9632
-19.1275
-15.8256
51.7698
53.8449
45.1788
-13.7353
-10.0882
5.63635
10.3573
-53.8759
3.65926
46.3345
31.1033
-15.5016
-11.4394
-8.97055
-10.9777
-103.925
-57.2982
43.8613
8.10974
3.38378
-26.0924
-7.92366
5.81895
-59.3318
-86.6385
-6.24217
129.496
108.082
42.9452
17.7545
7.52071
-23.2187
-47.5558
-98.3506
8.64134
102.056
52.3866
12.1612
-3.86838
-10.1419
-29.0773
-53.4119
-19.8152
69.1328
69.5609
14.4872
-70.9679
-68.7114
-72.9513
-56.1563
-70.7833
-18.2282
64.5635
98.9844
39.539
1.06594
6.75865
0.659944
5.06399
-33.6134
-48.4328
38.0605
70.3768
24.0434
31.723
16.6568
-3.79344
11.8051
-23.988
-14.8716
52.1955
3.7779
-21.4445
3.11872
-10.1866
-19.2813
-51.0051
-35.8342
13.9462
20.6513
14.3882
-14.94
-40.5256
-51.0623
-66.7897
-25.62
55.1834
42.6345
50.042
53.5651
32.624
13.5675
-43.1571
-54.9418
28.0184
2.0926
10.5593
-11.7524
-42.442
-25.0019
-25.3569
-66.6544
-34.0473
39.5417
73.5067
45.7767
-19.1366
3.22429
23.5291
17.3545
-15.9624
-34.883
-5.15931
95.9411
26.0404
19.5031
29.2613
25.2956
4.0114
-0.636802
-41.3182
-59.891
22.7308
75.8484
39.1648
7.43185
-25.7027
-33.9178
-41.9917
-76.9458
-38.0613
29.0242
14.8965
-37.0416
-47.7366
-33.164
-22.7926
-56.4316
-10.6142
25.812
49.4843
78.3437
12.7682
-55.2777
-41.8194
-50.4282
48.0886
43.2815
32.5524
39.5705
27.4806
6.49594
9.4343
-37.2386
-4.32224
26.5001
25.2058
43.1989
5.60184
-12.031
10.0945
-8.93947
-41.0807
10.149
27.835
23.4296
-35.6284
-29.9792
-14.8597
-16.3298
-44.9469
37.8397
14.6098
0.486201
-23.8263
-21.3635
1.39765
-9.46355
-27.2302
46.4362
38.8529
45.0692
17.2539
-44.686
-30.4283
-67.2945
-78.1659
63.4661
70.3268
50.131
47.8741
-17.793
-13.6985
-27.8154
-70.0946
-9.55259
34.9062
37.0022
25.142
-27.3043
-20.0098
-3.44917
0.298752
-49.6003
-49.2081
69.9356
41.35
-31.8677
-31.1452
-9.52665
5.97567
-10.5126
-34.0606
-3.35698
52.6313
78.2724
17.8199
12.2641
17.3738
-3.55325
-4.59056
-34.7488
-68.2432
38.2547
76.6555
24.2051
13.9026
-26.6162
-28.224
-27.3119
-65.389
-13.8758
37.0115
41.5222
30.0217
-37.3777
-36.255
-21.9441
-35.4801
32.3461
29.0223
37.0621
34.7035
-45.7298
-79.6602
-92.8704
-39.2227
25.7546
26.3235
33.6408
52.9568
19.9166
31.5172
31.0684
-29.0214
-51.3116
38.2821
48.693
43.6876
-14.8826
-13.911
6.32414
16.8033
-44.5051
-17.9993
97.2311
48.7744
-10.5798
-17.9405
-15.462
-8.99967
-61.496
-92.34
-4.07753
71.4159
30.2135
-25.9501
-23.8645
-11.5192
-29.7607
-76.7426
-18.4441
69.731
66.4172
32.8915
-23.7879
-17.8467
-21.8586
-10.8396
-4.27788
-36.1225
30.3985
59.2334
10.9084
-15.6298
-9.53409
-21.1845
-21.6896
-65.1219
-32.6017
77.3199
77.8244
11.385
17.1185
10.0081
-9.37572
-10.342
-36.4438
-63.4419
18.935
59.4396
24.9753
20.9237
9.44864
5.89807
6.95228
-37.2271
-12.9693
65.1809
31.6971
-5.75522
-36.9661
-47.1115
-28.3728
-59.9193
-43.2858
79.8213
62.1898
56.7286
0.460522
-6.97506
-23.8689
-61.3496
-41.145
9.97898
-3.23295
1.1643
-7.47391
-11.9278
-0.141885
-32.9351
-0.81334
15.4175
-6.15145
9.77863
11.2749
-32.0664
-9.1711
-41.4092
-53.2066
51.8921
102.16
89.937
49.2271
-0.944159
-2.85933
1.33318
-13.5849
-72.8495
8.33557
52.9359
16.8498
-1.48643
7.80012
18.4378
-2.74726
-74.0126
-63.3842
48.9036
49.1454
-18.3161
-46.4966
-19.4658
-16.8203
-20.6504
-16.1302
-46.1629
-39.7483
91.2721
23.701
1.03907
-9.04005
-10.8208
5.39241
-21.3088
-22.4451
72.0714
56.4339
16.9583
6.39118
-5.55863
-20.9212
-39.0656
-51.8844
28.218
19.6419
38.1027
40.4326
-3.56895
-22.5915
-31.7864
-79.3039
-40.9438
41.9213
90.9184
68.6469
3.83397
-13.4647
-42.0424
-39.2943
-71.8635
-73.8624
9.73906
93.6031
15.758
10.5379
10.6816
11.8607
-3.57464
-34.7687
6.6029
71.5808
30.8722
-17.51
-24.5773
-14.1303
-26.0463
-34.7508
34.5938
40.2437
45.2187
17.1969
-26.3131
-64.9698
-77.8545
-66.4028
38.6311
39.1106
18.6436
26.2104
10.9655
1.005
-14.5994
-38.5508
18.6593
13.539
0.617291
23.3177
5.28188
3.66356
14.6776
-7.52237
-26.705
7.33079
101.494
67.2788
-2.71286
-20.3519
-33.7785
-23.7817
-36.2432
-80.5733
-51.2783
-7.03625
34.6442
19.4976
4.87639
16.7988
-1.00825
-7.2757
-26.6136
-40.1341
57.5084
20.1505
-33.0503
-7.457
-11.728
-5.28808
-20.5992
-33.6912
48.8858
63.0925
43.4554
15.2397
-38.2454
-21.6238
-55.484
-64.0085
50.7195
50.5627
51.0848
67.1249
14.3919
-21.3711
-80.9661
-86.7151
27.7091
38.4359
37.916
41.0649
-9.37619
4.86269
11.4135
-17.8853
-74.779
34.5003
59.506
55.6836
-17.3706
-28.1729
-15.4475
4.04403
-56.5051
-29.7966
72.2958
72.2244
-13.6425
-27.9312
-25.3341
-22.1265
-71.6189
-61.095
25.9456
18.6829
19.1448
-30.9053
-13.2151
1.25981
-52.5696
-5.98624
24.6421
22.1764
36.0673
29.5255
-5.10068
-12.0961
-76.004
-17.2131
45.4929
68.9904
43.9777
36.0559
-7.61542
1.1647
2.65614
-33.4832
-64.3737
37.1984
43.9618
11.2962
-8.93576
-4.05282
8.27312
11.6217
-23.9817
-50.4437
16.9388
53.4315
12.733
-23.8691
-10.3835
-5.15426
-23.6866
-20.7796
-50.1237
41.6956
61.1438
-1.1492
-5.39234
-14.7642
-21.9579
-22.178
8.55244
30.1272
-0.889462
15.829
-6.23896
-38.0035
-30.6533
-44.7883
10.4873
41.5119
-2.17863
-6.29105
38.3162
-1.18582
9.47839
-32.0633
-9.15705
48.7686
32.1081
19.6216
-3.34694
-19.5959
-0.83051
-10.5507
57.7293
30.2959
-36.5694
-43.5998
-46.7506
-39.4036
-21.9338
-5.1479
-37.1165
-45.2853
51.4889
50.0846
32.8415
0.214563
11.6718
22.3049
11.9662
-12.5812
-5.75117
68.0947
20.5519
-17.6729
6.69147
27.8306
13.3762
-47.6889
-69.4737
38.8063
80.392
27.7155
-23.4797
-18.9314
-20.7397
-33.0972
-30.266
-46.6696
-22.2502
21.4491
13.8393
-9.60704
-38.7629
-32.8175
-15.0014
-44.9041
-3.05177
66.887
64.1151
2.02806
-7.46937
-1.66896
-41.495
-56.5582
35.2904
57.6298
40.0205
43.9604
21.6547
-10.3742
-9.24777
-17.0741
-49.0024
-40.686
37.499
59.0354
12.4582
-8.89411
15.6972
-7.54011
-12.1475
-36.6181
-21.8747
59.017
1.25837
-21.947
-10.7178
2.40428
0.427142
-57.9861
-4.52787
71.9299
49.742
24.8796
-11.8545
4.63389
-4.15265
-36.5701
-38.3417
16.5889
-2.08394
-2.48
6.05146
-11.093
-23.7696
-58.5878
-36.8955
39.3327
30.0658
48.2988
19.6479
-23.0614
-21.6497
-65.8428
-39.9207
46.0996
37.4232
36.1629
31.4813
-17.8678
-11.2662
2.06276
-27.4991
0.542848
25.1798
37.6272
26.9808
-19.0084
-12.8599
8.10139
1.59745
-69.3216
-36.0785
113.658
43.2808
-43.8904
-43.3695
-25.788
-8.36748
-24.7213
-48.4222
-27.7404
83.4741
40.0079
2.91782
5.86715
3.41598
-7.39796
-32.0034
-16.6255
55.5569
50.3723
30.3033
-23.9797
-14.2118
-14.5676
-49.2899
-4.74511
17.9759
9.89322
28.2398
21.1514
-24.6529
-31.9527
-58.6015
-35.5652
49.5993
22.6553
25.4363
16.6188
-23.9797
-0.55499
-6.98189
-62.9978
11.9993
28.2267
33.4725
5.52055
-4.44754
0.674278
0.824092
-48.0407
11.0574
28.8669
38.2347
24.7503
-17.186
-6.74581
-20.0018
-29.2737
22.8639
17.7301
15.4376
25.6393
-14.6669
-26.3896
-46.7086
-27.8387
25.9509
6.3545
7.64718
32.495
-10.4228
-18.137
-67.8706
-56.9776
27.559
56.0446
55.6035
42.8388
-12.7654
-1.88755
1.14355
-12.6972
-62.9119
17.3154
60.0193
17.4155
-32.1138
-16.7777
0.904829
14.111
-14.1642
-44.4886
2.81565
66.1401
-3.15033
-29.8401
-15.6362
-5.17566
-18.2208
-1.04405
-46.4012
-1.98319
69.2493
8.03591
6.9155
12.3673
2.98129
-6.73751
-63.3274
-21.3285
60.9992
48.6099
55.1526
17.1008
-17.4063
-25.2446
-49.7559
-3.46659
21.7516
7.48312
28.127
5.15643
-25.8947
-36.5195
-80.7345
-7.56762
27.4023
19.0295
43.3971
21.5686
-27.3662
-28.1962
-31.8017
17.9211
-0.497203
-10.0414
9.06819
-4.59571
-13.0304
0.644693
-19.9348
-5.49727
40.4083
22.4671
60.1044
25.7875
3.4511
4.31816
-24.3735
-7.11084
-10.9111
-1.49877
14.4706
-23.4666
-24.5345
-7.32518
4.69973
-39.7427
20.915
40.6404
39.6917
20.6141
-21.7665
-11.5559
-1.19619
-28.1349
-60.8455
16.9633
40.0659
10.2687
-12.1485
5.31065
-0.80763
-61.4006
-67.4032
51.2144
49.0553
54.3764
-4.64934
-19.5146
2.63179
-40.9604
-48.507
36.5652
22.5883
11.9341
16.3164
-19.4774
0.37851
-5.9936
-38.3387
-34.1779
47.375
48.4419
48.5122
-16.9569
-6.73544
1.03281
-52.1023
-52.2276
34.7952
42.6764
24.7732
-20.7917
-12.3627
-10.0432
-36.3303
-1.34596
33.0744
18.9876
21.4946
28.9914
-11.5158
-17.697
-51.9151
4.68603
16.9412
10.1862
14.7816
14.2695
-15.04
-18.3083
-61.0066
-21.4693
39.5047
24.9112
36.6362
2.00943
-8.26451
-8.14557
-53.2735
-53.3997
49.5358
50.9866
64.349
0.208408
-7.86202
3.98039
7.85382
-11.0674
-93.6805
6.79737
68.5081
12.6128
-0.659582
4.6432
5.57316
-17.7742
-35.2985
-67.9682
-14.2526
23.5259
29.3606
10.0695
5.38845
-30.1106
-37.1059
-29.2457
-41.8948
-57.9957
121.029
92.9208
49.5575
12.2486
-28.5832
-26.5345
-17.9029
-60.777
41.543
55.8199
37.0441
15.89
-65.2425
-38.6735
-20.9353
-30.4179
39.9527
13.4698
20.3781
54.6183
-14.7185
-44.0699
-74.7815
-37.7251
45.7094
39.3432
37.7682
25.3088
-49.3044
-34.4967
-13.0236
-16.0796
-70.9894
37.9186
65.9575
53.3994
23.992
33.9939
32.5745
18.4331
-75.2909
-7.40446
42.2028
18.1704
-29.8982
-27.8959
-22.6922
-15.53
-34.3323
47.7324
37.9325
33.3507
29.7572
-21.4089
-22.5672
-52.2582
-61.1426
1.17133
-0.790643
14.159
36.037
-19.9465
-34.3006
-87.4664
-70.945
27.4862
72.8902
68.1696
35.5788
-8.05874
-0.723485
5.00118
8.43409
-60.1141
-0.369059
52.076
19.2208
-13.8194
2.54996
7.50106
2.02074
-44.3473
-107.269
35.8603
94.6867
17.0364
-20.1886
6.30365
12.2881
-17.8864
-29.2634
-32.8547
49.2311
52.2117
6.0015
4.98706
11.2164
0.539405
-47.6714
-62.7588
49.3117
78.5926
88.5825
26.3668
-41.9354
-54.2303
-56.6602
-63.3813
15.2704
11.8104
5.2068
7.4801
-26.1728
7.53516
-23.0141
-50.1464
53.6185
41.6782
47.7716
33.2335
-67.0619
-103.336
-79.1529
-69.4057
5.85181
24.5541
18.2206
35.578
17.6505
29.5462
43.2454
27.6099
-33.6647
46.9752
54.2403
43.5833
-21.9479
-25.8599
3.52729
36.0314
-13.3718
26.2528
78.298
44.8268
-21.9003
-35.4906
-26.5479
-29.1748
-85.6956
-93.8915
38.2498
60.9146
39.7525
-18.5824
-23.6036
-10.6151
-30.4688
-43.7651
-53.9334
10.0898
36.1732
26.9275
19.0336
16.4759
-20.8488
-58.3699
-27.8556
36.4978
34.9993
36.8317
-27.2414
-36.2272
-12.5375
-40.2512
-27.4044
25.8116
37.9415
35.5889
42.278
4.47936
18.5982
13.2046
6.48142
-19.5224
-44.308
56.8745
38.3841
-2.62549
21.4865
24.3738
-10.9672
-37.6571
-50.9181
21.8762
26.3734
8.53604
-5.19571
6.70567
0.541901
-41.7872
-76.6354
-14.7282
59.6527
42.4824
32.8158
-9.08312
-15.8992
-39.6384
-70.3874
10.9615
7.48223
21.9634
35.0725
-6.89108
-13.4489
-28.5536
-53.0404
29.2149
28.5975
27.3104
38.4982
-16.4796
-52.3249
-18.8729
-38.3333
-14.7235
-19.2423
68.1825
68.7843
11.8286
-6.48399
0.508333
6.75726
-29.5593
-74.521
24.3129
109.62
36.8211
13.1957
-8.17751
-18.5264
-30.5726
-41.9569
-73.8799
20.2494
29.8003
22.1982
-18.5432
7.07466
-14.5637
-26.9877
-37.9519
29.8046
63.0492
74.7885
16.9823
-33.8588
-37.4356
-19.6514
-32.6887
5.84307
33.7886
23.261
46.3305
5.02344
-32.5469
-25.8595
-76.4431
-6.28565
39.4988
33.2001
29.069
-6.25681
-16.0244
-0.712413
-78.2124
-61.7935
39.4945
28.1968
36.307
27.1672
8.53271
-3.08198
1.32979
-18.167
-48.937
21.2228
29.9288
-7.14878
-29.8611
-14.3883
3.62823
-16.9747
-38.1406
34.2253
56.3198
27.6073
-25.9791
-14.9886
6.60369
-25.7199
-78.5864
34.3551
85.4577
42.5258
40.5503
7.67142
12.4986
-15.1557
-57.7111
7.99731
11.7714
9.03217
5.28108
-21.0231
1.47156
-16.8309
-101.814
-34.0172
59.6906
50.0075
54.937
-22.5742
-45.4445
-17.8915
-12.226
-58.906
-31.6863
61.2707
57.8223
8.73974
4.13905
7.38029
14.7567
-1.82253
-52.8721
-57.0925
94.6483
50.1556
-6.701
14.2593
22.7066
-12.2178
-32.1348
-35.679
-5.80134
35.4827
8.80537
-45.2015
-36.1058
-35.8723
-14.3093
-54.8217
-33.2035
78.5357
101.445
78.4689
2.90006
-4.21925
-34.6915
-81.7912
-65.3151
3.61284
1.11281
26.3407
16.8594
9.26034
17.2296
-31.1432
8.73285
48.488
31.4105
50.7613
42.9157
-27.003
-21.8589
-27.328
-80.9408
-49.1226
60.8181
83.9357
69.1134
4.87275
-7.53144
-14.8612
-37.8969
-74.5816
22.0685
20.8002
-5.8003
-38.5935
-21.7368
-2.11213
-12.0714
-55.6766
8.03832
20.8036
19.9151
5.77194
-44.0674
-16.2005
-36.9241
-80.1432
12.04
78.3753
81.9541
70.6612
9.64521
20.4946
10.5806
-21.6199
-66.4608
-7.80951
37.7528
18.3669
-11.3587
-3.56773
5.05958
-9.20212
-58.9381
29.6562
45.3703
45.4641
-1.96456
-42.138
-35.4504
-5.05874
-44.8161
-40.2349
-8.50162
76.9495
73.8274
24.3916
-4.00641
-2.73273
-11.9977
-26.8139
-62.1402
36.0496
34.6315
-8.00745
-13.3211
-5.5981
-18.2117
-62.1799
-79.6304
41.5219
53.5992
43.3186
28.2723
-12.876
-6.6673
-71.256
-19.9625
76.87
63.4581
53.6884
64.4355
12.4863
23.8854
-10.0779
-11.7509
24.4575
-40.7803
-60.686
-50.3954
-89.676
-83.6912
-88.8584
-65.2278
-6.94494
26.8575
66.6346
20.969
-29.7618
-14.9911
5.17928
26.1402
35.6219
30.1746
68.8546
66.2503
36.6492
51.0496
63.1984
64.3395
-24.9539
-45.4774
37.6466
55.1446
-36.3888
-37.8763
-7.71129
-8.22985
-23.4871
-26.2975
-58.0655
-6.3395
-5.14268
-24.622
-41.7885
-28.2714
-33.3137
-28.8903
-42.6526
25.777
41.6169
48.0754
9.97783
-5.65812
-4.47811
-48.4283
-35.975
38.059
9.41716
-5.82098
24.0118
12.4431
-17.0417
-40.8968
-29.7217
40.2834
17.4638
23.1613
46.5265
9.64948
7.56955
-7.98295
-62.4421
13.7815
67.6417
76.5447
55.1184
-2.78695
-2.21373
-5.25124
-39.9219
-48.324
8.1382
10.2415
-6.97807
-48.201
-42.0468
-30.5236
-33.032
2.08864
63.3118
64.9045
61.2387
-16.418
-42.8615
-29.9722
-88.6
-87.5684
1.21108
12.2887
27.2268
13.4573
-11.237
13.2022
-20.1693
17.2322
42.1965
41.5153
59.4105
31.7619
3.83671
5.18428
-35.3369
-71.5129
13.9548
42.6893
60.0415
18.4241
