-7.86865
-13.8106
4.45954
8.2794
7.06502
4.96212
-6.62238
-5.78557
-5.6661
-14.9615
4.46274
17.2628
10.8284
11.4854
-2.05345
-2.96872
2.95174
4.84353
-7.55089
-14.7556
4.9033
4.42442
-6.2175
-9.04159
-7.23495
-5.67137
-11.6676
-20.5828
0.313704
22.6096
8.34858
0.787159
4.69116
5.33555
2.09243
-4.36854
2.15866
7.92094
2.94583
4.97655
-4.82935
-6.36128
-9.58837
-16.1119
-4.69717
0.0312401
-4.05883
5.05507
-0.492912
-3.19048
-5.4081
-12.812
-9.19501
19.587
14.2062
16.5213
14.7147
7.71451
5.79425
-0.0219137
-13.7836
-7.3763
13.7392
9.73298
1.40626
-2.76641
-3.90168
-2.10967
-5.00636
-18.153
0.389663
6.20824
4.76647
-7.17086
-6.51393
0.906846
-7.2286
-12.0828
10.1432
17.0895
14.102
7.83436
-6.00659
-7.65508
-10.8213
-14.7127
-0.766041
2.15213
3.24499
6.29696
-1.01128
0.762036
-0.510778
-13.5139
4.96711
15.4582
17.3922
13.3577
-2.67818
-6.09972
-4.13944
-8.49495
-25.6953
-15.0591
13.5634
9.81089
-1.45862
-1.49773
-0.569833
2.5836
-1.97414
-8.9066
1.05192
19.9899
7.64059
1.29213
5.03519
6.231
-5.01689
-5.8565
-15.9963
-2.99964
12.3567
3.72562
-9.75494
-10.0293
-11.2033
-8.72284
-11.2247
4.44261
7.53427
9.36091
6.90595
4.16067
3.0037
-4.38291
-4.79591
16.6428
11.1542
9.21045
10.4817
1.4721
-4.04912
-15.0427
-19.0801
3.9507
-0.55699
-3.52371
2.09671
-4.07431
-7.05957
-17.4611
-4.2398
17.3932
11.3037
10.7259
14.5839
2.25817
-2.95211
-3.89805
-15.7936
-8.80303
16.1006
15.3123
5.49635
-8.94906
-9.99685
-8.5151
-2.93108
-12.0823
-1.80035
18.3385
7.71067
-5.65425
-3.6312
0.374549
1.36103
-7.89702
-6.18636
6.03569
24.4317
14.5574
-5.48448
-7.33365
-7.51929
-8.98546
-10.3298
-24.4791
-1.98381
17.3976
10.4985
6.86159
2.30821
-2.58702
-2.48445
-9.64896
4.17947
13.938
6.38045
1.58768
-2.71489
-4.7738
-9.25695
-16.6283
-17.9693
7.79696
5.04874
8.76223
1.79553
-3.68291
-1.25383
-1.03578
-8.80806
-5.81259
14.0208
24.124
10.6007
6.59914
2.60145
-2.80365
-5.52697
-13.5993
-8.29308
5.65123
3.20187
-12.4769
-5.66953
5.9381
4.46146
-11.3713
0.2497
4.94014
4.69014
18.2717
25.3616
20.1153
5.98274
6.32916
53.7262
50.5934
40.4319
40.4573
4.33682
-47.2405
-96.6407
-119.58
-110.299
-115.969
-69.0129
-31.732
-45.2483
-30.7533
29.7079
50.848
45.1124
51.0775
54.4414
60.4797
29.21
26.3712
22.9377
11.0622
15.518
54.9739
89.5125
92.5449
76.0315
65.5715
24.8194
12.5786
26.2756
6.11418
-23.4021
-27.9965
-27.1905
-20.4514
-21.7217
-45.4675
-84.9924
-107.55
-121.554
-88.903
-55.9407
-59.4662
-57.125
-15.3615
20.0681
15.5623
10.0745
28.0087
31.7491
19.9617
-1.45586
-26.158
-40.5203
-61.2793
-70.4029
-22.2363
8.4374
36.3551
89.2184
107.537
79.8113
58.6047
76.1729
87.6922
99.4607
153.025
134.151
42.4471
-41.1492
-95.2436
-147.793
-201.506
-204.53
-125.428
-60.8154
-13.355
68.9489
88.8947
60.6052
35.9043
31.2849
20.5658
3.09764
1.85903
0.11761
36.5501
72.1531
88.0321
83.2884
72.4863
73.0808
108.958
90.6063
23.9756
9.60583
20.6207
-21.3469
-71.7494
-95.0741
-119.76
-131.757
-134.587
-160.446
-193.094
-185.006
-232.724
-238.136
-115.571
7.56662
92.805
154.592
212.451
186.043
91.8183
63.2226
36.6073
9.6478
28.3506
48.4729
59.0535
75.3134
97.8727
119.974
96.915
44.3553
43.5074
62.7016
1.05323
-35.7152
-39.7046
-50.1255
-74.6153
-49.4123
-9.65761
15.1217
-14.383
-44.7674
-54.8504
-47.2173
-41.8843
-28.3849
-4.44106
-3.65446
-4.49549
-11.285
-81.1232
-99.7259
-96.8707
-128.783
-157.72
-54.7907
17.5901
36.7257
101.7
126.498
120.609
101.258
96.3623
88.4809
60.4881
72.6106
70.0429
0.891922
-49.5678
-44.1064
-18.6352
-8.31724
31.2287
53.9187
65.8312
-10.0313
-64.5335
-52.8504
-73.4371
-103.086
-114.052
-87.2646
6.9962
42.3263
16.3627
14.0385
-0.165533
46.4366
122.9
180.753
147.547
103.4
42.2344
1.51056
-54.3915
-135.515
-127.921
-60.9401
1.64908
18.8068
-53.6229
-181.613
-266.869
-321.714
-287.92
-156.097
23.8938
198.074
183.368
0.503599
-21.0438
150.92
133.261
144.876
340.859
421.773
299.149
84.4692
-94.0697
-128.332
-39.2281
82.2358
46.7508
51.0138
53.6371
3.43972
-94.0117
-204.27
-205.518
-127.916
-90.9252
-168.451
-121.831
-100.637
-148.244
-140.176
-77.0369
10.7215
98.9477
102.259
91.534
70.0092
96.1404
106.005
64.4743
-4.21644
-31.0764
-63.9925
-55.8289
-20.2773
9.51256
-10.423
-2.39612
8.40761
-28.49
-44.6163
-10.2398
33.0282
37.8023
36.943
64.9088
94.406
131.354
127.442
118.329
51.3806
-43.8976
-88.1805
-76.3913
20.598
29.1304
-11.5411
5.67591
45.4338
57.9417
11.6481
-67.1144
-136.882
-174.892
-151.29
-161.176
-115.411
20.304
123.3
165.342
120.482
66.1906
55.0236
18.9145
-34.1873
-25.6737
-17.3408
-30.7873
-82.9579
-88.3757
-24.0229
58.483
144.972
145.844
231.176
266.473
31.945
-194.222
-201.836
-182.921
-193.598
-193.254
-154.62
-62.1793
-3.53416
21.8192
3.08139
58.4112
151.137
171.245
133.085
182.31
324.947
206.891
-97.2809
-216.863
-247.033
-318.465
-334.44
-288.43
-170.41
-0.308932
189.288
174.781
161.389
44.1605
-73.625
-124.647
-115.175
-182.947
-230.486
-203.443
-54.9412
217.8
440.84
595.003
629.537
458.039
288.451
190.024
147.011
83.5997
-43.2634
-98.116
-177.679
-188.229
-117.294
-108.321
-153.339
-123.243
-80.6509
-134.429
-268.007
-300.068
-331.336
-349.307
-235.165
-65.009
23.2628
54.9812
43.0081
33.862
2.92185
15.407
30.291
95.8732
111.608
98.4178
78.6531
85.6789
114.606
113.171
40.3028
23.0715
33.3112
-5.05646
59.803
188.846
212.972
209.54
156.621
3.9067
-212.548
-323.344
-350.293
-333.221
-261.38
-171.466
-118.195
91.6554
366.994
413.817
173.55
102.115
194.942
157.815
85.6431
-11.1459
-85.7587
-89.8826
-34.9336
66.4891
145.891
59.6283
-8.31317
-15.2469
-39.3977
-28.7395
-31.7113
-150.64
-270.635
-278.957
-91.9309
-36.4881
-92.1974
-105.7
-109.588
-83.63
-29.4478
-31.0815
-102.519
-78.2749
33.0028
195.478
275.403
366.079
485.559
393.114
245.154
82.5986
-131.273
-368.572
-488.861
-334.697
-90.6343
68.8344
217.673
193.988
-108.724
-263.846
-196.933
-285.805
-289.771
-26.8665
173.406
150.333
150.671
171.476
212.486
213.859
141.401
94.2016
96.1207
10.5192
-88.2299
-117.956
-117.805
47.5059
172.246
224.571
193.857
133.905
74.5938
-30.733
-118
-131.911
-224.547
-241.611
-229.339
-234.202
-130.019
28.1684
61.9604
-23.0987
-185.684
-277.716
-213.995
-178.151
-103.947
-11.4135
94.0478
229.188
274.808
176.332
133.287
112.864
100.853
120.746
84.7457
55.688
54.7502
93.3906
155.949
162.157
162.365
160.157
7.03345
-162.331
-168.54
-156.987
-166.846
-146.778
-78.4551
-22.5915
-30.656
-34.8486
-58.7622
-78.2712
-25.9899
-43.9664
-111.145
-67.8055
26.762
200.057
369.245
278.806
75.9638
-50.1813
-48.6092
-15.0527
-0.0380001
80.5248
43.5812
-49.57
-180.716
-211.794
-229.053
-235.837
-151.612
-14.7906
126.706
285.185
268.894
79.5868
-126.335
-98.4109
44.9686
10.8819
-87.1096
-206.046
-279.842
-248.665
-59.8653
3.36532
161.451
257.584
276.908
213.289
83.7956
61.5987
12.9495
-132.81
-179.513
-119.076
-21.0617
43.0517
126.037
233.35
300.808
259.754
192.293
97.2194
-45.0611
-135.765
-202.209
-249.619
-260.138
-187.276
-104.575
-45.0624
33.1388
50.8345
98.5099
129.618
67.3973
-83.0927
-277.359
-342.589
-314.826
-206.036
-56.9723
116.247
171.034
162.281
128.113
78.5954
25.0216
-25.231
-54.8022
57.7848
229.223
145.901
78.4611
137.176
57.2491
25.1102
26.6097
19.1472
38.6143
58.8646
61.4219
53.8101
51.4894
88.0465
74.491
47.0148
38.9224
12.4242
20.4102
-64.1183
-260.376
-255.78
-168.234
-134.309
-112.77
-54.2631
78.6311
123.866
97.8437
41.4568
17.7255
24.2658
-113.842
-252.188
-188.947
-110.569
-33.3385
152.153
287.558
114.402
-19.1006
-44.9858
-272.197
-415.12
-252.518
-121.919
-55.9713
100.224
242.056
315.876
362.968
254.46
178.701
157.471
37.0488
-113.671
-71.8675
-68.9202
-107.054
-4.45845
104.534
162.622
298.325
208.332
-21.8203
-121.309
-161.292
-139.492
-191.416
-200.523
-157.04
-53.1601
41.5212
61.729
59.1235
90.7418
-39.646
-120.86
-57.1709
72.4635
115.576
-34.0142
-143.877
-212.621
-255.942
-189.12
-62.7021
39.2429
134.936
217.319
232.814
132.626
66.9466
95.6843
99.8446
26.9766
-42.2319
-75.7659
-64.8847
39.859
199.279
331.835
174.018
-17.1347
15.4998
36.0959
-7.33088
-96.0272
-146.168
-248.35
-376.209
-390.198
-266.325
-114.862
6.69466
145.073
213.29
175.205
91.239
-53.5974
-204.666
-265.127
-160.947
111.705
308.29
318.917
223.967
145.471
87.4369
55.7053
2.92469
-25.6185
-24.752
-30.4362
-29.4203
-39.4151
3.64972
123.194
222.843
100.077
-110.305
-212.556
-283.046
-307
-285.321
-192.125
-34.9147
88.7415
180.293
251.72
281.377
208.157
103.622
0.20704
-43.0526
-31.9413
-42.3819
-147.913
-270.575
-206.935
-29.6221
145.668
229.98
254.758
248.443
217.963
167.923
44.9758
-43.7618
-167.16
-345.769
-419.25
-467.853
-296.236
-20.4349
142.995
287.413
236.635
130.023
66.2926
-4.52346
-119.57
-8.50248
64.212
67.9575
109.058
64.598
-25.6291
-120.891
-189.665
-213.624
-72.9461
95.8015
55.768
-12.3998
22.8659
83.1735
96.2756
5.50515
-25.3486
20.2557
126.876
185.601
110.086
2.85862
-89.4513
-77.2366
-9.54527
18.166
77.6573
204.358
196.962
96.3712
4.99583
-96.1833
-145.748
-235.361
-284.755
-148.672
-58.1375
-87.1963
-75.7044
5.26123
104.626
63.9993
-52.1218
-141.193
-126.903
-45.0175
60.2485
126.116
229.391
535.347
565.594
271.558
-109.108
-435.76
-471.801
-423.61
-314.105
-232.451
-217.123
-217.668
-116.918
18.1
173.811
326.317
320.649
270.817
325.923
389.421
257.876
-17.0691
-99.2925
-186.208
-132.371
64.8658
184.4
255.897
211.676
110.518
53.8068
3.77629
-31.3253
-76.0645
-152.335
-245.107
-266.583
-264.521
-287.57
-286.192
-255.715
-233.293
-194.198
-53.8429
48.118
73.3968
90.9203
95.493
139.887
235.878
242.717
130.12
12.8068
-34.904
-52.4274
-45.7193
67.8074
121.63
66.1345
13.5363
-6.93695
-31.56
-21.1793
31.6518
79.7966
95.009
67.7435
-48.7236
-120.59
-53.6489
74.9293
163.099
206.709
216.774
122.574
64.6291
-55.5398
-262.663
-302.355
-329.568
-374.392
-367.023
-302.475
-107.934
30.1697
121.616
211.831
219.353
180.711
131.524
41.8213
-3.09159
46.9973
104.003
225.827
236.915
227.109
309.68
216.321
90.2446
69.7494
-28.9856
-149.607
-234.245
-276.066
-320.084
-234.039
-82.3049
-54.2042
-132.633
-77.6109
22.677
87.9005
103.789
107.042
93.4289
-26.8596
-96.1661
-112.54
-86.8254
-65.7804
6.13501
47.865
7.02582
44.4307
54.5912
-13.9522
37.7417
123.516
90.0856
73.2929
14.9102
-91.3549
-141.317
-236.799
-254.938
-209.938
-193.806
-49.7219
66.1835
154.462
228.708
322.628
347.143
256.756
185.695
105.834
-5.33724
-83.2527
-101.089
-153.138
-151.817
-78.0424
-18.09
6.11213
110.141
120.189
60.1893
-44.9582
-92.5529
-159.434
-168.436
-133.71
-69.277
9.10171
68.2172
89.9524
70.116
45.395
67.6119
83.2026
62.467
-5.40431
-0.873918
51.4392
-23.3636
-69.4801
-10.7332
83.8535
122.823
98.2145
-6.59962
-103.751
-112.388
-166.954
-250.684
-136.796
-47.5258
-111.135
-20.8494
80.0895
129.088
134.651
10.4413
-122.065
-255.413
-204.688
-25.2181
85.65
211.325
257.602
307.458
400.627
363.992
185.267
44.453
-187.206
-338.052
-232.317
-164.109
-211.397
-239.541
-199.738
-123.565
-77.2927
100.542
279.957
216.919
158.046
23.6506
-18.8818
-53.7389
-109.402
-126.303
-56.4368
8.62963
24.0567
50.3273
74.5615
50.5507
-16.5963
7.0866
48.9665
70.5981
133.131
200.656
251.548
220.496
-72.6278
-215.514
-203.113
-201.85
-253.965
-251.435
-100.395
46.2729
120.991
244.246
298.662
170.713
41.2802
-43.2141
-101.373
-94.5281
-90.0135
-143.091
-231.707
-178.972
-107.332
-82.0333
-13.9618
108.09
201.462
159.073
71.9138
46.4763
25.8722
-0.188448
41.1376
53.3625
21.3016
-48.2259
-154.245
-242.265
-156.374
-110.39
-59.9867
71.8516
257.523
256.586
163.043
108.007
106.493
103.835
68.5565
27.6962
-28.6575
-82.8212
-129.223
-19.7996
55.8271
-36.0253
17.0538
64.1575
84.7503
104.156
33.8264
-80.2243
-171.012
-208.486
-311.87
-291.785
-269.052
-196.98
-107.61
72.289
171.318
24.192
-52.6981
-7.57542
166.342
393.743
431.408
319.057
7.69051
-170.997
-114.934
-96.2258
8.98053
121.765
241.988
241.515
199.224
120.702
-5.45712
-102.067
-99.2505
-31.8687
-60.7593
-98.953
-173.286
-212.156
-226.021
-193.817
-110.294
-34.5535
7.86359
-10.4899
-76.9296
-88.8048
-58.6085
-62.7939
-81.4406
-91.177
-26.2753
33.4858
145.817
136.775
33.7445
-37.9069
-34.4704
-32.7956
-70.0334
-90.573
26.6274
213.744
315.967
325.217
244.209
170.723
138.82
153.985
64.8812
-74.2766
-81.9442
-123.775
-157.349
-55.0689
-76.7604
-92.7391
-41.3436
-45.3011
-57.8953
-32.661
-25.2941
-39.9552
-43.6037
49.563
186.11
204.128
12.9022
-202.242
-257.492
-208.153
-90.613
17.5657
44.9131
27.0927
93.6511
129.057
84.957
73.2203
51.2565
51.8772
7.32711
-147.123
-243.915
-336.629
-330.515
-135.167
103.561
134.589
125.977
181.521
128.261
112.901
142.618
61.5326
-62.4688
-15.6404
177.225
181.101
-36.4564
11.5784
84.6304
149.237
76.9808
45.3442
176.611
96.7993
-127.166
-199.049
-157.485
-98.4833
-114.4
-189.952
-267.212
-252.884
-81.6696
-54.2558
-113.776
-55.5527
120.661
121.327
115.439
87.8024
101.654
160.379
75.1635
-0.647246
20.3355
55.3173
6.37279
-66.8388
33.3908
87.4016
49.3427
-38.2756
-167.765
-109.113
-80.5736
-46.1858
17.3796
61.2812
75.0937
35.6921
21.1093
24.6985
-24.4358
-13.8907
39.1652
69.5696
115.878
150.083
55.2226
-12.4536
-22.7506
44.1256
81.6479
17.9704
42.2705
80.4603
57.4957
-61.9466
-143.333
-184.482
-230.132
-240.741
-244.196
-169.58
-76.2946
-18.794
-28.2048
-8.28259
10.027
30.5724
98.8514
246.421
195.844
75.5922
78.5067
127.593
95.5766
67.0807
100.019
59.8083
-139.022
-225.875
-99.5481
-139.605
-183.022
40.9413
232.717
231.643
44.0853
17.2225
101.241
25.9237
46.3749
177.614
50.2
-123.782
-100.032
-112.128
-154.011
-129.584
-34.6946
-17.8339
-41.6393
8.86509
116.148
82.8789
-19.7704
-44.5451
-5.04404
-34.6569
-123.692
-121.615
-47.3708
-111.26
-167.307
-199.052
-154.269
-3.30245
104.118
221.96
436.65
301.536
155.998
-13.8481
-40.5755
69.0479
15.3596
-76.1908
-91.1837
-125.417
-162.761
-186.988
-71.9631
100.723
152.552
172.597
280.651
261.81
115.696
-122.666
-265.498
-274.196
-230.093
-97.0628
-37.1981
-22.8177
91.3244
191.454
186.322
133.591
57.8662
31.3933
39.7451
56.3135
27.6036
-10.3786
-3.40974
-40.7055
-68.3809
-132.516
-171.134
-130.323
-121.461
-88.5453
-0.921879
0.182654
11.4751
14.1873
-77.8949
-117.897
-77.0537
10.2344
52.9763
56.7226
75.7349
158.026
179.03
155.731
109.682
101.839
-1.81481
-135.905
-97.19
1.75548
-129.119
-120.498
-17.7136
-7.85795
62.8858
126.81
17.1311
-138.447
-63.0273
46.1106
60.3254
-83.7971
-70.4442
37.8053
93.6571
81.0459
89.1451
91.8367
-16.9344
-112.965
28.396
6.8496
-12.5319
134.816
164.735
116.308
115.481
161.387
35.416
-139.052
-276.173
-234.273
-131.347
-103.587
-81.1823
13.5607
52.4011
-113.702
-98.7564
-2.52518
15.3595
24.8196
-4.656
-76.7849
-145.011
-111.867
28.6771
66.2657
71.8946
50.7231
146.736
201.077
107.656
1.74405
-104.943
-207.731
-120.057
130.827
163.504
59.8995
12.0976
-1.26698
5.1269
-40.1792
-148.441
-45.6081
65.2932
71.355
106.346
153.506
126.19
113.557
94.0802
104.535
95.5329
22.3761
-55.2068
-75.3347
-112.878
-117.489
-23.3883
-46.7321
-185.837
-160.943
-72.1385
-106.622
-131.148
-71.2428
-74.0407
29.3038
7.46094
5.05148
58.3891
120.746
182.73
163.267
8.73356
-203.95
-305.482
-190.06
19.4683
173.314
320.864
258.25
221.65
177.479
75.5286
-0.609833
-68.9673
-111.288
-66.1018
-79.5164
-177.189
-234.52
-167.274
-120.282
-72.2737
87.6108
193.843
138.705
34.903
-5.19127
75.6134
109.558
40.6495
1.04124
-14.2381
-48.2692
-67.8654
-124.273
-109.223
-19.6971
27.4736
36.7897
50.2795
30.2476
59.1252
12.9886
-54.9788
-52.7513
-34.4853
-70.8229
-139.703
-108.693
-25.8903
35.2335
122.934
192.635
282.861
236.751
113.795
22.1931
-35.0507
-104.989
-149.809
-112.052
-153.957
-204.234
-186.631
-125.705
60.216
243.895
202.935
77.1218
103.735
128.041
117.889
120.971
-16.31
-76.1454
-199.453
-280.725
-201.823
-63.6887
-87.632
-30.1929
192.468
254.99
186.95
148.122
44.9459
0.325422
-80.2842
-199.737
-218.512
-187.749
-179.845
-196.602
-80.7259
108.99
260.259
255.386
161.29
45.1571
9.47819
-34.1307
-96.3134
-64.9356
36.2865
96.5518
26.2292
-79.4477
-47.8885
53.0504
52.2028
13.4225
-15.6263
-32.1542
-30.8731
-37.9434
6.52586
46.5711
77.5122
94.8883
75.181
9.27886
-32.0048
-8.47309
20.7286
-8.8564
-74.9654
-116.648
-70.8272
-5.8392
14.7826
-12.699
-32.8183
-33.419
-3.54494
21.1311
34.9386
17.5329
-44.9606
-12.3414
56.3675
46.3897
21.006
14.5319
9.48378
12.9302
7.78552
-9.39964
-9.82741
-12.9183
-11.0018
-1.74796
30.54
29.2983
-70.3714
-206.665
-197.019
-87.4308
99.8196
109.271
51.3033
47.3598
-26.6791
-86.8202
-86.4786
-36.7836
79.0939
66.4809
169.555
314.124
180.025
113.755
45.9116
-84.6121
-147.809
-51.0555
18.1382
2.23438
-19.7552
-24.042
-70.1215
-86.0217
-45.9775
73.9154
161.923
52.7054
-142.366
-178.075
-217.516
-239.655
-86.0313
-5.35871
51.331
190.308
260.472
164.097
75.0216
33.2709
-80.0045
-178.511
-190.993
-145.439
-33.4358
65.5772
26.1228
3.0608
88.8261
169.219
109.898
59.1833
89.5042
68.1982
10.7171
-67.4636
-126.333
-118.736
-65.6406
-71.5774
-75.811
-46.9102
-3.78541
4.65594
80.1771
72.66
62.8978
236.208
201.005
13.5598
-93.128
-159.946
-206.24
-201.642
-177.222
-47.2986
84.0732
185.623
185.309
203.912
217.547
188.348
122.494
61.9358
-58.3276
-178.892
-215.091
-280.338
-230.565
-54.1357
-12.1725
-30.374
40.1787
60.6764
43.6992
-90.4438
-150.428
-20.3889
97.7161
62.7041
59.8326
55.3446
-50.6313
-99.4001
-68.473
-78.69
-15.1802
70.1469
86.7937
103.547
166.81
126.865
57.295
76.3786
124.008
60.8033
-6.77477
-150.65
-184.173
-147.219
-84.8873
-21.9075
106.327
176.048
115.275
103.464
87.2701
113.926
-39.4392
-104.636
-7.7279
-40.208
-202.391
-218.849
-98.8306
-30.2146
40.1075
123.144
161.861
199.032
80.0457
78.3231
120.323
12.7383
-73.9319
-158.169
-299.815
-404.837
-255.241
-194.719
-220.713
-44.1645
22.7579
-82.5731
-70.14
78.3273
159.533
180.422
113.304
73.9186
145.98
180.023
174.877
154.219
92.4402
132.998
195.572
126.759
120.451
109.139
26.9909
-21.1014
-12.8059
41.8582
-44.2571
-80.1221
29.1619
-8.49728
-42.5644
114.51
71.4805
-238.759
-389.285
-222.975
-34.3445
-77.8085
-124.079
-254.062
-304.592
-287.369
-252.771
-252.66
-253.078
34.7939
164.165
98.749
17.3913
22.8737
137.266
165.029
212.122
277.198
350.203
360.333
214.384
203.119
238.137
306.151
241.262
147.434
142.829
177.941
202.986
25.9936
-107.637
-127.626
-181.891
-200.587
-266.527
-418.116
-413.76
-269.615
-204.567
-253.593
-253.476
-185.826
-118.157
-89.319
-57.5705
0.42378
25.4849
42.1406
98.127
84.3547
89.3793
127.635
109.159
64.2597
17.5669
11.2523
31.7085
47.6058
25.1816
9.02768
-9.78765
30.8413
146.925
264.175
260.993
246.723
207.498
88.5185
-64.8768
-159.529
-167.344
-104.371
-30.3004
26.9085
26.3973
-43.9542
-104.789
-87.8497
34.2085
38.5627
12.7698
-0.727286
-77.9756
-215.113
-221.783
-43.8415
38.1203
86.7248
149.43
115.195
73.9416
63.404
51.3014
52.2012
-20.5335
-11.2553
77.9919
84.9763
-36.8758
-134.789
-147.722
-156.122
-79.8576
-23.2853
-64.833
-126.07
-148.885
-179.164
-107.91
-32.6839
15.8474
92.0295
122.756
208.814
171.469
76.8443
98.9494
48.1474
-102.955
-187.9
-144.183
12.4115
111.2
193.163
307.099
293.892
139.67
108.819
110.177
-25.1567
-145.291
-225.761
-243.072
-217.963
-47.0678
58.5748
-36.5932
-138.371
-58.2472
104.137
208.975
159.38
80.4792
-52.154
-200.517
-329.678
-251.573
-109.219
-29.8725
67.5427
146.118
144.254
87.1969
-9.23103
-54.5259
-53.3111
-16.4915
106.509
220.454
262.308
199.098
13.4826
-172.014
-209.827
-178.784
-88.5511
26.3516
77.6352
53.373
98.2702
114.543
68.9082
27.4979
6.6256
-17.457
-26.71
-51.5971
-27.9587
-65.6575
-118.543
-177.283
-132.73
-66.7436
-25.043
113.305
155.514
114.39
57.8658
35.8132
27.1671
9.75638
-17.4371
-13.4517
-46.8587
-18.6673
141.855
174.211
16.4071
19.0822
-120.866
-255.538
-272.546
-150.77
-42.4929
-128.179
-128.102
-68.6603
11.2544
202.95
468.718
496.51
289.043
147.659
148.986
-16.8301
-347.478
-465.866
-359.284
-328.742
-94.9488
120.858
60.651
-35.2254
55.8347
216.439
246.765
104.926
37.7699
-30.4352
-186.195
-224.802
-118.172
50.1853
84.7817
122.325
174.936
110.497
92.0887
125.061
103.29
75.5717
131.219
101.915
9.27115
-54.1584
-111.332
-94.2081
-115.702
-164.249
-243.821
-246.612
-101.488
-51.4416
-115.447
-169.371
-63.7793
40.2089
35.435
74.5531
97.7625
175.366
278.187
207.169
172.557
162.831
2.26253
-66.0692
-139.403
-374.502
-364.005
-146.777
-128.972
-181.56
-11.2814
192.79
122.257
60.5836
95.187
139.919
349.302
333.284
168.768
33.4328
-102.136
-196.824
44.2299
196.757
140.925
161.399
15.0079
-124.464
-98.1951
-71.4485
-126.704
-118.144
-54.7554
-20.7296
-15.8363
-73.9988
-201.859
-203.268
-64.8996
75.921
66.9178
12.1166
-64.8441
-96.3967
-55.6421
21.4897
86.9401
66.4751
52.5302
51.6375
34.6561
10.2512
-2.91102
17.5921
51.7351
22.1955
-57.8469
-82.7244
-90.6113
-81.7687
-57.4477
-19.6142
-15.5871
39.4998
113.584
140.223
102.393
19.2113
-44.1135
-7.38318
-0.917021
-69.6065
-14.4095
86.5142
124.344
224.463
212.505
94.5309
-52.549
-204.696
-264.314
-305.505
-279.53
-124.791
-10.3201
102.358
172.759
242.062
284.019
107.791
14.3926
122.942
107.302
-3.43081
-106.279
-222.079
-189.865
-73.5998
17.5426
13.3939
21.015
43.1306
71.4539
23.9259
67.3186
101.678
-0.487843
-82.0257
-130.331
-190.072
-202.364
-100.616
-102.231
-2.58405
204.932
143.235
10.4648
-56.7284
-65.6345
20.1716
89.312
156.227
109.298
31.8967
29.3672
-79.3344
-74.9928
-71.7978
-64.8949
38.4465
26.9974
-40.7288
-2.51897
-1.38791
-47.7741
-58.7173
-68.4237
-44.9521
-3.56999
89.7922
178.655
216.742
217.652
186.128
80.188
-54.8863
-104.427
-210.057
-235.519
-126.695
-26.5955
-115.478
-121.134
-37.2412
-28.2842
45.7419
45.6549
41.7894
41.2378
63.9965
53.1425
57.8327
141.546
152.285
43.9207
-4.3249
-25.0967
74.968
88.3947
69.2608
94.8946
40.676
-50.9419
-162.449
-164.1
-137.961
-84.2593
-47.697
-38.4315
-37.8716
-55.0947
-89.9407
-202.85
-173.502
-78.1686
-18.1966
157.785
316.494
375.399
224.843
37.1083
-119.082
-265.595
-235.16
-256.592
-227.265
0.231126
180.009
335.94
346.115
322.761
120.77
-97.9896
-179.691
-210.23
-177.061
-212.294
-235.101
-165.207
-2.83393
148.448
185.68
303.381
408.583
359.151
255.672
50.8774
-15.1635
-130.387
-215.089
-257.353
-235.149
-137.953
-89.8639
-54.8249
-28.6399
-41.5876
-65.5082
21.2619
10.4885
-44.9379
67.2865
148.899
30.7953
-13.9157
-23.1437
-47.14
-79.0309
-57.9536
-59.4836
-98.1644
-61.0006
40.561
145.031
201.414
192.128
85.9443
41.1753
-60.6769
-127.581
-53.3916
20.6684
48.1425
-3.25325
0.541481
26.0983
-1.02551
-72.9673
-100.255
-93.6159
-51.7335
19.6506
29.415
-18.8863
-49.4418
-11.8247
87.8232
115.798
120.361
158.677
60.6398
10.4355
12.147
4.78073
4.65644
47.4578
58.3694
0.0944501
11.7574
3.53961
-120.56
-92.1147
-92.3487
-187.795
-215.1
-173.945
-95.6074
-3.00465
-47.6329
-221.661
-147.038
-36.343
4.96202
91.101
181.132
175.771
222.997
268.159
199.424
184.992
197.922
117.943
40.343
5.30525
10.1973
54.7389
89.308
34.6538
-33.526
43.4339
70.7948
57.2391
-36.1238
-184.492
-342.113
-477.315
-528.289
-403.849
-318.704
-202.4
21.8592
156.705
214.027
237.941
235.148
219.861
175.404
115.628
132.715
182.559
125.505
42.2043
18.8188
22.5657
19.2326
-1.26228
-74.5737
-150.291
-125.489
-87.4826
-34.2896
47.9143
98.0876
204.455
178.06
19.1482
-118.852
-238.426
-302.155
-261.887
-216.352
-160.016
51.754
212.382
141.36
129.472
132.372
96.6529
40.8453
-43.0519
-90.9859
-62.9902
73.1307
87.6734
98.8389
86.65
-19.4093
-163.182
-166.583
-179.327
-208.878
-111.897
-96.2427
0.210352
198.72
258.054
255.955
242.237
208.322
183.367
128.348
33.4077
-85.9977
-173.804
-173.522
-73.4597
84.6352
188.829
203.81
210.213
129.883
-106
-203.455
-170.547
-91.2827
-71.6203
-104.986
-121.298
-91.1128
-104.856
-125.106
-175.251
-208.067
-240.96
-165.964
-71.9346
-67.22
-16.7007
92.0436
168.041
276.153
342.276
159.117
-76.7065
-116.465
-124.879
-169.384
4.06458
131.603
109.602
64.7421
76.5928
54.8562
18.3959
47.8856
101.185
-2.69718
-42.9753
-90.1528
-114.415
-217.044
-97.262
300.379
388.841
201.604
146.999
216.205
86.3612
-58.7235
-55.406
-21.2447
-41.6274
-71.0282
-64.4384
-112.518
-146.052
-49.3778
77.3905
151.587
142.055
102.711
-27.1514
-215.067
-246.473
-181.484
-198.829
-212.895
-186.23
-145.533
-40.3317
-14.8881
-22.4387
71.5086
88.9823
12.4829
-39.8439
17.7178
18.5692
-36.8811
-17.0215
98.0065
178.155
148.138
106.971
79.1108
92.3975
80.9913
29.5988
144.729
243.831
171.197
107.069
23.63
-127.608
-225.674
-293.7
-334.415
-241.515
-90.3886
-7.0312
80.1183
181.013
205.042
184.587
77.9907
55.5266
64.5853
41.0936
-132.069
-240.412
-153.264
-50.4209
-52.5225
-1.42467
140.719
131.014
142.98
158.38
161.361
146.922
-34.8269
-203.956
-316.744
-261.743
-232.723
-227.362
-102.979
36.0105
120.517
162.778
112.828
42.3368
30.2245
113.15
115.376
140.366
159.794
102.683
46.1556
-33.1459
7.14853
-8.04087
-73.3062
-209.047
-170.236
-98.8035
-130.15
-10.5647
102.547
-88.6779
-150.464
-59.5422
18.6645
32.1619
22.9596
36.037
65.532
81.7543
79.4824
55.5742
10.2876
0.171444
40.311
114.361
257.575
362.072
243.219
-159.58
-356.211
-247.196
-21.4722
1.60335
-91.4556
-11.3251
-62.5211
-101.981
-5.47427
-29.3368
-156.829
-104.753
3.38371
32.0023
52.3307
30.5375
-33.4734
-7.63547
139.462
303.908
422.915
307.062
-60.2529
-289.321
-298.903
-230.589
-73.0252
15.3702
-72.0465
-115.296
-161.259
-196.438
-28.5471
57.2192
-15.1149
32.7345
96.4918
13.8039
-44.9931
8.80694
21.0612
113.631
189.578
223.066
219.597
150.802
92.9595
98.9783
133.798
107.413
127.922
106.562
-55.4377
-119.048
-29.5978
-36.104
-101.535
-165.109
-220.977
-278.225
-382.167
-345.168
-169.672
47.7685
164.241
138.181
1.71753
-44.3118
15.0171
26.63
0.0876814
43.9425
75.4849
63.001
59.2326
122.391
234.989
247.398
69.399
-29.0234
1.09727
-126.93
-196.273
-268.822
-292.632
-136.315
-113.372
181.296
286.172
233.935
-91.0581
-308.484
-353.687
-337.601
-134.707
142.405
174.401
209.46
366.511
401.38
357.046
365.185
323.772
252.184
125.633
14.4041
78.5427
-142.796
-304.903
-319.36
-161.715
-102.764
-54.9935
81.8165
99.1398
-118.932
-264.819
-281.484
-233.526
-188.687
-179.031
-119.177
-117.413
-21.7506
108.895
2.74042
12.0761
14.7906
-4.72041
24.7027
133.211
230.481
238.254
158.883
51.4127
-3.0933
-21.337
-40.2525
-49.9431
-80.1998
-95.4051
-51.4127
-21.6374
-43.6506
-14.9416
41.9869
48.6999
8.32401
3.76663
161.401
295.04
344.675
191.052
-83.5141
-290.319
-306.267
-234.233
-174.009
-66.8003
22.3918
-3.92523
-61.1076
-9.57532
53.5122
125.046
205.862
233.156
115.133
112.462
61.6361
34.2764
18.8174
66.4568
149.711
180.346
108.315
-13.544
-26.0092
90.885
53.9939
-99.7431
-217.114
-297.764
-528.195
-678.196
-539.29
-242.307
-17.9133
19.1534
57.9219
-36.4587
-67.0694
19.9991
99.09
145.161
182.387
262.943
256.474
168.145
155.695
257.291
397.916
450.353
464.545
261.979
-74.9577
-361.082
-399.674
-360.578
-208.513
-47.379
-13.4317
39.7315
61.0331
10.9476
-9.52564
-49.9209
-77.9598
-128.973
-132.339
-90.4768
-80.7588
-42.5158
21.7599
73.1561
80.4364
63.8613
17.3173
1.82454
-9.12442
133.069
170.428
15.0118
-83.6985
-106.015
-112.81
-29.6086
32.592
54.5852
60.2069
84.233
-14.7808
-197.534
-165.807
-54.7165
1.56055
88.0992
215.629
252.108
132.939
-75.3944
-238.873
-272.974
-170.027
-96.7119
-103.037
-115.922
2.00639
63.703
93.7766
34.4639
106.389
207.56
141.655
103.997
92.4919
0.493563
-59.2795
-39.4515
7.16877
67.0092
145.994
318.74
349.97
302.91
242.734
93.1934
-154.611
-330.264
-424.529
-446.88
-432.23
-454.154
-304.272
-116.868
23.066
198.772
271.796
203.11
96.9345
70.6902
71.1524
-61.2348
-106.572
-28.0276
2.77748
68.5882
89.5276
66.4677
56.7827
107.644
140.878
181.092
118.953
75.4423
47.7808
-29.5406
-51.943
-79.5778
-127.42
-135.985
-166.754
-193.62
-243.992
-275.316
-233.933
-11.4068
257.819
234.252
208.294
198.889
57.6292
1.15818
3.91849
-3.03722
-0.475042
-72.4923
-108.161
-80.4773
-58.0689
0.0685604
118.503
214.919
297.038
277.059
212.339
-18.9118
-256.897
-228.809
-240.848
-237.04
-97.793
65.7174
154.588
105.313
-13.2775
-61.8931
-77.4974
-22.171
54.2236
84.6998
130.915
91.3134
11.7036
13.8549
-11.6225
-145.374
-254.366
-10.7355
111.186
202.979
179.81
-90.6229
-343.948
-353.295
-282.312
-180.145
-110.719
-6.44085
123.271
209.892
214.655
231.845
215.466
121.529
55.2647
88.7034
192.134
66.2401
-28.8358
119.655
191.085
81.482
60.3109
91.7322
-137.349
-350.201
-432.753
-385.805
-248.45
-103.152
-6.37357
112.715
76.1113
-12.3741
-44.5352
44.282
64.3264
-32.2723
-3.99679
143.475
197.638
261.485
259.508
94.0815
-150.253
-285.355
-197.422
-26.9955
-7.19258
-55.2958
7.61859
81.7716
145.086
255.58
297.709
182.066
-104.136
-284.555
-229.346
-143.151
-92.9581
-278.046
-253.932
-59.5408
217.938
420.672
471.794
377.226
215.134
33.9905
-194.167
-254.617
-268.233
-505.843
-600.131
-332.534
111.554
292.882
187.945
129.671
172.281
140.219
-20.525
34.8001
168.183
46.6517
-216.081
-261.436
-202.634
-88.5473
111.659
125.017
141.357
253.187
222.064
40.4369
-105.427
-126.874
-30.4991
7.07107
-60.574
23.6077
54.8545
-42.1162
-169.76
-162.987
11.0524
121.518
190.824
235.849
178.302
100.215
31.9282
37.5771
92.2363
32.9085
-69.8821
-2.41056
-4.21124
-89.9868
-190.028
-222.676
-201.931
-158.496
-114.495
-49.0574
-12.9528
39.9494
138.854
149.291
64.7183
-56.2426
-158.21
-179.329
-179.561
-18.899
124.103
-2.46579
-60.2115
-81.4978
25.0825
138.424
229.545
304.192
248.975
109.55
37.7279
-131.924
-337.08
-271.899
80.754
189.807
224.581
339.628
284.017
-87.5676
-315.998
-331.236
-291.649
-227.949
-161.65
-83.9836
-31.9908
-58.4351
98.9048
324.187
281.084
157.863
193.516
118.052
-64.432
-38.6014
18.3171
-19.8084
63.9521
199.923
169.934
93.9959
-1.67373
-26.6515
-88.2339
-137.504
-154.466
-205.971
-283.209
-295.485
-157.723
13.8186
59.1111
12.2797
-52.8465
-69.0824
-110.491
-90.5527
-8.699
49.2972
68.1846
38.4956
-29.6983
-91.5863
-69.8585
-7.41814
56.7723
85.5372
228.274
264.247
267.458
293.137
217.939
106.959
35.1497
56.1435
68.9664
45.9203
-132.634
-267.355
-235.285
-38.7477
112.892
93.2786
-5.8965
-38.6174
-12.004
104.373
88.2683
-232.397
-396.939
-342.895
-191.303
-115.675
11.8763
119.606
52.4167
-9.59525
7.94074
-14.66
-42.5342
-26.5868
62.976
173.663
162.153
120.315
59.2733
-33.1133
-92.8312
32.9549
153.308
160.012
86.8365
68.741
-12.6413
-122.104
-155.982
-159.053
-68.3197
88.6868
233.463
239.812
64.9748
-129.6
-154.444
-168.096
-84.0443
-35.1074
-56.4201
-2.69725
-10.0571
-31.3442
-46.3286
18.5815
85.1999
90.1919
142.903
151.845
105.24
63.5313
-2.42862
-45.5341
-15.1303
12.3307
-82.6216
-161.243
-221.249
-174.393
-81.5869
100.324
120.396
-68.1866
-49.3491
-106.908
-209.817
-238.922
-179.587
22.5493
183.315
187.916
57.8652
14.5041
109.429
187.062
247.837
266.374
171.039
-67.3592
-92.5318
-79.6145
-75.8745
49.3662
269.083
452.925
174.435
-57.5359
-115.08
-190.458
-214.824
-202.4
-94.8132
73.8519
172.016
164.645
-16.3205
-213.606
-278.198
-248.402
-314.904
-424.802
-341.524
-272.773
-184.064
-77.9166
59.2725
238.401
331.173
307.365
268.524
266.223
185.462
159.999
147.352
54.7909
113.554
177.748
169.676
208.602
183.62
159.653
101.581
73.4085
-86.3628
-232.445
-159.221
-126.127
-143.592
-210.235
-254.46
-268.698
-249.542
-284.955
-329.191
-242.148
-59.3727
59.9121
90.3228
89.7045
187.442
252.848
175.852
117.128
38.4508
-51.9357
-23.851
62.0973
135.06
180.681
170.272
98.0662
1.37151
-118.776
-246.94
-295.3
-273.545
-204.821
14.4616
82.146
-29.0025
-6.61806
284.11
351.228
119.817
113.933
228.261
121.275
-6.68033
-15.8302
-46.6321
-5.7396
-22.7503
-100.966
-46.2853
62.5463
104.302
116.376
11.9617
-32.5064
-52.3529
-96.1452
-162.474
-94.9634
-16.3647
-41.5249
-86.6769
-87.8509
-14.9922
-172.381
-303.519
-290.322
-60.8341
173.37
225.164
195.646
80.7217
22.6632
33.0456
77.5852
90.0945
37.3763
-85.8825
-155.318
-114.587
-46.8504
55.5894
209.499
230.505
181.895
151.285
121.743
42.908
-135.421
-294.435
-301.817
-224.943
-100.615
-49.4549
5.93378
54.3654
164.31
289.981
273.083
145.377
-38.741
-187.42
-251.918
-219.988
-48.1199
149.431
154.631
44.1406
77.9067
119.214
147.967
153.708
138.131
75.9998
81.1799
-9.90641
-145.926
-256.883
-309.811
-368.262
-281.758
-125.484
-4.02048
87.7291
237.506
169.903
21.0094
105.596
48.9191
-150.004
-168.62
-60.4511
-75.6049
-46.1825
-39.6807
14.641
85.3405
59.2836
36.3904
125.563
172.723
108.51
24.825
-34.042
-101.713
-39.4993
77.0841
14.6635
46.6917
178.375
173.967
143.761
102.577
8.19011
-155.238
-195.854
-141.015
-43.1012
53.0027
104.501
33.0538
-85.1855
-195.567
-182.898
-77.8606
36.1703
87.5209
-12.8554
-78.7929
2.2182
-11.6948
13.4538
27.9106
44.7997
71.7284
19.8553
-118.852
-43.6103
-23.6542
47.4786
190.304
300.076
192.261
-66.8012
-281.731
-329.948
-172.525
-36.0074
0.0715325
39.8321
42.6905
29.6298
94.0466
55.1929
60.6864
54.9472
10.6789
-57.3052
29.3767
45.2175
-2.96452
-13.162
89.9848
109.496
133.109
156.684
40.1014
-28.4152
-69.6865
-85.0811
-98.2071
-169.639
-212.122
-164.87
-59.4847
63.0074
77.753
-36.1726
-82.0543
-47.0852
51.475
228.289
259.785
202.612
20.4843
-253.243
-490.317
-401.551
-265.998
-130.491
81.3552
194.361
139.65
112.498
135.233
156.463
255.225
387.696
416.013
278.204
95.4203
24.3226
23.8922
-52.7568
-87.4401
-107.477
-37.9576
9.71201
-40.085
-206.602
-309.41
-326.109
-234.705
-160.997
-49.3707
39.3022
10.5871
-65.0237
-87.2036
-19.2545
-29.8346
-71.8914
-86.4137
-42.2146
-11.5072
-43.3468
30.5231
-62.1462
-100.373
45.9916
250.773
446.539
397.065
257.031
69.1992
-27.4323
45.6411
54.298
66.1527
157.677
213.133
-59.0255
-285.651
-364.538
-251.726
-47.5675
7.30178
67.7289
119.244
171.065
69.6853
-120.738
-154.45
-151.624
-183.902
-130.74
-99.6108
-129.819
-113.564
-6.56312
23.9572
94.8664
117.607
198.417
225.7
234.289
197.759
136.628
110.563
11.9395
-75.389
-95.6049
-58.0489
-30.0021
-40.356
-122.117
-138.608
-50.1179
-98.6465
-203.585
-154.97
-142.106
-95.3618
70.7698
87.7036
60.118
44.4011
50.5128
-4.49408
-87.4607
-94.6759
-58.0748
-41.1064
137.07
265.261
171.45
135.29
301.11
281.485
36.7155
-144.786
-239.187
-270.369
-202.367
-75.8921
-14.0917
-7.99216
38.3735
143.511
182.089
149.562
98.9874
98.9801
-1.44575
-73.6995
-17.8737
-13.4828
-174.333
-211.009
-173.323
-121.383
-27.0866
79.9861
99.3029
63.966
94.374
115.246
0.962637
-31.3213
-7.63199
-73.8728
-120.163
-120.695
-94.5701
-11.4674
45.8065
43.7009
-20.8373
-29.4809
18.0069
49.2962
45.556
46.2572
56.1466
24.6556
-2.31469
44.063
155.586
206.625
243.331
176.129
-55.7442
-313.966
-335.309
-332.127
-260.312
-95.2652
-4.00625
64.5683
252.234
278.639
188.975
140.422
48.4375
-69.6354
-169.438
-211.927
-228.961
-141.912
-73.7285
79.676
162.258
186.506
183.726
276.736
377.099
295.526
241.126
83.1833
-357.096
-457.474
-312.241
-244.711
-124.491
11.8743
-10.5352
-22.0884
-42.6243
-90.2937
-87.7123
-49.3483
60.7645
184.409
129.133
11.927
-90.1832
-159.474
-219.853
-221.089
-107.239
-51.5422
32.2645
102.88
120.815
142.078
245.107
271.979
210.971
87.9634
42.5243
8.73767
-2.28527
36.6932
64.402
39.6878
-35.2386
-74.3351
-81.0089
39.2222
167.22
168.212
68.1417
-76.7359
-175.181
-139.176
-144.083
-190.498
-119.856
-42.5939
-7.11625
25.2807
-81.2547
-118.587
-91.718
-67.7695
-33.4426
-59.1065
105.372
175.724
132.87
182.079
133.797
3.78678
-22.3498
-46.9379
-128.178
-107.937
-133.082
-156.237
-72.272
-38.1045
82.989
185.389
134.61
33.1511
47.8922
120.826
39.2798
31.9443
189.244
165.448
55.3255
74.3193
34.3153
-43.9073
-14.5463
33.6839
50.7178
33.5886
-85.9398
-156.504
-158.966
-157.429
-122.122
-58.4274
-51.3406
-53.5021
-88.2233
-137.61
-169.568
-200.187
-137.079
-9.95442
60.8989
98.7749
95.6464
60.1854
74.725
84.6724
72.6249
33.3524
11.9091
5.49877
78.2584
99.9661
44.0721
112.837
16.2429
-74.202
-63.5486
1.30692
108.845
224.103
164.797
42.9811
-27.5857
-110.135
-122.086
-96.837
-14.259
133.935
250.736
241.476
173.456
129.073
-18.3979
-222.399
-282.623
-296.175
-258.585
-161.294
-118.106
-138.767
-49.2041
-114.085
-76.5258
173.049
281.627
186.173
66.4114
-36.3452
-27.9463
-15.2084
-73.6789
-101.742
20.444
60.2375
109.181
158.642
104.445
-4.02069
-47.1653
-69.9303
-105.756
-4.38909
17.0688
-54.5257
-78.6159
-24.7984
-21.7969
-21.5243
-27.6797
-39.7963
-22.7897
12.0919
83.6868
147.738
129.797
37.8053
0.767321
-35.7254
-148.411
-197.33
-161.4
-28.9006
120.033
266.486
317.57
234.87
112.791
-25.6846
-149.25
-276.125
-254.697
-186.866
-98.9519
145.456
377.971
357.918
172.813
27.3762
-2.27696
-30.104
-40.478
-140.688
-247.889
-285.918
-379.335
-239.4
-71.5433
1.5872
-9.68979
150.117
298.621
202.012
89.6854
-24.164
42.2575
131.136
173.553
166.935
93.0503
-83.184
-272.741
-299.629
-222.288
-94.8748
123.205
264.577
189.617
70.1071
31.4684
23.4037
-64.534
-62.6288
-47.185
-86.2698
-214.831
-208.596
-134.008
-88.2754
35.146
200.896
288.31
376.21
289.282
44.8405
-84.834
-189.907
-165.405
-66.473
8.40578
3.58344
-36.9954
-46.378
-88.7625
-170.939
-206.018
-177.91
-196.693
-94.9442
122.688
338.71
455.978
343.931
192.824
105.106
-10.293
-179.51
-123.817
-118.66
-194.837
-145.848
-37.4923
-70.749
-147.332
-107.791
-25.7659
52.9262
141.417
154.85
78.8573
118.984
170.923
66.063
9.70421
-143.185
-252.446
-135.977
-79.3899
15.3638
176.921
266.955
208.488
84.0757
77.8002
103.137
24.3216
-0.29613
-18.7057
-63.9225
-97.9069
-184.667
-259.04
-161.84
-38.5611
47.2421
79.4263
39.7539
-15.4109
1.019
15.0467
-88.6366
-150.784
-117.216
-88.6893
-116.606
-24.8635
157.565
298.027
239.444
22.4173
-47.4488
-75.7679
-149.088
-120.774
-45.8736
34.632
78.5896
46.824
19.476
4.1281
-64.1647
-63.1337
58.9389
179.286
213.607
144.309
9.97326
-90.8163
-129.628
-152.293
-127.249
-82.3309
100.255
281.418
303.419
3.3081
-168.484
-161.98
-133.087
-144.729
-23.8953
91.2602
164.471
151.56
76.7431
-2.66626
-85.1367
-95.3276
-38.9567
43.6889
24.7161
4.27314
-54.3439
-144.902
-165.773
-39.6005
80.596
115.193
101.967
87.9146
30.9956
9.99789
8.33126
-32.7807
-43.5456
-25.019
-26.4067
-50.6126
-11.4108
64.2984
-21.3996
-122.486
-110.536
-32.1136
-38.8955
38.8272
112.197
29.5063
17.721
62.7619
32.1253
3.37906
-22.3246
-37.6694
-36.6682
-53.0744
-41.1801
-9.14052
-8.78307
3.29548
24.1441
33.1151
22.8442
-12.7233
1.79291
50.4442
-0.722683
63.6843
152.318
220.799
186.334
-21.517
-99.1884
-62.7378
-63.3699
-125.091
-181.106
-184.315
-115.559
-20.9798
76.9452
41.4791
12.2766
-80.2319
-90.7018
39.0865
98.8618
-18.8544
-169.384
-168.996
31.4772
238.303
190.625
21.7292
-20.5009
5.82708
46.0352
128.585
193.116
186.091
162.843
91.1394
-15.8975
-55.8834
-64.1412
-79.1684
-82.7633
39.3313
136.328
12.3159
-80.1196
-125.844
-100.199
-15.9373
3.09556
-35.058
-81.1073
-74.4062
-133.786
-169.596
-126.529
-63.6098
-48.7624
-21.4119
7.19258
-4.18502
-58.3135
-86.9341
-77.7591
-31.5494
-17.5825
-20.4398
2.27226
54.9549
70.4801
47.9909
107.803
249.992
327.759
236.883
64.5166
27.7414
12.2076
-22.7372
-110.797
-192.76
-64.8461
36.8988
54.9124
63.7282
-59.5339
-107.406
-26.1012
-47.3035
-21.5265
127.974
243.252
156.646
106.941
71.5519
40.4624
30.5926
77.1863
20.1784
-42.5211
-34.2688
-113.414
-124.564
-105.527
-96.542
-122.139
-102.345
-93.7917
-51.0641
-54.1072
-66.6771
-80.2126
-179.352
-242.744
-174.9
-80.1205
-44.088
-15.0789
40.7759
98.9974
97.7698
80.4727
73.8461
76.2668
96.6317
140.327
158.442
147.555
152.914
143.091
74.4507
-34.5776
16.9204
-60.8004
-174.337
-178.279
-64.2594
37.6464
92.2006
-7.19016
22.5982
126.577
121.369
59.8922
26.2695
32.5358
25.3386
-3.84029
-71.287
-42.8753
15.0596
66.6136
90.284
102.651
109.583
96.4293
37.6056
-121.383
-171.7
-113.754
-163.975
-239.576
-212.107
-143.857
-105.433
-125.027
-125.266
-65.5741
-2.30709
35.2909
47.8552
44.6355
14.0435
38.4725
51.5754
40.7918
26.2789
82.177
126.41
153.62
192.837
181.416
60.4589
-38.9981
-21.3238
65.9278
136.981
98.3985
132.618
32.9836
-70.9757
-87.0218
-100.337
-121.954
-133.972
-182.842
-195.471
-157.106
-87.4792
49.2007
118.819
146.719
88.4794
28.9351
65.068
51.0426
-29.4377
-15.0837
-33.1251
10.2011
90.6466
-12.51
-166.888
-244.701
-238.423
-204.584
-87.2332
73.7227
150.558
227.733
265.25
235.288
233.855
114.849
-145.37
-312.36
-352.796
-295.255
-203.599
-2.33616
224.594
305.995
287.293
305.425
200.827
149.926
160.148
53.6661
9.14493
-47.3946
-243.934
-301.788
-228.85
-151.733
46.8447
193.305
187.204
240.56
254.342
73.4871
-209.531
-317.889
-300.138
-230.854
-156.83
-13.7222
-68.5314
-47.7699
-69.6736
-99.8566
-29.7358
56.7548
105.263
128.099
7.56449
-87.9958
-53.0067
-26.4443
39.8692
90.0848
147.985
251.213
88.9065
-73.2809
-96.3647
-157.528
-3.74342
70.6068
-16.6729
-117.566
-86.9301
0.117643
86.8574
57.3149
-12.8718
42.3927
228.948
345.711
168.304
49.5728
107.317
23.8897
23.3536
17.8367
5.47195
-7.94618
-48.5901
-127.736
-133.079
-162.522
-158.625
-147.218
-150.05
-72.8762
41.031
111.473
51.3148
-84.252
-114.678
-118.709
-164.199
-118.601
-6.6396
77.5274
179.176
212.207
138.792
60.1422
74.7308
130.228
88.3168
-46.8554
-124.353
-88.307
-34.6352
-28.7114
-65.3497
-116.843
-91.5211
-32.1145
-16.1828
-2.94493
26.6637
55.4927
58.0501
64.6783
45.4573
45.065
61.014
86.3637
71.5812
11.6105
-21.7783
2.26522
88.1843
113.507
44.3454
-10.5017
-27.2344
-175.872
-320.042
-298.566
-211.308
-9.53751
184.277
182.246
118.077
58.2446
-5.87319
-23.7531
62.3725
57.6176
59.149
57.7658
-2.26763
-25.752
-6.92746
-14.9668
-41.1012
18.9786
63.9207
-7.43924
-12.9696
33.8811
71.4779
112.069
5.754
81.4811
159.235
57.1416
-61.9666
-94.9971
-132.703
-140.999
-193.565
-196.574
-124.027
-98.539
-83.0019
-36.638
18.0834
70.9557
114.854
79.9276
-0.00431
-36.1051
-5.98501
-6.0645
8.28984
63.3106
61.6272
72.5563
98.0654
112.981
150.799
177.294
135.809
-1.91629
-97.3718
-191.605
-268.739
-210.823
-108.179
-122.417
-89.1233
0.0166332
198.508
293.453
203.467
105.389
21.8743
-53.502
-155.917
-204.179
-218.98
-139.269
-68.8445
-16.3282
68.7704
187.913
244.214
170.879
172.041
257.146
115.44
-112.392
-210.33
-205.133
-111.314
-15.8275
82.1538
188.724
122.856
48.784
24.6794
-64.6944
-119.82
-64.7102
-19.3835
-5.52907
-3.8715
35.8955
2.5268
-93.1583
-90.6908
-21.6431
-26.0271
-111.541
-151.752
-128.604
-123.954
-90.7065
6.18877
44.1093
41.1497
20.1285
18.7638
49.4994
58.7524
70.8667
113.155
118.256
76.2246
25.3342
30.3566
52.461
33.4976
-20.8904
-31.6396
-4.27909
-16.9297
-45.5069
-40.0771
-51.1735
-37.0157
-11.4652
-1.79998
44.1115
84.0293
85.7713
73.5188
57.7785
-3.10457
-24.9955
18.0689
45.0506
22.3645
-11.9131
-42.0346
-69.7635
-124.725
-169.73
-114.11
-20.1377
47.9913
203.646
135.163
12.8789
72.8597
65.2238
-76.5858
-135.876
-84.0719
-33.5976
-13.0746
-12.0592
-43.568
-75.5694
-80.695
-88.0306
-17.9539
61.2191
101.149
89.7343
49.1538
-33.8688
-17.9319
25.5777
2.15566
17.3351
112.669
163.848
143.458
55.0083
-54.2008
-112.13
-93.1529
-45.5816
-38.0115
-16.5033
-28.6035
-68.6248
-82.5066
-84.7167
-80.658
-106.119
-56.304
8.57509
5.36419
12.8074
63.8218
128.975
183.107
194.133
200.341
200.421
179.878
138.571
91.8155
55.3341
42.4298
-4.76583
-65.1292
-106.136
-173.088
-214.731
-154.868
-115.251
-121.216
-155.602
-174.615
-219.986
-281.408
-277.705
-190.642
-88.1696
-8.24535
41.0277
88.463
150.511
190.132
188.584
178.351
184.857
218.086
184.684
127.25
71.9596
38.1142
33.3505
31.5343
86.0469
62.7148
6.22294
-139.26
-274.282
-294.55
-217.56
-144.019
-118.375
-64.4758
18.8829
104.682
178.95
225.092
267.621
281.785
277.911
258.15
215.943
111.809
-84.0302
-193.074
-163.9
-53.6376
5.55042
-36.463
-123.859
-179.944
-160.827
-106.596
-40.8255
-4.09873
30.3464
39.382
52.3729
62.3647
11.7623
-18.4907
-45.7333
-40.6686
-78.8829
-46.0427
-38.8708
-182.155
-260.127
-241.045
-93.6297
-39.6583
-107.779
-153.64
-181.626
-196.243
-213.308
-189.036
-169.555
-125.701
-78.1743
-47.7832
77.3897
264.473
500.739
603.559
585.161
569.707
532.533
442.227
293.903
158.297
105.454
91.3584
72.0103
38.0901
-21.1991
-104.474
-191.483
-222.874
-150.917
-140.213
-206.711
-225.761
-243.603
-279.393
-287.18
-215.078
-108.309
28.6039
116.213
195.395
187.9
72.3944
-24.6
-74.7489
-130.274
-221.812
-311.939
-272.113
-192.431
-109.781
-55.1709
-126.149
-147.27
-141.696
-77.5118
38.7168
67.0486
35.5583
33.0941
119.432
230.077
280.402
244.29
202.202
231.953
296.351
315.523
183.338
19.1954
-8.4602
10.6429
57.6803
61.6201
70.8446
47.7332
14.305
20.3703
11.6328
-34.833
-87.4638
-84.4322
-81.946
-96.1593
-95.8112
-118.088
-124.057
-80.564
2.45514
70.3355
24.2458
-18.5867
56.7193
103.081
12.5723
-92.0294
-191.682
-251.914
-212.492
-126.326
-108.077
-184.117
-183.32
-67.5227
-6.32604
-50.0417
-118.194
-108.513
-22.3114
23.8875
7.75325
29.506
37.4312
164.369
338.335
346.124
306.609
238.413
165.934
117.564
110.963
169.877
158.492
104.255
95.4025
99.6457
100.24
100.857
45.9073
-17.7517
-56.267
-121.017
-209.712
-291.576
-333.515
-324.491
-257.012
-174.24
-192.083
-221.099
-189.235
-125.127
-92.7187
-66.6362
-53.3804
2.24244
71.0433
89.7713
94.3985
77.0629
132.763
257.575
278.546
222.268
173.676
156.45
213.76
262.929
245.608
160.6
-0.28006
-119.739
-119.721
-87.1851
-106.787
-167.719
-164.125
-119.338
-68.1154
-62.1123
-118.975
-127.622
-82.3046
-105.317
-200.029
-168.24
-53.4604
49.6489
104.1
70.7597
102.366
106.049
47.7897
26.8072
40.8403
64.8074
4.46024
-32.2856
-44.9529
-26.468
9.45084
-4.01904
-20.8005
-5.78225
31.2687
52.7682
8.38155
-17.446
15.8457
56.1591
51.6989
15.7156
-21.9245
-129.04
-168.376
-54.9133
83.5767
146.257
84.124
63.8612
104.128
62.1647
-34.8594
-2.21193
46.9248
5.55114
-58.4867
-94.7828
-138.11
-178.919
-144.488
11.8891
277.223
370.138
269.183
131.325
52.1461
-20.4829
-65.6342
-66.6675
-104.212
-125.649
-101.632
-85.0079
-40.3963
-4.28642
31.1092
5.44836
-69.2143
-35.0617
40.9703
16.3902
-105.683
-135.627
-108.595
-91.7337
-80.2057
-58.2425
17.3143
118.153
130.766
64.1804
42.531
3.77032
-43.0556
-63.2717
-100.558
-39.7586
57.7292
92.4243
86.6328
25.9578
-15.2679
9.08618
91.9032
207.695
240.89
180.589
56.8409
-110.281
-231.487
-208.38
-103.014
3.84658
50.9754
84.2359
56.3984
-36.2445
-77.8777
-127.272
-149.157
-16.2892
13.0805
-3.86122
-21.0617
-94.1782
-148.359
-118.954
-30.4018
63.963
132.394
125.428
67.9602
8.74871
-13.4613
-20.7368
74.1581
105.787
105.626
175.727
183.883
63.7958
8.0272
8.90848
-1.04236
-44.7757
-61.6269
-47.0326
-63.691
-74.4906
-28.0508
-10.8396
-63.1841
-87.9298
4.19336
61.2813
-28.2771
-15.416
37.9364
16.5508
-94.2467
-184.19
-140.402
-22.9769
55.5914
111.18
115.341
96.3705
82.007
55.3988
35.6509
59.6477
38.7788
-45.4186
-96.8987
-77.8273
-98.1583
-194.084
-196.346
-51.943
66.5292
94.637
102.67
7.21738
-85.6978
-86.1056
-32.9541
13.0277
12.3275
33.0034
82.9235
107.097
104.571
111.454
119.236
155.504
136.881
133.793
68.0418
-88.3948
-143.151
-58.1838
-49.4208
-92.613
-61.0377
-111.924
-140.241
-67.4112
18.9132
-10.5127
-73.378
-54.2887
-40.0435
-27.0008
-2.94689
11.6275
81.0809
135.654
125.269
74.5797
30.6543
-16.8932
-64.5732
-61.5036
-22.7223
17.9822
17.2676
-12.7375
-12.0808
26.1911
25.6685
-4.94085
-21.7821
-33.1087
30.4052
55.4189
36.4243
15.9241
29.7979
-23.5894
-126.403
-199.911
-116.987
8.80092
96.5071
112.695
129.215
85.1512
8.55907
-22.1074
-19.3047
-4.89103
14.7063
10.2368
-0.312218
-42.8453
-26.1442
-47.5793
-49.4032
-10.6961
56.7447
123.089
109.205
66.2866
-77.1447
-114.699
-30.4103
58.8224
37.4139
-10.185
-20.0021
-28.4667
-14.143
-38.5647
-51.8933
-79.4501
-109.991
-68.6246
-37.6336
20.0374
89.3651
90.4764
69.1292
49.9958
39.6877
15.1744
-50.841
-115.407
-115.99
-25.5656
78.4373
146.829
167.27
115.567
-36.5916
-150.318
-84.0355
37.3251
100.008
-5.24512
-103.846
-152.591
-153.156
-88.4052
35.4066
75.5622
23.6218
1.8005
88.0773
148.065
166.849
127.077
88.0593
109.866
109.238
51.6861
-46.6361
-141.402
-251.462
-235.62
-152.296
-40.3364
43.983
76.5158
27.8685
29.2406
48.8962
3.16937
-81.601
-208.335
-233.207
-239.578
-231.682
-153.58
-26.0306
190.151
278.633
278.11
357.735
390.809
380.298
348.731
221.886
32.3171
-115.365
-147.279
-88.2066
-83.2562
-90.9626
-66.5035
-142.989
-216.714
-184.664
-133.639
-54.4116
-59.8965
-36.2048
-0.108301
-21.7701
-98.3386
-146.239
-175.644
-198.225
-181.073
-92.5745
-21.2749
3.83038
51.0611
33.5664
44.656
102.103
188.999
204.941
189.359
136.251
110.435
84.1018
54.4264
32.9916
110.345
184.763
230.433
227.401
144.135
77.068
-104.37
-341.273
-437.9
-392.615
-264.88
-220.293
-141.253
28.2298
89.0693
67.7134
133.186
209.938
184.224
155.018
115.122
55.7702
16.0303
63.3797
90.7225
39.9983
41.8848
43.7097
56.047
97.3551
12.8624
-65.8054
-97.2651
-162.748
-214.018
-185.071
-172.632
-280.817
-265.07
-188.277
-130.921
-42.064
33.67
19.5006
54.5587
33.8565
72.35
159.243
203.541
240.753
217.832
209.411
182.586
139.559
123.046
85.5808
26.4981
19.7737
21.5881
1.36449
-70.3157
-139.002
-212.086
-280.456
-290.315
-228.083
-141.05
-36.7524
-32.2302
-20.3594
63.9241
132.983
144.339
114.014
78.3431
107.781
95.4704
64.3568
50.6923
3.32251
0.0365811
22.925
16.5885
-6.63407
-10.349
60.2753
57.7233
36.9272
79.8031
55.298
2.99544
-55.1158
-120.682
-188.847
-248.22
-278.099
-223.74
-157.144
-146.189
-100.315
-35.1676
11.0389
60.2335
161.505
251.141
235.221
182.771
149.707
113.44
70.7696
85.5311
89.5001
75.384
78.6947
125.135
112.751
70.4423
15.5389
-13.1118
-60.4612
-56.9448
-99.0232
-244.361
-285.241
-185.829
-108.918
-95.0683
-4.94688
24.2707
-37.974
-103.69
-86.5672
-60.1448
-33.3288
-9.80032
8.85162
44.5872
73.9262
96.883
149.541
174.384
127.253
116.616
64.6829
-12.8813
-41.3967
-27.8804
-49.9396
-13.9881
25.7065
26.7387
10.636
-25.8297
-59.5503
-114.18
-151.416
-128.526
-51.9939
-6.80501
41.87
88.0366
83.3945
96.1068
99.3011
75.6077
16.9453
-3.51351
-23.3705
-85.4749
-52.7573
3.92567
28.9061
33.438
79.2897
161.29
143.216
59.9257
-19.0067
11.8174
48.8638
7.79648
-31.7016
-22.8987
-56.9498
-153.164
-182.52
-160.957
-127.689
-138.297
-159.087
-200.158
-202.835
-119.73
-5.27425
51.6638
167.286
247.773
299.038
235.734
140.056
89.0254
44.1084
21.1953
36.1488
44.7515
101.089
134.804
68.3203
33.0758
-29.5987
-9.65614
48.9504
3.84708
-61.4619
-99.359
-208.456
-209.825
-195.058
-164.135
-147.581
-159.116
-72.0752
-99.5013
-139.829
-103.807
-66.8059
0.67289
97.053
138.693
164.386
182.736
155.632
178.21
178.175
144.632
122.398
103.146
91.825
11.2867
34.6704
131.687
57.9633
51.4079
4.20766
-83.1166
-215.916
-435.3
-482.088
-331.142
-171.02
16.2752
181.601
319.989
279.262
201.393
166.604
91.9099
92.3896
123.929
127.106
82.8133
-79.556
-238.258
-143.031
45.0182
117.39
42.3622
-64.778
-128.452
-142.972
-264.949
-421.773
-412.89
-248.136
-92.7725
-23.0777
-25.31
62.8154
165.821
119.039
7.92349
80.368
199.456
190.892
147.454
120.325
246.297
367.289
359.252
313.271
210.133
133.529
-23.5796
-153.951
-168.048
-146.475
-123.235
-184.018
-250.208
-282.334
-237.1
-109.583
-53.6176
-47.5087
-41.0147
58.827
166.805
134.168
73.3691
3.56047
-23.8576
-26.0935
-37.3853
-48.8302
-81.2933
-120.906
-64.5761
-50.0766
-46.5899
-60.6275
-14.4739
17.0455
-5.40009
41.682
96.9819
135.812
110.586
99.9042
84.2025
18.2127
-2.92257
43.0914
8.96105
-46.2411
40.992
122.499
96.8495
35.6568
78.2357
143.06
91.4271
-51.9136
-8.13049
-28.1509
-197.272
-325.542
-253.643
-172.604
-104.625
48.4803
162.667
147.058
115.087
62.7097
-77.9939
-205.122
-129.009
-7.73056
-39.2616
-67.9682
10.6636
138.817
122.011
70.1604
83.5076
151.04
151.202
119.861
49.6092
-75.364
-121.561
-66.7106
-29.2813
-39.1659
-49.5108
45.2568
28.9084
-40.3085
-57.6794
5.02187
42.6829
24.1354
-1.57315
-27.2453
-49.5072
-114.262
-141.079
-164.198
-143.531
-62.5847
-55.1341
-44.8251
0.184588
29.1943
58.197
170.203
232.262
233.491
205.448
114.793
-3.82637
-34.0762
-18.1198
-40.1208
-13.1626
55.2751
54.1894
79.7086
141.648
108.194
47.1672
-38.9736
-127.541
-135.614
-45.6219
-31.4842
-113.676
-178.228
-149.783
-91.111
2.63052
8.49872
-24.9637
19.7491
69.473
35.593
75.1904
95.2407
-20.6325
-178.769
-320.116
-458.957
-385.721
-230.904
-14.9933
175.928
256.016
275.595
281.505
248.474
184.304
195.283
248.444
265.541
204.628
83.0637
-53.4803
-113.819
-112.562
-17.6281
143.194
247.112
228.071
154.342
-20.97
-205.397
-294.462
-331.528
-359.71
-364.59
-243.959
-147.429
-117.41
-107.061
-79.8629
1.96413
17.5029
-23.1406
6.5519
39.2438
54.9532
111.489
147.96
154.934
132.765
106.487
123.36
174.35
156.934
96.9993
-33.2469
-130.936
-157.377
-187.326
-172.058
78.6983
205.45
162.509
111.629
70.7486
37.5713
56.8098
87.7872
33.0173
-68.6284
-215.198
-340.876
-357.105
-197.678
77.7872
226.65
275.279
235.635
207.947
197.058
47.6046
-26.2894
-60.1046
-109.095
-156.415
-197.841
-208.459
-143.247
-26.4355
-58.647
-22.5981
126.28
119.584
-30.332
-110.739
-106.952
-67.5447
32.9977
79.6848
38.1567
-41.6269
-107.809
-144.088
-168.052
-102.135
-13.4546
48.7445
128.747
199.539
350.752
377.702
337.624
269.71
181.772
46.5684
-30.8961
-22.1486
-23.1375
-86.5087
-186.508
-217.106
-203.163
-121.629
-85.2377
-106.831
-90.6739
-61.9984
-89.9806
-83.7884
-62.6334
-35.4797
-52.915
13.5052
63.9256
22.679
-21.4553
-26.7757
-61.7527
-34.3134
35.1646
63.7958
73.8152
87.6199
165.409
229.874
207.72
175.644
98.1645
22.8042
-6.13691
-37.7894
-107.691
-185.055
-80.1284
-82.0375
-222.172
-312.304
-346.08
-231.799
-33.6214
49.5801
136.035
230.877
248.815
251.094
254.828
283.364
266.213
88.333
-63.9986
-138.991
-251.663
-289.119
-210.718
-100.888
44.1982
161.669
212.854
184.673
38.4861
-116.33
-136.601
-113.216
-138.125
-126.396
13.695
106.29
112.439
38.5272
-78.6141
-129.97
-80.1274
-37.9408
-47.9439
-8.24641
44.3417
68.5606
81.7666
65.0597
86.9979
118.731
82.1748
13.1554
10.73
-2.91462
-90.1791
-165.605
-178.892
-80.7105
42.1806
76.4378
94.7248
160.912
96.8179
27.5452
22.5368
-27.8104
-54.4585
-10.2745
13.7717
20.2133
31.3709
-19.0826
-61.6415
-11.0098
24.1624
-31.8386
-109.739
-136.872
-146.94
-49.8793
75.3561
161.966
135.347
77.1877
41.8346
28.3596
22.5967
-22.0637
-38.3513
24.1961
7.61454
-45.3045
-56.8157
-105.774
-183.089
-241.828
-190.934
-129.614
-58.8657
8.94126
-9.00316
17.3021
166.481
261.495
305.347
309.29
199.092
94.8878
51.7192
-38.5169
-95.5711
-99.4608
-21.4226
-37.4221
-131.998
-229.469
-206.566
-37.8982
66.645
63.5876
178.044
252.754
112.202
-2.21611
-34.2046
-35.3108
34.9012
58.7065
17.5753
17.0197
-28.7121
-37.2038
-37.4732
-86.8728
-87.0241
-16.3205
17.0709
29.7313
46.1345
48.7189
17.6429
-124.832
-235.323
-247.148
-197.008
-139.648
-97.6311
-46.9029
-0.0955278
34.2846
104.942
129.608
103.509
87.2283
110.761
126.018
98.8748
32.3119
-48.2731
-96.6761
-42.9528
117.475
286.511
288.283
185.057
53.3859
-4.02063
-64.2376
-114.256
-93.4001
-106.244
-149.93
-175.283
-92.5058
-66.327
-15.3045
5.92261
-24.232
-15.439
62.1529
84.6853
10.5197
-63.8369
-32.7114
35.1239
22.4638
-69.2501
-92.9231
-31.4186
-96.2376
-84.215
19.1056
75.5689
121.358
151.435
203.913
196.94
125.433
51.7817
-13.6322
-112.049
-156.209
-113.89
-111.379
-137.963
-53.0012
-28.4304
-67.3291
-81.6809
27.3211
213.106
256.249
253.43
164.905
61.6376
-115.949
-182.667
-216.67
-330.41
-287.416
-178.649
-130.765
-91.4809
-70.5491
-64.4134
13.4738
135.601
131.324
152.894
294.865
369.715
251.994
129.859
84.0179
34.7217
-3.64151
17.2613
149.298
371.442
323.359
116.241
-54.1035
-269.65
-375.47
-260.506
-169.979
-125.036
-35.146
-37.7831
-172.017
-359.668
-290.659
-176.695
-105.218
-53.0624
-28.4049
-0.00609114
94.9175
91.6147
26.996
-47.9226
-80.7516
-110.765
56.3342
248.806
230.761
211.059
278.28
305.652
244.366
216.385
158.058
12.9691
-80.9124
-95.4326
-47.7562
-41.7504
-105.593
-176.345
-184.906
-104.566
-2.10467
118.235
104.604
-49.0253
-153.758
-173.351
-149.215
-96.2939
-100.144
-169.942
-149.46
-81.6535
10.3818
95.9623
131.514
133.297
75.853
135.705
299.137
297.653
197.823
194.465
135.236
43.3937
-2.45672
-94.5455
-235.079
-325.746
-314.795
-317.736
-230.85
-142.283
-115.488
48.5365
206.235
180.324
43.27
-115.096
-184.971
2.95068
106.984
114.652
229.271
204.65
72.6863
28.8783
63.4492
38.1201
59.0096
124.253
110.88
48.9451
6.8644
-90.7076
-145.167
-128.198
-3.53087
53.3984
-70.3617
-149.469
-126.616
-46.9435
-58.1194
-36.3165
81.5134
163.807
120.424
84.8335
55.0434
8.33834
-36.3347
-44.0965
-73.9538
-131.68
-190.251
-175.56
-99.2376
-58.3299
51.8018
157.63
269.12
205.481
70.0212
-53.1074
-134.601
-144.645
-93.062
-26.5618
-1.3475
12.8768
-26.7752
-46.3628
-30.3903
-17.412
8.62559
94.0886
145.395
230.845
225.649
83.413
-78.2626
-98.5895
-121.645
-218.43
-266.62
-97.5844
169.62
309.404
214.322
63.397
47.396
50.6374
11.9568
11.0825
15.4461
-36.9997
-99.4774
-179.643
-200.771
-200.925
-161.772
-46.8849
15.436
23.4196
67.3962
-31.7821
-213.733
-304.131
-82.5183
379.683
420.151
241.922
163.399
105.947
35.8385
-23.1779
-34.3171
-35.6011
-8.06884
-21.1093
-32.5501
24.8457
91.4388
157.358
152.622
84.0276
26.7234
-0.576338
-123.381
-346.326
-341.067
-227.31
-108.712
-61.1499
-24.0495
24.5464
73.6589
59.2289
28.4151
-21.1973
-18.6252
-53.7464
-51.4954
58.585
141.034
140.978
147.812
113.574
74.4213
16.6441
-114.58
-152.521
-167.156
-155.744
-8.7746
29.2835
-10.0213
21.9457
180.979
260.605
129.282
-30.796
-87.0883
-126.372
-156.522
-35.352
66.6657
97.6229
117.752
32.9823
9.1238
14.963
48.9837
86.8644
-0.781543
46.3715
17.3104
-4.70789
-0.443252
-15.9169
35.4717
43.497
7.6137
-5.83902
-4.61699
-51.1309
-172.072
-173.813
-90.7667
-72.5898
-17.4204
13.3091
-50.9871
-89.1542
-101.803
-115.267
-8.95291
66.2319
-64.6808
-150.671
-124.625
-45.3864
6.38072
81.143
179.405
229.784
242.765
202.978
86.609
37.7388
61.0332
91.1327
78.8978
35.1444
1.20905
-49.6125
-96.8865
-92.5471
-4.60702
129.987
186.246
88.6501
-109.564
-202.574
-228.929
-251.64
-231.771
-60.4543
94.5693
123.856
95.2509
67.5608
58.8373
3.2271
-49.1209
-85.8021
-87.7901
-81.2692
-142.948
-243.896
-273.276
-157.363
123.294
372.26
515.731
488.636
326.96
-31.1753
-230.611
-261.995
-335.005
-271.662
159.064
470.533
363.237
148.088
-19.0605
-35.3958
33.2152
134.489
105.811
-4.163
-135.806
-282.848
-402.098
-415.621
-268.115
-84.1243
19.553
60.8527
152.428
135.996
-148.877
-304.093
-212.63
-91.903
-11.0415
87.0433
147.075
180.643
241.661
257.583
198.208
87.7367
8.34807
2.7751
129.064
140.605
40.2728
-35.6793
-39.9235
-12.3785
-50.3946
-36.4142
69.3246
140.516
128.891
-3.01797
-164.584
-189.43
-219.156
-184.98
-32.287
114.798
112.403
-10.7335
-146.858
-124.346
-40.6805
-47.675
9.13971
184.834
191.252
47.898
-59.2471
-68.1893
-93.9268
-130.904
-118.033
25.3958
164.158
147.789
44.3301
-26.0594
25.6742
62.953
-24.1325
-141.027
-154.163
-87.9179
-92.9415
-174.306
-108.658
11.1717
111.661
144.254
238.084
275.249
204.072
38.2732
-65.3828
-77.4517
-75.4095
-131.281
-99.5152
40.0231
211.161
277.295
168.979
143.1
128.895
-17.7486
-239.584
-282.971
-223.272
-190.984
-204.457
-223.797
-217.692
-126.835
38.1802
114.969
109.729
97.0704
65.9902
76.6383
56.9451
103.775
161.902
192.468
175.897
78.5086
41.2056
-18.7584
-105.595
-143.779
-141.23
-18.4506
114.661
52.6278
-41.2547
0.795831
48.9439
15.1444
-66.4399
-8.61737
59.9345
30.2662
-29.0597
-66.7717
-88.1295
-79.5052
-38.651
27.8689
70.2679
49.2202
16.968
-25.0261
-69.1128
-77.042
-63.8903
-59.8622
-21.6492
86.9072
104.996
-7.6794
-61.4886
-90.9527
-118.677
-129.332
-122.602
-58.5507
-1.99913
73.3036
147.113
211.098
169.143
104.576
60.0581
20.5934
-5.87935
-24.4864
-4.71662
-43.084
-32.549
-20.0786
-76.3091
-96.5343
40.7204
114.726
88.8087
58.4732
5.3692
-72.6993
-38.6951
36.199
85.8782
99.3155
63.1453
28.9788
0.281188
-55.8563
-94.6689
-71.6023
-36.1428
-26.3602
-64.3914
-100.397
-175.226
-193.775
-111.548
48.4014
196.782
241.79
127.583
-2.34892
-106.76
-169.539
-142.031
-90.7269
-96.8244
-84.1316
23.7636
137.823
194.15
174.545
165.602
203.855
182.902
95.286
60.8411
38.6783
-47.2055
-136.589
-178.595
-167.234
-2.36947
27.2754
-45.9216
31.1115
103.336
121.882
77.8021
-10.184
-99.2071
-144.409
-155.81
-198.345
-234.465
-163.268
-3.1946
26.6862
65.1876
81.4492
17.8305
-5.06381
14.7693
71.7059
112.648
52.298
18.6367
35.0364
89.2402
127.773
75.6715
-39.0338
-49.1795
-5.87914
9.85677
19.9706
-48.7841
-75.5794
-30.5383
44.2037
48.7399
19.6924
-35.789
-52.0607
-24.4793
-23.1149
16.3922
-7.83048
-48.3792
16.6218
14.6601
-23.6783
-4.41681
68.3609
160.988
138.81
46.8683
38.5737
-20.9605
-112.538
-83.4864
-48.9108
-43.6018
-17.0732
16.2245
2.72518
-108.093
-214.627
-238.748
-256.547
-167.818
18.246
227.499
279.243
225.833
175.187
111.141
84.594
68.4467
-22.8273
-112.554
-82.9358
-43.6542
22.7599
69.3725
58.4472
113.801
205.421
129.847
-3.04719
-9.37818
-12.185
-131.11
-181.204
-193.363
-156.087
-107.492
-113.961
-96.1092
-75.3287
-40.0424
-21.2384
-19.8508
-71.2749
-35.3309
118.371
165.498
122.144
55.6402
45.4109
56.7595
53.6707
44.9011
35.8662
39.2096
80.4549
57.1278
31.7323
16.808
47.8744
82.5398
66.7296
9.34452
-24.3129
-94.0017
-177.865
-174.016
-127.025
-80.202
-25.1506
-49.4115
-77.0667
9.81117
67.1673
-76.1871
-179.197
-78.1409
74.2026
119.421
102.066
210.059
258.47
169.874
125.593
179.306
112.741
2.46093
8.30939
62.7797
42.288
-55.4806
-107.243
-185.162
-276.966
-209.535
-107.441
-160.977
-194.291
-73.267
20.3758
-50.4503
-76.2819
-8.40336
24.1128
18.9339
5.50766
-5.71204
-30.6451
7.69871
112.188
212.737
204.914
75.812
-17.0002
-68.1127
-132.43
-28.0391
86.9949
172.724
259.12
211.041
47.6845
10.7009
40.2224
-25.5982
-122.279
-86.6181
-73.2016
-133.811
-145.074
-53.9407
55.1061
73.2102
62.4233
80.6186
6.81025
-127.856
-62.6623
-67.2339
-181.906
-106.484
39.4575
119.265
119.732
87.6313
-13.798
-136.085
-116.492
-41.8287
-73.4796
-134.75
-29.3427
169.442
227.34
155.888
155.044
170.559
-30.7682
-222.431
-166.958
-94.3926
-79.5048
-102.368
-101.372
-47.5666
59.8873
142.196
168.996
155.931
145.332
129.306
27.9232
-15.7151
69.9161
144.787
89.5686
20.3152
-26.7378
-37.4887
-78.2001
-98.5215
-89.6862
-90.9803
-116.427
-119.704
-134.113
-88.7174
-48.1011
-69.919
-123.078
-111.765
-87.2723
-125.499
-38.4171
157.524
220.082
128.871
92.0771
57.3993
12.9736
3.26942
127.551
169.796
64.4242
-17.2484
5.32036
-49.5294
-78.6748
-6.67431
-5.70986
-72.4685
-5.68152
191.504
234.505
90.8913
16.3664
0.257668
-52.1828
-92.7651
-134.673
-261.25
-342.744
-327.427
-246.494
-116.372
8.77997
126.532
244.546
312.991
253.81
201.347
138.821
-61.3849
-111.588
11.5202
82.9883
93.6319
128.362
94.1285
14.3559
75.3989
143.766
90.3219
10.9947
-72.9894
-113.065
-112.784
-126.794
-174.881
-101.123
-31.1161
-28.3618
-74.5555
-153.984
-182.362
-139.127
-74.9545
-92.2544
-53.9067
76.9837
87.9415
0.877719
18.4458
109.645
183.918
174.845
92.4384
-1.60621
-73.7127
-74.5743
-16.6458
-11.9423
-25.5981
-1.28786
-0.39672
-38.6356
67.2758
152.701
172.226
129.739
76.8986
0.157413
-33.1414
-45.9342
-76.7022
-91.7039
-73.3913
-56.3632
-13.8993
89.422
141.075
109.74
101.594
34.8872
-39.406
-102.59
-141.558
-136.502
-151.239
-195.774
-152.821
-76.5767
53.7846
95.0598
69.8175
106.809
132.403
57.2378
45.0122
17.9939
-34.4392
-0.634495
57.4297
117.67
112.478
67.8852
-53.8996
-162.802
-104.089
21.6154
73.5237
56.8047
-26.3491
-102.677
-180.296
-204.242
-98.5976
34.5622
100.001
135.973
148.242
102.805
-15.7435
-200.636
-311.833
-192.831
40.298
297.908
400.705
259.355
102.575
-25.3934
-119.582
-101.339
23.8589
91.1589
-6.8969
-48.2435
-18.8677
-23.5014
-85.5915
-154.541
-102.583
-24.0509
42.8935
42.8459
-20.1172
-112.657
-236.002
-263.05
-141.045
96.8549
199.809
227.173
163.364
86.6241
20.2226
-56.398
-104.231
-97.8837
-11.6494
72.0036
88.6713
59.9416
13.873
25.2659
38.1613
-6.12498
55.5965
258.591
183.15
7.85677
-68.8961
-78.1531
-16.212
8.30508
54.1779
108.999
90.8114
-22.4765
-161.93
-218.432
-159.958
-60.9904
6.80306
20.8256
-10.2662
-142.856
-252.671
-261.49
-134.85
-36.3798
52.5239
104.979
129.427
110.167
73.078
60.4364
61.3652
84.853
138.475
114.701
62.0366
44.3515
-8.10456
-44.492
-58.6071
-63.9124
12.5534
118.078
77.7471
140.403
240.171
183.843
48.0562
-52.1691
-124.138
-178.784
-259.856
-267.539
-165.948
-57.1506
29.6156
45.4074
77.0572
101.104
42.6029
17.2703
-80.9183
-219.984
-232.019
-235.833
-258.623
-157.823
1.17053
110.338
175.107
118.917
13.1203
25.0699
48.8907
21.3067
-34.3014
49.1956
194.836
237.659
277.899
322.386
314.459
251.408
181.756
17.0642
-64.1515
-79.0857
-102.011
-111.473
-119.219
-79.2148
-0.0405419
-18.6362
-68.8492
-64.2296
-2.13469
-13.8763
-40.9238
-91.2511
-133.157
-119.56
-68.3815
-155.851
-246.521
-258.944
-342.684
-305.489
-111.192
39.9009
167.782
277.182
251.482
202.03
164.758
139.342
108.614
34.7327
-30.7523
-59.2378
-54.1746
-36.3176
-39.9918
87.1663
198.139
191.016
131.059
-5.52618
-137.248
-143.787
-91.5868
-58.3435
28.4039
96.11
102.814
-10.7347
-134.271
-129.069
-42.2984
50.4429
-22.2394
-8.40143
81.9011
170.256
254.37
209.775
115.407
43.1356
-106.127
-167.027
-248.314
-280.776
-227.548
-147.328
-75.7267
27.2349
64.6054
78.5031
91.7824
106.486
114.728
-67.9568
-176.226
-128.604
-95.6478
71.753
217.358
202.194
169.168
144.532
140.424
124.386
54.3944
-5.47269
-78.8341
-114.67
-66.3816
-27.7768
-92.797
-129.159
-12.7394
6.98316
-105.23
-198.677
-234.562
-152.761
-51.8222
-3.39154
-10.5683
39.9809
123.338
98.5389
87.6485
21.7661
-6.33746
60.4683
50.4544
-10.3106
4.4961
84.2853
148.656
137.942
171.403
211.825
128.277
-80.429
-193.307
-188.297
-256.413
-321.19
-294.51
-211.669
112.704
423.391
525.831
442.968
223.454
62.5132
-87.8445
-257.39
-400.416
-367.699
-164.14
-132.543
-154.156
-152.786
-23.598
143.13
289.238
266.675
138.586
88.4507
-49.336
-241.246
-277.909
-183.574
-46.9795
-5.16294
78.3043
204.408
270.441
370.271
325.785
196.634
103.852
47.1923
-34.1621
-128.714
-146.394
-71.9067
-63.0445
-74.6619
-97.3054
-103.352
-119.425
-125.692
-134.742
-73.8477
-25.1253
-46.0861
-83.889
-43.1847
-25.6996
-22.7185
1.04203
25.9594
28.9064
45.6259
64.6152
76.2591
90.8093
100.867
53.5155
35.0131
56.1892
29.3262
50.2214
96.1801
76.6405
-115.81
-291.234
-298.241
-231.742
-97.1404
-55.9214
50.3638
196.546
308.221
332.096
213.417
96.1254
32.7447
-18.1615
-10.3256
-17.1119
-83.9242
-101.157
43.6065
116.724
80.7965
76.3768
-4.08541
-83.9374
-201.272
-215.657
-193.311
-228.027
-295.774
-295.316
-291.496
-194.523
-44.9914
146.012
308.978
362.075
347.764
309.931
182.303
122.366
220.418
292.239
259.345
97.4469
-7.67622
-4.52328
-60.7573
-123.021
-150.791
-147.557
-66.9833
-14.3017
-65.549
-188.411
-301.892
-325.487
-270.496
-200.283
-197.569
-131.864
-0.685755
43.137
33.6332
79.3345
152.309
188.334
161.315
167.345
153.103
98.2731
68.9817
77.6169
98.8849
84.7211
-14.1428
-52.9933
-33.6347
-75.3364
-123.505
-164.594
-140.655
-45.09
101.631
172.898
165.265
128.739
108.439
68.177
39.2484
-71.4531
-136.217
-96.846
-93.6404
-58.5596
49.7847
94.2939
77.9233
37.5959
-3.56034
-42.0167
-107.908
-173.274
-227.887
-266.676
-214.175
-118.422
-27.8578
79.5924
109.794
231.531
334.029
259.726
128.371
64.2349
44.2287
-8.44963
-44.5257
13.7357
90.8442
69.4047
13.1
-36.299
-30.63
-8.28022
26.7985
16.197
-31.12
-86.8836
-29.2695
-54.09
-77.3494
-72.38
-33.0156
-35.1422
-85.7986
-111.064
-126.717
-109.395
-66.9193
-46.3568
14.4325
161.933
245.714
160.728
-48.8294
-113.845
-154.259
-212.71
-129.807
62.8956
102.514
126.136
145.006
113.645
71.2417
33.453
23.7359
30.6838
70.8571
105.477
89.1564
-25.4045
-147.485
-200.485
-151.959
-47.4368
45.7846
131.821
86.6515
1.18487
15.8657
29.2059
-25.5755
-60.0542
-53.07
-60.9183
-8.25041
12.128
-58.8523
-104.787
-12.6377
180.529
254.323
222.286
138.622
-1.61261
-111.345
-194.013
-201.461
-130.72
-70.9359
-28.1396
-24.3439
-2.37649
4.33069
13.6079
35.4521
29.0224
-5.73729
93.1328
185.042
52.809
-37.9663
26.4162
44.4371
29.1429
-32.2239
-110.456
-208.015
-198.763
-63.4085
107.197
141.233
114.615
106.354
143.396
202.056
156.08
55.6204
-68.2573
-198.09
-234.255
-230.203
-193.773
-71.2161
13.4633
110.007
187.124
179.627
109.831
-60.0759
-159.05
-120.934
-125.221
-180.878
-189.689
-165.748
-104.274
20.4192
138.842
201.687
242.705
221.646
142.624
-27.3787
-116.354
-109.65
-112.104
-101.442
-36.763
69.3441
40.1815
70.4647
182.126
201.647
144.757
173.183
230.521
151.938
6.57809
-141.925
-186.952
-172.994
-126.094
-40.6909
34.8571
47.9687
-107.581
-41.7376
68.7307
-114.627
-195.568
-82.5377
-49.2362
-109.01
-42.3482
19.0842
-3.53496
50.1025
75.8015
91.4073
100.29
51.1434
41.1414
84.3904
66.5569
68.9041
78.9007
-53.5657
-157.193
-119.697
-91.7541
-102.234
52.5318
284.21
246.437
49.0377
-62.4714
-125.038
-147.046
-170.665
-193.382
-125.978
-57.21
-56.533
-62.1832
-50.4968
50.2393
114.839
48.6495
66.7375
79.9035
55.8613
-84.7259
-191.899
-144.964
-73.5495
-16.2358
15.6414
68.1289
145.648
199.906
216.825
193.225
195.719
201.563
145.451
104.862
115.113
51.0702
-33.207
-125.894
-249.616
-350.255
-296.795
-76.5294
94.5616
280.04
334.454
198.87
44.5285
-144.392
-322.445
-348.332
-224.569
-139.423
-72.7323
23.0812
108.542
142.614
103.352
78.1533
6.96438
-166.286
-219.657
-111.205
76.3723
72.607
-34.1698
-15.3669
51.9472
139.751
250.158
240.963
75.6222
1.27078
-56.1485
-61.6803
-40.1597
-55.6805
-76.597
-99.2395
-128.157
-9.83477
164.857
79.0722
-62.7351
-127.902
-178.452
-227.528
-186.342
-37.6335
54.041
134.607
255.034
321.6
267.281
114.159
-42.2188
-105.792
-66.9227
87.8779
221.855
242.468
118.663
-70.4026
-226.391
-244.617
-155.264
-33.2104
-16.1757
-94.6293
-160.01
-97.0274
-26.0123
-34.6385
-92.8762
-40.7978
-35.5336
-56.3214
-27.0943
-23.801
10.7228
103.3
121.264
47.7502
-5.41088
-36.4444
82.7897
242.643
216.009
82.3174
38.5081
12.0018
-38.2649
-19.3987
43.4834
56.0828
28.8537
9.00824
38.2491
34.8788
-15.0694
-75.1091
-55.347
-97.7857
-165.322
11.2895
151.296
81.9982
-71.7453
-113.313
-201.686
-213.701
-125.04
-110.923
-51.5618
-61.4338
-76.7651
-37.4364
-10.7954
108.257
386.069
408.799
164.813
26.6003
1.46237
-73.4846
-222.091
-274.74
-137.103
18.5821
196.033
203.909
74.7599
-18.0888
-22.842
-5.22727
61.2378
139.919
157.618
24.3716
-174.446
-215.435
-141.428
-8.3377
25.9581
-33.1918
-46.0616
10.6404
44.7355
24.5656
-22.4681
-26.2603
-12.201
-34.3276
-90.2075
2.29149
69.4887
-17.0537
-91.6566
-27.0114
66.2494
31.1183
-4.10994
13.6204
54.1021
86.4541
115.623
70.5548
62.3746
39.525
-11.6485
-53.1537
31.4163
165.599
106.516
-64.732
-114.3
-13.7625
44.7441
1.58935
-70.0495
-38.2748
21.2427
1.21302
-96.0303
-165.288
-170.304
-160.236
-124.681
-44.6574
64.5703
114.215
1.19818
-167.03
-176.917
-121.376
-3.94182
183.689
308.007
279.749
223.047
144.319
88.1095
56.9014
-53.4784
-124.498
-127.272
-87.6183
-84.4277
-109.938
-45.9218
-6.69292
-20.5607
80.7115
187.17
162.331
51.8866
27.9708
61.932
-41.4556
-170.855
-195.529
-149.845
-10.843
144.068
147.629
108.519
142.011
131.383
98.8258
-29.0581
-122.709
-125.821
-157.522
-140.746
-45.2765
-23.1755
-138.512
-274.875
-272.221
-215.464
-97.9605
-23.6105
33.6389
180.705
206.019
143.452
205.951
239.496
171.552
92.8975
79.068
87.3356
95.8801
83.4928
105.138
84.8394
-51.3264
-136.866
-322.881
-484.87
-256.795
-77.4404
15.7937
99.8571
246.241
337.35
173.485
-41.8585
-107.854
-47.4244
-93.1973
-281.061
-230.125
159.814
335.105
277.071
230.735
108.185
147.909
195.205
-112.539
-320.14
-313.55
-219.645
-107.014
-134.285
-132.668
36.9834
163.157
68.3928
0.170788
60.8867
22.7834
-150.652
-214.191
-136.597
-106.47
-36.8036
48.9689
205.33
346.845
395.867
280.669
92.7762
-90.2447
-135.634
-125.717
-131.063
-123.312
-54.2193
24.7718
98.5443
84.1095
-20.779
-104.141
-154.91
-135.483
-53.1009
33.841
38.1608
-6.48166
-2.40417
29.8822
12.6513
-3.01272
-12.4483
3.45407
60.572
136.176
136.585
134.676
128.446
38.4729
-162.526
-381.978
-344.62
-175.739
-151.888
-33.5245
150.765
235.077
166.761
22.9171
-82.0854
-130.818
-36.465
71.0778
107.702
130.916
212.23
311.549
183.842
74.5955
137.049
266.674
235.016
37.4122
-152.363
-383.198
-545.917
-368.236
-102.143
-45.4183
-19.4699
3.34658
56.9599
24.4735
62.2509
46.0168
-47.9309
-80.3405
-40.4522
-56.5321
-106.609
-194.633
-236.767
-97.2226
267.533
464.433
419.369
227.422
41.7372
-66.536
-119.356
-77.2769
-119.451
-127.649
-66.8023
-11.4095
-20.9304
-101.346
0.687723
92.1929
69.0868
109.396
137.099
75.9792
-24.7856
-52.4385
-23.6331
-56.8836
-79.1576
4.18949
79.0677
72.6945
48.6788
57.982
-51.2844
-160.473
-131.725
-92.7012
-62.3764
8.16891
39.0537
44.6388
73.5571
89.521
48.6218
-10.0019
-1.5908
26.401
25.3974
39.9603
-37.6341
-64.5415
-1.68779
-32.4296
-112.683
-146.422
-27.4529
13.0017
-59.2507
-62.5506
-72.0246
9.70072
137.378
154.496
106.466
230.318
312.772
167.948
-46.4119
-193.883
-201.329
-213.2
-173.385
-163.885
-109.223
146.94
355.144
297.499
140.689
-7.48547
-3.67712
-28.1652
-176.108
-202.288
-134.476
-251.333
-369.777
-139.847
248.552
417.477
339.872
212.902
108.988
38.8921
-22.8678
-183.86
-348.08
-343.029
-220.314
-66.6575
26.0883
83.965
138.272
106.767
-2.5281
21.4399
100.794
43.2325
-42.4715
-38.1726
44.1824
121.647
109.261
94.1055
113.982
128.763
45.7695
13.3029
27.5602
27.4111
22.8203
-26.6099
-104.543
-160.093
-116.223
-84.0979
-107.798
-142.688
-145.738
-50.2324
40.103
46.0328
25.3712
42.9264
45.4184
22.7734
11.6651
-51.4447
-50.8029
-65.9558
-18.1387
-19.202
41.4844
103.407
110.159
135.282
105.528
136.524
210.472
80.3523
-229.708
-316.753
-290.577
-219.257
-89.3916
24.118
195.574
282.445
240.89
174.909
69.2058
7.46844
-191.082
-276.589
-262.053
-150.209
27.3034
114.929
95.681
150.362
229.286
164.891
59.1377
46.9532
100.472
127.114
-4.32561
-126.958
-116.17
-30.5233
-67.0036
-70.4195
-2.33194
-72.3273
-26.2512
37.0656
33.0781
-42.0618
-251.039
-276.056
-174.727
-131.194
-18.2022
73.1546
16.7811
-60.6928
-28.9093
154.199
277.839
157.84
60.8336
46.0789
57.3069
105.049
51.5804
-91.6713
-165.788
-152.739
-86.8693
-41.3711
45.3367
114.642
106.813
63.6891
36.0678
-38.4903
-8.66424
19.5038
8.7481
65.7288
215.843
248.451
191.944
75.2822
-62.0733
-187.356
-311.889
-415.979
-372.515
-230.397
-5.75554
134.363
222.492
236.271
138.378
105.13
48.4471
-5.1754
-24.8208
-95.5224
-175.373
-189.462
-275.451
-127.089
201.161
424.738
450.243
363.889
241.229
54.0726
-98.2296
-106.471
0.781953
-12.5734
-110.719
-167.311
-188.476
-230.853
-291.973
-210.05
-123.61
-135.529
-10.8493
29.213
-70.2232
-85.4829
106.759
181.377
141.7
149.215
153.243
174.816
72.3301
33.5091
101.211
78.7351
17.2408
-24.2402
-26.9365
-50.9595
-117.617
-90.1085
-22.233
72.3966
94.9224
14.8941
-89.4313
-63.1876
-8.4013
13.7417
1.12166
-108.184
-264.269
-335.709
-219.227
-26.8775
42.9544
97.1719
147.902
176.04
156.115
151.81
128.586
89.2353
49.1325
13.1299
-62.8538
100.157
225.002
164.384
117.17
29.1407
-50.1339
-88.3945
-80.3099
-37.5492
-43.8444
-89.7349
-63.1926
-47.8222
-41.5502
-37.5505
-30.3313
-65.4363
-124.481
-130.338
-88.7687
-202.708
-251.996
-134.433
-16.9874
49.5023
139.157
175.867
152.752
94.4288
49.3075
49.9162
48.0604
39.5437
8.98722
-7.33215
75.9677
106.335
110.93
91.4169
36.655
-0.198248
-22.1484
-106.212
-121.116
-29.381
46.925
120.724
156.055
109.021
12.2289
-40.9838
-136.058
-146.884
-69.7716
-64.2664
-144.714
-90.9138
18.5915
-22.2055
-96.5721
-157.464
-123.252
39.4781
311.669
365.377
193.009
-83.0811
-255.137
-114.101
78.8182
82.0538
69.8976
12.5391
-77.9893
-105.138
-102.223
-66.3673
-75.4976
-21.0308
57.1568
87.1239
192.655
181.141
-51.8795
-87.5774
-58.3573
-131.745
-110.997
-36.0431
36.4159
32.3093
16.5541
71.5688
124.851
139.989
134.944
51.9232
-53.8479
-38.0521
-13.1818
-17.3595
-77.3363
-58.3586
-56.181
-139.982
-70.555
97.9172
170.734
32.6801
-120.625
-109.391
-62.6764
-35.5222
18.896
64.3046
81.6326
9.20374
-45.7909
-59.9673
-25.1029
30.7091
100.033
13.2753
-60.1484
-25.6475
2.09608
54.6527
18.0222
-10.4658
69.5884
187.702
257.583
178.45
70.2516
2.4202
-144.06
-265.129
-318.95
-303.366
-223.734
-150.183
-64.2044
85.0908
134.6
91.7945
143.232
214.057
144.824
108.011
15.8757
-110.692
-149.282
-59.5163
19.1759
45.459
120.568
153.095
131.056
23.1066
-123.309
-85.2864
-57.6926
-125.705
9.87957
288.602
351.132
171.218
32.8573
-26.6241
-119.114
-172.608
-224.366
-271.019
-290.533
-286.762
-159.16
53.3376
169.226
213.166
173.049
21.9074
-29.6742
4.89307
-82.441
-262.56
-298.897
-143.002
8.62402
24.2736
94.8779
127.227
125.851
161.126
239.669
284.034
206.79
120.312
85.0837
93.4372
95.7413
78.012
29.8384
-38.7458
-125.745
-169.171
-199.451
-199.794
-188.545
-167.202
-33.0309
88.9309
81.7683
0.718593
-58.2545
-24.832
24.1783
19.941
52.2235
2.75507
9.71752
59.453
13.2556
-9.95343
31.812
37.1817
-67.2291
-114.363
-99.0234
-163.745
-245.119
-156.287
141.464
302.453
369.003
292.958
168.426
30.1839
-102.403
-147.989
-146.456
-105.247
-130.012
-159.318
-95.3491
-11.5455
31.5104
147.49
206.524
187.203
187.179
149.348
-6.57617
-52.7914
-79.2382
-114.979
-102.544
-62.269
-13.8219
8.4099
-56.1385
-59.7721
86.2962
86.9409
-78.65
-184.76
-146.8
-76.1215
2.78326
59.4181
35.2628
10.0905
-18.2155
-66.9421
-118.123
-115.099
-25.9933
95.7228
175.474
173.72
160.619
88.9566
-48.065
-162.401
-131.433
21.5895
109.025
86.0855
26.3883
46.1856
28.3259
15.6477
79.6642
92.0148
34.8388
19.3979
-24.7676
-114.635
-168.075
-140.372
-42.1441
28.6388
69.1279
125.5
109.472
31.3943
-1.84214
-17.1431
-8.14357
31.853
39.7184
-46.6449
-165.593
-201.997
-175.443
-103.071
-32.339
-54.0027
-60.0109
-14.4206
45.96
79.6945
94.0453
187.928
188.743
108.969
115.17
117.623
46.948
-40.7719
-51.75
-65.4025
-95.1192
-81.5989
-87.7168
16.546
83.8757
80.8025
55.5877
27.2389
1.46517
-67.6708
-98.8916
-81.815
-45.3259
-33.807
-58.9616
-66.4466
-70.0616
-78.3442
-50.8684
-9.68202
-0.830448
26.1771
70.1231
75.7038
147.164
197.292
143.581
100.413
8.90114
-40.721
-94.267
-180.692
-139.34
-21.7667
-16.5455
-33.2069
105.875
153.765
31.3802
-103.059
-167.636
-124.709
120.365
195.534
50.0816
4.82082
-28.0782
-78.2209
-54.4453
-37.9971
2.25645
37.8853
32.0074
-3.806
-56.397
-94.2742
-128.054
-84.7567
11.2927
73.7004
170.585
234.9
119.004
0.457906
-76.5065
-100.764
-42.7218
61.0603
108.231
96.644
70.2494
80.6129
38.0095
-30.3927
-44.7605
-21.3497
-22.5209
-42.5151
-15.7487
38.6881
50.3843
-10.2539
-107.258
-189.07
-184.862
-115.704
-89.9729
-151.074
-195.319
-97.1645
41.7823
40.8571
35.1055
81.3174
154.026
189.876
129.882
70.1901
84.1813
155.469
95.0499
-9.30258
-85.7527
-143.09
-166.631
-127.251
-0.822091
121.014
166.725
86.5516
-0.4401
22.836
31.2818
4.48538
-58.0862
-47.1037
-52.0019
-104.308
-148.08
-148.631
-23.511
65.9626
143.666
198.621
194.224
185.676
55.725
-24.283
-46.4559
-73.4857
-140.017
-182.768
-73.3828
129.271
165.444
69.888
23.3173
26.5786
-10.2892
-25.2065
-53.1837
-91.9705
-152.076
-155.35
-61.4246
-20.8364
3.1113
-70.3432
-104.552
-18.8699
55.8663
65.2823
-34.1843
-147.927
-151.502
-162.315
-69.3843
137.597
217.473
206.348
191.945
139.854
103.32
66.432
9.88915
-88.0764
-124.27
-44.995
92.6895
116.213
179.612
234.585
175.495
178.681
108.55
-72.7046
-123.905
-156.68
-187.432
-149.35
-155.133
-189.568
-75.5093
32.7576
-9.58188
-178.029
-161.244
-89.3382
-76.591
-67.2505
-77.8516
-90.2409
-35.7511
-38.9427
126.97
239.373
212.032
162.159
188.27
186.79
134.474
90.3883
5.49063
-58.2343
-64.4272
102.171
128.135
71.3118
-8.63329
-87.0254
-199.098
-249.306
-212.528
-191.144
-201.779
-60.6943
24.6869
-15.5639
-23.0247
60.884
175.639
175.999
37.7318
-94.4552
-91.7009
39.9986
202.53
230.944
157.413
93.5431
47.3548
43.7802
28.9701
-19.0658
-76.5741
-109.517
-100.564
-56.3619
-89.9641
-211.79
-252.36
-136.182
7.3023
25.4331
12.0814
69.3784
42.4837
-6.20305
-61.9164
-29.8569
135.026
159.986
98.087
100.755
110.389
64.3934
-79.1177
-156.25
-51.6398
32.3451
10.5841
-24.7195
-45.2996
68.0823
227.864
211.488
72.9299
-80.2407
-97.5513
-65.1666
-35.6704
106.84
130.877
78.8988
10.4637
-36.4787
-2.57442
7.55781
-0.875973
-10.9356
-33.1965
-124.321
-136.546
-122.402
-215.664
-324.7
-293.425
-117.488
42.1177
67.3994
12.9791
-9.91698
21.1783
-3.2078
-16.7634
76.3151
169.884
188.348
191.165
115.158
52.7262
101.686
77.2851
49.0042
38.2351
-51.1729
-79.2256
-47.7564
13.5246
45.7329
-44.2427
-72.4455
-16.3673
41.7943
123.397
182.514
204.099
148.399
-35.1695
-221.378
-303.08
-231.915
-82.1195
7.53633
88.1345
96.4767
57.7928
77.8054
-9.58633
-69.9965
-74.7326
-106.065
-72.3371
-47.4417
-62.2145
-20.2706
15.4272
-37.7126
-104.546
-45.4635
33.1021
28.2469
-17.9352
96.1115
128.698
21.7068
13.7818
113.93
180.887
178.386
87.4263
-17.5827
-73.1494
-78.8482
-98.6761
-168.408
-248.467
-107.903
89.2393
146.154
147.466
134.182
74.9851
-19.0767
-44.6713
-26.8985
-35.94
-88.1576
-147.985
-149.902
-88.1358
-88.151
-159.296
-176.125
-4.48702
221.088
304.543
306.345
269.289
212.219
184.336
157.877
83.3563
-35.9609
-134.549
-65.6539
-74.8408
-216.061
-230.839
-205.394
-156.511
-46.5539
4.47605
82.4147
129.432
69.3907
-46.5008
-119.281
-183.894
-165.583
-109.647
-6.56726
136.406
98.5765
58.9138
103.497
91.3019
79.7847
82.7144
41.357
51.0903
143.479
200.456
63.5103
-136.758
-248.988
-135.389
-124.932
-169.763
-89.6316
-82.2976
-121.375
-256.926
-241.565
-70.2955
20.5519
131.008
222.683
276.902
300.167
244.563
86.767
49.0236
45.8862
4.39138
8.45503
147.703
302.281
296.997
154.971
53.0482
-51.9658
-52.3638
-27.5184
-69.6098
-88.5284
-107.177
-157.759
-205.351
-262.304
-280.157
-229.644
-215.004
-140.946
42.7198
84.3806
-65.4434
-146.409
-101.449
-53.435
-34.0918
37.5357
96.4013
28.5347
-23.6387
30.0529
147.009
177.989
197.672
204.814
114.351
-108.796
-144.824
57.4821
182.526
108.904
-40.9372
-63.576
38.7819
100.04
107.159
82.52
107.627
115.802
14.6324
-67.7192
-74.2037
-58.8946
-67.4285
-77.9811
-79.0362
-50.4275
-32.2195
-23.6221
-49.6611
-126.186
-165.208
-239.036
-216.616
-39.7124
127.518
110.585
59.699
61.0699
92.0212
132.016
149.281
126.331
28.896
64.836
145.032
132.365
-16.092
-114.312
-93.8642
-87.3841
-200.223
-209.153
-26.6591
34.5499
41.97
169.521
194.595
165.318
131.988
54.2695
-95.3761
-183.43
-205.725
-188.669
-133.593
-22.1244
67.8528
-17.6832
-184.182
-101.847
86.4958
170.614
54.7903
-81.809
-53.8254
88.2867
100.166
59.0065
-4.6162
-86.3611
-57.4692
69.156
135.7
60.7311
39.4764
41.1454
4.57772
-55.1884
-149.006
-157.084
-9.87127
112.496
124.931
239.517
253.724
104.119
-22.9647
-35.7486
58.498
75.9896
-25.8627
-127.489
-156.603
-173.822
-244.491
-286.425
-249.493
-179.716
-47.4148
116.504
187.756
184.305
131.765
97.1549
43.3873
-61.5815
-75.8558
-55.0049
-22.8781
11.0421
29.4564
60.0261
91.5605
114.614
132.977
164.741
225.63
211.844
48.3975
-109.674
-39.9172
96.1582
68.9966
-63.7676
-132.779
-131.559
-94.4738
-130.15
-212.076
-243.008
-236.124
-240.847
-177.358
-55.9806
31.0555
80.1577
157.021
173.196
202.356
192.829
72.663
-44.7036
-29.954
-15.2008
-38.7214
-133.136
-31.6983
101.103
130.645
147.365
85.5888
-59.5161
-133.746
-45.6451
44.1637
27.9178
56.958
61.6192
86.7494
79.8684
-22.9247
-132.41
-78.5035
-16.5916
-38.0423
-21.1269
-88.0857
-68.782
50.6101
109.589
56.8498
74.5993
74.6602
-32.4079
-22.6914
101.758
66.0557
15.8506
-13.4278
-11.536
-38.927
-61.13
-126.303
-174.246
-107.567
-49.5022
-11.7882
-3.6726
-150.23
-205.411
-53.9198
63.9953
108.715
105.444
127.02
177.675
164.043
92.5256
74.375
61.2184
9.98966
-38.2618
-63.347
-42.465
7.11961
82.2929
48.9781
20.872
88.2113
93.0738
19.0604
-39.6259
-58.3111
-22.9466
-87.8106
-169.163
-152.36
-101.179
-85.8968
-89.8754
-82.7695
-23.052
28.271
-10.0809
-65.4319
-78.0438
-51.5072
-56.1386
-33.0549
22.3942
110.808
217.496
288.12
251.36
100.974
-63.383
-140.524
-165.046
-68.3956
16.9254
35.3919
48.7781
51.8872
72.0437
113.089
67.3397
19.8906
13.1622
12.4584
-1.63199
-74.5251
-51.7842
-79.1685
-149.08
-31.1886
25.7784
-49.7646
23.4235
76.5551
70.6999
102.819
73.9842
-20.4862
-26.2097
-58.9634
-97.5288
-110.732
-76.0005
-41.1451
-33.3489
13.3848
46.3085
102.702
95.2361
41.6405
-53.5563
-62.3432
-60.7385
-210.938
-319.466
-268.908
-166.866
-9.77809
215.517
243.94
244.915
249.597
209.763
265.216
176.799
26.7619
-106.305
-157.014
-131.471
-119.495
-1.35319
141.572
103.823
37.7668
21.0097
-54.4691
-117.515
-127.518
-157.759
-150.957
-138.201
-98.9571
-25.5614
3.59139
62.1135
158.299
167.144
138.108
107.484
23.8263
-41.9241
-60.2789
58.1644
149.47
167.429
171.366
157.451
141.397
75.8881
-88.1922
-214.391
-199.313
-217.295
-244.127
-157.52
-96.8219
-87.4655
-85.1942
-52.7084
-31.7705
1.00773
-5.07643
-57.5736
-68.3437
34.2703
116.963
101.348
63.9582
50.8616
180.183
233.163
165.569
128.209
53.3056
-24.6292
-79.3658
-115.665
-126.099
-104.766
-111.874
-161.083
-157.146
-97.0783
-26.1144
-7.40671
-11.2607
-9.07946
-17.2931
-68.1158
-65.5957
77.7011
188.743
196.665
168.38
172.885
143.727
106.666
73.0426
40.6018
21.855
46.4069
6.1394
-93.06
-111.336
-21.734
-33.3586
-53.6647
-33.3642
-19.073
-41.5441
-114.629
-149.036
-164.118
-155.813
-149.788
-186.582
-181.516
12.2152
87.1859
112.49
214.542
285.655
212.962
73.711
-10.9343
27.8974
111.189
141.168
90.9015
44.1723
51.1434
114.761
152.831
152.648
171.712
184.778
74.8207
-225.806
-439.104
-527.247
-557.676
-469.853
-206.1
-11.2065
57.5681
95.2375
83.4772
-11.9919
-61.8325
11.0692
132.18
157.238
112.722
78.0956
32.4292
41.983
99.9317
168.765
280.101
366.372
369.405
265.292
145.919
87.2917
-71.5452
-221.224
-299.663
-278.269
-151.72
-121.528
-229.38
-301.509
-230.287
-217.953
-187.274
-47.3148
34.9721
49.3868
96.1408
268.026
324.429
268.549
110.751
-6.31141
-36.6764
-6.41709
-48.7652
-56.5064
-83.5813
-28.1478
62.5835
26.0909
-70.1798
-37.2083
-21.9856
-0.580784
77.4576
75.0032
82.9203
96.4597
57.2645
-7.06435
-44.2312
-103.246
-161.784
-172.635
-121.899
-130.208
-88.7409
-31.2874
24.7478
64.9789
67.4366
53.3028
61.4808
25.7871
-73.5547
-127.332
-51.3661
12.2747
15.8154
95.2484
180.571
235.452
265.623
207.528
111.282
109.62
44.9295
-88.5868
-116.349
-83.6244
-8.301
96.8477
52.4449
-68.3281
-20.815
73.4258
-35.1095
-242.539
-317.438
-301.064
-255.186
-195.25
-93.6028
-14.3544
93.6621
189.986
223.092
208.82
60.3666
-31.3168
-101.092
-147.652
-126.263
-59.6949
76.7876
189.651
253.038
225.306
175.993
45.3324
-57.5083
-54.2721
28.578
145.646
151.735
66.4294
-25.5284
-100.035
-119.496
-94.8124
-103.917
-128.685
-141.915
-183.968
-245.975
-251.573
-221.844
-102.159
20.5881
86.592
114.586
174.67
159.141
17.4759
-46.3607
-42.9755
-3.2798
77.2795
163.376
210.787
251.596
201.035
204.568
202.025
90.7914
-20.833
-3.56721
-10.6153
-91.7846
-110.024
-75.0084
-97.1666
-153.947
-135.405
-84.9946
-38.9137
-31.1128
-81.7955
-10.9504
49.0093
7.68513
-26.7801
-65.7686
-55.8438
-29.0452
-47.1256
-98.3861
-123.499
-139.018
-100.051
-51.3978
-7.50919
30.135
72.0733
130.399
161.823
75.265
85.0469
103.204
119.397
1.01845
-120.2
-156.99
31.0503
292.302
392.474
307.206
200.628
150.586
5.68285
-75.6061
-220.444
-398.844
-322.723
-164.498
-91.8132
13.8545
-4.87727
-62.7516
-105.735
-40.4694
98.8824
184.986
122.628
-27.4794
-149.599
-255.53
-309.1
-229.374
-147.66
24.2119
204.861
267.046
182.741
121.86
130.338
146.073
118.89
102.296
29.3092
74.0593
78.573
60.0963
33.3008
-26.4236
-43.9564
12.6708
25.7435
10.1102
64.886
53.633
14.6058
68.3294
63.4575
-39.931
-183.805
-240.872
-200.688
-250.342
-119.738
125.141
85.9763
-32.8439
-148.793
-211.005
-257.758
-235.017
-122.669
-22.3292
53.8605
90.5893
92.9123
95.7032
258.335
368.514
326.334
152.633
-31.1721
-109.523
-236.717
-307.234
-150.072
33.5346
149.733
210.326
217.132
189.28
125.489
65.9537
-44.0147
-147.795
-216.164
-213.308
-154.89
-99.295
26.2049
238.462
437.734
452.988
375.036
190.663
-33.9512
-165.581
-221.528
-248.579
-207.571
-159.381
-119.17
-69.0275
-16.7871
-65.2884
-71.3632
-41.8581
-67.8369
-111.49
-133.866
-187.631
-351.793
-274.675
-73.2847
-4.63454
70.835
125.862
156.173
155.289
133.051
137.46
179.079
200.947
253.41
258.13
177.217
13.4447
-11.0364
-10.7777
-20.3752
17.7998
66.9412
36.1353
19.4662
46.127
-133.443
-176.325
-160.319
-79.8073
17.7462
-13.7141
-106.292
-207.657
-246.404
-116.514
35.3006
29.6399
12.5228
-5.2837
63.5412
190.259
250.588
140.103
-74.221
-186.07
-84.0381
-51.011
-64.7027
-113.675
-127.228
-4.87578
110.771
88.3446
52.475
48.0738
161.784
249.396
151.273
81.2411
-70.9595
-223.765
-220.338
-145.612
-66.0551
10.7327
122.505
239.811
226.578
144.91
106.318
124.579
-1.41358
-97.5689
-120.082
-204.974
-246.294
-194.579
-72.0659
6.37753
96.2047
43.5556
-11.9964
42.6692
59.9824
50.7981
30.5959
-75.1478
-109.822
-39.4469
-24.8533
-111.712
-131.471
-69.7842
21.7981
178.131
174.639
86.514
-48.1126
-147.587
-220.107
-183.196
-112.284
-91.2201
81.006
182.063
155.711
133.475
206.007
267.002
271.888
160.899
72.093
26.4246
-42.0892
-92.964
-50.98
68.1452
121.577
61.9635
28.5716
24.5431
13.3781
-33.6033
-150.791
-167.952
-168.018
-189.236
-226.064
-293.785
-289.735
-201.383
-85.0491
9.36303
35.4365
17.007
-2.59147
42.4537
23.4022
-4.13594
19.6655
91.2019
204.43
318.215
261.269
93.0958
35.4312
-32.6347
-107.153
-144.454
-52.1859
63.9016
-19.9919
-63.3061
-84.3414
-111.977
-34.9954
93.4615
134.141
219.011
261.777
267.544
215.731
37.8184
-51.9448
-74.9346
-108.985
-96.3691
-89.8031
-85.6521
-67.4617
-43.2311
-24.5514
-54.0046
-58.7029
-39.771
-117.076
-185.731
-125.225
-57.3167
-67.281
-86.0367
-52.9539
14.9639
97.9395
155.039
191.946
256.565
229.042
173.414
72.4101
-21.4668
34.713
101.687
23.4503
-81.8779
-115.133
-94.5332
-75.7271
-144.706
-133.835
-102.24
-91.5991
-78.5759
-128.607
-76.7832
-81.2491
-171.793
-147.349
-14.4664
48.1292
41.2993
72.8875
118.13
123.358
52.8429
32.5672
42.1716
57.1313
103.874
71.0772
40.0422
-18.2236
-56.3591
-2.98866
57.5088
71.2647
103.151
189.164
188.287
171.976
143.907
73.9381
-14.8665
-71.0015
-90.3537
-195.535
-283.082
-225.644
-147.071
-104.752
-117.707
-82.2979
-11.1613
-64.015
-138.918
11.1306
211.957
227.646
179.486
70.1455
-69.4098
2.33903
87.0169
104.06
99.4044
109.872
83.7888
1.46617
93.0678
231.506
202.3
142.679
61.4267
21.8192
-77.5568
-208.22
-335.845
-359.887
-358.306
-372.995
-325.193
-313.465
-250.053
-143.78
-58.6219
66.3892
239.754
285.526
184.76
41.7641
-62.0634
-61.1018
-16.1981
33.1044
111.217
207.413
202.383
200.127
169.238
188.679
247.968
206.417
216.85
391.312
354.978
141.851
-25.7924
-165.589
-294.786
-386.84
-312.915
-196.484
-83.2733
27.4578
87.3254
-9.86544
-72.7474
-117.552
-172.95
-116.475
-25.043
-9.89337
-153.377
-285.214
-229.561
-60.2658
18.9606
-13.8483
31.5531
96.9707
140.203
132.527
84.9785
-44.441
-133.822
-83.3673
49.0757
90.6264
107.854
117.872
144.621
210.833
297.468
162.042
7.43595
-133.312
-232.202
-188.311
-112.668
13.7285
128.313
149.227
89.6954
89.6938
65.5745
-21.1673
-103.373
-122.87
-102.633
-98.1143
-14.6592
67.1799
37.719
74.3741
23.9003
-76.7945
-137.098
-195.797
-80.7778
19.3431
55.8615
11.515
-58.4974
-74.4086
69.9078
304.806
386.017
262.642
192.022
86.3251
-220.069
-375.804
-415.412
-328.724
-135.438
70.5086
131.115
183.255
229.945
106.586
-59.4725
-114.944
-54.8924
-20.8975
-140.878
-241.925
-188.795
-60.664
-8.97775
21.6928
116.666
188.316
208.501
132.925
98.6284
92.424
116.786
85.4738
-46.2122
-86.0001
-57.4388
55.9626
62.2162
14.0368
0.928672
-46.1298
-215.401
-254.511
-159.936
-58.4148
39.5526
-60.4175
7.91119
169.486
220.995
172.271
131.16
125.958
24.6766
-26.0212
-27.599
-23.302
-17.0266
-14.8029
8.96874
20.8026
80.6422
165.24
65.8442
-28.3096
-106.702
-205.089
-350.816
-413.29
-266.067
-58.7861
58.6733
85.1471
64.5742
90.5271
89.0924
11.9647
33.1264
85.7203
46.0875
44.4948
51.8141
8.02362
-21.2469
-48.4681
-16.5524
78.31
114.735
62.6072
22.9317
46.1273
48.129
71.3679
86.2063
89.5895
79.3046
9.89521
-89.1235
-121.149
5.99331
90.4018
26.5949
-53.993
-20.5349
-43.1284
-71.32
-22.7712
0.31136
-14.0076
-75.253
-97.3191
-116.529
-164.362
-158.291
-174.849
-158.036
-47.4232
108.013
201.378
167.07
69.2659
37.0519
39.821
38.6112
64.0254
70.8616
35.0121
-35.3789
-48.078
-39.0595
-7.58997
33.7258
46.9697
24.0582
65.6954
166.714
110.939
89.5397
6.57827
-30.8085
-28.1497
-146.707
-213.397
-215.19
-171.053
-126.144
-60.2476
123.955
218.662
199.701
102.306
95.1436
88.1027
112.566
88.4204
-65.4432
-85.1101
-128.789
-78.7407
-22.8231
-56.2201
-7.04338
-16.1773
10.782
110.495
133.802
96.9663
45.0534
22.4449
-20.5385
-35.3719
-19.1588
-45.5032
-166.988
-286.668
-201.119
-153.243
-132.894
-32.906
-7.2368
3.64802
87.5696
137.721
113.242
27.7199
-0.0032997
4.55634
-11.1254
-21.0249
9.04456
-29.8495
-72.5038
-49.5922
26.8699
104.887
113.996
153.506
155.01
98.9438
84.0211
88.5374
36.3316
14.5021
11.5253
130.31
145.012
84.6712
-9.06681
-115.419
-204.986
-269.868
-264.095
-257.721
-177.363
-108.304
-63.813
44.0084
108.047
111.449
85.1216
148.782
143.274
86.1359
31.0704
3.49982
53.0744
36.9844
37.4161
106.361
115.981
50.8862
17.8366
20.0052
13.1607
26.3937
-9.64449
-119.752
-72.4714
-17.8108
13.6437
36.1962
76.8588
65.5954
-93.0875
-385.166
-482.682
-365.48
-276.815
-212.48
-46.9018
175.883
211.404
199.738
113.107
115.471
131.545
211.313
167.841
98.5464
48.3721
-42.5521
-78.5712
-2.44151
115.846
132.181
104.591
117.063
124.868
67.3656
-43.1154
-51.3359
-33.3593
-27.7512
18.0727
-45.7729
-54.5538
-173.717
-293.193
-336.121
-302.166
-138.136
53.8132
79.1777
190.906
280.016
159.492
69.0663
92.0051
141.653
154.876
81.9677
-2.99323
-48.4546
-59.7705
-106.202
-165.106
-135.2
-56.0433
-46.622
-47.9363
-58.3302
-122.504
-124.233
-103.435
-64.5384
51.7426
120.73
133.635
110.848
62.622
22.2217
14.0481
33.5839
25.3002
103.363
152.381
144.231
96.4342
83.0434
72.0611
-6.89174
-96.1848
-156.863
-152.829
-114.703
-82.4021
-56.2215
-58.9809
-71.3296
-52.7049
-30.4025
-13.1848
17.7962
44.5907
84.6561
42.3394
-21.3549
13.5693
96.4117
135.811
70.06
16.1866
28.8998
50.5043
48.347
-1.07895
-79.0245
-126.479
-94.2308
-96.76
-115.778
-34.2163
158.452
124.404
-20.254
16.3819
167.109
142.024
31.9556
-128.204
-210.352
-179.097
-163.465
-221.434
-144.803
-42.2909
21.9299
58.4795
106.069
187.704
265.192
279.968
120.868
53.3072
39.754
-183.118
-344.612
-208.216
-71.2724
103.021
308.43
326.513
238.02
150.529
-4.98544
-103.305
-104.693
-85.9019
-89.6231
-128.894
-140.396
-99.0766
-53.0775
-92.9984
-25.2713
89.6417
102.281
55.7614
-21.1985
-112.636
-119.729
-72.4972
-63.2368
-26.9795
38.3796
74.7454
61.2841
48.5648
39.2712
40.7334
24.4743
-59.0388
-106.441
-40.1768
-54.5898
-90.1787
-117.88
-172.393
-129.329
-91.0198
-78.9964
13.1795
173.851
235.339
234.51
251.14
266.769
255.823
211.862
124.74
16.331
-94.1774
-152.176
-120.859
-97.4541
-23.1135
54.2913
148.551
252.235
230.713
153.278
142.716
-227.753
-189.07
-225.658
-253.359
-329.762
-260.847
-144.937
-127.982
-156.464
-123.806
-42.2643
19.9981
70.5683
128.687
145.78
85.3885
-14.2816
-45.353
-40.4575
-42.3761
-48.9114
-5.18004
152.008
270.96
222.663
67.5655
-88.1881
-207.706
-257.06
-233.079
-113.878
29.0551
95.7278
135.643
125.141
121.863
184.07
193.197
154.277
88.6101
69.6382
63.4116
-7.33362
-23.7481
46.708
32.7259
17.4575
116.803
119.073
24.8626
-92.497
-160.544
-172.729
-162.325
-228.787
-216.546
-160.826
-87.3578
16.0899
66.8185
-11.7715
-64.354
-113.558
-192.955
-185.956
-53.0081
75.5301
154.553
252.764
284.029
274.813
201.154
32.8884
-138.309
-165.763
-193.203
-197.661
-165.962
-60.7686
77.7553
124.983
199.143
198.653
132.328
24.5325
-114.016
-142.526
-112.672
62.9136
206.504
153.25
102.44
162.427
168.429
126.62
65.5976
-12.7262
-51.5257
-148.979
-219.002
-160.489
-114.586
-97.2286
-74.043
-67.5287
43.012
96.2417
43.4158
-68.9728
-160.381
-160.577
-140.284
-49.2294
67.4434
133.859
201.651
184.509
187.058
124.157
-16.3133
-131.94
-219.603
-247.995
-163.769
-101.501
-62.4892
42.5582
141.571
75.9555
-22.8931
-93.1507
-80.9945
-39.9162
-30.4956
12.5337
84.4528
99.7163
73.3498
79.3664
72.6838
84.4869
130.132
138.101
110.354
56.3228
-33.6092
-73.0909
-121.73
-220.616
-136.796
40.8776
136.53
131.305
86.7484
25.4139
-24.7343
28.039
33.0165
-21.4825
29.0619
83.8939
23.7784
32.4862
-26.6928
41.5141
95.6888
-0.33576
-23.3828
0.121289
-47.6675
-87.688
-142.508
-165.32
-111.22
-45.3214
-64.4241
-204.508
-263.554
-185.849
-69.1419
32.8499
117.139
38.5511
-49.5074
-89.2651
-72.6929
-68.2626
-13.8672
211.477
304.301
347.532
302.703
78.9966
-105.781
-102.712
-8.9887
42.1791
67.1986
148.579
159.867
153.324
173.788
151.191
123.281
4.68078
-103.824
-143.869
-130.35
-240.628
-305.659
-308.926
-183.59
59.2798
109.17
68.203
28.3761
41.3629
63.0074
43.5741
-41.5917
-120.799
-227.592
-215.929
-88.2802
43.4011
95.9448
194.798
218.915
145.193
77.563
14.3185
-71.5792
-185.36
-237.154
-136.257
-30.1571
-17.3524
12.1617
25.07
0.964714
34.8845
184.486
229.834
205.267
160.187
128.214
70.6794
-82.6403
-123.113
-18.2024
25.0107
38.6859
63.1043
124.151
97.4523
-16.5523
-79.7602
-180.808
-275.034
-306.126
-294.846
-217.627
-100.967
6.40727
75.9027
100.93
180.044
197.634
166.074
110.749
54.5149
-4.08187
-96.4008
-120.447
-85.8371
-25.7683
91.8849
144.344
176.728
224.06
190.692
130
42.1039
-88.4868
-134.494
-127.925
-103.208
-69.8701
-47.2642
-92.6158
-151.977
-151.265
-51.4299
39.1866
34.4498
44.6631
-16.9026
-99.2904
-75.1586
-24.1266
-38.8151
-100.664
-65.6583
87.9562
153.725
151.781
120.16
123.779
70.5086
9.89834
-10.264
-35.6444
-53.6634
-74.1918
-120.565
-52.8418
74.0358
116.7
102.976
102.339
98.1336
72.9353
-17.6398
-104.43
-149.872
-105.855
-18.1302
10.8506
-18.3324
-6.70358
36.3207
112.717
136.966
149.821
128.348
17.1154
-124.457
-152.534
-109.648
-85.2021
-87.9044
-120.93
-137.617
-133.83
-53.392
32.0035
24.6832
-2.23789
77.2582
187.042
98.1166
52.364
65.5916
62.8298
4.96325
-77.0542
-69.8249
9.95267
-48.2716
-176.296
-140.395
-62.4102
77.7422
159.418
123.247
7.59298
-75.2663
-75.6386
-88.8433
-108.812
2.14838
74.3826
109.41
141.277
212.092
233.304
214.892
165.202
116.53
85.6992
-32.0999
-170.447
-216.556
-228.837
-218.722
-147.057
-56.6238
-59.3595
-52.4417
-90.4388
-37.5631
37.0154
-28.9541
-97.3696
-54.324
45.4151
56.5457
74.7148
147.459
115.448
89.9755
50.209
7.94851
42.5143
53.0203
49.6002
106.778
163.713
130.402
164.98
-35.0552
-208.257
-193.877
-95.9379
-26.4385
-67.6312
-73.4911
-103.994
-154.762
-143.583
-101.254
-55.4175
-24.1947
-23.0147
-20.2381
-25.0888
-87.2099
-71.4471
11.685
-3.13287
48.0378
40.4424
93.0896
135.675
77.5735
114.951
161.445
98.9629
52.8938
66.8218
45.8467
86.6163
127.582
105.32
105.746
65.4048
-11.8494
-31.57
-35.565
-33.8637
9.7285
-21.6125
-89.6731
-131.832
-110.913
-106.644
-153.875
-119.484
-69.5572
-39.6304
-15.5739
34.2466
57.8576
60.4606
70.4606
34.3752
-25.5347
-40.2291
-113.348
-168.359
-193.274
-184.961
-60.9821
105.317
256.979
246.354
115.969
9.59722
18.1667
108.319
155.598
10.8833
-128.624
-135.705
-146.919
-75.6715
-3.0725
39.0828
75.275
106.349
155.727
200.63
157.159
5.51547
-176.191
-141.605
-33.6068
-3.39945
-4.1376
-7.55775
-28.0982
-68.3919
-39.6435
-61.9442
-74.6978
-94.3217
-103.347
-114.339
-43.987
17.1369
50.4611
105.486
131.701
123.142
86.2067
72.8864
69.8366
74.0236
51.8782
-21.2125
-78.6648
-52.9966
-0.21378
1.91031
19.034
39.0927
69.9986
93.1889
91.6533
31.1111
-6.70009
-98.2544
-154.009
-64.7127
-13.1264
-90.3505
-60.1528
-26.882
17.8857
-62.4847
-294.819
-355.657
-181.039
-19.5789
104.797
247.668
189.031
101.588
66.0512
4.99035
-0.485842
110.727
144.112
15.5884
-43.7318
6.74944
115.678
224.631
219.466
152.113
112.917
112.303
-32.1748
-265.222
-388.206
-396.282
-343.813
-239.215
-68.4042
80.2985
106.698
47.9034
57.6897
47.9274
-39.5596
-31.4024
0.553039
51.6001
67.1987
137.976
239.335
233.705
213.264
274.6
244.413
125.831
79.9601
57.9401
-45.9651
-106.822
-91.0149
-120.657
-209.399
-203.469
-139.459
-162.522
-254.126
-320.809
-301.211
-220.305
-105.623
-8.64209
4.13523
35.6912
104.183
118.411
137.63
157.504
125.093
87.0016
83.8415
70.2331
8.54344
19.2312
66.001
138.303
150.955
102.253
96.4537
-28.25
-130.317
-94.8835
-29.8858
21.4494
82.1966
160.053
109.022
-159.546
-330.43
-275.983
-133.072
-45.9804
30.8602
177.589
250.921
165.95
46.501
18.8965
-44.0307
-100.965
-38.6125
9.66831
-15.0145
-22.9997
-29.8366
-107.068
-93.1869
56.3525
163.907
121.113
72.0864
65.3563
36.709
-68.8791
-152.542
-157.273
-139.766
-147.38
-152.769
-49.6066
-10.5886
18.752
131.353
173.953
99.9523
96.7804
154.928
218.727
282.75
229.265
66.7853
-68.4834
-114.263
-203.274
-277.516
-327.943
-394.321
-374.863
-275.716
-156.398
13.1769
87.7924
163.874
308.101
347.081
236.037
139.024
52.4358
-34.3029
-51.6438
-4.86515
133.152
178.478
58.9838
-10.6614
77.1734
184.275
195.228
154.14
127.338
44.7621
-47.9645
-176.205
-330.64
-363.291
-231.89
-67.315
-11.4524
-69.0345
-71.4927
-60.1825
-101.084
-116.91
-22.5178
36.8507
-10.0707
-66.4938
-66.0698
-73.4492
-12.7458
55.7014
178.792
278.762
208.093
115.674
29.2225
-49.667
-70.8118
-68.7313
20.2588
54.4395
11.1965
-98.8622
-148.451
-93.735
5.04901
104.224
114.292
117.457
141.038
106.184
-15.2724
-86.2991
-60.7112
-33.2056
-51.6367
-45.2194
29.1112
96.3695
53.4669
-27.9127
-81.4452
-33.2827
60.9889
149.225
131.853
83.1675
143.051
121.359
19.9913
-77.2531
-196.462
-205.697
-161.009
-123.798
-114.277
-255.094
-271.107
-181.797
-97.9751
46.7047
272.616
263.128
168.319
113.754
12.7424
-14.8938
-10.51
31.3823
30.927
47.7933
95.9574
12.5839
-65.09
-83.7708
-52.3361
78.6415
107.828
104.831
94.3277
82.6316
18.572
-88.117
-190.64
-200.078
-173.931
-125.91
-195.733
-214.473
-80.7961
40.9588
63.2231
79.0752
131.143
209.119
253.985
215.82
157.404
90.3554
62.5789
4.09293
-87.6742
-45.1079
92.5292
141.772
134.125
96.5917
68.0301
21.679
-63.7084
-166.462
-200.806
-185.414
-151.399
-113.492
-33.0208
7.18346
-22.11
-40.2283
-94.366
-161.754
-183.325
-0.818131
111.994
-9.76461
1.86181
80.5343
6.64396
-133.769
-198.851
-77.928
96.5752
101.954
22.5654
17.6756
-7.21504
12.9382
100.46
191.747
302.951
238.515
114.779
-18.7786
-152.84
-101.347
-48.7824
-75.1604
-8.17411
153.522
272.06
222.219
74.3867
23.9052
40.7632
14.8478
-55.7066
-42.2673
-30.282
-88.0528
-199.812
-190.72
-129.095
-67.4347
-109.661
-196.367
-175.847
-69.8479
10.3711
21.1377
11.9651
0.025596
-67.4219
-63.8975
5.44528
67.1789
128.692
132.355
72.7595
47.0386
49.3333
14.354
-12.2336
-41.141
10.6525
115.349
53.5527
-19.2678
39.1934
65.1543
-15.1336
-65.4933
-18.777
6.52259
34.6753
7.98053
-127.854
-220.556
-200.825
-103.142
33.2776
308.507
458.139
448.136
275.587
-71.1445
-194.333
-115.719
-215.648
-324.629
-206.636
7.684
98.7113
111.721
-18.7033
-51.7981
46.0459
-9.73522
-73.6115
-82.7271
-68.7684
-64.9655
-108.275
-92.6002
84.7695
229.99
192.764
136.949
165.806
167.744
100.247
6.79826
14.9817
-35.8905
-98.4893
-196.317
-172.185
-76.1745
-53.79
-52.1129
-134.115
-185.525
-163.519
-149.57
-17.0896
128.497
156.224
79.9428
76.7878
138.428
164.877
152.699
69.4268
-59.8037
-162.884
-202.358
-227.887
-189.024
-43.4139
100.327
151.703
135.826
151.25
185.497
107.921
76.6426
108.489
122.196
107.056
78.2114
-7.88751
-139.202
-180.536
-88.8053
39.6602
89.2184
125.345
110.518
27.1142
-89.9928
-196.531
-223.589
-180.597
-172.344
-193.71
-117.536
46.7961
34.8241
-28.5411
-29.4254
3.6763
9.40279
18.7793
32.5706
93.3118
140.131
117.442
44.9953
2.47438
8.71228
74.7167
58.2138
-7.77312
-42.1084
-57.7754
-23.653
6.56796
48.5549
65.1203
108.017
31.7441
-94.1034
-187.993
-196.016
-164.257
-150.542
-50.2511
211.42
288.339
238.489
180.579
190.395
104.185
-115.072
-237.808
-234.554
-130.315
40.4862
60.8611
-58.2033
-97.1976
-15.0869
74.1079
55.761
-31.7712
26.5499
67.9359
36.9522
-3.82961
-41.184
7.22259
25.539
41.2047
146.747
234.743
199.686
21.7451
-199.823
-249.087
-216.301
-193.817
-188.659
-134.147
-2.42454
118.754
133.099
50.8482
-8.34443
61.9161
70.695
-18.8158
-55.2508
-11.075
29.4787
46.9511
56.6183
13.556
-25.2308
8.44056
73.4825
29.0281
21.1389
58.2753
56.3848
57.4356
45.8839
11.4242
28.8674
-12.9234
-14.9391
3.8057
-38.5454
-64.9614
-125.292
-214.11
-257.435
-214.935
-108.659
70.4572
158.378
136.61
131.282
77.5944
-6.19964
-81.7054
-82.4488
44.1743
58.0722
31.6491
81.132
25.6923
-30.9104
2.96156
72.133
99.5079
89.9971
86.7638
-27.1219
-112.674
-130.656
0.524849
55.4084
42.5078
64.0748
97.6492
58.6495
-65.9943
-156.129
-147.038
-134.93
-42.9002
24.3391
51.9734
141.745
211.401
162.725
66.2457
29.7727
-17.1949
-57.7259
-65.9296
-31.429
34.2013
34.2442
29.2165
-47.9597
-168.176
-260.132
-291.963
-276.849
-163.663
74.6128
196.432
135.474
42.3991
-0.955479
26.0654
148.825
173.9
104.1
46.5423
24.0358
-26.1892
-42.5721
-39.9854
-42.5884
-8.97362
65.4585
103.849
126.309
40.1007
-97.1662
-176.669
-200.711
-89.1901
10.0298
9.94738
-50.4618
-18.5151
107.479
198.403
203.154
95.4839
-55.8143
-160.155
-104.65
-115.161
-186.733
-127.103
-56.895
-19.2361
-67.1395
-53.78
-20.001
26.685
142.909
223.063
257.124
249.906
185.922
57.2249
-46.6398
-3.17585
88.0857
86.894
50.1296
156.861
291.004
193.595
-21.5092
-272.612
-432.383
-376.314
-133.394
-36.0808
92.8438
152.048
43.6861
-32.1424
-113.406
-202.299
-219.828
-193.554
-170.795
-124.957
-85.7584
-129.091
-165.148
-106.457
-2.36159
166.907
302.069
305.34
258.528
98.7412
-142.218
-218.179
-108.846
-36.0273
16.779
81.8183
134.351
156.588
135.899
157.258
224.507
292.55
259.6
164.766
56.5874
-0.796477
-7.48209
-62.1913
-180.631
-147.071
-163.107
-158.039
-180.741
-242.11
-212.496
-104.499
-24.4691
6.9316
55.4973
76.2233
85.5947
48.6806
40.0826
22.0335
-11.9256
-25.6415
-54.1395
-21.6253
-4.96867
49.1647
104.902
129.6
126.889
61.7064
-42.4155
-150.174
-205.079
-157.647
-113.899
-10.6343
31.3493
29.8465
38.6364
47.9021
54.2457
63.6708
11.3332
-40.42
-82.3227
-167.191
-53.3427
87.5784
229
351.951
318.954
199.421
92.3669
-39.9421
-105.747
-159.414
-207.208
-203.41
-167.282
-99.2017
24.1841
136.404
240.276
247.484
159.026
52.4054
-123.275
-293.248
-378.039
-334.164
-217.692
-99.0742
11.3316
53.2651
61.6109
81.2226
86.3841
67.342
38.8445
-1.53405
-33.9267
11.7792
61.8825
56.0119
120.74
232.439
282.433
226.207
86.0577
-72.7396
-126.757
-157.484
-157.492
-142.466
-99.3608
-28.8984
31.0792
44.9537
77.4825
106.638
111.147
68.5122
-7.6589
-91.708
-127.811
-115.769
-90.3589
-106.727
-167.718
-192.646
-178.725
-54.7559
65.336
127.84
206.995
283.513
259.095
185.723
171.737
114.942
31.9844
-53.9804
-188.66
-282.355
-152.229
-45.8538
-91.4243
-85.1437
-16.2139
2.99709
-46.2566
-44.3909
26.2175
96.4791
78.2088
89.7782
151.639
153.684
47.5234
10.1597
12.534
-21.1116
-51.3421
-32.2809
-79.4442
-154.131
-134.316
-54.19
-3.76854
5.85255
56.2948
98.5076
90.9971
118.639
102.407
-78.4318
-152.884
-106.573
-150.045
-188.845
-133.039
41.4964
208.063
250.395
164.612
116.773
21.1183
-121.812
-163.854
-63.776
95.714
124.737
33.8088
-45.0675
-45.359
-1.18438
-61.6344
-107.461
-88.3421
-31.3069
-65.6972
-111.555
-60.6388
16.3366
61.8743
40.9481
65.1649
182.055
271.911
352.163
283.224
39.1349
-128.162
-220.098
-222.816
-197.076
-142.792
-65.3282
42.7568
103.633
60.6126
11.7869
-3.72922
-14.9312
-14.3756
19.279
6.47247
-85.5673
-135.763
-169.317
-122.103
8.05303
44.1445
39.6589
8.32829
-37.1155
-92.6195
-27.8782
68.4511
132.918
191.636
150.812
51.671
1.17465
-56.1965
-86.3108
-68.7096
18.5141
106.487
73.493
11.238
55.722
141.795
149.236
108.93
35.736
-40.6867
-160.153
-244.226
-282.932
-161.08
-7.25009
43.2233
32.0671
53.0623
97.858
101.04
58.3395
43.5663
26.6483
-31.764
-61.7345
-50.0689
-41.2829
-104.846
-124.36
-93.4448
-60.1974
-72.4974
-39.2268
-15.4515
40.9384
99.1428
73.5793
76.7705
51.994
50.74
76.3943
69.689
126.23
174.561
77.3958
-24.7574
3.55331
157.462
199.224
148.588
122.776
51.4789
-120.128
-268.993
-355.758
-453.558
-397.188
-258.832
-103.278
33.0898
52.7731
65.3931
14.5241
20.4461
135.088
184.413
86.4279
-63.821
-67.9639
44.2538
48.908
76.2395
189.214
206.261
173.905
215.332
241.744
210.113
138.829
48.0007
14.9213
-72.3286
-200.058
-310.595
-361.517
-320.418
-208.428
-121.564
-90.9164
-74.2133
-51.4719
-30.303
-1.93316
58.3949
58.5655
97.7186
107.65
111.587
150.569
174.224
178.257
101.347
8.72271
-97.7257
-137.458
-137.409
-86.9566
-33.1636
26.2951
89.6766
163.175
228.37
112.138
-41.1614
-100.034
-87.6951
-47.8472
-65.4695
-149.235
-173.49
-161.698
-90.1456
35.5123
128.74
204.99
167.206
37.3788
-65.9064
-162.457
-282.972
-339.163
-293.635
-144.443
-74.9984
-2.88891
200.284
346.413
377.838
383.758
346.563
262.237
174.832
80.9757
53.7403
-10.8112
-81.9093
-87.4838
-65.2461
-24.2758
13.993
5.76372
-48.1896
-69.7577
-34.9217
-40.0663
-142.674
-214
-240.631
-273.237
-279.461
-231.049
-148.787
-69.5989
-36.3678
0.952489
61.2778
102.214
122.523
149.4
170.055
165.506
137.719
130.41
142.8
172.107
120.414
5.53279
-84.7825
-83.9541
-39.9141
20.51
3.67705
-47.3466
3.14292
128.462
147.544
33.6705
-52.721
-140.505
-228.462
-162.366
-18.6756
11.036
27.3716
0.916687
-26.2302
-2.1091
-151.77
-205.546
-61.2757
6.54669
-82.5475
-35.2169
39.429
37.0519
69.3446
171.447
220.253
221.544
164.909
39.287
-74.9325
-132.999
-158.749
-71.0865
118.177
227.516
392.288
406.235
161.677
-50.5025
-41.9604
-46.5733
-82.0788
-158.011
-248.909
-270.746
-282.617
-217.343
-103.213
-37.2415
-78.9797
-85.4036
-62.9794
-40.0008
-87.6937
-175.907
-154.701
-77.3276
9.31471
83.3617
158.193
123.695
67.1352
61.4816
84.3664
104.993
107.682
95.2974
186.603
197.028
175.911
176.099
152.147
108.871
86.8567
18.8536
-39.3854
-80.2806
-109.33
-102.114
-113.228
-96.1139
-84.4837
-64.5771
-57.2552
-20.1492
24.6263
-67.4182
-165.959
-165.818
-122.278
-32.737
62.5872
63.9762
85.5896
124.403
99.4161
41.6822
10.2823
73.2918
106.289
1.92456
-123.02
-273.291
-275.296
-247.914
-161.234
47.6371
234.893
343.742
228.533
95.3548
-22.5433
-165.885
-269.178
-233.277
-139.062
-57.7766
24.5855
92.1564
282.416
341.256
270.399
220.784
173.469
131.447
78.6531
-5.99872
-114.286
-147.763
-88.5662
-60.8576
-36.9604
7.3262
-35.9329
-65.4006
-79.5057
-71.5001
-55.4567
-123.754
-218.489
-153.32
-61.1983
42.0438
17.8698
-16.9262
0.053974
25.3359
1.50672
-72.875
-50.4957
-53.3519
-36.1446
70.6972
173.097
193.124
165.465
115.544
70.1806
-22.1058
-90.6891
-84.5777
-18.6408
2.34303
56.5507
83.2974
59.9891
11.6304
19.6521
-13.9037
6.1372
27.7709
29.1395
14.0813
-30.8331
-87.7987
-86.5856
-65.6969
-48.8764
-24.8475
44.2679
84.7819
49.0922
24.0209
46.4666
57.7971
31.7983
30.2686
-65.5093
-215.176
-330.011
-263.942
-102.939
-76.2665
-36.0391
23.668
70.8252
122.044
137.072
118.155
65.7673
63.5069
100.988
161.883
156.554
106.186
29.7015
82.2643
145.518
102.68
42.1198
-33.7031
-91.3936
-75.1155
-141.792
-57.1151
19.4631
-37.0711
-45.6248
-23.2408
-82.1243
-123.207
-144.919
-156.974
-138.516
-122.529
-86.7895
-141.989
-116.424
57.3417
175.133
217.81
207.142
156.898
127.202
59.0113
11.4317
31.0152
-37.6483
-73.9872
-19.053
37.7751
-41.9172
-89.6264
-78.8285
-29.0791
-1.12024
-30.1335
-47.542
20.2911
80.9746
69.6747
46.5878
70.6367
131.3
101.192
40.9792
1.56262
-8.67678
-63.4499
-170.992
-218.248
-135.743
-62.2825
-18.4229
-3.2328
31.3141
38.9772
-3.67765
-2.63526
79.0578
225.091
347.421
277.617
122.58
-51.3991
-207.394
-320.628
-356.663
-270.06
-165.35
-32.3869
217.625
285.045
202.448
207.194
161.096
88.247
89.299
70.6299
-23.8435
-169.587
-273.15
-271.587
-267.419
-223.669
-62.1377
69.5898
63.4991
42.5094
71.5916
46.1291
-15.0114
3.85331
60.2656
89.6447
49.6258
25.2277
2.06174
-5.68498
40.703
66.0692
15.7722
-16.5258
-1.99588
-13.4754
-59.3468
-78.9614
3.30088
97.652
149.278
120.648
115.233
69.0365
36.1918
-63.7475
-111.169
-92.1863
-98.1553
-105.789
-72.4309
-56.5471
-36.4709
26.299
110.923
236.485
184.309
75.8124
5.17444
-92.4297
-108.311
-64.0715
-111.221
-47.3753
3.35053
-36.3339
-60.0293
-120.085
-148.127
-160.733
-117.495
-35.3027
25.0067
4.27463
24.2933
85.872
150.478
210.439
235.054
214.77
128.154
77.5354
-7.18141
-75.1817
-98.03
-198.141
-274.126
-203.779
32.2903
62.5193
17.1167
13.219
56.0169
171.731
189.394
117.857
78.5028
14.8945
-31.8164
-8.01201
-41.7819
-196.489
-273.559
-205.353
-73.1708
93.9967
182.694
154.224
14.0806
-89.6193
-168.241
-120.89
-2.94186
72.3448
74.0926
73.6764
16.7214
-6.54289
-29.3891
-106.425
-129.537
1.89596
175.095
186.032
92.6014
49.1784
49.5814
67.2843
70.2863
158.897
200.262
144.387
3.68092
-199.766
-301.131
-268.022
-157.704
-82.515
54.1701
191.713
194.665
99.5908
4.65282
-86.0855
-134.343
-66.2992
89.1137
174.432
44.4583
-76.8025
-136.89
-220.898
-241.181
-131.717
-24.8487
-6.05421
10.3128
75.5832
97.8774
53.6268
44.2941
49.5772
-5.41255
-42.2324
-25.8206
-119.909
-131.092
-75.2429
-19.7931
-27.1469
32.5015
133.118
144.571
77.9386
92.0933
94.113
93.008
111.241
87.2545
40
-25.0604
-17.7851
47.0018
57.3156
0.700141
4.91916
-1.47172
-49.8108
-64.0575
4.37803
58.8261
45.9617
71.7072
79.022
71.7844
39.6298
-38.8593
-154.78
-242.528
-164.751
-110.313
-132.825
-60.4671
17.938
44.7045
41.6015
-8.42605
-73.3601
-83.0542
-23.5695
9.16756
-3.19035
-53.5578
-65.8232
-78.8995
-49.1222
-29.4846
-8.23171
81.7712
146.283
193.773
171.729
54.5893
45.2288
138.88
88.3756
-45.9046
-53.3596
-12.2912
-50.0302
-113.818
-150.8
-143.433
-103.22
-32.814
47.2577
158.777
191.704
225.905
214.513
155.287
77.0596
-28.5846
-110.005
-173.651
-153.366
-93.7507
-42.0962
5.32465
53.3318
54.0977
74.2086
53.744
43.637
-1.96475
-60.3862
-102.988
-57.4725
-66.8563
-185.198
-263.444
-185.376
-59.4882
-1.963
69.615
157.218
169.798
101.099
62.7582
76.8346
114.535
83.0217
40.9498
34.8641
12.7017
-41.0604
-47.8165
-38.115
-58.6878
-76.5109
-23.9004
57.7235
57.4892
12.0207
-9.46454
-38.1238
-32.802
-58.0378
-98.3144
-157.465
-167.734
-73.0682
-8.33361
-41.4921
19.6481
202.707
325.012
310.099
216.079
127.244
59.1829
-80.554
-247.453
-369.532
-336.084
-284.895
-248.644
-128.309
-24.0851
155.859
303.16
339.903
348.866
391.522
253.13
1.45251
-116.682
-120.72
-85.4464
-6.27129
10.3692
-42.1651
-53.3147
-0.147018
-0.830439
-6.58371
28.4818
83.0554
93.0785
-40.1458
-213.033
-271.031
-264.813
-243.503
-126.542
38.1324
80.461
16.232
-68.2154
-88.9237
-13.4135
19.035
47.1099
82.7368
88.1803
111.954
131.902
78.6212
50.465
64.1727
54.6419
27.377
61.611
141.401
108.913
41.8273
-41.3514
-157.614
-199.304
-167.589
-131.709
-59.069
53.6528
93.4257
53.7439
50.6579
51.3839
93.3768
143.068
137.159
99.0109
40.7462
-66.2121
-195.303
-281.431
-381.869
-370.433
-192.938
45.1292
178.064
248.799
341.389
303.857
220.474
141.791
97.5965
83.7653
1.01359
-109.739
-146.749
-129.019
-168.211
-156.758
-58.0933
36.5
123.679
162.578
100.101
53.0093
76.3429
-59.0709
-191.886
-171.284
-82.9302
-97.3211
-100.939
-84.079
-57.9771
-35.7563
-93.765
-124.617
-86.7804
-80.4077
-84.4747
-20.5765
28.1398
75.4487
179.978
155.085
110.069
193.506
204.071
165.567
131.425
93.8694
9.82214
-49.5135
-54.9609
-61.4452
-21.3444
52.1541
127.128
109.754
38.9761
36.8281
-11.582
-76.613
-79.0025
-17.245
-72.7732
-117.73
-113.766
-156.735
-228.693
-174.804
-57.7857
-19.7398
42.0462
53.5989
130.307
160.577
45.0098
7.45996
30.7148
-10.086
-19.0498
-9.35062
-8.14922
-60.7266
-132.152
-105.945
-10.4553
72.3667
115.829
171.979
237.39
206.538
79.0549
-15.0097
-118.572
-276.665
-244.32
-175.026
-148.444
-59.9682
42.0378
42.1134
104.852
98.6704
71.7179
122.811
157.262
153.522
113.478
42.5636
-25.3747
-107.435
-137.517
-125.198
-95.891
-2.49413
61.5972
112.231
84.4646
29.9728
5.65618
17.4634
-21.9875
-13.894
45.6799
-9.23639
-98.6398
-175.292
-166.237
-114.818
-93.7033
-42.5533
-7.51513
31.2282
75.7121
122.458
120.43
92.5557
56.7213
-18.4717
-52.9084
33.0041
79.0977
7.8026
-6.64447
35.641
101.238
177.251
119.911
-4.23967
-151.395
-195.859
-124.492
-141.196
-134.367
-32.8106
60.4627
35.8503
32.0502
34.8266
64.4308
55.6696
6.78679
-12.7327
-41.5649
-107.055
-148.607
-78.0326
80.672
178.98
213.184
203.259
57.5601
-0.21267
-78.4156
-155.024
-89.9514
87.1582
68.1385
34.9411
40.4701
-33.539
-114.103
-40.5606
-14.1372
-30.542
-75.8848
-134.591
-174.496
-186.376
-132.203
-44.2313
24.7139
95.6195
103.404
106.558
107.516
39.4358
65.0776
98.1062
10.9128
78.5369
215.797
154.735
75.1046
15.0943
5.85057
-44.3987
-139.054
-186.163
-132.776
-36.0502
25.7515
89.5556
125.407
104.174
-5.30397
-104.7
-103.068
-86.5881
-31.2448
-44.6928
-109.223
-86.8318
5.89142
113.534
193.265
193.943
149.252
72.5161
-10.1228
-101.453
-156.315
-183.161
-139.309
-59.0319
-3.95493
10.5573
10.1962
-4.12141
-69.1224
-93.6888
9.07255
136.332
155.806
142.706
23.5395
-150.744
-195.208
-135.69
-84.5012
62.4651
277.474
361.268
199.285
23.3307
-81.8403
-122.195
-116.054
-81.002
-44.6846
-17.6844
31.6918
-7.83493
-163.565
-288.288
-286.449
-37.8676
204.893
229.631
157.498
109.232
41.6156
3.49486
-28.0439
-194.867
-130.171
133.961
308.385
256.995
191.819
98.6013
-93.3424
-207.827
-146.174
-21.5712
149.292
166.523
106.491
53.8964
-16.5753
-159.25
-243.751
-297.964
-190.829
27.4371
67.3861
-24.2007
-154.031
-151.192
-84.0665
-1.91263
47.0214
99.2364
183.253
182.273
139.715
98.7964
-0.492918
-45.1134
27.2827
38.0238
-36.6309
-71.0021
-26.1104
49.2529
45.7969
-17.7294
-69.0318
-44.0033
11.7764
6.00164
-40.4852
-65.1365
-79.6879
-38.5794
-11.5979
-34.7073
-16.6715
26.2497
-2.73651
-56.3642
-91.3459
-76.4496
-16.9664
63.1622
92.9917
69.8269
75.3507
110.621
97.4092
61.8336
80.0546
85.7362
71.3138
2.08956
-159.772
-249.43
-250.64
-116.44
103.032
354.947
369.792
399.819
351.205
96.4748
-144.546
-155.909
-147.741
-248.097
-379.356
-452.349
-351.008
-198.21
-40.1068
73.9112
169.148
183.664
192.114
183.206
113.776
-25.0802
-53.4473
-65.5788
-107.161
-123.111
-9.64916
63.103
56.506
117.171
180.393
202.326
134.894
42.7883
-4.19568
-61.6483
-104.235
-135.228
-123.768
-109.96
-87.2352
-97.6003
-33.7714
25.2386
121.31
195.911
116.912
-4.84271
59.0505
102.324
50.5835
49.1942
-69.3993
-152.927
-192.893
-203.934
-176.2
-67.3617
37.0945
-11.671
-63.5187
27.8378
46.4205
-3.47145
-10.5921
-1.44687
-7.01367
-13.4657
26.0581
48.9431
64.1366
75.4853
174.594
238.917
199.042
135.518
121.004
102.861
61.8425
73.3402
28.2026
-59.9016
-35.649
2.82602
-99.9622
-121.917
-120.819
-175.708
-306.54
-333.703
-266.194
-162.886
-59.4162
109.475
198.922
199.963
146.405
111.071
71.32
18.3414
-44.3225
-118.886
-119.734
-58.9381
38.0508
73.697
85.3833
101.01
112.603
97.8169
91.6424
26.2461
-113.97
-225.757
-153.877
-37.2392
-4.68412
-6.32615
-10.0207
88.2051
136.484
109.872
69.2868
-86.3368
-224.752
-221.893
-122.35
-38.5372
26.8942
144.629
224.389
246.085
299.249
307.874
168.443
-11.1077
-92.1546
-153.645
-169.671
-196.646
-150.346
-102.03
-150.161
-86.0548
115.542
159.148
78.7998
16.5906
-20.0582
-32.4318
-51.3727
-73.9679
-81.5035
-110.505
-109.371
-48.0516
28.8033
93.9482
78.0282
11.104
-36.5355
-60.5373
-87.8317
13.4491
88.7545
77.8303
64.4055
89.7567
63.596
11.6736
10.2828
0.928508
-5.79547
-24.9784
-21.6476
6.4481
22.2896
20.6412
51.3464
53.8681
40.2314
20.3635
19.3564
-82.7345
-169.177
-136.369
-38.1543
123.876
226.577
160.613
99.3342
99.4988
-39.2592
-223.336
-248.072
-59.6511
-28.0783
-45.5869
-18.3803
1.15448
-37.0181
-20.2375
14.362
18.6212
13.7747
28.4407
24.0002
14.3321
-46.4023
-31.5676
10.1316
30.3626
122.974
185.923
114.213
-28.9726
42.3545
199.978
124.86
-72.4579
-259.256
-312.785
-272.615
-155.694
-80.175
-67.9367
-65.9122
-89.4854
-56.4434
-3.98713
7.22654
4.64611
96.3894
181.213
151.417
133.68
107.186
-46.468
-136.487
-38.3056
129.796
258.754
433.118
507.993
408.654
256.862
91.4953
-114.98
-251.79
-278.623
-266.676
-205.385
-106.734
-46.2609
-16.7935
-85.2458
-156.351
-157.715
-111.571
-102.938
-64.4561
-49.7185
-158.235
-290.782
-283.893
-209.642
-92.981
30.4512
177.967
197.583
172.254
214.022
222.224
42.0518
-58.7922
-63.7895
-83.8167
-78.0936
-1.51727
141.461
233.933
235.508
195.909
182.862
149.984
102.9
-17.0948
-108.057
-160.322
-177.579
-146.326
-155.463
-175.759
-59.4914
65.0754
130.599
164.77
186.009
172.033
101.266
18.1108
6.57256
-87.5205
-273.452
-346.769
-243.839
-32.904
81.9804
154.543
144.259
67.767
-61.5259
-168.268
-85.3023
12.6446
9.16963
45.4064
86.0022
85.5642
109.452
94.9321
27.2209
28.4697
124.163
177.549
78.5392
-32.5717
-49.3213
-91.0929
-80.3686
-37.4697
-9.29817
-81.8394
-118.461
-54.6188
-6.78653
56.6624
85.899
40.671
-101.562
-202.402
-235.893
-147.018
-92.7523
-39.4837
15.2639
0.822519
-14.3532
-2.45443
23.0408
74.9391
96.8184
123.793
140.283
156.771
257.512
218.132
-46.9753
-158.946
-128.108
-90.536
-23.2542
-9.65215
1.69633
-7.14057
-10.8412
-10.7911
-1.61809
25.3125
16.4616
-63.9191
-10.8452
38.0599
16.3354
-12.7979
-44.8941
-121.396
-63.2272
17.0901
49.9482
29.2808
41.0902
28.6637
-14.7525
-40.7428
4.07206
120.989
186.981
198.631
219.726
216.744
89.631
-57.841
-217.762
-318.242
-284.859
-212.943
-171.28
-80.7463
37.3959
123.05
107.35
78.2486
38.2179
12.7354
-10.5284
-41.3635
-61.0572
-95.1971
-121.215
-41.0969
19.4716
81.2095
197.283
172.588
104.145
64.6879
53.7281
-0.178876
-51.6913
-27.1068
-42.3075
-72.2174
-36.1076
-51.9646
-69.2144
-48.212
-18.1693
-28.7011
-77.5091
-121.024
-141.578
-83.7356
102.785
290.799
227.453
99.3947
107.726
18.4993
-87.8543
-90.5466
-34.0055
-9.11532
-35.3867
19.6431
125.931
101.015
-4.08785
-76.0546
-123.358
-104.625
-43.1073
21.3219
2.67444
-70.0773
-63.4378
58.2523
61.5671
-10.4802
-97.7729
-125.119
-118.597
-1.41693
47.6569
50.6299
73.9929
171.09
202.975
152.732
154.955
131.779
37.9717
-58.3659
-183.573
-238.03
-137.329
-27.6051
67.5055
216.444
274.823
146.758
11.2801
-102.302
-124.345
-147.889
-202.678
-215.406
-200.092
-105.835
-30.9084
-8.23673
40.5211
70.8113
60.4065
62.4256
-6.09899
-46.046
-5.14306
52.933
124.195
161.273
160.525
84.3088
-25.8948
-91.2944
-139.238
-208.974
-186.675
-147.709
-114.954
-39.7745
42.4972
104.784
162.426
184.594
140.499
91.6391
77.1313
38.4849
33.2205
34.6931
44.2784
147.932
183.014
145.578
63.9084
-69.1374
-142.196
-153.66
-162.506
-150.884
-92.715
-106.18
-117.534
-98.8708
-70.3191
22.4537
138.989
167.438
85.1374
-11.7349
-91.7274
-125.318
-103.622
-133.677
-133.8
-15.528
127.979
209.057
155.432
76.3941
49.3306
112.834
145.102
84.643
0.459266
-23.4549
-78.43
-96.3473
-69.9277
-61.7731
-94.47
-101.81
-141.566
-146.922
-86.8716
48.125
82.3312
36.2332
26.8368
5.74058
59.9429
45.4727
-36.0299
-56.152
41.5826
-21.9319
-103.498
-116.539
-42.682
85.0595
166.802
161.091
211.473
287.83
274.658
105.586
-26.3932
-21.0622
29.3714
47.1667
