-4.32131
-20.8712
-6.52497
18.5238
-11.4589
-32.8648
-34.7135
-29.6704
-7.04376
12.067
-54.8493
-2.93456
55.5176
56.2709
24.6552
-3.85595
-2.35753
-1.36772
-36.6777
-65.8598
7.74433
68.3791
35.2185
3.45254
-5.00648
21.3798
28.2907
10.1058
-35.1826
-45.6165
53.8352
11.5832
-19.6438
-17.7671
-18.3399
-30.987
-43.2774
-52.5448
17.1463
42.6847
14.873
-2.71551
-11.5149
-8.06637
-27.5831
-31.4937
45.7299
56.6993
51.8146
37.9003
-9.21334
-20.7211
-37.0239
-46.2118
6.61276
36.9524
18.2872
20.2563
1.38854
13.0608
12.3644
-5.63426
-56.0276
-33.7756
59.3585
49.6594
-12.0007
-28.3981
-6.08717
8.76838
-33.7901
-63.4674
37.7798
48.0983
1.72089
-19.1107
-5.97701
-3.67422
-36.4517
-29.8201
21.6521
7.34693
18.658
2.9144
-20.0665
6.80345
-48.3046
-33.2982
24.4889
24.528
33.2912
35.6376
-12.4105
5.43219
-21.3428
-56.3489
-19.0489
56.0618
55.6881
31.5729
-16.0585
-8.48131
8.49383
10.1613
-37.7349
-8.39766
56.6801
20.1725
-11.6721
-7.33232
-0.377966
2.124
-21.4029
-41.8556
-43.9497
33.5804
37.3454
-6.09993
-8.82447
-7.05807
-14.6066
3.2438
-23.5382
-4.6956
33.5808
11.922
-19.8021
-3.01555
0.963275
-15.263
-67.4315
9.69324
38.2229
44.5566
41.8924
1.23662
-14.0162
-26.7955
-40.9826
-24.6661
8.70607
-5.01886
34.8995
32.6707
11.2488
-1.28036
-33.1939
9.15198
20.6625
17.2767
33.4134
-5.68336
-29.2758
-35.119
-59.4957
-11.7394
52.5812
35.3237
36.3819
26.4096
2.95304
3.76491
-0.613331
-52.2718
-47.6848
33.5978
29.1231
-6.30253
-18.4417
4.58732
27.4749
-3.66
-36.9603
9.02061
27.2469
-12.7615
-49.7537
-39.5633
-20.3053
-41.726
-42.7716
27.3616
48.9014
48.6355
34.3346
-0.0812723
11.4269
2.09887
-14.8096
-40.4558
35.318
29.9171
16.2748
-2.12857
6.8442
-4.13663
-34.2136
-26.6777
21.9622
38.4018
25.5114
-8.7665
-13.4511
-2.95277
-12.3892
-49.9152
-7.06729
21.3575
24.3396
35.2876
-5.76433
-13.5287
-6.71423
-26.493
-44.557
0.424596
15.183
37.3393
18.654
6.44533
-8.90399
-46.5238
-48.8698
22.614
24.3223
26.6245
11.8355
-8.59038
-7.73832
-34.3196
-13.5317
22.1064
17.8895
25.6314
40.6367
1.24545
-11.5113
-44.006
-4.81625
15.9994
15.7854
21.0286
26.1125
-1.30534
-30.6997
-74.8268
19.0673
32.2712
17.5778
26.6956
-3.83566
-14.7704
-16.7782
-64.0094
-22.7768
29.2366
22.0738
18.2286
-29.0072
-26.8205
-18.5622
-10.6831
-20.5605
-14.4798
58.3198
69.3048
2.81053
-9.06595
-3.33985
8.8707
-6.45828
-68.4642
-81.1318
42.5704
98.7838
25.7701
12.3259
12.3564
-4.05773
2.27313
8.6133
-19.8096
-13.9459
32.415
7.03382
19.455
-6.78067
-16.2808
-9.0546
-39.2581
-10.5698
46.5937
44.4211
-4.87074
-47.333
-47.1269
-42.6454
-54.0136
-2.93013
8.22933
4.33319
26.5851
33.6549
-1.8936
-27.6084
-49.7736
14.7087
59.2863
29.4151
36.5259
9.57948
-4.14292
13.8609
-15.1961
-51.5929
11.038
18.8528
32.7753
7.17265
-4.84542
-3.77773
-2.21931
-6.96546
9.72222
19.1149
35.1014
-11.1515
-49.3537
-31.267
-35.3701
-3.10643
26.8738
9.15475
-0.102785
12.3583
-15.4767
-18.4756
-45.3919
-16.7695
16.178
20.4486
28.8879
27.9278
-3.11318
-9.7529
-25.755
-5.13734
8.41989
29.4207
39.9379
13.9113
-13.7146
-10.3776
-0.453019
-15.3506
-66.9275
-2.82686
33.8931
10.6306
1.06009
2.02571
-0.675505
2.52274
-28.1033
-60.286
64.9131
57.9624
14.4166
-1.086
9.57511
-1.48258
-8.36647
-20.9726
-21.7518
28.7997
21.1185
-12.8018
-0.766599
-11.149
-35.7296
-79.3386
8.1686
30.5031
24.1379
51.114
0.239209
-32.3358
-38.9766
-52.0741
24.03
23.166
14.2168
22.3995
22.5366
-1.63416
-12.6932
-35.4247
27.21
30.7039
7.41493
28.0874
-16.5544
-23.3945
-26.4862
-25.8503
-9.48796
31.912
27.5465
30.3069
1.47614
1.55475
0.437136
1.82737
-20.5376
-33.4857
8.24757
15.121
-6.67354
-8.58716
-2.79061
15.9494
2.81326
-38.0823
12.3405
54.1583
12.0662
-22.1433
-12.0647
-0.812249
-22.96
-52.7005
-16.6236
20.3443
33.3906
27.7964
18.8974
11.4589
-19.1296
-36.9388
-52.1537
-0.584021
26.1158
38.4598
9.97366
-1.53359
1.45074
-16.3119
-49.8822
8.13197
12.4254
24.6735
12.6994
0.771375
5.95006
-20.2856
-32.9524
46.1026
25.8036
12.2465
26.7705
-2.37678
-26.936
-5.89161
-17.8099
-53.2252
14.2755
39.009
37.4652
-7.08915
-10.5045
8.03252
1.5647
-35.8628
-12.9148
33.3619
22.5869
-23.2437
-17.5309
-10.3797
-9.17612
-26.6198
2.79147
5.21947
9.90334
29.593
-9.12588
-21.3659
-14.2046
-12.4011
21.7477
13.9075
2.17664
16.3342
6.71381
-12.4699
-46.4883
-41.312
31.6189
34.6537
33.1414
36.5956
2.02895
3.05545
-18.0345
-30.3523
15.5915
12.4049
14.1298
0.107619
-19.4564
-15.2217
-13.2555
-9.55918
-36.6869
2.5632
43.5266
21.4877
-17.6073
-23.0037
-20.1172
-14.9804
-37.8899
-46.6449
25.2078
101.15
33.0541
10.2219
20.5171
16.1253
2.07569
-16.7454
-50.4938
14.4361
43.7061
2.93803
7.01518
-5.10469
-21.5255
-15.9638
-32.7335
10.386
32.6078
30.2434
2.40193
-34.1689
-36.4533
-42.4152
-70.4897
29.456
36.7347
26.477
41.7172
4.08202
-14.1863
-36.2463
-58.3099
-29.5063
34.8917
25.6498
42.8759
21.6346
11.8679
12.7067
8.19569
-34.7602
-46.4514
29.8927
64.2902
4.39725
-9.26824
-10.0163
-12.673
-28.5893
-42.3046
33.16
46.2533
20.6848
-25.1131
-20.9111
-8.01795
-41.5049
-16.902
17.226
12.9811
24.1696
20.2513
-8.33213
-2.50382
-50.8206
-10.1104
19.6622
23.8064
16.1574
20.5957
-13.0712
-21.7278
-53.8031
-36.1382
37.5202
43.1528
33.0085
16.8229
5.65693
5.82102
12.629
7.78962
-51.9185
22.4915
27.8506
-8.46334
-27.7514
-22.044
-17.0315
-1.2435
-15.9909
-58.1448
18.4563
51.6371
6.08358
-7.43179
7.83697
2.07611
-11.6159
-10.8451
-28.1299
17.3578
54.3049
4.45712
0.319936
-4.14024
1.2859
-2.5717
-28.6664
-8.10395
34.945
61.3848
14.9977
-36.2916
-31.8459
-17.2715
-35.0979
-11.8711
27.533
10.5343
17.3694
-4.56738
-5.06546
-10.8038
-38.3395
6.55305
29.0559
20.3164
24.6249
13.4707
-7.40072
3.3365
-46.3964
-27.5992
10.5615
-2.89685
13.8179
11.9202
-14.579
-15.6648
-3.70186
-44.1386
-27.5495
53.9704
67.0686
25.9131
4.07306
5.40019
21.9928
-0.664416
-46.4138
15.6616
40.9722
3.10463
-23.9058
-10.824
-11.0065
-59.1181
-82.5698
23.5521
54.0052
39.8924
22.7914
-21.5274
-14.0871
-12.5433
-15.7411
-31.5489
5.09438
19.642
22.4966
0.0785261
2.2465
-5.48143
-20.0711
-45.4644
11.2747
45.5973
49.4151
1.27629
-7.42645
13.9851
-9.69258
-65.8958
-27.0345
19.0395
41.5703
23.8292
-6.73075
-15.2724
-10.9356
-5.54684
-11.1634
-48.1122
34.7544
55.6081
20.3627
13.4854
16.0103
-4.89865
-5.80141
-16.9743
25.4005
33.5803
-16.1152
-40.7209
-43.5022
-16.5518
-20.3397
-52.3224
-9.18668
44.6288
36.5443
47.0609
-2.07345
0.336063
-12.0638
-47.3103
24.8137
24.9318
10.3618
21.1169
8.69069
5.18528
-2.02684
-41.4552
-3.22832
9.20995
-3.74177
12.9353
-1.62062
-27.0745
-22.8706
-64.2734
-29.2226
38.4722
30.3223
47.8762
12.5147
-1.25679
-5.48477
-7.12771
-49.3109
-35.4126
51.1686
54.5968
17.5219
14.4357
16.8962
18.6397
-4.06593
-31.0146
-47.4396
-30.1532
35.6469
-3.72879
-3.70416
15.2277
-10.0746
-27.2399
-43.3826
-72.9383
16.7666
76.4741
30.2532
22.3053
10.7936
5.70964
-2.98656
-41.2594
25.9407
29.9554
40.3517
55.6007
-29.3988
-49.9068
-46.2229
-66.2952
-20.3924
17.757
32.7107
56.3232
22.5427
-14.8659
-37.529
-70.668
-34.64
45.475
67.9285
59.0077
-4.18413
-27.6844
-13.2802
4.31496
-42.4083
-12.7712
23.5003
32.3243
8.98985
-1.72395
3.16288
7.46531
-45.2817
-0.934756
21.1868
28.5526
8.23299
-33.4077
-37.3944
-20.662
-66.0862
-1.73823
45.9903
34.4159
27.0891
4.89196
-10.3316
-1.91143
-37.8304
-1.92948
11.8185
16.4016
31.6094
2.08074
-3.15464
13.0274
-21.3215
-33.1054
3.79632
17.7097
32.4344
-16.3318
-41.3082
-19.1395
-10.8727
-26.9436
-16.3074
48.3465
54.7577
23.2035
10.6276
15.4709
23.2989
-1.87319
-48.2477
-35.245
35.51
24.8729
-2.77278
6.52216
17.7038
8.03312
-8.48866
-48.0796
-4.68582
33.277
3.71652
-20.0253
-12.9607
-23.2894
-45.1774
-72.1712
31.1509
51.2688
46.974
36.932
-1.90993
-19.1179
-30.4885
-56.5905
-3.05489
29.9799
20.9417
34.9025
10.7795
-6.25903
-6.85746
-49.4654
-1.06013
11.0473
24.2564
45.3237
-14.9591
-34.0789
-17.786
-47.3415
-59.4298
40.1502
39.3912
52.3869
19.4533
-5.40366
-1.23646
5.67093
-22.8075
-35.313
28.3693
26.7195
-2.2149
-0.137335
14.2855
22.823
-27.9778
-38.9606
39.5824
48.3725
33.4014
-19.6136
-28.3979
-25.7693
-81.6261
-70.2084
11.991
30.7891
31.2806
23.414
-10.9003
1.47838
-0.715856
-1.02251
-22.052
20.551
46.3644
36.9592
-2.95312
4.63509
13.9181
-17.2087
-44.5938
15.0049
46.986
14.0718
-38.8994
-38.7529
-24.1762
-2.35928
-40.7256
-34.7669
-7.50965
32.3129
47.5678
25.5597
10.9537
7.00912
-6.78573
-9.8937
-35.7993
19.7169
34.3729
5.11369
3.91096
2.64713
-7.59247
-23.1107
-40.9738
20.2277
30.4765
28.7535
9.94464
-15.071
-7.44774
-48.7111
-31.3787
21.6847
11.7804
15.1752
28.7209
-7.5613
-4.48719
-35.7602
-32.1295
27.4265
14.154
20.8647
26.4124
-6.1102
-8.83992
-33.1164
-40.5479
8.11873
3.69579
17.2485
17.3115
5.00079
6.41783
0.517002
-41.7001
-6.32331
35.2929
66.7235
35.7837
-14.6423
-16.0166
-18.8324
-16.5982
-42.8528
-45.2596
42.1839
47.2937
-3.11869
3.29141
13.6202
-1.16141
-21.9466
-37.0891
-26.8153
60.3329
17.1991
-7.26951
-17.7186
-0.0914212
0.825402
-37.1969
-28.2459
42.6604
27.5784
21.26
-25.5209
-31.6106
-26.2848
-38.7571
-8.07537
31.5532
24.6392
40.0515
45.3717
11.4336
-18.8592
-70.7781
-25.5103
5.92996
-8.11382
22.8125
26.0741
-9.87529
-13.2412
-26.3883
-5.79086
42.5825
56.2869
43.1414
19.9265
-10.3531
-12.3694
-6.81064
-30.8164
-16.4557
28.3581
39.7502
6.58603
-10.9986
-9.72208
-5.74083
-56.5161
-50.3322
23.1548
29.6989
6.51451
-18.7386
-35.4652
-28.8422
-65.5831
-9.1392
57.7575
27.4093
32.8032
23.0558
-4.48908
0.338081
-51.1013
-16.3451
32.9567
31.4577
52.2956
17.7047
-11.7777
-3.28474
-32.0658
-21.5767
11.2932
19.3431
34.665
-0.310122
-36.3896
-27.3978
-16.5041
-52.2213
-46.887
33.1979
72.8823
21.3918
-9.35624
1.84646
6.79645
-3.39361
-46.6469
2.20254
52.1487
26.6156
-3.70753
1.43609
15.1416
0.88618
-36.8261
-50.7577
40.5626
53.0234
32.1371
-7.4838
-14.6264
-15.9493
-70.3435
-85.0638
17.2192
25.9747
23.9599
2.49635
-10.1507
-4.59551
-31.2694
-33.3428
44.251
34.1973
28.2069
40.5933
-6.07711
5.59157
-5.90096
-37.7571
17.0735
12.5722
21.7869
19.7679
-19.1651
-13.9802
-14.75
-60.9385
-40.0831
31.786
63.4718
52.0188
1.52784
-0.801969
-1.14576
3.90195
-31.1001
-25.8587
15.0046
7.48846
-22.8629
-14.0968
1.4925
14.0881
-39.0575
-37.6166
28.9576
52.0358
25.5034
-23.6174
-33.8895
-10.8467
-62.4534
-80.7757
35.1147
73.681
44.7328
26.2036
8.24495
14.588
1.49451
-10.6739
-45.0348
31.5943
37.4604
23.2713
-3.58614
6.88183
-2.62745
-28.1164
-47.7396
14.046
27.2465
31.5018
-21.3472
-29.5672
-17.1301
-19.3452
-50.594
-33.4695
-15.0959
77.3788
75.6409
8.23912
-11.3689
-14.16
-13.6362
-16.5443
-3.46272
29.2587
29.4906
-10.1266
-9.23191
-5.84623
-27.092
-63.1616
-5.90415
23.445
30.57
22.2277
11.2961
-19.5168
-17.3773
-69.1547
10.2661
61.8011
30.6573
35.16
20.3873
0.0631025
-6.37451
-53.7197
4.05856
47.3317
16.6022
22.4355
-4.2922
-16.7459
-0.0538266
-31.1577
-9.47633
-6.20515
10.7387
29.0644
-11.0617
-39.3589
-25.8684
-43.1466
-76.1752
-40.2142
63.4632
64.0355
34.6289
12.1702
6.28073
13.3771
4.07412
-41.7056
-41.6058
65.2724
35.1999
3.69634
17.2491
20.5941
1.21376
-8.46444
-33.0828
-43.8219
11.1805
-6.25227
-47.0907
-18.9281
-11.7152
-16.3234
-23.4266
-17.6097
44.8004
59.8443
52.5615
7.61512
-5.76372
-23.3498
-43.2435
0.605323
30.2718
3.51067
14.307
41.1476
18.6836
-4.34998
-52.4048
-19.003
38.9112
29.9896
24.1949
19.7902
-15.4527
-14.2543
-18.1891
-65.9858
-93.7292
-3.57672
52.5209
20.8028
0.223227
9.59974
15.4133
18.3681
-16.8183
-7.29826
41.2308
16.0188
-27.4566
-22.1883
-4.21397
6.42502
-39.9467
10.3836
28.8068
30.3047
43.8461
-3.56697
-15.938
-31.0298
-80.1955
-25.0477
35.8976
29.6656
40.8994
25.178
-12.6083
-22.621
-56.5808
-10.0193
6.51699
9.337
25.6452
8.09286
0.881411
2.64389
-8.51369
-24.2199
17.0067
24.853
39.9719
5.59637
-31.87
-17.3669
-6.58809
-39.713
-29.4445
55.8415
58.7449
20.0103
4.78578
-10.2153
-11.8293
-19.8675
-61.7188
-29.8943
73.6988
44.915
-9.34872
-4.45847
9.31693
-11.1403
-34.2563
-54.9589
-7.00434
36.3663
23.0646
-13.4269
-4.98993
-7.11154
-4.63216
-42.4334
-16.9585
49.2077
47.3265
35.7966
-10.2807
-15.9797
-20.4264
-39.0909
11.8173
33.1127
18.3976
28.6337
11.3332
3.60449
-7.11823
-78.6897
-19.9496
26.5174
14.3358
37.2089
22.901
-16.2788
11.3524
8.14117
-43.2435
-67.6186
-2.55379
57.5763
18.7525
0.401427
-0.728537
-5.8394
-28.7473
-40.6022
-30.1272
42.1511
25.0109
-9.13831
-0.131651
20.7266
21.0603
-16.1272
-52.1356
29.6003
30.9027
35.4443
-2.51213
-16.579
-20.2622
-48.4643
-76.0978
14.9371
50.2077
43.308
32.1091
15.2376
-5.28948
-13.8624
-26.8847
-68.742
10.5355
66.6414
70.5964
10.4352
7.57189
18.4417
-4.06248
-40.8577
-64.1475
-9.56104
51.038
2.01862
-18.9898
-11.7281
-7.24627
-8.11745
-15.7014
-31.2214
-16.497
58.3829
10.6129
-17.1237
7.91296
-12.7176
-7.65896
-18.3819
-56.7035
9.49124
70.047
33.5285
11.1452
-7.8428
-9.43425
-7.42766
-30.0135
18.3982
21.9243
20.4676
19.692
6.99957
-17.7993
-41.616
-37.6377
7.75844
5.99907
8.83558
29.9995
5.48095
-12.8507
-26.6087
-39.4807
17.1314
36.3343
25.8765
32.849
-3.96717
-0.675989
2.97648
-38.2868
-18.4067
46.7715
29.0489
27.9833
-11.1608
-25.806
-15.706
-1.92521
-34.7266
-70.0756
35.2322
41.1756
-1.78981
-24.8039
-13.291
9.1667
-25.4079
-61.252
-24.9444
48.3845
69.5636
14.9835
16.1377
15.8386
4.65885
19.526
-12.2264
-8.46607
39.1337
35.0164
-26.4592
-38.0158
-43.0859
-41.5552
-58.2297
0.219776
40.5531
48.0222
18.0789
1.70329
-27.4651
-54.0919
-63.8071
-2.31397
22.8157
25.3033
43.4313
37.0636
10.4427
16.0226
-20.2662
-30.5397
40.2547
41.0754
42.2442
7.29162
-12.0603
1.46387
13.1019
-3.53146
-46.9344
13.2443
21.7186
-10.7077
-23.3928
-17.0929
-4.98293
-22.404
-80.2424
-4.80134
45.3011
44.8129
-6.82257
-12.481
-3.39768
-22.5855
-56.7311
11.9825
15.8296
15.3274
27.3716
0.291559
11.726
-9.94503
-34.2329
27.2556
19.3463
15.3681
30.453
-5.00398
-26.1385
-38.6403
-32.8533
13.5945
31.8602
11.2013
19.7156
-11.7965
-7.47487
-19.4876
-46.3301
31.6722
33.9472
27.0221
25.6169
-15.4915
-2.79457
14.7297
13.8134
-23.1233
-21.1481
33.6851
8.13935
-21.2478
-25.0693
-11.4413
10.574
-3.30035
-28.7396
-29.0154
61.1645
20.1187
10.8278
10.0989
2.76183
-22.4374
-34.9261
-46.0462
17.4544
23.6592
5.01437
1.97829
1.34842
-13.9714
-37.9783
-33.2738
22.3775
19.3306
26.2357
37.5015
10.6695
-21.1488
-48.3855
-72.8768
34.7615
36.4416
31.6846
39.8443
18.2273
13.0821
-3.75165
-40.3503
11.257
16.2026
14.0945
9.72506
-21.2848
-18.1493
-6.23362
-3.07236
-36.9365
-1.6144
19.6043
35.6352
-11.0442
-13.2086
-5.91024
-22.9292
-67.9197
-6.51435
50.1114
39.2038
-7.29606
-8.37672
7.86799
-1.34353
-35.0538
7.12895
8.99913
16.5025
27.1602
-1.77413
9.24449
7.72655
-61.6754
-31.8194
44.5519
30.8333
39.3628
11.2364
-15.9628
-3.18353
-12.745
-41.383
-29.1622
43.1841
37.1961
-7.81818
-9.00061
-4.5368
1.79109
-16.3652
-42.1965
-5.86687
56.5446
28.271
-18.8384
-5.18753
4.00888
-10.7908
-17.7014
-33.4657
-18.7499
27.7394
15.5264
-20.4101
-1.946
7.53814
-0.202616
-33.5767
22.0393
34.4877
42.4412
22.8863
-7.4178
-11.9122
-37.2133
-27.1364
39.5325
15.2953
-2.77542
9.70968
2.47935
-2.77135
-21.0565
-13.2463
29.4885
6.01261
-1.37073
6.49298
-25.0293
-52.0233
-68.9605
-17.9587
66.2626
55.7884
37.9909
22.6592
-22.0887
-20.5944
-44.5587
-7.69874
20.8793
10.1504
30.1596
9.54292
-19.7672
-10.4261
-22.3788
-22.2656
26.0506
20.7759
41.1875
16.6671
-34.7425
-26.2794
-37.8586
-35.6163
-49.2854
44.46
61.4721
33.1946
-2.48564
-1.64599
4.69097
2.81427
-23.21
-54.4908
35.5701
51.9112
-3.49964
1.30135
23.0042
13.5669
-29.2021
-39.0142
16.4674
26.8839
20.2667
-31.7386
-28.8319
-23.6057
-62.6642
-60.4531
43.0833
39.1271
33.7703
48.7919
12.3905
7.60218
-19.9776
-54.2981
20.4916
32.4561
21.9708
24.7524
2.50118
1.65459
0.363965
-19.9573
-47.4533
-15.6019
34.2684
27.3954
-27.6718
-28.7124
-17.162
-14.9572
-49.9816
-57.3433
34.6756
70.1138
24.3147
-1.83836
-1.79483
5.10935
-18.9673
-7.29163
35.6884
7.5681
23.6045
17.2335
4.35533
0.145585
-47.0051
-19.0093
18.2282
22.3919
17.1425
18.0435
-18.8048
-20.3816
-70.027
-23.0923
43.7636
32.0014
23.8877
15.2564
-12.8929
-14.6238
-13.2355
2.48546
21.0157
17.2127
17.3909
-6.88971
-24.6712
-16.4216
-6.75099
-44.8389
-49.9069
51.8138
86.401
33.4104
-12.8083
-10.7252
-10.8444
-12.3706
-33.4309
-85.4763
-24.3848
51.2729
23.7444
14.7866
15.3957
13.2436
5.20362
-37.2945
-4.25412
85.9924
47.9456
-16.4093
-28.0206
-32.1612
-42.2581
-61.052
-10.4853
20.3418
10.6535
43.0985
27.7632
-26.7862
-43.3696
-61.8017
3.49383
50.2492
36.465
53.9818
29.5951
7.98026
5.80838
-19.2664
-65.2088
-33.4745
51.5054
44.5457
11.5347
-6.65335
3.33724
17.5161
3.20503
-64.3197
-13.9821
48.0712
4.22794
-30.6933
-22.9638
-7.55899
-12.4454
-42.6611
-11.5656
29.1243
50.5612
23.1469
-34.4253
-8.59477
-3.87807
-32.2406
1.87367
18.3083
12.8299
25.6618
8.05058
-5.11405
-15.2605
-60.9726
-54.3092
33.8076
42.2345
48.9998
28.5568
2.49069
15.9179
12.2023
-24.8471
-62.7843
8.49805
43.4573
12.4935
4.77026
4.78682
9.07052
1.12713
-25.1041
-58.4014
-13.0371
67.2363
10.0659
-4.52034
4.46654
-0.049227
-13.2968
-10.2194
-33.9394
7.05624
47.6681
0.179439
-21.3747
-21.6961
-20.7525
-31.91
-41.9727
4.38609
21.7333
35.6717
27.4316
-6.67748
-10.8952
-39.7144
-45.1845
43.9936
30.2869
26.2714
39.3801
16.2299
12.6978
-34.7897
-30.7356
26.3886
23.6098
17.6418
20.3659
-11.483
-16.1314
-36.5503
-25.0951
16.8407
14.25
17.1406
12.7281
-35.5626
-23.2355
-29.9024
-27.3194
22.3045
24.0543
31.1779
24.038
-10.3036
-9.10102
-8.73212
-32.5407
-7.83402
22.3817
35.4039
14.6429
-33.137
-32.7816
-16.4524
-31.9849
-52.7514
28.4364
83.2322
61.6674
-0.886725
-0.273656
1.5321
-0.100905
-27.6058
-29.5795
21.7069
32.3894
-2.0523
-10.4995
3.85164
2.2224
-46.6989
-42.8413
24.8267
52.156
30.8839
-21.6654
-31.1663
-16.8779
-56.0597
-0.577804
29.5804
25.2529
16.0076
12.1122
-7.65654
4.12066
-9.57955
-40.1047
-5.29651
20.2733
30.5824
25.7576
0.341308
6.87559
-4.1605
-25.3606
-53.4123
5.14355
49.8892
18.557
-6.10275
-7.58093
-2.45698
-7.93788
-42.0968
14.0675
25.5154
16.0593
7.0252
-4.48549
-3.01799
-15.8361
-45.3814
26.3505
35.0887
19.0019
17.4309
3.42229
-4.98384
-42.5728
-57.7052
14.5377
12.1522
14.8223
17.3107
-5.91679
-11.289
-44.3196
-48.4026
22.9689
54.2245
32.7175
32.6795
3.41307
-1.8883
-2.33316
-37.0546
-48.0342
24.7978
50.6921
36.7472
-9.68871
-8.67112
-5.46934
-6.71869
-52.4379
-69.7661
50.9924
47.5437
2.8591
-13.4326
4.99905
13.5022
-12.194
-55.6694
-31.8704
55.8884
40.6889
-13.0392
-17.9127
-2.04677
-18.2357
-44.777
3.83971
38.2164
33.7254
31.9435
-9.79835
-12.5908
-43.0296
-61.8281
32.4888
35.9728
23.3877
43.1608
27.3777
1.73543
-17.4654
-40.8367
-7.24941
27.9043
7.7767
18.1352
-6.71488
-20.7633
-8.63407
-6.72379
-59.8328
-23.3028
68.3474
53.2451
-0.589301
-9.08874
-15.3837
-1.76133
-8.39079
-45.1621
9.22503
33.4633
2.36049
-12.2328
-9.10742
5.68264
-23.3398
-86.0113
7.43579
69.947
63.2959
30.9094
-22.5396
-10.5772
-23.4917
-51.1489
-0.762173
26.6013
19.5647
27.4532
9.45683
-6.77411
-15.8693
-39.9195
-23.9283
16.2835
16.9158
48.1495
-6.25329
-43.9977
-17.3081
-11.2768
-51.0814
-27.0164
34.248
54.1603
18.7758
-2.33707
-1.14122
5.887
11.4292
-34.2151
-22.6039
34.7688
77.0949
31.0229
19.3213
20.4309
-2.05284
-13.5732
-12.1264
-38.8203
13.9946
16.6738
-20.9108
-10.9914
-14.9145
-9.77215
-20.0901
-22.7697
4.45693
18.8105
12.091
-6.71856
-36.4276
-31.2349
-47.7472
-1.35044
18.763
9.39192
11.9634
25.5268
2.93809
-9.64365
-48.9256
14.4539
25.4023
21.8041
30.6354
33.8898
6.01888
-7.41117
-41.3339
-21.1309
11.9757
6.61191
20.8161
7.8146
1.12528
6.39106
-28.9191
-32.4593
45.2161
49.2663
33.0005
-11.5698
-28.0438
-20.5003
-7.91745
-22.9252
-43.7437
36.0653
51.0301
28.7879
-17.8974
-15.7727
-2.41364
-25.6815
-67.5822
-58.2818
51.1198
68.0657
6.34512
-1.88368
-3.34719
-24.6713
-17.6765
-32.9107
-47.7994
47.4538
58.6923
17.7346
17.9313
5.37919
-5.9428
-18.954
-46.798
31.8787
45.6676
35.4028
-12.5704
-17.2562
-33.5147
-31.7074
-40.5711
-14.8196
41.4761
62.0013
51.1963
-7.14869
-15.901
-21.1814
-19.5909
-50.9148
-66.6472
5.46861
71.93
37.6544
25.5062
14.7712
-5.90746
-8.20803
-38.8807
-37.2251
40.8268
24.1077
-5.88362
-6.86637
4.22599
-6.76661
-22.7393
-25.3215
44.22
42.7659
28.0445
-18.5028
-37.4759
-42.3197
-64.8475
-46.565
43.0419
37.8868
35.8062
38.9015
11.4782
-2.80166
-49.8428
-56.5442
32.2485
35.9516
34.7224
16.9496
-10.8598
7.89
5.7681
-43.6362
-10.8808
25.6171
31.0656
19.3028
-30.288
-23.364
-10.9097
-18.3321
-73.4449
-18.2767
85.7849
78.0356
15.2843
-1.10844
6.20432
11.5951
-15.7943
-45.2406
-46.9274
44.5877
37.735
-13.2959
-10.4671
-13.5327
-39.8325
-43.7165
-65.5159
-36.8946
47.5105
23.0334
-13.7455
-1.53199
-7.98716
-1.02526
-27.0962
15.7509
59.2892
53.602
56.7241
16.9182
-10.7361
-19.4973
-32.9251
16.9408
10.1749
13.3809
33.5094
23.3434
8.92547
0.624048
-48.8342
-52.0222
2.30844
13.9354
23.197
7.2386
-21.3188
0.813987
12.8238
-10.5429
-57.5446
-36.0499
76.493
33.808
5.25009
-4.0084
0.977106
-1.24059
-46.4907
-24.9562
41.4923
31.2697
-10.8639
-20.1083
-11.6349
-24.4711
-63.54
3.70524
19.9563
14.966
29.5047
10.1947
-26.4246
-42.6434
-71.6147
13.3551
49.6156
25.5124
30.3183
18.76
-3.09455
2.25919
-39.8958
-29.0528
41.9535
38.8558
36.0956
-1.64948
-2.35618
6.95153
5.1206
-24.4736
-50.903
18.2555
46.9633
5.72956
-10.1575
-7.28699
-2.68084
-6.9999
-71.6072
-31.3031
36.5902
61.9717
11.2541
3.57087
1.31688
-16.7903
-13.9862
-17.7285
-42.573
27.3724
59.4926
14.9521
19.1654
-0.106126
-14.2415
-15.8197
-37.3935
-5.33932
44.9139
22.9287
-1.90647
-25.4517
-29.3312
-21.2823
-32.5569
7.12968
17.8032
5.09373
21.6569
0.997619
-21.1054
-37.6893
-50.8425
21.9996
19.237
20.0685
36.9884
16.7577
6.4091
4.8786
-40.4955
-41.6574
35.1988
34.8297
44.002
21.0422
6.50924
11.4713
3.65921
-52.222
-20.3004
2.91024
24.5163
-22.6331
-22.6402
-9.85769
-10.5093
-41.9987
12.7903
27.6239
36.7406
29.7496
-12.2583
-13.6347
-13.8923
-58.1588
-23.1625
29.9609
35.2652
37.503
11.1384
4.8332
6.50564
-23.4166
-63.3234
-53.782
53.8179
59.5252
8.80049
-2.10048
7.67285
4.39281
-28.6426
-64.4792
8.33693
59.8702
15.9631
-11.3159
1.20961
6.77241
-10.6777
-20.2369
-36.8314
-18.394
49.2914
43.8941
-11.8084
-11.7056
-22.5172
-19.327
-10.9303
-41.9174
18.2749
54.4539
11.5495
-7.10767
-0.214542
-4.48386
-14.2343
-45.6454
2.31356
51.9454
50.1856
22.8946
2.98175
1.43053
-18.0336
-35.8267
10.0957
13.8277
6.24304
16.8272
-13.5534
-1.47134
-27.1809
-49.2829
16.8671
5.25281
8.66554
30.7713
-0.803249
-25.3172
-41.7413
-34.2476
25.7213
21.9889
9.38901
24.2649
1.62715
-3.76025
1.89263
-10.7734
-55.9482
2.97999
63.831
50.6041
2.35055
-2.55803
2.10477
6.26221
-11.4851
-54.0501
-15.3581
37.5569
-11.4387
-8.39841
-9.19752
3.89101
-6.45953
-10.4848
-33.6092
-41.5672
38.9754
48.2015
8.18216
12.9332
0.572837
2.89338
-14.562
-28.45
28.0686
32.9943
29.094
-7.623
-20.5777
-13.4858
-31.7554
-27.9565
31.329
19.0991
23.525
40.9962
8.55419
-35.5895
-77.939
-47.2358
-9.42222
30.0265
36.0303
40.3316
1.28621
1.93696
-1.24775
-29.6323
-37.663
7.03746
21.1382
22.7922
-15.129
-9.94915
4.91872
5.68025
-46.2743
26.2257
50.3065
36.1384
3.62231
-27.6785
-20.0799
-33.4266
-67.7474
15.6567
51.2884
27.1729
23.3535
0.455033
-1.06804
-2.95764
-47.3867
11.1804
21.0909
27.9995
37.9383
-17.1713
-9.98855
-14.785
-45.1078
3.69356
12.2809
26.0842
30.0129
-11.5082
-31.6328
-40.8978
-55.8843
-25.9196
13.5597
29.8837
32.8222
7.65981
11.8555
18.924
19.9591
-15.8967
-54.3255
7.15765
56.1379
3.47536
-0.941669
11.5289
6.59341
-13.7731
-15.2853
-22.8063
-11.6359
27.6855
11.2195
-6.3515
-11.2604
-16.3168
-5.51134
-0.282374
-23.5602
1.15315
61.1523
17.1283
-14.3507
-26.3992
-9.84916
-7.86419
-43.3633
8.16067
27.823
37.0669
44.207
-5.54804
-14.1114
-12.5657
-27.1453
16.4082
13.3471
6.25827
19.718
5.83459
-4.23416
-21.7295
-81.2503
-45.1651
49.4149
50.0888
49.0077
8.8799
-6.65448
-3.17977
-6.04771
-53.733
-94.3374
16.7588
70.7435
24.8
6.4447
5.11614
10.2586
-3.5635
-11.9849
-44.7465
35.2083
46.9356
-15.6437
-14.2734
2.74923
-21.5187
-41.3747
-40.3648
20.5253
45.4739
60.8769
4.79674
-26.8324
-54.6635
-76.9306
-77.9008
-26.3687
76.7598
66.0106
72.6918
54.0922
21.0331
-13.2207
-13.3789
-22.5687
-24.7793
38.3715
37.8846
1.25115
-3.3203
3.11279
-24.4097
-31.0185
-52.4325
36.3903
69.4402
34.9174
-30.5028
-25.6625
-14.186
-8.74293
-40.2656
-80.2106
-14.0333
47.75
28.0755
-6.43643
1.2043
-9.26973
-18.8053
-37.5356
6.06132
27.1864
42.4396
18.2258
10.7522
7.46626
-30.4212
-55.2271
20.4824
18.6356
25.5325
37.6171
-0.959748
-17.7792
-31.1486
-59.0602
1.91713
46.4196
31.9064
39.9779
7.56873
8.11811
5.18108
-39.1317
21.8535
23.1979
3.2922
14.4899
-21.3999
-20.9594
-10.1073
-37.0273
-75.6723
-41.5175
52.369
41.7757
9.31277
-19.3902
-3.613
11.4458
-6.01165
-21.9061
-6.98501
52.8852
6.28073
-3.02785
3.32136
16.4023
1.99117
-26.5635
-36.3888
54.4956
61.7858
27.9387
-10.2058
-1.43871
-12.637
-33.9194
-42.3767
-69.9884
7.03566
21.5061
24.2718
1.75281
-15.7726
-17.2937
-46.2452
-29.9961
35.2056
62.5386
54.2961
12.6699
4.38676
-3.25968
-23.8612
-25.4853
16.8391
10.5264
12.1264
29.385
-13.6507
-12.4149
-8.63757
-27.8359
-48.6486
34.8198
45.8696
40.2634
-7.44011
-23.8167
-14.0603
-34.7622
-53.7493
8.39694
27.5459
20.7308
-6.358
-14.1566
-8.49061
-2.29274
-39.3346
30.549
30.6971
18.4555
23.0802
-12.1409
6.77297
-5.63203
-33.9772
22.9811
17.0586
14.3849
31.0437
-3.59833
-16.3466
-42.1679
-82.0626
32.6373
41.1865
27.1626
19.9903
-15.8008
-16.8565
-15.8122
-21.4696
12.1981
15.146
17.7335
15.6842
-24.5506
-11.5795
-2.27417
-35.1457
-46.3774
5.25124
54.652
56.5864
-12.0065
-23.5542
-3.54579
15.8324
-22.0498
-60.3657
8.42975
61.7196
31.4676
10.913
4.54567
10.4175
4.36935
1.30963
-33.0635
25.1122
45.4985
-5.86429
-25.8551
-28.4295
-43.5307
-28.1394
-40.5162
3.20086
23.561
41.6045
6.8629
-15.169
-29.6573
-33.8605
-29.0004
19.4133
29.1893
25.4927
43.8963
33.886
7.76105
-12.0114
-29.4837
19.558
10.8616
1.709
11.5638
-27.0551
-23.4862
3.22605
-24.1048
-43.8569
26.2997
35.7987
35.0403
1.91467
-11.5207
-3.57476
-12.8911
-35.4563
-19.4177
36.981
38.0448
12.4971
-5.60059
-3.69523
1.62092
-27.8817
11.2777
17.6688
17.1773
11.963
-40.2608
-28.7766
-30.8735
-53.8559
29.5015
23.9363
19.7418
27.1872
10.6815
-26.5261
-43.1137
-46.997
-27.8746
47.2548
50.1297
34.5418
2.49252
15.3562
21.2677
16.2723
-39.0704
-10.6989
43.9283
37.9274
-27.173
-24.4969
-9.34938
-12.926
-25.3921
-65.629
3.5972
51.5421
33.7315
-12.3088
-9.66278
-2.44133
-9.74738
-58.809
-37.3889
47.8988
62.238
32.8471
1.23685
6.03434
-13.4455
-22.4614
-25.3931
19.3689
12.9218
22.46
15.7268
-9.72179
-14.1369
-44.9696
-46.1844
33.9894
21.0235
34.0266
20.7808
-14.1798
-15.5863
-40.9597
-34.6424
30.2101
26.8785
16.5118
20.752
2.44321
2.88509
-6.2957
-26.9799
18.8169
9.51091
-5.79288
-2.87667
-38.5994
-24.029
1.27229
-16.0212
-28.5886
12.8361
49.9764
34.1996
4.32469
-6.15122
0.259098
6.88637
-21.0966
-42.4275
19.0841
35.4157
-7.39022
-1.10888
8.90126
16.6012
-8.87723
-44.1526
-47.4388
57.6829
42.6246
10.184
4.03606
1.03879
-7.04842
-6.55439
-24.0088
-2.3466
21.1434
22.1407
-2.71163
-9.74759
-25.639
-18.4823
-52.589
-20.9789
50.1295
48.7992
39.7328
-15.0495
-13.4639
-21.694
-44.7453
-8.10295
5.65661
0.0243641
23.4781
9.96192
-2.89864
8.37171
-6.68598
-39.8817
-3.54888
22.1522
30.0138
10.5827
-22.5995
2.63976
16.1975
-44.2807
-32.3237
51.055
47.3739
22.3073
-0.0966754
-0.561231
9.50577
-22.3042
-10.4598
16.7015
1.58509
5.75251
-15.9348
-23.1631
-3.00137
-40.1222
-36.7994
31.9101
22.8681
31.8244
21.7409
-24.232
-16.7423
-65.3896
-34.3424
61.1653
39.6587
35.9643
15.5033
2.98144
2.19571
-37.2868
-26.3042
10.4377
0.708812
18.5833
5.39354
-21.986
-10.3959
-2.07835
-31.5345
-25.2453
23.4399
42.4217
26.2169
-27.288
-13.885
3.34065
-40.0134
-65.9198
24.0181
79.149
40.0876
0.863357
8.88349
22.46
8.47139
-19.0036
-58.4822
-15.6709
52.4051
19.9409
-5.77075
0.775453
2.23308
-24.3157
-59.4834
-4.64939
23.4427
28.5062
-13.3175
-9.33713
-1.96444
-26.2304
-24.9051
22.9812
32.5734
12.5537
27.0334
11.9267
-8.97578
-20.9308
-39.8796
27.8028
16.451
2.02738
14.1914
-9.88499
-1.82381
1.82485
-15.6751
-61.5215
-36.3148
47.1661
45.4766
7.24224
-8.06839
1.08088
14.5006
-34.6673
-49.4636
49.7458
56.6052
14.1437
9.94977
6.08854
3.42025
-37.5193
-32.5209
21.7555
11.3613
28.6315
8.28203
-36.7457
-37.9614
-72.4657
-49.6265
13.6577
19.839
40.5508
39.9603
-7.71118
-8.54761
-51.4939
-35.2374
7.51269
80.697
75.0465
47.6737
4.71208
-11.7153
-5.31246
-22.4743
-54.9046
24.9309
41.207
14.5823
-25.2062
-18.0359
-5.24815
-5.02755
-41.7316
-87.2968
4.39861
69.8641
32.3876
-9.48327
-7.48392
-0.010252
-4.86928
-20.033
-25.4131
26.8814
37.3506
-3.01566
1.24835
-5.04246
-21.1827
-30.4329
-26.0756
35.4557
24.8126
55.5551
27.3949
-14.7742
-13.728
-49.9831
-27.5849
16.3552
8.08524
15.3052
24.9153
5.92294
-7.30306
-82.7064
-29.1974
64.5774
45.7048
37.5323
28.5146
-12.589
-10.3746
-18.5904
-13.5312
-11.299
-20.8112
-3.11051
1.41
-11.3056
-11.7484
-5.52217
-26.1986
-50.1727
25.1836
77.6781
35.9427
-14.7601
-12.616
-12.0482
-3.49089
-38.2619
-28.3439
66.4449
37.3961
1.70284
3.81059
10.502
9.91971
-42.8988
-59.8904
17.0863
74.0891
40.1276
-15.8743
-4.57426
-12.8391
-38.4306
-32.8407
-45.7453
-1.20536
46.9674
41.9169
1.41649
-10.3585
-16.0589
-15.5929
-40.2885
8.31062
38.1178
41.8061
-0.210853
-15.3253
4.04676
-34.8564
-51.0419
17.9079
25.6245
26.1759
35.5916
10.8478
-3.35018
-6.35865
-22.9116
-43.1739
-2.248
9.12284
22.8857
-5.23894
2.59978
11.8339
-8.05903
-35.401
16.7477
36.7833
33.8682
-6.46412
-12.8154
-3.40512
-11.8348
-7.8614
10.6962
-0.665732
-3.48977
6.9065
-19.5051
-14.7399
-23.6728
1.47627
28.9522
16.8376
7.55457
9.64794
-11.9203
-30.6524
-69.7177
-13.1659
39.9571
28.3932
37.9421
22.2881
-14.234
-10.002
-39.2113
-6.08644
41.203
29.3142
31.5731
-0.424699
-18.9585
-14.1767
-21.0148
-48.8663
-12.6487
42.8268
54.2222
-0.80698
-29.6695
-19.4741
-4.1742
-33.7375
-54.2769
-13.982
68.5015
57.4491
8.85585
4.37286
6.64258
-7.20766
-12.9172
-34.7807
0.368003
45.1295
13.9268
-8.87816
4.78009
-13.7022
-40.0725
-73.769
12.0075
38.8159
51.3104
30.228
0.114197
3.41118
-38.2191
-74.172
-3.07553
45.0741
24.7776
31.8187
16.3634
12.0532
-21.4101
-60.5812
27.5267
15.848
1.17355
17.2344
-15.9654
-6.30388
2.75258
-25.9233
-62.1834
20.0976
38.8476
44
6.76813
-29.463
-24.9679
-8.13351
-33.0353
-38.1503
30.1502
48.1317
4.99798
1.40893
11.3152
20.5116
-30.2668
-30.1884
26.0314
33.443
33.7272
-15.9225
-7.43191
9.88578
-35.847
-24.0857
22.1336
18.8179
23.3698
20.4145
-15.2966
-21.502
-81.7725
-57.6671
15.06
36.3187
33.9524
26.3663
24.5559
0.388068
-4.50741
-26.429
-38.4967
26.4431
22.454
6.10701
0.468757
-2.58929
-1.27404
2.05611
3.22748
-33.0473
12.7655
39.2225
13.2478
-22.4496
-13.2343
-1.54049
-8.52104
-60.8763
-20.4685
78.5077
48.819
-6.29724
-21.7751
-3.19861
-8.81502
-46.4345
-42.1985
9.5916
26.8844
29.7208
6.21376
4.97383
7.1786
-7.28544
-11.4644
-20.6662
26.3068
47.9243
19.0692
-18.8845
-8.95135
-21.5709
-40.0754
-63.4301
40.1288
58.9343
41.6919
2.83071
0.140838
9.431
-40.9092
-60.5234
31.8146
17.1348
11.9709
23.1552
-0.573167
2.89982
3.80801
-20.7734
-75.2999
-59.1836
62.2046
80.6658
4.30307
3.42871
3.03402
-12.5745
-30.7153
-48.3351
35.4567
39.9923
-8.03995
-11.2669
-11.3102
-9.14714
-46.3734
-16.4885
22.8881
15.3408
49.5537
33.1093
-24.4579
-11.729
-58.183
-28.8113
2.93308
-0.00716315
18.2595
35.5054
5.02307
9.1426
-53.7756
-40.1704
49.1872
42.6025
35.8927
22.7114
-0.665349
4.91005
-18.8
-30.9901
13.6482
27.8872
25.6345
1.69686
-5.83787
5.3712
4.59138
-10.7362
-68.1864
7.1629
48.5567
27.5713
-25.7206
-25.1704
-12.31
-16.4796
-24.2624
-43.5537
-33.8221
25.1149
18.2505
6.25376
8.71519
1.01606
1.74386
0.700048
-29.1794
-8.36002
59.6817
18.9298
2.84821
7.45287
-5.53436
1.63936
-12.5079
-23.527
26.3692
29.3944
47.2834
4.97259
-45.4363
-34.8705
-51.8377
-22.7919
12.4119
6.98736
30.3242
27.8565
6.51777
-18.7362
-59.5185
-16.1465
44.7668
39.7257
36.4855
32.7142
-4.91864
1.76062
3.18903
-42.2803
-72.5156
24.1363
53.69
23.1981
-2.30023
-0.0254342
-1.47621
-10.238
-37.9481
-2.78936
34.4605
9.23512
-25.8942
-20.3245
-16.4246
-27.6251
-72.4043
-23.4552
37.7146
49.8567
46.1805
-5.67971
-11.1956
-13.1458
-39.3929
-14.5088
35.6605
33.9566
35.1166
14.9877
17.7403
6.83051
-42.7482
-19.9323
43.2602
36.7517
32.0664
7.36302
-25.9583
-27.6646
-34.1503
-72.5288
-54.0354
-7.35161
65.0398
34.41
7.05724
5.60488
11.6509
5.88611
-4.16819
-43.3381
15.1884
33.7388
-7.6004
-2.08496
9.80079
1.41815
-10.1583
-25.5004
-16.0561
45.328
41.5499
13.8522
-25.7135
-20.7219
-28.673
-63.2762
-42.7153
31.6081
38.0627
46.7922
16.1302
-4.67347
-16.7483
-41.6937
-21.8627
34.0666
15.5728
33.4567
30.9014
-9.03109
-12.5118
-39.5639
-24.7862
19.5589
12.0833
34.9509
21.6009
-19.2913
-20.3041
-56.5647
-44.1583
5.96656
44.5605
51.4825
30.7581
-8.94979
-7.31592
-1.07228
-1.95853
-32.8291
14.8422
31.6784
4.6108
-15.7586
-18.848
-5.20579
-4.92295
-37.1777
10.8122
50.3443
22.5693
-20.7119
-40.4135
-19.1824
-34.7123
-63.6197
-10.0765
39.6311
62.1641
54.9251
17.2883
9.80153
5.62949
-6.74686
-18.0544
-31.0636
30.1201
24.7685
-2.7264
1.65711
-3.24938
-9.13571
-26.6741
-25.3573
31.0599
34.6377
5.7712
-21.7249
-30.9111
-15.6656
-21.7167
-67.4781
-33.3639
25.9874
54.9837
59.0863
17.3393
11.2256
0.560897
0.578719
-20.8722
-38.771
28.7472
23.768
-1.61363
1.01773
1.70844
-5.49387
-45.2017
-13.9001
18.7517
30.5068
9.4077
-13.538
-10.0406
-5.40021
-35.3289
-10.9942
34.1648
29.6811
30.5485
25.6851
-12.2969
-7.01926
-63.0034
5.03277
19.8997
3.97553
16.6659
0.938829
-18.0456
3.7524
-19.7154
-21.0808
15.3767
15.0121
9.61695
1.12886
-27.6647
-23.0451
-40.3346
-47.8978
31.9077
65.876
67.4873
17.533
-12.3355
-17.8868
-4.32622
-19.6825
-72.7379
27.7064
50.7732
14.7491
-18.4662
-2.67985
16.1834
8.01424
-3.83931
-16.5597
-3.62977
66.3697
0.442641
-27.8033
-10.2156
-17.8493
-14.7372
-33.1171
-36.6173
29.8964
51.2647
-1.61945
-8.36446
-11.6461
-15.5826
-40.7815
-17.7926
23.7631
12.8766
21.5549
40.1065
17.2225
-13.1726
-55.5108
-3.10135
22.6094
11.6146
24.1251
21.9168
-11.3554
4.6064
-21.9759
-60.3309
-10.5607
55.6621
56.3892
27.6847
-12.5225
-19.423
-4.40834
-10.0249
-47.7281
6.95186
25.7638
5.41317
-16.1117
-11.6379
0.155518
-19.0166
-37.0232
25.5431
18.4574
37.1189
12.6794
-30.043
-14.2653
-46.919
-17.9494
25.9067
23.6744
21.7405
28.9364
1.53154
9.10801
-28.3244
-43.3458
17.4309
7.99623
16.8252
11.8217
-11.9651
-3.40723
-10.5532
-48.0056
-11.4527
55.0358
51.9423
25.9579
-6.50959
-11.8387
-1.14898
1.55089
-68.1875
-77.5393
57.3719
63.8999
10.9589
3.28325
-4.01152
-8.13313
-14.7311
-35.506
-52.6809
21.3948
47.7425
1.10848
12.4769
6.14926
2.25927
1.02846
-24.4803
-29.2442
39.1019
47.0197
-15.5636
-22.2674
-22.9997
-12.9958
-23.2888
-25.0096
33.9945
33.1487
51.8235
14.151
-32.6683
-33.3998
-42.3006
3.85236
15.9949
13.5955
26.8681
25.8522
2.11224
-5.09339
-57.1092
14.9475
8.24423
0.878182
13.9315
23.3104
-10.5388
-3.22322
-21.9948
-18.4186
-2.48741
14.973
30.5916
2.9371
-1.2194
4.80886
4.11683
-27.1723
-31.7588
26.8544
40.3646
-14.0747
-25.3404
-20.8302
-6.75442
-29.5724
-35.2564
19.2932
44.2661
28.8612
-5.32763
-16.3494
-0.502118
-25.6911
-50.2527
-7.92015
43.7405
60.4882
38.5886
4.27329
-1.91057
-9.3798
-7.38277
-27.7237
21.8022
43.5159
11.499
-17.6695
-2.1908
-9.40166
-17.348
-30.0619
-19.6171
18.7924
29.1585
2.80951
-24.3212
-10.9026
-3.9017
-15.4608
-52.3788
-55.2341
24.8401
58.6132
21.454
11.0927
6.91653
0.55015
0.477994
-19.0561
-19.9428
40.7831
33.0926
10.2644
12.9799
6.2859
-7.14554
-38.8674
-16.8071
18.5703
31.0314
23.0908
-20.9968
-17.6721
-18.7824
-52.8261
-11.5439
-6.66502
-3.39605
15.7927
18.1548
-4.01104
-18.1918
-16.1837
30.9152
21.5956
12.6917
22.4902
12.928
2.39353
-17.9431
-8.29091
33.0108
16.5898
9.94733
22.3544
-19.6693
-40.4774
-39.016
-53.5192
-14.4459
44.092
38.101
24.3167
2.74791
1.80363
0.739708
2.07988
-54.6684
-57.1009
60.49
36.2541
-15.8771
-4.81363
-3.75545
1.20968
-2.15899
-1.8697
-10.571
45.5534
24.203
-23.9269
-12.4075
-9.97204
-16.1183
-38.0656
-45.148
36.034
44.0869
26.2682
-7.85402
-1.64584
-17.9313
-73.2962
-37.9244
39.6558
34.0726
33.6329
43.7416
21.5278
1.04868
-50.4562
-67.5293
17.4941
38.5028
36.4872
33.6648
-2.44476
11.7431
8.60796
-17.3947
-56.8626
-36.2469
60.0719
36.1665
-14.3526
-14.834
-4.72883
-2.07499
-42.0854
-79.8698
23.9883
99.516
23.2953
-17.9427
-2.96231
6.06093
-23.7979
-35.8521
13.9582
1.3148
19.6921
7.6128
-15.8884
-17.6373
-35.6552
-31.2268
15.0804
14.4403
29.8317
45.7207
0.180908
-19.7246
-45.6207
4.85662
33.5947
12.321
2.25359
15.7666
-11.5036
-18.4125
-47.8938
-15.05
46.7458
30.5158
21.0663
18.9974
-12.4725
-21.4552
-4.94723
-7.57386
-44.7416
6.35619
41.945
1.78717
-3.84842
11.4353
12.6465
18.9809
-12.6529
-60.1272
7.74687
64.8075
-0.46722
-23.1126
-20.6721
-8.06016
-6.55296
-0.241759
-27.0288
29.7081
44.3709
-0.470532
-12.7385
-19.5952
-19.819
-8.92533
-29.59
7.01122
36.131
52.4254
28.5161
-32.3263
-41.8543
-39.9509
-57.1453
-35.6764
45.612
38.046
48.2475
25.198
13.097
-4.93432
-30.6347
-10.6035
4.42182
6.97398
23.8558
9.02479
-8.92515
8.14959
-12.1896
-51.1568
12.9748
40.393
42.1129
18.9039
-33.4918
-21.7912
-12.8919
-57.7351
-21.6094
36.9505
37.0903
11.0899
-3.01525
-3.39638
-4.39155
-50.5781
-23.9437
42.3548
41.584
26.8828
-15.9755
-19.2602
-0.744372
-35.7996
-25.6594
28.8401
15.3585
34.0619
18.0503
-17.7716
-9.71215
-10.4219
-32.3487
-14.5158
31.2347
41.83
12.4973
-22.0917
-12.9454
-9.44274
-66.1436
-24.1264
51.802
52.0748
16.2389
-17.8347
-0.294085
8.87204
-6.15225
-49.3368
-36.3073
24.2502
56.949
26.9594
-6.367
6.74607
1.72376
-50.1715
-81.4233
26.1395
73.0498
36.0445
-7.44902
0.579592
-3.32259
-17.3598
-40.3858
18.8882
25.4087
26.3735
23.3412
-10.9441
-19.7459
-16.609
-48.0392
1.08115
10.947
20.8967
44.7809
-15.3495
-28.7613
-38.5608
-77.6496
-22.1096
52.344
29.8511
37.8827
-0.652397
-8.15468
2.29546
-20.0297
17.3931
28.4467
24.2838
32.8954
8.37165
-6.56937
-6.82718
-20.9406
-84.8501
-20.4918
40.4995
43.6616
22.4589
-24.4209
-10.1646
13.7663
-18.7007
-42.4389
-29.1238
56.4183
7.1098
-8.9377
1.52305
11.8284
1.7035
3.08976
-6.73852
0.312891
72.0014
24.0761
-10.9196
-9.75528
-19.6511
-34.5312
-52.3432
-40.3571
26.1436
34.7709
24.4543
-10.2551
-10.7758
-13.7088
-49.7585
-27.6096
42.7582
35.1964
40.4389
43.7558
6.85395
-7.2426
-25.6384
-56.9671
-57.7324
20.3289
30.73
27.8454
0.584428
8.60219
15.8631
1.62416
-17.0707
-50.4632
50.8774
56.3677
-1.96201
-19.1259
-16.6469
0.493316
-12.8851
-44.8211
-5.93445
27.9174
25.0418
-18.6251
-4.92954
-6.91333
-35.4635
-22.4576
18.4209
16.3969
22.5561
43.3965
8.68734
-6.21274
-32.2385
-24.5937
14.9795
15.2491
9.61552
21.5417
1.78076
6.20619
-18.5007
-51.9224
4.41851
12.4676
18.7695
13.5628
-8.06921
-7.38423
-10.6003
-47.1272
-0.297446
43.5913
31.8047
23.4217
2.93794
0.123903
-4.6546
0.989484
-31.7041
-34.5683
27.7576
10.1594
-13.1124
-10.8451
-5.50956
-1.69107
-22.7707
-53.9892
-58.4864
85.3681
64.4408
8.08212
6.72188
9.3617
-2.72616
-16.4971
-41.8072
11.2014
23.9641
26.0703
5.22664
-0.254735
-18.0234
-37.8112
-32.8932
25.9832
22.2018
40.4244
50.584
-3.64789
-35.3034
-83.9334
-47.071
37.4336
18.2811
8.73511
15.9306
-4.65277
4.13608
-22.7715
-38.0731
48.6837
38.3886
34.8195
28.3092
-16.7302
-20.817
-3.77433
-13.7273
-36.0314
8.58022
26.2899
8.42103
-19.0294
-5.28323
4.03806
-16.3327
-24.8569
15.2347
29.5383
24.7018
-18.085
-17.1996
-15.7302
-42.3971
-48.2021
22.6963
19.2558
26.8118
20.6201
-9.16698
11.7792
-15.6942
-61.2675
6.93744
55.974
55.2581
25.1013
-13.9845
-3.40421
4.48533
-23.4303
-60.9899
-13.1376
72.3439
47.9414
7.82691
5.38984
6.88069
-3.09169
-47.0179
-10.8708
18.4081
14.1438
-15.5996
-35.0325
-19.1819
-14.1598
-14.1025
-35.1779
-17.2629
12.5975
27.2401
4.52667
-9.79473
5.33918
-10.6614
-40.531
-13.7029
62.3996
48.5191
25.8408
12.4138
11.6015
-3.71854
-42.3955
3.27397
28.7299
8.6814
23.1698
5.65833
-14.1752
1.68506
-29.9205
-12.5673
1.275
-3.62558
14.4106
8.08597
-24.7476
-28.0778
-70.0716
-3.98166
49.9778
28.4211
34.4493
10.0363
-12.7853
-14.2386
-39.6115
-27.5544
30.938
50.3082
44.4464
6.27344
-7.82624
-9.87626
1.16371
-12.467
-57.9005
-22.4256
54.2383
11.034
-22.8323
-17.9636
-7.87046
-3.02772
-30.506
-59.5242
32.7587
70.7972
15.0961
-1.66462
0.421982
-8.73795
-3.50907
-3.68097
-34.3166
39.4106
48.7052
36.1455
7.88
-6.30598
-10.2136
-15.1511
-49.746
0.494374
21.5941
30.7392
-1.57125
-30.0727
-40.1364
-41.8598
-39.1907
3.31507
28.8709
25.831
44.5695
8.54366
2.74148
-2.99744
-43.3925
-74.5466
26.2917
55.0334
54.7565
11.0789
4.82675
16.4817
11.4101
-11.9486
-45.9355
11.7939
26.4339
-1.8388
-16.9181
-13.9883
-2.4281
-20.1236
-38.8778
23.9573
35.7492
38.6237
-17.9983
-27.2871
-10.8032
-54.8287
-10.2232
27.8319
8.3185
3.07716
13.3706
-9.17609
-7.18919
-41.1403
3.87039
20.264
20.5164
13.9461
18.6564
-8.73344
-21.405
-20.0209
21.0092
27.7435
23.2419
32.5653
2.06978
-14.6961
-16.2731
-42.614
-24.6757
26.7066
19.3655
19.749
-10.8234
-8.58155
0.734129
-2.16708
1.67937
-42.4661
33.9126
60.5535
-3.6101
-21.3434
-9.34972
8.6626
-1.56882
-47.9169
-52.9706
23.2681
40.0878
2.90913
-0.973046
-2.02352
-14.1651
-35.2479
-36.9739
21.1439
26.3385
35.7701
5.53345
0.54265
-13.4379
-47.0834
-25.9957
35.3394
20.595
31.0704
32.9502
9.94736
-11.1219
-78.4447
-24.7598
63.057
50.0266
41.2623
24.9145
-16.9173
-17.4953
-32.0991
-79.3652
-14.1791
31.2856
29.4851
14.8602
-10.7702
-4.49224
3.06888
-0.457532
-45.4165
-28.235
50.6856
20.0534
-12.3694
-12.0039
-1.97362
6.5312
-43.6802
-19.2579
51.0387
68.6822
16.1319
-27.7472
-12.2807
-5.53765
-40.9005
-6.24761
14.1261
10.5391
22.1525
10.3216
-9.93614
-15.6839
-61.8728
-58.9035
43.2232
42.1984
43.2489
26.5051
-7.77304
0.721666
-1.22248
-28.7646
-65.6536
-7.94946
56.9409
26.5896
12.0703
2.38232
11.9977
11.7058
-32.8144
-64.528
-10.096
61.6163
18.2131
7.67386
8.99891
9.06878
2.48651
7.34513
-22.1961
-35.8902
55.9421
13.43
-24.5776
-19.477
-20.1437
-10.5897
-33.9243
-44.745
17.4918
40.2601
29.2914
-9.38154
-36.2168
-23.7805
-59.1947
-25.7512
67.2036
59.5801
44.6077
44.9248
18.2991
-3.5416
-46.9312
-59.1224
24.1455
25.9521
30.3146
22.7765
-7.93137
1.76006
-40.659
-34.8097
-9.16773
0.353572
37.7024
17.4511
-35.1243
-24.8272
-32.691
-25.7482
19.4139
23.385
27.2626
28.9905
-22.4635
-21.8268
-9.21325
-24.4187
1.80102
39.2644
35.0264
11.9916
-14.0392
-7.66738
10.1346
-16.2625
-69.4547
-0.250587
64.48
50.6273
8.58428
5.01837
1.92334
-3.97965
-17.9103
-25.5787
-21.0592
31.4289
7.80354
-20.1964
-5.1223
-7.99587
-12.786
-24.971
-11.7153
43.042
44.9058
11.8756
-10.5892
-7.405
-21.5869
-56.8765
-48.0192
11.3052
11.4732
24.4222
27.7578
12.8537
-0.284777
-6.50825
-54.9923
-62.77
41.6616
82.5125
56.5887
26.5604
17.49
-10.696
-17.9587
-27.8645
-45.2318
28.5415
28.3184
-5.90204
-10.7897
0.138996
2.10655
-38.7764
-36.7445
25.8518
33.1967
33.2034
-20.1132
-36.0486
-26.6238
-65.1512
-44.4615
11.5005
18.8344
27.523
41.2965
15.6756
17.5807
-17.9174
-21.2217
40.5626
23.946
30.2554
18.5292
-14.426
9.20731
-24.9288
-69.8756
25.014
44.3943
38.0164
27.6085
-7.94518
-17.9939
-12.7836
-31.9606
-34.9218
-33.1577
52.6883
41.745
-16.1692
-24.0603
-14.2998
-17.7872
-33.8111
-38.9221
15.3114
46.7692
-15.9865
-17.3752
3.5803
12.7884
4.54216
-26.2296
-6.1469
67.0023
37.3074
23.1389
-22.4322
-25.4714
-26.7325
-22.4266
-7.95756
23.0584
13.1835
26.3959
23.7355
8.02425
-10.5674
-45.3309
-14.8507
29.5124
11.5238
22.427
19.8486
-3.97138
-4.51962
-31.1507
-80.5607
-0.984667
28.0717
24.7125
12.8555
5.78509
9.64299
9.83522
-21.0769
-68.9326
-26.5317
66.9867
54.2588
17.6777
7.35676
2.84042
-8.19353
-33.4416
-49.9783
31.3085
51.533
2.45571
-24.4158
-23.2055
-15.4468
-29.8117
-34.0754
23.629
25.7378
36.2029
6.39427
-19.0183
-18.5271
-50.4386
-38.6254
30.4686
44.1705
30.4104
31.6476
-2.3485
-1.33253
-24.4
-47.1504
-23.7804
37.1949
32.5675
28.3724
1.65113
9.7462
19.1895
-0.629813
-43.5922
-43.4102
36.4231
32.5427
0.642001
-17.7239
-15.1821
2.858
-9.94578
-52.1818
-57.0305
21.7604
96.428
29.0271
8.16704
7.28402
-3.18241
-6.31711
-30.4621
-47.2472
37.7824
39.6377
-0.465393
-4.78292
-20.0815
-26.8909
-45.3562
-12.9088
23.7599
43.6044
40.8472
0.0232958
-40.7271
-37.7251
-64.2191
-33.0331
37.3525
36.1065
42.4953
37.7389
-9.5213
-15.0891
-61.7732
-41.7566
46.2653
42.2758
44.7003
27.2217
0.632897
15.3319
4.20373
-34.9047
-23.8071
10.3936
29.9586
13.7888
-29.3701
-23.9024
-9.08334
3.73783
-37.8428
-41.6935
61.7743
68.8775
3.45682
-0.0794819
5.12255
-12.0213
-50.2407
-80.9076
7.04116
68.7871
16.4146
-12.4588
-0.91835
-4.00809
-26.4062
-59.1968
-15.5299
40.5337
38.1729
34.3155
-6.46921
-17.7896
-20.8667
-10.7325
-11.1018
-3.62915
39.66
64.5746
18.8419
-14.0795
-15.8991
-23.7207
-64.2318
-34.4519
42.9963
55.5559
27.7607
-5.78533
3.87734
11.4461
-14.8013
-52.8177
-29.7336
38.5275
30.2309
14.4929
3.6419
4.02368
-12.6792
-22.4796
-39.1307
-22.2421
40.5796
18.7027
-26.4933
-9.86726
2.07516
-9.43992
-25.9459
-17.5513
65.8208
71.7222
30.7945
-14.5161
-5.94063
-0.384485
-38.0274
-5.47674
12.1903
-5.77515
-2.2366
-12.3552
-12.8901
-9.36601
-57.1411
-46.6048
-12.9925
-13.3015
14.6083
26.0418
-9.4381
6.22309
-17.6557
48.1198
162.541
136.742
68.6253
1.24829
-39.5155
-47.5905
-79.6703
-96.6044
-16.8091
0.00896173
9.69954
9.01642
-7.62098
-8.50924
-12.6985
-66.8855
-127.518
-34.9073
14.6934
-27.8651
-69.1364
-35.2013
38.9769
140.83
166.334
121.784
100.957
41.6631
-39.1321
-66.1034
-65.7192
-65.4644
-79.5089
-76.2348
-20.1726
7.33128
27.1589
-5.21416
-6.51159
-2.40279
-22.585
-11.6734
64.3278
30.7181
16.6735
49.9239
101.564
122.154
29.1156
-8.36347
43.2137
36.8552
23.6509
29.1503
-2.69928
-20.1049
-44.8497
-76.0658
-11.3079
-21.5302
-72.0698
-95.2355
-153.536
-163.402
-158.588
-164.873
-105.534
2.30007
69.8746
80.0937
42.2488
55.6175
-147.536
-3513.7
-5835.95
-2503.78
-10.579
1390.8
1938.34
2463.72
3013.89
3287.67
3371.33
3232.83
2907.16
2398.25
1764.99
1156
640.514
151.802
-279.473
-711.698
-982.756
511.878
1500.78
-434.206
-1867.27
-2685.27
-3000.87
-3206.52
-3396.46
-3430.92
-3359.72
-3153.36
-2823.89
-2341.19
-1868.27
-1387.9
-849.923
-364.108
63.59
476.49
902.925
2078.66
2958
2346.22
1869.44
1661.96
1578.14
1426.46
1264.49
1158.63
1051.79
983.698
934.988
889.662
890.432
822.623
714.529
622.905
525.922
423.532
355.58
694.086
894.65
420.193
45.38
-239.952
-432.233
-590.561
-764
-861.025
-870.13
-845.893
-803.707
-760.598
-695.27
-639.973
-662.122
-633.841
-654.185
-638.559
-541.62
-280.826
-63.9798
-170.19
-306.78
-353.995
-260.81
-200.962
-119.355
-30.9536
31.2249
20.3395
24.2427
49.1071
62.4773
77.6831
74.0173
153.179
299.43
402.106
476.609
562.699
596.173
559.048
436.45
280.896
151.687
67.9301
13.9333
-41.839
-82.2965
-42.8462
-2.56011
-33.2306
-54.6895
-31.9272
30.887
60.1732
59.3817
9.82563
-82.7822
-71.6237
-121.013
-190.795
-123.379
-49.0658
-9.90277
-25.4237
-100.122
-75.9231
-89.8413
-144.003
-171.471
-116.819
-58.8767
-9.1223
30.6612
-13.0113
-7.96158
2.57581
1.63764
-41.7153
-59.3283
-72.5539
-15.7632
89.4736
108.988
139.029
175.779
135.101
105.673
31.7487
-52.6701
-99.1085
-128.691
-19.9855
37.1108
17.7316
3.35055
30.0473
64.3307
91.273
96.2388
118.103
99.8268
38.7039
34.0151
47.0864
45.1864
1.74252
-56.3506
-22.4786
0.13205
5.30209
12.0014
-70.1134
-101.48
-78.6114
-96.606
-75.6338
-60.6155
-64.837
-41.9934
-56.9632
-58.9886
-66.4492
-69.0974
-99.5076
-69.586
1.8558
14.2492
-20.6211
3.04301
68.5427
118.309
108.854
61.5219
9.58727
46.0659
39.2764
38.1555
39.8198
51.9248
26.5558
4.55162
12.2345
-24.5828
-46.8971
-12.0736
-31.8909
6.47434
59.0718
31.6485
22.5885
8.96712
-25.718
37.269
43.4068
11.6812
6.33254
-31.8773
-46.1446
-75.1059
-44.5488
-7.79897
-3.47955
5.92519
34.3797
30.9766
-0.236788
-26.8103
-41.8998
-0.741992
6.6988
-17.0023
-28.7873
-47.1468
-12.8124
-17.2253
-31.4375
-56.6326
10.1405
109.46
60.9686
2.39668
13.4746
19.5453
13.5976
-15.5747
-56.5786
-7.70738
35.9884
16.0972
3.18294
-8.34376
7.99189
18.1361
5.43501
49.2851
31.302
31.758
-0.730892
-27.8513
-13.6073
-19.9981
-26.5434
-11.3747
-9.56804
-7.73093
18.5413
11.9207
-0.791607
-8.61043
-17.5232
27.3782
15.2493
-7.30585
3.81833
-24.6089
-20.2735
-37.5011
-62.7835
-12.1304
6.04445
7.98293
7.14462
13.4861
28.2257
18.8719
38.0071
15.0267
10.219
86.2479
87.2895
20.3922
1.1481
-22.0348
-32.4726
-65.4629
-70.1543
-48.6874
-5.92415
1.80966
-16.7524
7.22634
-7.34883
-8.2665
-24.4512
-73.2241
-70.5958
-4.69864
6.26035
-15.8995
-16.0081
-6.05014
-2.05587
1.97751
31.2292
72.869
66.6131
77.3787
71.2839
26.0349
33.24
7.67708
-3.93302
-3.10845
-26.7427
-11.1533
-16.1038
-35.1476
-19.6835
-40.0217
-69.5168
-28.3807
19.1037
30.1743
15.2958
-7.01328
21.1016
26.1939
-18.0032
-32.4647
40.9966
70.9172
47.3409
-1.7947
6.12725
14.7012
-5.5819
-31.5728
31.8636
45.2085
74.4768
41.5642
-9.95409
-33.9803
-87.0434
-133.473
-54.8573
-29.768
-15.5589
-25.675
-51.9162
-40.2329
-33.8172
-34.9995
16.3815
97.0563
113.917
83.9099
21.4831
-4.90797
-30.1064
-30.6602
-53.6957
-31.8449
39.1961
42.7212
2.38124
-6.67458
-4.87377
-6.51638
-28.2273
-52.6806
1.40878
52.1805
32.686
-8.09852
-7.33336
22.7632
21.354
8.69049
-34.3873
-26.1406
58.4148
68.802
39.9942
42.8397
13.9178
11.9712
-1.4901
-36.5657
-16.719
-14.5855
-34.9721
-51.7242
-31.1828
-30.9693
-42.4375
-38.5723
8.23454
-8.31179
2.67133
-10.3024
-39.8895
-32.5609
-27.6821
-9.70716
64.199
72.3267
65.8356
64.2206
13.2174
6.70383
-13.105
-14.3146
23.954
9.96581
2.75841
-13.4121
-58.9271
-42.2886
-14.3497
-33.5507
-37.7103
37.3245
47.4756
39.5611
-13.6249
-2.86722
22.0755
19.6242
-38.5941
13.6938
85.5295
81.8646
8.66773
-29.6347
-31.5236
-21.9363
-39.4807
-81.8581
-23.1899
68.2061
41.2061
-15.9337
-29.032
-23.1921
-11.4664
-36.4538
-96.2108
-21.0714
56.9471
35.2669
12.0207
-1.85558
1.24877
6.52952
-17.2632
49.0044
57.2428
57.6973
49.1855
32.3403
26.9875
-38.4229
-41.5343
-1.91023
-35.9621
-29.3616
16.309
6.57389
-8.52704
-19.6963
-61.69
-37.8241
-6.40103
6.10089
18.2437
-42.5508
-37.5002
24.4794
-7.82131
-46.0306
28.1292
76.769
44.3812
-4.32001
-12.5938
-0.651769
-0.462422
-27.6622
20.2771
17.1441
24.9723
21.4559
6.35336
6.46368
-0.511501
-6.88107
26.7562
18.5478
17.078
5.30345
-27.3777
-38.2817
-59.0176
-37.1865
15.1749
-3.68972
7.16592
26.4717
4.27995
20.3018
18.1439
-19.8039
-5.58407
-4.82888
17.9521
21.9663
8.13326
10.1237
-17.5828
-25.6589
-28.1303
5.32482
18.9061
7.62025
-16.3191
-7.8785
6.9464
-2.73032
-26.4577
-38.2306
-15.6709
45.6053
10.1046
-7.66787
-27.9326
-19.7551
-15.8057
-22.8953
-26.0162
17.2483
19.2388
-1.54615
34.0954
38.7384
41.7702
49.7511
30.7387
16.7189
44.2637
26.3099
9.0913
-20.5955
-25.6295
-20.3497
-35.3867
-50.5352
-36.6867
-31.0623
-3.27433
-7.33615
-0.442605
12.5139
-0.774127
15.0264
1.75168
-8.00926
-5.75893
-3.75276
-32.9901
-24.5641
-36.2232
-41.3723
33.6431
43.6689
61.7422
60.7272
32.721
30.6763
22.0964
4.58172
49.8494
55.2049
35.5211
-36.7422
-71.5492
-67.3344
-58.9856
-72.4669
-23.9811
-8.10271
0.656498
4.14752
-32.8044
-33.6337
-15.73
-8.3072
19.5758
15.1864
42.5966
51.6281
7.50031
-9.6714
-8.50792
-45.6869
22.5072
61.7427
43.6579
45.3337
7.44975
-3.05313
7.77007
6.698
-49.6523
-27.884
17.7847
30.6038
6.58761
9.25103
2.45204
-13.5544
-43.5906
-97.8685
-21.2397
55.4617
30.633
-0.0646026
18.6867
39.628
-0.0327612
-34.3053
-27.4743
8.94407
29.2081
31.4602
11.4927
-7.455
-21.2488
-53.4525
-22.018
0.185425
-6.37802
3.47209
-37.5876
-45.1344
-40.0772
-33.8843
44.0393
66.5918
61.8055
68.0307
47.9945
-4.18214
-33.6587
-41.8393
-10.5287
5.99062
-15.3685
-13.9545
-41.4094
-47.6228
-31.5142
-15.9184
52.4215
54.0907
48.4215
47.6507
-1.60389
-25.3362
-14.8698
-30.3196
-34.8487
41.1156
65.9835
38.3978
0.149975
-15.0682
-13.9093
8.75922
-12.1039
-45.8689
20.3473
55.7073
31.8806
42.4555
19.3314
-3.00278
-43.0761
-90.5409
-56.0216
32.9276
21.6042
-30.6749
-25.9064
-9.38902
-7.25297
-9.06336
-32.0782
-22.593
12.2181
14.2865
-20.3441
-28.8588
-42.818
-26.4466
-24.8728
12.7707
58.1877
54.1271
21.1113
-3.89292
24.625
25.6149
-0.111907
13.5279
35.2862
20.807
26.1918
21.3728
13.1154
15.1706
-15.3944
-58.3274
-33.7165
0.275702
2.43543
-4.52595
-21.9857
-0.272223
6.97713
-1.63075
-31.6553
-23.1695
34.2891
20.8943
-12.8654
-3.25516
19.1488
15.8563
-8.5454
28.0472
41.4745
47.223
12.7711
-29.3087
-33.6569
-41.7801
-69.5554
-1.20763
0.328513
-7.61663
10.5279
2.38456
-14.5896
-23.1724
-53.1448
2.13344
59.2935
37.7591
28.5688
12.4509
3.24501
0.818244
-31.2302
22.9113
27.9847
24.299
31.9132
-3.52445
-24.6098
-46.0824
-55.5034
-77.0702
-58.1779
35.9518
56.4771
29.5648
13.3797
35.4695
25.0539
-7.36624
-19.6891
-16.0638
58.4563
33.7845
8.79313
-10.0529
-40.7176
-58.2416
-35.2507
-21.5321
-44.8334
3.7769
58.0424
15.9258
8.51535
-3.09999
-17.5353
2.33555
-1.07242
32.5103
59.79
52.0962
2.38901
-33.0266
-21.3631
-24.6458
-57.061
12.7948
29.53
24.2977
39.6568
20.8901
-10.6389
-29.0371
-40.588
30.9776
24.1327
10.171
10.9961
-20.1438
-59.0448
-22.672
-3.59834
-47.805
-9.3383
44.2984
52.8861
1.95321
-10.3257
3.16345
24.7501
-3.71926
-35.1368
23.5029
32.0848
-29.3936
-39.5577
-28.4736
-26.5516
-47.7362
-16.4188
44.8027
9.14607
10.7948
-6.10423
-15.4026
19.4874
-18.0626
-1.68883
40.651
27.1445
48.943
45.1522
-5.99896
1.08984
-14.7301
-21.0327
9.74929
35.4269
52.4923
39.4076
-10.4576
-17.191
-14.3216
-28.06
-84.4628
-56.5134
47.4806
36.8038
7.26245
13.4526
12.689
0.657704
-38.5724
-73.5632
-84.1513
-2.851
23.5668
23.8773
36.016
21.542
-19.676
-14.7028
17.5859
5.50962
27.4702
41.9197
-17.6228
-22.9629
-30.8629
-16.0391
-6.4558
-32.7017
-33.4863
71.1903
71.6255
-13.4248
-58.4717
-24.565
14.3016
-6.44099
25.1301
53.46
12.147
-2.00435
19.1623
15.8243
10.1114
-5.90178
8.1667
46.16
1.77214
-2.51474
8.69153
-7.36526
0.227234
-7.19169
-2.12411
28.8179
-8.53585
-36.7876
-52.0747
-37.8144
-34.7076
-43.0303
-60.5122
-57.1394
22.4666
49.7642
12.4442
-20.6683
10.9348
50.9618
47.1903
-2.16327
16.7836
30.1005
-12.8217
-61.7867
-45.0405
-8.03775
-25.0351
-66.8082
30.8288
58.2844
133.186
110.667
35.2264
8.14215
0.127664
-11.0999
-27.0235
-29.4273
8.48895
8.67949
-23.7502
-25.9446
-12.6223
-21.5917
-32.4599
0.393496
51.2593
41.0677
-11.9707
-23.2323
-76.0141
-60.2954
-50.0675
-43.6949
-45.5732
20.2698
42.1005
24.8451
9.47884
6.14125
23.2882
30.0132
3.8894
5.71416
65.1855
57.5593
26.4773
24.7383
11.3687
8.88241
-31.2399
-33.3172
-4.02485
-14.4892
-24.5821
-52.3956
-42.5057
-24.9257
-70.0131
-2.36831
36.5811
9.67425
20.5922
46.9134
26.8071
5.43425
-35.0345
1.15433
19.1864
27.9326
25.6442
8.59749
-2.58947
7.9706
-1.20602
7.23428
11.2722
16.8874
36.8774
8.4962
-30.0344
-47.4106
-41.111
-28.9391
-10.9593
-19.5376
-9.99137
-14.1746
-16.474
4.8361
26.6464
-3.35925
-16.1114
55.4079
56.4811
23.9986
2.843
-12.7506
2.52694
-9.99588
-29.572
-49.1124
10.5297
25.1844
-5.11133
-1.35113
12.6131
7.8979
-7.39298
-56.4383
-24.0015
22.4965
11.6101
-18.08
2.1617
11.1327
9.52862
19.7068
50.8114
23.2834
11.2974
19.2662
-30.3612
-61.9321
-65.1131
-34.7671
12.2258
15.0566
26.5935
51.9963
38.1039
27.1783
-16.4089
-66.62
12.2225
30.7117
18.2009
19.9506
3.96125
-4.1268
-7.26585
-1.18165
-33.4337
35.9226
42.5248
16.3165
-18.0391
-37.6155
-42.6031
-29.0973
-56.14
-9.26292
13.7733
29.1801
17.9086
-6.46721
-12.6678
-27.477
-45.1955
13.3869
26.7822
28.6546
35.5885
-29.0749
-35.8609
-18.0486
-32.119
13.7723
34.6124
46.2053
38.3277
-13.3124
-15.6187
-1.92971
-27.382
-19.0853
33.3792
38.2426
24.6873
-4.54671
5.81149
28.754
19.193
-39.3303
-15.4695
13.6832
19.8953
26.566
23.0624
-9.27313
-13.0477
-26.0864
-55.7269
26.6441
27.1495
7.94709
-20.0069
-36.3924
-24.1897
-13.9495
-34.9288
-28.549
58.7272
60.8504
21.1476
-8.99634
-19.4047
-50.9722
-100.736
-72.096
49.205
57.7246
60.3976
10.418
13.359
8.00037
-6.68127
1.16583
16.1636
5.46287
21.5281
21.5597
-12.9509
-7.80984
-41.0213
-52.4513
0.744333
-14.0982
1.11522
22.3489
-6.12215
10.0969
5.21537
-52.5738
-10.8804
46.4012
48.0847
33.503
16.0977
6.75351
4.92765
-8.97557
-44.6692
30.9613
32.8404
21.1106
1.66704
5.99881
14.3498
-11.2406
-43.9044
5.95815
32.4223
28.2452
-11.8781
-46.4424
-47.0588
-49.1748
-67.2682
-42.0535
37.713
38.3241
23.4668
-13.1454
-7.11115
-0.723468
-7.51979
-14.3986
22.5142
39.5846
20.8518
-1.91488
-11.2101
-14.924
-8.83465
-34.039
9.15092
28.1906
27.3038
18.7204
-13.349
-3.41286
12.6792
-28.6254
7.33549
37.7357
31.193
28.7607
10.1827
-5.85519
-13.4759
-29.634
-33.1075
-33.3751
17.7368
18.8839
-4.48534
15.2697
28.8831
3.00978
-43.4846
-18.0112
20.4335
16.7501
-3.4776
-15.4783
-11.3417
-2.35793
-45.3726
-25.2391
23.6464
5.99253
19.3919
37.7813
-4.81132
-11.0106
-47.9851
-21.0961
25.5874
10.5029
16.3941
15.3593
-0.128026
-3.03186
-28.3485
-1.45416
15.2768
14.2825
31.6354
17.4084
-10.5682
-21.3743
-61.5096
-37.3214
57.8675
78.7837
50.7282
19.9571
-10.8948
-4.73897
-15.9856
-52.7242
-70.2577
2.5514
22.3385
-7.66177
-19.0605
-2.49952
7.99499
-0.952219
-11.6419
-29.2223
21.801
66.1471
-12.3467
-28.8153
-0.257251
-1.45519
-15.0115
-26.8093
-32.3475
24.8854
33.6333
22.375
18.7603
8.08908
6.3967
-15.3679
8.13629
30.8468
11.347
33.4138
33.2982
11.5659
-15.1833
-41.0738
-0.0151535
-8.43639
-20.683
-9.27657
-6.47014
-30.7563
-16.6318
-56.0293
-57.0817
9.59532
44.4963
36.141
27.0085
14.4768
6.8975
5.4901
-1.55744
-38.0098
-0.830957
13.6713
4.71856
3.54196
2.70285
12.7349
11.3144
-14.0531
29.5858
46.7783
39.1423
-6.13233
-30.3633
-6.22809
-39.5582
-72.8405
-1.40003
6.31534
-4.44174
-4.7311
-28.9812
-15.9686
-30.2046
-28.7259
38.1032
36.2533
35.8927
40.3743
10.767
7.58905
3.37465
-24.1419
19.6299
25.5009
20.2292
26.4431
-6.86475
-8.88083
-9.50271
-58.899
-76.7886
-15.6285
51.1858
39.6142
-13.1105
-13.8887
-1.13197
5.15644
-23.4806
-5.61462
50.3
59.0472
36.9658
10.9135
-15.469
-28.1002
-53.4504
-57.5123
4.72391
15.7252
4.85542
-25.628
-53.9507
-25.5194
-40.8019
-38.0956
78.8291
89.2026
71.375
44.3094
10.7937
11.6957
-30.7909
-48.6723
11.7055
-4.61604
-21.1712
-8.1151
-21.8105
-9.83476
-16.5237
2.47632
32.4773
21.1353
26.8792
38.4982
-0.914474
7.30872
-10.5114
-46.136
-21.657
6.34501
-11.6648
-9.30561
-18.7618
-5.9537
2.15247
14.7656
-18.6751
14.1625
26.9151
-8.18741
-27.1602
-7.8531
17.0201
12.0688
-50.0443
-47.1019
-7.94902
3.99639
-8.59899
-14.5494
1.6448
21.0251
-10.1879
29.0704
39.1589
65.6507
57.6304
38.094
28.1049
24.8158
4.69797
-9.15696
-25.3267
10.3249
-11.7209
-34.0514
-28.8438
-13.6235
-22.0199
-39.7523
-50.8443
11.3315
35.0259
28.0518
22.0767
-18.1463
-19.7448
-20.6817
-28.2995
4.41877
30.8807
24.3223
11.4936
-11.3353
-9.92517
-10.3544
-10.2741
-22.8326
-47.7042
-2.88802
18.6333
-21.7008
-16.3758
-14.2483
-6.84681
-5.23655
-5.81367
40.4768
49.5088
43.433
33.8981
45.2494
46.5532
11.2893
-11.9603
22.4352
25.0348
4.3732
2.03585
-21.5363
-29.9373
-45.507
-62.9294
-24.5238
-24.6467
-37.1521
-15.1678
-26.9408
-9.5732
-8.03169
-40.6376
-4.53359
4.1817
25.2027
46.4603
22.182
20.4368
32.0704
-1.37427
5.89307
68.3471
61.8476
63.1791
22.548
1.1613
3.61566
6.94921
-6.66211
-49.5289
-31.3439
-11.8643
-9.88589
-11.525
-23.6088
-27.0637
-31.7283
-39.1227
-34.4998
-28.4027
-7.5739
-27.1061
-12.415
9.61787
9.84858
21.662
13.4072
-1.19567
31.566
41.3526
17.7863
14.1857
-11.0865
-9.91499
-20.4926
8.47923
26.8078
16.2848
12.3893
27.7314
-7.35231
-28.8617
-44.6414
-4.6459
4.71864
4.50339
14.226
17.6045
-3.99206
7.3318
4.70348
-11.9844
-7.50229
43.4847
39.4097
18.1624
-1.94767
-8.64788
-13.3327
-7.35473
-29.7385
-16.3459
32.348
4.04543
-16.6803
-17.9004
-10.8462
-10.9132
-47.4697
-19.9353
-0.263904
-3.36901
-15.6699
-29.8796
-9.07348
-12.6459
-49.1689
33.0901
61.7406
45.1179
33.3678
5.78386
-4.50573
6.39967
6.20551
37.7578
28.5605
17.0404
16.7643
1.76848
-30.3077
-39.7002
-56.767
-12.942
27.9524
19.2007
24.304
-20.6549
-27.3904
-3.13792
-3.8293
-64.2824
18.5698
57.6268
33.592
-1.8179
-11.5418
-2.65033
1.7619
-8.53373
-22.1894
-31.3154
39.3091
18.7029
7.0626
28.1743
34.409
-8.32582
-19.7278
-19.2199
-30.2732
50.6328
-15.1796
-46.2836
-20.1224
-12.8209
-8.62851
-28.7084
-11.9948
49.5077
46.7946
46.8253
14.0099
2.05899
-14.8878
-62.5596
-57.8059
20.3796
8.52494
-11.9726
-0.895616
-6.99901
-23.2421
-40.8843
-43.2443
67.1564
84.4007
81.9504
69.9489
26.4326
2.74897
-16.9577
-63.7302
-85.9371
-42.3876
39.2483
13.445
-32.5827
-25.2386
-3.82512
4.43445
-8.83505
-31.4081
23.1535
41.4084
-30.4309
-33.3754
2.7075
25.7948
10.8635
0.08635
71.1254
85.472
50.6436
4.38694
-31.1659
-20.4559
-44.8192
-69.4624
-30.9921
30.162
19.8723
20.4327
-19.3351
-16.3816
-8.72157
-26.0938
-71.8597
4.89713
52.2769
39.1679
3.45656
-4.25836
-3.41588
-16.4797
-73.7205
-23.9042
70.6121
59.4373
26.2925
-6.53246
14.3874
27.1903
18.0191
10.9277
-44.2442
-44.3745
40.6195
-26.6459
-53.7201
-12.716
-9.65475
-9.09314
-27.254
-40.946
80.1588
50.1588
-10.3672
13.9072
28.5246
11.8841
-16.4595
-10.6923
25.6504
15.3516
17.7483
14.3867
-28.6639
-42.1751
-64.218
-13.3125
12.0669
7.34945
23.6595
37.2505
-1.90898
-6.78251
-52.1161
-17.4422
38.2675
20.9244
25.244
13.307
-21.8742
-14.6463
-32.5681
-13.5978
60.6756
31.9226
17.7266
-12.9826
-21.6594
-4.36508
17.7045
4.65804
-39.1669
21.171
36.6624
17.7086
-28.8837
-20.5634
-17.7067
-38.1387
-61.8684
-54.7545
-17.2667
47.2509
-19.0694
-19.5403
-10.1684
24.9228
34.8155
13.2323
7.11613
48.4067
56.2689
27.0633
18.8675
2.15138
-18.4103
-34.3936
2.08905
31.9839
21.8556
5.90912
-6.46626
-44.2314
-51.2941
-68.0605
-5.59417
43.7301
14.7662
14.5824
24.4935
28.0616
30.2039
-14.7057
-2.32333
38.4189
11.8636
13.8393
0.225528
-6.66487
-8.66962
-25.2539
-66.6698
-22.7539
9.25025
32.0149
4.46636
-43.4699
-33.8746
-16.5044
-31.6268
-68.7523
-4.11899
26.359
16.5366
1.67533
15.4778
31.9317
17.9036
-17.2475
21.642
28.8917
49.5031
16.929
-0.167389
12.8799
-9.62798
-37.9954
5.27614
12.6649
15.1706
16.5759
-23.7955
-22.3311
-36.9961
-28.5162
34.2564
49.7797
25.9306
17.9519
-2.79947
1.0668
7.14927
-33.1101
5.45516
12.365
4.14572
0.980855
-17.4446
-18.6535
-11.4753
-11.3464
-72.1442
-37.6744
47.7572
32.4086
-7.68815
-26.5512
-20.051
1.48626
11.2953
-11.8552
-13.7208
50.2666
42.6848
8.82278
5.23847
4.03703
-7.7842
-6.28724
-39.2168
-23.2856
65.9844
25.7111
-13.6008
-11.3293
-8.36452
-9.14329
-36.7653
-10.014
37.4705
48.9427
38.5704
-12.1393
-49.6992
-25.1466
-43.0116
-31.3049
42.0692
30.7684
56.6037
34.8781
-13.3654
-17.3797
-27.4899
-36.7326
2.80961
17.6279
27.1401
15.9615
-19.0428
-16.1482
-0.333265
2.66828
-38.1683
-12.2635
40.2155
21.8665
-35.3103
-32.8229
-19.0523
-0.909229
-1.36228
-12.4812
36.2437
26.8022
-8.71619
-19.2643
-0.912832
3.72849
-31.2364
4.60355
64.0951
43.6701
62.368
65.3907
28.6134
-7.37248
-57.7402
-47.2093
-39.7477
-35.35
-10.9858
20.2941
8.30864
8.16634
-21.7173
-45.6893
-63.8361
-18.4742
31.3951
4.19035
-26.8882
-19.9467
-9.11842
-10.1052
-18.7187
19.7988
61.8898
56.752
42.1165
44.6088
40.0179
11.056
-46.3027
-44.3357
6.31186
46.0965
26.7564
-14.6644
-21.5803
-6.59361
-17.1343
-46.3408
-34.3501
12.7478
14.0399
10.7593
-6.05084
-2.19248
-3.56793
-44.2058
-11.735
10.3554
22.453
18.8167
-5.80291
2.93018
21.8786
-7.59838
37.8826
14.1919
-6.03678
10.8011
9.51201
-16.9309
-19.9847
-38.1404
23.2275
6.96715
-15.1274
-3.68586
-22.8401
-4.65326
-5.14257
-16.3409
-35.4266
33.1655
51.9092
40.767
0.30648
16.3099
6.70845
-7.99758
-39.0096
-69.6324
-6.08827
2.76721
-29.4106
-4.97719
36.9188
62.2268
26.255
-33.7535
34.6621
82.7456
44.9742
-25.1546
-29.8455
-14.1806
-38.1384
-46.7146
-70.2647
-40.5116
15.0419
16.4412
3.64143
17.2974
5.16059
2.72179
-20.0256
-3.24451
21.7155
31.6247
-1.98822
-5.29016
22.46
11.8271
-24.592
-0.590599
13.9802
5.73616
21.1302
12.7506
-2.88624
-33.7807
-49.7554
31.307
14.9137
8.82122
9.08314
-6.10558
-13.4379
5.42979
-37.0186
-37.3099
19.3745
5.82376
36.1168
39.5424
13.9319
8.83589
-5.22662
6.65198
23.5307
28.5541
19.3564
-40.5729
-42.9018
-39.8941
-49.5449
-2.14667
-2.97694
0.901783
11.7626
6.10561
-11.0372
-10.9653
-15.6411
12.0669
7.28928
15.4324
29.1105
4.58278
-24.2679
-35.185
-30.7039
16.6802
41.3895
27.9206
50.8781
37.4547
30.5144
-0.533731
-26.9542
7.02317
-41.8295
-58.3812
-31.5239
-40.0391
-28.7727
-8.84429
13.2757
-18.4394
-15.2087
90.4327
76.5332
31.4717
22.1078
30.3557
19.3069
-31.0421
-65.82
-20.6242
19.5956
30.9143
3.21666
1.00271
0.328542
-14.8391
-30.4618
-58.2375
-3.7542
22.9127
8.78258
-32.4994
-15.5296
-9.67378
-37.5916
-49.9625
29.243
29.5859
30.2697
17.07
3.52607
-19.9877
-25.5935
7.45077
67.3821
39.712
13.0996
18.1384
-2.75245
15.8994
23.6196
-27.2574
-24.797
1.75484
-5.53042
3.48522
-31.9464
-24.3035
-3.7827
-8.59724
-22.5481
-29.2499
55.2439
46.9634
12.1499
-5.59443
-5.93071
10.2632
-11.001
-33.7515
16.8356
19.8632
14.5188
-15.7886
-6.83589
-9.00309
-47.7521
-21.5112
4.90668
4.45482
13.0594
5.84614
-16.3636
-13.5354
-34.8723
-12.6739
21.7581
13.0749
5.56613
19.7212
-5.75262
9.37702
24.4282
13.0086
5.00721
31.5841
51.4894
21.9974
23.2784
17.7788
10.3332
-9.53824
-54.3882
-6.5834
-21.7276
-38.5299
-21.6419
-9.35859
-8.20356
4.29406
-25.4491
-55.0985
21.2982
32.7432
23.64
-3.64343
-17.5996
-19.1955
-33.4969
-41.1612
11.9632
24.6391
45.3484
11.8355
7.93681
10.9058
-10.368
-4.70881
31.636
15.6844
12.3162
38.643
-7.02879
-26.7151
-37.449
-3.71038
37.1213
27.5477
8.43909
15.0947
-10.6495
-35.0739
-53.5529
-10.9911
19.8218
14.587
23.9126
24.1738
-10.4028
-17.784
-44.8241
-59.2116
-25.4064
-20.1583
11.6697
41.1929
58.0494
59.2433
42.0991
28.1391
-45.1163
-22.3293
36.1515
-16.2205
-32.9077
-23.7374
-36.1183
-37.2922
-79.5623
-49.5143
2.78852
100.938
77.3904
42.2705
31.5229
-5.84377
-46.3005
-40.1904
-51.2737
-51.427
76.1317
56.4678
31.8133
24.7234
12.4177
-1.89916
-27.2757
-32.1006
69.5025
62.7282
26.8967
-34.4803
-73.6951
-64.945
-47.9863
-41.7494
-8.40469
-7.97176
15.5238
38.937
-6.37265
-2.2598
-14.405
-52.7514
-24.0052
29.1003
52.4744
53.4
31.5882
25.1613
29.9937
19.7188
-24.6333
3.51432
26.6663
5.59278
-14.3089
-10.8897
-1.91714
-6.98633
-43.0988
6.36152
17.3644
19.0275
4.37766
-15.3911
-10.3089
-33.025
-43.1869
3.32358
-0.276149
-10.0696
6.91901
3.89461
-10.6487
-39.1754
-20.9936
22.4505
14.5426
13.6745
15.8402
-6.32241
-12.1863
-24.6438
-7.81362
61.8293
39.3453
31.7181
8.90158
-16.9611
-19.4302
-64.7689
-18.5425
54.878
37.6863
45.8154
11.9505
-33.1716
-24.7575
-30.0196
-29.9438
-26.8806
30.4411
59.6329
18.7992
-28.6956
-10.4857
10.3968
12.8652
-6.18161
-32.5985
25.3158
50.6078
-8.2509
-16.5574
-8.54201
-21.1427
-26.938
-34.1536
-21.9871
16.3819
22.3228
-10.1833
-10.6331
-2.66024
-10.7519
-1.16002
-4.02017
47.0947
46.4903
43.751
10.8205
-34.5363
-46.6901
-42.9473
-64.3977
18.44
24.1856
19.7116
24.0991
13.5372
6.65411
0.979873
-27.1914
-3.8525
37.6576
32.8448
23.3333
-23.1865
-21.0519
-1.19644
-5.07706
-25.2933
-45.0969
26.7758
57.8169
3.75162
2.49634
9.51067
4.34759
-10.2895
-23.7179
-1.04401
23.8174
25.4924
-14.7266
-18.9998
-18.53
-41.7251
-7.87251
30.8747
39.1647
42.6361
37.3937
-18.5631
-33.657
-88.9091
-25.5216
46.9372
18.4568
-6.21474
-8.79622
-22.5575
-2.72334
-9.08184
-28.3055
-49.7165
17.354
36.9876
-2.56761
-32.4359
-29.1579
-19.2117
-21.5257
-41.3558
47.1952
102.465
63.5974
20.3603
30.6655
37.3556
28.6437
16.4776
-15.3638
-4.37033
0.953443
11.0615
-16.4345
-25.5436
-21.6908
-18.3063
-46.3451
-4.22753
23.1916
40.5084
-2.58479
-25.2444
-28.613
-45.6389
-31.9508
16.284
19.0719
20.6685
11.4217
-17.6003
-20.2589
-31.1248
-22.8122
20.8221
23.8838
19.9882
17.2879
-0.0681085
13.919
3.71775
4.14774
31.9921
13.2166
5.26457
7.3956
-16.6313
-18.91
-40.7051
-51.7487
12.4164
53.1419
36.905
18.5527
-6.74928
-17.0979
-14.2762
2.93942
-40.7519
-10.1
21.6743
8.75992
-11.9401
-7.85159
5.20393
1.33209
-51.0971
-41.5059
24.6533
59.657
22.2863
-10.4685
12.6118
2.757
-0.675994
-11.033
-55.4331
13.8013
75.0527
16.3413
-12.5717
-9.93485
-10.058
-16.8317
-30.7266
46.4324
72.8526
55.8473
11.3052
0.849169
-30.4205
-69.3234
-84.2227
-6.46556
-13.8859
5.81693
43.9232
4.1983
-30.1858
-18.601
-42.2583
-23.8474
42.8606
39.2671
24.7135
-31.483
-28.3285
-20.6848
-21.7413
-25.8289
-21.5862
60.8252
74.5777
49.3523
54.8771
29.4642
6.8135
-41.2318
-41.6482
12.8204
25.98
14.6327
-13.2931
-16.9707
-18.0516
-48.228
1.61786
14.2411
-1.28871
2.95991
10.2762
-12.7519
-11.1828
-50.3693
-1.98979
9.44756
24.8876
35.2954
17.7394
-22.3716
-66.6169
-70.261
-9.29961
24.0426
31.8677
35.8861
17.288
7.55563
10.835
2.10079
11.2168
42.1602
44.5162
18.318
-23.7949
-23.0983
-15.8352
1.95779
-7.87237
-33.7987
33.4548
65.9621
-4.01605
-23.5754
-15.5459
-9.17518
-19.7928
-27.8701
-62.0984
-23.7463
17.458
-18.0509
-7.53792
4.49099
-7.70237
-1.67729
-12.3942
-26.8807
43.8286
59.5815
42.2012
-5.43468
-26.8889
-16.2631
-9.27762
-2.60216
45.1121
47.4116
89.9234
84.7268
12.2175
-41.9829
-95.8432
-70.3024
-16.6708
-26.7844
-1.7843
10.7441
-29.1599
-8.98715
-8.76211
28.85
35.7029
21.3495
24.6023
9.75792
-37.5288
-33.7828
-32.7619
-67.6154
-31.3439
1.33699
29.6191
32.6095
3.68118
4.32184
9.11704
-5.68407
19.7235
-3.2686
-3.09842
-16.0078
-21.1172
-0.0744077
4.4756
22.2715
38.6616
23.4331
19.785
36.17
17.2262
11.7086
-8.30958
-26.0662
21.8229
28.565
11.2881
26.2908
18.292
13.197
3.61597
-37.0442
-52.3687
22.2878
3.33334
-10.7574
-26.4263
-28.1419
-42.3233
-25.2495
-43.7526
-61.5543
14.9806
36.7769
33.5416
11.148
0.188389
-1.64334
-25.8191
-23.1234
-40.0205
-13.8363
46.8889
-4.93431
-2.63189
-2.71006
-8.35908
0.733374
-21.6632
11.7311
57.2879
60.3217
42.558
20.7113
-27.9413
-33.199
-39.1495
44.0942
24.4215
7.46224
30.8491
24.6629
-12.4821
-41.7075
-34.9357
17.6711
1.82952
7.49338
45.7997
36.0831
8.53052
-24.3939
-37.4617
16.7991
-10.1539
-11.1024
0.46078
-31.025
-16.3374
-5.19679
-33.0057
-25.967
1.59418
12.5099
9.11498
-9.36641
-7.2546
3.61102
2.467
-32.709
-56.1816
22.3453
19.2459
-16.0572
-8.34556
22.7552
37.1423
-7.26654
-47.8994
16.5659
66.0551
51.3516
20.5591
7.76732
12.5872
0.955209
-16.8467
-36.6955
15.4437
26.3814
27.7254
3.56637
2.23601
-19.7858
-32.8551
-42.9793
22.4541
22.8644
25.4458
-6.83762
-13.7572
-23.6776
-42.142
-46.8319
35.8584
20.2401
18.3436
27.995
4.49152
-3.75336
-16.0032
-48.7991
5.11688
46.3829
15.0213
19.5652
-21.0138
-37.5125
-7.27492
-19.5994
-40.5441
6.25762
11.9363
11.0236
-23.6573
-8.21926
6.2537
-8.58622
-37.7981
17.85
30.9077
29.2734
1.44573
-28.1559
-2.93362
-16.1773
-1.7739
26.1181
25.1608
28.5617
40.1536
21.871
25.468
1.55098
8.92533
7.98304
-1.81936
-0.622483
-7.73846
-32.9868
-26.0514
-18.3514
32.7391
49.6054
28.2861
17.6765
-13.1119
-26.8123
-25.6924
-55.4423
-78.9708
-17.0849
8.94362
-1.21044
-29.8746
-28.7765
-8.46089
3.09639
16.2971
-20.8937
3.18442
94.313
47.3244
4.02658
-10.4323
-7.13727
-8.48958
1.91486
-3.36673
-0.764648
50.9964
2.85354
-27.1804
-14.4827
-16.4573
-9.16385
0.663394
-17.8048
25.3818
74.0402
39.4088
-12.1116
-37.2815
-40.5962
-9.25577
-9.80139
-13.5032
-0.997904
-7.84652
0.683503
7.50355
3.7374
15.1822
13.0682
14.1996
40.9594
29.6841
18.811
-13.3493
-42.9048
-26.1197
-25.0646
-42.5173
-33.2937
-1.70143
64.8548
49.5859
18.751
11.15
5.4921
-6.76844
-46.3021
-61.1527
11.2195
-4.18452
-31.301
-12.8058
20.3313
8.76035
-35.1376
-22.368
29.1861
39.4575
24.5765
-0.567303
-16.2357
-17.1021
-42.9707
-4.28899
49.7098
35.0543
31.6722
39.0237
29.874
24.7267
2.73051
-42.2256
-24.2537
1.98547
21.3994
24.2084
-26.0826
-30.0397
-25.546
-14.7166
-39.417
-25.4949
42.8534
21.1791
-7.81273
-1.42354
9.35439
-8.71752
-52.9343
-35.4118
11.0047
81.8218
40.5293
-4.56922
-9.33743
-16.2718
-24.9022
-17.5902
-39.9516
5.38726
26.8192
29.9741
18.089
12.3081
-11.9914
-22.5008
-18.8918
46.2756
45.0993
26.3717
-11.2641
-53.3355
-50.4
-53.9917
-31.0328
46.8038
63.6978
50.6949
54.0955
8.15409
-11.5413
-36.9593
-61.8696
10.2713
6.07753
11.6523
4.49642
-30.3188
-20.7198
-26.8701
-46.9541
17.5875
40.4329
47.6435
34.6319
-4.36687
-22.2734
-30.548
-72.4313
-49.3589
47.7768
79.1972
51.2054
-6.00181
-8.00273
-8.97871
-5.88621
-23.9034
-14.6502
38.4076
38.6109
-2.42835
-11.2075
-6.04952
4.81859
-35.1172
-70.9722
7.28462
59.4063
32.4166
-21.3134
-26.4368
-12.5306
-12.0182
-26.0435
-22.4944
55.5879
54.7015
26.976
1.67866
13.8353
5.94479
-6.71887
-40.506
7.11117
16.0582
22.1958
-21.4713
-23.5788
-15.6731
-45.5517
-101.566
-30.1937
36.1044
44.837
48.6709
29.8847
37.8116
52.1018
33.3648
-24.4426
-34.2713
1.75263
34.9495
-3.90447
-15.6612
-7.74542
-18.2309
-15.7171
-29.9093
3.01722
22.7476
-10.1964
-39.3323
-16.4444
-7.56218
-40.3087
-40.3876
0.442546
-9.08255
13.9094
15.445
13.9763
4.84955
-35.687
1.2835
51.6792
42.1898
33.1286
36.9267
16.1127
38.0261
9.13555
-4.53351
31.1324
6.48607
-11.1793
-22.245
-41.9724
-31.6522
-22.1575
-21.8094
41.955
40.719
43.2459
13.4316
-29.6796
-33.046
-38.0915
-55.0868
-26.3002
25.6453
30.7587
4.11774
-20.7982
-12.6291
-13.0384
-13.3019
-46.7718
-90.8126
2.08069
51.4048
0.556837
-2.6791
27.7402
58.9137
72.6913
19.5991
39.4403
59.7183
15.6302
-18.1196
-18.2968
-14.806
-24.5439
-46.4032
-25.642
25.6268
33.3379
61.8404
10.4156
-39.7151
-61.0759
-74.5348
-38.8534
-33.5824
-37.1425
4.6103
7.01649
5.95538
11.6692
-3.77167
-15.0584
43.4456
39.9823
49.0778
43.5623
7.92793
6.65814
16.8535
-10.1869
-21.8877
5.26933
74.4551
41.7302
13.8114
-10.9774
-15.8039
-24.9583
-59.9598
-29.5589
-3.04786
4.49204
-32.9657
-32.4744
-15.4653
-26.751
-56.7207
-12.661
2.99616
33.0816
42.9257
26.9547
28.9023
10.6193
-10.2524
44.4523
55.0516
30.2357
20.6444
-9.45796
-14.5951
-29.6778
-92.6773
-18.8462
6.08069
0.0834681
6.51982
-12.6815
-11.7202
-3.00262
2.20539
-27.8893
-73.5987
6.04747
21.3229
-1.60466
1.35889
8.38488
30.7343
33.94
-25.7959
-15.6653
69.0769
49.0809
38.5741
32.2726
14.18
-0.993804
-2.71022
-30.4884
-75.2876
0.117924
52.0076
6.98159
-0.251388
-21.0733
-24.1909
-12.7075
-25.6
-4.73961
38.9354
24.5247
-1.75247
-24.4848
-25.287
-5.53391
7.10581
25.567
17.9492
26.7335
42.3506
2.36375
-28.9509
-64.5774
-79.9282
-16.515
-8.97981
-5.55624
-3.36416
-16.7381
-5.97301
3.97685
-29.6335
4.05599
42.1159
23.2902
20.7066
6.14038
2.47295
-1.02252
19.5353
-4.06608
0.808473
62.7072
63.4854
3.40612
-3.68294
-1.989
20.0969
-1.3516
-46.3878
0.502957
54.9694
12.5931
-28.0968
-28.2105
-6.85467
-3.5735
-42.7476
-35.5822
22.6427
22.8318
2.9261
-38.1246
-33.2393
-35.3502
-23.7261
-45.0754
-35.1795
36.0604
53.6516
41.3861
35.8403
21.7928
3.61937
-6.38913
-48.6257
-2.33521
51.8451
43.7753
5.0118
-1.20597
-18.027
-26.8506
-23.8775
-58.7388
-19.7861
57.8731
44.1404
-5.43092
-3.04818
-15.1644
-33.5851
-16.3886
-22.9133
13.353
40.6563
5.2968
10.4162
8.63917
6.40845
10.5027
-2.74773
26.3568
67.709
65.0341
13.8412
-38.8733
-25.3954
-33.0535
-52.4673
-29.9538
-23.987
-38.2008
-18.1115
-14.6335
-1.8726
-4.89032
-41.782
26.3747
55.5501
62.2342
53.0337
22.79
-8.33965
-18.474
-41.616
-28.3821
23.1408
9.38194
29.6514
9.82492
-11.8844
-18.7174
-7.74412
-19.8402
-23.5262
30.2167
44.2723
-3.6383
-46.511
-51.9365
-28.3908
-18.6096
-20.8546
-26.6418
15.6571
61.129
17.2745
11.304
21.0909
17.759
22.9156
25.8715
0.845635
-45.3164
19.3251
15.5674
11.256
3.47705
9.33469
18.8952
16.2466
-23.9186
-18.6377
14.2219
9.34005
-14.7697
-14.1738
-4.4404
3.41059
-11.7714
-35.548
-5.33543
-2.26615
34.7671
-0.447246
-31.7671
-19.0961
-40.6185
-63.5992
-1.47721
16.3362
23.0434
16.9124
27.019
18.5564
2.22886
-28.079
-41.023
2.86604
41.0441
56.3937
27.3968
21.9052
11.8183
-10.5994
-34.0282
-30.2668
25.0574
46.5264
14.3213
2.94684
6.90824
-0.495505
-28.0988
-41.9158
20.7261
24.8333
4.97608
-28.8411
-27.9925
-15.34
-39.5785
-52.231
33.0314
35.0373
16.3172
2.81934
-17.783
-13.9067
-36.2736
-28.6599
31.3567
25.1489
31.3901
34.6864
-13.4158
-2.80912
5.43745
-17.0066
19.2069
25.1089
14.3261
28.07
-6.6378
-5.2889
6.10806
-5.99669
-50.9187
-49.9796
40.585
37.0422
-0.682045
-12.2745
-7.29079
6.81734
-0.0840717
-0.156634
-51.1811
-31.2909
25.838
1.94202
2.32476
4.15342
-10.3269
-13.4283
-13.5193
-22.0625
49.391
61.4816
-11.2696
-16.6632
-2.8515
29.4174
9.663
-44.3767
-4.85019
14.532
41.1842
30.6483
-39.3428
-29.9437
-32.5214
-46.7156
19.1586
27.9547
18.3918
31.3468
5.99016
3.18734
-13.0245
-46.0135
-51.7907
16.0368
18.3119
20.753
-10.4448
-9.72063
35.9783
43.1632
-0.577882
-29.753
7.52723
45.8137
-12.7036
-23.3444
-13.5037
-6.05484
-12.8625
-43.3019
-17.8049
77.7591
75.3816
10.5829
-7.74305
15.015
10.455
-19.4991
-26.83
-7.0512
-22.6946
-11.007
-16.8947
-19.3048
-17.4677
-26.6459
-53.7593
-7.38021
54.9044
43.4566
6.98608
-25.1017
-16.9251
-18.1983
10.4089
-5.77817
-22.918
44.6803
63.7118
20.1429
6.85482
-6.71781
-18.7641
-19.0951
-10.6349
-22.0578
31.7207
62.4098
12.4271
16.2209
-3.35659
-25.8505
-21.7659
-42.5317
-50.4432
39.2491
14.1143
-23.9602
-26.41
-16.9883
-2.53399
5.44245
-4.4521
50.3499
54.6031
44.889
26.0978
-19.0209
-28.9265
-13.7558
-27.6547
25.0367
-23.4927
-34.155
10.7143
0.674057
-11.0171
-14.8109
-21.9481
39.513
28.1943
24.397
33.7873
-10.965
-37.4652
-34.3532
-48.1727
-20.5719
-3.66481
11.6528
21.6259
-10.2622
3.11837
19.687
15.167
-21.9678
17.2178
33.6174
22.1207
-15.557
-14.2938
7.21833
21.203
-10.8706
-49.4509
45.1304
56.3451
19.8439
-7.95817
-16.7645
-17.1708
-56.7304
-55.7443
-6.9567
37.1914
40.902
26.1091
10.3227
-2.77995
-15.7137
-3.12819
-16.7743
-0.380721
16.197
32.5135
2.44998
-11.758
-27.5023
-27.5655
-33.2871
21.5115
33.8043
35.5063
7.70638
-24.1931
-24.8072
-37.0085
-64.8172
-46.0144
16.1209
23.9556
7.26337
-4.28621
25.9585
57.4731
32.7308
-20.797
-12.39
46.6186
34.8235
8.16295
4.20657
8.1967
-0.8415
-22.9164
-47.2261
13.7386
23.8391
17.1646
-20.8308
-24.0943
2.66473
-6.18903
-67.5277
-36.1435
16.1325
38.1034
21.9004
-18.0345
0.731137
2.72094
-25.3557
15.8716
14.0187
7.17085
19.4157
-6.33483
-1.02228
-3.91717
-34.0849
12.0035
12.0148
13.0906
25.3135
-16.4087
-34.1439
-14.9129
-23.5535
-18.9618
4.14512
52.0012
63.1325
24.9384
9.14957
9.17118
22.8617
-16.654
17.0718
41.7211
11.0119
-22.966
-26.6838
-34.3715
-17.8969
-18.1202
-69.3232
-61.7219
22.5959
12.1294
-1.27726
-29.6212
-21.7656
-9.66093
1.38548
-20.7321
18.3252
34.3631
2.84576
11.8878
39.9741
18.2926
1.45805
-20.0411
30.3472
23.9872
15.9693
21.9095
-6.67558
-4.98998
-14.2454
-21.1186
33.7585
26.4205
17.0514
23.0586
-2.94195
-4.58168
-41.335
-53.9673
-56.6687
-6.42794
58.8002
51.0552
8.65642
-1.19215
-6.73417
-10.6805
-58.9581
-42.6456
6.19291
3.37966
-18.9555
-9.43663
-6.94273
3.87436
-19.6007
-45.4234
49.2236
30.8763
33.7475
32.3745
13.3327
19.5372
-26.5481
-43.9164
52.3254
67.5268
46.0033
14.8356
-3.83968
-11.439
-30.7599
-69.5351
-13.8387
0.114889
5.76869
20.153
-20.3238
-26.0732
-22.0145
-44.1429
-32.1436
19.2515
38.8272
36.5088
-9.89407
-11.6191
2.74264
-4.11277
-62.1348
-44.7237
56.4999
67.1622
7.37496
-3.35122
7.06533
18.6074
4.72186
-21.1691
0.619337
17.6766
-7.99243
-27.7693
-17.6516
0.467153
2.38699
14.6251
0.222498
26.9505
53.0383
27.6371
-20.0809
-13.4096
-10.8637
-8.71976
-33.8576
-5.93947
0.902419
17.7501
11.4798
1.53489
6.0639
-0.52943
4.63866
49.061
0.481192
-14.7842
8.66048
-11.4706
-20.1316
-41.7073
-53.8805
6.68816
2.44909
0.204041
10.0444
5.19956
-2.62386
-42.9099
-60.2581
7.84908
13.4723
14.6349
17.5932
-4.63815
1.11214
-7.46545
-14.3058
-43.8432
24.8026
52.3442
61.0264
29.2211
23.6668
12.8987
15.5414
25.1565
8.36421
48.368
53.8066
-2.1955
-19.7702
-21.2251
-27.3113
-58.0124
-96.2311
-66.924
19.8934
35.7097
8.68541
3.74392
-30.278
-31.4712
-14.5341
-34.5849
8.02899
22.7433
15.3775
14.9226
5.14962
-15.9169
-13.6121
-26.7324
-9.83204
42.4594
59.2286
51.6619
10.8335
9.92642
10.2607
12.1071
-26.0841
-7.53889
30.4988
40.4624
20.1108
-1.41649
-13.4555
-24.0978
-29.7473
-69.8769
-28.6906
10.3891
8.78588
-5.17928
18.4342
9.10958
-8.57762
-23.3022
-21.0563
25.9812
27.0258
-12.6262
-33.5042
-16.6125
-15.4721
-50.0178
-28.955
41.9779
38.5316
56.5244
27.6554
0.217099
-13.1008
-55.2224
-17.0824
42.0571
33.5981
38.3527
9.67258
-18.323
14.7951
5.57259
-4.39476
31.474
3.07849
7.88209
8.24882
-18.1542
-10.8416
-18.2345
-63.4008
-73.2271
2.09234
57.5219
28.8351
-2.03615
5.95986
30.2855
23.6834
-24.5324
-84.9789
-16.0385
4.25495
6.37268
-5.39686
7.86582
37.7297
25.8665
6.35038
-18.7132
1.59217
48.3394
-4.11351
-11.5642
-4.02323
-28.5879
-33.5807
-49.4263
-7.41344
15.8836
34.9481
14.6462
2.78379
-15.7674
-18.6757
-54.8587
-2.6844
24.3096
20.4586
34.5608
36.6322
31.9177
30.068
-12.4496
4.77985
6.76835
-13.0252
1.3385
-7.38992
-8.05768
10.5932
-5.70358
-32.7863
-18.5686
15.858
36.1197
6.18507
-14.5463
-8.16262
1.21911
-15.7751
-40.9761
-9.32594
26.4232
-4.48502
-3.51003
4.79109
3.53712
-4.83834
-7.58597
44.243
30.013
22.2125
1.01187
-24.5576
-19.4351
-60.1714
-94.0898
8.41038
34.4619
37.9298
40.5567
16.8454
-8.34484
-25.5115
-59.6923
36.1979
51.5775
18.5021
8.14989
-13.4273
-25.5089
-23.7705
-54.3489
16.7395
63.5875
41.8666
39.1723
-8.15407
-18.5183
-13.2988
-7.75283
-36.5732
-29.0359
23.6813
32.765
-19.8702
-30.1295
-30.8579
-15.9441
-22.4001
-27.7452
-9.68069
70.3048
43.9463
23.2163
39.1983
36.6638
8.58046
3.50819
-2.32312
-1.79821
-2.01332
-16.6188
-28.3687
-14.4336
-36.4154
-31.6669
-28.7398
26.086
44.0665
27.8664
14.9971
-14.5662
-17.3687
-33.8748
-67.9663
16.2734
75.1099
32.7393
2.11058
-20.4245
-23.7504
-22.8634
-36.9808
20.9182
14.4203
-2.80206
9.87898
-5.72213
-0.740869
29.8923
29.7309
-30.3281
-3.80597
38.7198
35.8358
-16.1798
-50.1699
-25.5443
-0.783374
3.74818
-24.2543
20.287
20.3929
-13.3197
-14.2437
5.22255
36.187
13.8045
6.1717
28.3617
5.91079
13.8327
-3.5635
-28.5665
0.263795
-32.4013
-63.7006
9.60069
22.9776
8.49508
22.8319
-3.49494
5.99652
9.29372
-9.78463
-40.0314
7.76058
40.7621
10.8916
-10.9026
4.32035
10.5211
-24.0599
-77.7007
-39.6136
46.0561
24.6244
-13.0617
-10.8992
-1.80816
10.553
18.5425
1.77705
-55.6826
19.76
66.9808
15.1941
-2.23197
5.15524
14.672
32.2109
-9.14191
-28.2809
38.1408
40.2713
-13.1559
-17.7195
-24.4656
-21.478
-38.9861
6.34033
22.0122
-2.83194
17.918
-18.1467
-28.4229
-33.7143
-69.3356
-8.04568
1.39166
1.88164
34.7903
34.7468
20.691
-6.83283
-61.0681
12.0663
46.1749
28.9594
30.681
32.4157
12.5558
-16.4674
0.131459
-34.7583
-16.5798
19.5832
11.4037
2.67828
-6.7102
-28.1424
8.45186
24.1594
-16.856
-43.9399
17.8486
40.085
21.1899
-6.94636
-13.3075
-1.42159
-13.2393
-35.9122
24.0405
22.3882
15.5358
-1.83773
-19.4129
-9.76102
-24.1464
-29.7633
21.6548
10.5116
21.1762
26.735
-7.59683
2.27391
-32.5343
-26.0824
16.6135
8.78777
11.8135
7.894
-5.37457
0.482268
-31.9071
-31.1406
0.892369
-2.13175
9.27649
-2.30354
-32.483
-32.8382
-39.0959
-32.1585
20.2125
77.4186
69.2049
47.6375
26.3354
26.7353
17.6447
1.80711
-48.5878
2.32795
32.5363
-1.4111
-38.416
-20.166
21.6009
25.57
-21.4221
-82.8995
-18.9001
74.9489
37.6631
-17.9826
-12.0383
-14.3669
-24.4141
-24.0917
-59.118
-29.2663
64.1942
21.4131
2.28799
9.91333
9.49631
-1.21627
-40.9323
-33.4349
23.277
64.9339
45.2658
-6.19976
-28.2118
-29.0053
-34.1542
3.29685
4.71435
1.62561
30.8298
30.4808
-6.90446
-38.7762
-56.4678
11.1487
49.6153
20.1645
15.7595
10.2274
-17.8253
7.14203
15.9793
-6.20886
-3.54493
41.6141
31.858
-9.25076
-22.9093
-14.8457
-0.102523
-12.0806
-49.1814
6.62103
24.3759
-22.8891
-41.7197
-20.4966
-4.77405
-31.9869
-34.3355
40.7453
45.6532
35.8466
17.4147
-19.5913
0.465188
9.91594
-10.3952
17.7736
50.9888
31.1667
9.64009
-18.3139
-17.6696
-19.9617
-24.7519
-25.0097
-17.1418
31.6784
33.4093
-0.68806
-24.6687
-32.0504
-30.1033
-52.8122
-50.0329
10.8186
64.8466
31.2934
9.08562
18.6482
19.2506
1.46759
-11.9244
-43.4613
28.724
37.8756
29.4805
14.5848
17.3796
3.85343
-13.2249
-29.0678
24.0288
29.6576
31.5926
-14.2595
-48.171
-54.5096
-76.7587
-69.1956
33.4173
57.944
47.2674
43.6522
-6.8052
-6.06106
-11.2348
-36.2635
4.07051
2.09704
3.89346
10.5032
-17.7224
-7.63332
-12.5891
-36.9149
10.9705
11.6322
14.2105
34.1318
3.68938
-10.2284
-24.4085
-29.4841
45.5299
49.6174
30.3028
11.8684
-24.5249
-28.782
-18.5062
2.5643
-30.1049
-41.5486
50.3504
51.4162
17.6329
20.5596
18.1544
-4.98478
-38.8413
-89.6453
-9.88582
62.876
-7.96731
-20.5289
-9.64577
-6.60683
-4.01918
2.23425
-53.107
-18.1736
25.0693
53.813
22.5362
20.8478
11.0536
11.0739
0.384819
-11.0656
23.4672
39.6876
8.04703
-18.4836
-42.2813
-42.8614
-59.4359
-26.3561
22.4275
5.80751
25.027
11.226
5.62454
0.0970742
-42.5451
-50.5028
1.50802
56.74
55.5324
41.6981
1.23023
4.32683
5.98122
3.23224
-34.1482
-18.5123
59.3047
41.6949
-3.62603
-12.3276
1.48932
-8.19098
-36.156
-8.9962
21.3435
9.22317
-33.7828
-60.9288
-41.0407
-14.4203
-42.7887
-9.27395
47.1323
29.1959
41.8604
32.9729
-7.09982
-13.1142
-53.8982
-25.0225
47.8169
35.6004
21.1138
-8.82524
-18.5246
-13.1669
-48.595
-20.3727
29.0604
26.4558
33.2548
16.2541
-14.0055
-7.80649
-40.4843
-40.3082
30.2438
67.8947
46.4483
21.72
-11.1742
-3.30043
5.90562
-7.5217
-26.1654
6.11974
38.3523
8.57984
-19.9067
-17.0629
-13.8512
-9.7104
-23.1185
-43.925
-12.4937
55.0898
19.6036
-4.08787
6.06474
1.30728
-12.2976
-35.7473
-55.0015
4.47632
12.2192
4.54359
-3.9413
-5.02047
-1.84293
-22.9063
5.10861
37.0965
4.9755
14.6193
21.983
-9.52143
-30.5372
-60.9086
-10.9847
18.3957
13.3933
29.0262
52.326
24.1875
28.6836
-8.44849
-11.3121
5.63668
27.2956
44.7543
39.1267
14.8298
4.72669
7.01617
-3.16168
-70.8545
-44.7648
26.8871
-12.232
-35.2653
-48.3388
-43.7935
-25.8193
-38.9778
-27.5982
55.1675
37.0145
12.951
-11.1485
-9.14466
-15.8935
-48.2632
-22.5519
36.3798
37.586
47.3721
26.8185
-3.84638
-3.34538
-35.1199
0.44431
41.0733
58.5162
30.3741
13.3752
-14.8649
-4.66289
-8.69454
-33.3419
-51.9544
17.4569
37.2832
20.8878
-18.7801
-18.2636
-4.77748
-7.15781
-21.5372
-28.1325
11.9076
50.9859
17.9785
-11.3167
-13.3679
-13.3852
-17.6643
-43.1337
-27.6859
41.204
47.1519
2.28669
11.2808
11.3916
-9.21695
-46.3298
-42.7361
11.7614
8.49735
20.8023
23.7749
-6.76287
-12.7285
-41.0042
6.15031
36.8642
15.2427
24.5034
15.1841
-10.9425
-9.8039
-49.261
3.04054
12.7369
10.5049
31.4059
22.0594
-18.4468
-23.1349
-6.7631
42.2232
12.3542
6.82929
27.5602
-2.72814
-44.687
-54.7056
-59.5235
-24.9783
15.061
52.8785
50.5146
11.356
1.49233
-1.32817
3.97359
-24.0562
-22.5381
34.6342
18.0421
-21.4728
-20.5432
-12.9885
-3.02856
-32.8637
-33.9671
64.402
73.7358
33.2006
-12.1574
-25.9719
-19.3723
-32.1112
-41.1612
-50.9118
13.3787
42.0327
24.4369
-0.161562
3.1612
-6.9766
-36.7818
-36.6578
23.7111
37.7968
38.6721
-12.8439
6.96086
17.452
-15.7805
-12.2322
17.3152
8.30533
17.3768
23.8851
-0.50211
11.5502
3.71736
-33.245
-29.0792
7.31483
51.3507
34.3948
-20.7897
-27.6362
-27.8044
-38.0104
-48.2407
-67.2176
3.62085
31.0572
39.09
50.5552
37.8874
18.6173
-8.0805
-33.9094
3.11752
10.2396
9.13992
-3.98728
-18.5659
-11.8359
-19.8184
-22.2365
34.0643
20.3499
21.922
24.3959
-11.2688
-27.5714
-75.4396
-71.2985
19.236
17.8316
14.7933
32.8233
9.65345
-0.353492
-24.5919
-18.9918
20.1902
16.2947
15.7006
27.0366
11.9389
18.4626
15.9639
-13.7405
-35.9062
23.7112
56.2689
25.0126
-24.1441
-13.4093
-6.66877
-13.6095
-43.0094
0.514075
26.1586
15.1952
-17.1433
-18.2969
-5.01372
9.72044
-10.693
-25.3872
-31.0517
54.779
49.5662
-9.81958
-26.378
-24.6054
-41.555
-40.979
-66.744
10.5247
25.8241
13.4641
31.5882
53.1589
67.9154
25.2446
-46.6398
15.4605
42.7204
34.8806
22.597
-32.9208
-47.4047
-52.9005
-51.6551
25.4112
85.0254
96.6909
91.9588
24.3154
-7.85391
-48.7628
-74.7226
-109.832
-167.574
-84.4007
-24.5485
-47.3529
-61.184
-18.5174
39.8335
49.3278
21.4177
37.3038
106.495
79.5632
54.2442
82.6037
84.6432
39.7179
-15.2784
-31.0483
-31.8005
-88.4324
-43.3721
-8.21821
44.2709
56.4375
25.7874
14.8004
12.4872
-17.5694
-29.8818
-68.6174
-76.2954
-73.6349
-124.011
-140.106
-87.7862
-28.9896
6.44707
60.2553
94.1386
139.037
127.924
89.9287
39.8669
57.2713
93.5193
49.4254
15.3309
13.4562
31.2459
35.2613
13.0329
-45.9902
-49.729
-3.99796
-38.5655
-69.5998
-40.424
-25.0504
-15.679
-1.09066
-35.4569
-29.8617
-24.7791
-60.1967
-52.9545
-25.4964
-14.6439
-8.83916
-8.26195
91.738
68.0885
59.3517
33.645
-33.0733
-65.5345
-115.058
-105.743
-20.1839
-26.9071
-4.5059
38.5138
23.8389
28.7669
-21.3784
-58.1605
71.9686
87.4815
77.3457
77.9732
14.1403
-2.97863
-14.8115
-34.4845
17.2393
45.3592
54.7915
40.9134
-19.8163
-25.3734
-29.6057
-34.125
-64.4067
-16.3707
93.952
90.2654
2.78042
-24.0694
-31.585
-31.2805
-86.7829
-118.097
-34.8438
6.34351
-12.4063
16.8431
58.2132
66.2926
5.52728
-38.4558
25.7266
44.2605
40.6908
28.0207
-8.91039
2.41804
-16.0847
-18.0717
-25.9341
45.4125
74.8173
77.0363
36.6294
29.5427
3.06916
-29.1203
-79.3247
-89.6886
-15.9442
3.90184
-28.9956
-25.38
3.28963
-7.10204
-50.1541
-59.5947
9.11082
66.6776
78.3647
42.5927
21.9613
11.6325
-18.3077
-31.6141
-66.2878
-37.4374
8.4743
-0.912033
-47.3421
-40.0317
-41.9372
-42.1174
-70.0811
-18.6012
24.866
39.7946
-1.29888
-19.8
8.42218
-14.7269
-36.8509
44.7845
55.5019
53.1325
47.6231
25.4133
27.6539
13.2433
23.706
56.4455
38.6699
40.295
56.8145
18.8389
-15.7148
-80.8485
-59.62
30.4333
25.6652
23.9085
28.0829
-11.701
-9.6811
-30.5642
-12.9829
32.376
27.7148
28.881
-4.86196
-26.3458
-33.3279
-36.5895
-49.2091
-109.355
-50.3949
85.3457
42.5781
-69.342
-198.398
-145.368
-63.6907
-17.1249
10.8919
48.6686
132.875
138.184
140.272
142.294
128.299
114.003
73.2056
-40.5852
36.0641
81.4617
16.5086
-42.3869
-77.2047
-93.4898
-25.7707
-65.6035
-81.1926
-49.0052
-57.8149
-52.2229
-81.1331
-95.48
-85.3824
-95.608
-51.7124
-9.06042
-6.37801
37.5291
0.757222
-9.64436
-8.85073
-51.724
-68.0035
29.1794
106.078
97.1391
73.5395
29.8907
33.5622
48.8303
26.5524
-16.1096
37.5313
67.654
64.2514
57.0499
50.595
61.7495
27.0551
4.53005
49.32
47.411
42.5305
-8.63644
-20.6167
-23.7651
-62.4801
-71.5196
-14.9467
-17.8716
-21.0556
-11.124
-36.3802
-29.4284
-60.0877
-62.0162
-20.5687
-26.1616
-30.6735
-26.5604
-46.0766
-27.4126
-40.4929
-88.9124
-23.0621
51.429
107.145
89.8165
61.0674
56.3067
43.731
45.98
11.8607
-1.19816
45.4221
51.6613
22.7494
29.8847
22.6255
8.32559
-27.1522
-29.5731
-48.1294
-39.3061
-5.30178
-24.5129
-31.3477
-38.3418
-52.9356
-44.367
-44.2574
-62.4812
-36.5392
13.4383
-7.83304
-28.5228
-30.0391
-19.1402
-9.34106
-21.0547
-24.7756
49.2646
79.5876
78.3948
31.3034
27.4743
17.4521
-13.2702
-7.50896
32.0906
23.7727
31.2585
21.6333
5.95772
-1.37481
-47.5531
-20.7899
30.1799
41.5816
45.1642
33.9447
-10.4038
-6.23986
-29.6176
-72.9125
-0.486012
43.1938
49.9032
26.2271
-1.76788
0.0803599
0.376628
-21.6845
-51.4197
1.65437
19.1065
4.17633
-16.7753
-24.828
-17.106
-24.5702
-63.5245
20.7074
41.086
35.2698
-16.487
-45.6601
-36.3717
-46.6377
-41.921
-14.0635
27.6307
41.4781
42.9831
6.50097
14.7549
7.29546
-1.21183
-10.6603
-35.5227
9.59461
34.7538
10.5115
25.0328
25.0779
-1.85828
-22.1905
-26.0479
32.9314
30.1828
-3.94894
-23.3349
-13.5437
-2.79487
-19.8076
-39.3579
-23.1009
26.8028
46.8042
50.168
23.8804
7.86311
-15.0864
-5.20445
-18.9616
-9.91911
10.5233
11.0381
-9.2057
-2.76947
10.4063
7.53281
-16.5458
21.1394
12.475
9.25587
1.57288
-22.5394
-28.1871
-25.8931
-45.1987
1.853
19.0915
7.89116
11.0399
4.67378
9.45939
4.94826
-39.7962
19.9329
19.5845
1.11561
-1.3512
-44.4257
-50.2452
-31.2807
-44.8607
-17.6064
-20.1439
7.69753
32.019
16.4024
-3.62231
-4.77603
-26.5973
-41.6795
3.02407
79.1078
69.5616
8.05011
3.17664
10.2561
24.829
-9.71232
-47.6854
78.1185
80.8043
36.6174
27.3588
22.9025
21.6709
23.2153
19.6848
-16.6582
40.066
60.8259
21.3712
1.06278
14.9432
-10.0519
-24.4301
-74.9426
-81.4583
16.4477
13.3231
-68.5755
-73.2951
-75.642
-68.3852
-98.7356
-57.5352
-12.3987
-15.453
27.3591
33.4147
27.5023
10.6013
-50.072
-3.33482
32.1173
8.70226
18.6147
27.1898
-14.7509
-11.5526
-73.7659
-86.6977
-2.27004
71.6753
88.6925
67.8115
36.4767
40.7722
47.0387
18.7961
8.4138
45.6098
39.1153
6.85997
-16.1212
-0.383463
11.5208
-29.8067
-45.82
46.1244
40.4841
41.6431
-12.7441
-48.4326
-29.9387
-57.1576
-40.8551
22.4604
21.4614
22.3842
19.4054
-16.3858
-8.8438
-45.5334
-52.6994
23.4898
17.9484
29.9948
16.8097
-25.5657
-16.7862
-37.228
-76.3408
-12.9631
29.913
28.4809
15.4003
-8.78087
-4.44728
3.15608
-20.1774
-67.3086
25.0955
96.6796
64.2504
15.5216
9.47496
5.1845
-5.91057
-60.8051
-94.382
45.8149
62.3409
1.5144
-13.9448
3.51416
-3.95377
-15.277
-16.9007
-32.2154
49.0523
71.5645
15.3954
-30.1863
-37.06
-50.903
-125.195
-174.347
-53.5526
33.0236
100.271
73.0806
95.2956
92.848
53.8653
77.4757
81.0289
31.915
14.1272
19.6979
-13.7075
-23.6661
-91.5982
-3.8924
30.8148
10.5268
56.6841
93.7328
30.8078
-2.98384
-10.5978
-82.9107
-119.031
-34.17
-29.0877
-60.2126
-83.7147
-78.8243
-71.0413
-74.2723
-114.943
-43.8668
1.36302
-38.54
-27.5638
-1.66682
40.9986
57.8185
21.9153
89.5534
80.1755
72.7072
68.9966
5.5682
8.46237
-25.4299
-47.0767
53.0912
63.6625
55.9124
48.2899
19.6444
30.875
10.5406
7.07185
-13.6188
33.1066
62.648
45.6159
-10.0114
-8.72856
-19.508
-22.9482
-112.631
-32.0996
47.4648
35.9948
-26.7749
-33.927
-26.2718
-23.8054
-39.5139
-54.6276
-72.8542
-4.89347
54.1881
23.2282
5.9202
12.6243
-0.305621
2.25283
-24.2307
-28.999
49.7799
27.0048
-21.3587
-12.532
-31.369
-27.1732
-6.02599
-18.9047
4.52549
35.9724
28.0844
-7.3128
-24.4119
-16.5798
-2.25105
-17.0644
18.4123
23.8367
41.4131
48.5286
15.2087
-16.1123
-32.5608
-7.59988
28.7322
21.1449
12.3698
22.8286
3.60042
-2.4115
-4.97379
-23.8398
9.81426
-0.516044
-3.59586
17.1094
-9.04043
-7.57005
3.24157
-24.5392
-41.8036
-2.4997
58.109
24.1154
-11.3656
-13.7116
-22.336
-18.9357
-57.3782
-48.1334
17.1795
32.3495
-4.1811
-3.38075
13.3098
31.2838
18.547
7.24811
-13.8555
21.981
35.3292
-13.1405
-42.4802
-25.8758
-32.5544
-26.2676
-31.0642
12.0588
75.3415
58.521
22.4369
2.55633
-3.68243
1.1965
-29.2929
-12.6241
14.8947
11.0438
22.3535
13.4566
5.39959
-10.6476
-28.5
-38.8729
-12.2958
46.2646
33.0691
6.91339
-10.8042
-12.7598
-22.7998
-25.1866
-54.7706
-17.7102
45.2149
17.3904
-12.0909
-8.87034
2.94771
0.14922
-20.342
-12.7663
27.838
47.6698
23.4755
-20.5293
-13.5726
-20.3491
-35.6607
-25.1719
25.7373
20.1919
31.1392
17.05
0.111982
1.93585
-20.5997
-30.8179
39.8844
30.7306
28.3063
18.0213
-10.8995
-17.7037
-44.3278
-43.7583
11.959
24.8823
21.3556
32.215
10.8773
16.6596
17.0953
-37.6585
-72.3788
18.3446
3.06139
-5.15801
-51.3639
-50.1363
-27.5686
-10.7057
-12.4139
-59.6306
25.5732
104.492
91.8553
73.0275
62.9017
44.7656
11.3783
-4.95949
-23.6841
-46.0016
-33.1228
-26.8231
-33.3134
-34.6294
-40.3239
-31.9293
-32.3616
-79.9468
-30.3248
90.1843
57.0214
2.41182
1.4823
3.74016
9.61985
-6.16342
-27.1118
43.9364
41.6604
51.5921
38.3983
-19.8899
-11.3567
-44.5003
-66.2185
30.9349
28.648
43.3046
2.66334
-37.987
-36.604
-71.484
-62.3891
27.3909
51.6242
76.8374
58.8907
9.60075
11.8234
22.7615
-2.23304
-124.663
-121.216
7.64107
42.0964
7.9892
24.2422
54.0758
53.9245
17.8781
31.043
58.6952
33.2978
-17.202
-33.0359
-45.8353
-44.903
-72.9265
-0.377091
25.1751
41.2644
74.9568
71.0351
27.7569
10.4257
-49.9767
-41.1304
0.392011
-23.1478
-30.5056
-56.6716
-67.2027
-54.728
-62.3731
-92.9837
-90.3899
4.38741
43.6862
2.58536
9.46231
16.9382
44.7746
61.3456
20.0447
17.8639
45.9022
47.1093
18.6315
15.3368
14.2331
4.7703
-0.705577
-9.68923
-33.3967
23.0206
28.6682
-1.69203
-13.275
-0.89748
16.8698
13.3007
-10.8838
21.3661
22.0396
25.1047
14.6311
2.16041
-16.6419
-35.9435
-18.2066
1.95517
20.7664
15.24
18.1616
3.45906
-4.19543
-34.4567
-56.4139
-3.3077
-5.60028
2.72175
19.1676
-1.00618
1.39148
-7.4944
-44.5113
-15.9616
-18.0666
3.77595
9.15315
0.721581
-10.6449
-7.6331
-29.4203
-30.9634
-16.1697
71.5912
59.0321
6.95952
-6.14498
-10.3711
1.46606
-17.5521
-42.6822
40.2512
36.9757
2.34496
8.59187
14.6566
11.1108
-11.7687
-44.3499
-23.0233
60.779
39.1951
16.2095
-38.2389
-17.6913
-24.2826
-29.5614
-66.0121
7.78617
58.8927
56.9339
5.44809
8.25229
2.0573
-4.06144
-30.9418
-0.339021
20.0736
20.8069
14.7275
-16.0526
-10.6346
-1.80532
-53.2855
-57.9838
31.2672
44.9801
52.0565
3.23677
-31.6058
-23.6902
-24.3475
-29.6488
-71.7041
18.4847
75.0289
38.1089
16.9051
17.1627
8.68983
-3.51816
-27.2232
-17.7037
19.9936
23.2935
-22.8317
-18.7953
1.38768
-5.69429
-25.5322
17.7876
18.6687
21.2806
41.8261
-11.4102
-24.6515
-38.8137
-85.0174
-5.28852
43.1465
13.5117
19.3848
21.4583
19.8874
19.9024
-31.4253
8.14821
8.54508
-9.9026
2.7735
-3.02161
-5.22933
0.835006
-23.0796
-28.525
1.76338
7.41344
28.0836
-0.71092
-23.8743
-11.4198
10.1972
5.47328
-45.064
1.5383
51.9425
34.3721
26.2456
19.7985
18.7666
2.44161
-19.0176
-21.2092
-36.4088
-1.09513
14.1922
27.2824
19.8748
-4.99259
-20.3277
-20.8762
-22.8311
-49.0902
-0.517749
1.78775
-15.4217
-23.1582
-7.54695
3.96182
10.3997
-15.5338
8.1721
39.7465
62.8489
21.2316
-7.96716
-9.85569
-7.24391
-56.4122
-0.186624
52.4836
41.0931
48.628
32.7571
0.345671
-13.3595
-52.8766
-44.6839
-5.74061
-26.2904
-21.2892
-34.5012
-12.9989
23.8623
11.332
-26.8137
-22.2127
49.1316
52.3079
3.78145
-26.3349
-8.60669
4.844
-18.8823
-10.1867
30.2598
40.9079
30.7122
6.20501
11.1802
16.5675
-17.4619
-31.4127
22.958
-4.07838
-9.34704
-15.2564
-30.9156
0.382
-28.0014
-22.2783
-0.545777
-1.33175
13.9828
8.75997
-16.3833
-10.6054
-31.8173
-13.0428
23.9781
54.3322
42.8235
14.4429
-15.3337
-4.05311
0.412582
0.0462721
-34.5252
9.34345
16.0826
-0.820176
-2.19176
5.24699
9.05597
1.14947
-34.4697
-40.2965
29.0966
45.2079
11.4054
-6.25575
13.2794
17.039
-2.35023
-33.4834
-44.0947
30.9712
32.39
-1.71855
-3.47016
-0.704951
-5.73773
-15.6203
-27.178
26.3713
21.7203
17.5861
-8.1496
-34.3601
-27.9595
-40.8312
-42.5171
20.8538
6.70504
13.645
29.2152
-9.41478
-0.789607
-17.5191
-18.0622
18.5082
16.9771
8.84726
23.727
3.03542
13.0055
12.466
-26.1391
17.844
22.4838
20.0302
23.4334
-11.3191
-8.82984
6.08855
-16.6302
-40.8254
10.0997
18.763
16.5203
-10.1381
-20.2978
-12.9751
-39.2628
-18.2069
23.4025
17.9449
27.8711
-5.04534
-8.87621
-4.46135
-28.2589
-55.2134
26.4448
33.0642
32.3088
24.8016
-1.62377
1.01122
-0.0523701
-14.9552
-60.0459
7.8626
51.9797
10.1255
-16.2234
-5.16258
7.2846
-12.0267
-36.4716
6.87928
40.3424
28.8658
-22.6565
-26.4087
-8.52044
-1.76896
-36.2891
-39.4687
32.6343
21.9474
43.1702
11.33
3.2126
-4.13229
-15.3643
-16.9219
-28.9267
15.1467
30.8239
9.22949
3.28971
4.04063
-6.34191
-16.8993
-29.2064
6.50007
32.7034
32.7087
-0.501699
1.7591
10.3201
-21.6367
-40.0267
15.7496
8.70681
17.3346
32.4275
-1.64742
-1.03587
-36.9645
-34.2784
24.4025
8.71966
6.4566
16.4619
-3.69635
-18.9907
-35.6547
-11.9076
4.69598
8.93109
10.3073
18.5833
-17.3733
-15.8957
-36.7834
-30.1139
12.7124
12.3694
21.6008
19.3408
-9.32639
-5.51321
7.50937
-23.1567
-22.8029
13.9123
54.4807
19.5532
-4.81331
-0.159429
4.75492
14.3874
3.57918
-23.4513
-25.105
44.3017
49.3491
28.7512
18.2121
8.29119
-13.7928
-31.1171
-49.7001
22.1661
5.84305
-27.451
-36.2929
-37.8161
-29.1698
-20.5743
-27.8573
21.1225
14.573
23.6238
42.3283
7.19636
-36.2969
-45.5599
-22.8741
18.2541
27.3487
27.4274
35.1857
13.8436
11.0971
13.467
-7.13809
-54.7338
1.49195
42.4836
31.2218
-2.13828
-4.85006
8.13147
11.0573
-16.6827
-56.4392
-19.6235
42.3306
14.7459
1.79612
-2.25203
2.32986
-3.9922
-46.5288
-33.3925
58.6869
53.3888
13.337
-6.65728
5.11317
-5.23905
-41.9043
-36.3319
23.3941
-1.50769
-6.09857
-9.07849
-44.9971
-39.8002
-61.865
-48.69
50.4379
37.8106
52.5493
41.7759
4.61127
10.9755
-60.2258
-58.0605
79.0212
88.5523
62.4479
33.3224
-2.82489
1.84153
-0.986274
-10.3328
-58.5077
-43.3805
35.2682
20.3261
-38.2344
-32.9052
-10.4378
-3.21469
-14.7416
-27.292
-1.96034
69.0392
10.3321
-27.4694
-6.31753
-0.261662
-22.596
-23.8751
-41.8502
-8.22305
38.9691
26.6429
4.66512
11.9105
-1.09843
-16.95
-58.8193
32.8587
21.3574
33.9639
50.9508
-5.71348
-46.5787
-45.3927
-38.7396
40.0323
30.9777
20.9277
22.1219
9.33264
4.28216
-19.8207
-71.2354
31.9346
45.1833
42.243
54.4552
-6.92764
-19.578
-16.0226
-32.0194
-37.7644
4.7623
-0.846897
5.09475
-22.5036
-18.2788
-6.8561
12.7783
-3.44326
32.5987
38.044
37.1264
-19.7218
-37.4609
-25.322
-33.8586
-47.179
19.9809
31.875
37.8025
11.3303
-38.3957
-26.6979
-12.973
-68.8054
-13.3785
58.9235
54.2231
47.1117
11.5442
8.14531
14.8661
-13.0503
-43.4037
0.324558
19.5954
0.793984
-37.278
-29.9698
0.00240889
-9.85018
-52.8122
23.2956
59.4689
69.5749
22.7715
-22.433
-10.5079
2.03694
-10.3169
-26.152
-3.92547
19.4123
28.7885
5.17587
13.2525
10.7598
-14.2456
-24.0182
-31.0264
5.28088
-3.74302
-38.2685
-24.4318
-0.27364
-1.75268
-30.7605
-45.7587
41.3511
53.5521
46.543
34.1731
11.3922
9.93942
-16.4988
-22.6976
17.7723
1.71391
3.67386
1.12647
-13.2744
10.3051
-17.5097
-23.7995
17.4551
7.61761
10.8183
17.4818
-35.3465
-39.3034
-27.2982
-23.1463
10.8153
13.4499
14.5634
24.2851
-10.0251
-11.8139
-7.23365
-36.9736
-58.7714
50.6682
55.7638
30.6392
2.26247
2.884
3.16438
12.9625
-18.1469
-69.4671
32.7952
45.3375
-0.555112
-7.36101
1.73638
9.40283
-1.58696
-0.629739
-37.4725
21.4835
80.727
9.24156
0.385502
-6.25838
-20.8065
-15.9126
-38.2803
-45.2647
43.6569
64.7513
-1.19146
-19.7491
-29.1338
-34.0616
-52.5814
-70.3692
7.10163
13.3389
42.7056
35.5355
12.4016
-2.01916
-4.79414
-47.7196
-17.9362
53.6594
47.7834
47.4502
-4.23825
-4.40891
-20.851
-28.1609
-46.6495
11.4039
20.3745
45.7255
7.379
4.87462
10.8254
3.95973
-6.98636
-45.2201
-44.982
49.763
22.3065
-23.7502
-8.09156
5.28775
-4.96114
-17.1933
-10.24
18.1136
26.1345
1.94429
11.6738
8.98332
-21.4819
-48.7585
-12.2147
31.1544
12.427
16.2817
17.6495
-8.99563
-13.3757
-49.0658
-8.27469
31.1519
8.99436
15.7206
6.03129
-5.0518
3.25579
-41.3648
-23.3917
21.4482
6.10473
24.2582
11.9619
-9.31511
-1.69187
-11.2025
-39.5763
-17.9797
29.9798
51.4304
20.8241
-8.40007
-17.6569
-3.92237
6.32207
-2.7819
-54.3545
1.72029
60.6261
23.3536
2.55195
7.04798
5.98198
-5.32872
-11.3082
-18.1922
37.7085
13.1996
-22.6354
-36.6642
-28.4853
-18.8733
-24.2592
-20.2988
15.1276
33.2622
53.988
24.9078
-25.9127
-38.0129
-29.7895
-31.146
13.7153
6.45996
4.93972
23.6482
9.59254
5.5666
-2.16372
-19.9944
-23.6458
27.4775
32.4765
34.7619
8.69868
-3.66111
15.1096
10.8308
-15.1702
-45.7275
-12.5599
40.62
6.30292
-11.5337
-18.0088
0.75764
4.92745
-22.1496
-6.93545
34.7046
33.8808
-10.9646
-15.3019
-11.8843
-23.0279
-57.6624
-8.96611
18.7803
16.8269
33.4631
21.9885
-1.12678
-16.6529
-47.223
-21.822
42.6962
22.7593
24.3904
10.6977
-2.63739
-1.83006
-12.878
-38.3669
1.89888
9.93746
17.1524
0.374908
-11.7314
-5.99275
-0.109933
-32.8447
-50.567
35.487
55.1755
29.0059
-8.31264
-0.848158
4.9474
1.8706
-21.6287
-46.4473
9.79
58.4216
24.1767
9.34185
10.7122
-2.63719
-17.6135
-57.9051
-27.9868
63.3206
52.9066
-16.0504
-20.7814
-26.3854
-37.7339
-50.2472
-32.9312
6.72409
15.4908
43.0483
14.9622
2.11255
-0.58948
-29.7905
-9.22529
44.0929
29.8231
41.4046
22.6
-12.1889
-14.547
-53.8231
-8.6776
26.2293
16.8034
19.1134
10.1437
-6.69525
2.50664
-12.3938
-70.0609
-1.01893
28.8748
26.496
16.4283
-14.5935
-10.1738
1.30232
-3.6802
-53.5545
-32.6042
45.0601
23.0151
1.9069
3.14689
14.2601
13.1627
-21.4106
-37.559
15.3765
42.277
8.16978
-29.3832
-12.7672
-14.9
-34.1459
-24.9104
-31.3256
-14.7966
21.8642
22.1706
1.40872
5.52734
8.82984
7.28739
-10.4387
24.3435
57.4525
54.2638
30.7459
19.3839
-7.85112
-18.6203
-43.7523
-21.8577
43.9785
42.292
36.9754
16.142
0.757038
-8.50823
-29.472
-38.8028
-85.2538
-2.68397
29.1537
-6.07855
-25.7723
-18.1831
-13.1779
-3.57937
-14.3465
-41.1196
53.2493
43.9753
-23.4544
-41.8977
-48.2304
-38.3167
-18.6475
-8.17381
2.21519
30.7489
51.4514
13.8868
10.8649
1.63019
-7.02627
-13.81
24.5112
25.0144
18.9277
42.996
12.6611
5.05639
-3.29512
-8.32571
49.616
42.561
25.744
14.6381
-0.327835
-11.2953
-21.3571
-59.4646
-3.25267
16.6797
9.36617
9.52902
-23.0274
-34.3823
-19.2558
-0.404437
-33.3403
-38.0289
6.06368
19.402
-3.4252
-3.97482
-6.76219
-4.27613
-10.6339
-24.0048
-23.8365
16.5753
17.4743
1.70021
4.4084
15.9808
5.69002
6.76942
-18.1385
-31.662
24.7454
14.6238
-18.8276
-7.55994
-11.192
-11.3113
-20.3513
13.6253
41.4052
41.8029
53.0162
21.3359
-19.1207
-18.6468
-36.5018
12.3967
22.5745
20.8359
23.3343
24.1987
-2.4277
-2.44696
-27.2113
-15.2909
16.303
49.8376
34.7411
2.54863
-18.7003
-18.2054
-12.187
-32.2331
-51.029
-17.6576
12.5317
-11.2173
-17.0761
-16.2416
-14.9571
-9.2483
-44.9257
-1.04589
26.969
19.6174
2.11699
-14.4888
-5.63086
-9.67321
-39.8688
-2.75502
43.4522
30.4775
25.2392
11.4406
15.5952
-0.49817
-40.4541
-0.385629
17.8248
11.2358
-0.0886949
-32.5891
-21.338
-2.66955
-25.8619
10.5067
49.1131
35.0062
37.0395
19.2057
1.35443
13.1557
-7.58848
-38.034
8.88742
52.8405
57.2911
19.1274
3.73151
-1.3745
6.30703
-1.00049
-49.7526
-23.1514
28.3545
-14.0484
-33.8432
-27.3483
-19.9315
-24.5049
-52.1121
-46.3793
1.97303
13.6235
-10.5884
-34.1686
-17.1534
-13.9709
-43.6649
-31.7004
54.9446
62.2633
61.5873
23.3677
-8.19511
-5.48049
-21.6527
-17.3263
26.6774
23.962
14.6425
15.3003
3.68764
6.65965
-17.6076
-0.375214
22.1939
6.73076
19.9163
20.975
-1.8001
-4.73622
-27.7194
-18.3172
29.3222
14.2793
8.91323
6.96107
-13.9038
-10.0556
1.07271
-35.9182
7.83323
40.4604
21.6339
-6.81082
-12.9236
-3.72868
5.26095
-12.6612
-71.7784
9.18805
39.4656
20.6763
-17.5483
-17.2202
-9.08975
-17.4449
-56.5101
-64.1032
33.5322
70.7689
12.6652
-13.1044
-2.5409
-3.51442
-7.1663
-30.2393
-9.82579
37.5465
32.6771
-15.0646
-2.49869
0.498527
-14.4696
-41.9291
4.39127
38.154
39.9298
37.1308
-9.63393
-5.9243
-7.972
-53.6361
-62.9603
37.1074
50.8118
47.3893
32.4053
7.94956
14.5485
-11.7933
-30.5917
-37.2412
-42.4288
66.6403
36.2292
6.78061
11.5702
10.9607
-17.8294
-23.4795
-45.0412
22.4259
39.4052
-27.6214
-42.5008
-20.5811
-12.9287
-24.1227
-31.4298
18.4605
32.9749
26.8564
16.9757
-20.2128
-18.3811
-41.1138
-0.0562558
27.0478
13.5841
8.15807
27.9644
23.9248
20.385
-30.9211
-12.6146
-4.51746
-4.51051
-0.0583053
14.4176
-7.8996
-17.3251
-40.2649
-1.85018
38.2994
39.2316
29.1848
8.13384
-4.31255
-6.15699
-2.43932
-25.4532
-51.554
16.2043
35.9416
9.10614
1.84012
3.13221
-0.616695
-0.159386
-16.5366
-30.7238
16.4394
34.3985
-19.1105
-30.1674
-10.3905
-9.60447
-16.5232
-41.8424
7.43941
35.5168
30.3101
0.606832
-1.0755
-1.92416
-13.5541
-13.5376
33.5348
23.8314
15.1117
35.2134
30.4831
-3.82408
-55.658
-42.0101
4.90261
-0.863405
3.55571
21.7894
-6.79076
-20.6098
-35.7942
-22.0547
-1.14252
37.1365
34.4997
29.8174
0.974933
-1.3455
-1.37381
-10.4893
-70.6925
8.40811
47.0666
33.9412
6.47191
5.39141
-1.79094
3.72037
-8.84467
-32.6053
8.1043
-5.58892
-30.1185
-35.5817
-8.11706
-4.44337
-19.2149
-26.3549
18.8235
38.7521
57.4707
1.12898
-1.24151
-0.973205
-27.5102
-13.6665
35.2873
24.2685
12.1783
31.037
22.5091
1.77542
-30.7281
-40.237
30.923
29.4031
12.7642
10.6156
-20.2555
-18.4158
-10.3307
-49.1559
-90.258
-4.67823
41.5549
16.7342
-15.5779
-8.24902
-5.91062
6.90609
-8.41008
-64.2188
12.176
74.5958
33.4327
10.5387
0.367759
9.10376
-0.394262
-8.37154
-19.6565
13.4333
56.7195
6.46822
-18.0821
-20.5813
-27.6765
-16.7613
-50.7026
-13.1729
43.5941
57.0221
28.8703
-14.8103
-33.3084
-25.4383
-27.2187
13.898
26.2099
18.3746
33.3868
15.8675
2.94971
-20.8215
-50.1573
-3.41156
27.4046
16.8813
29.9498
6.2212
-14.4686
11.5079
-31.9572
-64.7972
-21.8542
29.0296
71.1425
37.2466
8.41875
3.44173
-0.117089
-17.2546
-46.3382
-73.0246
20.0335
2.33333
-20.2596
-6.95964
16.4124
10.621
-6.12782
-26.5918
25.447
25.9774
-8.01421
-20.3231
-21.3121
-23.4731
-30.1177
-49.6176
-0.871226
60.9482
61.0448
57.9572
28.0197
19.4135
9.87361
6.73436
-28.7528
-17.224
35.5939
46.1261
12.7201
4.22864
-6.02391
-20.9151
-59.8867
-55.6789
10.0703
29.2847
11.9571
-23.0142
-16.7633
-7.83144
-16.3988
-48.1784
-31.7832
25.7294
36.6196
12.2474
-27.6034
-7.25449
-2.70113
4.16166
-18.874
-9.55992
64.0706
45.6142
-1.51336
3.81352
-2.01309
-14.8878
-33.1502
-5.41815
16.9631
22.8144
10.5822
-19.5265
-6.42672
-0.423458
-27.2541
19.0195
30.9169
21.3731
20.8225
4.88323
-21.9923
-31.4431
-43.9529
12.0157
26.7032
8.68491
22.1844
4.20711
-23.8457
-13.3999
-37.4491
12.0302
24.0022
18.2141
23.6615
-3.95142
-16.7248
-12.1643
-20.7461
-54.4955
9.39588
48.5058
26.6417
-2.81978
-13.4215
-6.61113
6.51428
-1.5228
-27.2036
2.5075
27.2151
-10.3095
-8.4585
1.61274
5.08897
-5.05421
-4.80179
-19.6227
-49.8786
65.3563
41.1565
14.2837
13.3232
0.986759
-5.93303
-8.78415
-33.1723
12.3226
30.3515
11.5495
3.56871
-21.2442
-22.0898
-21.453
-37.6507
20.3337
22.6874
22.7627
44.7812
-4.43017
-38.3719
-45.0205
-36.7955
17.026
2.20063
-0.259472
14.6677
0.138807
10.9992
11.0661
-12.4588
-67.2144
27.7512
49.7102
35.1587
-9.58845
-16.0396
-10.3318
12.9845
-33.5234
-30.2536
25.8021
34.9211
2.1532
3.13412
8.54288
17.2966
-32.8099
-10.9486
37.94
29.594
42.1562
-9.25237
-22.4477
-16.5801
-70.1027
-18.0454
5.67653
6.54772
14.9564
6.51797
-12.651
-26.2136
-54.5318
13.2376
36.9835
30.4688
34.1865
5.8547
-19.2207
-9.37745
-48.6361
-19.754
50.4047
33.8651
26.4856
7.49681
6.38198
7.36482
4.69152
-19.0885
-20.2007
25.8063
19.2366
-10.6913
-23.2184
-12.6063
-1.06225
-12.4932
-54.7247
-38.4421
16.917
30.2094
-11.6745
1.43065
16.8694
5.02255
-0.596781
-4.95587
-17.1144
-2.52074
24.1098
17.724
21.4562
-1.12306
-14.4816
-10.9421
-29.7329
-6.44565
27.1372
26.0784
35.2772
-4.24262
-18.9948
-8.83397
-28.3573
12.1686
26.3607
21.0892
25.8551
13.096
-12.2997
-31.381
-38.2938
-58.3935
9.9642
5.52675
22.2521
20.022
14.954
15.5402
16.4519
-29.1386
-47.0785
31.6148
44.543
9.22974
-7.09994
-8.91173
-5.79536
-18.3398
-23.2439
18.2296
26.5894
30.0879
-12.5814
-8.1446
-6.87291
-52.6409
-45.6185
25.042
19.1578
9.05481
3.24191
-17.3226
4.33276
-34.6142
-59.7179
-5.75037
51.8455
40.1067
21.0146
-6.80854
4.63691
12.0945
-13.8576
-45.5893
17.5268
67.038
41.7933
-1.7855
-3.41766
-3.96023
-6.1978
-43.675
-61.0935
18.0489
50.2393
15.2666
-19.9023
-9.57356
-5.44474
-13.007
-13.89
-50.9383
-30.924
75.8834
42.1745
15.4665
6.41
-14.8617
-10.9797
-29.6766
-6.47948
37.4908
35.0819
-4.0556
-8.02561
-10.3151
-13.717
-20.8
2.1123
27.2076
17.6694
31.2162
12.4761
-24.262
-26.4273
-47.6783
-15.4397
6.43595
-2.04133
35.9391
31.9741
2.51333
6.04956
-38.1024
-8.09162
-0.729283
-24.4088
-7.4767
-11.8314
-17.7176
-7.74929
-21.2035
10.3984
41.4014
38.7368
30.6709
13.5623
0.374557
2.03708
-2.8761
-17.5625
-49.9288
7.13384
50.7021
16.8282
1.12165
8.26241
13.7393
3.73656
-36.4086
-46.4806
55.0373
39.5127
-14.1421
-30.9593
-19.528
-18.4466
-20.9271
-33.613
-40.5734
12.5714
42.7273
16.181
4.04937
-0.185377
-6.22611
-11.3898
-29.3994
21.337
29.6124
33.3508
2.55499
-10.1368
-16.4222
-21.1727
-28.4933
13.7876
12.069
22.709
26.0422
-2.02154
-10.0259
-13.0642
-49.2074
-5.12055
39.879
35.0045
38.5733
11.305
8.36295
10.2695
-10.959
-38.853
-52.8073
12.3654
14.1867
-6.81561
3.25137
12.1151
18.6889
-24.9897
-28.9843
12.6931
24.0905
-5.17968
-20.4647
-1.64423
6.87585
-55.6977
-26.5163
44.1957
27.5829
15.6995
11.6769
-26.1188
-14.4239
-57.6972
-38.8351
58.1058
46.2356
46.3833
43.541
22.1915
32.0796
-15.7067
-31.8845
47.6363
21.3417
11.6826
-17.4968
-54.5159
-57.3262
-93.0699
-125.677
-63.2804
41.8951
70.7393
45.6508
-6.69455
3.7808
18.7302
10.3248
-28.6197
59.2985
82.0399
64.1831
0.296876
1.15748
13.9869
-3.74907
-46.4582
-96.2256
-3.97275
62.763
4.94225
-44.0596
-42.1142
-32.946
-29.8524
-44.5645
-62.3964
84.2751
91.4863
33.2819
32.9045
32.4374
11.2653
-23.2767
-14.5847
46.9134
29.0899
40.0814
9.58763
-9.22493
-26.4331
-69.9106
-28.0613
2.84378
-12.2716
13.1819
37.7753
-24.9757
-18.5184
-94.3816
-72.5785
22.4721
34.4701
53.0188
37.6305
-4.56699
-8.85857
-4.70716
-16.3715
-48.2825
22.1964
44.4267
13.201
-6.85007
-13.2322
-1.01756
8.94975
-47.73
3.74211
59.4819
44.6952
-9.94809
-25.5784
-8.33792
-2.88642
-63.5339
-30.7875
56.6347
47.1884
51.8142
2.24673
-7.67998
-11.7747
-58.1676
-56.6822
20.3112
20.9696
13.8707
-1.29995
13.4138
25.7698
7.81516
-21.9076
-41.0838
51.9444
58.2998
32.9724
-14.6103
-22.5262
-17.2793
-54.9129
-62.7905
-52.2815
36.361
65.8772
15.2953
13.2137
14.0597
1.98088
-18.789
-95.2872
-22.0858
69.6454
76.7772
11.8226
12.2188
3.73223
-21.6287
-54.0269
-49.4626
29.6006
28.1648
21.1431
-2.3921
-17.4731
-25.8385
-42.8609
-16.8686
19.1472
21.0805
60.4367
10.7476
-27.4374
-26.7647
-76.7377
2.52376
19.2111
15.9301
39.4643
40.7136
-1.0153
-20.5537
-36.1436
29.713
12.3814
1.06311
16.4942
9.45059
-6.48005
-11.7676
-59.3112
-30.2817
49.7968
53.9574
46.8634
9.47777
3.14132
-0.964129
1.52747
-45.6637
-39.3693
52.2016
48.2128
-8.97499
-14.7088
-18.4061
-15.5222
-57.3131
-55.5684
21.202
68.6299
26.8534
-40.8915
-34.8188
-17.2472
-28.8864
-78.545
-62.3406
45.4348
97.7238
64.9711
24.5167
24.556
-3.33081
-19.4687
-39.6674
5.13241
57.6826
23.4518
-11.1092
2.05382
-9.38693
-34.8032
-60.2975
10.9245
14.6476
31.8435
31.3621
-20.2922
-24.2509
-30.2849
-57.4551
-89.9268
5.87576
83.1286
84.6
52.8333
31.5354
4.40573
-73.9085
-90.1584
-87.7659
3.5707
85.5651
54.3452
32.5809
17.4416
-29.9861
-56.463
-16.2178
69.3413
91.798
121.468
58.3394
14.3573
10.1151
-15.8034
-43.9494
-3.88028
12.0103
20.314
3.91831
-51.7695
-70.2752
-95.886
-48.8576
8.78164
32.1594
28.4666
2.59243
-42.2267
-52.4825
-68.0735
-49.7806
-44.7466
-45.984
-41.0546
-31.0524
-35.0295
-26.3693
-39.6016
24.5723
30.9988
37.7406
41.7492
34.592
39.148
54.3436
58.2399
38.52
-10.5616
59.5567
105.426
40.8331
10.0853
8.59579
5.34153
4.27869
-13.3104
-29.3181
16.4858
17.9189
-10.4959
-16.9856
-5.14039
-7.16725
0.453438
-17.0689
-13.4275
37.5675
38.1293
-14.9106
-30.0774
-32.7935
-43.1828
-57.7269
-4.3191
5.27589
2.99027
22.2752
19.403
-16.1793
-46.697
-69.9024
17.4479
17.706
13.7079
31.5174
25.7446
6.86903
-20.4183
-53.0472
-7.57041
-7.55031
1.46947
11.8531
-11.0284
-8.77781
2.83394
20.7799
0.879287
5.22195
40.1067
36.4999
-13.1951
-16.0583
-7.01374
6.18346
-13.0044
-28.7488
62.679
44.5257
12.9439
5.29216
-0.720193
-2.0406
-40.9836
-54.8734
1.45349
16.0759
17.3775
1.41878
-13.6178
0.756481
-17.6221
-40.1729
-4.15989
31.8935
35.2523
28.5861
-8.24148
-14.6211
-21.4384
-18.1542
-42.4678
7.33294
36.372
29.0717
1.07745
-0.575863
8.06669
-3.98577
-29.023
-65.7651
-6.21798
80.2882
39.0913
12.2789
10.4987
1.71924
-12.024
-27.3136
-55.5092
10.3142
59.4048
16.234
-10.6987
-0.571218
-12.13
-17.7302
-49.8787
0.671229
33.7196
57.6466
19.6431
-16.5711
-25.534
-33.5567
-69.551
-33.1653
15.1443
20.9339
28.1232
-10.9071
-17.7148
-28.5539
-46.7973
76.8951
71.2527
50.3154
63.3611
29.1067
12.5618
-6.01632
-49.2839
1.79138
-5.96992
-13.2574
8.02024
-17.6265
-51.58
-34.6709
-56.5094
-76.162
-32.8637
32.8155
64.9865
14.4198
16.3666
26.9478
35.8864
0.454821
-67.1534
16.7698
82.7089
14.3202
-2.2021
-10.8981
-0.714192
-8.00141
-72.9159
-70.2854
51.1943
64.1941
30.5766
11.8687
22.1069
-7.18242
-14.3949
-25.1356
-31.6479
30.5921
62.578
31.8592
-3.89045
-19.549
-29.7279
-87.6471
-93.0079
20.972
55.2634
41.2507
8.6983
3.32676
-14.6551
-52.0151
-99.4577
-21.621
59.8698
57.4346
61.701
30.512
28.0364
4.59718
-10.167
-55.7017
-84.1135
57.2308
60.6379
-2.37993
7.80688
13.7706
-16.2356
-73.8834
-67.3318
27.8213
81.8951
17.2344
-27.8499
-13.5657
-0.530445
-25.0372
-13.1857
32.0475
16.4325
28.9079
51.7088
6.86845
11.951
-44.0367
-70.7082
34.5468
13.4001
30.0871
19.2197
-24.1861
-13.7209
-56.1003
-44.8427
14.027
19.1681
20.7168
25.3264
-1.98356
2.6023
-11.0693
-62.0516
11.1251
56.9778
32.3109
19.1003
-34.7895
-36.1968
-8.00565
14.4998
-36.0487
-63.1684
41.001
26.5681
-8.15327
-5.12286
4.15181
16.1746
9.57398
2.36012
-17.86
42.8326
-18.9686
33.5211
35.2742
29.7558
-6.64769
-11.5218
-10.5554
-63.6484
-77.0474
28.0466
21.5599
7.14783
9.55031
12.3207
10.9852
4.46261
-45.9342
10.2295
39.8568
27.5801
-2.2628
-46.8029
-32.6488
-24.9199
-37.2263
34.5466
35.9226
56.9936
76.3169
31.3912
-22.7699
-50.9678
-59.7303
-31.6899
24.2196
20.6811
26.5703
-6.75552
-2.03207
-0.0352639
-8.98547
-78.4549
-75.4454
52.9796
53.1799
5.95296
6.00223
7.28771
6.80919
-33.2172
-50.2352
31.9961
19.8174
2.54572
-12.1216
-2.78508
-0.041588
-57.3094
-1.86531
73.7613
59.5465
56.1204
44.1031
-17.3503
-12.2725
-66.8167
-33.0594
34.7368
29.1931
27.9385
13.83
-37.4948
-36.6561
-75.9553
-104.591
-1.83225
47.324
48.3809
34.9523
4.3124
-3.22397
1.87011
-6.98755
-75.8995
-19.0083
82.329
50.343
8.75513
10.6664
-17.4339
-38.2997
-24.1469
-37.1312
-12.3383
81.0596
19.3753
-15.2968
6.25447
5.89258
4.79777
22.016
13.4289
2.77122
77.8518
38.9102
-11.8532
-19.9379
-30.8518
-23.2044
-19.0701
-38.6522
6.64212
72.5693
61.7111
-0.177606
-28.5804
-35.2201
-45.5321
-75.2896
-12.722
-19.8713
-18.9653
0.464643
-22.0301
-32.4454
-57.5035
-68.9485
-3.01034
17.4076
29.0829
49.6064
18.1381
4.61184
-8.27896
-62.172
5.13275
106.519
109.984
81.474
4.27303
-11.5555
-8.30271
-11.2785
-49.1433
-1.35662
43.3118
50.0667
15.2081
4.45613
6.25228
11.2659
-35.106
-12.1676
35.8975
32.8002
-11.8712
-56.0957
-43.8099
-31.9284
-77.15
-38.576
-14.0521
93.5473
68.5419
22.3587
-8.29586
-11.155
-33.6439
-50.4037
-58.6253
17.3654
31.0537
3.79289
3.20296
11.4089
-10.2277
-64.9509
-68.3035
38.445
53.1728
28.1762
18.9268
-29.9706
-8.0489
-19.4189
-74.8622
-22.4287
53.0842
69.4754
69.4487
28.5844
20.8309
7.68185
2.29235
-18.0396
-27.3259
51.4928
48.8682
-9.89675
-15.8024
-30.1469
-28.6117
-57.2071
-17.9186
7.91275
27.9824
15.7848
-22.9692
-19.6448
2.665
-16.0395
-23.18
25.3681
26.1233
33.1589
18.3539
-29.8042
-26.7103
-65.3609
-38.2147
53.4014
47.0955
29.4971
13.4217
5.78827
15.6157
-36.3287
-35.2447
21.7551
13.45
10.2239
15.3813
-17.6001
-23.1627
-14.836
-19.6999
-30.4125
5.71181
71.5204
55.2364
-6.1593
-5.55048
-10.2074
-18.0266
-63.2328
-44.2643
59.8501
31.6071
-9.77133
-0.0736647
6.28667
11.5937
-1.37963
-37.1225
-49.5468
32.281
28.6231
17.0247
2.36946
8.61334
-8.4268
-41.4565
-41.0735
18.6074
45.3109
42.2985
-4.31829
-16.6026
-23.08
-56.9129
-23.9072
25.6255
11.8646
34.3011
48.9623
14.688
8.62548
-38.7463
-10.764
7.75099
-6.5755
14.4938
24.2044
-7.1191
-3.35627
-51.5363
-78.5929
-3.51957
71.2077
63.7115
25.9149
-4.59317
-9.54139
-6.90769
-9.97557
-34.5373
27.1493
27.8619
-9.05254
-14.7762
-13.1517
-5.83719
-40.0423
-52.8739
23.2313
49.9239
47.3452
-1.06183
-61.4086
-46.2237
-61.2785
-55.7753
40.3163
59.0148
49.8998
29.8383
-62.5338
-197.419
-187.906
-70.4766
60.022
113.276
164.148
171.562
140.151
143.348
95.5333
51.7855
108.368
70.3352
32.0279
3.49561
-60.3888
-85.7174
-81.8043
-87.7058
-114.832
47.8785
104.883
26.3908
-44.002
-63.6863
-75.0591
-99.3975
-139.997
-156.813
-62.4634
-26.0316
-85.6608
-58.5671
-30.292
-32.7512
-46.8326
-43.4182
-36.0437
26.3836
58.0196
67.0504
50.4742
47.196
34.1353
14.5915
23.9619
90.4131
88.153
101.782
69.7623
51.3357
25.6225
5.47952
28.6335
30.752
-3.58055
2.81542
17.8914
8.20391
37.1695
16.1891
25.8678
32.1406
18.9981
18.7132
-6.81261
-52.58
-49.1319
-79.8334
-113.679
-76.4609
22.5962
52.6849
34.4715
18.3603
19.9322
29.6389
11.9515
-61.4341
33.8542
40.7659
-15.3451
-51.1333
-83.0848
-82.1377
-79.9505
-100.903
-16.739
0.100875
5.43116
-8.58987
-60.5129
-45.5947
-59.1782
-61.5901
-3.40356
103.184
131.039
127.529
62.4993
60.5983
40.028
22.7246
2.80526
54.182
47.2894
32.602
-19.3334
-11.9266
-8.73112
-40.3851
-63.6008
-17.2457
9.75694
38.3675
22.6254
-39.0227
-38.9306
-23.5768
-76.3788
6.49648
62.6121
36.4652
33.6002
1.22368
4.2309
-2.13005
-40.4753
-71.2796
0.108029
25.6515
10.6824
-7.55525
3.4298
4.57183
-32.7818
-67.8248
25.4998
39.0666
47.3351
3.83875
-31.4172
-13.8222
-45.2702
-73.5146
25.2204
72.3416
39.9554
51.0411
9.97296
2.77751
-27.9769
-50.2266
32.0974
23.5074
20.8227
4.08641
-53.6486
-29.337
-44.7309
-46.8385
30.6357
26.2349
47.4006
45.5251
-7.03103
-32.8257
-45.4289
-62.7441
-17.0703
45.0006
86.8158
61.2238
6.56421
0.402457
3.21242
6.85089
-47.2224
-69.015
19.1167
65.3377
-7.94436
-2.68608
12.9022
12.2068
-11.6636
-37.9658
-50.8747
76.0947
24.7419
-25.6143
-37.6655
-17.4548
-23.424
-50.3191
-91.4325
25.4306
102.022
84.1527
34.0527
-15.853
-32.1687
-22.3961
-35.6794
19.2467
23.7463
15.4182
39.7436
-0.945442
-14.6319
-31.4151
-92.1947
-42.178
38.8372
47.7775
81.2518
24.6449
-14.3092
0.210365
-9.38005
-71.8951
-116.939
19.1514
63.9238
21.7545
5.84684
18.2076
36.2345
12.5372
-26.1143
9.53799
53.1384
20.4705
-27.6487
-14.2747
-2.34754
-38.6603
-73.4696
34.2578
47.8122
55.3574
65.2824
-8.48047
-17.4187
-64.1679
-108.984
20.9301
44.1525
12.4657
7.31932
-22.3409
-12.417
-29.7136
-78.4632
9.02663
28.2406
14.4799
28.5272
-11.8058
-9.76383
-17.0561
-66.6226
33.2349
75.0786
66.9259
76.0633
1.64682
-16.8402
-20.4996
-34.3325
-77.4669
0.347884
35.4402
35.5076
4.61836
3.17171
7.49871
20.2015
-17.1947
-83.8228
-11.5994
106.144
-69.1158
-333.058
-227.621
-69.3196
4.92578
64.5893
113.109
230.551
248.55
189.98
155.239
127.403
72.8632
16.1939
6.12779
47.7193
40.3154
44.0665
-3.75889
-98.0305
-123.891
-1.63391
-19.8566
-16.4574
-78.3007
-105.957
-102.86
-126.25
-113.56
-142.955
-159.025
-100.208
-74.2787
-58.8334
-59.5722
-82.4621
-74.3335
-32.77
-5.08292
-12.2833
4.11723
197.293
245.931
161.853
113.706
93.4687
76.1788
37.7768
-22.2602
-5.32723
87.1715
43.9166
5.7028
9.11086
10.5322
-9.98267
-39.6765
-28.4236
22.6406
59.2202
89.0071
43.8283
5.78141
-4.10288
-39.6335
-41.6877
29.4403
35.0216
37.7498
2.79255
-57.7359
-76.5263
-80.5926
-114.884
-117.307
-6.04107
10.7138
10.7487
-15.9164
10.8494
26.5439
8.37852
-45.0973
-22.8208
61.7499
51.3905
-0.705416
-22.6087
-4.89011
3.03515
-14.0324
-39.9977
-11.9482
58.5733
61.8658
-9.68489
-13.0318
-11.4665
-23.7766
-44.3381
-80.9283
-0.293253
82.3589
36.479
7.24461
20.2943
5.85057
-3.98025
-24.7545
13.1899
8.5821
19.1346
16.9329
13.5857
16.0947
-32.4743
-61.1157
31.9105
22.7157
34.8133
55.9359
9.42133
-18.9226
-31.6457
-52.5349
-24.9096
9.79078
4.48712
12.0161
-15.7395
-17.7703
-4.02916
-41.8098
-25.4412
35.9799
28.5916
43.3853
-3.4056
-4.15102
6.25186
15.1995
-24.0316
-66.5371
25.8555
56.7552
24.7169
-13.9441
-15.296
1.04259
-8.61586
-38.9795
-62.0982
60.3287
69.8679
9.6131
6.1733
19.4788
-3.62054
-7.88812
-18.0931
-46.1748
33.4798
36.7087
-12.2947
-22.7253
-19.7196
-23.325
-27.6566
-15.6444
22.9495
31.7385
38.6369
-16.0571
-33.9166
-35.6433
-63.7476
-58.0998
37.1208
38.8361
35.8859
55.8872
8.68904
11.8951
-12.8405
-54.4952
-31.6781
52.4918
28.1599
10.4506
-7.51182
12.2836
40.3533
31.0048
-8.65892
-8.02434
79.7911
74.095
4.15353
-19.4344
-48.1902
-52.1893
-115.013
-25.2708
3.04001
4.12718
-14.6485
-60.0179
-36.465
-25.2899
-52.966
-14.4502
30.8456
14.831
42.2508
46.0192
15.5662
12.3541
-37.8274
18.9266
76.2729
66.9667
73.7197
14.2125
-9.92108
-13.0448
-61.5085
-48.4975
11.5127
9.13905
5.28072
-6.72456
-21.72
