-14.7735
21.966
24.8611
-29.4065
-43.7589
17.9158
36.4342
37.8436
-10.8624
-88.9094
-46.9393
7.45125
25.0801
-27.8641
36.6466
148.111
111.228
43.0815
6.15673
-10.2448
-29.1074
-31.9604
-59.7058
0.152479
-8.73836
-65.2517
-39.2142
15.1504
49.7158
38.2994
17.0507
22.2359
-0.437848
15.1928
-29.7367
-69.531
-56.3515
-76.0194
-11.2141
19.3625
5.52833
3.81799
9.49531
-23.5369
-42.448
-49.5058
-4.45793
63.6075
59.8609
79.1324
79.2624
14.5893
-1.14079
-10.2466
25.6582
20.445
-6.3283
-10.6865
-22.6741
-31.5108
-33.3967
-53.95
-66.4125
27.4259
71.6533
42.7625
8.28763
-11.4882
10.0317
24.9215
-1.69684
-55.1039
-26.2515
63.067
2.01811
-41.8882
-36.193
-30.1893
-37.1548
-34.834
-53.0546
62.7838
66.6983
-6.26024
-22.0351
10.4643
33.8346
-14.2339
-32.3949
36.098
54.8668
75.6313
85.158
53.1929
4.06287
-62.516
-82.2397
18.366
9.68262
-15.8786
1.21672
-36.8772
-22.5682
-62.2725
-51.6995
-6.26763
-20.4001
-8.61895
11.6263
1.09284
15.6602
14.9268
-42.5296
-79.8336
-6.77036
46.3583
71.9673
41.2242
25.2267
1.93878
-10.8418
-101.366
-47.6972
81.0915
89.5783
56.7432
29.8547
9.18617
8.54751
-40.024
-3.71137
23.9735
25.1559
36.1028
23.1096
27.3561
11.4614
-44.7978
-26.2002
6.87709
7.3419
25.8684
-20.1676
-96.4302
-89.364
-122.051
-154.434
-49.3648
75.0151
85.5995
56.7358
42.2542
46.1571
37.2445
-7.65187
-24.6106
46.8689
25.4417
-17.5145
-24.6077
-11.2484
14.9846
17.0071
-32.4298
-78.4266
25.0828
129.186
74.2611
-2.0904
-20.9949
-28.9079
-36.9776
-54.1608
-56.2982
54.1906
68.2066
27.1516
21.1407
11.685
2.00378
-39.1244
-22.4369
-3.2767
-8.18432
13.6514
-38.0043
-64.0335
-56.9557
-100.401
-7.35776
31.2877
18.0786
24.1941
44.324
-2.01923
-30.8211
-82.4828
10.5693
67.6345
66.5068
74.4054
60.3304
28.7786
6.92923
-39.7949
-14.9483
92.7845
107.7
90.7142
11.0457
-28.8869
-32.4655
-25.4291
-68.0589
-121.884
-2.61976
14.5263
-28.6235
-54.3437
-43.5894
-12.9872
-41.1867
-111.275
-16.9671
105.138
78.9165
3.15365
-24.9014
-22.4559
-28.2023
-74.6517
-91.5045
8.77136
70.591
76.3484
59.4155
72.9215
39.1815
11.719
-24.6151
-57.0103
49.5618
90.5183
55.8578
23.1137
-1.67661
-62.1304
-108.622
-130.603
-43.2156
13.9327
36.6826
35.6793
41.5379
34.9668
-29.5048
-112.66
-27.3786
53.9577
52.8974
91.331
63.1308
43.2239
-4.5835
-23.0909
-110.552
-54.7159
58.3287
63.0902
38.9839
54.7444
57.1494
9.11382
-59.0678
-100.085
-18.5234
30.1935
-36.1242
-92.1648
-84.0406
-74.6191
-105.037
-13.8083
26.4246
34.2039
80.1591
44.4748
3.78996
21.1817
-41.4389
57.6106
92.7913
87.4084
115.024
115.33
35.1515
4.73324
-59.4246
-60.099
-62.2258
-72.9877
-40.193
-29.1989
-25.0801
-40.325
-66.3653
-70.453
46.2165
74.7997
59.4816
-26.1892
-64.9227
-71.8494
-45.0944
-37.9491
-82.2168
30.6132
115.948
98.4289
78.9345
78.3397
44.8352
-35.7877
-84.4794
-55.9303
-46.6548
35.3044
4.36327
-0.208896
35.9581
34.6764
31.9407
19.1689
-45.3401
33.1416
110.957
53.4919
-17.4931
-57.0509
-49.1597
-56.377
-102.157
-16.4752
34.7553
48.1114
77.4401
17.7709
-52.6816
-79.7646
-122.94
-47.3785
13.155
35.3658
89.2158
80.8983
52.2987
-21.067
-95.7598
8.80633
104.428
71.2876
22.433
-57.7119
-51.2128
-27.0691
-1.50531
-76.175
-66.1431
32.8551
89.1006
66.9074
41.4753
18.3659
15.9861
-33.0511
-96.797
-54.581
-27.3047
-82.4529
-98.479
-45.7263
23.0676
25.5375
-0.0166867
22.845
115.624
142.152
103.01
58.4877
40.3946
-23.046
-70.9673
-28.3414
-16.1221
-54.2312
-29.1937
-12.4551
29.6028
17.0418
-54.9095
-60.2137
57.2009
60.7207
32.5569
9.25433
-20.8939
-18.491
-45.062
-103.58
-24.5738
50.636
34.1269
-25.5061
-20.8842
-7.0268
-0.851679
11.2995
-5.20439
44.3993
90.4681
63.6047
1.56938
-0.0597723
-43.0429
-76.2646
-112.518
-74.9149
4.44991
52.7932
32.2072
-5.39313
28.9677
28.9178
-46.4344
-37.7618
91.1432
104.362
115.582
54.3997
24.2311
21.1741
-42.3117
-55.321
-12.3832
-36.1369
-78.9334
-49.53
-20.8997
-13.2244
-36.2071
-19.0879
-3.10772
-10.8728
31.451
14.4527
-36.1504
-8.48149
-21.7334
-62.7731
-36.6861
12.4537
19.1836
33.132
31.2679
44.9555
80.8937
47.149
-9.184
27.534
28.153
-6.17038
-20.7682
-7.30529
23.1902
40.8226
10.8418
30.0456
13.5183
-5.57271
-29.313
-47.9871
-67.5143
-107.087
-93.7888
6.08558
39.7837
29.4882
32.8107
26.8129
24.5909
6.06823
-5.04001
-25.1485
29.3901
49.1411
26.9259
-18.8071
-21.693
-12.0473
-11.7327
-42.8619
-2.84009
15.9478
11.1281
-1.02674
-9.9367
3.54901
-11.3631
-71.8639
-1.5803
24.9
32.6298
42.6634
32.8647
15.1103
-5.32173
-34.3747
-32.7801
-44.0604
8.18394
34.0953
14.4747
15.4653
1.44076
-10.2698
-14.7068
-59.572
54.795
86.3398
7.00333
-12.2692
-6.58202
8.04012
-41.767
-90.9888
36.2327
71.8385
60.744
61.9771
23.4305
15.2214
-19.8432
-56.6486
-9.51048
-0.0743413
-11.5316
-38.6104
-134.498
-93.5851
-50.6953
-59.2855
34.4716
34.4301
45.246
77.8558
11.3873
4.73644
-13.8684
-19.4861
-27.2863
27.0991
76.8645
103.504
51.8395
11.2498
5.75171
30.3673
1.3231
-82.1027
-58.7566
55.0133
-8.84197
-8.99008
12.9011
27.5087
0.956837
-20.3902
-20.509
-9.65494
10.2764
-21.4634
-43.8526
-30.5343
-7.93358
-27.039
-87.1462
-67.9729
28.7012
76.0458
55.9995
5.01454
3.57391
6.64773
-39.7136
-46.3153
-11.7129
7.50468
33.2392
32.1127
3.18999
-8.91219
-34.2065
-17.3628
32.4051
46.0816
82.6906
72.84
22.2802
21.8486
-28.6608
-87.0996
-17.5135
33.4569
79.9211
72.3958
25.4482
0.58622
-11.4171
-36.1923
-74.2724
-37.5227
-12.642
-14.3494
-44.2011
-40.8025
-4.56713
-3.4135
-55.0307
-33.5847
-6.97058
10.0893
-39.8701
-64.7638
-53.6021
-52.8139
-19.1798
74.5491
133.394
145.58
120.74
68.5798
66.1963
44.2233
-24.9937
-24.1278
-91.6704
-93.7634
-26.1718
-10.9664
-3.79884
-11.4054
-65.0018
21.1798
57.695
48.5561
15.6997
-28.5935
-65.2647
-69.5453
-79.9642
-124.905
-27.2605
48.5312
95.7675
65.6896
69.6638
60.4602
44.2281
20.7115
-20.2324
39.2852
48.9229
-5.92373
-32.5317
-20.5205
-25.8999
-33.3884
-59.5248
-60.0392
64.745
94.7747
24.7454
-10.6105
-33.6776
-28.119
-20.8096
-19.1888
-10.7138
-15.2714
-1.16575
-32.6323
-12.1893
-27.7115
-42.25
-37.6547
53.2246
55.0845
65.7222
51.6478
-17.5699
-20.2363
-59.0441
-56.9264
-10.0423
8.34015
51.4713
66.3678
40.6136
30.7166
4.80438
-71.8054
-0.483056
31.7872
21.8693
15.2997
-17.3425
3.3751
33.7509
45.4482
-24.2025
2.58487
27.2986
0.598338
-38.3446
-63.9797
-49.3002
-33.646
-67.8434
-14.1646
-6.41054
3.02922
-40.8166
-22.2809
40.1507
56.6192
-35.636
23.8176
39.207
40.3423
50.389
32.6879
24.2806
13.3824
-14.9609
-34.2791
-11.0377
26.8764
31.0926
-9.73029
-15.0961
-0.533087
-34.0592
-125.784
-121.277
-24.9968
55.6013
50.9556
51.5563
39.7614
39.7685
-25.2858
-77.8794
-31.6556
55.7213
90.3085
66.4542
37.2956
46.9037
24.9463
9.17326
-17.1774
42.5035
62.1533
30.3727
-7.97445
-26.3863
-63.8173
-98.1523
-138.2
-74.8339
-32.5532
-1.00198
7.57065
-11.1466
-28.756
-116.827
-169.247
-43.6967
65.6917
95.9171
124.019
73.0288
48.0464
13.9279
-35.5591
9.42098
12.4515
16.7253
50.872
37.104
52.4236
27.7773
-44.1818
-3.1943
-0.574591
42.422
53.7065
1.05686
-44.3783
-41.0269
-73.6543
-24.756
74.7063
107.061
80.3322
26.6249
8.58969
-3.56188
-4.65035
-62.0933
-122.05
-13.3546
63.6453
-23.8574
-42.2364
-29.4953
-42.3679
-70.3547
-69.3387
-63.1624
2.13637
66.0069
29.7672
22.0278
31.9915
16.9793
-6.47663
-36.4342
-26.8685
42.1251
57.8767
-4.05965
-68.8495
-97.3644
-47.6299
-16.1646
43.8594
43.8129
37.0153
56.159
54.2673
7.10276
-13.3661
-65.1959
29.1759
40.914
43.9422
78.9967
70.4724
14.8948
21.0675
-21.2618
-22.9557
24.618
68.1923
40.3531
-10.1078
-37.4525
-53.2698
-47.0905
-67.2183
-125.167
-24.1363
27.9874
-21.2695
-35.1675
-12.9195
-6.23701
-34.7264
-63.2595
20.7497
29.0358
36.8343
10.1405
-32.9306
-11.1965
-64.1895
-60.0958
79.4912
118.774
112.403
86.59
5.50381
-7.77505
-37.8904
-54.1872
10.3417
15.1427
9.92716
5.61251
-21.566
1.5543
-11.8863
-57.7057
-0.935573
49.5536
71.8473
65.1697
-35.2282
-77.1996
-58.2697
-55.8441
-130.986
-33.9809
124.53
119.615
52.6073
47.6231
56.8758
36.9302
-23.6363
-79.5839
-27.9925
-12.3797
-55.122
-45.4606
-10.9591
2.08068
-1.63112
-29.2828
-65.9469
13.4433
77.6983
57.852
-0.042489
-2.89109
-29.2754
-67.7709
-45.1993
-7.44789
7.97107
49.1844
33.641
35.7536
10.0665
-25.2058
49.8457
56.0982
14.0506
19.0689
41.0193
7.16198
-17.7817
-57.1795
-22.5213
-14.8846
-32.1649
-8.39555
0.448075
0.412162
2.61406
-46.0824
-37.8768
56.1622
41.0017
41.0778
-8.63418
-37.7076
-26.4334
-5.12845
-20.8843
19.017
44.3297
22.0502
-37.2262
-47.7237
-42.6382
-19.7786
-29.5681
14.9099
18.3925
43.2402
31.4763
-3.31726
5.12377
-19.4011
-77.1718
-52.3441
3.57641
78.3619
110.635
81.507
74.684
71.8551
16.4906
-33.0789
-85.3106
-31.7969
-1.6959
-25.0657
-11.4309
6.41146
-1.94322
-28.0763
-92.7691
-46.9184
57.7605
9.27023
-41.8942
-8.00844
2.91538
-67.4063
-64.3438
-65.8505
-72.0654
60.0996
158.188
117.681
68.9949
29.6372
1.98089
-7.21457
-43.5039
-79.6937
27.4756
51.7066
-8.167
-1.86191
-0.861845
-30.3919
-7.95773
5.28007
42.5168
57.0973
60.0494
7.17379
-15.2121
-28.1039
-63.0997
-101.981
-31.6513
4.37294
10.3639
22.8461
15.0223
13.6426
-27.5332
-0.972201
8.62911
-32.8949
-21.4837
-0.643268
14.5898
30.7537
-5.11594
-23.5047
9.48468
14.1577
40.3931
57.7807
17.0956
9.51195
22.6816
-19.1437
-103.801
-130.802
-20.3155
32.1349
33.4699
33.9492
41.7671
43.0588
-24.059
-99.6036
-2.12075
29.0096
87.2514
64.5082
41.7949
31.5777
-2.64186
-45.8325
-73.9969
-40.8481
49.2803
80.6208
40.7481
-9.333
-15.7299
-4.0381
-19.4644
-21.709
-11.6808
-42.2407
-47.0028
-26.595
-69.6647
-57.8252
-68.392
-15.0197
28.829
55.2966
64.1006
56.0717
17.363
7.09241
-26.0531
-62.2785
-36.4839
19.5557
26.0168
38.1064
41.5133
102.272
87.9924
44.2888
-50.1365
-88.7887
18.0542
-4.72679
-38.112
-25.5752
1.41559
3.64522
-47.5124
-67.7415
31.5832
94.6217
77.3215
10.2253
-5.95223
-6.00734
-45.1313
-65.0449
-15.7433
-4.97911
-0.120188
4.57618
-27.0745
-24.382
-33.0456
-46.7719
21.495
41.1767
46.5718
46.6651
-4.47129
-28.4924
-60.4346
-46.9479
44.5127
43.0617
21.9781
54.2881
11.9454
-16.3176
-5.5517
-12.6993
-24.6906
38.574
29.2857
15.2738
-10.9426
13.5474
38.2567
27.7115
-37.7619
-54.6326
42.2684
27.201
-86.2193
-131.597
-41.2239
23.1957
0.847843
-33.7154
36.293
86.3853
75.3111
8.1032
-9.06851
0.0422202
-21.2858
-31.1812
-62.778
-1.02434
43.925
35.3334
-19.241
-28.992
0.943205
18.6926
-19.4377
0.0392635
23.1993
65.9326
50.7076
26.7826
-24.547
-101.331
-106.157
-5.58141
26.6872
30.0407
47.1842
16.5711
-8.93211
-36.6795
-87.4986
-19.1253
73.0825
120.913
95.2061
41.7481
26.627
-3.96892
-66.6864
-112.101
-63.1164
40.3768
59.0006
10.447
-19.5043
-55.4641
-95.1652
-141.381
-10.6966
84.4214
97.838
56.9154
16.2506
-3.02192
-19.8626
-69.7468
-13.0178
24.7471
11.4384
44.8895
33.5688
3.50317
-8.60532
-89.5127
-25.9153
28.9286
48.172
64.9839
15.757
-4.27769
11.0901
4.05026
-40.3713
-53.5101
30.5136
78.1639
46.5009
34.5923
26.4207
22.5512
19.833
-50.8033
-114.569
-43.2246
-17.5488
-49.0968
-23.3328
-0.841237
-69.2375
-111.582
-67.5998
-50.6403
93.9205
143.129
102.667
61.424
2.2116
-24.4274
-46.2587
-77.7901
-28.2246
40.6715
72.1162
34.4858
-15.982
-2.28106
-24.2039
13.3761
60.3582
83.201
85.3567
63.0225
-22.1732
-67.0768
-121.87
-40.1443
-0.549686
0.300469
16.0739
43.8784
0.00214799
-42.3547
-58.6805
-1.51676
16.0821
4.45252
8.32432
-6.37388
-3.9078
-19.5284
-79.4922
33.7814
49.3188
27.7922
27.6025
-31.2372
-37.8401
-31.7886
-47.6062
-50.428
17.2667
53.2985
76.2051
39.3759
-1.7417
-6.37812
-21.4761
-88.0906
-61.616
70.6001
96.2169
-14.3339
-57.4207
-9.92843
41.9355
34.3634
-7.65566
18.2618
68.0279
91.5748
33.3372
-52.3623
-68.1678
-52.2833
-73.8612
-35.9991
-10.426
25.0509
20.6415
-33.0203
-10.4941
-16.0589
-25.0884
48.47
71.6405
42.9255
47.2353
18.9874
-8.94669
-12.0355
-45.6679
16.2516
48.7353
22.3872
17.0352
-16.6612
-27.88
-31.4413
-40.0995
-72.5341
10.7586
48.2104
53.9862
-7.86916
-45.5311
-51.3093
-111.784
-118.193
-17.7716
0.00384273
23.8196
59.0973
75.7715
82.5783
36.0893
-18.6995
59.2793
68.4449
53.4786
19.632
-23.251
-26.0845
-40.2979
-38.891
-15.4804
-10.6359
48.5086
58.0105
-11.5576
-30.6005
-77.4482
-67.4337
-2.51947
-6.31962
-2.50446
2.11191
-33.8077
-7.61414
-26.4682
-76.2601
22.0729
68.2875
73.9707
55.0389
30.2967
37.2827
63.8004
56.9934
-36.5832
-81.4151
11.6315
-12.7748
-53.3878
-51.218
-12.1345
24.6699
-44.5613
-85.7541
15.0415
140.259
46.6516
-7.56168
-3.51271
6.42478
1.61508
-23.3602
23.2131
44.0592
54.1952
60.1026
-38.9719
-82.3208
-93.405
-117.491
-57.9716
-28.4438
19.5587
77.5732
45.8165
-6.46602
-64.0908
-81.0306
-40.4723
8.53001
49.5337
77.4659
60.9617
61.2072
61.5285
45.884
-22.2194
39.1535
52.713
52.6529
3.82047
-25.5858
-22.9842
-4.89421
-34.8431
-71.848
11.6919
33.7351
35.105
1.8306
-27.235
-27.0707
-81.5912
-126.021
-58.7111
0.901439
23.9214
-8.37849
-5.95546
17.9229
-0.16959
-96.3693
-56.4064
23.3247
52.645
46.2773
6.53013
16.5198
14.9121
-18.7936
41.1492
71.2774
70.9819
75.2036
28.506
-1.25361
-17.074
-20.0757
37.1649
43.201
19.2249
59.7506
34.7523
-20.4942
-34.4508
-68.0669
-43.6886
22.8737
44.4373
28.4551
-33.935
-43.1837
-50.5377
-56.6927
-99.6357
-130.926
-37.1414
-28.0412
-44.5426
-13.7013
6.17938
35.5788
16.2945
-71.6645
-11.303
77.3605
106.181
61.6193
36.7396
35.3009
32.1937
22.2362
4.11123
-11.7924
58.9394
79.5461
66.4023
42.4043
-2.46779
-16.9107
-50.9984
-72.0624
-2.68341
31.0289
-16.1728
-22.0172
-64.3403
-95.1688
-115.633
-110.592
4.32117
68.501
65.8431
71.4564
45.7924
40.5686
-0.00698128
-59.9171
-63.936
19.838
54.6242
64.7783
28.7984
46.5332
38.891
20.1429
-45.8788
-130.74
-89.5499
-21.8109
-37.5743
-44.7139
-30.5026
3.92512
13.0167
11.2308
60.2972
96.4774
87.6111
44.5458
40.6279
32.4424
-20.0207
-12.8749
2.51236
-33.9952
-34.8025
29.2262
65.9502
70.9198
-22.1631
-127.245
-33.6228
-37.857
-46.3227
-22.4408
-24.8671
0.444269
-12.0323
-69.9478
-35.4821
-18.0188
-14.3463
4.64532
16.4168
43.0415
67.8466
26.5825
-1.5133
63.4284
83.7071
102.465
26.736
15.8047
6.01985
-27.8608
-82.8763
-104.643
-49.8688
45.431
26.6443
30.7765
46.3433
31.3665
-8.2371
-34.8277
-102.275
-57.2189
14.6298
-21.1227
-40.3682
-31.5314
-23.0096
18.4821
4.96914
-1.82781
51.0442
32.227
9.91517
-24.7678
-13.0138
-12.5435
-22.7073
45.8165
68.2289
42.5001
73.321
83.7074
7.25992
-92.9278
-199.425
-122.216
44.0892
55.7226
60.3922
80.0983
45.1023
48.9643
11.9083
-23.2712
2.26843
10.2156
11.4971
-22.9242
-48.6293
-34.743
-13.9083
-26.4017
-89.4523
17.6922
99.8513
70.41
-22.2706
-37.612
-19.8089
-30.7067
-79.3516
-29.4106
38.4076
43.3925
23.0554
30.2334
30.5517
-14.7743
-62.2025
-1.42972
17.3906
29.8105
58.9708
3.0863
19.7284
-8.81986
-130.07
-61.9361
9.3602
42.3133
45.7201
9.31442
-17.0721
-5.58348
-6.26227
-58.1611
-57.9202
-11.0024
57.6744
49.6078
65.6957
65.3307
61.6529
23.629
-29.3993
-52.1653
16.3797
6.53426
-21.5283
-10.8589
-6.0517
3.52485
4.16764
-21.6598
-50.2778
35.6793
45.2565
30.7022
11.292
1.94072
-6.76037
-79.7888
-137.373
-92.5889
-22.4784
19.5288
29.5071
13.3182
8.47331
-18.6714
32.7047
40.7172
30.5261
41.3144
38.9745
2.44871
-31.6803
-56.0584
36.6173
33.7985
20.3727
37.2962
59.9716
11.8812
-51.8645
-108.553
-40.2013
33.9673
45.8537
59.221
13.4744
-1.96046
-10.1396
-41.4894
-10.8991
23.9617
49.4343
37.2103
-38.8735
-21.8411
6.43584
6.01588
-26.6498
-45.0919
55.1334
72.4523
-7.9943
-70.116
-74.8034
-85.2653
-117.779
-93.324
-9.56247
72.712
65.1189
33.6942
26.5912
31.1149
19.2561
0.421219
-63.4071
18.0043
125.594
116.326
70.4972
48.2807
-25.8588
-62.0479
-66.1985
-20.5551
24.4376
12.8418
-30.9649
-53.2584
-45.5477
-32.6796
-65.8682
-57.6629
26.2741
56.4441
69.7349
20.6473
-18.8523
10.2755
36.659
20.892
-28.6421
-18.137
50.5784
83.8899
1.02366
-57.7183
-53.0157
-16.5891
1.22495
-27.9563
29.5211
100.8
35.5237
-26.3123
-32.0324
-30.8569
-20.0817
-70.3885
-99.6656
-12.6892
19.0339
-8.51877
-36.9116
-39.996
3.78723
16.5311
43.7059
65.4697
43.4571
54.6032
67.9296
47.0255
22.9987
-18.9727
17.9754
11.0466
-49.3105
-36.6387
-38.7473
-37.2288
10.1372
-33.3888
-53.5997
-32.0594
-22.1249
46.6127
58.4271
36.0558
30.4162
0.931327
-28.7069
-29.413
0.0373274
16.6967
-3.2701
2.63986
34.3573
53.2056
44.6818
-10.5104
-100.592
-29.5236
27.0335
-1.69845
14.1611
16.9457
-10.5342
-31.8819
-43.4695
30.8602
95.3928
40.7811
-15.8304
-5.67433
9.07544
-23.1752
-119.64
-103.279
-10.3529
7.83782
68.1387
47.6884
9.49445
-0.628615
-41.1911
-34.6323
-10.6779
-21.4056
-4.5295
-6.14113
-44.3017
-30.4676
-67.3768
-92.568
28.8805
91.7316
142.048
127.59
49.5606
31.6966
41.6886
-25.4407
-75.8357
35.575
90.643
90.8459
56.0991
27.4086
-0.751314
-93.8856
-170.74
-26.6172
57.3147
65.1011
-13.2129
-48.4242
-44.2685
-84.8874
-117.817
-7.9345
15.5313
26.4111
31.3108
-22.1593
-37.4402
-126.325
-102.385
60.6092
100.707
118.603
131.942
43.2426
9.36161
-34.1463
-72.0927
-10.3432
47.0204
54.9893
49.4727
-0.237845
-15.107
-38.4469
-77.1308
-147.458
-31.6162
46.9121
31.6595
-28.9289
-20.0793
0.406101
27.4183
1.43406
-55.6587
-35.4421
102.271
138.182
89.8903
50.6755
-0.0814013
-36.6288
-22.8426
-47.3084
15.604
65.5854
7.69416
-2.63705
-21.5434
-61.2104
-40.7798
-36.0379
-14.0446
-12.8794
33.9984
47.645
-33.9326
-94.334
-110.738
-115.426
-1.6092
58.3878
50.6876
74.8313
31.6409
12.2791
-14.5051
-49.2383
48.8737
41.1998
17.9849
49.4374
66.7549
30.5702
18.7021
-19.6887
-64.2264
-18.9795
-5.64898
20.6985
3.25497
-19.4416
-6.52809
20.3241
8.86151
-35.6443
-26.4355
37.7285
-11.1643
-12.198
-2.43871
-8.95462
-6.24455
-9.75787
8.99817
108.212
102.8
32.8481
21.054
5.9443
-59.6082
-108.571
-127.116
-120.807
-94.0824
-81.5328
-19.6522
26.6073
48.899
54.4173
48.9476
-0.472241
-37.5296
70.2506
74.5842
34.55
32.5729
15.8416
11.4543
-19.6068
-44.2466
42.597
82.7594
46.1744
24.853
49.8468
6.46929
-19.4694
-45.9941
-98.7022
-67.6607
58.4746
54.9842
-2.44559
-1.61951
-29.8537
-53.4338
-81.8148
-116.629
-40.7164
40.0621
17.5583
15.8165
41.0316
52.1471
51.9846
-14.0015
40.4412
54.5836
60.9231
31.7286
-20.4339
-27.3899
-62.4245
-78.3926
-33.5292
6.8297
17.1082
57.1675
43.8559
-0.456764
-33.2653
-64.2612
-32.8247
-7.23912
9.64531
27.7704
-18.2815
-9.31241
-8.24534
-58.9111
-64.3699
59.9587
50.2459
50.3083
28.763
17.6483
24.6481
16.1211
-32.5451
-48.2909
5.78262
22.8995
1.09086
-8.53484
18.3731
32.6499
13.6617
-29.671
-70.7356
11.2066
56.3291
-3.90432
0.121121
15.6403
-5.57366
-22.9481
-25.8873
-101.228
-78.7682
61.136
55.3344
56.1474
57.6253
36.1357
13.454
-20.9734
-53.5598
4.86669
45.8585
42.0418
8.2384
-16.5935
-26.4704
-59.8797
-55.7903
-13.4923
6.80219
63.3408
59.9304
-26.9393
-58.4121
-67.6839
-56.1205
-8.87741
42.9443
54.2578
44.8306
7.97581
21.2304
3.98798
-16.192
-60.587
-69.6319
20.2962
89.5079
47.6286
27.0799
58.4977
78.7207
30.7038
-53.5555
-71.4327
13.598
-13.912
-71.3297
-124.91
-116.035
-55.3442
-45.038
-31.6787
60.8265
88.0443
93.1624
64.6309
10.1442
-22.3055
-79.4138
4.80356
60.2968
34.7876
35.8835
67.4017
31.7472
15.3504
-38.7732
-42.5074
45.7772
12.2306
13.7856
14.7618
-20.8136
-5.75566
-2.04359
-45.3467
-21.4262
25.4481
64.7745
22.5292
-48.7777
-94.6184
-83.979
-74.0872
-134.021
-69.778
60.7373
137.009
68.5342
29.1558
25.3365
17.518
-10.5354
-56.6919
-108.188
-18.6423
62.2903
82.1889
122.432
88.6409
66.5096
67.5917
17.2694
-31.7535
-15.5229
-57.2928
-80.8526
-57.6124
-44.2846
-39.72
-80.1363
-80.3416
42.4226
82.3155
102.228
74.9112
6.61155
-36.6273
-75.7173
-109.802
-118.711
-72.5222
21.2013
68.8003
69.1996
50.7554
33.6592
-33.8897
-85.5141
75.8043
128.205
99.6729
10.0735
9.38667
39.2098
16.0333
-70.5781
-148.563
-109.42
18.3649
32.9387
40.3566
58.5555
52.9187
21.5118
-25.2894
-31.0787
26.9035
40.151
-42.8967
-33.5407
4.31416
-21.3089
-62.9442
-25.6013
18.1022
10.094
29.2926
-0.948645
-54.0169
-23.807
-35.3152
-93.9117
-10.3627
50.9329
65.4856
47.5586
27.5937
15.5188
-11.8461
10.4067
-32.8753
-83.2662
71.9961
84.5141
71.5382
79.3448
75.2919
80.8108
18.0771
-76.6719
-142.222
-12.6225
-14.2972
-58.3528
-62.1385
-39.2201
2.77997
16.4473
-17.4852
-71.0006
18.2296
73.5043
2.54557
-28.0014
-65.3559
-64.3014
-48.55
-99.3638
-108.66
30.5457
127.611
102.357
67.6248
87.9421
93.2145
28.6656
23.4972
31.8602
28.8107
58.032
18.9973
-17.5844
-42.0388
-72.9616
-11.8898
24.1527
36.8846
77.76
76.8755
22.1297
-17.2642
-125.624
-181.606
-65.6117
-28.0491
-22.0183
-28.1931
-24.703
-9.85231
27.2637
7.32811
-32.9994
18.8078
50.2429
23.3354
14.6307
20.1349
35.4129
33.087
-31.6887
-46.3749
19.2854
22.3214
-68.1094
-87.9656
-37.582
-15.0341
-38.3071
-91.7639
-38.5731
115.422
145.688
88.9959
70.3969
53.319
33.0009
0.0887069
-39.9798
45.3014
61.3121
45.9215
1.94757
-10.2787
-34.1114
-48.5139
-64.4204
-10.5264
26.857
68.5228
46.0759
-9.17114
-8.58027
-79.4673
-123.561
-152.607
-110.6
-51.5237
4.30702
-9.88927
-0.990959
17.2114
29.9039
7.0679
-29.6706
60.9293
146.189
85.1537
31.1647
44.64
38.1662
20.9373
15.3794
37.3391
140.284
104.081
34.4018
-34.1091
-56.704
-80.5623
-125.356
-104.514
-51.1746
-24.1234
-3.90167
-20.5196
-38.4302
-43.5127
-40.9845
-3.79053
-26.5594
-65.4598
-50.7719
-10.5579
-19.2732
-11.4981
-12.4989
76.5281
93.7727
69.7128
81.2645
76.8649
59.9077
24.5707
-5.48284
-34.1819
26.5792
39.1521
37.2347
-12.1268
-12.4156
4.48461
-12.4402
-80.9861
-96.5311
78.3546
126.708
48.2927
15.5984
-15.0594
-9.00601
-25.5026
-80.3906
-91.5431
-21.6203
24.5182
-25.0556
-31.4084
-27.1237
-12.5549
-15.6216
-71.6981
-66.6606
-39.3869
-23.0674
-38.3885
-21.8909
-17.5022
-23.5187
8.43369
134.813
93.2131
60.1571
94.0862
80.8192
48.5783
-10.1611
-35.4316
15.6663
-2.47755
-4.37505
20.1704
51.5763
89.9568
18.7241
-65.7648
-13.789
25.3466
40.0439
14.2014
-56.0493
-45.8584
-35.5802
-24.1069
-89.1796
-93.5309
-62.9694
62.0433
34.255
-12.9814
-34.9678
-22.1277
-8.73573
-16.1076
-11.3488
75.5899
40.6087
7.15591
1.27158
-22.6115
-75.5263
-97.2306
-37.9532
52.3323
105.828
84.1571
44.1907
-9.03074
-21.9308
-19.2269
20.7864
-19.8716
-53.5356
-17.1011
30.4244
-4.36785
-16.5901
-19.3403
55.6036
96.3274
52.9775
64.4689
49.9394
-19.0411
-53.7629
-77.011
-110.981
-52.7583
19.5375
37.7425
28.2969
58.7555
62.7549
39.3418
2.83765
-112.801
-96.6738
-43.6668
38.2483
30.2967
41.9414
65.5399
27.2969
-15.704
-32.9751
-66.8966
27.84
31.4142
-2.56092
-26.7634
-68.0364
-41.6234
-16.3477
-27.5293
43.2669
74.0784
39.8269
7.34815
-63.5823
-73.4942
-72.5268
-51.465
19.7093
66.6552
68.7634
77.1203
34.6575
-48.1903
-88.6091
-77.8579
16.7777
25.7743
30.128
65.234
52.0252
72.3753
62.5838
3.41567
-77.6134
-14.0687
34.8697
11.0845
-31.1849
-33.9094
-13.9715
13.3504
-27.2631
-59.7186
59.4192
108.226
59.6741
34.4853
26.8514
1.63688
-46.1016
-76.2107
-13.0355
23.3577
22.9814
-58.4633
-127.954
-88.622
-54.5037
-79.3778
-71.019
15.9621
49.4353
65.3183
19.946
36.1776
34.2592
23.4455
-18.8352
-8.16695
53.5287
41.2702
-7.49978
-6.39955
32.8041
53.8327
27.5241
-19.9046
16.3946
-9.09853
4.25363
-23.5539
-22.1728
-10.2714
-37.7491
-55.9325
-63.838
38.9926
72.4916
57.156
11.4566
29.9304
4.8128
-57.5996
-66.9935
0.852147
39.1198
10.8997
-28.8661
12.9417
25.5194
-0.320459
3.754
104.132
54.9022
26.1565
11.7141
-44.7497
-43.7791
-72.9349
-88.7726
-4.2979
11.8743
41.0054
31.674
-57.6364
-110.844
-121.836
-80.091
39.7936
51.3455
46.9032
64.4852
15.2292
18.404
-9.88476
13.0052
29.3111
31.0441
62.735
59.6337
8.57978
-5.99186
-28.8063
-84.8349
-4.51742
106.834
110.111
44.3269
-20.5003
-35.6761
-55.0324
-113.137
-141.074
-94.58
45.0543
71.9138
37.8016
32.7314
25.0449
11.0134
-12.1533
-17.8009
-29.2248
85.4032
67.8911
20.0432
18.4467
-13.6963
-45.3464
-53.1506
-71.126
20.0651
54.7554
49.1568
-15.1808
-58.1675
-88.6679
-157.954
-139.57
-18.6116
24.6196
57.4678
92.5004
76.4254
55.4311
28.0746
23.3713
82.8762
75.4378
56.7269
40.1501
-9.46205
-4.51282
-5.24921
-31.8277
-23.1814
77.8026
112.31
43.7822
-34.9086
-63.9241
-56.1049
-68.8824
-112.926
-64.8385
-16.7563
-0.190429
-31.7902
-39.3435
-43.9449
-55.6771
-113.3
-31.1102
-4.23551
3.93531
18.9067
-10.6161
30.3465
61.7543
-2.79287
74.6417
86.2069
87.6991
86.6472
59.6217
45.0694
-28.4035
-112.597
17.7203
75.9605
64.7219
55.4733
-26.6886
-42.7484
-60.8811
-113.92
-76.5988
24.8495
60.3683
72.0962
8.68732
-12.7171
-7.20569
-14.3179
-51.3469
-64.7526
23.8036
77.3204
30.8403
-8.56685
-29.3253
-74.5057
-84.3365
-110.896
-77.357
26.6687
109.768
93.7554
114.096
125.426
67.7631
44.6807
-16.4487
-39.4957
21.5421
25.8064
7.92352
-37.7052
-108.583
-114.334
-133.452
-75.1352
24.3385
46.0276
56.6634
26.1919
-66.6282
-83.5159
-149.199
-121.874
50.0854
54.3128
69.6281
76.3166
35.6021
33.5073
-9.78748
-2.47626
58.6119
63.1351
88.031
92.4006
71.4441
72.6472
20.0807
-42.4165
-32.303
-7.83786
24.5415
23.8703
-48.901
-46.5046
-29.8953
-88.806
-147.915
-74.1079
26.2039
29.9283
-12.3032
-4.77361
34.6837
38.8017
-28.4733
27.7165
40.7503
60.6176
33.4804
10.7213
9.30066
-42.436
-136.332
-92.9291
-65.3231
-15.8897
40.3065
61.3408
82.5365
88.0173
8.55859
-76.7708
-58.7642
54.3412
44.4801
-2.88594
17.5841
50.7668
27.0455
-54.5183
-21.3026
39.8591
51.7443
42.6524
39.3253
32.2694
11.3531
-24.238
-84.4276
-131.306
-75.5799
47.1462
39.0235
-10.3277
-12.9379
-24.1576
-36.9367
-68.3861
-65.5898
12.6772
13.8317
3.56539
37.839
58.5818
40.0411
6.86164
37.0133
12.4792
-7.01052
43.432
33.2328
-10.4614
-18.9607
-62.1131
-24.7312
-28.0953
-31.9926
3.48555
22.9768
23.1165
-9.35479
-49.9194
61.3899
59.8494
53.8067
81.4157
48.9876
-3.89235
-41.8146
-63.8695
-22.9307
-29.0183
-48.6907
-48.0298
-14.7021
29.4302
46.7325
1.45882
-75.2589
54.5337
95.2625
84.731
8.96876
-26.438
-22.8345
-20.3333
-62.7082
-113.044
-44.6252
14.0405
-14.2776
-8.77305
30.4556
52.7323
17.0382
-8.58849
-39.6663
1.39203
80.5431
-9.09896
-15.2174
19.2796
-16.1811
-22.3862
-35.4468
-25.8049
47.5555
70.2043
50.5664
11.7508
-17.9198
-12.589
-34.8188
-21.5017
5.00768
-3.85867
-5.49126
-2.15881
-6.31887
-33.0923
-94.9505
-19.5491
49.6696
71.7072
71.8299
40.4662
-11.8437
3.62424
-10.267
-17.4711
-44.1217
25.2179
53.4785
29.2872
-10.6214
-11.1035
12.2762
3.38545
-42.8316
1.11931
33.7042
-14.6668
-64.8368
-51.3268
-15.4524
-25.5734
21.0601
77.0746
28.2613
-34.4478
-73.5992
-125.782
-60.6416
-43.2983
21.6161
88.7875
49.0052
53.6956
76.7414
20.2195
42.2868
7.22465
-20.4618
46.7984
29.7944
28.474
-4.23354
-41.1092
-23.478
-13.7864
23.5268
60.2939
89.7072
35.6128
-23.7673
-48.6056
-29.0565
-19.4615
-48.0835
-90.2544
-9.18524
-9.494
-25.5665
-69.6902
-64.6445
-38.0313
-31.8072
-65.2822
-111.754
44.451
171.304
123.283
45.8569
28.5218
-14.0045
-51.6905
-85.7363
-89.9233
56.6418
109.531
82.0435
104.172
81.9971
12.2395
-13.9708
-64.9976
-6.46636
32.3181
55.9585
-1.90817
-56.6155
-61.3345
-81.0147
-77.7759
19.4824
39.1945
75.8867
87.445
18.7322
-18.537
-138.537
-262.477
-117.043
24.1641
69.5507
109.083
68.0272
60.3315
90.3966
48.3079
-48.5373
32.7444
63.9382
51.0503
-34.9471
-26.8999
-30.8949
-62.0702
-121.145
-41.4725
41.8362
121.15
47.3499
-29.4723
-23.2783
-18.3718
-31.6538
13.3915
17.5763
2.28546
8.40506
-56.5693
-64.7489
-71.5826
-113.963
-13.0678
48.1488
57.6186
55.3729
22.286
29.4288
70.0737
18.1268
-84.9328
-22.1683
84.4136
70.7755
103.869
50.8363
9.41501
-30.821
-73.2929
-74.8858
-23.3161
17.2799
33.9488
-13.1969
-7.5665
-4.6785
-19.3068
-30.672
-35.6479
-40.657
25.9706
19.1873
6.25678
17.7574
32.4078
12.8607
0.217501
-9.50737
39.6719
66.6335
15.2728
-23.9942
-31.4095
-52.0703
-77.4274
-89.8201
-44.7106
-29.8455
16.5019
53.9038
7.55779
-35.274
-54.7123
-41.2695
16.5438
24.3687
94.6575
155.713
101.893
26.3817
-13.3622
-66.7201
-83.6486
-73.7655
34.7448
64.6891
42.3613
18.9289
26.2448
19.0219
-22.1271
-48.8683
-22.3638
-0.304906
19.8083
10.2198
-21.1103
-24.8146
-15.4364
-5.1864
-17.8276
-35.7894
55.1121
98.8326
43.05
-4.881
-46.2358
-41.1367
-51.6816
-86.2751
-9.13701
25.7938
16.3519
9.67685
-30.699
-39.2661
-80.4136
-123.566
6.38094
87.5901
95.56
112.354
68.6354
9.70496
-60.5979
-73.1317
34.9902
52.3068
42.7473
42.4667
8.8278
-3.39808
-38.9766
-73.7001
-1.44329
19.1345
23.4223
43.3077
-3.14669
-54.9321
-70.6567
-46.9251
-15.1494
87.0454
92.6818
54.9378
-8.16212
-56.3976
-114.114
-65.8457
-66.1869
-41.9324
94.7145
106.716
50.4834
35.2273
38.9355
49.7708
7.8792
-48.6568
-89.8183
18.8153
32.4075
-42.101
-30.6904
18.6519
9.15916
-3.09502
-41.702
9.36783
19.708
2.91863
-45.5905
-29.3538
-23.827
-18.2068
-53.4748
39.3717
67.7525
87.627
109.65
36.101
-38.8608
-91.0182
-64.4443
-11.9468
-14.7916
9.47218
55.8779
-3.88944
-30.9839
-47.4217
-121.409
-74.5464
-26.9918
15.1224
44.4629
23.2575
36.6207
41.7932
64.6183
24.6816
19.6111
77.1167
64.2969
22.8677
8.02019
18.1922
38.4155
9.7605
-19.6368
24.9764
32.4393
-24.0889
-56.7755
-60.6017
-65.0042
-137.604
-169.919
-11.984
31.0576
37.1865
46.7259
29.0877
20.4298
-1.38285
-42.7286
16.1283
69.3592
61.9179
37.7399
-1.25272
11.1079
20.0319
14.4742
-13.594
74.1064
83.2919
67.3692
-33.5251
-50.6809
-42.5921
-78.4011
-152.871
-154.123
-42.424
86.4086
39.1613
-5.04777
-21.4686
4.7497
-6.72802
-35.0801
-83.8869
28.1553
68.739
21.2262
42.0623
64.4049
16.5258
-21.2831
-35.0665
62.2068
119.069
131.386
55.0032
-40.252
-61.0538
-81.1816
-76.1545
-4.34833
20.8755
67.1432
88.7901
-9.32877
-54.514
-127.34
-75.8761
0.191607
-37.0084
-79.1692
-6.17296
37.8276
57.8948
26.9123
37.1911
46.2776
25.8876
10.6153
0.429978
-30.2263
-47.0341
-30.3159
-47.5447
-71.954
47.1442
185.374
122.085
27.9784
2.22889
23.4752
22.1
-37.8315
-100.958
-13.8141
30.7617
-8.40522
-24.9848
-33.5288
-44.149
-61.7018
-95.3273
-69.8026
92.0277
81.4992
27.2486
-17.7993
-24.3462
-40.5443
-25.8794
-35.4015
-28.2367
46.2018
47.8036
12.7326
-30.7003
-21.1439
-6.86129
-44.8611
-60.1016
64.616
90.602
57.5492
-4.13456
1.53358
-2.1422
-30.5058
-29.9477
34.207
58.082
79.3053
44.5503
-26.471
-18.217
-17.9791
-16.4429
-62.1578
-31.463
112.89
133.509
76.6302
55.0544
13.6527
-37.827
-101.623
-137.903
-47.2913
-48.9872
-69.2179
-13.4333
43.0459
56.0949
-20.6099
-32.8914
78.7311
61.9205
66.1982
20.7855
-56.735
-59.7773
-104.833
-101.539
-18.8938
-13.2832
11.0645
41.4517
9.22116
40.1657
25.2614
-16.9252
39.8226
35.328
22.7162
17.5548
-61.6173
-79.2596
-72.8911
-96.7561
15.9242
117.735
109.555
94.7658
48.0201
34.7719
42.6879
18.8749
-50.9187
-88.6379
3.30299
9.18712
-28.0252
-13.8603
8.39111
14.9268
-9.15852
-40.6385
-46.991
84.1058
53.696
-5.27355
-30.5777
-26.7814
-37.1377
-23.346
-42.3151
-6.46466
1.66714
25.1145
-12.2679
1.29205
9.56767
-2.57331
-30.7506
-12.8568
-51.7619
5.04187
73.8508
44.5642
6.99402
-21.498
-77.8316
-41.5354
27.6218
39.8816
62.1991
41.1992
44.6039
52.2435
1.37381
-54.2689
12.4218
10.935
15.4284
19.3573
37.1202
12.7988
0.145593
-39.1357
-112.193
-38.2321
71.2512
42.5951
-19.4902
-28.8054
-25.8848
-42.5769
-77.4606
-66.0992
28.1462
82.4811
6.62572
-5.86406
11.6395
-18.9806
-50.9453
53.3196
60.1156
20.7041
25.4802
-19.1913
-44.0332
-56.1871
-105.955
-20.8105
10.3127
10.8858
43.3454
71.8813
44.8987
19.0739
-50.1522
-9.60519
101.567
110.72
103.464
23.5969
-31.3376
-64.4529
-55.2549
-88.2964
-75.7085
-16.6228
40.4339
22.0207
12.2829
12.8999
12.0779
18.3732
-0.565182
-64.5166
15.0221
69.8261
-1.19493
-25.8655
-46.521
-109.356
-73.7972
-21.6558
13.1903
91.4173
68.8556
41.2983
24.8825
-32.2539
-65.2961
-82.101
-18.5812
11.3846
5.68755
70.4886
48.6763
-15.0776
-60.113
-74.5895
27.5482
89.7352
109.291
110.584
66.8581
-14.5049
-80.6758
-134.419
-11.4222
29.7479
43.7627
45.7603
46.5356
17.4143
-28.3851
-66.7567
-106.263
-7.74217
23.8697
53.598
39.727
12.8277
-31.0113
-78.266
-116.032
-126.161
2.18503
66.1659
30.5942
16.5375
23.3617
39.4588
-20.3311
-73.5709
46.4409
77.2282
77.9128
12.2041
12.4362
4.20544
-63.863
-117.147
-8.51602
51.0118
80.2487
72.9698
27.3671
20.0787
-20.2142
-52.8887
-79.6562
42.6388
63.4767
78.5412
22.8121
3.16415
-71.3233
-150.987
-134.813
19.5275
70.7369
72.3682
-6.99556
-47.8582
-18.4655
-26.3867
-104.053
-9.29339
91.6289
95.7746
113.661
72.5404
74.8776
37.551
-33.2365
-60.4866
-49.3188
44.9352
63.1855
-11.7787
-32.3146
-7.86593
-40.7868
-77.7876
-121.144
-63.8513
18.1667
-0.47081
-54.6996
-34.0226
-29.7073
-102.29
-70.3153
8.80786
36.949
72.5487
106.394
69.3126
29.3579
-54.9881
23.8766
49.6284
39.7019
45.5598
63.6628
66.2143
40.5315
-36.1745
-19.3684
18.7195
9.57241
15.0845
-9.38666
-22.104
-51.4035
-85.4592
30.2665
37.3418
20.2396
14.8202
-16.1347
-13.9341
-7.71927
-5.76816
-65.5491
-8.74454
20.1049
-23.09
-46.8785
-29.7513
-23.7498
-22.0429
-10.016
-63.5345
-62.018
55.8236
45.8381
43.3383
48.9837
47.9352
36.4315
25.7561
-18.1755
-41.3321
37.642
40.5676
16.8088
34.5505
7.46359
-3.00153
11.2628
-39.8703
-31.4945
-13.2127
-16.3638
-33.4851
-53.6681
-29.2848
16.1416
-0.0237628
10.7805
18.3982
46.13
77.7697
60.3712
-7.90214
-73.0926
-182.142
-139.792
-7.89706
36.7325
65.9797
37.8447
63.6619
84.1391
46.8797
-12.9675
-52.9553
-4.13651
20.7756
0.282503
-3.44426
6.70142
5.7961
-19.5962
-99.4918
42.3779
147.123
93.6259
-3.09128
-27.8699
-16.9404
-68.5708
-71.5909
34.3649
54.0506
37.4023
7.02539
-38.8764
-56.8852
-104.552
-78.3381
-52.0685
-49.7646
12.8502
54.5495
14.8967
33.7489
-52.6124
-72.4283
63.3883
93.9027
94.1499
80.0463
33.7885
28.3177
25.5756
4.13534
-48.097
-53.5528
51.1821
108.709
49.3701
1.92763
-33.968
-37.7746
-74.5069
-105.872
-77.8555
17.8848
-50.7025
-67.239
-25.4515
9.54143
-8.71467
-7.2436
-27.6582
-58.5504
48.1424
87.6337
61.3291
5.5301
-10.8573
-6.34497
-17.4612
-38.8687
6.45008
108.042
128.037
62.8389
9.77635
4.71545
-6.55609
-50.6663
-19.6751
-50.72
-32.6023
22.2234
12.1191
18.0463
-23.8543
-40.9254
12.9596
-10.23
-30.9668
6.97699
29.2929
15.0581
20.4932
-48.8284
-70.9308
-22.0724
18.0989
28.6119
-16.5729
-15.0185
24.2392
44.3239
-22.5919
-14.0522
1.88377
-45.9766
-29.2173
16.7447
45.7064
55.4805
-30.1549
-14.4815
48.2023
57.0434
37.978
0.382052
0.922697
19.404
-33.9818
-21.4513
-29.3563
55.0903
51.5386
27.4764
10.5366
7.35935
-35.608
-69.5339
-100.527
-18.3118
0.355803
-16.3185
-49.6129
-40.8374
-9.12462
-25.2073
-39.1512
16.5524
54.6836
57.1349
36.9179
-29.1757
-19.3275
-54.7918
-75.1949
13.5688
66.5944
99.3905
111.828
37.2305
22.5252
-6.2728
-26.3054
-53.7468
-17.8713
18.0305
26.2182
7.04271
16.4734
32.7459
17.9406
-80.4735
-15.5479
30.0501
66.9349
37.1216
-37.2364
-69.4157
-30.1892
-28.1391
8.7883
-11.03
-35.478
-5.69399
-11.8265
-41.373
-114.446
-134.946
17.5623
65.9029
91.244
122.72
81.1042
44.2377
1.88612
-40.6612
22.4726
43.2073
12.7795
7.16756
-13.5284
-30.6815
-41.7569
-90.2157
-124.66
-42.0649
100.585
93.9104
29.9638
27.1847
43.8493
48.337
2.35702
-61.3433
-12.4191
36.609
-1.81477
-7.95015
-26.4791
-38.0573
-42.375
-30.6532
-50.358
-12.5921
85.6547
58.1351
24.8524
18.979
-35.3913
-67.7606
-97.576
-69.9287
-17.3685
32.3733
19.8159
16.3049
25.535
6.64263
-39.526
30.0525
44.8279
39.032
45.7584
54.3373
30.5213
1.87997
-23.3121
36.3208
7.12929
-18.2585
-23.0912
-19.506
-2.26586
6.63313
-33.1032
-37.1699
44.2542
73.4099
23.6556
-59.4147
-48.8141
-28.3936
-9.04871
-25.8495
-49.1041
0.322012
25.6776
15.2794
30.6035
49.603
31.8945
-45.3152
-24.7016
16.6665
29.9089
22.502
-34.3017
-35.274
10.2273
-42.788
-14.0568
29.8652
29.4732
25.4736
-20.0627
-42.0679
-15.6616
-42.6017
32.4862
47.2848
39.4048
47.6012
-3.80177
-33.6992
-33.2753
-92.4022
-109.12
-6.6351
60.3385
87.6038
32.2038
-7.20791
3.33172
28.4997
2.02545
-47.3577
0.0762718
42.0697
-1.69407
-28.748
7.88565
39.67
38.1501
6.89007
-21.8629
86.0264
65.1188
-30.218
-52.2229
-21.2299
-22.9174
-33.0697
-22.6905
-26.0704
49.1074
50.6174
1.71139
-16.5328
-28.6389
-26.7342
-68.4757
-89.5531
17.0211
46.6931
58.8544
31.2004
11.1775
-62.1616
-88.3056
-69.993
41.8731
29.1647
2.73154
12.9691
2.07066
17.0261
-21.9862
-52.5626
15.5288
62.5578
109.297
113.676
40.4906
36.6006
46.0471
-35.4649
-67.7532
-23.1714
4.56675
-2.82988
-55.242
-43.3428
-16.8255
3.97163
-35.9019
-0.7518
38.0437
32.4095
-22.3265
-40.0348
-29.2159
-15.3609
-77.7362
18.5867
51.967
58.0778
12.5495
-19.6913
-4.16486
-32.0413
-97.3642
-31.661
52.165
70.5882
65.8143
29.8812
2.97856
0.885882
-27.0181
-76.6506
1.75607
27.4346
27.607
-27.7682
-48.6317
-28.4376
9.12493
-20.0202
62.733
131.036
105.163
32.82
-25.4432
-56.6711
-83.0566
-110.448
-82.0131
-33.8131
19.1415
122.426
56.7046
39.6818
43.5766
6.89368
-19.5045
-60.9418
-13.836
59.1144
12.7454
-5.82754
12.4017
8.92299
-21.9899
-52.7745
-1.99516
34.5505
32.0362
3.3461
-23.1055
-51.1709
-55.3198
-117.919
-97.7701
2.37286
27.94
73.1258
68.4432
48.3191
-8.90629
-68.3255
-8.14425
19.4429
7.98656
31.6447
42.6976
36.9936
16.1217
-20.189
-38.202
15.3585
11.0533
30.4245
44.4827
20.2585
11.849
-32.1707
-88.7349
-143.638
-18.933
56.0968
32.5389
15.6384
9.06688
20.3686
23.1384
-24.9849
-84.9234
38.6861
114.004
37.2543
27.838
59.4944
43.3026
3.17111
-2.35754
-3.38097
9.15573
41.938
-108.581
-139.895
-77.3714
-29.9823
12.7496
-12.412
-17.3817
53.6093
69.8947
17.1588
-22.0281
-29.1419
-39.5095
-93.4646
-68.5492
24.2801
16.8304
36.9256
82.869
107.415
95.7192
13.313
-106.205
-33.9467
29.4627
32.1087
29.7459
11.6673
20.016
-12.7462
-25.894
-70.6998
-64.6575
23.511
12.8754
-35.2173
-20.8478
16.4332
9.37435
-23.5399
-25.6574
36.358
74.8531
-4.90074
-54.6432
-25.3061
-19.203
-69.5422
-70.3763
47.3529
44.5268
71.5274
85.1548
60.6069
41.0709
-26.4875
-71.781
20.3087
17.4928
9.43893
37.4586
57.1565
54.8172
-42.5766
-117.689
-35.2443
-7.94502
15.2087
30.7058
-22.189
-28.997
-64.8694
-98.5152
-41.1996
68.5502
82.5419
89.1953
21.2643
-10.6208
-26.2376
-20.0677
-29.8406
-82.0069
-73.5226
25.2407
16.1522
12.4968
9.405
1.9887
-35.515
6.81135
79.2286
66.1367
16.0287
57.7518
43.2272
6.46145
-42.8958
-43.3584
-7.66775
-53.7657
-57.9271
71.8428
106.52
53.5714
-0.196059
-11.2125
-16.7478
-62.3063
-44.6928
-20.1005
-28.1926
5.51393
6.91807
-68.8155
-47.7185
-47.1038
-54.7968
85.6095
79.2809
70.5556
47.9942
-11.3077
-4.74461
-24.9111
-146.252
-132.612
40.5747
126.824
94.1216
57.8431
62.629
80.0191
85.9942
6.44224
-41.9947
11.8501
13.4004
-71.6638
-109.84
-121.761
-99.8194
-116.277
-58.3003
14.3405
84.827
77.0445
-17.1399
-10.8598
-1.55743
-40.4864
10.5318
36.6369
31.2679
33.6979
55.6645
57.8401
38.0976
-46.694
-22.1472
49.3409
36.1669
42.221
40.7139
5.30281
0.0231666
-6.1791
-56.7126
-90.735
26.1671
64.5125
18.1681
3.83576
-7.16632
-22.6322
-32.6466
-96.1295
-64.7623
42.9776
97.2763
71.7491
42.1861
-22.0908
-96.3494
-95.1294
-67.4701
-111.51
-36.296
46.2279
8.19076
4.9799
9.7457
17.9387
21.3459
-24.393
41.5398
84.3811
84.0415
41.2712
0.375702
-2.42548
-2.53899
-62.8659
40.9698
82.3254
62.4253
96.2429
29.7414
-22.2302
-86.5329
-179.706
-127.319
-17.0432
14.7905
56.7708
12.6555
-6.09208
-14.0384
-67.1841
-65.6596
-1.09916
14.9562
87.4468
55.1947
3.00827
9.41696
-0.291824
-15.188
56.4975
95.1371
132.167
90.3285
-18.5881
-71.4582
-78.3698
-112.505
-102.205
2.27838
18.3739
-1.8851
-50.7562
-44.1523
-14.5071
-34.8677
-47.6854
-5.20691
74.0018
66.8806
-5.06459
-49.3878
-10.0079
-16.7706
-31.5348
-33.1567
79.7549
120.881
101.728
63.2531
79.0833
55.8905
11.6856
-48.0291
-10.4135
-23.0582
-35.6711
-44.8472
-64.7597
-51.747
-44.9998
-66.1512
-41.9464
74.1423
99.0417
71.4557
6.7917
-9.21702
-1.61226
-28.6067
-126.517
-141.998
-53.8884
79.376
80.306
53.7065
25.5832
21.7085
34.0496
-5.08391
-22.1219
35.5428
29.6216
-40.5621
-38.6159
3.36184
4.01056
-34.3547
-8.66234
21.4077
71.8959
62.8048
-5.52278
-42.0635
-70.3438
-88.3344
6.02716
34.5413
13.079
10.2141
-5.45138
-19.6079
-9.64753
-40.4525
-7.11864
26.9339
14.2655
43.8528
22.6664
-33.5869
-29.3499
-47.6598
-81.8029
24.9603
47.3119
68.8887
37.506
3.61238
2.84574
28.2668
5.65198
43.0287
85.7796
88.6529
48.4596
9.34024
-15.414
-14.4107
-31.4816
-76.5548
-99.3933
-34.2819
10.3856
-65.1556
-57.9401
-28.2532
-20.3166
-6.74779
-2.41266
-13.384
60.1699
45.3626
0.900957
-12.3157
-22.5288
-16.8129
-51.2493
-91.7701
-13.7596
70.7474
120.322
110.782
82.0145
35.8621
0.286689
-66.8717
7.16084
15.3264
12.3827
7.75931
-27.2146
-38.4197
-71.1912
-104.262
-31.7506
-19.7117
28.2467
68.3597
18.606
-13.6737
-4.38176
-38.9162
9.2769
17.2636
95.801
109.473
47.1514
5.44966
-2.90052
18.7236
-42.5344
-27.5677
-14.1036
-3.30177
-57.0414
-64.2701
-54.2844
-55.0687
-71.4672
-3.54703
27.3725
66.6487
44.0561
-3.10208
-57.8458
-78.5476
-124.301
0.124501
88.1525
72.3849
74.5649
48.0656
73.1832
74.1896
-0.292847
25.7138
66.0973
44.3071
17.1013
-47.3622
-64.5743
-32.52
-34.0035
-63.234
-52.3135
-11.6882
-25.5766
-39.5593
-40.1133
-15.796
4.16465
-5.27664
-58.0206
-5.90433
53.3328
87.1321
40.0402
40.5563
33.2708
51.1824
67.1555
-14.429
-83.9186
75.0988
87.4232
67.3961
39.4507
-53.7022
-85.3713
-84.9866
-91.2663
-15.2303
17.8416
-1.18136
-2.29498
-29.7781
-33.6814
-20.5513
7.3444
34.2789
8.81835
18.5614
33.8204
-44.7995
-86.7335
-127.771
-45.3408
-0.490293
-0.466786
18.8543
68.5836
47.6865
51.8268
-9.54289
-5.19508
59.8927
27.8679
34.2337
47.5528
29.1863
38.7761
21.945
-46.7307
-61.1864
-15.3139
75.2551
48.0157
12.1621
-3.67429
29.0191
29.5762
-51.232
-5.35535
30.471
-18.1193
-118.985
-122.519
-87.8022
-60.0736
-92.0228
-34.2957
104.404
133.296
77.3008
34.6836
30.3391
31.9094
28.8668
-49.9535
-102.034
-15.4907
42.9444
14.173
25.3576
42.64
36.403
17.0095
-38.668
19.9226
42.926
14.2338
-36.6556
-18.9224
-25.1034
-34.4384
-58.1055
-12.6628
-6.41469
-15.1757
-25.8899
-63.9064
-67.3243
-61.523
-57.457
-45.9777
77.2011
135.136
162.97
97.577
51.8193
20.7563
-28.9808
-27.4461
15.624
12.4262
-1.14643
-44.494
-66.26
-21.9996
7.26704
-40.6462
10.3144
45.4513
50.3091
46.4944
-31.016
-49.6643
-43.9045
-106.777
-1.56349
35.1309
37.5162
62.328
22.472
-10.7793
-27.6663
-78.065
22.7983
49.7021
52.1904
50.0582
-16.6693
-81.2814
-103.027
-87.4601
28.6308
84.1806
67.5384
83.3326
17.8401
-17.8342
-26.4033
-33.346
-85.8386
-31.605
55.4429
102.084
20.1086
-11.9281
-29.0322
-37.3559
-42.2806
-54.0661
-45.5249
87.4087
67.2092
19.2558
29.9559
34.6838
2.16253
-13.1896
-38.1223
-4.76151
13.8762
-29.216
-55.7911
-46.3905
-42.6126
-35.8911
-45.2145
42.7353
64.768
89.2086
113
53.9315
-24.4233
-108.077
-49.5886
6.36051
1.52675
-14.9152
-2.82636
-7.56375
11.1447
-22.7098
-49.2125
29.2194
9.95873
2.73219
26.8376
-5.80238
9.15553
26.2374
9.99184
-59.3033
-14.5837
58.4693
37.5823
14.743
6.60366
28.2662
5.29058
-83.5631
-30.4622
42.206
42.9696
-10.269
-18.5091
4.66594
16.2071
-39.6421
-23.0894
-9.80074
47.8713
78.7943
9.28749
22.4234
-19.8746
-109.37
-25.4901
36.4719
36.3335
39.3948
-21.2754
-77.9851
-128.674
-215.928
-157.703
-8.05811
84.7884
122.926
112.494
131.67
112.074
71.9326
25.7712
-30.7005
-2.13131
15.1045
-50.7301
-89.7944
-55.6062
-8.60722
37.5301
52.1608
63.25
150.7
187.448
86.0142
9.83289
-52.4531
-90.828
-124.275
-189.072
-188.438
-22.0292
29.7719
5.86016
28.5149
13.6121
-9.93889
-46.626
-70.5388
-56.8475
-42.0699
4.81376
23.7177
-6.59521
-20.1837
-41.8097
-11.3626
66.0195
78.8513
111.906
134.33
48.4927
1.73265
-61.7525
41.1502
45.5898
41.7384
77.0936
102.934
50.4428
19.5058
-74.6618
-131.936
-31.1975
-51.8603
-70.1184
-41.8726
-42.0962
-39.7124
-28.0634
-55.5949
2.39681
72.8977
79.8022
18.8236
-0.403397
2.02917
-18.0253
-91.6149
-46.8901
65.2205
122.382
110.59
4.53638
-4.26897
8.89865
-51.6385
-160.332
-60.3621
13.5627
18.8702
-57.0357
-60.8972
-2.09398
3.43351
-1.46744
-21.8334
2.15419
82.0111
57.9919
19.817
50.4292
54.343
0.636418
-43.9627
-34.4228
93.2596
137.309
73.5502
37.6193
30.1658
-21.9578
-69.5394
-144.969
-195.554
-92.6388
-31.1653
10.5889
55.3523
60.5676
30.5367
30.1463
16.6495
-52.1628
41.2115
62.5004
-4.41991
-10.7497
-50.5275
-66.388
-68.8221
-109.66
29.9157
133.759
140.96
91.2267
96.5389
69.541
-10.6129
-114.62
-63.9214
-63.1728
-53.659
-21.3719
-32.9226
-7.36405
-36.1507
-58.9594
49.8707
62.0249
90.1833
111.78
15.6941
2.99032
7.29441
-62.3911
-18.2097
-56.8193
-115.862
-94.0604
-127.516
-92.4593
-26.1128
-26.7247
51.8369
116.773
122.103
116.78
39.3985
32.9336
42.0278
53.2176
24.6475
-49.224
13.3503
83.4707
14.6859
-4.53199
29.147
39.2195
26.7378
0.440165
-89.8893
4.56188
51.7988
30.5301
31.4405
44.097
-33.9723
-114.45
-186.647
-218.817
-160.164
-111.106
-59.86
-29.2601
-26.8738
-55.9284
-57.5466
17.2035
129.36
149.302
158.741
133.428
43.2386
-3.04995
-91.2913
-82.6596
65.8313
166.262
193.616
242.434
246.457
209.103
86.4702
19.6469
-149.362
-267.339
-196.937
-190.418
-325.903
-273.032
-133.356
-8.74288
84.3943
53.9585
69.4675
212.938
292.947
302.789
189.971
-80.8521
-446.733
-642.796
-617.446
-532.165
-187.716
160.691
401.313
564.059
709.715
799.1
685.303
146.836
-465.074
-819.579
-526.795
-82.6658
94.5416
249.436
364.577
301.652
111.578
203.268
136.595
-87.8071
-248.809
-385.426
-443.925
-144.749
84.0767
-1.39044
-320.099
-492.935
-105.441
370.614
335.005
59.6978
-76.5594
-204.686
-258.628
-48.4194
335.701
445.693
344.752
128.929
36.7119
165.816
99.369
-329.318
-679.132
-673.786
-292.742
87.8837
173.939
311.416
166.397
-151.861
-356.277
-328.049
-122.022
29.7041
118.506
216.157
452.212
593.564
554.867
462.873
355.994
382.894
374.883
171.901
-57.6631
-235.771
-233.118
-272.864
-281.754
-163.826
-10.1789
-22.8399
-219.544
-386.578
-409.768
-415.204
-392.994
-247.663
-147.198
-260.789
-541.919
-515.562
-66.8688
266.112
639.794
858.685
731.748
413.841
-105.64
-444.725
-307.924
-134.298
-75.3107
39.4641
399.777
611.453
426.045
237.417
71.8404
99.1354
353.664
425.463
162.542
-255.213
-551.203
-483.603
-440.278
-509.058
-311.251
11.5844
98.5279
68.7398
-29.9872
80.0392
121.541
-43.6628
-64.7158
10.4552
29.8179
-26.9317
-123.934
-184.136
50.0579
329.719
-57.0789
-322.216
-222.295
-83.414
52.5299
136.356
191.764
148.501
141.752
162.878
-132.061
-63.4237
-94.2151
-23.415
88.9435
149.548
218.948
121.623
-340.149
-242.912
160.436
327.138
232.548
275.643
350.451
291.386
-55.2142
68.1324
207.009
51.7836
-248.441
-532.923
-580.528
-441.988
-38.9127
304.342
39.0936
-367.665
-346.229
-341.701
-217.487
-47.7488
337.521
458.529
377.832
213.147
-42.8513
-525.067
-797.278
-605.928
-221.604
193.896
708.664
734.721
424.344
159.509
54.8615
-306.523
-607.583
-363.394
231.879
409.087
192.793
498.989
760.797
377.589
182.122
129.083
163.212
21.4633
-104.912
-210.138
-366.679
-361.886
-347.431
-301.607
-44.8862
335.068
387.006
152.232
-151.251
-269.509
-509.275
-1005.23
-1092.66
-765.751
-292.162
88.9783
358.468
471.644
471.243
502.025
701.894
551.021
128.792
62.5546
196.984
151.997
33.0087
-238.4
-361.408
-312.923
-179.243
-66.5973
195.491
410.192
414.099
313.09
237.933
118.613
8.43987
-189.021
-415.72
-339.488
-131.769
-95.2943
-28.4646
78.907
65.3132
-93.9257
-263.503
-83.5823
122.445
271.388
114.351
-23.7465
-286.535
-442.869
-335.173
-159.923
160.301
342.107
205.674
184.48
179.587
-63.6302
-141.915
134.012
267.286
270.357
189.788
-166.864
-380.972
-485.359
-364.141
-138.016
59.4393
182.805
150.017
185.809
164.962
-151.305
-366.124
-468.694
-289.777
114.032
339.949
313.613
289.625
318.21
288.693
304.117
255.282
149.671
49.6275
11.7078
19.2802
156.18
153.835
-181.432
-375.343
-264.686
-41.6057
153.825
137.91
6.64114
-263.19
-490.725
-299.993
-103.435
-107.276
-107.117
-107.409
-2.48889
46.9164
-78.5507
-154.063
-24.2783
166.804
153.841
26.9627
51.8561
119.725
83.8274
-29.9983
-224.776
-224.804
-57.0676
-25.6189
-89.407
-69.2338
114.477
338.79
394.121
272.615
275.618
320.636
54.1552
-251.806
-212.039
-230.359
-308.055
-179.497
77.4152
260.257
217.003
200.465
224.652
158.881
88.7284
-42.3084
-30.3227
7.26198
52.3363
2.21219
-160.156
-330.725
-465.915
-529.457
-240.66
199.702
208.262
-43.2133
-244.754
-82.9394
194.911
146.059
50.078
104.148
139.028
91.0653
-109.145
-162.762
-108.109
131.378
187.443
137.75
245.822
299.897
3.5472
-222.761
69.6397
292.233
202.622
-20.2753
-132.902
16.7127
-97.6449
-216.163
-153.969
-21.8335
-39.3112
-158.473
-243.629
-335.519
-156.381
-7.38065
36.6071
39.7756
-30.9026
-72.9974
-37.7011
68.0431
181.236
92.037
110.809
21.7761
112.31
114.381
18.299
26.9512
135.644
67.145
-12.717
-99.0815
-207.956
-128.917
-59.1221
142.778
377.211
346.105
57.2643
-83.6433
-122.446
-104.758
-177.214
-202.554
35.1889
247.474
352.982
303.321
128.558
-127.366
-370.845
-381.581
-244.464
-8.39169
173.339
172.053
107.833
25.0735
-279.836
-460.656
-244.957
42.8952
219.272
204.241
13.8985
-39.5608
-75.5988
-17.0437
9.67126
3.79254
30.5846
54.494
61.6113
-71.3816
-184.024
-164.894
22.3764
152.39
244.087
260.247
160.216
-19.506
-92.291
-24.132
15.3474
-117.895
-247.354
-275.809
-65.4357
239.224
313.939
285.543
238.548
267.313
143.854
-108.225
-288.39
-133.978
8.89277
58.7286
-74.0255
-233.932
-341.315
-338.081
-323.763
-69.8654
283.567
479.825
379.865
143.885
-43.3344
-8.19263
-10.1947
-110.373
-82.7999
-39.9453
57.0742
31.6298
18.8889
-66.4975
-168.308
-53.8011
39.5492
35.0301
-1.21453
-66.0894
-125.784
-184.494
-275.488
-154.423
-59.7214
-34.0582
-12.668
55.0389
58.0956
185.349
238.563
225.377
182.814
174.324
192.606
88.0413
0.512144
31.6974
110.083
56.264
79.4366
146.442
88.1795
10.1261
31.6571
-111.281
-258.906
-305.697
-128.547
119.433
129.887
-21.511
25.728
55.4886
-75.2557
-354.963
-634.316
-456.427
-74.4454
50.6025
57.1775
14.7442
167.192
14.5442
-51.2581
-10.8848
128.423
176.524
68.4778
-122.109
-67.705
18.4545
5.60171
150.885
362.068
480.294
544.014
429.68
80.8607
-231.956
-323.54
-299.179
-252.681
-73.5199
61.3701
71.823
19.962
-59.9271
-150.737
-233.054
-113.393
-65.8678
-112.026
-196.98
-116.924
142.608
331.299
167.047
-78.5783
18.1529
24.8524
-14.2814
-49.4557
-56.4423
-72.2151
89.0292
211.206
147.792
54.1633
99.1885
-68.425
-100.582
-8.04528
3.24729
-126.909
-264.486
-111.307
2.34871
103.84
51.3822
-40.1376
-95.9007
-143.752
-15.4167
197.988
152.011
130.215
244.841
94.1714
7.2739
11.3349
-141.657
-93.1303
74.0328
113.795
127.92
36.2723
-55.3118
-114.806
-143.616
-229.173
-271.042
-133.665
-21.505
-20.148
-0.813593
118.489
185.889
189.444
-11.128
-127.471
-11.9856
137.251
68.3055
45.6056
14.7399
-41.8107
-25.9065
26.7794
-58.765
57.5783
149.453
103.635
96.9477
126.278
67.82
-242.96
-422.081
-283.479
-238.452
-227.843
-162.683
-151.604
-87.205
-41.3304
144.675
415.844
479.758
380.174
296.69
193.273
90.3116
-1.18188
-106.541
-101.351
-76.2708
-68.5988
-28.6544
5.73633
96.7622
137.012
92.8852
83.0982
77.6118
50.4171
-28.1268
-219.555
-393.652
-497.501
-396.419
-317.85
-169.023
103.851
210.745
127.316
89.1323
66.8046
12.9831
37.2827
76.1326
105.527
140.801
75.5711
-42.3309
-171.042
-92.4151
-49.4859
-152.288
-41.2373
199.348
275.451
224.621
114.463
126.719
-17.2359
-167.879
-96.692
-110.846
2.00901
202.91
370.485
292.329
151.523
16.1722
-81.5764
-224.722
-217.162
-102.704
-96.8423
-108.466
-64.2355
-72.5865
-146.759
-228.689
-170.737
102.253
182.204
247.98
196.138
21.8915
-142.336
-174.203
-214.102
-149.735
-83.9116
-120.696
-114.392
57.0211
223.828
178.902
80.3992
104.644
77.0108
56.8833
54.0647
-45.1532
-52.5094
-43.4423
-30.9103
80.5958
20.253
67.9295
183.149
172.91
204.7
82.6141
-99.298
-131.179
-148.55
-110.152
-62.4787
-62.7016
-34.0125
-70.9256
-117.618
-132.598
-148.806
-100.556
54.724
214.115
292.778
218.183
89.3238
-55.314
-166.729
-116.354
-5.46767
58.7064
128.791
182.507
147.593
-41.8985
-146.007
-74.8106
-0.428041
-117.366
-193.539
-198.718
-198.718
-202.463
-195.899
-205.32
-40.5632
189.062
263.613
273.456
218.992
157.095
68.5591
-51.3393
9.3566
214.94
301.39
230.211
74.3275
4.69445
-135.024
-340.461
-261.668
-218.668
-187.431
-7.74172
71.8892
59.0021
61.6682
39.8185
90.0571
63.5951
-19.3339
-74.0992
-102.794
-77.178
-48.962
-30.0757
-42.6747
14.8551
93.4555
200.066
219.886
155.974
83.8134
18.7808
-94.1245
-184.726
-104.925
-39.2453
-35.0517
18.7319
59.4601
-84.6362
-197.558
-60.6194
6.06636
-101.386
-0.357594
82.2753
119.983
134.312
-27.9861
-60.6757
14.2922
7.59507
106.863
174.023
90.8298
49.0054
-106.836
-288.822
-325.036
-184.075
15.4176
91.2661
70.5856
45.4207
41.6063
145.156
242.408
242.497
130.947
13.7144
-67.5957
-64.0603
-172.066
-229.54
-113.27
67.3571
82.2132
128.725
174.301
158.484
-3.99706
-174.9
-213.717
-175.224
-33.2838
136.968
156.643
84.8852
-80.7404
-265.175
-427.061
-439.21
-186.944
266.637
447.713
420.428
264.37
-41.4412
-80.4574
48.1541
117.351
143.968
85.3201
80.3624
-82.0968
-198.41
-201.827
-196.923
-102.813
66.7969
210.117
196.166
70.1366
-130.626
-251.645
-314.816
-183.491
55.9969
58.3548
30.6062
72.7064
84.8289
67.5614
95.0621
49.5776
-54.1831
-31.3458
-119.53
-48.0674
91.4347
143.583
70.3783
-81.3159
-181.865
-15.9695
144.09
253.976
335.297
298.145
110.705
-162.999
-253.145
-28.4931
10.2796
-88.1776
-210.937
-261.421
-83.9257
4.65295
55.3429
139.992
199.077
46.3352
-58.7817
-200.297
-324.52
-287.112
-56.2395
9.68477
108.785
322.674
215.936
-18.3501
6.35101
60.6943
-103.349
-181.984
-0.533151
34.2569
93.9187
68.6047
28.649
88.1853
1.39517
-102.24
-96.2299
-72.2328
17.5979
76.1901
86.9164
44.0672
28.3363
-16.6971
-67.6156
-95.7746
51.3472
203.472
243.161
198.463
-21.3956
-71.5161
-60.6832
-54.6452
89.9504
72.5841
-29.5987
-194.931
-354.597
-281.366
-156.583
-84.7232
21.7443
55.6824
57.8018
106.956
119.205
18.0138
-121.242
-88.1365
194.825
328.552
298.764
168.419
-123.408
-244.818
-155.156
-42.12
12.6813
50.3895
30.6153
14.3043
13.3648
56.7686
19.4469
7.13811
2.23777
5.64063
-7.0993
-108.239
-305.116
-362.246
-235.526
-32.1508
74.6198
163.21
281.302
337.723
244.055
83.754
-16.0971
-152.645
-247.537
-278.926
-100.449
113.618
98.0259
80.8976
95.9677
113.694
104.241
51.9297
8.98929
60.4982
82.0238
54.4236
-70.0891
-164.382
-219.976
-193.137
-116.389
6.94709
49.9734
120.626
135.795
155.266
186.486
66.041
-127.243
-45.8412
31.4882
-61.6065
-147.652
-183.254
-93.3896
44.1256
114.609
134.299
228.774
256.497
140.169
32.5008
-84.5307
-252.372
-382.13
-419.88
-293.408
-79.3075
171.579
181.133
19.2874
-34.9269
-25.7187
-24.9463
44.1303
95.5107
29.3796
53.2676
54.6065
74.9013
147.712
124.93
60.1951
64.1504
33.0271
-7.60279
14.8698
85.0048
51.8063
-25.0507
-20.0476
41.4992
32.5507
-3.73014
-101.864
-120.966
-91.1879
-183.57
-243.89
-123.578
7.71017
29.6049
83.3447
114.407
100.688
44.2424
-72.4497
-164.052
-50.5133
56.717
113.507
239.22
200.196
52.2702
25.8781
-61.9498
-114.612
22.6311
16.9583
-78.064
-146.049
-104.91
-3.48492
85.999
88.5429
-51.7369
-20.7681
94.6313
50.8292
-35.4738
-59.5284
-95.679
-19.3311
53.7824
-23.1281
-143.417
-121.33
16.471
158.114
152.614
23.8275
-144.769
-155.77
-39.3753
40.6936
97.053
91.7907
45.1913
-45.0347
-43.9043
45.3368
60.801
67.3381
40.0556
38.9702
105.607
98.7058
-0.930755
-91.701
-144.935
-53.6873
23.8693
-7.5183
-90.6585
-59.4597
80.635
66.6216
-30.0802
-19.6317
-20.7986
-118.403
-185.687
-112.63
40.5552
119.767
156.988
261.459
207.726
82.0739
24.9545
5.98322
17.3226
-53.536
-151.655
-193.811
-164.437
-153.31
-155.378
-122.257
68.8556
98.1142
59.6186
23.8597
-7.01456
32.0065
75.807
46.8983
11.1239
-6.55414
12.7366
-32.7293
-91.9364
-14.4834
132.979
192.687
199.242
149.508
77.0878
-12.4609
-124.254
-134.505
-54.4228
11.6109
2.63543
-30.6031
-64.7421
-93.6571
-122.294
-93.2835
-83.2352
0.82161
16.3288
-68.6234
-125.378
-36.9185
28.1304
95.564
87.994
104.738
71.4666
78.3595
43.2686
-15.3993
17.7498
52.6786
58.4015
100.919
72.9285
34.9371
0.388268
-49.4659
-5.78055
-2.29964
-32.5126
-88.8717
-158.481
-152.127
9.26222
71.0075
29.3114
-41.2877
-67.5356
-38.3264
29.6013
88.6378
81.0317
34.6013
-4.84388
5.29482
19.1485
-30.8895
27.6038
64.5887
28.8058
-72.2562
-163.345
-106.885
-48.7019
-73.3413
-51.25
35.4292
64.0476
95.1026
72.1359
50.0759
26.4093
-52.4806
-19.0367
34.2436
124.042
78.0396
-77.3334
57.4234
77.5861
106.746
209.977
78.9874
-1.52572
-117.968
-279.716
-301.846
-177.49
-66.4705
-43.3287
-57.5892
-55.1615
-47.5805
72.9853
175.955
150.954
135.108
101.666
-123.325
-132.499
-68.0591
-108.955
-37.5795
0.12535
94.8913
221.093
303.875
231.692
-13.7355
-31.0136
21.4545
-6.63214
-9.271
-17.86
-56.1158
-108.237
-133.797
-34.6802
41.748
-28.7149
-78.9492
-10.7944
13.5473
-95.8025
-135.495
-116.167
-138.48
-64.9879
113.293
148.625
62.7057
52.1249
55.3477
51.6888
-21.9536
-74.4371
-76.9811
13.3884
118.29
131.51
122.618
52.8405
-2.15527
23.8039
2.94452
20.6068
42.8701
-51.2534
-78.7494
-67.8197
-43.8112
2.3311
30.8003
-70.5043
-89.6967
-24.561
-11.6619
-120.719
-156.908
-166.127
-76.8415
48.0355
146.226
208.123
211.9
155.542
98.9948
36.8594
-17.3251
-21.9875
-33.3388
0.664971
2.17623
-23.9099
-21.7774
-62.1417
13.3233
193.511
90.7699
-14.4626
-161.34
-192.527
-157.159
-230.242
-214.679
0.418673
143.229
148.806
34.745
35.0234
10.897
-95.612
-13.4374
157.598
167.715
185.432
122.289
-4.86684
-45.1305
-63.9759
-142.883
-163.483
-75.7258
55.6003
141.101
54.8944
-32.9171
-34.3999
3.97487
-105.772
-123.494
31.5922
6.13009
-61.1406
-32.2052
-0.201092
31.9926
-21.8558
29.9095
162.49
215.202
168.025
42.8086
-13.5195
-36.8279
-96.1392
-44.4852
16.7803
41.1088
63.2832
64.7621
28.7493
-85.1111
-256.171
-210.985
-103.8
-37.9349
117.423
288.972
196.091
-133.127
-196.388
-128.474
-93.1804
-15.7323
-41.3661
-77.2004
-5.75484
100.194
117.316
92.1713
31.6614
-45.4857
-12.5149
51.0358
20.3929
-62.9672
-198.383
-183.457
46.5909
217.475
179.097
179.574
154.659
78.7959
39.1103
-30.8112
-99.2622
-170.746
-135.625
-0.516611
31.012
45.1769
20.3769
-51.0245
-62.0372
-18.5929
31.5836
29.7725
20.1501
158.327
162.792
55.2335
-11.4323
-172.472
-256.807
-219.889
-179.453
-54.3754
8.83249
-23.5284
-48.4018
40.1054
125.056
199.899
211.252
169.833
117.355
-100.951
-206.99
-5.51945
111.304
18.1959
1.5751
140.471
252.843
298.921
197.144
26.4855
-109.105
-364.29
-381.818
-145.885
-34.295
-157.665
-226.841
-158.164
-74.0469
-46.9502
-118.379
-7.1556
100.783
138.909
146.15
92.322
20.3411
-91.7249
-165.226
-212.391
-50.7869
217.641
331.603
326.621
282.702
88.4905
-20.4904
-83.7647
16.0298
85.5573
92.0808
22.5951
66.3508
112.446
-57.9538
-298.78
-285.958
-152.727
6.86085
101.97
81.9545
60.0551
-24.3513
-166.167
-238.003
-164.513
4.98789
101.32
71.1942
110.944
168.568
17.6506
-36.6698
-80.0918
-47.5807
89.3017
73.2796
18.682
75.4669
118.021
44.4549
-99.8659
-115.052
-81.6873
-29.7925
8.47057
-44.8563
-51.8107
-60.4897
-169.592
-248.978
-126.636
-18.3441
90.6158
178.097
200.565
118.201
7.21431
-74.8916
-169.305
-166.367
26.92
200.172
228.644
158.091
39.6039
131.435
239.64
163.709
267.014
365.363
49.0557
-330.196
-297.756
-199.566
-106.763
-34.3949
-22.7395
-48.3215
-93.7343
-202.013
-313.601
-336.978
-192.772
-77.2387
167.161
239.372
109.991
-73.3675
-139.786
-156.099
-67.7562
-14.6323
-39.8427
55.8834
215.595
355.951
351.224
193.682
227.616
255.117
222.785
144.666
23.732
-70.7668
-159.743
-261.587
-259.498
-165.432
-93.3884
-5.77099
1.64676
-81.7046
-105.436
-160.635
-267.046
-298.911
-116.439
46.7635
117.533
164.219
193.421
236.409
218
134.487
-21.6685
-60.3384
-25.2839
-59.1066
-147.608
-162.84
14.2724
205.394
157.935
58.6321
127.211
86.5899
-78.9131
-225.212
-226.143
-155.321
-101.042
-87.1126
-121.143
-36.7134
116.212
194.316
222.091
204.007
145.158
87.7948
50.5472
-6.61516
-138.813
-74.9607
38.3259
41.4553
75.0227
142.242
14.0351
81.671
114.422
67.4604
69.7156
-58.1025
-226.956
-317.209
-278.622
-170.941
-99.4494
-74.4866
-75.6357
-36.1734
13.6555
-0.36133
-53.2675
3.39954
-10.6369
14.4392
93.5638
61.2321
68.3402
43.0275
5.79125
93.7131
202.487
131.462
-32.1352
-13.357
54.7328
5.59946
-140.567
-254.394
-150.415
-49.3735
17.0761
128.266
199.401
208.543
131.778
80.7423
58.2853
72.7724
48.1071
44.7924
-3.52205
-132.056
-233.231
-111.412
-88.7844
-79.8976
79.8651
241.136
204.245
76.6865
-108.139
-184.953
-160.05
-100.491
19.9
66.0375
22.4926
-11.3484
-16.1799
-59.2757
-54.5099
14.8665
71.2972
-36.8604
-96.4968
-63.7709
-47.7687
-9.9851
-31.7098
46.6156
87.5841
22.9492
-36.1866
-37.7544
-18.4388
-84.0803
-132.704
-37.4782
23.2221
57.2089
71.0908
94.0625
152.903
132.057
95.1955
50.0505
85.0191
82.1691
67.3543
-15.635
-71.1269
-64.4568
-117.676
-328.939
-324.937
-145.657
142.071
166.321
121.088
156.537
225.146
166.84
36.0639
-20.0773
-9.95797
66.3344
10.5101
-48.4785
-90.1937
-120.52
-5.90601
-5.36452
27.6197
83.7938
-35.0793
-89.8682
-62.0604
-33.7081
-62.9314
-179.585
-254.976
-42.1257
90.1783
93.0433
76.7162
24.5144
-22.2122
-73.4305
24.8795
107.116
49.4902
9.82996
3.42814
84.9013
125.217
-17.2191
-127.724
-138.722
-63.6082
50.8491
103.998
49.3987
29.8392
-7.77033
80.5423
85.6803
61.3102
52.526
14.9525
1.93639
-60.1783
-141.711
-119.772
-35.9183
45.7888
112.359
95.1372
24
-24.9756
-45.405
-104.021
-75.0308
15.9212
36.9493
-15.5152
-40.0216
-32.6079
8.1098
43.8926
17.4735
-4.75457
79.2415
14.9726
-69.0183
-50.9387
-33.3746
-30.8475
-29.219
-31.2503
-36.0585
43.669
90.3136
35.4267
22.2646
-20.3727
-30.7731
-37.5265
-77.7663
-26.034
15.4446
54.8206
58.9669
101.019
106.916
55.6544
12.3188
44.5327
46.1674
31.6961
-2.00506
-44.9256
-113.116
-124.486
-78.4294
-25.0187
79.867
147.219
117.105
4.13457
-68.9299
-88.3868
-104.621
-114.47
-82.6338
-61.0771
-52.8586
-136.697
-144.611
-8.61644
126.831
141.629
121.601
116.389
54.4506
-18.841
-95.629
-94.7329
-32.2757
8.08948
110.469
106.554
36.2748
43.5583
111.488
165.589
148.47
64.0267
20.1055
-95.7083
-102.231
-40.7283
-12.0057
-9.50442
-3.54943
-61.9584
-151.853
-176.743
-85.2074
-60.7786
-69.7447
-14.803
27.2628
47.4309
41.7249
36.0946
43.7555
128.053
181.934
141.244
43.7726
-47.5267
-105.903
-104.52
-115.752
37.5539
163.813
133.669
6.56266
-110.4
-226.357
-321.925
-258.894
-125.388
55.2787
130.157
91.632
75.1043
36.4076
30.2482
37.9742
8.67683
-38.3567
33.6249
106.782
74.2197
68.3576
63.8677
76.4325
75.2762
95.4074
153.652
129.308
49.3717
-42.8514
-82.7467
-22.1261
-37.3143
-58.7812
-69.8362
-72.148
-28.1663
22.6301
-7.26745
-69.5664
-201.324
-272.313
-165.533
-18.3042
47.3282
77.9853
99.3051
85.4838
5.32629
-130.15
-183.287
-13.3056
111.227
212.465
193.942
30.1
-2.43643
19.4388
-6.43244
75.4822
114.757
108.23
-15.107
-161.119
-158.393
-115.985
-92.9569
-138.932
-70.7766
34.7447
98.8326
57.2447
13.7615
-11.0282
33.9431
114.215
64.3824
75.884
53.4485
30.6017
86.9539
88.0075
98.6216
20.0576
-98.6231
-49.0709
20.5514
92.1738
82.8425
35.5149
-57.6194
-163.818
-232.599
-299.777
-169.918
-46.2154
45.6774
35.3034
19.4137
-22.7837
-5.19254
2.36479
14.3727
78.4402
105.725
36.7071
-3.2942
4.78894
1.98832
-28.2028
66.7747
118.63
168.541
117.077
1.10634
-32.3295
-37.1921
-94.4084
40.5235
89.5039
-77.7906
-176.434
-199.745
-199.164
-99.3678
-21.2398
41.2101
-65.0023
-63.7485
114.279
148.402
108.108
58.5173
-8.28927
-7.83693
42.4758
80.1503
94.2305
57.5424
109.682
146.513
73.1915
78.0704
135.402
184.989
136.961
41.5945
9.50133
-188.112
-423.739
-453.773
-337.501
-223.124
-98.1424
-65.962
11.01
52.0285
88.5173
75.269
14.8021
-9.39514
-0.960641
-32.1653
15.6795
68.4968
74.5819
124.791
251.034
369.835
419.218
307.831
21.664
-143.179
-151.795
-148.225
-165.442
-188.763
-97.5858
-127.176
-262.96
-183.726
-48.0276
9.49166
-19.5693
-90.1619
-57.2537
44.8808
52.7625
60.1185
72.1758
109.117
213.44
198.508
93.7142
36.0667
-3.30027
-91.7829
-205.912
-109.566
49.0654
137.538
188.043
32.1778
-143.071
7.30395
61.1647
-99.3423
-153.41
-135.251
-76.3737
-75.8176
-37.4619
37.9915
89.9908
102.924
48.3276
41.6826
101.352
-24.6505
-78.3906
31.0019
47.6041
102.973
116.897
-29.2808
-88.2565
-89.734
-8.94656
70.0774
49.2373
32.8983
-65.4849
-155.521
-156.368
-142.987
-38.9113
125.949
138.789
150.564
160.467
5.53796
-129.509
-211.591
-275.127
-182.8
146.266
319.82
178.927
-107.443
-151.696
-54.2886
72.2582
114.253
164.992
215.353
169
115.073
15.0061
-66.6859
-171.595
-263
-296.853
-185.041
103.922
175.147
29.4509
-37.8253
-27.8916
-28.9334
22.6427
42.2012
-2.70593
21.7234
58.7864
13.3101
-2.74824
-47.9662
-113.403
-88.4278
-54.6015
-9.89174
94.1591
169.299
136.717
42.3589
-90.7783
-84.7181
66.5321
200.646
168.681
49.4641
-36.8871
-299.822
-430.397
-262.723
-121.8
9.24631
231.006
339.251
402.464
351.675
197.353
-75.24
-267.945
-328.969
-320.474
-204.093
-63.1108
68.0679
128.57
173.204
167.21
46.5576
47.718
72.2673
127.199
34.4009
-161.192
-236.285
-263.753
-270.279
-128.684
90.0078
188.249
193.902
141.041
45.7961
-36.0638
-65.1549
-77.9103
-90.4954
-45.8025
164.462
217.434
139.373
56.1637
-6.19931
-89.9977
-80.1533
-60.261
-16.5614
-15.9923
59.5534
172.324
18.0492
-94.8096
-130.691
-13.3548
59.853
-54.9237
-210.453
-173.418
17.1076
128.022
62.1317
-28.728
60.0088
85.1928
39.7057
5.23165
3.07468
20.079
-6.09706
-50.3537
108.702
124.429
88.3067
-60.8931
-252.716
-250.678
-64.5828
85.1963
97.1102
50.8937
23.2407
-14.0993
-38.2159
47.1029
83.6538
91.276
150.168
62.6752
-85.5746
-143.566
-137.548
-117.587
-140.822
-152.513
5.62317
147.047
131.952
83.7045
100.736
167.519
127.95
47.4773
-19.7908
-119.732
-131.458
-81.9324
-48.8241
23.8625
116.445
169.692
124.938
-132.765
-206.552
-100.261
-45.7145
-49.1014
-34.9141
-43.8423
-20.6235
-17.1669
-84.7264
-50.7803
82.6755
130.649
107.979
42.2101
-22.2402
-43.1283
-25.1037
-39.1339
12.5009
188.622
256.235
182.316
53.0728
-53.2947
-95.9391
-101.112
-62.4721
-112.663
-82.5673
-54.1978
-80.5924
2.50331
43.0599
-30.0164
-71.8256
-40.5607
73.6824
157.861
132.986
33.4893
-153.806
-328.524
-265.6
-6.90246
102.519
148.344
122.681
98.3892
156.646
135.992
21.3497
20.0484
0.973419
29.0599
-21.3416
-77.5291
-110.65
-73.2702
-7.08639
70.0313
-14.2569
-72.4476
-43.7097
-43.4071
-1.26697
-26.8901
-60.6009
21.3669
-5.23538
7.90634
70.3992
82.1608
59.6154
72.3167
105.427
98.4843
-10.6963
-126.413
-163.978
-72.4152
35.4228
142.884
85.4004
-34.1488
33.8593
42.4818
65.1792
22.4504
17.61
-70.6168
-210.85
-250.376
-170.178
-66.9095
-0.610866
17.5197
35.1697
28.4822
-9.48641
-13.3334
61.6141
53.4329
79.9578
124.151
58.8989
52.6153
53.7525
46.2443
76.2682
124.561
124.451
43.5299
-47.5502
-128.116
-126.446
-67.6933
23.257
-22.2519
-94.4816
1.06132
-36.1454
-164.033
-195.956
-101.52
-3.01502
-19.5808
-40.2819
-26.7079
-138.308
-140.201
14.293
162.325
245.237
244.47
134.908
81.325
65.3751
54.5815
111.894
65.4823
88.552
204.423
190.756
-0.0364893
-164.133
-90.3086
-97.4932
-110.427
33.2891
120.579
36.9043
-117.661
-207.885
-123.355
-109.886
-195.261
-272.577
-210.021
-107.786
-65.9998
63.5844
280.002
226.836
77.5423
-5.99632
-33.7698
-27.1573
-47.4831
-88.7816
-30.3174
54.6329
92.8826
99.5275
49.8052
48.6723
48.6555
-45.5854
-156.12
-54.4653
110.003
141.113
67.3824
94.5029
90.7964
52.9445
-106.943
-198.409
-38.6295
208.43
158.377
77.953
33.8153
-6.72124
-75.9371
-112.954
-153.187
5.58498
196.033
178.299
-10.4294
-133.949
-175.203
-120.308
-25.2459
86.559
110.213
101.182
-42.6761
-208.276
-176.378
-175.198
-207.725
-103.702
1.71518
59.2645
131.738
166.332
177.26
-11.5371
-98.3594
23.7588
-2.72803
-16.1508
68.3656
54.7956
22.1302
45.6238
-16.0728
20.5606
-32.3865
-16.4552
37.975
16.3991
2.61423
-35.2884
-110.165
-82.3287
-28.6798
49.767
151.744
256.063
286.293
73.4668
-78.0106
-132.181
-69.1786
-9.34763
21.596
1.58296
48.2259
74.4336
-2.83683
-212.09
-229.242
-30.8316
98.7407
101.558
39.2483
-29.5031
-43.4524
-152.842
-224.646
-249.505
-152.837
-118.567
-60.5409
10.5909
85.5437
110.764
52.7048
37.558
189.125
320.075
223.389
101.921
95.6092
-33.6523
-118.938
-100.965
-44.836
-36.7122
30.6119
167.879
119.592
87.5959
18.562
-58.9384
-15.3841
-52.46
-106.42
-135.717
-164.54
-63.4638
-5.02184
-58.559
-53.774
98.5839
186.185
172.995
47.9653
-117.205
-189.275
-147.619
-151.607
-124.79
-45.287
85.288
185.659
130.136
75.4204
57.6198
60.1752
13.596
16.2577
42.3583
59.1234
24.7598
-19.7762
-141.674
-130.843
16.0156
137.879
157.478
97.3518
16.3324
-188.88
-420.758
-381.328
-215.936
-15.8167
159.438
188.695
195.281
215.247
144.988
54.7364
33.9828
-68.4085
-61.4372
-63.1835
-99.4224
-68.9081
48.8835
143.614
167.763
320.71
420.412
290.904
-7.99374
-249.559
-297.546
-300.677
-308.389
-267.376
-58.9281
42.676
0.362735
-1.1479
48.3802
25.634
-74.9008
-94.4457
-32.5997
-5.69665
69.9492
146.771
160.519
-19.9574
-147.512
-24.8181
75.8611
159.879
235.995
249.414
76.8195
-129.625
-369.212
-337.003
-202.273
-82.7078
26.665
82.4343
67.6134
63.5908
55.321
56.7568
87.1319
57.5781
197.696
197.101
23.6447
-63.296
-42.7192
-57.758
3.51309
69.9152
149.463
112.118
10.3353
-91.6085
-161.491
-229.846
-208.722
-158.713
-105.965
-64.3143
-21.3291
20.2622
99.1979
128.068
164.982
41.3003
-42.1774
80.6014
62.1767
-14.5014
-42.574
-78.588
11.1736
97.3149
117.67
95.1854
38.186
20.9152
7.97365
-132.085
-146.235
38.0177
104.801
51.4458
-30.12
20.8362
-26.3538
-181.532
-263.544
-101.801
38.2724
98.5571
32.6807
-129.468
-83.0987
60.8452
109.358
82.3801
91.1662
136.39
89.2744
-55.464
-121.802
-79.3687
-88.9423
-177.404
-81.041
36.051
99.0994
80.805
2.54378
38.0012
117.387
181.775
201.247
128.275
5.31034
-94.4566
-129.477
-150.112
-143.229
-112.408
-43.7763
10.2402
93.5725
160.271
128.781
102.173
63.2131
-69.5038
-15.1306
12.5784
-88.0358
-81.9104
-64.9537
-31.6267
27.8145
25.512
36.6408
49.0819
-89.0422
-65.8687
-28.5224
-5.13462
14.018
4.51499
-101.033
-104.68
-61.3634
-3.59748
-9.05472
-6.23629
48.6498
80.628
18.9236
-57.1947
-8.55184
60.7068
76.1006
130.015
232.033
167.492
37.0273
-161.425
-275.579
-134.121
-60.5057
-60.6556
6.56066
103.807
112.111
54.8984
-10.1187
-71.2502
-165.309
-102.542
-32.2141
9.76436
15.6513
-19.9036
-14.3021
61.9439
138.479
204.482
215.24
94.5136
45.5763
-15.8826
-81.0654
-99.2666
-32.1851
1.84431
44.1849
123.921
135.749
8.81364
-12.7518
-34.8844
-138.488
-160.02
-179.972
-240.329
-235.297
-97.6825
-18.2098
-29.3528
-12.2137
80.2522
139.178
207.099
200.954
84.7821
-14.7086
-77.8992
-90.2335
-94.8742
-100.545
70.6986
221.144
195.526
110.645
60.8567
-22.6457
-94.739
-136.099
-86.4613
-57.8858
-89.5456
-60.5925
-54.5418
-71.6864
72.2001
198.682
96.7797
6.85598
91.2962
80.0303
-6.4062
-90.1329
-125.296
35.8208
84.4977
75.6951
-0.0921519
-8.08103
41.7333
61.0823
-10.311
-104.244
-4.19415
25.1179
-74.0416
-112.441
-45.9399
35.0746
-83.7168
-210.619
-230.244
-111.47
25.3982
49.9101
55.9614
68.814
126.746
172.696
114.318
159.886
164.372
114.482
-80.5263
-199.363
-149.922
-116.065
-95.3673
79.3342
174.386
234.28
144.209
-87.0279
-157.973
-135.334
-102.21
83.4802
143.646
-19.4403
-95.5136
-98.3232
-32.629
41.3254
70.067
12.4526
-2.02181
9.04063
10.9886
-36.6359
-100.097
-107.229
-55.0652
33.0093
42.1576
33.8602
46.1215
-24.4705
-72.8292
45.8871
90.9546
14.1121
-32.9889
21.3575
49.0933
52.0891
41.2676
77.8687
64.6746
-34.5058
-24.5448
23.2456
-15.6544
0.356788
24.0242
12.5916
-12.7689
-92.3538
-110.152
6.51464
61.5646
25.831
5.06324
-12.73
-50.2604
-100.666
-186.654
-206.05
-117.636
11.25
74.2703
73.6567
106.296
105.338
82.2205
39.5734
14.9723
87.1291
151.53
116.464
90.5915
9.54261
-71.5677
-164.326
-303.429
-147.933
67.8334
46.0593
78.6274
109.67
113.206
46.667
-61.1125
-65.0455
46.5757
76.6463
93.0477
27.4195
-67.8304
-186.962
-218.332
-114.04
40.7182
64.8446
125.733
127.944
110.306
57.5715
-45.9591
-67.9622
-45.2711
-42.9341
-24.6225
-22.7801
-45.7159
-50.6665
-88.5628
-75.8109
88.0976
135.193
101.322
26.3124
-20.9698
0.671262
4.76702
-50.4738
-14.0257
15.9756
41.272
25.5662
-3.63265
5.7118
7.37907
-7.71574
-6.90017
-7.78947
-61.1524
-90.9183
-95.7972
12.5175
3.26258
-28.9215
-74.7793
55.8919
166.548
117.686
-20.5143
-150.489
-158.561
-60.694
13.2376
69.919
196.003
216.005
132.166
69.8342
87.8539
65.8673
-80.1015
-214.109
-163.656
-87.8631
3.10129
5.32545
-19.0818
-6.47911
-42.6006
56.3216
121.719
-5.2105
-78.3329
-76.9427
-92.3182
-83.6161
-75.777
-63.326
-4.61508
106.733
140.948
148.383
149.421
153.854
96.0488
19.8839
-55.9246
-29.3885
-25.3585
-15.3891
-68.2994
-150.38
-250.465
-225.223
-174.115
10.1406
119.79
142.75
95.0006
-10.44
6.04844
48.9023
61.4402
109.713
126.45
84.1691
-16.7035
-97.1074
-60.1564
-70.1914
-98.0547
51.6788
223.252
220.353
69.3381
-124.986
-185.695
-169.38
-159.434
-24.1002
65.6328
39.7181
31.2274
15.0889
-29.6757
-32.4302
26.7366
-37.5245
-44.0333
82.6077
140.743
105.205
34.7692
-18.084
-8.51067
-34.7252
-28.2436
49.5064
132.53
76.2825
-19.3604
-57.725
-111.582
-183.023
-269.194
-248.102
-32.3201
94.2988
86.1422
47.9154
75.9872
51.3436
5.98399
19.1823
63.1736
47.7819
-5.63412
-56.3481
-37.0068
6.15283
15.2039
108.7
242.702
150.015
180.219
190.674
107.052
39.0082
-95.9842
-166.368
-207.162
-306.761
-247.6
-146.566
-40.7734
64.368
58.3733
-106.44
-113.365
-15.2448
38.4227
46.7928
35.7638
85.0745
72.1903
-4.55452
-73.8711
-20.4631
76.5243
92.2913
116.831
152.109
160.029
67.8514
-93.1812
-152.972
1.5287
88.0303
58.4672
-52.8297
-79.0149
-75.7417
-108.021
-15.0204
89.4891
18.0182
-2.25472
-50.0236
-76.7917
-25.2469
-31.5027
-41.2627
-9.08002
23.8481
115.447
112.911
17.5544
41.6908
45.4952
-40.8466
-108.057
-70.9636
26.4097
-39.9632
-167.543
-116.62
-21.6183
91.3523
97.5783
89.6247
89.2259
-25.1205
-20.1638
23.2884
-41.1093
-39.8396
-59.0086
-63.0617
0.969089
63.1521
81.4249
41.8148
-1.4463
13.6079
55.8499
122.856
159.425
97.7215
48.5702
-82.7839
-125.473
19.21
13.0695
-55.8687
-2.05675
22.9757
48.8858
76.3513
1.01804
-95.8521
-169.402
-208.527
-192.9
-212.015
-158.124
-55.847
-36.3637
9.08212
41.5582
60.1879
136.082
186.614
138.311
85.9261
53.177
51.5612
62.2526
40.8066
-83.4152
-98.5675
31.6937
97.7019
148.607
213.507
204.98
87.3789
-172.354
-265.207
-107.822
-18.3654
-57.3227
-107.947
-98.6574
-50.9047
-39.684
-91.4355
-61.8116
46.8929
123.618
150.462
108.589
50.4743
-7.07595
11.9978
-25.3951
6.55368
101.245
98.538
-58.7685
-178.978
-164.35
-97.1248
-109.288
-28.0988
63.1353
92.884
48.1649
9.44044
78.3267
115.129
26.9068
-7.04113
1.35397
-0.227096
-6.80366
-55.4828
-135.231
-148.712
-75.1282
55.7624
175.384
132.509
50.0232
-45.0647
-103.825
-80.7892
-102.782
-136.89
30.029
82.701
104.454
114.148
71.9234
23.3782
-66.454
-158.726
-38.1277
74.9865
137.911
152.575
54.5862
-55.5716
-64.4665
-70.1901
25.8395
106.574
154.742
135.147
12.416
-67.9355
-150.595
-180.388
-65.6832
-7.65997
30.9957
48.2917
14.7226
-5.0869
-66.7438
-108.613
-66.8684
50.4943
78.997
111.168
44.0511
-30.6811
-59.0739
-52.7784
-109.075
-44.2704
36.248
49.2518
-22.2233
-33.3872
-18.0509
1.93313
-3.9336
-66.4912
-32.4148
83.8153
104.82
123.966
101.305
64.4215
-37.3371
-143.805
-222.681
-168.605
-155.198
-84.1244
52.0589
76.023
83.8856
88.3329
103.655
183.366
206.488
203.478
107.23
-17.5064
-145.233
-247.092
-256.434
-136.995
-25.4423
117.438
239.501
263.825
270.713
143.975
55.5398
67.4675
-32.6921
-149.983
-202.789
-266.004
-222.538
-104.248
-17.9261
5.87506
19.9633
61.6205
116.012
28.3561
-22.1564
-64.244
-112.294
-182.393
-131.421
-74.4666
-53.0107
-45.2048
32.0642
118.123
131.306
90.2514
71.4695
86.2314
47.5408
24.3668
15.2925
9.56383
-11.5749
-43.1356
1.54558
-27.3897
-28.9484
-11.0449
7.44328
38.2412
28.5455
-30.4931
48.1466
120.087
133.879
157.502
161.857
51.1434
-112.768
-170.548
-192.866
-214.045
-146.558
-36.132
-15.5019
43.8636
89.9456
141.58
125.606
84.1562
109.176
114.583
-26.7827
-106.801
-152.515
-174.687
-120.505
-46.5088
2.14142
-18.8804
-118.142
-76.0272
75.4842
198.393
270.922
147.239
-80.1276
-129.832
-91.4216
-119.291
-170.548
-106.122
-9.31198
23.2791
59.2698
163.539
117.821
29.7985
19.3965
25.3157
114.977
119.095
37.1992
17.0345
-20.6275
-34.0987
-27.2374
-80.6421
-118.013
-117.769
-8.31154
97.641
60.746
36.6528
23.0706
-41.6647
-106.693
-86.9766
-57.0524
-17.6135
114.013
140.302
64.2751
-61.7387
-96.7102
-48.4995
43.4588
84.1075
46.5172
23.2591
-20.2515
-9.1198
-7.20073
-60.5047
-132.045
-117.069
-55.8278
-7.06048
114.57
144.809
37.7438
14.6929
3.22176
-46.3517
-26.3685
5.43492
82.233
135.286
112.501
81.2237
-55.7677
-183.199
-214.859
-204.324
-4.68891
123.108
92.0901
16.2118
-59.4933
-48.1278
-5.96191
5.23319
32.7081
78.9052
54.9155
18.7733
-62.4569
-128.822
-57.536
49.2495
125.303
84.5775
9.67561
70.1161
56.2991
39.1045
48.0855
57.8981
53.1294
-17.1658
-41.023
-17.6469
-60.6564
-115.438
-110.12
-39.8263
35.2801
-0.829584
-37.7115
7.49059
4.84839
26.7736
62.6016
56.7043
6.53807
-119.017
-125.947
-80.9925
-20.7633
8.54698
46.4618
38.4629
-45.509
-168.529
-54.42
37.1738
80.162
117.004
118.067
80.5128
-51.9562
-158.754
-55.8721
108.864
137.925
140.679
113.163
58.8893
10.0205
-4.6652
-65.9843
-75.7551
55.9521
191.257
95.8059
-35.6933
-116.798
-126.741
-150.725
-295.691
-198.713
53.2668
109.829
14.8199
-97.5346
-133.379
-76.3457
-14.8544
37.1819
77.2112
169.217
139.528
69.725
24.5181
-12.1713
-46.3957
-42.879
-9.09717
60.842
193.262
308.346
238.733
86.6917
-25.1932
-28.4242
-24.6341
9.42416
-28.8497
-124.517
-187.285
-226.26
-206.966
-149.349
-149.438
-138.466
-71.3504
-15.1367
65.7787
72.1079
87.6545
95.6509
55.9302
-6.78462
-73.2515
-72.7347
-16.2128
88.2771
139.265
92.5301
71.2143
0.77664
35.9874
42.7621
53.5103
51.0852
51.0027
28.3222
-9.93532
-45.5648
31.5934
13.7304
-20.807
63.0618
154.456
177.446
38.2177
-210.67
-351.385
-361.161
-235.327
-89.5701
-20.3776
34.7662
56.738
128.553
242.099
230.814
186.714
70.5655
-35.4966
-43.9565
-48.7315
-92.9291
-152.561
-74.6758
46.3796
62.484
80.634
152.962
137.897
82.2286
-7.67519
-140.195
-169.398
-161.858
-213.956
-146.449
-25.1174
68.4423
64.5962
48.84
-36.0963
-66.5808
0.604776
-49.9342
-53.3947
12.1461
92.7345
145.918
122.65
150.278
166.421
35.4078
-1.23975
0.206414
-14.8428
-40.7596
-155.285
-120.418
14.294
1.20834
40.7205
98.5457
90.6169
41.8568
15.0493
104.631
96.8454
-44.8653
-108.358
-159.996
-143.853
-36.0324
5.45072
-79.895
-88.5598
-1.60823
51.3584
29.0318
-34.8321
21.662
81.1348
54.1383
-35.6729
-41.3608
37.4037
-16.4952
-16.4228
45.021
36.1693
10.1536
-67.3486
-12.9137
48.4944
-38.2458
-109.244
-89.2306
-21.2925
-1.31828
-65.7539
-83.6201
18.0842
57.6147
120.768
172.022
137.393
106.28
63.8942
0.583016
-15.6425
-28.046
-49.2423
-56.6878
-59.0058
49.5655
114.451
34.952
-3.84998
16.1532
19.0592
-6.26291
-35.0409
-7.89711
-6.57018
-47.9387
-265.812
-374.699
-136.554
54.5056
139.949
170.829
170.391
160.081
100.936
-30.2886
-63.9314
14.0177
30.5525
-31.9039
-44.8912
-18.9324
-19.187
-41.6565
14.2123
58.1603
94.9359
124.54
-42.1699
-153.379
-156.622
-145.295
-108.244
-48.8739
-54.5194
46.913
51.4898
12.3285
15.2032
45.9733
108.686
164.281
60.2095
-53.4386
-62.1632
-42.3651
63.2978
143.876
96.1987
63.2232
66.7729
-12.387
-85.3751
-91.1672
-92.862
-51.8815
46.2854
83.6541
-8.26243
-107.811
-19.2704
-6.85561
-20.5843
-26.2145
-12.8298
10.0273
40.1112
17.2778
60.8637
94.7543
79.1773
0.666633
-97.7998
-156.138
-144.513
-107.078
34.2391
87.0544
92.4705
-25.296
-94.1391
-113.783
-97.5512
-28.1015
21.4297
39.9482
93.6798
86.1064
-0.678597
-38.2411
-67.0969
62.5503
197.761
194.395
143.91
67.2448
-33.3138
-69.8824
-67.6704
-35.3038
48.688
77.9396
30.5376
-53.9235
-72.607
-54.0733
-85.9072
-127.442
-160.372
0.268817
128.687
131.842
105.793
-17.3268
-123.778
-102.101
-121.339
-170.43
-47.0597
143.08
206.315
150.094
23.2309
-40.025
-19.9281
-18.1189
-55.4044
26.8866
102.541
22.0368
-35.9856
-82.4759
-107.907
-17.2625
34.9305
22.8903
39.6931
66.9772
56.5121
-14.831
-134.34
-149.944
-73.6939
32.6672
35.5244
19.7452
26.8081
16.7142
42.3274
-25.2068
-35.9152
68.9927
53.6271
43.6679
55.5792
3.33943
-45.068
-39.3299
-45.6983
-85.3939
15.97
170.505
161.61
91.2711
50.5415
64.1597
78.0708
7.96702
-62.5811
15.6771
-25.3806
-113.986
-126.778
-94.8096
-32.8212
-47.6485
-67.4841
-35.8514
-33.6983
-24.9079
-56.8925
-78.3661
16.1629
-29.4138
-45.0191
16.3556
61.4949
32.2606
31.9744
32.9146
34.4758
-10.3195
-27.4415
-71.2027
-6.77784
144.575
156.288
122.038
109.747
109.402
-43.9619
-244.396
-190.65
42.6766
103.803
67.5978
45.0036
51.2196
-24.676
-166.644
-154.61
-69.7236
98.0844
129.384
44.7595
-25.5539
-18.8686
-46.0767
-62.7371
-64.2432
31.5173
100.901
27.5943
-48.9463
-17.917
3.78212
-13.1047
-18.5492
54.3445
120.495
119.834
50.0112
-46.4598
-59.6583
-23.568
-53.9695
-122.257
-73.3733
-19.1365
54.1983
81.3418
104.731
47.3546
-88.3517
-84.1573
-68.8494
-40.0081
-6.87467
6.73969
29.3616
14.7579
4.79804
71.1915
147.729
105.774
27.4189
44.4634
0.97385
-104.752
-155.585
-183.437
-97.2714
18.5671
21.9064
-36.8764
-42.2901
-21.9508
2.34723
29.5286
28.2803
48.1014
117.154
94.5989
28.0773
-8.23221
-31.8571
-97.4933
-84.9085
-70.8484
32.9613
157.98
137.849
104.487
99.4232
43.2181
-35.0172
-31.4683
-24.2192
-173.227
-120.921
-7.14377
37.5794
56.0314
74.9196
-18.7449
-27.0967
13.044
-3.75627
-10.932
-45.4972
-67.2234
-46.6729
14.9762
70.587
131.111
-6.71739
-172.395
-137.466
19.3418
43.25
-22.2945
-117.663
-120.476
30.2526
95.7172
126.604
125.086
129.69
147.602
63.4007
-103.696
-106.609
-117.594
-106.23
-97.7691
16.809
98.4361
46.9635
2.84112
48.0155
65.3368
59.1908
32.3679
-50.9329
-12.0021
41.3747
6.70797
14.1955
-59.4866
-142.154
-94.6995
-96.6533
-98.6697
-50.6784
5.32997
135.916
181.27
169.698
126.1
-17.1344
-163.726
-205.694
-167.108
-26.8896
115.375
93.3574
68.0058
32.6036
41.5064
60.2595
54.5066
52.7156
122.513
118.516
53.845
-119.627
-174.285
-93.743
-22.3278
-12.0222
-5.49632
53.5521
68.2134
-51.0951
-150.533
-160.718
-119.293
-92.3757
-75.8773
-17.5304
231.025
275.415
144.635
44.6828
-17.4408
-21.8554
-50.3383
-120.456
-128.848
-115.742
-4.06157
74.1192
115.581
95.6476
-5.44273
-26.8048
61.9637
100.379
79.0947
18.6492
-118.181
-198.408
-217.945
-186.615
-22.1217
155.754
209.461
160.859
72.0931
49.7473
11.3726
-57.4394
-162.134
-48.5715
15.8446
53.1731
107.237
98.7652
63.8278
25.0853
-43.4627
5.69526
26.2515
-5.75021
-71.6556
-140.011
-114.855
-120.331
-139.099
-19.8243
84.5676
131.922
143.048
47.4473
34.1573
6.82615
-159.587
-166.004
12.6319
37.1351
36.4483
66.9905
117.542
145.437
87.504
-53.2829
-150.227
-74.4268
11.7638
24.2159
15.9452
-15.5465
-31.8399
-75.8988
-86.8587
-23.7213
56.4656
56.0513
45.6796
87.7484
111.553
73.3796
-13.329
-96.684
-91.8781
9.51716
78.8763
45.8913
15.7342
-10.0785
-103.222
-168.439
-69.2354
-9.88638
69.8916
67.1094
36.7543
-32.3671
-158.541
-186.033
-117.474
-48.4907
26.9049
97.8215
75.9141
82.2047
110.51
78.3306
107.777
76.8302
64.9585
106.759
95.7925
60.8611
-1.58821
-44.3652
-35.3249
-54.3351
-77.5368
-72.2387
-112.322
-116.415
-61.0927
-36.9275
-23.247
66.0857
103.354
110.935
42.661
-6.11003
-19.2655
-63.2971
-189.904
-99.9528
-14.2531
-2.66634
16.1393
90.7954
127.094
117.436
63.7705
-35.9492
-2.30237
6.95681
-29.3046
-99.9237
-95.1261
-57.5798
-14.7652
-2.76778
-18.4405
49.0935
196.799
133.968
61.923
39.9072
-16.4393
-65.9955
-90.3704
-57.4683
-46.0715
-32.2526
-58.2542
-34.3766
-22.5545
-40.478
-75.0123
-31.9955
7.30033
27.0525
73.287
72.5645
23.8273
0.78258
-3.62407
33.3189
132.759
147.277
109.583
35.2078
-7.13992
-56.6561
-151.612
-194.631
-154.747
-35.6063
49.9731
53.6224
30.7088
59.9213
51.353
-5.08016
-13.0576
-20.8068
-39.9737
-46.4027
-69.6169
-18.6414
58.3541
15.2332
20.522
155.524
188.353
136.402
77.3394
-25.2078
-93.1474
-166.68
-166.284
-86.8739
-44.8925
15.5916
24.0834
19.2933
27.8628
13.5586
-1.30303
-42.5069
-67.2589
4.33503
9.89144
-41.9298
-45.813
-95.3717
-77.4029
-32.7134
67.4377
130.131
130.414
69.4422
68.9933
79.7724
45.2681
-1.29533
66.9454
63.8258
4.56748
-31.3951
-66.6197
-92.1949
-68.2816
-81.8036
-53.4597
69.9456
120.125
83.0748
37.6698
29.93
26.1186
-10.3355
-85.0924
-58.5124
-51.5083
-33.2011
-54.0462
-41.3211
-44.287
-83.2598
-108.731
-21.4274
-0.538964
0.274705
11.5084
28.2329
24.6459
8.54578
-29.4538
31.7634
35.1093
-16.7227
47.6224
25.873
24.0019
41.1215
-7.13124
23.4486
129.749
116.305
84.2091
59.7115
37.1039
6.08405
-22.3054
-46.3643
-54.4202
37.8762
48.6282
-36.1883
-59.2261
-33.693
-48.3528
-73.9226
-105.472
-113.73
-112.378
-75.9865
-85.5479
-39.3409
45.6933
39.2621
33.4637
102.65
107.363
106.449
39.8445
-42.8984
-55.6878
-111.975
-173.031
-22.0746
97.6665
120.737
135.934
111.283
97.5129
74.707
18.8884
-12.3984
30.0734
89.9766
67.794
-42.705
-95.5609
-102.068
-75.8523
-117.977
-114.727
9.19581
60.2759
60.7575
49.8411
42.9771
29.8189
15.3834
-11.495
-98.851
-154.941
-87.5105
-46.6463
-23.1517
-5.06788
7.61891
42.087
-16.6085
-19.9128
31.3023
30.581
36.0055
60.4932
-1.39132
-32.7144
-91.1194
-103.402
38.403
102.314
119.436
106.719
96.1448
95.0146
9.62507
-9.95352
-7.37995
-45.784
-24.7372
-21.6617
-36.3794
-29.1563
-56.5697
12.6151
22.4432
16.3852
48.9013
40.0888
-42.6173
-78.4448
-113.671
-82.5168
-5.98831
11.9623
26.4754
39.2637
10.6604
10.9438
20.5928
-5.89057
-4.89909
61.706
35.0757
-39.9919
-59.8102
-14.1645
16.0055
37.9366
-1.9684
85.9706
160.49
-2.82203
-146.107
-106.754
-30.7142
-33.5584
-51.7096
-75.1446
-10.9517
88.9455
63.6729
-2.96411
23.8597
55.5624
50.5331
32.3725
-46.7065
-23.0672
48.8514
3.49266
-15.9437
78.6624
84.9844
-12.7347
-127.837
-116.511
-3.69127
24.3166
-28.1384
-85.7017
-82.692
-80.3827
-35.4413
-64.0251
-38.6061
68.252
222.244
213.429
109.807
-38.2068
-63.3154
-2.89842
42.8884
39.7367
87.0404
61.2944
-53.7119
-36.1528
-27.5972
-29.5684
11.4676
72.5916
114.706
93.0037
23.4338
-93.6854
-139.104
-160.771
-212.243
-152.951
-24.0208
3.04284
-19.7277
-6.18593
-13.9867
-19.6949
-4.51398
94.8457
160.931
171.725
167.301
83.849
-85.2863
-88.0398
-73.9197
-62.8164
-102.909
-92.0842
-27.6429
-15.3054
-16.1427
-28.6716
-106.516
-87.1567
-1.68039
160.248
177.351
88.3656
44.7842
5.35634
-3.48647
25.8148
38.5029
-0.938498
44.9436
110.88
117.287
67.8802
57.1403
88.4212
35.3177
-28.802
-94.6837
-30.6601
-3.43705
-60.6708
-109.106
-159.399
-138.89
-123.733
-152.078
-38.989
12.2087
42.6782
36.8245
-40.3133
-37.939
-21.4541
6.21076
77.2623
78.4189
65.9507
110.878
41.8212
-61.4999
-150.327
-69.947
68.9249
112.673
84.6239
7.4945
-92.5213
-17.8212
57.7089
19.2709
-48.6147
4.13461
111.856
131.778
56.6183
-19.6693
-15.0991
33.2371
40.3421
1.94481
9.7729
96.5733
-3.93346
-89.9516
-55.908
39.835
-5.38364
-149.063
-53.5425
-55.8396
-97.4232
-53.2195
-18.7148
-43.2377
-91.9999
-145.562
-74.3007
0.541732
43.1442
130.903
181.156
145.661
106.467
36.2626
-19.4378
27.1133
-38.5514
-57.7893
-166.007
-138.308
-1.02995
92.1502
147.023
104.09
124.428
136.386
121.987
66.0741
18.7005
21.9618
5.95795
-29.6321
-71.2511
-91.9971
-210.517
-256.999
-116.76
43.5451
50.0396
22.7011
7.03695
-69.2677
-105.428
-58.5856
-0.464817
42.0514
63.9471
71.1487
-1.72519
51.4309
-11.0731
-85.248
-73.5635
-56.9381
4.18808
19.4308
-21.2551
9.07285
89.8008
109.485
71.8543
44.4874
38.4498
38.5583
11.4432
69.8177
64.9171
30.6475
-22.9922
-107.262
-99.704
-82.1136
-27.2614
101.404
194.342
89.4918
-11.4986
-24.4358
-12.9988
28.5513
55.2591
-38.8006
-151.695
-58.3771
-16.9489
-82.8222
-150.856
-137.238
-13.4226
24.3808
-10.563
53.7796
50.93
-9.79847
5.9837
94.6212
98.98
24.1684
-22.0749
10.1273
61.4197
108.581
105.787
35.4541
-33.4175
-57.6994
-72.4932
-170.145
-137.548
-82.8107
20.6718
-19.7346
19.0978
44.546
-36.2351
-147.892
-0.715517
154.616
141.244
113.288
108.33
127.045
53.0994
-128.203
-146.62
-9.44836
103.474
144.821
93.7541
30.7369
-6.57595
-23.026
-64.6412
-128.279
-106.251
10.4436
-121.828
-239.172
-183.749
-145.734
-141.476
-151.893
-2.42154
198.037
234.177
173.434
121.909
132.843
80.0618
-0.143794
47.668
-2.23651
-42.2111
-23.739
24.5087
71.3621
107.167
74.4455
85.5472
41.797
47.7512
50.634
-54.7229
-166.588
-184.848
-184.008
-30.3802
35.9094
24.0322
4.71066
-56.7587
-34.2284
-49.1227
-59.7986
57.595
76.142
112.797
107.645
-74.4672
-279.044
-271.117
-160.618
1.35998
149.342
183.91
160.773
66.1107
23.2624
42.8197
58.3269
63.1762
83.7549
81.7427
47.7141
13.563
-55.5163
-125.232
-147.619
-103.285
-12.4128
-40.5943
0.229894
97.5404
185.547
185.97
88.0536
-3.96061
23.7146
-60.4734
-138.497
-104.566
-110.172
-111.563
-136.098
-169.226
-141.593
-74.6596
68.9844
172.759
219.43
194.951
133.738
82.6469
-40.8404
-145.717
-147.199
-107.921
-80.5703
30.1082
148.34
131.622
133.608
131.272
79.3008
-92.1965
-138.436
-112.057
-56.1303
-6.50711
27.6482
28.6962
-1.60057
-92.4687
-66.9987
3.87786
2.593
10.5123
24.8487
25.2626
-8.25876
-111.081
-32.207
21.0186
92.0921
138.05
115.126
85.1628
22.2342
-81.0007
-23.6649
21.1227
40.5381
-5.1577
-124.042
-111.848
-49.032
-45.8673
-2.24988
35.3954
81.1027
82.9148
-40.7939
-79.9939
-55.7351
-23.7565
-73.2872
-37.8033
58.1521
79.3789
14.6719
-15.8857
-57.4799
-17.5535
49.8683
29.0049
-24.1645
85.9498
105.365
-42.1274
-122.933
-79.7349
-0.0516851
41.0418
43.0048
71.5683
140.782
86.2556
-4.71965
-32.6547
-95.833
-117.362
-121.898
-54.2049
114.123
134.742
124.007
61.8308
-12.48
-0.42079
-14.9897
-52.081
-32.9614
-58.2412
-38.4451
-12.4752
14.3958
93.0431
104.864
123.491
96.1066
11.022
-86.2622
-183.452
-283.733
-245.281
-124.633
-95.2432
-35.2074
145.655
178.349
99.3124
26.9645
31.2885
42.1589
36.8456
-9.33712
0.296162
-37.5172
-41.3105
0.24241
78.414
125.656
141.763
131.626
42.2335
-54.0003
-126.419
-129.383
-154.319
-80.0849
4.75168
-34.3527
3.56589
52.0821
52.8395
31.189
-35.2084
-97.4505
-117.8
-40.9279
66.1393
105.401
145.296
80.8155
121.667
172.7
144.936
65.0522
-13.4811
-106.76
-85.0708
-98.7823
-106.871
-96.9463
-52.1381
-39.6351
-73.6212
-78.6725
19.7753
-18.3137
-3.48547
15.5555
-12.7997
6.81138
47.3585
14.109
-31.105
-27.2183
29.8291
58.1173
56.0916
49.1063
20.1118
-17.7799
-67.2028
19.7456
84.9227
51.6194
-12.1338
-2.30998
-46.9758
-70.0641
-117.547
-76.0574
20.3076
74.4248
113.612
99.5129
48.3845
44.7565
-48.2328
-49.2587
-71.0733
-86.8379
-54.4162
-8.60709
4.19191
22.8167
11.3985
104.708
75.768
35.1925
33.9884
17.9174
-39.0916
-62.3847
-101.285
-73.0378
-31.441
117.08
165.678
145.717
52.3125
-36.5362
-45.6411
-98.0102
-156.444
-2.69111
67.915
-9.2426
-24.8358
-10.5642
-30.3318
-143.099
-163.367
-85.8745
24.9164
75.7754
77.3708
30.9125
23.8377
7.45304
28.3911
40.0753
-0.261831
22.8762
58.9339
18.4516
24.1079
19.9449
4.44086
-25.0245
-49.4786
30.095
16.1487
-1.36795
19.8364
20.4142
11.1082
-15.7387
29.939
61.9459
38.9835
49.8052
36.1767
-42.2946
-126.14
-208.145
-284.482
-148.203
-34.2385
88.4271
160.551
167.287
179.456
159.611
97.154
-7.75174
-64.1712
-28.0535
-34.5233
-43.4688
-40.1753
-42.5548
-40.9116
-79.6201
13.783
86.3069
152.672
93.5384
19.804
-73.9927
-64.6008
-52.8182
-8.05093
13.3703
-61.4578
-103.787
-75.2758
-102.762
-105.278
-102.221
-3.19098
96.6187
122.349
140.39
106.269
56.7283
23.2737
-67.7276
-74.0294
-20.4665
-9.37895
5.51211
4.8828
-16.6103
31.1808
104.734
67.5451
63.68
106.945
110.103
3.66659
-87.6372
-98.9305
-48.2748
-40.127
-65.4772
-8.25902
0.743077
-14.8332
-17.9756
-26.413
-31.9454
-46.3683
-86.6128
-70.5509
52.0071
65.1938
36.1116
1.72289
-13.574
-3.59775
-40.9779
-80.9736
38.0908
77.4207
95.7297
86.7318
38.2067
-15.9445
-71.9438
-123.41
-83.496
-66.9093
30.075
128.641
108.467
88.8492
8.92554
-63.7369
-9.7693
-9.49028
8.14527
63.07
17.213
10.6162
-8.73812
-15.7654
83.8334
49.0315
43.1165
43.2292
22.311
7.0733
-65.7303
-118.071
-127.388
-101.648
-24.8657
-5.27739
-18.4261
0.676437
-9.71324
-28.3502
-153.806
-138.66
-46.6673
31.7311
59.4173
104.416
87.2951
39.9966
-27.8138
18.6218
151.211
132.5
78.4718
65.6884
29.1327
22.76
-12.4186
-31.9697
-47.9379
18.8794
43.2361
-6.80659
-64.1583
-97.0782
-111.785
-78.3118
-112.163
-1.67064
147.4
109.985
11.9045
-29.0903
-56.2169
-66.2428
-40.8501
-66.5465
-68.5046
5.71645
134.189
96.2469
79.747
86.8835
62.8336
-42.2658
-134.844
-158.311
-27.7151
75.0416
31.4264
7.97576
-7.12434
14.5689
20.1158
-24.7501
-3.82227
42.4931
37.97
15.8896
-20.7104
-45.7381
-62.7339
-77.6549
1.84451
54.3664
77.0678
72.9932
45.8601
-5.9169
-58.5695
-67.2149
41.8354
58.775
35.6618
-5.64476
-94.7979
-138.4
-123.254
-101.466
107.149
182.222
156.541
127.799
73.2495
-16.966
-90.128
-89.574
-152.751
-131.526
21.5604
113.094
63.1487
57.1482
74.5848
55.254
-56.4139
-106.228
1.70397
90.233
-6.21665
-44.2806
-5.68743
-5.02587
-40.2831
0.982672
31.7691
6.80496
67.7681
59.8359
-6.3129
-57.3346
-135.5
-144.134
-123.508
-94.211
67.2203
182.772
123.612
44.7651
-48.2694
-99.5785
-156.537
-165.733
-91.2033
4.36587
58.4012
105.69
133.492
104.898
59.4701
10.2517
-51.4006
90.3577
175.9
205.718
138.44
62.4733
-19.3494
-87.8092
-139.358
-156.724
-31.6398
53.9739
15.9048
-11.7997
-14.5949
-11.2842
-38.4569
-126.452
-97.4545
18.9471
46.4423
-10.2419
-31.1835
-28.3938
-39.1218
-62.7131
-9.56821
-24.4149
-107.744
-65.5052
-15.8602
35.1221
40.4776
19.9293
96.9247
79.1546
69.9209
106.47
69.1784
9.82877
-29.5336
-94.4816
-10.8136
41.7525
27.5309
56.0241
38.8596
94.825
110.175
63.8012
29.1169
-44.2311
-115.722
-123.605
-145.734
-110.378
-51.9817
6.26619
-4.55144
-22.2014
67.1314
96.6777
9.52757
-33.9878
-33.175
-0.987071
-11.1187
6.0141
16.5319
-29.5271
17.2438
80.3044
51.6408
4.90339
-19.1583
-14.2448
-19.6494
-51.0257
13.6808
10.8416
-34.4202
-54.1629
-68.2335
-42.7263
21.8409
28.2921
40.4086
33.2661
41.3069
101.904
31.2585
-58.8971
-58.7492
-52.6695
-9.91263
13.0775
23.8583
24.876
0.408968
12.7897
42.3143
18.2197
21.8241
106.265
110.112
82.6907
15.7397
-50.7886
-74.2785
-84.3594
-121.878
-130.318
8.64065
50.7898
43.3449
33.9792
24.4128
5.25483
-50.2021
-45.9975
15.9336
-13.4668
-92.7413
-153.718
-81.4345
19.4827
-8.08381
53.8075
73.9623
22.989
-1.16305
70.9039
64.8863
34.5479
-55.9856
28.5436
59.2286
11.6772
16.149
33.6095
19.9534
33.5636
34.7413
-40.5285
-106.176
-61.6981
-11.512
-38.1126
-4.45019
82.7777
131.743
79.2054
-44.8334
-87.5721
28.3309
-56.4604
-101.787
-95.1047
-66.4492
-17.8113
8.68267
40.8572
61.5149
125.014
83.9229
32.2382
24.6136
-13.0323
-25.8139
-44.7524
-69.5328
-6.32456
12.7643
55.017
1.83321
-7.92568
4.52864
26.0067
26.5699
74.8966
59.0276
-12.2515
-97.1801
-114.149
-49.6738
-69.33
-102.359
-17.2612
-1.47231
31.7698
49.8997
24.6898
58.5995
36.2701
-41.9219
25.1026
30.969
81.1858
66.4827
-40.8762
-55.956
-27.0035
-56.0529
-12.8852
83.0801
44.2269
7.45438
-65.6838
-67.3064
-36.9816
-21.2464
-58.4151
2.67749
69.0808
95.9697
4.35153
-53.4607
-76.4644
-52.9237
-68.7018
-9.38922
129.031
182.297
131.628
21.2202
29.563
67.1059
41.8467
-48.6276
-86.8109
-16.2322
-28.6988
-61.2821
-62.3608
-32.9849
-45.3539
-43.573
-10.903
50.9763
53.7165
16.4655
-37.0425
16.5357
24.4195
-75.5423
-91.0176
-7.69196
-26.132
-22.7226
14.0715
-14.1081
-10.8951
-96.9126
-67.8101
102.943
142.735
151.364
166.895
126.696
88.3139
15.9303
-80.5789
-144.165
-108.178
-117.571
-69.166
-37.8169
35.213
54.4153
-46.2512
-74.6577
49.5163
117.72
110.757
29.5943
18.1027
20.0133
-42.9939
-44.616
-53.1415
-95.5386
-83.5899
-50.1889
-42.4853
15.8083
-1.17954
54.5139
30.703
40.1857
73.4242
48.8202
-16.3774
-51.2823
-82.9439
-19.1274
-0.000376429
24.1644
105.526
85.1697
54.815
44.5337
-19.897
-62.3528
-3.81924
82.2873
102.181
23.5313
-47.5576
-53.4106
-38.8576
-41.6616
-102.126
-69.086
13.2117
-48.392
-71.7306
-60.9469
-75.6776
-63.2617
1.4175
61.0829
132.09
192.965
110.337
26.2538
1.73523
-21.6648
-43.5662
-103.593
14.7137
73.5448
53.3159
25.2894
-10.538
-59.914
-109.06
-143.469
-93.6831
-18.6964
-4.01263
12.2263
32.6222
52.7561
53.1986
-1.42313
38.9893
103.148
116.224
132.651
34.8485
-38.5724
-64.8348
-144.947
-177.186
-43.494
47.3594
79.9574
49.0755
17.4989
53.4101
65.4052
21.7656
-13.1648
54.5692
34.0015
-48.5517
-151.368
-104.149
-15.5291
-45.9937
-53.0139
-1.04294
91.0728
111.993
39.225
-3.51632
-38.2559
-80.6836
-51.4374
-47.6774
-46.7837
-6.56561
41.1374
-2.43479
3.03111
-7.24601
100.934
145.73
50.4868
30.8141
19.1354
63.0437
49.9565
-72.6064
-191.269
-203.648
-68.534
17.3368
52.7374
139.297
233.757
257.791
171.542
-43.938
-92.7091
-119.215
-131.819
-180.856
-164.843
-149.297
-119.082
-114.164
-39.5551
70.7908
192.725
234.118
170.122
81.0511
-41.844
-117.208
-162.6
-175.653
-75.8609
-21.5232
-11.088
64.4568
81.17
101.268
72.7236
69.4306
31.2564
-65.4545
-48.3438
16.1838
26.5408
75.1073
111.184
70.4599
93.1487
49.646
-4.73347
-37.7656
-73.9581
8.78469
45.2598
8.89542
10.1147
2.51645
-5.01252
-79.1197
-143.447
-93.3466
-87.8897
-28.5822
54.0681
14.3863
-70.0599
-38.8255
-17.8793
-0.819862
-47.7222
-88.0318
19.0022
19.8804
34.0878
51.2534
5.38014
7.85226
13.859
-5.88931
79.4044
177.245
104.446
-5.60919
-75.5813
-94.2936
-31.258
33.4937
-24.1179
-60.5832
43.8964
76.1278
-11.7551
-12.3716
1.17358
6.94739
-41.0249
-83.0361
43.8599
138.548
139.354
24.16
-28.278
-31.452
-79.8459
-96.793
-33.0706
-36.9465
-4.49702
15.8511
-27.9328
-28.1507
-61.0929
-20.9556
60.6462
118.555
98.1403
75.0025
11.6555
-41.1923
-112.84
-168.744
-125.988
-0.372479
40.3896
39.0286
-23.9213
-20.7269
-4.38645
14.1564
55.0669
134.07
106.749
65.8311
12.1795
-4.27369
3.4102
1.27203
31.7986
90.7377
106.019
126.079
105.098
-66.3146
-154.667
-182.009
-107.84
-86.7853
-57.7711
-8.58294
-36.3723
-92.1495
-116.544
-160.693
-99.4543
-10.8481
-8.78684
31.4145
13.7717
26.7108
64.2163
55.9404
69.7875
128.191
143.175
141.954
74.247
56.5278
28.621
2.71512
-12.1927
-59.6484
84.3146
134.4
55.4974
-50.3033
-59.4461
-45.0489
-41.8745
-98.4617
-120.43
-2.85536
40.1544
-27.5528
-67.4234
-49.8371
-70.6182
-48.1196
-58.1689
25.5509
52.0342
76.7418
22.2411
52.1319
49.3841
2.6193
-33.8241
1.16671
-59.7093
-85.4032
-98.3604
-128.85
-95.2204
-54.2802
41.0821
157.62
146.016
113.303
99.6254
42.422
7.6755
-7.54623
-70.771
-65.8855
24.5864
78.8209
95.065
-25.1565
-19.5494
32.0375
69.0139
23.899
38.4624
79.1124
83.102
27.222
12.8389
25.737
-39.2408
-233.553
-204.611
-99.1781
-64.6477
-22.6928
-24.7605
-60.646
-46.015
-56.1201
-1.47099
33.4411
34.9538
40.9468
6.93364
-8.21341
-24.3043
-99.1902
-41.7915
35.3482
106.837
168.563
144.394
91.2088
44.1789
-7.60381
-118.826
-48.6539
52.5366
95.709
59.971
6.84668
-0.797837
6.69261
-17.2067
-58.8463
-137.021
-45.0079
25.8868
-10.1168
-15.3663
12.5603
10.9278
0.240259
28.2581
31.0586
106.354
65.8776
14.692
14.0107
-33.2662
-92.9603
-129.583
-151.615
-101.721
-42.0984
37.8271
39.5383
-18.4528
-15.9299
-32.5617
43.99
60.8402
56.9255
77.4342
92.7545
75.983
28.4708
-69.4167
-31.7337
-64.2592
-75.6516
5.10596
83.3431
71.0582
24.8178
-12.7678
6.81256
-25.8354
-31.4422
14.1745
50.8661
50.262
29.2739
-37.7463
-108.911
-51.8314
-39.889
16.6483
26.5421
41.2642
60.36
47.9756
18.2128
-15.7676
29.5823
21.6861
-50.8408
-92.1393
-76.7227
-32.1056
-69.3553
-92.0416
26.9765
76.7981
49.0999
-58.1623
-88.6431
-45.6621
-37.5806
8.43955
47.5439
66.3018
174.371
171.305
-19.5628
-93.9374
-35.5358
-15.3815
34.4631
23.1111
27.8389
39.4457
-37.6811
-50.4086
3.76682
28.8096
26.8867
-48.6142
6.66729
56.4636
39.3587
2.05846
-111.703
-167.104
-66.9688
-17.5277
0.183701
57.7872
67.759
63.6851
27.2002
23.4747
3.25439
-53.6176
-78.6021
-79.2591
36.6091
97.6535
46.6151
10.3565
22.8928
15.5292
-22.6955
-35.6065
76.3386
160.835
131.349
58.4293
-32.96
-83.5011
-118.692
-165.926
-79.0229
17.2021
35.0397
45.767
0.895139
-9.65655
-50.5126
-97.9519
-3.97149
19.1452
15.5388
48.1342
36.2918
18.1658
-36.6103
-124.248
-111.268
-13.1603
2.64548
46.0311
24.8426
44.367
90.3303
71.1739
-43.6853
22.0602
115.58
119.507
36.3733
-39.4814
-105.482
-119.165
-126.398
-124.532
-100.894
78.7306
129.221
109.222
103.962
77.8316
57.5623
59.878
-10.0226
5.29815
60.6693
1.42373
-84.0617
-80.7196
-101.982
-88.5699
-22.0482
43.9562
65.8898
47.541
40.6151
-35.3947
-96.0711
-155.826
-116.045
-22.0911
-16.0272
-12.2504
26.7716
14.949
23.9507
32.3596
-12.4697
21.3526
172.277
240.936
160.357
-6.10565
-111.595
-139.672
-146.842
-148.24
-54.6636
76.3743
124.805
159.102
98.9132
26.9026
23.0526
-12.2184
-45.8277
-26.2
-14.7326
-8.61878
-66.8869
-79.0035
-32.9308
-22.6096
-74.0936
-13.4979
42.953
29.1111
-1.47476
20.7853
56.2568
-58.8509
-77.913
3.11953
44.4928
52.4433
35.6044
1.41244
-4.64738
-83.7637
-215.558
-125.746
14.1115
121.424
208.461
216.15
172.847
62.5564
-46.8551
-136.309
-160.957
-34.4069
43.0301
63.7054
50.4142
23.8271
9.34628
-35.5301
-109.862
-188.465
-78.1517
-22.1593
9.92238
64.8988
46.3536
4.23818
6.27156
-3.20383
-31.8683
20.2537
15.8867
-18.4984
1.37073
-9.90312
11.2194
25.6595
68.0774
105.539
129.129
180.029
118.583
4.60837
-108.059
-181.907
-146.426
-75.2467
-43.0106
26.0476
67.6815
19.2881
5.21005
-46.4328
-30.5385
-40.6501
-56.5001
-5.32619
-5.72005
-18.2893
65.6648
71.7805
-26.2893
-36.3193
-70.8318
-51.0962
-43.3184
-59.8321
16.8879
159.804
147.221
-42.6652
-78.675
3.77993
3.22857
18.4828
57.8843
101.441
122.116
6.03772
-45.3703
10.164
24.6312
-13.9752
-2.26341
-17.4903
-26.0208
-75.9783
-83.7278
-55.7323
-55.0509
41.2879
72.4754
43.0244
5.69437
-49.293
-128.49
-203.822
-138.632
-29.1819
3.76758
66.3973
155.175
173.917
192.53
136.538
108.325
45.5117
4.69342
-73.0079
-81.8234
-97.584
-123.639
-144.145
-96.4409
23.0789
60.3515
80.0961
34.1119
45.78
25.3649
-37.3574
-64.3927
-19.7131
-9.07162
39.5598
23.6269
43.0794
36.3696
-41.4877
-42.3003
66.5108
80.094
83.3872
59.2573
-4.25479
-7.67244
-91.7351
-108.486
-22.2689
20.248
13.6177
-6.71458
-59.3599
-93.0062
-161.681
-50.4416
47.5874
33.2708
54.2905
81.6764
75.8934
88.6132
48.4631
18.4644
-25.1284
-34.0769
25.6907
3.10102
-60.7372
-97.7625
-140.716
-49.0407
-46.0209
-45.3655
20.3381
-4.51281
14.1885
38.7745
9.31898
104.998
174.399
174.046
129.1
56.9689
10.6567
7.01457
11.314
-22.9643
-108.553
-103.881
19.9999
-60.7348
-96.7562
-42.9054
32.5611
66.7138
-2.86195
-66.9631
-7.0125
-46.9812
-95.9056
-89.7692
-45.7494
-25.3263
-68.0587
-49.0102
23.6398
28.6795
87.1246
140.184
134.694
126.253
24.7682
31.5263
60.5986
-12.1791
-50.2663
-61.7477
-69.0759
-71.8607
-120.649
-128.208
25.5021
91.5166
115.541
92.8845
83.0747
82.5147
23.7136
-77.807
-51.502
-8.3766
-34.3372
-75.8789
-79.702
-77.1027
-29.7327
-4.19779
60.7948
52.8634
20.1796
11.3176
-32.5894
-34.7192
-26.5112
-43.4664
40.2252
70.324
58.2541
52.7112
-21.1763
-52.4663
-39.0934
-29.1125
115.349
128.725
81.4545
53.976
-9.76356
-36.5697
-58.1696
-90.9172
-32.0857
41.7275
54.3104
53.3375
-15.1066
-36.0275
-25.4695
-41.0621
-165.043
-154.533
-20.3979
7.45714
-96.7026
-135.923
-75.0273
37.3343
32.4317
-30.5588
100.031
227.485
185.652
105.823
95.5062
89.6813
8.04887
-70.1066
-79.3394
1.69264
97.5829
65.8055
42.5562
31.615
-17.4456
-23.602
-85.7209
-102.337
-38.8059
-10.6392
-28.2385
-36.7152
-64.4796
-79.1866
-104.843
-91.1895
-24.451
-31.5146
-68.8597
-36.7066
10.047
53.9619
115.06
183.816
148.315
77.9563
75.5045
49.9906
-2.84392
-15.9642
-94.8451
-144.919
-100.507
-50.6559
14.0063
53.3867
30.6446
44.4934
44.7673
8.69772
39.5755
95.5576
30.0162
-46.5283
-63.2591
-33.7899
-24.1867
-40.5083
-2.57926
33.9683
19.6424
3.97885
-56.5368
-74.0942
-53.9833
-67.517
-66.0421
93.6824
140.706
119.23
36.2108
-56.748
-56.9955
-60.3514
-89.5413
-69.6432
56.5859
96.716
89.3094
32.0614
34.738
5.81429
-68.526
-87.8955
-79.3271
-31.6069
26.4325
54.0738
101.777
58.6347
24.164
1.48735
13.3192
-6.66368
17.8777
38.4408
-38.388
-66.4386
-97.3012
-159.122
-100.005
24.5722
107.249
112.784
113.082
79.5725
29.869
-25.3521
-77.3699
8.78044
42.5796
4.67888
-48.4871
-64.0638
-53.1581
-47.7473
-87.543
-47.2379
-29.9308
43.9617
59.2144
22.6652
22.3987
11.1114
-52.5048
78.7949
122.045
54.8063
38.5607
6.31544
-24.8832
-48.3929
-76.3865
7.5993
13.8397
-18.3346
-2.91998
11.3798
-8.72009
-41.4117
-40.089
-0.3558
49.4005
24.7689
18.0721
-62.0895
-50.9191
-28.1638
-21.6962
-38.4599
-24.3252
73.4451
154.091
73.3908
4.84346
-1.57262
-40.5114
-61.6186
-20.0689
19.9232
53.7311
94.6854
89.6279
55.8515
-6.94991
-110.509
-119.646
-77.524
-98.0109
-69.9335
32.5711
46.5564
28.9706
16.5919
28.7632
18.7561
-12.0507
-39.1353
-21.6959
44.8878
48.2344
-25.3799
-83.3182
-50.5345
-34.0139
10.1834
76.5577
55.0354
83.682
97.542
42.7235
11.3261
-36.9532
-102.176
-5.68165
61.7834
58.5614
39.7342
18.6032
-32.3961
-130.108
-233.785
-210.523
-68.0984
115.198
167.289
118.545
59.5559
31.3058
-1.87105
-64.7723
-4.22013
18.0411
58.9582
12.9269
-62.0753
-23.812
1.95144
-18.1396
55.0836
87.4167
109.305
72.086
12.6419
-40.9754
-141.004
-178.874
-25.4869
22.9403
34.1557
58.7815
20.1015
-12.7725
-59.2101
-139.812
-81.0004
-41.6808
-20.5996
9.3867
1.90604
41.9498
83.1932
83.745
12.5473
9.88392
126.44
114.041
40.094
-0.370546
-22.6073
-32.8522
-58.7677
-75.1056
-44.2818
51.4231
62.2357
43.8622
33.7248
25.2601
-12.0696
-25.4751
-51.3894
-62.4494
49.2995
55.7131
-5.69577
-14.5903
-42.627
-40.5826
-49.3966
-67.7889
-38.6289
-25.0247
0.452117
-11.7964
-22.1092
-17.1636
-35.5922
-47.6007
37.3464
64.6031
83.9588
68.4817
11.5178
-11.5854
-70.1265
-112.012
-34.6899
4.09086
56.4929
87.3937
40.2213
27.8653
18.0853
-7.41456
72.5657
62.0676
38.7926
70.1174
41.284
10.4705
-1.19169
-45.2253
-6.63829
-0.474859
-36.0333
-21.9063
-84.0878
-118.289
-113.641
-106.953
4.43566
61.8498
53.9962
51.7916
4.16376
9.29264
15.7195
-64.7991
-66.9478
29.5353
63.0092
76.4479
4.12281
-13.827
30.1652
51.1575
19.1663
-3.82966
58.1167
99.4995
8.57889
-32.6819
-32.4433
-41.1932
-78.8214
-108.247
-54.4266
-8.53138
-46.6011
-68.3438
-21.6903
62.1236
133.952
81.2411
2.17311
19.0665
13.7208
9.25652
-54.0253
-93.2832
-122.253
-145.527
-118.925
66.0668
138.856
155.893
114.838
93.9587
52.7962
-16.8696
-70.0023
1.92286
-32.7377
-17.5903
38.8594
25.0473
31.1891
14.8262
36.544
129.968
128.516
79.0188
20.118
-103.832
-197.422
-337.736
-328.662
-147.748
-14.235
112.321
166.852
141.927
69.5943
-35.0559
-1.60586
60.5672
55.904
67.0178
22.936
-57.7306
-56.7915
12.7744
-23.3265
-44.0046
56.6625
182.345
202.581
120.987
27.7865
-84.0558
-120.838
-196.761
-226.352
-120.207
45.3249
78.8749
108.367
85.1116
47.0867
2.01705
-78.4228
-100.825
9.84719
32.2944
-13.8255
-36.4407
-51.4349
-80.319
-104.425
-79.5489
4.15997
64.8236
141.908
164.489
80.3911
18.1206
-57.6282
-42.4054
67.053
74.2806
107.827
85.6247
32.587
-9.50519
-81.7424
-66.9808
-38.0906
-4.70805
45.7836
41.9379
7.37343
-24.4676
-45.9232
-111.105
-135.179
-135.815
-64.1688
-14.4119
-16.3926
23.4934
-8.39993
-54.7922
-9.32075
41.6827
54.6649
71.4607
62.3916
60.7855
66.2997
56.955
83.5581
31.3317
16.1188
82.59
92.3356
97.0232
85.5699
-28.3066
-114.306
-160.159
-132.879
-86.2835
-83.8473
-99.7058
-94.8881
-72.4826
52.3263
64.1202
41.9692
5.73872
-43.2187
-17.1074
-14.2103
-25.0499
15.5924
50.4375
31.6351
23.8938
-16.0348
12.7164
41.3278
47.4106
57.3984
24.0696
106.649
136.228
45.8516
14.6576
2.51541
-14.3367
-58.6253
-99.2944
-106.55
-44.6157
45.0791
-6.24588
-52.7067
-18.3193
20.5206
56.4148
54.1201
9.72437
19.9196
21.4818
-5.94115
-30.593
-62.305
-70.17
-113.352
-87.4233
-13.9014
26.4717
58.4246
57.8763
-9.55894
-6.95298
-47.5246
44.4915
79.9188
21.7754
-22.5057
-12.9345
-30.0049
5.91022
-39.4177
-12.3587
21.3622
45.034
71.62
30.985
3.40624
76.7849
108.393
-13.2026
-78.1406
-76.2398
-5.76668
-13.2671
-10.9482
-5.46269
-67.5675
-124.486
-28.0382
0.687491
-36.9747
-40.9406
-20.1012
17.9004
54.3415
6.37736
22.0604
25.2363
-34.0273
-28.6652
32.8372
109.752
143.941
45.2211
-11.2306
95.4774
184.043
241.812
64.2581
-84.9676
-61.9611
-46.405
-81.661
-111.45
-47.7793
40.744
-60.3022
-179.686
-131.042
-20.7914
-42.0364
-130.355
-95.0279
9.84286
54.8775
25.918
31.0635
1.3452
-3.06973
17.9538
-39.2704
-49.0116
-35.7343
8.02851
44.9865
44.7281
-53.0645
-99.5772
-85.8784
-40.088
98.2968
165.069
145.427
137.073
115.375
71.4072
79.2693
97.5653
120.705
92.1731
78.1451
26.3348
-27.5645
-69.8423
-136.625
-138.841
-10.6101
61.4951
61.4913
18.3652
-155.667
-217.973
-193.03
-144.371
-32.8676
3.57807
-32.5835
-67.0646
-138.314
-104.115
-54.5686
-13.4361
98.3452
137.061
160.631
141.391
117.573
93.816
41.5152
-9.66477
-5.37544
58.4385
48.7857
20.56
-13.6034
-43.8271
-75.7642
-74.4256
-113.246
-11.3583
111.801
142.515
91.4126
10.2852
-67.9336
-72.7156
-39.2199
-28.6122
-32.0792
108.127
109.749
47.3822
-1.94363
-62.4616
-109.917
-131.821
-108.177
14.5499
98.2717
61.8109
27.9218
9.86707
-80.6726
-179.619
-129.481
-3.29707
112.668
88.0517
99.7296
16.5794
-32.3145
-14.2029
-26.7255
54.8441
52.3072
-26.044
-107.22
-99.32
-2.31998
32.9535
24.7795
-16.7486
-32.6769
128.98
176.53
98.8166
33.193
55.3055
62.8458
75.8315
39.3627
-57.6752
-59.7522
-96.9735
-79.5766
17.6149
95.3516
74.2588
-57.0098
-100.485
-113.968
-92.7986
-57.4021
-63.3167
-80.3361
-103.774
-161.664
-43.0889
7.35719
-35.3847
9.22921
108.612
184.528
206.085
116.723
72.507
72.7618
-73.5002
-154.085
-169.896
-120.533
-73.0083
-41.1287
8.3071
115.478
137.735
177.008
188.682
163.367
111.944
63.222
-42.6052
-107.874
-42.6651
-34.166
-48.4047
-45.6821
-19.4169
22.4649
-13.9559
-94.5408
-108.211
-25.0912
-13.2268
-82.1161
-86.2997
-65.9706
-78.9289
-45.515
-15.4191
32.94
149.086
169.751
113.633
37.6036
-64.3295
-40.2787
6.85978
5.93026
83.9669
132.995
73.5382
-29.8371
-103.605
-115.571
-65.2094
-18.5036
8.24109
1.1479
-45.1772
-101.244
-121
-99.5259
-131.729
-66.5209
110.054
158.058
199.634
193.666
86.3644
40.8997
22.7584
-31.8132
-86.6113
-37.9
-12.8664
0.60203
-22.2541
-22.7962
19.4716
50.6652
19.8406
75.1262
70.9158
56.837
-7.62397
-90.2415
-159.548
-162.165
-149.907
-42.3513
83.1364
123.929
142.357
84.8262
26.9623
-25.312
-111.228
-94.9155
-8.36724
15.0925
11.2923
-22.7134
-13.2482
32.8652
82.2606
27.2263
-51.6424
15.6971
51.9178
-2.24398
-31.5639
-20.2345
-3.64156
-51.4928
-58.0005
28.3917
116.27
90.0761
45.1093
12.0562
-39.7523
-118.501
-180.724
-208.541
-172.303
32.4113
160.068
129.363
94.6884
73.6199
23.262
12.7673
-16.2822
65.9035
106.234
41.7991
-16.0876
-26.7355
13.631
29.6998
-11.7615
20.4252
51.9672
2.97771
-102.416
-220.008
-171.677
-43.8699
54.961
154.831
113.23
5.29075
-2.12743
7.23294
-8.83447
-37.5117
-61.0557
-22.0687
-17.1592
-20.3751
5.69819
10.4649
37.4377
40.5033
7.57349
77.5597
140.777
59.598
-35.6657
-147.987
-96.1603
16.6871
16.7679
-100.811
-138.275
2.75494
46.4865
28.1119
-6.90672
21.1735
33.0899
11.2655
-46.3405
19.9584
156.28
104.916
18.28
5.63465
4.54847
-17.4812
-40.5976
-83.9448
-127.581
2.93778
39.5709
-41.9464
-27.6502
1.66565
25.3013
5.97959
-12.9559
105.993
129.637
74.1759
3.13975
-17.6109
-49.2544
-107.068
-156.608
-57.4971
-30.0088
27.5479
98.079
68.4116
23.9871
-32.5256
-69.5586
-9.89113
45.2152
105.693
141.37
67.2811
-6.50725
-89.3894
-132.488
-201.653
-198.87
-23.3895
98.0176
113.108
114.443
137.51
139.821
27.4051
-81.1539
-9.99189
20.4137
-65.8253
-144.637
-162.566
-128.453
-119.399
-28.4644
154.967
254.308
298.394
204.967
68.1436
8.20826
-117.056
-171.922
-118.133
-99.0406
-48.0333
19.713
-33.16
-10.1171
-8.0784
-25.7757
69.5904
75.3126
26.8828
-4.20383
-76.4637
-116.281
-106.519
-106.651
-53.5742
80.3442
101.651
96.5698
35.2294
18.4626
21.7414
31.502
-5.0348
-38.9897
-17.3006
79.4117
26.7476
24.6523
43.086
58.1222
41.6538
10.5271
-43.274
22.8466
49.2341
-3.64546
-12.2361
-12.0829
-29.8508
-55.0701
-114.334
-142.684
-68.3439
0.891846
30.5856
34.3505
59.5666
61.927
-2.16372
-52.5536
-5.32789
46.0076
-53.6779
-140.206
-132.093
-67.5863
14.0174
30.1658
98.8274
73.485
83.8587
103.747
68.3779
52.6109
21.0821
-40.3545
-105.252
-15.6954
54.476
77.4907
72.7174
83.3626
155.011
142.93
0.161911
-109.913
-76.4343
-35.6854
-66.0994
-49.4559
-34.9939
-59.527
-128.531
-83.1
-68.1814
-44.5844
-25.2733
-68.5041
-74.8764
-44.9204
-61.4563
47.0783
95.592
103.783
107.607
78.964
5.47564
-54.0269
-146.436
-69.1518
90.8228
113.163
100.415
69.2676
68.9131
61.5591
42.09
-25.4581
-29.2474
18.7449
-6.55454
-101.13
-67.8077
-10.5197
23.239
27.5472
-55.193
-52.306
14.35
-12.2541
-68.9424
-15.7958
28.9514
28.3728
6.45301
-25.0239
20.1683
73.4257
57.9149
48.5221
49.0575
-5.5164
-22.3804
-33.3864
34.636
29.8032
25.3717
17.8773
-61.6504
-121.7
-195.06
-194.31
-95.2244
-66.5149
13.0892
103.778
137.597
157.445
84.8155
47.6467
122.575
72.9584
66.923
21.8748
-107.004
-141.609
-88.1484
-48.1089
69.8058
93.6208
112.865
97.4512
29.6126
-3.98881
-25.0968
-70.8357
-132.131
-76.559
-19.6184
-29.7395
-64.8826
-45.3821
-51.5354
-24.1138
-75.3313
-64.7359
43.3449
90.1627
52.6697
42.7274
38.4549
42.887
17.4508
-6.77347
-12.2419
73.5871
71.3597
-3.0066
-2.37991
3.22
-29.9177
-60.426
-103.084
-155.131
10.748
81.1279
27.457
-6.75774
-17.5153
28.2721
24.6391
11.0934
132.969
181.174
134.944
34.0635
-15.6783
-63.3996
-96.6441
-150.968
-53.9967
26.1386
48.1112
33.601
25.5618
59.5599
67.3516
8.33308
-139.815
-132.916
-67.9409
-21.7636
-58.5768
-58.0292
-56.5744
-67.0832
-51.5388
-38.5919
70.2704
140.258
80.228
49.5305
88.9435
134.295
56.3803
-57.5754
-53.2739
-60.7251
5.70782
-15.965
-53.1824
-32.6659
-54.6814
-32.9299
36.5141
51.49
59.0907
55.1385
34.3203
48.9776
-31.6327
-34.0821
15.0649
-1.01761
-21.1952
-20.6596
-56.0063
0.0504142
20.3738
-65.3233
9.59652
95.2346
78.1543
66.5177
39.8277
10.0549
-15.23
-18.0167
-86.443
-126.734
-37.0686
-58.8751
-73.8602
-30.4723
11.006
32.269
7.55014
-40.4645
-60.5147
32.1576
82.8935
46.4476
31.5041
-20.5852
-28.5823
6.64778
-9.88152
-53.1107
31.1554
121.364
63.6421
15.0592
0.00279175
22.8967
34.3029
6.82556
17.1084
51.6619
69.4639
57.9545
-30.1071
-126.76
-188.645
-173.825
-52.748
7.89898
75.9456
162.042
103.278
-4.16949
-65.4077
-82.5158
5.76829
119.405
89.1241
71.8599
-28.5562
-97.0733
-56.0948
-48.8845
-92.8051
31.0626
114.908
90.752
2.75696
-37.4174
-47.9007
-79.2563
-103.141
-51.1388
49.3638
80.7719
21.1288
-50.6248
-49.5686
-66.5666
-82.4483
41.3042
60.6551
39.0972
43.6777
24.2908
0.649288
-12.8509
-60.1889
9.79044
27.7799
16.407
34.2953
34.4069
22.4401
47.0943
19.9263
-6.73994
26.5815
33.819
39.2145
-7.13522
-24.6437
-17.6516
25.661
-20.8689
-11.5725
25.3241
30.6171
-24.1795
-55.036
-57.0367
-35.2244
-18.2833
-51.2265
-92.8284
18.2817
19.9236
-14.7885
-20.7141
11.918
9.38688
2.38585
-11.9727
19.6456
39.8096
5.94297
6.00267
30.2878
28.1629
22.2681
8.36537
18.5142
93.6432
95.4763
74.442
-19.9902
-79.78
-95.0766
-78.2978
-38.2052
-25.6493
4.70161
24.5366
0.823408
36.1001
15.8855
-102.97
-87.3507
-63.2161
-7.40424
34.3125
32.8342
-17.8565
-12.9672
-25.824
12.6867
102.566
129.631
81.9544
54.5871
59.9135
45.2664
-0.215482
-59.418
-64.9136
-15.1389
60.9315
26.6549
-5.02233
-15.1311
-33.1288
-75.516
-165.214
-111.318
-28.7754
-15.3177
15.9836
18.8045
17.9422
-26.9735
-102.919
1.31121
98.2703
85.6719
38.7083
14.8634
46.2136
62.2045
50.9504
7.96137
-7.02396
45.727
54.9115
7.03175
-66.9961
-112.487
-96.8764
-101.98
-61.711
59.8613
82.2275
3.91675
-28.6893
0.0745709
20.6263
11.4755
-38.908
-44.586
56.2179
110.18
106.661
70.7557
76.1277
70.3657
67.4207
21.7073
-95.69
-85.5328
-9.37577
-52.5121
-42.3108
-51.7028
-52.8216
-25.1565
-54.9951
-17.9804
37.6683
32.5165
-30.2015
-60.1168
-64.1594
-72.1753
-81.6355
-15.5708
57.7174
58.2469
63.838
50.0134
24.641
15.909
-1.66047
38.0806
35.6617
6.69234
14.0622
-16.1557
-23.6492
-23.4929
-55.5662
8.49648
45.9883
53.291
79.5964
46.8517
8.25615
-51.5109
-108.164
-35.8943
28.9712
79.6649
105.607
50.4725
16.1346
-22.8596
-42.0469
-115.163
-170.538
-93.3332
-23.3284
-12.0314
29.054
61.144
58.708
42.0184
41.0858
41.4136
82.1953
82.9508
-7.40431
-63.7905
-71.5336
-67.1023
-68.1975
-82.1176
12.906
96.873
111.102
68.1119
37.2851
11.2147
-24.9298
-80.0824
-54.0647
13.2957
9.09477
55.3093
80.2156
17.5962
-36.77
-147.299
-147.545
-123.74
-130.026
-71.4761
-43.6384
2.62226
51.1652
36.0345
30.8971
79.2886
119.057
114.708
94.344
49.2348
26.8697
18.4053
17.9376
-11.6192
36.0471
81.9717
78.1787
40.7461
40.7066
29.9157
-29.4608
-84.7923
6.05758
13.5496
3.88423
-30.7462
-73.2677
-69.8281
-103.351
-134.975
-61.1106
-7.71392
0.190185
-8.7911
-43.0153
-34.3392
-34.003
-33.9489
29.1604
24.8894
31.4579
63.462
8.77569
-7.9242
-38.0979
-130.377
-56.9932
26.4204
52.4918
113.601
119.156
52.2542
25.0574
14.4369
-91.4427
-50.0312
109.325
151.023
139.06
109.666
15.6062
-35.1015
-77.3372
-131.222
-40.021
49.1597
10.0487
-12.6504
4.72396
-21.8645
-58.8525
-57.6186
-104.062
-29.9755
68.4796
37.6236
-48.3132
-63.9058
-84.1813
-65.5573
-18.3149
49.3408
91.7433
128.668
90.0364
48.4829
-8.35508
-91.3632
-153.195
-96.1956
-114.606
-88.7467
21.3741
39.5125
75.1547
62.6779
8.85056
62.3825
47.3589
44.5028
56.1839
51.1071
81.3115
96.4941
-57.6243
-156.781
-38.0024
175.378
213.95
137.514
99.7696
43.3181
-26.8462
-144.319
-240.963
-123.356
-82.7387
-76.631
-28.8684
-37.8036
-34.6568
-65.7918
-85.3511
-46.1988
3.15342
86.493
57.6892
-34.4915
-31.2314
-64.602
-79.5414
6.11042
124.113
156.63
202.471
135.153
65.7838
-5.29353
-69.028
-105.453
18.0803
13.1817
-42.8291
-52.3367
-3.80407
-1.32563
-43.5604
-136.198
-52.9994
64.9672
74.1133
18.6621
-33.9569
-30.444
-0.908717
-17.0494
-66.4305
-77.0311
37.5508
83.6189
30.8335
59.0583
56.6036
41.6231
45.8547
24.6823
67.6595
118.151
49.3836
-23.1982
-20.2971
-20.4167
-38.084
-68.6411
-30.3794
-33.4919
-6.68829
-12.3257
-64.5038
-62.3138
-110.097
-133.346
-35.6194
-14.0867
23.3602
68.1843
17.5699
6.17643
-8.4917
28.0164
62.7185
53.6255
49.8617
48.7036
-4.06602
-51.0853
-74.532
27.5672
40.1392
28.7533
42.7329
76.4422
16.861
-37.5903
-128.97
-101.814
-39.0115
74.1382
99.6838
69.4174
72.7042
88.4939
68.3412
28.0855
-87.0597
-57.3641
-2.99445
-78.5562
-112.068
-81.1431
-33.1006
24.4073
19.1325
24.5002
64.1757
108.132
71.2375
-45.5671
-148.322
-136.13
-65.8292
-57.7876
-12.7693
67.317
92.6326
65.3541
63.0693
37.09
-0.878402
-39.5342
-14.6867
-4.50922
28.7497
52.9891
61.0596
13.2286
-58.3623
-124.495
30.3398
20.2815
-32.9892
-20.8055
-39.0756
-55.7054
-11.7363
-37.7409
-5.44856
27.0497
91.7849
100.58
31.6212
-22.1516
-57.3316
-39.0714
-7.25617
-16.4674
74.2583
90.5464
49.7873
48.2498
24.2965
11.9235
-33.7948
-36.6466
-13.8607
-16.2435
-44.9816
-61.4035
-64.8609
-33.6507
-61.8209
-46.3847
78.3459
60.1012
39.5996
34.0995
-1.32472
16.5668
-26.8044
-19.0588
41.1384
23.5575
-5.73865
-45.8528
-49.4651
-0.396037
12.926
3.96897
50.0878
83.8319
70.561
17.1918
-125.824
-151.212
-118.299
-118.605
-114.575
14.0182
104.105
73.2994
45.1845
51.4664
83.2415
92.6807
59.0272
19.5722
73.2329
100.772
23.3807
-0.975796
3.19796
1.41265
-3.61253
-11.4588
-49.3461
36.5456
39.7727
-15.2283
-95.8086
-146.098
-124.639
-114.56
-79.9125
43.0624
56.0318
49.2416
37.5436
20.601
-45.4117
-124.8
-78.8347
16.6248
22.3251
59.2858
85.8161
39.4868
34.6626
-24.858
39.9102
84.2878
48.7628
23.0709
6.12852
-51.3537
-47.7642
-88.2411
-155.552
-68.6311
80.253
128.242
90.3879
38.7141
26.505
19.075
1.23361
-39.5939
52.3901
101.617
56.3079
51.5096
29.3062
-12.5154
-101.59
-256.622
-187.503
-76.4392
10.5349
19.7059
-7.18882
-2.31615
8.88963
-22.8119
-13.7869
30.243
137.963
144.801
60.8995
20.1591
-3.32327
-16.2831
-31.1073
-48.445
104.564
201.245
159.491
106.65
37.9698
-55.5458
-126.146
-182.044
-205.436
-116.066
-78.8205
-60.0458
-59.9292
-53.7031
-48.9379
-39.971
-86.1585
-9.3078
108.224
121.559
73.7087
91.3661
70.9245
43.0524
1.90609
-97.6614
-34.739
102.535
125.598
77.4871
45.5608
9.64577
-14.6055
-19.7704
6.08256
0.989136
-0.863027
-38.1042
-49.0307
18.9218
-15.3286
-78.6971
-52.4152
-30.5642
-25.8711
11.3776
-19.4555
-53.4892
-59.2651
-63.2447
0.139488
90.6084
67.9005
74.4447
53.7824
28.9364
5.88375
-94.5547
-126.758
-58.1779
-38.0597
68.9189
60.0489
16.6761
33.0106
97.6467
81.8586
29.982
44.3799
62.3614
2.61897
-89.7306
-155.691
-190.507
-173.835
-86.4517
58.9128
172.228
207.666
162.119
154.785
77.323
19.2845
9.28806
-18.2022
-93.2402
-36.3513
-30.6199
-56.8069
-59.0416
-54.6405
-80.0316
-52.0676
-41.3679
-13.9405
5.88202
47.1036
29.4099
-16.8295
-47.176
-66.2413
-34.3772
79.4981
99.8075
-1.36414
-61.9116
-105.724
-94.6894
-109.754
-150.725
-35.8992
91.9608
165.313
230.93
212.9
164.748
67.1793
33.5985
-46.2903
-132.979
-107.599
-124.295
-142.455
-59.655
83.2575
180.661
114.498
64.2608
54.9367
101.401
19.4642
-90.1027
-94.7267
-87.3536
-135.519
-118.633
-34.0523
22.0184
45.6487
54.0259
49.6739
50.588
-56.4573
-100.84
-56.5961
-33.9647
2.59438
4.5852
24.3183
59.419
28.6926
62.0041
104.351
54.5051
15.3038
-21.0591
-36.8204
-59.6702
-87.7918
-103.045
10.4438
73.4999
63.3513
24.208
-12.3619
28.6339
46.6054
3.62812
-51.9764
-55.7658
35.1835
41.1483
32.223
92.7772
132.859
18.4294
-138.912
-242.876
-185.29
-1.04812
12.7674
36.292
80.1004
90.8042
57.678
-13.611
-64.89
-3.60239
-23.8144
-109.825
-135.28
-84.909
-31.2185
-36.9468
4.41935
135.172
177.587
224.969
217.024
144.806
35.4731
-87.2554
-99.664
9.26874
-19.539
-47.6651
-38.2464
-44.2529
-16.6711
19.2951
-28.2096
28.508
16.8268
-34.2101
-68.8922
-72.0762
-47.0407
-1.19627
17.23
-54.0919
-13.7331
54.4706
-5.53508
-73.592
-58.0123
-84.2982
-115.571
-99.7124
16.1297
171.742
168.984
97.285
12.0941
-48.9705
-43.9431
-34.776
21.0166
68.3399
64.1188
71.0713
29.7802
19.9258
20.8094
-84.0395
-84.6922
26.3661
76.4276
74.7205
55.1242
2.28285
8.03865
-92.9967
-159.314
-78.7266
24.2192
73.3444
50.3084
25.973
55.9225
56.7544
0.0521569
-62.9069
22.0586
64.3606
-4.23138
-43.672
-54.4571
-85.1309
-113.414
-129.228
-70.9675
22.1878
108.141
119.427
54.0774
-38.1648
-100.512
-110.38
-128.541
9.28393
92.2101
144.199
106.799
57.1678
40.4565
-3.38791
-15.9924
30.642
48.1897
57.0461
71.2306
18.8013
-54.5624
-80.6159
-46.8818
6.02418
9.44348
-11.4922
-9.77736
-46.138
-37.5076
-32.6723
-82.6477
-17.5634
-11.2028
-9.1055
15.4541
7.65367
2.47139
-22.6233
-108.884
-12.3295
88.2557
115.19
62.7822
37.9215
49.7992
34.3482
16.8461
-61.5033
-105.584
-39.983
-25.9462
-55.8407
-13.0014
28.4133
69.3744
95.5065
20.4113
-13.8505
2.55712
6.7351
-25.3114
-58.027
-41.2992
2.75953
37.7605
3.86174
-37.843
104.285
150.848
67.5245
27.1894
25.7999
4.32329
-44.9106
-139.516
-154.512
-67.8553
-86.5636
-31.4868
5.91627
2.31337
1.92883
-5.15948
47.5479
76.8692
112.682
132.499
31.5648
-36.8139
-53.6917
-88.7153
-91.3011
-93.4037
-66.4773
-0.0612638
33.8982
44.7738
48.324
26.0783
-63.4572
-20.134
150.765
197.919
132.755
51.2291
13.9605
-9.77646
-100.672
-154.82
-46.9488
7.18165
-0.8879
12.9034
14.8846
-2.76288
-83.017
-81.7443
35.5513
34.6535
-35.3875
-79.0152
-130.998
-81.2801
-53.5112
4.2099
43.304
52.6912
58.608
76.2146
39.6144
22.0691
-69.0724
-53.427
56.5451
75.1248
128.265
125.772
33.932
23.5274
1.59185
-62.6707
-67.4052
-99.4646
-87.3315
-41.7345
30.9863
100.632
52.8597
-36.2123
-116.641
-60.3813
113.231
137.65
140.019
189.131
118.419
-23.1359
-154.061
-226.211
-194.258
-34.793
29.967
43.6275
16.3063
30.1671
-0.733768
-141.117
-172.972
-46.6577
10.1762
82.4998
75.9662
41.3162
-44.3765
-107.564
-120.548
