8.5652
-15.2975
-22.9837
-38.0521
-78.0201
-69.3785
-1.39709
44.7197
63.2422
36.4276
11.8368
6.48634
-13.5429
-39.5414
-43.8894
-18.4927
13.8468
10.3226
-17.7219
-28.3057
-5.09935
5.77315
8.57484
18.8703
46.4512
36.9298
5.46985
0.520991
-5.24452
-18.4952
-11.2582
-6.24641
6.81986
12.1345
18.3855
36.946
35.2696
6.83937
-17.3104
-25.5704
-27.4633
-15.0167
2.20368
18.2045
19.9609
16.816
7.97052
-17.2882
-28.1233
-21.1425
-21.3732
-15.6289
-8.60158
-10.8884
-10.1592
-26.9522
-42.6685
-23.6301
-1.98063
11.1575
15.343
29.5781
37.1873
36.3856
32.2156
24.9973
11.0987
9.84149
9.62356
5.91302
-13.8514
-22.579
-6.93768
-0.519047
-21.8835
-42.2723
-32.6263
2.4017
34.9772
20.3424
8.50694
4.92925
9.47807
14.979
1.85641
-13.077
-32.2593
-47.0807
-28.2802
8.71471
26.0725
20.1069
6.20265
14.7935
22.2024
20.8303
10.2543
-25.4622
-33.839
-12.5998
9.9851
10.7489
-10.482
-4.11133
38.2249
40.3052
19.1842
22.9274
4.39121
-26.2679
-34.3373
-20.9103
-11.022
-0.786004
0.859705
-7.4216
-16.0271
-6.22789
-5.9644
-7.93341
-16.0847
-17.8924
-11.107
-14.4039
-17.5064
-8.6528
19.1631
28.3747
26.0756
9.56539
3.36871
2.80407
6.8474
-4.27728
-13.3052
9.96794
45.8707
61.4274
43.9796
22.3934
12.22
-2.13968
-21.7175
-37.7289
-38.6956
-27.6957
-25.5598
-13.7712
-0.284194
10.2085
13.0529
11.3186
-5.70725
-7.33031
5.52021
-0.62055
-25.5576
-46.5386
-55.0015
-29.6234
-10.7603
5.18902
26.3936
36.563
27.0877
24.5505
15.2065
1.01094
4.08279
24.1492
27.9532
21.2687
-1.96122
-13.5286
8.77799
16.2124
1.67971
-15.1872
-12.8716
-12.551
-6.9779
3.40171
3.21449
-16.2852
-25.2587
-16.6658
-7.3928
-1.44826
1.1142
-11.7838
-23.427
-25.1083
-12.4511
10.7442
19.0608
25.0081
42.7139
45.5849
39.6567
21.3687
-9.10191
-20.4303
-25.5195
-19.431
-18.3915
-36.9567
-23.0218
64.9067
91.5382
42.249
-0.202061
-23.2566
-31.0202
-41.8076
-46.2947
-45.1394
-34.2235
-18.8331
-11.8538
-0.158759
13.1777
12.84
17.2408
25.237
29.2338
29.2766
5.23129
-58.6637
-69.468
-19.9672
20.2598
33.7173
30.7363
26.5892
17.6628
7.62684
4.77976
6.04771
6.66044
3.47457
6.89991
21.7805
12.1325
-8.4692
-8.91198
-12.1879
0.877771
7.63632
10.4874
8.79896
-12.2403
-19.4753
-27.5464
-18.3254
14.1967
28.2131
5.10349
-8.68832
-4.75605
-20.2716
-19.046
-14.7686
-1.26824
-5.31693
-13.3941
-3.93201
-2.10819
-16.8645
-32.5714
-1.90371
38.9946
41.4074
52.0062
36.7659
-8.90327
-24.5639
-20.712
-17.0174
-25.766
-15.9111
-7.20033
-2.16212
0.981001
14.1154
30.5356
26.6555
0.320022
-27.8713
-29.1628
10.6392
57.2514
57.6445
19.4003
-19.4989
-21.1742
-14.974
-13.6337
-17.1655
-26.0448
-45.8722
-48.489
-21.9053
24.3054
47.0611
43.4475
38.4981
33.4745
31.6857
21.2504
-16.5458
-63.5561
-82.2287
-60.5955
-14.6002
13.8708
21.4823
18.6943
18.8552
36.3619
47.7133
33.4585
24.7965
2.21109
-7.88165
-13.9036
-24.1137
-10.1975
7.52071
1.25478
-21.4398
-35.5307
-14.1633
3.45669
13.3588
14.1215
-12.5836
-6.00731
0.322918
-1.25885
20.5606
26.2063
1.7259
-18.4483
-29.4502
-25.2561
-9.36785
1.96632
4.65857
6.30574
3.85641
15.9549
-2.31535
-24.109
-26.2491
-19.8173
-1.34976
12.6005
25.8728
7.49555
-9.58987
-5.8442
-3.06346
7.13126
30.5775
61.9551
78.1652
48.3015
10.4066
-15.1085
-28.2936
-36.3765
-25.6444
-9.45141
-1.23695
-13.5838
-20.8182
-35.4786
-44.9031
-18.0492
5.31013
9.34329
-0.607242
-6.96017
-7.97615
-24.0353
-35.7824
-23.1471
4.38324
27.9064
37.3437
47.1849
53.8895
45.4234
21.3063
-11.0831
-21.5695
-2.78975
12.2472
12.2861
6.28218
9.59738
1.64204
-6.03579
-7.3365
-15.7267
-25.7745
-30.4008
-18.6566
11.5436
14.4784
-10.8426
-14.1197
-14.6406
-20.5103
-6.53583
13.3126
16.1437
13.8804
27.8473
24.5723
8.99081
-6.55354
-10.4576
-9.57269
-7.13441
-1.33127
-1.00755
-14.1513
-14.1062
-10.8837
-11.3683
-6.84074
6.52181
8.56408
-5.27103
-9.15261
-12.591
-42.3055
-41.5321
-6.22388
8.3631
22.9464
13.6604
-3.60568
9.29786
45.5512
95.5509
86.3044
30.1252
7.15265
-4.64035
-21.3528
-26.3227
-23.0241
-6.96762
-1.39418
-9.72919
2.60148
3.34715
-24.9685
-26.62
-11.8726
3.9439
5.53415
-9.86656
-22.4923
-40.4618
-40.9314
-28.5434
-38.2875
-17.6954
14.679
32.4206
36.6707
27.3628
15.1647
13.976
21.7431
18.5043
24.3222
40.4903
40.1319
8.01583
-27.83
-41.6871
-38.0998
-23.6569
-18.2205
-7.54482
7.64999
13.4189
9.18529
5.02058
10.1018
7.87341
-8.94357
-15.5716
-5.07924
-2.57797
-6.34281
-13.9763
-8.88081
14.2524
23.3507
23.1652
8.4617
-20.7616
-20.0965
2.2224
15.4969
23.415
22.1682
6.53646
-9.60343
-14.4025
2.61346
13.4395
7.89228
-5.04066
-16.3549
-22.5089
-45.0723
-58.8049
-24.4761
-2.50558
-0.673559
22.802
58.2594
72.0816
57.8006
21.1341
-7.1207
-18.1978
-22.7616
-24.1979
-15.1441
-17.538
-21.5631
-18.9042
-10.1712
0.517824
13.4774
19.6877
22.4884
23.4675
0.930266
-17.9124
-36.2368
-48.6798
-34.7829
-16.9578
-6.42064
10.9638
10.5768
4.08591
12.7515
29.2893
33.5161
20.0704
3.73608
0.375411
13.2198
35.9353
20.2327
-0.652671
7.31791
11.8628
5.53615
-18.3293
-24.511
-10.2078
-3.52322
-9.67651
12.787
38.0524
25.6884
-2.23767
-34.7216
-57.3455
-26.6598
-4.66177
-4.49658
-10.6768
-5.90581
-5.50845
-7.16758
-5.11147
14.86
46.2068
52.5717
10.4448
-18.1657
-21.9812
-24.4022
-27.1898
-18.3995
-12.9033
-4.10708
8.02383
1.98809
-1.05497
0.576605
1.9816
17.8502
22.6375
29.3653
14.6872
-12.6237
-25.3036
-38.6556
-28.4263
6.09539
4.81812
4.2759
7.53112
13.0877
11.5935
4.62032
10.7494
13.7202
11.8525
12.5018
12.2315
8.806
11.5647
1.82362
2.28273
6.18297
-9.1798
-11.8774
-5.09659
-12.011
-15.2933
-7.68573
3.47168
4.81757
16.6245
39.3781
35.7842
2.28042
-29.5204
-43.3123
-38.2284
-35.3075
-29.6514
-12.4871
-4.12561
-5.34941
-5.44715
0.198286
13.4362
12.0588
14.8544
14.4526
-8.53966
-50.7191
-47.8571
-20.4328
30.0276
84.3106
97.9009
73.7774
49.9172
13.3893
-27.0148
-52.6271
-52.5478
-31.7338
-16.1631
-4.95744
-0.602923
-13.3265
-25.8945
-22.6498
1.73325
20.7057
18.4103
6.05049
-4.91752
-15.0254
-22.9604
-21.3818
-16.6128
5.67463
26.8012
34.2255
29.3678
20.5028
11.8186
7.78334
15.1803
18.1463
21.0533
8.82765
5.12255
12.925
-1.665
-22.1437
-33.7139
-46.5642
-40.3413
-21.5007
-4.25174
21.4974
20.0978
1.36682
-8.14438
-24.72
-48.8124
-64.5195
-23.2767
41.3028
76.2712
65.8976
27.1161
14.0899
8.29282
10.8409
-3.37518
-22.9655
-22.705
0.706229
4.56301
-15.505
-21.5534
-16.8959
-5.26181
-2.71937
7.52114
20.5592
9.17872
-14.5415
-30.1566
-8.11357
31.979
35.6057
19.3343
-0.34447
-2.29187
-6.18548
-16.8072
-20.5002
-25.7063
-13.4144
4.16801
12.7269
16.2886
16.1818
20.8584
23.3513
5.25655
-5.06489
-13.6227
-26.0862
-28.7327
-26.068
-16.5375
-1.23904
8.0051
10.1617
10.6837
19.0061
20.439
17.8568
6.91024
-4.89091
-6.68688
-4.92229
2.40211
3.9653
4.00552
-0.273456
15.6836
28.4503
24.1478
26.461
26.2201
-8.64187
-51.2993
-55.2935
-26.3637
-10.617
-9.46618
-8.23885
-4.51969
-0.148791
-10.2959
-14.6749
-0.104499
-5.63598
-14.3248
-6.45248
-9.16625
-10.4613
22.8747
43.5668
24.0263
20.3881
18.437
21.6604
12.4289
-0.554412
-7.07703
-17.0155
-17.0575
-5.48872
8.21398
-2.08828
-6.49455
7.21877
12.4702
9.18817
3.59906
-13.8348
-41.2197
-43.7842
-23.5756
-4.76237
22.6213
26.0892
13.2371
2.49293
7.70404
13.3657
17.2341
6.46623
2.08101
11.9847
18.4146
20.3112
8.25358
-6.73505
-14.5626
-23.5842
-36.7529
-41.7741
-21.1257
-0.825879
8.19764
16.4478
9.67789
-4.27287
-1.66645
0.405861
-2.88759
4.37258
10.8389
23.637
13.5401
-5.55817
-14.7081
-25.5087
-22.6294
-4.08708
8.26962
24.6662
47.4287
39.9599
15.7556
-7.61303
-13.4208
-8.73425
-12.8284
-14.2749
-1.53584
4.32529
-11.9555
-24.7262
-17.0188
1.52638
15.4966
21.3314
17.9354
5.99798
-11.7566
-24.8391
-45.2118
-29.5986
-5.43595
0.940842
4.08914
4.90472
1.67716
3.34213
8.17959
8.27372
27.2085
64.6312
81.2627
45.5696
-15.7995
-58.5046
-48.9543
-23.6427
-12.9469
-10.9407
-9.87091
-6.15099
-0.850782
-20.116
-15.9822
9.33148
23.4229
16.7357
-0.223531
-13.146
-15.1014
-21.7305
-35.7368
-12.6263
28.1778
48.6219
35.088
20.7387
10.6663
1.53272
0.100769
-15.7165
-26.1203
-5.94009
12.1547
13.7432
24.5226
37.2513
32.9892
-2.22653
-14.2516
-5.13571
-12.7436
-17.0916
-24.623
-19.7693
-21.5383
-33.1587
-30.7469
-19.6936
-9.92138
10.7431
23.4341
28.2266
16.6445
-8.48681
-27.0863
-28.4861
-16.4404
8.06065
8.28624
3.75353
14.3197
8.09289
-1.58949
-1.47124
-1.30052
8.74898
18.188
27.3312
62.426
77.7835
45.7068
-1.67834
-23.6933
-27.3275
-24.8888
-15.989
-8.1863
-4.05275
-10.8098
-34.96
-37.9028
-19.724
6.62135
18.7242
16.3385
10.022
11.1752
-14.7153
-62.5804
-94.5937
-67.506
-6.22807
25.1337
22.2691
20.4009
23.3364
14.5043
29.3756
40.9658
43.6437
48.866
43.6267
28.9209
13.4516
-7.43624
-5.32717
-13.3723
-16.2089
-13.7031
-6.11969
-2.17514
-8.28737
-15.7982
-3.28609
2.97297
-7.63898
-10.8405
-14.57
-22.4085
-25.7959
-34.7757
-29.4754
-12.2832
-1.98904
16.1857
16.3428
9.30527
16.6569
24.0416
21.0124
1.28969
-4.63777
-5.85985
-6.26585
-10.9368
-14.78
-9.5226
6.46498
18.7693
22.8181
11.1524
-0.525929
-4.11964
-4.51353
-2.70944
1.2892
-4.11416
-2.33414
3.32955
6.30713
5.63266
3.34511
9.07895
4.20882
-30.2955
-15.9922
44.7217
58.6734
35.2059
0.215753
-8.47138
1.7152
-6.45956
-19.8313
-24.2953
-32.1942
-24.5193
-25.5536
-41.9067
-23.8141
8.13041
13.7892
-8.27163
-4.02806
17.5352
13.2566
-16.9978
-26.5385
-5.90872
27.8951
31.4353
14.393
7.49463
10.2
13.3515
14.8713
7.74702
9.12507
20.8852
21.4814
10.3167
-3.2031
-1.95454
-8.1259
6.46305
10.1744
-6.79032
-22.5767
-30.7345
-36.3481
-31.4747
-21.3039
-7.24506
3.70007
6.98223
10.6389
4.46055
3.53714
2.8989
-11.3829
-11.6915
-4.18328
4.04313
15.4938
22.558
44.856
57.5591
26.6637
-5.45684
-22.503
-24.2299
-22.0296
-7.42261
-4.22164
-16.1521
-25.0452
-24.6253
-27.6128
-22.6345
4.69264
19.8777
23.4492
9.11462
-8.11695
-7.32179
-18.9623
-27.3358
-2.53143
33.894
51.8588
35.605
10.3794
-3.80216
0.0826763
6.7607
9.09303
16.4492
16.7268
18.6237
-4.02174
-23.6408
-39.8569
-28.8242
13.7351
31.2045
14.2612
-9.98206
-16.2897
-37.0839
-76.5195
-50.963
15.889
25.1429
5.11521
-3.74202
10.991
24.9545
18.5946
3.88962
9.03985
21.3188
33.3225
48.1827
26.8591
-6.0456
-37.2357
-42.2016
-31.5264
-8.4201
19.1168
22.4033
33.6204
50.7291
26.9542
-13.8525
-45.4279
-54.6823
-39.1134
-24.8428
-8.05889
20.0165
40.6142
11.3413
-28.1669
-15.4634
17.438
32.1693
31.1351
1.4261
-87.9689
-103.01
-37.3469
-17.2141
11.5539
39.3597
41.6867
14.4029
-1.53831
3.39644
9.70766
1.01022
-10.5484
4.61228
23.5662
25.7529
18.1025
5.9041
6.11413
3.93145
39.4388
52.5755
7.09591
-10.1623
-7.50784
4.16194
-0.211608
10.2501
19.1664
13.1986
-11.4693
-43.7502
-61.6295
-45.4812
-8.16755
6.66231
-5.89024
9.87297
36.8778
57.9113
64.9557
28.9894
-32.8542
-53.1699
-49.9188
-59.398
-55.8928
-28.8155
-3.81544
-2.92094
-1.73137
27.3938
58.4042
29.5022
-17.282
-40.2136
-34.0372
-44.4545
-45.2371
-22.7642
14.0745
28.7808
22.8162
31.1421
33.6122
42.4431
47.3171
34.2071
26.0057
28.7103
16.2053
-10.7059
-31.5895
-22.4395
-4.33138
1.46684
15.8012
24.1399
14.661
2.7218
-1.20882
1.19773
-5.46724
-11.2484
-20.1314
-35.3071
-37.145
2.92705
-4.30685
-30.3092
-32.635
-12.2386
0.906564
11.6845
25.0386
17.0513
8.29731
7.68966
-4.64949
-16.6279
-11.9553
6.06914
12.2249
-7.94358
-9.18534
9.69205
1.54176
-21.6242
-1.70379
25.2824
33.0477
31.3447
42.7631
45.4867
11.6242
-6.26973
-13.2503
-26.3713
-27.9207
-22.3191
-26.8661
-32.7973
-30.8596
-17.8371
-12.7823
-0.159771
25.7129
27.5777
13.1352
-8.89605
-11.6529
-15.9821
-27.4561
-43.5084
-33.427
-13.5701
3.59068
21.2147
32.2525
31.511
57.8816
62.6694
38.4176
21.34
10.7273
4.95372
5.93166
-9.17105
-19.3239
-14.0172
-6.85614
-11.1487
-22.7463
-15.4733
-0.0798837
-8.83761
-6.13582
2.42638
-4.45405
-11.3614
-16.1295
-14.9572
2.46715
12.4627
8.62813
5.5578
0.700524
0.668627
3.845
6.47379
2.80138
0.0326064
-4.41553
-15.3813
-5.38634
15.526
22.6672
15.9112
6.70834
-1.9919
-22.8752
-61.7998
-68.9537
-41.6569
-20.4833
15.1205
49.0751
86.8046
77.4807
39.2433
3.41675
-20.446
-15.9434
-11.522
-12.2712
-3.2877
-7.1597
-23.3842
-25.405
-11.9192
-1.0945
21.9854
42.6133
45.2546
42.6922
5.41115
-35.6
-64.8442
-61.0631
-33.4133
-10.1028
8.14248
14.4879
13.2436
-2.84186
-11.4119
5.2758
12.416
15.9416
10.2044
-5.47832
-0.61252
6.22347
11.4547
7.0445
17.6591
33.3732
27.5283
0.0967354
-13.8999
-17.9962
-14.3175
-18.665
-14.8916
-4.20943
-1.00072
-7.04467
-9.82987
-9.36586
3.92746
9.39532
8.4246
-0.912229
-6.23693
-5.23043
-7.36289
-11.3732
-16.2626
-12.2856
-0.0688818
13.64
16.7965
14.2591
16.1633
20.7892
8.81959
-9.43001
3.6436
14.6746
12.9083
18.1141
16.0294
5.78787
-4.43379
-7.48114
-9.62844
-20.7993
-19.1851
-6.58609
-0.497793
-3.22472
-1.84625
-1.90314
1.98384
0.0580197
-7.263
-19.2954
-23.7546
-21.8692
-18.1246
-3.40291
2.26205
-0.0623289
3.10195
17.9044
50.0185
68.3831
39.9556
4.66143
-26.5306
-40.609
-28.2361
-10.2534
-5.10625
-21.8444
-39.6595
-9.3823
20.9143
19.7949
14.8382
12.4388
6.09525
8.09503
0.772661
-4.95131
-18.1788
-26.4252
-22.4308
-3.7906
18.5986
25.6356
4.69697
-5.802
11.7888
29.7532
28.6415
26.8997
10.7336
-3.52522
-1.75098
8.10536
15.2563
16.7045
8.34561
-5.34307
-18.4861
-27.0946
-27.0878
-22.8096
-20.707
-15.1462
-5.07892
0.855224
-13.4846
-16.6351
0.248712
-10.5698
-16.1861
-10.474
-12.9581
-15.6858
-14.9455
-6.03304
11.1517
20.5075
6.02046
-0.543514
12.5357
35.3821
24.7002
19.9616
12.8203
-5.34186
-1.88267
7.62407
22.9529
32.0248
28.7366
48.1649
54.9135
17.9773
-7.61199
-26.5382
-21.7858
-19.4631
-28.6456
-30.8934
-23.3137
-25.0503
-27.0115
-35.3372
-29.144
-4.45974
0.0140881
-10.8589
-3.39745
-5.35693
-5.21994
-10.9506
-8.65683
8.75602
28.5898
6.98283
-20.4472
-26.126
-20.7602
-6.49508
17.8332
39.1048
41.2484
49.01
56.3835
18.5069
-11.3589
17.4708
25.4277
8.932
-4.98057
-17.9495
-18.7774
-23.6125
-22.5004
-6.74191
-1.7874
-1.08377
2.44398
-5.46972
-10.6822
-20.2216
-9.03101
-1.8119
-5.8344
12.3445
22.837
6.14092
-6.44073
-21.1541
-19.0472
-15.5041
-15.9786
1.46253
20.7695
22.0013
11.7779
14.0741
14.6526
14.7378
-1.15195
-11.9923
-8.91291
-13.0231
-20.7426
-18.7776
-20.9275
-18.9508
-10.074
5.41652
16.9949
47.1754
65.4356
34.8983
2.05929
-1.7297
-2.29439
-6.42094
-4.49522
-13.3618
-24.7039
-35.1715
-26.1684
-3.74356
5.83515
7.85122
11.9943
9.03714
12.8888
10.3065
-16.892
-65.9632
-76.1468
-29.7411
3.58123
14.7299
38.1352
63.0947
55.2265
26.3981
12.1618
12.5125
19.1622
17.9677
13.0639
9.09893
8.31343
-10.8504
-27.1503
-28.9335
-16.6807
8.30704
9.88189
-10.0702
-22.6526
-33.4633
-56.842
-62.966
-16.675
13.6313
21.5431
26.1758
25.7261
18.4903
7.8924
1.40013
-3.56909
1.00116
8.38111
18.7444
28.6599
9.66732
-10.3206
-10.0496
-6.03008
10.0616
19.2031
6.64225
-15.5677
-23.1034
-27.5592
-30.2695
-29.7444
-8.86473
16.2038
30.9643
41.7907
50.6174
53.8619
26.5886
-0.788789
-9.43766
-18.1318
-22.9707
-18.2896
-12.3736
-17.3837
-21.0883
-28.4406
-27.7437
-19.054
-5.42103
2.5494
-1.90438
-5.32043
-15.9052
-19.8039
-24.4918
-34.023
-17.2361
-1.68686
17.0891
44.1512
60.8894
65.1958
60.464
47.8952
41.0926
27.555
15.7925
0.828181
-23.5981
-48.6099
-53.3514
-38.2164
-17.8837
-17.2902
-18.3209
-1.4508
15.6736
25.2245
19.1191
4.43193
-26.5234
-66.1447
-44.8267
7.94694
13.0167
16.1402
20.1274
24.3031
28.974
32.6258
22.027
-4.12715
-16.1358
-14.6072
-13.0508
-15.5702
-14.0016
-12.1492
-9.30638
-8.3451
-1.26815
10.2773
4.41677
-12.6767
-18.0857
-17.641
-1.71765
4.7954
8.72227
15.5513
36.0317
59.9477
61.2885
26.5739
-4.11386
-15.5321
-21.51
-29.094
-30.5579
-42.3318
-21.5446
12.4281
11.3072
-11.5655
-16.3639
-9.49965
-2.55759
-4.12209
-3.84768
8.30006
21.8269
-0.647524
-21.1592
-7.85968
8.4303
-0.471129
6.28025
15.6571
12.2106
16.681
10.5049
3.2583
-1.82552
11.1785
-3.87108
-18.6698
-13.4487
3.24629
7.72903
2.10373
-9.91039
-9.01229
2.95214
13.347
-4.99447
-33.9106
-45.7032
4.83763
42.267
43.804
32.4295
21.8843
5.82806
-9.69719
-3.44322
1.39927
-3.21445
-4.05081
-0.692502
-7.8421
-21.5029
-27.0572
-16.8618
-6.48306
10.7623
24.0575
21.439
5.75395
1.06193
0.684549
-4.99215
-20.3514
-27.1637
-19.4794
-0.835898
14.9621
12.2466
-5.16434
-5.09683
-12.1176
-24.9311
-18.5274
-18.3137
-13.8721
7.15051
31.3562
60.8379
62.9316
19.2141
-9.16407
-14.0666
-11.1081
-8.7531
-2.82095
-4.67225
-17.2771
-20.6048
-10.0323
0.238392
14.5623
29.7474
35.3167
15.0508
-20.4712
-54.7857
-26.9376
-9.02524
-25.6981
-23.2942
-4.84074
-2.88693
13.3411
24.9386
24.4065
23.0172
18.5352
17.0359
19.9265
4.1671
-4.29244
-7.34058
-13.0785
-5.46184
6.5163
13.2293
2.01564
-8.21694
-17.0981
-12.9649
2.11781
12.0879
6.49303
1.435
2.74105
5.71318
7.09025
8.86618
10.6903
13.9354
1.43939
-17.5424
-29.7499
-47.8868
-48.0394
2.54709
13.5339
2.27635
7.1251
12.5627
5.72507
-12.1433
-19.7811
-10.9561
-14.449
-6.98445
4.96779
28.9583
60.0661
53.4858
32.3948
11.6575
-9.30693
0.300893
13.2678
-11.6922
-28.4626
-32.8275
-30.8755
-17.2677
-12.9493
-6.81946
2.6413
-14.8463
-15.5662
4.0537
18.0161
11.7037
-2.06607
-1.12147
10.4035
5.32586
-8.06177
-11.3608
-1.90764
1.60519
4.21898
10.9561
3.62498
-8.53469
-0.197935
14.7507
15.0989
16.2
12.7054
2.99775
-7.00284
-15.7023
-13.0699
-3.76936
-4.45491
-0.275661
15.0479
26.9065
26.5007
8.7399
4.1087
-1.35604
-5.4315
-8.32456
-13.4853
-4.25263
0.920087
1.38796
-7.87946
-8.32072
-4.45216
-10.1893
-21.0778
-23.9348
-16.9856
-11.9545
-8.39527
3.03635
5.94015
11.1303
7.66402
1.07026
5.88746
11.4445
6.46133
-2.80941
3.64441
18.5085
33.802
22.0142
-2.36152
-26.2358
-57.0417
-52.5015
-11.202
8.02846
12.9714
8.85591
3.84749
18.9788
48.0719
67.1009
58.0724
11.6443
-15.2903
-19.3347
-23.3054
-21.9548
-19.47
-13.824
-7.98492
-5.61407
-0.784628
-8.51113
-19.973
-1.21792
-1.06673
-0.247714
-8.00977
-21.7373
-32.6596
-32.5609
-18.2842
17.7982
21.9706
18.3928
17.1322
14.9525
13.0303
11.3241
17.1422
20.1276
13.5299
17.1691
6.01516
-9.46023
-7.19909
-7.92969
-4.85263
-1.86523
-5.65858
-12.879
-7.1413
-4.51305
6.51916
10.9641
7.37908
-3.84603
-9.63647
-0.768067
0.155985
-8.35772
5.18929
10.4801
0.865575
-9.92278
-19.9217
-44.9165
-46.9125
0.411645
16.423
4.78815
11.4095
53.3834
75.0204
42.7751
8.95658
-3.49566
-16.474
-25.6425
-24.1916
-14.7896
-10.3909
-11.9858
-10.0411
-4.1564
-6.59803
9.29004
19.9751
-3.02699
-23.3158
-19.9232
-25.2867
-29.378
-19.0229
7.03381
32.9187
42.9586
33.3361
24.0304
15.3236
6.60771
-6.538
-20.9564
-22.1007
-18.2445
14.1396
25.8085
25.1728
7.18034
-20.4998
-52.7316
-45.5414
-30.9391
-16.928
5.7909
11.6697
9.20016
16.0047
12.1579
13.6544
10.3848
4.91767
4.03895
13.6099
28.624
37.1064
43.6488
32.5849
11.8045
12.6234
20.2255
5.47423
-11.963
-32.5529
-47.2521
-49.4572
-40.417
-29.0681
-22.3928
-12.5403
0.549406
6.81749
8.10946
-9.54495
-23.9043
-30.034
-26.7356
-16.2654
-1.46655
20.2761
63.9505
85.538
47.1306
19.7818
2.14845
-11.2265
-23.3207
-43.4322
-46.8669
-9.2177
6.97874
6.20381
10.4741
13.6871
12.6305
-5.98407
-13.0185
0.458597
11.2401
-3.385
-13.5567
-9.3838
15.5936
20.9028
9.35658
3.56699
6.83961
8.52865
12.2355
-9.99638
-14.5689
-0.465076
2.31929
5.51789
3.83153
1.39691
6.74388
-1.10079
-12.3516
-8.75993
-10.1508
-14.7003
-17.6848
-29.0782
-6.73839
8.98168
13.5432
27.4368
16.2608
-15.1018
-23.5117
-16.7162
-16.3847
3.45772
20.3552
18.5871
5.19856
6.93474
21.0365
31.7009
9.75778
-11.3831
-18.3356
-2.21161
8.67391
14.4801
13.9489
9.08829
3.98915
3.87335
3.73719
-7.09488
-5.58825
-9.02511
-17.9568
-17.6341
-6.97931
-20.2801
-30.5798
-31.4469
-20.8047
-3.78381
8.32219
13.9215
0.895945
-13.0544
10.1397
43.4972
63.2265
47.636
19.7106
4.71569
-8.166
-44.9307
-82.6992
-52.796
-4.58114
10.4144
10.4667
11.1359
21.9135
27.1633
15.9552
7.43213
-2.08977
-6.7644
-15.2064
-18.9641
-20.0108
-10.0204
-11.9644
-1.18712
14.9864
32.017
49.1227
41.9517
17.0822
7.94334
-7.39181
-24.2358
-45.7532
-50.7108
-25.142
-4.30459
10.5025
12.9658
6.16969
11.5729
18.9728
31.1713
38.1891
16.4996
-5.96079
-12.8162
2.63682
2.5204
-9.64974
-10.2682
-6.37649
2.73414
10.6015
1.51079
-20.7948
-24.2386
-30.238
-23.4486
-14.9058
-16.2029
-16.4588
-6.85048
34.9313
67.49
53.7684
23.5206
5.16996
-10.7225
-18.2282
-24.4728
-21.9779
-12.04
-12.3844
-23.5378
-23.8461
-15.069
-4.72556
-1.2606
-8.24999
-14.2915
8.60029
30.5227
-0.376528
-21.177
-4.32979
17.0247
17.9146
10.7441
5.1504
9.12155
25.6975
31.4762
18.8447
11.7347
11.086
10.582
14.1627
12.729
1.35996
-1.28851
-15.9697
-27.8687
-25.5597
-22.7425
-16.3392
-9.46476
-10.7976
-5.99304
4.28271
8.54822
1.9528
-4.93544
-0.926008
8.46715
16.7041
9.6391
-0.722912
-2.83572
3.952
6.39642
-4.06539
-13.4616
-11.6615
-11.4069
-12.9166
0.930338
14.3352
18.3275
9.12415
6.32713
11.9875
-8.20376
-17.3468
-29.0307
-34.0792
-14.5061
8.13002
8.49565
-0.304952
-6.44636
-12.7787
0.901243
23.0003
44.2621
72.2534
66.4422
25.6629
-15.6963
-36.8239
-31.4958
-29.9137
-29.9089
-15.2335
-1.40468
-0.437296
-5.64708
-4.80342
0.871427
2.05247
-0.664515
1.54626
-3.7216
-7.88833
-15.881
-30.6618
-30.7884
-11.057
10.1885
19.6541
13.2357
8.83832
21.546
21.0349
18.1411
20.2406
7.41928
4.99756
16.1286
10.1299
-5.36823
-9.05561
2.74336
18.3389
8.35898
-14.8597
-8.62048
-1.90347
-5.92409
-7.03275
-1.21222
21.067
15.9572
1.73318
-12.83
-26.6438
-51.961
-65.7853
-28.097
-6.37751
-2.26709
8.71257
6.43033
-1.25578
8.42661
44.5552
59.7767
40.0624
11.8795
-14.56
-38.8808
-41.1712
-20.9581
-3.98131
10.6512
21.1145
32.8913
36.3804
4.45449
-1.74767
13.6396
25.9609
14.8048
-9.81525
-20.5972
-32.7879
-62.0427
-56.2346
-20.4382
17.7632
34.6506
26.2462
16.8562
17.0751
6.40688
-2.72666
13.4204
20.7711
12.632
16.5925
10.2251
-16.62
-21.854
-21.2089
-27.1556
-27.1149
-18.7887
-1.22762
9.97379
21.8802
16.1978
-0.96226
-14.8745
-16.6406
-5.16538
6.29648
5.56583
-7.34184
-7.87301
-6.56992
0.850392
9.44852
7.63008
25.8814
43.0797
22.2234
-4.08038
-14.3877
1.38227
5.72676
-6.86411
-10.3212
-6.60563
-4.0328
-2.37218
-9.58311
0.667154
5.55123
-3.2995
-4.40122
-3.51668
-8.69272
-19.9581
-22.1567
-30.2211
-37.3161
-20.1063
5.9022
-0.565626
-7.74971
28.4461
62.5139
64.8065
18.3703
11.6512
24.3451
8.94759
2.64227
5.98661
4.01869
4.26142
-3.92723
-5.81682
-7.48877
-8.91001
-15.7708
-35.5295
-43.5961
-21.8085
-1.74537
-7.73662
-24.0769
-20.742
5.48796
7.76929
4.56197
8.52807
22.7091
35.3002
20.4748
-4.47348
-5.97612
4.19869
1.0732
0.711202
7.10484
22.426
28.6511
8.58252
-6.60771
-5.33314
-16.8369
-28.6675
-15.2715
-1.32042
8.85709
4.37541
9.14208
13.962
10.216
-7.2657
-5.82539
-7.36385
-13.1995
-10.8283
-2.25217
0.944532
-1.28954
-14.3352
-32.8146
-32.2376
-16.2638
0.154629
9.35706
29.4725
54.5646
53.2095
14.3098
-18.6973
-20.2662
-10.4534
-16.4597
-11.2688
-4.56795
0.312545
1.2336
0.279532
1.41266
12.8393
17.2396
5.11839
-3.40855
-4.90162
-2.40008
-13.7016
-30.9109
-17.2374
1.60926
9.66932
13.2555
19.2667
17.396
-2.79118
-30.5955
-17.3773
20.8461
31.5282
24.5833
12.6678
3.79175
6.42329
11.5701
14.6683
0.536778
-20.9583
-40.1519
-34.2641
-10.9668
0.503698
5.00988
11.9051
5.98897
4.92614
20.1711
10.8558
-9.43175
-10.3854
-7.31704
-11.5108
-10.3941
-15.5193
-6.3882
19.0624
37.2938
26.403
3.92099
-12.6758
-17.7025
-16.221
-28.3343
-19.9395
-2.33012
12.1739
11.3693
1.97778
-6.01071
-5.96843
-3.78156
-14.9411
-16.9906
4.46585
-1.3994
-16.8623
-15.5093
17.5407
67.0599
70.8473
27.8666
0.28547
1.7956
-1.96726
-9.037
-14.5714
-5.60339
-8.76086
-17.3067
-13.2818
-10.0326
8.87874
22.2382
10.4472
-1.95449
-25.419
-37.4436
-45.688
-52.9495
-38.2149
-8.56732
4.81196
21.2613
34.5531
43.0672
42.6737
35.2469
29.0459
18.913
-10.5062
-41.0434
-6.41986
33.5258
18.7052
9.80209
5.28616
1.44188
-5.03533
-13.6776
-11.7224
-10.94
-13.3794
-7.11887
-5.21877
-4.68491
-0.991007
-0.328724
-1.73636
-21.5632
-33.4504
-13.7149
3.92712
6.81656
11.9173
8.30532
4.78986
-0.904697
-2.76528
-6.80683
-3.8032
15.9973
37.4539
28.1611
6.09221
-4.38401
-8.09757
-24.1626
-26.8441
-9.6161
21.4932
11.5603
-16.9938
-33.1368
-13.5901
2.50798
14.4899
47.3634
90.8632
75.0711
19.3029
-22.2688
-42.7069
-45.8988
-37.9266
-42.3557
-37.3066
-19.441
-7.87715
2.10904
8.78918
24.2206
15.7582
-0.0348003
-4.19824
-11.7402
-16.0507
-28.3921
-47.4741
-30.2157
-4.21603
4.05553
1.70569
7.217
20.9251
33.4388
38.4657
46.1019
39.9685
33.7226
32.4096
25.1911
15.0572
7.51419
0.402082
-4.42903
-6.67176
-30.7444
-71.7235
-44.9322
10.1164
21.6388
20.3969
20.3335
11.8756
5.56049
-6.37571
-13.1453
-9.46858
-20.2606
-37.4272
-29.7237
-13.8761
-5.7313
-12.1427
-11.3931
3.17782
8.90006
13.2268
-2.49322
-15.8204
-4.51089
5.42634
-5.76179
-5.72722
1.06092
8.69781
13.951
19.6673
26.0241
31.4011
23.2974
15.5115
5.83604
-2.92756
-5.63993
-15.5596
-13.2264
-5.24326
-2.95242
1.12778
-9.38255
-14.9973
-4.63559
-7.916
-11.019
0.170371
25.8911
40.6815
28.9624
24.5504
24.215
-0.577479
-26.2759
-24.6911
-31.012
-33.8233
-24.891
-15.854
-14.5265
-12.565
1.24925
6.59729
14.1088
16.7848
4.53289
1.05158
-8.60281
-17.5846
-12.3222
-16.5404
-12.7472
-11.8574
-1.36757
17.3799
33.0188
34.7752
31.8286
33.0396
22.7973
-5.2317
-12.2983
-0.806299
2.71022
7.99001
6.66951
-1.49825
5.03486
-2.80606
-11.5782
-10.5673
-13.6642
-8.60877
3.23092
3.28269
10.1191
16.0285
6.90414
-0.32831
-14.0483
-27.0666
-50.0252
-48.3683
-24.3031
-27.4032
-12.1995
5.4266
10.5315
39.611
70.3065
57.9756
26.2869
15.3048
3.94891
-12.7299
-19.6004
-21.0201
-21.0296
-23.2113
-13.4621
-1.98724
6.66931
-5.9111
-12.1865
5.01704
17.9673
18.969
13.4314
6.22243
-9.86511
-26.6926
-29.6714
-26.2473
-20.1616
-5.13285
18.2584
34.2134
35.8071
16.0464
10.9441
13.3836
20.5666
16.3873
-5.86697
-8.54201
-2.06251
-15.2149
-20.1091
-32.9226
-33.6102
-12.8372
3.08519
14.7755
16.2878
9.18628
-8.9679
-7.12569
-0.985082
9.29013
11.8191
17.1091
26.2146
28.8995
12.1911
-0.184959
-4.03826
-1.17071
-12.8146
-23.5248
-28.6927
-8.41191
6.36733
0.984056
3.71978
1.03975
-4.27793
-13.435
-15.4839
6.22692
1.53454
-7.38575
-2.16456
8.90475
23.1004
23.5993
11.4787
-1.04672
-24.4873
-45.3635
-32.6437
-9.49991
8.62078
9.16194
-7.78037
-25.3869
-44.5008
-26.2437
21.7566
37.4759
73.7339
88.1741
57.9011
25.3859
2.96133
-8.97813
-14.0053
-19.7889
-12.5651
-1.18568
2.39033
-15.0438
-29.7929
-32.6485
-20.6441
-4.25557
10.7702
8.33132
-8.1101
-5.03557
-6.2709
-24.1238
-23.9623
-17.3167
-20.4739
-15.8708
-6.2044
3.89077
9.59151
15.2619
19.6776
25.3218
10.0495
13.5994
22.0264
22.3936
29.43
18.9891
-0.160007
-18.2128
-48.1416
-42.8958
-18.2838
6.41414
19.7928
11.601
11.5296
18.4216
14.6798
17.843
13.817
3.48976
5.06482
5.40756
4.00416
14.5003
5.1492
-11.2141
-29.545
-36.4082
-25.9628
-16.7017
-11.947
-7.12484
8.11537
23.5582
12.6736
-4.54446
-5.27057
-3.09209
-3.17412
-3.9126
2.33773
-2.67407
-9.94084
-17.3385
-22.5589
-16.8042
-9.63604
16.9192
57.8712
65.3816
43.0869
15.8499
-13.1327
-26.7018
-35.5085
-45.2234
-37.4299
-15.7065
3.46363
-1.48673
-3.35764
11.6996
16.6181
16.0071
23.889
6.55416
-4.48129
18.7926
6.15662
-12.5033
-11.8602
-9.73344
5.57096
15.5815
18.8574
20.5413
15.9718
4.10049
-16.8481
-22.0114
-8.84554
-1.40002
-2.32336
-4.67845
4.42344
18.0711
14.9373
-28.6978
-48.1742
-43.4154
-32.2407
-15.5633
0.64419
15.5747
22.9363
30.3751
37.1881
32.2643
15.5005
-0.87414
-15.1427
-12.3052
-9.58978
-7.86564
7.84491
24.4635
33.8956
13.9808
-8.03853
-7.19059
-12.3706
-15.4576
-15.2253
-15.957
-13.0838
-16.0463
-17.669
-9.97205
-3.79219
3.49961
9.445
30.3911
60.5788
48.8041
7.77368
-17.6082
-23.531
-23.3241
-28.6862
-21.6978
-0.233306
9.10767
-2.52901
-14.3151
-8.19508
5.45411
9.34453
-4.18237
-0.659115
7.47788
10.7721
-21.2715
-44.4281
-23.0865
2.281
12.4373
10.1464
19.2672
38.5544
31.273
20.3892
5.17441
-23.4397
-26.3392
-16.6172
-1.41113
3.45382
9.27505
18.5651
31.0588
34.8343
26.5373
-2.59283
-18.4856
-30.1742
-61.7789
-47.8434
8.98234
16.4516
13.3252
12.2265
4.29679
22.4804
24.0632
13.4603
4.25119
-6.78348
-12.6062
-9.6276
-5.82808
-21.2848
-28.8385
-12.4678
0.133176
7.80488
23.079
11.2527
-26.9328
-45.7454
-41.0917
-23.988
-8.38814
11.087
31.9031
61.0811
90.2565
73.5966
18.6772
-16.8359
-28.1419
-17.5627
-1.98258
3.65366
-8.38562
-20.8102
-27.688
-23.7213
-29.7516
-23.05
-6.46857
-1.4257
3.81132
8.02308
1.4515
-24.9235
-45.4324
-30.1149
5.95631
22.586
20.2225
8.54168
-1.2542
-5.01162
-1.13136
19.0958
46.3866
64.0779
69.6681
67.8835
47.6219
17.4798
-18.4183
-47.697
-48.4148
-41.2041
-30.5466
-31.9498
-22.3024
-1.67212
-1.96842
-10.46
-8.286
-8.05861
-4.17531
-3.77315
-7.30159
-7.43299
-19.896
-22.4431
-12.2829
-2.30612
21.6884
36.2413
32.7294
35.127
15.7336
10.6726
10.4734
-6.98543
-33.1605
-45.2654
0.46703
33.669
21.8856
8.46423
4.51378
-5.17565
-23.7572
-35.4691
-30.1418
-11.9038
0.0382585
11.1576
43.0061
69.9859
59.6088
24.4897
-7.19101
-33.7769
-20.8112
4.71103
-23.5066
-39.0554
-21.236
-9.10648
-3.91695
-4.46363
7.56122
14.8886
-3.53499
-19.1421
-16.2245
-9.99413
-24.6995
-43.1956
-33.2562
-3.8505
26.9793
34.6381
26.1793
19.6151
11.3533
0.801753
0.0336548
16.4691
30.1517
17.2395
10.9672
7.78382
15.7543
22.3288
16.7267
9.7122
-8.5469
-38.8373
-37.4138
-18.776
0.481146
8.3037
15.2783
21.0978
20.6757
4.48502
-13.1074
-28.8312
-38.856
-25.3902
-18.9708
-16.6689
-5.6726
3.14623
13.2259
4.65989
-1.09823
2.75764
3.79706
0.44256
-1.52184
19.6322
13.0787
3.08968
-9.38423
-16.9204
-16.4536
-5.62961
7.40385
13.7129
24.0391
52.5236
66.3706
37.186
5.30865
-10.9689
-23.1773
-34.2483
-53.4425
-41.3499
-22.7521
-17.9543
-9.4317
-6.21244
-6.64534
17.5347
30.3427
3.53512
-14.501
-10.7285
-3.17271
-9.84047
-15.6438
-3.19417
14.9818
12.0808
18.1254
29.6278
39.7303
21.0075
-12.6399
-32.7868
-36.6951
-34.9447
5.04899
31.2416
19.4344
14.7642
14.2141
12.2448
9.34561
0.206358
6.23663
27.6147
17.6047
1.00968
-10.8243
-13.8139
-18.8283
-22.3172
-8.92024
9.1983
16.9641
12.2724
-7.08843
-26.8147
-24.9525
-21.7134
-20.8603
-16.5798
-0.347177
-0.826543
-8.28801
-21.4556
-13.705
0.300514
-1.12838
-8.58689
-4.75726
2.37956
14.5884
20.3802
36.1197
75.185
76.9218
35.9042
14.3634
3.687
-20.4218
-34.7355
-40.6027
-40.2052
-40.2687
-35.4243
-26.5052
-7.03447
13.426
26.649
34.0261
27.8024
14.32
9.78109
-2.49412
-24.0442
-50.2228
-51.2962
-27.7939
2.6994
22.0828
24.5622
22.0099
24.2885
10.6989
4.4722
6.77976
8.86028
4.87392
-1.30947
2.86557
10.3757
-1.68248
-9.68245
2.72855
5.0575
6.99819
15.0075
5.18319
-1.27786
6.30648
12.874
-7.09995
-32.8567
-41.0126
-41.51
-34.0811
-26.4304
-31.9007
-2.9913
53.6057
52.8709
60.955
77.986
58.4204
12.7333
-15.8243
-22.9832
-21.0675
-25.3909
-39.9906
-43.1005
-42.1253
-34.076
-16.6381
14.2697
39.8588
37.9452
16.7185
-8.82473
-52.6969
-50.0655
-39.0484
-35.8216
-18.0204
0.449929
1.99093
11.0405
21.2851
31.6192
42.0192
43.3843
51.4078
45.0129
22.5312
15.041
4.79121
3.06106
13.5612
10.9644
0.46852
-6.54127
-21.4178
-24.981
-20.6448
-10.3917
6.45366
10.2017
6.49195
-10.2137
-28.7676
-45.5479
-38.5148
-14.9417
1.96814
-2.12301
-1.93516
9.29768
15.7019
9.4071
1.52968
2.89535
0.528544
-0.0812996
10.3246
25.6973
35.0297
23.1243
0.876526
-13.8388
-12.7435
-1.12681
-4.48435
-15.1447
-7.86235
-8.638
-21.2004
-34.1142
-29.0143
-20.1358
-8.27516
7.39363
25.4207
26.5856
-11.4625
-34.7091
-33.2274
-18.29
3.27146
27.1351
63.1297
104.465
91.2262
44.1613
8.13096
-26.5948
-59.7632
-34.7141
8.95325
11.5226
-7.05673
-16.5079
-22.4678
-28.0357
-18.1053
-12.2311
-8.52383
-2.34774
1.02026
-6.67542
-13.8424
-39.6556
-42.4291
-20.3071
2.54128
34.28
61.559
51.8638
37.3501
30.845
13.4826
-11.7917
-22.7279
-16.752
-12.8467
-3.95839
0.352812
-0.308856
2.27357
1.91844
-19.9868
-43.2706
-42.7844
-13.8838
11.8611
15.876
19.7766
14.2566
4.36305
-1.29471
-9.44765
0.130033
11.142
16.6354
30.2299
39.1359
42.3855
33.9293
5.63271
-18.6996
-20.8267
-15.2861
-8.20036
-11.9546
-21.8292
-30.9387
-28.9467
-17.8362
-15.9009
-7.81374
3.94034
11.6689
6.36147
-3.24067
-1.99203
-7.43364
-35.6621
-37.7665
-12.9978
4.61227
12.3091
16.1684
44.1014
74.5616
67.4664
34.4376
7.12757
-9.0527
-17.6075
-19.6476
-7.32672
2.35623
-7.53693
-15.134
-17.3762
-23.9634
-21.4279
-17.7099
-11.6608
1.3756
0.290702
-2.76545
-10.1591
-23.123
-14.2649
9.53981
22.99
22.0228
17.0852
-9.06346
-37.7802
-27.6847
25.8384
38.6238
29.7307
18.9896
21.4222
20.0472
7.87924
9.60106
11.3647
6.37376
-9.43252
-19.991
-17.2972
-14.0125
-12.9094
-13.2483
-11.1706
3.8872
24.1391
16.1564
-8.64349
-8.75416
-22.5683
-24.0619
-10.5399
2.41883
-1.33418
-9.42368
8.76341
36.7002
24.1752
-15.5173
-50.2625
-65.2195
-41.8185
-11.0906
27.6391
79.7022
86.1491
40.7277
-2.42537
-20.1331
-12.3083
-13.2094
-9.1721
-6.12749
3.44111
10.9895
-6.24142
-26.6014
-18.9849
-11.0214
-5.67815
0.910319
9.55432
8.35082
-4.28027
-28.56
-23.7054
2.1026
15.7725
17.1469
19.938
22.5425
18.1595
-3.79722
-6.65472
-2.27447
5.03285
6.43917
1.32363
2.78134
19.9124
24.1763
17.7413
5.21741
-9.03013
-19.4223
-24.8465
-15.0307
1.95319
-2.70458
-1.89169
-4.83892
-19.873
-17.3691
-6.47254
6.11308
6.74104
-10.472
-14.7122
-23.7812
-20.5777
-1.03718
11.8778
17.8827
19.6191
37.0416
36.5843
23.9467
5.41365
-10.2358
-12.3179
-2.7213
5.87148
9.90498
-4.97459
-34.7599
-55.9972
-53.4157
-4.48279
13.5372
2.43422
6.13698
-4.19893
-14.1584
-10.817
18.4598
59.7927
67.7305
40.9638
22.6247
8.38011
0.083781
-16.8484
-31.8521
-44.4084
-34.621
1.93261
34.3833
11.9792
9.03216
4.43536
1.40971
3.65253
4.29335
-5.22773
-33.1478
-52.5346
-49.0814
-35.1114
-14.6873
4.84749
12.7969
21.4767
32.4318
39.0979
32.4072
9.65441
-7.73684
-2.44238
7.84417
19.0993
13.7959
6.64576
2.71492
1.9347
-16.3349
-26.2198
-25.623
-12.9892
-1.19498
0.334512
-0.978544
6.52603
-2.64971
-4.36367
13.7323
23.3621
19.2064
1.06987
-9.74857
-14.1327
-23.6442
-12.9274
-1.55145
7.93396
22.8474
28.0019
15.4827
2.44786
-18.314
-22.3811
-16.5435
-13.3306
0.281172
8.53092
-2.0644
-22.8767
-39.99
-23.818
1.49326
13.3797
23.6852
42.7474
68.5548
55.8501
2.31568
-31.8296
-40.9004
-32.4041
-19.031
-13.7116
-9.07099
-4.26604
7.74686
24.5716
24.578
21.3476
29.0335
22.0145
12.7671
4.08993
-8.65466
-52.6674
-112.681
-89.6703
-25.9292
-0.00776475
15.5253
29.6733
52.4708
62.9122
51.7612
38.7759
19.3527
0.76642
-0.627897
7.02129
7.85629
-0.0997837
-5.30453
-9.99862
-36.8779
-31.6853
0.468456
0.362361
-8.17831
-11.1323
-3.57146
5.63552
7.1407
7.43394
12.5369
-0.821146
-13.3983
-18.8558
-17.4524
-10.6128
-4.57328
-6.7413
-17.4229
-17.4178
12.7298
25.8796
20.1725
7.84329
0.814104
3.47494
5.05383
-5.64555
-11.5454
-13.7675
-18.1612
-20.2756
-7.47161
8.85452
12.6014
8.50255
17.3702
21.1492
13.8135
-0.5478
-1.5185
10.5931
12.6173
5.25137
5.11304
34.2229
59.4345
43.1916
5.65792
-19.3354
-21.2849
-16.6705
-20.9886
-25.1755
-26.4231
-23.8402
-30.9533
-33.2288
-9.83846
17.8194
9.70892
-2.18733
4.57279
8.60123
3.95707
-33.9402
-72.5084
-55.398
-3.40602
26.205
26.6856
21.4897
20.9102
12.7326
8.94996
13.2116
17.6031
25.7779
22.7129
9.74001
17.8438
21.3571
23.0252
19.868
14.2982
19.5293
-0.445458
-60.4916
-64.6429
-37.3587
-16.6953
7.3681
23.1425
45.2654
51.8688
25.219
-2.56945
-25.3309
-27.6667
-18.5431
-19.4057
-20.2153
-28.1434
-33.56
-25.2544
-26.0577
-14.6632
22.2574
13.3238
-10.9323
-6.98236
1.74316
34.359
38.9682
13.7528
-0.428787
-3.8936
9.83771
23.4717
14.7744
-2.64903
-5.99436
-6.24122
-1.91553
-0.519295
0.472322
10.1002
23.1433
13.7616
7.85673
2.09171
-8.98481
-31.8354
-46.9681
-35.2239
-6.02775
3.63864
-1.93463
-5.82037
-0.0860682
16.6288
20.7291
15.2172
11.7128
12.1319
14.2252
9.8359
20.8987
27.4775
11.6214
6.1669
-1.92117
-31.696
-62.387
-57.8011
-18.9366
8.63998
13.8607
7.05117
7.32384
9.81043
11.1043
8.18105
9.10484
9.19486
7.82931
11.2193
6.84441
5.65923
4.15085
-3.25399
-1.8811
0.334092
0.484523
-22.0011
-57.1553
-70.2988
-8.59619
44.4699
51.3848
40.6151
15.1619
2.62454
-6.2761
-8.90058
-7.12978
-4.13744
-6.21471
-19.654
-30.6682
-31.7592
-21.8013
-8.97017
2.64793
32.3484
76.0695
95.5555
40.5619
-16.0394
-41.5034
-45.9803
-35.869
-22.9426
-2.2502
-8.6823
-9.01527
-2.72577
-3.80398
-1.50004
10.2944
16.1773
17.6392
13.484
7.37668
5.18789
-12.2554
-20.7005
-23.2626
-20.7224
-2.50844
16.0648
23.809
13.0754
3.68654
9.63926
9.03265
4.02242
2.07154
6.33456
16.8454
12.7372
-7.5037
-6.97988
2.46296
1.68801
-8.33447
-9.96895
-14.8369
-12.4718
-16.7752
-15.3184
-6.72355
7.77758
9.737
-3.3727
-16.6664
-7.86978
-12.5791
-21.7631
-26.5893
23.4742
92.0748
100.203
59.3656
9.17539
-27.0967
-31.2852
-27.5594
-28.4472
-25.6531
-28.5827
-37.3805
-39.4371
-35.7211
-6.03614
12.2271
11.0758
10.9068
16.2567
17.5048
-6.19719
-35.1265
-31.9094
-1.45828
18.351
27.2956
20.9383
15.2881
16.0967
21.8703
16.5529
12.2234
16.8847
18.1092
9.45251
4.44807
2.93167
12.7385
12.9827
14.0186
4.71856
-15.888
-32.8717
-38.8212
-46.5694
-49.768
-17.4997
12.0195
12.4719
11.422
7.73512
4.9281
2.85798
6.29294
0.0763433
-5.6357
-8.14526
-5.01907
6.61468
10.0813
3.74298
-3.84327
-1.94416
0.465748
10.4152
19.7797
4.33709
-4.64849
-3.83726
-0.609093
11.3666
24.2225
24.3892
9.33572
4.56551
3.58807
1.84463
-4.45612
-15.0496
-18.7889
-10.2823
-25.129
-38.0845
-31.5234
-17.0154
-10.2133
-8.8519
-12.7117
-8.21886
-3.21477
-3.80201
0.193417
2.16942
8.45247
15.5846
21.1464
15.4137
-20.3841
-44.3134
-34.7092
-20.9461
8.88616
35.3477
56.9085
80.0017
88.1835
103.155
119.161
121.491
86.4307
25.2638
-62.9909
-94.1354
-87.2646
-83.6266
-79.451
-77.9605
-46.8273
-17.2211
-17.3584
-38.0061
-40.5203
-49.2382
-59.4642
-70.3016
-54.8701
-45.9817
-51.2226
-50.1819
-44.3236
-12.0896
44.2716
78.0263
89.3896
108.35
132.146
128.991
111.207
69.2297
29.5172
0.851599
-18.7496
16.297
44.4456
32.2534
13.1283
-8.8814
-11.146
1.39146
24.3897
23.084
-12.7101
-52.2114
-62.1204
-49.7858
-41.1684
-40.3045
-29.7905
-35.4372
-34.9847
-9.9069
-38.5624
-83.7702
-81.7846
-65.7521
-61.9736
-58.6026
-57.4983
-60.531
-43.3153
-13.0324
23.6736
43.7314
53.8845
56.7028
51.869
73.1246
105.979
111.985
81.8338
55.8719
79.6228
100.025
92.348
68.0192
34.2131
7.96393
-17.6308
-46.1909
-68.2716
-73.712
-50.1998
-26.6262
-24.0323
-25.726
-36.615
-56.827
-66.8946
-38.8828
-4.95406
3.86836
13.3358
1.30477
-31.6302
-43.4829
-28.7375
-9.17199
4.3451
23.6241
45.3897
53.2359
55.7994
32.1861
3.77075
-9.79769
-18.3029
-21.1596
-44.411
-59.8247
-62.816
-72.2708
-56.9821
-45.1517
-8.88379
70.1941
98.1241
87.1419
103.385
120.416
80.3965
-8.85404
-59.9683
-1.28168
49.9849
53.3659
-9.37945
-39.6232
-37.1647
-34.1421
-45.463
-36.7807
-33.0583
-30.209
-53.2001
-82.5223
-48.2047
25.1377
8.71748
12.7522
21.9708
23.3467
-2.7364
-39.6376
-37.7415
-37.461
-8.45628
16.021
27.7976
49.8767
82.8422
111.394
131.859
152.666
89.3897
9.10579
-36.9426
-105.382
-144.583
-141.23
-104.607
-40.7909
17.8616
28.4573
-11.7489
-41.4624
-43.9482
-27.6986
2.78192
12.3485
38.4199
65.4654
35.5124
-14.3856
17.9871
84.2052
118.3
71.5322
-3.93179
-70.9485
-112.106
-95.8567
-50.6125
-6.43045
66.9928
87.8105
104.209
96.9487
35.1375
2.49872
-10.4857
-52.9114
-79.3458
-87.2349
-77.5767
-59.5235
-72.4401
-31.0785
38.4074
36.2935
46.7984
54.9029
34.3473
-15.6968
-99.2095
-57.7063
-13.4136
-40.8626
-15.1458
23.3738
5.90612
-25.5984
1.19006
61.1487
117.802
90.265
34.6534
16.6301
57.2412
101.947
2.80089
-60.3189
-57.5562
-49.9164
-47.3468
-75.7191
-66.793
-3.65461
5.97003
10.3751
94.2171
99.2036
65.2173
25.5904
-72.7155
-113.594
-66.265
-19.8073
41.2487
-70.8614
-54.6974
6.36766
2.09486
-15.1329
13.3723
-12.7177
-80.6146
-65.1447
116.525
169.673
66.5092
-7.37479
-12.939
71.5024
213.145
86.6407
-56.2001
-42.3047
-44.7562
0.174957
46.6804
71.9228
52.0114
19.7221
-2.10862
-2.86356
1.14963
-56.7513
-196.947
-252.757
-242.022
-176.703
-155.928
-162.125
-155.6
-38.8716
46.7982
27.4438
36.9084
268.438
422.528
316.329
111.32
22.3591
75.6129
-5.77747
-80.3302
-241.324
-116.405
196.809
126.781
30.2069
60.465
146.482
39.1733
-23.3365
-6.46378
6.44563
-19.5559
-167.87
-186.343
-121.561
-30.6658
11.6798
8.29792
51.3015
49.3745
80.8286
-21.659
-237.735
-208.623
-19.6122
114.827
-45.2518
-147.539
-88.3827
-53.4183
-18.858
14.5952
-58.146
-140.547
-25.0153
202.654
301.706
153.382
91.9797
90.9698
152.455
126.412
25.5505
74.3634
364.17
401.847
23.1155
-129.859
-148.586
-81.9184
-140.462
-226.639
-171.76
39.8466
60.1786
-40.7987
70.24
-193.926
-254.931
-35.4356
225.595
247.577
-1.8559
-99.9332
-304.371
-465.664
-304.346
-78.6275
-2.91177
-46.9426
-85.4637
-113.392
-74.6681
-112.681
-77.7199
-9.58984
-55.6987
134.116
240.334
343.452
227.003
-117.58
-141.002
-13.4279
357.483
828.541
695.777
528.273
360.438
101.202
-16.7527
-109.368
-161.682
-249.055
-272.574
-333.321
-389.485
-165.646
-89.4903
-250.016
-337.514
-250.737
-77.5052
-28.3089
-278.141
-278.545
-20.3473
-77.2258
-41.897
51.2289
88.3483
210.717
264.361
271.345
304.594
258.777
73.9057
-95.2999
-113.641
111.718
372.281
285.668
178.008
91.3969
-80.6913
-381.128
-378.137
-235.847
-112.518
-67.4976
16.1426
74.413
51.9625
-32.1816
-131.367
-90.3319
9.66866
56.1566
89.8653
4.60181
-168.244
-104.562
-17.7507
-6.30406
-47.0248
64.4184
338.399
202.069
132.571
170.397
61.116
-15.8656
-33.9574
-75.3318
-147.152
-81.0756
80.4691
220.243
46.5842
-207.869
-246.368
-60.0953
45.7224
64.7205
49.4017
-109.87
-214.502
-85.8657
-39.4132
-9.35339
88.9078
77.2518
34.2627
31.7003
29.9082
3.25294
-82.3001
-161.706
-140.74
-78.9972
-4.48116
289.596
375.322
91.9903
7.74503
-65.2387
-139.502
-62.7295
6.62433
-3.54259
-18.59
23.0313
105.308
47.8367
21.331
33.2137
41.8039
25.9942
98.2194
116.579
64.0637
-89.4338
-159.642
-32.6407
-7.58055
-25.1913
-48.8631
-60.9706
-72.4162
-80.5742
-122.136
-266.312
-223.338
35.8081
82.2143
-61.1296
-39.2988
90.2005
142.47
138.376
175.307
242.469
140.781
70.6424
13.0032
-19.0703
-21.517
-4.10327
-29.4018
-12.9362
44.0726
118.979
69.2476
-46.4979
-86.1962
-52.7818
-73.854
-187.432
-200.607
-160.023
-141.155
-183.122
-115.079
44.4131
72.7562
21.6093
-0.637987
3.90083
-3.80894
82.4638
292.46
348.261
251.078
49.5927
-36.9243
8.47452
24.302
37.7846
47.4725
22.336
-36.3101
-109.482
-98.9492
-74.4083
-49.032
-34.2628
-5.32081
19.7071
15.7636
-19.7297
-113.115
-117.522
-88.4182
-18.5247
35.9439
11.9958
-57.7695
-103.27
-74.0734
-10.078
61.0867
-3.21527
-21.1754
12.8483
54.9753
57.1724
78.0777
91.6843
89.1415
66.3668
3.30152
-3.46748
-0.060157
-7.24742
-3.03898
19.9167
26.777
32.8303
41.7057
26.1663
-2.52278
2.54262
25.5134
61.0227
77.4493
68.6424
6.02216
-104.318
-164.609
-143.394
-165.331
-187.178
-109.693
-23.797
23.489
20.0809
29.7226
49.0554
52.2072
43.3327
39.8821
75.161
81.2511
102.818
76.1789
-48.4361
-97.8313
-35.306
34.4044
34.8425
32.908
46.3523
13.2613
9.04137
15.1697
-0.169847
-15.8778
13.2471
5.68397
-30.0682
-70.758
-66.7795
-51.5866
-69.4611
-73.341
-0.890488
67.2863
62.546
40.1146
-13.3674
-72.5652
-7.96122
15.1394
-29.2562
-44.4517
2.83918
51.2829
62.8325
48.6505
45.6279
35.1791
0.569314
-14.4999
-27.746
-28.1135
-4.14799
-3.80902
26.5193
29.798
2.37156
14.957
-6.33374
-18.61
17.6338
28.2162
13.4266
-10.1347
0.333725
-1.54293
-22.9898
-20.0674
-1.80569
11.6092
-16.7254
-39.1323
-23.236
-16.9378
6.37739
19.9137
11.2338
4.53903
1.17642
-17.7249
-27.6777
-34.0682
-12.0795
8.77918
25.9027
47.4357
62.8182
59.5397
-25.848
-99.1224
-109.935
-79.9932
-11.0232
16.1171
41.4283
71.8514
83.6586
103.706
82.2188
23.9053
7.29797
-12.5061
-48.717
-65.5301
-67.9166
-64.9396
-66.2191
-46.8301
10.8299
43.7858
47.3061
57.5908
58.2107
51.0405
-2.94768
-59.4243
-58.871
-46.0416
-59.7386
-39.9177
-2.72107
22.5788
24.3874
45.4091
49.8315
35.2047
32.2075
2.59516
-27.3959
-4.9423
-0.381825
-8.0314
-21.6337
-43.8665
-38.2284
7.17714
48.4234
61.8921
51.4352
55.4558
34.0707
15.5249
-23.0396
-83.0108
-98.973
-89.5568
-58.1898
1.03199
33.5058
29.608
26.8742
26.5622
39.1326
39.6012
16.1585
-7.98848
-16.3372
0.350476
12.2296
8.61295
-16.6046
-12.8705
31.2024
62.3293
17.0233
-34.068
-33.3375
-26.4987
1.28091
17.5264
19.1645
22.1868
-1.23614
-20.4407
-37.9667
-92.9812
-110.77
-95.9725
-66.8583
4.11511
54.5533
37.2802
35.469
62.7026
82.6805
86.996
51.3809
26.9251
52.8102
62.7389
-24.0563
-81.5178
-45.8687
16.3582
39.9144
37.4645
28.0619
1.22372
-15.2609
-42.5811
-46.592
-21.4936
-22.5767
-48.2423
-47.4909
-21.4835
-8.69012
-58.4462
-74.3463
-61.9156
4.31417
45.1575
35.2855
45.9807
58.8186
63.7105
44.5789
4.61252
0.604236
-14.3054
-11.745
7.27977
13.9721
27.4172
30.3932
24.2967
25.3514
12.0544
-22.3732
-40.8376
-27.6544
-10.3856
-44.4836
-65.3863
-64.2026
-39.6504
5.83885
42.8473
47.9386
36.0335
14.1393
-4.11994
0.0305799
5.80953
5.75846
20.5734
8.2904
20.3018
29.6021
24.0059
34.7238
16.1126
-12.8879
-49.3816
-45.7741
-30.8666
-9.14704
50.8808
57.0932
16.7793
-33.3852
-57.3391
-37.4198
-1.5125
23.1779
26.3909
9.1492
-13.3805
-16.7105
-7.75613
0.688085
-4.82436
-4.5689
16.6653
18.5362
3.95245
-28.8856
-69.9459
-64.3375
-2.97231
17.4481
-4.63136
-40.4347
-36.1708
-10.8078
13.337
37.6101
55.3458
35.4281
15.9752
4.52606
11.3887
8.74693
3.99824
11.2111
25.8706
45.9966
64.0229
78.9409
66.4449
-12.3241
-61.7192
-30.1283
-58.2915
-76.735
-74.7232
-32.5115
12.0354
21.7849
11.6772
3.60182
6.35098
14.456
20.5992
25.6839
14.82
-6.12732
-18.5745
-39.9554
-54.1886
15.2084
57.4317
29.4584
22.3614
7.35946
-9.61413
-39.032
-69.6837
-30.1041
27.0552
-4.18871
-21.247
-5.53799
6.59664
-12.1676
2.87852
24.003
20.7569
19.311
12.495
5.71439
17.301
6.78453
4.19159
33.1011
26.18
7.82827
9.83902
-13.2165
-35.1301
-13.8597
-18.1565
-25.21
-37.5385
-14.7511
3.17813
27.3384
30.2408
-11.6273
-46.2738
-50.6692
-13.7902
19.8403
24.597
3.976
-1.20273
-3.86981
5.99784
20.3239
8.03197
10.5991
20.3952
15.4735
27.0648
31.5553
22.5968
10.7445
0.0292366
-15.0152
-29.4673
-15.4818
1.138
18.417
17.716
9.79444
7.22357
-12.1435
-25.9224
-30.0521
-17.4984
-17.3649
-28.6422
-16.3731
11.7551
12.6729
8.38255
-24.4553
-60.1209
-49.9894
-26.6625
10.8161
55.3565
84.2739
108.476
88.7593
35.3717
-8.87568
-29.5888
-72.3561
-98.837
-38.5885
14.6862
34.5282
15.0676
-18.0318
-37.5712
-52.2396
-63.9011
-45.2971
35.9936
67.9917
45.0924
10.4571
-8.61655
-9.47797
10.9387
50.7045
32.7135
38.348
50.8555
15.2721
-16.8072
-17.5285
7.63674
17.2929
-41.3254
-69.5985
-22.3129
22.6555
37.7236
58.5077
33.0881
-29.1827
-102.093
-130.164
-81.4676
-33.7931
-12.2813
1.29488
34.158
86.6078
95.9414
40.1676
-14.098
-32.7792
-13.241
30.6369
41.1959
42.443
28.0692
-1.77358
-21.2887
-17.0612
23.1971
23.4491
-9.72644
-19.7876
-3.1151
-4.00747
-21.4538
-64.1837
-62.5914
-28.6185
-12.5018
17.7942
55.5195
54.5837
36.5106
10.3112
-36.8816
-47.4469
-30.1224
2.4874
8.12659
9.28986
6.53628
-2.75759
-1.89635
8.97532
17.6106
25.7116
-6.42875
-24.0968
-0.614676
16.9638
39.1537
47.1683
35.0216
28.6396
-9.7224
-70.2123
-58.6772
-50.075
-55.8039
-22.0814
15.5973
9.38849
11.0578
27.6192
25.9323
12.0212
17.7009
17.156
-6.4077
-25.7996
-34.4391
-22.829
-5.59402
0.515048
22.5406
46.2799
33.3984
23.6139
43.2283
4.07642
-32.6277
3.38637
51.9897
53.9876
3.07956
-79.9507
-97.7495
-40.0519
-11.3271
-3.61083
4.36515
8.72807
-2.69912
-14.8948
-3.01833
15.2069
30.6903
27.6243
5.64937
23.8271
15.1385
-13.4901
-41.2596
-52.5037
-27.1178
24.553
28.2574
-2.86194
-24.9554
-27.9837
-1.54025
19.2415
35.6377
33.9409
-15.8574
-14.4116
3.23668
10.1413
11.0183
-14.2835
-17.7425
-3.82827
-2.83708
-5.5619
1.73153
21.7786
26.8611
7.58323
14.869
22.1132
14.7999
18.5075
20.1456
2.94546
1.94895
-2.97223
-19.2176
-35.352
-33.8325
-13.0723
5.39089
5.58577
0.0680809
-6.47696
-21.4163
-13.9051
4.10524
4.26532
-9.13332
-17.5727
-15.4906
-15.3619
-25.3555
-19.98
16.7274
37.6195
36.6103
16.741
-17.8006
-24.662
-14.0582
-7.02872
-8.42512
6.00209
25.9791
26.1919
36.7212
59.6933
71.8507
46.0185
-4.74668
-41.2116
-63.9704
-49.5987
-14.3239
-9.71072
-17.5763
-14.3426
6.80341
18.0822
13.769
2.49343
-1.31078
0.912153
4.53492
-9.96119
-36.3452
-43.373
-35.0563
11.84
88.7375
82.9218
41.2961
-6.41747
-40.4856
-39.3758
-35.8542
-30.6778
-21.2134
-16.6475
1.66922
-1.37349
-3.70232
-6.14867
-4.33806
14.9672
34.0125
30.2195
24.2916
7.33272
-28.1954
-33.6144
-15.0891
7.74609
18.9158
15.773
12.9841
24.3826
34.5066
31.4107
18.5941
3.98715
-12.6189
-30.2839
-49.7902
-38.7223
-21.5705
-9.43392
-4.57466
-6.43717
-15.0192
-18.3902
-7.26845
15.3618
8.24903
11.1517
44.1578
48.2687
18.6245
12.2884
2.97797
10.9877
14.3847
11.0633
16.3838
13.8574
5.25394
-6.16841
-15.5233
-62.8509
-21.0373
-30.1195
-38.8342
-35.832
-15.9358
7.5782
11.5845
4.74001
3.34146
-7.39161
-32.5329
-27.8162
-29.3322
-19.064
14.1664
53.226
65.604
63.8571
51.506
42.2394
11.5659
-28.2988
-35.6735
-10.9119
5.16734
-7.65774
-25.0035
-22.0405
3.40169
20.1298
6.15855
14.1846
15.8047
6.3657
-18.9039
-26.8797
-24.2747
-15.4209
-7.739
-2.88543
21.0263
46.9623
3.66159
-59.3685
-98.4078
-77.3518
-20.9818
25.4235
53.1955
60.7659
62.1524
39.2906
11.2271
0.15943
11.708
25.2293
14.4939
-14.3107
-16.5187
-8.12364
-14.3795
-20.1026
7.68194
29.0061
43.5972
52.3743
57.8456
-6.72666
-47.8091
-60.5835
-45.1416
-31.9924
-20.9853
-10.3253
0.311703
2.90068
5.64462
-4.79602
-21.6895
-37.5485
-41.5939
-40.3963
-28.8532
3.86343
25.0107
20.6951
15.95
31.5764
30.2137
21.5191
24.6824
32.1008
22.0458
-4.08283
-12.303
-1.46046
-3.08978
-14.5288
-20.2274
-22.3809
-4.69533
14.5365
24.5114
23.429
20.5796
27.9791
16.9971
5.71885
3.83686
9.87139
20.6449
-11.2338
-19.6971
-9.50281
-8.74379
-22.4676
-31.778
-7.15211
5.07184
-21.1818
-51.6467
-46.6541
-16.3321
-23.1093
-19.6242
-6.83451
20.4642
41.7433
38.6351
41.2625
19.4973
17.004
15.1244
2.21957
-6.62735
-21.1428
-27.7316
-30.8336
-15.6318
28.9098
63.0276
75.2938
59.3477
25.0751
-10.5516
-38.3137
-48.257
-43.7593
-45.1318
-53.2434
-49.3796
-16.1319
-1.14392
0.817605
7.10739
30.5826
36.0795
24.9326
17.1123
32.2785
18.2746
-13.6041
-25.8858
-0.473991
20.6756
12.9901
1.97881
-1.60859
3.22758
9.23206
15.526
8.39081
-1.63543
-1.56474
-16.8472
-32.313
-23.8413
-19.3784
-13.6336
6.58776
32.6664
7.68168
-38.3571
-35.609
-7.59191
-18.2896
-19.614
-2.97162
15.69
45.0535
43.4536
12.8537
4.77775
-1.69966
2.28687
8.06894
-9.05419
-13.341
-5.43608
-23.3183
-30.9105
-1.50938
29.4903
32.4534
6.52886
3.77504
7.6191
13.9164
11.5339
-1.48038
-8.51281
-6.16857
34.1233
59.2741
28.1446
-2.88446
-10.7329
-21.4271
-4.69468
-14.0608
-34.4594
-32.9495
-29.7855
-23.8758
-1.6455
5.56643
-9.96565
-18.3551
-23.7445
-33.9184
-17.7514
-2.82069
-18.1233
-25.42
-11.1111
7.08624
25.9624
30.9386
15.5882
1.51815
8.03764
31.1325
46.4781
47.2019
50.0214
53.6376
41.5683
0.642289
-35.7742
-42.1892
-34.4743
-1.29073
14.8876
2.23418
2.13057
2.15827
-9.22469
-12.7728
-16.537
-14.4016
-5.12769
-11.2605
-10.0564
-10.5071
-29.9046
-26.98
-0.165103
23.7442
39.1324
20.6303
-17.8022
-23.6797
-26.9
-14.0394
7.22026
11.4791
14.6923
16.0911
6.28388
10.8099
1.65645
-3.79816
7.45534
12.7313
3.78668
-6.75876
-13.5794
-23.0961
-23.8196
-9.45655
15.7722
10.627
-7.94825
-23.5879
-20.5507
-5.87459
19.7992
32.286
26.8159
28.3082
47.9816
41.3747
12.4081
-11.8221
-17.4654
-18.4619
-27.6334
-17.007
-18.2505
-16.5839
2.53819
5.10812
-8.45185
-15.5082
-11.9499
-1.44773
-4.1018
-17.7437
-15.6337
-25.8546
-26.237
-14.0505
4.29503
31.3395
52.4878
42.7007
21.5987
8.82661
12.1293
13.575
11.1149
-2.88213
-0.0154133
17.1247
31.8871
30.7527
12.2485
1.11091
-13.5044
-22.973
-41.3768
-51.2438
-46.2736
-28.9387
-5.8689
-48.1055
-68.6871
-9.26644
26.3744
2.19365
-4.70694
14.3465
33.9476
61.4531
83.0534
40.7574
5.58712
-3.10361
3.10498
12.2389
3.00521
-1.63268
-20.0977
-32.6131
-36.066
-5.25183
16.2572
3.94949
-3.21109
12.2832
16.4553
8.57827
-26.5107
-66.6917
-85.1349
-58.6373
-29.448
0.85618
22.762
25.395
23.1088
33.9372
42.8373
37.3757
33.8718
45.5179
54.7166
29.4038
4.45981
9.79636
7.04762
1.39093
3.02436
7.6465
0.735852
-20.8785
-30.4514
-20.6464
-18.8846
-30.6727
-20.356
-4.84081
-3.99036
-27.6497
-71.6323
-66.1939
-34.141
-11.3423
10.5674
19.0892
13.208
11.973
24.5102
25.7186
8.56256
1.4796
13.8396
18.7174
17.3831
26.5796
35.4794
25.3785
9.57531
-0.150468
3.72995
18.7994
12.416
-11.2659
-29.4227
-24.6064
-10.3506
6.89166
22.4936
23.5508
10.5336
17.3803
-11.3435
-42.3234
-56.2346
-42.7881
-29.5911
-31.0089
-20.5569
5.51767
28.931
25.2434
15.8267
9.62616
9.98765
7.28953
-3.029
-8.74892
-12.5847
-22.9511
-21.2754
1.59288
17.5808
16.4635
18.6323
25.1854
27.533
38.1379
43.4487
15.1296
-13.56
-42.2539
-64.7464
-27.3158
12.7732
29.9634
31.3918
12.9908
-2.88824
-2.21811
-6.90845
-18.9237
-12.8912
3.22865
6.23151
1.05995
-19.858
-26.1157
-17.9218
-7.81018
6.28641
24.5606
41.0045
23.8402
-4.21541
-11.623
-14.5375
-11.7288
-14.996
-14.6372
0.476836
3.24461
3.31321
21.9598
29.5778
10.3465
-4.43317
-18.5672
-22.2699
-33.3091
-31.9328
-3.32574
0.0430758
-6.21691
24.8518
44.3616
10.535
4.46828
-2.352
-18.1965
-20.9353
-10.5069
-3.28545
-10.0196
-10.8064
-0.104458
13.5381
13.5231
15.7728
32.3464
35.941
23.8431
25.5124
22.1199
-10.7736
-46.4998
-32.5508
-18.0012
15.7407
56.7074
58.582
43.5535
-1.816
-58.0768
-76.0296
-57.8126
-52.9495
-32.3682
-3.96535
25.4697
30.7093
18.4715
0.954035
-5.09033
-16.9293
-18.6591
1.32144
6.76943
0.548017
-4.03702
-16.1419
-12.7195
14.0389
39.887
49.3318
36.2633
26.6835
6.7318
-12.4254
-23.2489
-26.8639
-14.6433
0.926062
-5.12187
-16.1587
-14.1735
3.82845
19.9115
4.17083
-14.646
-12.9701
-4.16242
20.3124
29.0341
-4.5228
-22.4419
-6.59281
13.6593
12.6081
12.0296
12.5158
8.66901
7.80277
12.9643
5.35076
4.31801
-7.03684
-19.6345
-12.5562
-11.5256
-10.4374
-17.4718
-26.8837
-11.7611
21.2919
27.3021
10.6262
-8.76436
-20.5081
-13.1942
-4.15013
-8.35141
-13.6707
-17.6233
1.79816
15.9923
23.2664
32.6543
27.0956
6.00303
-24.1521
-42.7308
-21.0571
-7.21717
3.07484
14.4481
29.8178
26.2541
21.5306
12.8893
20.0154
12.5122
4.578
-8.12088
-7.66572
-17.2342
-18.8963
-20.7774
-24.9814
-25.3688
-15.6285
6.91369
28.3561
54.8307
56.4041
9.79239
-23.6467
-33.8208
-29.2636
-24.7712
-20.4176
-11.3687
-10.2705
-14.4291
-4.53933
-3.80164
-3.41753
0.86161
15.6629
33.1802
37.2803
16.3911
-10.9684
-31.837
-28.841
2.34811
15.2491
20.77
17.611
3.02607
-1.94371
3.89718
6.7371
7.33687
-1.82315
-3.84133
-0.142513
-5.12298
-3.29454
7.86321
8.94337
3.97233
0.946772
-12.0453
-16.0811
-12.9633
-9.25942
-9.4014
-14.4551
-14.1609
-6.10166
-1.45953
7.1915
17.9409
30.92
41.0575
21.3921
-17.0608
-27.929
-20.3456
4.09853
21.8626
11.0212
-6.03776
-12.2463
-15.6432
-7.03647
14.7855
23.498
7.22452
-14.1182
-9.63976
9.3601
13.0658
16.0177
8.32691
-17.4889
-12.0105
1.78008
-6.74087
-27.0945
-27.7142
-12.482
5.9223
5.65464
3.55081
0.34327
-3.38434
-11.2575
-3.32666
-0.0134179
5.75471
2.97954
-4.48831
-11.2764
-9.71061
5.59631
15.2038
18.6885
21.0152
27.163
14.8447
8.83412
8.94311
5.67408
-0.532275
-17.3067
-25.2531
-13.577
0.728828
11.7834
4.36197
-5.14553
0.0925374
-5.59952
-5.93345
-1.82442
-10.5135
-11.5836
-9.04655
-5.00065
3.1128
-0.460663
-2.58982
10.2886
8.60926
7.89443
11.8888
7.24447
1.97572
-2.58238
-1.46992
-0.729417
8.68896
-3.72225
-12.7228
-9.80886
3.3775
5.40186
3.90081
7.45498
8.36699
-7.30621
-17.4743
-19.9307
-12.0337
-4.16057
-5.72352
10.2654
13.2002
4.72186
15.2693
20.5584
4.70441
-4.68393
-5.06589
1.41823
3.06344
-8.4447
-3.4404
3.28313
-0.733699
-3.48756
-4.3881
-2.33475
21.9673
26.7067
-13.9414
-53.5732
-45.5171
-24.5999
-7.62773
1.68019
19.2137
33.6651
26.1476
10.8244
9.15674
23.9613
18.4011
-2.16033
-7.74281
-8.66792
-5.56398
-8.1021
-13.3612
19.1725
49.3363
31.5119
12.7532
7.44458
-10.7442
-37.9756
-70.0668
-71.8085
-49.3766
-10.1966
7.60357
3.52473
9.6646
16.4991
15.9509
28.4018
29.7622
24.2555
15.1583
-4.03224
8.84026
32.3663
24.4852
0.854139
-11.4162
0.203373
4.09127
13.9227
39.1493
39.9824
-7.72954
-57.8509
-75.0106
-66.1381
-39.9798
-16.6922
2.55794
18.7321
2.34167
-21.6131
-27.6455
-13.7342
-7.64167
-2.09727
6.10307
13.9628
33.3115
29.511
9.54784
0.467583
12.3095
32.374
34.3724
31.29
28.0181
9.06551
-3.73626
-13.2795
-6.93002
-5.89348
-11.7152
-23.3035
-17.4306
-1.81194
-3.53905
1.26883
14.9987
16.5243
1.51151
-21.1485
-17.1193
11.889
20.485
18.019
1.63578
-10.7869
-18.104
-21.4424
-11.9754
-7.5552
-15.6937
-10.3295
2.9617
9.25139
8.78423
0.520408
-6.69574
-2.90275
-2.59543
-10.305
-14.5991
-16.1996
-4.31208
-0.439213
11.7753
37.6905
45.5071
17.568
-21.1276
-32.5394
-13.3701
14.4561
12.7217
5.19683
8.1289
11.2415
-0.508201
-13.25
-23.2907
-6.22141
9.92301
11.3022
10.0229
11.0534
-3.67478
2.25372
27.2379
41.0433
18.4088
-2.77934
-11.9139
-29.5492
-45.8253
-14.1316
1.06781
-10.3885
-10.228
1.81458
8.74588
-0.480133
-9.26933
-0.81709
2.26354
-7.42009
-8.60218
-23.5518
-49.7641
-37.2932
7.0413
22.4722
21.6585
13.2409
20.6489
7.81619
3.52206
14.1742
26.6764
22.2875
30.4226
24.0908
23.8102
5.30793
-15.2694
-13.8184
-2.6265
-2.00393
0.489716
-12.2976
-13.9885
-6.47587
-6.34786
-2.14521
2.86151
-7.46788
-8.54797
-13.1449
-23.7768
-20.4238
-22.4822
-9.85144
17.583
30.1731
22.8818
0.193215
-10.088
-10.5533
-9.25338
5.47027
-6.10067
-10.7067
7.6808
15.6922
25.9704
21.3975
-19.0594
-31.724
-9.31134
-8.1197
-7.98005
20.9229
13.9599
-0.208676
11.936
24.4216
23.0873
11.6204
-0.270417
-9.26673
9.57596
10.5579
-4.61588
-10.0002
-12.5611
-13.8251
4.70812
12.3327
3.10523
-9.46974
-14.454
-20.5038
-12.0405
-5.78526
-12.7733
-11.703
-18.2797
-17.9298
-3.83067
6.36396
15.755
12.5056
17.3006
23.7678
20.1502
13.9659
3.89475
-2.45932
5.49027
21.5742
3.49586
-19.921
-26.5062
-20.4558
-17.6406
-14.5596
3.3246
11.9687
9.752
1.19443
-4.51319
7.58829
8.69183
-12.3486
-28.7329
-22.7702
6.88616
20.2247
2.95685
3.95165
27.642
23.9291
2.01766
-11.8698
7.48578
17.4849
6.59402
1.99822
-12.8408
-25.3106
-19.71
-12.8781
-12.0682
1.12196
21.7319
49.8911
58.0269
13.4571
-14.577
-30.5794
-29.1962
-23.4666
-11.7713
-2.47164
1.39514
12.8081
21.0627
9.36538
2.97643
-1.97728
-3.23086
4.57792
-0.916438
-20.6573
-34.6161
-51.7259
-47.3763
-9.81754
25.5755
35.9175
20.5221
21.4757
16.7787
15.0181
7.04127
-8.71096
-15.5184
-11.7324
-7.55873
-2.50021
0.416637
-3.15651
0.647728
0.979631
4.70565
-0.168919
-13.6985
-5.06441
0.714798
10.7829
9.95581
6.7703
23.398
25.0528
-0.705877
-8.81003
-4.58291
4.35206
10.9149
20.2752
16.027
4.45567
-2.35893
-2.33684
-10.0312
-12.5439
-9.75169
2.15192
10.3384
-4.98928
-12.9629
-16.2778
-23.5164
-18.8568
-4.78763
6.53754
12.0061
0.894401
-6.6843
-9.74046
-27.4537
-28.2577
-15.852
12.9012
44.1309
57.5675
26.8399
-17.6948
-20.322
6.08752
9.29483
-0.78511
-3.57249
-1.31075
-8.07041
-21.1624
-12.1688
0.458996
-17.9206
-9.0943
8.4123
25.6522
21.8497
13.0879
-3.42083
-18.3005
-2.44045
15.7665
-1.64759
-19.6215
-14.627
11.1874
18.141
7.06364
5.03127
2.57948
-13.0747
-4.59473
9.66162
-0.145456
0.763193
1.397
0.162603
5.9183
4.4849
12.1821
19.6415
3.4363
-8.7861
-7.75008
3.71101
13.9787
3.88192
-10.228
-4.85658
-2.36078
-9.29977
-29.379
-11.8357
5.2439
8.6375
-3.08972
-11.8861
-18.0833
-27.7183
-37.1529
-40.6149
-16.6372
4.72147
13.2425
22.4507
14.2975
8.93598
25.3531
27.3358
35.7239
36.1533
30.9648
19.6465
8.84999
4.67818
10.7989
-6.14277
-19.4249
-23.6169
-28.6909
-23.2227
-16.6255
4.30228
4.84221
-16.4277
-12.3815
12.4469
24.9571
19.2877
8.2286
0.717614
-5.62288
-27.8993
-32.2334
-19.1909
-14.0056
-4.44869
-8.02161
-5.3155
9.64611
26.8846
28.8546
8.89592
-6.50464
3.38252
-1.55079
-5.40893
-8.25178
6.16165
11.5273
-5.8736
-7.89282
7.05995
32.3131
18.4925
-11.6504
-9.05239
10.3394
24.0736
28.8633
1.00403
-20.7708
-23.1211
-11.4267
-10.6461
-14.6691
-27.2407
-31.4271
-19.7003
-8.53826
19.6018
36.7372
46.8135
34.033
2.46755
-3.75187
-2.5034
-15.9635
-15.4164
-17.7177
-19.1909
-9.25896
-6.97167
-8.21787
-13.2834
-12.2752
-12.8632
-1.27166
14.4877
20.5259
10.6056
0.429089
-16.5877
-30.3763
-9.83416
18.5285
28.175
44.9668
36.5505
21.3846
26.1606
19.1825
-2.72566
-8.73614
-1.31935
3.09503
7.59256
0.309205
-16.0568
-16.9654
-16.4219
-23.0208
-24.8293
-16.6274
-2.97495
0.402056
-0.0187313
-14.3656
-24.7101
-16.8275
-6.12019
8.32284
7.17184
3.03578
8.60957
-0.142116
-10.4958
-4.81574
12.0741
-11.2113
-31.8806
-3.48179
34.6592
46.4495
29.0022
23.1709
30.9645
9.52817
-2.37115
-5.55052
1.36508
6.35259
7.19766
-7.92943
-7.4173
-3.04036
5.24204
-4.07482
-22.8974
-5.90933
22.4261
7.33297
-14.6059
-20.054
-14.8704
-24.0612
-40.4239
-28.3647
-10.9495
-4.00155
-23.1477
-15.7689
-1.60572
17.0844
24.4856
23.7721
18.382
10.9342
12.3305
12.9287
18.587
29.5627
23.5539
-6.64442
-7.75142
0.010769
2.55393
-13.2695
-14.9314
10.1818
7.36498
-16.3908
-10.0282
-2.71403
-4.18971
8.19022
2.82513
-15.6732
-16.3187
8.15447
27.3344
31.7524
24.1487
8.7882
-5.17176
-17.3246
-24.9624
-7.73017
-6.82653
-23.3464
-19.2338
-15.3639
-0.344633
0.760439
-13.1682
-1.82097
11.8005
12.1267
4.31704
3.80588
0.823364
-16.6641
-36.0126
-26.4818
-11.1148
5.68879
17.5122
29.2742
45.7751
28.9566
10.3852
8.87641
0.790469
0.244298
0.65604
2.47404
28.7347
26.0869
12.2611
5.58155
-13.1667
-37.0869
-39.836
-25.5785
-7.24089
6.17267
12.1364
0.414031
-14.1926
-14.9959
16.4076
21.4257
-3.04949
-12.1403
2.72828
-8.22894
-34.8051
-12.6838
-0.224846
-5.56952
-8.47954
3.57559
14.2275
19.1052
8.27482
-9.92525
-23.6135
-21.7811
-7.06238
3.17306
13.8856
48.6523
69.115
58.6052
2.3325
-39.2921
-32.3501
-12.0567
6.11793
9.41544
3.31201
-7.08763
-9.05198
-10.125
-21.0823
-27.1545
-30.1788
-9.49947
-2.80069
0.756941
2.8509
1.41095
18.9566
20.1671
16.0011
15.7507
18.0006
10.1977
-4.71306
-11.961
-8.66506
-0.942941
4.34301
8.44646
21.2137
15.897
12.5887
28.6309
27.6831
-2.76931
-26.5132
-41.6984
-45.0467
-35.8921
-17.9001
-1.54637
-2.80083
-6.68319
-10.3612
-11.9254
-3.69103
6.53455
7.63354
11.5401
12.9288
27.1623
30.0688
15.2125
-2.5031
-16.9145
-23.1897
-25.0938
-37.6179
-33.226
-2.02061
9.23665
14.6549
18.2373
25.1749
23.1388
28.1561
24.2807
21.8758
18.7753
25.8304
21.8034
5.51614
-28.624
-31.5182
-11.5957
-0.548452
3.03361
7.87597
-1.55114
-16.6533
-22.2454
-9.58412
-21.4271
-38.8795
-23.5514
-18.9831
-15.9636
-1.74693
4.40563
3.19194
3.71453
6.2067
14.7563
12.0429
10.9303
8.46011
6.02847
9.4736
11.6686
18.531
24.6623
16.6605
23.2705
29.1766
14.3705
7.75189
-1.29121
-11.4406
-24.1116
-30.1829
-23.9378
-13.8131
-3.29605
-3.78846
-6.67117
-11.7389
-13.7731
-14.3634
-8.1185
3.17672
0.789094
-1.56799
6.06833
-22.5858
-24.4082
-11.2751
1.33428
14.474
29.5172
24.2768
9.7787
8.74665
15.0546
15.1234
6.01171
23.9442
20.1723
-7.8001
-23.1551
-14.2923
-14.2566
-20.8134
-20.5681
10.475
8.56804
-2.15967
15.3984
27.6968
-1.24368
-15.0097
-8.71802
-4.10073
-9.02407
-17.4656
-16.1396
-21.3007
-6.58545
10.7277
26.989
20.1106
6.27752
12.3128
22.1152
15.6602
-0.540571
-6.71962
-18.8608
-30.7999
-12.2249
-11.9425
-7.42195
23.3775
20.5836
7.6819
14.1002
4.28858
-5.14711
-2.28433
5.3222
-7.30348
-4.81006
-1.36047
6.58407
17.7621
3.28803
-10.2635
-8.41317
-2.91061
-5.11535
-0.0490747
-6.80055
-23.3963
-37.1436
-24.9563
-10.7282
-1.62268
12.5357
17.6841
9.06485
15.4548
29.7021
34.9924
16.5605
4.56876
6.53669
-10.971
-15.7944
-8.50005
-4.15972
-1.22754
-3.50283
-5.82024
3.44165
1.83409
-5.30134
-6.65468
-17.0797
-13.1576
-12.8708
-37.7413
-39.0805
-25.102
-13.7618
0.212137
28.2142
64.4623
53.6742
18.3948
12.1718
19.887
19.9081
20.3404
15.1125
9.54752
12.1407
5.96764
14.6294
14.4641
0.0623853
3.92248
-0.0281867
-9.03916
-21.7003
-38.3621
-44.9803
-49.9003
-36.687
-23.3751
-22.8803
-20.126
-4.41101
-2.19059
-11.4631
8.26566
24.8345
8.73446
-5.25654
4.36137
24.2114
23.3547
12.6968
9.98853
6.97381
2.27562
6.54266
10.7528
13.7593
16.4745
12.9644
-7.64887
-19.5315
-22.2558
-12.8217
3.40015
18.1933
8.91788
-12.6038
-18.7798
-19.9002
-0.270265
22.1579
-0.832463
-6.06789
12.335
10.1291
17.1121
15.7532
2.25672
0.265611
6.03405
-0.609473
-14.3007
-12.9548
-11.3875
-22.7441
-9.97425
2.63316
-4.44333
-0.45955
4.94293
3.57896
11.6529
8.27599
3.13902
10.1861
-0.485608
1.38454
13.0958
12.5415
0.46872
-20.9818
-21.0504
-1.00744
-1.48304
-6.60117
10.0481
31.0697
43.6042
21.5554
-14.1882
-33.06
-27.8582
-5.13735
-8.08293
-14.01
-12.4679
-13.2975
-15.5399
-24.1492
-10.1138
6.80292
14.7581
3.92139
-9.75647
-11.282
-10.1932
-7.29424
6.53869
28.4129
35.3051
24.1911
0.804037
-11.3089
0.463301
10.2657
15.6155
3.66932
-3.5576
-2.25901
7.09878
8.11162
0.984291
8.45503
15.293
2.36064
4.78233
8.22249
10.3826
-4.89709
-10.4265
-3.36505
-1.44421
-1.46953
-4.45451
-6.78096
-10.1404
-10.666
-19.8241
-14.4254
-3.65538
-20.1605
-18.5211
-3.11028
-9.65362
-18.0486
-14.7164
-1.98659
10.5523
10.7156
5.04464
17.0741
22.8919
21.6034
17.9577
7.1249
4.37761
0.620178
4.57687
4.39554
-6.73581
-1.55944
0.275169
-4.32346
5.87963
22.7792
24.0875
-10.5924
-40.8665
-26.8098
7.91502
10.0634
6.61973
6.95023
-7.43453
-23.3109
-23.4829
-10.5419
-3.45971
2.58899
9.20221
20.6143
10.68
-3.93771
-1.94043
0.40479
-3.69156
1.27731
-4.35517
-15.008
-15.1301
-10.5309
-7.85396
-4.88678
15.308
30.1049
30.3638
29.6703
30.5878
11.0312
4.25403
7.9656
-2.90819
-12.2245
-23.1278
-21.1938
-6.61615
-8.18044
1.68658
13.6077
6.4211
-5.76677
-12.3328
-15.4795
-17.6725
-23.0329
-28.3332
-17.4984
-11.1153
22.2278
58.207
65.4578
37.0715
-1.3425
-8.13702
-15.4745
-35.6891
-36.012
-40.7459
-25.7452
-23.6155
-29.9483
-10.1949
6.25039
17.851
44.1901
57.969
53.9104
49.2159
9.69117
-56.3481
-66.8787
-29.4561
-0.576062
-2.84105
-3.60222
1.65369
12.2431
7.7004
0.690483
13.7266
24.5084
23.9462
21.3865
10.9457
13.7594
7.93697
-14.793
-14.6155
-2.37924
8.11901
4.45326
2.93939
6.96652
11.0569
9.07116
-19.8158
-24.6923
-22.0984
-34.9495
-17.0173
13.8741
18.675
3.19168
-24.8513
-27.456
-11.9142
-3.11446
-15.6285
-11.183
3.58896
6.36455
0.158158
3.10087
7.89042
10.3233
23.2289
28.2566
23.4266
19.494
4.81361
-21.8591
-22.8352
-14.62
2.58102
8.34102
15.0332
12.007
15.652
7.85813
-7.96016
-12.5727
-6.90331
-2.05343
0.313245
4.93925
4.19104
-24.617
-33.3653
-18.9501
-13.5166
6.95034
18.9684
15.4979
18.9661
-5.13205
-6.01865
15.1883
12.9191
-2.49277
-22.393
-25.0625
-5.2626
0.564441
23.6694
40.316
34.1429
23.4785
8.63832
-4.89715
-5.29675
-9.17788
-6.13296
-4.38301
-4.43519
-10.59
-35.8737
-43.4602
-22.9298
-0.287128
15.0053
15.3566
7.26051
7.87545
-6.20808
-15.2543
-15.3401
0.481998
13.6707
2.96571
-18.0716
-15.9172
-21.9546
-13.2476
-4.89721
0.350124
22.8537
43.8738
15.7562
7.21159
17.1046
20.5716
19.3803
18.2635
13.0202
15.8335
3.2627
-5.7703
0.361267
5.5354
7.19364
-0.242575
-12.5082
-22.275
-27.9986
-16.6086
-10.7624
-12.1742
8.68331
27.4512
35.2251
15.271
-26.1367
-39.8723
-38.9227
-37.7464
-32.0961
-26.7951
-10.3677
13.3899
29.0533
17.7569
17.6925
16.0275
13.3005
9.13542
-2.31008
-11.3153
-16.3816
-12.6319
-21.062
-6.65386
28.68
37.9812
22.5572
7.80489
4.17123
6.50502
-9.42274
-6.22987
6.27667
20.0568
10.7904
7.06336
10.4413
7.60897
-18.0443
-25.3253
-24.6265
-20.1004
-2.53976
3.84616
9.71003
23.7557
20.9425
-6.97312
-4.91285
3.11972
6.41119
9.52358
21.1845
13.1012
1.2027
-12.5485
-20.0869
-23.7115
-25.1595
-35.4893
-24.6774
-10.8682
2.54422
5.87724
-5.06871
-16.5867
-12.8861
2.50203
23.0988
46.5326
56.1452
25.2997
-27.4809
-61.9294
-58.6258
-27.4323
7.58215
21.7165
36.4503
55.2996
62.2104
39.0033
27.8675
1.52091
-26.0218
-27.9916
-31.4094
-27.2003
-31.8547
-41.8584
-37.2916
-11.5444
16.2121
48.3638
61.4603
49.9381
27.2217
2.3038
1.89955
-5.09121
-18.4982
-27.8939
-33.8456
-14.0384
-0.279903
-6.12298
8.84607
9.70445
-2.24824
-24.4198
-33.0308
-39.135
-24.0675
-9.48871
3.97811
14.2515
15.1667
24.4146
18.0711
8.16778
-2.6971
-7.74942
-3.62053
-13.9742
-11.9383
-9.79302
1.40516
5.73283
23.1799
53.8281
59.0857
27.8556
4.25433
5.10471
9.84731
4.5024
17.1577
37.5095
31.913
-13.8287
-43.4217
-50.3538
-48.7835
-32.3427
-14.983
-6.99293
-8.1555
-3.85866
-10.0467
-19.4758
-19.687
-2.14282
6.57063
4.74928
-1.53003
-7.88626
-17.0526
-13.4509
-20.1774
-6.1904
11.0359
17.0764
20.9351
30.335
32.0227
10.2919
-2.86185
6.07558
7.90408
1.56922
-1.63986
8.882
18.8338
21.0889
18.7044
33.5972
22.0033
-9.99634
-20.9002
-13.7018
-3.01968
-10.313
-24.1829
-31.6042
-30.7668
-10.3725
-6.72555
-10.3138
0.377157
-5.38191
-3.70663
2.86926
2.50413
-0.817437
-3.411
-8.55764
1.34961
-3.79927
1.82972
10.2262
15.8107
24.7856
29.5557
30.9876
35.55
29.3399
24.2135
19.0408
-13.0106
-28.2737
-19.0132
-26.5792
-43.8991
-31.2143
-40.7431
-37.1947
-18.3104
-11.4383
2.65302
14.1664
13.3841
33.7825
33.2933
13.7831
-6.64709
-14.9085
-23.386
-25.5414
-10.0479
7.36759
18.4217
33.4103
31.874
14.2928
17.2197
18.7719
3.62912
-3.77669
-4.74963
3.52095
3.4831
-31.5225
-35.948
-14.5568
-1.69495
6.3267
15.469
7.51798
1.68365
4.95174
-4.74479
-5.29143
-3.75585
-13.1439
1.9069
7.77952
8.73851
12.0018
5.06001
-6.65853
-10.9815
-0.2369
-2.99723
-3.13132
-3.11973
-11.9639
-12.1694
-12.2126
2.65971
13.4602
9.34828
9.37685
22.6953
13.6341
-9.87517
-27.5719
-30.2623
-13.5578
-7.7133
-8.55588
-1.44576
10.5639
21.7654
16.8877
17.0057
29.2912
30.7033
31.0421
19.7415
-16.7593
-24.3955
-27.687
-30.1363
-22.6685
-17.8682
5.403
23.9549
14.3315
14.997
23.9603
20.5154
0.65689
-18.3166
-32.946
-41.8862
-41.2439
-49.4124
-39.6302
-24.6468
14.3611
34.2332
37.4713
43.0715
52.852
43.1702
24.8684
2.57627
-5.5128
-1.18178
-6.02507
-9.31608
-0.719796
-4.37007
2.82482
-4.49273
-5.50399
0.203571
-2.25549
-8.37989
-20.5984
-32.6878
-32.2392
-29.7225
2.84435
25.6219
16.5999
13.7989
16.8529
21.8474
-1.74007
-23.267
-21.4674
-20.3859
-6.60509
10.7609
8.95712
8.33421
-2.92826
-4.18968
13.5864
15.0764
16.13
14.2527
-0.182768
-10.6428
-31.5785
-36.6744
-13.4374
1.22932
12.5639
17.6428
21.3956
33.6726
35.0773
29.6745
12.4665
5.48048
7.27495
11.4143
2.00038
-10.2195
-19.4446
-16.2107
-26.0324
-30.7026
-15.1111
0.024733
0.00794708
-15.0044
-15.2688
-6.39023
-12.3279
-23.5546
-14.5217
-6.28754
-5.53452
13.9532
29.1106
19.8288
25.7413
39.5644
21.5449
-10.198
-24.5243
-1.6876
15.8776
2.55922
-14.1963
-8.41697
-13.2432
-5.95594
0.818843
7.63009
-3.16679
-7.02557
7.90661
3.32685
-7.45406
-15.9069
-26.2161
-31.9753
-20.1681
-10.251
2.82546
14.7764
22.7203
36.3415
31.4083
13.3892
14.6306
8.91286
-5.23401
-4.47713
-4.42565
2.52612
-0.268374
-1.21889
13.8068
18.8035
11.7328
2.65972
12.3495
13.3651
12.4531
-8.62055
-32.8006
-49.1431
-36.8334
-20.6299
-5.95223
-2.94868
13.352
21.0588
15.8644
10.4403
10.8243
16.5755
4.97339
-2.01491
-17.7454
-28.3887
-29.0412
-18.6828
-18.6174
-8.90644
4.2736
3.4319
7.19671
17.0356
32.6359
14.9332
-2.7126
6.9368
12.8726
13.4001
-13.4902
-52.7428
-54.8595
-27.5503
8.11298
20.9712
25.8907
41.3786
43.0351
10.5639
-10.0116
-5.77909
7.40111
16.6609
16.8634
23.9179
10.375
9.14142
6.25616
-13.1638
-13.7561
-5.8048
-8.99909
-17.7566
-18.9537
-14.106
-10.3488
-23.8073
-26.4673
-17.4635
-3.54868
7.10041
2.63506
-6.70056
-4.72315
8.81763
16.9237
3.65779
-6.67295
-2.06821
19.5796
34.7452
24.7773
9.92721
9.80713
21.0255
11.1274
-10.705
-17.8416
-17.9027
-10.6896
-14.5335
-31.1027
-16.4895
-3.11572
-1.16436
0.433775
4.16235
18.0349
20.5112
-3.68491
-17.1411
-9.39062
-6.69102
-13.9769
-14.2486
-2.33554
3.12436
13.7528
43.3926
54.0977
31.4866
20.4811
-8.42742
-35.1645
-32.4048
-12.3963
-11.4647
-18.3086
-3.63121
26.9247
30.8035
22.1205
8.67743
-15.3529
-19.5265
-17.4342
-6.28969
-8.55961
-13.8448
-14.9804
-8.25826
-8.89104
-10.2072
-7.70428
-4.35279
-2.20616
5.59053
6.04368
5.65182
8.79544
2.63443
-6.8677
3.31699
14.5468
3.643
-4.16687
4.51413
11.3746
23.0459
23.9482
45.1676
38.1876
5.17257
-3.20367
-8.56248
-8.31035
-11.6841
-22.1222
-15.261
-14.3769
-2.76318
-1.07613
-7.76114
-8.13919
-18.9414
-18.7247
-11.0404
-15.9145
-31.1418
-27.5298
-17.8586
-0.476501
12.8529
15.2633
36.3044
33.8976
18.24
16.6563
6.46284
0.108346
-7.36971
-10.981
1.35974
15.3703
31.1074
44.2749
32.4623
1.17802
-25.6631
-33.8321
-45.1506
-24.0584
-2.9483
10.3219
-1.32804
-14.1366
-16.1824
-19.7698
-46.0029
-42.7954
-13.2451
22.3699
32.7404
28.7215
20.1027
17.0137
8.72605
19.4933
24.9868
18.2636
17.5493
7.66245
3.62933
-4.47395
-4.97978
-2.02237
3.03395
13.9992
28.0409
22.5498
4.14351
-15.2844
-23.5129
-26.9131
-33.2555
-43.3755
-37.9008
-24.5288
-22.0284
-16.0961
1.7208
7.59778
1.07393
21.8478
38.1354
26.4665
6.52626
-2.19095
-1.22305
-2.82373
-3.54904
2.10964
-3.0299
0.513129
7.99193
17.5642
13.9139
4.02517
9.3369
8.83615
-4.56971
-2.03733
9.30586
2.02921
-0.90762
4.1023
-1.48654
-28.4842
-37.6196
-31.5337
-15.4288
7.29416
8.47559
6.62853
7.75363
-21.0713
-17.208
1.0113
0.745965
3.74203
13.6364
20.9034
38.0651
17.1881
7.26576
19.8888
24.5088
26.5395
22.3715
14.0923
3.40604
-28.7179
-43.5453
-40.7286
-28.5008
-7.30949
-1.02995
8.79732
11.3066
-2.74354
-10.5977
-22.7271
-23.6906
-16.1356
-22.8119
-22.8044
-6.67927
19.2744
30.449
22.7233
20.7136
43.7088
37.4767
8.5976
-9.96138
-11.4479
-2.22761
6.9965
22.8914
7.71911
-15.86
-18.1627
-23.9986
-21.8574
-24.1695
-15.2312
-0.0518425
-0.431134
5.19798
10.3653
0.140486
-8.24529
-19.6847
-28.9775
-7.41362
-0.833056
7.66102
5.46419
-1.24688
11.5635
24.278
25.3619
18.4605
13.8947
16.781
14.5146
19.4381
10.7009
-7.51239
-14.533
-11.9384
-19.3549
9.60423
43.7049
40.3182
19.9596
-3.30498
-21.3775
-22.5182
-0.786798
-0.363721
-11.7756
-19.7085
-19.8282
-22.789
-32.2015
-45.0679
-40.2769
-44.0724
-16.2043
18.9449
23.1836
19.5187
17.2607
1.31391
2.60664
3.08814
8.74007
9.29661
0.687903
-3.64083
-9.6602
-11.3911
-5.10395
-11.7154
12.8461
58.2015
97.7754
77.1573
27.7121
-0.554015
-3.22488
-9.9761
-36.1667
-48.131
-45.4562
-26.3459
-7.1032
9.423
0.160436
1.23499
12.3656
19.5745
29.239
50.2467
10.0832
-40.6758
-59.9237
-45.1119
-26.9893
-20.6485
-20.7351
-11.0214
7.18076
15.1783
19.873
9.7039
-9.76444
-18.5731
-8.92781
2.71863
9.275
5.47373
4.81396
15.2691
34.005
25.8039
-4.90465
-4.54124
1.83669
-11.044
-8.90262
0.740112
7.42883
7.59834
1.7322
-0.443631
4.8795
6.65982
1.01793
-0.242457
8.01865
19.5708
11.1874
-11.6837
-9.22423
1.01701
22.2823
27.289
0.48531
-16.4775
-16.756
-18.0591
-22.2985
-21.5382
-5.09524
6.09251
9.75303
11.3455
16.2474
10.6444
-18.8485
-37.7661
-37.5372
-35.6819
-31.7181
-14.8611
26.8377
65.1402
52.5692
13.8603
-4.00472
-5.20437
-1.7282
4.64539
1.07227
1.69199
1.77316
-15.6716
-26.4196
-24.4625
-13.1363
-1.86506
16.0497
22.4649
18.2103
0.460929
-20.2422
-28.3593
-4.47464
25.399
31.076
21.6805
20.6237
-1.10488
-21.3506
-15.498
-1.49576
10.5274
17.9331
11.8462
17.4452
29.4765
3.12411
-13.735
-4.38259
-8.38539
-32.4301
-41.9521
-30.2688
-9.85661
3.74292
8.66902
21.3257
27.551
18.2611
-4.19836
-16.8515
-12.262
0.339202
10.1182
-3.09444
-24.2299
-20.5425
-9.36164
-9.30822
-1.87411
-3.00516
-5.62433
1.62689
0.331945
-5.71043
-10.3527
-10.3626
5.91558
3.4636
23.8223
39.1687
30.3412
8.20368
-1.86207
14.7185
25.8309
24.2113
-1.51174
-2.50702
4.8414
1.68995
-1.78547
-1.21189
-2.101
-11.2857
1.55853
-0.369567
-13.6882
-1.85773
5.53294
-9.36069
-23.4244
-19.5688
-14.5018
-15.3738
-10.2315
-2.95674
7.75546
3.70118
-4.23741
-10.9509
-9.79186
-9.07703
-3.70612
3.66972
5.38805
17.906
20.3782
5.24829
-3.5365
-5.0538
1.6788
-4.47673
-8.97831
-10.3683
-15.199
-8.79881
18.6557
31.3418
19.2897
4.44578
-3.18492
3.47582
6.9615
10.5014
4.78412
-6.78271
1.38096
12.3447
-3.38377
-19.5534
-20.1547
-10.1908
7.07869
10.9294
3.0693
5.83821
6.47984
-12.3457
-25.7023
-13.1382
-0.311429
11.8996
4.08121
-1.08711
11.3643
12.6423
11.1982
38.9432
51.3769
13.1932
-17.2713
-17.7461
-10.3872
-13.759
-20.7365
-15.6741
-27.3011
-21.3533
6.69115
12.5212
7.16455
-11.8942
-20.0066
-14.4397
-11.4128
-12.6013
-20.4645
-34.5058
-31.0209
8.72723
25.2369
15.321
31.6447
34.0177
16.1182
13.5073
24.4183
29.5789
23.8094
4.38713
-0.926621
1.01308
5.97908
6.84055
-1.71686
-3.79916
-2.27632
-7.45976
-24.9265
-25.6355
-11.6987
3.83576
-5.89361
-4.04577
10.3085
3.42016
-9.87222
-23.2521
-20.9669
-14.7453
-18.3951
-7.80144
5.99573
16.149
28.8503
25.0971
16.1473
4.9903
-0.447682
-0.923538
-1.33268
5.67204
-10.633
-33.1807
-15.747
-1.2177
4.77727
-2.64711
-16.8519
3.8521
21.1892
9.74651
9.18955
16.6716
18.2937
23.1019
3.41035
-10.9929
-1.31279
5.82062
-3.13836
-5.10655
5.0633
13.6224
8.99633
-2.59604
-14.8484
-3.83529
6.45554
-2.43137
-7.22211
-7.32987
-15.7118
-33.8634
-47.3075
-40.859
-30.9921
-10.9963
-8.19995
-1.36541
15.9952
10.6724
6.91726
29.7756
36.9164
32.0886
23.4642
22.4892
15.8915
25.4232
39.9673
45.1354
39.2172
33.2202
5.94191
-28.2464
-33.7642
-36.0145
-30.8651
-29.1149
-23.0472
-25.7842
-29.9611
-31.3479
-30.5385
-23.9743
-4.79207
11.0462
22.7899
21.1203
-4.20492
-19.9472
-31.3772
-34.0075
-31.077
-29.9908
-7.80569
19.0545
44.036
34.9355
14.1506
21.1522
30.609
29.4897
24.4704
30.8735
48.3097
40.5643
14.5391
-5.86582
-10.6499
-4.71682
0.596669
5.89691
37.6476
44.5994
17.7906
-16.2123
-52.8643
-56.019
-36.3275
-23.6822
-18.0372
-18.9499
-12.6354
-22.2388
-39.2183
-36.8612
-15.7446
-9.42029
-7.50134
-16.6699
-16.9208
-19.1492
-14.9457
2.4909
26.9204
36.4054
37.5983
43.584
47.1924
22.532
0.853458
-9.29949
-7.78364
1.48235
7.16361
10.0527
16.5368
24.0491
33.1875
22.1228
9.50097
-1.05157
-16.9625
-20.6729
-15.918
-4.9365
-1.93883
-12.6359
-19.4691
-10.9314
-5.69562
-0.517187
6.72637
21.334
2.17705
-16.2634
-17.4531
-28.1792
-32.9277
-19.2457
-20.9056
-28.379
-27.5306
1.9554
13.6208
15.1093
36.6153
58.4265
48.4288
15.8757
3.69141
8.24033
-6.64113
-18.7942
-0.482054
11.6411
0.809502
-4.24454
-13.2777
-16.1345
0.926544
14.6454
13.7133
3.7721
2.28
1.56396
-6.79303
-16.4156
-19.6306
-9.25312
-7.5505
-11.6672
-2.97382
-1.77075
-8.04736
-11.4741
-2.05763
5.56745
7.4226
10.1835
10.8659
21.4741
16.6342
0.86448
-4.87464
-7.61892
-13.0322
-9.16213
3.17293
21.1583
24.4562
8.58105
4.52199
-5.348
-14.363
-16.4293
-24.2245
-27.7965
-5.24155
13.7575
8.69541
6.6529
9.15873
7.94092
11.6049
23.8999
14.024
2.11593
-19.4109
-33.6001
-21.341
-5.1306
-4.39916
-5.80434
2.95049
16.2795
37.4012
55.5334
26.7957
-16.085
-20.7062
-19.0295
-11.5216
-3.81241
2.72602
-4.22122
-24.593
-30.3938
-14.4576
-1.25458
-4.55345
-7.14605
-20.4409
-14.5167
-4.98261
-0.896661
17.3216
27.3867
23.0473
25.5566
17.5868
-0.255327
-22.7173
-31.1313
-28.5654
-17.7619
7.83181
22.0592
29.3217
36.9974
25.411
27.6405
27.2574
11.0285
6.35544
4.66413
-12.1735
-16.7758
-16.9431
-17.3245
-3.85488
2.46921
10.1027
5.75722
-6.38257
-15.5936
-11.5799
-16.9114
-19.8563
-15.9851
-13.4099
-15.8272
-10.6638
-2.30351
6.88473
-1.93715
-9.90186
-15.8566
-7.68068
8.68234
13.9368
15.4789
19.264
13.5706
8.37056
2.14757
12.7705
16.702
4.37025
-8.25392
-7.96894
3.40244
10.7947
1.10388
-7.93715
-7.75361
-6.27617
-4.79467
1.53459
18.8398
27.5079
3.525
-5.63767
2.19406
1.21257
-5.61276
-19.9562
-21.1156
-10.814
-10.5833
-7.18573
-8.35005
-3.41342
10.2182
14.0237
13.3956
10.5709
3.93047
3.29568
-5.57276
-17.6857
2.41024
7.56988
6.47899
4.50601
0.397845
-4.06417
-7.63427
-4.61189
3.46149
14.3565
14.076
10.3252
6.02848
4.82812
1.61356
-4.41805
-9.49321
-19.2748
-27.3534
-24.5949
-23.5642
-12.1103
-11.4451
-2.36221
8.55393
12.6349
11.0345
1.62654
-0.931153
5.36134
-0.808907
-5.86074
6.5626
21.6588
34.1677
34.9218
33.2244
28.8879
15.4424
22.705
16.9136
-6.40985
-16.3107
-28.8527
-25.8912
-24.9006
-24.3272
-24.732
-21.5128
-38.7722
-35.6088
-6.49509
-4.29111
-7.00176
-8.61906
-8.45596
-2.89793
5.18331
6.30874
5.20826
20.6819
35.5
35.6501
27.402
26.1182
23.6248
8.84981
1.42282
0.127937
11.9322
16.8757
0.42541
-6.44099
-15.4772
-27.7632
-26.5646
-26.887
-25.5486
-11.5564
-12.7681
-13.2886
0.695971
12.0559
11.9079
9.75235
-1.81696
3.96599
20.9208
18.7832
6.36877
5.79509
9.81811
-0.585639
-3.62773
-4.01331
-3.40698
-1.35145
2.34949
6.87453
3.42504
-6.79661
-17.5793
-18.1303
-7.6123
-10.7272
-14.4617
-4.36346
12.7294
10.4649
3.55023
-2.77099
-6.62583
-2.81008
-2.24557
10.847
17.5082
11.991
5.96752
-1.69184
-8.31009
-5.58739
-7.37702
-3.013
7.65334
0.57044
0.892559
17.5461
17.7597
10.9405
9.55508
6.05782
1.2939
-4.87408
-20.5566
-21.0394
-15.2993
-7.29616
1.76355
8.48952
8.26781
6.62491
13.8655
0.318088
-11.5444
-5.13821
4.88801
-7.03135
-27.8624
-31.046
-19.5628
0.328983
18.0615
18.4295
16.8805
23.8213
8.85436
-9.2168
-16.7141
-15.7429
-8.24163
2.39877
-1.04927
7.58721
-1.61659
-13.9186
-5.33203
2.00184
8.86803
29.63
25.4611
1.49215
-6.40936
2.64528
-0.461659
-9.83718
-3.13027
0.0106267
-5.13252
30.2713
56.705
10.53
-20.8059
-24.6536
-19.5922
-2.26745
-3.18292
-17.8124
-22.5624
-18.6228
-9.80571
-2.28495
-5.85552
-1.00567
14.8894
23.1586
13.412
3.60974
3.33794
-14.2648
-25.0333
-3.42554
4.95589
12.9554
16.8385
6.18163
5.23993
10.7787
10.3905
5.97996
6.44421
4.33215
-14.9298
-25.5231
-18.8736
-19.7842
-9.1804
8.50676
5.25651
-6.85492
-20.7557
-5.39287
7.33958
6.88159
12.3368
12.3345
11.0687
16.3101
15.6315
3.58078
0.189396
19.0815
15.5286
-2.89798
-4.77317
-5.29961
-20.3878
-21.2242
-17.2568
-20.8123
-15.0988
1.46196
18.4927
13.4094
8.51796
4.81784
5.37201
3.78171
-5.69768
-1.01727
-0.257713
-7.8677
1.52938
8.58454
8.66496
12.1787
13.5612
10.0394
14.7862
12.3343
1.01522
-11.4718
-22.2711
-21.3329
-25.5543
-19.6972
-9.79516
3.88612
2.87031
-10.3283
-7.85671
-9.71631
-9.3422
-1.68639
-4.30705
-9.44691
-1.943
6.22386
13.4971
12.3062
6.31303
16.2543
25.4593
19.526
8.63124
2.3927
-12.6184
-24.2597
3.99941
21.0957
9.10331
-6.0704
-3.59131
-4.18439
-10.0204
-9.92008
4.00127
13.155
-3.58385
13.3031
37.5121
32.9029
8.27112
-11.9333
-9.10509
-12.3238
-29.1072
-34.0748
-41.2117
-38.3934
-12.4685
0.409593
-2.69605
5.04614
26.0579
26.6589
30.5827
46.0233
39.2036
0.507463
-21.1013
-29.8352
-27.6002
-19.6278
-14.7113
-7.11602
3.48697
6.43369
17.1155
38.6635
32.297
-5.59458
-29.4169
-43.7779
-52.2066
-21.4309
-7.08808
-9.37363
10.1984
25.9275
28.9715
19.1068
1.96874
3.93478
11.957
20.1573
27.7973
19.6572
5.42638
0.208285
0.467685
14.9205
9.99292
-9.29075
-24.6461
-26.4651
-19.7911
-3.66744
-4.29236
-12.7381
-20.0415
-12.0794
4.83694
16.01
19.2676
11.9988
-1.1033
-2.56957
-5.16045
-16.4589
-16.382
-6.14562
18.4288
47.5824
48.9756
26.4665
-0.1942
-28.8097
-35.5234
-31.8844
-27.8807
-26.1183
-34.7128
-24.0482
-10.7865
-3.83165
4.29616
6.19911
13.6509
13.6734
6.2532
-0.74511
1.20757
4.96607
17.8663
26.1485
21.6824
27.6298
44.8105
56.572
20.2244
-9.3584
0.0755813
-0.286329
-12.1254
-28.3892
-27.6406
-17.8968
-16.5569
-24.8777
-6.28517
4.59773
-0.187622
-0.426893
-4.16477
-10.7903
-12.3107
-26.5554
-22.8422
-13.724
-0.618995
1.304
5.49101
14.1867
6.49376
-3.47235
6.14958
6.15983
6.28683
11.3633
9.55864
29.3437
32.6406
12.2394
-6.4424
-21.9468
-20.3164
-19.4607
-15.7443
1.21066
33.2557
36.3317
6.56835
-8.9685
12.9283
18.2383
1.37584
-9.64713
-13.5985
-8.4387
-12.1918
-15.0387
-15.3648
-3.26907
17.9802
16.0738
-3.72317
-9.68494
-20.6839
-23.5697
-12.5152
10.497
35.8555
18.4448
-6.91017
-13.8707
-30.8861
-37.7528
-42.8025
-28.7829
7.14328
30.9183
42.4704
45.6781
29.7314
26.2919
37.6985
30.9962
9.90879
-14.6689
-32.6147
-29.2949
-19.1768
-21.3668
-11.87
9.78828
23.3916
18.3213
5.85914
-7.55247
-25.6143
-32.3866
-30.9583
-32.0574
-26.316
-14.4873
-4.06828
5.67498
19.2763
23.8898
25.3573
17.9518
1.73728
5.18499
3.53884
1.05257
9.60528
21.6422
30.1722
18.4397
-12.7318
-29.4847
-24.7361
-2.50547
21.0062
37.9981
45.9819
50.308
26.9621
-14.4553
-35.8837
-36.7339
-35.0309
-21.7156
-7.09145
-25.9514
-30.6241
-17.1477
-2.08475
6.58632
3.07486
-3.43263
13.8213
16.3266
7.09896
6.09517
-0.0282911
-23.0425
-23.0058
-7.41898
-10.9379
-17.8477
-16.5881
-11.4034
23.9716
69.7233
52.8555
17.7967
-8.53571
-27.3338
-5.43942
13.6351
-1.50169
-4.17629
-8.14844
-33.0649
-40.6835
-17.9854
0.804912
23.1956
43.1597
41.9704
46.0224
48.0132
14.6084
-31.45
-37.1234
-28.3565
-21.7599
-8.71002
-0.2927
22.4496
44.9215
53.9544
30.1086
-21.7951
-50.6521
-46.5009
-30.9262
-26.4699
-28.682
-21.0849
-14.5929
-14.8089
-16.863
0.582491
16.0872
18.6368
22.9081
27.9079
17.3713
-8.67587
-31.0681
-41.1629
-23.2771
6.64666
17.4113
22.0126
22.9188
19.5402
19.9313
24.3028
29.2277
21.7251
-8.45791
-18.3234
-14.7227
0.169297
6.11812
20.3603
56.9782
54.2443
1.29952
-53.2576
-67.5404
-34.0282
-7.29846
-7.13707
-5.85678
-4.686
-2.80967
1.88896
2.44251
6.70975
17.2
17.1443
9.09504
-5.49851
-15.3468
-17.2299
-24.9881
-29.4333
-9.104
21.6305
24.5482
4.49658
-4.30757
-9.91913
-8.87761
-5.01626
-2.72431
-6.4705
-4.94008
-5.63085
-1.14362
8.18873
6.2571
8.36065
22.7737
27.1687
17.0602
3.50855
4.80561
0.348116
1.29825
14.7324
-0.423972
-13.277
-8.19565
2.8338
5.65317
-2.13872
-13.2437
-6.1801
-4.57269
-11.5718
-1.73997
8.88752
2.15375
-10.8414
-27.0967
-24.6798
-13.844
2.05385
7.27775
8.30633
39.0788
60.4666
23.1538
-19.2664
-32.8972
-24.6216
-20.0479
-9.90125
16.4594
31.4159
35.9382
28.0138
8.77047
-20.9919
-30.4536
-31.3035
-27.7654
-22.9405
-19.8137
-17.8265
-14.9053
-12.1882
-2.27194
25.766
35.3815
26.9866
23.2654
10.4791
-1.08084
-6.99845
-11.1697
-26.0496
-15.871
6.42655
10.8824
17.8109
28.2733
14.095
5.51419
14.207
27.1857
7.67099
-3.77992
-2.62195
-0.512222
-6.92092
-6.34341
-23.173
-29.9667
-19.6308
-12.2639
-4.78775
-3.37415
11.907
-1.35224
-10.7136
6.06426
52.1953
89.2063
51.7405
-23.6431
-43.5029
-29.767
-22.1085
-26.1993
-20.5422
-12.6932
-3.79582
-6.16754
-17.4761
-18.3652
-16.9913
-14.0308
-13.3109
-0.913658
12.8219
3.68101
-17.6333
-30.8016
-15.3479
8.60707
19.5948
13.0298
3.34214
21.6255
42.5832
45.7519
22.6691
11.1509
4.71236
4.47086
20.5638
34.0811
32.4687
32.7994
9.57198
-8.45797
-34.1566
-55.7984
-48.5004
-26.9423
-10.9317
11.8727
34.3803
19.8714
-7.13323
-21.9564
-3.92295
6.28021
-8.22602
-12.9271
-5.82502
-8.42288
-17.2571
-6.6995
13.7036
14.773
8.48674
-11.3549
-20.9282
-11.4668
-11.8654
-6.45134
-17.0186
-21.8782
-17.5084
-7.8849
14.5498
36.6937
34.9626
22.9109
13.5632
12.2183
8.0264
-13.369
-28.4327
-16.8698
-1.21379
8.04878
12.4262
11.5601
12.8885
12.2293
10.1857
-8.24507
-7.79908
-2.10285
-3.053
-9.16142
-1.10595
-5.33603
-7.63514
5.4395
20.5377
13.8261
5.95555
-8.77744
-9.13519
0.162228
2.23003
-0.674789
18.5819
25.9017
1.71952
-5.23457
-18.2281
-27.7754
-23.6105
-6.3182
7.24257
6.79206
-7.09346
-19.1906
-22.6353
-7.6562
19.5436
44.0404
25.6646
6.62234
-2.75371
-17.3395
-32.7102
-31.0428
-11.342
-1.16448
9.41504
26.8899
10.1162
-4.79498
5.38016
30.7588
35.8347
9.62488
-11.3799
-16.9198
-32.9165
-39.9137
-27.0845
-11.4118
6.1103
32.7211
62.641
39.3205
-12.5904
-19.7828
-12.116
-12.0973
1.68391
2.5153
-3.72325
-6.90501
-2.08631
-4.47196
3.22146
8.94951
-0.942015
-11.6242
-8.18898
4.4963
15.1571
23.6666
12.0459
-7.46305
-7.28621
-7.85086
-3.93323
-11.1356
-21.1225
-23.1805
-13.0993
-6.05274
-10.3667
-2.26149
-5.10622
12.7736
44.0707
49.342
40.6316
13.0188
-6.80481
-26.7017
-43.5703
-24.3758
-1.77738
1.27605
8.25963
21.4354
27.9273
0.755432
-26.7297
-32.8914
-20.1179
11.9715
41.7431
22.0483
-24.6213
-37.136
-21.7313
4.13485
0.229913
-7.71428
0.204367
20.6603
24.36
20.5673
11.8631
7.68183
5.8838
4.90237
2.83032
-0.703232
-6.64088
-26.0134
-34.136
-25.8145
0.497061
3.68125
-2.20675
5.05388
17.3288
20.6183
24.0864
18.2771
6.49505
13.4366
9.4102
-0.965055
-13.3138
-30.2047
-23.5358
-29.1716
-35.8714
-20.5069
-4.27697
18.9262
49.2677
66.5524
49.8318
6.19091
-18.4399
-14.0758
-20.8182
-31.9532
-24.6757
-16.0233
-16.6665
-15.1502
-14.5945
-4.77027
4.15083
16.8068
29.4113
29.5395
1.53747
-17.3146
-26.2847
-27.0591
-11.4673
14.9826
28.1352
15.9016
6.20589
-6.11378
-4.64393
5.96866
19.5138
14.4185
6.09628
11.601
15.2441
18.0836
9.41742
-7.29465
-21.7598
-24.6961
-18.7804
-12.9204
-9.81669
-8.66162
0.994003
2.64353
-10.9413
-10.0361
11.1685
14.2791
18.1002
23.6401
39.5602
22.6763
-6.23021
-19.2767
-19.1974
-18.4286
-0.811664
13.8257
5.82319
-35.5898
-53.9156
-19.365
1.86075
-9.96278
-14.3584
9.47901
21.1922
32.1159
32.6065
3.01517
-25.9805
-16.6196
5.59065
23.491
19.2512
0.383232
-6.63585
-12.617
-14.9774
0.0383522
10.1741
3.28743
-9.61811
-5.22512
11.2738
11.0378
5.30155
-12.7504
-23.0597
-14.3032
-7.14099
-5.48444
-7.51516
-8.50215
8.52201
46.2236
60.6775
50.8969
18.6275
-6.37253
-7.00732
-15.0522
-18.4808
-7.91362
-7.4499
-12.9072
-10.468
-7.76863
-14.0051
-11.8275
-10.6293
-1.91783
2.28127
-1.70431
-1.89493
-16.663
-24.5468
-25.49
-26.3987
4.86846
19.6926
24.1614
36.808
39.9547
27.2845
10.3677
-4.3297
-15.7915
-15.2891
-8.37615
-1.65463
2.07256
4.36303
2.24463
-3.51769
6.62976
3.81106
-12.4006
-3.77076
0.471215
3.14295
2.11741
-13.5698
-13.4368
-5.11721
-0.802795
3.03541
-1.04537
-6.03946
2.6089
-0.616301
1.53381
14.4701
30.3899
29.0788
-1.0148
-35.3227
-43.8769
-26.2238
-12.4078
3.82488
5.95772
9.16772
11.2209
13.1294
9.84219
4.05942
10.8346
27.0897
37.7882
33.9814
4.11562
-11.1047
-27.819
-25.5246
-22.7914
-31.2005
-12.7917
6.90566
9.02542
0.0561324
3.04349
10.5123
1.6341
-5.34224
-8.93856
-6.7204
0.917666
-3.82601
-22.1816
-24.57
-1.25767
15.7016
1.97036
-1.10879
3.96003
32.0831
42.5203
28.7513
23.9656
15.4371
-5.82748
-21.99
-32.7845
-30.9286
-13.192
4.29912
4.1587
0.411651
-10.4013
-8.8281
-8.00804
-16.6402
-8.01425
2.66919
18.9461
28.8049
15.5884
-3.30302
-24.7496
-30.0096
-12.4729
-1.1396
10.2864
10.3933
5.35374
8.61602
6.54406
8.36268
24.8404
40.0372
39.1985
11.8725
-2.9485
-8.5455
-21.5133
-25.3911
-22.8098
-17.5709
-10.7729
-8.18833
-5.24764
-6.29417
-9.05712
8.50946
22.9279
18.6428
2.01452
-19.36
-24.4398
-24.6772
-23.9063
-14.9424
-1.74276
1.26564
6.31924
14.8642
29.1977
26.6892
12.1165
1.7733
-6.73741
-5.26635
-7.79809
-16.8343
-6.61968
6.05328
21.1694
23.7451
15.1765
27.3476
29.462
19.5729
8.63428
-1.62881
-1.87338
-10.9945
-36.0329
-34.7541
-17.4249
0.629442
3.30731
-3.65164
-4.33384
2.48702
-6.56669
-19.0458
-14.9125
-6.38559
-7.6518
-22.6195
-27.5917
-13.0834
-8.39207
3.47552
10.4366
13.6768
25.6128
32.6348
26.7374
1.81311
-15.4248
-16.513
-4.98574
4.49174
21.7926
41.4187
43.0636
37.1584
27.069
24.3362
3.54044
-16.6638
-16.3882
-22.0404
-31.1844
-31.2807
-26.7775
-26.6593
-25.1892
-8.83915
0.13845
3.6486
8.98988
5.35539
-3.24445
-8.85807
-29.9925
-32.1024
-17.0257
-4.31959
20.7944
39.415
33.4935
13.0024
-11.0748
-14.6838
-6.73859
-1.30906
5.41269
18.2714
30.1985
25.8287
9.0438
-3.60194
-11.0425
-3.86052
18.3311
11.4051
-0.710725
-9.82243
-10.5903
-8.95446
-12.2934
4.20347
20.572
6.25519
-6.4404
-2.53707
5.63485
-1.07956
-10.7695
-16.8664
-7.00981
7.98912
18.0353
7.65854
-13.2965
-19.481
-11.2193
-19.0768
-28.8474
-19.4343
-6.63221
-1.26545
10.2919
18.6708
17.761
5.71553
-5.65532
-2.72791
0.606434
10.5509
20.1231
9.92527
-2.24974
-8.41419
5.39466
25.058
27.5795
15.8388
22.1136
8.74942
-7.1765
-22.1645
-22.3926
-18.351
-22.2107
-14.6022
1.08509
3.19119
5.06874
0.916833
6.05542
6.38559
-12.8894
-23.4957
-20.9363
-21.0117
-12.0277
-6.41938
-7.39196
-1.95937
12.3642
16.9677
13.0904
11.0962
12.8782
15.3551
18.0348
6.67427
-1.93591
3.27452
-4.70035
-4.58546
10.7404
17.1809
26.9397
38.0432
17.975
-8.72255
-15.2871
-3.89308
-9.8566
-17.1829
-22.4143
-21.6967
-24.2585
-17.2331
-2.5009
21.3449
12.0339
-6.62508
-1.71952
3.06289
-5.62977
-22.7007
-39.9949
-40.4846
-23.6643
6.32156
17.0832
36.3289
67.9202
65.213
33.5898
0.729752
-15.4237
-14.4625
-20.8659
-25.105
-8.68827
4.17067
-7.41901
-22.2592
-18.5583
-5.03725
2.79621
-3.44914
-5.5652
0.16772
-0.636028
-18.7598
-26.6711
-14.7711
7.29986
23.3264
31.7356
30.2488
21.2365
1.91824
4.70125
11.3781
16.0475
14.8613
8.8929
6.54428
-1.49573
-13.6573
-11.3966
-11.0407
-5.38363
5.91194
12.8273
21.147
10.8911
1.01837
-0.695806
-1.82187
-12.3239
-15.3039
-17.9108
-18.369
-26.2253
-30.1514
-24.438
-17.3491
-7.17345
-5.27992
0.863093
20.9118
23.5247
-2.92552
-18.4263
-8.32773
5.23128
17.7918
14.9184
9.21262
14.1783
17.6801
5.9836
-5.33666
0.681984
8.07029
1.15232
0.645601
4.43404
12.4342
8.74894
-0.11894
-8.62596
-7.32229
-1.97115
-9.76211
-15.125
-13.5095
-2.33509
-0.159972
8.14324
8.52325
12.5202
12.0444
10.1502
14.6802
15.7137
15.825
11.0625
-5.76041
-11.6015
-17.0629
-19.3833
-12.816
-21.0699
-27.9013
-16.8051
-8.19998
-0.0785453
-1.74269
0.0199369
10.5099
11.3987
4.95429
3.80831
-0.278767
-2.78073
3.31587
6.58065
15.8735
8.88534
-2.03958
-7.5303
-8.99013
-19.8307
-5.85785
25.448
36.738
18.9991
16.3445
9.04991
-7.5099
-19.3725
-16.6226
-18.0793
-9.05523
-1.71942
4.03742
15.6836
11.6054
-10.9522
-18.1951
-13.0114
-7.12263
1.37325
-4.44038
-9.57117
5.75479
23.0859
-1.95783
-20.1435
-19.3763
-8.30732
-3.22244
-0.747854
1.51098
18.1985
19.6557
15.6427
16.2902
11.7119
7.11009
5.98026
-0.990049
-0.807939
14.7178
21.374
5.98782
-9.31772
-26.8305
-25.7506
-8.91142
-0.543137
11.4392
13.5349
1.44079
-12.8402
-22.6909
-30.4238
-24.5787
-5.76398
7.51271
15.4149
23.2182
28.6541
3.37859
-25.2653
-32.9093
-20.9062
14.2233
22.4533
5.57038
1.5764
1.52639
0.846507
11.2234
11.0876
7.14213
0.0385446
-2.18982
12.0396
14.1854
4.75743
2.0359
-4.2477
4.6416
3.41975
-6.14389
-18.9985
-28.1963
-19.4648
-0.819109
8.57432
7.8901
11.9073
-2.5098
-3.78318
11.9649
31.414
23.259
-2.97599
-15.932
-9.33978
-17.033
-27.9173
-26.9579
-20.3928
-8.68973
2.53258
12.7398
15.8429
9.02363
-12.9922
-16.6664
-10.9891
-0.128945
15.173
42.1706
44.731
26.418
4.11394
-13.7812
-15.2815
-1.59159
5.0147
6.42324
12.363
10.2005
0.209866
-28.273
-42.5816
-26.6303
7.85538
25.5057
18.3799
14.6341
7.52217
-21.0515
-33.3909
-21.6371
-7.46406
4.23136
1.27891
-5.51677
-1.31787
5.88744
-7.41846
-19.5744
-6.3349
12.4561
19.0019
16.0438
9.28926
2.82704
8.38422
7.6601
-2.96753
-12.9554
-11.1596
9.89615
33.3929
24.1128
12.158
3.1359
3.92304
-13.3575
-20.279
-18.0938
-4.14263
31.4622
51.1963
17.8488
-13.0271
-24.7581
-25.3082
-23.9361
-23.6599
-17.4319
-8.3205
-14.9352
-24.9389
-12.6741
-1.72907
1.98599
-1.7674
-2.84901
11.8602
15.6989
4.62771
-8.32097
-13.4279
1.03845
15.4196
18.9613
25.5538
29.4953
14.8713
7.45886
2.79677
-4.67345
-7.80585
10.1468
9.07189
6.72347
12.5659
0.502478
-12.1535
-9.65466
-6.97528
-11.6648
-18.4451
-11.3668
2.9376
10.5038
-8.20731
-21.95
-13.3831
-11.6053
-7.00349
7.42642
13.5749
7.20155
-2.25006
-8.22126
-8.96269
0.44877
7.88426
6.96514
1.32412
5.96243
7.32653
19.4325
36.1324
25.9621
10.545
1.45829
6.07362
12.8809
-16.9888
-39.9268
-41.0117
-29.6188
-12.8543
-0.808921
-8.15098
0.711929
15.7356
15.0283
-3.56087
-3.46129
8.29444
0.892926
-18.7903
-20.7523
-13.8606
-5.44164
-10.3212
-10.55
11.2455
35.679
42.9372
28.1848
12.5477
6.17985
-5.10208
-5.043
-9.65138
-2.32038
10.0535
2.87286
-3.85346
3.21916
-6.31023
-0.142019
13.6192
15.923
6.2109
-12.6046
-15.0057
-5.42156
-4.77045
-0.302256
-6.65319
-17.3213
-11.2913
-7.49744
-11.0826
-8.64696
0.174212
-0.353513
-7.8647
-12.9318
-6.12208
-2.35834
1.64766
7.22252
14.2865
20.9967
20.3721
4.1462
-4.32486
-4.60437
14.504
29.6868
20.6411
-9.04568
-13.8228
-1.62542
1.50631
22.8469
19.6489
-12.1237
-13.5223
-6.78329
-10.5404
-16.0965
-28.1005
-24.6479
-14.9978
-3.3265
0.0262676
-2.34282
-1.7922
5.6109
13.8286
27.6919
23.8231
5.75464
-5.98583
-20.07
-7.73043
15.7714
4.28813
-7.75969
-7.93053
1.51671
11.8635
6.55368
4.97299
2.6636
-0.831751
-13.873
-22.5406
-21.028
-11.0119
-2.37953
10.5489
25.462
30.7714
11.155
-12.4801
-11.0814
0.455603
5.76781
4.92027
0.799666
6.98992
7.34644
-8.51389
-9.62536
0.0389357
4.83333
6.0346
0.628455
-2.32261
10.4246
9.8632
-2.07308
-2.88129
-4.39189
-7.07837
-13.6036
-18.909
-22.0987
-12.881
-7.2876
1.33598
23.6859
20.9445
0.698926
1.90896
15.6799
17.2229
12.0054
4.94604
-11.119
-23.9344
-22.1704
-19.6107
-7.53922
10.1762
21.4814
21.1064
12.8037
-2.81464
-21.4875
-22.8902
-32.9141
-21.6388
10.6568
26.29
-4.61073
-19.5779
-19.5227
-4.36342
10.1922
25.8456
38.6262
51.6606
36.6907
30.6312
31.4047
7.79233
-11.9353
-12.3113
-3.03076
-9.18585
-29.3112
-29.5475
-31.03
-31.3998
-17.7129
-8.45236
0.611214
0.812615
-10.6051
-15.0583
-23.4187
-30.3536
-12.7464
-5.03737
-1.83525
14.5849
11.803
16.7999
18.4369
15.2021
24.3661
27.1776
27.8376
24.3614
29.5724
28.5469
5.2091
-6.30153
-9.21357
-16.8041
-7.35722
3.05367
5.2139
-7.32281
-27.2033
-26.0481
-5.88089
-1.23447
0.123804
1.63978
4.76801
6.26661
5.69688
-6.89176
-16.0416
-18.1273
-13.6054
-5.67476
-4.89867
-10.5121
-9.30873
-5.17223
-7.42949
-4.72406
17.5137
35.7342
22.9299
7.24334
1.18326
-0.544565
8.87983
26.6785
20.1233
0.020943
-9.91378
-16.4885
-10.518
-16.9157
-15.5184
-8.08795
-7.65693
-18.3733
-20.9786
-18.6364
-11.3251
-1.8428
0.395641
-4.71978
8.54399
20.1393
11.0143
-8.91367
-13.4256
7.46795
33.3385
39.4408
36.5976
20.3437
6.62394
17.4152
26.5249
12.4545
1.63209
-0.714532
-3.86776
-15.5627
-6.854
4.26058
2.29127
-3.46267
-16.3157
-34.6491
-37.2905
-31.4995
-25.9343
-10.8692
3.13702
13.9074
10.3162
-9.20989
-14.3549
-11.0966
-10.4935
-9.94349
-10.9704
-6.31211
9.28897
13.217
9.88938
7.6258
5.38415
12.2756
17.4048
18.4762
15.0165
11.0961
-12.551
-13.4511
0.152375
2.97615
-6.46123
3.53301
20.9174
19.9221
7.40333
-0.641757
-7.65668
-2.07025
5.84026
9.0188
11.1969
19.7918
5.7992
-6.11878
-25.6902
-29.3627
-6.50404
21.9884
25.2889
3.20493
-14.0487
-19.5778
-27.4345
-18.1899
-10.249
-6.04515
-8.6204
-13.83
-12.169
-7.54278
-1.95357
1.53173
19.7443
31.7919
28.1258
2.58591
-12.2526
-25.4507
-18.5474
11.2647
27.4398
15.3503
0.59601
-1.12857
0.226531
2.72612
-5.61889
-12.4481
-4.67319
-7.20549
-9.02166
-4.44072
0.0883968
12.4795
26.7885
16.7781
9.84219
4.48616
-1.1629
-3.3935
-6.461
-4.14254
-1.62982
-13.0168
-9.17166
-3.51692
8.72517
16.3435
2.3086
-2.43327
-0.680969
-7.7791
-17.0001
-16.3041
-0.750992
16.378
11.3113
6.38633
14.8658
27.5141
3.53303
-14.8144
-15.1035
-13.8636
-14.0377
-4.43039
5.397
13.0646
-2.52391
-16.2756
-17.1968
-10.1905
-3.15303
0.236864
6.71143
24.5805
7.09343
-13.2929
-24.4105
-27.6208
-21.0264
-14.6319
-2.88472
3.61224
9.50701
23.593
31.4966
47.6235
31.9292
22.7102
24.706
22.3741
18.6999
-4.62719
-33.8838
-49.5179
-21.2803
15.7436
9.5974
-12.7697
-9.35762
-3.64158
-11.438
-6.44756
-10.3603
-19.8763
-20.9319
-25.8947
-7.60869
3.87928
0.332837
-1.5304
-1.27838
9.40128
8.36529
9.36451
15.699
5.50636
9.42156
23.2415
37.7027
24.431
8.0032
1.83871
-6.13499
-28.6692
-33.9681
-32.0892
-13.0456
8.99519
18.5221
18.159
12.7216
0.87793
2.6384
-3.01069
-9.14241
-6.16618
5.99085
7.92738
-2.85019
8.79296
16.5815
2.38228
-12.5462
-13.0661
0.20219
11.1767
12.4676
5.46506
-2.61574
-12.5503
-19.7563
-29.4475
-22.8122
-7.17078
-0.32553
-3.01227
-11.8258
-12.6085
-14.3812
-10.8225
1.91729
9.39918
18.6018
24.188
16.2507
13.5859
7.98562
6.45035
-4.56002
-3.99373
10.8167
21.0351
14.3214
11.3229
1.08574
-8.45578
-16.0647
-17.7078
-7.79329
-2.1736
-0.563779
6.44369
12.4697
18.1699
7.62726
-9.87665
-15.3386
-9.06223
6.32682
3.0826
-3.41875
27.5058
33.8081
9.94862
-8.94486
-13.5232
-2.5115
-12.8556
-27.7217
-21.6128
-18.9052
-16.8524
-10.3256
-9.29354
5.2494
19.685
12.592
4.58195
-5.19144
-1.59695
0.898836
-10.547
-15.7578
-8.99112
-2.73521
2.84227
-1.34591
4.6009
21.8134
20.8066
9.21782
-9.55713
-26.9348
-15.1073
8.22594
13.2293
30.1159
31.5837
19.1743
12.0159
7.05238
-7.64799
-12.3644
-6.80031
-6.95542
2.99698
4.31124
-1.08465
-6.54246
-9.2184
-0.843565
10.2622
7.68575
3.41622
-9.11329
-16.5111
-22.3599
-23.3721
-13.5649
-13.3732
-11.3024
-13.6986
-4.07493
21.1791
41.232
29.3113
13.7657
7.2824
-13.2279
-13.1194
-3.2714
1.85137
10.0132
9.80032
4.75022
-2.43824
-14.67
-9.79204
1.34345
1.23484
-3.91814
-0.6496
-0.954633
-5.24421
-9.42143
-17.2541
-8.09972
-1.18466
7.10047
7.58
6.0579
3.2704
7.96737
9.95306
-8.83068
-5.89555
8.10794
5.68901
0.613382
1.43728
2.05067
4.92069
4.17709
6.75191
9.68023
10.1203
1.43296
-7.91495
-5.64067
7.51766
0.0787408
-0.222358
2.59457
-13.9506
-11.2339
-8.02823
3.51545
26.3658
27.3147
9.2865
-7.29516
-15.321
-18.6909
-26.7869
-25.8918
-18.86
-12.92
-12.8514
1.39215
11.137
13.9479
4.5365
-5.08079
2.16264
15.283
6.08542
-14.9673
-29.3729
-15.3149
7.1815
14.2786
9.79177
13.3466
22.7734
21.4802
9.70821
13.6639
16.2985
7.94697
-7.27429
-6.48345
6.5782
4.05406
-0.5865
-5.55007
-4.68567
6.54072
9.18056
-2.33327
-9.5014
-17.3587
-16.0868
-10.3384
-14.141
-5.18123
7.6694
14.8884
23.4837
-6.10803
-26.5719
-19.8703
-9.21792
1.84156
6.75651
0.699105
-23.6927
2.66961
11.3743
-0.457211
0.928283
0.431651
-2.08301
-0.844478
-10.2078
-12.048
9.32366
21.0889
14.1474
4.07617
9.67928
33.4503
52.8383
47.2123
13.419
-12.6938
-23.8605
-32.4146
-39.304
-20.7116
-13.1253
-3.46925
16.7545
10.7496
-3.47288
-16.5504
-33.633
-25.9182
-6.86011
-9.12593
-20.4419
-11.5606
3.8208
10.3381
36.6196
49.6497
10.2127
-27.4565
-25.4232
-6.65354
0.118164
-5.5737
-11.7732
-8.79983
5.92615
23.4649
31.0077
29.5616
21.9936
19.6218
20.6795
2.53593
-24.8501
-32.8184
-37.7123
-29.3316
2.30045
33.5387
32.0844
12.7782
0.649131
1.38818
-7.33596
-4.63029
3.08439
1.36093
-0.0391302
-4.41891
-8.03965
9.52127
17.1224
10.0988
-3.88504
-19.9885
-35.5318
-24.9619
4.9716
14.8529
20.4292
9.55544
-17.3827
-25.4315
-20.1873
-4.61792
-0.240584
-0.301437
4.87507
17.2737
34.3842
33.6822
7.0035
-10.8809
-21.7157
-18.0381
-3.16585
-7.05948
-9.26945
1.28529
6.60794
0.717589
-0.841292
-11.6447
-20.4668
-6.00788
3.52432
9.17209
10.1957
-2.59106
-10.6597
-7.61729
5.98653
2.07929
8.80958
20.5188
18.3326
7.71131
1.88021
2.03886
3.70587
2.15433
3.42761
16.2509
17.0283
3.85632
-0.69934
-0.897233
2.59839
-5.60659
-3.94411
-10.5172
-25.3723
-19.3247
-15.1086
-12.2623
-3.87844
-6.9873
-12.5824
-12.8251
-5.27493
4.61481
13.8017
17.7781
26.8876
20.6763
-3.66888
-14.8526
-11.5491
7.81434
12.1009
-2.99499
-3.9013
2.27922
-4.36882
1.30053
3.3764
-2.81077
-6.73842
-9.66957
-15.7424
-10.3196
5.78416
14.8992
21.1301
11.8286
3.2913
4.7501
5.38108
7.81353
11.2104
4.31174
-12.3284
-15.5542
-1.37845
4.70936
-0.740232
4.41483
12.1652
13.6809
-5.51498
-10.3448
-20.7563
-26.733
-25.0898
-18.2673
-3.36607
11.125
3.95993
-9.01343
-8.60805
4.04534
10.1796
9.90244
9.40188
5.46717
2.73495
10.7623
13.9428
5.42653
4.30679
-0.832825
0.654268
-1.71311
-17.9104
-14.3959
6.22304
8.32023
2.7902
-5.03497
-14.6584
-8.41588
12.1586
12.3268
13.4975
26.5763
17.9656
1.00477
-3.34111
-11.2568
0.231024
1.84521
-3.25984
-3.54052
5.11984
7.68607
1.85483
-7.61753
-13.9913
-15.3669
-14.0419
-17.4304
-13.8119
-11.3518
-15.4226
-21.7986
-13.5843
-6.62451
1.61954
0.454355
7.84894
26.1837
57.8187
62.3992
20.4208
-9.28366
-15.0201
-22.2971
-13.6593
3.48971
1.51284
-1.67129
-8.71838
-4.77193
-4.33171
-25.8016
-13.7646
17.4952
22.7218
22.346
22.9699
20.7456
-13.6282
-32.8756
-32.4277
-25.9825
-9.20386
-2.01775
-4.07681
-6.38204
-3.71976
27.4438
38.6903
28.3172
17.8446
17.5947
17.4585
-0.734139
-15.9675
-13.4969
-22.1779
-41.6617
-34.1336
-18.6056
6.33398
17.1659
15.3557
16.5596
13.0382
8.11891
3.32316
-6.83599
-6.82015
-6.51138
-6.79359
1.5797
-3.59451
-19.8719
-17.8527
-11.7713
-8.95273
-1.84199
-5.31747
1.61143
11.8038
14.5012
12.7811
13.8755
22.402
22.1148
12.5397
20.1273
45.816
22.7577
-11.1355
-13.3486
-10.6083
-6.35257
-11.9725
-11.5273
-5.39642
0.863792
-5.47944
-20.6244
-17.688
-10.1271
-9.69489
-5.80847
-3.90822
-5.05341
-4.8471
-29.818
-57.458
-38.0915
-8.67294
7.78403
30.9223
61.7711
54.5554
24.4943
21.7411
20.0206
0.960712
-12.9646
-11.9014
-4.93267
-4.24464
-11.0253
-19.8187
-15.3609
-7.12549
0.728348
16.0013
34.3086
29.5275
15.9457
-13.4039
-39.0717
-31.8021
-11.7866
-13.0085
-11.028
6.1326
16.7856
20.6855
9.8969
0.548889
4.99107
11.762
8.9435
6.36229
4.03297
1.96401
-8.00029
-13.5698
-12.5029
-2.09916
2.44575
6.03838
-4.34447
-11.9209
-14.6062
-7.21422
8.11684
0.77696
-4.05022
5.38459
30.2053
39.7778
11.3168
-10.5953
-12.839
-24.6241
-24.7009
-11.8923
-5.90953
-4.79583
-6.9434
-13.4997
-9.3849
0.0485212
4.29888
9.72519
12.279
14.3168
1.09803
-16.5326
-22.7665
-25.6912
-6.3836
30.6887
63.9772
62.7593
29.9643
9.76869
1.55455
-8.02994
-19.5486
-16.8353
-5.54973
-4.77835
-11.0591
-11.7924
-13.6182
-16.7853
-12.3636
-3.07803
-7.44059
-5.86163
2.88987
-5.36996
-23.5577
-32.2966
-11.0406
6.94471
10.1872
12.3565
13.6225
18.2183
27.8868
15.6319
4.12889
1.1684
-3.27141
-1.8608
8.26463
11.2377
7.52709
-1.28975
-4.79365
-16.7546
-23.6669
-11.0817
3.17745
30.6859
38.0908
7.65172
-13.5006
-13.9922
-12.8487
-8.97024
4.7029
7.65881
0.767705
3.23865
14.1856
23.4082
2.10878
-11.2931
-13.644
-11.6815
-16.7014
-12.8836
-17.2065
-31.4332
-36.3926
-12.5069
14.5261
16.574
8.29635
4.25024
-0.799184
-2.07213
-8.03697
-12.5559
-18.1168
-18.0933
3.00611
21.3506
30.0717
52.0485
67.194
52.6193
13.8259
-9.42072
-13.4838
-10.9968
-10.8014
-7.212
-15.4508
-11.3731
-6.64177
-6.6483
-1.62244
3.15719
9.86314
9.15236
-14.5139
-21.6855
-19.7188
-21.4387
-24.5133
-24.0002
-4.58665
12.3804
20.8664
19.7635
28.5233
22.6641
-1.72558
-12.4254
-10.7972
-0.170411
23.9243
25.0527
-5.73068
-29.6771
-21.2222
-11.1555
-3.82923
-10.9953
-20.7238
-23.188
-4.93046
4.83332
15.6749
17.4857
2.4566
-0.785099
13.0386
10.3391
11.4355
10.0148
-2.03938
-8.95943
5.19478
25.1003
15.5417
-0.107585
4.8279
0.245294
-9.59187
-5.11075
0.480143
0.720377
-5.90511
-8.48996
-10.6129
-8.13542
5.46926
10.0658
3.38839
-6.32815
-10.881
0.615032
1.65714
-14.1331
-7.37035
4.25207
0.394314
-0.462902
1.56032
6.99983
6.15718
-4.57281
-4.84388
3.5408
3.25985
-3.61043
-6.23701
-7.4448
-1.03117
7.6232
7.37847
8.5172
3.09576
-2.2927
1.67749
12.4266
23.6333
30.9567
6.38368
-12.6654
-20.2425
-10.6003
-6.37251
-9.25626
-6.84634
-6.73902
-12.2091
-10.3446
-8.52724
-3.51723
4.97028
-8.45803
-1.2701
9.42005
-3.59376
-11.1168
-20.922
-24.8922
-6.52479
6.88961
13.7103
19.7316
13.3017
20.9517
30.001
15.5115
6.544
6.65481
6.20464
6.15412
-3.49398
-5.04564
0.537447
-4.20238
-0.817833
-1.23459
-9.88229
-10.3466
-0.371602
0.403401
1.51347
-2.96409
-5.97273
-7.77697
-3.71543
5.6479
-0.0586143
-9.73012
-14.8239
-17.238
-6.138
-2.17913
-1.55099
6.65096
15.2652
15.3424
-5.06794
-8.39372
19.528
32.8701
8.45733
-7.80281
-5.32018
-4.36435
-13.4407
-15.4634
-3.56222
0.565543
0.0731095
9.59598
17.7604
18.638
12.8065
-9.49162
-27.414
-22.3125
-0.399999
7.65264
-4.70178
-18.3923
-10.7287
-3.91878
-10.2934
-8.60704
0.892611
9.31032
19.6977
24.8927
22.8499
5.32753
-13.2753
-12.5441
-6.22731
2.6487
10.2034
7.34476
7.46704
-5.18622
-11.6313
-0.384909
17.0319
20.1709
11.7934
1.0556
-1.63533
-11.0563
-14.5062
-11.2181
-9.28887
-5.05634
4.5561
4.04169
-3.22117
-7.15175
-8.55944
-4.86355
-5.30337
12.7974
27.3032
16.2341
-2.33234
-12.4747
-3.2286
-5.31625
-16.4179
-12.2887
-7.15616
-4.87913
-4.59486
-8.86413
-7.63892
-0.295489
-2.36639
-5.62272
0.414547
3.3173
15.3858
19.644
4.42819
-6.48017
4.19699
18.7597
6.28697
5.93963
16.9035
16.6056
7.04596
4.90115
25.7072
19.4186
-21.8564
-36.3514
-23.6838
3.16282
17.2951
7.20948
-2.94757
-19.0463
-28.9762
-20.0773
-14.5505
-10.6751
0.119796
3.43363
4.00004
8.40258
3.60672
-10.283
-16.1834
-10.517
9.1403
16.4277
19.8116
22.6904
15.0832
-0.776853
-9.69864
-6.83132
-2.76933
5.11928
12.5662
10.9802
8.2771
-4.05754
-8.13437
-3.1412
-1.39123
-3.54469
-16.3006
-12.3288
-3.89745
1.29551
12.9766
8.55141
-8.01547
-10.3314
-10.2665
-6.07702
-3.42028
7.07152
24.5216
28.9852
34.0674
23.4302
15.822
8.89168
-21.7675
-32.7102
-23.9078
-20.3147
-13.7496
-13.685
-19.4764
-14.7616
-2.3991
-0.374913
4.45905
5.13459
5.42961
-0.280402
-10.4154
-17.0274
-16.6172
0.0487708
-1.20967
-7.72324
16.2585
27.1232
17.7872
12.6252
10.4962
13.7215
16.9437
20.6401
21.7913
25.0522
16.2101
-1.94571
-10.5063
-12.1104
-14.6507
-17.5828
-35.1725
-34.2123
-19.0572
-5.03925
7.39258
18.7547
18.7521
12.6661
-1.27151
4.11246
5.6516
-0.423895
-9.56378
-11.1235
2.33475
15.9324
9.84852
1.55581
-12.6125
-15.8388
-4.93327
-1.59998
-5.14346
-1.5773
-2.46807
-11.9588
-10.1479
-4.09604
4.44619
-2.23189
-12.0504
-15.0503
-7.44996
6.82825
-6.37042
-7.5462
6.81544
11.8406
7.83867
9.48869
35.1584
57.7901
33.2425
10.3698
25.0195
30.8119
11.2394
1.12987
2.74165
-18.2701
-36.6479
-43.7408
-45.0342
-40.432
-24.5452
-11.7474
0.736117
-3.274
-7.35381
-5.42309
-14.2244
-31.0842
-18.472
-0.688086
-2.53236
1.55085
16.7433
26.0783
20.9957
11.43
9.24515
17.8013
23.0718
20.7687
31.3695
27.6011
14.2639
10.7585
18.7846
6.02623
-10.0799
-12.688
-12.6316
-18.918
-18.3144
-25.29
-24.4474
-21.528
-12.3362
9.53687
18.0004
16.8605
17.4195
3.41651
-8.01379
-13.6937
-11.8213
-3.31723
-0.703737
4.35658
6.60883
2.71208
3.10118
5.46924
-3.29003
-4.19733
-4.69064
-7.29305
-3.73397
-10.1388
-9.62552
-6.08033
-3.93818
13.5058
29.3273
26.5102
9.60536
-1.83235
3.32387
-10.2299
-30.4227
-28.2216
-11.8347
4.09152
14.6049
17.4784
6.78769
-8.22856
-18.574
-13.5687
-11.588
-6.72833
4.72375
4.33153
-11.2625
-8.92689
11.8424
17.4018
12.3799
27.488
40.957
17.8709
-1.32346
-7.74943
-7.67977
-4.06895
0.863851
10.412
15.7845
10.5255
-3.24064
-9.57976
-17.8851
-21.9705
-16.3101
-15.8303
-9.73377
1.42466
-12.5068
-11.9548
-8.21048
1.59029
6.65299
3.31461
0.303594
3.43367
-4.23931
-0.606984
3.82338
3.60212
10.8999
15.3261
18.2615
21.5014
9.86398
-11.0387
-17.1292
-17.7417
-5.55315
-2.70453
-0.515161
5.18684
11.1956
7.14424
-4.22523
-8.29142
-4.72431
-4.42196
-5.45552
1.71468
13.0684
15.7748
15.6823
2.16648
-8.0409
7.49377
16.2466
0.999152
-6.4535
-13.1216
-15.5029
-4.16855
-5.62189
-8.9359
-5.87082
-3.60667
3.71928
-3.21726
-9.39013
-8.87018
-16.0841
-22.9411
-19.9287
1.09482
31.9995
16.7138
-7.23582
-5.14897
1.16074
7.46125
16.594
12.239
17.0542
29.1714
14.9485
-13.5942
-23.6503
-16.4947
-3.09338
18.5436
39.2433
28.2945
11.3943
-15.0618
-37.963
-31.4719
-12.929
-0.493574
2.19687
9.63709
27.8447
51.8193
34.4
-8.18264
-19.9429
-15.2427
-17.7745
-22.4218
-23.9626
-23.1714
-37.8371
-26.4597
-12.9135
-10.0611
-10.2955
2.26127
11.1579
7.23398
5.63431
4.88095
-7.48111
-16.8701
-3.07558
23.7461
38.6472
37.8784
28.0836
24.1101
18.3518
5.89168
-0.522061
-7.42541
-14.1852
-5.64256
5.22482
13.6195
9.08649
2.65172
1.8229
-5.88948
-12.7963
-21.9283
-17.1273
-17.9241
-18.1804
-7.30359
-4.32457
-5.11058
4.76179
6.39487
13.0102
21.6092
20.1976
21.8238
5.58059
-18.3429
-28.6063
-13.408
2.37126
-2.88842
-10.3756
1.6139
11.1091
1.93031
-3.6125
-2.2766
7.64936
6.27745
-8.29798
-7.0128
1.53973
1.31781
-12.9015
-32.1605
-27.1578
-2.79961
6.85566
15.8937
36.9138
40.6371
14.3318
-7.57287
-7.15814
6.50142
3.56468
-14.3579
-11.6389
2.28841
8.89749
2.79116
-9.79262
-11.1299
1.71959
10.126
5.16216
-1.09373
-6.18096
-13.3875
-27.9654
-18.5409
7.25529
12.9072
-7.52723
-4.77469
7.59587
17.3907
15.7537
9.75943
9.33088
6.84602
1.45634
-0.649969
-1.25764
-0.829262
3.52135
4.4538
7.07936
-0.0192943
-12.3454
-15.0461
-15.1351
-7.64637
5.29366
5.49988
5.33398
4.88741
5.87099
-0.4698
-5.57603
-2.96969
9.51949
9.75739
5.81098
13.1339
4.51348
-6.89727
-7.17697
-4.89546
-5.93608
-15.6238
-20.549
-17.7481
-14.7253
-15.6874
-10.924
3.18787
6.32406
7.65676
6.04964
1.75966
6.58499
4.09699
0.977218
-15.3949
-9.19489
5.2302
18.5066
28.432
20.6045
13.5406
16.3005
18.7545
24.7531
33.3054
15.7581
4.59413
-1.73383
-16.7546
-25.9496
-26.4666
-39.7855
-38.4661
-27.19
-8.96304
10.3711
20.1671
4.06683
-3.80276
-4.84502
-9.39185
-4.47399
-9.8362
-16.7044
-20.7079
-7.65084
2.99368
14.6512
18.8321
9.50208
-0.108356
10.3246
15.4346
14.1279
10.1662
6.24729
5.82274
15.046
7.12843
2.91703
4.66066
0.405009
-4.33911
-11.5445
-14.1456
3.7184
0.573829
0.76008
8.02588
1.50804
-8.9089
-8.15114
1.67978
-1.05296
-10.3488
-11.9254
-14.6965
-13.8818
-5.70861
7.72649
13.1606
7.93558
-0.0277129
2.93944
13.7921
25.0116
31.465
3.0433
-8.50414
-8.8725
-13.98
-17.7552
-17.8328
-18.5732
-21.187
-18.1672
-9.78171
13.1817
32.0785
16.6395
-3.66436
-3.84813
3.70228
14.2673
-0.0550775
-17.7935
-17.7598
-6.55135
2.48624
-2.72741
5.80068
11.492
9.96737
4.48873
4.86273
5.00033
8.20205
-6.40541
-21.2755
-1.73628
21.5472
20.3844
19.9891
9.34565
1.43221
-14.8072
-21.5894
-17.4032
-22.3606
-5.15589
17.6078
31.0709
52.7326
52.7199
15.756
-12.6643
-26.234
-28.9228
-25.661
-28.2793
-20.5799
-10.4352
-23.7113
-27.0611
-16.0079
2.46088
4.31146
2.32876
2.01973
5.3146
6.71398
-3.047
-32.6078
-29.9069
5.83635
31.9608
45.7503
29.729
17.5125
18.2657
24.1908
23.9936
7.26722
-13.7884
-19.1817
-14.4992
-3.31439
3.33419
-0.0359541
3.17064
0.709054
-4.58621
-8.15655
-9.49258
-0.222807
-4.07939
-20.4892
-15.494
-10.3074
-15.017
-20.9735
-10.8563
15.979
28.4891
32.9151
20.0014
7.62483
1.216
6.50625
4.49012
-3.13594
-7.48133
-2.79881
-4.63876
-4.1548
-5.39849
-6.86444
-5.07306
-3.6377
-3.31807
0.346233
-0.524036
-5.1663
-8.71313
-12.0397
-5.10176
-3.13028
1.9893
3.99515
6.24299
10.9303
7.0832
-3.05873
-1.20388
4.46484
4.94689
6.81293
15.1455
33.6562
37.8915
0.185668
-18.218
-13.5266
-7.56093
-12.5233
-20.2921
-24.3934
-22.3352
-21.0113
-2.1154
26.5077
44.0893
22.6561
0.0746223
-7.17394
-13.5111
-11.4033
-6.99
-8.61439
-6.74138
7.19077
10.2593
9.07979
-8.80334
-13.7564
-7.22642
-3.1926
2.22355
8.20872
1.07935
-16.7754
-18.4539
-6.63452
-1.99697
3.32975
10.419
14.1007
6.21807
-5.62488
-5.41033
6.152
2.48042
-0.485756
12.7381
19.4972
15.6637
15.5023
11.9473
10.3215
-2.26771
-16.4714
-13.6043
18.4846
42.5157
24.1781
-5.14136
-20.3556
-20.2196
-14.663
-18.8359
-23.394
-22.0428
-15.0446
-9.50604
-1.12668
6.18368
6.56644
-4.25923
-14.4703
-2.27557
9.41104
13.4309
5.46778
-22.2394
-26.0451
-1.21611
10.9556
7.34942
3.23565
8.84299
8.28346
4.42801
1.05761
3.13222
8.69351
7.19219
5.93332
13.8496
14.2025
6.10996
3.45162
-4.44294
-6.32968
0.831927
14.3523
14.786
-5.09607
-20.0977
-19.3393
-16.1583
0.795025
3.79726
-4.34611
3.48554
1.83796
-2.77245
-3.33366
-6.85179
0.995187
0.398875
-6.59798
-11.6413
-15.774
-5.83509
0.67413
-1.20118
2.92506
7.52768
0.699745
3.03759
4.80333
15.8527
33.0835
30.2197
10.6343
-1.0035
-5.82161
-22.9144
-26.5316
-17.4797
-11.8484
-10.3758
-2.68614
16.0415
18.7845
15.4641
2.48058
5.89333
10.9699
3.67074
-0.0309159
-1.94139
-8.25709
-8.08208
6.24212
1.26439
-4.03677
1.40429
1.38025
-2.31234
-3.31867
-5.72904
-8.07513
-19.9666
-16.8983
0.974303
10.4354
3.82953
-1.65275
-3.57003
-5.40169
-5.37136
-10.57
-9.01856
-12.7593
-6.58755
3.44198
9.7103
23.649
44.0966
40.3049
17.8304
-5.22002
-10.0465
-13.8085
-14.9051
-0.184686
5.34787
-2.17609
-8.12255
-19.9328
-12.7096
6.01433
5.0489
-4.10539
-5.03798
-3.6556
4.11298
6.63762
-11.6719
-14.8408
-6.77595
3.43697
5.45219
4.30902
-0.509319
5.61201
-0.165863
4.4729
8.38824
12.3337
7.7955
1.9155
-0.422025
4.64263
5.29398
6.17727
15.2535
19.2685
18.6516
4.9998
-10.8459
-17.3208
-27.6601
-18.5109
-17.2405
-17.9025
-9.05611
-1.7038
3.39672
12.37
8.57124
-4.37081
-4.58814
-0.358538
4.93953
6.49699
-0.296938
-8.13507
-16.9149
-6.03095
-5.52624
-2.10227
8.8033
6.81581
2.86673
0.308178
7.83055
13.3793
12.2677
-2.27815
-5.24013
3.82225
1.51773
-1.69077
-2.01829
-3.65211
-3.56997
-7.21058
0.0256598
10.7899
31.2964
25.7173
3.71115
-7.49587
-6.69443
-8.53363
-7.07596
-4.29807
-8.96256
-6.80523
-1.0168
0.291218
-1.4789
-4.36707
-0.444915
2.86242
-4.27165
-8.89908
-10.6772
-15.2495
-11.4623
-1.42
2.39493
-1.43328
-1.08974
2.04897
2.7842
-3.0137
-2.943
10.8802
19.8685
15.9538
15.8213
20.5369
11.6853
6.48937
2.34647
-0.881555
-0.0568663
-12.1219
-18.8763
-23.1644
-8.22367
3.13182
3.19573
4.68863
6.18169
-3.89842
1.8302
3.82642
-3.35507
-4.7466
-1.34628
19.7201
20.0291
1.4185
-8.24641
-15.3828
-17.831
-13.606
-9.99477
-5.30338
3.94157
9.89691
5.86694
-4.59807
-4.76943
0.335715
4.55392
6.25089
-1.2289
-6.98543
-3.00696
-10.7177
-15.0101
-1.10635
2.84942
7.28041
6.00205
5.8747
5.67845
10.3152
12.0908
1.96503
-2.39897
1.45047
1.53664
0.731462
-7.14967
-14.284
-10.5514
-7.06301
-12.0378
-2.62011
30.5206
59.1692
48.2492
16.1482
-0.460287
-13.1057
-20.6352
-9.48333
-11.8716
-19.8053
-16.9293
-7.74356
-0.608552
-5.09418
-5.57922
-2.51926
-2.99281
-0.0585903
-2.39007
-10.51
-18.6154
-34.1902
-19.9849
-0.519222
7.3996
16.0991
18.9729
7.88216
6.12204
9.85054
-2.63938
-7.13282
-4.29723
4.93761
10.4956
12.3812
18.1519
20.296
5.03936
2.78426
6.031
10.2224
13.0401
5.65351
-0.794959
3.5491
-12.1949
-28.8267
-17.8593
-5.40544
8.91266
16.9502
19.322
5.34419
-1.57673
-1.75728
-10.5222
-12.1589
-3.98555
-10.1968
-19.8185
-22.7926
-17.7044
-11.4966
-10.5341
-13.0076
1.30083
25.9035
27.8779
10.3785
3.80152
-13.8758
-18.111
-5.61611
4.24095
7.63154
9.73135
8.33476
11.1772
10.8705
5.14022
2.65033
-3.25905
-1.25326
-1.44021
0.199995
4.58186
3.12716
1.11312
-1.16055
0.619793
5.78899
2.22126
5.27227
1.05349
-12.6581
-11.3299
-16.3078
-20.1367
-14.6201
-7.98473
-0.11262
13.0147
27.9159
32.2355
32.2385
23.3743
-3.29513
-18.9241
-8.96041
-6.21574
-7.61374
-6.74837
-8.47747
-10.9556
-4.72167
-4.47587
2.40767
7.53737
5.3939
7.46563
-4.18223
-12.7803
-19.5226
-26.0725
-30.2169
-24.8714
-11.6599
2.03055
21.7522
35.9643
39.6506
19.4826
7.41643
15.3229
16.3081
5.12993
-0.445757
2.93416
-3.49558
-10.3369
-7.98488
-6.96364
-6.8552
-3.24089
0.0434445
1.25505
-0.644817
-5.31855
-11.509
-14.1473
-15.7668
-6.67324
1.70417
0.921164
6.34374
12.2574
4.98283
1.601
2.6535
1.68158
-4.66246
-10.0529
-3.7635
4.23751
8.77233
17.9965
23.9021
22.9395
0.937217
-12.4961
11.7058
25.8397
19.0608
-4.68796
-15.4055
-21.5994
-24.2648
-28.3333
-18.1832
-4.7871
-7.17988
-7.63083
-5.05839
-2.21484
-5.86474
-9.45727
-10.2316
-1.62028
1.32047
-2.11811
-16.8664
-19.2491
-9.76249
5.54597
16.4475
26.9267
28.9589
28.3137
21.6473
14.4986
19.6069
18.5093
15.6244
6.6751
-8.28743
-9.96009
-7.53554
-9.85757
-4.53833
-1.80818
-6.70186
-8.1735
-11.3106
-15.2831
-10.4697
-6.55875
2.26997
6.45273
12.1206
13.4173
15.6785
1.96895
-2.77843
-1.26494
-1.41076
-6.74937
-7.01833
-12.021
-4.27426
-4.01451
-23.4188
-22.6671
-9.9789
0.979129
5.21371
5.50523
5.58283
8.75521
-2.58301
-6.49972
-6.78194
5.24785
2.66538
-2.12948
13.1682
27.731
21.8987
7.57595
-2.58542
-2.79548
2.00987
-0.7889
2.12704
0.46918
-9.04415
-10.8835
-9.86535
-14.2748
-8.84035
2.88587
13.1496
6.18723
-6.94906
6.89116
15.7267
-4.75534
-16.4909
-6.83515
1.82331
2.73473
20.4467
26.0192
6.61177
-5.42184
-5.23544
-5.06645
2.44312
6.16041
-2.74938
-16.2377
-19.5649
-10.0552
-3.13117
-8.13054
-14.1467
-3.19147
11.8844
4.18944
-5.9529
0.937072
-3.29097
-10.5228
-2.04734
9.0495
17.8772
11.4543
-0.711792
-2.03956
1.5125
5.63852
3.32043
5.81496
8.86291
9.56396
6.94078
-2.69341
-4.95175
0.31813
8.61636
4.44497
-2.92366
0.288197
2.15441
-8.45844
-15.2337
-5.04454
2.76506
0.302045
1.75088
0.789816
1.52976
-0.751258
-1.64305
-14.6082
-21.6199
-14.2517
-8.25596
3.06176
21.281
30.5399
4.44092
-22.3639
-12.6685
6.13209
7.72759
5.05508
3.75249
4.22984
5.00837
-10.4266
-16.8244
-7.68205
-0.939883
1.35147
-2.72355
6.39691
4.9198
-1.09592
-4.01594
-7.08842
4.69691
12.5502
4.96106
3.86362
-2.6568
-0.919898
3.77175
4.39748
15.3004
29.7757
25.8658
15.4305
0.323404
-5.56941
-6.59797
-14.9322
-20.185
-20.4808
-23.8472
-17.4414
-14.5889
-8.44435
-1.22996
3.00442
4.16626
2.37893
2.82116
3.89844
0.419356
-3.41078
-6.36902
-1.14163
5.15659
6.85357
4.52926
2.10539
10.3759
10.4809
-4.72568
-13.6101
-7.80709
7.48554
8.49754
8.85857
23.3855
21.747
6.80994
-0.609151
-16.4465
-16.3731
-8.04311
-4.48142
-2.65742
-0.455862
5.9377
6.50289
-5.88384
-8.11432
-0.116739
-0.507108
5.78441
12.8085
17.3102
8.26207
-17.485
-20.7724
-12.8248
-9.22706
-2.14902
1.92352
3.72712
-1.01485
-4.90332
-2.21745
-2.64126
0.636743
8.62567
8.57517
8.82278
12.4442
0.838369
-18.5511
-25.4232
-17.5979
-3.5845
-1.78639
13.0269
29.7733
18.7738
-7.69767
-6.82143
3.28768
12.3492
3.71668
-5.57414
-0.801699
-0.839552
0.821213
2.68007
-2.81808
1.83981
4.78167
3.08284
2.44595
-1.5565
-0.203089
-6.80578
-11.7137
-0.406115
9.55294
6.4731
6.26759
-6.76492
-11.9651
-12.3493
-8.58947
-2.23658
3.01588
4.73662
1.51598
2.54556
-2.65403
-10.8283
-7.31153
7.10067
13.9339
4.57449
-7.6594
-9.53875
-0.238928
7.76606
2.10836
11.3677
22.5345
16.9344
-13.4992
-23.3539
-12.9913
0.48481
15.1754
8.40074
0.746019
-3.76126
-8.31433
-6.83617
-7.09546
-1.09201
-1.07921
-1.77702
0.381413
-7.11424
-5.80452
-3.54983
0.869506
11.3564
13.7154
14.4899
3.43511
-6.66513
-12.9897
-7.31609
0.338903
10.4641
1.11278
-9.19125
-4.70615
-0.403813
1.88682
10.8481
24.4143
19.5816
-0.632243
-6.97202
-8.53424
-5.95027
-0.737587
-1.45772
-3.6351
-3.36279
-0.644151
-1.36967
-8.41873
-6.11104
2.32674
6.94552
5.40456
2.25781
1.47789
1.48389
-19.2248
-24.5127
-3.48917
6.01524
4.76647
2.12565
6.06446
6.74989
5.17732
-6.81227
-11.8588
-3.69632
4.62564
2.71087
2.25433
1.15998
2.16081
10.1972
10.0905
12.6471
15.8875
-0.351185
-10.592
-12.8575
-7.94559
-1.77391
-3.3046
2.39834
6.82054
4.33662
-4.2621
-6.56696
3.67135
2.80662
-5.42402
-4.9416
-5.99576
-11.2197
-10.6299
-9.37044
-5.20035
4.78998
20.4541
4.48315
-5.44432
-0.867829
4.12019
3.33491
0.374484
8.40237
15.8314
13.2864
-4.8269
-3.56506
8.08634
7.88504
1.35737
-1.65425
6.0176
-3.42099
-11.407
-3.15943
-3.3879
2.1904
-0.177363
-4.4356
3.39347
-4.93449
-12.0402
-13.7122
-10.7351
-4.7592
1.2508
-2.0711
7.40308
2.71521
-2.13826
1.39419
-3.58617
-2.45153
3.53244
3.37502
4.83684
10.5188
6.33048
-1.76393
-7.84896
-8.062
-5.09419
-0.959222
-2.81445
1.29189
10.7444
-1.39603
0.626976
20.9312
21.758
8.56451
1.47579
-5.21211
-6.29195
1.35689
-4.4667
-8.26317
-3.88915
0.769561
-2.03957
-2.29245
3.26025
4.12738
11.5634
3.20319
-12.7425
-6.53157
-9.59133
-18.5604
-13.6089
-4.48225
2.81414
1.89327
-1.99146
-3.48993
1.63786
6.77693
8.29511
3.17275
-0.347945
-0.933623
-2.7734
4.49479
1.02054
-1.22197
0.782961
3.04505
6.13582
3.01196
0.825952
-4.6788
-7.91916
-2.02871
7.14626
6.45375
3.27078
5.95302
10.6891
2.52855
-0.672858
0.441665
1.08001
1.33984
-5.2202
-9.34494
-0.0954571
2.77669
-1.25643
0.979967
2.33612
2.17572
0.171318
1.13292
6.43288
-2.10318
-5.43627
-6.69695
-12.1666
-4.49488
-3.21448
-2.16291
3.58574
-5.88063
-7.68602
-2.57308
-5.38482
-0.994116
5.49066
8.03424
15.8997
7.10259
-1.67772
-1.71702
-4.08109
-2.09671
-1.40358
-0.7827
9.55234
15.8286
4.9975
-3.53146
-9.15428
-0.997963
-0.506338
1.37544
1.59561
-1.77446
-5.68311
-8.03049
-19.7329
-13.9048
-3.99041
0.726293
9.86158
21.299
17.8782
15.2466
5.83104
-6.74908
-2.64675
-4.82738
-6.12934
-6.72285
-1.86236
3.06766
2.806
-5.81864
-7.17956
-4.37624
-0.572117
4.48159
9.19668
11.6787
-4.71987
-13.8475
-7.65349
-3.01147
-2.93011
-4.2247
-3.85842
5.79568
2.21979
-0.965324
1.22894
1.97244
5.779
4.81844
1.52981
5.86876
6.80508
-11.7732
-8.61001
-4.15222
1.74483
4.95919
6.96916
12.0789
18.8285
16.2856
-0.594578
-12.0958
-10.2348
-9.3226
-6.58861
-3.58573
1.06134
2.41481
-7.50994
-9.56616
-1.27815
9.30426
7.61275
2.68955
6.5075
2.7846
-7.38751
-8.10115
-13.0196
-8.07851
3.18465
8.13147
6.05067
1.0085
3.28231
-3.61738
-11.2607
-4.13073
5.89408
5.74496
4.50183
7.46959
14.6195
0.307796
-6.18292
-7.01712
-1.53761
-1.98968
-2.272
-1.59399
3.76857
-2.81362
