33.5497
78.0713
36.6837
-8.6502
-57.4426
-137.304
-153.793
-144.956
-165.463
-185.117
-122.414
-74.8016
-52.6593
-7.56121
11.7821
16.8596
14.5519
-56.9772
-129.441
-159.926
-130.345
-70.1496
53.3597
139.442
189.576
299.542
250.022
154.259
161.394
250.573
216.607
120.963
52.379
-36.5697
-130.585
-192.256
-209.577
-189.365
-188.369
-180.213
-137.955
-136.639
-176.207
-156.494
-88.8866
-17.9258
129.614
118.155
-48.0194
-247.153
-227.92
-10.6998
197.974
334.482
252.921
121.844
62.458
69.7189
90.2334
111.872
113.187
118.64
110.669
78.419
1.71285
-120.486
-165.014
-89.4703
-55.7695
-57.4845
-27.6613
-64.2924
-153.802
-186.707
-77.0384
56.1036
148.001
178.601
167.482
144.178
103.921
3.24662
-107.089
-188.493
-142.121
-131.696
-213.322
-197.412
22.1614
377.326
478.223
157.95
-109.742
-190.173
-143.575
-84.5018
-42.274
-21.7714
-10.318
-22.6412
-39.1756
-31.7848
2.01696
38.2786
48.3567
62.0666
76.8493
24.6819
-55.9163
-200.463
-262.45
-114.685
-0.238373
43.5242
90.5156
116.703
113.669
153.509
179.089
113.806
-3.06721
-68.5753
-45.4584
84.4667
242.199
257.751
72.419
-53.9438
-104.495
-174.392
-183.133
-120.013
-108.556
-120.839
-108.032
-80.052
-66.6589
-66.3914
-25.1751
56.6277
95.5644
142.073
159.443
66.1179
-56.358
-83.945
15.2763
70.9287
35.5308
-10.4045
-33.4582
-25.6948
6.36907
63.1178
78.2925
61.6645
55.302
11.5024
-78.3753
-143.783
-141.979
-128.675
-110.701
-110.916
-129.426
-31.9063
217.243
241.614
68.1607
-19.1433
7.29606
93.9358
231.562
248.015
64.6752
-67.0372
-100.289
-90.6341
-40.2841
25.1066
50.2503
12.9092
-54.2203
-65.7303
-83.2247
-166.724
-250.862
-212.935
-86.8914
-43.829
-84.1367
-86.5199
-72.9142
-9.21093
122.814
142.19
73.2877
56.7667
117.757
233.236
423.337
514.627
439.322
293.742
117.215
-32.2777
-189.321
-294.367
-359.876
-352.7
-327.865
-336.172
-308.694
-216.522
-81.8213
65.5332
110.659
64.7768
-33.2179
-28.4766
30.3023
61.1057
-36.4633
-134.23
-31.7658
154.216
353.031
497.082
396.553
212.889
97.6752
11.2092
-97.78
-149.314
-102.308
7.68941
68.0814
-34.2517
-126.827
-213.775
-260.68
-245.837
-128.504
-43.9393
-72.5633
-146.191
-233.015
-202.477
-7.86929
132.526
189.92
205.365
142.538
29.1658
-2.04716
-22.7611
9.40325
101.088
140.368
162.566
213.218
306.412
275.728
117.866
7.94346
-58.8057
-95.1098
-124.927
-106.395
-56.434
-25.3953
-0.958
22.0315
5.27808
-45.5071
-142.704
-218.137
-208.321
-206.096
-250.632
-340.025
-286.456
-63.155
152.442
212.394
219.288
164.662
69.9848
17.2677
-45.5899
-77.0276
-33.9399
39.5969
176.983
285.872
263.967
297.9
303.913
206.56
102.331
-12.7277
-164.15
-231.541
-218.597
-173.668
-132.047
-81.3673
-24.9314
31.8162
70.0765
39.0015
6.46507
-24.4386
-98.8216
-204.952
-264.315
-274.305
-166.718
14.0446
107.525
102.252
95.5918
79.0237
28.0165
-36.904
-59.8503
13.5167
115.568
210.831
192.843
133.406
138.819
136.867
79.8714
-6.16857
-17.3926
-63.944
-93.2977
-56.6204
-24.5954
-24.64
-34.6066
-16.9977
-0.143706
6.7979
-4.14945
-52.5741
-114.451
-195.218
-176.595
-64.5356
-4.40448
8.60331
-37.3588
-81.5695
-106.154
-116.505
-41.8877
224.099
561.641
588.067
226.98
-89.8497
-228.685
-233.817
-143.067
-89.519
-75.72
-111.502
-126.466
-17.7642
88.3302
100.516
68.2772
21.0676
32.8378
111.412
125.693
84.5107
-103.632
-258.661
-186.376
-41.6744
71.5085
110.357
44.2077
-27.5792
-45.2632
21.1177
73.8431
7.47994
-126.643
-146.94
-5.61992
199.431
371.963
282.76
65.6658
-160.844
-310.541
-224.305
-59.8102
18.7116
45.4881
85.5232
105.812
72.3582
39.5981
13.7614
-38.7885
-86.0924
-90.4712
-134.737
-187.004
-204.605
-220.628
-97.8234
106.742
240.516
264.83
114.873
-42.0224
-74.8178
23.5041
113.856
122.146
66.1446
2.96641
-13.7357
-8.18327
-8.56601
12.4238
67.3458
69.7248
24.0196
-38.9254
-72.4908
-103.507
-176.613
-173.744
-9.635
115.34
86.3772
-58.5287
-174.56
-152.257
1.378
212.56
240.699
130.297
60.1026
49.9602
35.0513
-12.693
-25.4524
29.1926
57.9296
-3.23885
-82.1984
-112.012
-102.353
-44.2389
7.68218
30.0685
-27.6458
-94.0082
-63.2102
-23.7772
98.3259
224.528
165.696
50.3857
-15.86
-33.1074
-54.1418
-81.8463
-101.133
-112.887
-117.199
-103.884
-71.3983
-44.6154
-10.5298
32.2715
77.2993
78.9028
12.668
-81.4156
-142.337
-127.753
-20.0219
87.1244
142.682
151.369
137.101
100.972
82.8532
90.2758
69.3942
40.1302
41.7682
51.1195
48.0616
35.4737
16.7594
-7.74977
-38.9111
-70.0873
-100.66
-97.3253
-64.5223
-37.4921
-29.7274
-42.4999
-71.9579
-75.8511
-57.7905
-29.839
-5.74845
14.3673
34.6022
30.5733
5.56074
-17.1377
-5.65078
23.077
42.5607
12.7367
-59.5059
-86.3143
-61.6018
-55.7292
-55.5924
-45.5327
10.309
99.8154
191.62
299.757
242.201
49.7805
-87.823
-138.906
-134.714
-117.47
-72.1142
1.11696
55.6581
84.9004
60.4796
38.0664
24.5517
-38.7804
-23.3305
-6.08911
-82.6114
-143.439
-65.5534
-33.4749
-4.16137
144.001
223.691
134.204
42.6342
-54.8297
-141.604
-172.297
-185.184
-207.474
-101.343
55.2797
105.699
139.572
133.252
131.454
141.56
72.0927
-40.0786
-61.5412
-40.4194
-86.6645
-129.242
-53.7795
91.9229
263.028
345.782
202.312
92.3801
-7.44809
-119.171
-200.26
-234.213
-246.091
-239.868
-199.655
-102.535
40.4026
147.556
50.9196
-71.8543
-88.4029
-52.6246
-11.3093
21.6881
24.3602
35.3655
115.707
136.071
166.527
135.246
49.9076
8.63203
21.2106
57.1612
137.62
183.346
58.4619
-124.762
-190.098
-118.502
-32.1606
-24.6197
-76.4826
-153.466
-169.255
-114.929
-35.052
50.724
192.698
135.613
48.1383
82.6716
95.1393
26.7793
-112.617
-199.067
-124.052
-8.88779
114.435
64.7817
-60.6334
-64.7841
-33.0316
51.9832
167.537
104.627
-19.3097
-93.489
-152.759
-125.244
-107.458
-127.193
-48.5583
47.2546
79.8574
101.455
151.353
242.006
289.313
188.904
38.0228
-49.3615
-18.6756
-27.378
-101.823
-89.9181
-55.8825
-53.9032
-68.2266
-4.77273
74.5104
90.8037
25.6489
-33.7375
-43.8716
-51.458
-112.138
-243.518
-319.453
-215.456
-61.4943
35.261
90.3869
87.8744
28.8768
-2.63993
46.9131
99.9397
157.944
202.296
163.876
83.7341
63.4058
95.7999
234.519
249.399
19.3005
-173.914
-216.789
-172.644
-101.661
-47.7411
-21.4711
-28.3344
-60.0116
-50.356
15.8767
93.2967
21.3979
-171.77
-203.63
-162.765
-136.648
-109.242
-150.858
-172.104
-59.8116
57.8452
143.218
301.472
399.918
276.331
122.405
67.987
45.06
24.4322
-32.9191
-131.403
-196.238
-89.4118
44.8559
144.446
166.892
74.6817
-75.7541
-192.966
-218.788
-199.125
-163.373
-56.4175
76.4059
188.319
176.726
116.62
99.7566
102.121
93.3592
58.057
58.0403
56.2916
-17.4438
-79.9376
-124.11
-92.9681
-22.0966
16.0467
83.5114
82.8908
-18.6332
-163.879
-265.067
-228.081
-100.383
36.4794
195.899
138.402
-32.3898
-99.4006
-93.8534
-45.2125
-8.81798
-11.2098
-13.7013
-13.342
-5.88756
67.285
121.283
125.614
125.041
61.4818
-47.854
-190.97
-256.944
-169.638
29.7076
323.693
393.583
201.415
36.1515
-60.4255
-99.1749
-84.939
-56.2003
-38.8784
-64.3005
-72.0341
-48.1646
-14.9713
-2.81427
-13.5212
-15.7538
42.6578
103.978
49.9
-105.731
-226.82
-228.77
-137.749
-30.7465
79.1434
187.015
307.539
342.473
187.323
48.4441
-25.7177
-92.1172
-58.8663
33.1604
115.541
91.2124
37.9164
30.0253
-6.57019
-115.017
-234.512
-229.786
-116.513
-62.98
-75.7963
-108.476
-139.085
-116.1
-3.83771
89.2547
106.936
97.963
23.8947
-16.2032
22.2006
115.3
231.542
139.335
-46.1964
-155.323
-165.459
-85.6398
4.10124
74.4464
120.389
76.0747
23.6528
-44.9209
-81.1891
-92.9631
-74.6109
48.2174
233.328
365.476
308.033
17.4562
-204.018
-236.889
-169.063
-123.013
-105.734
-111.959
-128.403
-106.192
-39.0139
61.7373
130.853
234.834
234.453
72.0888
-9.82894
-105.697
-206.481
-266.583
-260.044
-159.018
-47.9397
116.69
159.988
97.6755
108.928
150.714
140.626
150.302
179.491
175.849
106.529
-7.33866
-37.8212
24.1954
33.9563
-20.0919
-157.47
-303.923
-291.435
-90.0027
72.6298
74.569
61.0614
90.6819
70.4737
26.6974
20.2685
2.09101
-46.5761
-118.723
-196.941
-194.264
-107.619
32.983
71.6529
28.2647
65.202
164.365
276.226
315.366
140.929
3.64132
-41.8609
-62.5928
-92.3135
-123.27
-146.646
-149.442
-161.73
-133.373
-93.2751
-73.0975
-38.0824
-46.2337
-24.7933
53.8814
77.4442
53.5399
32.0561
102.5
153.992
144.439
160.65
79.0465
-57.5151
-86.9912
-28.8063
58.9199
129.175
123.396
44.1184
-50.305
-133.171
-123.89
-61.9881
6.92104
40.8708
-17.1463
-108.192
-210.543
-249.334
-195.44
-165.39
-83.5922
77.6391
153.331
168.168
171.62
144.184
114.14
156.122
181.806
172.275
157.116
118.041
32.3752
-99.1307
-201.813
-197.512
-111.918
35.3483
78.4346
47.8035
48.5879
45.1063
27.7378
-11.3766
-79.8578
-128.928
-129.34
-111.965
-90.3936
-68.3388
-77.8007
-126.521
-108.982
-0.836365
87.5804
78.4438
18.3905
-0.71132
11.3073
50.7212
77.0712
27.2927
-31.7486
-26.7241
9.57033
17.1269
12.43
12.1622
25.5127
40.4799
59.4375
90.8685
85.4717
63.3457
54.5657
17.9548
-22.085
-34.9
-61.2618
-74.1736
-39.2426
10.0928
34.7588
14.9945
-33.2722
-56.4302
-38.9409
-21.3003
-11.8335
19.4553
52.5389
58.9922
-1.34351
-79.49
-58.6416
6.06027
114.583
153.857
62.4111
31.8768
-16.1904
-83.5564
-89.6345
-71.0683
-81.6629
-94.0499
-119.109
-106.703
-31.5768
66.3071
211.941
240.598
83.9683
-37.5196
-99.1484
-99.156
-113.662
-82.8952
44.5467
70.5127
30.0497
-0.843295
-42.1064
-94.5758
-149.458
-107.202
-5.07185
126.707
255.228
161.817
-45.2675
-103.935
10.2007
157.051
199.23
124.105
7.11922
-94.6716
-100.979
-81.0045
-50.7787
6.72165
95.7356
161.648
181.184
103.181
16.1803
-49.0176
-176.388
-234.012
-229.302
-202.877
-113.07
-48.5833
-20.8139
-24.5963
-30.7656
-52.3111
-96.684
-101.694
-69.1248
-19.8834
102.493
319.315
525.895
575.365
329.436
-82.7136
-256.099
-214.689
-105.814
-6.53645
95.3097
117.039
-69.0515
-228.096
-293.021
-286.488
-224.737
-97.1353
41.1587
88.0094
21.6379
-114.135
-208.686
-196.638
-56.7116
155.695
272.514
323.137
288.326
192.633
96.885
20.2333
42.5096
83.0639
101.35
121.345
91.7477
23.3348
-35.3968
-73.5289
-146.784
-239.593
-313.366
-260.448
-20.7579
176.561
197.968
58.4938
-52.4768
-8.15959
59.185
92.1151
22.4457
-91.8727
-51.8188
80.5785
186.884
57.6046
-106.011
-159.94
-184.484
-166.939
-87.69
-19.7613
39.0297
75.5518
-36.1488
-101.955
-125.528
-158.221
-161.47
-100.729
19.6874
134.236
132.611
97.2215
74.6997
117.436
105.625
77.2473
168.961
258.469
186.939
25.7756
-117.51
-174.562
-112.98
-10.5517
16.3499
-35.8045
-71.7026
-61.2434
75.4363
232.211
282.74
209.48
67.8092
-31.4661
-64.6432
-73.7206
-80.7462
-89.8298
-92.0385
-84.2468
-86.241
-85.2123
-91.5505
-86.3045
-56.7677
-27.2274
-4.27244
-22.2313
-50.6046
-60.8239
-79.7769
-112.359
-140.225
-87.504
23.1139
54.4816
-23.6142
-115.97
-29.3929
173.996
333.567
341.282
133.809
-2.45916
-14.9697
-23.3805
-51.231
-49.0651
-20.9454
-18.7597
-36.2392
-96.3534
-65.9138
49.6595
130.254
307.108
470.574
351.923
91.9908
-133.535
-321.474
-380.698
-262.133
-184.264
-209.659
-262.907
-219.642
-181.274
-127.861
30.1068
231.725
476.831
471.51
221.833
18.4639
-148.005
-266.025
-138.171
53.4165
122.336
55.3196
-52.6699
-20.7056
73.2091
168.338
246.159
244.898
191.949
61.795
-131.38
-275.449
-366.959
-350.539
-263.014
-190.239
-108.089
23.6253
168.724
225.973
79.9678
-30.9994
-50.8105
-13.8085
-7.12332
-8.53797
44.5976
34.2398
14.8321
53.5284
122.461
144.238
-128.17
-19.9128
123.768
280.088
297.858
106.137
-148.038
-224.479
-201.528
-139.355
-88.2596
-34.0424
-7.83248
35.688
61.5801
40.9402
18.0034
-11.7382
-13.8974
-4.84709
3.73039
-12.2997
-1.21604
14.1155
-26.8003
-82.8023
-55.6867
-6.30454
-8.78069
-54.4609
-126.275
-208.91
-191.154
-46.1691
178.415
325.656
283.233
219.514
163.435
104.731
38.7507
-19.5245
-34.0468
-65.0736
-113.86
-114.392
-87.7394
-84.0833
-83.1231
-131.503
-170.179
-71.932
92.44
234.354
188.136
-28.4122
-70.2296
-29.2317
-79.8777
-152.514
-179.936
-97.9208
43.0723
109.932
124.253
165.582
144.391
103.865
77.4973
66.4366
63.1681
85.0147
183.281
65.7065
-157.183
-182.166
-129.74
-94.3583
-55.6291
41.147
125.092
129.515
29.6542
-57.9309
-90.7976
-140.96
-156.869
-134.721
-103.053
-44.9289
-22.9789
-81.6332
-169.747
-115.148
100.857
322.847
312.872
170.333
40.2004
-32.2203
-68.816
-84.4782
-126.176
-153.759
-131.287
-66.6696
0.685702
78.1197
129.25
135.136
152.01
148.657
109.596
34.3693
-49.9845
-156.833
-176.035
-157.083
-141.111
-101.49
-15.7115
27.2589
79.0959
259.666
249.804
134.662
76.3495
7.40633
31.8072
161.193
295.139
274.681
18.4894
-165.466
-228.643
-254.316
-211.844
-133.519
-59.1603
-35.1521
-112.993
-221.886
-296.22
-299.453
-147.914
-22.0272
71.3829
143.772
153.699
114.113
71.3109
70.4895
121.083
137.515
117.818
67.1447
12.4691
-21.0514
18.9726
98.762
150.179
165.884
116.918
-5.86614
-83.7807
-100.402
-153.765
-220.613
-203.984
-114.817
16.4097
231.781
379.146
257.349
88.1962
-60.4255
-135.284
-175.149
-166.848
-138.095
-139.787
-124.618
-40.1815
-19.8106
-3.90825
57.1575
116.345
137.848
58.3656
-42.1756
-132.074
-239.064
-261.216
-163.47
-66.2098
15.0292
81.7218
152.353
164.913
116.717
60.7468
56.0209
119.803
187.664
289.232
300.762
201.617
221.533
307.267
264.081
-85.6024
-453.418
-570.497
-363.14
-128.271
-53.194
-97.949
-134.878
-139.498
-102.334
-16.6924
50.4223
55.0408
43.6114
-20.3871
-61.1176
-40.6343
-41.319
-61.1375
-61.4103
50.1384
142.525
151.004
76.8308
6.60285
25.1906
80.4715
88.424
70.2606
75.3133
139.745
253.872
277.286
54.2079
-186.727
-255.111
-193.6
-154.272
-100.911
-21.2664
60.3421
80.4137
68.9224
-10.0535
-101.257
-136.162
-94.4047
-33.6687
15.7793
-17.2836
-115.992
-160.462
-97.5477
51.0985
226.067
238.582
148.5
116.223
85.1049
39.578
-88.2203
-106.274
-52.6486
-13.9378
-4.7044
-9.99139
-18.8714
-6.62754
-16.1732
-7.69911
0.842397
-33.5745
-131.665
-184.003
-205.793
-147.598
-29.276
32.5088
42.351
57.1151
151.733
221.679
212.947
124.727
39.6638
39.3175
110.549
163.538
181.551
134.194
45.6445
-40.2539
-135.415
-184.356
-152.601
-59.22
-16.179
-17.6294
-25.8237
-26.5523
-13.2624
7.62383
71.1515
76.6316
15.3027
-104.972
-232.586
-241.009
-179.03
-63.5793
39.2241
47.8219
27.2455
45.6406
51.0796
15.4653
-41.1137
-83.074
-132.142
-140.655
-62.979
86.0533
186.381
196.191
269.453
259.924
196.185
122.295
9.97818
-94.2732
-177.107
-239.219
-202.619
-69.1607
29.5515
50.5773
45.1482
26.2235
10.7655
0.984985
-24.7761
-71.5383
-114.782
-80.8812
-52.4101
30.0511
68.9688
45.0916
58.2824
98.2724
171.646
182.066
149.17
99.5475
14.7502
-34.6624
-76.1919
-104.624
-72.1687
-57.175
-10.4192
30.7565
-18.8736
-98.0835
-179.053
-227.716
-169.073
-55.024
166.882
277.267
239.781
286.184
186.281
-22.0573
-145.982
-208.302
-164.69
-76.6665
-74.3243
-84.5729
-110.852
-166.386
-160.474
-88.8027
-30.6901
27.5936
99.6131
111.32
90.546
168.145
106.866
23.21
100.411
121.539
68.7179
-6.13173
-40.3491
-28.7897
-55.8735
-108.186
-99.6491
-65.776
13.6486
115.098
156.186
154.84
57.0748
-75.6178
-181.86
-222.348
-92.2438
-5.27676
41.9509
102.792
97.1324
103.955
130.048
82.1341
29.6194
52.0174
69.1732
-12.1025
-135.975
-140.763
-69.9017
10.5405
36.5667
3.89498
-53.6993
-93.7119
-104.098
-116.924
-126.276
-54.0337
12.2785
46.0762
53.4775
41.7842
73.4411
120.061
178.486
256.711
185.046
-62.7904
-181.872
-181.987
-177.468
-146.739
-113.966
-65.3563
37.9309
121.166
118.839
-48.0538
-182.033
-133.802
56.0336
283.002
358.197
181.853
7.53816
-43.6818
1.82106
43.2685
-20.7958
-112.795
-176.076
-170.887
-120.755
-113.865
-193.087
-264.861
-152.41
166.213
359.461
288.763
131.181
-38.5
-115.337
-57.5533
-45.4066
-128.322
-139.856
-20.0776
166.166
329.934
444.596
422.562
226.364
27.1044
-51.4463
-44.9254
-62.4805
-140.813
-157.021
-139.922
-153.308
-218.745
-235.663
-195.409
-171.928
-158.777
-133.048
-81.2103
-19.1028
126.473
203.54
113.761
59.1377
20.5432
35.1073
48.9693
34.3459
18.7142
3.41081
35.1165
50.2634
60.4758
71.2407
72.175
62.6493
47.0215
15.6152
-41.6695
-163.702
-257.762
-223.028
-109.226
27.5579
190.686
362.192
447.231
260.759
62.8804
-34.6788
-63.5212
-110.819
-143.25
-87.848
-78.2569
-118.966
-118.806
-88.1561
-28.7092
-9.96156
-58.5865
-67.6902
62.4859
198.314
140.779
-67.5565
-177.394
-149.651
-96.1046
-19.7296
8.55709
-2.57514
13.1801
0.217353
-29.2175
22.4496
64.468
68.4983
130.617
219.946
173.022
35.1929
-111.636
-259.291
-312.837
-243.825
-119.011
73.0974
278.023
337.79
279.006
201.458
63.0954
-31.071
-19.7361
-27.9994
-100.285
-129.292
-151.298
-168.604
-115.08
-41.3119
-24.4202
-21.6669
35.458
73.5897
22.732
-49.9541
-108.37
-99.49
-11.067
63.0307
96.5167
96.1912
77.6558
70.5044
74.1419
64.5634
70.7207
130.366
227.131
214.666
82.4102
-28.5511
-97.4043
-119.737
-129.607
-134.832
-176.696
-221.165
-253.091
-238.294
-130.03
-57.2796
6.80639
58.9474
114.424
156.592
111.162
-13.2243
-170.523
-189.565
-15.5185
137.867
194.429
210.249
213.578
218.961
203.943
106.715
-39.4107
-137.003
-147.117
-112.062
-67.1683
-66.2672
-77.0865
-17.7049
74.998
109.934
31.4352
-40.4293
-43.519
-48.4983
-33.6829
-4.76107
-34.3606
-90.9667
-104.871
-54.2392
40.8041
137.159
164.416
111.61
13.5971
-13.8501
73.5005
68.5935
-24.2816
-58.8597
-24.4093
-1.66561
-11.9889
-11.9279
-19.7236
-65.7136
-107.7
-128.871
-153.382
-129.083
-42.4193
-1.57762
-24.5614
-20.3592
16.8398
54.2437
83.5641
87.2866
52.043
43.4646
92.1627
101.835
75.9939
39.7896
2.72174
-15.4908
-23.1704
3.73127
29.8497
45.3361
63.7379
47.1914
24.2121
11.9014
0.647116
3.6442
-31.6414
-87.682
-98.782
-67.985
13.6819
140.955
90.9373
-50.3832
-108.672
-144.798
-126.888
-59.2557
18.9358
95.8221
-75.3097
-259.656
-213.602
-71.3544
60.7767
166.271
218.589
234.729
145.636
35.035
-97.0539
-213.883
-168.524
-30.3992
84.4881
150.85
155.964
91.0436
12.2649
-5.58808
120.238
223.29
120.644
-48.4325
-125.282
-134.325
-159.629
-139.968
-61.1791
-31.5888
5.26273
34.8044
-0.587072
-53.264
-83.4307
-49.4191
33.8415
149.341
238.644
94.7799
-49.1963
-22.2988
47.3078
28.5798
-21.2638
-52.7789
-53.5257
-67.733
-69.1687
-39.4993
-60.9048
-137.306
-126.784
-23.6239
104.019
172.257
103.099
-52.3115
-214.831
-294.007
-212.903
-51.7559
136.238
303.437
300.467
295.581
307.736
174.382
4.74314
-103.635
-148.38
-119.297
-102.58
-113.28
-166.044
-185.836
-130.241
-74.0791
-29.2314
88.9863
181.172
143.637
-1.76332
-135.374
-112.701
-49.1399
52.9387
268.629
287.174
188.893
124.27
53.0496
24.4263
-4.80094
-56.6075
-101.329
-107.846
-91.2185
-32.8411
2.3215
-88.1555
-180.112
-111.646
17.7015
90.2595
61.6946
-9.28897
-165.199
-217.091
-166.017
-131.298
-34.8426
125.801
189.384
161.025
107.227
35.077
-18.8047
-45.452
-44.4699
52.0181
93.0374
-34.2569
-119.098
-121.051
-110.577
-78.261
83.379
348.221
375.89
171.484
13.3066
-73.3903
-91.9518
-31.6168
31.7798
20.9275
-41.4927
-63.9759
-42.6092
-44.6304
-80.6321
-118.455
-159.047
-90.665
18.2205
125.117
118.546
-28.5133
-68.551
17.2164
75.9462
86.2511
71.926
-34.4076
-145.237
-95.8122
55.536
149.67
183.006
144.408
110.394
92.6271
76.6911
18.6668
-98.5973
-215.689
-398.903
-449.045
-279.659
-49.0248
92.6687
137.257
127.496
93.6856
47.9527
28.0235
22.4304
-22.21
-93.6993
-99.173
-39.6474
76.3657
210.096
259.184
232.949
54.3354
-46.8246
-8.9564
-38.4649
-83.8136
-69.3045
-32.4708
43.2517
172.313
175.415
108.341
21.3015
-36.4839
-54.8632
-66.1369
-67.6632
-76.2082
-121.958
-161.014
-158.46
-96.0701
-1.84776
55.4846
109.56
131.896
41.6617
-110.823
-179.946
-143.592
-33.9266
90.3178
95.0808
99.3507
96.6044
2.95291
-57.1359
-31.8084
-11.2848
-13.8558
-11.0314
17.4294
67.6333
81.3198
28.4022
-37.1568
-64.2223
-26.6653
-20.8144
-31.2934
65.8693
77.1106
34.7538
-58.8043
-55.9704
48.892
54.7371
4.48338
-22.0139
35.2681
115.831
152.732
63.006
-112.551
-126.11
-51.2869
-1.20145
21.0084
50.7376
75.7149
42.9515
-25.0746
-58.3938
-31.9292
0.924361
8.03292
-5.94269
-42.9745
-97.696
-173.892
-184.702
-157.038
-71.392
40.9321
91.2311
127.585
199.662
232.309
75.6254
-61.5835
-127.749
-130.817
-98.7521
-28.9339
59.5025
106.216
87.1344
53.3455
62.0515
26.946
-61.5012
-110.862
-87.7512
7.36295
85.6113
45.8172
-59.7886
-60.021
3.09327
-53.8908
-108.343
-60.3441
117.123
121.481
-10.1348
0.650779
77.0612
125.629
119.714
58.0727
-42.2602
-105.481
-107.412
-87.1829
-83.779
-19.2503
44.577
52.1946
33.781
41.3946
45.9367
11.8494
-48.366
-42.6329
59.1959
67.8885
41.9782
-49.8072
-174.384
-153.982
24.9807
293.12
444.519
240.367
-5.48047
-113.797
-144.468
-159.935
-148.672
-180.587
-214.251
-144.062
-32.443
21.7167
-63.7604
-147.122
-125.224
-10.4364
135.704
217.615
197.838
40.8165
-103.984
-34.6568
41.8717
79.7873
90.6856
7.17204
-53.9307
-5.98022
57.7831
116.174
204.665
239.687
74.7528
-65.2714
-178.019
-220.238
-203.88
-213.246
-204.695
-219.595
-133.597
105.41
281.387
269.306
165.112
94.7325
86.4841
77.7545
44.0429
-8.7415
-130.517
-207.933
-93.3806
13.586
62.1718
70.8165
38.7245
70.9887
179.315
280.009
232.014
-2.37842
-155.536
-224.533
-270.039
-246.93
-112.434
41.2497
103.789
29.0195
-48.6371
-76.4058
-13.9064
48.5507
58.4923
7.06577
-74.6755
-132.433
-174.289
-177.631
-78.3095
-6.50098
-32.148
40.4289
208.187
220.914
172.176
126.815
94.6072
92.0166
73.4101
43.7914
2.49404
-31.102
-0.254537
47.6787
84.5635
72.4402
-2.64184
-129.877
-261.779
-217.571
-146.162
-140.716
-150.479
-100.536
-15.3031
29.7771
55.2202
53.6837
63.6
112.163
145.218
153.466
158.248
187.716
234.207
203.709
69.6422
-36.9484
-32.1899
-33.0056
-58.1196
-120.679
-227.311
-223.631
-165.546
-98.9829
-40.0112
-40.8875
-47.6944
-28.9682
-27.5197
-56.0448
-74.3104
3.5725
153.803
252.672
194.88
55.264
-35.0288
-92.2803
-76.7112
-13.8764
33.2911
23.5058
-27.862
-34.0813
15.7183
99.5102
-9.12112
-145.898
-134.866
-7.01595
69.072
-10.4489
-118.134
-151.742
-98.9634
0.941655
70.7427
95.4495
78.3183
69.9645
123.945
190.669
226.691
242.145
174.634
35.6336
-53.0991
-160.68
-304.873
-410.634
-337.17
-128.183
57.1227
165.83
151.143
144.003
148.655
191.519
223.646
168.675
37.1161
-107.576
-210.527
-216.54
-134.031
-86.5844
-60.7213
13.3018
109.72
162.625
134.473
52.8901
-43.4134
-126.137
-102.339
-44.3375
-40.4122
-101.013
-140.327
-120.134
-19.6741
84.1388
107.212
59.6617
-5.32998
-56.4417
-32.472
26.4964
38.8616
28.2175
3.64698
-2.42945
6.78372
68.0843
96.0616
30.8088
82.0126
210.041
148.314
3.53909
-69.33
-61.6847
-82.2822
-167.245
-210.917
-157.361
-69.677
12.2142
103.889
131.909
80.5136
18.0568
-44.6766
-104.046
-93.6698
-45.6171
-85.9635
-87.0186
-6.19207
50.9364
68.1576
108.852
162.746
159.63
92.2209
-11.2089
-105.884
-75.2645
26.0346
119.627
168.512
183.046
184.306
102.175
-38.0583
-99.7126
-123.557
-156.836
-103.587
-0.446185
63.0104
100.119
-5.39229
-107.249
-159.674
-182.97
-148.971
-157.784
-176.87
-151.822
-89.2981
-31.6188
-1.34855
38.6054
116.893
144.221
102.454
24.9865
-30.4357
-54.8702
-45.732
-58.9496
15.8689
131.79
213.991
262.99
255.405
206.091
136.001
59.2219
-20.4192
-86.5178
-131.722
-177.336
-145.675
-57.0161
3.1297
39.5537
72.9588
103.95
113.185
85.7562
58.2831
-9.96167
-105.432
-148.852
-119.715
-62.1837
-26.6471
-19.4043
-52.6835
-191.308
-308.143
-214.392
-34.9912
67.4549
46.7046
-18.0404
-1.37053
86.7776
197.787
197.312
40.4441
-58.1962
-38.5938
18.9509
68.7143
98.2731
70.1633
46.516
48.9777
76.3699
68.1234
-48.8779
-161.23
-118.514
-30.6332
69.762
163.386
41.9946
-149.17
-280.462
-240.442
-103.065
92.3661
326.647
389.109
237.84
92.9301
-45.3151
-85.4502
-50.0058
-4.74201
-0.948796
-21.2127
-106.095
-153.738
-165.146
-237.745
-183.734
-69.2243
28.5212
124.453
140.515
70.4241
-54.6298
-131.035
-84.8871
52.2902
176.734
175.858
100.905
29.5743
-18.7384
-38.7252
-34.1884
-2.70898
39.0431
79.7787
102.699
52.6346
16.982
30.4178
14.0429
-101.417
-195.699
-161.497
-117.674
-96.9075
-22.4878
120.848
320.537
324.618
178.292
43.0073
-51.7748
-98.8654
-132.812
-132.234
-147.034
-129.288
-5.16654
64.3854
37.9472
-24.9829
-103.993
-144.619
-146.088
-131.48
-69.0655
-11.3686
45.6789
23.5911
19.7476
79.0733
148.618
200.011
168.49
51.4529
10.1484
27.4693
48.1573
59.4922
12.6753
-40.7629
-34.6564
25.5236
73.4512
36.7694
-131.118
-299.72
-407.536
-294.004
-22.0533
209.815
331.273
230.402
77.5954
63.3506
74.007
68.0829
11.6769
-39.071
-24.7051
48.4906
90.3844
39.3153
-19.5375
-61.1475
-69.5961
-68.931
-46.3354
-23.3825
-54.602
-79.5522
-77.7331
50.9472
220.396
152.208
51.941
-32.1642
-129.541
-230.355
-252.657
-199.592
-150.131
-58.1725
101.147
251.486
324.948
215.188
111.837
24.7846
-78.9281
-225.029
-347.515
-351.365
-271.182
-59.0993
132.137
247.12
194.853
61.1554
112.519
230.967
271.427
173.624
54.5709
9.90131
57.2597
215.975
219.545
62.6245
-32.376
-81.3376
-121.013
-180.172
-256.579
-278.363
-249.773
-203.835
-77.3824
98.6657
153.902
124.029
65.3152
12.5806
-67.2664
-170.194
-245.436
-257.761
-233.135
-72.921
113.905
187.952
191.842
171.337
171.568
165.674
141.819
90.9174
64.4627
94.5195
35.3512
-30.9687
-63.5061
-107.859
-129.576
-124.053
-33.6265
36.1035
49.8605
38.1729
-32.4293
-33.0384
81.8214
234.572
326.56
180.822
-12.1943
-100.803
-135.982
-198.78
-291.825
-321.018
-154.737
83.5326
196.576
108.222
-18.8842
-2.82913
45.5004
50.6433
11.5517
-67.723
-173.098
-237.116
-216.028
-17.6166
219.836
188.487
54.7709
-3.42091
28.4427
45.5214
7.36561
1.82684
87.7986
241.627
205.273
-1.27324
-140.117
-144.158
-99.5819
-79.3838
-74.4131
-43.3314
-5.37227
41.4338
-29.0178
-50.3071
78.8892
123.283
74.0094
30.1945
-7.4718
-46.782
-76.1635
-86.6343
-36.5667
46.9406
115.295
142.216
109.282
77.5777
67.4814
12.0684
-58.9238
-126.569
-187.667
-186.876
-160.536
-7.2878
297.609
399.389
212.482
-3.37972
-119.909
-178.625
-189.071
-173.529
-156.659
-107.671
-48.4011
2.26746
44.1616
51.2678
19.8278
-9.1689
14.4923
52.9757
-3.39885
-103.66
-164.53
-82.7249
122.517
299.936
232.365
132.278
67.1841
37.0157
31.5487
3.25598
-3.58926
-12.2362
-67.351
-110.386
-124.764
-108.428
-53.8689
-8.68309
28.3308
60.634
50.5611
38.6093
-2.73976
-56.9701
-40.0078
-59.6276
-84.6926
-56.3446
-4.25918
60.5029
127.597
204.882
214.615
95.2587
-43.9108
-169.388
-221.94
-221.712
-252.238
-286.797
-244.869
-51.7734
223.414
440.714
534.769
393.786
172.934
31.9696
-67.1137
-133.53
-152.874
-165.638
-141.071
-58.7438
-2.3583
60.876
67.7763
58.9124
97.4039
119.893
40.088
-106.676
-218.788
-290.993
-283.236
-146.083
7.08685
56.9763
54.3514
13.5041
-15.7629
-11.3906
9.77438
42.6296
64.8096
56.1893
46.9843
73.7116
147.531
200.401
271.036
250.353
60.1213
-109.413
-203.341
-193.971
-122.442
-87.4908
-58.0913
-56.6747
-71.8874
-15.8045
86.8072
192.793
193.928
67.9567
-5.69512
-67.8158
-127.818
-147.499
-178.811
-190.78
-169.511
-147.898
-116.918
-41.9405
36.3636
64.7988
47.6001
28.9627
41.8049
101.842
163.788
173.135
143.277
161.65
163.2
174.106
167.751
123.364
28.1629
-64.4845
-114.388
-154.996
-148.388
-128.594
-89.8149
-1.09737
116.75
228.249
210.434
31.2923
-118.945
-178.703
-131.768
-44.606
-72.3806
-145.173
-242.283
-289.532
-260.55
-135.344
65.4623
215.66
172.788
111.557
87.85
50.9461
41.6167
15.1314
11.5449
16.9236
-7.18403
-49.2144
-64.8792
-72.7126
-29.9558
41.0009
104.931
121.137
84.9481
29.4609
13.4358
75.221
260.142
246.229
67.557
-21.8773
-70.9291
-78.3776
-54.9416
-59.6541
-89.16
-119.786
-101.124
-69.7487
-51.0211
-52.1564
-92.9668
-143.751
-159.129
-115.812
-35.7422
-15.5987
22.648
208.625
257.007
141.927
31.9956
-11.4346
2.08361
22.4772
28.0396
43.5495
54.528
80.0567
40.275
-50.7122
-54.6831
37.3792
122.621
116.752
19.202
-95.2931
-200.245
-251.577
-170.583
-66.3992
-6.57663
30.7404
35.1202
31.8547
22.7765
13.6175
-10.4987
-33.028
17.5196
89.8468
136.375
147.022
111.472
61.903
23.4176
16.3784
0.971679
-54.3718
-79.5461
-77.7022
-82.0005
-95.2755
-94.2014
-89.4049
-86.5419
-76.9777
-52.9618
-9.5856
42.6221
58.9476
56.6292
54.8461
71.2111
73.6969
53.2268
7.79735
-17.9249
-5.85524
28.254
42.8551
62.7921
90.1934
96.3518
85.4238
31.9165
-64.9823
-123.114
-82.3891
1.69172
56.1191
-3.81536
-61.9364
-65.8265
-81.8838
-60.3438
25.3147
47.6412
-11.5507
-81.1916
-131.472
-126.165
-39.7582
91.6002
115.886
-0.342886
-30.4232
40.7565
123.213
189.872
227.967
152.86
35.8377
-57.4045
-113.267
-152.316
-179.129
-162.124
-111.66
-62.3764
-22.9115
-7.65419
-25.5632
-80.3234
-72.0111
32.4904
104.672
104.483
44.8991
-24.4972
-53.1912
21.119
98.1313
133.905
133.271
73.1294
19.8264
-2.08962
22.7075
62.8824
66.0468
47.7475
40.202
54.4032
34.1185
28.2733
20.3929
-41.1189
-137.742
-208.385
-265.573
-256.691
-156.539
-70.6885
14.9151
99.1832
148.943
125.885
59.8404
-35.9013
-105.764
-63.194
93.0186
180.561
159.974
112.291
64.9251
16.8451
-53.4413
-119.084
-144.784
-159.882
-150.094
-7.9348
144.215
267.847
357.582
269.913
64.7119
-32.0777
-12.4511
-66.3136
-226.831
-352.877
-337.623
-240.432
-158.04
-55.7115
31.3588
55.5502
103.183
202.059
252.298
193.227
57.8501
-67.2349
-221.921
-267.973
-130.366
33.1597
121.997
120.49
63.0766
26.4273
24.6326
26.5066
28.9767
50.3202
58.0605
40.3218
57.8362
97.2062
56.366
-57.8866
-151.385
-196.209
-122.548
16.644
79.6719
61.3772
44.3859
57.6137
141.903
214.723
242.365
126.558
-52.7238
-139.687
-127.129
-19.891
105.029
114.231
-16.7602
-109.89
-133.113
-106.824
-47.9006
71.5113
-6.57876
-171.47
-272.378
-275.677
-250.663
-229.787
-196.855
-85.6665
60.4777
124.518
135.193
107.542
37.8716
39.5336
122.226
168.228
189.172
129.667
20.3619
-55.5758
-9.19337
22.1042
4.66747
36.8252
101.456
205.733
323.21
239.306
97.008
25.6229
-34.7335
-64.5934
-62.4775
-68.598
-93.6233
-156.265
-184.415
-147.444
-129.669
-143.624
-94.2616
-28.7325
11.8963
52.9544
103.581
48.8563
-81.8827
-88.5833
-27.8087
-10.4973
-1.78597
-6.53649
-0.971028
84.7083
226.682
241.888
75.8294
-96.7151
-175.526
-142.378
-10.392
187.238
202.27
39.1221
-134.094
-208.286
-193.124
-113.787
-100.18
-161.195
-132.593
14.8717
157.321
234.254
120.71
-7.95187
-3.64927
23.8028
64.0575
62.5518
28.8409
-3.93974
39.4996
66.1689
24.7738
-0.780129
-1.14104
60.9461
127.446
152.307
123.542
41.6183
-62.2411
-196.832
-233.523
-230.38
-230.919
-157.651
-36.7795
23.0085
38.4492
41.3241
68.2364
98.5327
126.114
172.093
248.064
298.699
160.088
22.5272
-63.8406
-162.023
-225.866
-253.124
-245.08
-146.813
69.3606
231.497
196.973
39.358
-82.1569
-146.12
-150.298
-102.595
-85.3112
-133.417
-233.731
-325.064
-155.812
158.538
387.359
484.988
321.438
134.677
99.8351
92.302
53.4888
-18.2711
-77.3683
-78.2458
-61.1434
-24.7257
-7.14331
-28.6533
-20.9289
-17.0968
-72.4359
-79.1654
-43.5975
-120.556
-229.017
-292.454
-182.144
5.28006
163.221
342.839
269.233
91.7022
-8.16681
-34.4079
18.8845
43.2621
66.0619
69.4582
-27.4199
-100.723
-50.1106
55.6709
157.5
203.945
118.921
-46.2529
-171.038
-240.329
-219.175
-186.372
-99.7936
-44.7584
-8.7276
86.1224
137.751
119.663
95.4267
66.268
44.1104
25.9822
-16.3367
-61.4035
-57.6639
-13.0658
151.453
281.23
189.466
37.3919
-154.863
-295.497
-261.767
-147.169
-46.003
41.8753
41.6358
-23.2208
-58.9758
-52.9109
-60.4221
-95.3842
-40.9246
31.8878
49.519
-9.96216
-163.099
-171.299
29.5481
272.224
447.212
361.888
188.976
102.476
45.2391
-13.2635
-10.4162
19.7224
-15.2423
-72.861
-80.5244
-36.2269
-54.057
-107.116
-154.38
-185.582
-133.356
-71.9065
-18.1977
-14.4371
-58.6282
-8.11147
48.6121
40.3439
21.7824
-42.4816
-106.481
-103.973
-65.2075
-20.2236
62.475
143.663
141.126
42.9401
-50.0033
-25.2381
86.5223
286.917
386.057
240.116
4.91837
-88.359
-76.8591
-43.4393
-40.8213
-54.8247
-25.0504
24.4969
20.6819
-31.1894
-95.5516
-115.558
-125.321
-166.811
-262.252
-296.43
-206.693
-169.467
-206.814
-160.96
34.9565
191.617
234.763
239.218
241.585
222.146
169.185
132.829
131.721
165.336
159.755
88.5978
56.4549
76.8147
128.974
159.897
123.84
56.8033
-12.3684
-107.875
-246.621
-360.821
-370.723
-318.51
-255.193
-196.181
-133.021
-68.0862
-12.4933
46.9414
73.3986
77.6853
105.056
158.604
176.203
142.205
37.4252
-97.4615
-140.141
-101.937
-57.7766
60.9031
189.598
295.026
248.619
58.7047
-53.8011
-113.936
-135.455
-144.41
-120.436
-53.8167
60.3434
173.204
166.488
32.6634
-23.4532
30.4375
165.952
108.973
-10.0946
-104.455
-217.463
-306.419
-217.078
-7.17622
87.0685
65.1148
49.9961
38.4145
-16.0385
-115.79
-190.173
-177.549
-65.2468
64.7692
57.0417
16.7934
18.9051
125.193
258.303
279.794
224.209
140.137
9.26481
-41.9867
-27.9457
9.84493
15.795
-6.79436
-11.3127
-15.1756
-65.8883
-111.702
-122.139
-117.358
-110.08
-153.794
-198.006
-150.664
-93.6588
-32.7206
61.9099
137.779
212.71
257.119
201.347
97.9114
52.4541
58.4908
73.2475
81.3923
44.456
-49.4423
-126.318
-170.784
-175.846
-142.473
-96.7748
-115.957
-209.515
-192.133
-82.9571
48.0473
217.144
250.971
119.837
-3.42604
-85.7003
-0.781829
102.921
100.886
9.10792
-56.6113
9.0788
224.986
455.148
411.047
74.8156
-113.475
-102.943
-84.5539
-101.188
-156.136
-273.109
-347.815
-292.321
-190.439
-100.766
-90.7124
-80.1473
3.80509
95.8256
164.209
150.383
36.9403
-114.394
-141.358
6.68472
148.799
206.15
183.301
126.001
113.771
72.6835
32.3301
44.4727
63.3987
25.4142
-32.9195
-42.2569
-11.6836
44.2572
34.6518
19.0576
27.8104
1.94688
-12.9821
-18.2404
-56.8529
-67.7049
-41.9507
-36.5917
-98.9026
-157.586
-113.452
-45.9966
-23.9875
41.7134
70.0527
38.5654
-10.6332
-13.7169
27.2885
56.4878
2.07966
-111.075
-218.479
-299.42
-220.206
16.7176
198.747
267.906
207.596
96.9512
37.5421
112.11
315.137
400.439
163.378
-111.02
-230.89
-206.194
-151.573
-149.664
-128.842
-68.8291
-22.6854
75.1581
139.409
87.9149
1.80131
-73.4733
-108.52
-74.5728
-39.5011
-61.0404
-126.483
-147.278
-33.6085
81.3135
134.714
118.415
95.1132
81.0037
39.8381
-19.4883
-25.7806
43.8261
34.3327
-51.1773
-81.0917
-41.2221
2.16268
32.1257
51.047
46.3477
-3.51955
-79.4391
-85.6072
-45.8095
27.4387
71.6851
36.2081
-27.4632
-70.4739
-19.6243
147.05
298.32
381.511
218.947
-9.39117
-130.405
-95.0688
-49.8316
-145.365
-265.75
-313.997
-238.54
-68.8473
121.672
123.793
43.5014
-17.5058
-98.3293
-86.7792
-1.38803
57.7375
69.197
-27.2984
-29.2479
-3.64926
-35.3933
-107.705
-92.7816
44.79
106.725
63.212
16.4756
37.5786
104.865
153.063
132.941
138.529
185.773
121.403
-25.879
-174.232
-237.653
-148.979
-7.60005
39.9823
32.3625
26.5258
0.75853
-15.498
-8.82802
-1.18251
0.0459052
-30.8795
-107.149
-103.445
-33.5981
21.5439
54.348
78.0006
61.6502
42.8782
50.2379
4.70572
10.7858
25.3683
-55.9798
-163.818
-197.884
-137.347
-22.8875
80.6551
233.574
254.487
170.256
182.237
144.794
-20.1766
-117.825
-126.341
-110.177
-148.958
-196.333
-148.605
-105.445
-56.4813
73.8294
234.884
264.8
105.376
-77.9687
-126.424
-108.849
-127.576
-173.933
-222.771
-172.621
-56.3392
6.93487
14.2191
60.8741
160.16
235.912
281.433
196.571
76.8897
50.2989
57.4824
99.1282
143.726
172.919
76.3904
-131.451
-237.231
-230.093
-209.462
-182.037
-113.648
-44.9965
-15.1182
15.8923
72.6476
79.6581
116.202
112.061
36.9163
-19.0783
-43.1855
-75.2486
-92.8459
-94.8292
-69.9269
-5.96754
50.7696
43.3579
26.9569
74.0554
188.467
257.279
238.524
99.2254
-145.318
-335.883
-386.17
-246.209
52.8009
138.178
29.2554
-37.3788
-33.6564
39.9368
112.757
84.1567
64.2916
65.6713
15.259
-68.2404
-102.668
-82.6284
-39.1076
32.3831
114.521
134.003
67.0015
12.972
-101.811
-157.596
-130.922
-85.794
-23.8607
29.3997
128.947
240.653
245.353
191.91
108.679
47.1948
-51.3829
-166.77
-213.228
-197.142
-148.781
-128.167
-188.248
-159.452
0.865668
148.29
276.017
240.082
81.6726
13.43
17.478
25.8634
-85.3352
-142.853
-90.53
-27.2415
-11.8231
-17.6778
-26.5009
-38.0668
37.8159
103.242
117.607
22.6775
-108.18
-156.658
-189.914
-174.091
-35.9346
105.379
156.915
202.364
228.81
124.894
49.0825
-28.9948
-61.0641
-13.5579
48.0248
68.8766
67.9266
57.4883
12.1314
-71.0864
-132.278
-106.318
-8.5775
116.813
108.743
-49.1386
-213.311
-277.439
-163.379
-20.5353
-2.69473
-21.6358
-30.8028
14.9602
76.5829
99.5999
9.18491
-68.4612
5.17988
152.188
282.138
334.722
189.239
18.8415
-59.1284
-82.7731
-88.0355
-161.934
-179.483
-108.965
-74.0636
-61.2413
-22.6089
-17.9653
-40.9138
-24.852
13.2214
45.6009
20.4779
-7.93069
-28.3846
-59.8325
-6.20008
33.1693
52.2903
67.8714
57.6474
24.8049
-12.98
18.6873
83.8709
95.5733
52.9836
0.927556
25.7304
58.1754
86.4851
84.8474
-24.07
-138.822
-202.765
-171.828
-91.3893
111.5
148.765
-6.17122
-142.144
-219.806
-175.946
-13.1699
204.921
340.064
258.543
125.49
18.3531
-75.7832
-176.989
-228.74
-179.691
-141.056
-137.457
-146.267
5.18971
155.305
160.24
145.493
117.56
113.574
100.387
24.7389
-71.6558
-115.668
-78.6697
-26.1488
-18.582
23.2623
102.278
161.042
142.47
85.3379
10.1398
-47.3593
-145.595
-254.742
-211.271
-105.539
-17.9172
-53.6392
-41.2293
64.2426
174.936
244.941
161.55
77.0852
37.3232
-2.44401
-33.323
-69.2844
-51.2653
27.1252
86.5161
69.8607
-20.8081
-155.859
-168.805
-104.886
-60.737
19.3872
42.3865
-30.6959
-132.59
-180.706
-102.595
-28.3119
37.6681
87.47
107.473
122.113
115.176
103.338
72.7482
36.7892
-16.2448
-59.1813
-8.11585
104.013
239.833
348.885
213.802
-2.37705
-130.432
-155.275
-87.8474
-50.3136
-84.0181
-154.525
-207.368
-188.922
-157.804
-131.133
-76.9002
-26.5017
83.8905
235.737
299.31
147.505
-80.6064
-193.551
-208.085
-196.858
-195.957
-80.1235
115.711
172.316
55.7053
-43.2954
-76.2909
-12.5039
187.197
411.245
322.351
121.098
-25.8659
-160.029
-230.355
-151.576
-35.2421
5.2133
57.891
100.251
111.836
39.215
-59.9755
-68.9862
10.8342
77.6487
69.6293
-32.4668
-131.837
-202.517
-140.253
-93.379
-71.0241
29.8699
157.875
296.325
280.433
128.582
50.4254
5.98068
-38.077
-114.204
-162.162
-135.832
-82.8014
-35.1831
32.9601
84.8122
52.3831
-34.6473
-16.9048
53.1389
51.7841
-7.41025
-96.5827
-162.698
-186.801
-197.8
-178.019
-139.714
-79.3605
-9.47803
33.5476
74.1887
142.41
198.679
213.623
193.734
145.592
87.8967
59.3916
74.3951
48.9305
-34.2659
-91.7789
-157.331
-171.476
-89.54
-9.24223
56.8828
93.4975
87.0299
176.41
194.27
159.125
80.3132
-69.3301
-81.8839
-64.1469
-111.281
-171.924
-163.127
-87.915
-30.577
-55.4874
-84.1692
-39.3838
21.6643
56.1089
53.1262
6.2573
-38.3126
-104.272
-148.323
-140.962
-109.835
-35.8583
8.81063
89.4431
253.047
329.196
170.049
11.5216
-60.766
-83.6401
-69.845
-22.1059
-13.2932
-5.45755
71.5411
122.268
134.159
136.226
138.502
63.5024
-14.9602
-73.8422
-180.959
-216.703
-211.655
-186.227
-48.5006
66.8577
115.562
114.355
95.4485
81.5007
55.5146
22.6101
-44.1277
-61.1896
-104.075
-170.407
-78.6186
114.158
260.704
286.677
86.2392
-116.91
-219.351
-221.356
-148.114
-47.7758
-8.71798
-2.94201
38.4098
90.845
89.5673
50.3018
-8.07515
-54.1824
-27.5365
-6.9244
-82.908
-184.949
-199.866
-82.0899
105.363
173.433
159.892
163.627
161.933
112.211
71.8859
47.8432
-4.35585
-59.8776
-42.7696
-99.7621
-152.78
-104.721
0.319744
97.5301
127.124
152.018
274.47
329.184
284.036
38.4826
-140.747
-224.901
-299.65
-314.981
-279.421
-210.152
-136.668
-98.9316
-62.7487
29.594
84.9276
65.1435
-9.42049
-114.606
-148.249
-133.826
-162.647
-146.344
-69.7728
102.152
208.276
247.374
260.801
238.301
209.634
186.119
146.471
102.236
62.4784
63.3926
60.3322
30.3264
13.8475
-8.6127
-67.4452
-125.411
-189.891
-197.865
-146.7
-92.5707
-17.9448
66.5707
146.868
137.222
-26.7708
-65.997
18.241
114.547
147.163
103.626
18.285
-82.6854
-194.718
-212.719
-175.251
-143.519
-153.157
-207.936
-185.347
-25.1299
139.659
271.008
245.016
109.221
122.735
73.8539
-62.2595
-155.141
-141.084
-58.7573
14.6418
16.2918
41.9171
43.344
-49.1494
-156.924
-170.224
15.7458
262.407
377.726
339.813
106.407
-83.4919
-91.6105
-76.4277
-129.498
-149.461
-122.102
-117.807
-11.3941
126.275
125.761
64.9453
2.39419
22.5649
146.859
243.112
112.438
-52.9356
-158.236
-233.034
-253.353
-195.778
-118.544
-63.0081
-43.4647
-9.32406
71.9092
194.532
253.124
140.995
50.0816
53.6285
60.5004
64.3846
39.1603
-9.32997
-59.0203
-130.626
-195.106
-223.166
-158.914
-57.0919
23.1317
48.8211
49.4392
69.0115
33.4602
-49.7178
-200.361
-216.376
-9.06733
211.031
362.297
326.471
156.754
59.8637
11.1959
-45.8657
-83.5518
-95.6946
-82.9302
-66.9031
-81.0808
-39.5915
60.2937
83.6739
91.4283
75.1848
17.9189
0.27409
-9.68178
-80.1223
-152.438
-132.17
-106.825
-150.605
-96.7414
10.7139
83.517
124.078
112.818
70.2158
29.3239
-12.9532
-62.3261
-106.213
-66.8231
7.41683
204.664
304.031
97.6517
-51.2549
-95.924
-142.001
-158.918
-159.769
-126.443
-31.2865
140.266
333.684
334.129
165.681
52.1471
-13.5325
-54.0981
-80.237
-163.377
-219.409
-263.661
-216.009
-132.819
-152.341
-107.685
10.7953
97.0197
148.609
147.751
76.8795
-18.5037
-118.833
-94.8548
15.5776
76.4616
107.603
152.331
172.095
171.931
191.435
124.886
53.0542
55.0355
23.6959
-14.4825
-5.24354
52.6035
66.5031
63.1424
46.6667
-15.9646
-41.3378
-166.196
-337.901
-288.43
-140.86
34.3264
196.031
88.7281
-101.161
-187.249
-180.187
-109.255
-36.02
-29.0794
-46.6755
-33.1602
30.138
30.4074
-1.45391
-21.354
-114.744
-84.1579
71.3993
101.06
47.0941
-29.7029
-61.4776
81.6706
287.882
403.453
275.199
156.918
127.169
63.8565
-18.7065
-54.4614
-73.1023
-96.126
-117.755
-130.736
-121.642
-64.9921
-20.6937
-58.3623
-126.59
-194.304
-125.968
15.1102
31.7407
-51.8769
-19.9997
101.038
167.084
157.68
170.054
159.635
99.8124
33.5296
-14.6233
-95.1415
-193.202
-185.157
-75.3637
24.8136
80.2161
89.3875
-5.38557
-94.0042
-146.058
-133.337
-79.5481
-66.2729
-44.1202
-20.0746
-14.5717
-32.7116
44.544
179.589
209.555
346.469
382.321
269.398
168.875
53.2858
-39.9941
-102.278
-158.6
-201.007
-203.434
-197.448
-171.892
-141.894
-113.872
-66.8246
-59.2873
-81.2155
-143.393
-168.251
-134.772
-150.324
-79.041
-7.83401
10.6332
71.0019
163.758
234.822
227.675
193.638
198.925
166.64
117.486
55.2034
7.22591
50.0115
152.418
288.185
238.997
16.7496
-135.167
-195.032
-158.571
-121.475
-115.889
-90.2048
-23.7391
27.2605
9.59502
-47.2723
-101.18
-92.7629
-60.7308
-32.5684
-35.4993
-84.8006
-101.575
-124.92
-62.6855
10.039
43.665
33.5016
13.5515
36.6017
58.1623
53.4096
29.5342
-5.6531
-30.4451
-12.0698
17.8223
56.7692
62.2392
35.7143
55.4678
59.5053
3.41163
-51.6266
-104.46
-98.5008
-0.62306
87.9322
222.815
299.032
224.341
121.168
-15.3922
-105.455
-149.45
-173.015
-184.442
-186.558
-140.095
-72.8654
-46.7937
9.49776
8.16759
-55.8038
-84.1303
-41.1111
99.5149
208.336
167.617
1.74101
-78.5791
-36.5701
27.4781
137.894
252.297
159.216
46.655
49.1849
50.7297
-30.0529
-125.57
-227.416
-229.118
-123.137
-36.0819
-8.44301
-27.696
-22.784
-89.9283
-79.1313
7.37294
24.7156
18.6106
42.2395
44.8685
75.6099
95.7305
34.2191
-50.1756
-15.8384
75.1864
100.532
90.3621
86.6168
115.959
125.183
26.1436
-104.91
-156.168
-131.221
-64.3553
23.3421
104.379
28.8171
-131.877
-187.925
-165.148
-96.4315
18.2288
137.473
134.555
41.3397
9.51388
18.897
37.0276
43.2058
10.4671
-38.8786
-64.8504
-88.583
-130.569
-129.441
-29.0623
90.7038
162.233
172.293
142.732
86.675
10.8494
-86.5824
-107.561
-28.168
5.49978
-39.9741
-54.9476
-40.0237
-42.4718
4.48828
78.1538
225.538
252.463
58.996
-99.915
-154.182
-137.544
-105.581
-113.584
-96.1382
16.347
180.846
269.356
154.952
86.6913
76.9538
-12.5124
-121.1
-218.565
-286.219
-281.804
-242.822
-106.017
136.568
275.91
232.036
60.6743
-18.6784
-35.6572
-30.1223
-53.724
-107.761
-114.783
-22.0156
13.404
17.5284
65.955
111.126
145.648
140.44
74.5465
25.6506
50.4545
3.91274
-102.006
-130.645
-38.0824
52.084
111.653
126.522
68.7352
-22.2512
-76.5435
-53.5648
-57.025
-96.2885
-80.2981
-14.8587
19.8975
-7.30325
-85.3719
-147.536
-122.848
-8.07013
169.481
200.107
131.891
77.0187
57.4811
53.1416
22.6978
-17.037
-53.9632
-78.2557
-65.994
-64.0167
-84.0584
-104.576
-81.5968
-0.98335
110.556
155.637
109.114
-2.08943
-137.924
-167.021
-85.091
-8.71014
7.12985
-16.5939
1.26078
-30.0389
-31.2339
10.2082
9.02685
36.8402
101.709
250.125
408.482
393.466
270.991
-12.7001
-237.778
-297.28
-305.327
-267.49
-177.477
-97.8394
-50.5343
-8.47199
49.6591
96.5614
5.02704
-123.85
-88.7582
68.0261
151.06
59.4918
-88.2181
-143.148
-108.636
14.5456
95.2538
102.876
63.1802
55.356
48.5267
45.7611
51.2843
24.8782
-13.946
-9.48722
51.3316
127.422
107.374
-22.1049
-152.536
-170.554
-81.0399
78.3317
214.722
193.155
83.1903
-10.2187
-56.6973
-62.2855
-48.2209
-38.9552
-46.4353
-64.4102
-88.6885
-92.9891
-76.4997
-53.9532
-3.86317
73.6924
97.1176
31.6188
-62.2959
-161.341
-220.248
-145.56
-57.0269
-4.8843
39.729
56.9811
67.0751
77.2786
73.5385
39.2209
-15.7806
-22.7378
86.4064
199.345
235.17
191.009
106.976
41.4537
26.0715
46.1452
-40.2861
-125.249
-94.6196
-86.4034
-88.2542
-45.5586
34.9091
142.31
185.182
66.3105
-44.2815
-51.0101
-74.6551
-142.098
-195.216
-207.117
-155.773
-99.3828
-100.225
-129.941
-89.1607
-0.511057
19.312
15.1659
6.23936
8.95715
19.6308
20.5324
88.5948
211.429
241.589
174.559
102.872
94.6265
82.5964
18.2286
-47.0211
-85.6534
-140.267
-161.81
-136.598
-15.3697
92.1751
110.536
24.2945
-75.6585
-36.5512
128.919
331.885
332.757
55.6778
-35.5943
-31.8281
-77.8512
-134.33
-160.845
-132.101
-69.1952
-27.1497
-26.892
-3.80141
-8.69263
-54.8007
-72.8521
-24.0442
37.7651
30.5147
-113.115
-299.133
-283.568
-79.1462
41.6135
94.2284
117.389
77.2929
25.9158
8.76307
24.7148
75.6811
149.656
225.089
200.323
77.7765
-7.34392
-56.5007
-69.2794
-83.4815
-92.1987
-80.4496
-0.444653
146.095
138.78
33.2195
-33.4965
-42.2131
-27.8416
-31.509
-24.7331
18.8984
20.435
-12.9121
-34.6907
-27.58
-38.2264
-5.87958
106.909
172.941
218.405
59.1954
-173.127
-183.699
-43.915
86.0582
44.484
-39.0798
-39.1437
-21.0697
-41.0781
-98.9046
-140.048
-142.75
-109.543
-32.3509
45.9514
72.4549
-0.50844
-109.637
-206.288
-160.886
-38.4278
18.9805
-15.1001
-49.3432
26.3273
130.731
173.663
180.147
162.479
136.951
106.05
71.1318
49.8989
59.9198
62.6377
46.6528
12.1817
-9.01288
-19.3164
39.4476
145.627
154.385
16.1274
-121.214
-163.796
-125.746
-74.8646
-45.2239
-26.5423
1.64103
8.87154
-28.7507
-101.939
-173.051
-105.534
35.3607
131.862
222.602
100.28
-93.4657
-184.797
-207.281
-151.437
-66.0499
17.9839
46.0716
30.8856
23.7053
23.9377
-4.37587
-6.42763
-0.411613
43.4333
89.1101
64.8088
12.1915
-18.3992
-80.2678
-57.8727
-7.08193
-16.2348
-54.5598
-13.7041
60.5176
85.9157
67.7533
73.6037
124.798
206.056
311.857
252.351
62.9175
-16.7669
-45.6666
-38.2927
-50.7275
-122.194
-192.014
-176.003
-119.887
-91.2974
-72.4779
-69.8545
-80.9366
-54.0988
-8.96422
8.89212
-34.1648
-113.851
-181.589
-137.426
-29.0808
3.97685
26.0288
51.022
87.8406
160.08
241.368
261.388
172.834
51.2511
-40.2614
-64.1424
-57.4033
-78.4725
-85.935
-75.0062
-55.9489
-28.0657
1.00422
17.7156
72.4431
103.628
100.854
65.017
7.21422
-30.6875
-76.4385
-86.415
-45.1484
20.6461
92.7237
122.829
145.649
166.509
133.316
72.9289
-1.16016
-77.7143
-172.939
-213.999
-206.814
-195.854
-139.945
-92.395
-49.3014
-32.5574
-40.4718
-40.8763
-0.556122
41.7731
71.2877
61.5368
16.2277
-16.3097
-1.17945
31.9329
65.1123
91.0297
104.196
119.553
123.865
109.726
71.7838
29.4514
-4.58112
-41.7152
-68.6363
-67.0941
-63.4436
-52.5109
-29.74
-22.3862
-32.1534
-45.1185
-39.4405
-22.9995
-11.6299
-4.20583
14.0902
20.4597
25.7177
23.2082
14.7125
16.5417
11.947
3.27102
1.37364
-0.804279
2.67976
5.60057
-4.33567
-5.04137
0.472972
13.8424
27.3814
18.7047
10.2802
10.578
5.90431
-6.79801
-24.8713
-45.2323
-65.4954
-63.4801
-47.028
-20.743
-6.45523
2.3614
3.80609
7.68025
17.0588
29.4779
41.3588
59.2107
85.9934
88.5747
34.9403
-27.7892
-41.8693
-37.9135
-66.0144
-76.4402
-86.0344
-89.6113
-26.0854
66.2081
146.917
189.194
193.478
168.847
132.234
-1.22324
-107.844
-114.276
-104.424
-109.087
-151.826
-177.747
-158.407
-124.309
-75.6644
-6.52003
92.5948
160.793
144.198
68.6873
-2.59848
-52.627
-78.3288
-70.7966
-56.415
-15.7238
4.32467
-21.4662
-13.7137
48.0553
92.7467
89.2214
63.8555
75.7365
118.44
97.1982
40.4002
8.7857
-15.6938
-10.2291
-21.1473
-78.1499
-112.728
-97.499
-121.084
-69.2165
33.5399
119.447
171.48
201.971
197.286
150.49
-15.1524
-140.331
-115.623
-59.8096
-70.6703
-51.456
-53.2128
-182.785
-264.596
-174.207
-54.1074
61.7026
144.214
178.772
169.716
98.2056
-74.8289
-193.736
-164.635
-74.9148
51.9066
116.016
91.9256
101.413
168.599
168.16
64.1125
-27.9522
-58.8608
-109.647
-196.624
-251.659
-219.415
-169.891
-22.141
145.498
289.638
310.606
130.775
11.2049
1.19558
23.8564
15.9338
-65.1302
-154.216
-175.665
-79.8791
63.3492
206.64
331.877
255.616
-36.3491
-176.811
-177.808
-202.168
-109.263
-77.9592
-115.892
-7.15028
51.3707
67.5699
116.138
71.3105
-53.8067
-105.657
-91.4643
-8.05381
89.4151
129.059
82.6387
89.719
202.148
202.759
99.1977
-19.3797
-179.856
-285.95
-277.658
-178.512
-83.2388
-37.3868
10.685
87.4922
147.828
74.7865
-11.9546
-94.8055
-116.716
-94.7388
-44.7584
27.8568
32.6617
21.4181
70.482
103.218
99.5225
71.1497
57.8619
29.7537
0.698615
47.1201
115.962
35.239
-88.0846
33.8709
115.15
109.24
58.4181
-55.7306
-87.1223
-0.607642
107.234
35.2086
-63.6688
-129.083
-159.958
-101.146
-69.7251
-20.5213
13.0219
-19.1865
-149.298
-174.33
26.2924
144.831
114.451
75.7363
79.8125
14.3085
-82.9428
-121.096
-83.8579
14.1794
33.0098
17.3065
-11.4838
-43.7246
-16.1999
26.7578
124.47
182.924
81.0883
1.46031
-62.5496
-89.6759
-101.296
-127.156
-149.967
-140.995
-120.644
-40.4657
-12.9427
-17.5938
62.4974
140.008
143.235
172.67
223.85
169.492
20.0247
-42.3231
-0.0106071
38.2251
39.9083
-18.375
-16.5718
3.09107
-4.29848
21.2556
50.4671
7.85858
-24.638
-8.36782
4.10155
-6.58718
-49.3162
-65.5899
-53.0749
-74.9438
-94.9637
-70.9674
-21.0742
3.91381
38.4718
41.006
16.828
13.7809
15.8758
10.4834
-23.3448
-51.7719
-47.466
-7.3747
50.8121
-7.07187
-86.2495
-106.909
-105.898
-20.1286
78.647
94.5133
27.47
26.0927
48.8449
22.276
2.0015
-4.57008
-2.29829
36.0076
58.927
54.2069
35.0348
-0.186351
-0.637786
22.8687
19.7979
16.955
28.9128
101.842
103.666
33.3142
-58.3037
-107.455
-189.829
-251.757
-170.055
-95.9533
-45.2947
-2.19848
7.34875
29.3096
146.341
291.363
255.075
135.824
168.38
148.146
-41.3396
-214.841
-313.041
-254.595
-52.7473
100.035
103.604
98.153
147.367
196.659
204.271
59.1916
-154.804
-256.674
-269.164
-204.685
-127.361
-87.7468
-125.495
-154.805
-65.7252
28.0735
109.446
77.3302
30.1827
6.30733
47.8644
163.717
249.594
135.994
-83.8499
-137.803
-67.7194
19.9701
85.2323
31.3017
-58.7199
-30.1955
23.5873
89.8868
116.42
91.0311
53.9469
24.783
45.6702
91.4948
151.681
116.522
-55.4549
-173.72
-126.079
-56.7709
10.5363
-30.0737
-110.542
-128.478
-88.0234
-37.5251
-24.8629
-48.5752
-100.255
-43.9548
78.7031
130.345
79.862
64.3387
4.80949
-123.545
-181.649
-114.275
-39.1471
7.56413
45.6551
83.6386
78.7077
41.8111
16.8093
36.4098
101.42
128.953
98.5584
28.2254
-20.492
-4.34304
-24.445
-141.55
-176.78
-112.164
-42.8854
28.8941
99.3682
176.08
169.112
153.612
173.634
186.613
142.399
-18.6994
-116.396
-177.494
-158.765
-133.668
-113.282
-135.775
-161.558
-131.938
-80.0534
-19.1247
39.3833
50.8024
-55.7717
-116.799
-55.943
16.0313
36.3587
43.8876
78.2715
91.2721
62.5956
84.3811
69.2998
-13.8773
-61.8162
-61.4059
-28.9875
23.9221
83.8457
113.92
67.5405
132.636
342.564
304.564
153.274
-5.2383
-147.634
-171.731
-175.048
-122.531
-93.4723
-136.888
-153.089
-115.574
-103.354
-72.7965
-36.1906
-26.8358
-2.387
30.7487
60.9543
-4.43618
-63.0274
-40.8722
-44.968
-67.2858
-103.538
-125.957
-90.5583
4.39016
61.693
117.3
189.044
244.67
288.44
261.415
181.127
133.31
100.63
29.1476
-43.8805
-53.8104
-58.6274
-5.81924
53.8817
82.481
55.5567
-0.292624
-76.5223
-141.041
-202.026
-232.728
-221.787
-223.797
-205.579
-126.758
-87.2275
-32.9147
34.1286
118.537
88.5774
30.4794
-17.3284
-49.919
-50.8113
-35.477
28.7255
64.4448
23.3296
-25.3151
66.7036
195.768
267.385
351.307
376.437
165.756
50.4001
43.2319
-58.0432
-148.754
-143.612
-199.149
-247.078
-205.186
-127.472
-55.957
-21.1881
-12.8577
27.2959
25.5558
4.05653
9.14903
3.04897
-77.794
-138.058
-87.2931
-32.6102
-54.1137
-82.5694
-22.204
77.7506
119.173
133.099
127.068
80.4197
32.8928
92.1228
154.362
159.557
167.494
160.501
172.578
210.234
130.489
-56.7451
-174.184
-215.766
-246.299
-187.682
-172.634
-165.172
-99.2065
-45.8853
-26.8568
-23.4708
-63.9321
-137.748
-129.881
-97.0218
-30.541
-8.09559
-31.4056
-58.5009
-33.1931
50.6843
136.537
138.502
90.3462
82.527
83.7765
85.7014
130.744
183.598
178.937
162.523
209.639
156.965
25.6377
-35.3601
-33.6578
14.3152
-78.699
-211.398
-196.805
-106.678
-63.5935
-20.8089
27.1903
19.7044
-12.3777
-85.8345
-118.823
-130.09
-137.403
-127.399
-89.8283
-13.3225
3.82263
6.71374
5.87316
-65.6861
-41.8294
30.0534
34.0158
26.8901
49.7137
113.01
153.745
148.118
96.247
43.9294
39.1945
75.0924
65.7495
60.5278
-19.7577
-101.648
-79.9622
-35.0009
-47.3279
-16.674
16.3029
25.7514
78.2733
135.036
113.087
7.18646
-66.5774
-124.559
-152.829
-53.1312
9.93399
42.0355
54.3503
-28.5902
36.9034
132.175
89.02
7.72191
-10.0912
-76.0902
-159.81
-177.897
-213.412
-263.818
-165.175
16.6842
218.16
300.131
219.2
100.953
-12.646
-103.666
-141.249
-67.077
2.33788
24.2818
31.0893
16.6229
-9.50321
-13.0081
20.9983
48.3596
65.1543
95.3802
78.7952
31.3898
-42.0388
-87.9029
-61.2673
-22.6789
-11.0443
-28.6005
-7.91787
5.99672
-52.3952
-47.0207
-3.14937
41.6567
58.6948
23.9315
-7.3541
-14.6527
-21.6711
-22.1086
10.6734
29.2056
1.81887
20.7167
61.7616
36.1314
25.3778
31.5043
44.0915
64.6356
55.8873
-11.5831
-25.8167
25.6993
44.6919
32.9013
-6.48954
-26.0574
-31.2342
-57.5033
-60.0022
10.8828
-61.8305
-173.769
-154.878
-96.9677
-92.5809
-113.394
-97.9049
-28.7478
-12.5137
-48.354
-72.4973
-12.7969
108.534
253.012
424.896
360.129
183.032
88.4009
31.6177
-41.8622
-107.952
-111.352
-46.9
-12.2445
-34.862
-81.8816
-89.475
-71.4023
-41.8216
28.8798
60.1285
16.8348
-25.4576
-92.057
-182.994
-165.365
-110.215
-65.9463
-57.0389
-153.85
-129.625
-43.562
8.15107
101.168
253.07
348.901
265.794
178.611
143.385
80.0612
58.3252
6.9967
-32.5521
-3.84265
-11.7483
-21.7049
11.5341
2.46245
-14.9701
15.1368
43.486
15.0817
-43.3099
-113.12
-233.682
-269.391
-165.938
-131.717
-83.3694
6.44868
74.2752
36.2715
-51.0937
-114.538
-102.955
-30.3603
113.156
235.477
215.155
103.665
26.7403
-8.59645
-12.2761
25.8755
122.702
176.324
112.978
-19.6405
-98.6539
-94.7786
-85.1575
-51.3686
-7.40158
-23.9361
-66.5144
-97.9254
-165.597
-214.112
-173.824
-19.7229
94.0448
146.457
162.018
106.954
43.6118
1.43781
36.5504
140.29
163.731
113.733
47.1748
20.5917
19.487
54.6022
82.3204
77.8741
31.6913
-43.2968
-110.754
-203.497
-183.446
-98.0938
-22.1713
44.3611
75.4672
-29.8898
-100.165
-116.613
-120.566
-101.057
-137.214
-137.451
-61.7504
-16.9481
19.6796
46.3624
109.653
121.8
134.368
177.397
164.065
129.099
62.9183
-10.6541
-48.6007
-27.4968
-18.069
6.70865
42.4315
28.8614
48.2413
40.4361
-31.192
-98.2752
-97.06
-44.8918
-80.144
-77.7166
-17.8957
25.9242
25.9453
70.0552
31.6164
-108.568
-157.364
-100.056
-75.9518
-91.764
-12.156
99.4161
194.483
260.548
250.479
217.625
170.501
72.6912
-15.3384
-101.415
-152.619
-172.434
-172.265
-195.142
-173.297
-74.3153
2.69965
5.63301
-1.67984
25.6038
13.7368
-26.674
-32.5602
-61.97
-107.708
-85.1802
-34.73
36.6779
120.054
195.692
162.96
90.0256
71.8478
88.2896
96.6279
40.2521
-32.3998
-43.4053
63.4439
172.756
164.975
125.381
-93.4333
-233.74
-169.353
-174.027
-265.53
-275.488
-209.344
-49.0223
137.686
194.736
161.392
232.075
314.297
251.898
133.218
22.2943
-60.7427
-155.812
-220.171
-243.002
-203.106
-122.369
-56.0447
50.0885
78.6063
47.399
79.2802
71.3746
26.289
4.7606
-36.5191
-194.122
-325.295
-274.259
-156.37
6.89456
134.26
233.22
299.059
292.518
332.275
311.095
212.018
106.035
-13.0779
-136.284
-146.946
-90.2904
-133.287
-182.064
-161.037
-96.2082
-35.8641
-4.97191
-71.5459
-176.174
-232.703
-165.031
-56.4726
6.36921
26.206
67.8027
99.1015
100.756
123.72
90.973
-8.2806
-21.1827
120.898
305.722
370.987
249.777
67.6734
-76.6925
-83.823
-15.2581
1.89564
-112.218
-235
-252.999
-154.185
-75.7408
-120.488
-187.862
-100.31
14.9027
-27.5095
-90.8172
-68.2331
69.0223
170.966
210.912
203.162
173.263
100.596
39.9348
44.5527
63.2783
7.10624
-40.1272
-13.8227
83.3352
129.996
103.616
33.9483
-55.119
-63.3251
-81.5613
-144.216
-231.614
-285.824
-291.004
-208.493
-74.9389
19.0179
27.0719
-1.94486
20.1146
80.7859
122.295
76.0128
18.0302
36.0976
105.302
147.272
229.456
261.225
161.381
-19.613
-210.567
-289.22
-215.626
-37.7877
220.647
386.509
352.948
120.313
-56.879
-76.5992
-58.6404
-95.8712
-206.277
-202.817
-115.003
-32.9286
-7.84933
-14.1502
-35.1697
-40.7412
-47.5948
-10.4024
57.9425
63.0816
-30.1865
-75.0943
-53.3148
-45.1448
-24.8727
21.2603
40.8364
18.4302
-41.9595
-72.7371
-26.4189
-33.2968
-67.2994
-83.7314
-76.6102
61.8007
259.118
303.418
164.828
80.8605
-11.9154
-107.925
-112.685
25.2777
136.669
120.128
44.475
47.141
29.3542
-65.0614
-200.942
-328.204
-405.504
-291.777
-38.1539
167.687
283.741
385.411
430.57
381.089
292.808
171.59
31.5936
-122.854
-271.185
-316.381
-290.456
-280.469
-204.564
-116.53
-29.8986
124.083
259.961
224.501
109.506
-51.4706
-233.504
-319.18
-268.233
-234.121
-189.931
-137.36
-50.6339
74.8169
147.997
141.206
151.231
105.016
98.9745
133.529
166.865
166.784
175.883
186.662
140.777
49.7677
-16.3991
-100.33
-150.219
-148.775
-108.079
-63.403
-13.5024
47.4461
70.7036
30.893
41.075
128.34
107.592
68.1886
75.9505
77.7367
79.2692
72.0545
-28.1526
-145.89
-245.126
-303.76
-247.015
-128.209
-31.6943
15.6243
6.75583
-8.71591
9.2975
11.7791
-8.4529
-17.0298
-27.6284
-51.5624
-62.6472
-33.5271
-44.2074
-84.9079
-71.756
-62.5368
-59.5802
40.4287
147.533
176.005
181.164
244.41
312.781
292.024
156.865
55.3654
-48.3073
-119.927
-120.997
-102.928
-104.514
-71.1153
-16.1355
-1.69965
-0.610666
63.9992
86.9418
74.0379
46.1756
-12.6126
-129.292
-177.618
-176.144
-150.901
-90.644
-46.8241
-12.9737
10.7024
66.1403
103.699
96.8297
38.0261
-27.4542
-61.1837
-60.5126
-54.388
6.91469
16.2461
-75.7205
-124.886
-39.2148
33.4391
-4.282
-111.938
-95.6802
17.9064
97.9705
182.88
359.099
369.166
196.376
75.0055
-7.82111
-57.5963
-64.9843
-63.1011
-99.0459
-117.391
-98.4692
-34.9192
22.6175
71.3456
48.3407
-51.7507
-79.9094
-88.1132
-82.7435
-81.1415
-157.392
-179.733
-113.36
-51.3387
37.2282
106.055
164.97
192.849
149.53
62.8289
-31.4636
-87.0673
-125.733
-167.527
-163.161
9.5085
149.653
152.214
150.091
135.696
68.889
91.5713
116.843
12.1677
-73.1504
-68.8061
-130.338
-137.867
38.1393
204.827
192.173
147.239
106.579
-17.2841
-104.979
-161.827
-235.225
-234.198
-199.88
-170.072
-153.45
-114.174
-57.7926
10.5224
50.1439
24.9241
15.4844
23.982
51.4599
69.4293
114.024
124.784
128.733
106.657
104.64
81.8653
64.8251
103.511
99.9958
44.7683
-33.8105
-97.6126
-89.0102
-28.1227
15.6423
49.8453
75.7408
56.9017
-8.38692
-78.637
-69.0273
-33.4716
-65.2556
-89.7271
-75.3624
-24.9311
-19.6481
-42.193
-74.1628
-106.484
-122.978
-99.7967
-66.1263
5.86306
72.9555
111.03
130.81
137.922
67.4265
-5.85292
-78.673
-122.171
-46.7805
151.666
228.213
196.525
95.5578
6.14923
7.35444
112.548
173.792
108.671
4.60265
-138.951
-158.724
-159.279
-203.194
-237.513
-212.491
-173.097
-137.317
-95.8618
-83.135
-103.103
-54.9086
54.569
113.174
132.198
117.383
-5.19084
1.33128
110.121
194.721
148.054
24.1543
58.2334
182.733
326.241
367.684
210.363
0.281425
-139.992
-156.625
-147.095
-159.193
-139.951
-52.1003
-65.1551
-151.583
-98.3269
-11.8725
-3.4204
0.692304
90.5378
96.2956
-1.71333
-47.6657
-125.153
-113.338
18.4486
78.7794
40.533
-31.9121
-83.1418
-87.7694
-103.566
-101.177
-50.7446
-10.0523
-6.63985
-15.6808
-15.6833
-37.7674
6.66526
70.0281
82.1937
66.5079
61.5881
54.9307
30.1878
87.1373
155.135
100.153
2.71724
36.5673
99.83
97.7747
35.0878
24.4596
26.6835
4.18926
-22.2381
-26.065
-20.4056
-38.2974
-82.9435
-70.3413
-75.5595
-71.4723
4.26689
95.7989
60.533
43.5734
63.7491
0.479891
-32.227
-29.5097
-169.892
-273.881
-294.301
-177.797
-1.9818
132.279
121.016
28.3298
-36.8286
-96.1538
-127.205
-146.693
-99.3138
-49.8921
28.1213
42.2722
75.3004
202.004
231.756
126.687
193.206
278.581
252.168
146.753
-1.92693
-144.961
-178.783
-62.2538
40.419
43.6323
38.6401
14.1
-57.332
-70.3484
-59.6024
-18.7254
34.705
37.1551
15.6169
-14.3416
-97.8795
-83.8852
-11.0331
20.4484
46.5663
111.788
123.514
1.30411
-37.8229
-0.420532
-6.98979
-36.9894
-66.844
-141.79
-153.773
-122.799
-108.329
-135.876
-142.741
-96.5106
37.0412
48.892
-11.3263
-70.4065
-82.4285
-70.2433
-56.3471
15.9208
37.2223
39.8366
110.869
180.134
140.819
137.021
161.99
176.471
139.27
77.0422
-4.31278
-36.1927
-27.2197
-24.1433
-29.1677
-10.5579
-22.2701
-14.9688
69.0294
171.962
160.233
71.3144
32.7942
65.4646
44.5094
-49.2488
-149.759
-239.496
-255.233
-161.765
-41.972
34.964
41.4121
0.924433
-0.611625
-2.31949
-16.346
-32.7376
-73.9385
-204.335
-239.654
-176.256
-112.203
-56.9281
120.538
157.103
75.5308
93.286
125.878
116.61
112.001
125.556
137.183
113.868
63.7078
-10.7477
-44.4767
-64.2236
-67.2784
-19.3878
34.1816
37.1965
-11.1551
-49.0152
-77.1606
-44.243
14.5256
56.4534
73.4091
67.9145
72.4454
46.7014
54.0646
35.7935
-10.3872
-20.2164
-61.6662
-145.793
-181.031
-142.606
-96.4371
-60.2717
-59.3952
-67.5583
-52.7251
39.9747
82.2655
71.5518
56.8504
29.5198
-5.39582
-22.5594
-55.034
-83.5779
-43.1313
55.9837
163.19
195.228
150.041
118.738
115.556
110.594
61.1735
-32.6536
-90.5863
-90.3293
-52.5229
-52.3144
-77.7476
-103.484
-104.214
-100.511
-111.209
-90.6584
-2.39941
38.2185
13.4073
39.7021
90.0248
92.1555
26.3104
-4.07095
-9.65867
4.99582
15.8748
21.0064
-27.9301
-58.0826
-39.0111
-7.55931
30.3004
131.877
186.781
137.823
89.2746
33.3274
-4.15046
-49.2562
-117.684
-160.681
-163.295
-170.24
-151.279
-110.825
-46.0823
55.0356
153.379
146.326
99.5247
35.8545
-48.2984
-87.2541
-49.5978
58.4121
114.653
115.68
106.69
67.0075
7.9326
-17.2665
16.7539
58.3518
57.6104
3.54097
-104.913
-116.404
-25.1371
65.9558
44.3634
-75.9056
-181.977
-240.28
-203.158
-114.471
-87.2671
-55.9566
-22.2083
3.50412
86.3316
173.12
186.661
159.967
108.716
68.9035
81.1647
52.4096
4.246
-58.757
-63.55
56.0723
164.755
190.895
155.388
146.403
29.1688
-94.674
-142.977
-136.397
-132.954
-146.542
-121.497
-73.1144
22.4994
92.6229
102.915
12.964
-114.644
-167.874
-152.24
-118.245
-133.498
-193.144
-163.24
-79.5603
30.8853
82.2765
211.729
264.537
165.691
87.7308
-11.0954
-80.586
-86.9594
-91.5949
-16.2401
113.727
207.497
240.328
191.061
119.634
95.5719
87.1892
3.04057
-93.9732
-54.2915
24.9882
-23.481
-52.0998
-37.0664
45.9968
129.963
88.5621
-38.9817
-132.76
-248.104
-354.146
-401.317
-385.033
-280.043
-145.162
-12.595
138.608
261.213
268.199
238.526
266.343
193.255
98.5656
61.5972
15.8648
-52.6143
-23.0395
-1.77837
-33.9841
-27.7342
-22.2304
-45.9996
-29.4691
56.3068
112.065
112.291
117.703
123.39
-37.2492
-190.736
-303.953
-346.546
-263.907
-132.565
-27.896
93.0333
146.628
110.403
143.412
184.417
180.285
187.372
138.682
133.788
109.659
14.2485
-83.92
-198.622
-291.268
-285.268
-253.276
-167.884
-1.74992
228.336
346.899
411.973
333.464
171.08
-10.1748
-179.92
-300.102
-278.891
-232.236
-208.971
-94.1164
10.0439
54.0549
147.972
166.868
103.911
54.0203
-8.20972
-116.363
-239.993
-249.836
-195.762
-121.035
-73.3947
-54.6466
-35.6852
85.9672
179.263
218.322
250.95
212.694
109.396
-33.8515
-100.382
13.3542
197.457
314.784
267.378
137.781
62.9639
50.3633
25.9482
-38.2614
-74.6321
-150.567
-170.673
-161.242
-194.674
-177.354
-98.3643
-3.06355
62.6992
114.602
118.606
49.2821
-73.2983
-210.981
-342.717
-470.749
-451.889
-222.863
48.4395
282.152
436.126
458.179
340.291
172.42
63.712
-9.96739
-45.9397
-60.0212
-41.1476
-25.7905
43.4752
138.041
91.1849
-78.8256
-120.53
-47.285
-10.4755
-29.6984
-68.573
-137.182
-301.722
-359.6
-310.15
-195.016
-19.1191
147.049
262.337
315.418
253.159
187.395
147.506
67.5877
35.8112
82.7333
153.088
214.461
187.288
50.4336
-103.439
-153.197
-134.51
-55.9784
47.792
90.1076
45.3281
-36.5653
-70.3323
-69.7188
-34.6146
4.85177
-67.4337
-94.2266
-19.996
94.6472
-13.6574
-102.932
-100.668
-98.1924
-84.4707
-147.569
-187.235
-136.972
-134.77
-112.687
35.1594
224.847
215.103
109.27
73.5938
53.779
20.9568
-22.6158
-77.655
-113.233
-3.57924
88.3149
76.3417
33.8638
-21.4763
-25.2626
-4.7528
-1.8222
62.8209
128.969
62.0199
-71.7998
-98.2201
-51.4026
-34.9623
-1.0006
54.8795
24.41
-62.4768
-75.4713
23.5578
187.613
261.556
203.404
157.937
138.561
74.2592
8.35993
-58.2572
-144.817
-181.317
-181.074
-156.003
-104.299
-4.76863
71.2778
51.1167
14.9734
2.0384
-42.9384
-97.2033
-212.248
-231.413
-176.153
-94.3556
21.4554
209.08
264.775
178.213
152.857
111.483
56.1724
4.27804
-87.9475
-162.244
-169.682
-88.3079
-4.38964
76.8667
82.132
-7.36303
-25.2143
-9.46957
-24.4255
-30.0171
-35.1874
-37.6893
-50.0178
28.7831
160.757
233.709
233.922
138.792
33.0059
-59.8535
-141.289
-181.304
-195.598
-186.233
-107.905
-46.35
-24.5653
37.5385
134.722
196.781
224.3
182.794
74.3041
-21.3179
-129.307
-184.793
-189.817
-154.503
-76.0988
-27.0591
29.9306
88.5559
199.477
166.907
63.1708
33.096
-40.2591
-116.344
-79.209
-1.08922
12.8575
7.5619
34.5911
66.4167
109.406
58.1605
-90.7388
-132.234
-70.0676
-26.3697
-48.1373
-37.4509
-21.818
33.8774
128.788
242.706
248.139
148.508
70.9446
-112.095
-276.59
-320.946
-267.859
-211.502
-205.281
-132.151
-13.5774
81.767
107.234
111.85
126.22
99.7471
21.0882
-18.7284
-18.3635
-16.9995
28.5748
53.375
-26.365
-20.8582
-22.9857
-43.4652
9.84059
149.903
306.026
355.272
281.557
161.532
58.1478
-40.8453
-108.835
-149.896
-168.875
-156.291
-142.124
-157.065
-129.728
-55.4015
23.0868
68.1734
112.881
130.653
97.9611
15.5978
-117.824
-178.107
-121.735
-76.0306
-59.2866
-31.3407
-16.1345
-52.5562
-126.976
-135.846
-122.757
-94.4716
60.0673
296.995
345.669
183.374
83.7262
37.9434
43.608
28.037
-41.0143
-90.4772
-77.4143
-26.2361
26.0431
53.4692
30.3062
24.3932
44.7327
48.9462
53.8386
37.0214
-30.4265
-114.221
-78.8144
-1.71824
-16.1173
-21.9611
-53.4909
-122.608
-196.687
-209.74
-128.011
-35.9676
12.8987
45.7314
89.5069
119.488
145.894
165.673
150.849
136.426
64.1151
-69.6716
-113.824
-38.3206
33.1933
44.1884
13.8056
-0.741114
57.3162
62.3619
17.2907
-13.6977
-52.1587
-77.3677
-27.1783
30.161
53.1861
47.2661
44.7538
66.1365
66.1993
13.7028
-74.9546
-127.075
-148.326
-146.639
-130.304
-105.001
-66.2338
-16.2
1.75113
25.9453
54.3751
73.7619
2.22148
-87.6428
-72.1358
-20.9257
41.4347
94.1203
143.815
59.2468
-3.62725
-13.6728
37.5842
125.345
121.494
38.7311
20.8816
33.2086
-8.20146
-73.8712
-84.9644
-51.9023
-23.011
-21.4331
-11.0649
-0.328322
-10.4394
-43.5002
-77.9469
-18.2428
14.0762
30.1558
18.7256
-38.9379
-19.7
67.7024
86.7371
60.8152
60.7641
30.8726
-48.3299
-69.3416
22.842
110.839
56.4558
-18.8722
-68.2753
-83.8079
-89.0902
-29.4197
23.4118
23.253
-37.6735
-120.192
-130.034
-97.8447
-24.04
100.951
237.589
216.443
145.307
79.1838
-16.1529
-74.3906
-58.9651
-11.5118
-13.558
-69.6948
-121.124
-159.527
-154.503
-96.6719
-31.6789
46.6864
128.831
236.781
203.877
22.1106
-121.014
-103.576
-21.9776
18.184
-22.5152
-71.8209
-53.7289
-43.6105
-12.0361
3.50222
13.2173
16.0401
-14.4374
-25.7004
28.3325
52.172
16.5976
-8.93201
-7.16691
43.0531
122.119
142.646
62.9915
48.4231
58.8396
53.5908
23.7472
-3.85533
-16.1821
-10.3277
9.53875
25.7074
46.052
46.7916
-7.91559
-47.4103
-76.6983
-125.601
-145.361
-141.034
-204.764
-219.135
-165.164
-119.729
-31.738
59.2884
138.353
246.125
286.104
191.355
94.5992
27.895
-5.96345
-73.8473
-122.068
-130.374
-108.888
-82.665
-34.5631
39.3723
84.8641
113.693
161.389
95.7234
2.78836
-51.9343
-101.076
-180.136
-190.98
-84.6583
-20.397
50.5807
111.598
154.092
148.639
125.162
127.676
67.0441
5.05353
-36.1865
-66.6021
-71.1876
-60.2894
-57.3342
-56.1869
-86.8895
-107.554
-83.3599
-66.7311
-17.9183
63.4626
144.732
162.624
140.825
109.95
47.0649
4.67197
15.9196
15.3134
-6.55097
-38.0946
-35.6465
-9.02143
1.67732
2.4962
-16.6113
-87.017
-102.534
-103.487
-59.6466
75.3234
151.569
-9.20456
-200.91
-188.117
-85.7469
-24.8843
-0.849942
50.3814
69.7323
48.2754
10.5517
-26.5868
-56.5403
-48.1711
14.3313
91.8605
111.077
106.614
59.7641
-78.8756
-190.789
-99.0636
25.4893
55.4806
79.1276
79.4485
90.6327
73.4108
50.045
55.4761
34.3532
20.196
24.3596
30.3357
17.1558
-33.5437
-92.8374
-94.7148
-32.2731
57.7971
78.3986
47.4321
21.9156
2.10639
-20.1992
-57.464
-89.7828
-121.862
-127.967
-96.5666
-58.4568
-20.1337
24.3904
56.319
106.088
138.518
118.716
82.3411
16.0704
-51.4723
-55.7195
12.9697
8.14013
-27.5478
-44.6708
-85.5965
-123.603
-104.809
-7.65105
86.7329
155.536
223.73
162.885
14.401
-85.4454
-87.3702
-100.993
-133.915
-133.33
-137.933
-155.076
-129.864
-41.6142
10.2622
19.4363
49.6168
87.7707
119.476
114.83
103.537
90.3167
39.3215
29.0087
-10.8599
-16.3241
19.601
51.3116
86.7818
109.53
75.6882
12.0892
-40.6308
-58.1308
-15.6784
66.4039
127.31
82.4701
4.17959
-63.2336
-114.874
-145.57
-166.758
-171.7
-98.0543
-6.93183
37.1396
64.0041
78.874
65.4211
16.2773
-23.4915
-14.3663
19.4605
-1.97417
-55.5947
-63.1575
-34.1552
-19.0492
-21.2754
-36.2703
-37.192
-6.21673
50.7527
99.9166
90.2709
55.2698
6.79952
-64.7586
-123.754
-102.653
-16.3654
58.3641
91.7786
99.0203
63.162
17.5332
-0.0252089
12.8111
22.0909
11.8788
-21.4098
-66.9955
-56.1445
-16.9145
-13.3285
-4.97965
31.4013
56.1805
55.7222
38.8422
-22.5224
-102.113
-63.9281
9.99219
78.4925
144.121
241.598
156.105
-34.2705
-106.185
-114.521
-95.6526
-62.5652
-55.2216
-72.5009
-83.3514
-64.9267
-41.5152
-39.5469
-22.2025
20.8768
26.8823
-2.08235
-24.6245
-60.7226
-108.613
-147.149
-75.1459
76.6444
151.714
139.024
68.6577
53.7595
96.0324
100.381
88.2272
87.9701
86.6941
85.6045
89.5151
39.2054
-72.3778
-119.47
-97.9038
-31.4248
-0.400562
-36.7385
-59.1775
-70.5966
-71.8506
-59.206
-41.7305
-39.7467
-29.0682
15.5799
22.0175
14.7365
26.4668
16.4869
-14.7482
-13.108
52.8956
58.4244
36.743
-0.363984
-51.1208
-55.9329
-32.6471
11.433
20.8167
39.8314
58.0342
26.7356
-37.4038
-60.2991
-43.9968
-34.0648
-40.0866
-49.3997
-60.5988
-65.1529
-48.7469
3.25081
43.2467
56.309
112.407
220.601
185.168
46.6785
12.7208
-10.1114
-7.01672
25.2834
1.16559
-33.0532
-52.1427
-76.8093
-59.0522
-12.9688
17.2604
51.1221
83.1048
78.3466
24.1218
-33.9014
-57.2684
-103.148
-92.6996
-62.7243
-74.2417
-71.2612
-52.4935
-46.7515
0.219203
41.5873
23.3462
-22.884
-76.3355
-66.7686
3.65975
92.3746
130.775
107.026
58.1228
40.0137
35.8793
0.190037
-24.9073
-19.1639
-42.082
-12.9352
11.5941
-7.76313
3.71139
23.5317
31.1315
42.8897
30.9759
-26.4516
-43.4772
-70.5734
-91.486
-39.2696
45.64
49.5138
-10.9512
-13.1781
7.33726
-0.754649
-7.74017
-55.8559
-39.6397
21.2453
66.3182
111.412
176.429
141.366
48.7503
12.0167
-22.2601
-21.808
12.2457
-6.49502
-101.847
-120.802
-84.4574
-123.206
-143.264
-107.619
-38.6292
7.02558
8.24919
-4.56737
-22.4257
-68.2227
-91.3678
-38.9788
34.1077
77.2498
92.535
73.9839
83.5172
77.2216
83.1743
98.7897
94.6209
103.696
80.929
81.6742
77.5753
62.2741
13.5536
-21.3269
-74.3396
-131.71
-172.86
-132.483
-19.0416
118.762
132.389
32.6604
-68.1517
-112.364
-125.146
-134.864
-113.931
-103.947
-78.8809
-36.373
-18.6895
18.4824
59.048
95.8111
140.2
136.896
92.0349
32.2225
-5.48027
-48.0989
-74.5991
-21.9823
21.4184
14.9856
3.43227
-6.72349
-0.540902
49.6017
74.0125
56.2549
11.0191
-80.8239
-192.369
-190.858
-136.158
-20.4397
137.151
268.485
193.248
14.7208
-48.4111
-51.5854
6.14098
56.6016
29.9719
-0.0904136
-29.7927
-71.0698
-40.1989
16.6463
64.1688
72.5232
109.074
99.0163
24.9056
-71.2799
-128.394
-150.126
-110.733
-74.7227
-63.0242
-40.7471
-58.9132
-75.2927
2.75042
75.241
87.612
117.367
154.309
93.7138
10.3841
-7.08043
-37.565
-102.303
-87.8432
-1.27955
45.4097
14.9133
-28.422
-32.427
-47.2308
-46.6222
-14.1072
42.7004
75.1047
88.6594
109.312
67.9813
2.04918
17.6187
1.30901
-57.377
-51.2748
3.58395
13.0281
-37.1313
-107.253
-141.321
-101.534
-22.3453
28.5909
55.7631
36.5055
-35.4679
-67.3796
-52.7563
-12.3569
61.7164
162.17
154.301
65.4532
50.1828
52.5664
50.5142
55.6898
37.7825
-2.22489
-39.9348
-52.4128
-85.4354
-95.2438
-75.2674
-58.2238
-39.6935
-25.9237
-41.2557
-58.2792
-76.4139
-90.1105
-75.3872
16.1181
105.738
169.021
144.263
28.739
5.17096
23.8881
13.8869
12.2052
43.7866
64.0938
60.3114
22.9818
-16.698
-31.7845
-24.5415
-37.1074
-87.9931
-168.676
-140.302
-58.6657
22.8617
43.6361
38.7715
30.0311
2.0149
32.4065
98.7733
107.431
55.0388
42.3557
35.2717
63.7847
49.0504
1.79287
-29.2528
-45.0587
-35.6746
-24.6947
-38.6085
-46.8286
-45.5833
-59.8719
-75.8243
-55.3714
-86.574
-146.946
-121.179
-46.6323
54.7006
122.412
170.05
85.0535
22.6657
41.2074
59.1346
75.0597
46.4022
8.22627
-23.3883
-38.7118
-46.0327
-43.9502
-45.9899
-2.10351
59.8276
69.8008
51.3064
34.1426
8.79803
-23.8209
-87.6719
-103.147
-65.8392
-42.5132
-15.6833
3.02482
34.8003
59.1957
88.951
56.8541
47.9657
68.5121
56.9151
15.0755
0.346383
-7.82473
-39.7915
-51.9656
-58.0791
-78.9997
-86.6679
-39.4739
-2.49021
-21.117
-43.5453
-43.813
-25.5964
-13.0387
-3.9859
36.6078
40.7936
23.534
13.4131
9.49724
5.08627
35.7644
38.6858
32.4824
35.878
34.5666
-28.0082
-92.0711
-114.727
-37.9865
49.9094
98.584
95.3244
65.9458
-1.51963
-70.4724
-67.7324
-33.1679
29.698
106.414
202.94
187.283
79.0776
44.1198
25.1635
-14.3508
-35.9534
-54.9778
-38.3821
-66.9122
-124.284
-169.558
-179.874
-148.573
-94.4171
-39.8718
-28.8654
-19.3905
-6.28347
-14.9827
-56.8634
-49.7073
-0.663712
-17.0689
-14.2947
8.10808
69.418
150.92
189.192
182.7
123.421
63.613
36.8878
42.4805
50.821
50.9195
13.0985
-20.1432
-42.5719
-61.955
-84.2888
-86.2295
-64.0777
-51.3081
-41.9344
-18.7476
1.73406
21.581
25.7257
18.9602
21.5285
18.5374
5.33337
-16.3516
-14.4568
-6.6799
-1.96982
2.03456
15.0756
20.9211
10.7962
3.60909
8.54813
26.0159
6.37339
-26.2458
-39.9932
-31.0565
-23.6863
-29.8888
-34.6937
-36.3224
-19.0688
14.7762
30.5389
36.3375
41.4072
17.6099
-7.71195
-17.6881
-16.6619
2.38412
16.7149
17.0854
2.29698
-46.9484
-41.3462
-15.5231
-4.61402
-5.02854
18.989
29.9257
38.6238
49.0877
22.9633
8.22228
9.25783
17.3672
-12.932
-31.7152
-18.5549
-4.40665
5.45378
-5.34781
-25.0938
7.78898
28.6858
29.4333
54.8078
77.3298
57.4462
18.9652
-31.4025
-85.5743
-97.4739
-117.294
-129.574
-100.658
-43.5622
22.6835
65.5355
117.482
103.632
59.9615
77.075
74.9761
57.8994
43.5799
-10.9376
-80.6723
-131.114
-118.829
-85.0095
-54.5772
-23.7087
37.6305
77.6406
97.9219
109.551
28.0951
-46.7913
-85.2898
-56.4591
-7.82093
2.87745
22.7484
26.1032
3.37909
-18.1315
-1.39184
27.5481
34.8244
40.8056
73.7441
86.7816
62.07
31.8918
2.79205
-55.8048
-94.1653
-84.1964
-86.1819
-84.7549
-67.4129
-50.5984
-51.0295
-37.901
-32.4368
-26.2626
-7.34544
60.7488
137.382
123.295
76.5289
34.0436
-8.89247
-14.2644
-7.24736
1.90235
-4.45914
-55.8017
-74.6115
-62.567
-18.7238
52.744
120.597
101.656
67.7278
81.6586
33.5754
-53.1642
-106.807
-91.0045
-81.5106
-62.2868
-20.123
17.7294
20.045
-42.3327
-15.2831
64.0841
98.5372
87.0724
59.7202
19.7069
-24.004
-42.8265
-33.832
-24.6348
-1.86873
2.34136
-22.452
-23.2199
-3.70447
2.78811
0.156026
-15.7472
-34.4629
19.0372
46.8845
57.9302
69.6178
77.0604
16.7884
-18.1356
-20.1304
-27.0184
-61.9666
-133.402
-116.689
-54.4654
-21.7081
-17.7339
23.3691
85.6656
98.7296
97.7944
31.2726
-49.7237
-112.03
-173.361
-184.6
-125.819
-61.1994
-96.2954
-129.041
-116.58
-46.317
93.2902
182.808
226.714
264.684
336.919
364.415
270.867
139.387
63.7244
86.1238
91.9512
68.6454
36.7344
-77.4872
-196.171
-193.567
-63.783
-169.352
-271.447
-234.005
-163.15
-107.626
-96.0062
-135.56
-180.955
-206.051
-178.075
-96.6272
-47.8014
-16.1722
20.8377
81.7191
114.751
191.404
271.736
306.923
330.518
380.698
296.966
174.833
64.0177
-25.1452
-112.572
-166.023
-206.489
-267.103
-261.936
-159.07
-77.1768
-34.1314
49.2621
87.0329
73.4651
58.6708
37.0036
19.9745
-67.3327
-16.6582
114.613
131.102
90.9756
20.4919
-38.3738
-52.2297
-105.197
-93.6524
-40.0608
-25.2746
-2.83653
43.6462
66.8645
6.39459
-24.5098
-58.1519
-91.0826
-123.181
-127.161
-100.403
-52.2305
-23.186
-52.2922
-63.6393
-5.23646
66.1573
146.426
194.021
174.719
101.864
28.2364
-41.4245
-56.3223
18.0989
52.5116
74.0315
126.603
152.963
80.4553
-71.2896
-93.6435
-36.0588
-29.9941
-38.1438
-57.5319
-80.3819
-78.2248
-87.5192
-65.5888
-7.35612
-4.39796
-34.2121
-17.4644
1.74627
-2.97489
18.4572
-1.99653
-55.3906
-13.2767
99.0136
113.98
107.263
164.844
79.8523
-30.9605
65.2209
64.7245
44.8409
72.2408
115.404
116.835
96.2958
34.9693
-102.741
-182.782
-254.302
-311.5
-302.648
-203.104
-86.9252
-24.0774
-47.5954
-83.9891
-12.9965
87.1243
80.8275
79.6738
60.4789
26.2174
-6.03745
-27.2283
-39.1787
-28.8752
39.4325
71.0729
98.0899
136.947
154.218
90.4528
43.0374
50.8075
66.6511
62.6003
88.192
76.3403
-3.76991
-27.3505
-8.57197
-4.5925
-43.5819
-79.2235
-96.8952
-105.764
-60.1438
25.7882
37.3478
-22.1238
-49.94
-30.9149
0.33522
47.4824
38.9429
-24.472
-73.7595
-102.615
-103.772
-12.0707
121.939
150.64
23.7683
-60.9538
-17.1348
25.5322
20.4153
-9.0553
-9.59661
-30.7933
-130.257
-211.576
-141.598
-70.2239
17.2098
146.704
284.467
331.971
178.213
54.4804
-72.2721
-159.178
-135.407
-68.6607
-32.5198
-18.7976
-26.4229
-33.6638
-24.3667
24.1662
93.1462
113.499
47.8199
-29.8156
-80.9488
-100.797
-114.058
-76.2212
23.3417
43.3851
15.5238
-13.0877
9.62189
47.1458
50.2571
52.7801
100.059
130.876
32.5855
-60.933
-66.6237
-17.9319
14.9826
31.0243
21.4146
-44.9217
-98.8424
-99.5235
-64.7225
-32.4111
-18.962
-7.23755
12.5653
28.3487
46.0477
44.8491
21.8762
25.7217
82.8979
117.405
101.776
47.8994
-22.8849
-80.8598
-85.347
-55.833
-28.868
-6.78674
-5.68908
-18.6441
-16.3698
4.14545
19.1033
42.2572
60.8164
-7.05709
-82.5207
-94.0154
-65.5506
-39.4951
-47.3384
-74.335
-95.3136
-115.697
-79.3288
40.8061
143.805
164.335
117.748
88.1859
47.5311
-0.723909
-27.2829
-26.8553
-40.8664
-33.0118
5.57281
32.8357
66.9614
105.436
106.776
109.288
94.2423
78.8939
54.4098
10.7411
-66.2315
-109.722
-97.4034
-90.6265
-84.1901
-90.9292
-86.6205
-113.749
-128.956
-100.665
-37.7053
22.0064
88.8618
99.4
45.8298
40.8534
63.4028
44.4531
15.0682
-28.4794
-69.4577
-85.9179
-51.5695
-20.9148
13.8376
58.1529
95.0985
102.103
69.1923
44.7019
4.1354
-50.3418
-67.8072
-29.5962
42.6989
69.9308
52.6096
47.8611
41.5124
10.3798
-38.7608
-43.5508
-3.59145
2.33857
-48.3444
-55.6812
-43.1027
-41.417
-8.41786
5.04873
1.35555
-15.1639
-61.0642
-114.087
-58.9326
4.1662
33.5977
102.282
240.157
283.641
156.257
39.9755
-64.6551
-110.656
-123.101
-164.71
-198.253
-194.179
-197.937
-186.903
-145.279
-34.5295
67.8614
206.292
297.489
277.528
194.141
108.965
-26.8237
-110.067
-72.2773
-52.8763
-39.1882
-15.1519
44.5861
105.992
116.381
107.409
97.2968
80.3041
50.6695
-5.05646
-57.0232
-109.645
-165.348
-175.245
-129.112
-120.264
-141.533
-109.27
-34.2054
1.43885
20.2321
10.382
-9.5782
11.0368
60.7968
90.6537
98.3132
108.837
107.573
73.2218
33.0971
4.40782
-14.9544
-43.1468
-54.7325
-54.1102
-53.9313
-37.2632
-7.04461
28.7788
49.5771
51.3556
55.4648
28.5786
-27.2925
12.2408
36.7438
28.9231
23.4233
8.91497
-8.4117
-33.9102
-32.0594
1.09623
10.451
-21.2944
-76.6684
-98.8114
-54.2015
12.0856
62.4264
81.3329
66.009
20.9304
-5.4481
-48.7571
-58.6533
-37.9064
-24.7184
-37.5968
-12.8289
59.2259
72.0418
-5.76453
-80.1829
-142.877
-122.372
-62.9482
-6.77193
39.8973
86.985
91.7006
-0.385505
14.7327
57.8504
69.1927
63.8947
47.3815
43.6582
45.8594
16.3524
-45.6469
-98.0994
-67.4679
-13.0937
48.067
76.8593
91.4304
77.666
57.401
5.72174
-33.6317
-15.6878
-9.75747
-25.3608
-39.5907
-45.3135
-62.7292
-74.1778
-54.278
-33.9424
-34.7289
-26.3697
-12.1899
4.31027
47.448
66.8922
32.0872
-11.5899
-39.5439
-44.3174
-56.6221
-27.752
7.43152
29.9387
35.903
50.6619
86.2954
74.1189
9.03541
-39.9396
-90.306
-63.4243
-1.78545
52.2075
49.1463
23.4083
32.9593
56.1115
77.341
40.5273
-8.59078
-26.9748
-57.9433
-108.857
-173.087
-193.354
-194.419
-139.996
-35.8991
87.2136
195.292
148.179
109.964
96.5287
98.9677
86.5975
33.4503
-7.05041
-23.4901
-5.58365
25.8943
61.6935
56.709
62.6517
84.5965
71.6341
50.888
7.57572
-28.0369
-57.222
-82.6144
-73.3328
-94.2848
-122.894
-125.395
-122.486
-108.653
-111.957
-134.379
-102.317
-13.6642
48.7485
68.4789
89.3324
98.5779
100.593
101.942
90.6482
62.8426
14.732
-11.305
17.4567
36.6678
53.6939
66.8791
76.8463
39.2084
-65.758
-126.914
-99.4368
-21.2994
21.2806
-16.5655
-43.4191
-34.7868
-29.702
-9.88325
52.0697
96.1321
73.2893
0.181071
-41.4399
-85.2921
-133.698
-107.492
-44.5268
33.7219
135.016
236.884
190.389
26.8327
-50.4474
-49.6618
-26.9195
-25.2154
-24.5106
-41.5842
-73.2613
-81.9376
-67.5867
-42.3329
-39.5861
-22.217
10.5962
10.02
-0.473656
-1.27751
8.63255
-6.72157
36.5145
137.035
117.294
61.0287
7.12472
-44.3762
-107.039
-122.537
-108.697
-85.8147
-37.0946
0.957464
17.4833
61.9729
81.9864
82.3181
82.0476
73.4677
54.4454
-6.66441
8.4885
26.8405
11.6259
38.5235
89.715
88.5035
58.9153
62.994
91.6731
39.1473
-36.2695
-43.9325
-38.7058
-57.961
-67.7276
-84.2344
-99.7308
-109.759
-96.8684
-92.5549
-134.344
-165.534
-134.013
-88.3774
-86.6404
-80.5277
-54.4793
-28.9289
-8.63256
73.6121
170.62
235.32
272.055
154.504
44.2102
1.76243
-5.84966
0.506937
10.0794
19.5011
16.6611
2.44676
14.1794
34.1508
44.1544
63.5978
101.335
88.2956
38.0688
6.4854
-33.069
-80.3492
-109.811
-62.8684
-29.7386
-26.6018
-23.1677
-22.969
-23.2461
-15.5905
-44.7315
-105.207
-106.808
-79.6334
-61.2136
-41.8039
-15.0986
20.812
41.8499
37.6465
42.9025
52.3122
59.5294
82.4072
67.9633
45.3844
38.0282
20.5266
10.2118
23.1299
23.4881
21.6896
10.1063
-9.11017
-27.3625
-13.5412
-2.1183
-21.6914
-52.4438
-76.1203
-58.7581
-82.4479
-137.786
-114.801
2.40554
68.1935
34.8448
9.33119
18.5041
-3.63767
-30.3165
-5.65251
26.5884
36.5268
61.0781
108.155
97.9345
102.515
158.235
215.317
100.426
-10.1908
-56.5526
-89.7386
-90.4365
-67.3898
-36.2374
-48.1134
-71.3744
-67.6901
-46.7026
-35.6507
-48.0187
-38.9459
-29.7502
-45.2869
-32.6535
-22.1421
-37.9248
-59.1795
-32.3233
16.3211
45.4299
35.8331
-6.38694
-53.5477
-66.098
-24.6612
-6.56205
16.4106
77.2296
112.51
134.374
144.151
135.166
100.072
59.51
2.54722
-75.7956
-127.862
-124.751
-75.9774
0.718345
59.327
57.6366
43.1624
45.9831
47.4331
38.3914
25.7335
3.73601
-6.99218
-8.87103
-8.14152
-9.94779
-32.2247
-60.9406
-75.4792
-70.2043
-72.812
-57.928
-80.0195
-130.333
-128.146
-111.11
-42.4623
53.6088
187.034
236.874
175.549
125.958
35.6649
8.4782
-4.54258
-71.0442
-91.7541
-76.7186
-55.3693
-27.4346
9.9099
34.8025
52.8487
41.1173
28.7322
29.4883
5.19931
-24.5313
-86.8541
-96.8677
-42.8576
-25.1156
13.3551
26.4635
29.0857
46.4418
42.8166
42.2802
49.2129
77.3896
46.2379
2.3885
-39.1043
-43.5467
-32.5714
-46.1052
-60.0771
-88.476
-111.673
-97.9105
-45.576
21.5434
51.8719
37.6344
41.8597
78.349
99.2374
89.7491
86.0586
72.6858
41.6294
-2.93946
24.5505
53.849
36.1739
44.9534
48.9479
36.5681
-7.76981
-47.189
-73.4446
-100.409
-101.106
-109.771
-119.994
-104.41
-84.0287
-55.2948
-43.4812
-48.8883
-27.2945
39.0837
52.63
21.7657
-26.0714
-36.8677
-15.2574
13.8789
56.9314
119.349
134.43
82.618
66.4722
71.3008
38.5805
7.03654
-12.8912
-31.967
-47.4535
-81.2691
-118.78
-97.4227
-29.172
54.1024
108.331
161.017
196.595
98.5049
30.8995
-19.1429
-57.6836
-77.7374
-96.0301
-110.554
-98.0035
-63.3911
-39.4302
-15.5593
17.5306
36.6249
49.0201
26.4219
-13.3458
-17.0246
4.52144
-9.11799
-37.0562
-12.0175
-16.795
-26.2255
-22.3524
-5.50505
18.2506
52.401
67.3022
44.2896
24.092
23.9939
3.62016
-22.4787
4.1025
39.5325
46.4223
42.4092
54.6148
35.4689
-34.7839
-52.878
-70.7127
-90.8503
-77.9205
-38.2771
-17.2991
-6.62504
-4.18877
-1.57639
6.78538
11.9351
18.6736
25.9535
19.1016
19.4815
19.6263
5.59257
-19.4683
-32.1491
-8.56173
24.728
59.7482
52.4222
11.2142
-21.5014
-33.2908
-43.2061
-37.8351
-5.97778
33.4118
75.0655
86.4004
47.5126
29.3962
-10.8265
-47.7544
-62.7408
-54.4071
-47.0143
-34.6521
-13.7773
-16.1791
-8.47219
11.288
19.8068
11.1907
-10.8027
-29.5849
10.7235
39.6156
-11.3945
-66.54
-74.6447
-46.9502
-6.45737
23.0565
18.8789
5.59435
-2.19421
-8.91858
6.12742
54.4067
51.2757
16.2741
28.3447
60.233
120.801
182.562
211.033
149.113
45.6996
-22.4527
-57.3671
-116.061
-165.104
-157.901
-106.145
-59.9633
-38.827
-34.662
-38.5752
-47.3394
-54.3163
-64.0824
-48.3801
-17.0324
-17.781
-39.5416
-77.4714
-55.1615
20.4358
83.5907
139.756
167.19
154.567
96.0823
30.3542
-7.79828
-20.3143
-35.3033
-80.157
-110.43
-100.419
-58.4415
-38.8606
-34.136
-15.4658
8.37997
26.1532
25.7088
27.0403
24.5566
36.8165
62.8808
87.949
104.428
122.298
129.942
84.2318
43.3705
21.5999
2.03648
4.44397
6.27684
-12.3627
-21.6643
-35.7561
-63.6156
-104.381
-108.958
-95.0079
-86.9429
-79.4342
-64.0114
-57.6465
-64.5416
-54.7283
-38.7286
2.89082
34.6088
47.0183
53.7333
60.8347
58.3863
52.6065
16.042
-23.2843
-42.9531
-65.8234
-72.415
-40.9038
-8.35785
6.76621
17.6529
34.8907
67.4193
80.7596
63.6364
39.1365
37.1356
58.1294
57.5372
46.1856
37.7329
14.199
-0.171572
-1.95565
-2.72202
-12.6828
-19.2049
-11.5928
-7.34629
2.463
2.94283
-16.8684
-37.5208
-61.334
-71.4778
-62.3917
-65.8978
-38.6668
4.38908
14.4667
50.8422
73.4732
68.5948
54.0831
13.157
-10.3289
-28.0834
-66.8759
-99.5977
-122.139
-119.1
-64.6675
-4.87149
28.8488
48.7714
54.7942
64.7928
60.1109
29.2677
-25.3265
-100.106
-88.7686
-23.9733
51.5157
134.855
219.652
237.113
128.31
66.7933
30.8866
-18.8819
-52.0337
-75.1658
-74.3241
-71.903
-58.4144
-47.0874
-62.1556
-75.4874
-55.262
-4.58736
9.31035
-4.68894
-47.7572
-80.1051
-90.3061
-76.101
-10.6724
18.8995
56.2347
80.6
64.9137
36.2126
1.29074
9.4008
23.6174
30.2691
42.696
39.9135
43.185
44.1949
22.0115
10.0251
-5.18639
-32.2332
-57.0978
-64.6479
-26.233
4.65471
13.8544
31.5868
47.893
68.3126
64.2446
19.8289
-15.4784
-28.6361
-51.4199
-82.1313
-84.5764
-52.7081
-37.1192
-19.1463
9.27684
19.9924
-7.15658
-29.9221
-34.945
-25.8194
5.53284
44.8784
50.8967
31.5803
21.7374
20.3398
28.6116
29.5356
30.1751
45.0153
54.0902
32.1297
8.49503
-15.7521
-33.1427
-21.8547
-18.2203
-25.5596
-11.045
4.87987
-13.6422
-35.9162
-36.9944
-50.5415
-53.9748
-35.2906
-18.216
-11.2186
0.244779
19.7734
34.4017
14.465
20.078
38.1741
49.3048
41.6654
20.0494
12.3547
19.9983
18.395
-8.23289
-41.6575
-69.8405
-61.9923
-35.0171
-0.75759
29.7249
44.972
39.8117
17.8281
-2.67417
-5.36283
-10.6645
-5.85337
5.44077
35.7979
43.1627
27.8424
16.8794
1.1456
-2.98279
-8.15755
-8.82103
6.60548
4.69792
-19.3618
-45.9577
-61.6343
-48.9939
-14.6446
8.44842
23.3495
21.0673
3.24376
-13.2138
-41.4755
-42.8011
-22.4506
-18.084
-17.0564
-5.01975
26.788
51.6733
39.8447
26.0961
15.8539
8.49891
24.7002
32.515
34.7919
28.0269
12.1284
-4.92555
-23.3277
-47.0428
-47.1535
-30.3609
-14.5531
-1.08257
14.906
18.4004
11.5874
6.41577
8.32385
13.9329
17.4408
19.159
8.7751
-6.67595
-13.9058
-15.1349
-22.8121
-21.0784
-10.5838
-7.08043
-6.76112
-3.62292
2.86533
4.63286
4.75063
2.10102
-5.49537
-1.97695
2.21691
0.876186
-1.61093
-10.388
-16.1635
-11.2552
-3.49835
7.36406
20.4006
28.2113
26.9403
21.9352
2.33219
-3.75142
2.82342
1.85742
2.41924
-2.61304
-6.97724
1.64902
4.46261
-13.1562
-17.8815
-12.7796
-15.2355
-16.7298
-13.2616
-0.869861
8.54772
-0.160374
-10.5633
-10.7102
0.183022
2.26956
2.46405
13.6468
29.7264
35.5845
22.5561
5.7445
-10.1392
-10.4656
-7.6924
1.91113
8.07746
13.927
4.36776
-6.74907
-2.67061
3.09467
-1.04876
-2.57512
-4.72305
-12.0375
-19.8074
-18.2673
-22.7233
-22.5348
-12.5324
-4.65541
-0.245856
7.33398
10.8158
13.7485
9.52424
7.2827
13.811
15.8753
10.6356
2.41229
4.94049
7.0735
4.65824
4.20984
5.86039
-1.06006
-22.238
-20.3924
-14.601
-11.3236
-2.47993
3.83275
9.6771
4.16616
0.398541
3.74848
1.80974
-3.5342
-5.87294
3.78691
5.29711
-2.01179
-0.831183
10.8364
13.1569
17.9726
29.6939
30.3073
25.6369
10.1236
-6.89182
-14.8814
-19.5808
-27.4184
-30.1578
-34.84
-33.731
-22.0385
-9.56158
2.74759
23.1436
25.4288
12.0502
-0.397583
-11.4355
-21.5559
-39.2096
-55.5064
-60.3695
-39.5798
-17.2587
9.86211
29.5691
34.8523
30.8802
24.1466
35.5082
61.2691
108.417
127.585
87.4579
59.336
45.2185
21.1403
-7.65429
-52.6545
-71.9614
-113.377
-179.18
-195.276
-136.468
-26.2088
48.8675
83.3056
95.3266
95.889
93.7702
81.0705
43.4609
-7.9803
-41.7474
-45.0491
-43.8948
-31.3882
1.96995
8.69401
-39.5553
-32.9059
40.3235
90.0558
107.962
40.5446
-64.3646
-106.405
-112.127
-81.8202
-52.4243
-80.4829
-137.69
-182.402
-190.478
-166.746
-109.161
-5.82266
125.463
244.685
337.956
386.146
373.058
303.098
223.143
158.974
67.5656
-31.6508
-67.3594
-97.0072
-118.157
-149.091
-182.271
-137.931
-52.2196
-2.25509
-6.49083
-45.1726
-105.894
-173.558
-218.265
-191.711
-138.974
-101.016
-86.4314
-79.9147
-63.3997
-69.6229
-35.5904
27.2607
74.7274
166.899
262.607
303.13
288.288
246.716
217.291
115.872
-34.8276
-113.373
-137.493
-161.356
-162.009
-92.0971
12.0887
65.4531
91.6347
123.334
97.5977
17.1046
-66.5719
-131.261
-186.491
-213.361
-164.037
-70.5487
-16.4571
17.3341
67.4081
115.858
156.947
163.245
131.61
66.6093
-26.9458
-81.2793
-68.8024
-42.3667
-39.0418
-23.2902
-16.4149
-14.9409
14.7905
38.4778
16.3283
-47.3228
-99.9101
-72.4024
-21.2074
14.2329
63.0481
90.3239
86.9754
59.4833
5.71731
-32.8561
-35.8078
-5.63382
11.2329
11.5147
17.7356
47.7115
53.592
23.7409
-19.3565
-49.7518
-45.004
-39.7465
-42.398
-53.9322
-71.0426
-89.3592
-85.2944
-69.0207
-29.3982
8.21392
36.5621
41.3803
41.5391
49.0604
52.6275
34.2963
31.7799
40.6213
44.7983
55.9104
54.1898
50.9326
33.3491
21.6908
12.0003
1.58077
-4.71414
-17.7395
-34.3935
-16.3334
16.3748
16.5335
4.55151
1.40074
-3.16272
-7.67601
-22.5552
-24.5748
-8.8566
-14.1989
-11.1903
-11.8076
2.32573
6.48867
-20.0738
-56.365
-64.6242
-57.2934
-58.3532
-74.2084
-88.4218
-52.4508
-13.2973
34.7889
79.9895
52.2162
20.6142
8.03499
-5.69003
-6.87254
6.29189
29.9085
53.9916
60.2217
70.9076
80.9054
82.6239
67.3882
23.233
3.1049
2.5207
-5.59756
-9.3625
-23.1385
-46.758
-43.3739
-27.7126
-21.8905
-30.2468
-33.4712
-27.1498
-51.4114
-63.8935
-52.5086
-24.6538
9.4191
11.2169
13.451
27.2396
22.4107
13.5438
10.6646
11.9245
-11.1103
-37.2827
-34.9438
-26.4455
-9.97131
13.4293
44.06
52.0253
38.3569
26.4172
19.4871
15.3941
20.692
27.667
46.5053
59.3906
43.2774
29.6401
-5.51874
-22.6803
-19.3862
-22.2464
-2.04523
19.0554
14.6406
3.85541
-34.3402
-56.4083
-42.3483
-31.8194
2.78782
12.7716
-10.7773
-24.9577
-27.7907
-40.6711
-38.7265
-42.2328
-56.9396
-72.7509
-83.5154
-33.9148
29.5281
27.9491
2.74359
-9.48092
19.0062
52.4413
63.15
50.3568
20.0107
13.3177
17.9004
6.80713
0.710982
38.3963
65.0628
55.2893
68.7605
102.778
134.317
73.6226
-42.194
-56.713
-9.19391
1.36663
-34.0039
-60.1337
-54.5195
-37.6711
-34.6766
-47.4892
-42.8229
-55.1254
-97.1398
-123.662
-81.6352
-14.628
9.54345
-6.84966
-21.2234
20.067
75.4258
79.0775
36.1476
0.655262
-25.0839
-52.1656
-39.5027
-12.9304
-14.3871
4.26866
63.0518
155.099
233.739
174.166
50.1306
-29.5687
-78.7333
-89.302
-50.8911
-25.2541
-18.6064
-4.54765
-2.80185
12.6176
47.3987
44.2277
6.52515
-53.6019
-56.8139
-48.5077
-71.9106
-80.9344
-71.8006
-11.3548
53.4692
60.4226
68.7546
56.5174
18.6301
-12.9199
-47.9924
-53.4584
-16.4176
-11.2268
-16.0355
-11.5329
-24.6457
-2.70466
10.2559
19.6576
18.6458
-15.4464
-35.7603
-15.8764
-13.5255
-10.5461
23.8634
54.0736
32.7052
20.5856
43.013
42.6254
19.3824
10.7808
7.45519
15.0928
27.7337
25.4698
16.3934
-6.67216
-37.6412
-52.1145
-50.2587
-36.4729
-22.6899
-6.34001
6.65683
18.9948
20.1621
-1.85994
-7.73108
0.0178214
8.16683
-3.60132
-21.3393
-16.4644
-4.86929
9.69426
8.10215
5.58532
20.5165
31.2484
10.4797
-23.5334
-37.9322
-25.0106
-20.6267
-19.5705
-10.8131
-0.617869
-2.29803
-3.54515
-3.52225
8.85774
27.0329
30.6059
20.7529
2.44054
-4.02603
6.82554
17.864
32.2611
28.1192
28.7707
15.9646
-23.1344
-51.018
-66.8436
-77.9945
-38.1441
13.9232
10.4032
-2.1586
-5.96944
-19.8937
-24.7154
26.1012
41.2734
25.8049
12.0099
14.8675
87.3144
138.779
69.8344
28.0615
15.6294
8.53307
-1.34514
-15.0812
-45.2735
-72.0764
-61.0308
-21.0338
22.7106
35.6915
8.19059
-58.5795
-66.1084
-53.6654
-56.0694
-71.8355
-142.193
-142.783
-52.2795
17.1106
98.3757
130.439
85.2418
60.295
39.4223
29.687
31.8765
17.1626
14.8578
23.2947
24.279
23.2829
-6.12191
-36.2432
-58.1345
-18.8356
43.3616
66.7248
60.5442
20.655
-20.6363
-25.8995
-8.35908
-0.435135
0.499396
-8.26758
-13.9822
-22.984
-33.4891
-26.1626
-18.6836
-15.5344
-16.9898
-9.04655
7.17132
-42.3556
-81.5423
-78.8028
-50.0162
-7.59979
17.778
21.27
35.2766
55.2766
70.3481
65.216
49.765
31.3227
19.1608
25.66
39.8539
48.101
51.3907
44.1062
32.9957
32.6442
-12.4059
-78.7572
-96.6971
-95.3208
-88.6521
-71.6742
-35.2638
-7.48233
4.75263
20.5754
18.9089
11.3174
17.3533
5.86557
-2.69892
2.70729
17.8989
21.3876
9.36545
10.5625
14.6892
17.1153
26.2586
17.8335
-23.1536
-42.266
-28.1452
-40.7109
-48.6733
-33.8491
-1.99597
35.1959
52.1595
59.1081
57.6755
42.1141
-14.0685
-66.7271
-86.2454
-108.659
-71.0386
17.113
88.4412
117.335
85.07
34.6786
12.6501
35.2321
50.6355
46.7148
23.139
-2.57827
14.1899
4.83745
-47.6521
-89.4141
-92.2388
-62.5952
-26.6327
16.3389
-4.99661
-87.3374
-133.331
-130.624
-79.7354
-22.7667
26.9495
92.423
117.237
96.3533
81.6534
77.9736
22.5411
-9.30379
1.97121
11.8663
23.3965
35.9102
32.4699
23.2178
18.5932
26.9025
46.2363
63.8277
44.1791
-6.10845
-55.8217
-115.621
-163.68
-123.734
-49.5768
-1.77504
34.5113
54.0883
31.5327
19.6662
41.6285
130.049
224.94
178.997
81.2366
-15.6905
-126.617
-159.233
-129.344
-101.385
-120.729
-136.014
-115.547
-111.574
-130.034
-112.834
-107.664
-89.9764
-18.1816
7.41094
25.5894
18.4499
-27.5109
-40.9002
0.222509
119.741
263.109
341.447
338.89
289.808
234.111
200.69
164.229
33.1684
-127.314
-229.845
-183.129
-69.1576
37.6515
77.5496
40.7566
-87.9748
-171.553
-136.346
-103.467
-103.818
-129.677
-162.572
-195.104
-190.977
-93.1846
39.815
73.6156
92.8427
172.509
226.612
214.473
162.141
44.1352
-59.2377
-99.5033
-124.733
-131.709
-85.8628
-22.5153
-29.5952
-53.37
12.568
102.274
95.3262
9.9151
-103.55
-132.887
-107.182
-60.0342
-19.5753
-23.9809
-50.0528
-9.73661
93.9438
177.384
246.651
296.2
287.932
212.278
143.484
72.2195
-73.9776
-190.537
-207.089
-193.875
-135.085
-15.3224
84.3575
70.4575
10.4159
-4.23745
-23.8684
-64.3905
-92.2866
-111.884
-111.684
-110.514
-74.3976
-17.4443
19.0101
41.0996
20.1778
-31.37
-14.8022
28.3546
31.6986
21.2421
11.9899
24.5295
17.2184
14.2366
-1.214
-20.6301
-11.8215
13.7796
20.363
-4.96804
-41.6355
-30.0275
-28.2479
-47.4146
-19.9777
69.7545
167.955
217.796
175.841
60.0282
-24.8326
-104.914
-162.171
-159.389
-85.3329
6.92979
51.6308
68.8298
65.2946
84.3672
100.219
40.1904
-44.17
-37.1725
11.5852
47.2658
18.381
-47.0933
-95.03
-73.7659
-12.1859
78.0418
109.054
2.15963
-135.283
-141.402
-74.1387
-18.8279
-17.2462
-55.4312
-105.714
-110.088
-49.8886
6.07381
38.7556
45.6675
28.3527
17.2494
30.6763
10.6141
-27.0499
-14.8177
41.6628
101.083
138.496
119.553
56.8708
11.0435
27.3924
60.9937
71.5613
94.8014
128.13
83.1624
-2.28321
-41.0517
-51.2145
-64.4734
-87.7309
-87.1856
-61.3919
-47.0649
-34.5503
-27.1771
-14.6392
-24.7642
-58.2204
-92.4541
-99.0193
-92.4444
-91.3831
-106.211
-84.7003
-23.8737
32.0552
79.6297
115.853
133.394
132.427
125.596
122.484
89.1964
27.3243
-32.0497
-71.9926
-70.6933
-34.1786
-17.9241
-18.5225
31.8376
32.6685
15.6638
-22.93
-78.2087
-100.488
-106.693
-60.0429
30.8859
71.9818
45.8355
-13.0678
11.3511
104.373
188.211
208.44
84.4489
-43.7497
-84.1098
-67.894
-66.9299
-60.3116
-54.0825
-40.0204
-24.6604
-10.9101
-8.86285
-39.1885
-72.5257
-63.5357
-44.321
-39.468
-58.7237
-81.5522
-74.2343
-28.4827
32.3324
65.9158
80.6356
93.7123
79.8431
74.5492
87.0562
82.2399
68.8105
64.5957
65.3605
40.9903
1.75367
-1.84247
25.6736
11.3455
-38.4123
-81.5833
-128.581
-161.17
-134.321
-83.977
-37.5298
6.28155
44.0431
75.1809
102.71
117.983
90.5349
21.7307
-12.5657
-13.5486
-16.7577
-25.2791
-28.5102
-16.4257
-23.3924
-75.0836
-111.856
-50.5382
67.7922
141.023
132.764
99.0209
96.8464
101.779
96.1541
37.0369
-52.1798
-109.228
-156.208
-185.982
-170.072
-165.876
-141.428
-87.441
-57.8991
-10.6702
65.3122
90.1054
60.8365
47.7723
20.0424
-11.5674
-38.5508
-39.7935
-36.2873
-35.7757
10.6552
58.8499
91.1352
125.828
128.932
108.28
67.4294
34.7882
26.5251
53.5253
101.77
125.854
107.419
40.2804
-10.8203
-40.1297
-85.7597
-114.528
-112.478
-91.8134
-66.8519
-39.3958
-19.972
-15.2182
-31.0946
-35.0277
-35.4137
-65.7807
-68.7452
-11.0475
-29.0558
-118.808
-122.186
-21.7292
103.588
156.143
142.802
99.2774
45.8319
30.4284
81.8541
128.887
119.044
43.8497
-27.454
-37.8513
-51.8947
-70.5776
-50.84
-53.0785
-50.7798
-22.4942
-21.0802
-57.1664
-98.405
-117.652
-133.907
-137.76
-99.1336
-53.154
-46.8306
-42.8455
-11.3001
58.3865
151.495
224.101
242.674
222.307
160.86
79.4801
-5.08785
-66.1509
-102.426
-115.927
-84.7939
-15.4603
30.9722
45.9073
54.0364
74.5751
63.8303
14.3289
-28.7407
-45.1487
-52.3479
-55.1147
-63.3849
-56.3947
-38.4479
-50.7544
-41.179
-51.5189
-22.5428
62.0666
124.074
112.277
85.4289
95.1742
86.1168
73.1728
39.6398
-21.6136
-95.1351
-151.279
-199.443
-197.751
-149.945
-65.8087
4.42822
42.3547
57.0392
84.4111
84.4938
65.0001
5.50243
-39.3118
-48.2807
-81.2942
-134.76
-190.599
-162.625
-25.8306
146.867
249.361
270.833
243.992
201.087
158.282
137.164
126.306
78.2749
13.1226
-41.9913
-107.535
-174.692
-196.073
-187.642
-159.43
-114.603
-60.6854
-32.2024
-26.2388
-33.7333
-48.5259
-38.9729
-57.4007
-54.2633
-11.8033
-3.42386
0.00975365
65.5121
123.864
106.07
45.3793
-15.7582
-99.1459
-116.802
0.55706
127.991
138.189
111.988
100.76
98.6069
120.554
111.174
60.8527
25.7012
-19.6546
-42.9627
-58.2275
-83.2965
-89.2066
-56.9874
-45.1965
-18.1513
31.2223
42.1602
-13.6636
-69.6362
-84.1891
-56.601
-35.7625
-66.9818
-91.9601
-74.476
-39.7123
-8.22095
10.3717
18.494
15.9144
5.62648
6.51648
9.22763
35.9513
48.3026
62.3178
89.2353
76.7049
41.3948
45.0545
63.4229
72.6972
86.8592
69.857
0.573288
-62.6496
-80.0184
-84.8975
-77.3604
-61.5247
-49.722
-32.0165
-14.5272
-21.022
-36.3562
-17.9205
16.3087
17.9997
-10.3338
-41.2134
-32.2528
20.1497
66.2505
53.3559
27.726
32.5722
4.0956
-14.6087
-27.9557
-54.6046
-92.8287
-86.5305
-48.515
43.0471
150.397
178.741
135.761
83.5796
8.19105
-34.8466
-46.1566
-85.1742
-126.518
-111.948
-51.9881
-15.7156
14.1327
37.7949
36.8519
38.943
52.4428
49.4248
23.7657
-13.9292
-20.4471
-13.8203
-1.22234
16.9868
47.3977
55.0024
22.7475
-4.91173
-73.5208
-130.249
-114.865
-73.5036
-19.2229
30.7102
78.5414
155.665
224.927
142.288
18.7228
-43.049
-79.2522
-97.3528
-95.9329
-77.6936
-54.5747
-36.6139
-53.9412
-63.8165
-35.6945
-17.9428
-16.1107
-6.76805
-15.6529
-44.78
-42.5349
25.091
56.9134
86.3018
82.3119
50.9313
42.9811
36.9862
12.8401
-25.1859
-30.6237
-16.9807
29.9171
57.4396
46.2199
36.4764
54.1212
98.1634
98.1289
37.5837
-10.9738
-51.0698
-66.4868
-65.7954
-45.0908
-26.0322
-32.8605
-41.6452
-41.9497
-22.4443
-21.8623
-19.8983
-13.7326
-2.61067
40.4935
76.5041
65.6595
-18.7452
-69.1926
-1.15192
-7.93873
-96.7393
-165.183
-127.009
-24.8137
33.9463
58.3586
80.0998
76.1524
43.4248
16.1924
-13.0608
-46.5206
-46.732
5.0747
54.8508
26.3469
5.36071
7.89525
-8.31854
9.05228
60.7441
109.534
105.081
33.5503
-36.028
-54.8163
-49.6579
-30.1683
-13.5876
-1.53946
23.0385
39.4926
-15.3331
-66.7236
-74.5084
-43.1726
0.375846
41.1861
56.8967
40.5893
-4.48841
-7.89915
43.617
92.1299
95.5624
54.7921
3.68532
-24.3738
-50.8286
-62.0816
-77.6674
-54.6654
-13.6169
-33.2994
-27.487
-35.0772
-51.654
11.3114
86.4309
79.2913
55.4888
26.4482
-33.9507
-107.968
-139.036
-131.881
-78.9961
-29.2411
1.82914
26.0272
39.2178
-29.3044
-121.296
-123.883
-41.7582
73.5266
132.388
100.283
59.748
61.6532
63.6799
53.9161
57.8634
92.3731
103.561
115.631
125.698
106.509
79.3869
64.892
41.6944
24.0286
24.386
-1.50449
-71.4641
-119.726
-151.59
-156.611
-121.254
-100.481
-110.468
-106.028
-71.0173
-65.3974
-61.1185
-54.9114
-76.5458
-78.563
-41.964
25.2422
95.6643
138.025
167.148
165.678
137.787
99.4925
58.2716
-2.45818
-38.9873
-34.0622
-33.5251
-53.7287
-102.415
-117.206
-96.8925
-69.1073
-30.8606
34.3993
131.362
187.674
135.99
19.4496
-61.2954
-20.4597
51.4881
58.2918
-6.21961
-60.3324
-80.8597
-63.2711
-27.4753
-15.0729
7.20665
32.1456
56.1852
45.7849
20.0248
-2.3334
-47.1896
-91.6239
-88.1803
-28.6858
14.0368
-15.9193
-79.9083
-96.4462
-52.4638
5.99406
35.4783
47.8286
38.8437
47.9323
62.5487
73.0228
75.5025
68.6815
61.2659
31.3652
3.58188
-15.4212
-13.4549
19.5111
49.5558
39.3267
-20.3714
-55.3389
-19.0872
2.73876
-5.33618
-19.0107
-9.39819
10.1695
25.9398
56.5952
65.2039
54.5783
-1.51488
-79.6777
-129.636
-142.912
-123.348
-86.2745
-49.7719
-21.1935
20.9741
17.2342
14.9672
35.842
11.8547
-38.0269
-52.6003
-37.2781
-38.4513
-76.1165
-109.505
-49.4002
66.6394
160.97
166.957
117.52
86.561
60.2763
41.5861
29.6206
7.94254
17.7912
31.4837
22.0566
18.778
37.4826
39.8116
4.48661
-12.2733
3.05859
-7.14337
-53.4264
-91.1691
-81.0732
-40.8524
-13.8809
5.87496
19.4677
3.39339
-61.6916
-65.8725
-18.9286
23.3289
17.1746
5.97519
14.1093
23.8656
24.0753
-10.8704
-42.4651
-38.4871
-54.0049
-36.975
-2.25622
-0.295918
-0.592319
-25.9326
-36.6374
-7.11331
40.9922
58.2353
37.1614
11.2931
9.97608
13.6559
17.9364
10.8345
16.1521
46.4423
46.1955
21.9877
16.6115
23.93
18.5766
14.6869
10.1719
30.629
11.3649
-28.4554
-32.8295
-37.6679
-41.4943
-45.7847
-46.5353
-29.0334
-6.79569
17.2358
48.132
55.9221
31.8201
-0.0835884
-44.2207
-108.915
-150.5
-91.9996
17.2248
84.7421
56.8134
-14.477
-48.697
-116.745
-110.474
-32.7672
26.9241
78.2603
133.471
164.856
146.986
127.308
123.722
94.0282
58.4663
21.3242
-59.8671
-125.871
-128.66
-108.728
-69.2789
-9.05977
11.4108
33.3519
39.8544
12.4088
-4.27402
-44.6254
-96.2621
-105.698
-94.5378
-85.0261
-52.7166
9.65593
53.124
68.7734
96.3395
85.3633
43.9081
-2.46828
-8.33318
3.44237
23.7586
53.182
55.3442
41.1696
28.0272
0.570156
-17.6593
-48.1425
-68.2323
-63.3168
-64.4234
-48.53
-12.909
36.2023
70.5414
62.132
31
31.3096
48.1351
29.5289
-16.7294
-51.5097
-88.3553
-165.176
-197.886
-110.903
28.5257
99.3954
77.1301
38.7368
10.6782
9.31453
36.5024
73.4764
130.447
161.007
125.808
74.0217
25.0987
-7.83642
-52.7114
-85.3697
-91.0224
-46.7642
-6.9368
-8.55962
-45.0639
-54.878
-34.5051
-32.632
-5.42204
33.6871
33.0539
-9.8101
-49.4705
-84.0996
-111.658
-143.183
-129.944
-57.0508
49.2645
146.528
190.693
200.234
157.634
101.292
32.725
-48.2155
-70.83
-36.4291
-17.4879
-36.1146
-44.0916
-40.0997
-59.1134
-71.3606
-45.8887
-4.64306
15.2324
0.00232358
-30.1927
-40.3349
-22.9675
14.3974
68.4513
97.9336
86.4432
90.1626
99.7428
66.0185
13.0859
-12.8352
-23.2885
-32.5649
-65.6666
-106.418
-115.44
-27.6013
72.0419
97.5518
50.0298
-10.9512
-50.9222
-71.5934
-73.494
-73.6111
-75.1569
-59.7173
-21.0896
21.8815
59.2937
68.2659
63.8254
38.0615
14.1711
25.6051
32.715
-38.0141
-96.174
-69.6265
35.1373
112.513
99.7969
80.9604
47.1125
-14.6356
-43.6936
-38.274
3.04247
54.1074
60.5555
24.8448
-12.5447
-68.3216
-103.823
-99.1555
-110.514
-67.2412
7.83666
21.8473
11.3829
22.0209
50.8432
60.2256
43.3852
31.0335
31.167
-12.9
-86.7784
-118.795
-95.3969
-16.1059
63.0114
99.0928
80.6913
85.3407
143.51
149.955
105.476
14.1251
-66.3173
-113.737
-119.977
-103.324
-78.2933
-75.626
-76.8023
-50.4229
-41.9676
-54.4944
-46.9519
-38.1871
-34.3317
13.8792
103.401
137.434
124.08
64.4358
7.48366
17.9186
43.8555
69.1165
84.3614
27.5365
-37.2968
-67.2739
-73.3391
-56.051
-23.0826
16.7665
49.5324
20.3912
-46.6971
-62.6448
-43.0407
-24.313
-10.388
37.1196
97.1683
133.205
66.5781
-79.5181
-157.74
-82.5927
66.8794
156.23
116.124
23.1144
-28.5989
-44.6092
-78.0869
-99.3654
-90.0615
-57.8519
-31.5493
-26.0612
-14.9247
-32.3586
-87.7355
-109.318
-71.6545
0.651615
39.5068
43.8216
39.4964
59.0268
110.103
124.386
100.969
75.2194
36.7159
13.8767
25.6036
30.763
18.645
13.4861
0.814319
-17.0098
-6.93856
16.9015
35.8664
63.7857
55.1781
-1.56337
-67.4196
-114.469
-125.702
-92.7311
-66.0218
-74.8561
-75.1504
-31.5231
3.03374
12.3208
25.4363
5.91244
-5.46876
6.59685
-9.66598
-28.8501
-18.1803
25.8749
64.8362
79.5983
61.2694
19.1997
-7.55156
1.36001
13.0769
34.0038
60.2877
94.4866
99.9358
16.418
-120.494
-138.16
-62.0239
42.8333
97.7714
123.292
104.446
58.6572
15.0571
-45.1261
-96.9404
-122.217
-115.992
-76.1312
-46.0465
-45.2449
-43.2108
-57.225
-77.2196
-51.8412
9.25083
42.2097
56.6342
28.9486
6.72271
10.8434
-7.68924
-39.9149
-51.7881
-38.9428
-34.3827
13.8749
49.9705
74.7186
95.6757
110.549
122.911
121.251
107.709
107.341
94.302
50.593
-21.2764
-83.0104
-102.71
-121.169
-108.296
-84.4389
-43.583
-4.31478
23.2353
14.0731
10.2576
1.12077
-22.4773
-34.4974
-34.5453
-45.1272
-46.1732
-23.2593
6.23534
34.1696
46.0108
52.5709
36.0072
-18.0565
-40.4874
-57.2451
-103.75
-112.32
-23.0377
91.8166
147.279
105.551
36.0421
-4.59411
-5.45556
10.45
2.12985
-5.5126
-4.03994
-22.6935
-48.4921
-59.0514
-46.8471
-14.0955
8.43399
21.1285
55.7653
87.7361
66.2559
13.2665
-17.4987
-19.1767
0.364868
13.1683
17.2589
31.4128
33.902
-9.43589
-44.6495
-51.5431
-48.58
-50.3037
-42.39
-16.7678
6.14222
47.8204
92.457
118.323
89.8398
17.1358
-46.4336
-66.2264
-51.1505
-45.3452
-71.9093
-121.058
-141.947
-110.433
-43.3215
46.2555
116.399
152.893
144.773
97.3488
58.5752
11.9508
-42.0481
-80.1585
-103.061
-119.277
-94.7188
-27.3726
62.9206
114.242
65.3554
11.1365
-6.52937
-6.00377
7.49094
-10.4363
-55.3652
-71.6589
-30.4566
7.61238
20.8549
33.8292
52.1731
64.4363
68.1428
82.513
82.779
62.2672
13.8951
-8.61755
9.43472
5.75083
15.3225
17.2628
-2.69643
-36.1902
-89.5637
-117.167
-110.364
-63.1351
-28.2269
-14.9284
-24.059
-38.3273
-24.5424
4.87896
28.2077
13.2216
-24.7065
-35.2174
-22.3243
18.7038
40.7575
46.9438
53.3211
59.0628
65.2093
17.6737
-36.6259
-71.2886
-39.4858
55.3087
120.322
114.69
41.7851
-15.442
-47.1933
-51.5587
-42.818
-48.4897
-60.6073
-40.6886
-21.5843
2.49527
7.97393
1.50955
-10.0217
-39.5702
-72.3194
-75.8664
-25.5252
21.9811
15.6401
-4.04624
26.7952
78.6754
103.247
99.1829
90.2361
79.4864
87.0772
63.9358
14.5705
-30.6856
-52.3522
-55.0873
-63.5448
-55.3237
-31.2943
1.07342
-12.9348
-38.1355
-26.5141
1.70041
6.46961
-20.2735
-53.9285
-70.037
-55.7103
-33.753
-11.0033
-8.54781
7.36671
47.62
65.3453
59.9746
40.7661
26.3123
32.8624
33.107
5.98073
-55.6923
-107.463
-93.7919
-12.9243
83.2649
141.329
112.886
32.5839
-34.2583
-73.8461
-78.3777
-63.5741
-61.6043
-69.3778
-47.3931
4.13453
76.2501
130.066
106.909
56.7722
25.6179
-17.3197
-84.8968
-109.273
-70.6271
4.06599
71.1203
87.502
92.0629
80.3179
45.4618
8.33651
-42.8675
-76.3445
-72.5608
-45.3504
-38.2366
-52.8343
-20.9686
26.9324
70.0159
98.4039
70.2707
2.34253
-65.891
-124.682
-142.312
-122.085
-96.4292
-51.5117
-12.2965
27.5162
85.6312
101.999
54.6232
25.4574
5.29014
-17.3203
9.10094
74.6903
115.978
144.079
137.545
63.8671
-39.9417
-122.829
-131.842
-89.3188
-61.0134
-55.7064
-17.4074
37.3642
78.1606
91.7615
80.7231
72.8249
74.9467
53.4274
-14.1385
-104.934
-161.538
-164.497
-103.336
-31.0592
15.7991
54.9579
62.4649
-10.7863
-107.718
-135.776
-83.1138
1.25784
74.698
117.061
124.675
119.202
107.706
82.2356
29.5604
-9.68408
-26.1286
-34.4298
-30.0945
-8.50882
14.1822
-5.66534
-50.18
-53.2989
-7.89424
44.0921
10.2448
-59.9784
-121.775
-147.74
-118.35
-52.0231
31.2535
118.877
136.969
102.565
58.2956
16.344
-19.9037
-54.7873
-81.9984
-92.6634
-49.964
51.4079
178.603
246.623
272.129
216.318
68.62
-44.5869
-74.7432
-128.353
-217.216
-284.926
-270.912
-174.263
-76.9719
-4.99343
54.0133
96.3641
91.7268
84.0808
48.2409
-24.7953
-54.0212
-32.0941
-4.03714
-33.0581
-43.1168
-36.0912
-37.1884
11.616
61.3497
118.095
172.7
168.903
99.8183
56.876
12.2664
-25.9724
-26.4782
-1.76816
36.3869
54.4877
6.03523
-45.5683
-82.7841
-68.4073
-17.7487
26.9251
25.2494
6.33197
-10.0293
-66.9842
-142.046
-164.566
-161.559
-146.023
-41.7603
67.4251
126.991
144.048
137.239
109.857
68.8148
17.4118
-14.1806
-38.7063
-28.1694
-29.0575
-52.7985
-63.7135
-44.4533
-2.64631
40.9991
57.5284
77.3664
83.6346
61.778
18.7138
-58.0455
-130.788
-131.587
-44.1964
55.9682
86.067
22.0549
-23.2072
-36.6071
-34.1617
-16.9317
-11.1641
-13.2389
-45.5112
-52.1178
-41.4756
-7.2833
21.076
29.08
30.312
54.6177
116.909
178.439
139.437
20.0617
-54.9802
-50.5724
-19.3914
4.00214
27.91
32.3219
-6.32405
-30.5019
-9.16444
13.2807
10.2756
-10.5656
-48.5843
-87.2372
-102.878
-87.5701
-82.1255
-85.3282
-84.311
-47.8795
16.9355
70.4997
80.978
68.1433
75.2608
44.0914
0.532628
-1.14522
12.155
41.8564
90.8645
111.302
77.7769
8.03853
-51.4373
-114.746
-179.855
-227.534
-152.562
3.18922
52.0985
9.47752
3.46334
11.8252
37.5499
102.514
148.861
163.283
119.158
47.6336
7.61533
-17.2389
-1.04333
21.7317
12.8357
18.2284
58.5563
65.8333
13.9336
-87.5307
-140.045
-101.87
-64.6442
-47.9539
-46.4957
-37.8017
-29.4488
-57.5068
-61.818
-58.4363
-69.9437
-58.0642
-15.9895
42.2608
80.5563
119.016
118.431
67.3636
17.2523
-21.8149
-19.0294
17.3325
52.4018
86.4003
105.349
75.3875
-11.3035
-74.0462
-56.0491
13.2294
31.2147
-20.7663
-69.4974
-91.3177
-100.519
-104.836
-102.28
-52.7534
1.00714
28.2372
49.9016
45.0322
25.8533
23.5817
6.52656
-13.5125
23.8952
56.2889
53.5445
30.4722
11.442
15.0079
25.1187
18.338
38.1081
62.5202
70.7479
66.9771
29.4459
-4.95976
-35.2812
-54.3605
-80.0004
-118.491
-121.424
-79.9556
-52.4898
-74.7428
-65.1084
-18.6438
16.2967
55.3048
74.7146
75.3289
66.1741
70.2313
90.458
78.6223
56.9168
35.1614
-33.8092
-98.6845
-75.2333
-19.2166
38.7179
73.4856
44.2493
12.1359
-19.2722
-55.5394
-81.7942
-86.0708
-45.3987
30.3304
92.5229
73.2477
6.00835
-47.4165
-77.3386
-81.7858
-54.4531
-16.1903
5.90234
14.2229
-23.0927
-48.9743
-16.9474
45.3355
58.2828
19.2427
5.12083
17.496
14.831
-21.3929
-38.2419
-3.18638
12.9189
15.3851
29.8027
35.6
38.331
44.29
42.6998
32.5623
29.3154
-3.70475
6.70892
31.3693
41.5628
33.6719
25.2399
17.4162
-42.8779
-106.365
-142.741
-134.819
-78.0328
-27.5152
7.79995
27.5521
42.1155
40.6401
-3.48255
-38.8088
-1.16203
67.2809
68.1864
22.7554
24.2724
42.8829
39.5013
45.8054
45.4682
24.7502
-8.55233
-47.3703
-74.8938
-37.966
24.2567
48.5088
44.6401
25.0761
9.82759
-9.98035
-51.23
-60.6178
-73.116
-73.3162
-61.4867
-70.4437
-79.7937
-106.81
-69.3819
15.9002
78.7944
132.178
156.176
106.51
37.8637
-7.55957
-30.5259
-2.5898
16.6609
-21.8394
-57.0099
-57.8816
-29.6405
2.62465
4.57058
4.20524
10.5316
24.9829
14.4165
-12.1879
7.05089
27.8457
19.6213
15.3267
13.8237
23.1539
36.4688
12.9276
-6.86265
0.783555
-0.762624
-14.0746
-10.6325
-26.3894
-56.1752
-33.3779
27.3559
94.6001
124.402
81.4138
10.6623
-46.5936
-68.1715
-58.5037
-46.2343
-27.0051
-12.3641
-17.157
-23.0559
-6.30696
8.16941
5.44247
11.7704
43.1818
63.5996
57.6647
38.8671
-20.4059
-89.7926
-103.781
-93.9155
-86.8076
-87.7558
-82.5711
-46.6776
-14.8688
19.0965
48.3595
36.5837
23.4647
40.5026
72.3249
100.939
106.942
94.2472
57.7134
12.8174
-22.7383
-44.8184
-37.4602
-0.925162
18.4071
28.9395
17.1405
4.87523
9.26493
-3.45654
-39.8918
-32.4514
-3.43426
-4.36981
-19.5059
-49.561
-67.6876
-58.2202
-29.6578
2.76421
61.0398
69.5528
16.9276
-34.0237
-34.6466
20.6072
80.8398
86.0357
47.7906
-14.9839
-66.4244
-88.6472
-73.0115
-30.1229
12.1409
15.3437
-5.29816
-23.2834
-29.1406
-35.2196
-64.3388
-47.5408
9.91843
73.7581
95.7327
77.1674
54.2605
22.9741
2.59737
11.1435
55.4206
93.2406
68.0147
8.24632
-57.9059
-84.6325
-63.274
-26.3431
-0.829873
9.69494
6.98191
9.37203
14.852
2.24846
-28.2314
-72.6079
-100.844
-99.3974
-76.5908
-45.1612
-18.4269
16.0681
66.6628
101.551
79.0129
83.5793
88.1146
63.8583
33.6251
-41.4695
-88.3804
-68.8326
-7.38202
56.0797
93.5188
73.7055
43.2419
0.58241
-72.961
-123.603
-148.344
-178.368
-166.841
-87.6568
44.7719
138.076
128.372
84.9463
50.6491
51.2151
72.9621
75.0274
39.5569
-17.4004
-49.886
-57.9541
-44.7294
1.77679
43
45.0949
54.0639
82.0334
76.0288
0.496353
-84.8903
-126.824
-84.0218
-13.0129
34.805
50.7732
13.8645
-33.2381
-37.4224
-29.651
-15.0211
-5.6264
-11.7012
-11.2765
4.96719
31.4892
33.5312
15.5862
-10.6081
-17.7356
1.44871
-12.8836
-63.2184
-78.3141
-82.9874
-72.2985
-44.785
-8.06832
12.3363
11.7462
6.3372
53.7354
105.317
75.764
45.8143
36.8091
20.0585
8.08088
28.5746
77.3312
94.6497
59.725
38.1435
5.13307
-44.2131
-61.9431
-75.0906
-53.6593
2.02816
63.8402
90.9175
70.2368
-3.71768
-58.0338
-75.1589
-66.8137
-31.8437
-25.2819
-46.0903
-58.1908
-75.5206
-51.3573
0.177167
25.9276
35.9958
31.4796
32.0059
11.9493
-35.3106
-72.0735
-54.8097
-32.3268
-4.96201
42.8602
64.3268
61.5687
53.0346
38.3533
13.681
-30.0625
-79.3941
-109.857
-105.246
-63.4962
-5.46283
37.1737
79.0377
102.617
96.356
79.748
55.9006
49.5229
58.0161
57.3818
69.7197
58.1809
23.4628
2.02139
-10.3051
-7.79968
-18.6302
-19.8161
-6.45252
-19.5533
-43.8327
-51.0591
-65.0533
-81.5134
-98.0563
-153.693
-224.04
-229.223
-126.548
10.9947
74.4145
86.7341
106.375
146.258
161.082
116.364
78.0739
63.8611
39.1355
8.63244
-13.2904
8.66284
24.8446
20.3764
13.6114
14.5047
41.4114
73.6449
45.3871
-27.656
-87.5361
-111.501
-127.231
-142.871
-109.783
-65.7824
-12.5606
3.70996
-12.8394
-29.4816
-12.0294
47.743
129.278
184.152
160.071
94.241
45.5464
26.3301
45.5046
6.83081
-59.2151
-58.2569
-32.8884
-31.9674
-46.4737
-51.3314
-70.3737
-102.867
-89.2172
-40.0632
0.627233
-5.16408
-37.3033
-51.0556
-25.8256
23.33
49.3881
12.4987
-85.0891
-78.9018
41.7483
137.834
158.332
121.157
69.8639
24.0948
-0.638556
7.28818
-1.20281
-2.19133
18.1405
20.1355
2.19116
-20.6685
-18.3603
-2.6607
-11.7597
-17.2072
-18.1971
-24.251
-31.5331
-48.7587
-62.9805
-39.5107
11.9943
31.5098
28.2667
27.8175
49.427
87.9936
98.7013
48.4455
-7.95487
-44.5984
-68.8526
-86.997
-91.9837
-70.8879
-38.1002
-32.7318
-44.8213
-43.6531
-25.103
5.00022
21.4105
35.7985
44.509
75.5658
83.0876
16.7089
-56.4187
-70.9726
-28.65
20.6108
54.967
45.8393
21.8911
20.4549
51.0749
55.7808
18.7729
-16.1322
-25.3315
-22.4054
-31.0476
-18.0698
-8.53857
-36.1237
-53.7312
-15.7889
31.5997
42.8822
20.9249
-3.97942
-3.12138
12.4075
15.394
-30.277
-92.135
-82.5342
1.71071
87.955
103.323
55.8496
17.2309
1.46706
10.8309
26.3862
18.6734
-18.1516
-42.5851
-56.1286
-56.2554
-56.7875
-48.9089
-15.0774
19.3946
49.5748
72.1864
57.5678
16.9797
22.7017
-16.4163
-36.3104
-36.1766
-38.7632
-16.5684
4.54668
21.9541
46.2286
55.1954
40.6732
30.6172
23.0107
15.5805
22.3474
-12.7869
-109.53
-155.497
-87.6291
1.04506
48.2119
35.8504
1.5227
-41.1512
-60.9964
-40.1488
-9.42116
14.711
28.034
33.2089
25.1252
4.54054
2.28893
13.2701
9.49334
38.5627
73.5263
67.1904
25.8599
-35.574
-60.5415
-41.2157
-4.70611
48.3281
71.8897
47.6117
28.48
-3.46653
-45.2481
-70.2404
-70.5259
-34.2029
-2.44969
25.107
30.8019
27.049
48.8335
53.1583
17.3394
-11.3395
-39.1595
-52.9821
-64.3937
-43.5997
-25.986
-41.552
-35.3882
12.9634
62.6482
105.539
118.306
82.2644
16.8704
-44.6083
-65.0834
-70.4175
-48.5185
-19.3228
-18.8121
-20.1493
-28.9883
-24.8648
-10.4981
-32.512
-73.7374
-95.8534
-75.1428
11.9538
101.145
125.9
106.142
84.1674
65.5473
69.3815
51.3957
-0.0697437
-15.1832
-15.7396
-40.8255
-50.2227
-27.8474
-30.448
-28.8999
-25.2876
-4.82529
31.3079
40.2302
5.64079
-41.1099
-68.1949
-64.3986
-56.029
-51.1254
-40.9494
-7.83027
41.9667
84.0309
124.255
149.15
145.529
104.726
70.9114
25.1143
-44.1968
-72.4723
-59.8941
-70.4461
-94.5404
-105.106
-89.7314
-50.8467
-10.6037
8.51588
-2.36523
0.166056
16.3964
3.89893
-24.4775
-52.3995
-63.8715
-54.8688
-39.5477
-14.7674
6.09738
19.945
42.1778
60.2915
70.1296
70.967
48.1597
40.1215
53.5703
52.3061
36.8043
22.2533
16.3514
17.176
14.0218
13.0804
-15.9413
-76.5005
-112.073
-68.3276
39.8594
107.04
72.3806
22.0301
-5.68518
-23.1931
-26.2148
-34.0016
-54.0897
-56.2552
-56.5517
-49.4281
-40.6595
-46.4732
-61.1605
-50.009
-3.84512
50.6659
81.7342
79.1916
44.9106
8.511
-3.34673
-6.20202
1.29336
14.4235
28.7627
26.4715
24.475
22.5977
24.7933
21.1608
20.9948
26.9825
26.5826
19.1782
0.766661
-19.0541
-14.8773
-31.7226
-66.2505
-67.4797
-46.7856
-26.3241
-10.3652
9.02445
11.4584
-1.70872
-6.44656
-10.098
-1.26571
-3.4128
-18.3831
-23.611
-11.9802
-10.0961
-30.9734
-40.8434
-36.5858
-14.5806
32.821
85.0441
127.625
138.082
109.036
63.5381
18.2924
-38.9222
-79.112
-82.0692
-77.4369
-50.3371
-13.6919
1.79654
26.6853
30.7347
23.647
26.4996
-22.4124
-82.9592
-116.552
-86.6417
-12.2835
29.2449
-4.40225
-45.788
-28.7716
29.7329
70.478
92.3268
111.001
119.003
111.063
80.5995
28.9245
-16.0643
-39.1309
-33.7793
-17.9206
6.3392
11.5696
-29.9379
-81.0948
-93.3042
-69.181
-36.5877
-18.1067
-17.3974
-20.2545
-17.7733
-19.8735
-41.8084
-57.1819
-48.6784
-39.7734
-20.0477
15.795
57.7316
102.422
107.894
79.6022
30.0272
-15.2945
-20.5053
-3.39996
12.0152
20.3449
53.4526
65.4032
36.619
-7.23923
-33.9154
-49.7294
-34.9511
-8.67985
-2.51368
-15.8568
-21.6637
-13.7754
3.63886
15.6349
12.5054
18.9552
10.7771
-16.5485
-45.0051
-79.4095
-100.238
-52.7035
32.1502
84.0928
88.2007
71.7673
51.089
19.4629
-25.0097
-35.0903
-23.8515
-15.2977
-19.5839
-31.9995
-38.1663
-34.5485
-12.8932
44.8541
67.1597
56.5841
50.4236
12.0474
-33.2634
-35.228
-25.1089
-18.0234
-14.0955
-2.62209
13.1618
-6.83491
-71.3558
-93.8997
-29.9272
65.0778
117.969
78.1715
13.6436
-10.3545
-1.72327
-2.13572
-26.5143
-39.8165
-43.7682
-38.4228
-26.0556
-8.70684
0.397681
3.51698
22.0933
52.94
72.4824
68.8117
33.8315
-16.0211
-47.2449
-36.8211
-21.9091
-12.948
-10.8591
4.56973
23.7902
24.5367
20.8825
5.35677
-4.11144
-11.3995
-14.269
-11.4806
-5.0332
6.72517
26.0899
22.9311
7.19186
-15.2222
-38.9545
-35.6688
-20.047
-28.8655
-27.032
-8.17856
11.1274
23.7511
15.466
0.219398
4.17722
8.41805
1.92258
-0.696867
-5.44037
6.71952
9.74202
7.24257
12.6014
3.17087
-5.73845
-1.44705
5.6621
0.279634
-12.2615
-8.26794
-5.68225
-4.13655
6.46187
17.4817
27.9484
21.646
4.38539
-0.370423
7.55067
-1.98452
-3.79007
9.44721
-0.0844173
-15.2366
-15.1344
-11.3225
-13.3774
-6.87875
18.8123
13.0447
-1.19307
-7.13146
-23.4573
-25.9062
-26.9144
-12.797
-1.61797
-19.1697
-21.0794
-14.6741
-9.47878
-15.8674
-29.3373
-4.70158
31.6567
43.1771
40.4417
33.8479
19.1723
12.9871
2.16317
8.52766
34.8527
46.399
48.6013
45.6213
38.9177
20.7469
-16.455
-23.9971
-16.1619
-16.5467
-32.1681
-53.5323
-79.466
-77.64
-48.6642
-5.4753
-8.50794
-27.2958
-15.094
-4.03373
5.70206
10.7368
8.26422
6.70335
13.2439
26.388
50.3119
55.0714
47.1751
39.9522
38.9987
39.4614
36.3552
23.3222
-0.70714
-24.9542
-19.1843
-10.9111
-12.9602
-18.5053
-31.703
-50.6319
-54.7039
-49.0439
-55.6453
-36.0617
4.94707
16.0202
10.4711
10.4992
6.86155
5.08804
10.3857
6.14292
-3.373
-15.7225
-33.0712
-34.3531
-32.6418
-28.6598
-8.35483
19.3048
35.4181
42.6805
73.5568
72.8051
27.6567
8.6545
16.3592
24.078
31.0969
18.9582
6.86325
0.335029
-4.60037
-4.12471
12.1128
29.4618
41.2031
50.4404
29.9162
-12.8218
-36.7307
-49.7518
-75.686
-112.988
-148.12
-127.777
-41.2999
27.8807
62.3053
53.0777
27.288
2.58156
1.43757
9.58989
4.6446
13.3622
14.2649
13.1208
26.1407
48.4096
35.0671
8.37095
1.32514
7.77635
35.7656
29.4695
-28.1098
-55.6205
-47.0809
-32.663
-35.3648
-13.8797
31.4812
57.8203
46.5261
26.0121
6.1321
-12.1555
-21.6371
-25.3281
-22.2965
-10.7285
-2.2827
6.021
19.3699
24.4607
7.19675
-13.327
-28.9183
-22.0591
-17.6412
-32.1009
-40.7741
-26.699
2.74169
17.7645
35.2347
31.7987
20.9914
27.8663
32.8199
32.6559
25.5519
30.3558
26.1604
11.0573
-6.44613
-17.1325
-24.9996
-29.5498
-1.23935
29.1433
12.1562
-20.7804
-27.8843
-18.0001
-22.6414
-31.6228
-32.902
-36.8712
-35.535
-27.1581
-15.1588
-7.83568
9.11768
20.8152
30.6349
27.7972
1.04474
0.0988157
18.0756
27.823
25.5681
13.6449
3.28298
-3.77438
-32.6276
-40.4213
-21.9106
-2.33407
9.44843
15.282
19.1675
37.7207
48.2626
45.0679
25.1952
7.46793
1.14749
1.11152
19.8638
29.284
19.3103
9.018
-7.56975
-9.424
11.6351
14.5412
-2.44598
-43.9832
-76.989
-103.341
-154.628
-200.832
-176.923
-68.6212
53.1645
123.078
137.835
126.307
89.824
64.5445
47.0595
27.3682
27.6462
21.383
9.33143
3.86951
-14.8851
-10.2135
10.6139
19.5261
53.1751
85.9431
62.9851
1.24516
-52.4152
-77.4752
-54.514
-40.7153
-54.0648
-58.1628
-42.3541
-15.5969
-3.51582
-3.55907
-19.778
-52.0647
-51.7122
-35.6643
-24.4563
2.75122
42.2839
70.1818
70.9774
45.8432
13.6993
-1.5622
-11.9153
-7.60431
-0.231132
8.75631
12.5047
23.0665
24.2722
14.088
19.6956
27.937
33.8805
32.6867
26.4689
14.5343
-1.50294
-7.94653
-2.76703
-13.1377
-19.3561
-32.1751
-44.3444
-45.2464
-30.9448
-28.4367
-44.3367
-74.3776
-73.7377
-51.2036
-13.3419
29.3221
40.5728
38.9898
26.3287
31.4747
44.7239
45.1006
34.1173
18.465
-7.60028
-16.0261
1.0229
10.2898
21.0565
27.0688
40.7183
57.3931
31.234
-0.10497
-10.1716
-14.4513
-17.871
-34.3375
-39.4935
-30.021
-44.6781
-49.6569
-32.7885
-15.2148
-7.91659
-2.91292
1.95666
16.2607
21.9866
7.63357
2.83367
-0.183525
21.0611
30.8532
7.68443
-10.7163
-23.0472
-31.1637
-44.6431
-66.9347
-30.202
42.231
113.206
132.163
99.5265
50.8786
12.0841
-27.7152
-50.0663
-45.226
-42.7211
-40.8399
-38.3934
-45.2281
-50.9065
-32.1579
-1.28073
39.8696
65.3965
40.0511
-12.158
-28.2461
-31.2661
-28.3763
-22.2736
-14.9893
1.79476
16.5626
21.6531
34.5601
30.4101
19.8546
25.1484
41.2723
43.6441
37.1245
26.356
13.9471
5.0865
5.51104
11.0931
-10.6714
-56.6593
-79.6134
-62.3698
-34.507
-16.588
-20.9807
-17.7326
-12.697
-4.20208
-6.91881
-12.7367
-2.13264
9.02398
10.0439
12.3954
7.2859
13.0364
33.7559
27.8014
12.4236
3.89856
0.450292
13.6539
23.9325
8.5536
20.2201
16.308
-19.938
-38.5724
-34.2247
-42.3269
-56.2088
-35.0164
2.82737
28.2005
20.666
14.4539
15.1737
15.4977
8.93054
9.58372
10.0626
3.81447
-0.808692
-0.761442
-1.65662
9.97136
27.5046
36.2152
52.061
58.1258
50.2108
31.3325
-3.02334
-31.7649
-44.233
-40.775
-23.4578
-11.7982
-12.8029
-32.7634
-45.1119
-26.8124
-15.1947
-5.39109
-11.2524
-14.8377
-27.1552
-38.5423
-41.6934
-28.1355
-6.43137
6.43251
10.2183
9.39427
30.078
42.418
28.5859
26.6113
25.9711
22.8286
19.6952
6.01582
-1.61564
-6.34805
-9.6054
-5.87098
23.5579
47.6372
43.3746
25.0139
23.4573
28.8262
17.7212
-32.4719
-115.956
-161.568
-132.049
-35.2658
64.6778
118.377
102.739
63.1642
37.3799
15.5303
-9.03662
-26.5098
-26.5794
-20.6096
-5.16274
6.64025
-1.14365
-13.3422
-21.9188
1.17069
33.2315
41.1776
25.6436
-49.6951
-129.525
-162.159
-113.387
-23.8554
49.1786
93.3468
124.7
106.278
50.9982
30.5806
14.8092
6.23125
-4.46166
-19.1674
-14.2918
7.45813
36.5006
60.8431
52.171
33.7475
5.47895
-17.9879
-47.4165
