3.36573
1.40174
-5.7991
-0.484691
-3.49639
-18.3605
-0.851283
10.1851
16.1337
-1.39749
-5.69568
0.763313
0.0931392
12.6662
6.21935
12.7506
15.9581
0.27042
-15.6118
-12.5674
-6.01437
-10.5671
-18.0704
-14.6784
8.93051
10.9772
0.900933
-11.7163
-13.7
-10.803
-26.7615
-18.9191
18.3421
13.9713
9.01988
0.697813
0.483059
5.71152
-2.09815
1.54497
22.3946
18.1336
16.0635
15.4586
8.39408
14.5318
0.370962
5.38948
19.517
10.8682
0.522192
-10.3565
-20.8689
-19.7392
-33.6519
-42.5663
-17.0458
14.4326
17.5918
14.6257
7.65795
6.56626
0.422222
-3.809
-22.79
-10.2132
14.5074
2.38895
-11.4628
-5.8999
2.50694
4.92688
-1.7109
-1.68611
32.1759
33.1182
14.2513
-1.24328
-0.475766
-2.83306
-12.8432
-26.4199
-20.9116
9.35489
8.40751
-5.17336
-14.8411
-13.0087
-1.89076
3.30699
-11.2816
-5.36651
18.7832
10.9733
-6.26921
-7.41762
-11.5737
-10.8231
-6.73528
-7.12105
28.8033
50.5119
45.4717
23.3713
42.4883
46.6153
32.6775
15.3645
0.711461
-20.3789
-41.9563
-66.3638
-119.226
-166.344
-169.337
-81.669
-1.14992
18.37
86.7388
157.527
125.595
85.1389
58.0584
23.9871
-14.4345
-67.1006
-90.2818
-63.0344
-69.4436
-50.6474
47.1375
117.634
142.612
150.893
129.111
31.2059
-9.61327
20.2097
-0.704472
-71.4405
-122.352
-141.319
-116.364
-55.4873
16.1227
47.8083
66.0419
53.2187
117.151
177.274
115.974
24.6356
-31.6733
-97.0877
-174.548
-235.974
-285.092
-190.793
-81.9632
-15.9282
36.6567
45.175
38.4775
34.3322
30.5569
50.1733
48.9129
14.9433
-5.86128
-15.4466
-9.202
-1.41872
35.7709
128.527
187.117
216.232
213.974
137.711
67.0801
34.8343
32.8048
28.3148
13.6379
-4.20962
-89.5809
-177.5
-140.541
-66.8608
-69.4231
-105.102
-168.844
-262.231
-260.324
-67.9158
151.834
198.649
183.088
119.906
4.43621
-74.079
-94.6357
-61.4058
10.2153
19.6704
40.1538
105.633
85.1501
43.1598
-1.87026
-45.2578
9.38843
115.933
107.272
-16.0598
-132.837
-127.516
-51.6742
-28.7362
-43.0074
-33.3908
27.7887
18.1058
-61.0251
-95.8765
-79.3107
-34.3995
27.8982
77.4693
161.55
222.144
235.393
193.883
134.709
88.1308
21.5669
-54.7194
-198.746
-251.025
-121.284
-85.063
-203.383
-219.582
-144.457
-2.92429
148.835
194.801
168.438
92.6531
-13.62
-65.6428
-106.288
-122.819
-108.899
-67.1773
8.32599
82.1348
128.486
127.461
73.6423
51.202
97.9946
157.682
139.963
64.7632
-47.1929
-142.154
-218.046
-233.996
-230.795
-147.757
9.08419
173.486
230.129
187.667
132.635
104.197
117.906
93.9371
-7.72294
-61.9264
-23.8376
25.7799
-25.0996
-145.519
-235.981
-290.05
-317.386
-136.414
86.636
114.256
42.8357
13.5586
16.783
-3.32637
-4.77126
-28.4777
-52.7337
16.3241
-0.282757
-136.136
-100.5
-26.7162
59.5669
119.384
198.932
353.889
468.214
397.515
220.924
80.6774
-5.71583
-90.5672
-121.617
-148.797
-140.037
-94.2249
-84.2802
-177.708
-222.736
-99.7154
7.27889
9.34299
22.0304
39.0648
1.16792
-70.2126
-78.9211
-83.9419
-60.2227
-64.8591
-70.3276
-61.4216
-55.0636
-43.594
-64.7154
-75.9564
-36.4685
45.6179
168.862
225.002
178.31
117.874
93.6682
132.699
129.401
52.0317
-25.5049
-50.126
-99.7955
-62.0087
-10.491
-36.3905
-78.5556
-72.0209
-161.855
-321.002
-307.732
-76.4459
159.124
177.805
83.3634
105.352
179.245
217.3
190.696
153.804
98.7794
22.7316
-53.1407
-78.2212
-127.065
-133.106
-80.7425
-9.3635
103.628
226.422
250.436
26.9179
-127.504
-19.8725
23.4027
-66.8128
-162.488
-200.047
-143.72
-145.734
-188.55
-122.811
-18.8027
2.47865
-33.2269
-59.9657
-10.4829
38.0965
118.135
231.346
179.1
89.6787
16.4061
-37.505
-8.69585
53.8501
88.7417
10.0367
-131.274
-127.995
-46.3555
-69.0322
-34.9849
94.675
142.857
152.233
137.193
69.7323
-7.04376
-57.5377
-29.9306
11.2642
-31.1326
-78.253
-109.517
-127.423
-103.262
-41.9344
61.0831
129.425
128.534
131.938
133.527
59.8955
-63.9611
-191.907
-248.608
-203.352
-129.715
-27.5673
130.773
273.163
299.909
229.936
44.05
-141.782
-292.071
-360.434
-360.424
-323.127
-177.853
-91.0306
-38.1448
50.3257
235.643
408.055
474.152
397.293
312.666
207.595
55.2222
-55.3726
-80.5412
-76.3982
-119.696
-135.721
-119.519
-17.6888
110.131
124.413
39.6616
20.1429
39.0001
-22.9989
-83.7506
-93.8758
-88.8728
-71.2989
-59.2594
-50.6465
-71.619
-146.471
-203.225
-216.568
-146.056
-99.4675
-4.52666
65.5837
50.9175
23.1361
-38.3531
-31.179
14.5824
62.2299
97.4209
163.293
152.19
65.8849
-29.4495
-10.91
40.0924
45.6618
94.6535
75.7478
33.4918
111.109
99.4512
-9.34993
-47.0497
-32.3276
49.9438
93.8846
91.4176
76.7867
-7.97334
-135.947
-211.953
-162.984
-129.811
-136.78
-140.279
-136.669
-67.6162
110.029
273.022
309.435
211.088
137.59
94.5418
61.1556
-2.10662
-104.491
-265.935
-439.854
-332.532
-12.576
107.475
104.966
134.61
96.326
7.20532
66.1347
104.299
68.2081
33.2878
9.94218
15.1379
-66.5344
-29.9169
78.3322
27.5063
-142.698
-192.854
-71.8882
-51.3212
-149.788
-180.317
-193.745
-129.296
-2.46749
63.783
124.73
206.358
127.262
76.9082
121.196
119.68
151.434
198.09
204.366
161.952
125.747
75.7872
74.231
96.4882
47.7187
82.5867
180.058
30.7763
-249.204
-409.614
-524.138
-595.384
-453.94
-366.908
-292.835
-108.208
58.4627
199.796
305.577
384.145
401.965
357.336
228.752
92.1425
-59.1721
-131.21
-202.07
-210.541
-96.8026
25.1231
130.879
244.348
241.19
305.381
310.433
211.559
53.9001
-205.082
-459.464
-633.491
-464.699
-150.438
-73.5738
-96.6281
-136.96
0.666993
136.023
134.284
134.67
255.756
243.773
109.558
98.3561
54.7567
-85.6082
-94.7368
43.6345
103.819
238.637
301.523
44.596
-210.561
-156.495
15.2948
125.224
37.9706
12.8079
79.8439
38.0765
-92.2147
-195.366
-270.249
-268.21
-244.824
-110.374
91.3474
138.436
35.3602
-125.405
-83.9121
-53.9445
-134.023
-42.5811
51.9019
131.782
236.129
221.177
161.164
176.468
119.446
30.5949
-40.8517
-31.6486
-75.4153
-196.147
-265.144
-229.507
-124.457
-109.136
-170.392
-127.545
101.808
211.222
146.971
94.4609
18.4437
-18.4147
56.8666
142.325
196.422
285.967
380.483
309.064
198.936
-7.25897
-192.312
-297.578
-275.054
-40.5692
177.331
299.974
367.185
187.926
-220.729
-499.049
-513.746
-440.49
-321.343
-203.45
-96.0533
44.3696
160.354
233.79
217.905
166.392
22.9205
-97.8042
-251.219
-339.413
-59.7586
322.22
351.637
204.599
218.649
170.647
-379.892
-840.267
-745.726
-457.249
-225.338
21.0236
207.984
255.983
339.072
517.01
603.178
572.79
587.977
462.801
209.551
69.1242
78.2202
-42.1397
-124.998
-96.8164
21.2572
215.78
268.07
136.448
38.3072
-162.114
-551.121
-748.973
-633.817
-442.79
-319.399
-249.552
-136.795
-135.005
-252.96
-313.968
-296.331
-92.6124
214.212
350.16
469.657
359.599
30.4828
-265.71
-373.061
-71.4233
329.061
564.179
618.972
488.441
226.646
20.981
-41.704
-172.47
-232.218
-168.988
-87.7821
57.2574
159.236
300.584
411.597
289.187
124.637
350.198
418.173
-28.4612
-426.618
-704.716
-1099.18
-1172.84
-733.74
-88.6753
221.841
361.004
320.617
102.731
43.9682
198.812
302.228
331.832
326.759
329.787
206.273
-122.075
-230.705
-172.293
-45.9331
79.5611
345.862
485.15
307.05
-40.8429
-263.979
-274.328
-211.82
-263.546
-376.502
-356.176
-269.979
-200.105
-83.1452
45.8376
50.7575
41.4315
166.181
152.693
156.516
102.107
127.652
177.801
212.819
189.673
-82.9633
-181.596
-80.1049
-171.118
-247.644
-269.959
-327.307
-216.735
-116.424
-104.219
183.248
553.507
513.38
515.412
375.624
268.62
80.7374
-159.223
-286.48
-285.477
-44.5439
-36.8302
-44.3966
192.289
327.481
237.377
118.8
-47.1595
-156.987
-38.352
-30.9724
-240.549
-330.216
-368.846
-279.355
-176.58
-43.0369
166.655
274.586
184.113
28.529
-29.5537
-170.738
-279.466
-293.714
-341.078
-214.951
-28.7354
202.923
305.544
200.416
99.5672
-21.8305
-119.271
-62.6298
-1.4926
128.625
179.958
66.8162
-56.6158
-187.202
-263.313
-68.7507
369.932
542.63
537.867
428.01
239.942
66.3719
-5.32704
12.594
-18.7415
-35.03
-58.7632
-181.755
-277.434
-253.407
-189.646
-61.5366
153.651
215.674
130.379
-250.745
-701.057
-673.758
-396.391
-121.475
-1.86615
5.92833
77.4676
186.275
238.795
228.83
182.297
167.992
261.493
184.703
36.3419
-25.6925
-31.8352
48.0066
245.673
542.127
557.539
291.441
96.2006
-233.207
-638.441
-959.683
-812.114
-529.771
-201.046
142.48
170.943
122.665
96.2341
-19.3568
-50.6897
214.592
300.341
327.714
319.472
230.891
69.6806
-38.964
-193.678
-271.462
-6.09238
240.88
306.183
338.387
164.69
-50.4173
-32.3732
-40.934
-186.867
-120.255
-20.3295
-152.083
-291.749
-371.815
-275.208
14.4052
291.801
284.987
151.532
135.88
-26.0884
-193.627
-281.861
-143.015
-32.7722
-167.667
-203.462
-186.141
44.4847
240.229
191.561
80.8048
123.04
107.803
-57.2299
-184.394
-206.352
-198.076
-152.575
60.2856
307.543
431.105
592.641
452.676
218.073
67.6915
-5.22845
1.02989
-207.967
-539.43
-610.008
-331.955
-20.2392
154.147
219.291
99.8485
89.5508
41.666
-80.8083
-100.927
40.5807
213.452
55.7952
-164.766
-200.604
-54.0731
35.3427
43.3188
52.5901
96.8296
137.887
63.6733
-46.5003
-170.924
-35.3385
200.492
248.062
128.304
36.3602
-49.0788
-115.816
-100.04
-204.473
-327.821
-324.397
-189.145
-27.5674
51.2988
156.55
214.619
113.689
-173.916
-317.834
-79.038
135.276
149.319
93.6164
190.426
362.527
425.674
189.143
-120.329
-427.076
-643.961
-493.036
-154.612
116.052
256.426
330.663
437.111
341.91
166.291
-22.2439
-5.12011
136.965
115.115
87.7677
89.8942
157.483
-9.34807
-226.032
-201.536
-117.387
-120.85
-188.428
-292.41
-294.36
-139.424
-77.971
-186.276
-56.2085
167.968
164.536
102.556
11.4244
-103.03
-289.13
-284.81
-195.194
-44.0294
76.8414
161.908
430.955
566.643
437.419
274.385
148.955
-95.1946
-148.737
-66.2553
-27.174
133.009
154.103
-113.828
-264.564
-316.124
-180.158
-203.194
-288.896
-5.21048
259.456
362.205
266.962
246.828
141.023
55.1283
-39.1301
-74.4401
-360.27
-575.085
-427.364
-191.686
21.0009
49.3427
-27.9574
69.1539
175.792
241.034
214.202
-18.1592
-14.8677
98.8667
78.3221
24.6354
70.4691
-19.9925
23.4134
325.945
379.132
221.152
-22.3832
-318.429
-356.841
-12.3342
49.3271
-111.268
-230.254
-136.005
-12.4429
72.2862
203.493
112.383
-146.506
-282.558
-260.65
-309.778
-299.039
-250.227
-95.6204
162.019
340.042
295.873
211.649
236.998
278.175
301.455
227.222
51.5411
-111.084
-223.092
-140.13
14.4826
160.202
406.715
358.241
197.769
-150.255
-484.768
-368.003
-341.647
-375.415
-131.515
103.417
57.2899
56.754
62.5772
0.0229712
-6.91744
60.4372
17.4937
-161.519
-279.602
-187.988
-230.743
-232.947
-48.7363
231.125
396.658
371.764
392.025
304.205
87.9214
-28.8652
56.9324
147.382
158.562
74.5354
-19.7202
-59.7296
-148.478
-281.291
-404.534
-415.807
-301.859
-48.6668
277.016
398.233
250.145
82.7058
9.3111
66.5657
121.522
130.998
-90.9349
-377.374
-461.317
-234.088
-126.981
-91.384
50.5606
109.913
155.745
227.924
255.148
208.762
143.144
52.0783
-138.076
-190.234
-175.947
-136.47
-12.9751
10.364
-92.2907
-59.1823
27.8551
19.6567
137.987
362.294
441.706
330.949
250.064
189.869
-196.151
-593.42
-627.614
-643.142
-467.687
-76.4622
338.552
429.201
219.217
67.3452
129.884
135.21
149.164
257.239
202.554
-141.776
-334.767
-244.177
-135.932
-184.855
31.0749
217.767
67.1266
-50.1317
189.914
261.769
119.328
-71.4703
-175.157
-182.063
-145.599
-8.00155
-151.99
-223.269
-15.2137
81.1974
17.6226
-194.79
-25.7765
373.935
548.165
475.14
313.024
163.222
-187.983
-650.958
-821.186
-495.139
-18.2901
179.231
36.1198
-55.2242
109.212
118.086
127.542
229.098
57.5079
155.287
278.102
39.4664
-44.0409
53.0195
-11.4763
28.5319
197.921
145.366
96.102
-37.2655
-370.139
-339.639
-181.697
-148.274
-50.1253
147.379
88.9092
-42.3035
33.9734
60.4723
-135.212
-158.454
-170.1
-196.158
-142.536
81.4613
56.0579
151.019
233.576
290.413
241.879
130.005
225.833
-59.0481
-264.944
-149.487
-69.5026
-1.39462
73.2119
-31.9446
-149.523
106.999
392.163
267.721
49.7434
-121.26
-277.359
-491.675
-546.092
-450.868
-216.273
-55.514
87.9912
440.321
702.405
446.709
185.386
51.9587
15.575
70.1741
38.1816
-87.6295
-234.897
-321.785
-114.842
168.599
381.551
549.486
267.914
-204.892
-339.971
-242.783
-261.667
-124.74
47.597
-17.732
-243.705
-514.669
-741.773
-612.644
-196.368
-12.3174
197.073
479.167
600.564
564.954
548.722
421.432
331.688
486.635
350.232
-74.7483
-231.958
-283.228
-416.724
-387.289
-243.636
-76.2186
96.8398
128.7
-141.52
-311.564
-238.446
-56.6541
30.7335
-19.6622
-17.0221
7.27962
57.7185
-33.7006
28.3167
143.691
95.3723
0.107413
-100.623
-107.831
15.7064
135.342
232.473
136.96
55.2551
141.64
29.6216
49.2425
84.4481
-38.8066
-271.913
-262.668
-7.3632
85.5362
57.2025
58.805
153.928
105.584
-24.0384
-23.3468
-83.6988
-106.96
81.0352
196.132
177.615
-145.097
-490.698
-616.866
-587.826
-380.988
93.3075
432.561
529.554
403.964
207.005
68.1488
-26.9825
185.785
431.736
365.386
276.242
105.225
-331.468
-933.307
-1243.05
-820.764
-131.187
397.729
736.637
773.834
526.841
279.954
52.0093
-28.8793
-46.8928
-117.398
-181.059
-201.476
-273.559
-264.727
-145.622
81.5674
294.079
484.338
623.249
453.343
76.8462
-268.768
-282.575
-277.114
-387.298
-350.163
-224.494
-109.747
-68.1797
-178.452
-354.163
-494.472
-442.494
-50.6554
304.261
577.275
602.482
657.528
554.891
238.976
44.4006
-183.571
-383.197
-394.264
-233.586
-58.2104
14.4392
109.612
161.574
238.953
271.64
153.368
-32.5722
-257.594
-215.149
-218.558
-253.829
-203.927
-30.8937
44.7585
17.2735
27.49
-161.313
-146.606
109.559
217.662
257.301
355.52
295.176
187.683
230.039
141.103
92.6899
42.6831
-261.698
-556.325
-313.338
85.0953
134.88
205.895
292.642
155.417
-83.3217
-340.209
-513.132
-536.158
-426.633
-391.139
-253.258
30.9498
208.322
366.945
403.653
354.919
185.365
-65.7953
-276.306
-239.892
79.2349
254.371
183.722
102.003
272.801
238.796
-119.126
-213.824
-143.569
-176.479
-161.811
61.378
190.263
130.127
66.9605
199.456
236.665
303.827
207.525
123.741
38.0159
-274.738
-496.917
-407.775
-339.992
-55.4509
376.218
521.171
244.469
-154.223
-470.153
-511.599
-428.851
-280.46
-37.1203
28.8358
96.931
314.512
460.658
216.019
13.9527
18.5972
-1.98953
-118.844
-162.443
18.2643
-5.07852
-155.223
-145.383
33.0233
382.532
435.682
358.827
365.988
115.043
-219.962
-305.388
-273.607
-314.115
-397.81
-506.55
-306.463
12.8591
211.509
291.637
172.499
194.082
210.385
143.88
161.612
179.876
148.365
61.3791
1.69084
32.9019
-57.5683
-176.743
-262.315
-336.124
-328.626
14.3894
179.656
261.319
357.573
61.0986
-462.359
-436.613
-136.212
-47.5984
138.332
249.194
165.024
52.2957
-31.7942
-40.5234
37.8202
200.768
253.042
214.719
320.482
180.281
-170.672
-404.662
-432.111
-383.925
-151.488
-4.75876
81.5895
201.786
202.389
89.9153
-75.1299
-230.642
-201.526
-34.8395
170.941
359.106
374.653
350.213
232.981
-96.0938
-484.743
-746.138
-693.775
-57.0124
592.309
542.553
229.433
12.6583
-217.892
-309.959
-104.006
91.559
129.259
92.7537
-29.1064
-214.484
-358.346
-472.007
-567.784
-320.174
215.077
774.264
1012.29
711.677
330.106
56.1428
-142.024
-156.602
-19.5408
97.6299
-66.6835
-97.8847
54.7871
-39.0298
-234.08
-352.129
-334.59
-154.295
-24.3112
30.7728
183.305
197.003
99.4277
22.7774
24.114
-12.0685
-125.714
-84.5834
-81.9921
-147.043
-190.576
-167.191
-250.889
-276.515
-179.042
-1.9733
242.962
311.502
299.602
346.343
422.498
311.69
224.311
194.193
-65.6554
-209.863
-171.302
-226.36
-366.471
-339.313
-137.702
-42.7763
-74.8626
54.6296
351.053
363.399
181.259
136.605
184.907
107.331
-162.266
-98.6775
9.21999
-120.225
-255.249
-94.7805
32.4529
-64.3532
-77.7741
-258.693
-425.707
-379.844
-282.162
-70.7625
129.263
221.511
228.613
231.255
312.653
274.327
174.674
153.419
168.098
123.471
-35.7431
-316.568
-310.487
-31.3071
154.434
251.905
384.274
198.41
-136.516
-367.602
-286.205
99.7237
333.234
200.21
27.0309
-67.1468
-241.43
-518.42
-518.206
-262.222
0.116292
77.4916
112.331
152.871
115.417
104.477
83.5233
143.219
317.008
398.021
198.903
-196.511
-453.162
-218.309
-137.051
-130.252
113.281
184.779
45.1552
-83.7462
-121.588
-32.5539
-50.4061
-74.1025
12.3649
190.403
225.709
121.924
4.47826
-173.524
-371.032
-405.929
-143.958
122.767
318.089
384.345
271.032
185.953
169.899
171.388
18.6425
-163.24
-371.649
-443.012
-353.026
-79.952
214.574
280.45
201.674
47.9476
-143.883
-146.188
-50.2992
-63.5017
-15.6161
85.7158
190.362
159.367
-65.6928
-13.4787
156.429
173.849
-44.3084
-215.151
-94.8011
-127.79
-138.941
44.2504
223.341
292.687
292.652
143.366
-107.199
-156.74
-116.601
-100.319
6.44497
49.6348
-32.914
-99.311
30.1104
157.105
110.41
-124.511
-386.777
-630.519
-1001.1
-639.651
1.54109
246.955
371.761
500.365
453.781
174.709
134.713
230.471
96.4775
18.2509
70.3096
31.606
-225.065
-99.31
314.929
469.863
410.73
433.574
590.233
373.086
25.0754
-126.065
-271.656
-470.423
-570.229
-476.621
-440.559
-481.028
-377.531
-119.482
161.109
141.752
100.178
114.443
-4.64266
-70.062
-69.4993
-4.61717
71.5668
-70.9522
-154.882
-178.09
-66.8307
111.729
270.424
294.803
122.58
43.479
-35.6363
-146.741
-126.981
59.1915
349.1
317.431
351.856
417.709
205.999
-237.24
-450.987
-371.924
-323.7
-135.684
100.415
276.145
327.315
327.024
264.166
159.299
8.26744
-65.2181
-133.28
-236.336
-361.407
-429.531
-551.699
-498.417
-235.058
-25.5371
59.1017
137.949
173.301
263.218
232.858
228.974
173.68
53.0011
52.8191
13.3918
40.8679
146.736
91.2204
-0.499503
60.7245
-73.707
-322.036
-138.245
90.1885
166.728
118.82
4.7827
89.6372
329.978
329.17
138.573
65.3011
-144.362
-463.696
-567.343
-524.617
-390.979
-202.579
-23.3798
114.681
261.185
461.169
441.559
306.947
184.912
55.1536
2.71265
-94.1174
-249.078
-305.519
-354.907
-306.205
-51.3909
126.948
93.8772
173.04
215.457
-3.44023
-200.297
-178.062
-36.5976
205.241
216.452
185.243
348.233
492.511
372.456
84.4057
-274.233
-578.127
-680.143
-754.235
-675.4
-318.118
124.676
394.019
359.701
118.456
217.203
380.642
547.156
656.742
456.398
67.137
-246.579
-239.134
-173.734
-115.479
-26.8807
49.9308
57.6362
34.9802
43.2748
36.3956
-39.8605
-164.334
-171.947
35.002
-99.9836
-407.173
-535.578
-419.055
-335.768
-194.221
8.78753
83.0735
-76.4918
-271.542
-184.085
109.79
419.12
704.519
761.582
429.519
144.873
122.283
-32.5189
-56.7013
-52.663
-269.872
-470.067
-395.139
-119.583
132.243
250.429
215.752
223.55
325.062
345.072
295.757
165.337
-55.3168
-249.755
-183.826
-177.199
-229.984
-203.299
-124.074
40.5317
151.414
114.345
-53.5978
-93.1282
-120.946
-193.162
-311.787
-249.702
-157.188
-42.1921
148.082
133.191
-42.5864
-6.85653
141.652
165.612
71.3443
-42.2264
-217.238
-287.834
-292.286
-129.501
20.1986
184.128
287.618
345.844
342.571
337.623
273.658
47.2327
-175.689
-151.65
-91.7819
-139.329
-179.189
-60.562
70.1552
171.597
266.136
342.078
512.739
481.126
334.835
-26.883
-282.516
-469.874
-626.529
-544.501
-339.099
-223.614
-210.225
-122.635
-116.414
-109.583
-60.6222
53.4681
-7.53016
-116.087
-34.8379
87.8263
-54.4724
-100.975
57.9877
247.73
327.173
239.623
236.745
207.225
230.518
250.565
176.898
66.676
51.6441
15.2406
35.6926
56.8113
55.6112
18.9782
-3.83045
-77.8411
-147.828
-306.39
-391.887
-229.482
-84.4194
65.0213
217.119
91.0086
-68.7775
-20.9624
11.8777
-115.282
-99.355
-17.8207
-255.043
-547.662
-342.134
52.3599
250.06
320.777
288.144
181.09
-55.6079
-289.449
-214.988
50.7766
126.853
142.277
128.679
128.578
313.753
508.506
501.212
241.099
-95.9334
-186.955
-239.815
-371.909
-387.47
-314.185
-99.0101
118.707
232.841
84.4792
-185.065
-354.279
-141.027
348.947
465.494
330.368
124.708
-199.488
-365.348
-408.442
-234.836
-164.163
-107.719
94.4435
281.691
266.453
208.415
221.002
180.795
171.553
91.1733
17.1111
-151.494
-466.193
-427.066
-312.166
-262.332
-126.692
37.8132
311.714
499.442
502.261
317.283
103.462
-82.9878
-85.7727
-80.9196
-210.566
-225.921
-294.75
-489.505
-418.57
-68.5371
281.446
436.947
286.79
-0.631348
-126.801
-64.5613
36.703
124.024
208.778
180.414
135.834
51.8981
-75.51
-68.2746
14.6827
-10.0513
98.2107
301.82
362.232
209.011
0.839743
-220.896
-296.199
-265.839
-308.993
-312.09
-234.496
-138.792
-255.276
-156.417
-3.59746
66.6648
-51.3954
-148.406
-114.011
-160.688
17.9994
446.298
514.624
316.577
151.452
71.5394
90.4809
213.296
340.956
225.686
-60.9429
-126.855
91.0639
79.7314
-33.3246
-72.6288
-30.1744
17.1295
38.5865
-22.3369
-89.0421
-243.416
-290.714
-287.072
-131.804
35.5056
-36.8115
-76.9762
-79.538
-99.4824
-136.175
-136.338
-253.568
-522.798
-361.16
9.16728
221.78
315.19
356.812
413.874
227.574
62.6506
105.024
183.37
166.753
85.8609
173.022
139.775
-39.7863
-67.8396
46.1999
74.759
22.4476
112.442
178.296
30.9609
-114.361
-134.564
-193.69
-51.1317
124.39
120.716
-37.0117
-288.36
-546.643
-726.048
-732.613
-483.25
83.9096
387.299
457.054
457.852
447.954
314.054
115.135
69.0533
-34.5284
-74.1268
3.74092
26.6828
61.9195
96.795
244.945
327.067
112.915
-45.6783
-119.141
-255.755
-361.333
-243.564
-97.0275
21.7084
126.396
236.788
278.975
117.023
-49.5967
-466.682
-761.871
-657.169
-304.236
-15.7513
-15.1002
14.5022
150.522
249.781
379.95
409.898
225.604
16.609
31.4089
150.971
369.122
435.276
92.7791
-177.235
-245.364
-40.1076
209.294
246.599
89.6944
-47.5217
-150.929
-187.919
-121.86
-61.0371
-148.629
-125.415
17.3379
102.091
-355.97
-113.019
71.2144
4.92673
-283.561
-500.152
-532.391
-249.642
199.195
562.921
602.311
194.424
-90.1067
17.7584
121.35
159.976
411.895
516.986
350.59
14.5168
-238.718
-443.266
-539.058
-545.801
-397.03
-113.982
107.185
107.048
19.5331
-12.631
21.5435
75.9253
149.877
73.808
25.609
80.6799
103.476
144.287
234.21
57.8964
-228.7
-360.591
-214.848
36.6983
217.903
262.575
244.163
213.116
276.532
198.75
92.6221
40.7235
-113.945
-325.301
-245.544
-60.3396
-39.3055
-165.586
-158.033
6.18035
54.3901
119.657
138.752
27.4107
-92.4116
-215.508
-178.005
-159.446
-210.459
-152.534
-105.021
-66.2208
12.6307
51.5075
-88.7461
-231.165
-59.8949
182.45
251.156
257.239
351.818
259.296
149.74
70.4854
65.5497
131.747
110.868
98.2227
17.2312
-10.866
-25.197
-120.293
-189.951
-75.5127
76.9916
112.006
12.2502
-124.078
-304.019
-401.419
-307.98
-177.245
-166.914
1.06155
173.255
79.3849
58.1427
188.536
237.412
77.0812
-105.091
33.9035
234.135
188.863
57.3409
58.9415
114.945
115.927
43.0437
-96.326
-74.8691
72.9325
48.0618
-90.1613
-135.617
-100.174
-180.68
-264.25
-340.804
-170.726
58.1257
-4.33196
-177.997
-167.144
-29.767
84.4495
175.135
315.351
492.175
488.187
318.382
41.9517
-205.483
-390.547
-372.554
-91.9143
202.103
251.346
151.121
49.3221
-17.5718
-14.7374
67.5632
88.899
-3.84962
-105.069
-199.365
-303.811
-369.372
-310.466
-128.891
92.3993
136.409
-88.0031
-206.469
-36.6454
-37.321
-70.5598
1.91865
107.416
241.067
298.749
266.76
211.946
230.323
134.447
7.37436
-85.2949
-43.3867
98.7004
19.2268
-9.6819
128.109
356.141
366.889
143.736
72.3539
-30.5099
-148.606
-227.551
-255.749
-295.256
-308.672
-264.315
-263.261
-299.706
-407.706
-456.565
-344.401
-132.578
52.6633
200.967
283.698
383.901
332.004
202.899
136.294
153.119
152.437
157.834
142.865
92.0632
81.7826
116.227
26.9175
-139.621
-180.489
-115.879
-128.753
-232.983
-317.606
-166.353
177.304
378.099
462.464
394.888
219.61
27.1858
-104.853
-266.362
-259.301
-208.066
-151.232
5.562
124.974
179.765
186.37
90.0859
-28.9334
-95.3626
-68.3683
-199.404
-400.686
-404.312
-424.446
-474.055
-249.95
-4.17488
165.655
315.488
368.272
411.268
360.639
142.243
-25.5823
50.3827
90.158
145.911
269.576
397.233
539.465
456.946
160.02
-149.91
-302.014
-366.703
-456.086
-430.12
-342.395
-151.41
-4.77714
15.6049
-82.2397
-302.561
-314.548
-296.864
-228.294
-64.0516
62.5272
82.8512
-42.9644
-26.787
141.091
268.435
267.882
312.014
321.413
168.463
-13.1158
-131.054
-91.0772
27.8938
53.9336
41.4557
114.056
221.479
220.995
149.149
138.882
204.571
155.278
-41.2116
-201.246
-271.256
-255.701
-152.37
2.06957
124.881
186.424
69.084
-219.74
-430.094
-431.304
-229.381
-54.0108
63.0263
103.345
91.0453
-24.5955
-167.836
-157.16
-44.691
64.7321
87.5777
139.163
45.0957
-63.2862
-59.2092
-80.8226
-9.34814
235.152
351.767
260.614
193.992
202.561
133.919
45.3634
66.6958
74.7513
-25.6132
-207.636
-286.028
-283.598
-314.349
-293.331
-107.705
53.6685
134.679
160.311
88.4235
-58.2513
-132.159
-66.7802
-49.0924
-50.4934
-49.0408
22.7556
-8.16983
50.8466
207.616
392.852
431.27
276.967
136.235
-61.5193
-96.1849
-127.485
-88.678
61.5615
100.907
-20.5821
-125.062
-87.0065
39.7116
8.57718
50.0564
112.671
68.8486
-107.051
-317.814
-424.494
-497.591
-389.461
-132.256
112.301
90.1685
27.9405
-72.2541
-107.816
47.8128
231.311
250.66
187.281
56.1586
-100.489
-204.305
-145.98
3.58195
69.4603
173.344
322.736
248.303
97.9298
124.503
289.795
266.756
200.502
96.1108
-126.36
-186.078
-115.591
-12.2655
-6.65078
-73.4184
-110.586
-262.304
-488.6
-432.936
-257.928
-106.725
-14.6392
197.791
420.296
421.812
245.092
232.238
115.031
-95.6481
-167.055
-259.249
-442.296
-388.995
-46.8785
202.233
340.559
450.954
465.184
272.553
121.463
77.7976
-63.4785
-198.982
-367.604
-315
-321.041
-464.422
-356.56
-30.3529
110.353
117.434
275.321
342.979
136.41
-102.737
-111.677
-51.4629
-72.4867
-85.0748
-35.6212
-91.0088
-51.6321
178.074
330.312
346.21
256.108
36.0915
-151.716
-313.291
-375.311
-156.696
136.011
267.664
239.282
106.681
-0.523583
-22.9419
103.112
96.2092
57.3138
94.2735
50.945
-141.015
-201.116
-257.23
-310.092
-172.95
105.531
399.299
346.773
-56.7277
-278.834
-363.165
-394.775
-115.751
102.347
264.781
213.989
202.431
178.596
28.2792
-64.8483
-42.5908
-15.6749
21.6478
125.262
140.408
-52.5399
-130.87
-136.85
-170.813
-160.321
-98.307
-257.904
-304.423
-14.3598
118.119
88.7559
98.5861
131.951
229.627
254.661
158.505
122.821
100.886
35.5308
74.7048
40.6253
-1.47611
126.456
137.756
-41.8315
-64.6924
164.321
200.23
-36.5157
-196.991
-151.964
-116.784
-191.147
-365.21
-311.99
-147.531
-161.328
-195.911
11.926
169.142
-132.819
-426.001
-185.55
227.438
353.457
418.543
395.97
108.653
-275.434
-360.978
-258.669
-180.424
144.949
532.033
589.018
294.774
-2.49991
-193.332
-186.36
-178.893
91.0024
268.856
217.642
166.945
66.6809
-145.243
-108.865
76.282
235.041
194.782
85.9648
-40.222
-250.41
-298.705
-292.267
-266.631
-178.177
-168.89
-351.045
-239.691
87.5654
143.339
48.3184
-12.9912
67.5307
90.2622
47.3481
-40.7258
-117.553
50.2006
71.4312
-40.7219
-39.6483
-51.4829
-87.4277
-25.7716
43.0269
161.364
277.407
343.484
312.357
297.511
231.404
235.866
170.265
82.0779
34.3234
-50.7942
-115.95
-343.994
-552.193
-481.95
-387.874
-323.966
-304.133
-216.462
68.2578
296.51
292.207
116.809
90.2408
137.93
70.4344
-114.664
-76.252
21.3169
-95.8125
104.761
394.236
454.656
541.82
483.028
176.009
-177.946
-401.469
-502.752
-520.864
-422.193
-152.327
-52.6704
7.19188
-0.52636
52.8382
261.653
272.356
188.313
173.02
126.964
-28.5545
-277.342
-269.305
-203.756
-242.706
-105.039
91.2157
221.377
146.763
117.403
123.224
219.609
98.9785
45.3179
114.055
9.75823
-257.409
-468.159
-483.874
-496.766
-396.289
30.2757
332.561
367.89
475.54
479.092
368.582
137.928
-124.331
-172.362
-204.074
-231.124
-80.0865
173.323
236.739
37.9539
-128.954
-23.9992
284.75
474.486
469.902
239.485
-170.331
-346.768
-536.64
-531.976
-342.692
-123.037
25.631
59.5852
97.0626
13.0413
-222.427
-346.752
-239.96
-67.6531
96.0847
237.06
346.039
240.804
19.9936
-115.178
-73.4319
-135.98
9.1937
220.09
322.781
390.127
399.485
220.827
60.6676
-68.3402
-116.302
-170.595
-378.214
-285.265
-27.0482
-26.8113
-207.174
-270.23
-192.542
-52.8044
79.359
313.659
374.364
119.282
-35.4819
-133.028
-284.798
-443.47
-254.921
210.857
494.21
399.426
338.892
233.545
57.935
-72.6155
-187.589
-176.056
-155.795
-213.174
-223.108
-88.8158
128.906
232.361
232.522
143.938
50.2595
-2.4165
-106.364
-238.907
-183.682
-46.3676
-83.0802
-199.135
-251.972
-124.842
3.65241
-26.4326
-55.0044
-64.2421
45.5517
103.842
-75.1726
-2.98474
240.676
380.895
350.074
473.118
541.568
294.41
52.936
-117.637
-266.778
-359.754
-322.237
-333.455
-235.995
-11.7568
93.4535
169.921
210.331
96.6161
-28.6767
-22.4234
-102.1
-190.919
-105.829
-91.5696
-145.863
-145.632
-111.858
-30.6428
46.528
127.441
231.838
279.836
170.716
111.718
38.9057
-155.761
-275.366
-199.029
-194.564
-510.629
-480.145
11.3629
431.689
552.378
455.369
294.404
1.55553
-196.613
-152.013
-40.4222
73.1407
128.828
83.4376
-40.9922
-96.4806
-125.489
-89.1306
7.9808
239.722
426.059
357.735
258.717
96.2456
-267.007
-595.814
-532.135
-323.783
-221.419
-172.853
-74.9014
58.948
116.824
54.6959
-2.58566
104.939
301.832
248.974
106.396
147.301
117.999
9.25768
-273.809
-297.861
45.4435
244.032
202.778
115.33
31.7378
-3.69762
29.1888
-8.49574
-11.0573
-0.925056
10.1508
-56.7981
-24.4491
-68.5301
-206.939
-277.108
-271.533
-289.443
-232.694
-46.703
55.3551
127.843
213.096
268.346
393.717
430.685
229.02
-43.3583
-223.959
-276.633
-359.481
-338.337
-30.1069
163.824
195.694
99.1472
40.8954
121.748
132.441
-29.3891
-214.001
-228.934
-105.106
25.9929
197.715
311.531
256.315
160.04
56.4912
28.1262
-7.75489
-12.4418
-26.5802
-34.086
-76.8256
-52.7748
46.8927
55.1536
8.50057
-70.6398
-211.935
-320.61
-425.975
-438.133
-408.854
-285.433
54.2885
272.133
296.58
161.337
117.842
110.883
41.0072
99.4822
221.366
204.098
81.6302
62.0362
209.663
267.385
202.123
58.8055
-3.42213
0.00998846
-26.1727
-2.15556
-43.8394
-149.608
-211.409
-104.029
50.9485
122.611
12.151
-109.383
-96.2262
-88.425
-77.7045
-166.477
-295.838
-160.883
101.289
220.308
178.453
83.7227
-124.185
-353.287
-440.25
-236.286
-89.8421
21.0268
264.089
335.054
243.098
211.708
141.96
81.8672
1.18541
-62.7941
-27.8446
-4.88917
-18.2263
49.7535
76.5941
72.8863
127.56
138.109
80.5381
-91.4785
-108.005
-48.7334
-63.3629
-100.643
-50.4197
59.2333
54.0003
7.92456
0.98697
-73.4824
-197.523
-206.431
-248.991
-201.307
49.0077
149.039
70.0141
78.9138
155.195
132.524
115.447
100.647
93.9792
137.972
7.60873
-242.23
-269.122
-98.0069
66.8381
239.436
364.292
271.67
147.717
-30.1023
-208.323
-362.867
-516.94
-439.717
-261.022
-43.1386
220.53
472.969
448.669
212.796
14.8366
-68.1264
-49.3495
-24.2179
-49.476
-174.963
-327.65
-352.98
-102.714
109.941
160.388
366.342
597.107
464.925
122.259
-58.0321
-311.506
-578.449
-526.157
-340.301
-216.221
-85.8339
35.2749
18.8858
122.245
341.655
425.465
295.471
77.243
26.4614
50.1068
-19.8753
-13.8806
49.6412
97.9087
48.7271
3.24087
27.2533
-14.6779
16.9986
140.863
169.784
130.114
42.3431
-131.67
-387.542
-400.788
-207.935
-233.726
-261.972
-133.525
-46.2372
8.87268
54.9157
185.799
222.524
153.501
60.6087
29.1235
-40.4399
-159.086
-194.538
-118.295
-50.3705
-98.3468
6.88168
131.182
122.633
205.134
304.947
228.129
166.508
221.885
201.057
57.798
-29.0879
-168.673
-382.513
-314.433
-94.8372
65.5569
87.6967
90.7124
77.529
75.6515
38.1733
-54.6238
-74.5171
-68.6944
-124.059
-219.805
-180.331
-198.613
-164.169
-76.3168
89.9284
326.092
422.582
184.121
-3.39345
-1.53069
80.4895
67.0653
82.4142
156.621
113.534
20.6654
-78.0699
-173.469
-255.508
-206.608
-314.452
-359.721
-197.367
-73.1786
-24.415
126.025
363.481
362.164
279.198
295.013
210.62
5.70692
-235.044
-375.891
-451.433
-522.243
-355.535
6.33229
253.115
330.414
396.403
522.068
437.056
69.8468
-145.389
-204.956
-252.792
-152.401
21.9175
132.209
147.692
218.503
259.224
106.714
5.20621
-54.0901
-199.169
-245.804
-224.799
-249.929
-222.297
-159.465
-175.283
-35.9538
118.467
120.717
117.097
85.3949
-26.344
-104.741
-53.7272
-16.2159
33.1829
141.216
201.346
228.329
113.805
-11.9705
1.42238
47.6884
72.3407
74.5038
61.4791
-15.5189
-130.438
-276.416
-341.153
-344.093
-179.479
57.0439
167.256
190.292
233.34
193.843
32.6425
-60.098
-39.7138
-59.2305
-148.427
-71.414
87.6089
64.5448
31.4821
150.356
274.302
341.609
211.246
46.7486
-135.884
-438.384
-560.832
-365.955
-126.554
1.34409
87.2449
159.795
283.126
427.016
424.219
202.682
-107.671
-337.959
-435.97
-365.355
-254.129
-63.5178
47.1094
-2.90811
-31.4352
60.4455
186.568
129.645
24.684
7.85413
-51.8904
9.48953
139.603
194.474
210.595
254.438
198.265
95.0745
2.63894
-105.021
-289.021
-303.718
-245.741
-0.767545
129.581
130.217
42.5127
-195.977
-180.352
58.7927
263.016
321.926
230.997
30.7667
-175.559
-330.227
-369.743
-430.781
-275.832
38.5268
320.853
293.225
159.204
29.3915
-227.453
-390.631
-205.884
116.846
206.139
169.848
246.233
234.322
54.0444
-213.412
-251.656
-105.717
89.4308
332.23
338.277
264.317
163.076
-45.4225
-77.9479
13.0322
247.621
336.758
187.729
-11.647
-255.615
-498.739
-650.692
-641.686
-480.864
-206.135
-56.7779
-39.9613
104.1
202.103
255.792
218.004
150.652
138.887
156.724
177.404
173.686
105.244
-84.4385
-188.748
-144
-62.7835
83.9156
252.924
319.579
249.11
193.11
140.905
-29.5953
-120.734
-77.0235
-29.5327
-177.899
-283.919
-207.857
-149.434
-157.616
-28.0635
105.207
28.4395
-226.77
-312.567
-251.256
-261.537
-73.7677
196.042
315.549
265.828
270.477
291.916
207.433
-69.6202
-297.694
-239.629
-46.5435
-114.67
-267.878
-198.544
-41.1915
212.269
426.817
482.104
472.232
390.328
195.173
107.793
90.3577
-157.596
-396.747
-415.658
-355.644
-178.172
84.6885
270.224
111.051
-24.7007
118.201
104.075
-97.3992
-293.761
-313.074
-303.924
-267.367
-10.9607
118.056
58.7572
-61.1385
-18.7708
-71.32
-266.786
-325.229
-156.455
163.971
307.516
264.538
228.342
164.965
106.151
249.37
368.429
398.788
360.556
300.904
125.563
-45.8042
-194.468
-230.641
-143.752
-15.1782
-56.1598
-272.976
-454.407
-674.978
-760.163
-382.583
159.693
439.67
410.109
265.695
-61.2859
-302.225
-293.123
-142.946
-19.127
107.954
255.952
340.968
356.804
233.23
233.445
284.736
246.735
238.234
83.3931
-65.7445
-205.87
-229.716
-149.667
-151.659
-74.286
-4.20608
-13.0663
-105.93
-168.252
-257.305
-437.203
-542.423
-299.092
106.083
373.742
508.504
435.693
361.442
381.798
262.983
38.4891
-65.131
-180.521
-320.794
-371.053
-179.968
75.3476
145.205
49.9833
-103.118
-177.41
-99.2812
-113.1
-125.01
-124.69
-38.2415
8.51264
-21.9536
-18.89
-46.9582
15.4105
109.906
194.055
259.865
326.985
233.892
-68.0143
-270.652
-207.774
59.8021
253.676
170.322
23.7113
-25.5141
-120.178
-185.206
-66.6361
74.9515
228.759
218.202
95.2403
12.6557
-16.2801
-3.87785
34.8439
-68.7801
-215.589
-269.457
-322.964
-402.049
-329.727
67.0966
279.342
291.365
376.924
524.188
405.735
87.9902
-168.192
-380.28
-556.738
-643.358
-593.992
-357.2
-80.3526
196.638
436.773
497.331
460.419
342.85
254.669
116.029
61.5667
18.4528
-111.973
-341.42
-421.332
-265.053
-132.059
-30.5451
121.757
391.429
616.324
556.204
311.727
-74.1929
-370.013
-442.76
-351.913
-108.824
32.4315
6.80243
-88.4606
-95.2659
-27.3052
-31.1418
-69.1676
-39.5768
-3.12404
75.727
110.388
-44.8658
-133.461
-134.112
-69.969
47.9535
194.897
276.2
248.535
70.4806
-157.122
-322.126
-371.132
-307.171
63.4018
388.493
424.862
290.331
186.044
147.568
-50.1819
-123.509
-106.247
-101.012
-43.1609
-1.14512
-41.8876
-149.658
-167.63
-55.6251
81.5943
137.291
162.568
102.512
-93.9896
-251.596
-280.776
-256.167
-181.943
18.7232
311.466
279.961
132.049
39.0529
-97.4574
-175.102
-81.4349
70.5721
73.4905
36.0981
129.92
146.655
98.3751
100.369
-0.725483
-75.2716
-27.4357
18.103
-21.8787
-46.8874
-25.8447
-132.882
-334.495
-277.467
-184.805
3.49204
209.663
264.843
278.599
254.422
149.76
164.867
149.412
15.0731
-71.3141
-123.424
-198.575
-163.043
-114.543
-190.236
-283.514
-188.38
-50.3878
42.0434
94.2284
35.9358
56.3483
92.6244
66.5056
140.54
344.085
336.595
203.277
85.6447
-21.7885
-157.568
-201.619
-253.176
-240.193
-91.8507
-7.3445
6.52181
48.3301
54.2874
119.569
126.927
40.2117
-2.98298
-88.1005
-234.359
-419.985
-413.298
-329.103
-236.949
-127.881
134.416
364.464
471.476
441.717
308.985
269.629
255.166
176.754
73.6396
6.8999
39.8464
46.4198
-67.1405
-300.017
-351.61
-218.773
-260.452
-266.659
-19.6914
293.204
352.076
205.023
24.662
-156.255
-293.978
-164.241
73.833
95.8267
61.5721
97.5941
50.7654
-88.7499
-46.308
31.6347
-124.194
-315.403
-166.101
91.0211
116.72
129.621
166.562
135.103
-22.5876
-86.8679
-80.9131
-229.403
-426.791
-219.297
101.655
227.032
268.427
238.903
213.767
166.237
197.665
255.063
229.08
130.601
7.23805
-124.739
-176.166
-64.5885
101.071
156.175
121.632
40.9023
-106.596
-342.975
-636.888
-692.671
-532.582
-447.165
-215.85
121.841
326.979
514.788
461.869
229.987
-21.4082
-157.644
-302.464
-352.772
-93.5679
209.867
220.616
237.88
335.304
318.414
197.954
191.645
196.372
215.226
151.968
188.824
78.0247
-145.881
-281.167
-233.881
-133.672
-80.7219
-72.1868
-174.359
-285.525
-351.854
-199.288
17.6553
136.469
109.698
93.8558
14.6406
-54.4494
-8.25523
21.3469
-35.4771
54.9035
60.9523
72.8883
143.726
195.026
132.86
115.273
57.032
-178.007
-531.001
-578.482
-492.956
-457.619
-153.045
221.548
570.916
702.909
689.652
364.522
-7.11816
-149.747
-197.671
-269.495
-321.167
-186.967
-11.6707
121.505
184.025
159.159
329.436
399.807
335.245
321.189
237.051
53.1842
-270.976
-365.717
-325.775
-246.585
-46.9819
35.5419
-164.197
-354.676
-320.314
-289.348
-431.487
-492.348
-254.738
152.317
361.27
233.702
-13.0137
-38.5924
81.6379
164.893
117.23
-7.52937
29.8031
87.3702
94.2557
64.3104
138.217
293.017
357.569
324.131
401.885
376.984
197.579
45.0345
17.4638
69.5784
42.4587
-31.5042
-251.221
-374.422
-440.621
-388.415
-275.212
8.73527
197.01
39.2465
-276.711
-385.456
-449.916
-690.701
-764.59
-385.73
68.6096
210.027
261.336
455.221
632.214
554.938
406.575
268.003
203.958
143.826
109.256
49.5785
-69.3607
-126.859
5.43515
14.7158
51.3311
305.478
495.253
314.519
28.9345
-141.529
-237.518
-269.565
-263.048
-288.625
-241.612
-197.508
-196.818
-266.884
-370.9
-441.972
-379.693
-143.886
133.374
320.144
393.096
398.636
298.239
241.693
163.025
96.9355
-14.5979
-239.875
-226.835
-83.4322
-24.7085
-44.4409
-37.0251
113.4
261.469
314.952
221.935
143.792
114.891
14.7754
-125.379
-299.054
-414.197
-500.212
-292.784
25.3142
274.733
391.372
347.205
324.044
145.379
-77.2432
-151.577
-169.745
-99.3195
-21.9436
-23.1955
-84.8458
-169.979
-237.062
-320.105
-189.385
210.284
458.749
295.15
25.1926
-110.193
-12.7326
-28.3053
-116.276
-199.344
-212.525
9.69624
240.117
227.929
165.892
186.693
75.2917
-168.405
-218.27
7.76784
158.252
115.351
86.5275
136.533
123.462
5.02284
-163.437
-338.838
-503.528
-360.894
-57.0388
68.0978
24.6091
30.1908
21.7961
31.0304
163.4
451.601
563.069
431.674
182.991
-139.054
-491.429
-637.332
-316.523
39.4353
105.578
84.8851
128.725
163.619
95.9723
26.3156
135.629
106.138
-103.145
-112.278
-65.2446
-112.386
-89.5223
27.2794
132.804
127.446
158.336
148.602
-73.5678
-321.667
-522.41
-569.374
-319.178
-111.518
76.6921
147.97
98.9137
201.252
243.475
196.664
238.41
171.595
98.3383
-9.55119
-115.564
-170.951
-67.6157
111.108
228.412
328.244
491.371
532.566
315.21
162.002
46.4821
-196.578
-477.764
-620.059
-670.455
-657.929
-528.76
-258.54
15.2841
145.828
224.484
277.947
265.456
293.75
266.892
58.4887
-14.0674
11.7349
-21.1836
-90.991
-115.745
11.9789
78.0124
-14.4187
35.1904
-19.0841
-116.045
-39.2497
62.2566
33.8186
25.7354
29.1103
-19.8645
-146.875
-184.275
-36.3662
86.5346
149.442
117.619
62.2707
22.9006
42.2138
139.007
188.645
58.4344
-68.0706
-121.742
-64.7927
89.4663
168.048
135.767
34.3429
-170.187
-409.755
-415.209
-142.739
115.192
204.348
106.234
21.0672
-1.26377
-8.88314
-41.2223
-61.4803
66.8624
207.141
189.694
74.8213
-90.2833
-152.17
-110.15
-128.11
-51.6489
-19.542
-172.161
-92.9888
-180.136
-210.722
-5.33081
55.8427
49.8671
197.163
368.259
409.433
253.786
200.812
146.625
-47.7039
-217.789
-275.504
-212.787
-79.6254
-7.79291
111.705
221.724
79.0348
-20.5362
-3.59569
31.632
-67.3764
-202.685
-298.26
-335.265
-164.866
-3.48445
33.5117
63.7909
58.1478
62.2733
140.982
152.473
147.604
178.349
204.065
135.672
-42.1596
-135.439
-131.387
-188.38
-90.8287
105.752
84.797
-37.9669
-72.785
67.103
87.7695
10.614
14.9891
21.6758
-61.4395
-241.126
-306.938
-171.832
5.23811
38.5303
42.5529
89.636
62.4072
73.6746
213.082
229.033
73.4203
-13.4139
-106.073
-154.334
-61.8474
81.4579
119.924
0.293943
-163.176
-323.698
-269.348
-14.9546
186.446
321.489
278.996
234.666
126.268
-28.9295
-79.787
-11.8622
128.218
183.687
82.757
-90.9244
-232.393
-231.791
-166.055
-33.0354
198.466
357.418
75.2893
-211.092
-273.574
-323.903
-397.139
-349.513
-76.0263
107.151
121.92
78.5996
37.5029
-11.6335
-41.2676
0.234764
108.136
197.456
193.232
123.237
26.1256
71.2515
125.279
20.8708
-101.782
-122.695
-27.798
61.7865
82.9771
174.149
218.151
173.78
142.658
72.6069
-80.3823
-59.2394
-52.4656
-150.393
-323.227
-434.66
-482.386
-322.189
134.175
377.101
445.163
358.049
214.264
62.7646
-148.714
-183.417
-194.872
-296.332
-258.67
-4.43263
169.274
152.382
117.968
109.128
125.996
106.436
210.559
151.828
8.8648
-54.2751
-131.215
-140.757
-191.271
-228.57
-130.505
-120.422
-136.597
-27.5314
23.0459
20.992
28.2381
22.5316
-20.6789
-105.191
8.07999
174.347
141.512
129.928
76.8843
68.4804
128.203
172.966
114.498
58.4569
81.9402
84.0925
2.31562
-41.6232
-88.6577
-211.115
-250.543
-353.502
-355.463
-112.296
52.2719
187.528
401.222
510.943
381.932
133.817
-107.623
-146.182
-38.3999
-45.0187
-98.9097
-183.722
-331.516
-330.62
-241.946
-256.572
-206.811
116.61
400.546
302.795
82.2579
-1.70829
-16.2036
-44.4571
-58.3347
-68.4273
-39.4691
-59.9939
-88.4822
-32.8574
0.0509251
125.538
379.13
415.099
335.629
341.322
276.075
48.9651
-109.468
-70.0667
-100.795
-206.393
-352.486
-516.338
-519.342
-310.422
-167.488
-78.9624
123.174
372.993
441.081
347.04
135.165
-55.6264
-142.465
-204.952
-146.066
-56.9972
-7.55676
-9.43141
79.754
170.363
196.109
180.308
131.342
-13.7875
-83.3328
-117.316
-191.629
-234.402
-250.714
-259.208
-10.649
185.668
207.126
196.714
206.732
121.177
-34.2145
-76.7113
-54.6646
24.0428
59.3548
15.6702
-26.6252
-34.1616
-34.9994
-53.9281
-5.7614
50.5959
47.1954
12.7739
16.8333
112.931
152.159
88.3749
-10.7614
-47.4161
-155.949
-236.702
-208.822
-229.463
-251.34
-172.388
-60.4896
32.1674
84.3974
194.373
227.796
160.945
151.284
175.143
92.7609
46.9068
102.872
115.176
23.8469
85.0767
149.098
26.493
-85.158
-54.1186
-10.8799
-135.624
-239.557
-210.424
-135.465
-28.8535
13.9218
-50.6598
-61.4286
22.7765
44.7711
-99.5729
-260.534
-200.512
-92.3164
-176.386
-118.356
126.865
252.295
187.372
82.8665
128.925
328.687
403.431
319.967
150.754
36.3715
-43.2029
-266.058
-434.568
-304.015
-69.1595
-10.0553
-14.3728
-32.622
35.2839
44.3279
-20.8575
75.4419
236.725
241.442
147.705
30.4749
-102.023
-132.1
-95.3258
-70.4571
-112.578
-38.2956
98.4192
85.1893
55.404
103.999
96.1709
80.3944
-22.2719
-98.1184
-92.0948
-148.999
-232.579
-73.8809
82.3666
-3.73982
-82.5183
-175.21
-201.209
-176.851
-187.263
-170.817
-126.544
-50.9148
123.608
283.323
353.705
356.162
245.396
177.045
156.97
119.961
21.4421
-121.981
-132.025
-24.8223
-16.0416
51.4907
76.5607
62.7784
128.485
191.763
65.4256
-27.6058
-76.5885
-117.558
-188.501
-321.922
-238.881
-184.091
-149.252
-69.8121
-49.8056
-78.117
-29.7586
49.2256
128.046
125.155
59.1489
47.2688
137.257
205.937
235.643
125.329
-99.3459
-342.029
-416.194
-312.809
-76.935
112.504
181.064
143.36
116.465
105.149
112.439
155.356
101.375
22.1957
20.784
19.5708
16.6675
28.8786
133.206
158.73
154.662
189.827
109.677
-41.2664
-218.696
-228.376
-194.625
-193.329
-191.241
-146.597
-122.679
-132.655
-79.3459
-13.4112
-0.8794
-11.4048
-40.3493
-46.4712
-68.9493
-48.5495
-29.458
0.492242
68.0721
162.039
191.628
167.895
126.161
70.1184
61.4627
84.4205
77.2872
32.726
12.1983
5.46208
8.94167
11.4056
-19.8855
-55.3712
-67.4578
-59.5331
-67.7913
-67.0524
-41.0927
32.1562
70.7646
35.9225
-5.9769
-10.7742
-2.79648
-2.37779
-18.4968
-27.3844
-14.4093
0.125464
-12.1953
-31.7567
-39.9715
-51.2069
-31.4695
-5.1101
-11.8051
-8.07772
8.22039
22.9031
28.1355
5.37833
-8.42687
27.9899
42.325
39.9338
41.7581
31.2403
16.9713
-3.15047
-8.78039
31.5136
45.6423
30.3841
3.51197
-52.3863
-98.4464
-123.688
-81.8711
49.1565
75.0617
56.505
27.0178
-13.8294
-41.6091
-52.0709
-57.242
-64.5703
-32.2683
10.8785
31.6229
8.2667
16.6574
18.7053
5.75294
7.36157
26.7651
52.5773
82.2866
28.8354
18.6495
32.8416
50.6239
35.7253
10.231
-8.66269
-6.51717
-0.372061
-7.58921
-15.9733
-27.8674
-42.8686
-65.264
-42.557
13.9299
38.5743
32.745
14.8192
-30.6259
-85.6203
-109.367
-78.8908
-46.9905
-37.697
2.10935
45.9774
61.8033
63.2957
44.9431
17.5131
19.9612
17.5409
14.3653
8.34147
-7.41174
-0.827728
14.5134
21.5408
6.08789
10.8575
29.4902
10.1972
-7.95434
-5.41324
-12.112
-22.0359
-32.5168
-13.9012
-4.73709
8.19521
2.3449
-8.31821
-2.67704
-6.91832
-25.5676
-4.26034
4.81487
10.0498
13.1489
8.82344
10.3723
-6.3803
-27.6695
9.17376
18.6693
12.4748
8.36471
-6.41143
-10.9861
-7.57742
-16.1419
-19.7512
-0.883977
14.6456
15.4471
3.01996
5.40922
6.05026
8.70503
3.4846
-0.967642
5.16751
10.5663
17.4785
10.1054
9.07827
11.4091
-0.633911
-11.7372
-10.0424
-15.4035
6.78453
-1.51857
-16.565
-20.3576
-25.2515
-23.8445
-24.6599
-23.4158
1.37916
8.48859
12.3247
13.6785
-3.91626
-1.9344
-4.94406
5.31407
11.5108
12.9213
13.4289
15.6644
-0.787053
-8.21622
-24.5876
-9.74438
21.7838
20.6549
22.1868
30.112
14.6064
9.63736
-7.69753
9.47463
2.71489
-3.29603
-4.3677
-4.54303
-0.856609
4.30998
-11.9808
-45.5467
-31.0202
-2.29234
13.6849
4.54421
-16.6961
-17.577
-14.4845
-3.90715
-4.46091
2.36784
32.4581
15.5014
-1.61976
-1.42101
3.78785
4.63463
-1.58728
-11.2838
11.6937
30.3948
8.90698
1.10854
2.88949
1.91234
-11.4859
-22.4372
-18.6529
-1.88398
8.61278
11.7531
7.2519
6.04303
2.96221
-13.4458
-24.5276
-3.41715
1.10058
-4.89677
-18.2745
-8.61822
-6.17174
-20.0152
-20.7647
15.2216
23.5418
34.8075
32.3836
20.7537
14.9886
-0.510193
-13.356
-6.38935
2.75881
8.66588
15.2189
6.9525
3.94709
16.8061
30.2506
20.8914
11.3838
-1.88302
-31.5773
-61.99
-66.8399
-55.4729
-37.6442
-39.9535
-12.6914
22.9292
45.437
41.9883
28.5339
27.0244
21.1181
4.3293
14.7728
32.7509
16.7685
7.56671
-9.71134
-19.0085
-6.79798
-2.25353
1.76576
-5.48918
-22.2373
-9.82882
7.37718
3.74502
-3.80175
-32.2431
-45.6176
-29.7866
-31.9673
-29.3704
-51.1864
-71.0248
-55.7358
-39.4163
8.10859
56.4299
74.2405
77.5464
81.1188
73.4832
61.5996
28.3963
-29.3644
-6.55374
27.6935
36.1301
40.3876
34.6714
36.1745
17.495
5.8652
8.43796
23.3261
16.5304
-19.2945
-59.1624
-66.2577
-52.3358
-48.6694
-43.603
-18.8742
-17.6102
-10.727
-39.6445
-86.1578
-65.6228
-30.5147
-9.60048
18.7011
41.9484
67.4793
60.6306
30.5968
17.013
-0.378048
10.1929
26.3925
10.0073
12.0426
13.8523
3.01452
7.23104
8.04464
-10.7066
2.80885
5.05099
-30.6354
-46.665
-49.8602
-49.6014
-42.5308
-28.5041
-37.3283
-30.1788
24.2659
59.3691
68.4109
50.9148
36.917
36.4854
30.145
24.1033
37.1896
40.6118
24.7382
14.6788
16.2363
4.76536
-16.4624
-19.1833
-11.8423
-35.0234
-25.4815
-3.63923
-10.1551
-47.3875
-81.993
-91.6193
-58.7638
-53.0237
-66.7892
-53.6166
-48.8221
-13.3708
52.8474
56.8384
40.1427
61.2143
78.8503
64.0263
47.7048
48.2433
24.5359
22.732
8.51523
8.8905
45.7882
70.7819
39.0944
25.9177
29.6203
19.4298
8.44188
2.23382
-31.6463
-40.9617
-34.0234
-41.9149
-51.6639
-53.596
-73.5419
-79.2093
-52.3641
-27.9893
-27.7526
-18.015
-16.2121
-11.4149
0.988412
12.8838
19.6221
62.4339
69.004
32.5734
6.31312
-2.56796
-8.25561
-26.0566
-30.1478
-10.6874
7.85986
31.9628
32.73
3.81306
1.84574
3.26552
-7.84079
5.32989
10.1428
9.83904
39.5332
12.7332
-23.9815
-26.432
-26.9169
54.9446
133.744
148.038
113.853
17.3942
-63.4136
-114.561
-159.963
-178.739
-186.16
-120.326
-34.0598
17.5758
60.1025
51.9823
-8.32507
-42.9721
-3.09768
62.0792
49.1053
25.5289
40.4272
56.1614
65.4168
86.4687
145.196
245.258
249.258
139.367
14.5305
-60.7457
-128.475
-209.98
-209.304
-145.199
-101.506
-47.3461
-33.394
-12.5817
15.6435
-81.224
-212.082
-259.103
-165.78
-30.5121
2.44388
-31.0139
-9.44375
118.237
228.907
251.299
216.702
210.086
198.034
178.189
158.486
79.7837
-15.4701
-89.0655
-104.092
-96.6528
-31.0321
43.7966
110.336
114.433
51.6387
-24.0903
-118.661
-249.503
-295.825
-324.834
-282.398
-179.603
-116.468
-56.2786
36.598
128.403
172.29
136.423
97.9122
76.685
31.999
15.2583
-20.9285
-39.6631
-17.317
-2.94346
27.5044
65.0987
70.4744
76.5088
102.503
104.284
115.097
82.9052
38.8228
32.3722
17.4476
-32.7431
-66.4806
-60.6943
-41.7226
-41.1213
-56.6811
-71.878
-22.5416
13.702
43.6461
24.6275
-29.3406
-104.632
-127.336
-95.4017
-53.5559
18.0926
21.8054
-40.3639
-43.2115
71.6702
143.802
189.996
163.049
66.495
-42.4032
-74.9109
-85.0429
-68.4402
20.0637
130.997
191.51
218.537
246.334
124.293
-133.818
-359.582
-447.49
-363.678
-247.906
-232.699
-189.322
-124.64
-40.0852
-22.5243
68.5723
198.135
269.9
239.071
166.506
101.557
68.8852
65.1156
29.0389
74.8028
222.183
302.779
280.525
137.126
38.8409
-9.42836
-98.6244
-175.794
-169.044
-102.731
-86.2633
-118.401
-157.373
-161.483
-136.884
-93.6852
-33.5489
-20.2976
13.3672
45.4059
-1.02981
-33.84
-68.9924
-150.905
-156.925
-46.797
56.9101
145.609
181.128
149.219
82.3868
-29.2972
-88.3319
-11.4323
29.7485
29.766
37.3713
-1.21498
-91.6175
-102.149
-62.678
-9.58664
95.2738
214.378
253.053
201.886
155.247
106.569
61.7019
71.0988
52.1566
39.0895
-6.83678
-88.5724
-120.27
-120.279
-159.066
-93.8376
-100.16
-196.408
-221.765
-216.95
-204.353
-109.585
-30.982
10.5039
42.1403
57.1564
70.7329
79.8769
76.2433
42.8458
48.0283
24.6216
-51.3216
-44.0816
73.4387
151.377
210.098
187.912
161.553
173.487
173.452
153.101
100.874
24.4842
-63.9387
-165.448
-312.478
-373.073
-302.542
-149.198
-14.4046
47.5581
86.2782
58.3846
32.4493
19.9145
44.7667
132.608
148.835
66.1136
-28.9389
-120.36
-159.432
-140.314
-124.887
-48.8957
66.4563
86.9358
52.2219
-0.984439
-0.961568
75.4333
140.189
178.105
155.066
121.672
24.3223
-133.581
-197.741
-132.806
27.1503
107.705
46.8722
-34.5874
-117.14
-215.549
-176.174
-33.8072
72.2286
150.171
73.6007
-23.9985
-103.864
-148.784
-130.307
-55.6146
34.5718
91.0427
187.13
216.503
100.843
-0.376833
-41.5036
-64.9779
14.2724
92.3133
72.4391
39.3997
-17.0399
-48.7205
-0.410124
44.1376
44.5297
8.47329
-58.755
-129.883
-131.207
-20.4643
10.3509
-18.1232
57.0918
59.8525
34.9286
1.00382
-15.5928
31.8874
67.2844
63.192
52.007
32.9505
-42.8251
-130.176
-111.882
20.4566
71.5647
62.223
16.6729
-109.121
-205.315
-269.137
-287.069
-157.243
11.3976
82.1717
143.525
155.653
146.416
159.37
137.045
117.77
177.524
138.524
73.3197
7.85012
-9.91537
-106.784
-224.24
-185.524
-82.187
15.0564
46.5131
65.294
112.266
189.549
147.397
45.7227
-60.4366
-204.278
-276.154
-227.32
-135.238
41.4132
160.987
127.713
26.4643
31.4378
80.429
193.243
107.111
-14.8862
-124.586
-236.281
-314.275
-279.026
-158.315
-6.28627
134.588
208.644
213.387
91.8484
-43.7998
-85.0725
-51.052
4.6358
58.3497
111.158
199.247
144.561
102.351
89.7594
84.5224
55.8254
10.9358
-23.5488
-58.0542
-118.805
-64.3949
62.6622
70.9254
32.1395
-61.411
-98.8339
-102.551
-146.659
-207.304
-253.89
-190.537
-59.5089
57.6325
140.804
218.049
148.576
10.0158
-106.204
-178.006
-107.989
-21.949
-36.2974
-10.6682
67.3212
146.454
116.797
69.7343
77.3253
71.357
60.3212
64.1101
-79.6503
-142.114
-74.2683
-55.4249
42.016
165.023
223.38
242.951
178.653
24.145
-5.73328
-12.2958
-62.7935
3.56546
69.6209
23.3728
-107.604
-207.911
-180.564
-220.535
-182.811
-144.877
-98.1506
-4.3217
72.7183
78.6295
60.8238
24.7412
32.5528
53.4201
31.523
1.93386
30.3328
-63.7814
-81.9377
-59.8379
69.0686
238.424
191.949
74.0984
-54.3421
-128.353
-176.81
-149.089
-80.9188
-65.2231
-30.864
109.691
177.514
143.159
65.5125
26.2601
-32.5236
-137.066
-266.733
-218.159
-145.774
-58.8987
61.6376
124.311
227.16
351.984
417.982
330.264
183.598
63.7871
-43.0529
-176.335
-298.281
-308.272
-231.866
-135.275
-35.9795
55.0927
129.626
128.624
99.14
81.0013
116.398
112.973
-15.2614
-149.33
-237.081
-259.785
-198.984
-57.8472
70.4799
122.95
105.184
-5.52717
-30.6671
18.5352
-1.06769
18.0369
15.8814
123.614
151.367
-17.5718
-269.981
-386.767
-256.48
-156.031
-84.1271
5.4776
78.1179
128.335
155.915
169.202
220.152
213.955
153.88
126.68
158.764
186.066
156.92
9.63991
-77.6793
-128.29
-150.572
-131.251
-47.9029
55.023
74.0423
50.6576
61.0274
71.1603
-24.0971
-131.443
-159.344
-97.309
-88.1092
-162.244
-171.659
-95.9818
-100.565
-140.946
-108.95
47.1506
204.152
257.422
172.716
113.636
129.914
132.155
24.1082
-68.5049
-109.536
-154.515
-167.907
-95.2234
49.7601
72.6059
-53.0975
-124.76
-69.8808
-55.0549
-35.3139
23.7361
107.75
221.184
244.984
132.193
-17.3816
-154.991
-153.943
-123.038
-100.866
-36.7863
37.7608
62.2291
29.468
112.389
169.973
76.7683
-3.02567
14.37
90.2656
131.697
67.9515
-56.0411
-140.266
-127.28
-146.61
-126.342
-69.3446
2.60039
146.089
230.659
187.907
124.214
31.3681
-98.4383
-219.655
-183.936
-80.5629
-37.6756
-49.7317
-83.3045
-45.9174
22.9336
96.8507
161.379
102.455
-7.25754
-54.9136
-40.74
4.16213
6.19161
1.46938
-66.2668
-83.0205
-55.927
-17.1799
-30.0347
-9.98743
-27.0431
1.1815
44.0202
-5.89748
-24.4483
-86.6725
-189.418
-103.514
50.7075
171.247
243.523
187.576
131.636
46.3762
-36.269
-117.384
-100.803
43.4536
144.923
84.6244
42.1068
-31.1986
-90.0097
-48.2966
-29.2804
16.0534
88.0977
124.411
118.785
27.2914
-47.5017
-45.9354
-44.9298
-19.7629
2.67943
-42.8329
-103.635
-152.946
-125.868
-11.9386
41.7133
23.7648
46.4071
40.3818
27.5208
-9.75949
-26.6457
-31.1716
-17.1787
-16.1121
-51.3403
-83.578
-57.9986
-29.2475
-34.1024
-31.1978
-17.9633
-11.3792
2.93246
-21.5342
-1.27438
40.4229
47.9989
51.0173
74.2939
112.435
135.243
133.933
109.013
64.0758
83.8651
62.1673
-7.76638
-129.261
-194.152
-210.929
-183.962
-63.5614
76.9587
103.146
81.8236
71.2217
-0.686493
-3.59376
29.8287
58.9173
74.5599
50.1598
-64.3649
-209.19
-298.868
-217.124
-67.6808
70.9092
220.17
313.304
301.969
190.718
38.6475
-29.56
-59.7217
-101.63
-66.5485
-31.0952
-26.165
-25.5341
-42.4701
-46.1838
0.981601
56.8377
11.4965
-29.2473
-46.3295
-61.8575
-97.0138
-80.2743
-62.0552
-60.6085
-95.1413
-99.1143
-69.2396
-37.4834
-27.9037
1.96581
17.6883
6.09617
-8.73052
-3.0772
24.455
92.7662
119.877
130.255
124.779
166.199
249.626
257.348
180.05
38.6385
-116.816
-212.463
-132.731
-87.3688
-81.9425
-111.899
-112.907
-72.4653
-40.6414
17.2809
98.6245
118.643
95.5771
46.881
-26.9009
-55.4978
-86.9498
-133.988
-54.3323
66.7307
92.9224
63.3205
37.8707
86.5718
88.4929
55.7842
45.4582
-20.9566
-156.513
-234.611
-259.545
-180.085
-54.1334
-32.6507
4.15467
5.8594
4.76971
52.7747
57.6906
71.795
153.63
189.441
131.331
35.3595
-12.3266
1.30984
5.86746
48.0276
158.548
204.896
133.435
79.6015
-40.1839
-157.288
-186.846
-197.537
-129.201
-180.626
-274.463
-298.495
-238.371
-107.337
23.2239
107.255
108.198
139.945
162.618
110.005
14.9803
-15.5367
71.906
115.365
160.371
205.676
204.253
195.364
140.285
122.573
131.052
98.5164
16.4596
-35.4303
-143.51
-201.671
-136.185
-79.2638
-114.701
-165.589
-219.229
-245.222
-245.94
-180.348
-99.1669
-27.9216
-13.6799
-21.4012
-28.7137
38.0892
139.601
240.799
280.741
228.804
146.6
91.4864
44.8103
-10.9483
-80.7244
-83.9134
-33.0364
-52.0311
-89.8574
-131.384
-109.595
-68.0463
-63.376
-28.9384
28.5376
112.435
136.115
99.3232
46.7644
43.0362
79.8915
64.0604
-28.0239
-87.335
-66.5284
8.46769
118.793
155.685
157.909
127.242
61.3969
-8.25587
-22.525
-16.4087
-18.6355
-2.09385
-74.9057
-156.702
-186.968
-252.367
-317.93
-265.816
-75.0788
50.7262
77.9539
75.9087
80.3324
150.43
189.434
155.701
108.718
53.3258
-42.2192
-154.104
-235.088
-218.189
-29.9597
144.206
250.51
221.389
99.7253
-24.486
-129.353
-216.131
-202.77
-109.533
-6.23929
74.7016
112.465
99.6579
50.1264
53.296
60.8473
36.9762
1.62513
-10.5265
14.8865
-8.18728
-41.5591
48.0159
182.384
230.43
202.036
142.998
71.4222
-30.3473
-122.388
-189.386
-213.95
-196.68
-101.495
-3.85287
106.284
131.065
53.7507
-97.9092
-209.712
-96.2052
29.4159
43.042
-3.66267
-86.7791
-156.351
-180.967
-173.266
-128.973
-68.2163
-31.9684
5.21674
111.343
182.806
149.739
129.936
104.771
85.9848
105.559
102.162
28.2338
-44.9253
-91.3302
-46.0138
36.721
22.2115
53.1118
137.173
117.136
81.8632
103.116
92.6449
-22.5819
-160.4
-150.913
-125.373
-36.8612
53.049
86.22
33.7728
-59.7502
-136.022
-103.601
-25.4046
23.8001
69.9335
79.453
99.137
78.4819
-5.29587
-57.4378
-62.1322
-26.4913
-46.2022
-126.588
-158.919
-124.106
-93.8658
-124.789
-95.2982
3.81134
77.1911
46.0814
-46.9445
-57.8685
-3.61345
95.9144
109.527
148.569
136.653
39.2448
-7.88501
-52.6208
-22.9849
37.4984
69.6553
103.323
139.987
170.272
170.856
21.1042
-44.2363
9.57649
17.3257
-20.4215
-44.6135
-97.3717
-71.4606
-70.3803
-65.9573
-28.2272
-43.2655
-25.3495
5.29478
4.7746
1.3363
-9.66858
-42.9999
-61.083
-105.783
-87.8109
-17.0771
31.4666
39.9484
-1.06365
-38.8875
-70.1504
-88.6488
-0.294532
112.982
175.334
116.892
64.8501
-0.596666
-105.135
-180.081
-166.208
-90.1214
-9.10888
-33.2206
-31.3499
20.1307
62.4017
136.491
185.434
233.606
223.323
123.925
-23.9634
-119.694
-178.729
-129.906
-10.5423
42.217
108.95
214.066
302.679
214.388
79.4126
4.7126
-68.2541
-254.666
-392.277
-435.251
-371.547
-240.994
-105.411
34.3647
125.006
161.113
174.016
167.896
92.8527
77.2425
102.445
21.0282
-95.3666
-51.4377
25.0824
68.5036
-51.2921
-128.067
-63.3038
7.36122
72.667
107.769
119.741
121.119
93.9089
75.4215
18.2298
-45.967
-111.414
-131.197
-106.132
-47.9118
-46.8125
-93.18
-112.682
-94.8479
22.7677
155.327
199.399
161.463
105.917
-15.0801
-65.0726
-59.3067
-21.2851
7.34408
61.2299
61.0084
84.5325
90.4887
-3.91315
-113.665
-197.41
-188.515
-125.171
-121.533
5.63773
91.2382
99.0866
89.8887
40.7034
45.234
24.4849
-24.2329
-4.25623
-39.344
-96.2922
-124.17
-153.447
-145.236
-66.2089
70.5539
200.977
224.556
129.013
137.985
112.854
64.8146
51.2412
74.745
94.4805
-9.73908
-124.819
-188.497
-173.414
-81.0714
10.9513
96.8075
79.2501
50.3404
13.5304
-32.1822
-95.4971
-104.652
-51.0881
-2.02744
-26.7883
12.0808
-34.8941
-75.3277
-61.6399
62.8859
145.987
89.8359
22.9576
81.8674
50.2944
-30.2539
-119.404
-137.559
-131.482
-148.494
-126.192
-95.7906
-51.8261
-1.61297
30.4388
53.4581
145.694
186.762
179.311
162.407
185.534
247.768
175.645
-9.21105
-147.531
-140.805
-58.3217
-85.456
-122.969
-77.6643
17.9764
44.5329
72.7147
81.4959
92.2554
35.7265
-43.8327
-44.6856
-58.2994
-151.138
-226.137
-277.833
-197.419
-104.136
-29.06
-18.3804
-22.1025
63.3819
173.385
188.896
159.678
140.609
58.3037
25.2036
21.8847
28.6355
107.496
98.6644
75.9536
69.105
9.6058
-49.7036
-108.258
-108.912
-25.4087
-24.953
-29.1595
-28.7471
9.91969
32.2352
-58.4974
-134.306
-146.173
-173.866
-167.152
-91.4584
-76.3617
-44.3966
26.1672
101.909
135.947
169.558
176.85
115.991
79.7413
161.963
263.451
245.799
179.45
74.8079
-51.4848
-132.936
-191.075
-184.863
-131.004
-152.513
-123.877
-79.9298
-102.239
-112.543
-45.4845
-12.2823
-17.3405
-9.69315
54.3374
69.979
112.374
140.506
89.326
-3.19381
-48.0394
-75.0969
-40.6788
-34.0872
-72.2281
-37.5105
-2.58777
25.5069
56.9803
56.5215
58.9258
55.2977
35.1982
1.83676
-57.0475
-78.9578
-137.016
-164.455
-168.222
-44.9738
113.307
240.223
236.953
197.64
141.737
85.2267
6.5307
-78.9571
-108.444
-123.363
-152.03
-145.196
-74.7474
22.8918
103.832
132.694
159.919
171.544
102.769
27.8201
-11.0987
-18.0757
-1.892
-3.45751
-64.372
-89.7338
-105.687
-101.492
-75.3349
-75.7036
-44.2024
50.0808
77.7246
19.3806
-51.1347
-60.478
-94.9682
-153.831
-214.85
-269.815
-141.689
-15.6419
52.7774
153.728
215.371
178.733
116.253
134.516
137.561
92.556
-8.39217
-60.9286
-64.3089
-59.4485
-70.0279
-33.1876
30.8857
73.8647
139.602
220.149
204.059
135.068
104.027
24.7453
-7.99919
-4.81902
-9.37532
-5.34253
37.9489
82.5493
-8.26977
-101.621
-139.11
-213.967
-303.571
-341.262
-314.017
-224.649
-77.0839
21.7274
49.435
87.6568
90.9938
68.9116
59.663
35.7258
20.6873
13.4807
17.8514
47.7579
168.536
85.5909
-60.5077
21.5733
90.3917
32.7998
12.8598
48.6003
43.7299
-6.95644
-17.9365
-4.06512
4.31307
-10.2737
-10.5517
54.3103
134.311
143.9
71.2331
-2.59657
-40.0971
-28.923
-52.1512
-85.9913
-28.7658
66.7449
89.5548
63.1821
31.049
24.28
-42.429
-99.1203
-34.9111
-6.10418
-52.7115
-137.426
-246.923
-318.333
-327.78
-223.855
-67.5137
92.905
212.246
215.512
139.17
71.0178
102.928
130.278
98.9221
86.0719
112.619
82.7947
3.52188
-92.3511
-106.848
-23.8138
10.5308
33.8484
52.9397
-26.3074
-90.7504
-80.9571
-28.207
31.3079
29.3373
21.4538
9.17655
-6.11277
14.3518
36.8151
27.8732
4.87222
-42.4142
14.955
45.1838
20.745
64.0411
108.254
61.9211
40.7612
11.004
-2.56087
-12.9213
-54.9555
-45.8899
-16.3353
-38.7874
-47.0359
-81.8587
-55.7936
-96.6123
-181.923
-166.733
-93.9254
-38.6431
-1.23423
62.1692
56.2044
61.3492
51.2561
-27.3017
-87.2633
-68.0605
1.8458
90.7661
182.175
151.494
51.0015
-49.1102
-165.775
-162.958
-68.5882
-14.6584
56.7366
157.966
176.17
126.929
94.5676
95.9863
125.52
150.362
202.519
243.072
151.717
5.04684
-147.02
-228.038
-274.92
-215.164
-84.3379
59.0006
82.526
36.0835
-38.2766
-146.898
-212.554
-225.904
-178.913
-97.2488
-56.2542
-20.5433
-14.6137
-36.5792
-19.5555
24.5432
139.563
287.188
294.088
229.027
52.1614
-121.569
-153.225
-140.968
-183.949
-128.798
-60.3257
-29.8008
-2.23929
17.0757
60.9007
124.63
128.296
69.7109
48.8942
84.4624
36.3923
-87.3834
-35.0487
85.8813
180.513
183.228
167.832
143.815
131.996
92.4099
60.0137
38.2283
-14.4656
-80.0976
-151.866
-181.788
-204.711
-172.998
-163
-189.87
-212.06
-223.11
-175.132
-119.399
-50.0841
8.4093
58.8494
93.3883
133.612
175.192
159.257
63.3699
-12.2645
-69.3425
-99.0697
-165.562
-165.738
-90.5619
-1.34127
93.8053
150.776
187.808
184.461
186.728
186.386
201.671
232.047
206.447
100.763
-22.5913
-92.2428
-90.4418
-71.9085
-48.959
36.6631
112.15
103.708
-11.2458
-77.7077
-101.916
-110.059
-110.684
-86.2368
-55.332
-139.501
-273.682
-265.739
-172.134
-142.584
-140.624
-53.6473
20.0045
42.0726
93.8134
121.73
111.031
48.6466
-3.45512
-12.4155
-26.7375
-54.5636
-21.046
59.1184
129.279
183.558
154.881
37.4658
-22.3893
32.8052
104.624
54.0603
54.5572
107.312
116.292
47.1305
-14.7673
-30.4791
30.4355
117.577
197.398
172.202
159.127
11.7988
-227.816
-344.406
-341.696
-283.43
-177.512
-125.966
-89.9433
-50.9692
-6.1708
8.94284
-6.27256
15.909
87.012
157.955
268.856
246.207
83.3882
-111.869
-330.271
-390.896
-292.774
-156.087
62.2167
210.076
200.087
169.296
114.939
110.468
88.976
52.8118
-14.0411
-40.6156
-70.9346
-70.1413
-10.4473
69.3999
141.654
238.253
270.295
208.385
115.971
41.1269
24.2477
-20.7056
-86.8676
-101.678
-13.4229
-32.3684
-110.376
-205.259
-286.999
-311.153
-293.028
-237.296
-226.427
-178.575
-82.6463
-29.6339
91.1462
226.51
248.38
200.803
85.9675
-0.596251
-34.7525
6.31792
29.895
126.932
199.072
202.95
209.347
194.047
191.249
108.583
-42.0683
-151.001
-187.706
-128.739
-73.4947
-18.9441
21.0473
52.5283
43.8799
-0.512644
-4.13141
-74.4501
-132.125
-108.296
-88.9013
16.7147
127.127
61.2334
-40.151
-35.3376
-90.5321
-182.331
-152.469
-93.5756
-35.2881
27.5713
41.362
64.7577
40.5296
54.5397
95.2821
100.803
49.9488
2.76681
-96.0955
-247.531
-263.042
-60.5945
82.4327
161.069
202.324
239.164
206.079
155.42
1.06298
-215.129
-175.595
-70.5359
-8.67109
54.9407
1.89554
30.4654
57.507
2.23048
82.5098
209.684
173.75
107.366
48.9991
-15.8208
-75.4157
-129.187
-167.64
-177.69
-126.954
-32.3401
47.3233
63.3805
64.8364
1.1508
-8.99784
5.62845
32.3424
-54.1607
-158.847
-209.033
-192.725
-146.152
3.91877
127.954
234.985
210.375
116.803
32.0512
-95.6387
-230.835
-335.206
-216.901
42.643
148.907
80.3153
53.6191
117.608
121.366
53.0248
-15.9706
-29.3049
3.03255
-22.595
-27.6661
29.0501
85.7517
108.963
150.895
299.347
441.433
398.198
157.844
-131.206
-317.406
-309.69
-290.57
-332.474
-206.69
-22.1719
36.4965
16.3424
-55.1326
-75.7952
-36.9766
15.7078
43.2497
26.7576
36.5356
5.83718
-66.9691
-149.479
-111.872
36.2856
189.027
202.413
124.711
94.739
19.2779
-0.3378
49.3533
99.0393
106.201
18.1852
-128.052
-255.659
-280.052
-157.661
-61.419
-90.7979
-118.504
-23.7021
107.24
162.863
134.432
203.573
193.034
46.1558
-29.9956
-110.342
-152.411
-130.755
-94.5852
37.2373
114.949
137.901
165.179
77.2376
58.6644
115.424
122.145
102.851
-29.9833
-231.696
-289.402
-273.085
-170.363
-30.5889
105.872
229.996
311.782
232.761
90.4055
-16.761
-66.9823
-87.3256
-109.745
-105.372
-114.599
-74.3708
-42.4113
-2.17649
-37.3207
-38.5124
56.7406
104.432
29.2414
-22.9154
-70.1754
-89.4237
-83.981
-12.7427
81.6438
55.1183
-1.65656
-73.2742
-74.491
-87.6064
-137.923
-109.696
38.7902
87.4124
115.051
115.709
87.0438
38.5121
3.32773
-2.68476
48.7823
28.8814
36.8393
45.4672
-3.45162
16.1101
-2.50583
58.3013
112.954
137.825
77.9951
30.8096
-7.11849
-119.114
-187.724
-98.5284
-51.2212
-7.5151
83.2574
149.887
127.12
15.6536
-94.3218
-88.9164
44.0423
87.2424
63.7037
-7.67947
-168.653
-312.654
-280.384
-221.87
-132.076
79.4971
190.314
122.952
9.83949
-52.988
-59.7488
-39.4367
-30.3332
55.3445
96.6713
81.6875
33.0171
18.003
40.278
63.7902
118.088
183.664
235.57
172.655
43.7842
-70.9161
-103.394
-76.1047
-66.722
-67.1078
-27.1273
-46.0079
-26.7827
-33.9327
-11.5363
-49.2529
-112.863
-29.6914
35.1609
-37.3597
-130.319
-112.357
-77.7634
-31.0149
-23.525
5.14476
32.4681
64.5239
98.2463
84.6631
60.3338
58.5942
35.7194
40.8008
23.8971
28.3425
21.1931
-4.01568
9.32074
19.6198
-3.14881
75.0625
141.387
138.784
117.629
18.8913
-64.5715
-123.454
-88.1439
-14.8103
-19.7175
-63.4547
-100.619
-74.9473
-95.9262
-56.1931
-44.2577
-105.091
-170.431
-245.322
-135.128
-9.21493
16.079
54.7378
99.876
159.966
177.943
183.529
130.242
22.2298
-30.6217
-2.30501
80.7531
109.468
78.0292
53.4926
95.7081
-15.5099
-149.288
-96.0002
8.89905
-59.4211
-162.431
-186.845
-111.715
5.59207
95.5464
120.188
114.438
124.666
124.263
61.8465
-15.6997
-44.5859
-43.9452
-66.7237
-114.637
-30.9443
109.146
150.452
107.319
44.7084
36.9276
19.8307
-59.9996
-76.0047
-84.0926
-182.248
-298.532
-282.443
-198.001
-114.728
8.72483
106.619
195.564
165.627
75.3597
-15.4304
43.1602
137.764
180.004
190.634
116.741
-42.4574
-187.767
-196.489
-111.314
-45.56
14.2086
14.8366
9.54997
25.221
17.0763
9.91811
64.304
79.0893
64.3641
61.4333
49.7006
32.3903
-23.784
-10.7754
114.353
247.147
242.944
88.2824
-55.9769
-72.4794
-78.7427
-153.564
-159.153
-75.782
-137.289
-137.888
-153.255
-190.99
-165.374
-105.056
-82.2973
-36.8508
5.98594
1.4774
-8.5521
-22.7315
13.2929
13.9284
47.656
85.8773
153.802
252.647
268.543
238.38
279.474
181.755
44.1291
-21.5637
-68.1473
-131.611
-187.766
-264.484
-243.626
-122.942
-56.6543
-44.0815
-25.933
50.6545
126.773
98.1105
58.7219
63.1964
30.7784
-48.9099
-162.791
-170.072
-79.9269
48.9895
97.4344
118.816
158.328
198.798
113.247
-3.70856
-74.752
-101.327
-60.8519
-35.8615
-36.4281
5.01003
45.5675
36.8218
28.8634
9.33606
-60.9243
-151.135
-194.673
-137.455
-8.18275
78.6989
101.2
166.034
140.22
36.5837
-16.3672
5.35956
92.4021
108.789
65.3965
48.6219
-89.598
-203.162
-161.922
-103.089
-23.2416
12.6761
-61.3465
-119.261
-169.846
-151.993
-62.0522
1.70605
68.874
72.7096
28.2382
61.4752
91.152
77.803
50.1784
79.9174
182.216
273.532
184.652
34.4582
-39.8276
-40.8492
16.829
1.80983
-18.5144
-8.57629
-40.5386
-116.259
-104.618
5.90445
44.4625
0.301104
-35.9336
-39.1881
-55.2152
-90.6544
-94.5057
-93.4848
-114.606
-94.2388
-47.4272
26.0408
119.128
150.856
149.214
178.934
114.321
-42.7177
-52.0581
-56.8854
-80.9325
-112.427
-128.868
-80.1271
-71.117
-63.0981
-67.7643
-65.8931
-69.5421
-3.89551
92.7147
83.4828
42.3977
55.3127
140.726
175.034
226.513
272.061
145.199
-18.8564
30.2061
16.673
-141.829
-251.339
-269.705
-243.714
-119.267
-4.58842
152.025
276.563
265.172
156.014
68.771
-16.3783
-94.1458
-142.873
-233.563
-217.403
-143.274
-63.3996
-33.0669
4.43023
90.9894
124.182
127.007
113.344
28.2453
-63.3886
-80.467
-126.96
-118.001
13.2523
108.286
121.825
96.4607
1.15207
-88.1798
-137.753
-136.924
-67.046
-43.802
21.8041
98.4953
141.244
176.481
194.969
183.192
125.894
25.9654
-14.1049
-65.8509
-110.439
-115.796
-141.289
-92.6945
-46.9573
-12.2024
62.076
83.158
5.54692
-60.3462
-37.1379
40.0745
23.1041
-24.7404
-89.9629
-74.603
-23.0903
-58.2526
-90.3877
-62.1086
1.20164
53.0009
102.586
53.8532
16.7019
18.1458
32.0782
79.3595
114.218
154.765
97.2316
26.0342
-58.3427
-217.683
-232.397
-182.288
-133.038
-36.4148
51.9084
66.1285
38.0012
-8.43196
-45.8317
0.0526579
82.4261
161.411
157.742
144.602
82.3868
-42.7347
-47.3033
-50.9745
-22.438
63.4096
75.3135
96.0898
82.1631
59.8174
60.2655
74.2213
43.0709
-49.5461
-67.8974
-89.3658
-123.44
-151.636
-171.504
-149.043
-52.9769
16.2515
32.9199
15.7412
23.5142
128.799
172.066
93.8661
-33.4707
-130.726
-220.484
-237.453
-176.787
-42.1911
6.38737
-29.6145
-122.322
-168.787
-74.3787
11.9085
51.1263
104.88
118.957
58.8133
-8.51196
-23.5166
16.7721
140.686
312.569
371.913
302.378
193.836
109.311
28.6108
25.1305
84.8676
95.205
91.038
33.643
-23.0883
-58.3954
-102.779
-125.807
-119.768
-105.032
-114.547
-146.537
-198.054
-230.285
-240.255
-207.581
-140.295
-80.6419
-46.864
-19.4873
15.4919
81.3312
108.591
79.3478
45.8376
121.675
103.986
10.6243
-65.0959
-63.1704
-71.7679
-47.6166
-33.4963
-13.265
22.4791
73.0122
105.474
113.515
84.5447
122.861
121.892
92.2682
35.718
-14.2882
73.0195
131.253
118.673
58.5228
8.88753
-61.2184
-81.6108
-53.413
-90.8115
-119.252
-86.1225
-82.1001
-115.904
-117.159
-37.7439
9.1241
57.4805
124.578
140.146
98.0081
-30.561
-210.013
-239.749
-119.401
46.2092
214.103
229.243
137.412
95.646
48.9016
-16.7886
-42.911
-4.23494
-6.70614
-61.9155
-120.72
-182.279
-197.122
-135.863
-104.113
-152.515
-108.477
-15.8275
38.6108
87.9762
86.5051
101.587
131.98
166.596
214.544
237.285
152.508
62.1377
53.803
51.7157
-25.1897
-108.832
-154.383
-196.804
-223.215
-148.206
2.24615
171.413
242.212
236.899
158.706
-20.155
-210.008
-432.878
-531.226
-365.388
-141.755
11.6461
119.761
157.94
197.069
205.536
223.627
250.343
245.758
239.827
188.82
63.5029
-27.5421
-130.176
-202.334
-201.772
-87.754
73.0952
130.956
141.421
113.33
47.8136
-62.9419
-168.96
-153.943
-125.26
-155.405
-147.405
-62.7658
-44.5428
-74.5116
-77.6206
-99.364
-103.322
-67.9031
52.803
132.02
205.612
231.84
126.03
93.9042
62.2996
-67.0825
-151.683
-178.656
-155.029
-78.9946
40.2455
130.854
304.327
282.93
139.768
-4.89242
-112.192
-169.163
-192.674
-169.672
-23.5198
86.2964
106.415
66.3634
-11.7281
-8.10022
-14.704
-61.8471
16.8615
72.2435
32.1094
24.4873
-83.6369
-148.317
-146.879
-65.9065
67.6879
171.992
226.055
222.642
139.265
32.6907
-24.3741
-13.1588
-39.8338
-69.6342
-38.9731
-34.4303
-2.66885
-3.18479
-44.1556
-101.18
-185.855
-209.531
-150.21
-70.6979
-43.2138
8.05746
61.5059
61.3663
21.2257
13.3634
-37.667
-73.6534
-29.5403
43.6267
110.242
174.177
151.904
144.333
125.47
70.6373
-17.6052
-32.7421
-37.305
-51.5102
39.2149
117.686
79.8729
11.8439
-73.987
-112.031
-59.6777
-19.5328
9.10758
-63.3538
-172.024
-236.168
-262.966
-191.469
-41.6412
61.0398
120.077
143.32
150.254
133.533
90.6444
47.9731
-6.81184
0.877511
44.8534
83.785
95.0157
91.1844
64.4966
75.8353
125.627
181.035
185.823
34.6267
-124.378
-191.566
-215.983
-240.026
-230.418
-174.422
-156.591
-119.032
-30.3863
11.2632
52.6261
86.9368
52.7152
-17.8182
0.0256885
57.8401
60.8137
8.83241
19.1377
61.2836
83.2374
171.36
225.55
216.66
77.8252
-76.8493
-103.063
-190.084
-259.34
-199.394
-134.74
-53.5084
11.3888
31.2321
35.2968
22.8165
40.1155
89.0537
47.667
54.5824
70.8208
-42.1059
-118.396
-88.4999
6.16606
142.955
197.694
180.515
161.5
81.3902
-14.8462
-66.1231
-92.1367
-119.592
-91.646
-76.1397
-40.8248
-9.80749
-16.2328
-12.0003
-41.6729
-33.7725
20.9492
37.1083
36.0521
13.4916
-64.5249
-125.847
-69.097
-0.336737
34.6419
55.3539
69.7932
128.398
88.4215
-0.738555
-29.7543
-24.8968
-5.02054
-54.7697
-105.693
-56.2043
37.9011
34.7085
13.2101
-54.2717
-134.527
-85.6114
-19.8506
11.7083
45.5504
43.5225
28.1971
-6.47366
7.98091
81.2602
120.807
98.5925
85.671
136.135
129.71
113.115
104.272
71.3633
-0.166404
-123.528
-189.774
-222.402
-278.783
-290.541
-164.136
-31.373
-18.9344
30.604
92.8128
138.665
115.176
115.624
88.7271
40.5952
85.5116
-2.13543
-148.816
-163.508
-57.7841
108.135
257.137
247.074
204.682
149.676
10.6361
-162.177
-242.779
-148.323
-50.0472
-53.1354
-89.7336
-125.25
-118.415
-122.755
-134.72
-100.685
-41.1071
38.9495
86.8495
140.169
134.962
149.844
180.175
162.789
114.187
87.622
109.124
26.2657
-116.445
-131.002
-62.5905
-29.4869
-57.0193
-86.1396
-95.9258
-87.4154
-47.789
12.0925
117.5
179.468
81.3798
-164.338
-78.6344
-48.0735
-27.2416
-49.0728
-57.5059
-101.637
-102.943
-37.908
8.14564
25.779
-1.04732
-49.7683
-118.229
-132.943
0.748328
152.61
164.168
162.235
118.599
98.9955
94.3444
69.883
62.6216
127.932
192.197
180.549
71.6074
14.7803
-23.1063
-21.8074
10.059
19.6583
9.84536
-31.6942
-127.943
-152.01
-128.19
-139.461
-167.67
-151.195
-104.111
-121.26
-149.685
-122.903
-111.255
-61.8811
19.3229
38.4738
17.6462
-51.0408
-4.38595
108.431
126.322
167.369
234.85
198.049
152.99
74.624
-35.5365
-43.8532
-77.4513
-80.334
-34.2468
-25.9588
-49.6791
-60.1337
-64.6236
-82.995
-32.7306
112.696
133.59
58.6528
102.114
86.1428
91.2127
73.9878
16.9114
-38.1516
-45.8812
-120.191
-202.287
-171.81
-66.9005
38.2902
86.1955
83.3265
42.1188
-47.6226
-88.5024
-91.8506
-60.9843
72.9393
110.665
120.318
26.5001
-43.1472
-51.1285
-32.6135
41.8388
132.987
167.969
107.186
63.7711
-46.0663
-113.074
-91.1427
-39.4013
52.7202
144.049
112.583
36.0402
-160.951
-285.902
-269.595
-199.733
-163.003
-62.5993
29.7676
44.1176
35.8012
65.1921
75.99
32.5964
26.057
65.7199
71.2982
65.6816
130.096
81.8516
35.2888
32.4865
62.766
57.0693
52.4937
-8.7471
-32.9366
-47.9636
-25.5132
5.83546
39.2894
-3.53048
-90.4655
-148.425
-97.4197
-53.0268
-25.9874
-11.1161
-14.0822
93.0539
146.043
82.5483
-4.59661
-44.0626
-115.084
-114.375
-62.5371
-28.3033
-10.8621
5.14228
-0.287437
53.1459
137.185
178.925
110.057
28.0638
27.8453
19.6666
-36.0723
-143.482
-190.117
-143.673
-34.5373
66.548
128.49
140.678
97.4003
1.92628
-61.9883
-84.9369
-63.0354
-32.5874
-20.9688
-52.6228
-78.7717
-80.0913
-60.7344
-0.412627
32.9793
89.5126
136.093
151.692
130.593
85.2775
33.2365
-4.91963
-46.2483
-41.9953
-49.9235
-34.1889
-28.8415
-61.6231
-39.7648
-22.6293
-25.8913
-21.928
-4.25116
28.8177
6.15642
-17.947
-51.1191
-105.722
-82.8705
-62.1275
-34.4294
16.2336
62.7567
91.8591
115.11
86.4818
46.5324
53.4511
42.5431
29.863
47.5
46.1753
-15.5213
-87.3905
-89.8794
-42.0976
-14.1662
55.1709
63.1386
38.1384
11.1352
-14.8796
3.84149
57.5166
28.4317
-0.460659
-43.0832
-108.288
-148.55
-156.257
-114.383
-46.8232
-27.0917
-23.6975
-13.0074
-22.2451
-2.89446
53.3503
119.83
149.817
114.204
91.015
78.4875
0.569871
-18.8847
-42.1426
-39.2212
35.9094
55.2879
24.3962
0.0778707
8.51698
24.1859
11.5386
28.7602
43.9856
31.8967
13.3462
-16.8257
-79.0223
-92.8741
-126.102
-122.673
-76.1272
-44.7861
20.5837
55.4224
46.1353
61.5919
37.3882
19.8306
-6.24402
-64.0474
-87.3728
-136.905
-116.266
17.0133
83.9027
46.3968
65.6131
102.221
105.736
73.941
18.4154
-8.77185
-6.36885
72.6915
169.333
101.904
35.3468
-38.4115
-162.04
-186.73
-220.944
-227.352
-128.827
-76.3907
-34.1842
32.6255
98.6203
96.5949
88.9126
106.852
104.127
60.1787
39.3147
-3.47144
-71.1118
-71.2028
-37.8694
42.9707
139.474
178.013
209.942
225.412
139.499
50.3749
-14.1057
-81.3485
-132.961
-126.218
-138.37
-160.718
-118.834
3.92239
89.3051
75.755
-68.9013
-145.238
-144.918
-178.959
-99.2132
42.3511
63.2928
26.7023
-46.7727
-106.155
-150.501
-179.681
-124.865
-32.4024
76.8272
114.356
95.6816
93.5455
73.7001
79.0527
133.214
210.758
261.526
267.135
145.39
29.2212
-0.523566
5.14844
1.80353
-36.2899
-62.5498
-26.9105
-57.7312
-111.125
-93.9558
-40.1825
11.798
-57.7078
-129.958
-158.538
-129.696
-82.9486
-3.62435
34.5811
41.2116
49.8516
76.923
69.9179
14.0167
5.70195
27.0883
9.52864
21.7157
11.9117
-19.4027
-40.9078
-76.2432
-70.586
-39.0044
-33.3773
-1.75163
13.4964
-0.235027
50.1622
91.6162
57.7252
3.14553
-15.2296
-5.73817
-10.8586
-47.2816
-46.2965
-27.3469
-34.0196
-39.7696
8.98893
120.408
214.202
188.223
124.964
39.6962
-74.1441
-155.35
-176.767
-154.037
-56.4085
59.2891
120.496
112.83
77.5963
112.803
139.33
97.4157
44.0862
-67.2608
-143.112
-254.977
-314.954
-304.694
-229.39
-130.525
-59.9193
23.4839
81.9108
109.267
63.2307
78.1095
101.39
108.767
119.225
105.077
127.015
153.539
175.318
217.971
182.515
122.405
47.4283
4.74702
-21.6827
-78.4602
-93.8437
-64.164
-95.3086
-93.6853
-90.4265
-165.898
-211.24
-163.579
-110.456
-122.254
-170.529
-162.541
-64.5618
8.06098
8.9747
75.0752
123.083
81.1421
35.5362
69.5744
174.593
169.671
115.912
46.8449
-8.01476
-22.9638
-42.8648
-62.0004
-53.5797
-30.9276
46.6072
151.365
168.452
105.052
-1.57722
-107.55
-160.77
-124.511
-75.688
-55.2157
-75.5907
-35.4363
95.9504
146.901
84.4674
15.9447
-1.01671
9.24657
23.0003
24.9137
56.9019
52.4635
-14.0345
-80.1141
-51.4312
-30.5146
-3.6783
42.4952
49.2264
45.0835
66.9082
18.2316
-45.2667
-81.794
-120.394
-104.83
-53.3897
35.4168
79.5251
65.1058
15.3088
-55.0853
-137.601
-129.629
-49.3789
24.6389
79.9471
80.396
28.2108
-46.9024
-123.085
-141.795
-117.247
-51.1604
70.9655
122.863
132.992
132.591
154.469
168.195
73.8535
-41.4463
-104.405
-91.8515
15.7573
78.4746
100.099
21.0832
-45.971
-41.0071
-32.2711
-13.2682
10.5512
-16.3462
-40.9942
-37.8521
-64.3051
-54.4331
-54.0117
-105.114
-104.714
-44.5541
15.4285
41.4015
11.157
78.5392
136.825
134.591
119.72
106.979
110.985
62.7792
13.1264
-10.2467
-33.6204
-58.7925
-44.1939
-74.1109
-80.7875
-48.2437
-26.4972
-25.467
8.31315
9.35291
-50.002
-128.335
-151.295
-69.373
-15.1688
-4.60903
2.54987
13.6826
-22.1226
-9.81536
54.4324
94.2673
87.7924
19.302
-69.8569
-88.0883
-40.7413
15.1534
53.7002
64.1469
79.3543
79.9325
22.8488
5.13212
71.8644
160.619
141.15
100.147
35.7452
-17.07
-80.2071
-113.209
-102.165
-106.735
-74.1627
19.9361
56.5768
3.94801
-74.7054
-110.485
-124.363
-116.816
-35.6567
111.023
113.374
25.203
0.551422
-72.3896
-98.7232
-62.8476
-22.214
56.132
101.333
106.266
102.92
22.514
-40.5889
46.8255
131.415
132.563
87.4902
17.6798
-44.1459
-116.187
-111.37
-74.5078
-49.1389
-24.521
7.18201
28.4519
41.1602
20.8627
22.8844
9.16872
-65.728
-58.6423
-36.9833
-46.6969
-39.5686
14.5784
50.0001
77.6656
61.0467
4.84828
-5.6992
81.6826
99.8167
48.5008
-31.711
-143.974
-154.387
-135.963
-123.694
-32.7957
18.5836
33.0483
-1.76168
-73.5195
-91.0906
-58.2477
-42.9301
-48.532
-22.043
45.1233
69.0653
34.8144
33.4629
83.573
164.413
307.626
332.354
242.828
93.735
-84.2377
-169.484
-201.239
-159.708
-26.827
37.7688
51.5643
70.0809
53.9015
9.26974
-17.532
-37.4131
-53.0099
-22.1442
26.2162
14.9743
-112.296
-183.989
-186.644
-129.425
-23.4255
125.763
267.177
232.304
67.9976
-96.9496
-175.414
-190.877
-166.821
-105.97
-56.1262
-11.2245
0.93276
-20.658
-31.8947
3.38388
24.4303
38.0506
40.9696
44.7045
42.1356
43.6127
23.9163
59.9477
72.5692
111.62
156.816
142.403
90.435
15.8778
-97.8555
-157.194
-178.631
-136.119
-4.40088
86.2924
96.8083
86.0049
96.8956
76.6232
36.9661
-16.7988
-77.3864
-72.9072
-29.8123
41.2976
42.0612
40.3561
132.905
127.607
62.6837
23.3144
-45.2932
-136.401
-218.005
-262.108
-224.21
-149.414
-61.6039
83.0439
146.54
137.891
150.077
123.539
53.0473
-90.1187
-147.116
-128.117
-174.524
-197.952
-138.26
-18.1891
87.6974
190.988
188.496
198.493
223.647
183.655
93.0442
-66.4682
-170.834
-200.446
-193.979
-149.212
-104.89
-77.2564
-34.608
33.1111
73.3451
125.939
184.323
158.333
74.2042
-9.57019
-6.90785
-12.8913
-10.253
-7.64535
3.02662
88.5563
165.522
228.805
187.103
77.8953
22.6024
41.9004
14.8759
-75.4514
-112.417
-125.036
-105.455
-97.1036
-104.531
-110.877
-139.14
-158.868
-141.915
-142.905
-107.199
-79.2909
-94.1656
-100.396
-82.932
-58.6214
-20.4801
14.5999
50.81
88.9427
123.357
147.756
141.184
122.641
143.144
184.149
236.462
198.035
99.0809
24.6426
-70.8451
-102.183
-34.396
-5.23993
-7.91525
27.7863
33.254
-22.2785
-95.4056
-129.379
-141.607
-114.693
-125.357
-101.357
-26.3042
12.2503
10.2649
57.3949
150.23
175.887
161.094
171.103
60.7358
-72.9538
-128.522
-108.996
-77.5606
-47.0474
-16.3622
-11.1278
-34.5759
-53.3732
-27.4958
-35.3168
-26.4193
-26.2854
-30.9025
-60.0806
-95.7964
-65.727
5.36008
13.7774
29.8684
58.2232
100.049
72.4999
34.3537
37.114
22.6691
42.464
79.4273
94.6509
73.228
83.5635
45.829
-22.0742
-50.2893
3.76969
81.1855
71.2319
-59.125
-179.557
-161.278
-123.254
-138.81
-91.5845
89.1242
138.529
112.629
38.13
-61.9025
-59.5198
-101.239
-163.083
-157.864
-95.3846
-36.8228
-6.7563
-5.26169
97.5299
206.158
188.83
129.038
76.4808
61.694
62.6949
-2.29395
52.7919
146.242
146.138
131.253
46.4678
-40.2956
-92.8001
-126.181
-73.0793
-34.0628
-86.0804
-172.113
-221.07
-182.57
-97.3633
-32.05
13.0624
86.8403
70.0531
8.31749
8.77763
5.80133
14.688
25.2113
83.398
134.754
113.581
40.4166
-43.548
-58.1215
-49.6533
-94.5579
-63.6573
3.25672
30.3718
26.6399
10.6059
-25.6938
-32.1171
-55.441
-38.2046
-15.8308
2.29903
56.5768
88.7249
107.559
126.921
125.569
96.3203
59.1737
20.0312
-56.7453
-171.455
-170.754
-152.369
-82.99
-33.9283
-50.9024
-11.4767
67.3176
60.8349
17.1991
1.33428
-21.8768
-6.60846
34.286
50.2998
113.674
107.366
3.57084
-55.812
-56.1651
-54.3046
-1.68927
80.5778
114.67
80.0604
20.7119
-54.9343
-148.571
-219.374
-162.6
-17.3458
79.1703
109.707
67.5027
78.6253
57.0207
23.5001
26.3737
41.5906
109.316
156.059
61.9639
-39.1214
-109.878
-118.622
-86.4211
-89.6713
-70.0067
-4.01657
15.1669
-15.3329
-53.2216
-105.44
-81.3883
-54.6573
-82.7308
-79.349
-12.722
37.5047
72.8005
66.2253
38.4313
41.4339
54.8199
81.3384
116.015
129.379
80.14
20.1912
-12.3406
-33.5427
-35.8979
-58.8073
-42.1239
-23.5
-8.67462
-2.96991
-25.7087
-17.5809
18.8964
28.5425
30.0887
18.5379
9.42469
-13.9259
-23.1697
-10.8586
12.6309
46.0124
25.4987
6.03127
14.4711
-6.58764
-20.6987
-47.1647
-55.3858
-33.3995
-16.9288
-9.12299
-14.0285
-17.9786
-14.3403
-4.91016
-16.6141
-7.18042
11.7694
20.3174
18.028
56.7106
73.2606
14.6667
-35.7139
-44.5284
-49.2374
-41.518
2.92642
99.2118
112.131
33.5109
-24.7029
-60.6208
-106.721
-91.3501
-82.5632
-62.4319
-22.305
28.9539
97.3747
79.2191
87.274
132.006
113.177
61.193
28.1405
2.0311
19.511
8.2124
-19.3855
-15.3707
-57.5904
-73.8071
-102.275
-163.312
-151.114
-76.6054
-45.386
-24.8456
-4.97206
33.852
10.9658
-7.35531
14.7132
36.2636
48.6788
71.1592
70.7541
26.9491
-15.3366
-10.4529
6.94611
60.1773
117.15
143.502
99.2426
62.8822
19.5124
-3.31051
-43.0452
-82.4246
-28.8517
-8.14567
-30.3318
-24.1024
-24.6123
-41.764
-84.1946
-105.073
-64.5779
-62.7676
-31.5807
1.21524
20.0442
91.1486
164.932
132.465
92.1655
-3.10934
-94.0097
-171.542
-231.484
-182.597
-46.3993
34.6245
56.6097
74.3936
109.066
103.086
54.9951
1.93085
-28.2039
-37.6214
-49.4116
-42.7675
-6.6663
56.7341
71.9298
79.6836
92.8062
76.8933
46.864
0.695481
-77.0754
-104.326
-52.9927
42.0914
38.321
-15.8611
-3.79095
53.232
58.5408
19.5335
29.0989
-0.167032
-45.4226
-89.2488
-49.5783
10.8403
25.5876
22.5763
-0.504089
-43.7336
-92.462
-93.7192
-46.2018
-47.1321
-31.6369
-5.81236
20.5372
42.2693
50.3514
8.54583
-21.3603
2.07225
35.13
38.032
3.30783
-24.84
-22.8783
61.2876
129.938
120.021
112.873
106.142
-24.9865
-171.874
-238.732
-224.147
-173.945
-100.779
7.80979
127.641
191.937
167.322
72.416
19.4363
21.2527
24.1687
-5.2219
-30.5706
1.64904
67.6633
117.109
79.5196
81.0238
138.563
110.8
33.2358
-28.4102
-90.4775
-135.546
-143.7
-134.077
-123.806
-153.71
-171.374
-159.57
-164.983
-114.633
-37.2276
25.4371
58.2255
44.53
63.6523
68.208
49.5468
103.054
180.269
204.281
167.762
91.8945
-34.7367
-141.24
-130.199
-26.6692
77.4511
86.63
98.2118
124.467
93.1941
22.1818
-9.21071
-21.4216
-32.4428
-55.8619
-72.7995
-76.6407
-85.7728
-105.448
-67.2911
-43.9497
-3.03716
46.1963
25.6673
-3.49864
-78.1538
-131.993
-100.481
-43.3623
7.33961
28.6917
30.7818
66.3977
82.5599
82.5978
76.2323
24.6563
0.765791
5.00299
26.8588
32.7333
24.8706
36.6868
-5.58936
-24.9034
7.52556
6.12749
2.58455
18.9617
14.6852
-10.6243
-45.071
-55.3812
-28.172
-37.0785
-51.2131
-7.11183
2.87942
9.13117
11.6478
-8.12063
-3.01264
29.0037
61.1895
29.7538
-13.7388
8.57945
60.9471
69.8713
44.5599
24.4923
-9.93844
-55.912
-114.503
-120.637
-74.1926
-41.5773
-24.7311
1.23904
15.4073
64.0384
88.8304
49.7955
2.16589
-1.68679
-2.27223
27.9051
-24.7928
-95.6803
-112.997
-99.0784
-53.6897
-17.3407
10.2366
61.3835
95.3181
89.748
63.3444
88.7753
109.685
91.0574
35.0318
-29.6976
22.2932
54.499
-14.8222
-83.7625
-88.0012
-67.0848
-71.9098
-106.894
-91.1228
-35.2245
-4.72097
-1.04712
-5.52219
7.9065
50.4402
51.4424
13.0077
42.1404
112.5
116.002
52.5727
21.5301
54.5118
53.9748
27.252
1.47335
0.541354
-6.09185
-19.5857
-47.5082
-56.206
-57.856
-89.5242
-110.846
-75.7943
-92.1672
-92.0033
-88.1652
-80.4407
-45.2749
-35.0588
-4.79809
26.638
30.8615
49.4121
63.1729
67.744
86.8194
94.2539
65.1124
60.3774
70.1338
66.3389
45.8593
17.5904
2.02571
-13.1793
-28.7991
-42.7387
3.53336
18.3121
3.61906
14.1868
34.158
35.061
8.91352
-28.0998
-18.5211
-34.0205
-36.5338
-35.7786
-45.7605
-50.5366
-55.2586
-51.0482
1.70343
8.36981
-11.2011
-9.32728
-11.1206
-3.66765
-0.227414
6.92367
33.2393
32.08
27.989
25.2676
9.56394
0.00916101
-5.66452
-24.6674
-8.69771
23.9125
26.1781
10.3312
-19.9251
-28.3227
-16.5039
-12.224
-30.2395
-20.0468
24.0016
29.7194
13.4416
10.4082
9.79997
16.4977
12.8247
4.01334
15.9687
25.3444
13.4096
0.956498
10.1126
10.9084
-2.21833
-15.6635
-13.7107
-2.38922
-0.268765
-6.08819
-28.2446
-28.67
-23.3653
-33.164
-18.6563
15.3702
9.54549
6.88554
-0.0583746
1.21759
3.00159
-6.4141
5.13203
17.6419
3.76367
3.37419
0.55009
-6.972
-0.754289
-4.52951
-7.31757
6.31369
2.23872
15.1965
11.6352
-4.41374
3.29294
-3.88615
-8.23989
-8.72547
26.9337
22.9807
13.1147
-4.26326
-7.57202
-2.89331
-2.16296
-9.00026
8.1776
12.4274
5.23151
-3.48332
-4.49503
-5.19986
-4.82151
-11.0716
6.47714
13.3881
6.11749
-1.23602
-27.7803
-19.516
-21.0923
-36.2851
4.38509
24.9851
20.1288
14.8029
6.93702
6.79488
1.13191
-5.41887
-14.5574
1.38638
7.70686
2.25742
-3.36148
3.52438
2.75869
-0.634831
-17.8035
-7.00689
-1.8809
10.5898
-5.56094
-10.313
-7.89604
-5.67489
-19.9747
-14.7943
-21.2878
4.25566
16.8929
7.8184
4.44122
9.98305
5.57474
-2.72843
-2.42053
24.8812
18.4827
9.51805
14.8606
19.4867
6.86485
-14.8669
-3.63304
9.27588
14.2384
6.93893
13.0773
-0.106225
-12.2912
-31.1257
0.896738
23.1045
17.5749
17.4169
13.3123
-2.30024
-4.22754
-16.5338
-7.15029
-0.240413
-9.33949
-5.64702
-13.2592
-16.4251
-17.1468
-22.6076
-7.04233
-5.34148
-0.694152
2.36521
-12.9753
-18.2583
-11.4448
-18.9167
-0.956697
9.18712
24.8803
24.3411
11.2277
3.55913
4.06665
7.5144
0.4076
-3.4797
21.1667
22.27
13.9624
5.49021
5.52824
8.6971
1.39391
-19.003
-32.8365
5.32403
10.3279
-6.35421
-9.4625
-3.28496
-5.18431
-10.6839
-28.7627
-29.3523
6.4726
6.3016
-7.24004
-6.70516
-8.98549
-10.4346
-20.8963
-1.3778
10.0098
6.27155
11.4824
4.33699
1.68352
6.31361
-0.814144
13.3058
16.1399
17.7229
23.9753
23.7902
6.09121
3.91741
-2.50776
1.71314
22.5195
38.1526
40.0199
11.813
-20.1141
-31.1945
-51.1722
-89.3012
-88.2217
-26.8856
17.9336
21.1154
31.378
49.5981
56.9139
55.2406
53.7456
41.3611
5.76993
-10.5241
-37.438
-83.3717
-96.8126
-64.9549
-2.76472
38.2165
59.7691
72.2685
61.0241
26.7921
-2.91843
-30.2486
-30.436
-27.8704
-27.544
-22.0168
-9.14519
28.2519
46.7042
44.4143
40.26
72.222
73.2324
32.3772
-44.8576
-121.687
-168.078
-158.165
-132.142
-100.77
-52.1484
7.15508
14.5156
0.033551
-12.2904
-4.86978
12.303
23.6648
52.5833
88.7671
94.3823
96.6775
95.161
69.3037
56.9172
64.4222
46.5839
23.1477
32.253
36.7398
11.2835
-10.745
-12.8903
-19.7162
-33.3476
-10.5874
-12.4779
-35.6402
-46.0837
-64.312
-66.5822
-72.315
-68.8344
-36.8494
-20.2237
-1.60267
37.6403
60.9397
39.0404
6.89653
0.915411
28.2099
59.3426
62.7675
45.2892
-5.0756
-49.7564
-86.7215
-112.319
-100.091
-77.2936
-60.4181
-34.8611
-32.4194
-15.6641
18.8984
54.2355
68.8653
58.6305
55.8476
47.277
32.6734
31.9347
67.1997
95.1109
83.7297
51.045
29.3721
41.2963
51.4458
5.26295
-67.6236
-130.497
-187.539
-247.867
-258.776
-139.938
20.0351
115.037
123.46
108.916
78.55
53.8221
31.6897
56.6239
87.2801
88.9486
81.093
59.3325
29.1071
2.13192
-9.71947
53.6167
123.175
172.411
137.118
7.03833
-118.898
-175.684
-220.183
-233.439
-184.175
-89.2788
-50.0647
-54.0049
-59.7499
-44.4633
-13.9463
16.1431
29.462
74.0146
101.869
102.302
93.5192
46.6295
12.0698
-23.6128
-75.5328
-118.808
-41.5502
92.7416
122.83
35.8277
-12.0742
-30.7881
-49.001
-62.8204
-24.0944
25.4308
38.1111
30.1474
41.4244
35.1454
35.2827
52.4656
50.0875
61.3064
54.1638
56.7088
48.5854
-22.2147
-78.0599
-90.5902
-76.9876
-45.5205
-7.9471
16.6182
-5.95339
-50.3238
-47.2732
-27.1682
22.8177
53.433
76.9099
44.4992
-44.7247
-123.392
-162.135
-194.936
-139.157
-12.6749
83.9153
111.678
96.1226
63.5849
43.5055
51.5592
50.6054
54.0029
71.1218
60.6392
26.2196
0.633074
-44.441
-78.0968
-40.1987
64.4728
133.79
164.211
127.765
8.65683
-93.8262
-98.2958
-76.665
-87.5688
-50.3425
-45.1618
-67.8888
-77.0552
-79.2496
-80.0466
-109.291
-112.117
-65.0037
19.7321
132.46
184.069
187.155
153.053
65.7381
45.8519
39.8014
0.439855
-21.2358
-14.2577
-32.7621
-39.2038
-12.5524
16.4509
-1.60583
-5.09902
5.29561
-28.1418
-69.782
-84.4104
-101.54
-93.1334
-56.8457
4.41753
27.0932
11.1166
8.79986
32.0835
47.9238
59.94
49.4415
78.9022
38.5899
-59.0315
-109.016
-186.041
-268.829
-191.897
-4.22249
145.384
200.646
164.649
125.398
122.336
125.51
102.24
54.5973
6.24272
-38.0819
-73.4803
-43.9112
-13.5088
10.6458
36.274
41.2677
57.0268
94.6244
71.5603
7.07221
-40.4784
-85.1502
-128.746
-113.375
-72.027
-71.027
-71.1438
-68.173
-72.5435
-45.7705
1.33749
9.34139
-11.5743
-24.0532
-22.4101
10.9347
50.3199
101.605
116.069
84.6542
77.0613
80.2505
49.6923
56.8199
25.9334
-14.0244
-54.3162
-61.8366
-53.2582
-89.6951
-131.927
-117.977
-90.1566
-51.5625
-26.4173
-86.4556
-138.027
-25.0005
93.9203
103.577
52.4481
56.1942
90.3481
44.9885
2.46591
38.9673
61.1651
101.461
169.284
183.66
159.125
99.7578
42.6983
-1.75807
-18.2527
-11.2733
21.9754
-23.0442
-85.7504
-112.735
-94.9287
-89.6113
-92.4999
-100.96
-81.754
-92.1254
-91.4619
-98.2488
-97.2702
-41.2993
-3.97521
-38.3038
-35.1828
24.2366
61.1451
86.2059
103.766
70.4936
20.5663
5.10201
10.3654
42.1657
42.03
19.5508
3.09914
-38.464
-75.7773
-26.4002
14.2429
47.3179
106.431
108.96
60.5328
9.27554
-23.6263
-33.9449
-28.3642
-20.5342
11.268
8.73406
1.3362
-8.89206
-4.0156
26.0877
38.1556
30.5247
41.725
49.5795
19.0426
-8.54096
-15.4131
-40.7845
-52.2466
-35.5216
-18.913
-45.0361
-83.0085
-143.803
-245.75
-243.265
-67.1562
51.0879
78.4172
101.175
95.3103
111.902
133.56
105.709
62.2299
17.1851
-14.7282
36.0713
47.0315
24.6617
21.264
48.4255
76.5799
62.0458
77.2538
112.864
4.3467
-129.959
-164.453
-143.902
-136.767
-156.735
-121.183
-35.1399
13.4089
26.6465
48.9558
43.017
7.02568
-18.8585
-18.9324
-5.58137
18.5262
81.7368
106.057
85.0335
68.7699
106.715
152.898
128.407
85.6653
61.8182
15.2488
-88.116
-144.104
-156.851
-183.077
-177.77
-141.463
-106.049
-29.266
-10.2091
-42.7635
-21.3724
26.822
44.9448
32.7897
6.91814
4.72768
3.12115
23.4198
39.9076
6.18952
-24.3792
21.3099
57.7885
76.5693
76.2012
129.507
144.789
102.375
108.146
133.114
46.3245
-42.354
-85.8798
-156.601
-174.654
-127.516
-73.3036
-40.1105
-44.7176
-60.7369
-40.3361
23.03
50.5168
34.9244
17.5496
-25.2764
-38.7979
-9.51152
22.9347
76.5546
118.281
140.325
113.201
80.9201
34.1419
-50.0418
-119.358
-114.868
-39.5384
11.4569
5.27579
-37.096
-26.4161
-27.4781
-67.9536
-81.8013
-101.654
-127.414
-124.896
-74.7081
4.13088
44.3108
58.6379
102.835
141.522
120.926
98.0468
85.7999
94.5928
113.562
100.334
30.4155
54.8103
27.9195
-61.3234
-100.545
-165.442
-286.207
-213.089
-48.8101
-0.982772
-0.862837
15.0433
28.3098
60.9923
91.1638
84.5171
62.9884
47.1534
59.4148
49.9366
27.764
-54.7841
-103.354
-75.6214
-20.2418
98.3806
211.616
159.689
29.8209
-47.8836
-97.2068
-114.133
-101.931
-122.595
-104.097
-52.463
0.524506
25.0526
12.6761
16.5143
-6.65108
-24.9341
14.5632
62.2842
95.7284
145.379
158.212
142.682
89.928
66.1182
33.63
-88.9192
-162.122
-169.902
-216.522
-205.232
-107.911
-25.4167
28.4669
65.5342
89.4871
34.8517
-32.1036
-12.0826
1.12505
-74.9747
-151.069
-198.821
-107.65
68.2698
153.894
191.084
193.254
182.851
191.902
157.886
26.5858
-97.8962
-154.641
-123.191
-60.9923
4.36173
62.7583
72.3259
66.9221
95.3259
125.556
111.403
8.64743
-80.0683
-97.1835
-98.5049
-97.6458
-89.8873
-90.4844
-80.4425
-62.5082
-31.7681
21.3576
23.0681
21.3143
40.0802
60.4019
54.6737
-6.0489
-73.41
-86.4817
-11.2691
27.5038
-9.57439
-48.9633
-54.2723
-52.3204
-67.9251
-58.3865
27.5645
78.9881
107.825
101.145
77.0702
64.4167
47.4286
35.577
25.116
23.3164
32.0135
32.0848
0.717677
-21.9986
-52.9843
-60.2778
-56.6563
-15.4165
72.7925
68.4974
-10.8308
-75.5429
-160.166
-199.165
-102.432
2.817
28.0886
39.2978
75.4002
118.806
112.054
97.581
51.9628
15.7603
-14.5434
-25.1044
-0.526949
-16.2179
-38.0884
-6.96148
16.6618
36.0293
56.6589
46.8582
-3.51399
-66.4115
-113.676
-123.04
-96.6268
-126.389
-97.4859
-27.9289
4.36003
-12.0139
-3.06397
54.3119
91.975
125.037
150.46
112.57
71.5738
34.5697
2.21337
-38.161
-99.0318
-114.247
-24.5413
69.176
100.328
116.388
114.63
71.4637
-14.4674
-49.2895
32.2361
13.3462
-77.282
-97.7495
-96.5529
-115.465
-116.337
-132.768
-166.334
-86.0726
71.5194
116.035
91.5096
89.7222
111.536
123.961
98.9324
62.7087
36.1698
-25.1511
-116.327
-136.75
-99.5855
-140.695
-148.484
-30.2319
43.2981
101.836
168.873
146.282
26.7542
-58.5676
-78.5243
-78.3382
-130.954
-121.15
-67.5743
-1.30041
85.0415
130.716
106.426
109.843
107.035
107.584
98.8102
100.609
87.9321
51.5868
42.682
90.2549
90.4703
42.4191
-29.0694
-115.204
-175.015
-241.084
-317.72
-362.255
-340.405
-274.308
-110.863
80.7974
196.663
243.112
207.914
136.425
85.2951
81.4987
76.3214
41.4977
16.6451
21.1579
24.4162
46.0531
63.4979
112.397
178.113
144.759
47.7283
-1.42803
-57.5939
-145.787
-159.097
-109.256
-59.0116
-39.095
-20.0296
-3.49173
-16.6735
-64.2466
-72.4698
-55.8423
-11.0048
-15.3686
4.28566
19.9533
11.4831
12.7517
48.9376
91.8375
92.4835
55.1731
35.209
8.05406
-57.4648
-99.1501
-128.945
-156.057
-105.695
-34.502
-34.2543
-7.29286
13.2175
19.3221
14.7524
-26.6627
-64.1643
-27.2814
88.3652
149.993
134.908
87.5897
51.4435
20.6345
-4.75287
36.3849
107.522
120.611
97.2487
65.6669
53.5376
28.3217
11.7858
12.2632
-0.891382
-13.6682
-12.5913
-46.6989
-111.024
-125.525
-150.053
-150.097
-87.8324
-24.8847
15.1532
55.2457
71.9817
33.9555
-18.86
-72.3569
-154.979
-177.803
-63.1175
-7.04093
22.2843
61.4052
100.238
129.281
113.972
74.9737
73.4995
57.3061
11.4081
-17.2633
-35.0476
-72.8074
-92.361
-40.6842
-11.4116
-5.28982
78.1533
124.753
46.5463
8.08836
-13.046
-44.1391
-60.8377
-59.9175
-67.2479
-101.053
-64.5632
4.01248
19.549
32.249
16.8532
-44.8108
-49.5973
25.1798
73.1001
77.6497
50.0981
-4.7157
-52.8424
-26.8216
83.1563
173.74
147.987
89.2162
19.4892
-9.38353
-73.8048
-96.1771
-45.2444
5.8217
74.7978
101.615
50.3228
-20.9783
-70.9578
-106.483
-93.5416
-32.2094
8.64691
7.00578
-33.5757
-47.5349
-27.8686
15.5677
68.6371
70.2695
42.5892
-28.6249
-90.7479
-129.181
-123.092
-98.1314
-71.8863
-44.876
24.757
124.076
143.006
92.2996
45.0866
4.47656
-61.015
-95.961
-91.1815
-87.9444
-32.8123
17.1449
41.0059
80.965
123.746
111.784
65.7505
75.3263
52.1276
-4.96624
-52.4844
-95.1486
-127.858
-105.904
-69.1947
21.4252
106.277
119.98
115.556
94.3322
50.2061
-14.2208
-78.28
-33.0467
30.8514
48.1082
56.3768
19.1798
-13.6128
-12.0895
-16.4642
-14.7451
4.73088
27.2209
-9.69748
-96.9962
-139.861
-95.535
-24.6176
37.6609
33.6209
28.6409
16.5536
-15.1839
-53.8286
-71.3533
-60.8683
-48.1669
-26.9634
16.8474
27.2272
16.2313
0.670684
-7.03044
25.4441
18.8742
-11.6716
-17.6687
-17.2698
-10.7148
-2.67391
35.4124
89.3206
57.5347
4.61604
-18.9878
-36.8441
-2.83446
48.1659
44.1084
33.5557
38.7024
61.0177
130.356
176.478
107.933
32.3395
-38.033
-104.576
-180.119
-170.76
-121.357
-87.4759
-18.0267
15.4006
20.2092
23.4993
20.5244
10.1677
13.4457
25.4969
40.7842
1.42138
-57.1685
-72.9688
-17.858
28.9361
24.6114
23.9093
90.7694
105.401
100.534
84.482
11.3395
-61.218
-73.0211
-54.6574
-12.2065
-12.7712
-17.4974
-57.3231
-161.681
-227.639
-248.834
-223.544
-108.749
52.3996
151.071
175.06
162.324
137.216
91.5588
62.3202
51.2254
63.2186
77.9567
74.2127
34.1175
10.3875
2.16276
34.0482
101.639
151.801
128.561
58.981
3.68259
-52.9565
-110.997
-145.403
-179.823
-179.855
-150.786
-83.435
-22.74
-8.43928
-18.4414
-28.2379
-24.6895
8.25334
-9.78625
-19.5804
-11.5033
11.507
49.6266
92.7111
108.007
78.5591
41.8034
19.3074
-29.1658
-68.7874
-37.4199
6.09639
19.8434
7.88234
8.09521
10.6495
-9.94058
-25.7554
-9.39786
22.5625
55.3894
55.2645
27.848
35.1374
14.939
-39.615
-57.0273
-31.063
28.0567
53.8199
13.6288
-51.7816
-82.1408
-67.0119
-57.9006
2.63734
75.6597
106.904
123.79
120.791
89.7257
62.1981
6.15383
-85.2635
-198.099
-281.53
-250.548
-135.074
-15.0693
81.1382
83.1937
64.4271
63.6697
77.0387
65.0009
5.36379
-46.2433
-52.0479
-42.7741
-17.8466
-5.79865
10.1943
36.8744
28.8677
75.7161
151.527
139.437
83.9298
30.8121
-3.87138
-3.82076
-16.7003
-45.5702
-28.3773
-6.82964
-31.1673
-88.4619
-125.895
-88.8013
-16.7571
75.8001
93.1432
95.2649
79.7484
53.5185
60.3798
52.2222
3.71076
-57.4682
-121.36
-124.295
-110.898
-83.3913
-76.9519
-60.6182
-14.4954
32.4366
36.7914
-11.3333
-52.7877
-73.5497
-96.3889
-105.891
-68.8309
-26.6655
-5.98403
13.4548
88.3
175.407
217.567
192.15
162.723
128.738
76.4297
22.6317
11.6781
17.3856
8.95824
-1.33556
-33.6962
-75.4236
-55.0945
-54.0818
-83.6925
-48.0526
38.8171
49.3847
-0.22669
-50.1926
-61.8792
-50.2266
-44.6775
-8.97848
30.6701
16.2663
-8.11365
-13.9301
4.44752
43.3665
37.5609
-14.3828
-45.5967
-70.5444
-94.9327
-131.316
-130.618
-61.6296
-45.4895
-32.2758
-17.198
9.24699
62.2506
81.2556
66.2732
57.9075
33.8489
-3.26146
-5.66082
-0.849854
17.667
63.7956
111.999
169.175
211.86
198.773
140.223
60.191
29.6171
19.3444
6.27253
-47.5631
-106.475
-174.427
-207.159
-213.788
-177.386
-92.8619
-40.4493
-26.2027
-19.9897
-13.5075
-14.3345
-7.44457
19.0799
43.1532
15.754
-4.95794
-15.6039
-5.50045
31.8894
68.6838
66.4525
103.248
127.836
124.56
88.7967
19.7573
-56.7815
-103.787
-121.72
-91.3104
-54.3931
-53.3543
-43.1125
-17.9549
12.5512
12.0824
17.1768
24.8313
-5.53435
6.16795
80.2893
112.361
118.417
111.479
101.835
82.6396
45.9518
-28.4697
-58.9096
-60.4121
-57.8488
-42.7347
-33.1646
-35.996
-63.9381
-63.2199
-56.138
-92.2273
-106.725
-121.351
-107.113
-75.1428
-80.6768
-48.6581
-10.047
-0.839787
36.7759
86.9534
127.301
145.601
125.921
127.872
132.55
97.703
55.8572
37.556
25.8439
9.89695
-0.792604
16.1512
-12.774
-57.4705
-56.5418
-30.7477
-23.4209
-7.61446
-10.1135
-14.9254
-24.2688
-59.6442
-56.6992
-35.4026
-53.6029
-51.6555
-32.7315
-40.9423
-37.7415
30.3619
45.7997
25.7146
7.58632
-8.91283
-21.5188
-50.8851
-83.3163
-52.8911
21.3252
65.335
57.5324
44.7938
21.1823
0.747742
12.3843
10.3631
27.9486
58.9562
64.6821
62.4962
70.151
50.5909
31.5837
8.85652
15.0504
25.1116
34.2512
-17.8736
-87.9745
-143.859
-140.002
-76.7706
-3.51241
26.9479
25.1609
14.8896
-3.75241
14.8671
28.4291
-22.8577
1.16991
4.43648
-9.63028
-25.2889
-42.4255
-46.8364
-79.5785
-81.8282
-10.5844
46.5893
57.9379
37.758
23.0065
16.8311
11.0316
4.24706
47.088
52.2311
34.0436
35.5161
10.5492
-4.40061
-9.24551
-1.26465
16.3933
49.0239
74.4313
82.9451
38.0755
21.2398
5.00274
-27.1882
-49.1739
-37.4675
-10.475
14.2869
-1.01739
3.49799
9.27876
-30.4306
-69.2839
-58.1905
-22.3716
-22.0704
-32.2922
-52.7616
-44.917
-37.1406
-45.0922
-55.2539
-28.1788
-4.62439
7.90862
5.84834
4.8993
-18.8115
-56.6754
-81.3216
-45.7461
-15.7469
-2.34692
1.13597
9.55589
70.7716
117.303
124.317
116.016
122.535
126.146
120.013
81.4092
47.2838
17.6986
-17.1757
-58.3767
-52.8097
-21.1636
-43.5705
-102.013
-97.6481
-95.9345
-83.9343
-64.337
-32.1843
-6.41691
-8.40449
22.851
47.2555
58.7351
62.9196
46.8158
39.8782
15.468
-13.4822
-15.8118
6.33933
38.3844
77.8632
85.5856
83.8714
56.312
-2.11797
-60.5271
-101.129
-121
-95.6266
-78.6167
-62.7796
-35.1785
-20.7779
-19.9495
-42.6716
-52.2651
-38.0897
-10.1581
-7.22041
-20.0374
-3.80267
17.9421
30.6333
61.7567
106.128
107.641
65.0497
10.8178
-18.4155
-1.24422
-21.9683
-37.8379
-21.372
-1.32598
13.3819
26.007
17.5208
23.9789
44.7027
24.2912
8.58638
-8.79565
-13.0922
-1.7972
-4.51285
-0.0511699
40.6991
61.8421
59.8452
36.2511
19.7267
-7.69986
-30.16
-34.7701
-26.2773
-20.9697
-31.1514
-48.4284
-32.3304
-19.3433
-57.3074
-70.0546
-54.8484
-54.9715
-47.6337
-36.9272
-25.0284
19.1026
72.1127
71.7453
62.3249
29.0973
-7.4412
-11.114
-4.76914
20.1776
51.7301
46.1191
20.6487
7.05383
-0.30468
-6.33743
1.96975
29.0344
34.7588
33.7193
16.4514
2.28645
-46.5841
-84.9886
-65.2216
-28.6981
-20.6393
-29.4048
-12.6333
25.1213
29.4117
10.9494
-18.283
-29.7988
6.5851
23.5851
0.346102
-9.81226
-24.359
-29.2186
-46.5824
-64.1473
-32.7329
19.9461
21.4498
27.1518
75.2193
81.8733
48.5458
43.4232
41.5755
36.7922
43.9025
53.9829
42.0203
22.2013
36.424
55.6021
65.5743
66.3443
51.0972
0.0730838
-58.8685
-115.165
-145.133
-127.835
-124.205
-101.268
-76.7674
-70.9121
-43.7457
-42.0049
-38.8637
-42.6533
-35.566
-12.1742
3.82385
-14.4143
-16.3245
10.3523
82.3575
133.911
131.835
121.857
98.2035
70.2661
43.9249
20.7198
31.0117
11.9979
-34.514
-51.3394
-51.097
-17.9547
17.9312
18.0664
22.7267
18.4006
-1.68365
-23.7419
-70.1078
-110.451
-112.341
-86.7376
-59.1493
4.54614
58.1783
83.4401
71.3369
46.0544
57.3369
99.1277
94.0758
70.344
59.4265
29.2946
-19.5417
-51.7132
-64.8577
-87.033
-122.246
-116.503
-57.6529
-43.4017
-48.7275
-41.7794
9.2625
82.3909
113.606
83.0583
20.0033
-16.8162
-38.6226
-65.8843
-61.0369
-12.5401
-10.5045
-34.4499
-32.9749
14.2932
37.6666
54.0833
43.2822
58.8405
112.555
79.6289
-4.6951
-58.356
-82.0752
-95.1363
-79.8877
-49.2939
-18.8788
0.813137
-0.783146
-0.770033
22.5247
93.2739
152.135
84.7439
29.9077
23.3373
27.0181
26.3634
7.02681
0.768169
-3.06567
-7.6154
12.8481
36.9678
29.6771
10.4593
-19.0584
9.18523
25.6203
-13.8329
-33.4765
-49.2862
-86.6774
-98.8424
-96.8686
-91.4391
-84.1568
-94.9714
-81.1937
-58.448
-15.8084
13.2543
-9.21826
13.2866
53.0427
51.8126
39.5136
-8.84391
-53.3551
-41.2013
11.7858
45.547
65.1003
100.612
103.089
83.5532
59.0025
63.2549
51.6403
37.0986
36.6746
21.6263
32.5942
43.4584
24.4788
28.8657
26.8487
1.45464
-7.98524
-21.1112
-70.2369
-81.147
-66.3034
-68.3577
-65.6163
-46.3741
-23.5946
-22.6144
-36.0582
-36.7546
-41.6647
-50.3196
-26.1652
-0.975331
16.8958
7.52203
17.3765
56.5045
87.7783
95.6587
61.3787
10.4435
-12.6091
-44.9922
-71.439
-59.8838
-15.9314
-12.6125
-13.5639
-22.8454
-31.1158
-43.5552
-68.111
-87.0302
-47.8482
12.6706
38.033
41.6121
41.81
41.2805
72.0083
87.7399
70.7032
99.3605
155.022
129.157
73.9509
54.123
49.4205
23.3612
-46.8031
-71.6686
-48.2287
-57.6804
-58.8663
-57.5134
-58.3925
-60.419
-94.5669
-100.756
-65.9552
-38.9929
-18.6063
-23.2605
-32.5916
-26.119
0.596882
57.1768
90.5355
65.6842
51.3119
29.733
-8.58319
-17.2074
-46.1868
-66.0895
-31.5933
-33.7292
-27.9156
-17.641
-32.4996
-34.9661
-35.0693
-6.15295
34.8275
82.8234
101.784
72.6162
37.2617
21.8416
44.2125
57.3527
41.8301
24.9741
36.5962
41.5745
19.3291
2.10849
-3.49984
15.1632
27.2835
16.7254
-10.2416
-18.8168
-38.3357
-92.3529
-124.522
-123.69
-109.755
-78.8852
-51.008
16.1019
69.1979
87.959
82.8757
69.7828
59.79
80.5318
80.5097
38.9485
-27.2987
-58.4038
-54.8504
-48.5373
-47.0255
-53.3941
-58.5002
-20.3615
-16.8727
-20.9989
-28.0803
-56.7777
-73.8118
-63.2964
-37.6591
-17.7262
14.6863
40.446
66.6032
107.376
127.673
100.307
44.6344
11.6516
-6.68605
24.2737
36.0799
18.5356
23.9561
39.9506
43.5705
16.1861
-9.18917
-13.7733
-24.697
-41.5719
-48.1055
-51.1673
-44.8919
-68.4185
-99.1687
-56.0762
4.56809
12.6963
20.4022
18.2615
12.0586
-7.92377
-21.819
-34.6137
14.0669
54.8588
49.8977
29.1188
7.07478
-0.5863
-19.3867
-40.1528
-37.6979
-17.9418
32.6963
32.7578
32.3903
42.1407
37.278
23.4972
-8.62102
-37.8141
-9.8845
33.9619
12.6982
-2.5562
11.616
14.1433
-2.83812
-12.9994
-10.5857
6.6027
-22.2437
-29.9983
-18.1162
-6.84852
3.33297
17.8122
41.4052
52.8634
50.112
40.8196
10.9693
-25.2088
-76.3085
-130.336
-115.79
-66.993
-47.6572
-11.9492
18.7456
16.394
20.7502
7.22318
-7.49104
-8.81381
-13.1649
3.03371
23.0404
35.3017
48.8234
33.4872
-5.15421
26.5039
78.3314
92.372
60.0228
33.3892
37.1842
19.7742
-6.86881
-38.8753
-43.6857
-59.2257
-79.7137
-65.6929
-23.3537
20.665
42.4539
28.9475
-10.714
-26.0362
22.5216
-0.650897
-19.5277
-4.82772
-1.31831
-3.84609
7.7438
25.475
19.8302
7.76375
5.95443
3.64724
-17.6933
-24.9577
-2.64222
-2.86078
-16.4389
-16.7203
2.59824
43.4946
20.7097
10.6211
12.7476
2.30389
-27.3542
-40.0141
-61.4818
-90.216
-89.3592
-45.9976
8.73658
74.1791
91.5376
44.9459
6.58102
-47.5339
-71.5226
-39.7926
20.1289
42.7695
71.5724
75.2346
30.3658
4.77723
19.7326
-5.52235
7.74512
40.0293
31.1638
2.51067
-21.2547
-1.79224
30.4786
48.5051
38.2736
20.0468
-16.5296
-49.1467
-84.1367
-78.7332
-94.3342
-91.964
-58.2023
-5.92034
22.9129
42.4124
36.2849
41.8513
57.8495
60.585
44.8611
6.85658
-8.57064
-14.4838
-34.0003
-23.5402
-17.2626
-6.67402
9.44672
18.3735
24.2499
26.7026
28.1117
35.8083
60.7129
55.728
24.8566
-24.1032
-45.2516
-41.4362
-34.1005
-45.1248
-48.629
-7.41085
6.29841
-4.98953
-8.5471
-30.3692
-50.5059
-73.542
-92.3234
-100.515
-65.0684
-30.6297
-17.3046
23.9766
76.447
112.279
138.956
123.401
75.7051
60.4372
41.0826
7.58723
-12.9519
-15.3962
-19.4825
-45.5463
-63.068
-27.6237
-9.55293
2.40432
-10.0714
-33.0372
-36.7604
8.8007
58.9504
64.4476
18.1189
-4.46543
4.05452
-1.61223
-18.8473
-37.682
-47.9443
-39.2183
-3.37585
26.2735
49.7313
33.7262
23.999
17.2061
16.6865
2.22585
11.9503
-12.7926
-43.3787
-57.6686
-43.4462
-18.9567
-16.7597
-17.1353
21.7785
24.6737
4.0533
-17.8625
-24.3834
-2.04793
17.7476
26.339
49.5929
65.2331
77.5158
93.4186
46.1847
-34.9155
-107.19
-131.544
-105.946
-71.5222
-42.5627
-12.1103
7.82674
25.2701
50.4652
47.0859
31.9338
32.5451
5.84598
-12.8825
-15.1928
-5.45337
-4.54536
-21.7292
-39.8373
-6.41864
39.7366
47.1341
53.2283
46.2376
37.1273
15.428
-13.4467
-35.4125
-24.2078
-2.88487
-5.54981
-18.271
4.0597
10.7324
-1.69901
-0.762309
4.92684
10.9136
26.3967
55.1223
82.9748
59.5436
-15.1323
-69.4536
-63.9334
-65.8527
-63.9889
-24.1635
38.576
60.0187
45.5347
39.4162
32.2873
9.8435
-10.1875
-48.6347
-79.5138
-102.853
-117.269
-118.142
-104.801
-91.6054
-43.2661
-13.9319
7.04393
56.4966
63.7089
39.6927
29.0238
55.7034
71.0847
71.9012
69.0969
78.3273
81.3852
80.3371
62.9042
32.6553
46.8414
51.6618
21.6114
17.2082
9.39826
6.0277
-21.4022
-64.0019
-54.9616
-3.72753
-15.1411
-41.4997
-50.6858
-45.9752
-50.026
-85.4599
-125.841
-103.089
-46.9968
4.57252
14.8799
24.0219
48.0759
48.4434
24.5712
47.9766
75.7427
60.8088
27.6794
-13.2763
-24.1409
-31.2607
-31.9397
2.9719
13.6416
20.4368
37.095
29.551
-6.97242
-19.6716
-35.9953
-63.227
-65.2876
-48.2604
-26.4854
-22.1991
-21.3641
5.17696
30.1154
27.0062
2.07329
19.7922
52.4981
38.9233
26.984
24.889
25.2379
12.3234
-0.527574
21.7603
52.7851
39.0528
15.6038
5.73656
-5.20751
-22.7529
-43.4808
-42.6966
-10.2092
-7.59106
3.5657
16.3731
36.6347
21.8646
-13.9088
-14.0327
33.2797
54.1316
66.0864
39.6509
5.95127
-13.5765
-76.3925
-121.993
-100.976
-72.9191
-51.9925
-45.672
-52.3085
-41.332
-13.9661
-0.823943
31.5594
49.3026
33.8839
23.3285
5.99647
5.71135
7.06045
-11.7535
-43.399
-25.6019
34.1338
65.6475
65.3585
52.4532
41.3919
44.1906
38.5416
19.9417
11.6412
9.74942
-24.6255
-45.6706
-22.732
-16.6991
-31.1661
-38.5308
-47.7138
-10.5857
21.7011
33.9039
21.9345
36.9082
40.8263
4.96145
-19.2794
-7.19102
4.68078
23.7441
33.9082
34.7151
19.8973
2.69567
27.2875
44.3248
46.5642
0.701041
-46.7464
-78.1856
-63.8689
-57.9666
-75.6158
-74.6212
-19.8831
6.13897
15.4492
3.9686
-2.67934
-24.4039
-49.6475
-75.1536
-48.7154
5.45977
2.16692
12.3953
32.688
60.745
64.0988
41.4133
16.4571
-0.326839
-12.1641
-13.2557
-62.4135
-62.3059
-14.0618
34.8944
75.391
128.423
135.687
125.6
77.3802
32.9804
14.6902
-25.3825
-63.56
-64.2887
-60.0962
-55.8152
-56.3022
-37.5254
-0.341979
33.63
45.0196
49.9902
38.4226
23.4617
-27.4388
-83.4726
-93.9445
-93.9573
-89.5338
-91.4675
-90.9578
-50.4216
-2.33284
11.2629
36.2683
54.1643
56.9892
59.9324
64.067
47.9329
63.0897
55.2231
36.1767
11.4079
-3.47821
-19.0037
-41.9998
-58.3821
-25.5799
10.3885
24.1117
45.6578
47.0237
32.8413
9.72024
-11.4862
40.95
34.2277
16.7307
14.9476
8.79417
30.09
31.9883
14.6861
13.9242
-16.1049
-43.4148
-53.1784
-80.5963
-103.655
-112.628
-142.59
-112.418
-52.8757
-19.3714
13.8203
5.65689
13.1115
6.15497
-1.588
4.78508
30.9879
64.6579
69.8683
79.9178
103.484
113.413
97.2447
72.8834
29.2501
41.2872
46.6934
2.70723
-42.2252
-58.6872
-57.3076
-74.0186
-86.5389
-36.0955
21.4855
25.2761
21.3183
3.23913
-24.8231
-47.0048
-57.8126
-77.8529
-67.8286
-30.4528
10.0596
34.6222
36.231
18.9971
6.56545
11.2025
50.5513
79.957
73.3095
43.269
-17.1742
-49.8916
-51.9359
-39.5694
-24.6075
-27.4205
-6.54659
32.1264
41.6121
20.9482
18.0689
7.46333
-0.356045
-26.2485
-30.5119
-5.17718
-18.0024
-22.6165
-2.49372
1.05069
17.0235
50.752
43.9786
37.221
30.5525
34.6529
24.0679
16.3038
-9.75513
-43.9484
-75.4381
-55.2794
-25.2882
-6.80338
7.77586
9.76835
0.702468
-20.8925
-39.5124
-22.8248
-14.4945
-19.4486
-9.06291
-11.8391
-23.8494
-49.1203
-54.1699
-34.2361
-9.89752
32.4293
114.979
113.022
83.4799
56.3893
22.3925
8.58623
0.817944
-9.84435
-7.86205
-15.5301
-24.9779
-33.2128
-39.8666
-65.115
-31.2154
19.0062
65.3881
73.9518
64.3516
52.4917
12.4446
-30.1562
-60.1823
-43.617
-9.0262
-24.978
-39.1126
-34.5054
-5.99329
11.4043
15.3385
35.2515
38.1442
49.5928
47.6073
42.8646
25.5201
-19.0355
-47.0356
-48.1043
-74.9419
-97.9065
-84.2159
-49.5174
-28.6461
-11.4148
13.1473
54.9438
62.8153
57.8026
62.8963
54.3311
29.4278
-26.2498
-68.4975
-47.1574
-29.3034
-18.6873
3.79819
9.96111
18.7375
49.0137
61.9554
51.4404
47.5714
77.3032
43.5593
-9.57162
-29.8758
-23.6773
-42.6022
-69.4748
-79.8646
-43.7421
-31.6359
-33.5576
-39.4783
-28.5224
17.7781
51.9819
49.5083
55.8808
46.0901
24.1467
0.993386
-31.3304
-22.6025
-28.5455
-42.0104
-35.5968
-13.5706
29.0462
66.9799
62.1524
46.6028
-4.07317
-52.8988
-19.4825
-8.37105
-34.7861
-29.5466
-31.8597
-21.6131
-3.4172
14.9349
18.3038
42.4036
89.8904
71.6803
64.1114
46.3535
-13.47
-53.4686
-72.5259
-79.1989
-38.2617
-24.2387
-48.4025
-50.3313
-23.8064
21.071
67.8861
74.9925
75.8383
66.9232
37.5893
7.53793
-31.8724
-46.3095
-68.2192
-78.531
-49.6569
-27.93
-7.98892
23.4906
18.0872
16.9336
12.8723
2.16542
-0.0342269
-7.82389
-28.5319
-25.2365
-18.9546
-11.6625
0.108563
-11.0784
3.34479
20.9321
14.9705
34.4888
36.8984
35.6924
49.0453
54.5395
40.9373
72.2178
69.5112
28.1424
-16.3386
-51.139
-52.5586
-50.1501
-55.662
-75.518
-68.004
-27.5086
-25.3102
-9.325
9.24826
28.3523
41.5228
60.2077
44.9863
37.1383
40.0477
8.72548
-20.7191
-17.6007
-25.5911
-63.1856
-104.576
-103.393
-64.0568
-7.70637
41.9124
50.2457
66.9952
78.0329
67.6566
43.1338
9.55182
-31.3177
-51.3836
-52.6633
-49.0754
-7.76439
13.7261
-8.76666
-10.0159
57.7731
99.0669
89.919
60.0406
34.8015
10.5677
8.6943
-30.6386
-75.1914
-76.6696
-69.2507
-66.4771
-56.6492
-38.1792
-39.2338
-48.7252
-59.4399
-11.7056
49.343
53.1466
26.492
27.6943
48.9006
50.7793
31.996
33.901
10.0519
-3.37409
8.98912
13.1978
3.45187
-6.82959
-13.491
26.8573
59.8112
88.49
98.6388
50.7969
-0.579821
-44.7297
-87.6356
-79.9408
-98.9081
-104.313
-77.4772
-41.6321
8.96187
37.6239
61.0671
60.341
60.2379
65.7613
63.4786
30.2337
-12.91
-59.9327
-53.1441
-39.9961
-32.1632
-16.7225
-9.32799
-29.7293
-18.9562
-10.7936
-19.4605
-46.74
-51.5914
-23.5511
-10.9815
-19.8834
-1.39449
19.6482
36.1677
44.4097
44.7616
48.5626
75.3203
66.1343
57.5452
64.076
54.3564
16.7347
-11.2471
-25.3896
-16.3151
-23.3843
-46.4123
-63.6558
-76.3381
-71.5472
-64.6372
-46.3935
-10.6989
-33.1867
-25.6732
-7.28305
-9.52285
26.3037
65.569
78.9474
98.9992
95.3533
91.6947
63.7791
19.2155
-22.4848
-61.2346
-51.1368
-32.5205
-12.5061
0.661806
3.45637
-9.91537
6.78196
12.9217
0.839173
-61.8709
-98.3812
-80.0832
-51.8911
-48.5968
-37.0997
-24.5052
-13.2417
-4.91365
4.43864
63.8219
66.7336
84.5166
108.043
97.9821
77.63
39.5952
-9.85663
-15.6691
-21.4322
-19.3963
-4.09248
-15.2731
-32.7455
-55.5665
-62.158
-27.6774
6.87786
26.1754
35.4984
19.3216
15.5537
-2.74404
-47.5384
-46.4016
-26.6402
-24.073
-3.52335
0.825149
15.3542
14.4281
-0.0840124
-24.3255
-30.4251
-8.25937
-1.19363
-2.91747
19.9035
30.5938
35.5985
50.1159
15.7925
-33.4944
-38.7494
-13.2095
-1.29027
6.56489
26.7019
23.355
4.41178
8.89721
30.2511
55.5005
54.3132
35.8932
23.0847
6.3406
-17.0577
-46.6748
-59.5381
-55.973
-44.5803
-22.6712
-18.6553
-29.9257
-35.7151
-44.5068
-29.021
-8.64309
0.813196
-4.02601
-13.0281
-35.4165
-31.4004
-15.3422
18.6383
59.1713
66.9168
80.5003
90.8383
72.3716
75.2889
75.2664
65.2215
6.0255
-31.7725
-43.8744
-75.4451
-78.3247
-32.8211
6.29796
-6.30558
-37.0398
-17.2514
32.5721
10.7993
-19.8518
-21.7096
-11.4824
-15.0052
-42.0348
-27.9784
-1.0817
-8.91334
-14.7695
0.00292689
38.2339
50.2213
14.218
-14.8342
-18.5163
-13.8826
8.37159
17.2392
-3.06707
1.78725
-3.83664
-19.2864
-15.6271
13.745
19.9489
16.7354
16.3208
26.6517
25.3106
2.19163
-28.2844
-15.8147
20.4919
18.7768
22.6899
34.7734
34.8667
18.4464
-0.831172
-13.5454
-43.1101
-22.193
-40.6988
-61.1498
-60.7229
-46.732
-27.4351
-13.6933
1.39218
14.8697
16.6068
8.74491
3.17136
2.80304
-11.9585
-27.8226
-13.6973
22.1816
7.38332
28.3945
56.2885
53.1693
62.6805
55.0266
51.4685
52.8356
13.628
-5.44753
7.95994
2.77485
-8.91068
-23.4368
-5.42743
27.2873
17.5644
1.92637
-16.8513
-57.7815
-71.3798
-79.3311
-62.0512
-39.2107
-35.0173
-40.7447
-47.4298
-58.7483
-31.8459
19.2061
40.6705
23.7659
56.593
49.1127
14.1544
-10.7986
-11.8333
9.01599
25.1733
44.3989
45.3765
26.4658
8.37044
-36.6536
-49.9209
-31.7837
21.1126
58.5902
58.5051
20.7106
22.855
32.4589
11.0106
19.0461
13.3161
5.91868
9.95819
0.750912
-7.03567
-6.11539
-4.43919
-2.46756
-37.2588
-61.4957
-48.206
-55.3306
-64.5665
-60.217
-36.7713
-6.62027
-8.03898
0.797326
16.8238
1.51182
10.4754
22.0037
18.1174
17.2246
8.54289
-4.7526
6.77999
14.5597
8.70738
39.0375
61.8974
63.1723
57.6346
40.8699
18.0999
-8.28608
-28.1002
-37.2579
-25.4685
6.99316
8.59576
-11.4079
-25.7393
-35.2399
-46.3933
-16.7881
17.7975
10.9182
26.5403
17.5547
0.734119
13.981
-13.3306
-32.3975
-29.8542
-41.4234
-37.6507
-21.9397
-29.243
-38.8558
-31.8491
22.0535
80.8418
74.1198
57.1144
23.2833
5.49226
5.96707
-10.0661
-12.3557
-4.45974
-22.0911
-33.3955
-35.4113
-30.7984
-14.4219
-1.67975
10.3674
5.67231
38.2935
55.0757
27.1896
-24.7933
-44.4259
-38.4373
-23.5667
-10.8064
12.1512
64.9012
100.207
90.6581
83.7032
83.018
53.0649
-0.830229
-28.3087
-47.8911
-37.9658
-40.7516
-68.8145
-89.4867
-105.753
-109.08
-92.0643
-76.4385
-36.6685
17.131
60.59
57.3757
47.4625
48.9645
27.484
8.24752
22.7388
15.3951
21.6526
25.009
14.6224
9.51599
6.54827
12.4851
31.2075
34.944
36.2967
54.3755
33.7524
-17.4419
-48.1976
-53.3337
-82.3628
-94.645
-52.6152
-39.4554
-28.0001
3.1378
17.7457
17.1261
3.93011
17.5431
48.0926
41.1544
10.2402
-2.07183
6.18243
7.1922
4.92328
7.95062
50.1717
61.5422
56.8308
22.4137
-19.2614
-22.2665
-18.8342
-39.0075
-35.014
-7.60765
3.47542
16.7914
10.1661
6.05207
15.1821
20.9284
23.799
20.1949
30.1731
-4.04813
-73.7913
-111.682
-113.695
-94.8496
-64.1079
-44.7064
-2.55424
55.5297
91.6873
88.3043
67.1519
24.3983
-5.72727
-15.6895
-35.9354
-28.7825
23.3596
23.6619
-3.37671
-9.30354
-5.58285
8.48956
11.3951
14.7841
32.0565
33.5606
4.60866
-7.74881
-26.1807
-37.489
-46.2835
-34.4805
18.3669
43.6886
63.4547
63.076
34.0856
25.0903
-1.31093
-7.50974
10.7097
-0.219882
1.86016
-12.9489
-45.4031
-54.6222
-67.8008
-50.4262
-1.97183
24.9704
61.8065
64.8446
32.38
11.4617
-34.8909
-91.7588
-103.979
-53.8289
-18.6948
14.2468
18.3246
28.1684
10.8908
19.073
31.3565
35.5954
60.0612
27.4114
-38.1627
-68.9686
-26.7703
16.7259
29.6716
29.4078
49.5156
61.9075
32.7377
-1.37461
-21.1842
-48.8925
-69.9723
-81.4934
-56.6786
1.87554
14.7719
13.5478
-3.56051
9.92921
22.524
26.2602
-16.2784
-18.1918
-28.6266
-16.8289
6.80534
30.3356
37.4594
28.0827
26.9115
50.6769
47.5165
52.3338
52.6969
16.9131
8.04178
8.47581
-28.3794
-34.5884
1.36487
-3.12743
-27.8308
-52.0694
-42.3079
-24.1304
-20.943
-15.5644
5.71807
30.4509
20.5387
2.66275
0.939732
9.19285
-1.05773
-27.1141
-24.3427
-7.30183
-6.3021
-14.3937
-55.6696
-55.577
-36.4374
-52.7922
-25.9278
-3.47991
-0.726522
11.7485
14.4611
-2.51334
18.4366
12.7202
19.0392
16.6427
21.6572
51.6385
57.6733
43.7275
39.9043
16.6484
16.8857
27.7008
24.2156
34.8468
26.9167
8.45179
-2.16098
-28.1857
-44.7464
-13.7037
-18.19
-41.8853
-43.9359
-31.9343
-11.0877
1.3634
1.72222
18.4825
58.8165
88.1107
61.7098
27.8459
5.47392
-3.96086
-36.1482
-54.3818
-47.9971
-22.0927
-27.1874
-65.5067
-64.2754
-48.5188
-19.5933
2.59836
-10.4375
-5.14472
12.9465
-12.2072
-37.438
-42.7537
-37.2531
-48.0919
-52.2034
0.495275
3.88215
12.8202
45.4571
63.1336
58.8464
49.732
68.7622
126.111
150.516
137.961
107.71
46.9508
-10.4872
-43.4826
-64.5494
-70.3428
-56.2642
-32.8387
-16.812
-17.3486
5.38991
17.5092
5.98679
-11.7814
-7.35835
3.28554
-42.3678
-85.6918
-123.315
-138.298
-118.147
-100.105
-50.153
34.8366
77.3418
80.3086
80.7856
79.0674
80.3525
45.425
38.8488
19.4176
-9.15216
-23.1784
-27.2809
-37.3558
-42.2881
-70.8382
-62.8651
11.1602
40.4561
64.837
46.4343
15.0994
14.6093
13.3911
9.2411
13.9596
33.9743
38.1419
5.8668
2.70088
45.9689
45.9664
30.5555
8.75423
-14.499
-17.6889
13.8908
-1.3793
-11.9288
-26.8866
-29.0743
-31.4994
-50.1125
-51.0824
-32.5553
-15.8774
-45.4479
-71.7356
-77.2249
-58.8274
-51.1925
-35.9251
5.98814
33.7813
63.4122
84.7232
48.0255
50.6625
110.818
109.111
50.7302
12.5134
-22.2912
-66.3999
-84.8734
-64.8641
-38.734
-18.804
28.5865
33.1427
46.2036
55.5801
34.518
35.8228
31.9929
19.7404
19.5213
-25.9953
-76.656
-91.9065
-59.0689
-0.728032
39.0761
39.2142
2.80808
-25.4742
-41.4707
-75.6758
-104.484
-69.8016
-23.7102
26.6115
82.2367
106.343
113.704
88.9841
80.449
71.0723
24.3042
-17.0025
-43.1071
-84.9819
-72.1137
-57.3843
-50.0857
-33.9264
-21.5752
5.61987
4.2498
-17.668
-25.5617
13.3758
56.4962
47.0313
23.2014
40.9074
21.9568
-26.1196
-57.7134
-35.8877
0.0182018
13.6649
-6.41222
1.36887
32.107
21.2562
11.7918
11.0858
38.1706
23.7498
-0.503092
-18.4006
-55.3209
-80.1155
-72.5767
-44.1683
-51.3635
-20.064
35.1828
61.9226
70.8666
48.1371
28.2736
36.6707
42.6533
76.4643
95.7693
68.199
27.575
15.4853
-16.3733
-59.4805
-111.159
-109.865
-72.6146
-58.9621
-43.4776
-37.1821
-46.0336
-57.4279
-70.8403
-8.94261
47.1909
51.6545
44.023
14.7329
1.44929
-9.19813
-16.3926
50.4265
69.7837
59.1057
71.9312
71.2727
46.3797
8.93579
-41.1723
-57.9236
-46.9102
-31.6312
-4.44106
-5.27809
-12.427
-0.36028
-5.61995
-8.95573
16.2263
59.4954
55.2658
15.9342
7.76491
19.0902
-11.4194
-41.7234
-45.2198
-24.6195
24.7491
33.592
40.6762
37.568
25.0107
44.1576
46.7697
4.99664
-17.4142
-8.45356
-32.3633
-54.5488
-59.2305
-90.7966
-130.272
-167.39
-148.559
-102.089
-51.3216
-7.52561
0.703993
17.7394
18.5776
11.2638
41.7148
55.433
52.9754
84.692
113.909
103.839
110.839
96.1499
84.3579
99.8388
86.7236
99.4301
100.565
67.5195
21.0735
-36.8058
-87.301
-113.839
-114.806
-60.4957
-35.4079
-23.1273
-17.7102
-29.485
-38.8327
-36.0171
-52.0485
-43.3882
-44.6748
-57.8959
-50.8358
-58.0257
-59.0195
-47.0769
-33.2778
9.88865
42.2314
60.2583
69.7266
46.3448
-1.77684
-77.0704
-113.507
-74.1406
-33.2842
-3.26029
24.5133
58.117
95.7393
85.8007
82.6932
110.741
177.332
179.859
125.755
60.6273
6.20444
-37.1903
-58.2714
-76.0501
-68.9479
-33.1822
-5.86001
-15.4423
-29.4926
-40.6979
-62.2125
-89.6933
-92.6743
-81.726
-26.458
-15.1273
-55.6223
-54.8915
-34.3576
-8.85874
5.5133
-31.5401
-36.3677
3.12073
-1.97896
-9.23354
43.2638
109.264
143.485
128.059
117.119
129.287
107.588
30.2141
-38.1612
-65.9324
-80.0851
-105.006
-92.3456
-70.2844
-26.4898
41.4565
80.8492
63.7725
27.5492
-10.4674
-28.5193
-46.6892
-71.6403
-69.6047
-32.0327
0.987877
28.0967
42.8244
24.3784
9.29803
-20.6212
-20.0076
-25.0501
-48.8144
-74.1083
-60.5846
-42.6645
-32.2256
19.5438
68.6616
74.9896
74.0023
87.2955
87.3817
46.9572
-1.96581
10.1669
23.6744
13.3026
-9.24511
-22.1699
-19.6215
-21.5471
-12.3583
18.3619
10.6495
-23.143
-22.2697
-29.2701
-41.6997
-49.3033
-47.9179
-27.1652
21.7492
45.3775
39.7272
-7.3966
-1.55635
19.6025
15.9963
-6.45777
-11.4365
-4.38398
0.466163
33.719
60.6218
56.562
17.728
-21.6448
-26.1755
-21.804
-53.3119
-62.2752
-84.559
-80.9512
-65.319
-47.735
-30.2346
-13.4619
6.16525
24.9883
55.9691
67.5266
85.437
82.2046
66.1405
82.0246
90.548
77.3067
38.2269
-9.53254
-40.5693
-64.8851
-82.8129
-62.1569
-41.997
-26.4202
-8.17087
3.40185
7.30197
20.4531
11.8044
-5.22982
-37.3671
-44.5993
-40.9573
-37.2908
-10.6384
11.8262
30.0495
52.2652
41.0674
-2.59151
-44.6609
-46.7142
-56.6557
-53.5369
-9.54562
29.7016
49.3211
55.9757
60.5523
87.4901
104.859
75.4907
32.462
-20.6084
-71.2735
-57.9308
-62.8424
-95.4703
-99.6552
-55.2301
-12.5529
-7.80452
21.3555
93.4178
99.848
86.6903
72.835
70.1443
49.0597
4.25928
-25.9684
-66.5861
-84.2397
-41.6841
-32.4967
-52.4408
-45.2504
-15.2055
22.557
36.7622
25.9074
21.6608
9.61767
-30.6485
-68.9916
-98.1749
-107.959
-95.0609
-82.4335
-36.4232
-20.3016
16.1788
66.5369
94.9596
122.788
110.941
92.2562
77.6925
35.1848
-4.75304
6.08078
23.0163
32.9117
7.78365
-10.6489
-18.5552
7.22615
16.1165
21.944
10.3832
0.00882068
-8.23654
-21.9553
-80.8251
-109.149
-75.3272
-21.2453
51.2548
112.248
110.176
66.0805
16.5258
4.52116
-14.5925
-43.0128
-55.2562
-48.3173
-50.0003
-59.4557
-59.1938
1.82296
27.5725
27.1463
15.5934
36.3562
42.6772
-19.3864
-89.5083
-115.804
-103.775
-70.1558
-56.2303
-56.4697
-25.45
23.2478
29.3016
-12.1459
-30.7919
-39.8577
-47.0137
-25.5693
20.7006
83.2587
140.982
152.658
126.242
138.932
142.349
127.599
103.819
60.6408
18.7959
-11.7768
-39.6317
-67.1414
-54.0507
-45.5791
-1.41448
62.6694
82.9496
48.9466
-6.73478
-68.7399
-96.5541
-140.178
-143.347
-133.081
-128.218
-90.3224
-53.2607
-8.77014
38.0494
