59.2797
106.733
76.6636
-9.48654
-12.4398
-69.1236
-63.6201
21.7877
16.887
45.8651
20.9002
-36.156
0.268461
-10.3215
-62.9055
-112.666
25.5317
76.7542
36.0477
-8.87983
-15.3342
-2.9752
-14.7383
-122.437
64.7639
114.445
87.2821
-5.54873
-12.1789
8.03321
-23.8313
-73.5042
28.6229
23.5236
28.7408
24.7096
-51.5747
-44.2701
-67.123
-61.5325
15.4059
19.8389
40.0771
90.4732
-8.63022
-35.2678
-64.7272
-103.429
-55.9631
99.4586
96.6771
81.8603
25.8596
6.96023
15.4927
2.39975
-78.183
18.2519
41.0012
13.6911
-31.5048
-28.4153
-18.4803
-2.86423
-57.0701
-130.988
-8.21322
123.625
86.5381
-0.953571
-2.21047
0.984587
-12.6666
-23.5181
-60.9961
37.6515
71.863
4.93359
-1.11057
-5.42318
-18.8984
-52.9821
-43.5129
50.2142
26.424
66.0469
33.0194
-35.1671
-34.8827
-109.538
-20.3633
29.6272
12.6311
18.9688
49.2876
10.0271
-10.3146
-72.1695
-13.5124
56.5163
28.0575
38.4331
32.0606
-17.1726
-21.5371
-42.9331
5.17628
24.6474
13.8123
24.9673
-13.0148
-30.6367
-22.7555
-21.0709
-101.769
-59.9534
108.658
98.0208
43.8365
-8.52816
-10.6255
0.527268
-49.5964
-149.981
39.5948
148.788
67.4173
4.11723
2.46514
3.51456
-46.8436
-156.452
-42.6848
107.691
120.266
51.5363
-49.4937
-34.7325
-34.9937
-42.5478
-82.7019
-17.2861
58.1372
79.5064
-19.5203
-37.2215
-31.99
-39.2805
-101.392
-26.2243
82.0456
108.638
36.7391
-41.75
8.02153
-28.9119
-93.9983
84.9989
101.171
58.5384
60.5707
19.0409
-0.128398
16.2951
-67.2544
-162.617
-12.0604
78.1619
89.2163
38.7564
-20.464
8.0797
-16.2588
-93.7868
-79.5057
63.3452
60.2445
-39.5263
-54.2323
-38.6882
-8.56076
-59.4727
-40.6074
63.0909
46.5226
85.249
10.7748
-43.8492
-19.4197
-69.3948
-37.0078
51.7892
21.1977
18.2169
37.7833
-0.148319
-15.9896
-146.502
52.7646
168.082
179.677
122.394
29.8925
-52.8961
-56.0287
-83.1949
-75.1634
-52.6954
-33.1238
-7.539
-32.5972
-47.1101
-32.0868
-18.4734
-82.3516
-75.5071
88.8711
113.704
-10.6412
-71.222
-70.1597
-17.6478
19.5587
-16.9862
-110.6
62.6737
180.365
97.2285
78.3469
70.9968
39.3578
12.7531
-60.4032
-68.0959
146.652
80.8641
-19.7975
-5.92039
-53.0648
-75.5487
-104.171
-112.249
27.7671
41.8462
93.2388
31.5857
-76.4401
-62.6721
-80.8148
-80.0162
49.1073
44.6135
67.0121
67.8314
-10.793
-18.1207
-54.9108
-71.8094
-55.8157
43.5991
48.3473
61.2408
-8.22155
0.0922842
31.9224
7.77182
-88.8907
-46.6086
63.8849
66.2387
-11.4079
12.039
53.8663
42.7942
-48.88
-26.4783
31.4531
37.2538
4.35529
-62.9257
-52.8938
-43.8435
-118.059
5.2665
69.5327
44.2146
50.3088
42.2634
4.56287
-19.5383
-71.2625
30.5795
3.55676
-20.247
-10.8413
2.23409
-0.205252
10.0569
-64.947
-55.1032
91.901
232.865
151.66
22.6121
-52.1436
-75.1849
-71.6966
-145.787
-106.586
48.0156
33.4265
-41.7311
-16.6392
49.2674
54.5335
-7.47643
-76.0263
-96.6277
4.13914
57.758
-20.1047
-84.0344
-23.6925
-10.6075
13.6642
-28.7353
-1.45511
140.827
91.7651
-3.89969
-33.0415
-60.5957
-64.3602
-102.794
57.8251
87.5246
78.2172
171.104
288.834
184.671
2.09929
-147.979
-45.6918
29.7011
-10.327
-14.7032
-44.1991
-94.9912
-97.4552
-153.475
-57.6813
9.47081
9.92419
19.6751
-55.7806
-55.4525
-36.0655
-86.4876
-235.678
-114.272
77.9691
100.845
57.1285
11.6307
38.9707
74.6192
46.2156
-26.4885
80.3032
109.171
72.9237
26.0853
37.7934
49.8685
-28.787
-54.9563
68.4825
60.3042
41.9592
-35.4898
-72.1337
-33.9251
-80.2967
-72.521
23.6178
60.504
83.6526
85.6521
4.09878
1.66782
-11.7462
-70.023
-124.64
38.1009
39.4512
26.7128
-45.4941
-34.9229
-25.1883
-79.2996
-104.93
19.8406
36.7997
12.4901
-28.0071
-23.3841
-14.0477
-27.2557
-59.193
21.4443
77.2221
65.078
87.1926
-2.13995
-2.46865
12.4502
-24.7096
-95.5789
-48.0948
-27.1519
-50.1435
-61.1761
11.4096
113.958
186.757
87.6486
106.535
120.252
112.223
35.2509
-9.02516
12.6761
-34.4547
-123.613
-112.757
-49.1647
110.999
140.582
92.9927
49.7983
-102.762
-113.186
-137.897
-214.566
-273.656
-208.166
-181.996
-150.06
-137.518
5.75646
155.681
184.74
140.252
98.655
53.809
-40.2626
-206.99
-149.113
-1.60771
36.8458
243.676
363.539
473.153
492.528
328.814
179.316
-37.4483
-142.109
-72.1111
-167.886
-264.449
-263.259
-148.048
-96.3817
-96.2997
-142.209
-48.3293
21.1794
-24.0138
-34.0203
-43.3765
-132.119
-195.111
-224.565
-199.915
-53.032
104.056
152.424
121.361
114.749
88.3971
75.5003
36.1697
101.664
184.032
225.34
152.451
86.7878
8.81147
-17.2261
-74.8578
-29.533
-66.2015
-99.2766
-55.3814
-85.8846
-121.706
-126.771
-120.511
6.65006
107.639
242.016
340.84
268.925
180.883
25.3856
-163.426
-217.172
-150.944
-93.0112
35.3593
27.3118
-74.7841
-124.929
-165.846
-93.9601
33.6806
39.0923
-7.35367
-41.268
-102.695
-209.456
-273.271
-175.412
-107.234
-24.1504
30.1618
86.7827
85.8219
79.1717
30.778
148.942
232.719
453.249
688.538
382.559
92.7521
3.68837
-123.089
-216.866
-172.262
-130.551
-122.209
-166.219
-140.082
9.48835
23.3549
-96.0247
-101.742
-4.64407
-33.8416
-164.658
-168.273
-229.947
-273.661
-112.357
-61.6399
60.2078
241.367
219.792
144.858
95.4311
104.77
89.9652
33.3268
-83.6205
69.4152
235.324
147.672
44.8131
28.4045
-22.8635
-28.833
-129.892
-110.688
-29.7959
74.9524
107.445
45.5092
-7.37463
-96.7099
-155.065
-21.4863
-20.6472
-11.826
61.3633
93.8542
71.0144
-31.1909
-134.771
-13.8609
27.6999
-12.6381
-56.7862
-131.279
7.45652
76.9117
-95.7252
-70.9795
18.1327
35.8343
70.7334
27.0147
83.6554
95.8981
26.349
-151.488
-222.493
-7.14542
45.0381
-57.4089
-148.801
-80.387
25.6983
-36.6516
-106.187
55.2385
268.687
252.428
38.3147
73.8355
98.0714
-30.378
-52.2158
-11.927
-11.1117
-25.9573
0.493635
-30.4902
0.415371
17.5141
8.68103
-13.6756
116.396
115.09
81.6332
-31.5245
-77.0911
-124.102
-51.5375
-110.085
-98.7493
-54.6509
-58.7441
4.6673
147.425
121.485
69.588
74.0816
155.098
170.298
2.7793
-41.9218
-140.738
-110.979
-64.5771
-100.277
-180.331
-143.866
62.0816
61.3539
5.8698
3.12747
-27.9588
-111.552
-191.939
-109.093
86.4998
42.4334
12.1213
-8.5353
90.7062
77.783
-18.343
90.3951
142.85
98.8133
101.943
52.2209
-113.208
-140.253
-82.8683
196.75
249.238
88.7961
-0.911483
-10.2862
-79.1322
-86.4584
-121.162
-47.7825
71.1912
70.3393
37.2405
-65.4271
-91.6073
-18.8539
16.4991
48.9902
110.478
107.987
25.2574
-207.249
-196.805
-3.37893
155.126
8.8936
-197.263
-74.5309
-23.9806
-82.3671
-53.7553
49.4861
256.774
204.782
-3.56151
-159.236
-120.242
-15.1847
-89.7105
-76.7024
28.7683
56.8108
-17.7627
-84.6438
-40.1215
85.2314
129.445
71.8507
68.7605
48.5829
10.567
-43.5442
-97.2433
-68.1021
-57.6509
-36.8669
-7.62164
18.2899
124.396
39.6401
-76.4405
134.97
192.532
258.271
58.6289
-83.7975
51.4049
-93.1771
-263.381
-131.057
-34.0372
24.5955
-31.9363
-42.9678
40.1853
65.39
2.54771
-120.665
-143.049
87.1302
128.315
-3.17231
-21.7168
-59.9762
2.57491
61.3898
51.5096
116.056
127.95
53.0963
-10.0875
-51.0007
-111.795
-137.128
-33.3958
2.22134
-1.6411
-8.6885
-13.2615
-14.9685
-46.3418
-157.055
-12.7103
77.0984
58.3181
49.675
41.4789
62.3737
-19.1196
-67.9526
29.4106
102.66
3.42375
-57.5008
-37.1786
15.0455
46.7394
59.1127
-25.8905
-5.31464
10.0007
-21.6993
-102.107
-108.613
34.9963
88.8957
-24.6264
-145.832
137.47
130.052
-127.739
-203.444
-26.4796
99.7926
16.4126
41.1453
154.042
367.857
256.841
64.8285
76.597
67.9715
-42.0654
-276.45
-318.251
-186.906
-113.718
-21.0049
-5.06002
-0.378924
-36.9192
-98.2302
22.9458
41.597
46.8709
18.1226
-48.6615
-149.905
-60.6634
-68.2455
111.511
152.584
52.7973
-31.0809
-128.013
-40.204
70.1044
152.136
91.5681
122.049
102.535
90.9021
-8.6046
-6.13363
32.1512
9.82862
-66.3601
-85.8764
80.1956
97.3601
-41.3425
-119.825
-164.65
-80.1502
-84
-44.5082
52.7806
-26.04
-25.8465
-20.8811
69.6524
114.656
45.6556
-26.6601
12.1637
26.1359
2.88213
-40.4377
-36.0926
22.0574
-19.1841
-17.7031
-16.2409
143.589
224.532
100.64
18.5875
28.758
-10.9977
-97.1702
-158.466
-101.93
-137.106
-114.976
-87.7692
-53.1968
-4.72436
-31.4521
-137.891
-134.193
67.2489
201.324
235.826
233.568
251.63
207.284
160.603
2.66918
-223.015
-298.515
-192.803
-203.436
-72.9392
42.7328
74.8644
26.7984
-66.0264
69.1869
161.9
92.648
-120.807
-177.486
-74.9348
-89.2094
-137.001
17.6167
36.2079
78.9351
150.143
156.434
129.374
73.4619
-64.0041
13.7426
-11.0363
-20.0269
40.9411
47.1282
61.6864
51.7154
-3.0834
33.1012
83.0188
22.9359
-3.40108
-123.361
-224.649
-226.244
-186.471
-86.6053
82.9013
170.02
166.128
45.9188
-1.68466
72.2112
123.712
3.30702
-134.318
-10.1537
-27.2419
-116.738
-98.5146
-54.6063
-30.1395
-44.292
-16.6609
25.088
117.597
204.535
90.4783
-7.31792
-48.936
-176.65
-219.115
-210.003
33.1047
157.916
168.915
146.313
195.5
164.519
70.8644
-98.5142
-244.109
-286.03
-206.563
-73.9325
18.8343
187.035
347.794
135.717
208.346
273.898
135.443
40.575
-121.292
-233.783
-231.349
-256.237
-279.476
-181.168
-86.5211
22.6577
158.324
157.521
135.772
173.848
143.429
-104.111
-260.244
6.51405
-3.16376
-11.781
27.5059
5.43491
-77.2939
-171.589
-53.8961
66.7237
100.521
34.5734
-17.8282
99.8832
119.485
109.139
199.353
75.6839
-174.345
-311.833
-199.964
-32.7237
23.3089
-45.5512
50.574
91.1235
129.892
126.539
10.3376
-85.5469
-46.8506
-70.7049
83.849
147.659
230.673
200.893
32.4016
25.6591
106.042
105.833
-56.2658
-228.589
-235.428
-109.687
-79.2682
-68.8913
-46.7908
4.83935
39.2659
64.5263
63.4689
30.3971
-1.9379
-224.475
-446.796
-390.816
-175.704
87.9386
228.282
320.331
438.202
367.306
19.5699
-188.02
-198.837
-262.467
-442.288
-472.769
-248.929
72.4755
198.032
275.071
231.846
278.133
309.1
199.213
135.7
182.714
150.243
164.221
65.4202
-13.3592
41.7219
-6.89135
-152.893
33.8876
184.781
210.356
89.7054
-97.6886
-165.884
-174.315
-280.421
-311.727
-151.228
65.6806
-79.5597
-284.874
-326.423
-309.859
-247.937
-214.346
-76.1227
182.302
262.904
183.46
146.839
188.476
186.209
136.486
213.242
224.849
122.721
-39.1979
-165.237
-196.989
-172.19
-238.766
-169.671
-21.9139
165.306
220.668
201.139
121.698
135.378
108.651
83.437
-50.2084
-5.84521
-35.2832
-47.4572
-70.8472
-47.5982
69.0932
2.40156
-236.172
-178.896
35.6087
105.086
44.1971
-73.8792
-52.2177
1.14993
-32.9999
-20.1131
25.126
150.887
343.04
117.901
-103.518
-280.093
-276.416
-136.887
-47.5793
99.4429
207.961
168.076
32.1463
-40.323
-106.52
-174.139
-136.604
-48.1794
87.8288
76.6021
58.1479
45.463
-11.8386
16.7338
-24.2668
-47.5225
46.6014
5.33226
71.5871
74.9295
120.416
81.4933
-64.9747
-22.0264
1.54692
47.2984
119.867
175.918
17.3928
-173.228
-376.894
-323.704
-174.469
-43.409
143.735
207.719
136.796
12.9899
-205.932
-268.477
-167.465
10.8346
201.047
157.397
155.69
95.2895
20.2416
-47.5952
-55.2179
71.3426
231.406
289.141
155.924
95.8972
27.6985
-78.1492
-213.527
-234.526
-119.235
60.7211
197.422
130.834
36.2311
-8.82715
-164.388
-356.477
-371.88
-164.415
13.3381
87.5733
120.376
42.7995
16.4603
-9.13589
-24.1923
83.3464
142.763
136.757
87.3103
32.5533
-56.0522
-104.054
-93.4097
-36.2639
100.785
172.194
178.419
69.8966
28.1642
15.0906
-75.5897
-262.412
-205.658
-124.993
-146.684
-97.5157
37.5284
216.208
337.556
119.008
-55.1475
-176.928
-311.823
-208.425
-127.254
56.9418
219.612
183.987
77.727
88.1898
76.3324
85.6861
69.5006
26.1018
30.673
-77.0907
-52.3648
-44.2934
-156.028
-70.6845
47.2409
153.754
163.064
68.9499
154.394
84.8065
-56.013
-95.6545
-29.0536
-30.641
-46.5374
-175.255
-168.108
-22.3631
-12.1397
-6.20442
-86.671
-124.141
-38.1026
42.7424
-13.2904
-58.6819
137.478
188.905
60.1128
1.01521
-39.7658
-51.5618
-25.7273
-69.2326
-69.7988
166.197
171.339
-3.39097
-60.7465
-97.0426
-96.6134
-16.2269
18.6927
100.236
15.976
4.50229
-91.5797
-135.045
-63.5763
17.7726
25.5608
160.152
154.879
132.358
43.2239
-46.6421
-64.8679
-126.757
20.6382
197.493
111.007
34.0217
73.0653
10.6321
-38.2007
-70.7281
-75.2895
127.954
60.4324
-19.8064
-48.0604
-133.634
-140.914
-78.2984
-16.6509
-121.04
-25.6324
76.1911
72.3994
46.0693
58.1942
12.1712
-78.0021
-194.542
-126.263
123.832
178.685
19.4869
-37.2921
-94.6322
-133.235
-181.847
-188.297
-20.8178
83.4476
159.097
136.474
201.569
174.981
-30.6591
-187.15
-44.8309
-39.3594
-60.4075
-70.1664
-127.278
8.54408
74.3243
35.9852
78.4697
287.54
274.614
237.302
177.471
194.415
179.357
-0.916
-337.494
-523.644
-429.886
-310.6
-147.378
201.865
437.607
429.212
222.549
-79.8194
-243.645
-95.1009
-106.528
-227.907
-160.021
-52.3221
-39.4555
-137.357
-49.2825
93.2403
118.066
132.418
181.224
259.877
112.15
-113.506
-145.842
6.67815
31.7233
93.1693
100.608
40.4115
-8.52474
-166.169
-143.496
-114.6
-136.359
-51.4131
-30.869
-94.0933
-75.9251
-47.9233
65.4878
117.336
94.0104
72.9571
46.9653
99.8421
134.198
45.2325
176.385
111.236
-267.612
-400.818
-260.832
-111.991
41.8799
140.393
73.4127
163.753
367.437
335.285
99.5761
-31.7701
-91.9217
-155.927
-204.372
-259.087
-85.5824
216.515
63.5237
-54.4214
132.19
260.454
120.708
-2.21861
-210.113
-329.402
-223.753
-296.354
-168.71
36.8676
137.73
213.095
148.53
102.376
143.264
102.055
54.4031
-75.865
-129.969
-144.445
-129.617
-46.93
116.18
36.068
57.5919
112.362
78.8045
51.5343
-15.2021
-34.5932
-50.4194
33.7485
42.5168
20.4861
-38.0673
-57.4533
-116.874
-111.759
-103.039
-67.046
202.549
222.213
54.4838
60.979
27.3798
-72.7739
-146.778
-183.685
-182.241
-41.1449
45.7733
85.2242
107.186
89.249
8.5197
-78.7085
-80.7788
-105.208
46.5466
206.202
157.05
107.832
-5.33706
-100.085
101.6
209.441
223.189
116.591
-159.393
-479.95
-538.497
-383.446
-20.7986
144.311
218.927
241.827
176.522
136.103
39.4789
-65.9261
-62.2648
148.893
95.93
-4.72625
-115.325
-112.075
-78.8808
67.4355
213.928
255.555
289.302
161.111
-186.099
-381.104
-361.777
-204.775
-174.969
-185.314
-88.617
81.5799
121.477
25.7181
30.2062
71.7807
-33.0269
-68.9964
19.0505
125.444
144.317
184.319
120.187
7.77063
-19.6089
7.37857
84.2132
123.275
88.6488
67.3911
29.4128
-20.3234
-56.9774
-197.524
-140.763
-204.16
-168.946
-31.381
-4.60043
-40.0507
-17.916
28.4085
-16.6008
-51.5015
110.022
164.494
92.4262
16.6923
-10.2839
-27.4755
-51.5051
-87.0677
-56.2598
98.951
107.746
169.452
128.045
25.174
-65.9427
-153.674
-143.487
71.9026
158.289
97.2673
-13.2562
-4.54864
-74.6508
-122.961
-18.1772
69.3246
-34.6927
-76.6328
-122.974
-155.238
-97.2068
-125.39
-246.226
-84.122
78.5252
231.068
258.034
93.4575
7.9293
28.7168
-3.49888
-32.8533
146.8
271.952
184.194
167.511
167.373
-7.08209
-94.3199
-169.023
-286.735
-34.3024
214.409
106.684
4.77555
-87.1871
-108.394
-126.264
-136.72
-121.852
32.2227
59.967
-38.6979
-144.011
-136.559
-138.999
-116.378
-6.32088
134.894
153.228
168.317
33.7825
-77.7896
-80.6061
-122.666
-57.2544
22.4034
0.496035
61.9549
114.375
49.8385
60.6269
-6.76797
34.9139
46.8404
27.3011
46.6482
76.4388
78.8394
49.9189
1.48389
-15.3799
24.1149
32.1919
89.3997
82.5345
61.0636
39.3819
-55.1869
-215.843
-188.51
-118.829
-119.158
-188.764
-158.899
-103.189
-4.93061
16.2508
15.199
166.917
154.251
129.844
149.657
176.08
131.929
-20.4443
-113.615
18.0007
-55.3561
-96.9848
-69.2625
-7.21839
65.6066
83.2866
46.8655
-49.8696
-17.14
-11.2517
-28.5192
-44.4662
48.6458
110.85
29.9853
-139.765
-165.968
-170.342
-136.436
-157.892
44.5348
199.465
86.3314
-56.6215
61.9843
203.194
130.207
79.731
-39.789
-85.6781
-51.2785
-85.1872
-67.886
-21.8918
-1.89695
35.5201
20.7493
69.1644
87.4917
47.9941
-69.5412
8.84682
73.0325
117.299
87.2804
13.7011
17.4378
27.9353
-149.171
-368.747
-300.255
-275.135
-106.578
52.5918
153.828
166.812
30.2824
-6.10115
50.5128
104.122
172.12
123.381
88.8594
87.3134
-37.3571
-45.7082
16.8847
22.9962
97.7523
229.667
169.655
116.944
-39.1206
-204.47
-69.7156
-53.6263
-30.1695
-7.4751
-60.4402
-113.72
-82.3909
-79.5019
-140.938
-101.527
-79.9056
-140.973
-136.061
-96.8144
-31.2144
85.0858
93.5911
22.0137
122.909
150.315
-53.4849
-84.313
8.57239
50.7844
43.3355
19.4724
37.6354
163.257
128.451
49.2322
17.6686
-46.4577
-106.641
-108.92
36.9493
187.882
138.492
95.5475
-30.2696
-71.8482
-117.946
-177.157
-66.1375
75.0056
86.2943
87.2053
34.6665
-120.678
-122.358
-121.834
-14.3899
65.4085
210.206
253.525
70.9213
-127.266
-200.03
-87.7318
7.44983
-23.4395
77.635
164.781
38.1754
-181.558
-198.303
-189.874
-95.0515
-3.2798
-3.16958
-16.4981
30.1826
66.5253
107.233
125.533
98.2858
75.1486
25.4088
15.5413
71.0019
19.6995
-110.296
-147.34
-64.3001
5.84267
-4.7648
114.418
101.006
71.1226
78.0089
79.5918
-23.665
-133.055
-259.869
-120.53
14.3651
46.3109
113.461
100.968
-45.3787
-99.8494
-80.7232
-71.8548
-52.5518
130.513
97.5055
6.06935
7.1893
17.5986
30.9545
72.9092
-4.02123
-49.9628
-36.0833
3.9587
-66.0013
-65.4726
-26.4355
-3.10553
14.1243
93.0873
77.6991
163.044
231.916
81.0038
59.2278
21.1487
-122.208
-382.192
-524.934
-252.278
-2.83332
113.728
136.326
21.5424
53.6351
67.0714
-8.12493
97.7503
245.848
223.879
186.95
71.3534
-83.5777
-190.782
-303.72
-246.849
27.6467
217.37
350.8
186.491
44.0107
36.2349
-6.04624
-151.337
-102.938
-99.4538
-104.275
-161.751
-171.035
-77.6709
-3.56519
-20.2373
-91.8499
-21.5294
129.447
169.48
158.808
146.452
90.0957
-42.5899
-273.721
-209.977
-80.2684
27.2161
53.5177
91.6062
129.651
96.5794
-21.6334
-37.8555
76.3861
88.4698
105.273
88.9245
49.8408
-78.3884
-173.328
-204.515
-132.514
130.405
227.733
134.951
-18.5279
-94.1553
-82.3415
-71.2479
-34.7058
94.2171
47.1599
-23.9559
-135.016
-182.133
-144.607
-64.8361
2.03163
25.3019
98.091
142.349
135.247
8.53677
41.1455
46.0603
54.6909
4.38396
-101.627
39.4181
122.652
-0.514778
-6.93989
11.6644
18.6041
52.9475
35.028
63.7458
-38.9957
-82.305
-150.563
-172.075
-156.481
-146.847
-41.7112
53.9674
66.0674
79.3541
88.0213
23.1085
-21.4811
-67.387
-4.50777
100.856
62.2772
59.6258
34.0989
-27.3341
48.1176
68.3312
46.6165
104.784
-17.0259
-85.2953
-5.33303
8.21002
60.5125
35.9052
-192.207
-418.265
-195.117
0.56392
80.148
87.6418
91.0932
73.9723
58.4989
-68.6452
-64.6945
-3.20095
164.718
191.714
233.443
201.186
104.35
-33.7681
-192.305
-255.179
-62.4491
147.419
61.91
3.99642
-46.8031
-95.1781
-92.5683
-134.691
-18.4662
94.7412
81.258
35.7712
-101.148
-114.067
-54.1428
-89.4114
-29.16
7.97358
39.6569
76.913
52.9577
-26.1016
-107.99
-99.0867
54.6971
-2.1176
9.47946
70.8737
54.2038
54.03
35.942
-66.5764
-113.711
-26.8967
-2.08228
40.4771
14.4953
15.5921
73.0431
130.453
102.431
238.788
174.398
40.0013
-107.793
-89.717
-86.7387
-97.5864
-126.918
-13.1746
11.5699
84.6722
80.0917
59.1888
72.1268
5.57508
-70.8157
-71.8873
-243.5
-225.388
-35.4019
-7.87337
-6.82679
-126.079
-164.834
79.2926
104.235
136.14
140.385
53.1392
61.9486
17.8193
-48.2577
70.6842
5.22371
-25.4757
-6.39302
19.3843
104.936
90.9446
6.65867
-145.35
-42.0254
107.498
101.075
-29.2884
-42.8574
-54.3045
-58.3889
-102.609
-158.499
12.0121
72.7118
-50.1322
14.2174
59.5329
-8.21549
-106.808
-72.6375
-24.1284
153.611
153.665
55.4567
24.1024
10.4647
-23.2739
-17.5092
-33.8387
31.0696
23.2686
38.3225
-2.08814
10.401
-27.7048
-78.143
-121.556
0.140466
79.6425
120.486
121.376
12.9274
-10.7167
-64.5914
-111.109
-37.9841
-87.8662
-62.3464
21.2743
19.0169
33.0676
107.434
82.5253
-36.1757
-88.7845
-73.7828
42.9929
7.61535
-85.2378
-75.0856
-37.923
-72.0094
56.6394
151.33
137.123
71.4492
22.3941
-82.081
-167.224
-191.89
-31.0513
37.8953
55.0663
104.148
99.667
103.968
28.1661
-35.9982
66.9677
147.588
78.7945
34.0335
-4.6226
-24.7224
-1.04631
-34.0132
-115.605
-151.011
-20.9478
23.4246
-10.2835
-19.5676
-7.83212
13.8866
-79.2448
-156.621
-5.13407
20.7546
2.92014
-28.1327
-33.0396
-40.2298
-41.469
-61.7987
-65.0632
105.599
194.559
175.558
82.0913
78.9492
8.14436
-42.9784
-94.6145
-132.786
2.27467
79.2852
41.9747
41.5602
16.4126
-6.64504
-54.5811
20.6389
70.8661
50.0339
89.5969
10.1241
-6.72829
50.8518
-59.271
-102.416
-130.205
-123.016
-113.233
-113.607
-66.6255
-13.2183
-100.559
72.6402
211.312
186.928
158.552
44.7895
-28.4557
-81.3502
-128.965
-63.727
-18.3144
-10.7764
27.5609
22.6463
26.6908
46.9074
71.3779
34.548
58.4963
170.616
140.211
-17.9652
-138.665
-190.757
-127.992
-57.0385
-114.399
-129.311
92.6129
68.293
41.9055
62.897
118.535
99.7175
48.7899
-31.3899
-50.7425
60.0531
0.978296
-59.0402
-23.3071
-17.3984
-21.0579
-62.5774
-73.9767
9.42698
-7.7194
30.9395
-24.054
-51.1953
-9.47679
-40.2989
10.239
71.7431
8.83148
-47.252
-22.1594
27.895
16.1722
-83.3057
9.05126
-7.62059
-33.6061
39.9044
78.5129
38.6872
74.5987
114.831
26.3268
-63.3727
30.9863
77.5595
16.8369
-87.2239
-61.1412
32.401
34.8447
-76.0875
29.0585
56.4702
45.3449
34.8899
28.3713
4.89466
-119.174
-287.618
-165.782
-79.7431
-39.2952
33.2528
9.12811
56.1761
80.4868
60.74
134.978
97.9831
42.3845
80.3881
24.1825
13.8072
-54.5503
-107.032
-20.7622
67.6812
117.089
145.293
55.0453
-8.65093
-82.6421
-218.729
-208.81
-49.2568
23.1493
40.1516
18.0946
22.7269
38.1375
46.3769
-22.8838
-31.4699
34.5729
16.8776
-18.0716
-51.5579
-83.1567
-65.081
-17.7353
-77.6726
-94.2711
147.655
176.48
32.5399
-14.3018
-5.60809
-11.8094
5.2539
-15.4868
-63.9623
27.0018
137.969
65.6371
92.369
36.4729
2.15097
10.3332
-67.3476
-23.0324
41.8219
40.6964
-53.7114
-96.2126
-95.8762
-88.3349
-92.0571
22.6192
72.4681
95.0517
112.794
42.8119
-84.0008
-198.353
-253.886
-131.507
22.9132
131.862
201.187
149.339
155.252
147.372
78.0926
-57.0307
-177.347
-91.1753
140.7
81.5259
29.0061
3.41171
-53.4528
-212.941
-291.891
-58.4769
136.923
104.309
-19.2338
-91.6149
-7.82568
-10.4399
-98.7423
-45.747
141.769
163.608
180.237
99.4796
-26.3671
-78.6623
-127.887
-132.569
45.5869
151.869
159.071
52.7854
-7.00656
-10.9495
11.0225
23.2758
-44.7295
-35.2048
-69.218
-73.3403
-129.43
-80.0938
-25.0556
-46.9755
-154.157
-165.437
38.7662
214.305
109.232
67.2681
94.0113
88.1892
29.326
-119.31
-176.949
-14.6184
120.88
53.5906
100.798
98.8285
22.5848
-9.60096
-65.1072
3.27437
41.9662
58.8064
70.0202
-8.0152
-24.776
-35.5816
-212.153
-261.831
-187.427
-24.4692
75.746
39.3391
20.2848
8.34185
20.8134
171.174
93.2889
53.7715
77.8059
29.3773
17.1015
-13.7714
-72.1446
-10.753
21.2714
38.0368
115.018
98.0449
37.4018
-47.3463
-143.399
-197.434
49.9153
120.258
108.841
3.51535
-62.3807
-153.804
-114.109
-125.016
-23.4336
26.0952
-35.7228
-84.0995
-55.1495
-5.28343
70.2939
47.6761
21.3134
134.471
193.625
175.606
-10.0226
-57.23
-24.4601
-32.6508
-37.2332
-43.7957
2.07241
-23.7629
-72.6858
-61.4804
-37.3529
-48.2147
-64.8657
-133.408
35.9676
192.967
190.813
119.701
98.3907
105.773
40.9835
-62.5878
-118.209
-156.361
-156.444
-38.5328
-31.9812
49.6707
64.004
41.104
-59.2989
-53.4588
75.4362
111.837
67.9197
-15.8719
-88.1959
-117.431
-95.5752
-107.962
-116.033
55.8731
97.3741
99.4258
139.698
152.829
111.526
7.04554
-23.7099
12.1158
6.50896
-7.77278
-58.845
-32.1052
-61.2045
-130.934
-26.4268
61.9812
25.8339
34.4799
13.3139
-38.7648
-40.9464
-77.1953
34.8914
-8.08745
-52.7527
-32.411
17.1781
13.6542
0.241126
-7.42079
8.93971
-33.187
-10.8602
62.1065
67.4327
30.1475
-21.1249
-125.581
-145.109
-18.2236
51.5368
108.796
68.5025
51.8641
58.2009
77.3503
-20.0362
-58.1214
-22.0227
141.306
65.2558
60.8879
15.7558
-9.06808
-35.2218
-61.301
-64.1086
20.1412
132.224
29.2664
-14.1098
-59.2378
-103.205
-99.6831
-195.422
-125.181
-13.0795
13.1173
41.6994
-41.1096
-29.9457
1.87555
-64.542
86.0305
144.975
109.587
112.381
33.4378
-56.037
-52.5714
-59.6435
35.7563
22.5226
-28.8879
28.3695
40.7041
22.8388
33.9433
4.56787
-71.9979
31.8777
120.059
132.378
-38.3671
-145.374
-193.928
-115.706
10.3024
-45.4877
-64.0435
159.446
101.945
53.6469
78.5734
84.7024
15.1339
-50.8773
-65.9654
33.3944
21.1256
-54.3385
-74.5189
-29.1371
-13.7721
-28.2395
-42.6435
69.9343
81.4521
109.121
38.7277
-123.92
-154.781
-166.513
-167.406
3.70911
151.363
122.027
79.4892
34.3676
30.1273
13.1546
-4.79771
-29.5702
-18.7137
47.9742
22.3646
-35.5097
-32.5703
-4.5618
21.2766
-44.2467
-119.518
-89.3581
209.018
197.018
63.2209
42.2746
2.6552
-92.7408
-148.399
-151.694
-92.5378
64.854
80.5829
58.3658
84.4845
44.9632
40.5454
12.8636
10.4202
85.114
71.7514
-26.2717
-216.838
-196.608
-139.375
-104.794
21.2352
118.561
113.092
90.1262
44.0429
-14.8532
-40.8834
-123.807
-14.6907
115.184
68.6161
42.4629
30.3884
-4.46721
23.5981
-18.6345
37.8989
108.057
17.0019
-20.0396
-69.3598
-76.7879
-39.8329
-23.57
-64.4015
-95.2597
91.3443
111.488
39.8118
-114.936
-177.989
-129.622
-77.5008
-143.653
-20.1354
260.642
190.698
69.8383
49.5696
58.8383
34.4844
-40.3806
-45.8914
122.766
166.318
103.565
-36.8134
-64.8546
-154.729
-171.241
-106.339
-85.1243
16.5902
86.2516
83.8316
27.2229
-9.04065
-61.2014
-115.206
-73.7838
85.564
111.179
105.692
-8.29918
-28.107
-26.9768
-143.921
-71.3158
159.461
163.074
127.33
98.3562
31.5273
24.0588
1.47991
-97.7053
-134.935
-51.7372
3.0215
23.8169
-73.4495
-66.3715
-59.9597
-151.823
-111.031
1.02646
60.5604
98.1615
91.1795
104.07
99.9822
13.0079
-58.5188
-125.405
-140.684
-1.92526
89.5242
45.1188
8.25846
-155.873
-91.8361
33.6369
67.1135
83.3558
62.0691
20.8211
5.52542
-43.7216
16.9094
111.681
75.412
58.8369
28.14
42.7014
22.3463
-84.7461
-64.3389
62.0967
106.851
165.959
78.3017
25.6354
-5.06936
-103.61
-268.316
-374.913
-180.945
4.06619
-68.406
-79.268
-2.64756
63.1878
98.6558
107.01
75.6995
48.8688
-22.5229
-2.89429
11.7483
29.4933
-18.8728
-29.5894
-1.96546
-13.2567
-3.79676
247.498
181.651
84.3804
17.2252
-29.2135
-44.1871
-96.6523
-109.72
46.2234
50.5426
66.5401
69.8289
-63.6036
-134.011
-214.963
-105.147
9.72778
37.4487
80.2292
95.436
-53.0603
-90.1523
-101.356
-56.9732
-38.1722
-6.90726
62.751
91.21
9.88749
27.1582
28.9023
-61.5161
2.78355
160.386
194.24
101.158
-20.0383
-58.3913
-22.495
5.94505
-0.292605
93.0465
85.0762
44.3403
-57.0414
-137.482
-106.579
-123.558
-136.129
-62.258
-8.40013
81.9048
17.1613
-40.691
-1.75981
-75.3875
21.3448
68.6246
59.1233
82.182
68.5032
-37.0599
-138.864
-192.173
-133.852
43.7234
196.287
159.546
117.869
67.2707
41.1011
41.4148
-54.5239
-128.135
-0.0809863
74.5403
20.8829
-21.1722
-26.6286
-2.33482
-3.07383
-75.9502
18.0566
149.27
197.68
67.7673
-107.334
-149.835
-178.678
-236.853
-216.693
-45.8218
86.2197
128.082
90.9034
64.0684
-8.44822
-125.367
-154.726
82.349
107.586
127.412
110.461
42.3385
17.5861
-27.4598
-42.9514
88.2249
90.9241
109.105
99.5041
5.72691
-73.9558
-159.214
-159.218
57.8509
34.6602
37.0444
39.5769
-74.2633
-66.1
-86.1122
-122.116
-6.34045
63.7107
41.2949
18.0118
-18.3655
1.03439
17.1822
-16.4874
-85.9104
7.17645
65.4691
33.5952
-75.2713
-28.7103
56.6623
56.8017
-77.7288
-0.555278
155.601
111.646
-1.67352
-110.781
-139.935
-82.6524
-58.007
-3.81781
118.19
159.256
160.526
65.3251
13.2954
-75.4852
-121.41
-77.8632
-43.0063
157.178
167.792
36.1663
-63.9545
-81.7406
-206.254
-182.582
-52.0664
118.156
82.0147
39.1052
-36.8775
-96.2593
-113.843
-83.4619
-85.8313
73.0685
132.26
132.696
122.431
32.9685
41.4664
38.4111
15.2759
26.5763
27.9729
130.879
126.324
-24.993
-64.5519
-83.2312
-74.945
-54.5173
-101.254
23.9525
72.6072
48.5508
-14.7656
-58.6204
-52.1293
-141.953
-141.385
-6.05785
-46.5099
-21.4051
33.0024
15.2101
23.9321
-61.2771
-2.22784
57.0856
24.3784
54.8267
99.7566
-10.0045
-13.2755
-137.833
-45.9468
83.5428
70.2008
98.4298
137.109
43.7137
0.0966707
-28.9084
-41.2907
13.9341
-3.75249
4.54802
-46.3647
-100.493
-49.7029
-2.8467
10.7438
-112.116
81.1779
213.41
108.813
7.25859
-6.86191
-21.5332
-51.9223
-96.2502
-159.38
-12.6747
127.455
46.842
47.5576
49.6916
47.23
42.9738
-31.2633
-182.362
-91.3275
92.164
32.6416
16.3312
-20.9826
-99.189
-161.342
-171.594
-10.4734
103.822
148.005
41.2574
-62.346
-110.986
-112.373
-77.0077
76.1211
122.139
133.955
168.635
95.8887
5.22841
-84.34
-156.215
-75.7948
105.695
177.336
161.7
75.3054
-12.6862
-8.9398
-8.95653
-85.0445
-150.935
-14.6241
39.6027
-10.3573
-22.8769
-27.5215
3.71568
3.72232
-81.6118
14.0176
74.5724
24.8572
-76.6149
-66.8171
-10.792
-79.2265
-179.776
-23.6477
116.736
110.453
130.152
73.4774
35.022
-52.0391
-116.601
-35.4905
-31.9601
-43.2638
28.0937
13.5389
16.1227
-13.3489
-102.073
-39.2456
83.4192
64.6102
95.1914
51.555
-0.761952
46.4679
38.2551
-69.5205
-43.6253
102.589
110.668
64.4418
46.3341
14.8816
-9.11548
-30.8658
-105.197
-114.49
113.454
-41.6977
-276.173
-247.704
-87.1227
2.80281
34.4966
48.2333
40.8338
159.243
120.192
21.9715
20.2032
-27.5327
-33.2237
-29.8263
15.6168
90.9958
138.371
88.677
-104.89
-85.7987
38.3859
71.6927
24.5867
65.3399
7.09811
-24.6337
-80.7302
-153.038
-107.973
-92.0034
-92.3275
84.2552
128.57
107.155
-5.65156
-123.947
-55.3858
35.0023
-10.4464
1.16038
21.5327
145.889
80.7212
3.80576
-10.8607
3.80755
45.9399
-8.57283
-57.8956
-4.779
9.49398
-75.7652
-57.2912
-21.0729
27.2818
-17.483
-42.9053
23.2407
48.8835
76.5498
36.2468
-63.4101
-52.9855
-112.312
-165.198
19.5001
127.869
145.799
115.933
29.884
-1.10717
-75.9603
-99.6284
-110.576
6.90412
88.1998
66.958
11.7316
34.3832
49.1951
-17.675
-141.924
13.9084
13.2818
-58.9116
-127.127
-74.622
-10.4165
52.8752
-29.8622
31.6894
120.848
170.465
143.574
68.6957
14.9184
-21.6603
-39.5433
-40.3974
-69.631
33.0756
56.7997
-31.255
-28.8832
47.5227
0.573926
-83.2188
-79.5751
8.7267
28.5162
13.3806
-27.4908
-44.394
-23.5591
-84.0184
-59.4282
63.9895
67.8144
72.8343
76.8861
-45.5043
-163.213
-231.466
-133.989
77.8981
126.883
116.504
77.8679
-11.9523
-27.1731
-120.388
-79.8038
30.9646
52.4403
74.0585
58.0404
7.83652
-7.23235
-55.7265
-101.594
-11.2465
273.651
328.389
184.517
50.4765
-13.7414
-37.4222
-59.58
-116.689
-133.198
8.15108
45.4348
-45.8032
-58.3384
-56.5567
-55.6551
-72.1947
-73.4875
-117.828
21.8621
80.046
-14.1757
-53.5881
-51.891
-52.6175
-35.5934
-56.3422
31.0994
62.5626
84.6231
39.731
-15.2624
0.186131
3.72876
30.2131
84.8321
17.831
-39.4756
31.1849
46.0763
22.5514
-97.0181
-91.7651
38.6996
64.5076
50.3828
69.7724
35.4299
25.9355
3.95402
21.4719
-22.5655
2.21555
125.798
74.416
-24.0586
-88.8833
-73.6065
-45.4991
-117.255
-43.5933
45.8339
56.459
10.1886
-8.3281
-10.4487
-27.6004
-89.3838
10.6187
59.3058
44.1358
27.8208
-21.9568
-92.3541
-145.972
-185.389
88.2653
128.107
93.7142
100.332
34.295
15.9814
-61.7748
-117.382
34.7445
16.6112
7.76114
24.3817
-32.2159
-21.8873
-19.6659
-24.4
-17.6914
1.33306
40.4811
85.3874
5.78216
4.16766
14.5711
0.378907
-97.0014
-99.9476
92.4268
186.516
41.2344
15.5261
17.807
13.8527
-14.6242
-53.5298
-9.26205
6.77037
-12.6569
-27.5101
14.8076
25.3867
-26.9281
-76.8548
-64.3326
-53.7701
2.5985
80.9914
19.9136
-27.4913
-80.5125
-158.505
-87.6528
24.8229
39.5522
93.4069
77.0839
71.6849
66.0442
-3.5482
42.1458
56.0716
-8.82936
17.4639
23.4407
5.45164
-34.8237
-117.356
-34.1864
29.4455
58.6543
101.752
52.5389
-16.38
-18.1575
-90.1548
-179.198
-56.2593
-7.57591
38.4908
11.1081
11.6106
22.4475
36.0753
1.47699
-104.619
3.91671
99.1636
16.386
-19.8181
-2.94386
32.7447
24.5936
-46.6806
43.223
88.3081
99.9368
8.50505
-36.5773
-44.4983
-107.69
-130.21
-34.2062
62.3185
95.4868
122.767
66.6393
34.5955
-24.6872
-74.6263
-137.535
-72.657
-9.47937
-37.839
-58.8862
-17.6865
20.1481
6.77206
-65.8985
-0.590021
120.746
107.606
43.3038
-9.69914
-13.3869
34.8603
-11.335
-96.9814
-1.91515
41.8293
31.1868
15.7823
8.66612
34.3645
-22.8371
-62.8856
-101.506
75.48
140.206
59.6566
-33.0718
-42.964
-43.3036
-50.0014
-91.1081
70.2007
149.025
143.829
45.0201
-17.3585
-50.7629
-199.596
-342.469
-98.1827
55.5728
90.0947
125.723
21.8497
16.8445
-9.39138
-43.8562
70.6048
65.9224
46.1917
71.998
10.8157
-41.6963
-58.692
-74.1623
56.5935
96.4282
151.533
198.076
55.4324
-91.4216
-130.122
-167.798
-225.66
-162.556
29.8679
75.7209
28.7337
21.5049
10.9044
7.67876
-77.7384
-80.3509
22.886
109.207
18.9034
25.5771
43.2124
58.5624
27.7143
-5.22964
-48.048
87.6244
101.844
59.5107
-40.4188
-40.7779
-51.3162
-77.4261
-113.294
50.713
77.4784
67.6434
21.2145
-98.2859
-167.521
-140.39
-47.1296
124.754
103.008
94.9703
75.427
-79.2635
-95.5947
-93.8458
-117.653
98.7339
120.375
100.699
100.502
-17.282
-27.0622
-7.38095
-39.4728
-119.173
29.2662
162.477
129.7
23.269
-7.44239
-18.5228
19.2519
-32.2938
-135.013
26.1953
74.31
-34.9689
-43.6421
-24.524
1.38038
-48.268
-129.219
-55.9181
-39.1182
9.5708
-64.742
-95.6118
-22.837
-10.1222
-55.8161
108.835
129.891
155.143
189.397
86.3985
29.9741
-68.924
-117.559
14.0342
-5.65398
-31.7768
22.9266
-6.07745
17.9351
36.3533
16.0591
72.2392
46.9423
-3.78645
-32.4661
-187.332
-144.034
-29.1547
34.1522
-75.7481
-128.444
51.5886
124.346
18.1807
24.7914
90.4158
129.245
65.8957
-11.492
-1.13225
-52.2585
-218.25
-160.363
-56.8973
49.7422
70.7033
57.343
9.39205
3.49427
124.75
113.089
-9.28564
-50.6869
-51.4963
-19.9289
-49.4187
-61.7548
65.1511
78.7552
67.6705
68.0216
68.8102
10.4164
-74.095
-79.5715
21.5071
51.3919
41.2537
16.8877
-54.0376
-34.4733
-90.3828
-108.282
-9.94544
0.49983
-0.8883
-39.4067
-141.436
-64.2235
10.5961
6.55472
-6.33472
51.0282
186.367
149.016
53.3773
3.69047
3.16419
1.84827
-28.5555
-33.7952
30.49
37.1187
-50.9159
-65.4748
-28.0702
35.2321
16.7956
-3.64577
5.24432
-16.7582
44.1621
23.0026
-47.6253
-77.0077
-214.341
-181.247
24.4312
73.3205
90.247
97.3316
55.9659
62.9469
49.81
0.074387
-46.3714
37.5625
60.6913
57.6838
40.2124
69.2921
45.2262
-10.774
-119.645
-46.2641
77.949
66.6031
-34.1533
-40.2388
-36.6039
-43.7106
-62.1766
-98.8497
-146.986
34.8977
66.0176
27.7592
45.0885
35.1248
-37.5572
-138.915
-183.196
-43.0575
27.9198
48.3485
74.4498
67.1639
34.4563
28.362
10.0584
100.663
87.5282
67.467
40.2074
-58.2429
-61.9844
-148.846
-157.807
24.1329
80.0243
141.756
150.948
45.8068
21.7236
-58.1295
-137.841
49.7722
66.7983
33.8391
14.1947
-39.637
-47.3265
-51.2644
-78.2142
-122.235
94.6439
123.081
96.6667
23.926
19.2868
2.02959
-55.352
-129.783
-132.355
24.2771
67.8579
-29.9818
-41.7224
-11.379
36.9978
-3.08336
-108.44
-150.07
52.9894
89.1629
-49.8494
-31.7469
1.26775
-27.0866
-16.5723
-1.72793
77.2909
140.528
114.785
50.9624
56.8171
-1.1517
-29.4287
-75.9303
-77.969
76.8451
115.107
85.4234
-61.8324
-35.2659
-16.0547
-38.8096
-68.2149
2.33779
25.5753
47.4255
43.6808
8.83148
4.27889
-39.5173
-131.713
-126.022
38.545
107.223
48.9168
-49.0206
-7.62818
61.104
76.2275
0.974115
-60.4035
44.3451
33.0876
-50.9734
-91.3474
-70.0119
-53.2692
-109.532
-94.7855
81.448
121.743
85.228
7.41836
7.38701
34.6076
-32.1923
-24.0709
9.95927
-92.7435
-22.9238
33.5543
32.497
40.3359
-69.879
-60.1053
34.4117
39.6398
99.0962
134.627
22.7513
13.8003
-42.9422
-47.6595
-70.1458
-76.3676
-34.0018
-4.89394
-0.218802
78.5394
34.5691
-80.3976
24.0291
109.422
111.368
92.5691
43.1368
28.1438
47.194
35.659
-95.6116
-106.797
-26.0685
-111.184
-117.744
-57.643
-34.043
-44.9167
-95.575
-153.918
47.2397
180.537
68.7626
-10.211
1.48101
20.6362
-7.9496
-68.7963
-14.3978
4.17834
32.9219
68.1049
66.5406
62.985
21.9453
-31.8193
39.3592
34.6489
57.7375
127.516
30.2136
-28.9413
-125.788
-164.793
-53.0037
53.7694
30.043
56.9551
-5.39557
-26.9328
0.637654
-54.3139
-141.511
30.7134
87.0792
60.4285
-10.4947
16.0756
122.827
167.377
48.6577
-11.9142
-0.720749
-205.45
-380.302
-317.07
-109.639
43.9346
57.2633
26.8783
154.675
181.231
163.542
-21.5869
-58.9271
22.1949
-13.172
50.1673
59.0048
19.9708
-8.59357
-13.5826
2.4824
127.016
72.4581
111.179
181.553
59.5526
-4.05625
-19.3634
-109.45
-89.636
-61.1205
-103.438
-37.8121
-16.9567
-41.1102
-94.2962
-132.549
-91.269
-43.7421
-41.9376
-98.7504
67.0461
217.562
85.5882
-21.8926
-4.85304
-9.55589
-7.10222
-50.5209
-125.306
-29.0317
73.4146
44.9263
17.3559
34.5659
23.2103
-4.07791
-49.8922
50.424
90.393
100.038
68.4987
68.0657
11.0282
-86.7906
-124.141
-6.10277
24.3341
31.8508
82.0943
38.5451
-16.1277
-80.4142
-121.956
58.4195
48.1915
19.0024
21.2599
-32.6375
-28.9116
-47.2624
-58.3905
90.6759
70.1499
36.1238
19.3575
-95.2767
-154.485
-106.514
-87.2241
-35.1928
131.241
133.042
108.973
3.04768
-2.19422
-25.7757
-43.5709
-57.6707
-55.6841
94.4633
57.9907
-47.0129
-68.1851
-62.6195
-25.1518
-95.7985
-82.0377
118.461
240.446
157.75
24.3419
31.0085
42.8243
-9.26595
-23.1545
-67.8083
-7.29358
-3.88007
-8.58927
-18.4498
29.3049
-12.0011
-74.9046
-138.69
-21.6683
50.9865
-21.0698
-119.417
-88.456
-11.7071
-13.5437
-67.286
-15.1423
94.7429
77.2369
114.295
114.336
71.7143
19.9475
-112.322
-159.119
55.227
116.928
104.823
50.8312
62.4736
131.944
35.1496
-67.1472
-69.1916
-14.6181
-4.22357
-24.867
-105.629
-105.507
-70.3489
-125.332
-137.842
77.4191
78.4644
75.0189
-23.1215
-8.9141
23.0173
-52.081
-7.93144
85.209
59.1819
60.2861
37.2723
-15.3574
4.66234
-62.9358
-43.7311
-20.6354
22.5424
82.709
92.5581
-37.7827
-87.2883
-206.438
-108.061
24.6404
58.3184
84.8192
64.3109
44.3784
38.8405
-12.5359
-51.0552
2.66436
70.3346
57.583
-5.10983
14.7338
15.4839
20.4344
1.52708
-79.4636
65.0594
160.624
48.8152
-33.782
-39.3925
-43.0417
-70.269
-109.394
-39.7337
12.5175
11.3684
-39.2588
-43.4314
-12.802
-31.0046
-78.6367
-8.30746
19.5619
19.7824
34.9675
14.0675
39.7811
-25.3215
-73.8575
20.5093
26.0656
38.9344
74.3744
28.1883
24.2143
-11.1732
-108.38
-6.28984
-25.9523
-15.7905
49.6974
41.4546
34.9595
37.9468
-17.7
-54.021
78.688
70.8832
51.0161
9.20616
9.12677
1.56341
-10.6306
-88.801
-150.609
-35.6431
43.1493
24.8165
98.6531
105.934
85.4446
13.4749
10.2436
-28.9007
-59.2372
-74.9481
-215.704
-239.729
-123.717
-69.1313
-11.5413
103.555
104.66
110.81
125.75
95.7372
73.7063
-77.6396
-121.207
51.9568
95.3155
66.726
35.5738
76.9841
103.79
70.8545
41.8884
-88.4336
-102.03
29.6651
2.87022
-47.9794
-43.677
-41.0871
-27.3664
-63.3019
-158.948
-32.4135
109.434
-21.7553
-68.3461
-79.5463
-96.7498
-75.9432
-21.3604
-39.546
93.8451
209.807
152.67
22.7403
18.8931
-4.55941
-28.9371
-65.1972
43.6257
44.3264
77.9018
33.4595
-40.8508
-63.9626
-94.2823
-36.1267
21.2684
5.03396
-2.87406
38.5798
19.4126
40.9326
-31.2855
-14.1874
62.2201
15.2628
-11.4386
5.66152
-25.1259
-50.5671
-114.475
41.7539
139.305
77.0542
56.1223
43.0728
67.432
59.7468
24.7932
-15.9448
-48.2926
-171.584
-251.711
-174.44
-96.1683
-18.8133
19.9215
46.0436
-12.3039
89.2768
176.082
60.9875
-30.6934
-10.1053
28.5502
-24.5941
-111.559
-89.6694
21.3067
93.9584
56.7105
145.762
223.943
62.8095
-69.3795
-118.836
-52.119
31.7266
29.0985
-2.70991
9.99638
-31.9001
-64.0918
-111.001
-40.6511
13.8693
15.9404
30.9852
21.6326
21.7318
10.7715
-53.4902
20.9702
-36.6362
-51.7392
2.82684
17.8953
8.03791
11.54
-48.9834
-138.052
2.2715
98.8188
99.8168
28.2206
-1.69359
7.03128
3.32956
-15.7851
-76.4506
-21.5576
80.0732
43.3683
46.2907
41.5484
12.8439
-30.165
-94.469
-93.0536
71.1064
109.04
-6.47214
-73.1796
-46.2925
-40.8395
-61.0586
-1.05508
18.8774
-2.25561
26.6014
17.4079
34.7963
56.3004
15.9138
118.712
130.579
70.9852
-26.636
-140.095
-201.235
-100.513
-157.063
-24.4797
85.6009
72.8002
74.814
39.5171
15.615
3.16215
-7.41304
-20.0656
69.6968
113.658
143.747
51.2276
-60.5285
-158.921
-185.517
-114.64
-145.573
68.253
135.655
46.457
12.5845
24.1692
43.9008
22.5812
-53.4526
-65.9802
113.636
96.3284
-3.65274
-54.4339
-49.2594
-80.2177
-87.7081
21.2287
164.751
171.537
158.009
44.6776
-6.10979
-70.1853
-156.663
-129.893
-93.7612
-116.609
-31.0508
26.0973
-22.6518
-47.9468
-128.934
-4.80572
89.946
74.5519
81.0216
67.6444
42.2511
60.7625
-24.5197
-115.329
80.0684
62.1319
61.1172
26.8465
9.87497
21.6636
-5.53018
-75.7561
-88.8337
98.3961
151.648
44.8852
-78.9171
-113.51
-53.0681
-109.894
-45.2801
171.524
136.641
19.2572
-109.168
-134.016
-192.542
-233.049
-118.179
85.1127
103.063
124.038
70.6593
9.9444
28.2409
-47.3466
-60.1359
149.872
177.19
169.522
103.353
-27.9019
-3.14856
-15.7852
-116.187
-107.888
65.2477
150.466
78.9888
-32.725
-40.0619
-31.1946
-44.6919
-131.598
-185.831
23.232
139.514
-3.83107
-61.254
-46.774
-55.1592
-94.9003
-90.1346
-78.8401
107.435
128.39
72.1143
48.2541
25.0883
-11.849
-16.348
-73.0762
5.29652
52.7647
71.3484
-14.2836
-48.696
-66.8195
-81.3346
-46.079
64.6295
51.6754
82.551
144.096
66.7387
38.2828
-40.2834
-80.099
19.9359
-61.9768
-87.1966
2.68057
-24.2219
-58.4009
-77.5936
-72.6269
24.717
54.1125
58.9482
41.0428
-15.5923
25.7353
50.3606
-34.3376
-86.5488
114.615
117.488
49.2315
-28.213
21.4203
51.8884
43.4801
-48.6824
-3.62271
86.5764
33.7756
-37.8963
-48.1088
-14.102
-3.46544
-110.372
-57.8676
-2.55874
18.4122
-33.1704
-95.2931
-29.1811
-12.2079
-69.6889
-130.828
-147.694
46.099
98.4293
77.9824
53.9998
44.4018
21.0903
-53.1719
-36.1286
107.143
127.127
50.554
1.47478
41.5152
35.1571
-87.694
-57.6698
36.779
134.35
113.227
77.017
-64.0372
-61.6173
-58.1675
-97.1672
-58.4472
6.3025
18.8915
11.2547
-51.9374
-32.6693
-43.5282
-49.7288
-65.8606
20.7358
43.6608
27.3577
20.8973
-27.6789
10.0397
31.7909
-91.6751
-1.24795
81.4973
78.2066
38.4548
-32.3355
-18.6727
-23.7533
-61.173
68.0141
43.9906
36.6461
77.2671
30.6834
-12.5853
-37.0239
-34.9241
68.1388
118.605
78.3217
-43.5133
-237.866
-256.638
-205.003
-226.26
-52.6563
79.7102
95.1876
135.899
105.98
56.4348
71.7786
109.331
45.0783
34.3251
144.469
140.838
31.8665
24.0699
22.5092
-20.9206
-12.0316
-40.8382
-41.4172
24.2584
-76.1823
-73.1698
-53.2867
-21.5208
-40.1158
-161.813
-242.754
6.82809
107.366
113.787
42.4235
5.9124
-32.0312
-33.1418
-7.71289
27.3622
9.34862
10.1507
42.1556
41.1784
-10.5779
-126.206
-145.368
58.8753
50.1244
83.4498
142.891
46.7159
15.0224
-21.6787
-130.237
-144.851
-24.5685
38.6702
45.0449
55.3339
107.999
111.239
92.6599
23.9759
17.3449
-25.3801
-63.2698
-100.058
-57.9955
-50.5588
-27.092
-53.7849
0.0783451
79.7041
41.8691
37.2262
-22.065
-12.6535
-11.0751
-86.5482
-138.443
37.1056
37.7501
45.7247
28.3936
41.6413
38.1858
-83.3602
-78.4464
64.892
125.163
115.499
98.0515
46.2211
19.1095
-159.9
-239.836
-146.469
-70.5144
19.9229
90.5841
32.0179
31.3348
-39.4555
-14.9193
52.1639
47.5165
25.2924
64.429
30.4569
-46.1907
-85.6097
-89.6494
-132.684
76.4642
216.181
210.19
119.711
46.9884
13.7934
2.156
-84.398
-113.673
34.0574
6.66261
-17.4809
-19.1849
-25.4319
-53.8327
-145.448
-76.3746
29.8015
58.2277
124.797
1.74492
-6.47443
-38.1431
-119.905
-172.575
-170.877
-136.426
8.76884
115.888
62.0953
56.9335
67.9119
83.6745
43.9687
5.51859
166.216
96.2772
-55.8443
-105.725
-103.096
-54.9904
12.7252
17.4063
59.7643
151.037
129.15
83.6126
-23.724
-55.1846
-37.0894
-32.6652
-102.728
-106.17
112.871
252.19
109.542
11.5141
-89.2994
-136.139
-124.398
-163.274
-82.7644
37.7185
61.8437
12.4693
-13.4323
16.4044
16.0458
-37.9734
-43.997
-14.0294
44.6853
50.7609
-44.2551
-134.857
-152.741
-137.598
61.5176
190.733
96.6186
24.0167
20.0588
32.6266
32.384
-27.9532
59.4353
108.637
56.618
60.7838
55.8185
25.7471
13.1486
-48.4899
-74.9808
-37.5653
16.5474
56.8755
-2.4379
-51.0051
-23.7797
17.152
-50.7039
-156.166
-82.0901
114.002
87.4543
20.5119
-17.9065
-29.1196
-24.6077
-37.5115
-94.3676
-126.311
-19.4037
15.9475
17.7424
60.7147
48.8376
12.3129
-1.6105
-36.2366
70.51
120.463
58.29
-26.1303
-41.5016
-41.449
-74.8634
-91.0737
-49.0993
53.9404
61.0315
155.971
76.9113
-13.2574
-100.957
-144.734
-61.4277
-63.0243
-44.4818
3.98417
37.6511
105.734
102.767
34.8303
-6.97326
78.2783
111.528
96.4964
58.3691
16.4528
55.9488
42.8249
-42.6344
-107.087
-58.9827
38.4287
14.2776
49.9301
54.7503
7.81849
-168.041
-264.845
-152.338
-28.8045
6.38037
-52.9159
-44.3382
-7.76455
-7.69728
-110.842
43.1968
68.8766
44.6661
71.0194
91.4028
74.8769
-21.1936
-133.683
12.3405
155.562
144.65
138.342
46.9692
-39.4595
-68.8055
-151.693
-99.784
-18.5639
-4.40186
52.4207
-9.9677
-24.433
-17.2638
-2.48606
-2.27189
-53.2951
44.8371
110.079
43.9751
3.6087
30.2091
63.5045
29.1915
-49.1024
-98.3564
-18.3342
4.0688
1.32096
8.89521
19.493
-19.3546
-42.8332
-40.3859
-74.3477
-80.7753
110.155
144.534
150.481
69.719
-8.0537
-60.2392
-170.887
-257.441
-117.96
16.5505
56.8478
57.6939
48.227
66.4979
27.3736
-8.45902
65.5619
41.0609
30.538
41.1492
10.9291
-2.26665
-28.6263
23.776
-16.946
-108.827
-50.1777
60.5016
65.3071
68.9472
22.8187
-115.785
-134.083
53.1785
67.1534
46.7473
14.1304
36.484
69.157
85.5438
-33.2018
-176.323
-117.186
-111.458
-50.9461
20.6668
86.0767
121.356
-0.446037
-55.076
51.5285
28.9845
-45.7199
-126.372
-68.5235
-11.2501
-62.2159
-142.151
37.6264
145.459
111.087
112.396
81.0544
35.0439
21.8722
58.9196
-39.9555
-15.5288
109.061
71.1061
-35.8449
7.48338
31.9881
-53.5194
-129.881
-129.92
4.24741
190.584
62.7967
-47.9853
-132.844
-172.06
-163.969
-161.02
-187.1
32.0801
212.197
107.828
86.0448
135.577
60.3331
20.5813
-7.86648
66.0924
188.255
106.254
-1.4436
-151.451
-273.351
-240.977
-156.499
37.9195
182.947
167.077
176.83
95.4886
18.9943
-48.8903
-194.579
-104.673
-14.5412
17.9673
52.3921
8.82355
-30.8993
-8.94787
-65.5206
6.08249
105.461
78.3136
95.3144
43.5127
-26.769
-36.2327
-86.8115
-73.5848
91.1942
123.678
92.6714
-4.01817
-56.0288
-37.1785
-35.8523
-113.023
-195.902
5.78526
94.434
60.6644
22.9303
-11.9974
-63.1683
-113.229
-182.864
-44.874
117.88
90.1871
-21.4889
-7.85963
36.3108
31.7611
25.1277
-42.9354
40.5746
154.186
165.996
36.0946
-17.9033
-33.4085
-21.3198
-25.0029
-68.1988
97.2675
102.221
-18.911
-66.1477
-82.8214
-117.492
-114.507
-82.4111
50.1982
74.5332
124.251
70.0282
0.0357696
0.626956
-112.641
-199.775
-62.3707
61.391
77.2813
128.353
31.3386
18.7249
27.8484
19.6005
-43.9486
-28.1648
46.1619
120.054
15.7346
-53.9648
-99.9372
-92.9918
-61.9375
-87.249
35.0922
116.392
40.2911
-6.32575
15.3991
40.314
-8.01035
-34.2523
44.2571
55.7556
106.257
74.0939
19.1773
-32.2509
-156.353
-219.448
-95.0074
-22.5191
-3.62365
44.6322
18.5447
23.7194
-56.7944
-2.6283
46.5088
50.5595
27.2809
21.4052
-39.5342
-47.1915
-155.481
-128.243
76.9018
78.6589
115.039
177.924
169.867
114.511
47.2802
10.9524
-59.891
-58.3362
55.2657
-2.64191
-30.8668
-11.3641
-14.4556
-3.08161
-29.4651
-86.5802
54.6259
70.2366
-64.78
-83.0733
-60.3182
-35.7756
-44.0236
-107.529
-47.8714
-16.464
-13.8054
-9.84713
-20.5879
0.6584
-11.872
-0.153468
75.2561
46.6351
-64.3729
-114.811
-49.6161
-1.51795
-43.4619
-1.69272
79.5993
102.53
111.485
149.819
105.423
84.6368
53.23
47.2282
-56.2225
-5.49892
5.84145
13.7252
-28.7719
-9.81423
48.7833
87.0495
-48.2279
-7.1354
30.2738
-10.2519
-39.8688
-55.3617
-77.3689
-58.6209
-76.4271
-70.4051
100.102
72.1866
67.4523
-25.0764
-50.2038
-48.2064
-113.696
-162.801
-62.7356
-136.766
-164.05
-217.254
-187.505
-62.3732
-2.12387
42.0014
144.748
271.301
219.591
176.778
85.1696
105.137
113.367
63.4659
15.0877
88.9817
154.754
162.212
108.41
168.592
175.781
110.125
63.8217
-41.3969
-162.49
-117.832
-267.327
-378.33
-318.541
-235.411
-194.814
-191.569
-191.181
-140.181
-16.2807
-1.14127
26.122
105.837
132.742
170.401
169.488
101.988
175.072
181.683
201.82
143.988
133.73
80.2352
-1.22386
-111.126
-51.2444
8.65002
52.9658
38.4708
16.9028
-19.1288
-138.61
-41.7251
-22.3485
-17.5715
-26.233
-28.6776
-110.908
-189.758
-330.906
-264.377
-124.274
-21.0612
5.12297
-3.26895
17.7636
130.004
73.2881
90.2902
164.707
60.2452
44.6358
18.0319
-19.0408
1.64531
58.8453
-6.35488
-36.0487
145.487
240.466
196.426
168.638
78.4002
15.8291
-52.5789
-116.379
-14.1496
6.69065
-12.8436
-60.6784
-33.5601
-38.2531
-98.0578
-25.3738
-73.9187
-62.5808
57.6124
24.9664
-106.088
-141.83
-227.435
-233.619
-178.712
-55.4487
244.246
257.23
13.8609
-37.0213
57.8294
90.7918
48.8581
50.8249
71.7582
7.15932
-9.1371
-64.7688
-81.2831
-32.4261
-3.96781
-56.8145
-25.9821
93.2634
105.717
70.0197
9.74703
-1.89611
48.9944
105.25
28.4252
-22.263
46.4903
61.7943
39.8945
21.0379
22.9725
8.01153
-132.603
-92.4864
99.4285
164.606
107.84
-29.355
-99.7289
-101.926
-136.402
-83.2305
-39.8687
-79.8565
-120.01
-126.58
-129.688
-132.356
-166.693
-21.5865
45.857
51.6546
137.611
130.365
40.3759
125.332
147.544
210.343
137.797
67.4751
14.6179
-53.7695
-133.621
-77.1992
-76.7191
-198.596
-139.567
29.2585
120.856
36.8877
17.4359
34.7747
67.9475
9.49838
-128.302
-137.7
-85.8599
-77.2162
53.1648
132.947
151.102
85.2142
25.7181
31.2252
55.7727
228.049
178.959
18.2153
-54.4971
2.24556
128.169
141.405
-10.1325
7.09822
-29.0201
-118.248
-272.601
-364.825
-275.689
-221.01
-133.67
1.41982
94.7527
102.5
98.7317
69.0083
75.7362
88.6896
21.1122
-24.0776
-170.339
-157.638
57.88
82.8274
91.4998
146.987
231.48
137.101
102.218
107.311
-22.3715
-118.597
-132.697
-113.194
-108.485
-173.474
-246.632
-117.672
-66.7264
-3.13868
139.492
131.523
95.6535
105.772
70.1079
181.204
237.061
210.575
46.5833
-102.947
-129.211
-97.0796
-85.4762
2.81885
-26.8059
-21.1863
22.2621
5.39984
25.9626
-64.0554
-144.073
-69.288
10.4929
-48.6422
-57.3744
-85.3318
-36.2121
32.1515
19.109
23.6731
104.874
173.222
121.184
70.3824
39.2229
20.1547
19.7483
-104.871
-248.939
-309.188
-73.8681
22.5512
-35.8921
-34.0726
12.3711
-39.0845
-48.1869
-88.9667
-19.0091
119.998
116.89
172.996
236.074
132.38
106.807
85.8134
163.851
116.091
99.7884
112.416
-34.1301
-125.786
-167.998
-170.382
-65.883
-119.338
-120.364
-36.6086
43.8099
74.8397
8.28203
-138.788
-121.818
-108.348
-100.383
-48.3149
-26.7331
8.70519
-18.0716
-30.307
26.3723
18.511
31.965
53.8771
48.8442
140.259
185.471
96.0751
-72.3123
88.4278
132.543
63.2068
-55.0772
-128.792
-63.604
-85.8902
-234.474
28.1479
221.325
151.073
41.6408
57.8662
72.0358
36.6324
-56.1732
-144.356
-53.972
24.9917
15.1085
-135.148
-167.575
-163.836
-98.9291
-8.68239
5.68359
124.65
152.282
3.64105
-6.42453
70.0001
54.2074
-0.35622
-29.922
49.0428
65.1039
97.267
-23.5088
-80.0339
3.39385
4.0607
22.1097
62.5602
140.018
-23.5979
-169.221
-214.046
-140.705
-52.5313
73.9206
59.8652
-31.7116
28.7408
35.4694
-1.54148
-96.2243
-241.946
-234.735
-91.2308
-41.111
45.739
106.04
161.66
279.144
510.807
683.792
453.252
66.3889
-70.874
-185.329
-191.805
-163.539
-180.196
-147.304
-265.584
-174.108
-4.77293
20.2393
32.8844
-9.69275
-155.824
-141.016
-166.63
-216.14
-220.19
-302.575
-227.364
-3.79769
67.6859
147.858
175.232
200.056
272.771
136.798
113.736
123.392
161.548
105.692
38.9115
34.8362
-46.7161
32.8924
-7.56041
-82.1462
-18.2675
-13.8573
48.6668
161.756
112.195
-109.71
-132.11
-54.4532
-177.52
-18.6431
124.599
219.53
206.609
93.0083
-112.527
-127.403
11.5849
-81.7965
-67.3435
-55.1603
-115.197
-132.224
-166.68
-125.95
90.6494
157.798
134.631
90.0255
67.407
-18.9947
-204.388
-299.53
-210.997
-92.8216
78.6256
144.594
65.0888
-95.8771
-195.341
-18.7533
214.267
205.123
212.631
176.116
12.4769
-71.306
-160.496
-211.163
-180.481
38.7933
253.002
249.315
166.606
13.1452
-58.7154
59.259
92.3554
130.397
211.254
44.1408
-9.77734
-16.3148
-18.1774
-44.8979
-309.324
-243.051
51.5029
175.968
69.8993
-77.7101
-132.313
-118.276
-193.299
-79.8475
27.6466
-159.817
-150.114
-42.6566
-18.3482
-43.1712
-190.651
-100.021
114.478
64.4787
136.094
161.047
13.6912
-118.022
-1.97487
-31.4775
4.61874
190.197
273.02
239.403
160.376
129.871
65.5068
12.9606
-27.0944
-71.8205
-25.0786
59.9771
-44.479
-31.719
-39.6362
-112.935
-115.84
-79.0342
-157.069
-40.118
86.1768
94.1519
111.028
260.696
196.45
-8.0439
-124.332
-18.8501
32.3394
-3.82834
-34.1957
-51.5362
-136.562
-163.342
-173.015
23.1538
-64.3606
-215.55
-218.201
-158.183
-194.91
-294.909
-215.476
-81.8907
113.501
405.365
382.217
274.81
356.204
309.822
70.3075
-154.292
-0.212689
164.357
173.841
82.7234
95.8707
132.332
83.3121
-177.414
-358.435
-133.781
-46.6614
-134.823
-134.055
-110.675
73.1917
48.056
-187.657
-120.287
7.74178
230.896
105.635
-77.2143
20.6094
63.8656
-45.9398
50.7395
123.213
113.451
76.996
-92.4778
-175.225
-236.972
-229.16
-222.527
-161.184
-5.25097
81.0167
65.4349
50.6525
-36.9164
-77.7144
-62.4688
7.28104
48.9943
197.639
255.119
265.288
276.426
295.861
170.942
129.934
36.5447
-62.1208
-105.838
-149.822
-207.544
-80.9218
-26.103
-58.5065
-182.554
-14.8804
131.537
100.694
15.6008
0.596146
-47.8507
-104.742
-286.195
-202.25
-114.161
-133.068
-49.3072
45.9808
56.363
9.43656
29.5839
130.708
196.103
118.723
55.5969
-67.8685
-110.449
-94.6567
-137.161
-10.4202
53.2265
90.2673
152.452
158.638
282.596
350.672
126.864
25.8646
51.4902
69.0485
29.9832
-110.474
-227.655
-314.885
-338.567
-368.103
-237.534
-42.4492
4.32691
22.3251
114.018
160.202
174.535
25.1426
-125.927
85.9437
220.214
113.03
1.90294
-60.0099
-113.365
-143.671
-126.913
-46.0736
71.2297
195.169
132.221
19.6211
32.7133
-12.8185
-87.8923
-144.514
-65.7046
113.583
83.1737
-104.278
-94.5886
-25.9981
-9.48331
-45.5513
55.9655
74.2866
46.2392
127.579
191.56
102.894
11.9498
-93.7379
96.7317
141.651
84.6113
77.3627
72.5117
-31.8321
-82.5705
-273.672
-386.686
-200.902
-54.0042
11.7146
-25.6112
-21.9007
30.4666
121.618
112.815
32.297
65.5896
19.4179
-85.8648
-90.0976
-110.852
-78.2412
-17.876
-37.9588
86.0703
125.527
235.88
141.413
15.7785
13.4254
-84.7974
-201.631
9.4835
24.0196
48.592
103.201
-10.9324
-58.7496
-110.331
55.9972
210.318
108.437
51.1385
51.0059
-65.1287
-139.855
-178.056
-210.189
40.4505
269.73
193.001
108.25
-91.0187
-127.377
-133.76
-94.3671
-54.0671
-22.6685
28.7183
-109.184
-195.32
-115.776
-98.7219
-17.9817
-12.8873
-71.8458
123.42
322.325
148.023
-63.1347
-49.753
18.1804
4.73026
14.8021
17.1071
112.037
231.608
259.372
198.332
-29.1816
-195.679
-122.826
-65.836
-47.1377
-36.1036
62.3183
34.1421
-90.8222
-137.855
-124.073
-48.4532
53.3638
-25.1559
38.549
55.5403
-44.925
-113.166
-137.471
-91.3447
93.5469
154.549
195.831
238.59
134.806
65.2463
63.7031
-80.9655
-126.971
-54.655
85.5095
25.9902
-66.0707
-103.508
-152.99
-105.893
-123.996
-144.988
75.3956
110.665
-13.8277
-52.1984
-113.527
-126.438
-79.7617
-97.4417
54.8147
136.643
150.907
127.28
-11.5011
-26.1315
-80.0194
-173.708
-39.8222
152.856
224.619
289.659
265.439
229.178
198.087
64.2737
-118.245
-227.334
-209.045
-50.2939
-100.109
-143.856
-143.868
-169.96
-189.118
-166.476
51.4418
302.961
246.898
155.761
31.853
-22.3475
-132.731
-203.969
-154.829
-125.208
53.95
158.681
163.659
77.8235
13.8879
-55.1892
-120.394
-148.458
2.28361
184.298
117.979
172.769
102.515
-137.231
-200.223
-296.586
-151.912
-51.1075
135.6
411.702
271.263
116.415
42.2973
-106.119
-15.6846
70.4458
75.6234
86.056
10.9696
-40.0507
-49.843
-169.426
-87.4329
-28.5853
-72.0957
-66.3453
-173
-176.635
-228.271
-343.228
-195.285
73.0946
100.27
189.317
212.514
213.566
200.815
184.746
81.9982
-114.217
-40.2335
36.2793
-62.01
-20.2025
47.1456
126.862
144.224
-6.32636
-274.666
-116.695
213.194
90.5903
58.0476
56.7304
-14.9234
-22.8466
23.5704
-67.7137
-46.2288
-19.3701
-64.0673
-96.0413
-78.4564
-24.3049
16.6797
-7.68152
62.3386
93.9356
155.046
37.9553
-71.6959
-35.2197
-146.812
-131.749
-64.92
-68.489
-48.6944
-10.0006
-22.9599
62.2421
52.8165
15.791
111.234
69.2946
53.8927
33.8399
-67.489
-82.9545
-27.3442
-48.4356
-230.536
-35.3854
122.431
133.634
79.8791
55.1169
15.7685
62.1471
-18.9746
3.12094
111.268
73.0572
-28.1958
-58.7771
-84.8453
67.3691
-3.27641
-5.67727
132.127
194.193
143.784
-90.763
-95.6103
-194.816
-329.573
-126.774
-54.5673
-30.0603
12.9573
-44.5027
-78.1282
-47.1575
-33.2067
168.222
229.264
76.2495
82.0592
52.2712
-29.9206
-41.9761
-49.4515
61.2786
155.887
48.8645
-20.4254
-81.337
36.6828
221.864
401.264
194.586
-207.513
-182.659
-183.4
-193.493
-80.5846
78.9157
50.3746
-96.4668
-237.086
-267.339
-68.2206
-35.9829
-119.658
16.5291
136.36
33.6661
-82.5683
-247.621
-207.89
60.0586
217.386
197.617
151.402
44.731
8.12514
-75.5977
70.9184
184.023
206.826
155.853
34.0459
-57.3687
-88.0958
-81.5215
129.611
209.44
143.516
76.3288
-42.2537
-44.7579
33.4183
-65.525
-118.458
-6.22848
-68.0583
-123.258
-207.3
-118.436
10.6217
76.5283
13.1332
-120.227
-34.5237
151.053
53.8979
-10.3971
36.1204
87.7684
-26.9463
-166.717
-115.562
-119.956
-173.054
-174.467
-45.0249
106.906
17.2285
14.9551
226.249
173.867
63.8947
80.4353
-4.05536
-89.9922
-171.45
-168.956
-43.0196
101.448
135.943
224.713
170.103
105.367
105.599
-29.8237
-163.648
-117.797
28.5123
37.9298
-87.9804
62.8993
204.291
100.114
-97.4875
-195.644
9.35673
87.1735
-85.3894
-10.8404
48.8266
64.8833
-8.55994
52.2555
78.8019
-57.9515
63.6662
-5.38544
-109.938
-26.8871
-82.1025
-230.289
-305.967
-147.33
116.973
177.039
54.4056
-44.5223
-73.6107
-220.077
-252.197
-68.2685
49.7509
96.9262
121.393
132.724
84.1211
30.9934
6.02442
13.8754
61.2067
196.853
221.322
208.46
110.226
-133.497
-290.382
64.2365
131.662
64.4881
54.1147
-44.0555
-49.0184
-68.8983
-91.305
71.0765
94.1548
68.6186
60.5286
5.88222
-51.3235
-132.566
-114.46
-131.773
-122.434
160.416
190.696
-24.2019
-15.7527
-6.89947
-3.36312
-103.285
-237.276
-73.478
140.072
48.1263
48.7257
44.358
1.43945
-31.0601
-89.4662
-221.083
-157.023
-48.536
31.0594
-1.73378
-36.7844
-124.341
-137.891
-188.638
148.358
368.137
431.355
335.719
96.8825
102.527
110.386
-96.5725
-60.8425
-45.9472
-24.5533
20.956
-34.231
-85.2105
-126.429
-128.304
-18.0795
107.61
151.39
98.902
-30.091
-161.872
-131.022
-76.1884
-134.001
-258.779
-241.731
-98.1022
2.72321
21.7413
6.58895
72.0578
69.4081
89.1665
237.286
295.78
282.887
124.651
-28.4586
-77.8446
-230.846
-151.667
-29.4354
-68.7922
7.73639
47.2503
1.39048
83.6346
49.4729
78.3078
105.774
132.88
112.697
29.309
-64.4814
-129.65
-147.985
-59.5312
-28.4718
-0.756683
7.36918
-8.83574
-45.1359
-76.7223
-148.275
-69.3044
105.491
93.9246
72.5202
55.9159
53.643
-0.683151
-56.1329
-141.086
-152.678
5.71687
45.3061
-18.2071
-5.74228
10.9562
-10.5609
-2.92519
-73.3243
-144.752
-16.7303
127.806
46.5205
-6.29792
143.757
124.564
88.446
-49.5481
-136.023
41.2046
60.152
15.333
20.5705
14.5834
3.83565
150.478
126.909
63.775
55.9024
46.2374
36.9279
-54.6182
-131.355
-159.14
-140.894
41.6448
-62.817
-83.654
-80.3273
-95.5614
-3.04417
-97.5045
68.2668
142.548
70.1521
-98.2744
-135.492
-90.7575
36.7937
179.436
214.836
160.17
-23.3576
-127.545
-179.499
-245.76
-156.896
-116.549
-5.30704
222.387
187.739
196.406
120.914
-13.2777
-4.11284
-29.8021
-37.646
42.2813
-4.27626
-56.1439
-62.883
-47.5482
79.0835
191.222
65.5378
75.3067
112.677
127.385
68.4391
-132.165
-127.191
-17.5741
-64.8643
-91.7256
-8.8907
95.9069
85.2838
-81.5936
-192.149
-205.384
-121.188
-120.054
-112.793
63.2144
120.591
-4.98554
-32.8272
71.8866
116.61
63.8751
-42.6675
60.4129
121.434
51.6774
-11.4159
-35.8397
-30.2793
-64.4584
-119.125
-47.477
53.6069
-16.0486
-67.4022
-80.5799
-20.962
-4.39302
-50.6981
80.9956
143.723
189.848
262.961
159.536
-39.1705
-53.5832
-114.695
-66.7905
-42.7661
-36.7181
-16.675
151.826
114.177
-115.717
-188.124
44.5328
95.4206
81.5598
187.822
12.2004
-89.833
-162.893
-281.094
-289.896
-140.461
-41.5143
91.5853
86.7286
84.5272
103.322
166.829
23.04
-79.2446
207.374
227.043
-44.4047
-162.599
-171.723
-157.726
-130.347
-48.9138
45.1496
158.601
150.121
122.664
57.1774
-105.077
-143.586
-36.5396
-79.7537
-55.4966
-6.03998
34.4138
29.4666
81.0046
61.0655
-6.42381
-143.58
-40.5058
108.721
99.75
15.5066
-9.11612
-23.3601
-38.5082
-47.9986
126.881
232.089
70.1604
87.5853
94.2876
-23.4607
-92.637
-152.323
-19.7152
132.922
108.394
183.354
86.1684
-28.4162
-81.4881
-178.186
-271.449
-208.519
-145.238
1.88246
16.7629
-84.3767
-80.1553
-144.009
-193.896
-145.378
-58.9307
6.65243
35.9098
89.9821
360.909
293.789
125.3
137.365
67.8336
15.5087
20.983
-63.8021
-77.2127
-106.968
-143.216
-48.8813
-6.0915
92.8731
160.286
126.075
93.8516
84.5075
-27.3789
-60.0567
-120.036
-58.0943
-5.04185
-99.2036
-87.1497
-36.25
-142.689
-171.194
-41.5761
127.761
266.302
171.986
70.8924
20.8643
18.367
-0.720886
-75.4319
-17.0768
52.7812
65.773
-1.37287
-52.4542
-11.7889
-23.6282
-125.88
-116.034
165.388
215.043
99.6512
-2.64027
-111.168
-122.451
-38.9108
-61.3824
-34.292
10.3969
24.6357
2.72821
-78.6737
-205.338
-223.447
-191.432
-41.3563
46.3218
166.879
207.635
134.939
83.4166
-20.6723
-120.245
-78.8219
84.8383
83.15
128.431
140.743
103.053
72.7037
-0.530919
-56.2222
-40.9267
-123.583
-100.463
-63.1011
-45.0309
-30.7439
-13.8451
-25.4477
-27.2239
180.346
161.827
80.7534
-16.3497
0.365641
5.15974
-39.2645
-181.969
-80.1529
-22.9064
72.2455
115.847
167.889
75.5141
-115.272
-171.013
-44.7207
-26.0805
-27.8763
26.4157
-41.4644
-97.0677
-47.0981
20.6845
16.8143
75.6107
46.1957
77.9077
49.7539
97.3254
42.9031
-30.7401
-124.614
-14.554
46.4499
-6.22485
-69.2366
-99.5224
-44.907
86.0019
-4.02549
-95.8265
-148.68
-36.2747
211.284
90.0621
67.3517
76.844
20.007
-75.1597
-110.905
-147.161
36.8594
40.6698
-21.2937
-29.8157
-48.3691
3.18113
-81.2443
-112.062
157.031
276.343
194.017
43.1025
-141.87
-131.052
-93.9519
69.2657
140.744
167.494
138.461
-7.95348
-167.061
-190.324
-166.714
23.4211
106.572
174.38
149.475
-25.0648
-129.004
-20.9776
-31.6173
-54.3411
39.0738
72.8959
3.79436
-73.31
-121.813
-129.32
-143.079
-112.353
64.618
197.618
216.327
93.1711
10.655
-56.9127
-35.6441
44.4084
-45.1353
-23.7699
-12.2398
-117.301
-186.295
-142.081
-64.7845
18.1485
-39.0234
-79.9546
144.004
268.91
143.334
7.23616
-39.9237
-39.1927
9.2626
-19.6605
62.7258
304.894
145.106
-31.1385
-52.902
-34.6993
-69.3039
-181.346
-232.805
-102.477
-30.6201
20.202
-37.5639
64.2138
229.491
182.429
200.296
135.262
58.6121
54.1721
-64.2934
-306.466
-239.666
-236.402
-45.2249
99.4468
-70.0696
-61.1198
32.4537
60.4557
138.961
189.562
105.845
49.671
4.23484
-17.5088
-174.709
-174.973
-132.979
-147.577
-154.286
103.236
201.519
111.874
67.6855
119.731
112.439
33.3146
75.0224
62.3836
-18.9755
-44.6927
-14.4476
-65.6321
-194.329
-205.023
-45.85
33.1691
-9.17363
29.6858
155.894
-41.0486
-227.247
-229.278
1.25722
27.9607
112.408
251.348
245.352
81.7508
21.2038
-47.9189
-140.88
-50.9267
-21.5377
2.61546
1.39379
95.1899
185.957
142.516
29.1181
-153.466
7.5156
101.971
-81.7291
-31.3122
117.95
39.1955
-65.3652
-163.064
-214.592
-16.6924
112.003
-34.0168
-86.6168
-33.8585
-2.17575
-49.3404
-139.03
27.3128
121.687
58.4334
-76.7876
-36.868
-17.1428
-51.0324
-9.38902
130.7
64.5549
42.7406
62.1146
-50.3016
-111.519
-144.399
-150.109
-8.62403
90.8416
62.5292
83.6823
21.7081
70.7022
123.923
-5.48709
39.0591
135.087
101.489
12.9962
13.2796
51.1524
-60.3134
-79.4041
-102.203
-184.849
-19.0956
75.6519
142.616
173.372
88.3841
169.036
84.6651
-244.002
-173.45
-59.9704
12.3211
-35.8167
-120.969
-164.111
-305.785
-255.015
90.2652
125.405
69.449
181.295
172.054
107.581
-78.5534
-192.856
-31.7535
-55.3501
-80.6326
110.862
145.778
192.325
89.5571
-117.437
-205.913
-120.805
93.5472
57.4319
-23.4928
119.273
123.584
98.9377
94.901
48.4792
162.266
72.8247
-152.829
-253.13
-176.047
-33.3633
20.1719
4.28128
-57.6494
61.4538
103.719
56.1889
14.2004
36.2841
-45.2192
-8.29646
41.4237
26.6812
-84.2499
-74.544
-99.6708
-70.5394
-9.80908
-8.47346
9.66738
47.6153
1.34824
4.79654
44.3791
30.9072
11.2794
-72.493
-84.5149
11.4844
-0.517223
-68.0532
-50.0972
19.2943
-7.12738
-92.9631
-105.84
97.4463
119.509
170.547
231.479
195.335
38.8576
-63.4469
-115.518
4.57279
32.3741
25.1148
-63.3253
-141.074
-71.9
-5.05601
38.8713
39.9243
12.8065
117.792
69.6011
-23.5731
19.1445
-9.05074
-114.62
-219.343
-200.895
-46.0853
60.4263
-74.6865
-123.843
-21.6614
26.7231
-1.23793
11.8188
49.1102
62.5235
298.815
320.194
97.403
-69.9216
-149.313
-138.734
-46.6383
27.3447
46.0047
14.0282
32.6429
80.1717
22.4278
-7.37757
-53.474
42.9626
192.579
60.3288
-12.0409
-70.3499
-126.735
-85.2648
-219.839
-191.26
19.1403
93.9835
49.4676
-8.40056
-26.5079
51.7899
-47.7276
-162.574
-56.1398
63.357
72.6434
5.08193
-83.9501
-30.633
-46.2297
-129.75
-134.309
-95.9354
139.552
224.625
121.934
86.9265
22.8427
16.9253
126.845
164.825
164.251
188.856
199.178
131.291
-47.8665
-75.2128
28.9263
-10.3195
-59.7186
-35.2412
-152.638
-168.546
-165.449
-46.8193
-27.5443
-39.6865
-6.53147
-35.9906
-92.8524
-103.288
-114.787
-138.324
-131.205
-88.1355
19.5913
38.8653
-0.296429
54.2258
65.5645
61.1007
-58.227
3.22053
212.407
253.047
41.5346
7.41673
-19.0687
-31.2572
-43.4574
40.9952
212.695
176.857
110.44
52.0397
49.2784
-50.0214
-225.17
-241.476
-82.2832
20.2185
39.9087
-20.8203
-25.8543
-90.4185
-155.498
-118.338
-43.7242
-2.19427
-47.8836
47.7621
112.992
76.4491
-113.241
-34.2968
226.328
306.534
328.416
241.135
-4.52129
-5.04865
-65.5404
-179.978
-78.8379
-41.8548
-19.7139
-4.1064
20.5757
-74.7717
-128.599
-237.037
-410.641
-189.679
-1.42001
28.6221
-73.7222
-77.986
-4.97446
6.05535
-17.8606
106.896
202.412
254.059
181.721
115.022
117.497
-26.8045
-150.887
56.0828
126.371
129.554
118.558
43.8479
49.2109
7.3322
-103.655
-75.1372
79.0817
101.479
49.881
-92.52
-55.0108
-15.0551
-134.495
-243.099
-244.368
35.1156
255.822
102.21
0.316951
-88.5847
-54.9132
-14.8906
-140.417
-127.986
19.0045
-25.5544
-108.809
-31.9865
33.5523
0.8569
-15.8048
-38.3299
2.51035
39.1216
67.2693
32.2025
-23.1734
10.5936
62.5333
3.03265
-10.8259
158.632
224.429
127.939
54.0931
58.1858
-1.80103
-123.663
18.8633
44.0661
-13.4241
-12.2438
-140.255
-90.5628
0.661732
-166.191
-151.813
-26.1656
166.736
232.591
88.6509
8.38524
13.7454
-158.671
-98.6733
-1.24544
-24.6214
25.8498
22.5149
28.2511
63.8741
-35.2158
-111.386
117.365
184.328
11.2319
-66.9762
-106.864
-195.469
-126.539
27.6517
-123.806
-134.22
-24.2727
-20.2072
13.9621
81.7201
197.359
275.75
81.503
-159.347
-15.6073
152.426
8.94358
-3.26424
106.933
109.5
96.3111
26.7559
-122.087
-127.475
-133.273
-104.551
-4.09876
-18.9232
-24.5324
-4.66969
-64.5109
-163.226
-1.03408
109.304
88.4295
63.323
-11.6024
-54.4076
-97.8892
-183.824
-24.033
135.43
148.232
108.876
172.765
146.513
83.4739
-55.5685
-85.9703
26.955
20.4868
-36.8305
13.6642
56.5435
-12.6631
-60.0009
-125.385
-186.323
35.181
129.226
13.8279
-51.1035
23.996
28.1351
1.56379
-53.6878
-0.17082
-9.9291
-62.8315
-147.168
-151.214
-101.852
-143.893
-241.011
-3.14922
93.8851
133.156
190.392
116.039
64.2122
-50.3983
-34.0612
144.809
126.611
150.46
172.67
201.505
158.461
2.60725
-155.18
-18.545
-11.3527
3.63603
63.2973
-93.4848
-144.902
-132.625
-139.87
-63.1767
-12.5566
91.7864
66.1408
-84.2249
-103.492
-134.645
-127.361
-182.734
-231.328
-141.144
199.693
254.57
167.739
212.091
150.869
4.9208
17.3977
-30.458
98.5398
57.9529
-11.1289
-69.54
-75.0731
-104.083
-141.966
-195.182
73.718
126.68
243.772
339.468
32.5076
-235.476
-275.987
-365.093
-126.914
171.703
267.69
188.024
13.7584
38.7606
103.056
-59.5724
-72.0835
24.7835
60.7255
124.192
27.7749
-70.671
-34.1242
-113.942
-198.462
-30.3246
87.4929
95.8667
-18.134
-174.457
-210.531
-49.8505
-33.0025
-46.3916
199.796
252.474
76.3532
21.2082
54.7632
1.09022
-148.142
-143.1
5.49049
34.5943
99.5719
26.8456
-19.7446
-37.6728
-156.643
-39.4197
121.126
109.294
100.093
34.4451
-120.441
-104.464
-84.2274
-113.08
-23.2104
56.3097
95.864
137.475
51.1083
74.7476
89.5101
14.2008
-114.876
-122.187
114.544
46.5013
-50.8353
-35.4873
-13.588
-19.6538
-67.4771
-106.048
-49.4107
114.828
123.173
33.5657
1.6404
10.8991
-43.7241
-57.9389
-92.0266
-18.8967
140.752
128.865
48.947
124.947
85.7482
-35.9338
-125.614
-52.0489
-42.3358
-33.1314
-23.0882
-84.0424
-99.6616
-80.8764
-145.76
-64.2768
-34.2572
-92.1186
5.10204
78.8844
89.5935
111.822
-8.90349
-109.154
-184.198
-89.8103
57.8429
269.866
388.624
433.882
220.5
56.8908
102.352
45.2968
-52.8582
-165.781
-259.343
-217.348
-168.732
-47.4523
-70.474
-139.461
-39.3524
3.30816
71.1242
87.9948
25.903
-182.961
-333.57
-305.62
-54.0746
35.9114
-5.05947
57.6744
186.364
229.002
205.269
97.4765
187.183
55.26
17.1027
88.5003
133.66
78.0984
56.074
31.7467
-132.659
-96.7567
-34.4999
-26.307
-27.6782
-52.4186
-88.4257
-108.64
-88.4876
42.8297
74.6377
153.404
40.8507
-15.3362
-20.6833
-81.5949
-193.035
-113.275
-9.0715
-7.66038
94.2867
60.1563
53.8282
61.0691
35.5451
-88.8526
-166.855
19.1988
47.6336
-53.0247
-24.6567
41.5788
57.5688
-33.93
-109.229
92.3167
107.31
29.7936
-52.3821
-40.5997
29.2769
-50.386
-135.11
33.0858
25.1217
76.5772
102.611
42.3865
84.0853
-3.10218
-22.0664
45.7018
-26.0929
-22.8933
29.3392
15.1251
91.188
-7.62631
-17.5657
-41.9595
-101.949
-44.8152
26.5911
-47.4295
-14.9252
1.67495
-45.6075
-35.748
4.50419
53.4579
110.388
23.6631
-24.5141
-36.4887
-64.9645
-168.999
-121.898
-113.103
33.9739
74.4458
107.921
133.107
138.787
135.737
87.5623
-43.9019
12.7528
2.30604
-58.0249
-69.0599
-68.9616
-61.7731
-72.6837
-85.3555
33.7379
102.233
62.5496
135.631
40.5236
19.3713
-27.3898
-123.229
15.5333
-15.144
-83.9966
-12.5066
-27.4794
-40.0877
-67.9198
-53.7306
45.9943
30.4112
9.88504
52.643
56.1071
43.3678
30.0844
3.95479
-133.568
-154.261
14.0029
-3.70233
-68.0166
-50.8303
93.5791
213.387
97.8783
-91.814
-10.4462
66.8147
49.4234
70.0778
45.5881
40.2841
6.02916
-111.591
-25.9361
117.101
75.2133
1.85505
-71.6819
-43.983
-121.794
-197.091
-61.9728
75.4621
55.8388
23.8789
-55.2315
-121.047
-136.843
-98.2758
250.037
446.007
264.98
100.761
-70.7416
-191.106
-274.229
-228.925
-77.9486
88.7848
71.9875
54.29
-45.7289
-137.506
-73.9883
5.55883
5.15577
5.52839
110.947
70.7517
-62.6794
-63.8755
0.830468
42.6025
28.7083
-70.4216
23.0573
235.497
129.909
5.08077
-29.2763
15.2487
-10.7
-112.099
-141.362
93.3839
253.215
97.9284
-105.652
-49.528
-6.61295
-34.8715
-104.476
-29.1499
22.9992
48.0006
92.8477
9.28053
-36.3777
-78.229
-173.923
-164.992
-97.8058
-9.84762
102.118
20.7544
-14.4366
51.3372
-6.16631
17.2166
12.1774
4.89092
21.1412
16.8956
-9.71619
31.4511
43.1752
-22.8161
-39.7837
89.1768
184.863
207.559
130.267
104.259
23.1169
-73.8092
-220.533
-134.996
79.3986
-2.06593
-137.591
-226.084
-122.451
-44.9583
-10.5293
56.0929
115.916
101.266
104.067
-13.9526
-78.3829
-115.5
-109.086
-117.18
86.9969
72.1884
41.8261
46.0495
-34.1499
-21.4824
-9.53403
-14.134
-33.2931
22.7157
93.3419
33.1204
-28.9643
19.6824
41.7769
-11.7785
13.5241
17.8604
71.5078
160.525
8.22854
11.5901
71.6244
28.5592
-26.9787
-27.7119
-91.4285
-44.7585
-33.4109
-42.0556
-108.891
-75.5479
25.4394
117.529
165.855
94.0278
133.487
52.2296
-143.324
-249.082
-244.07
-161.245
-15.8047
34.2371
-2.11958
-87.7923
-23.6981
46.6868
92.1523
28.6482
29.5749
100.168
156.455
-3.13275
-92.269
11.4576
11.7247
-10.4467
-7.67193
-27.5227
114.527
56.5929
-8.87754
8.05433
12.561
31.1959
4.6883
-195.532
-150.308
24.0968
141.956
58.5683
-4.62709
-4.6303
-28.6167
-21.9211
-59.4754
-138.236
-8.07591
133.983
-4.26001
-31.3242
-8.39431
101.217
240.424
165.752
34.3708
148.064
44.1101
-61.7545
-141.614
-133.779
-151.245
-125.426
-93.5042
-150.975
-36.9642
167.257
112.946
26.9946
47.6083
47.6739
-13.7199
-130.845
-158.264
19.9117
51.8537
23.2495
84.1388
88.2958
20.2343
-128.496
-73.2023
97.0762
89.1638
77.4334
-30.6235
-98.6666
-52.5786
0.0715946
-66.183
-32.188
77.3157
41.0663
-14.33
-47.8048
4.40839
-8.76608
-9.01775
-102.496
-11.2638
100.259
23.3063
-90.2738
-86.3455
-47.6255
68.6947
229.735
131.135
85.2128
105.081
42.4781
-52.7975
-41.9395
-67.8239
-121.806
-8.19022
9.89
43.0609
165.341
96.9786
-6.83046
-134.352
-246.626
-112.867
64.4884
31.4384
29.0668
78.0147
-42.5761
-87.7462
-93.8254
-31.0811
5.28006
16.9178
-20.5103
-113.243
-39.9982
49.8458
64.0417
-15.7959
148.213
244.351
163.173
52.518
-25.6612
-69.9171
-146.333
-119.929
-139.25
-21.8041
21.9922
48.1421
47.4941
22.1668
20.2018
-4.60019
-59.3101
-117.705
-211.324
-39.0343
59.1948
-19.9048
42.9873
202.842
170.022
70.1074
81.4535
217.644
256.632
110.166
53.0206
-30.0931
-131.207
-158.976
-197.292
-172.001
-23.2066
-79.0494
-158.524
-139.726
-106.103
-28.6716
-87.3184
-17.2863
26.6651
12.18
-10.7203
-37.3749
3.52164
42.2289
48.4616
-37.5487
-1.7879
203.694
227.04
203.486
69.4423
48.4453
89.6701
3.178
-123.058
-3.33162
83.9248
-36.332
-47.0786
84.5095
29.0804
-177.146
-144.633
6.65833
98.3641
113.487
49.4722
-84.9768
-80.2171
-169.44
-48.262
82.4301
74.9909
33.3117
-0.338233
-34.786
-61.6962
-215.266
-149.519
-67.903
17.3829
98.9452
59.6275
8.91632
-8.55472
0.689213
30.5352
-81.2953
50.9547
160.79
45.1728
1.11001
89.1047
56.3431
4.34771
-84.1568
-97.6621
81.5848
246.537
62.1982
-97.2059
-92.993
-97.8048
-110.85
-123.56
-149.654
42.7654
161.007
135.502
52.4155
-23.3473
-40.2783
-114.538
-102.116
213.761
243.174
186.497
78.479
-149.961
-133.843
-35.0172
-64.3401
1.16928
14.5576
-51.8905
-95.9459
-75.0553
11.1937
-64.5062
-104.733
90.2207
69.6886
74.5865
88.9788
-78.0104
-101.578
-75.4618
-124.12
-34.7169
7.57974
-33.7819
-22.4303
-32.5565
-19.0569
50.5828
128.589
119.119
232.373
328.544
229.018
-32.4939
-58.9203
-37.1885
-44.3727
-187.79
-188.74
47.7567
83.2675
4.7449
-22.5205
-24.5324
-4.68133
-85.8929
-133.184
-39.6422
213.791
107.771
-212.248
-286.412
-106.62
-75.8045
-92.2534
-61.3905
90.4052
105.402
103.691
158.887
208.959
71.2668
-17.6495
-85.493
-9.498
0.00479853
9.5055
-21.6695
-115.297
-36.3215
74.5757
0.046757
-1.38055
110.463
88.9896
69.9278
-9.81151
-3.34172
3.70556
-112.672
-246.678
-88.1325
25.82
49.7355
15.9965
76.5518
120.416
107.803
42.7806
-98.3131
-74.7383
13.4657
33.6953
-24.7401
-30.4834
-11.9804
16.6779
-66.5468
-38.9011
22.7978
60.6693
-5.05893
8.07868
53.2327
53.5462
20.2364
27.6121
28.6405
-10.876
-6.3727
-96.1298
-81.4995
-46.6456
-155.188
49.6614
92.413
52.398
95.6751
73.3355
-20.5054
-83.2928
-139.572
-8.12228
126.616
84.2241
2.56263
-130.34
-166.308
-184.641
-151.681
-187.142
-117.096
69.9622
313.998
375.951
375.175
287.183
117.234
-43.9349
-206.999
-63.4323
52.6047
-25.8641
-103.257
-106.716
-68.2394
-56.1221
-108.496
-168.648
-85.9724
103.632
121.509
96.3994
15.7078
-143.551
-220.625
-263.113
-103.684
41.7105
140.022
101.236
18.83
-39.9149
-27.1434
-64.9345
49.6825
314.723
415.946
367.306
171.46
7.40775
-72.5452
-184.326
-91.2452
-85.1674
-142.708
-95.2222
-66.7236
-55.5178
-12.1092
26.3447
2.46968
-80.2393
-50.1993
45.2178
-47.4882
-124.513
-134.539
-29.5527
118.005
149.908
105.744
114.895
-30.5097
-83.3454
-54.2445
-50.3404
-35.2745
-64.7894
-37.4368
8.51905
72.1687
110.443
-13.4057
-55.1898
-7.347
-96.1046
5.72781
219.079
200.915
136.62
51.7789
-53.4106
-92.6317
-196.658
-184.758
23.3746
24.8418
4.34964
15.427
-14.4652
-7.55898
26.7767
-7.02626
-48.0366
74.8439
184.207
68.0168
-92.0487
-130.151
-99.9362
-42.4553
-53.2796
-42.2458
148.753
162.355
26.3238
16.938
59.6202
36.5788
-12.0315
-84.3914
-27.0365
23.4095
49.4569
41.5938
8.73369
-48.6927
-168.333
-184.218
-47.7129
-32.5398
-53.8159
-37.8218
-41.5695
41.9084
37.7165
3.1085
202.778
274.953
232.593
107.301
-69.6172
-102.09
-93.6737
-151.004
-75.1707
-43.045
31.7188
41.729
-50.2932
-47.3308
-38.8575
16.3458
54.9982
43.0361
71.2194
153.896
-69.9381
-9.09081
-13.9619
-48.4062
-70.679
-7.86038
39.8994
-35.1176
-125.662
-97.3708
-64.3403
0.58039
-10.2689
24.025
86.9676
71.3833
32.5787
-23.4999
-114.996
-126.92
-122.237
-101.441
-60.2623
160.851
235.451
191.449
125.368
136.761
77.0954
19.6963
-104.643
14.9561
24.7422
8.6172
35.6178
80.9902
126.669
47.5652
-36.0633
-13.0246
-80.6291
-178.668
-148.392
-141.296
-66.6149
-50.7194
-105.541
-19.4363
67.9663
107.789
84.0176
-35.1123
-12.4196
82.9323
41.1929
-160.528
-145.388
-23.9404
22.1642
-13.4183
39.4745
26.1434
8.65259
-52.8707
81.8886
237.013
191.565
59.5117
-66.9813
-129.151
-111.812
-220.481
-170.106
18.758
78.1671
148.351
95.3263
-54.1883
-128.191
-141.975
3.23898
215.081
314.244
175.333
-7.08385
-103.369
-33.5314
-45.0777
-69.8336
44.7224
56.6148
19.2261
-6.46472
-124.821
-128.348
-151.291
-221.936
-57.5743
142.54
144.75
80.9741
27.3664
32.7456
53.9914
4.07702
-53.3336
92.3557
64.6042
33.5605
-24.1535
7.78975
63.7851
32.0579
-82.5537
-138.427
15.0511
122.546
90.3405
97.666
89.0335
12.207
-142.257
-280.577
-179.363
-6.91486
18.4978
-54.0536
-55.3293
-69.7106
-101.782
-100.109
48.2292
158.213
162.018
216.127
130.485
-83.8325
-165.575
-243.066
-86.3009
134.147
126.713
94.4642
58.4941
-58.0507
-70.163
-69.252
17.6659
247.687
362.177
214.778
26.0001
-62.257
-98.292
-124.593
-145.314
-144.56
-0.450034
44.5815
-9.0855
-109.613
-159.091
-56.7613
-44.6005
-113.193
-44.0896
10.8356
77.4225
-0.586922
-98.7177
83.4045
120.196
19.5587
66.3454
28.3535
47.9684
174.506
54.3049
-17.4206
-45.7528
-92.0707
-8.01355
-53.7991
-32.5432
37.9837
22.3008
-0.182868
-52.6908
-148.322
-98.0198
92.8708
208.758
247.752
81.6659
-5.60671
-51.3498
-185.443
-335.79
-224.338
41.6465
111.199
89.7684
140.762
140.221
92.048
3.8262
-93.3135
105.034
144.656
58.4407
-122.254
-192.814
-180.029
-163.321
-62.0283
76.7624
316.089
369.603
204.727
-17.0869
-81.0129
-109.756
-188.584
-70.9066
82.3497
-28.7505
-56.6281
-166.588
-165.487
-133.259
-187.262
-175.203
9.90565
75.1661
94.5963
14.9386
-91.1469
-8.71261
5.95802
110.384
202.931
181.588
95.9054
-11.5243
-75.8443
6.74854
25.2839
-23.7635
149.971
186.452
143.173
98.8099
-42.4134
-43.2377
23.4284
-53.2619
-166.48
-1.93233
97.0134
-16.5521
-81.6848
-48.7801
16.5083
-74.0776
-137.371
-11.8074
-6.71194
-20.1062
-107.64
-106.695
-36.9754
-62.5405
-85.5705
92.9363
65.7282
47.395
77.5341
86.9402
176.783
209.386
37.6165
-159.416
-105.846
-41.488
-2.3149
-45.2435
-41.8361
-64.5658
-110.019
-62.2682
165.903
167.98
158.407
31.8018
-58.1675
-23.8584
-15.8139
-122.021
-144.016
-193.025
3.44784
81.7388
70.1693
61.0856
30.1687
6.90529
-30.1778
65.731
210.123
108.228
-41.1855
-112.19
-152.608
-69.3466
97.2463
125.164
162.349
82.7363
-8.45785
-109.094
-196.713
-173.163
-248.689
-209.425
5.26902
90.0247
200.781
282.861
75.6907
-25.0894
-143.919
-34.2899
142.462
112.457
12.6743
-55.5917
-91.6222
-60.7532
-114.079
-35.4673
36.634
12.3434
64.9726
117.698
38.9316
7.86765
-37.6899
-26.8786
179.269
177.705
55.9334
-22.1393
-112.749
-161.192
-164.266
-56.5156
-95.1422
-84.3049
95.0224
69.2959
50.1903
-4.44981
86.4295
157.54
18.6831
-83.3106
-41.9289
94.1492
-107.899
-86.5041
17.664
24.0916
-44.969
-86.1045
-56.3524
76.3329
75.1614
70.033
8.1484
6.13164
-57.1843
-62.2053
-91.2373
-3.88629
2.91235
44.6472
35.7024
-179.619
-146.621
-47.7434
57.5419
195.284
130.712
82.3002
13.6508
-82.9577
-29.7622
-52.8853
-0.787258
14.9735
38.1765
230.273
153.545
31.1209
60.246
62.0428
21.9174
-79.938
-176.058
-103.554
-64.6751
-86.9285
-5.00654
42.3511
55.9723
6.59398
-41.7265
117.164
28.3227
-68.3846
-71.5474
-63.9627
-22.3084
-70.6107
-99.2503
3.75939
56.5571
18.3464
44.2908
-2.42921
-56.1342
-94.2264
-134.928
71.2915
111.82
92.5798
109.196
63.7415
34.8177
-27.2736
-144.838
-118.491
49.5449
24.3278
35.9728
4.30322
33.1578
50.4874
-33.5276
-123.863
-111.197
95.947
199.268
62.172
100.432
94.6357
-18.5259
-74.3863
-118.257
-32.158
122.15
149.426
140.425
119.497
-47.2531
-223.757
-315.668
-205.092
-73.5852
72.3527
124.303
184.487
198.265
127.089
-65.1364
-189.212
-182.008
-40.8094
-24.7227
-33.2006
-39.2683
-15.2571
-97.4093
-173.127
-113.307
61.0643
173.119
89.3469
61.1293
30.5288
29.5219
-111.782
-212.422
-167.463
8.37218
83.4444
207.146
193.249
157.441
122.83
89.4085
-70.7937
-126.815
46.1229
151.217
113.412
99.3001
73.0753
44.4568
-58.8907
-232.2
-166.095
-79.0678
-85.0764
-12.4505
93.3095
180.963
53.5726
-48.7562
-25.705
-39.7576
-71.7483
-63.4255
-61.0125
5.47058
73.5657
-1.78903
-50.422
19.2569
16.9853
53.229
-20.7254
-108.604
-134.069
-156.872
-234.621
-334.487
-88.7081
197.404
254.501
220.791
198.274
105.7
-93.6514
-169.394
114.408
158.575
111.847
57.2909
63.3267
97.3001
56.2183
15.2826
-60.007
-61.7133
51.2613
65.5127
-63.5081
-122.756
-119.552
-67.5936
-0.687474
-21.1397
166.858
126.093
-126.758
-181.557
-153.484
-96.0551
-65.9138
-2.94164
-8.3965
48.9135
134.357
117.906
85.1766
88.689
20.6776
32.3219
-108.103
-146.654
-103.96
45.6772
110.643
47.3415
-98.5215
-16.7321
144.666
37.5599
-56.6109
-103.124
-92.0768
25.119
74.0344
140.738
139.627
39.1679
-74.1881
-134.612
-17.8787
72.3718
89.6297
-35.0371
-184.088
-0.673782
21.1235
-0.97883
-85.1873
-88.0096
-60.9954
-109.878
-173.281
-84.7909
87.1748
79.0482
103.818
156.505
113.203
52.8405
15.6137
-59.3937
-48.1516
65.9752
124.207
75.2749
39.8854
0.683993
-17.4372
-68.4526
116.12
230.144
229.111
50.5942
-106.671
-158.597
-195.757
-217.785
-90.4747
2.33863
49.0763
86.1768
39.4396
-19.8082
-78.7139
-169.842
-139.84
-39.715
-43.2618
26.0565
12.133
17.9885
27.6698
26.9629
-59.0232
-131.208
76.8495
149.413
27.4014
-27.1678
-50.1421
-64.731
-34.5391
-83.6259
-39.4142
188.768
266.634
181.168
232.461
234.065
-5.30806
-213.933
-165.442
-52.1664
-25.8914
12.6892
55.149
138.498
89.0206
-72.8579
-2.79939
-23.777
-81.281
-79.9086
-120.599
-154.881
-173.372
-186.891
-46.0766
7.16666
43.7932
114.236
83.669
12.5702
-7.52823
-95.8231
-138.083
-97.4879
4.15657
213.741
214.424
153.584
123.839
17.7538
-107.304
59.9822
73.737
52.275
-69.3161
-72.3179
-4.64863
41.2797
44.9243
-12.916
-71.2977
3.07609
23.9109
38.4979
63.0693
-47.4617
-156.621
-92.7385
-128.314
12.3266
265.378
96.8634
67.9457
75.9536
-74.7572
-158.78
-209.872
-185.98
-27.2372
32.8609
89.4492
175.394
85.5513
-70.6261
-185.409
-111.192
6.83686
-7.55896
54.2445
76.0923
13.1831
30.8688
11.1925
-119.385
56.8792
137.864
154.959
113.312
48.0843
20.5588
53.0046
-7.86362
-216.867
-144.023
-10.2622
-9.18409
-5.83839
61.6989
112.501
81.0542
-65.9253
-67.9033
-59.2466
-11.8044
-74.4821
-57.3651
68.5909
92.0178
-47.248
101.155
64.398
-48.2009
-37.3782
-37.8687
-33.3638
-76.9786
-159.817
7.146
-0.596689
-13.0326
74.4442
25.7582
7.73887
100.252
72.8626
-57.6515
-54.6495
46.5078
74.0578
9.46961
20.5605
-6.17112
15.4399
3.23667
0.234761
169.938
171.422
-49.3032
-158.987
-154.862
-165.469
-182.236
-123.749
-2.17595
171.054
201.636
66.8576
-8.40111
-0.839784
-40.6149
-28.2547
-2.11413
187.424
92.715
-8.18222
-93.7965
-83.9936
-132.242
-81.9833
-23.2701
47.426
77.2597
175.339
99.0268
10.1196
5.56995
-115.697
-69.4982
-24.4033
-62.7039
-54.0301
-14.1623
-119.069
-80.8713
-71.3902
1.59493
148.355
140.523
125.547
107.43
82.5811
62.2311
-19.7447
-73.0612
-80.5949
-10.9126
63.331
24.3207
-29.9786
-53.3371
-36.3191
-7.96431
-84.0022
10.1334
27.8914
22.8064
5.07022
32.9928
38.6212
106.98
-75.4543
-192.446
-71.7014
-45.3645
-85.5564
-42.6443
33.7832
39.4326
34.1553
-116.085
-147.342
179.013
311.034
116.827
25.2532
50.7877
38.7186
-95.1611
-156.536
-2.96421
113.408
110.969
-10.5882
-33.2403
-85.5745
-177.403
-132.411
-12.7389
31.7657
188.887
185.106
19.8478
-75.4125
-116.698
-100.581
9.84582
-62.2629
-25.5336
16.3326
-47.1504
0.010499
15.9629
-68.2001
-4.8848
153.603
148.835
121.821
-2.54405
-63.9228
10.7345
-21.5039
-134.963
-51.0296
110.469
229.221
28.5215
-14.2666
22.1693
-45.5497
-87.5369
-67.5434
-82.9925
-90.2392
-91.6416
-82.5417
-55.6267
-24.4661
161.327
237.174
122.962
52.4216
-25.9111
-134.564
-206.524
-152.318
-58.632
-56.5424
-38.1529
156.956
237.589
136.357
30.3768
11.7386
151.815
-23.9376
-26.6491
11.8234
-1.6796
-11.5352
37.8938
123.15
-75.4796
-78.8432
126.738
27.877
-107.957
-123.712
-105.872
-164.807
-247.771
-181.059
12.1156
106.84
73.9075
153.522
158.284
65.9873
-76.6163
-120.624
-143.291
-205.285
-10.9794
127.417
-5.30591
-25.7835
16.4157
128.029
165.387
78.8048
60.7597
120.074
147.82
149.873
6.83185
-70.5831
-75.3674
-117.552
-82.3915
-55.31
-62.6477
54.9492
220.037
195.471
93.3543
-82.7109
-84.323
-73.7507
-92.9285
-61.6076
-63.6032
-11.385
4.22579
-54.6248
-143.44
-211.134
-44.066
105.99
46.8052
17.4707
50.6313
43.8138
-68.6178
-95.0637
-2.11931
103.372
68.6446
14.9339
21.3028
-6.28772
-106.02
-22.9086
-22.1285
-28.5415
46.7474
145.315
116.595
144.39
-46.9324
-123.595
-0.58193
3.57464
4.20231
-48.9912
-36.2995
68.7342
86.8685
29.7719
-48.7742
93.8272
126.5
-2.12013
18.7517
98.2774
44.2788
-39.5421
-186.015
-424.791
-256.841
104.056
62.2813
-21.6643
-30.0898
53.5174
173.226
153.837
16.5555
180.59
311.239
116.434
-53.9059
-95.9627
-163.817
-232.932
-246.234
-107.832
-80.3237
-3.61999
-13.9364
-131.849
-99.6512
-38.6471
-31.861
25.5265
101.708
62.7017
94.5492
-9.26116
-64.2396
-13.8457
9.29118
106.912
141.279
131.262
143.646
85.0187
93.9385
122.761
95.7654
101.677
31.7134
21.1469
9.43421
-112.117
-254.465
-205.618
-171.416
-208.961
46.0693
343.127
313.573
68.1813
-24.6538
-93.3912
-106.183
-156.194
-183.46
27.8595
75.0558
-3.73514
-36.5968
-24.3278
-26.7108
-71.9635
-167.575
-35.4273
153.869
106.927
-42.0801
-204.294
-141.266
-67.188
-112.815
-192.305
21.1978
364.31
403.805
260.889
143.043
4.03939
-41.6852
-119.331
-103.922
3.41901
24.7217
18.1473
-45.9412
34.7615
-14.7432
-203.195
-55.1873
46.8132
26.5461
93.288
59.5779
52.8361
58.2733
2.36271
-32.2206
-132.661
-81.8695
-79.0163
-49.6263
-24.3358
91.5829
307.124
368.743
85.743
-48.2984
-26.5448
-138.465
-184.628
-116.77
-44.2962
-89.826
-284.623
-144.665
-90.5085
-22.4996
66.3778
66.9607
107.984
27.4175
-79.2285
-27.5168
-6.20305
-51.8519
89.1844
128.045
93.9674
21.0659
-50.23
133.484
151.183
106.62
50.2604
-30.4689
-25.066
22.7296
-31.0702
60.7387
83.8881
67.9501
35.9872
-29.6776
-178.934
-218.915
-223.56
-95.6688
47.927
148.515
156.633
31.2123
34.2348
-11.6266
-99.3654
-172.761
-207.669
-79.9138
91.7567
194.727
229.279
144.063
44.4589
-35.2515
-122.641
-184.227
49.2596
-3.60642
-61.754
-47.396
-10.5416
-62.8853
-132.307
-73.6177
183.313
245.333
196.211
116.993
84.4866
-98.5442
-193.321
-125.614
3.66526
13.0757
11.3117
21.6757
-46.4382
-60.1259
-103.126
-152.214
-27.8771
43.6833
134.145
157.051
46.6417
2.62962
-34.3982
-78.8306
-51.2587
12.3718
39.6411
46.428
4.54733
16.9671
69.5207
68.9904
-112.685
-66.3412
99.2037
92.0588
7.13619
-1.10382
-5.18604
-66.6743
-173.416
-63.0128
120.218
188.388
111.217
-70.2631
-109.313
-122.077
-157.178
5.29522
31.9967
-34.3579
5.94905
3.79831
0.535213
44.9948
55.31
143.038
121.355
94.8795
53.7425
4.01285
44.4835
-70.324
-132.364
-169.937
-172.034
59.9003
121.554
-9.31452
-101.686
5.53393
125.356
50.7118
-83.8417
-199.311
-123.357
61.6422
46.8363
-21.9512
12.643
20.8778
-74.6601
-74.9534
-73.8221
159.138
163.381
30.2393
8.9719
-18.0484
28.936
154.673
58.422
77.0137
74.6852
107.587
56.3151
-60.7012
-48.1959
-148.4
-259.13
-66.7163
102.852
82.4024
35.582
-73.5121
-9.35446
-43.6173
-76.4386
22.5094
-0.451979
-57.3936
-19.4159
-28.9649
-6.40156
-6.17675
-92.4778
-59.4597
46.6694
123.55
225.796
39.635
-69.1888
-7.28672
110.523
2.54268
-129.022
-54.7626
113.078
75.4043
31.5555
-19.6835
-12.153
-72.0519
-119.479
66.4774
237.926
53.0486
-54.3746
-61.5529
-101.575
-120.233
-157.642
-180.986
-48.2616
36.9212
162.475
40.5955
-135.634
-77.7269
204.198
281.301
47.6419
79.2663
246.363
134.219
-76.5213
-168.707
-185.647
-98.7106
-91.0794
-141.755
-47.3507
17.3249
-39.867
-30.5151
35.9697
113.244
90.7716
-54.4938
-158.373
-147.56
-34.3966
9.68913
-28.2668
-18.3522
42.8484
76.3349
18.7451
24.2525
224.863
222.723
111.722
33.0702
2.60357
6.81033
-30.8281
15.5087
127.568
93.8617
-45.5749
-114.28
-32.9605
-26.6293
-122.028
-110.183
-35.8955
-39.5916
-28.6008
7.17548
-38.3644
21.8228
61.0739
156.789
67.2156
-59.9442
-19.3283
-27.0889
-32.2216
30.9344
-166.744
-239.446
-32.2304
48.2621
61.8522
28.005
-38.679
-32.8249
-8.04812
-64.2499
-37.9147
47.0924
21.9673
-15.2946
16.3068
85.279
57.5431
10.1079
-31.8801
-100.627
50.719
33.5749
-26.198
-10.6083
65.8583
107.454
186.076
189.835
95.3718
173.911
16.5901
-109.536
-105.965
-108.727
-87.951
-84.9277
-7.68255
73.2112
39.6908
18.1314
30.8543
80.6162
-22.0263
-189.501
-195.594
-85.8543
-119.891
-114.258
-20.3155
1.94912
21.7746
-65.6928
-18.3514
145.498
120.136
96.0746
24.7631
-39.3393
-36.2488
-24.142
-114.192
-7.59391
85.4972
75.0386
-4.1571
8.26351
156.808
189.475
140.515
-39.2931
-62.0972
89.1143
-2.77312
-92.5509
-86.5373
-81.0424
-140.137
-258.562
-99.1346
49.2838
139.15
229.871
211.591
120.118
31.9077
-66.1446
-146.247
-127.502
-141.106
-22.4725
2.26455
10.2845
48.2492
-35.3246
166.469
321.263
133.503
2.40447
-107.499
-217.795
-188.446
-332.578
-303.662
-46.0716
160.431
194.799
152.664
72.609
38.8003
24.6045
-40.2599
-31.5559
26.6974
29.2142
-103.629
-174.414
-51.7436
62.832
75.5262
107.304
61.7433
79.7985
77.2697
47.5262
23.9875
2.56191
-21.8936
-14.0611
-26.7891
-13.0609
83.5566
25.2907
-25.7946
-25.5032
-72.5081
-121.369
-54.7775
86.553
81.9411
142.149
149.853
110.909
102.576
54.3868
-109.518
-93.1425
-177.706
-189.112
-61.6156
-34.5868
-111.848
-257.614
-288.181
-93.0629
1.98909
43.5991
104.218
109.585
115.677
132.675
172.163
185.339
84.0629
-52.5809
-46.2087
-58.8998
-17.6991
19.409
62.7361
0.881368
109.544
125.59
65.571
-49.3317
-100.243
-94.0551
-60.2007
-59.4265
77.2013
147.216
103.473
-37.0944
-74.8021
-4.50941
61.2571
-75.0626
-143.445
-4.56368
-44.2065
-20.3834
23.8794
20.7449
3.14793
-5.11553
-10.7617
-48.565
-52.8131
1.03253
-77.1547
-190.279
-220.695
-195.324
-73.6912
-72.481
-55.6979
163.209
146.282
52.7559
211.246
192.4
-12.2755
137.795
228.794
224.763
190.925
190.673
98.3085
-31.9735
-101.915
-102.39
-84.7307
-120.261
-34.0695
63.1957
8.24513
-97.613
-37.5887
-17.8049
-123.289
-255.713
-194.955
-137.574
-59.5355
-3.83424
138.161
422.276
269.551
-182.94
-220.699
-125.129
57.4088
47.5462
-104.008
-157.399
-243.436
-190.898
157.299
250.126
290.156
283.747
178.399
60.3972
-126.989
-253.199
-247.124
-377.336
-188.507
181.418
230.365
82.9967
-15.5944
56.2613
58.0662
26.6946
156.293
361.569
251.091
-87.7189
-262.855
-97.3313
-77.1886
4.52945
190.449
102.568
196.743
85.1283
-75.9336
-129.787
-184.908
-15.0888
-112.011
-178.947
-28.6272
-27.8721
-25.407
-210.282
-227.314
-25.0759
-70.3126
-136.189
136.641
243.981
157.558
142.356
-158.432
-196.355
-22.4325
-0.39142
81.8166
86.686
-12.0984
-32.1105
-24.8214
141.805
251.212
44.3879
-63.1163
4.87411
137.224
151.924
-19.2179
-81.2352
30.1525
-29.519
-96.3335
103.848
82.1512
112.383
46.0098
-59.0817
-5.20805
4.75795
-100.331
-27.5622
-47.4778
18.3773
-37.848
-90.0876
-87.6664
-96.5738
-106.035
-32.0056
-60.2069
25.3911
4.93339
-168.813
-108.919
-24.2782
27.8783
72.2995
107.618
157.644
116.05
0.556683
-26.1982
-25.3691
-71.2291
12.0838
9.6566
63.7558
114.079
38.6713
-20.4957
-134.282
-48.4158
-3.51871
132.137
136.612
70.2968
-19.1815
-14.7124
7.15337
14.5668
-53.6184
21.0153
93.4933
34.9948
-71.543
-84.5715
-105.773
-82.9625
-46.3401
-18.7774
24.0375
96.9662
102.1
-0.30965
40.9882
-8.70661
-90.569
-117.004
-122.698
-51.165
87.3253
-14.0017
-65.1591
-54.5403
-102.41
-73.3353
7.61997
37.4316
107.18
175.621
131.517
48.5898
22.2479
8.15526
98.5039
263.195
371.554
82.077
-131.094
-216.546
-286.914
-225.677
-169.602
-83.2678
243.634
335.822
202.599
94.685
-218.381
-467.225
-444.189
-354.609
-179.959
10.3765
102.461
-1.79235
-71.2151
79.1034
188.264
236.831
211.128
194.16
344.252
312.544
49.7698
-174.566
-183.284
-136.35
-62.4904
78.9169
235.198
202.516
74.3638
-61.2339
-162.883
-176.564
-255.281
-122.294
72.3346
182.415
134.62
-1.82368
-241.022
-190.533
-114.516
-67.7605
45.3508
198.474
139.306
12.4093
15.5931
55.1811
16.3799
-66.6899
-167.803
-63.4798
2.6045
-34.3767
-42.6227
-30.7753
31.5952
41.9024
3.60646
-71.8782
-161.701
46.4268
-3.52156
-89.629
16.3812
86.2447
145.138
208.336
159.463
203.42
223.811
134.552
-70.833
-83.2899
-64.9743
-184.646
-233.951
-29.1991
5.41724
0.319677
-21.1939
-92.9725
-96.6542
-116.792
-63.9743
49.4007
21.021
-37.9313
-18.3696
-55.9699
-86.1265
-114.143
32.0341
129.142
80.6262
125.546
202.078
106.415
49.0532
12.2571
-29.0513
147.298
250.398
116.4
16.1869
-63.0479
-94.6202
-142.65
-247.496
-278.045
-151.334
-9.07381
66.1774
72.875
69.7437
34.4771
32.8558
-3.6266
-129.483
-7.08467
165.233
97.4236
81.3147
104.787
67.2466
-41.1015
-48.4309
-124.117
-4.65584
6.93081
-88.4799
-121.139
-69.831
-37.0981
-65.7685
-154.874
-41.294
62.6766
160.714
108.734
22.2512
-63.8491
-97.9076
-163.555
-33.1585
69.0753
131.109
148.557
95.8246
61.0507
39.1742
-122.34
-83.9987
193.42
192.247
16.3083
-179.355
-113.219
0.707541
64.9782
288.214
315.844
207.802
103.885
-1.10342
-73.855
-233.17
-212.643
-172.789
-218.637
-125.322
-14.583
-68.145
-227.154
-174.256
33.4457
109.018
-40.2108
2.20588
-47.3244
-161.606
-208.883
-159.858
-11.2171
-39.1071
68.8013
308.555
329.29
206.391
132.204
58.3832
130.312
239.833
180.994
300.972
212.939
-13.5194
-88.9748
-128.376
-159.583
-250.289
-271.203
-41.6604
79.8903
23.8872
-45.9844
-134.349
-157.476
-124.698
-71.2528
-126.716
-87.5817
66.8342
88.7888
-56.0286
-19.6617
143.567
157.156
90.3269
17.5976
-7.22868
9.64915
-58.6247
-56.3355
-2.6083
24.94
11.9798
-43.4547
0.0153345
310.631
298.646
172.847
-57.5536
-179.668
-189.793
-174.81
-183.556
-51.8459
48.7905
-4.45571
-57.1063
-14.8898
-80.8641
-201.601
-75.8775
103.252
244.84
198.915
151.151
87.6549
-23.0403
-94.3759
-119.576
-112.298
50.9332
216.694
316.334
132.779
29.6296
215.203
90.9994
-272.824
-290.755
-108.771
-109.836
-202.628
-260.094
-169.921
-93.3405
-95.73
-215.482
-77.1403
52.446
108.582
315.106
350.287
327.766
196.291
20.153
-137.325
-33.9731
27.7118
-48.6835
-238.773
-195.165
-12.5672
-58.8341
11.3535
297.505
353.61
222.299
14.9336
-107.132
-57.2285
-98.2054
-145.127
-287.479
-202.959
-63.2331
-41.8049
-22.3964
65.0507
111.995
95.655
270.129
335.598
172.125
-42.8795
-264.657
-251.399
-8.00523
61.4104
-133.585
-166.411
-20.0793
-83.3708
-43.9229
32.5779
66.7965
40.9471
-17.7176
89.3734
189.228
258.443
103.184
-51.539
-179.57
-228.184
-119.499
24.3532
90.1361
86.0124
202.971
104.935
-120.436
-146.201
-122.877
-70.6731
-40.3255
-46.4774
14.4911
-31.4419
-65.2882
-56.4357
-21.5206
100.715
209.845
85.4838
33.2222
-49.6003
-38.5915
45.1048
147.829
117.52
-87.8221
-79.482
-63.521
-143.412
-213.949
10.3871
211.21
248.167
307.061
300.641
-24.2401
-277.219
-129.081
40.7377
-98.9649
-199.514
-115.246
-181.741
-253.146
-175.851
-17.4726
-143.518
-109.047
12.7217
178.785
313.867
44.6826
-177.925
-103.079
-46.6578
104.119
238.399
204.737
154.664
57.3986
30.8078
138.427
196.85
154.251
128.016
20.752
40.3937
-1.12275
-68.9474
-18.5302
-67.5411
-105.285
-71.5
-190.312
-241.157
-147.082
-58.4732
-80.6391
14.0613
159.284
176.683
54.9726
-37.955
-101.566
-127.019
-99.9696
-65.7616
-102.575
130.794
73.7879
-82.0021
-21.1569
26.9517
2.25806
-8.818
-40.0812
-178.555
29.2729
154.214
121.203
92.0445
55.2559
153.24
222.491
52.5047
27.9884
-32.4156
-105.51
-196.44
-196.514
-226.698
-84.5432
81.8024
46.0021
-89.6
87.5697
187.864
55.4417
286.923
249.915
-3.23512
8.8535
123.737
-84.2965
-143.716
-168.928
88.3817
141.929
-89.447
-209.785
-58.6008
-125.163
-201.781
-129.251
36.6662
-17.6554
25.8652
23.9968
-61.0406
-76.2306
84.1697
-0.0481826
-191.746
-155.36
-69.7649
-87.9615
129.082
315.444
386.611
276.545
10.6309
-4.47253
173.583
47.1274
1.99461
-17.4076
10.8026
-13.8591
-153.089
-126.178
-48.2599
-121.377
-83.0226
151.79
153.593
111.393
-77.6508
-118.649
-73.1916
18.431
-21.1364
-59.7712
-81.041
54.0135
62.9548
15.3582
-59.7109
-81.7838
-126.907
-149.151
-11.4293
167.178
136.041
38.0111
39.2761
34.4174
-59.3858
-76.2461
-51.6064
-73.0523
9.87034
89.3032
-8.9907
-31.5344
-13.2991
41.7359
97.9335
24.1145
20.8375
43.3415
-14.2623
-56.983
-50.7217
-38.74
-18.4482
54.4436
117.345
18.5157
-20.3188
10.3093
-90.3101
-158.566
-70.6523
59.2296
131.753
108.28
68.8572
6.04389
-121.482
-101.053
-136.768
-167.174
-44.4691
270.912
353.89
229.152
106.687
179.227
52.8375
-28.3021
-151.108
-43.384
68.099
-43.8446
-181.62
-232.077
-262.803
-101.798
-18.3904
-149.209
-210.62
-68.1949
-46.2804
-115.805
130.061
355.052
207.401
-111.885
-116.075
70.5291
175.297
89.5679
-56.1348
-66.3055
5.27233
50.1245
47.134
37.5038
134.803
179.336
206.388
116.196
-1.06842
-152.916
-364.522
-372.815
-164.632
-32.9018
64.5947
202.216
279.657
144.266
-2.2208
-123.197
1.73237
94.6811
132.643
97.7073
11.3521
41.1188
33.0443
-63.1483
-178.253
-213.405
-92.7909
-69.662
-108.262
-39.334
36.0097
-32.959
-81.4397
-12.0189
119.514
102.076
-40.2578
-34.3292
19.7229
18.2905
-51.8387
-37.0291
86.0602
75.3911
70.4943
66.7869
59.4971
0.00511447
-113.338
-12.0758
137.599
20.8179
11.2689
159.199
177.536
57.7717
-121.003
-259.301
-126.608
-140.876
-54.3019
32.3642
22.7969
115.256
86.0348
-75.3119
-96.7641
-99.6474
13.6764
29.0292
4.12724
35.6298
-8.52939
-261.669
-207.177
16.3466
122.177
187.135
181.934
102.084
-11.7361
-2.92261
-25.586
-82.2057
125.209
173.549
40.472
-31.5618
-46.8236
-20.6037
-78.5114
-141.649
20.4682
83.837
-47.2542
-48.5792
10.0611
32.2272
-54.7532
17.6361
148.162
122.648
65.5895
54.1072
-23.2302
-2.44633
-46.7869
-146.99
-74.6152
-90.5312
-105.577
14.7899
79.6774
89.8215
14.7957
-4.63098
-16.0257
-61.2553
7.32765
-55.1147
-113.864
-114.025
36.0349
94.4601
-32.4117
-115.884
-73.4702
185.498
155.527
22.0774
-36.4476
-89.1535
-135.432
-89.9799
101.928
305.91
213.742
35.4043
96.2146
319.538
110.901
-119.627
-222.273
-96.3959
-29.0896
28.355
-39.9789
-180.303
-226.184
-191.465
-73.5097
115.101
65.4104
36.0269
-85.0955
-194.35
-105.049
-13.7812
-163.189
-174.365
-1.12023
134.335
264.855
360.041
187.995
66.2401
83.0978
-7.0097
17.7215
180.737
82.7538
-60.4463
-70.1884
-42.3455
-21.3027
-57.5451
-28.9614
27.1672
29.1403
0.227669
-23.9439
-4.26094
-80.8155
-213.619
-120.002
-69.0886
34.8458
97.1086
61.669
24.1564
25.7952
-12.9292
-22.9436
-53.8301
-21.1306
-48.331
-65.0768
18.217
58.3374
-20.5109
19.2809
75.0765
89.2894
-65.31
-82.8326
-17.0446
-86.592
-25.5613
84.6186
84.5286
353.945
272.742
70.9889
-25.3202
-114.026
-158
-143.914
-157.183
-240.481
-146.072
73.3879
47.5785
63.8826
105.966
23.8504
-4.51248
-26.2251
-128.355
113.625
309.786
-10.381
-182.32
-163.263
-70.7581
-38.9928
-30.4425
-35.8242
52.3544
90.1014
70.0989
69.5957
248.875
91.329
-60.1664
-62.2035
22.7167
132.077
120.584
-111.379
-241.336
-206.814
-78.8316
27.2396
31.07
-34.3891
115.569
130.059
71.1366
56.9976
10.1522
-107.934
-227.632
-241.03
-125.227
189.606
152.962
44.3113
37.153
-44.1947
-77.9373
-40.3799
12.5413
115.623
199.019
169.387
64.1083
67.8657
-4.49328
-43.991
-105.496
-153.42
-38.8238
-5.86168
5.72739
-45.8981
8.41821
25.2509
-66.6046
-78.4115
21.5776
-2.26774
-6.6322
-17.2516
-27.9174
8.85218
-67.9337
-64.6537
69.0678
78.3328
103.967
78.49
-20.0296
-24.5216
-89.9801
-100.545
-50.9748
-17.0255
86.2396
49.8149
-27.8224
-23.1997
-59.2757
31.4148
229.975
200.317
87.454
35.6505
-26.5691
-5.29147
-18.9088
-121.051
-210.365
-44.767
-33.7949
-114.736
-73.6527
34.5337
228.498
183.106
17.2428
-73.2956
79.3892
-9.78038
-203.75
-229.178
-152.736
-82.0861
13.7805
49.5316
67.3506
239.064
197.801
97.3985
176.106
320.101
134.811
-172.981
-297.847
-148.956
-102.916
-76.1831
-152.411
-147.502
-154.515
-86.8005
-6.9438
111.359
124.713
115.512
31.5309
-71.7325
-41.8388
-66.6628
-61.9326
-32.167
114.917
126.912
112.666
39.4652
22.0167
134.062
291.454
141.777
-47.5514
27.8904
68.6178
-34.7751
-146.039
-137.939
-11.6955
-57.3022
-122.765
-49.5737
16.9033
-81.3968
-138.941
-38.9164
2.52573
-31.889
-9.83186
16.7713
-32.0217
2.2055
70.8599
58.0498
20.7971
-47.6065
-127.857
-50.6172
-57.2504
-134.095
-64.5464
106.269
202.576
147.956
156.862
349.882
198.218
-20.9154
-91.6762
-146.846
-211.648
-126.208
-82.2735
69.8191
264.099
121.017
36.2384
-52.214
-94.8945
-16.5437
23.0899
-123.439
-271.135
-93.9258
51.6779
-88.7461
-101.395
-5.16064
47.5282
48.1067
30.0643
-16.4418
26.6143
24.5089
-80.9981
2.70447
91.3582
89.8012
69.3027
51.7053
11.4916
54.9908
90.6211
58.3961
-86.0545
-97.9538
-20.0984
-20.2829
28.9413
99.5292
58.239
66.9202
54.5946
-53.963
-92.1342
-83.6798
-8.24111
21.3096
6.75816
15.0328
30.4095
-47.1053
-123.317
-307.081
-200.572
-34.6419
129.077
383.774
308.605
69.9087
-20.0595
-46.95
-58.5062
-177.926
-174.972
64.9032
64.8979
9.13146
-5.2222
-83.2551
-102.545
-118.111
-57.2813
228.265
424.854
292.455
120.611
-120.164
-280.794
-305.694
-175.918
-45.4456
-33.3137
10.63
2.83744
6.9113
83.1679
-40.259
-9.26978
111.321
106.022
84.1489
13.5779
-120.164
-240.786
-192.802
-194.549
-39.6639
246.31
213.816
131.477
147.579
232.771
143.638
-3.35345
-192.743
-144.773
21.7286
134.752
145.047
88.1989
41.5057
35.7059
-33.7168
-210.514
-207.867
-44.4396
-32.9774
-93.8367
-19.55
12.0341
-21.9935
-92.4405
-81.4799
89.8161
101.755
12.608
-4.4221
-58.7858
-60.5806
-51.976
-12.7811
125.312
84.5671
56.4662
16.9137
-42.5729
-84.2654
-131.121
38.1536
93.9544
49.6122
25.1316
34.0364
4.78626
14.799
-42.8142
45.4299
12.6576
-0.784712
51.7093
47.2095
-18.235
-27.8096
-82.6388
-72.0729
-0.089622
94.3662
90.1257
35.1754
-12.0605
-8.72847
-11.9522
-60.941
-103.396
85.5766
140.893
26.5948
-40.311
-58.1744
-28.8478
-36.7418
-129.063
10.8065
97.9889
43.3689
-58.529
-153.988
-139.092
-110.819
-73.5296
-82.3344
64.9397
378.332
352.741
73.2947
-92.1233
-137.065
-106.903
-168.151
-184.549
-50.0525
119.885
183.558
92.7741
10.3386
46.3666
227.949
151.884
111.688
35.5316
-24.4554
-139.378
-206.044
-197.352
-160.381
-160.281
-129.447
28.8576
142.841
145.68
88.7963
101.995
40.2352
-10.7531
-47.2144
-98.2623
-85.6092
2.04182
-3.77297
20.8911
51.1443
49.3975
-59.5643
-65.9754
62.1892
100.84
101.139
31.8016
47.4785
81.5486
-18.7124
-106.562
-57.4332
-15.3263
36.6184
22.0791
-87.4657
-75.5884
-115.221
-89.3626
95.1361
66.8571
23.0852
36.0875
0.921951
69.7332
23.2896
-64.5218
50.5795
35.15
38.7097
5.32049
-102.091
-83.1076
-37.6529
-56.2884
-150.155
-87.6969
156.534
199.157
72.3072
24.5153
-7.82639
-2.5156
-28.8018
-52.2203
-42.4525
6.28188
52.5356
13.0006
5.245
8.47155
-23.7139
1.07952
-24.2809
-1.25974
87.5978
53.1498
-51.8983
-72.0693
-80.4071
-42.1345
-71.1472
-11.8825
65.8776
45.3207
56.6111
28.4082
-88.1347
-101.091
-159.189
53.2144
217.373
177.424
187.122
221.1
55.7227
-53.1145
-139.321
-110.301
-84.8882
-91.5244
-40.1125
-3.66633
15.5687
-13.1556
-25.4303
-100.067
-138.86
93.009
124.898
-5.47828
-119.685
-94.9193
-76.2601
-103.686
-103.495
4.32857
147.862
125.622
106.237
95.7993
67.6309
-2.06231
-94.9205
37.7014
80.8334
97.732
83.8402
-5.10406
-3.80198
-51.1161
-125.841
15.3655
108.402
98.8503
7.61474
-43.4961
-35.0917
-118.833
-185.92
-95.8091
4.31568
83.5902
33.1941
6.35256
138.851
207.104
65.6992
-85.4442
-80.3884
4.3328
16.5673
-62.9512
-156.505
-282.429
-262.039
-110.527
-22.8787
92.3628
451.648
584.814
230.225
1.29337
-38.4673
-140.804
-267.719
-266.363
-213.527
12.3486
54.3041
-20.1984
-36.6631
-42.3863
-13.161
11.6542
129.143
147.366
49.8959
60.7168
-118.672
-235.24
-95.7448
-77.6087
36.5551
102.944
85.4122
72.2139
108.829
43.3259
45.9082
-1.32862
93.4683
134.853
78.1153
93.4958
90.4567
-3.19586
-115.613
-231.91
-175.252
22.8315
63.1603
51.6225
1.68632
-11.2102
-6.00854
-8.74901
-15.8391
-76.7637
19.3611
18.6732
-43.394
-79.2702
-49.9488
-5.61289
-66.6336
-96.2181
99.4192
144.616
17.1053
-139.898
-88.3405
-16.2718
-37.6705
-115.374
53.7716
102.945
119.889
113.456
51.8477
23.9268
2.05149
-27.4988
-91.8846
48.9681
106.605
75.734
-45.4169
-37.5378
-55.8051
-134.767
-142.726
15.8574
80.2337
176.815
95.5557
32.4488
12.0249
-0.910121
-141.937
-80.7471
49.8149
-4.07095
-15.7213
-102.808
-45.2016
135.708
156.056
23.689
88.2764
145.204
47.6033
-85.3012
-135.724
-38.1995
20.3909
-54.6108
-95.9797
-41.4811
6.73374
-21.7638
-102.643
-54.9412
9.72335
-40.0207
35.9126
-46.1469
-92.2403
-6.12476
-55.9116
-60.9649
-0.894517
-26.6494
167.584
149.666
10.2027
15.7879
48.2163
15.3879
-6.60871
-34.5381
97.291
134.621
138.208
131.758
19.8746
-112.224
-172.787
-168.355
-39.6336
61.1844
182.226
192.441
15.5236
-82.5177
-88.7349
-49.2129
-82.6784
-77.1799
67.0656
80.9253
-42.6158
-70.0322
-53.2642
-29.7991
-27.6304
-54.2429
-26.0561
108.056
52.8014
-52.0153
-74.2331
-54.9299
-56.0274
-47.2297
-44.9322
-82.4609
5.28259
151.461
73.2821
50.1818
2.91659
6.29509
43.2214
50.0939
59.8343
103.849
89.4877
48.5916
-26.6713
-11.4463
-30.8446
-132.324
-20.7269
-1.10137
18.0204
94.9448
65.0577
-37.1563
-53.5879
-116.006
-1.86091
7.11226
-25.2371
-31.4765
-53.1647
-28.6609
-18.7702
-39.4396
-60.8
4.18849
14.0917
28.3123
-29.8629
-1.61974
5.80296
-4.28065
-77.4146
34.8668
51.1974
67.6401
-63.3482
-55.025
96.7197
116.626
147.827
226.614
112.261
40.2963
-6.00522
-101.878
-98.4429
-84.8363
-35.4341
-7.62813
-30.3054
-28.7224
19.2234
-77.4393
-62.1392
-46.2531
-36.3338
40.276
16.5696
-3.18925
-33.7252
-102.655
-46.6271
-4.32579
-43.8555
-111.166
53.2031
121.253
75.9913
36.8349
36.6683
39.3975
61.5603
-25.1699
-42.3936
98.2679
125.408
36.6318
-40.8485
-41.2089
-34.0335
-22.9178
-57.0869
-6.20759
93.991
72.9546
-22.4395
-13.527
-45.0916
-80.1164
-115.444
3.15007
25.736
8.07696
29.1531
11.6097
10.1628
-15.6629
-90.2275
-8.15682
0.102116
-2.8967
35.0218
13.4911
-10.4146
-26.9115
-57.5493
37.8935
51.868
42.183
57.8513
-7.34389
-10.3894
-32.167
-76.9941
-12.8851
79.8548
83.1604
70.101
-7.49115
-26.8343
-23.1494
-5.8633
-35.2836
-109.164
-6.3171
73.9182
-7.72766
-53.1536
-43.367
-10.0836
5.07018
74.958
187.704
191.332
11.872
-103.744
-100.31
-78.3514
-44.9008
-33.3463
-96.4071
-20.7319
58.672
87.7533
9.79428
-23.5929
58.211
46.1675
-26.39
-70.8254
-5.87524
-15.8156
-71.5932
-50.1097
51.2743
30.1397
-47.7536
-63.3892
17.863
15.6093
37.8353
6.99267
-13.9581
9.91184
-52.9471
-17.253
54.2902
65.6649
107.597
84.7497
-53.9314
-116.904
-111.462
-45.9731
90.0817
153.674
96.8545
50.7779
-1.2283
4.7651
23.5269
-44.5668
-127.567
49.2825
111.599
31.4785
-49.0359
-38.7891
-51.0168
-82.8455
-63.9108
34.5971
26.0991
5.39276
-92.3918
-125.203
-42.2612
-37.2294
-22.7556
45.5586
48.0506
66.6793
86.2539
-7.22086
-2.65316
-103.581
-115.635
97.3165
92.5577
108.957
84.5025
14.1045
7.17242
-51.8502
-138.165
-0.23623
48.9538
57.5914
8.01403
-25.0395
-21.9688
27.1452
76.6142
-41.5047
-4.74901
53.6016
22.5601
-94.0339
-67.7286
-20.8824
0.106866
-43.9533
-131.39
20.9223
40.7759
40.3129
9.78912
84.385
101.984
26.6338
-5.71903
-113.481
-151.091
78.6995
66.6014
45.4957
-9.19776
-112.081
-110.643
-45.3816
24.4589
194.027
317.327
196.965
113.578
-89.6633
-124.413
-160.768
-233.963
-114.727
-59.2658
-6.82832
-9.38055
-87.3733
28.4596
3.95269
-59.2669
-35.8784
142.893
120.632
46.6711
-17.3499
-54.9924
-86.0333
-47.8783
-74.8681
36.8101
177.307
184.785
50.3754
14.0253
50.8063
59.9991
-29.5105
-45.1114
46.8409
45.7393
-15.3221
-113.275
-77.0053
-7.00369
-88.713
-32.1672
42.9128
66.4583
60.1525
10.1522
-54.5067
-50.1991
-101.886
2.55979
85.9867
56.3938
29.6391
-34.6338
-59.2031
-10.467
-27.7535
-68.9061
17.5921
40.6679
12.4028
-40.9891
-69.0062
-62.2259
-50.0531
-113.653
29.5985
201.875
198.258
40.3085
-76.0541
-80.0295
-68.6336
-6.29993
100.81
58.0004
98.7976
66.1669
-30.2063
2.89956
72.644
49.0227
-26.8408
-114.662
-74.3296
54.1553
-27.6582
-76.8597
-37.0142
-18.4814
-16.8059
-14.8954
-3.8393
-15.9019
-103.615
-34.4718
12.7009
39.8251
34.5378
-85.1784
-119.233
33.5353
61.0181
87.9117
92.5637
36.593
-18.0488
-112.985
-13.0834
143.507
180.754
283.206
194.889
-28.1174
-126.832
-117.879
-99.1435
-107.129
-7.6575
14.984
10.8972
-72.1423
-55.1234
-32.5944
-29.654
-79.7146
-15.1747
16.4438
-6.1564
-58.4305
-58.0594
-88.1814
-70.539
-43.467
87.4909
117.25
94.9325
93.3894
21.8618
3.62124
-73.4446
-156.364
57.2281
192.388
140.413
126.74
39.5654
-0.914909
-13.6285
-76.4812
-141.327
-18.7465
-2.66899
43.4428
-6.40636
-22.3459
16.4116
-22.0615
-102.047
-36.517
3.70354
18.7914
38.8913
-24.9442
-54.7233
-70.8923
-50.2231
-101.292
66.0228
73.1503
81.2431
-5.75367
3.81159
69.7417
83.6178
-54.5793
-2.47068
128.15
79.7087
-8.09025
-15.3931
-27.3969
-34.3204
-52.7486
-59.3617
-93.9645
41.7965
74.7563
-28.7139
-57.9256
-64.7485
-85.0391
-88.558
-93.6849
100.5
239.786
143.34
38.5347
28.2847
-17.4175
-30.7335
-80.2241
23.7408
16.579
-3.91431
52.8454
-17.6973
-39.5263
-45.2424
-90.1358
-3.31873
49.8348
24.5766
20.3115
-67.8108
-74.2441
-53.8081
-88.8862
-149.671
-36.2394
87.7875
228.469
126.449
52.7913
-12.4034
-44.8713
-81.6625
-135.399
40.8467
291.877
162.342
6.59705
-11.6558
0.703855
-42.5777
-79.155
18.0453
16.7212
119.338
35.4285
-59.3096
-97.0397
-123.185
-154.568
32.4489
108.723
58.9888
54.428
-54.9711
-142.838
-116.669
-109.119
19.5243
23.0984
0.227949
7.01069
-41.087
-43.0435
-103.39
-134.868
-11.5405
98.1137
138.199
194.663
128.117
88.2136
67.8802
36.7991
-128.742
-120.129
88.0914
116.623
53.745
25.6904
-5.46683
-25.37
-61.727
-65.5266
68.0945
132.294
56.0373
-27.9384
-55.4055
-65.2907
-91.0393
-102.247
-129.217
75.1536
113.137
45.1408
-56.8916
-53.9508
-61.7027
-88.6408
-66.3121
53.2929
46.9376
43.3115
-33.6366
-38.3147
-23.5746
-69.9882
-83.2835
92.8048
64.1613
74.4637
100.554
12.3371
28.9771
-34.3712
-100.141
41.5016
23.0901
35.4185
56.5538
67.0524
46.3625
1.6851
-97.8425
-22.8488
38.038
31.447
34.6909
-54.0138
-51.0698
-39.9862
-39.4023
-98.5665
-97.4351
29.509
41.083
45.8757
25.9755
38.0767
88.3896
6.82707
-8.91806
129.522
145.253
27.9917
12.7882
-23.6144
-74.3205
-254.956
-300.567
-131.766
96.033
181.581
197.453
69.6861
27.5811
-55.5089
-74.5699
-177.341
-51.236
-38.9302
-30.0987
-3.34195
49.3462
47.1679
-111.573
-102.255
78.9795
151.406
162.877
141.594
58.7223
-28.5991
-50.3485
-69.9576
-15.3668
-43.6473
81.5002
134.517
11.7739
-15.5783
-3.79698
-59.8206
-120.314
-55.8012
76.8503
67.912
7.9256
63.6773
87.0423
-17.9453
-189.486
-98.4447
-5.71389
32.5102
26.8451
-2.21178
-53.166
-24.4716
-147.533
-57.3595
112.504
61.898
56.6079
26.7274
-8.03668
3.55377
-85.3014
-6.18049
63.9749
36.7346
64.416
14.5741
-18.5881
-12.3177
-82.1165
26.1138
19.7568
26.2972
50.5653
2.22821
-80.0163
-71.2781
-76.9989
-59.4686
-24.5342
98.426
107.472
33.582
-10.2974
-2.75828
22.2427
-56.3108
-148.547
86.8994
154.454
44.3373
3.69338
14.247
26.2096
-0.291867
-41.8226
-88.8184
12.7182
39.2809
4.91336
-44.2541
-15.7831
-24.6363
-33.101
-65.7783
1.49839
77.2308
108.305
-15.6119
-30.7547
-30.2359
-32.1459
-67.9169
30.0315
21.2746
-7.50456
28.1952
8.06678
-4.74723
-40.3743
-99.9749
91.06
95.8821
72.776
53.9573
10.9394
-13.8115
-33.7854
-130.704
-52.9755
-40.5315
74.0935
84.0672
18.9733
-6.46783
-30.8065
-30.6114
-70.9708
-80.4882
75.4559
128.726
74.9486
57.1026
13.1583
-35.8045
-82.3736
-88.7163
33.9795
81.8859
50.1186
-68.2576
-120.432
9.53286
-22.5752
-113.018
12.468
81.1238
49.8542
17.3036
-52.5222
-58.2433
-155.846
-190.331
84.7153
161.953
131.666
120.518
44.3608
-11.0395
-62.0875
-37.1362
24.9045
23.4698
-21.1221
70.9422
24.7856
-25.8282
0.678751
-12.138
-58.406
55.1506
79.7464
51.0073
-95.1428
-90.7949
-60.8952
-49.6448
-42.0916
-112.928
-104.722
186.727
195.638
101.684
113.276
100.358
11.4011
13.4419
-44.3459
-14.9431
27.2906
-69.4863
-115.216
-96.352
-133.728
-105.555
-128.456
5.758
183.104
217.392
113.324
-73.9865
-152.544
-190.041
-219.049
22.511
5.42997
-58.4895
17.7009
160.451
155.434
34.9638
-16.1466
271.241
238.849
63.7384
49.5998
-39.1193
-135.914
-106.232
-89.8408
-216.538
-101.502
87.2465
154.94
-0.592394
8.6567
33.8723
29.4194
-88.655
-129.776
34.9437
50.1653
-82.8256
-76.8641
15.3828
57.9862
-22.8718
-49.1546
20.1686
49.9323
106.621
23.3968
-58.1113
-38.9793
-115.264
-77.8368
98.9598
133.057
60.01
41.3891
-9.51942
-9.27623
-67.1394
-35.4305
-32.2758
130.669
230.275
78.6872
-23.2462
-1.63423
32.0918
-27.4971
-171.545
-136.249
-18.7094
-18.622
-34.6088
-33.9131
-20.2524
-10.8894
20.4242
-56.5364
-140.605
-73.4841
166.663
98.3605
-8.46127
-12.4294
-7.88961
4.609
-17.5143
-24.333
130.707
105.211
32.9087
24.2948
-37.1082
-44.6583
-23.7238
-69.0334
-14.6569
49.7264
49.3757
0.640965
-72.3398
-90.9592
-86.9209
-90.9033
56.7714
83.5792
88.8729
80.5028
27.866
-11.9481
-78.9428
-81.5826
94.1494
86.2724
75.1062
75.6806
-7.2369
11.2482
4.46224
-90.6792
-32.3397
7.15374
6.98342
48.8229
-16.7074
-34.469
-31.3547
-31.498
-99.6887
-87.2834
125.597
129.384
-17.1522
-29.1818
-20.0953
-7.21774
-48.9262
-141.897
-127.257
97.1246
125.526
26.4133
6.00077
21.287
-13.4237
-20.3516
-50.5928
-64.6054
117.253
115.133
-11.0911
-16.0327
-59.7723
-55.0994
-85.7462
-55.5953
57.7331
107.08
122.124
16.9133
-99.8257
-140.949
-201.34
8.50506
88.0542
88.3503
139.744
184.111
84.0174
50.8135
-56.2526
-185.781
-185.136
-45.7481
5.45078
167.734
243.017
166.245
121.312
73.8486
-97.2711
-66.8868
-33.0114
-124.669
-175.823
-148.188
-97.2997
-152.504
-189.454
14.2146
83.7435
122.746
76.9324
12.1568
41.6891
-50.0768
-189.309
-13.3978
25.3049
6.15813
63.3369
73.578
113.532
54.902
-15.383
40.9894
-0.851849
-18.03
-32.976
-5.95949
87.4016
185.708
224.849
180.147
108.457
-12.9982
-72.884
-96.7837
-122.55
-148.068
-161.87
-179.703
-45.1025
39.9976
43.9926
5.61757
31.1638
34.523
14.4054
-94.4894
-170.775
-19.1621
47.949
33.8535
66.762
67.1822
-19.8542
-71.282
-75.5319
-200.789
-99.811
103.19
116.676
72.596
30.1226
28.8615
59.9117
7.3143
46.8318
31.4364
49.6145
76.3656
51.8147
-8.25322
-15.5341
-72.8278
17.8293
23.1529
37.1805
103.051
73.4373
-14.5587
-131.827
-175.354
52.9899
75.2427
-2.64727
34.7189
41.5818
5.9936
-39.4937
-201.927
-165.957
-59.202
-52.6927
-12.3999
-26.9742
18.7275
47.8417
45.0913
17.0221
69.3569
82.5081
82.8311
-7.64183
-15.6543
20.4521
-66.6518
-59.9483
85.2064
46.6616
31.5229
-14.6573
-49.0809
45.224
126.651
6.3946
-12.1576
-54.0229
-25.9767
23.3118
13.182
114.898
142.375
-40.974
6.90456
-40.236
0.947112
-2.30526
-106.143
-151.372
-209.091
-251.814
-161.341
70.7316
12.4175
68.2243
173.322
145.867
90.4118
19.9715
-136.88
-5.57825
-3.16741
36.6216
-27.0906
-23.9641
23.7683
26.2815
-4.02024
13.6198
148.523
179.576
89.0417
-94.6697
-71.8939
-32.5702
-138.746
-169.903
80.7749
123.155
102.358
-18.7763
-41.4213
-11.4498
-51.0934
-95.7907
38.5007
62.0272
44.1153
120.147
100.259
60.0772
36.8181
-140.665
-92.8103
-45.8717
-31.6233
30.3102
-37.7451
-32.7386
-25.7042
-161.183
-33.9818
86.5638
14.8823
3.3165
-34.373
-0.220965
54.3664
27.321
-18.2562
32.988
30.1453
27.1496
-0.456418
-5.97711
-1.29909
19.6651
-38.153
-145.239
46.0324
96.2668
-13.3305
-63.1137
-12.2362
41.3865
106.2
20.0968
-113.031
-8.59891
36.9321
-71.6849
2.85961
164.441
105.546
29.9883
-15.496
-110.676
-30.5337
36.5814
-47.4837
-64.1268
-47.3721
10.5391
32.5481
2.09013
123.032
98.5935
89.8048
-41.0822
-84.8477
-51.7913
-211.71
-248.326
-15.6208
75.1053
70.0256
112.045
50.5737
64.9224
24.7021
-28.2747
-60.8488
22.2929
52.1907
72.068
-87.9419
-90.8276
-42.0078
-3.88149
-3.72796
-67.0724
90.664
144.216
73.2939
50.6927
25.3228
26.3543
-37.8345
-97.0917
26.031
114.774
54.0061
-45.0878
-59.5628
-47.4438
-120.915
-106.232
23.38
26.0964
8.44398
45.2127
50.2304
-7.43642
-132.505
-138.364
44.4291
14.5715
-9.71046
97.9278
77.7684
87.4524
-5.90762
-109.686
62.8756
120.699
117.008
64.9915
-16.6056
-20.5817
-66.5057
-120.756
-147.684
-67.8839
-56.9837
-40.7118
-85.9227
-7.60261
103.329
154.785
38.9881
-74.1842
24.5772
30.3401
-75.3368
-108.28
-99.5011
13.3675
39.9541
-38.3931
-10.5491
201.573
188.501
129.312
110.624
30.1234
-49.2916
-74.5669
-18.4917
-26.035
-51.689
-33.5893
-9.34366
21.5432
-5.73557
-49.6261
50.3215
29.4937
-32.3877
15.5061
45.0893
-43.4994
-120.015
-203.917
-24.5994
73.2468
61.182
70.1149
-20.6824
-57.6767
-25.8014
-34.6846
-107.287
56.6592
119.295
109.639
29.5891
17.6786
15.8198
32.0298
17.3117
-74.3786
48.5395
76.7754
-20.0919
-35.7321
-30.3803
-13.6756
-39.3876
-150.986
-63.3753
28.6604
91.53
-5.96202
-23.5975
53.2631
-19.5031
-56.5063
26.9956
102.017
84.2152
54.8021
27.9756
2.60438
-103.552
-162.962
49.6369
77.7267
20.5299
46.2362
-13.664
-2.6969
-44.041
-160.527
-298.722
-211.528
55.6459
101.628
126.684
140.354
238.458
241.054
6.532
-113.28
12.4256
104.066
-39.4041
-63.2945
-30.9833
15.6013
-10.6683
-69.9284
-111.006
-8.40837
111.553
77.0095
-23.0186
-19.8726
-93.4296
-158.013
-272.406
-103.526
12.5673
75.7324
51.1814
51.2407
95.2409
80.2588
4.43455
127.189
86.1645
62.8757
106.993
77.1627
36.7504
-124.489
-106.206
20.5618
-13.158
-21.8234
30.0717
49.2817
24.5852
-77.8886
-75.8056
1.97913
-38.8823
-54.6951
-15.6991
-30.7017
7.6774
-12.2828
-80.2948
-19.4214
104.029
126.673
32.4017
-52.4334
-43.6266
-39.6235
-72.2035
-271.66
-96.3579
179.604
140.715
35.695
-21.9825
61.8832
224.429
111.421
-76.0255
-68.8671
146.187
73.4217
-26.3512
-30.04
-107.367
-106.496
-84.6676
-145.889
50.3325
110.556
37.1941
-45.6778
-47.6532
-14.8283
-5.64312
-75.5083
-50.0699
-37.3426
42.4499
48.2056
18.7378
6.01084
-46.0976
-9.63364
64.9324
127.083
113.227
115.636
-24.0572
-21.7244
2.46483
-46.1238
-107.137
28.1901
67.5036
15.3203
-80.7801
-77.827
-45.2162
17.6949
11.8091
77.1063
119.726
82.2986
123.704
38.3135
-58.089
-88.5748
-205.736
-127.642
-68.7672
-74.7994
66.321
100.135
56.3166
-43.3894
-141.789
-83.3557
-2.58561
36.6831
73.414
102.37
10.9444
18.1175
-21.4334
-4.51474
17.1678
71.5344
61.2076
32.4095
-0.661362
-73.7132
-91.4942
-30.6373
-49.943
28.3896
53.9652
13.019
0.477668
-40.483
-174.9
-163.172
81.2621
123.575
100.443
27.1801
29.5097
29.6211
90.8794
37.2677
-31.8021
151.279
91.0767
-77.5584
-76.2757
-19.4027
6.44956
-28.4992
-73.0078
45.9188
108.969
28.6249
-101.662
-103.644
-88.683
-101.046
-82.6256
52.9749
23.4601
34.3051
58.8826
15.5421
3.8973
-98.5079
-124.218
54.8459
30.5386
126.028
254.256
112.514
-14.1477
-183.158
-138.151
55.702
16.8088
8.04727
26.3165
-21.2629
19.3768
18.0232
-48.1373
-77.8373
16.3206
9.73664
9.02676
-57.1767
-16.2582
-43.5597
-59.4761
-7.49772
-19.541
141.413
58.6227
-60.8608
-65.2894
-41.2114
-42.5026
-91.1296
-92.1879
-8.30314
123.866
223.516
171.92
141.48
156.821
32.9314
-90.608
16.3641
-55.9452
-85.2998
-39.6331
-55.288
-91.6843
-166.651
-140.413
-22.7612
116.762
112.635
172.193
91.8573
-24.3279
-97.3681
-127.38
-175.611
-163.686
32.6249
155.545
41.1808
8.447
-45.3465
-11.3445
-1.61333
-50.9284
-33.8402
83.9469
100.033
100.558
213.949
220.496
93.1419
-19.196
-147.189
-152.519
1.8841
22.5258
-54.0696
-72.7502
-124.654
-108.747
-139.198
-29.2655
90.8064
168.577
148.273
57.8229
3.36217
-116.033
-238.383
-165.292
-41.1424
21.5254
71.1508
65.3204
25.85
17.841
-44.5963
89.6795
158.919
152.297
150.613
73.4452
-37.635
-150.273
-112.134
16.5924
8.73457
-11.3796
-19.6065
-80.5136
-61.0451
-40.2262
-118.204
-100.101
90.2891
110.152
117.239
58.1438
-21.3462
-32.5204
-20.1098
-61.1664
-27.7976
107.112
69.2725
-39.3212
-51.5648
-8.27602
5.65361
-54.7364
-122.75
-98.2256
74.5956
93.1813
41.5405
68.565
100.028
174.854
135.995
-72.8437
-137.219
-5.74209
-29.7601
-57.7352
-8.68715
36.2743
5.90504
-118.527
-121.344
-30.6169
52.4411
83.1049
32.2004
5.81763
-63.8505
-110.082
-140.92
-150.94
-120.54
7.92495
119.532
167.288
148.795
163.825
20.2459
-196.276
-59.1756
123.26
183.842
184.074
104.976
30.0761
2.21444
-32.8396
-124.311
-12.5768
-19.1958
-96.8791
-80.0456
-17.9667
-15.3356
-123.381
-108.776
-44.3466
21.0439
110.581
22.8141
-33.951
-62.8888
-131.253
-117.495
73.6163
81.4318
64.996
49.4127
19.6146
70.3193
42.7983
-6.7845
92.929
12.4174
-9.2766
45.5108
25.7382
27.4809
-37.6515
-84.1883
34.5589
48.2076
9.32861
21.0129
-49.7052
-49.7124
-6.39282
-34.8997
-140.978
-62.3187
139.788
121.288
-36.5546
-36.9806
-25.3307
-0.475693
31.5887
-30.9499
150.455
83.2531
-81.511
-83.1658
79.1181
151.803
-8.44821
-112.989
-108.593
24.2886
25.0745
-61.6208
-212.86
-134.618
-64.0477
-97.0213
-118.279
83.0316
106.854
127.102
31.0929
44.8685
45.792
-41.2724
-124.582
-37.3174
18.9844
108.322
196.182
170.755
126.466
-23.3024
-108.015
68.9151
52.3864
81.3781
123.312
44.3003
-68.4242
-143.121
-203.954
-34.7647
14.2661
26.513
23.804
-46.9087
-28.3687
-28.1303
-139.451
-74.4819
54.6086
123.967
148.156
10.5543
-11.6048
-28.1443
-93.6164
-71.7564
-35.0135
24.2845
35.0827
-31.4317
-37.2147
-52.4546
-29.2876
52.5659
51.2554
38.3637
45.2231
-32.6637
-76.8821
-51.9649
-80.8297
-37.6183
98.6185
118.563
120.952
-19.1943
-54.2387
-15.0081
-28.2221
-147.844
-100.918
112.006
101.31
105.73
158.285
132.146
103.851
-41.8069
-172.986
-149.495
128.354
16.5802
-14.8101
33.7731
5.61621
-66.3242
-110.212
-88.579
56.7593
131.106
51.9535
-52.2881
-87.9836
-144.51
-140.798
-165.355
-44.0972
56.9645
113.456
113.114
-14.7515
-6.9939
-83.05
-135.781
63.4333
26.6126
39.0224
101.279
62.3964
104.347
177.912
93.4167
142.398
28.5616
2.41237
4.20389
-63.9379
-97.3344
-82.8669
-71.215
-41.3216
19.4561
79.5424
69.2985
-55.5668
-99.1986
-82.0393
-47.7623
-74.0893
-107.471
-67.4186
97.9621
27.9638
0.592702
-10.4564
-6.50247
-2.45614
23.5446
0.402642
68.4964
30.9551
-17.607
-43.2998
4.58204
5.42116
20.6165
-51.9692
35.9086
150.556
61.5753
33.9099
-36.3765
-78.9295
-32.7995
9.3156
-2.13289
-84.3855
83.4605
180.443
145.034
65.6428
12.6527
-79.3275
-127.379
-174.112
-16.6032
41.7245
-23.9368
-90.3148
10.94
17.3428
-86.4633
-172.265
-102.043
46.5632
81.0667
90.7886
-11.0379
-17.249
-33.3919
-48.1661
-49.088
-50.7127
116.863
196.4
103.933
97.0644
50.5356
9.47078
-32.0277
-164.814
-37.7273
110.193
76.4731
45.707
59.203
27.2659
-56.1039
-68.5567
75.9434
47.3577
30.4621
45.6302
-37.7385
-67.1045
-145.625
-224.721
-40.3624
74.6571
110.328
81.008
-50.0096
-71.9905
-27.6157
-146.48
-31.5057
37.1603
24.7326
14.4779
-85.9136
-80.8222
-36.8335
-50.0156
-98.9417
101.811
154.398
214.945
131.706
-1.39309
-58.0488
13.6841
-4.31783
-110.243
-162.575
53.1862
301.217
256.349
93.014
2.17387
-74.0997
-90.6234
-118.038
-128.959
27.759
7.56295
31.4632
-4.47108
-113.112
-53.5224
8.59553
-28.7376
-37.4729
83.8474
187.049
-5.77204
-223.551
-191.844
-85.0216
-84.2784
8.25291
50.9205
73.001
124.453
42.8191
-75.1334
-118.456
-72.2899
147.2
241.112
160.368
47.9489
28.0065
12.6168
-36.5337
-78.7553
-78.8679
0.229313
22.5452
55.1823
-32.7423
-58.8807
-38.5355
-7.01952
-121.782
-56.3377
193.163
260.565
165.142
-57.8457
-168.6
-154.824
-168.033
-29.7552
27.8709
79.3576
82.0469
-4.9237
-15.5204
-3.90752
-103.102
-99.2101
-13.0322
40.2197
89.9434
0.469425
-96.8097
-51.0987
-168.784
-73.697
155.386
178.198
164.556
64.1999
-6.45942
-46.3282
-163.995
-160.594
41.2956
74.2791
150.542
163.111
60.9499
37.625
55.5724
-32.9602
-79.7795
-18.6721
-42.1748
-28.9055
-110.178
-69.6937
-8.10527
-25.24
-136.691
-119.862
64.8418
105.247
78.9479
99.9331
154.356
132.436
40.2869
-140.594
-158.364
84.0894
76.439
-59.607
-99.1291
-97.2598
-129.187
-116.823
-72.2204
0.776416
148.633
189.028
12.7202
92.4978
190.042
28.0207
-86.3634
-81.2448
-45.3003
41.8091
48.5011
-72.6936
-130.469
-204.954
-49.0908
-14.4202
15.1858
69.7951
95.5647
87.6035
118.243
7.67145
-61.8577
17.5201
-151.856
-93.7293
-46.0761
-28.2795
33.3955
146.389
178.419
118.02
97.6497
79.0067
-0.139913
-38.8636
8.18199
16.844
-60.528
9.91605
-43.8749
-36.4644
-15.6112
-103.868
-123.001
-114.373
-166.026
-76.0197
52.7608
7.17455
33.7492
58.4257
60.3579
51.5459
5.61952
-45.7446
-66.8079
136.652
200.642
44.5084
-31.6276
-42.1504
-27.632
-124.469
-191.969
48.3292
146.719
61.6857
-0.170467
58.5227
98.5912
1.27454
-55.7562
-88.4914
-83.5183
110.929
73.0965
-79.2509
-92.7395
-77.4464
-30.2233
88.6202
119.644
87.6345
73.6769
-4.78227
-50.2964
