66.4664
52.6411
22.0191
-67.0801
-83.7359
30.2892
84.2297
25.4291
5.13719
-16.1517
-37.5748
-122
-141.714
-26.1888
7.46455
-79.157
-58.455
-5.35602
48.1898
7.82694
-37.7258
16.9953
95.8539
149.218
151.687
90.2929
1.68624
-39.9923
-13.3252
53.0366
23.5234
-26.6928
-29.5323
-18.5373
-29.2354
-81.3483
-29.8907
9.05984
-57.5991
-104.245
-88.8905
-34.1037
3.83007
-22.3843
-13.4556
57.7003
87.0701
81.2244
63.9095
69.7072
115.177
161.057
47.7273
-85.098
-153.508
-150.812
-141.468
-115.759
-72.4623
-38.2829
-30.6531
-66.0445
-39.7599
33.8371
14.3043
-45.4253
-11.5883
73.0018
114.72
51.9517
45.8
106.096
176.684
139.718
-9.29297
-100.222
-101.89
-38.3137
-0.279751
44.4855
103.601
128.473
67.4416
-42.7087
-51.9116
-71.3927
-76.4363
20.3711
172.045
134.456
55.9699
23.8343
-51.0105
-85.0029
-82.7385
-56.0874
-63.6379
-107.849
-102.759
-33.422
-3.83599
-41.7605
-29.6893
-14.2278
-29.9869
-71.7612
-134.048
-137.048
-121.045
-52.0892
58.3622
56.3728
40.8116
43.3838
113.377
145.703
122.241
106.39
85.2624
35.2265
-6.65385
-6.92009
65.4747
135.391
86.2412
91.4587
133.192
-4.71727
-198.267
-238.985
-205.418
-100.873
48.4065
139.31
104.486
13.3802
-4.35015
31.0811
2.17596
-52.3675
-92.4598
-75.6459
-79.36
-64.8263
-12.361
-12.8472
31.6254
67.1469
57.2675
115.279
138.775
89.2472
-16.426
-55.7186
-61.9205
-33.9237
20.1006
28.1595
-26.2712
-107.343
-85.9914
-95.8867
-176.554
-148.336
54.7975
297.594
206.371
43.7794
-45.4505
-79.882
-109.309
-211.767
-228.817
-125.412
57.0855
220.195
201.096
119.252
120.758
140.817
73.6745
4.2689
-4.46695
-31.1126
-117.636
-184.607
-92.4561
-10.3681
22.4717
44.039
44.2374
88.6609
134.529
91.6343
-19.8986
-143.069
-138.6
21.0284
72.109
78.0964
65.2374
62.05
72.1953
73.4671
-15.319
-112.043
-137.052
-87.3025
19.4434
-28.1173
-114.839
-76.7888
-35.7746
-6.46158
17.4137
19.7757
16.5592
-106.899
-197.119
-95.2795
83.3247
149.547
179.028
192.3
166.305
80.1337
-2.24973
-63.1588
-97.387
-43.2831
-26.5656
-56.0418
-62.5681
-44.7308
14.6975
48.9988
27.3008
39.654
118.416
119.47
-0.936465
-67.4358
-51.8363
-73.6848
-109.604
-76.6987
55.2199
65.5268
-18.5746
-78.462
-87.5951
-58.3336
-5.61909
17.0931
-19.1575
-48.8173
-24.3199
39.1357
35.423
-21.0377
-30.3404
1.76319
-35.8725
-10.1252
214.792
275.735
54.171
-24.467
10.2131
23.3029
47.002
-24.6159
-55.5263
19.6507
47.7838
-9.12992
-35.9024
-6.50373
47.708
27.1228
3.32539
-16.4451
-43.7854
-97.1183
-171.888
-135.724
-20.3669
-0.554006
2.61895
15.7893
16.78
32.3845
34.4935
1.14083
-29.1881
14.8811
50.1208
28.7281
14.8358
36.0707
47.2039
-13.1662
-92.76
-157.315
-186.003
-177.499
-78.57
96.5033
164.684
191.438
181.861
132.649
63.1929
58.3575
74.2387
95.6131
18.7488
-60.2835
-79.1936
-58.0849
-37.5016
-66.5714
-72.582
12.702
51.9748
-24.8105
-90.6472
-95.3829
-73.0658
-80.8451
-69.0607
28.3219
77.6943
-21.9401
-102.332
-115.644
-14.5395
56.3577
131.027
208.339
160.175
146.127
128.305
98.9115
40.5967
15.8712
43.1638
-21.398
-88.5476
-76.915
-99.7683
-151.749
-172.272
-132.532
8.68769
77.0645
-36.9349
-113.835
-149.552
-159.925
-96.5444
-21.2347
93.6906
138.36
64.898
27.3706
32.5035
58.3428
68.3246
73.2704
99.387
130.684
120.772
74.0292
8.26793
-23.7779
-18.2661
-24.024
-25.4617
-24.6943
-92.6161
-153.967
-149.513
-96.9891
1.44728
81.9216
109.723
103.163
67.6304
38.9823
0.867573
-10.1938
131.275
244.141
146.594
-47.2212
-148.402
-141.477
-131.521
-156.851
-82.9661
22.6956
-1.03291
-66.9817
-60.8404
-31.8664
-46.3248
-87.4822
-54.813
19.0398
74.8732
70.6838
-27.4596
-97.4786
-78.0473
12.0164
83.9992
89.9965
143.373
156.155
178.23
168.496
73.0247
18.7231
-73.6962
-106.962
-77.7013
-70.2432
-97.7423
-120.764
-81.2655
-56.6268
-82.061
-74.7593
6.07468
97.4297
127.362
138.883
162.433
37.7235
-93.3065
-166.506
-110.357
-42.51
-14.7898
-14.4668
15.1944
90.272
114.314
62.8229
10.3343
38.7512
90.3076
101.765
57.0824
-22.7954
-50.0681
-53.4396
-111.413
-102.539
-86.4946
-48.8646
50.9418
128.287
121.862
46.7456
6.83861
21.2268
4.38062
-25.0911
-66.8095
-91.6372
-120.982
-158.709
-144.448
-90.2934
-72.4654
-79.9098
-103.535
1.8938
139.628
240.419
227.771
71.8199
-24.8725
-41.4274
-45.5862
-26.8714
41.3198
123.215
168.931
156.888
75.5729
-27.9141
-87.3508
-102.558
-80.1341
-19.6572
46.0759
110.666
116.311
18.3714
-41.5269
-0.416983
22.6472
-71.8514
-168.105
-179.895
-112.117
-36.3812
-8.77299
-8.28762
37.087
95.3576
130.836
57.2177
-50.6261
-143.877
-120.792
-98.2055
-96.8525
-13.2693
115.184
32.0764
1.82303
130.408
163.06
40.3701
-78.717
-147.202
-125.783
-84.6702
-10.9251
59.8118
56.9169
51.471
95.863
139.797
84.9333
-0.239549
14.0533
42.1131
15.975
52.3218
80.1079
40.0722
25.4613
16.0431
-33.746
-56.6185
-34.5838
14.3898
7.68968
-68.5579
-68.399
-26.7862
-13.1822
-23.1906
-42.4989
-46.9408
-47.4209
-44.889
-128.273
-114.766
-54.5025
33.6851
8.31402
39.645
77.2249
54.9136
4.44344
-9.26064
16.4486
77.3502
100.149
65.1649
5.63682
-33.0702
23.1119
137.842
190.828
7.4779
-166.01
-212.24
-151.239
-85.9577
-41.5965
10.959
92.5997
159.202
122.985
21.2043
-44.5848
-77.0645
-121.45
-54.8989
39.3392
98.4266
110.803
11.2061
-123.31
-133.66
-87.3135
-47.7848
-22.9259
5.6414
52.9567
60.535
6.57003
-33.4412
-6.52839
43.0415
74.1548
102.757
153.201
171.276
143.097
46.1726
-71.4437
-115.928
-117.185
-102.695
-79.5681
-37.7185
7.6706
18.1646
13.5492
-24.6512
-72.8286
-101.969
-43.09
-1.53927
9.63689
12.1555
12.8423
1.66273
-74.5366
-47.2692
130.922
178.657
138.375
145.329
138.714
85.4014
13.1702
-112.4
-195.551
-162.238
-68.6596
30.1887
44.3479
-69.3869
-162.619
-177.012
-165.823
-108.995
93.2996
270.606
159.375
34.9315
-12.2945
-25.3668
12.3145
58.4947
42.4958
27.3944
73.986
74.798
10.9178
-56.2828
-126.79
-131.216
-91.9186
-30.8928
54.1458
67.8472
28.6465
-54.0493
-112.592
-108.666
-87.5988
-49.7553
57.9635
215.809
291.031
209.544
101.403
56.4734
21.5268
-60.4681
-80.2103
3.54792
-15.8145
-23.5334
0.630648
22.2315
-20.0352
-33.6621
49.3838
52.9622
-74.8087
-158.346
-172.583
-164.588
-176.038
-145.113
-117.537
-62.4697
26.2526
91.1467
98.9939
101.37
200.602
196.65
68.9044
49.9116
29.8378
-34.8528
-71.8646
-34.5024
107.384
225.688
69.9327
-140.837
-173.166
-113.552
-28.2806
67.2439
150.712
83.271
56.7155
29.019
-34.0565
-117.456
-144.684
-183.135
-150.075
-83.2621
-62.661
-21.1831
-70.0031
-136.6
-15.1109
95.5005
146.604
214.385
200.975
144.285
96.3212
59.6376
13.4318
-7.86885
6.62431
25.8542
62.9363
45.9825
0.841307
-36.0085
-86.1999
-109.81
-78.4464
9.21852
27.3994
6.77251
-28.8008
-45.0571
-28.4251
-47.9576
-103.892
-93.206
-69.8921
-136.914
-196.52
-101.921
-2.4965
92.6238
257.617
275.694
88.2841
-26.3964
-98.9955
-119.324
-43.712
-17.0184
10.8487
177.371
316.6
111.278
12.5411
-2.71541
-24.427
-4.17504
46.6382
74.7954
24.8229
-43.484
-163.661
-242.727
-140.677
-29.4913
68.7425
61.0079
-0.95751
-33.0819
-70.7751
-163.833
-229.257
-181.071
-122.914
62.0656
194.885
282.585
314.738
245.877
113.747
-30.3243
-79.285
-58.0695
13.7489
45.9082
71.9406
110.219
55.1396
11.6282
-72.4528
-155.1
-113.065
67.1115
79.7966
-44.3917
-136.656
-183.769
-185.024
-211.278
-150.291
-35.2627
1.33029
6.56929
39.8692
132.192
187.815
140.728
104.758
-10.4385
-56.7016
-57.7006
-92.4025
-83.6122
31.1451
120.982
137.926
255.992
176.351
26.4873
-30.503
-17.974
21.9729
28.2234
-36.2037
-123.186
-199.314
-234.979
-199.562
-92.044
2.11174
84.062
162.824
153.325
69.8072
64.9634
28.184
-89.8268
-102.781
-23.7395
9.75405
15.6576
17.4181
17.013
69.7377
65.7764
-12.1555
-41.3241
-23.6561
3.82212
42.5424
-29.1573
-209.585
-180.732
-43.7804
-50.2382
-48.2614
32.5275
143.563
217.816
207.396
155.12
98.9885
34.7272
-68.0743
-125.192
-68.2633
-18.5553
27.3232
162.053
86.4059
14.9135
19.6757
-57.7545
-127.693
-168.64
-133.44
-136.896
-111.697
-48.438
35.8615
18.5261
-41.6923
-48.5976
3.87802
87.8444
107.777
132.857
114.704
26.383
-9.45257
-21.0958
38.0835
68.4757
20.0083
-41.4357
-65.7734
-77.2802
-52.0002
-26.2648
-34.2621
-25.5325
-51.6377
-53.8761
-0.347574
47.8905
21.5713
-11.1375
-5.81575
-17.7549
75.7299
125.257
116.128
54.5269
-27.9773
-2.31293
78.1698
123.193
61.429
-64.9591
-122.408
-125.416
-82.9242
1.64509
19.8657
-22.1217
7.14743
23.1534
25.8185
23.2448
-53.0817
-72.918
-72.0816
-93.6395
-58.5356
24.0838
82.4372
94.2585
63.8577
-26.6673
-103.901
-79.1665
-37.9556
-7.51664
61.3716
176.42
138.098
100.155
81.1039
-12.2749
-36.6737
-23.2667
-54.8697
-46.396
-57.2088
-114.053
-132.56
-96.3066
-36.4164
43.2122
66.2823
53.9255
115.542
189.777
67.8397
-32.3587
-19.3781
-77.0758
-143.342
-147.935
-63.3963
-30.3144
-27.4538
45.2838
156.474
161.028
79.1678
-19.7811
-66.5821
-0.927322
95.4227
141.606
104.483
30.3409
12.4621
-116.519
-236.303
-165.954
-39.096
37.7017
14.8282
51.8021
57.3093
1.86278
-55.6034
0.633139
90.6118
84.7611
71.8122
1.18928
-92.9114
-141.379
-134.912
-141.766
-139.473
-85.8416
38.692
80.097
32.1505
110.529
261.602
166.29
61.7637
27.3077
-21.5074
-107.757
-206.958
-226.018
-173.862
-52.2816
92.2154
209.71
199.927
135.534
120.2
82.7827
8.56796
-33.4459
-16.1713
-107.428
-172.994
-69.8738
9.02301
-5.86919
-37.2733
-62.6121
-12.3366
104.063
177.173
160.706
60.5852
-39.748
-62.716
-22.5843
1.55417
-13.5708
11.3689
8.1153
-34.3214
-47.7962
-70.2483
-88.6108
-48.5563
-18.279
-32.9837
46.8124
81.2833
-17.6335
-79.798
-55.7625
-3.10476
4.16537
-11.0318
-35.9566
-31.9135
-24.7646
23.5225
55.2986
6.85349
24.0265
5.3911
-52.9486
-66.5237
0.246711
98.5077
165.978
166.606
105.015
33.5329
-24.8985
-54.5547
-30.2229
119.19
93.1914
-44.8257
-91.0373
-103.669
-53.2948
9.20852
8.72192
-46.902
-40.7627
13.6971
39.5581
64.7179
-27.0709
-106.744
-90.9162
-51.7975
14.6364
28.0226
-0.683475
-79.2287
-89.8052
-38.9499
-47.888
-71.0137
-35.2197
21.7526
59.9256
47.0298
38.3473
46.7993
24.3256
20.2118
60.4084
67.6374
65.8894
35.7798
7.21878
5.94772
14.7323
55.646
165.451
150.311
90.6921
-17.8006
-99.8825
-63.9997
-39.7324
-6.70684
-27.2438
-68.2623
-91.3918
-99.7343
-83.1155
-69.882
-56.7156
-81.4452
-102.131
-10.921
17.0939
-51.6916
-63.1937
128.967
217.682
197.642
121.231
40.4811
-40.0924
-80.9429
-86.4628
-87.0225
-33.7444
-6.43029
28.096
75.6698
153.608
172.885
85.8674
-46.9068
-78.3605
-40.7702
-19.8553
-115.013
-132.903
-47.4339
-18.1647
-52.486
-23.6832
46.3779
50.1897
-47.0144
-118.366
-99.1846
-52.6176
29.4487
46.6976
73.3924
92.8448
122.756
115.187
13.6769
-74.7017
-141.594
-133.236
64.6072
232.836
150.959
60.7244
-11.1842
-28.0256
-13.5799
19.1148
45.2555
-12.6821
-112.374
-118.521
-52.1464
37.459
67.9531
37.7745
29.0997
4.74347
-96.3931
-146.875
-193.52
-198.708
-64.8007
29.9932
83.8261
187.359
274.467
183.02
74.0715
72.2493
30.9123
-102.313
-190.522
-235.204
-184.958
-96.7401
-10.6898
76.9548
139.311
157.892
119.673
30.4329
13.805
62.7282
-25.4653
-128.214
-89.5064
50.6289
47.454
9.07892
35.2975
79.6805
32.2538
-45.8977
-81.3273
-46.3042
-26.6416
-4.37634
29.6632
47.0942
78.0497
65.5541
3.05714
-8.96248
33.6995
-31.5485
-117.066
-137.186
-35.544
8.79959
-53.9644
-57.09
15.305
78.66
23.6857
-62.6558
-74.8837
-46.8948
40.058
87.9293
98.7864
124.353
1.21637
-129.91
-112.545
-65.8093
-90.7687
-115.251
-97.4961
-41.019
48.969
145.741
403.196
439.684
260.242
48.0171
-78.7122
-86.4248
-107.965
-115.617
-91.6955
-121.22
-114.299
-117.833
-141.061
-84.9871
12.1308
38.2269
48.6498
167.616
178.586
35.4759
-223.547
-237.162
-69.0505
16.6867
8.73047
-25.0705
43.1555
101.371
79.1971
90.0522
90.5173
53.9216
51.6066
-20.4471
-35.547
-3.41269
-48.8162
-87.1275
-67.0034
-58.4577
-55.169
-50.1338
-33.9086
60.1707
132.863
144.927
120.419
37.8201
-59.0262
-87.0157
-49.6082
30.9613
110.379
143.019
46.4741
-10.5838
-38.6962
-100.335
-126.709
27.9921
36.038
-83.8441
-87.3099
-29.5411
15.7591
24.4348
-15.7117
-82.439
-68.923
15.7127
98.1853
21.4471
-70.8864
-53.7098
20.2711
16.3049
-21.4075
-69.9544
-68.0895
-92.443
-55.8435
32.7873
65.5827
73.5445
55.1291
102.483
138.518
55.1563
-6.53136
-48.1762
-65.2566
-47.9929
-39.488
78.9428
220.039
203.084
109.581
54.7947
28.5161
-7.87919
-70.2055
-90.9396
-94.4764
-137.233
-138.81
-164.883
-129.207
18.2381
32.4059
-36.6702
26.4199
136.667
147.045
52.3574
-78.9985
-70.7982
-8.01029
-43.3542
-87.5412
-83.4289
-58.8538
-29.7183
19.8234
56.1994
113.066
104.128
79.7562
157.826
257.803
162.182
-57.5703
-138.621
-139.319
-153.306
-135.801
-124.326
-119.005
-81.1447
-6.06504
36.2344
72.6957
124.562
135.977
162.721
130.491
-2.1745
-76.7599
-42.2206
-65.9597
-103.719
-68.4881
-36.1401
-0.931322
-0.289014
-58.5591
-79.9999
-69.0885
-48.8508
37.2843
104.596
136.46
87.8357
21.4963
-3.63593
-48.6701
-87.3609
-63.9343
-80.7979
-67.112
57.356
149.479
166.628
142.074
95.0105
46.4757
35.3894
80.4322
62.77
-32.2439
-126.272
-157.449
-135.579
-118.794
-112.074
-83.8039
-3.05394
26.043
-52.1721
-86.1326
15.2197
47.7098
-23.374
33.2531
172.036
115.536
33.7415
70.5935
168.786
149.127
31.2534
-91.1825
-108.849
-46.8222
-31.7676
9.90462
42.7411
-21.0405
-78.1911
-81.1229
-118.211
-122.543
-11.5705
-29.0055
-99.4725
-27.6473
-24.362
-92.6042
-79.8935
-42.4934
12.9536
111.45
163.261
142.132
94.873
64.4133
40.928
72.2548
139.946
157.796
161.095
71.3189
-51.978
-130.132
-186.399
-138.382
-13.2331
39.4362
-34.1808
-82.5807
-85.23
-78.6208
-39.4974
11.0026
79.7123
44.6018
-46.3137
-62.1293
-32.1007
-70.2131
-125.269
-11.4659
138.474
232.643
201.104
59.2802
-20.2647
-62.2482
-103.917
-78.3159
14.7083
12.7559
-31.201
55.7598
195.295
81.0224
-19.551
-39.3929
-90.6053
-116.447
-99.2557
-127.993
-168.893
-84.8633
76.2558
116.489
48.4385
-45.1968
-60.4618
50.6965
146.503
184.934
196.733
43.9248
-164.397
-161.055
-100.621
-67.1882
1.43786
50.053
65.618
78.927
17.4566
-113.696
-184.028
-108.238
47.2188
128.984
125.434
140.279
147.351
70.8291
-44.1341
-87.4161
-69.0292
45.2015
106.18
44.4242
9.60324
29.7242
-3.45326
-56.3452
-35.5467
27.3442
0.397807
-28.5753
-112.53
-117.678
-76.542
-129.03
-243.51
-192.388
-77.3002
-51.5862
-15.9644
185.332
259.472
152.7
100.14
76.5253
78.0187
62.8722
29.725
-30.7347
-65.3625
-69.4885
-108.774
-105.189
-64.1445
26.043
128.507
211.328
174.586
106.416
60.6045
-32.589
-59.9935
6.5349
-41.893
-134.265
-142.197
-39.3084
-69.6199
-118.373
-25.953
32.5014
72.6369
125.258
127.995
57.9047
13.3773
-31.1317
-55.5476
-35.326
-41.9634
-57.6248
42.0706
67.4127
8.38767
-43.6445
-32.7755
17.0257
42.8623
65.3519
72.9176
26.058
13.2514
-28.6239
-101.862
-122.135
-116.405
-148.305
-166.88
-166.542
-119.367
-77.7472
-115.627
-65.456
166.118
316.922
173.79
46.991
65.4851
147.397
158.389
152.067
148.034
76.7162
7.54847
-87.1037
-139.188
-52.5951
41.9568
30.8781
23.2084
-41.6372
-86.4083
-91.5639
-134.639
-121.629
70.0859
171.418
102.74
-25.8945
-91.5115
-73.6227
-83.1226
-78.5481
-29.915
44.4866
55.1704
50.9445
48.1173
63.9749
95.6127
81.8518
112.188
97.8424
16.0551
-44.6837
-85.8751
-158.347
-163.552
-110.199
-77.5147
-29.8263
25.9332
45.0216
31.6366
-17.4297
19.1106
-71.7623
-166.779
-112.594
14.1301
121.663
44.821
1.72212
-21.711
-4.89336
72.982
119.238
147.19
116.788
65.6247
-1.62394
-57.4526
-87.0721
-90.9969
25.9703
95.8244
-33.3044
-102.049
-94.3889
-117.115
-126.528
-16.7201
71.2166
131.325
202.473
143.517
17.6561
-27.4533
-15.7848
-9.42553
7.6981
65.0371
88.574
74.1853
39.549
-7.75113
3.77645
3.64639
-70.6469
-172.962
-159.747
-63.5616
4.70024
71.9975
60.3043
14.145
-21.2406
-35.7162
-68.6044
-136.447
-113.599
-68.349
-71.5436
-61.928
-59.9438
-58.2788
20.6057
95.5085
218.874
269.671
210.551
145.55
105.545
-18.361
-131.605
-199.51
-175.12
-95.1442
32.2697
113.621
34.2294
-112.302
-91.7251
-10.9632
-14.9987
15.6052
175.848
190.539
122.134
88.1202
24.3851
-81.6389
-155.606
-133.895
-118.22
-100.894
-23.1247
64.9291
34.6667
-13.0816
35.9923
142.075
110.933
-17.0863
-66.7912
-63.1913
-72.0087
45.8549
82.6958
3.79437
-49.3224
-88.0736
-79.0045
-19.2291
-2.70552
6.92686
24.4434
-54.3796
-107.735
-67.0912
-21.9969
76.652
195.306
204.872
104.488
44.8984
3.53149
-11.0043
-50.0533
-91.234
-45.7053
32.1188
43.7657
1.20902
-2.2096
-10.4419
-48.2905
-73.7571
-60.2438
-17.0727
-1.61866
-37.3724
-50.7339
1.92417
74.8592
91.6545
55.4145
-2.05869
-39.8415
-56.102
-70.4091
-27.2206
56.6843
142.372
202.232
107.966
27.789
-7.39365
-42.4264
-62.8193
-113.516
-146.159
-148.946
-142.726
-100.297
-81.1802
-59.9619
-2.02681
140.626
134.715
29.3863
-24.5397
-2.92593
-2.37607
-23.8433
6.24377
47.6723
103.604
121.686
110.871
140.977
86.6546
4.82702
-69.1262
-102.564
-53.173
13.4614
80.6023
44.2973
-25.6368
-63.7065
-103.072
-80.5002
-53.4324
-49.9626
0.832324
-22.8734
10.8247
24.2597
-29.0167
-57.7461
13.8377
145.99
205.281
86.537
-46.9334
-36.2738
-24.8575
-82.9563
-71.2871
-46.8544
-83.6619
-103.527
-91.9746
-25.0793
62.5515
169.498
127.834
44.3552
-18.7934
83.3984
150.507
-79.8152
-146.224
-19.0604
46.1974
-32.2593
-158.764
-170.837
-63.6775
68.5886
136.152
88.4508
-29.5259
-91.0268
-65.3165
-7.81332
7.85927
-0.309921
84.0429
49.4753
-58.2634
-8.99154
3.99002
55.7426
117.445
71.6286
66.7356
75.7647
96.8646
205.307
180.293
48.2234
-29.268
-105.736
-221.953
-272.576
-195.178
-81.6728
-60.8387
-95.9432
-92.5423
-30.9745
29.1537
-6.07238
-41.0482
-4.49522
18.1105
52.1692
105.409
90.713
73.5996
67.7405
102.737
77.8623
47.5123
97.4009
106.046
110.103
84.3839
-42.1427
-62.9337
-61.6238
-63.4566
-64.5934
-144.069
-184.801
-114.146
91.5381
70.569
-127.483
-168.693
-133.239
-76.2955
6.89318
101.673
62.9459
4.42984
20.6803
85.7072
70.0311
2.83183
13.4099
18.8004
21.9834
69.1041
82.4182
111.707
-6.20744
-148.539
-105.957
-4.0878
30.5232
13.0935
44.4965
71.0068
85.4744
89.4467
20.8909
-57.6242
-35.4485
22.3289
52.5056
27.5463
-19.0563
-18.3839
42.2401
-6.0421
-68.4268
-32.244
-31.3807
-84.9822
-90.0747
-53.7195
-55.3053
-29.3554
-42.7326
-53.2663
-41.9184
-49.6815
-20.1203
-36.559
-57.5434
93.5125
99.332
-6.34105
33.7146
166.53
146.635
118.22
107.789
91.0505
58.8305
-16.6309
-42.7679
-43.2869
-16.8127
-27.1784
-141.36
-182.585
-119.795
39.4285
144.736
52.0578
-13.6141
8.99169
-42.5908
-232.187
-273.657
-182.9
-101.887
-0.228848
132.049
290.368
371.515
269.218
114.339
33.5544
76.8843
66.1606
-6.04766
-130.422
-236.829
-270.591
-182.369
-69.2334
-24.3354
-8.57417
66.198
165.344
145.887
77.7344
18.3516
-25.9358
-96.39
-99.0781
-83.4016
-76.9549
-57.5373
58.0429
123.101
88.3189
83.2783
43.0228
-56.8376
-55.7707
35.7198
47.4901
62.9687
174.004
193.972
4.15766
-155.297
-258.119
-252.746
-74.9139
130.407
151.494
72.6507
24.6473
11.3397
25.8344
-10.9763
-41.3102
4.14743
-11.5173
-111.782
-120.006
-127.484
-167.147
-94.45
66.5747
100.458
68.1774
55.5493
-39.7637
-144.398
-96.2269
-6.23529
68.7395
139.335
124.159
118.141
108.798
82.3282
64.2379
39.2501
70.4137
124.841
25.2563
-82.8559
-100.401
-80.3995
-32.9101
-5.08337
-6.87626
52.442
113.013
47.8752
-74.5941
-131.61
-111.169
-73.9481
-5.35689
11.2198
-86.3377
-89.7847
-17.3472
4.12629
-10.4476
37.766
73.0911
72.5774
59.9048
64.7262
24.8129
-53.2389
-117.906
-60.0993
-44.6829
-104.543
-84.8973
21.5642
45.263
44.8222
130.949
230.732
92.3157
-94.7133
-144.866
-129.74
-84.8725
-14.0778
52.6179
49.2469
58.7418
25.2351
24.6705
60.6182
73.2482
56.7072
23.7338
-57.5149
-60.0777
-25.9645
-35.4981
-42.1785
72.144
125.355
61.6297
-25.905
-17.561
52.469
36.155
-6.87086
-34.0604
-34.1882
-21.0695
-36.6583
-49.7988
5.09728
32.2974
-19.7898
-108.238
-117.357
-10.9428
-26.82
-59.1761
0.484771
24.6943
-39.9682
-138.825
-141.865
-71.3241
-14.9055
46.1836
51.0468
118.505
225.981
283.114
325.345
209.413
61.2926
14.5052
-43.1801
-88.2229
-89.8634
-132.32
-170.739
-129.431
-57.162
-1.13903
-18.2993
-69.1216
-122.261
-93.3842
-56.569
-63.5098
-46.1877
70.8512
49.8635
-65.9231
-22.0768
91.4329
184.861
170.344
95.8183
13.0392
-65.2195
-45.2372
9.04933
-25.8633
-76.0909
-9.44455
125.197
191.104
170.347
57.3748
-69.7312
-153.798
-190.577
-92.5475
-9.01089
9.87519
37.4882
13.3636
-20.1296
15.8532
102.99
119.823
37.0922
-45.1259
-69.3679
-108.542
-181.299
-224.611
-164.457
28.4287
158.765
146.751
140.074
102.866
37.0828
1.82041
-30.5247
-97.8215
-78.0493
-7.4106
-6.80266
-68.2017
-60.2198
36.5245
136.305
205.472
261.246
228.851
0.584734
-167.687
-197.798
-145.702
-80.3089
1.77943
-1.68536
-72.5157
-72.9594
-39.7666
-43.0167
-19.2833
71.7654
83.044
61.1024
117.502
131.71
70.8549
-11.5713
-53.4614
5.51344
-58.3897
-187.485
-272.818
-216.062
-126.738
-68.1984
-2.72631
16.337
84.391
136.415
141.903
100.525
69.9765
93.07
100.821
84.0613
19.5589
-24.6609
-23.8304
52.8058
110.923
98.1686
23.4026
-58.9072
-47.7086
48.0754
131.472
175.501
128.337
-9.06333
-144.396
-220.105
-126.711
-35.2988
-57.8815
-76.3463
-92.0988
-99.5395
-75.7668
-132.49
-158.91
-105.731
-62.2176
-14.0336
61.5825
110.513
62.9103
-65.7461
-148.778
-12.6291
80.9693
68.2435
55.5481
67.2476
96.6685
122.452
196.424
183.681
71.7263
38.8831
-0.0357343
-38.2286
-30.92
-12.4401
40.0075
172.438
216.676
93.6332
11.8677
-59.061
-111.791
-191.88
-232.531
-235.392
-185.846
-124.277
-99.13
-90.6864
-111.678
-52.5999
140.872
346.248
363.554
182.249
41.7986
-106.345
-212.827
-233.425
-237.686
-225.434
-84.1367
140.076
203.775
213.978
192.903
105.975
-9.52842
-46.1074
4.33985
49.8813
3.94917
-63.3323
-109.885
-47.3922
5.82237
37.2534
96.8054
83.2032
51.2304
11.8149
-86.5565
-104.706
-5.47729
173.759
220.38
70.1372
-19.6971
-31.1302
-23.1674
-104.914
-224.278
-223.176
-137.723
-12.5996
-12.4001
-74.7235
-78.4418
64.0372
151.712
113.056
70.2876
13.1235
-28.8383
-136.051
-170.956
-82.9197
3.18234
34.6832
82.5454
124.01
114.566
70.2571
109.54
163.598
66.0298
-73.0552
-77.8614
-3.01717
38.467
62.8816
150.453
160.485
132.977
79.1112
17.3421
-18.6915
-96.8919
-143.259
-105.227
-108.443
-155.508
-222.051
-146.352
-163.2
-148.608
-90.5893
39.3428
150.105
60.5841
30.8012
-15.3204
-110.681
-142.673
-94.6833
-58.954
3.20537
81.1266
162.794
176.415
170.524
169.637
140.705
53.0452
-4.12668
-20.2384
-17.6577
-33.6911
-73.8927
-1.35991
10.2821
5.07102
68.0938
143.404
127.834
56.4373
-33.5909
-31.5505
-28.7217
-143.857
-107.278
27.0875
121.392
52.9683
-8.28827
27.8909
47.0047
1.47216
-12.7158
20.7612
18.0655
-29.4329
-95.6865
-137.927
-167.965
-200.621
-153.017
-145.066
-68.0036
85.2417
152.55
96.1339
63.9198
36.3818
-62.4
-120.137
-67.4248
-69.4318
-115.06
-92.5288
-76.2851
-15.1933
139.426
198.969
117.612
111.824
133.211
112.499
47.1406
-4.93628
-52.1124
-50.9232
-78.295
-58.5193
60.576
185.669
165.855
111.483
153.222
223.817
195.176
43.0969
-115.506
-176.619
-131.305
-41.0625
-8.31345
-16.2521
-45.3288
-85.0172
-2.44984
75.9538
20.7581
-85.3636
-156.332
-203.34
-215.285
-183.517
-187.589
-202.134
-137.543
-11.4038
46.2848
21.4226
36.5478
35.9402
32.4668
47.9553
73.5648
82.1371
58.2066
61.4315
178.693
291.46
229.485
137.308
86.7695
71.1553
50.3826
-54.8165
-118.831
-134.349
-129.583
-106.618
-30.5855
67.177
110.579
164.609
144.849
63.4981
-99.4493
-247.163
-224.287
-173.287
-76.0395
49.7512
62.189
8.52714
-10.6952
-55.4161
-105.591
-119.322
-49.6353
58.7495
116.425
82.9039
108.598
62.7732
30.5408
49.1574
58.4171
58.7051
-24.2548
-56.0763
-26.9721
-112.384
-97.9696
-25.321
-3.89442
62.9899
103.24
101.186
121.656
73.1366
-39.3727
-90.0782
-135.799
-117.955
-11.4613
47.0493
52.4125
84.4574
53.1689
37.492
-28.4087
-71.2175
-49.7506
-45.2596
-61.8027
-13.2717
66.6512
162.666
132.161
49.1452
-2.96897
-56.706
-71.154
-80.9887
-141.28
-149.472
-120.411
-110.555
-101.599
-109.031
-60.3894
70.7114
129.083
92.2203
34.6738
49.4353
97.3859
78.9579
58.6623
122.11
66.6406
9.26516
7.22524
33.9156
76.0875
103.969
122.834
122.663
79.1425
43.5791
-26.0225
-116.556
-187.005
-164.997
-101.332
-111.245
-129.541
-134.905
-185.637
-173.533
-88.4692
35.1507
133.461
113.317
72.9316
8.27032
13.348
67.9392
75.8209
69.6387
116.085
177.438
224.592
229.583
168.124
106.147
10.4655
-52.4754
-29.4192
-132.078
-162.068
-199.689
-246.094
-200.622
-164.712
-85.5158
-54.3718
-89.2414
-62.9125
-62.0132
-74.8222
-21.5175
23.2375
2.59594
44.6056
170.61
131.377
-19.366
-49.8939
-18.934
15.5975
88.8948
151.126
200.249
132.426
87.9584
111.716
108.207
106.929
103.643
91.5215
-22.3306
-118.595
-93.6748
-21.9185
-98.3265
-85.2566
-21.1948
48.1752
53.1744
-16.7421
-99.6318
-155.992
-185.156
-136.667
-103.741
-88.0666
-51.3792
-21.1933
34.9614
45.2136
-2.81817
-15.3679
18.8855
41.4019
17.8466
36.9933
102.016
82.6236
50.956
61.7435
71.081
98.6676
116.192
20.3805
-55.3796
-24.5836
14.0234
-68.928
-125.12
-75.776
-67.2529
-142.18
-120.597
-46.4108
3.19895
17.2012
14.0706
10.4849
33.9224
73.0151
56.8446
28.3037
16.943
11.2336
-0.89742
60.3207
174.263
117.232
86.0941
128.84
157.242
185.76
71.0815
-73.9711
-137.744
-161.481
-158.593
-140.452
-40.5999
44.6128
54.5418
-4.89376
-59.5997
-83.7536
-156.515
-232.165
-242.627
-65.7173
53.3251
96.7644
192.656
175.635
66.8601
-49.2867
-101.349
-98.3994
-79.3079
-48.2249
-19.4878
10.3593
53.9215
97.9507
76.902
35.4484
27.7788
-1.07252
-24.923
24.9441
36.5999
-27.0572
-102.186
-78.8136
18.4834
74.8547
77.1622
136.711
169.191
134.523
69.2313
35.9375
32.9067
-26.988
-71.1822
-18.54
69.8543
102.991
93.6358
28.5169
-4.97578
-47.5243
-122.835
-164.803
-209.45
-230.333
-118.861
49.3244
74.4966
-28.7231
-34.3557
-15.147
2.421
28.43
22.3304
93.0172
87.1853
-52.3694
-137.867
-144.896
-128.14
-46.4138
-27.1652
1.19696
68.4026
121.857
49.4296
-66.4645
-66.8807
82.2269
125.987
70.7394
-3.24525
-31.7781
60.3039
36.3753
14.907
78.027
86.8173
59.8371
18.4169
-42.412
39.7718
132.404
103.331
34.8507
20.6597
27.5611
20.6065
-70.6934
-62.7695
-50.2795
-63.1486
-77.122
-111.73
-107.338
-103.394
-55.926
48.9892
166.339
146.852
73.7228
15.2443
-6.45827
-31.0481
-86.1684
-131.496
-165.667
-151.394
-111.827
-142.544
-142.429
-63.1709
-19.3616
-5.37991
56.1265
124.189
192.548
251.477
233.292
80.7168
-28.2516
-31.6979
-33.7852
-47.6054
31.603
116.882
141.054
94.8275
36.3557
-29.5275
-77.3929
-64.1212
-7.40171
14.9514
37.1728
10.872
-73.2983
-202.486
-280.906
-154.225
42.7813
119.708
56.3235
15.8227
-28.9282
3.37594
55.6313
93.0076
131.262
115.173
66.9708
29.1232
-29.2327
-70.5686
-120.392
-116.354
-150.879
-186.393
-128.065
25.4048
91.3771
38.9527
124.742
236.687
199.594
114.55
49.2255
-1.88723
-74.7845
-106.576
-182.536
-213.122
-101.268
36.4237
132.641
303.479
325.392
125.578
-24.4995
-129.698
-269.458
-307.992
-238.371
-117.927
-21.5619
-24.4391
-46.2066
-40.9345
19.4109
98.9247
110.619
83.9776
79.58
127.349
152.862
23.6663
-6.30703
52.9236
59.5941
11.5227
1.67179
-2.63611
9.9744
30.3842
-18.3256
-52.8403
-70.5221
-57.4534
-8.03008
-28.9189
22.4021
68.5287
26.0391
-24.9125
-60.206
-69.365
-35.5431
38.8857
22.6831
-40.7943
-33.4817
69.7131
38.6605
-63.006
-64.3931
-41.6527
8.3166
12.8356
-80.1477
-82.0764
72.1708
155.289
73.602
-61.7935
-85.1189
-56.9152
-3.81352
24.2736
41.9875
88.1274
94.913
-0.778721
-105.593
-140.413
-90.1198
-0.988819
111.772
299.219
263.378
127.003
-19.1761
-139.101
-150.676
-114.492
-6.41955
-3.48152
-133.619
-143.95
-63.6971
11.9781
80.6167
71.0932
60.1918
67.3414
54.456
21.185
-76.8507
-185.924
-147.84
-62.6825
-17.0128
33.2626
94.7636
93.9515
-1.15018
-60.657
-74.9281
7.05859
110.506
64.2595
7.38434
62.1267
56.7012
42.1412
64.5072
93.1438
94.7174
-11.6914
-58.4716
-0.275945
32.5437
25.5293
27.9209
44.9266
-43.4715
-112.293
-87.1446
-109.844
-180.122
-175.795
-82.2091
6.1236
69.993
113.949
96.1887
15.7433
-71.1959
-51.018
-12.5074
-40.6978
-53.8851
-37.6551
9.90644
64.0455
88.641
139.611
164.712
104.404
48.0965
35.8765
-9.48376
-117.343
-125.3
-67.727
0.169416
103.272
185.672
59.7665
-2.46394
-11.1981
-60.5875
-84.6495
-140.375
-123.644
99.5348
221.549
103.351
33.2411
-54.7834
-134.264
-166.214
-149.384
-150.542
-110.888
-18.5938
-11.805
-65.2916
36.2337
101.489
48.9477
57.4177
104.058
96.5583
38.1136
-53.2299
-34.5172
103.952
95.505
74.6858
57.7096
40.5312
58.9201
5.32188
-128.934
-180.989
-158.11
-132.808
-85.0827
-27.8372
43.178
106.492
134.692
150.623
78.6763
-45.4086
-120.089
-96.5741
-13.2174
34.7237
86.0533
111.264
69.265
55.5687
73.2762
48.8293
82.1443
97.8434
-16.1469
-90.2996
-150.744
-182.549
-125.021
3.95878
6.6106
17.1221
89.955
22.6041
-48.3885
-54.1575
4.63579
7.93397
-27.6654
-23.0679
-8.97733
-13.8835
-114.234
-153.266
-89.6816
-26.9766
39.7924
70.6917
26.4599
1.94322
69.8266
49.3006
24.8505
114.336
107.518
48.429
-24.1448
-56.8345
-61.2366
-82.6972
-63.6078
8.02934
107.733
140.691
100.728
96.3205
97.8437
98.1703
53.3949
-6.23341
15.8877
-3.28407
-117.59
-181.248
-189.583
-127.322
-61.0031
-27.4964
30.4592
69.8106
26.8349
-5.59309
-49.282
-124.997
-107.587
-11.1206
56.2511
49.9388
20.8575
-10.1146
17.8019
98.6623
76.768
24.8519
38.5082
83.2344
70.8551
22.2395
16.7741
28.7041
-19.0832
-115.804
-100.211
60.9129
118.836
-18.2559
-71.6159
-54.7472
-42.4026
-17.2222
-57.5856
-95.2808
-73.2895
-75.067
-14.252
53.6819
85.0825
160.62
177.919
153.879
92.6783
-3.38376
-77.5911
-154.149
-161.841
-82.7823
-33.5416
-0.432412
27.2422
31.4243
42.3331
9.37851
-46.6663
-45.5765
-39.5522
-19.6166
40.3917
103.439
101.695
6.32194
-16.4902
-1.69722
-26.4807
-26.0782
-1.39808
-26.5824
-62.7412
-50.3273
-22.2102
-13.7118
-22.6725
50.6362
135.396
148.719
66.7026
-9.74696
-2.60746
-101.932
-153.287
-67.0325
18.6297
100.807
249.698
214.363
69.7096
-41.5037
-124.211
-89.7837
-97.407
-171.108
-168.599
-136.184
-98.594
-34.4992
53.4516
82.9352
32.7884
-8.53262
11.9171
47.7752
76.6822
65.9762
-36.967
-63.0227
-45.4086
-31.9679
44.3594
42.4577
47.1505
102.995
102.9
62.2969
46.5319
42.9459
20.3028
-22.0519
-50.3223
-82.6385
-109.295
-91.2803
-32.4774
11.7213
-22.7183
-53.1884
21.0128
102.192
155.177
137.437
48.0608
-24.2936
-27.6439
14.4061
120.435
62.8442
-82.8363
-106.958
-111.618
-153.676
-138.448
0.758999
79.0599
88.3778
57.7896
21.6341
-15.3724
-69.3183
-133.864
-133.353
-69.6217
-14.4536
-5.71331
7.72551
60.3099
172.032
171.138
83.3631
31.5437
78.4067
63.1851
-84.4731
-202.678
-173.064
-106.688
-54.1603
-1.337
13.4493
4.51885
-11.2989
-14.8804
53.9069
136.902
104.002
22.2239
10.9036
53.692
33.9029
-15.9533
-27.863
8.50465
-7.77453
-14.7505
-28.0111
28.2566
128.645
109.778
100.651
55.969
10.974
8.24667
-35.8846
-41.1315
-12.7652
-88.0167
-191.897
-128.951
5.30703
57.6621
15.7453
-65.24
-91.5315
-16.9874
90.732
17.1328
-70.6479
-44.2117
46.3643
81.3329
25.8107
-9.14396
-6.11389
-91.3801
-156.626
-170.387
-92.7421
51.6438
182.201
231.991
59.8968
-63.3673
-111.452
-125.004
-27.8371
66.3189
74.6489
64.873
90.6053
66.7115
11.6259
-17.5428
-24.1693
21.5817
64.0619
78.2982
99.8855
49.0098
-75.9743
-141.507
-30.8678
74.3527
169.414
224.837
66.286
-84.3761
-117.905
-147.394
-127.313
-54.2585
-25.3375
-36.5067
-70.1722
-116.143
-183.544
-166.291
-79.947
-36.981
88.4656
176.445
201.74
161.028
84.2613
-25.3549
-120.291
-59.694
50.5689
189.812
167.42
7.20266
-3.88064
26.9468
-40.7118
-49.5396
-60.8307
-48.2043
-32.4099
-21.8568
-78.9905
-149.188
-151.367
-59.4256
50.8519
82.9042
176.214
288.343
142.381
-97.2603
-222.667
-151.361
-58.4609
-10.385
64.5505
80.3676
69.0944
23.6338
-43.5328
-59.336
-67.993
-3.82134
94.2531
145.113
97.2754
21.7912
-60.2651
-150.084
-126.416
-63.5555
-36.753
-9.94828
1.50037
38.8464
68.8435
47.524
60.8047
73.7829
45.1453
19.5863
9.71266
-2.30771
20.0208
11.3117
0.239885
-27.3254
-80.3255
-108.778
-54.577
10.8698
29.8169
48.2097
63.8569
38.5958
-15.1158
-36.9746
12.9571
95.9122
100.861
68.0844
2.52997
-93.9943
-130.201
-147.524
-131.276
-92.6271
-80.6569
-94.5519
-41.381
10.4176
-20.9257
-28.4397
20.939
143.574
192.075
214.52
196.124
102.738
-18.4742
-102.385
-131.777
-45.3178
2.9472
-18.939
-57.4311
-53.4606
75.2794
168.966
71.1997
24.48
83.7061
63.569
-48.0545
-115.439
-98.5991
-128.11
-158.717
-112.563
10.4955
61.0919
59.0222
7.74756
-38.7552
-57.5201
-24.2317
2.75722
-40.4953
-44.8474
63.2071
152.403
117.004
60.394
53.1455
-4.48141
-27.5432
0.150932
10.8636
-31.3483
-60.2062
-91.7369
-101.049
-37.7644
6.6215
28.3564
138.792
305.09
239.247
56.782
-69.2962
-125.112
-114.374
-119.685
-119.019
-85.7884
-80.4535
-52.5394
-45.1286
-17.0834
32.1696
92.2843
51.538
-24.7332
89.3363
169.582
129.393
42.2132
-19.0246
-33.8641
-52.7036
-92.343
-119.848
-135.806
-91.3622
-50.3247
9.21834
73.2822
79.5086
15.2698
-48.6075
-73.4376
-12.0498
68.7988
83.5939
52.0672
-17.6383
-86.9212
-116.456
-85.5508
-40.758
-2.03045
56.6048
69.9081
39.6238
69.446
98.6506
132.254
248.843
244.701
185.144
27.7676
-109.524
-145.131
-180.162
-131.459
-74.952
-93.9045
-101.66
-63.1506
-2.30121
10.0336
19.425
103.632
140.85
127.667
53.6201
-96.0783
-228.129
-228.155
-172.694
-39.8551
103.933
136.687
80.2193
5.7131
-63.8211
-124.214
-89.494
-16.3959
90.2119
150.637
92.9955
56.0331
41.2986
-39.6187
-53.0401
-10.4157
-8.11651
-6.56592
15.7263
33.2138
58.4111
118.503
97.454
-8.17268
-93.2781
-71.3524
-8.42918
7.63841
-26.5616
-46.9912
26.6357
42.0987
-24.128
-44.0819
-25.0943
-3.21524
4.54747
19.5274
8.8303
25.7032
5.77866
-51.3152
-49.9666
19.9993
89.4402
101.97
112.447
143.486
37.1547
-96.5206
-166.769
-191.618
-221.543
-185.008
-77.952
128.872
182.534
73.2006
51.1074
105.26
146.298
101.283
-28.5125
-100.372
-114.556
-86.1541
-46.0414
-17.433
-12.8135
-38.1747
-58.6535
-17.7001
77.3149
92.4196
-9.32843
-145.546
-158.492
-32.3988
9.86205
-44.5141
-57.912
-16.2447
93.3948
126.683
147.915
164.5
156.143
147.599
112.902
119.027
123.785
65.5953
26.1776
-13.6059
-48.2198
-128.688
-149.919
-127.071
-98.443
-26.4272
-21.482
-82.7257
-71.0192
3.65527
1.95825
-19.5746
-86.3187
-179.884
-163.899
-115.308
-33.8521
24.9069
44.5489
24.6253
18.0963
18.6205
73.7394
132.011
95.6339
42.8356
68.735
76.3732
16.9494
-25.5172
0.90668
17.6811
-1.71155
-14.539
28.5475
64.2826
17.2464
-15.9891
-10.0969
-0.52235
14.1198
50.6192
62.9563
31.6853
21.1045
-9.64462
-81.3387
-137.687
-102.508
-38.8295
-55.3506
-15.1815
148.487
291.386
162.474
12.6429
-64.4855
-116.649
-86.9918
-39.3392
-42.9693
-179.024
-198.996
-61.2421
24.8727
25.3885
-3.43104
60.3747
83.5053
35.0693
-6.74936
19.7978
39.4642
-95.483
-137.082
-111.823
-53.14
64.7492
57.6495
2.67271
30.5144
122.313
128.471
13.4819
-42.6817
1.44308
44.3387
85.0449
90.8677
113.141
165.154
69.7615
-58.9491
-56.2073
21.016
-53.3349
-126.569
-161.74
-133.038
-34.0208
96.0171
226.229
124.401
-5.87418
-38.4789
-80.6168
-113.734
-117.566
-76.3084
-30.7236
-55.0632
-96.9788
-126.634
-103.415
-11.9181
104.106
232.587
215.052
56.4904
-23.1672
-46.7163
-46.5617
-14.7521
28.9035
55.4172
55.3151
12.5277
-55.3039
-31.4744
5.5722
-35.0492
-51.0827
-39.5071
-25.4264
10.0955
45.3793
23.2788
25.4253
54.811
22.4952
-29.4669
-75.4825
-40.5569
-9.08255
-34.8078
-35.4165
8.86529
40.272
7.8485
1.11362
59.3089
102.756
98.5307
66.0663
-35.1725
-58.9023
-65.0356
-64.3001
-18.551
16.8787
29.1845
24.2543
7.12777
-24.4617
-30.0448
-5.49012
3.33754
68.8226
180.314
185.649
133.725
96.1351
-71.076
-195.496
-163.176
-128.699
-159.395
-157.706
-123.486
-74.3983
-75.6921
-53.2993
31.4707
59.3935
6.69915
9.98056
75.8022
76.7161
-28.8645
8.25836
139.798
20.5248
-72.1146
-81.6308
12.9938
73.9588
168.624
161.787
132.224
127.437
78.6946
19.246
-39.0741
-52.9048
-49.1176
-63.0475
-86.7578
-103.5
-93.4013
-102.076
-136.527
-90.0857
63.6365
157.898
151.558
169.638
102.632
43.436
-17.9781
-81.1318
-87.9433
-53.8201
-35.1056
6.60932
69.7994
14.4687
-34.1025
-52.111
-71.1759
-84.3438
-91.2832
-61.0514
-1.72194
17.0102
-32.4967
-108.399
-142.143
-74.9114
0.716413
30.1573
60.5549
65.8531
90.6089
141.786
140.262
115.792
93.0258
56.5602
11.1309
-17.9814
-52.2841
-14.9025
-32.4865
-66.566
-64.8821
-21.0076
58.1571
110.447
136.501
98.1444
33.04
-6.26258
-65.2646
-89.2835
-71.6495
-33.5203
-13.4125
-14.7577
-22.1391
-62.3707
-46.4219
-6.00325
17.1389
27.127
-18.2423
-62.3948
-88.5743
-79.1638
-19.012
61.5639
68.6168
20.0756
-29.8657
-60.1298
-52.7647
-28.4243
-0.473829
32.3534
91.5298
90.4296
58.4029
47.3598
15.5132
-58.4931
-64.0045
-5.0716
38.4315
5.7944
25.7003
27.7184
-15.1635
-58.9763
-74.8256
-60.5871
-38.862
10.5849
82.7487
102.068
66.2709
45.311
48.2289
61.515
59.8659
86.9173
74.1533
29.1299
-42.3753
-88.5615
-148.763
-174.279
-120.723
-16.9597
19.9669
17.2738
18.4589
4.07439
-64.645
-83.812
-16.5936
12.7339
-2.12921
22.4143
26.7078
-19.5566
-41.5728
0.139944
29.5745
59.4962
86.6803
129.285
121.304
60.3523
68.586
47.3821
12.2351
-4.18057
-8.10995
-28.1395
-105.766
-140.258
-122.435
-91.1904
-31.8466
4.39063
54.789
55.5264
17.0121
-20.0277
-100.069
-128.533
-84.5987
-66.1829
-23.5249
137.467
177.641
65.0131
45.8755
69.4761
63.1798
142.908
99.775
-12.7815
-97.5866
-107.319
-77.1285
-57.6232
-45.2136
-16.7298
67.3072
71.4692
11.7862
-0.27058
-19.9023
-105.234
-94.2246
-10.8158
37.3124
73.3405
33.1851
-71.7098
-53.3164
-21.2501
-21.0274
-42.5565
-80.7961
-62.4336
86.1847
206.313
184.866
138.391
63.1199
-7.6283
-49.7763
-45.4999
-11.1954
10.6697
-24.6989
-55.0691
-39.8808
-17.9574
-41.0267
-39.2807
-15.9586
-41.6667
-58.8822
-46.8147
-35.1618
16.644
5.35836
-57.7582
-25.934
31.5262
31.3068
67.652
191.666
198.16
51.6795
-58.9963
-96.8836
-76.7298
-15.4255
-26.8479
-32.7554
2.33116
28.9735
17.0195
-60.8514
-166.575
-148.085
42.1939
118.331
72.8264
65.4016
49.03
-37.9276
-36.3018
0.025613
10.6638
25.4939
-2.89532
-63.9222
-54.116
-7.05903
12.9964
-5.79052
-19.7201
-13.757
36.3068
91.1463
33.2303
-5.72048
33.3366
52.2327
1.40814
-50.1986
-36.6307
28.7479
32.0389
15.5563
10.4758
57.2516
92.618
52.002
10.9479
23.3419
52.1788
31.5314
-19.6413
-36.6004
-80.2694
-87.9449
-89.4199
-49.3769
-14.1392
-53.6671
-98.4624
-85.1931
-41.5332
-9.36419
-13.6257
10.5908
41.665
43.2904
53.5153
42.3444
1.02856
-6.29122
-33.6628
-70.6732
-80.0647
-61.5101
-31.3567
-18.5671
-32.4187
-84.5926
-96.7275
69.8892
176.67
144.363
189.505
255.02
152.447
68.8032
73.3139
82.3339
-0.218682
-69.4735
-59.9752
-32.7572
-20.8064
-29.6986
-40.5264
-62.5084
-90.2594
-68.9737
-47.0095
-87.7491
-94.3934
-40.4654
-89.6403
-92.5621
-82.3941
-29.0317
17.5193
46.8837
67.6849
51.7432
36.5887
40.728
52.3528
64.6362
41.0368
29.0268
20.3814
50.2595
75.7032
39.5921
24.7501
49.9667
47.452
-32.6972
-65.5408
-88.9342
-65.6197
-60.3998
-42.6489
-21.4475
-20.3455
-44.7586
-43.411
-30.2968
-6.58579
-4.91268
4.98223
-10.3904
-60.9742
-89.5111
-67.9768
-20.1852
25.38
36.4829
128.379
212.75
150.533
79.9946
83.5967
142.886
91.3432
-7.22425
-68.2335
-101.717
-91.3109
-37.926
-26.0794
-14.0083
35.7722
22.1952
-42.0148
-67.1266
-50.3284
-40.6578
-19.7696
61.2108
41.0281
-48.9105
-125.406
-143.858
-95.1682
-38.2488
25.9072
70.3724
74.0102
38.3355
-12.4812
-25.0759
11.7288
17.0823
34.5781
18.0595
23.1256
6.21868
-50.3345
-119.394
-76.2261
15.251
85.0288
95.4502
111.574
96.1923
52.7098
30.3631
1.98937
-24.5988
-4.1161
63.4966
70.2666
84.3442
94.1603
109.271
34.3284
-53.2247
-92.1686
-132.611
-98.0921
-118.936
-163.092
-159.155
-137.643
-88.2468
-34.7581
-16.5069
-3.70127
-21.1225
-33.4087
-23.7434
31.4917
108.776
135.72
129.876
92.7486
56.941
72.0572
106.516
125.483
144.054
133.706
38.121
-66.3534
-116.872
-122.716
-66.6878
-39.5906
-25.1589
-32.2574
-71.0541
-70.8892
-77.7291
-136.307
-97.1367
29.202
115.703
91.8495
-43.7865
-120.762
-117.601
-74.8238
26.7474
192.879
263.593
127.15
21.1545
-23.0015
-19.8219
56.3524
107.984
55.7255
-30.3992
-34.0318
-59.1605
-148.931
-203.135
-185.334
-11.4231
75.2786
71.8375
32.6141
-17.505
-59.2189
-16.2067
26.89
20.7153
81.636
164.823
159.118
114.431
50.4244
7.98614
-38.1219
-117.142
-164.984
-160.89
-130.996
-68.3853
-16.6694
39.4833
86.6906
145.564
131.438
9.76397
37.0323
47.0794
-6.89649
-111.568
-155.223
-124.054
-92.1264
-51.0492
-30.3698
-6.98213
103.501
225.947
223.625
64.7457
37.9338
12.1532
-38.5082
-48.5261
22.4144
-18.3466
-134.963
-154.961
-142.401
-130.579
-95.9264
-29.306
89.1511
202.304
256.755
202.161
79.9725
-44.376
-100.898
-110.465
-109.401
-48.2554
18.3886
-16.8519
-92.2159
-73.6352
-49.2805
-5.7519
61.0529
84.1055
36.0307
20.9818
10.8347
-51.7152
-54.0894
6.33985
81.156
109.652
18.9934
-76.8109
-103.187
4.9392
73.415
83.7157
104.59
154.787
127.748
78.335
34.2141
134.526
31.0142
-48.9066
-137.474
-152.842
-182.052
-193.709
-151.502
-4.73905
75.0726
54.8693
-2.53633
-71.2731
-62.6438
-41.6781
-61.5568
-10.4659
28.5458
4.72719
33.7157
25.7028
9.79954
-54.3643
-94.5838
8.6762
48.4522
2.46143
-21.6265
-12.0688
83.2532
151.625
181.112
112.865
23.7285
-5.39565
-18.0766
-65.471
-112.924
-141.816
-50.0541
87.3262
92.3237
66.9154
54.9674
12.265
38.9369
26.4571
-19.7843
-68.3852
-75.8418
-31.2142
7.12235
46.0928
49.1349
28.4086
36.0892
-9.21292
-100.831
-140.031
-129.304
-68.5925
19.7638
80.0849
70.0451
97.3463
128.225
119.255
141.964
85.8337
-27.5554
-106.68
-194.105
-280.93
-254.345
-130.556
8.93456
154.29
325.911
270.624
139.755
21.8329
-82.8743
-113.789
-165.52
-234.754
-220.385
-130.57
-58.5593
15.7808
77.3834
136.091
130.385
107.423
117.761
96.5031
-3.14321
-166.569
-274.161
-194.165
12.4232
148.461
132.563
71.2222
85.9839
149.939
194.123
148.937
40.8994
5.88868
22.2643
-6.13112
7.43623
55.8975
53.5704
17.6069
-21.0424
-11.9299
-31.4764
-79.6133
-186.692
-250.72
-210.788
-148.186
-78.0698
73.3517
240.278
229.602
99.4479
-45.8153
-125.608
-143.605
-104.325
-8.13559
35.9122
-54.8676
-119.755
-60.1627
8.21495
39.9089
118.499
51.1839
-2.36396
16.3725
7.78325
-28.1752
-83.7714
-73.7866
-18.3091
72.502
113.004
102.042
47.0449
-30.778
-3.44554
102.075
119.177
33.7584
-42.1689
-17.7099
-26.5914
63.0334
149.964
120.532
59.201
-15.3166
-94.0369
-96.6144
-52.6685
-40.6782
-63.6004
-63.8512
-30.6122
5.04274
-3.30206
-32.2731
-31.2986
-57.5409
-63.0367
-40.7545
-44.2241
24.7953
74.7739
101.856
93.2355
41.0394
30.4843
-8.3104
-34.9031
-49.0305
-16.9036
28.5632
25.8874
-13.0187
-62.9189
-50.4027
-7.33861
55.8346
69.1645
33.1698
2.18241
-34.2152
-67.621
-82.5372
-30.4925
18.2192
-100.044
-186.411
-126.864
3.67613
76.3683
38.7129
-14.543
42.2925
92.0459
126.079
170.302
242.492
135.764
-3.76142
-22.6102
-38.283
-71.1317
-76.202
-54.6286
-22.0579
-1.27357
23.3308
24.974
6.02403
-34.569
-32.9653
12.3013
-13.5329
-72.7946
-101.867
-81.245
-50.9875
42.1969
82.1595
32.1425
5.95717
38.0698
58.5019
47.3255
-12.366
-37.6981
-21.1618
-7.86433
-16.3034
-24.6959
-14.3833
12.7371
-3.00035
-20.1318
-49.1653
-56.9138
-54.361
-32.3223
30.245
92.8596
73.3602
5.61527
-36.9052
-50.6005
-44.5582
23.6681
39.9398
71.7706
70.6211
45.4081
3.76827
-11.1311
-10.4829
6.24604
43.1438
35.2404
-44.7672
-71.9214
5.29063
54.8019
51.2305
38.1661
20.8273
-1.81686
-37.2834
-91.0928
-59.2086
-68.9677
-62.0275
65.4571
173.182
67.7009
-70.8578
-78.5574
8.43147
4.29151
-58.7119
-58.5451
-55.0308
-64.5334
-34.9905
17.4242
40.0909
-10.1116
-32.8257
48.6275
52.8038
13.9054
14.0384
13.9845
39.0432
96.891
97.0215
70.0983
9.86269
-76.2929
-119.069
-114.667
-68.4217
-18.6879
-1.38507
-32.7776
-35.4667
23.1553
100.042
80.674
29.6767
66.7096
91.6994
39.3563
-84.4136
-111.825
-38.2143
-3.71842
13.1933
52.308
56.7665
4.72468
-102.116
-144.821
-126.201
-87.992
0.912024
106.713
173.938
144.642
169.293
207.245
36.7895
-144.64
-200.964
-187.705
-162.559
-154.989
-104.301
30.9161
133.887
145.181
133.703
105.986
133.647
144.67
65.0681
33.8797
-30.549
-99.9823
-114.728
-128.915
-35.6421
-2.2035
-40.136
-34.7629
49.9416
55.9763
6.29199
0.0565903
-12.8464
-13.8443
38.8697
81.962
49.0163
-6.10058
-39.1606
-73.2483
-134.776
-154.156
-147.058
-91.2883
-30.2104
-105.252
-39.7804
107.579
195.913
167.822
57.9062
-30.5149
-37.4765
4.11138
51.7892
56.9187
14.2354
12.5387
-0.994827
-72.9043
-115.614
-65.7477
54.709
68.1837
0.211917
101.964
195.261
154.649
28.5643
-27.6727
-16.6538
-95.4105
-165.452
-130.115
-39.6613
47.0449
145.828
253.344
140.615
51.8711
110.463
103.828
-47.4793
-172.159
-178.835
-156.008
-189.031
-196.979
-117.602
33.031
92.4436
54.0467
20.3105
18.6103
-11.5602
-70.0694
-128.407
-182.561
-131.667
-42.858
-54.4531
-41.4885
43.3301
132.405
198.465
251.929
223.268
149.841
88.4016
57.6206
-1.99576
-55.9545
27.3073
108.103
53.7282
-25.0581
-72.7483
-111.075
-31.5414
14.5617
-18.6913
-48.037
-43.3362
-38.9265
-69.082
-150.873
-139.064
-66.9555
-10.0253
-6.5617
-27.2597
33.1506
78.3593
70.119
97.3595
145.762
97.0929
30.9049
-24.3431
-60.5654
-79.7992
-68.7813
-75.3174
-93.2959
-29.6005
47.2421
44.4601
3.27487
-36.3119
-62.1222
5.11714
73.0209
15.0192
-17.0381
-4.22999
5.1589
55.0084
89.9375
94.9138
51.9479
44.6154
54.5063
61.6236
27.4384
-18.6056
-19.0731
-14.5043
-34.6877
-51.1961
-52.5271
-47.4532
-27.5489
-15.2162
0.318799
-30.3959
-77.5126
-35.6624
97.3145
60.5731
-46.5606
-66.9467
-64.4825
-57.0258
-16.007
93.0943
149.305
112.463
-1.30951
-72.6861
-56.968
-14.0749
13.2311
2.96464
-52.9578
-94.5283
-94.5662
-86.5127
-123.333
-72.2408
-25.3895
-1.76563
50.1225
70.9437
101.309
57.2048
40.3381
108.629
135.506
107.594
22.8896
-20.2164
-3.40565
26.0845
39.0126
60.0784
67.464
42.5129
11.7408
-15.5817
-14.5235
-3.75722
-21.7151
-59.3689
-149.922
-181.58
-141.241
-96.795
-24.6255
10.3509
27.3923
49.2906
60.5226
95.3699
66.3035
-2.35718
-48.9342
-51.3292
-56.337
-39.3824
28.2597
36.29
30.8568
50.0895
63.7682
39.7444
18.7423
4.16852
-6.08814
4.32368
35.9101
24.5624
-10.8449
-33.9045
-21.784
-7.29933
-15.8197
-32.5038
-29.6679
12.3161
26.1731
4.68546
-19.4516
-37.9736
-45.5671
-59.6984
-63.6857
-69.024
-32.6025
31.378
52.4494
27.0387
22.0023
47.1248
77.4019
14.8038
-37.979
-38.8829
5.81753
144.982
268.494
182.968
47.676
-60.6229
-85.1475
-77.238
-78.0533
-64.6182
-64.2271
-46.8628
-35.345
-37.2179
-37.8473
-57.7293
-61.7646
-7.12807
33.4385
34.9181
8.40938
-75.0573
-125.997
-46.4505
19.9969
69.4524
72.2411
58.025
38.7361
7.26802
-9.08535
-23.9857
-18.7448
0.633858
19.3131
13.4345
-0.275569
19.2976
51.5484
72.6923
82.8931
55.8976
15.9344
8.81246
10.7612
27.3805
42.5434
60.1397
47.3356
34.8572
30.1474
11.5638
4.8726
-13.4734
-37.0528
-74.9301
-124.55
-133.233
-127.114
-113.897
-112.245
-115.016
-115.439
-65.8286
-30.1597
-0.60804
-4.4284
-30.6654
-36.9063
-20.5803
6.24928
35.501
73.6427
105.316
126.118
129.495
119.436
115.778
100.266
73.8019
73.7361
62.8224
16.1807
3.09206
12.9641
-7.68593
-17.2964
-1.06607
-3.95715
-19.5821
-24.802
-48.0703
-70.2566
-72.7711
-59.9324
-45.4492
-29.6631
-12.9901
-9.75611
-18.0532
-40.6941
-56.4027
-45.5843
-18.1502
25.3872
43.329
22.4385
14.4591
25.3282
25.8789
18.5473
18.558
16.8014
7.32969
-18.1504
-13.3427
-7.31589
-5.6693
14.2484
34.3669
26.9631
23.5134
30.0438
29.46
9.18788
2.24016
6.9484
14.8874
35.669
20.0188
-61.6208
-108.189
-115.406
-90.1424
-71.8143
-45.5171
6.96616
66.3113
70.5781
61.9266
90.4878
82.5473
43.5869
-15.5968
-77.8974
-15.3373
78.3161
22.8376
-25.0288
-46.708
-14.9882
23.4102
26.853
4.88932
15.4301
37.7461
28.53
-7.98385
-47.3685
-71.2132
-101.473
-92.4917
-40.0484
9.82559
34.4171
6.13636
-33.496
-50.0702
-121.52
-149.537
-129.05
-67.9989
29.4077
71.6155
79.1596
122.486
175.633
187.538
155.182
96.6632
-23.6775
-140.647
-156.209
-155.754
-163.592
-156.041
-113.369
15.8651
170.449
238.992
250.867
281.202
376.778
449.35
419.55
211.633
-29.2603
-147.878
-140.693
-54.1677
24.4452
-31.6325
-163.981
-244.52
-204.403
-212.112
-280.297
-317.366
-275.263
-181.041
-104.782
-152.885
-226.217
-211.563
-154.157
-50.4418
41.9584
55.3158
40.0394
-0.99868
-23.0947
18.0252
62.6515
131.647
216.352
224.371
215.57
219.395
234.899
234.331
196.831
178.744
124.978
22.6717
-46.3903
-56.2545
-47.9851
-20.7515
34.3643
50.8851
74.138
114.852
103.581
56.1517
-25.7075
-38.4816
-30.1581
-76.5209
-115.63
-159.387
-146.459
-185.691
-252.788
-294.033
-303.358
-245.842
-165.601
-93.1354
-39.7617
-17.8743
-2.03044
65.7912
105.315
113.511
118.798
125.497
162.389
193.296
141.943
110.791
91.8744
62.0656
27.2537
50.6735
62.7902
15.4485
-2.59244
0.749388
7.38456
84.1373
88.4153
39.961
79.6319
116.522
34.4355
-112.591
-195.94
-210.794
-209.47
-179.564
-111.498
23.5056
145.442
150.254
120.418
-4.29242
-107.634
-51.5222
-57.2975
-128.756
-128.158
-65.4115
-46.9735
-61.849
-8.23498
52.8535
30.8703
34.9908
70.0945
124.905
150.994
48.307
-106.972
-71.8387
-4.47782
84.3257
198.332
192.186
74.6158
-28.0134
-81.4882
-94.2574
-101.307
-78.037
-31.3509
-8.47728
73.8962
92.1429
34.7532
-9.31135
-75.9751
-72.1025
15.7656
47.7569
6.6541
-2.25421
-7.95298
-61.7115
6.57143
126.394
89.8693
-7.64734
-104.556
-86.4544
-24.1197
3.48463
46.1421
76.1074
174.154
224.834
161.105
24.3368
-82.8855
-152.838
-218.834
-205.563
-181.327
-123.016
-67.5617
-120.524
-42.8857
71.6181
83.0626
-6.33109
-68.0099
-37.2103
-31.9385
-15.7217
-58.0945
-135.956
-111.835
-9.3316
79.9049
108.849
199.881
254.264
204.76
122.007
70.3969
41.398
46.0349
58.4266
108.028
125.123
97.7798
76.5054
30.993
-49.726
-154.562
-231.264
-312.192
-319.066
-262.165
-183.669
-81.6963
107.23
335.885
298.244
184.612
125.654
71.436
36.1135
-3.66875
-29.4162
-63.767
-37.72
48.1941
70.7919
70.18
7.58216
6.0223
78.2299
33.9853
-62.0282
-152.068
-288.661
-397.305
-340.145
-239.355
-156.816
-84.9448
-35.6302
16.134
81.5547
196.056
216.729
138.182
81.9922
92.1695
188.758
266.945
283.459
244.112
140.972
44.5079
-37.2473
-112.291
-113.932
-114.159
-84.2278
-47.9107
-38.0202
-25.8226
-29.9545
-56.0236
-55.5445
-15.8545
11.5613
-15.1701
-1.95185
62.2496
-0.956967
-95.2899
-144.9
-97.5835
13.7365
19.4094
-42.4052
-38.6874
81.4834
141.254
115.123
74.9378
45.2098
18.1288
0.762025
-31.2302
-49.6097
-64.8307
-4.75467
-50.9971
-68.44
-54.4621
-46.108
-25.2857
-13.5255
3.07898
50.4815
70.1661
23.9345
-16.0806
-44.3589
23.8671
49.8579
17.9615
-65.2588
-120.485
-106.794
-22.5816
-10.6121
21.3625
57.3394
56.7277
56.004
17.4244
-21.0527
-4.47524
40.5457
85.9489
88.144
83.6166
93.798
38.0465
-24.1972
-49.1904
-23.0204
-10.8631
3.43925
5.09433
-10.0643
-55.8555
-95.8925
-43.1238
29.2675
46.2519
57.5256
92.3257
103.009
64.1363
-5.99183
-60.0213
-28.6549
-26.4573
-75.6218
-119.501
-99.0943
-81.3029
-90.9998
-67.7907
67.9063
133.164
99.0412
102.93
102.413
125.764
99.45
9.64157
-33.9102
-142.683
-209.559
-182.383
-174.487
-131.123
-49.3572
31.3693
76.0656
56.0029
108.883
172.752
-33.175
-145.837
-94.9575
-101.511
-87.7022
-61.829
-34.4134
6.84396
55.8803
148.55
138.691
78.3137
129.704
122.412
127.818
116.624
27.965
-16.4173
-26.8868
-35.2561
2.51559
48.0438
96.0996
155.646
158.722
42.3339
-108.67
-218.862
-265.75
-217.469
-141.517
-90.8057
-66.6473
44.2258
94.5859
60.8157
33.9539
38.4546
16.7426
-32.5934
-37.3411
-39.5084
-67.1767
-97.1712
-58.9488
27.8404
87.5869
96.4575
84.9441
73.8659
73.0151
48.2398
2.96885
-33.5662
-60.9228
-48.1353
-26.1717
-22.9132
14.4281
11.638
-5.4994
-3.26557
85.2248
108.149
29.5615
56.9641
134.636
50.2436
-59.8132
-55.706
-61.3159
-97.2188
-172.394
-162.34
25.1
118.661
119.173
171.736
114.539
28.3606
-56.6418
-171.987
-201.909
-124.194
-44.8518
-40.0364
-110.01
-65.1673
-3.11804
29.9873
71.0898
103.116
86.4141
1.85319
-101.198
-103.782
-67.6433
-82.2675
-41.45
0.941447
78.7939
191.358
165.222
74.2043
50.5712
38.7118
41.72
61.4716
26.1532
2.68613
49.7257
126.356
129.334
92.4185
4.9398
-60.4357
-61.9181
-73.6277
-90.2756
-85.8188
-71.1778
-31.501
6.93977
60.6916
55.2923
-2.83776
-60.7395
-55.7621
15.5178
37.9893
-14.7465
-94.676
-125.81
-106.039
-132.746
-114.105
-46.6133
34.1932
72.9766
83.3729
46.7688
-46.7826
-81.2001
-87.083
-75.0834
-0.434421
153.123
192.647
118.109
14.7772
-29.3917
-5.75726
42.059
112.449
150.876
83.5117
1.4064
-56.9146
-92.1267
-79.7137
-34.9967
4.95955
-35.9337
-64.1321
-29.3356
-53.2666
-137.107
-31.4979
119.697
134.143
96.4274
59.8867
52.0378
43.7053
94.6717
122.183
60.9223
-20.439
-68.5564
-96.1328
-125.718
-104.985
-77.471
-64.5956
-69.9553
-66.1371
-11.8019
-1.36765
-28.8774
-21.6219
-5.25107
13.8837
17.3557
-2.05607
18.5457
10.6157
11.1769
46.7738
46.8713
24.6787
42.7859
82.1932
53.4729
-77.9756
-141.537
-139.15
-111.312
-24.7392
37.1597
81.9394
139.799
227.836
255.135
147.529
22.4517
-25.9877
-35.0999
-64.7794
-48.0734
-38.1217
-50.348
-58.4031
-58.7883
-15.3607
17.751
52.218
85.6237
47.5695
-36.2738
-112.591
-121.23
-140.541
-150.777
-104.924
-40.8163
-20.3547
-14.3835
22.6928
42.2548
45.5183
14.7034
-22.0829
-19.3314
62.9694
118.428
92.9298
26.736
-58.4143
-50.6762
7.49744
13.1941
13.7934
13.4082
15.6516
1.5227
-9.46787
6.98384
-4.17388
-1.85861
29.7965
79.6364
157.399
170.801
76.1588
-27.283
-59.8436
-51.0379
15.9686
62.4618
57.3341
34.5611
-30.1081
-60.6999
-49.3379
-84.8973
-113.079
-97.9196
-99.8877
-90.3463
-100.749
-144.085
-196.273
-125.132
8.67263
130.356
187.436
164.04
133.957
146.071
165.591
69.0876
-53.5071
-27.0849
-27.0668
-72.2546
5.15941
13.9196
2.34315
-14.7907
5.48652
25.5891
-29.437
-79.4212
-86.3782
-63.5524
-47.9027
-59.5833
-70.9717
-73.3485
-55.6986
102.164
184.453
67.9038
61.7592
95.6056
108.273
129.572
118.162
33.1123
-37.35
-39.7549
2.52409
22.6005
-6.50004
-83.06
-125.574
-137.03
-182.409
-215.036
-204.253
-187.84
-128.477
-23.1883
80.5996
140.775
123.382
103.026
141.086
230.261
221.26
122.056
58.6261
23.2548
45.1715
73.0701
37.8728
-38.5043
-41.1473
-1.84199
12.0195
3.57487
-31.7726
-62.4467
-91.9316
-106.839
-167.538
-143.461
-109.024
-170.098
-145.714
-53.9242
-11.2522
69.9145
195.006
178.538
93.7342
100.367
81.8249
36.4271
45.0529
47.8544
31.4154
-16.7605
-58.5289
-42.4379
-7.37766
-8.45832
-27.019
15.9063
42.1531
13.5709
11.2705
-47.0436
-154.987
-167.948
-110.545
-0.758478
29.3946
31.4813
4.05531
-11.7682
41.7818
159.137
158.538
28.3997
-76.35
-145.523
-109.511
-51.273
44.7464
159.608
130.013
89.9535
43.8766
-4.54396
-3.38238
-56.6806
-56.8081
-41.5377
-37.0896
-68.399
-68.7238
-51.042
-34.2172
13.1999
68.2086
108.831
117.703
105.54
45.7569
-42.4222
-66.9842
-57.8005
-1.0447
42.1056
42.8473
41.7835
72.5607
72.0331
0.111929
-83.195
-154.466
-195.777
-171.36
-112.262
-71.1114
1.15012
54.6832
79.9038
77.706
75.6987
110.169
138.154
76.4965
62.8211
13.5943
-49.9062
-97.396
-79.117
10.9224
50.6724
50.6774
39.2183
-17.9362
-52.0895
-39.0773
-11.5885
-27.5981
-59.9615
-16.6623
9.0955
4.31705
-58.0637
-159.229
-174.768
-71.9529
19.1158
58.3726
90.6472
87.1803
81.6682
55.8742
3.20113
6.2364
25.8178
12.6254
15.1546
24.6786
25.8777
-22.7599
-70.2343
-41.4575
-10.6205
47.5877
78.4364
91.0027
106.205
96.0003
73.5395
36.2416
8.07097
-2.7387
-34.1616
-23.4202
35.0575
61.4916
-3.59893
-21.3238
29.3606
-56.9
-178.11
-229.64
-240.372
-129.906
17.0512
103.102
174.253
223.883
65.6638
-40.4003
-30.583
-61.6394
-95.5139
-82.7078
-68.3529
-43.4935
-52.769
-79.5484
-137.485
-100.954
42.1666
24.4115
-15.1029
5.70936
-15.8922
-17.3083
12.5095
3.63743
52.4075
98.934
116.949
157.478
202.053
196.036
189.417
157.506
112.539
65.3911
4.16944
14.5066
50.8289
49.8018
41.7647
-25.2405
-101.568
-144.775
-191.944
-240.922
-204.778
-123.423
-46.4456
21.406
46.0037
34.9049
8.53441
-54.2346
-160.537
-222.476
-192.705
-119.077
-84.8621
-1.21023
88.5148
93.9441
62.1941
66.3853
95.7291
145.242
120.102
52.6365
27.9384
29.9386
38.0487
27.4816
0.126856
31.1404
90.6904
120.674
135.382
72.4769
-16.8549
-73.3097
-57.3935
-60.9317
-89.9011
-150.459
-169.877
-72.7292
82.7006
182.465
46.4814
2.5348
96.0407
104.542
27.198
71.8399
123.871
55.4552
-25.9508
-62.8486
-35.7993
-7.11983
-53.7106
-77.9801
-43.8957
-43.212
-114.465
-202.215
-197.525
-143
-79.4797
-80.848
-112.119
-59.649
55.1393
45.8427
-32.3175
-6.18587
35.2298
80.3298
121.584
114.676
109.859
161.639
202.652
213.581
224.868
211.638
94.393
-64.6201
-76.4388
-40.7416
-49.208
-65.3283
-96.7933
-126.236
-97.8644
-42.847
-59.1001
-82.271
-111.275
-117.796
-75.3113
-65.8446
-65.2232
-56.7471
-46.9538
-10.1264
85.1782
158.283
156.232
117.833
104.098
136.978
131.487
83.2209
15.9491
-58.4994
-85.4922
-97.5152
-87.6258
-89.3399
-97.237
-75.3722
-10.8116
12.0892
6.54963
-65.7295
-130.734
-140.691
-72.0241
5.51212
27.1862
-7.54484
-3.78051
41.2558
132.941
169.918
147.367
128.783
85.2573
21.4511
-39.81
-52.8044
-93.6569
-50.9752
99.7059
262.108
253.275
77.2647
-56.2572
-85.2392
-89.8078
-120.695
-137.072
-126.345
-122.661
-113.984
-70.5862
-17.6076
-4.6127
46.3718
79.1557
49.8481
21.5052
-18.4137
-95.1403
-151.476
-125.623
-3.82493
80.5841
127.824
205.234
212.201
139.081
46.2279
-2.20583
-10.8453
-39.0866
-107.846
-120.982
-122.297
-95.1072
-36.8034
25.8306
58.6828
38.2032
16.7063
51.2683
117.264
154.907
19.7454
-152.855
-199.6
-166.176
-85.8087
-11.9151
36.1097
84.9561
73.5813
46.0071
42.5493
44.4518
68.2165
66.0919
32.3893
2.28847
-23.6362
-91.5587
-165.311
-181.414
-114.909
-28.3144
9.52756
97.567
179.424
173.154
99.9276
27.5686
-0.731897
24.8712
72.1924
83.7326
16.0017
-61.3754
-94.2717
-95.6836
-101.492
-60.9492
37.7291
90.1863
88.9896
-12.314
-100.4
-144.795
-175.691
-119.045
-19.623
93.369
142.391
125.938
117.396
71.2774
9.78143
-44.3352
-67.7848
20.1081
31.0894
-36.2436
-84.2743
-101.854
-75.1382
-28.8943
65.3116
177.7
165.542
54.3465
-18.3576
-37.9567
-55.0448
-37.2079
22.5476
44.9476
22.6359
-28.3295
-82.7805
-153.451
-159.014
-101.55
-66.7936
-33.8982
83.5188
154.666
115.175
87.7691
142.108
136.078
60.4688
-6.72746
-51.9529
-112.889
-129.854
-98.3413
-61.0505
16.6129
53.3175
39.639
68.8707
82.6196
50.1821
-7.37139
-119.651
-159.96
-131.349
-132.567
-122.916
19.4751
170.342
106.442
55.5471
76.6203
66.2315
39.9801
21.6795
40.6734
102.519
111.356
71.8733
1.95112
-35.895
-0.151266
83.7005
70.8966
-29.1871
-105.234
-147.662
-205.661
-241.864
-162.996
-50.2446
28.7384
48.3906
14.0658
2.38607
5.08471
3.48894
-3.93194
-10.4133
26.9003
99.9926
135.346
97.4882
106.408
69.9706
22.1667
91.9527
129.433
50.3703
11.48
-22.2599
-36.6925
-47.1591
-77.8927
-106.736
-122.851
-98.4201
-86.1743
-106.608
-86.1963
-63.5516
-26.301
-20.4379
-8.51569
59.2205
79.6013
30.8229
27.9775
62.3575
66.7465
60.2448
19.5605
-23.4516
24.7123
60.9943
54.7559
10.3519
-20.858
-10.9817
14.2468
30.7984
8.39211
7.02886
-8.11834
1.9573
85.1901
122.887
81.7984
-10.0527
-59.8961
-75.1362
-84.7753
-92.8507
-105.294
-100.321
-80.8295
-75.8827
-67.1693
-29.7051
-41.1525
-75.721
-63.0385
-11.5351
67.8728
118.98
113.053
61.5031
11.9211
42.7521
93.9445
77.262
25.6745
-23.2051
-13.111
28.3902
45.5194
44.9589
126.082
238.965
158.019
50.2705
-33.4145
-86.1564
-139.16
-129.47
-102.396
-153.002
-165.342
-106.086
-52.6428
20.9556
39.5618
20.1288
13.2238
15.0445
21.6675
23.5857
-23.6035
-105.145
-112.044
-93.8531
-73.8102
-1.51367
71.9301
79.9975
51.8167
85.1598
126.657
125.172
86.87
23.3368
-0.145534
-16.7371
-59.4189
-51.0224
7.57823
47.6814
-21.3026
-128.157
-42.6487
159.372
207.806
82.2483
-32.0353
-40.0832
-41.2032
-66.8297
-38.9974
-17.9236
-32.8126
-23.9851
-12.025
5.39609
24.4436
6.39583
5.4854
64.8811
96.3738
76.1613
5.66698
-67.9894
-43.2756
24.2833
30.8061
-28.6702
-107.891
-91.7183
-85.071
-135.968
-150.65
-100.616
-48.8429
17.7502
50.1091
71.3336
16.5356
-67.3542
-87.7869
-66.9276
-26.3487
-12.1419
2.08235
-12.714
37.9036
124.106
150.413
147.352
138.682
182.168
228.442
191.732
78.3113
-10.5524
-48.3031
-59.3703
-67.3172
-31.64
64.2275
82.2597
73.2124
22.836
-67.1987
-107.667
-93.3628
-76.5909
-59.7842
-114.017
-167.357
-184.511
-197.883
-184.99
-112.93
-8.10772
59.2414
67.0452
38.5823
-11.3917
-13.343
27.0389
50.7321
39.7021
85.3976
154.111
132.375
69.6308
38.5643
48.2307
59.5277
110.646
113.85
74.057
36.6979
10.088
-17.05
-51.1619
-81.9354
-87.7489
-85.8944
-73.6512
-80.9268
-110.778
-151.256
-144.36
-88.7219
-54.6231
40.3951
156.018
115.423
-7.76221
-4.08456
102.759
109.21
53.3032
55.2939
86.2426
129.633
117.768
-24.3367
-94.0443
-92.6532
-122.606
-133.117
-102.875
-67.783
-71.0422
-89.9376
-77.1354
15.5764
75.7713
57.9114
19.172
40.0356
51.7932
45.8825
91.1793
156.427
169.983
145.156
57.4468
-11.7945
-49.8475
-41.7535
-32.7588
-36.7813
-27.1274
-53.0521
-75.4954
-53.7733
-34.7397
-57.7008
-31.7068
-50.4569
-87.6243
-93.9727
-113.637
-134.118
-109.257
-17.0403
105.691
191.472
254.073
225.163
131.257
51.0907
-30.1119
-107.6
-132.087
-166.063
-142.449
-119.893
-104.825
48.2167
105.405
203.879
199.686
103.804
69.5813
46.8966
17.2941
-23.5141
-65.102
-70.7467
-63.0825
-13.1744
32.3372
18.6436
-45.2648
-47.6911
20.6557
34.4376
11.4717
2.02792
6.95789
-76.934
-37.0245
64.2309
8.36101
-94.8548
-150.504
-149.303
-125.316
-69.3189
-15.1259
-1.85227
84.8644
158.282
147.785
141.431
119.209
103.99
64.9119
29.7149
17.6835
-51.9405
-128.32
-156.925
-129.474
-93.9221
-48.6594
-46.583
0.617078
54.6601
81.8322
83.9873
84.2832
85.1441
64.4255
71.703
66.2886
39.8496
-49.9923
-140.193
-99.039
-5.76741
-18.3424
-34.355
5.75611
47.9971
67.35
112.061
126.535
86.9127
51.1699
-13.9084
-128.054
-184.45
-120.831
-72.7057
-74.9594
-52.8944
20.3131
46.9005
-3.65539
-50.0811
-38.9551
-66.5345
-97.8884
-83.9154
-66.662
-34.4289
-12.4203
11.6424
17.0633
38.5345
128.949
182.906
149.98
83.0806
63.3059
68.3212
22.0343
-9.18553
-2.26964
-36.544
-46.8609
-14.9341
40.7334
37.3113
30.3068
61.007
111.78
140.576
87.842
58.9886
68.1719
-38.4697
-147.082
-206.926
-220.196
-163.339
-80.9706
-25.4057
13.8789
24.2134
-32.9041
-29.8422
7.6426
46.0468
28.4152
-17.4647
-79.8962
-122.569
-113.176
-78.3961
-90.8482
-55.3625
1.64605
37.1295
43.9139
49.1736
36.7685
39.5931
90.7757
118.275
134.103
126.398
109.956
118.901
134.2
106.668
21.9306
-65.7355
-82.5813
-80.9417
-88.6428
-49.2564
26.6223
74.3334
49.7541
5.78213
-15.9057
-2.68353
-0.697082
-10.5988
-14.039
-39.9798
-40.7729
11.2757
46.7772
-9.90553
-58.3914
-36.0494
-26.6079
-58.1161
-72.1084
-37.1547
-10.7628
-9.65423
-27.8483
-44.4692
-46.3749
-78.7378
-121.239
-89.122
-25.5485
35.0116
44.0265
-19.4539
-72.0394
-42.9409
28.7987
91.8764
162.735
160.611
136.664
122.364
106.256
82.5188
19.3326
-64.7784
-97.5281
-73.7352
-96.4976
-122.726
-89.7816
-8.07215
52.9907
101.856
120.818
129.956
116.997
21.3501
-86.0684
-107.458
-65.3709
27.3726
97.8858
50.3094
48.9808
54.2755
49.9171
37.9168
-25.5293
-60.5496
-32.6174
-42.0862
-65.1661
-97.9915
-128.893
-128.69
-77.4084
-29.8123
2.00603
-10.4561
-51.4202
-126.971
-146.075
-66.9778
28.4929
110.18
98.6295
96.2376
119.963
135.118
100.189
21.1335
-22.0518
-50.6623
-43.6465
-22.7386
-8.3353
-3.9148
-5.47565
33.2861
50.5532
50.4358
24.5078
-9.79569
-5.79398
69.1958
163.236
158.104
92.3114
8.04286
-72.9583
-136.571
-118.448
-17.7504
-8.03908
-69.4007
-99.4937
-49.837
14.207
24.8557
28.406
36.5
-17.7354
-78.1338
-93.3363
-127.312
-127.267
-80.5348
-21.9432
16.7913
34.2824
96.8984
94.4604
14.0336
-26.6442
29.8453
117.985
152.22
143.122
143.707
78.4043
-22.5645
-75.6349
-55.5172
-43.1804
-38.2544
-45.7518
-63.2387
-67.8867
-56.6618
-49.0044
-46.2329
-61.9574
-88.3897
-59.8341
22.1486
163.071
147.066
22.4115
-42.7722
-12.4376
37.2701
88.2828
113.346
42.6645
25.688
21.5191
9.4737
33.478
10.1136
4.52557
-17.7144
-79.9166
-55.0035
-10.1441
-86.3131
-206.63
-183.855
-94.2565
-13.076
10.3326
-2.79913
-5.7074
29.6741
90.7455
57.6254
28.0799
5.17314
-29.6927
0.277745
13.7503
-20.445
15.7035
88.2847
142.41
141.386
69.1147
12.9466
10.0338
-35.7623
-46.6285
-29.9943
-46.5208
-43.7556
-14.9323
22.9936
17.0475
-6.46074
11.2661
44.5846
40.8717
41.7022
50.7629
36.4231
18.3634
1.06929
10.4499
-23.7033
-96.1226
-111.309
-103.792
-67.8133
-22.8015
-22.5814
-29.9473
-6.51487
36.0455
62.2845
54.2965
28.4803
-1.29546
-4.09914
-9.17172
-43.9461
-91.0378
-60.1507
-82.3673
-71.6245
56.6066
146.917
152.956
76.018
-1.31583
-31.601
-61.0571
-85.1502
-92.8
-91.4255
-0.00402495
85.3539
61.9919
23.6675
-7.57573
42.2968
52.9907
8.00147
24.2529
27.0414
-8.8814
-12.7175
15.7806
85.9046
122.255
80.5036
38.3745
-5.10495
-41.185
-52.7887
-116.474
-152.036
-80.5789
3.57014
76.13
65.5774
-27.12
-100.697
-80.9791
-2.14233
18.9346
-19.4305
-41.6394
-12.0633
31.5681
54.7267
69.7867
162.032
155.672
59.0358
49.7586
30.0543
-18.6893
-24.2225
-57.8258
-106.123
-71.5348
-53.7135
-78.872
-100.283
-94.1893
-63.6478
-38.5522
-52.4904
-90.0991
-87.0641
1.7756
-6.08851
-28.4616
26.401
74.6992
139.795
180.097
120.122
55.9257
61.1601
91.4172
125.033
92.3578
56.6907
30.403
-20.3016
-42.5358
-44.3278
-17.6062
12.4207
-4.12667
-14.9569
-67.9443
-80.044
-60.4483
-79.4225
-105.208
-110.251
-95.3671
-51.8154
27.3572
53.3136
40.2427
38.5038
29.49
13.5722
-11.7072
20.5392
60.3431
55.662
54.6446
29.5205
5.94207
-45.4399
-128.09
-137.973
-92.7108
-49.4453
-40.6773
-67.1124
-69.6048
-1.25901
90.6753
132.496
90.1681
94.3541
87.8298
38.8946
-3.5892
5.06698
12.1403
41.3152
112.403
133.3
103.569
80.9637
41.5827
-2.22143
-12.2408
-7.54741
-2.63585
7.46676
-76.3425
-133.045
-155.087
-188.335
-161.059
-131.46
-101.86
-56.8258
-59.9914
-20.8424
65.6789
102.938
128.938
111.485
111.132
136.841
111.04
27.1132
-48.9176
-91.7486
-62.599
-90.5531
-96.8928
-45.168
14.6456
70.3191
77.5982
54.0599
-0.350971
-57.9845
-61.393
-57.3111
-41.4191
-11.6882
41.9191
72.7188
58.146
39.9979
57.8645
58.118
12.6685
-13.1525
-19.3246
-11.1075
-19.0873
-26.6207
3.52534
20.8806
16.9889
-23.0135
-55.8086
-20.093
23.2178
23.7606
26.5922
51.7275
83.9118
66.5415
21.4792
-59.1004
-110.576
-115.792
-34.3438
27.2483
-6.87029
-11.1194
-17.9907
-76.6189
-50.2782
10.2071
89.5644
125.978
59.4559
-34.3824
-105.15
-116.89
-101.474
-99.8512
-69.8066
4.15928
79.2229
113.938
86.212
80.9406
89.5591
42.5339
-19.3144
-15.9717
6.19517
-4.63809
-60.3825
-58.7491
3.53042
48.4005
42.5783
-21.4205
-65.2148
-26.9238
-13.6466
0.283381
36.6975
114.914
176.723
112.022
29.7929
-1.39559
-7.44847
16.4923
27.4839
-28.456
-85.4593
-108.093
-84.5103
-73.5438
-98.0912
-126.003
-97.8299
1.87621
90.7644
118.851
104.58
27.8917
-43.3119
-26.8801
-2.73235
-27.1943
-26.7561
-39.7238
-32.6847
14.4804
8.61475
-3.62146
-39.6135
-55.2601
-10.1
32.916
35.7465
-12.9891
-53.546
-60.1876
-52.112
-36.5316
-21.2631
25.9438
92.3245
170.851
166.42
131.081
118.779
75.0362
44.2063
-15.7867
-50.6652
-15.8117
47.6719
111.694
182.227
120.999
-19.0016
-147.436
-221.769
-205
-149.293
-132.178
-110.659
-120.948
-97.6601
-37.8682
-15.815
-25.6361
-7.44367
51.4237
104.918
96.9608
75.7319
75.9049
27.772
-11.2746
25.2612
63.9343
49.6637
55.3007
24.3724
-21.0474
-47.8412
-75.7059
-74.1768
-66.4214
-77.2488
-42.7105
20.3364
74.6914
109.545
135.735
53.8569
-41.3832
-60.0265
-28.476
0.445314
8.64808
-13.8436
-43.7893
-21.7389
-1.3364
-0.394348
30.0235
72.2196
83.9133
90.1563
101.334
29.2425
-47.6277
-100.575
-122.15
-96.0942
-60.4534
-21.8236
-5.47063
-8.15099
12.6981
57.6321
87.5677
78.7847
27.7678
3.78191
35.0763
55.0727
33.029
-10.3481
-66.1019
-76.4225
-76.5783
-36.7979
-26.5816
-67.5277
-102.67
-128.378
-86.2528
-26.859
8.07694
-1.40424
-24.0628
-27.4531
-5.019
49.0606
110.091
140.254
84.2017
48.8596
65.17
103.765
109.853
48.0942
22.9344
56.8686
44.1239
23.3926
36.578
17.8962
-16.3614
-34.509
-52.2266
-40.6543
-42.0813
-36.4785
-70.5483
-131.75
-131.936
-139.429
-127.297
-79.6822
-32.6639
5.75997
41.9404
76.6839
151.1
180.022
117.476
35.3774
-38.5677
-43.4061
-24.4914
-22.6359
-29.6543
-89.227
-134.361
-133.991
-57.1937
45.1025
82.7002
105.405
122.602
117.02
72.056
-13.1851
-96.8939
-129.406
-139.326
-93.1162
-13.1181
55.2916
111.452
142.144
165.968
175.869
158.868
131.722
97.3755
42.9363
6.3599
7.95923
-8.11469
-69.6404
-126.432
-150.584
-138.38
-115.786
-76.3813
-68.6278
-86.8865
-91.2794
-109.08
-114.133
-66.0559
1.20963
11.114
43.56
96.9954
73.1196
38.8496
-5.23079
-84.6758
-114.019
-59.6469
-11.7738
-3.47147
-5.33086
2.90255
29.1192
79.6609
127.39
136.025
155.551
148.948
71.1631
49.0565
86.9694
90.5955
66.1483
28.6645
0.668734
-21.1939
-17.3472
-17.2253
-27.133
-17.095
-6.0395
2.2484
-24.0247
-96.2669
-113.276
-57.5105
-41.457
-85.3498
-72.7967
-73.5638
-153.585
-191.872
-138.671
-81.2317
-57.0735
-41.8667
-32.7899
18.9
94.3986
127.636
97.3949
85.979
119.281
177.906
178.227
140.788
92.4769
54.6466
54.9662
40.0256
-0.198944
-12.5377
31.8229
0.395095
-25.9587
-11.4734
-16.65
-55.1771
-80.6823
-44.935
-39.111
-99.1784
-152.156
-164.089
-114.79
-90.4863
-58.1797
-11.3061
-23.4669
-22.2854
12.6598
18.2963
-33.2986
-18.7428
2.72265
63.6792
136.286
146.773
164.044
220.241
260.268
195.772
92.4557
-16.6068
-108.999
-153.764
-148.395
-129.46
-106.735
-88.7165
-62.0807
-25.2052
-6.49037
0.651214
-6.05543
-7.60243
7.5378
18.1143
-4.50641
-88.5085
-136.247
-71.5102
26.428
105.169
133.642
110.379
52.4977
7.47284
7.25011
14.7563
-12.3828
-29.7813
8.77348
64.0825
106.059
97.9909
11.2783
-40.9769
-79.0794
-111.392
-124.763
-130.226
-118.369
-66.9085
-16.9202
60.2681
119.365
121.051
125.939
101.444
90.6945
43.2198
-35.182
-71.9626
-99.4764
-98.7804
-37.7934
8.34907
-11.4209
-73.7017
-65.027
-12.3157
5.37824
32.9831
27.7431
9.82256
9.90725
21.1643
41.4974
67.1167
56.5724
43.3661
42.6987
14.0963
-17.623
-42.0103
-62.9689
-98.6139
-99.35
-40.0276
49.405
73.7502
79.6134
78.7021
88.9872
86.4938
79.6963
36.1584
-136.489
-219.197
-184.506
-109.884
-63.8239
-19.4332
36.8887
94.2107
117.765
114.857
142.573
117.531
50.529
9.02521
-53.9494
-125.345
-191.222
-186.536
-134.405
-79.6679
8.48373
50.6509
78.9606
108.073
138.431
123.418
74.9139
44.9004
71.0838
115.167
84.0034
26.627
-59.7594
-135.301
-150.645
-115.723
-84.6103
-79.3814
-74.7224
-16.2016
45.3182
80.176
55.3189
-5.6786
-37.0157
-20.9857
24.962
8.60671
-61.258
-117.667
-131.062
-89.2087
21.2319
111.704
127.837
118.747
126.077
107.831
112.816
94.4164
65.5958
22.7679
-28.723
-23.98
-19.6921
-6.27593
-3.33657
-39.6045
-84.8995
-126.312
-110.22
-78.8965
-42.0655
-30.471
-35.2986
-31.6207
-8.28466
-12.3234
-40.6199
-26.4757
78.2433
134.133
129.314
57.2532
4.8991
-33.5418
-46.9887
-38.4975
-23.7804
-29.2942
-13.3701
5.37528
-15.1501
6.5904
53.4728
72.9334
64.1657
32.5372
-38.7259
-80.1728
-72.3888
-38.2364
-25.8595
1.72163
5.11672
4.49276
14.3511
28.0912
45.0279
73.3153
55.3822
29.3838
5.09746
-14.1562
-14.9077
-8.9383
12.5712
49.426
56.9527
26.7632
-16.3684
-15.6205
55.0586
54.5733
-14.3082
-54.2798
-86.9203
-84.328
-70.9383
-56.423
-35.1317
-24.2752
-26.5539
-41.2588
-40.8723
-43.909
-60.7854
-50.0536
-35.6947
-22.561
-8.17127
37.5046
25.2109
50.2549
96.7874
96.9887
107.329
129.52
129.423
121.546
102.147
86.6832
39.5548
-14.8959
-68.5506
-113.156
-163.78
-183.068
-151.152
-20.691
33.4644
-18.2557
-47.2215
-36.7155
1.4238
50.7328
52.6198
4.50999
-44.4263
-80.5706
-72.4875
-19.2142
62.7419
82.379
77.5313
98.5956
135.631
106.377
47.7574
-23.1458
-73.2168
-24.1931
-9.34462
-77.7909
-92.3459
-83.2545
-62.383
-27.08
6.10959
74.1832
99.4291
66.8522
29.9269
42.744
74.3705
30.1036
-36.1627
-53.1627
-49.0469
-31.6655
-44.7388
-96.5341
-80.2911
-31.3374
-3.37452
-17.9712
-18.109
24.2889
48.981
4.536
-39.8055
-57.9785
-32.4829
24.9775
72.2946
95.5416
104.69
114.48
136.163
106.041
31.68
-27.9252
-71.4992
-84.149
-114.897
-128.008
-97.3749
-90.9849
-31.79
35.499
80.873
90.2428
41.7083
-33.6542
-76.9366
-71.792
-46.3144
-19.0348
-39.315
-44.598
14.038
80.5877
141.99
172.176
158.695
153.971
98.4471
22.9783
-50.0587
-54.7461
-73.8811
-147.6
-194.86
-168.616
-109.238
-52.6251
-2.50844
59.8712
104.088
76.37
37.8732
-17.8632
-45.4535
1.71791
43.4841
30.551
-0.240101
-13.1941
6.26567
-41.2588
-54.9036
-10.3356
21.374
62.009
66.4011
25.4817
8.20344
-24.9466
-47.583
-14.0476
24.7111
39.8371
49.3823
-21.6883
-53.623
-8.89495
44.9466
53.7453
52.7498
26.041
23.5933
29.8056
33.6683
3.46829
3.71409
15.8366
-62.3244
-127.564
-99.995
-69.5725
-62.2854
-30.3357
8.97342
31.1063
36.9523
49.2872
25.6208
-3.57083
-41.8925
-55.7499
-15.2174
19.9772
23.1839
21.0891
-1.65113
-1.53698
36.6953
39.6831
-6.57527
-10.8049
-3.81584
-20.7534
-27.8608
-38.3015
-49.0941
-61.3753
-69.1393
-31.0341
35.6622
98.3217
94.1392
85.8958
100.967
101.241
57.3279
-5.60899
24.7113
61.8103
4.92682
-54.0188
-66.2717
-57.6999
-32.199
8.00696
27.5408
24.3923
30.4922
15.0335
-11.6392
-29.4759
-73.6758
-88.9067
-94.6709
-97.1044
-53.915
-0.53295
-8.11118
-20.5218
26.9455
77.7082
119.556
123.312
47.3963
-26.6119
-39.8558
-10.7489
2.28805
-19.134
-40.0081
-50.7478
-56.9222
-34.7034
-10.1667
-22.2131
-57.5792
-40.3607
-35.2602
-49.5033
-38.3787
-32.5373
4.23493
17.9155
26.9382
53.5827
101.531
127.384
118.065
108.721
90.1128
59.2157
46.8155
33.9406
6.43137
9.02964
50.7985
34.5509
11.1592
9.39543
11.9466
-11.7924
-86.8645
-115.891
-106.042
-76.0042
-74.7782
-139.637
-155.96
-74.7872
-17.9964
5.39178
48.4334
52.638
54.9146
55.431
20.1094
7.14138
-5.62008
-12.4266
1.65581
16.5728
7.37469
0.670147
22.2261
39.8916
61.7217
70.5734
37.7967
5.1311
-45.9008
-64.8098
-33.7152
8.55518
-10.5837
-41.5528
-35.6391
-26.4269
19.7604
49.9978
37.1464
-14.4547
-37.8419
-13.6892
4.83684
-12.5476
-26.4553
-18.9194
13.2662
36.9559
67.9498
86.6424
44.6651
-14.2171
-46.2712
-26.2634
-2.04635
3.85888
-29.7652
-30.2056
12.9498
52.1063
49.7842
29.3515
41.1071
58.4324
32.888
-11.8331
-71.4383
-117.136
-123.69
-69.3208
-27.8287
19.8934
42.5415
22.3051
-8.99822
0.957999
76.1409
122.462
89.2916
57.5205
37.8708
-13.7532
-35.3287
-50.1211
-86.1448
-99.1696
-80.6359
-72.6391
-50.3271
-42.2655
-38.8526
-21.974
19.4585
50.9525
78.463
96.9711
97.7938
55.8121
10.3576
-22.4249
-33.9581
-58.1216
-96.8555
-88.1484
-23.125
34.7727
64.5077
25.0439
-25.457
-12.8934
19.0249
27.4709
25.3279
57.7476
95.9963
76.1553
14.9613
-12.1521
-26.2765
-45.4191
-14.9843
9.04774
10.021
15.015
0.137325
-25.4757
-27.92
4.14126
37.4527
30.7445
20.3153
-9.34827
-49.9787
-67.2858
-91.9691
-91.5248
-70.3366
-35.2091
0.848825
21.4977
5.25008
-0.157123
37.2257
45.065
-1.77979
6.19524
82.8465
117.33
80.6273
37.3329
9.96383
14.3304
15.6447
-5.00185
-30.8969
-72.3919
-87.6936
-88.8228
-90.3295
-87.9327
-53.6973
-1.47277
23.7066
39.8853
66.0288
66.5631
69.1649
114.091
144.245
77.3527
-54.7413
-115.475
-79.952
-56.265
-41.5191
20.5407
77.3629
79.117
31.9736
23.4578
31.9097
49.8966
19.4678
-40.7995
-54.9544
-41.3227
-81.6768
-109.972
-112.91
-83.9705
-47.124
-24.7937
-5.84158
-3.98876
11.8786
31.2668
3.5598
4.35172
87.0396
118.074
127.386
94.5187
51.1637
30.8107
-1.8738
-35.9207
-49.7868
-50.6781
-48.2613
-32.0391
-2.53884
0.465055
16.6142
29.7104
0.486791
-42.0548
-49.6604
-22.5315
-66.0137
-120.517
-122.318
-70.6041
-19.1792
35.7559
96.8782
171.569
207.705
185.686
145.989
61.4146
-55.7423
-121.663
-158.29
-141.735
-87.265
-75.548
-27.8737
16.5776
35.6546
71.54
92.9893
85.6086
74.2903
70.1821
42.6973
-19.5093
-85.3844
-110.611
-90.8593
-37.6312
32.3619
79.4336
87.996
34.4986
-23.0368
-43.6352
-56.0358
-60.995
-30.0414
-29.9543
-38.7451
-11.744
-1.65441
-3.39464
-28.3109
-3.9377
26.5219
39.3798
63.1074
45.5733
25.7954
1.47154
-19.4767
-30.1834
-27.4433
6.33446
34.1076
56.6534
45.2362
32.7189
1.14354
-31.4297
-67.328
-106.749
-95.3749
-67.2108
-7.7913
31.3216
-5.25196
-17.9013
29.7162
22.9449
30.9346
61.9814
83.9595
44.0169
-2.31383
-11.5843
-6.923
-16.0686
-38.5747
-51.8784
-41.408
0.152325
59.0498
59.2562
37.8987
13.8658
20.4771
50.1532
46.3429
41.2505
21.3209
45.5159
69.2747
28.4571
-33.6363
-112.434
-135.426
-102.512
-50.0156
18.2832
56.7046
47.8289
14.1153
4.98603
20.0204
-21.0585
-95.981
-110.425
-82.7786
-41.996
22.5282
29.342
-5.26231
13.2519
47.1907
68.5556
72.3553
90.578
78.1259
34.7184
-35.0968
-86.0645
-98.5991
-79.9003
-69.4806
-63.7768
-36.4557
-8.26554
14.8762
48.7483
47.3991
37.9497
54.5247
76.4092
63.1479
33.3553
7.21364
-29.6165
-62.0324
-81.6003
-60.4738
-8.94276
-24.3049
-56.7818
-82.4576
-50.5022
13.5576
66.5195
115.78
123.617
97.6077
67.1248
62.8054
40.5438
44.0651
41.2108
11.7853
7.89201
10.3879
41.9867
65.9
65.2311
103.678
105.728
72.2859
27.6252
12.5917
16.6773
-18.9799
-92.4128
-161.758
-210.202
-236.353
-214.251
-230.895
-252.514
-188.254
-109.121
-43.467
-60.3544
-80.369
-57.5576
-9.86423
14.5734
21.7347
63.9788
119.729
115.344
122.289
158.74
136.642
123.587
131.389
129.728
113.641
115.878
126.789
124.535
93.7139
70.1184
31.5494
1.16415
-13.267
-16.4587
-32.6446
-37.8348
-34.6616
-22.165
-51.7987
-106.74
-105.156
-86.6921
-119.704
-153.073
-118.935
-90.0167
-77.8446
-58.8761
-25.3178
17.8768
85.221
141.021
113.593
23.4924
-31.768
-61.6549
-79.5197
-89.9241
-84.8116
-58.969
-30.7987
-35.7328
-20.9286
45.8101
95.5825
114.167
125.695
125.299
130.007
102.572
16.3154
-37.6782
-15.8907
53.4363
109.545
90.2853
57.0806
58.4456
50.9827
26.7759
56.0257
77.3415
62.367
16.6263
-7.40993
-29.0557
-107.656
-151.14
-192.229
-190.414
-154.814
-150.13
-174.974
-163.405
-132.569
-72.4037
-14.3907
18.5915
57.5284
97.0485
100.546
86.6661
68.9898
96.882
100.488
68.2181
65.0213
-5.62043
-66.0315
-86.6695
-76.2915
-80.2617
-61.6884
-35.08
17.7719
65.2884
73.3274
63.1837
86.1337
135.623
122.718
95.8316
90.6739
51.2809
-70.2053
-161.537
-170.316
-154.044
-95.5139
-18.1756
76.0723
164.523
180.231
161.353
110.238
48.775
21.191
-12.7601
-67.7776
-122.468
-154.771
-164.949
-146.246
-140.93
-122.381
-58.2824
-3.9072
55.5574
81.0188
112.017
164.422
130.248
86.913
66.4178
51.1945
65.1923
56.246
33.5446
5.04371
-30.724
-34.0037
-23.6061
-70.927
-92.1273
-41.8185
16.353
-8.27316
-37.5873
-47.6009
-85.475
-124.18
-106.938
-46.9026
-43.2898
-28.0009
10.8221
24.6065
9.42377
-16.6083
-33.9871
-5.63773
30.437
67.7354
96.6281
88.1133
75.0524
76.4028
50.774
9.21513
-22.4518
-38.0135
1.68322
49.5164
39.7399
5.73717
-48.8627
-89.6867
-50.2971
41.2409
60.1924
29.1321
31.7676
31.0663
-12.929
-33.9604
-48.7609
-18.9517
28.18
23.2083
9.74429
-3.75631
-9.1086
-7.86463
7.49017
9.92801
13.2563
14.334
-31.2323
-78.6643
-66.6109
-48.637
-30.6967
-17.6855
-7.74018
-8.46922
-5.47646
8.93649
20.2867
34.5322
16.1616
0.0472907
-32.222
-45.9059
30.8458
104.044
111.526
89.3996
93.8867
61.0796
34.2454
5.27077
-70.0546
-107.434
-40.5771
-11.9962
-4.19375
23.4792
27.2291
-17.3587
-34.9836
-28.4821
-49.4518
-60.9441
-109.82
-137.136
-92.4836
-52.4262
-37.7203
-5.1685
66.894
129.398
143.195
78.6077
7.00266
1.36841
13.9376
-10.3818
-31.4686
19.7908
65.2601
65.9512
77.8552
49.2671
26.8619
26.7825
-3.67747
-46.0314
-15.0624
18.6621
-63.2713
-116.245
-82.8803
-26.1516
-21.7142
-22.7904
11.9245
63.3093
60.8352
8.28713
-30.2904
5.93139
25.1123
-1.14449
-9.50007
-36.3705
-41.7598
-19.1086
-34.535
-42.1809
1.94402
20.6782
8.17673
18.1144
42.278
57.7612
17.0764
-46.3085
-47.7661
-18.901
-14.7152
-53.1361
-68.7985
-20.2856
53.514
91.0425
102.238
61.7891
32.2943
51.6695
74.1345
36.1548
7.25477
-15.6009
-69.7173
-65.695
-26.8623
-46.3173
-54.0442
-13.0634
38.2648
90.4516
104.837
81.572
-4.4596
-70.6628
-115.793
-122.807
-96.5238
-98.7126
-54.369
28.4976
65.5611
109.344
138.488
90.4398
4.67269
-31.5399
-25.7816
-21.7051
-45.0176
-75.7931
-55.9444
-25.2102
36.3614
45.7558
18.6545
26.7662
2.90924
-37.4864
-77.8587
-78.2598
-26.0101
-6.16003
-15.4791
-18.0505
-0.964514
32.3862
41.7154
48.9629
50.8318
31.5561
0.886437
8.70706
-13.0157
1.82136
27.8722
44.0654
58.0598
77.3928
88.5875
63.461
16.7205
-0.955769
6.5474
-26.2224
-81.2585
-76.1445
-30.8295
-25.1329
-40.3448
-30.7162
-32.704
-39.6123
-6.61193
23.1754
56.085
66.4686
33.6679
7.29149
-30.4321
-81.3217
-84.9235
-57.7736
-57.8862
-33.1696
6.87504
52.1852
55.3638
8.70099
-1.28139
19.5646
65.205
51.32
4.78988
-40.1803
-61.3583
-41.9909
10.049
1.35883
-6.36287
32.0385
64.221
64.4204
61.5378
38.2744
13.9398
-26.9214
-47.521
-51.3964
-17.4304
-40.2987
-113.926
-125.134
-101.109
-72.9167
-11.8993
26.6693
50.3571
93.4965
112.856
71.9802
42.9117
43.6855
37.8667
9.80191
-6.05692
14.2046
20.3955
54.1831
94.7368
93.1081
93.5924
42.2481
-18.103
-44.038
-51.0491
-52.2085
-56.5565
-75.556
-68.3907
-20.9969
-34.6338
-56.8346
-48.6553
-23.6712
12.7263
41.2425
68.8671
44.5689
-6.67277
-8.9969
-31.671
-37.7219
-45.1361
-58.3687
-70.0812
-75.3452
-60.5898
-38.5243
-59.0089
-75.622
-10.1982
24.475
46.3812
97.4853
106.317
44.1831
0.585951
0.819233
-16.9471
-14.2443
19.3532
27.3543
56.9296
88.0694
111.134
128.127
151.97
140.769
46.8277
-39.783
-102.937
-124.685
-116.69
-78.8129
-28.6194
-14.8646
3.19944
55.5396
68.9079
45.0126
7.91602
-17.9001
-43.5734
-49.378
-20.1129
14.3555
27.0042
-2.14846
-23.1386
-60.1626
-88.8159
-98.0007
-101.83
-118.1
-50.7735
22.8281
12.7202
16.987
53.4622
86.7785
54.1215
-4.38336
3.72589
33.7059
29.6494
12.0047
-39.7002
-81.0087
-1.02235
100.104
98.8362
76.8773
90.8708
92.0243
24.9433
-39.5931
-75.3195
-85.8448
-110.942
-136.727
-75.2988
-25.0704
23.035
96.0199
154.163
120.014
49.2583
7.1069
0.386404
-11.8104
-9.76094
-9.81475
-52.0901
-38.6741
-5.11147
-0.269234
13.6475
-1.72365
-20.1645
0.60524
6.11025
23.019
41.2832
-11.3152
-99.5916
-134.273
-101.416
-37.0233
-2.63172
22.0053
54.8639
90.7801
80.9114
-1.04641
-60.4845
-39.4326
-16.344
3.5813
23.4543
-15.1941
-33.8325
-6.5817
-0.932521
-4.17895
-12.9753
5.52799
55.8118
89.4536
98.6211
95.0261
71.7404
39.409
14.0754
2.07677
11.7627
10.5037
9.09093
-31.7903
-55.5059
-24.4198
-1.24138
-15.1586
-41.5139
-31.869
-45.2643
-56.5785
-64.6001
-62.1011
-62.8681
-57.0557
-36.9025
18.0329
46.9066
82.4232
41.169
-47.2327
-81.0074
-84.4973
-72.4848
-44.4153
-18.2594
18.435
73.811
105.12
110.425
85.9071
30.2468
10.2397
42.1198
85.7879
75.0534
-6.16931
2.97921
-6.75721
-57.8742
-53.7639
-38.8867
-24.8533
14.8324
20.7893
16.7682
-3.61133
-46.6572
-78.8587
-37.5028
77.4546
142.914
90.9026
17.8064
-13.576
-51.1498
-65.7108
-70.9521
-61.8124
-23.6338
-13.2485
24.5894
67.4815
50.0469
20.826
-21.1718
-70.5554
-43.6933
21.9281
-0.364731
-30.0202
-0.458823
64.9957
23.9611
-39.915
-52.6524
-18.7142
-46.2836
-88.1678
-82.2795
-56.4081
-33.7481
-16.6289
14.034
36.3897
83.5526
155.171
128.044
35.9145
-30.2768
-90.2481
-116.198
-71.9261
43.1282
83.5697
50.8268
26.6169
76.3885
178.995
166.762
58.5749
-33.0715
-70.3299
-76.8336
-97.1049
-118.078
-116.904
-96.0371
-38.8842
45.7332
72.8105
38.1252
-2.28441
-14.5105
-2.96326
13.1337
8.3224
4.5523
-15.4236
24.5973
65.1235
66.1614
59.0319
45.5381
37.9645
35.1659
-3.09363
-34.1404
-43.6387
-30.6649
-24.6793
-18.7746
-32.8622
-67.3716
-82.6286
-59.8047
-55.8341
-47.0314
-66.1098
-74.9425
-52.7575
-24.5495
-8.35166
29.3594
43.9531
37.2485
104.045
164.295
175.164
124.956
47.6188
-19.7125
-1.02001
24.6508
-0.0658901
-57.7426
-60.766
-26.8536
-14.4634
-4.93379
10.1851
25.4266
18.2385
-31.4483
-68.6085
-61.1587
-86.8784
-126.637
-146.012
-108.45
-21.204
46.6978
50.8007
48.7431
58.8818
132.527
144.113
70.9381
22.9409
15.7625
33.5971
16.8443
-11.4742
-8.96289
29.4037
56.225
67.3556
60.0822
43.5723
-9.65786
-86.593
-157.642
-184.065
-136.881
-87.4389
-65.7536
-2.04428
80.0679
87.9362
37.9358
1.32225
1.30389
34.6829
32.4662
7.29012
32.0456
48.2407
3.45709
-33.4269
-61.6275
-41.7527
18.225
67.5363
59.5818
46.1548
43.3894
45.0198
-8.11457
-65.0034
-63.2271
-22.8764
-8.22332
-27.0732
-31.7379
-36.1927
-74.9866
-56.7985
1.99831
19.741
37.5486
91.6024
104.476
48.2969
2.33253
-4.60688
-11.2542
-79.2521
-108.889
-60.4067
-20.354
-15.9149
-26.2214
-6.96826
78.2863
137.104
107.458
55.8435
28.291
20.6518
37.0968
40.3633
-4.1776
-31.3333
-16.5379
-40.8649
-68.2778
-22.1205
27.7401
41.4909
47.0084
57.5842
37.5602
-16.774
-125.669
-168.471
-136.355
-114.864
-111.402
-55.4546
-16.4102
-12.7441
30.3419
63.5052
24.8703
11.9247
57.0242
78.088
105.836
67.8143
-3.88143
-28.063
-6.53671
42.5491
60.8884
35.9209
25.8555
35.0988
61.9923
81.2074
60.6622
-6.11251
-42.4487
-46.2673
-30.4415
4.8872
2.61544
-49.2015
-65.178
-10.9936
2.39667
-32.7372
-55.3319
-57.1464
-46.2062
-45.0387
-61.4675
-63.5083
-54.3854
-52.488
-13.274
85.3426
163.711
165.304
117.647
56.3643
14.6402
3.02433
-51.6193
-97.6857
-69.9455
-58.764
-54.755
-27.5478
21.005
63.4418
88.8425
110.348
73.889
36.3327
33.4215
-13.6181
-64.2926
-82.0079
-94.0859
-106.682
-70.6614
-51.2922
-51.9135
-23.6625
21.5205
38.3471
48.0945
46.5092
-7.69418
-53.3595
-37.6866
-34.7795
33.3135
63.6555
6.98953
-19.0738
-5.69309
12.0604
53.6606
69.0021
34.4002
-16.7889
-27.4404
-36.2544
-24.9574
48.2653
90.0271
88.7356
92.4006
68.118
25.278
23.8432
12.1473
-18.9963
-32.6053
-48.3012
-80.4966
-76.2445
-84.1981
-82.8196
-85.2479
-33.0085
37.1568
98.2608
120.954
117.261
104.163
69.9329
26.2756
10.4572
-44.9442
-113.297
-155.867
-141.552
-95.7254
-68.5825
-77.0101
-61.3269
-36.4498
6.52391
34.5051
21.2951
15.8165
35.4981
51.8226
36.076
29.2216
22.9178
31.1969
26.4904
69.6214
91.583
54.0843
2.58499
-18.3079
14.4263
24.3103
-21.8866
-39.5375
-13.1294
16.5186
24.2304
-9.51337
-36.0528
-54.2298
-71.7887
-55.3931
11.629
28.1062
-8.2254
-42.1832
-44.2322
-8.11922
61.085
96.1261
62.2359
58.3754
54.6705
62.2201
67.1943
53.1198
28.2631
10.4045
-2.81201
-27.024
-57.0559
-111.672
-152.349
-114.755
-49.3902
0.535856
37.0427
30.2021
-13.4492
15.9399
47.9001
35.8944
28.5103
-3.35576
-44.6301
-54.1392
-40.6562
-26.25
-45.3443
-45.1077
-37.2616
-28.4933
-57.6243
-67.8516
2.85656
36.703
15.271
42.5822
98.8729
72.3683
40.1486
74.5147
59.9393
6.75125
-11.6627
27.0074
92.043
84.8666
90.4994
58.547
1.30514
5.70194
4.06066
-21.3592
-52.9082
-75.7268
-84.3389
-93.8374
-124.687
-110.505
-49.9875
-6.03372
59.3457
119.757
118.238
37.8846
-18.4144
-21.597
-53.5707
-89.2303
-64.7865
-42.1083
-28.9633
-2.25534
19.6871
29.6822
93.7825
123.039
97.685
60.3913
9.57038
-66.0067
-118.573
-92.021
-38.2263
23.2786
23.8405
-10.6582
-31.9198
-15.7915
39.8851
39.7397
21.7272
46.6455
38.5965
-7.56257
-65.5373
-97.8099
-99.4917
-50.4325
-39.5215
-6.06621
63.3529
74.4439
61.0369
48.9129
54.4014
83.9086
123.564
159.829
145.167
63.4281
-39.8756
-106.959
-160.64
-129.964
-85.8281
-84.7391
-75.0403
-62.0845
-56.2287
-51.6829
-52.6649
-28.1312
-19.5846
-6.35862
-10.9839
-33.3982
-15.9236
18.4323
64.4294
134.578
142.841
74.0853
61.5209
54.8632
34.9644
17.7929
-26.8701
-37.0684
-35.6623
-26.3609
26.1513
99.7723
123.95
56.2285
-16.7995
-5.5746
6.99018
-14.913
-70.7221
-112.553
-75.575
-20.6217
-15.0454
-21.4291
-6.69825
48.0743
57.0163
28.6
10.2091
-15.2561
-68.3114
-137.553
-161.508
-98.5864
-29.046
-26.8344
-37.3397
-37.1524
-44.7883
-31.1795
1.19882
12.5468
51.8724
75.4406
71.2382
72.1964
100.677
96.9165
57.4231
77.0663
106.512
49.9881
13.6173
31.1305
59.3768
81.7343
77.4856
15.7419
-28.5538
-37.2766
-26.6553
9.96178
4.05956
-7.27216
-20.9445
-42.801
-39.3062
-55.8497
-55.1246
-93.3306
-146.298
-117.349
-95.1732
-101.771
-51.9234
28.8237
53.136
71.5054
44.3085
10.2709
-9.83893
-57.5778
-77.6582
-87.857
-65.4085
-12.0483
19.7467
22.2762
41.2091
73.9166
102.79
84.2492
68.277
50.5373
1.44099
-38.3968
-51.1658
-46.9965
3.00366
47.0381
68.5844
109.266
140.516
170.506
135.868
58.2744
11.7415
16.9806
30.5649
10.6751
-34.8089
-51.3264
-20.5741
-38.0548
-111.087
-166.94
-132.465
-80.769
-28.5204
8.67843
-6.6373
-52.6939
-49.8195
-59.8608
-104.277
-127.84
-138.894
-99.5479
9.53228
65.3852
103.309
146.776
144.545
115.121
86.5848
43.4749
2.03159
-18.559
-54.0023
-72.1427
-66.3582
-26.4223
-4.29267
8.83813
30.7237
46.328
65.4743
64.0972
48.6681
66.9042
59.3041
5.87343
-25.042
3.5293
38.7466
65.9184
75.5148
22.2017
-33.3112
-58.1826
-60.8349
-48.2378
-80.7399
-125.171
-92.1765
-27.7634
22.7179
18.1359
-27.8232
-55.7106
-53.7701
-27.4748
-14.8381
-2.84639
19.5656
19.7554
11.6693
37.8147
55.5477
59.6918
73.7066
67.5498
31.4876
41.9791
49.7522
48.1922
52.232
45.2748
18.6227
-40.2289
-109.333
-114.076
-96.0862
-69.9168
-28.8038
10.1028
12.3728
18.5884
-10.6329
-35.3721
-47.8881
-42.8588
-26.026
-19.2077
8.54829
37.9473
32.1303
16.1564
17.263
36.9747
58.6276
32.453
-4.54292
-20.2166
-25.3965
-28.7173
-13.9706
-14.8646
1.84156
1.54409
11.2485
35.9747
69.7325
106.018
89.4011
47.6156
22.2314
4.97073
-32.0972
-52.9654
-40.2169
1.65111
40.531
10.8467
-22.8469
-34.1821
-65.6681
-95.8943
-94.0736
-35.996
30.8794
56.7243
45.0134
4.59591
-6.72529
28.1853
33.4604
-2.04699
-15.9774
0.103837
8.16174
-8.52154
-25.0957
-12.642
-2.80286
-7.57552
-10.3122
9.75788
26.498
6.25588
-38.2232
-61.454
-50.6075
-41.7909
-49.9741
-62.725
-63.9876
-48.6424
-16.8679
15.2556
48.9879
83.9618
82.8185
80.0641
64.4781
57.2321
50.6956
43.8418
40.9262
29.0222
14.8546
9.66796
8.98234
2.99595
-11.1751
-25.0253
-12.3968
-1.718
-1.26901
-5.31073
-2.36306
-0.757115
-12.4964
-25.8595
-21.4001
-12.6257
-22.7361
-31.6123
-35.6424
-37.5725
-30.3499
-47.4296
-47.3592
-21.5548
-9.36799
-24.789
-19.7493
5.41964
15.5686
42.0208
58.6692
29.0141
33.9117
42.5208
38.8768
22.1118
7.28666
23.9947
42.4566
27.8771
5.79797
-6.13482
4.90402
15.7068
3.39806
-17.1309
-31.1965
-57.0491
-67.5027
-78.7685
-60.6524
-3.18734
45.0913
95.2966
102.848
34.9518
-9.86892
-51.1803
-87.1895
-77.5406
-28.4923
23.5422
8.83912
-15.1127
-18.2305
-29.0986
-32.6923
-13.7094
7.90626
14.4613
5.68776
-1.22894
-3.88273
-34.3668
-42.655
4.05272
51.1092
97.6171
99.3481
85.1178
71.1016
30.5846
11.4057
-10.4756
-18.0808
3.94435
18.8789
27.8891
35.2977
18.7052
-3.33878
-15.5232
-26.9506
-15.072
1.72886
-1.47624
-13.8777
-29.2249
-7.95231
-8.62638
-48.4303
-82.1208
-91.0776
-62.7211
-19.7915
-8.04769
-7.90953
0.1151
12.9379
41.1464
48.1371
18.1561
-1.22262
-4.14452
-5.68345
2.82066
2.76467
-10.3465
-36.1147
-41.4215
-14.4288
11.3241
23.9905
22.9336
12.6795
-15.3365
-36.8956
-39.3556
-23.628
8.41705
2.02662
5.65985
43.5646
39.6298
24.1898
35.4116
26.7275
9.25369
1.68747
-10.2059
-6.9704
20.9127
43.7096
36.8487
20.9746
24.3827
36.0782
44.8321
52.2292
4.64958
-54.6712
-80.2081
-83.54
-51.6833
-33.1197
-43.0816
-44.9107
-26.1004
7.99338
22.3742
15.2754
5.70312
7.35679
18.8343
21.3427
6.1754
6.30986
41.9027
46.2975
34.1583
43.2952
59.073
35.2619
-16.2513
-22.5565
-23.609
-25.9242
-26.385
-14.8585
-11.5556
-34.322
-44.224
-9.5327
3.7293
-7.9658
-3.66946
-6.9426
-35.4035
-70.3719
-57.0667
4.38648
23.8716
11.6298
25.5445
23.2172
23.971
17.6084
14.9688
5.09315
-6.53889
-1.38553
-17.165
-39.9843
-28.1208
-5.85256
0.853977
1.76345
1.29239
9.00177
19.2491
21.4996
33.6973
29.5066
28.3548
64.1838
125.904
139.459
62.4997
-6.90762
-30.3495
-38.022
-41.9797
-56.1447
-78.3872
-88.6056
-66.7084
-25.9748
-13.4625
-1.67566
-14.7815
-39.4276
-30.6869
-13.8593
-26.8176
-41.3517
-62.9134
-60.2016
-22.8767
16.7535
35.9067
48.2968
52.7556
48.132
40.7758
37.5708
24.0732
11.8137
7.66302
2.65285
15.3828
38.2289
64.4516
80.1256
52.8158
-2.70316
-55.6007
-55.7031
-32.5017
5.7774
61.3654
90.9235
91.4425
83.0964
52.1425
29.4188
3.25715
-54.912
-74.2871
-81.8183
-97.728
-107.838
-118.438
-93.5467
-58.1126
-49.2341
-40.9944
-34.0826
-14.212
-3.0248
3.49761
2.57125
-17.7748
-50.2218
-42.3252
4.77921
22.2047
22.9582
23.2766
41.3311
83.8484
85.649
71.1465
69.1247
62.8389
79.7699
120.227
121.328
116.24
75.9899
-20.2911
-72.0257
-90.5385
-74.6853
-43.1134
-63.3132
-72.2861
-42.5696
-30.3548
-28.7677
-6.44268
16.0274
8.42032
-27.0149
-21.4428
-1.85111
-41.914
-78.834
-60.8764
-48.5768
-46.0321
-37.383
-10.0504
10.3131
15.076
20.6603
51.7655
75.6147
91.0185
77.1496
35.1243
7.76504
-0.808879
15.0939
37.9851
39.2541
16.6972
-0.100079
-25.1338
-20.4816
-2.79623
21.5776
22.4895
-6.42269
-5.25969
-14.399
-28.1651
-17.0698
-20.2583
-29.3909
-34.3688
-36.0168
-29.3486
-19.7663
-24.1665
-25.1133
-6.29899
6.64972
4.28803
26.1967
18.6664
-21.1263
-20.0633
-6.31335
11.8857
53.0956
56.0529
37.8362
37.3897
40.3213
-6.45674
-40.1043
-51.9748
-53.0759
-52.1939
-28.3519
26.7046
78.5035
65.5037
75.7574
89.5721
32.252
0.994567
-3.74381
-21.6616
-48.8239
-40.9891
-54.1956
-66.3423
-67.5434
-15.1482
23.2241
35.7757
24.3363
-1.74596
0.789103
1.78271
-18.7514
-148.448
-111.221
-37.6459
18.3906
65.7496
66.4166
35.5494
32.7915
33.2352
21.7055
28.92
41.422
52.2395
87.7222
77.0169
34.6753
14.3134
-6.74737
-43.3959
-65.8948
-79.6137
-73.0295
-40.5886
-38.3987
-64.3425
-58.676
-47.286
-33.138
-6.22776
-0.072575
8.3543
21.9326
0.526466
-14.9078
-1.43036
29.8114
46.3459
59.1595
85.4579
95.5972
144.977
150.821
85.1265
32.1704
-1.32862
-38.8094
-91.2335
-138.377
-140.554
-92.8751
-72.2713
-63.8877
-33.4198
-4.52705
-2.05259
-3.33343
24.9218
31.7769
16.4383
0.302268
-31.5796
-41.3752
-28.0449
9.17955
22.4893
49.1873
78.7475
76.7765
65.5977
58.2547
49.3339
35.3665
23.422
-3.06235
-7.47634
-14.1438
-29.2662
-39.1673
-46.4001
-34.8015
-26.7029
-36.7948
-38.5122
-20.3784
-14.4937
-13.7412
18.7671
44.9218
10.9706
-15.24
-28.8028
-19.7881
6.31218
-7.67025
-4.10957
10.9703
26.1747
50.093
31.3723
-9.11145
-28.8284
-28.3582
-35.4662
-35.4373
-24.6181
-11.9372
-20.6792
-31.4425
-5.78223
16.5557
34.4363
33.3594
17.1088
2.34355
-4.72035
7.78373
29.2735
42.1556
45.7461
38.4923
22.5301
-1.6866
-6.21675
5.10896
13.9498
39.1776
52.1056
26.1236
-0.788149
-16.1364
-8.95281
-10.1421
-7.09718
0.937091
17.3402
45.3152
-2.92844
-76.1657
-104.635
-114.631
-95.3073
-59.3532
-67.9147
-66.5472
-17.1552
14.0765
31.3237
77.2713
76.1161
42.3723
8.41656
6.68527
20.8303
22.5183
5.89469
-12.8773
22.9448
45.3738
12.2498
4.54855
15.0506
37.6975
37.2916
35.9063
22.1741
13.8808
-7.61647
-36.5832
-29.3171
-14.5573
-16.9164
-32.895
-45.2811
-34.5619
-27.6286
-16.8843
-26.9582
-26.3148
35.5566
59.7789
17.7881
7.69974
16.1748
19.2046
25.5944
45.0032
42.8699
-0.00480934
-30.6489
-39.6151
-46.3787
-42.7493
-9.25286
19.2246
0.779831
-9.39023
-16.5939
-14.6952
-10.8005
6.52792
10.4576
-16.0551
-42.218
-35.083
-28.7183
-40.8851
-12.7493
34.9651
81.9278
97.9181
92.3456
80.1745
68.5641
28.0203
-12.4466
-56.0555
-81.5308
-79.6966
-67.3632
-51.5483
-26.6289
2.22232
27.8225
11.9297
-16.749
-24.1816
-13.4681
-0.138805
33.7556
61.0372
46.6505
23.0313
8.44961
3.99327
13.036
18.1174
13.5248
-3.08683
-5.45884
18.1054
1.74281
-14.9484
-3.00253
3.54226
7.60849
-20.5591
-39.7381
-46.5471
-45.1515
-28.2222
50.4419
103.605
75.9683
30.6793
-7.53668
-55.0052
-89.7801
-58.5703
-2.11182
6.37097
22.2909
12.5712
4.21685
2.1256
-21.0141
-45.9473
-66.8595
-66.0569
-51.8708
-49.5379
-75.0824
-73.499
-49.8353
-13.8959
33.2761
75.2047
106.601
110.438
68.069
14.3769
8.80089
23.4281
34.9994
44.4319
60.5286
66.5294
77.1206
70.6452
44.3799
42.8164
68.6805
72.8285
62.186
12.1475
-46.7273
-58.7884
-55.9414
-69.3479
-85.1248
-76.5766
-64.2224
-53.0496
-45.5442
-30.9212
-66.1895
-74.0236
-16.0104
-5.83805
-39.5156
-39.5016
-48.49
-74.6379
-95.9123
-27.5533
73.7607
93.9398
65.6152
43.1579
9.5092
1.61176
4.13564
12.7218
15.0365
-3.28132
22.2865
46.0121
7.98925
3.92742
15.448
1.48609
17.2121
64.6908
27.8203
-34.4975
-40.1274
-14.6299
27.7022
52.2716
78.5628
66.9608
13.9515
-6.33387
8.65106
27.2224
24.6287
-5.28458
-13.2411
15.0927
35.3068
21.4319
15.5523
-24.1489
-57.7625
-75.1338
-97.2826
-100.949
-82.3402
-69.8159
-65.5981
-76.334
-59.6662
3.42786
58.5254
84.9488
89.2709
90.2432
96.4192
108.972
79.9693
21.9342
-30.0343
-63.9589
-29.472
-11.8835
-42.5614
-46.8508
-37.8668
-45.6289
-48.9838
-16.1224
25.0713
6.21555
-40.8068
-72.1824
-53.735
-19.8421
12.7244
52.2082
43.7594
17.6024
-1.55314
-22.0256
-0.136324
29.1325
57.2814
114.368
118.497
96.7446
62.3592
25.1893
3.65844
-21.8102
-12.3908
4.06426
3.53165
-20.7446
-51.9711
-81.5177
-88.7813
-67.0672
-61.2148
-62.5371
-63.1099
-55.2099
-7.33307
30.8608
76.3866
100.539
122.035
97.7752
42.9058
2.49318
-36.4992
-67.0131
-63.3981
-62.1448
-96.3383
-113.614
-50.6099
39.5339
59.4276
52.1458
40.7777
52.4415
17.1145
-47.3618
-72.8678
-51.3749
-15.7486
25.6543
60.854
100.724
104.509
44.8319
-11.2764
-14.8995
9.36762
4.83017
-2.37982
-19.1184
-12.4869
25.6402
28.1803
19.6076
12.0771
3.86998
-12.584
-39.2182
-63.3858
-72.5183
-82.7504
-95.643
-62.1313
-7.39395
23.1127
48.5623
54.89
26.5281
14.2766
46.1185
46.2155
19.11
-7.39584
-8.90952
-0.140653
3.49981
-3.87152
-4.19638
3.49556
1.32728
1.70351
15.9786
7.46065
-5.96686
1.89159
13.6023
14.7658
23.3729
7.59909
-11.2753
-12.2068
2.18077
33.1278
28.738
-6.55448
-16.9664
-33.7623
-47.824
-39.2463
-19.1087
-34.0146
-49.7906
-45.9229
-39.3769
-14.7143
10.8998
35.5663
30.9455
21.6691
37.5464
77.0905
82.7807
38.7834
30.2377
76.52
74.0268
27.8482
-9.00137
-50.4921
-100.381
-90.8333
-50.6669
-2.11657
62.762
62.8133
-3.76061
-88.5162
-105.111
-94.8581
-84.5376
-64.2632
-26.5687
-9.47544
-21.5987
-34.8748
-24.7023
39.2484
99.793
89.9959
62.0022
52.6825
72.3783
88.3944
58.621
52.7804
35.8105
-7.47063
-39.4643
-34.7745
-44.1226
-48.8791
-40.9485
-9.26127
19.9745
24.3307
11.6246
-15.8417
-30.8943
-23.4416
4.41328
28.5355
13.3079
-19.1197
-55.0884
-82.5148
-62.6261
-1.2964
51.205
81.1175
91.8575
64.7488
29.9187
19.5878
16.1773
9.18902
-18.6993
-49.7203
-44.6514
-11.5165
12.1124
8.97828
-2.12862
-24.4235
-53.4336
-76.5174
-52.7716
32.1065
97.3899
73.6981
38.141
25.9225
13.3767
-30.6441
-92.6867
-125.388
-97.9364
-68.8644
-57.8364
-60.5178
-65.7384
-36.4359
21.1093
134.73
222.952
191.535
114.405
54.0036
16.9971
11.5024
5.86072
-50.3306
-117.585
-116.098
-80.285
-41.9997
-15.5322
14.6387
41.2317
76.5279
105.793
104.619
48.8455
-61.4921
-155.09
-139.029
-66.9929
-35.0995
-31.5677
-41.0399
-69.4912
-56.5915
30.2322
133.83
191.355
156.808
64.351
26.7618
26.1442
0.0759064
-34.8789
-42.36
-74.8939
-71.7227
-40.3469
0.800182
14.0257
-5.32918
-3.47048
42.6243
92.04
103.01
57.3692
-17.1538
-46.6378
-19.5732
-12.0631
-58.0744
-97.2723
-108.325
-89.2771
-63.6771
19.1272
75.1434
87.2145
98.7872
84.8124
36.0083
12.4114
-33.114
-86.9303
-105.504
-83.1015
-44.7461
2.22585
-2.64848
-28.5512
-29.741
-1.78714
17.8443
43.7459
71.951
17.8207
-28.176
-13.2965
33.2086
104.155
82.437
-14.9471
-35.6518
-11.0612
1.4094
6.63935
-24.3436
-73.9924
-42.5162
70.7492
103.452
33.1025
10.922
61.2386
46.6994
23.6805
30.4094
30.7988
-26.5389
-110.481
-120.382
-88.4532
-41.4456
12.9546
32.0102
15.4641
-3.46289
1.72588
-14.9165
-53.0712
-25.1527
-6.99449
15.8652
4.42939
-29.903
-50.8694
-45.5879
-1.45234
78.1381
97.4282
52.6037
31.1974
17.5192
2.35973
20.5936
31.9586
16.5068
13.3605
34.7367
21.7411
-25.0258
-39.8107
-39.4872
-45.2048
-56.7147
-57.8543
-60.5075
-65.8993
-117.007
-95.4501
10.838
100.857
136.203
122.178
72.0173
40.4245
54.6932
80.9676
76.9186
29.3324
32.8877
21.6476
-43.1918
-83.1637
-73.3685
-42.0474
-29.9914
-46.8869
-55.5666
-16.2087
12.7472
-12.8835
-61.7132
-97.8915
-88.2193
-32.298
34.9597
59.6759
-7.03137
-46.115
-32.7795
8.53343
53.7374
86.1679
90.3453
69.9157
33.8861
15.6152
24.8871
20.6802
23.8852
27.4955
0.663395
-23.5985
-23.277
-8.12036
13.5043
-4.54443
-1.38067
70.3047
89.3513
42.7033
18.3817
-29.0731
-73.4003
-101.825
-104.94
-55.9804
-28.0933
-42.7208
-35.4066
-30.7605
-42.5599
-8.63798
70.0561
91.4733
-0.731736
-90.8733
-102.122
-91.0032
-79.4577
-38.9063
8.38167
45.1555
79.0601
107.716
109.19
101.541
106.341
93.8104
40.3694
-1.41171
19.3594
14.0902
-36.976
-73.4881
-50.9757
-16.3583
23.3881
19.7218
45.9097
40.0697
38.9421
38.9211
18.7394
9.72109
17.3771
32.8111
-1.12976
-61.1585
-99.4219
-110.387
-111.538
-62.0292
-17.3862
-11.3359
-36.9836
-56.4888
-57.0984
-61.6674
-81.8112
-51.4366
-13.1817
19.2896
65.5499
75.3471
57.4154
20.2627
1.25006
27.5094
76.4678
94.5089
82.7948
10.5829
-29.6648
-14.0013
14.3572
43.5506
40.8959
25.0047
32.0593
26.6756
-56.313
-54.7663
-19.5061
-11.2535
-17.3668
-30.0896
-55.1418
-71.6523
-49.7775
-6.50119
16.6196
41.1546
38.7297
43.5722
105.678
156.216
155.316
146.516
71.9684
6.39064
-44.6124
-100.668
-156.895
-185.839
-164.912
-136.165
-115.171
-89.0412
-54.5624
-4.64121
40.4203
63.7845
106.81
140.713
104.95
8.74833
-73.509
-86.7926
-41.129
-6.8364
55.4077
43.0157
12.4611
13.3336
-5.77649
-21.3662
13.9422
57.993
74.4426
60.2603
99.4864
97.4257
9.93911
-71.1999
-96.0522
-82.0309
-22.8682
-22.969
-61.5582
-79.5865
-71.4981
-24.667
27.3329
56.5063
42.9628
-1.7061
-38.0752
-53.9867
-17.1957
40.3615
33.6222
0.65752
-1.07043
0.261174
14.249
19.4343
28.9667
21.043
29.6327
84.3682
114.25
102.66
60.7792
48.8466
41.4671
-7.90464
-43.9751
-59.8556
-100.23
-117.848
-84.9451
-40.3128
-1.87273
10.3803
-15.2985
-50.6476
-85.7177
-82.5673
-80.3497
-73.2081
-76.3239
-77.8525
-33.2219
22.7897
69.1294
161.353
186.657
164.468
152.423
118.072
65.8998
17.5219
-17.4512
-24.2245
-3.66176
-2.30511
-31.9808
-44.4908
-61.7579
-66.8998
-53.4519
-36.3195
-62.4869
-109.641
-116.277
-97.7515
-40.6737
12.0465
12.1297
-0.67401
-18.5543
-5.63947
32.1583
36.7935
19.0101
108.273
182.471
147.526
108.678
116.06
83.2911
14.3642
-33.836
-43.9564
-54.0957
-65.848
-61.28
-53.9734
-49.9081
-51.2299
-41.8499
-48.5026
-69.114
-43.2792
-15.5086
-35.3399
-43.6019
-12.1519
0.734903
-14.9055
8.86397
40.3243
70.6583
51.3641
30.1324
63.4587
73.3964
28.1898
16.6131
27.161
22.1061
19.7764
35.463
-19.8595
-35.6779
-8.52036
7.94164
33.1878
27.1845
-18.3837
-59.6618
-42.0801
-22.9254
-7.11865
1.33992
-50.398
-94.5171
-78.6103
-67.9624
-58.4108
-47.1464
-7.9835
11.614
26.8337
41.4078
-6.72629
-52.5116
-4.2547
88.288
124.758
101.121
74.9387
46.5003
26.1249
0.726993
-23.2026
-24.9195
-36.0613
-36.1847
-30.3102
-26.2686
1.01705
47.7784
81.312
94.2441
86.8922
50.9661
-3.12005
-75.8323
-124.887
-125.633
-100.552
-32.937
10.8709
13.987
10.9753
21.9894
38.2396
44.4161
28.4449
16.4423
11.7526
-14.8396
-35.4797
-61.193
-62.0391
-40.0212
-31.5251
4.50177
76.2169
120.081
96.7835
56.354
17.1467
4.64845
-4.13274
-14.8811
-12.4008
5.22166
-1.01325
-41.6307
-82.7576
-120.205
-108.622
-76.4416
-43.2871
26.4441
72.7901
68.3442
15.228
-36.7605
-46.7661
-40.7391
-30.4636
10.9733
82.857
107.914
66.8003
10.6944
-15.1549
12.7623
41.9882
60.9236
34.5733
16.1388
92.0608
100.262
-53.1752
-141.024
-139.444
-87.9595
-19.6706
20.583
63.1545
88.5647
58.5749
29.7809
-7.33729
-25.6587
-37.5425
-22.1397
0.760699
17.3258
20.2392
3.83017
-49.8229
-94.3456
-52.5355
-48.4992
-23.7416
-6.9077
-9.34163
0.192324
-4.85198
-53.4073
-87.2949
-61.0501
-7.95813
48.5267
96.1887
105.001
103.824
76.5514
108.117
113.922
-22.0222
-95.9432
-45.6786
23.9855
38.2318
42.0258
52.0337
46.2002
16.5737
-1.24647
-28.2403
-82.4615
-110.898
-115.512
-74.5442
-49.2998
-56.9058
-43.7472
-31.8235
10.7373
113.471
148.549
96.0148
11.3396
-54.4258
-94.8777
-125.752
-159.441
-139.186
-78.839
-0.379508
78.1737
140.901
184.984
232.934
241.855
204.213
143.407
25.4621
-113.042
-180.028
-146.688
-90.1626
-54.6962
-58.0406
-49.1045
-50.9968
-38.3848
-15.8003
-1.74683
-8.92106
-16.6179
-24.8178
-40.7348
-46.4957
-51.1666
-44.459
-22.7133
11.3205
47.4198
60.3923
32.3606
19.512
33.0821
70.5839
92.6012
70.388
37.5239
14.0085
24.9697
35.0629
19.8935
8.9912
-32.033
-91.9943
-125.816
-90.9427
-26.4618
35.155
94.8149
106.213
61.8385
46.2192
70.6363
63.9286
19.0605
-21.831
-56.7317
-90.091
-104.258
-104.034
-78.7825
-63.9585
-45.0417
-20.9015
10.3419
15.7895
18.379
17.216
-14.9771
-21.5008
-4.5244
7.59282
14.1371
36.1454
54.6243
31.6863
-32.2432
-25.2325
28.0286
50.6126
51.8015
74.9932
63.407
28.0148
12.1599
11.7424
-22.6489
-57.0059
-51.2571
-44.1216
-37.0146
-39.0677
-37.7851
-18.519
5.16908
27.8622
58.8775
30.1772
-35.0631
-52.4668
-36.4625
-33.15
-25.9047
4.21118
-9.39735
-26.5691
4.28925
71.7947
88.7698
59.7744
52.969
60.1137
48.6292
21.7313
34.9513
89.1147
107.427
37.5677
-33.3051
-65.3074
-78.9573
-70.9839
-51.2183
-67.8784
-83.6677
-75.2711
-74.4172
-107.414
-100.354
-53.0824
-9.99657
12.3475
26.9212
10.0964
-14.1898
-26.0553
-10.4901
38.1961
53.5651
50.4792
42.4539
39.6585
42.0033
44.1645
67.8595
73.7279
70.0623
88.2636
72.5766
33.8059
3.73483
-9.04664
12.4141
55.006
41.3741
-3.70828
20.187
27.6299
-3.01941
-35.3713
-67.6732
-92.7639
-108.535
-123.78
-122.977
-113.062
-130.237
-126.485
-107.831
-41.7688
26.2012
39.0256
42.8996
25.8573
-10.4451
-32.3705
-23.1333
28.0412
73.0301
78.1739
112.455
171.466
180.778
164.804
167.531
162.247
107.944
36.2706
-7.23308
-60.6218
-109.81
-110.983
-116.289
-141.31
-135.322
-87.7141
-57.2157
-43.6877
-32.9785
-4.94193
10.0891
4.86913
-28.1723
-39.8041
-58.0565
-52.8429
-0.735656
44.3849
100.57
104.386
73.1444
25.7003
-15.8493
-21.332
-18.5937
-20.1763
-7.20277
-0.766289
-0.670091
14.8346
24.846
28.7611
48.5463
39.6975
3.0129
-14.8615
-27.9834
-65.4752
-99.1443
-50.5797
8.52572
39.9169
51.4447
44.5839
58.2283
64.6004
30.8943
18.8398
23.3541
-0.0345541
-50.4164
-93.2222
-85.9486
-43.4741
-10.8852
14.8234
83.2018
182.315
153.687
38.7876
-59.0639
-56.6932
-34.0185
-63.6434
-97.2863
-110.387
-113.842
-95.0177
-44.5604
-14.9157
-3.9859
47.0375
75.6013
86.1036
75.1464
23.1098
-45.7864
-108.879
-99.4815
-52.0737
-11.1252
62.4
101.238
89.383
79.0093
90.9144
125.948
163.261
83.1768
-46.4074
-140.205
-198.386
-174.614
-99.6411
-9.14196
48.5996
53.656
25.4193
16.6578
47.4462
66.3494
-2.73075
-32.1498
21.6215
54.5439
47.3485
-15.1073
-88.3005
-53.9811
37.9129
79.5592
87.6734
57.4456
1.36666
-57.1139
-100.111
-96.7257
-66.8424
-23.1292
27.2205
19.0247
49.7457
63.205
-11.3067
-63.7237
-51.9228
-1.78313
39.7103
52.9038
45.9612
19.9123
-23.9656
-68.6423
-92.5458
-76.6807
-79.5425
-61.2896
-22.9519
29.9625
72.0341
95.6373
47.6781
-10.0828
1.26827
18.8105
9.09275
-37.7364
-46.3353
-11.3135
2.60356
14.7594
7.85333
-5.51885
5.58006
19.3033
52.6433
90.8914
119.506
127.486
89.0919
27.9132
-27.836
-23.3755
28.2053
53.5676
27.3479
-21.4473
-70.0533
-107.807
-78.9914
-43.1349
-57.7039
-31.129
-4.80558
-10.5572
40.2228
45.8395
-33.3067
-123.708
-134.133
-50.3864
-1.81422
20.3603
35.7173
5.3698
-6.93281
23.0672
21.2767
-21.2489
-75.6973
-30.2698
69.3506
77.521
14.7846
-14.512
-61.9161
-81.8461
-73.2359
-37.2081
48.7848
34.3255
-13.4848
-5.85325
24.6303
46.4093
85.3432
106.612
87.9308
86.4503
80.3291
59.3958
35.8936
0.341299
-10.9233
46.0416
61.8494
30.5893
-3.58561
14.4532
-30.5762
-35.6173
0.979937
-9.12028
-41.7125
-56.1328
-97.3106
-104.954
-76.0238
-56.6979
-25.8173
-13.4997
-45.2239
-50.8271
-12.9283
28.849
45.9081
23.0765
-9.50575
-44.759
-61.9891
-50.8366
-50.3204
-82.4365
-79.4771
3.06351
123.016
173.037
119.9
60.9945
24.4124
9.75359
66.864
101.476
56.0133
-37.1636
-80.9246
-61.5081
-13.873
3.09383
-5.56366
1.92917
40.0511
82.71
67.7993
-21.0733
-142.895
-181.554
-132.356
-64.9719
2.76518
38.8549
51.45
61.2181
45.2707
46.4057
42.2183
36.09
63.8713
65.4171
25.9669
11.2093
4.65852
-23.9038
-76.6375
-73.84
-23.8985
26.6918
132.191
183.156
164.349
113.347
-19.9818
-144.411
-166.906
-137.823
-121.855
-135.985
-110.264
-83.2012
-47.2167
10.0793
-10.9359
-36.7867
-31.0734
-40.1259
-48.8618
-34.0955
-15.4228
14.1373
43.6245
46.7361
94.0845
145.398
160.888
165.9
142.745
68.4733
1.76581
-6.86115
3.23323
-1.96018
4.88061
-2.13089
-19.7145
-0.812962
24.6737
0.299893
-46.9571
-115.237
-125.481
-60.4226
11.1013
44.7336
28.5701
-16.741
-52.3879
-0.621457
25.2402
11.572
44.1158
65.7573
18.5606
-38.2882
-61.045
-60.8939
-78.5215
-96.4472
-64.464
-21.8863
-8.92762
22.054
154.404
173.295
32.4435
-102.494
-105.813
-71.0128
-15.6667
21.506
-6.44119
-32.556
13.9511
74.0359
67.8519
53.3583
59.955
27.4535
-12.1345
-23.6775
-21.3716
-56.3481
-133.033
-153.935
-61.5252
42.4222
80.429
91.2625
48.4732
18.9521
44.9711
61.9679
56.7396
48.0252
35.502
16.8221
42.3473
46.2781
2.44144
-33.8556
-54.533
-59.0946
-48.9833
-25.3294
6.81645
38.3973
101.491
162.662
123.308
14.1631
-76.2059
-90.109
-101.554
-125.548
-109.825
-84.1853
-89.6428
-85.3272
-11.9951
49.7913
75.1845
52.1682
11.8775
-8.04834
-10.6114
28.0373
21.2905
-65.1717
-122.747
-76.3673
-33.9344
-33.0578
-23.4886
5.58876
48.4868
90.3898
103.986
107.814
57.6283
-33.06
-50.7733
36.3873
89.6976
83.765
85.4081
52.0679
-9.49825
-19.8972
11.805
-18.0138
-87.6877
-83.3827
-22.1358
21.8719
32.6333
0.687885
-48.7366
-82.6295
-75.608
10.2728
89.319
88.7444
67.9186
65.3217
89.0637
95.2941
7.68426
-81.67
-114.687
-73.0995
42.0536
80.8634
-38.0863
-137.699
-147.774
-106.253
-30.5137
39.8333
45.5546
10.0112
-37.7347
-87.7635
-103.5
-71.5613
-74.3854
-34.0125
33.1464
52.7333
37.665
40.4628
51.6698
58.6316
110.221
154.069
131.707
90.1106
36.7474
-21.4554
-45.6626
-53.5851
-54.6945
-36.9242
-29.4618
5.17456
18.1296
-19.4032
6.64822
55.3643
102.537
99.0765
45.6746
-20.1913
-25.7525
-25.0813
-9.69172
-5.18198
-9.17246
-19.507
7.35108
28.4409
0.656399
-21.4151
-35.0715
-87.8789
-113.081
-110.156
-90.2918
-71.0845
-93.6765
-87.905
-65.1472
-14.6035
58.979
77.7553
65.8257
51.8563
55.9592
90.3088
77.5394
6.73738
-45.9704
-78.7535
-55.453
-10.3797
31.898
81.7798
73.4662
46.8415
90.9922
122.42
96.6325
79.9854
17.4171
-42.7401
-62.2655
-84.2072
-104.212
-144.578
-149.093
-75.1481
5.45141
42.22
44.0114
31.1481
7.57014
-10.1793
-12.1259
-0.769432
53.9284
112.444
106.084
55.2422
18.299
26.9767
97.7623
82.8464
-2.13446
-29.0573
-52.3663
-65.0836
-31.286
18.3225
10.488
20.0903
41.1034
5.76736
-59.4487
-97.7638
-138.823
-164.246
-159.225
-128.827
-76.5611
-49.7474
-53.1372
5.11572
48.7878
34.2361
43.9209
64.1945
45.1307
32.0094
66.1069
55.7332
14.5371
24.0529
65.8884
81.3166
67.8387
42.0133
46.0112
35.7748
2.51839
29.415
44.564
-0.932341
-21.1843
-19.2037
8.10629
19.3579
23.8163
59.0279
56.3264
18.9003
-35.5888
-86.5126
-98.7061
-55.1555
-14.4844
-31.3478
-64.8823
-111.813
-119.712
-91.923
-83.6832
-10.5846
61.3825
96.7423
146.493
157.517
178.327
102.425
-0.587839
15.2386
8.44857
-17.3647
-59.2081
-138.185
-186.949
-169.437
-111.58
-1.77006
78.7049
108.747
95.1731
-14.2098
-53.8064
8.26961
4.335
-21.2401
-85.4608
-116.664
-90.954
-82.6659
-50.4273
82.152
143.87
95.695
70.7232
79.5376
107.332
119.094
121.741
65.6896
-0.425661
14.8496
26.7377
21.3275
7.61347
-9.42729
-53.8797
-71.9372
-48.866
-65.75
-87.3649
-106.057
-25.3254
93.8117
97.1498
54.9522
22.8951
-7.24675
-58.7832
-71.1839
-64.437
-74.2933
-59.7288
-62.7833
-83.3264
-48.1393
-29.7589
-23.3002
-4.38169
41.4802
74.5107
72.015
37.4467
11.2992
65.8822
101.754
55.1998
2.79357
-20.8436
-8.17156
45.8673
119.519
88.697
-10.5859
-49.6795
-64.751
-64.1182
-62.445
-79.3249
-37.5053
45.1235
62.812
38.0561
31.9443
-1.68898
-71.9767
-97.2149
-94.9759
-70.5028
-48.4268
-21.467
-14.6513
42.2742
71.6641
57.5834
60.8063
46.3788
64.0403
114.489
87.931
43.6143
-18.3715
-93.9008
-106.103
-42.7642
1.86942
25.4611
17.8022
43.4849
44.4279
-13.2303
-63.8026
-93.7671
-108.195
-130.849
-101.695
-23.3916
24.324
33.9982
32.3756
3.71146
20.2506
136.042
179.04
155.581
89.6984
41.3425
21.9093
7.90066
29.1142
7.48807
-43.233
-67.572
-37.3978
-2.13285
-36.0765
-55.9004
-54.1705
-58.2974
-55.0831
-34.569
-37.0565
-69.0969
-91.2599
-99.7187
-70.6334
-41.2851
8.17204
-0.461834
-38.7681
-30.9376
11.7807
49.1578
109.922
149.161
150.191
138.508
132.712
108.05
86.8969
34.2562
-36.514
-29.9467
8.10399
-8.23769
-16.6919
-27.6373
-73.8373
-98.5759
-129.67
-118.819
-61.8488
-39.2781
-18.6283
-15.0175
-8.88187
15.8667
63.6566
95.5774
74.1911
67.0247
61.8386
-38.573
-133.758
-156.349
-108.274
-31.5205
53.3479
107.772
175.248
186.986
84.2112
-17.2954
-96.0383
-102.586
-98.2654
-50.3206
-10.2357
-21.0628
-11.0261
19.7484
38.6001
26.0084
-9.35303
-30.6034
-44.0914
-73.982
-99.9472
-87.2188
-27.3931
75.9683
119.779
110.595
150.805
172.015
122.289
40.4113
-41.0624
-87.5915
-91.866
-42.6509
-19.4591
-9.28008
-17.3871
-22.3928
-0.415804
-0.275588
7.29445
29.814
18.9216
-0.711621
-7.05933
-22.153
-72.2088
-111.637
-76.1171
-29.8234
-6.70897
47.8054
58.2676
4.06707
-45.6456
-45.5183
15.1771
66.6271
61.6895
81.0889
76.4526
10.5713
-37.3761
-35.0089
11.5474
29.7546
-0.107145
-42.996
-31.9676
-36.1061
-69.3722
-73.6261
-48.646
-39.5491
-0.336029
3.56618
23.8386
91.2235
104.297
79.6104
54.3905
59.3242
66.3324
5.90506
-50.0585
-33.9348
0.761848
14.501
26.2397
14.3436
-26.6605
-76.198
-99.1982
-72.9483
-77.8205
-35.5176
4.0464
27.092
66.914
149.148
126.688
25.0439
-88.9226
-173.865
-178.04
-108.715
-4.43524
54.7046
38.169
43.9723
73.8601
62.7277
59.6473
102.469
96.3908
44.2259
-7.2294
-57.4701
-83.7821
-156.348
-124.091
-53.2059
-17.6606
45.4406
156.924
187.896
154.415
100.804
23.9345
-33.7901
-75.0851
-94.2815
-92.073
-108.594
-95.7407
-53.5907
-14.5447
-6.79382
-8.81652
-3.1909
16.2595
3.65358
-25.3493
-82.6924
-113.636
-88.8109
-74.7524
-9.86621
110.484
176.335
195.662
187.889
170.876
147.329
120.364
94.0287
41.7355
-22.0033
-78.9578
-116.127
-173.902
-167.156
-90.6099
-22.4356
1.65904
7.84222
19.5147
2.84556
-23.5894
-58.0032
-102.47
-136.915
-131.118
-90.3255
-57.2245
-28.1327
14.1453
27.6722
53.1556
79.9949
104.06
141.295
126.04
70.1856
15.6349
-35.4934
-30.1826
6.12799
46.8971
107.273
80.5043
18.7252
5.02576
-3.70711
12.5287
32.6795
11.2909
-31.7732
-50.5547
-46.0224
-18.6865
9.87151
19.2614
6.01505
-11.8736
-27.6988
-49.2288
-78.6263
-105.944
-70.5611
-8.96527
25.487
10.9618
-5.91669
15.967
17.2973
-2.58867
-14.0646
-25.5832
-53.2651
-46.9962
-46.5764
-20.1661
79.325
124.375
100.039
62.1085
43.1346
0.874661
-94.2412
-96.9942
-22.5829
44.0409
71.5664
49.5394
19.1717
32.3131
34.9118
12.8264
-32.6474
-79.2011
-77.2349
-77.5622
-67.3022
-14.9297
51.77
81.0154
79.6067
59.6953
18.4276
11.055
-16.686
-49.6238
-77.0393
-95.964
-93.3285
-38.9194
19.2247
90.0349
116.848
93.0226
81.9443
30.3858
-19.0624
-32.8917
-14.6004
-13.5746
-29.7711
-34.18
-17.9772
11.0431
52.3512
23.68
-38.5826
-48.819
-38.9084
-23.2493
8.49699
92.1206
120.146
53.6469
-29.6948
-69.083
-73.8201
-70.1731
-53.3009
-13.5787
29.1663
34.2659
46.3359
46.3698
37.137
42.3309
75.9169
59.3976
40.8879
-15.8794
-86.4704
-175.981
-188.694
-79.4389
63.1356
50.278
-27.2634
-91.2761
-148.736
-190.279
-121.295
-28.2628
28.2112
54.54
43.634
-1.88496
-14.0535
7.9381
49.2357
101.643
98.9738
79.7863
77.4353
100.787
77.9867
87.47
87.0675
41.9401
25.8957
32.4685
32.1741
27.011
28.4255
26.4465
46.4611
127.43
218.06
254.983
200.594
86.5361
-13.381
-104.011
-181.088
-247.652
-285.34
-233.539
-142.723
-72.448
-55.0324
-54.0595
-53.1879
-61.9009
-98.8423
-113.89
-100.981
-87.2616
-85.9933
-97.8081
-107.433
-89.1755
-27.7707
37.2468
131.852
190.69
190.732
163.532
134.394
137.568
124.337
82.9188
45.068
38.485
47.8182
33.1675
29.1454
6.71798
-57.0017
-97.3969
-90.5181
-62.5987
-29.3608
-27.9621
-28.0707
-28.1468
-38.5713
-6.74412
44.7481
51.0483
25.6288
-8.10067
-50.0759
-64.2845
-17.7633
47.6487
57.481
30.0432
7.01774
26.6513
36.4514
1.99981
-16.5721
4.40285
1.29644
-42.2144
-51.6504
-22.7404
-38.5168
-58.2442
-23.3577
41.8315
64.0092
54.0112
29.3029
-20.222
-53.6197
-17.4423
11.4866
0.205608
-38.756
-18.2699
51.2716
114.374
22.9764
-67.8001
-49.9044
-70.572
-90.526
-85.8967
-57.8394
22.2105
94.2575
82.3558
12.3261
-3.83198
65.9723
62.4368
31.8555
15.1453
-1.19857
-18.7185
-49.6404
-65.0756
-1.74416
42.3428
-0.466478
-21.6573
-21.1734
25.7606
55.6006
-13.9266
-51.2074
-33.1828
-15.8636
49.054
62.8745
44.595
41.6557
34.8843
26.4765
14.7802
13.6694
-3.38261
16.4633
26.7172
1.02011
-1.44325
4.22596
-30.1261
-21.1287
-4.22451
-37.9116
-40.1351
6.67786
29.1377
49.9106
62.7795
-8.65023
-127.711
-167.226
-150.806
-147.529
-126.59
-64.601
0.371834
41.4861
45.3207
30.5625
18.2856
31.4307
53.3476
93.4098
169.387
176.71
89.1372
-18.4572
-36.1771
30.1341
101.338
131.156
122.096
41.5706
-62.5121
-97.9881
-112.797
-104.906
-58.9066
9.03912
16.0654
-63.8839
-112.221
-131.528
-146.346
-135.553
-120.975
-91.3022
-76.8398
-68.2848
36.3846
130.058
154.39
184.009
204.278
134.783
115.011
132.74
94.8116
-9.69081
-50.8008
-19.9431
1.36336
-7.26243
-9.27932
-15.8536
-16.1245
-13.8653
29.0287
49.3032
-2.06422
-58.1029
-93.0465
-100.55
-73.1233
0.798231
-9.25204
-77.8056
-54.6836
-13.1589
16.9037
38.1392
50.2275
28.9364
-20.0071
-43.3098
-32.2104
-65.5367
-102.877
-93.8646
-60.1464
-14.6586
-5.44609
-14.9161
29.4869
78.4448
108.204
131.619
136.992
132.242
94.6802
44.16
-17.1535
-7.50501
16.047
-1.88458
-32.5682
-45.2046
-58.6656
-64.9253
-87.5682
-8.84467
123.436
81.9998
-25.8895
-87.0233
-48.0699
29.2549
24.1043
-4.06679
-18.8885
-40.9319
-49.7809
-88.0642
-91.361
-23.0096
46.5653
91.0476
67.1901
27.3979
10.3133
-27.3777
-45.9785
18.2416
17.5251
-28.1286
-23.8414
-19.7992
-18.4067
-23.5399
-7.93305
10.8612
28.9631
-6.90788
-42.0072
-32.2936
-7.65306
36.9937
67.4841
113.916
151.629
105.624
40.1145
40.3601
25.0864
-4.06012
-77.5127
-153.345
-162.829
-119.748
-89.9168
-65.8911
15.4411
132.237
203.878
165.013
75.6503
31.0028
11.1512
-10.8412
-20.7778
-48.24
-83.007
-97.9082
-97.9757
-86.6262
-59.5516
-37.0864
-26.9107
-21.989
-24.6653
38.2725
74.6129
21.0776
-19.6184
8.17802
41.4712
4.24162
0.793549
17.6628
-14.2921
-52.0553
-58.9465
-43.423
-6.92021
11.2789
-10.6887
-26.7043
-23.431
7.59239
34.0905
59.9363
69.5646
106.564
197.848
229.75
132.435
60.0488
-1.72599
-34.0676
-45.6419
-40.1704
-35.9322
-76.8575
-96.7566
-89.4135
-64.671
-56.4544
-47.9784
-37.0975
-22.5988
-23.5846
-19.1249
-42.9754
-54.3934
-76.69
-59.1888
-23.0005
22.8972
52.7778
69.8566
93.2344
73.7945
60.8184
45.1525
25.8643
16.5669
17.587
33.3579
86.1388
86.7445
-6.24865
-97.8695
-110.341
-141.179
-141.203
-83.6248
-55.8471
-50.6884
-61.1111
-38.8817
-11.2239
19.5139
68.4628
113.113
122.023
158.799
194.271
150.768
61.0015
11.5409
-18.0612
-39.1838
-1.01726
2.97623
-26.092
-14.9743
-30.967
-59.0741
-71.9725
-67.8029
-89.6498
-94.1421
-42.8128
-15.1555
-11.382
-33.3936
-47.9798
-48.8576
-47.3594
-6.28055
52.2543
65.4146
18.6052
0.93484
4.73634
-36.8647
-51.7279
-45.5957
-18.7442
35.2904
102.322
80.1156
130.797
212.751
164.961
61.7404
-18.6726
-10.3325
-2.34319
-7.5615
14.4677
64.2682
24.9361
-58.716
-93.7926
-106.893
-98.196
-78.1933
-69.3866
-75.4603
-55.3968
2.45221
-18.5861
-63.6921
-16.9332
37.6407
19.4749
9.44139
34.0081
-2.58133
-88.8972
-149.784
-108.514
-46.4083
-19.3754
22.269
67.912
97.6061
112.674
132.693
117.112
95.1017
86.601
46.9183
14.6542
-32.8678
-20.4508
-21.0663
-80.8127
-100.445
-64.3764
-7.63081
56.1422
76.8945
85.8458
92.9795
77.1968
57.8002
44.7126
24.6204
24.322
-8.16381
-113.297
-170.531
-124.966
-73.3495
-8.2159
21.0053
41.383
83.5503
41.2939
8.6899
-34.4111
-80.8142
-99.8132
-112.479
-90.6414
-43.148
-48.0275
-68.1392
-66.1562
-40.63
1.21444
32.8143
29.5411
49.8545
37.1592
-8.94549
37.7935
82.9694
165.423
236.088
188.101
91.1266
29.6226
15.5761
0.184505
-18.6558
-33.0024
-23.8617
-40.5292
-29.1758
-32.5269
-48.6755
-81.0966
-94.8666
-74.2876
-25.0843
-32.4017
-57.8583
-92.4596
-121.141
-88.2535
8.12792
76.3713
66.4886
23.6545
10.5554
30.4126
39.8595
54.6546
50.5326
53.3426
66.7406
75.2037
63.7012
-5.00977
-58.5264
-48.3511
-10.7653
-7.85571
-25.7291
1.00609
58.1601
78.3814
67.9298
69.6746
35.4331
-19.4633
-88.7686
-130.914
-86.9126
-27.7144
-17.4649
-3.62001
24.8009
20.9073
-15.0662
-49.624
-78.2047
-79.9268
-84.9582
-59.222
-9.89114
26.1957
60.9673
114.381
109.115
70.8433
47.5687
52.4927
41.9472
4.22005
6.96564
39.5774
-1.83633
-63.9074
-95.4007
-86.6979
-49.4725
-9.89012
28.0487
26.3884
-46.5905
-90.1829
-62.4824
-9.65853
14.3388
43.7759
74.7533
44.7304
-35.6896
-44.6211
-11.4468
13.6026
109.997
114.768
105.47
93.833
38.07
-8.09071
-29.5333
-27.381
-21.8402
-25.7974
-25.9706
-30.0642
-29.04
-33.5182
-29.7667
6.32007
49.2764
23.4143
-32.2272
-115.417
-174.051
-93.6634
-9.82127
24.7144
62.5347
80.1792
83.5277
47.1402
-4.78299
-18.017
-55.0891
-69.2912
-30.0144
5.17809
55.0648
129.969
133.329
72.2145
27.6658
-10.7384
-27.9954
-23.4765
-30.8117
-64.2159
-77.3419
-45.3751
-71.5628
-105.636
-85.5499
-14.3476
49.9297
62.846
57.5171
34.3142
7.02504
-44.071
-61.6173
-19.9965
21.1518
49.5658
30.7202
19.0206
36.4399
71.1148
54.1726
18.2147
79.4335
124.874
70.9346
-8.13385
-46.0013
-79.9606
-84.1889
-42.4933
-22.3855
-42.2838
-39.1046
11.3556
61.4166
76.4834
71.4855
34.7842
5.78549
-43.3999
-83.9527
-93.6073
-127.911
-151.752
-118.473
-42.4475
23.4964
55.7331
88.5401
144.39
185.664
214.728
129.949
-33.8546
-101.947
-32.8681
48.1159
9.68253
-47.3791
-64.9262
-66.9751
-106.344
-140.378
-84.3696
-31.6485
-33.913
-62.469
-68.5297
-47.8768
-56.6373
-65.7274
-68.6936
-15.0434
50.5854
55.5737
9.23289
-17.4055
47.2121
110.573
160.385
168.448
158.458
141.607
125.818
104.912
76.8217
65.2627
71.9488
29.0255
-38.3111
-81.8259
-95.8426
-92.175
-93.6653
-86.5727
-95.7561
-116.201
-70.189
-25.5783
-6.56911
26.0647
23.8653
30.2279
-0.820512
1.46732
47.775
33.5025
-50.7331
-83.645
-55.9891
-26.8412
-10.5376
15.0821
29.7012
45.6574
44.8177
50.4275
40.7581
-7.42259
-43.9211
-53.7054
-38.1509
-56.1797
-41.0778
-11.8274
-21.346
-4.39014
31.7048
14.451
-3.78461
-16.4869
-30.9792
-38.0138
-0.00557953
28.2091
50.4958
41.8626
17.876
13.7164
-36.5492
-34.7515
-33.8873
-37.3365
10.9096
61.2396
71.9075
97.481
118.408
103.777
81.8276
48.2773
35.5055
105.42
92.6268
6.55147
-55.539
-83.7645
-94.6562
-95.2918
-91.7945
-95.8215
-76.2178
-53.8353
-31.4505
-61.651
-71.3797
-39.2919
-25.8623
8.90005
49.1897
113.979
132.985
10.7075
-54.3619
-41.7066
-3.06806
1.49505
-17.7233
-49.7441
-49.4427
-2.67794
75.4282
99.5408
49.4952
-3.08935
-49.1245
-50.7655
-21.5019
-21.4494
-57.7446
-59.8836
-4.26452
67.6821
77.7803
56.1302
15.136
-4.39633
5.53592
18.9295
49.1403
56.3962
11.5103
8.86222
-1.54663
-8.36693
-18.9029
-19.7389
-2.54633
0.219639
-28.0708
-68.5303
-118.056
-103.374
-23.9016
49.1154
50.9287
3.30764
7.48806
63.8855
75.9581
53.1051
74.9345
144.048
157.357
89.5571
26.5269
-54.3628
-117.427
-123.168
-92.8909
-72.6257
-64.7526
-35.0057
-11.95
-89.4076
-99.2095
-56.7765
-22.4978
-11.8245
14.53
-13.1326
-30.6526
-35.7802
-47.3163
-7.88694
29.0429
56.3002
87.4348
131.742
134.582
90.6762
40.5681
-36.13
-65.8207
-10.3935
46.0504
104.1
102.327
45.2072
-7.3117
-38.0517
-29.3648
-28.3674
-17.7921
-28.4425
-50.0022
-45.3402
-61.5866
-73.1364
-68.0022
-67.0026
-38.0042
24.5299
37.611
55.0896
87.0696
83.5678
92.6867
84.3176
44.435
49.2086
-4.51779
-124.155
-160.934
-103.118
-53.7451
-41.2375
-12.0705
19.969
41.9961
54.0335
37.0245
-2.6213
-18.0871
-38.359
-95.294
-124.031
-125.306
-88.2056
-22.0043
53.3539
94.8397
138.415
167.483
107.95
56.8728
67.2591
90.395
71.5836
19.6089
4.82555
22.0318
32.9334
-0.729557
-49.9304
-69.4719
-70.946
-63.1695
-50.179
-52.2003
-89.0364
-102.771
-76.5442
-71.1825
-40.9846
20.656
65.0591
78.4843
83.7957
81.1365
75.9752
59.049
-2.7052
-36.5773
-47.8729
-42.2601
-33.5818
-19.8719
-10.0273
-1.63479
7.75689
14.7432
53.0463
75.0659
19.744
-29.9127
-87.1378
-111.616
-102.808
-56.7652
-38.0037
