67.5826
-1.61354
-35.6891
-61.3581
-66.5199
-90.8561
-99.7574
-57.1697
-77.2938
-59.7953
-6.46718
9.45179
54.0553
33.6921
-33.8222
-118.385
-149.177
-94.3757
-34.0728
13.5249
93.0303
105.787
51.4061
15.0788
-43.6304
-6.12248
9.21723
-4.14266
51.7442
131.132
171.18
149.27
121.268
144.465
65.795
-53.7456
-150.41
-204.407
-190.864
-135.863
-88.3059
-61.8218
18.9164
48.1993
41.0869
11.5884
22.0839
14.3661
10.4628
-30.6594
-75.6701
1.88751
25.6687
-27.9218
-1.96211
48.5364
46.6218
11.3004
-4.02874
26.8731
69.3153
108.884
99.8866
73.7479
73.0273
55.0368
3.97999
-63.6862
-137.833
-123.344
-76.8108
-46.4256
-3.07243
-12.5705
11.9949
4.54315
-20.5208
46.4463
96.5959
63.798
5.80486
-59.7309
-118.396
-140.917
-109.025
-17.4658
22.6102
25.0239
73.9588
96.416
82.7852
-1.1635
-75.9852
-78.9502
-140.058
-83.7478
23.5687
51.1796
89.0618
115.334
121.605
126.282
78.7762
47.7781
28.3979
-7.70894
8.41942
18.0508
-25.7508
-65.6204
-109.78
-90.4029
-74.1821
-55.6226
46.9988
114.635
118.617
40.5439
-106.443
-155.416
-157.667
-119.194
-60.6729
0.810549
27.9263
-40.5533
-58.4121
31.1123
95.0733
86.0264
105.972
112.23
148.938
101.189
23.827
-39.2714
-79.6906
-23.56
-13.4928
-50.997
13.9531
100.392
117.224
74.9362
31.0552
30.819
-26.5612
-102.093
-103.56
-62.3398
-52.9129
-105.741
-165.673
-197.411
-156.845
-107.54
-45.3505
67.9338
288.656
406.517
299.953
102.058
-5.60337
-92.2877
-100.268
-140.426
-116.863
-95.5623
-78.7996
-19.7414
0.31642
-11.6667
-5.66933
57.7642
121.567
137.359
111.681
3.5195
-134.085
-220.36
-210.515
-207.259
-138.908
-19.4388
102.596
210.021
217.122
200.323
159.812
73.7752
10.3588
-54.5649
-26.2781
19.1311
-11.2454
11.8362
46.7939
36.3251
-5.81569
-72.2063
-102.768
-17.8792
30.8175
5.47215
-55.458
-59.9564
7.27961
44.4516
65.3458
75.0719
19.6863
-21.1935
31.759
12.7993
-40.9068
-77.4872
-146.391
-183.199
-168.695
-130.888
-70.5279
27.1648
87.2897
87.9741
86.1115
52.8017
8.57572
-26.9609
-94.8566
-112.076
-6.7767
126.44
111.562
118.312
175.76
163.21
120.628
35.168
6.90235
19.8668
-42.9331
-71.2812
-78.598
-75.8722
-85.7224
-96.1666
-21.5401
85.5709
115.398
93.311
50.2215
3.4482
-39.7829
-95.7419
-222.905
-227.705
-125.154
0.295535
86.7274
177.905
228.405
134.977
45.9423
20.4369
-5.57737
30.7533
-10.0625
-65.5219
-86.0883
-169.707
-248.703
-201.659
-132.25
-31.3999
65.8215
94.7165
97.0691
65.5997
34.5465
16.2977
73.903
160.785
159.255
155.612
85.7916
12.2071
-7.29405
-39.4869
-87.7649
-29.7367
4.88223
2.75317
-14.913
-50.8139
-79.1655
-101.78
-107.751
-75.2568
-49.5407
-25.3684
-42.5666
-74.2561
-49.9157
-0.566402
33.2233
48.8238
96.8998
167.065
189.97
145.006
120.94
73.6503
64.4915
70.7036
32.8083
-43.2889
-38.8364
-66.7783
-147.767
-191.094
-166.064
-105.641
-34.4312
-1.03677
36.1378
21.8253
-43.9297
-68.3399
-32.8283
-3.34296
26.9627
15.024
58.9702
52.1121
36.0206
21.9288
-23.5081
20.2163
71.4495
56.1481
50.913
-19.5455
-118.221
-137.059
-93.0169
-31.8568
33.9952
96.2516
118.075
3.84902
-14.9542
31.9658
22.3579
-7.26891
3.1677
29.8347
52.3407
52.2703
47.3236
17.7792
-73.8149
-135.081
-92.8381
-11.3039
38.3478
42.1777
96.5707
68.6122
27.0003
70.0412
156.222
193.186
87.0818
21.9185
40.549
-6.18065
-137.161
-200.219
-198.942
-191.109
-177.195
-153.817
-106.352
-13.8435
89.2081
148.121
98.5701
15.938
-37.0547
-57.6325
-131.477
-219.362
-156.372
-43.4293
22.9707
102.608
157.879
177.023
181.184
116.714
108.54
123.639
42.8853
-129.616
-256.575
-232.026
-133.009
-74.1606
56.3867
271.183
387.79
324.123
174.381
99.1843
23.3492
-60.957
-103.878
-178.093
-188.156
-123.385
-58.5634
11.5278
92.7296
172.834
203.876
113.425
14.2014
-72.9294
-184.716
-291.666
-328.56
-224.131
-136.424
-106.529
-11.4111
-4.94262
15.1409
53.8875
73.9837
76.065
81.2315
87.7484
114.673
86.6299
100.709
202.364
193.421
134.971
22.2429
-159.125
-207.201
-152.206
-70.9322
-6.15787
-15.1853
39.9595
74.4224
-3.18077
-52.5667
-29.0526
-29.2717
-32.7959
-60.849
-68.6224
-23.3925
-34.3658
-141.985
-177.6
-20.076
176.602
167.908
106.817
87.4915
56.6419
26.2436
13.4361
13.0979
47.9426
110.145
83.6765
34.1698
44.6701
63.7139
79.144
29.8821
-66.4041
-53.8401
21.5433
2.10391
-53.448
-149.775
-233.506
-219.344
-149.725
-70.7459
11.0374
62.7032
145.406
143.757
153.498
130.583
96.8165
115.74
98.7845
2.39135
-149.308
-260.39
-250.605
-207.141
-182.227
-103.452
92.1792
253.998
250.62
188.558
130.58
-83.7637
-302.368
-345.109
-246.321
-56.4314
38.5223
61.1446
52.1034
42.1722
104.99
186.488
205.489
234.863
201.322
100.197
-26.6172
-124.114
-156.71
-122.454
-70.1902
114.545
176.519
192.104
219.735
136.439
13.2038
-187.348
-312.157
-199.358
-88.3549
-74.7595
-68.3966
-12.0486
44.7184
30.8805
13.0761
-25.1419
-112.684
-141.693
-62.5414
64.6722
138.735
75.4153
-46.5071
-65.4332
51.3053
137.187
54.0147
-74.8437
-68.6539
-28.6605
-63.8665
-87.5168
-50.5101
99.3828
231.852
169.517
139.155
68.7276
-118.483
-246.725
-177.126
-64.4374
45.9324
73.2442
28.3457
68.6218
152.72
126.362
30.2649
-29.0527
-10.29
-41.1989
-73.6654
-56.5005
-135.939
-176.459
-130.69
-32.4227
86.0477
116.924
118.549
111.955
46.3778
-71.0174
-214.874
-260.924
-129.695
11.4353
162.722
311.801
355.39
198.253
80.5219
23.3261
-1.86632
37.9462
16.6433
-108.162
-175.93
-183.147
-149.931
-106.287
-24.1748
85.0686
154.144
143.435
76.5132
-65.2238
-160.15
-196.345
-227.131
-163.943
-89.6321
-63.0185
-44.4953
26.1676
56.277
68.8615
74.5271
77.4319
104.118
136.205
139.565
116.044
58.9012
14.3374
31.4072
11.4013
-21.5815
6.70607
1.22048
77.1132
140.391
99.3207
4.98519
-122.443
-112.159
-28.1423
-22.7641
18.0217
86.7629
19.4654
-152.503
-231.265
-196.34
-83.0938
-32.6668
39.2224
-0.110325
-83.0948
-73.1426
-47.6349
-34.7542
-15.8078
82.3255
133.576
172.386
173.931
130.464
33.4276
-117.909
-162.662
-39.2324
41.0389
123.139
140.716
68.1681
-22.064
-8.93305
70.4888
192.336
169.672
75.793
3.86106
-91.0275
-171.243
-260.897
-286.461
-157.002
-68.3623
-5.35517
62.8563
49.018
-26.2117
-147.819
-193.285
-121.311
-13.5287
53.0372
74.0742
55.1264
62.9344
98.5211
122.119
191.8
225.948
225.929
184.074
90.7995
33.4086
-22.4208
-97.567
-192.638
-172.922
-58.916
-22.8877
-55.6958
-107.417
-60.7373
-26.9185
-83.5295
-138.873
-85.7732
55.8163
68.3918
104.892
123.288
72.0578
27.7646
-37.8787
-80.6105
-106.305
-65.022
-34.1264
66.6861
133.017
190.794
266.217
258.979
206.992
34.9866
-130.93
-236.838
-314.967
-323.283
-226.559
-168.56
-40.5199
65.4373
104.85
102.582
147.964
150.937
43.5313
-98.2423
-115.986
-20.4587
49.2138
3.12532
-97.4247
-160.799
-118.783
4.2486
117.42
288.819
331.721
264.901
86.9832
-177.405
-185.988
-34.6343
-7.3855
23.593
160.027
160.67
55.4084
-103.86
-200.336
-183.868
-166.171
-99.3383
-75.8194
-146.368
-146.387
-115.111
-57.1463
110.452
347.241
515.385
423.053
167.643
-15.4588
-122.049
-163.098
-138.248
-167.436
-215.768
-153.034
-139.082
-140.974
-67.1267
22.2142
68.1206
94.9304
76.5563
17.3798
-4.01045
-45.2281
-59.7825
-48.4533
-36.3029
-16.469
20.7023
55.7608
67.4328
100.847
116.62
58.4596
69.4397
139.909
210.052
242.643
195.288
60.5909
-40.6895
-109.455
-178.792
-244.752
-241.439
-196.181
-142.312
-48.2349
-10.4064
-46.4912
-69.3924
-82.1144
-31.6625
25.5519
-6.01808
9.31048
45.3466
78.9567
138.649
175.102
146.779
35.9987
-36.4495
11.251
90.0862
154.455
206.949
194.01
54.7487
-115.002
-165.714
-85.7205
-45.8716
-52.3846
-41.0998
-134.505
-188.81
-168.992
-146.249
-109.499
-122.633
-106.503
-54.3929
-15.8796
43.5284
60.1315
62.6365
65.2952
81.6153
99.1526
119.961
110.699
91.8887
43.6234
27.4932
93.1631
110.438
57.5315
-41.7649
53.2442
103.7
118.595
61.9145
-69.0429
-187.881
-238.451
-189.629
-55.8518
8.14623
96.6661
105.354
6.40934
-71.5276
-40.2455
-35.0401
-2.36615
75.913
130.792
136.891
-22.5163
-103.292
-116.94
-112.745
-100.135
-67.19
3.12342
-61.9105
-137.187
-70.3714
18.2902
95.6184
214.651
276.429
247.439
182.198
53.6085
-131.788
-237.211
-219.791
-204.046
-172.393
-95.5082
13.3409
87.7686
99.8325
113.895
155.362
68.4547
-63.8391
-41.1609
-3.69367
-71.2768
-52.0661
3.84616
91.3425
160.203
138.378
158.364
153.673
-8.19865
-105.563
-78.1767
-72.7377
-94.1252
-139.576
-144.084
-46.4598
38.2935
99.8423
35.9661
-21.9936
-24.0459
-75.0641
-135.223
-118.124
-61.7914
24.3345
56.3277
72.0548
89.437
94.0019
94.7889
58.8277
51.6084
75.7524
72.0211
42.7129
-11.2645
-42.4383
-61.1895
-96.2523
-122.14
-87.1081
58.7666
70.4159
-2.0913
-0.375943
33.4666
6.25729
26.5077
-26.852
-72.6397
-76.4739
-75.1725
-66.6062
-106.136
-124.364
-93.3512
-48.3948
92.6929
233.746
320.11
304.138
102.632
-9.08206
-13.3062
-103.336
-205.798
-146.929
-73.8185
-8.30429
19.5521
17.2018
-1.93466
-10.5676
30.9046
40.0579
111.662
156.513
29.179
-99.0147
-116.984
-138.719
-166.986
-110.684
-18.5401
64.2312
89.4964
126.534
183.627
156.749
71.0418
-16.4913
-27.9354
-19.7899
-13.0214
-13.3917
-21.0127
-0.34709
19.706
-6.33544
-6.88638
-72.1683
-144.152
-190.469
-207.04
-120.159
-112.318
-166.947
-20.4532
122.361
125.038
159.321
220.492
234.549
170.474
77.4485
-23.9578
-55.0732
-72.982
-63.3095
-75.3947
-20.6184
77.8227
91.5533
39.0681
28.6583
146.92
115.098
-75.3762
-200.727
-169.702
-73.6246
-27.0892
45.7358
124.518
124.478
-5.0646
-80.5295
-115.508
-61.7221
-3.21681
-59.5188
-173.486
-135.142
-75.7046
14.4467
79.4944
151.048
213.999
241.077
180.146
35.9169
-52.342
-96.7591
-152.671
-146.323
-56.2033
-36.3632
10.8092
9.4733
-82.8621
-96.9867
-9.92035
43.736
20.1266
-74.6531
-153.703
-141.502
-81.7005
50.3219
176.366
215.113
255.441
249.057
163.412
36.2989
0.913141
-38.3377
-68.6413
-99.7171
-95.2606
-27.639
84.363
90.6694
127.261
111.827
9.24691
-64.5328
-109.434
-173.34
-207.167
-162.631
-155.608
-184.917
-150.826
-92.3117
-33.1835
47.7767
93.3027
107.925
129.094
163.95
223.346
242.985
100.701
-31.9642
-12.6389
26.5876
-8.70725
-25.4172
-55.6201
-116.28
-168.065
-170.16
-123.727
-80.2326
-54.4484
23.087
78.8459
149.644
224.932
219.161
124.509
54.6815
-24.2227
-111.536
-76.6196
-62.4521
-66.688
-57.1494
-30.4681
-45.2436
-97.7182
-82.9736
-30.9692
33.148
68.5031
77.1428
75.0717
32.8016
-33.7884
-38.6044
-78.331
-151.099
-44.0211
96.5815
118.612
128.025
141.337
184.597
193.632
105.672
30.1333
-27.285
-65.9392
-77.2908
-90.7217
-91.2393
-116.954
-130.985
-123.205
-125.777
-129.975
-84.0764
-44.4417
-18.2734
-57.0122
-70.4769
6.44342
-25.867
-18.904
155.475
249.805
207.999
163.955
148.443
142.618
73.7045
16.8815
-63.8231
-69.4202
-79.0557
-125.459
-131.361
-91.0231
-76.4455
-108.685
-93.2027
-79.4901
-66.9777
-75.6517
-49.6199
36.9775
125.008
122.04
106.92
115.829
65.1159
-24.948
-77.2618
-128.928
-58.1504
59.3411
142.281
219.623
266.191
271.538
127.494
-55.2457
-21.2158
64.0974
17.1886
-16.6989
-11.6211
-78.4885
-129.34
-214.688
-200.358
-102.911
-51.1493
-32.0003
-60.1071
-73.4118
-183.962
-251.921
-178.868
-11.518
119.543
154.72
99.254
-0.49133
-23.5539
-45.8451
-72.8549
31.8502
109.182
191.389
154.455
55.7867
26.3884
-2.48826
-51.1179
13.088
112.406
128.371
71.2586
-34.7972
-124.075
-158.014
-105.129
71.6867
155.279
144.98
137.688
98.9545
42.3502
-67.2363
-117.552
-78.7998
-105.152
-89.2165
-7.14505
49.2799
118.025
90.7854
-36.2601
-112.239
-47.4703
-9.54608
-43.3394
-121.643
-116.753
-37.855
9.8059
34.4781
66.5665
122.283
133.706
95.7987
51.0096
-21.4222
-128.083
-211.517
-211.323
-157.756
4.47357
127.748
144.616
152.174
124.932
56.4306
-28.3922
-121.821
-161.882
-223.707
-259.014
-217.315
-111.691
13.3384
224.655
379.186
383.87
282.301
163.914
73.8148
4.15838
-10.2535
-64.7074
-108.665
-102.223
-76.6876
-69.776
-139.688
-185.831
-108.006
39.4557
182.139
227.154
261.982
243.89
36.001
-164.159
-239.435
-184.334
-51.9648
10.3237
-94.0334
-151.842
-159.035
-106.175
11.3046
137.556
224.8
238.811
121.232
-0.907809
-96.4706
-117.058
-163.09
-241.397
-130.958
48.8095
163.612
144.33
36.7773
-0.532777
18.6959
32.6255
120.235
130.378
74.0906
-9.73462
-52.0029
-75.9113
-53.7821
-20.0365
-113.621
-271.249
-242.142
-143.016
-80.3589
4.12139
209.195
379.883
414.452
266.373
184.904
204.95
56.5988
-135.081
-239.266
-226.521
-156.471
-104.732
-110.212
-139.572
-21.9203
122.675
133.851
-19.0939
-52.8441
-24.3396
-134.754
-337.673
-333.408
-177.788
-171.63
-177.58
-29.0017
164.387
248.41
280.001
335.888
342.579
331.528
278.986
193.224
119.93
33.7183
-1.71004
-43.207
-65.8926
-70.5234
-28.5054
-10.5922
19.089
76.8749
4.8866
-31.2624
-128.932
-186.634
-208.152
-219.23
-195.837
-214.794
-205.946
-162.638
-72.2506
-18.9597
117.776
168.617
77.2196
-40.5802
-63.4201
-62.3727
-102.541
-34.9521
95.1327
148.922
131.395
109.22
127.997
140.189
69.5149
120.645
105.834
21.8372
-27.289
3.86696
12.0706
-12.9028
-31.4916
-107.355
-133.335
-66.2817
5.96963
55.8681
126.445
167.695
116.762
35.0818
-54.2779
-110.27
-90.062
-63.1153
-31.3998
-48.1642
-95.0205
-132.091
-97.9927
25.4487
140.858
207.409
171.829
95.0721
7.81918
-146.491
-221.26
-241.548
-179.868
-55.3319
25.4723
72.8772
71.0028
36.0561
48.9089
34.577
-11.7843
-59.9793
-36.3365
-13.2198
32.0498
195.191
292.768
140.628
-24.135
-40.7746
-51.4455
-97.1964
-103.979
-105.641
-25.4215
75.8801
111.548
107.642
30.1411
-51.0288
-57.4188
-30.4214
-38.2595
-53.0616
-104.635
-119.443
-127.374
-156.77
-132.594
-18.192
125.073
202.737
224.722
244.106
214.492
44.569
-104.896
-151.432
-64.1935
81.6985
138.288
58.7412
-2.63412
-43.3422
-158.157
-250.245
-194.523
-54.5237
36.9984
88.6679
150.733
177.891
143.511
-0.303851
-147.616
-182.377
-138.556
-88.0781
-94.2681
-39.7178
47.4774
120.537
134.709
90.6853
144.679
186.677
133.969
92.0521
-6.34521
-123.315
-168.629
-210.351
-170.36
-89.3624
-102.893
-175.85
-130.265
6.63274
154.353
188.85
232.638
274.814
211.439
100.34
35.2499
-90.3315
-190.657
-117.978
14.6402
53.631
31.2983
-5.58539
-82.5987
-118.917
-134.769
-100.656
-23.9885
16.027
-26.4246
-48.1374
-100.644
-152.16
-156.603
-116.334
3.16513
169.133
254.235
245.762
243.931
292.045
181.834
51.4627
-18.7063
-71.4768
-103.369
-79.6421
-59.1851
-70.5154
-61.1146
-95.2901
-48.7553
112.501
138.123
41.9544
-48.9798
-33.4025
12.141
-12.0893
-91.9721
-231.829
-275.268
-244.557
-143.813
-7.03249
112.065
131.352
83.0697
52.0648
31.1148
96.5128
4.15327
-114.563
-51.9901
21.9317
52.3297
119.41
254.045
301.562
230.065
59.7612
-80.6216
-129.82
-152.76
-134.502
-85.743
-3.63753
72.5909
160.616
158.876
55.97
78.3322
7.85049
-176.726
-235.143
-213.167
-193.745
-258.878
-216.394
-58.8168
100.986
160.329
182.35
163.039
95.8889
39.6428
17.6272
25.4015
2.55478
26.0412
94.1629
92.204
18.3852
-42.5649
32.3365
89.6846
-2.22027
-108.692
-162.723
-161.688
-104.806
-22.4141
-32.4191
3.18217
46.61
14.7405
24.5406
154.39
250.254
165.159
26.2999
-15.9743
-0.391255
2.65691
-86.3751
-188.995
-234.849
-264.248
-301.403
-147.679
20.5381
95.0216
206.514
295.099
277.419
238.523
110.882
-94.1093
-224.39
-220.684
-184.13
-162.282
-70.062
141.563
248.67
242.485
172.419
152.56
137.401
75.1572
49.8223
8.22643
-67.3652
-146.809
-196.853
-197.541
-136.977
-138.81
-158.071
-82.686
-20.8404
-10.6991
56.9221
114.231
117.875
99.4288
78.138
63.8505
94.565
74.9171
-0.599091
-45.0178
-46.9318
-24.26
-56.7489
-147.174
-122.368
-54.8258
-21.309
9.78077
22.6734
31.5814
29.0015
-21.9575
-43.6289
10.7609
87.9322
118.49
97.2436
107.362
116.39
23.5024
-15.8221
-21.124
-16.5046
35.9917
29.228
-5.5888
-75.0008
-152.832
-166.569
-171.349
-108.837
-21.5956
23.9031
50.9783
68.7457
96.7432
53.2213
-97.4987
-155.694
-48.4135
95.9342
150.792
158.661
106.608
26.0773
-39.9884
-54.4101
28.0767
16.1839
-13.8844
7.94706
36.7239
-3.0467
-23.9506
-3.09221
-20.2509
-99.0406
-129.822
-32.5533
91.1032
95.7066
130.983
184.955
205.482
169.475
88.1722
27.1666
-119.219
-252.321
-260.428
-252.334
-199.409
-106.136
9.85042
27.5745
0.712549
27.6135
63.2173
20.3665
-21.4555
-44.1394
-37.4524
-32.3737
-42.906
-89.4937
-123.455
-85.0885
9.10619
100.619
141.745
172.074
165.275
124.088
55.222
-15.8214
-48.5172
3.16798
111.875
166.717
164.486
146.565
46.078
-36.7879
-105.154
-114.927
-92.5662
-14.6149
44.7193
75.8848
82.1736
52.5631
14.8245
-42.7679
-102.627
-137.691
-192.361
-189.149
-114.331
-42.9876
8.8645
55.0585
103.138
186.121
114.942
-68.4841
-126.913
-139.11
-165.159
-149.216
-49.4588
30.2219
40.0829
-10.2857
-40.8989
-47.6311
-17.7388
-73.3754
-151.205
-95.9683
60.3928
154.306
260.357
328.528
306.801
219.283
183.025
139.03
87.9198
30.0702
-69.3232
-150.022
-178.933
-140.268
-93.315
-96.3376
-146.509
-54.8866
69.3987
112.253
20.4559
-130.968
-254.37
-344.274
-255.452
-4.30829
123.231
183.518
213.691
184.547
130.313
49.6068
-27.6466
23.3092
-13.5186
74.8097
192.058
113.81
17.7813
19.2407
45.0767
47.2722
-64.2497
-85.1139
-60.2597
-68.3702
-93.5355
-135.25
-164.786
-134.906
-130.684
-134.446
-66.0755
-33.1506
68.5344
95.0861
123.321
168.077
155.32
54.1235
-7.74144
16.0475
69.8972
21.4061
-35.2618
-92.7354
-108.833
-53.0195
-8.6753
20.4883
171.427
244.776
175.667
47.9095
-23.3493
-77.903
-184.447
-196.797
-159.679
-145.367
-132.815
-84.2471
-14.6607
57.57
103.951
112.45
101.819
13.9839
-21.7497
4.24223
-28.1521
-17.8443
12.371
38.4676
55.095
73.817
118.322
146.012
157.027
94.3996
0.383014
-15.0313
-40.1648
-93.0009
-139.224
-66.2218
67.188
132.055
65.0731
-47.0894
-114.404
-165.69
-168.429
-125.155
-63.5881
8.45487
76.3772
45.2962
-42.6994
-33.6779
-54.1341
-132.342
-137.51
-78.467
-2.29559
3.32549
-4.5445
61.1525
90.7796
74.5669
93.0574
160.743
188.05
173.886
140.56
65.1457
36.7748
-12.0447
-5.43842
15.3935
52.1213
63.7147
-5.87025
-73.1931
-88.8201
-117.613
-209.775
-229.026
-124.897
-51.0662
-40.7222
-91.5639
-112.842
-51.49
24.2092
77.9003
110.803
183.477
220.431
151.23
47.9732
-47.3729
-60.0966
-27.9982
11.6934
61.946
117.097
124.415
65.5703
-76.803
-142.977
-143.469
-122.01
-65.958
-31.5056
-15.7687
12.8101
22.7891
26.1529
63.079
60.7546
27.8551
-26.8413
-52.4149
-27.1985
-24.2209
-9.91242
20.9286
-15.2102
25.6379
66.8087
86.2551
71.2911
-50.3528
-130.534
-142.735
-139.532
-74.4329
21.9989
115.236
119.69
103.874
107.399
28.8435
-50.7008
-59.4029
-77.0539
-96.4503
-36.5928
35.9041
56.5383
119.286
143.935
89.0209
-15.4016
-155.954
-250.879
-213.486
-132.535
40.5348
196.181
288.997
292.662
210.621
54.3875
-19.6854
-32.1089
-76.2362
-48.6301
-65.5133
-89.4756
-123.482
-103.254
-40.9568
-31.0512
-15.6494
48.2166
44.3821
2.63672
-100.138
-157.899
-173.348
-94.4449
10.6177
8.29192
-52.9122
-8.33176
60.9979
48.4026
76.6407
99.7351
110.015
110.389
51.9513
-12.9062
-1.06029
30.1449
17.3787
-33.7524
-81.5667
-42.6218
48.7861
6.6406
-29.4902
66.6698
139.873
83.4957
-2.43747
2.6119
97.1606
88.5026
28.7217
68.7771
148.223
109.357
-3.89368
-40.0054
-76.5207
-141.051
-190.049
-212.97
-221.279
-197.223
-196.375
-148.058
49.4097
198.901
190.546
71.3618
-80.2348
-133.669
-119.54
-97.6242
-27.5362
136.865
271.244
232.335
100.783
8.1203
-62.6541
-64.9136
-33.1189
17.1834
168.7
228.868
134.259
-4.87825
-108.786
-151.85
-184.107
-155.152
-78.7012
-18.0451
-22.9268
-10.4501
6.47148
-7.28138
17.5488
37.9214
-1.6339
-25.3949
-13.127
-5.9556
-53.0075
-64.8174
-37.7838
17.2297
138.095
215.068
222.845
190.392
87.4646
-20.0664
-75.7909
-107.807
-30.7697
93.6305
127.254
112.483
61.0614
-24.6676
-110.097
-202.486
-216.448
-201.066
-190.878
-135.884
-83.5012
-6.73134
76.8045
119.985
103.397
43.2898
-6.31865
1.68013
-20.9399
-98.1249
-138.046
-113.36
-19.0657
131.593
196.044
269.453
309.42
304.021
227.646
38.836
-185.131
-251.65
-209.942
-192.068
-156.346
-127.75
-85.0589
-74.8808
-120.482
-149.315
-85.2635
40.1114
147.052
165.589
168.759
185.64
130.846
52.8071
11.1106
80.1364
51.2679
-33.3403
-84.2856
-84.5471
-69.2132
-71.6877
-51.8161
43.3245
93.2707
105.113
87.4671
53.736
12.4585
-55.184
-123.58
-144.832
-114.282
-87.7735
-68.1031
-95.1493
1.16351
110.047
144.612
106.874
96.0244
96.4417
37.3837
-65.2713
-125.535
-79.3415
33.7968
78.7869
90.3896
26.001
-1.97552
28.5943
32.9932
3.7553
-67.4356
-115.943
-120.946
-151.197
-161.584
-74.1994
47.446
93.4617
94.6409
112.621
168.386
126.094
49.4903
62.8996
22.9049
-57.0171
-77.3957
-103.7
-84.2218
-99.3335
-104.691
-70.4712
36.7574
85.2452
106.458
84.5005
43.4799
16.4531
-27.4834
-75.6431
-74.0129
-88.4966
-124.233
-125.812
-82.0848
30.7846
146.669
164.882
93.732
99.1461
138.917
135.851
46.936
-12.4466
-40.3363
-20.8803
45.9668
-9.78621
-73.577
-64.0137
-89.911
-133.887
-57.9594
37.1331
118.241
63.9378
-43.3923
-94.8939
-106.866
-72.1146
-71.4564
-70.8016
8.88463
57.9043
78.2038
47.4122
-26.3093
10.2179
68.8875
86.6902
135.868
179.631
115.863
-54.9522
-170.917
-174.065
-241.729
-330.507
-225.668
-21.6444
168.388
274.109
319.176
369.964
281.188
106.681
-118.312
-257.592
-152.095
-68.8134
-61.4752
-20.6974
19.4589
20.5288
-10.4385
117.111
246.335
249.515
113.103
-73.9286
-203.572
-359.84
-562.057
-490.224
-319.439
-133.696
87.9361
271.3
295.271
261.984
157.519
111.677
107.069
45.4279
-53.7948
-153.229
-138.172
0.852076
164.078
266.67
353.763
406.52
296.411
118.611
32.643
-50.6348
-140.306
-184.95
-265.355
-366.968
-343.926
-243.292
-166.425
-86.762
-26.5189
12.5479
26.2379
-18.5579
-78.5833
-95.7967
-153.194
-89.9477
114.57
194.192
209.045
255.26
297.222
195.938
107.731
74.4361
25.9649
-15.3005
-68.0494
-101.934
-42.1536
-50.12
-130.968
-154.666
-118.783
-59.1546
97.1491
239.473
362.312
260.516
47.4306
-118.533
-199.652
-168.941
-127.482
-66.8034
10.5444
-17.1187
-74.5678
-110.149
-138.656
-101.538
-67.8356
-64.7377
-47.1728
-14.7121
-30.2581
-10.0865
72.1969
158.544
203.573
173.522
19.0067
-100.14
-28.1922
19.0196
8.34831
25.9291
142.646
220.496
179.939
111.204
119.842
67.8706
-35.2623
-144.112
-249.977
-318.538
-353.88
-388.072
-355.525
-139.33
83.5507
223.301
221.769
183.752
142.372
132.371
76.157
46.1733
92.4423
128.758
105.345
129.238
140.298
106.469
38.8237
15.0983
-6.97927
-65.2827
-90.037
-125.627
-36.5675
55.5444
19.8499
-23.2846
-66.3484
-53.3911
-117.253
-179.352
-244.817
-248.457
-141.646
-10.7466
53.2069
103.504
153.195
106.093
-30.0796
-67.9985
0.975964
18.6013
-21.8708
-27.065
-22.6734
25.7966
83.4444
56.6049
50.037
86.5178
122.647
139.803
70.2744
-35.244
-125.182
-154.814
-79.1143
-20.5909
23.0779
75.2415
50.0926
26.1455
54.127
111.207
143.913
-4.53335
-66.8032
14.233
21.2412
5.10738
24.139
41.306
10.695
3.73303
4.49525
-12.8154
-11.8686
-22.6855
-26.0634
-4.76398
-2.90498
-63.3214
-143.148
-223.323
-252.83
-119.768
51.3839
42.6125
24.635
46.5419
98.2986
27.267
-48.4748
-135.061
-120.071
-11.0479
32.4848
39.5172
-16.5331
-27.3127
96.9315
133.811
115.088
107.953
69.0847
42.91
-26.4792
-19.5994
45.9885
68.6411
102.328
137.877
131.976
91.8349
-42.2225
-152.749
-220.037
-239.587
-83.8638
84.7169
144.423
209.879
187.48
102.962
13.0862
-80.0565
-146.355
-198.693
-182.364
-135.51
-87.3756
-88.0173
-103.125
-140.563
-84.6302
16.2526
138.44
203.425
219.073
233.482
143.865
-50.5884
-250.805
-280.226
-92.1655
76.2608
129.108
151.341
103.296
12.3094
-85.2945
-105.351
16.5053
186.647
269.683
228.344
87.5205
-47.2562
-171.953
-301.4
-327.294
-219.627
-81.8565
64.7931
157.123
108.383
-10.7449
-62.9313
-73.9776
-45.5908
-32.1911
-5.48736
44.9639
122.552
166.746
107.927
-1.91479
-43.2854
-18.9784
1.95949
-5.98861
17.974
54.1552
33.6837
-35.7712
-36.9055
-26.4981
-9.6952
-16.5647
-57.3906
-45.9349
40.8138
83.7604
6.84412
-180.113
-220.474
-168.492
24.9248
207.321
334.286
329.625
255.262
153.184
-26.9759
-126.334
-98.9115
-27.5959
-67.1879
-111.801
-72.2718
-75.1875
-61.7128
-83.5446
-113.063
-42.9753
-17.5911
-9.55967
-68.1558
-146.365
-210.925
-157.507
-2.80747
81.025
172.504
215.708
154.811
65.7317
6.35845
-14.7582
46.6066
76.2418
1.4931
-27.0354
4.16726
0.502913
-83.2475
-5.39433
101.747
-0.347692
-55.725
28.425
68.5235
17.429
-46.424
-110.276
-40.2329
19.4129
20.931
43.9247
-33.9763
-43.218
17.9113
94.1769
161.873
212.468
219.621
94.1088
-44.3942
-58.0026
-56.1247
-123.176
-263.042
-250.491
-216.121
-132.526
-56.9635
9.13305
79.5835
70.5215
78.0797
109.609
109.418
5.67779
8.45753
29.676
-18.3992
-105.328
-75.4476
-50.6052
-101.14
-45.0509
23.5651
81.5226
115.198
93.0772
37.8317
43.7681
60.362
75.9768
25.6431
-5.29597
-46.6918
-48.0477
-61.4824
-58.7692
34.9798
143.936
76.1902
-3.60553
-95.4154
-202.566
-170.307
-92.3018
-3.35645
87.4749
99.8536
86.313
83.5277
79.2966
105.549
99.7325
82.6018
80.1897
25.6251
2.94767
5.04086
-6.26197
-26.8771
-86.7765
-120.489
-35.9985
3.55877
29.2018
-7.11131
-141.287
-189.961
-174.717
-147.451
-107.687
-60.2147
-13.9323
34.7642
31.4334
21.4953
85.4509
173.727
162.865
38.9921
-3.98002
18.7003
-113.09
-136.775
-53.8833
9.68406
61.4144
67.4451
43.1451
93.8551
97.625
98.5588
51.8779
-1.95896
-6.58843
-6.73101
-23.4654
-36.1721
-43.5009
-8.91405
59.5996
89.5271
77.1866
25.3096
31.6274
20.3423
-28.4409
-48.4911
-83.038
-74.7646
-16.0073
14.7076
89.8382
84.4313
57.4918
-35.8319
-148.62
-202.551
-163.374
-85.4043
-14.3486
0.500011
49.7342
84.9904
-10.2122
-70.9971
-3.96372
47.7724
65.3647
6.44784
24.3876
14.7007
-99.3078
-162.006
-114.888
38.6233
145.473
141.724
154.984
133.473
79.2876
47.6779
-23.7113
-90.8787
-130.749
-121.966
-72.1658
-8.97189
108.263
174.887
189.912
132.879
52.2239
-11.1874
-83.7903
-124.055
-201.467
-222.113
-165.953
-73.8241
-18.2947
32.5688
42.7985
69.2659
148.549
149.979
106.47
83.0437
0.264564
-152.787
-243.8
-209.809
-119.794
21.0138
142.778
235.086
252.849
203.136
74.8125
-45.4604
-89.7522
-35.2376
21.3205
-62.5928
-80.9318
8.90962
37.5848
24.103
63.0291
67.5772
-73.398
-90.5835
8.09805
12.5784
-55.1895
-119.946
-172.811
-106.936
-39.5135
-9.17401
32.303
37.6423
17.5958
32.4904
-16.1269
-22.9087
-43.5192
-71.5084
-92.0486
-58.7994
25.259
66.9417
40.0108
84.953
165.476
185.888
209.239
163.582
63.5964
0.75629
-63.8381
-116.27
-92.9101
12.6328
2.72155
-42.8074
-67.3461
-100.405
-104.467
-40.808
28.3444
94.1076
56.3821
-32.0196
-170.346
-237.046
-165.699
-82.871
56.4096
170.486
261.093
241.893
163.578
104.14
56.7596
-18.6268
-36.1665
-11.5954
31.1267
3.54723
28.5153
16.1622
-54.166
-122.598
-94.128
-94.6168
-94.9784
-185.941
-197.739
-151.91
-100.164
29.2531
158.199
165.053
113.554
95.8753
61.9724
-53.6559
-164.445
-218.628
-145.616
-53.0328
50.0069
162.471
304.94
358.987
280.944
163.176
35.4234
-29.5152
-85.3917
-165.638
-172.745
-195.613
-156.679
-108.81
-49.7223
71.545
124.047
164.026
129.762
54.4315
-13.867
-91.9786
-158.004
-122.457
-115.199
-110.709
-39.5603
45.0431
102.065
114.413
56.2588
49.9421
-23.0097
-76.7124
-5.7975
68.6265
124.651
148.343
79.1716
-55.5625
-97.8011
-104.484
-115.661
-74.3257
-7.34293
53.8292
58.7362
72.76
64.44
29.7819
27.6146
86.8643
183.184
202.48
88.9189
-39.3382
-132.688
-199.51
-192.584
-115.3
-67.1304
-31.184
-154.796
-249.034
-208.68
-134.797
-113.591
-107.783
-69.5017
27.5573
113.184
182.262
204.877
210.29
237.675
231.392
175.216
112.436
22.116
-0.358031
6.44602
-3.02798
59.4839
12.6345
-31.7935
11.4178
41.298
42.6107
12.6933
-43.1289
-93.9164
-144.24
-176.296
-197.803
-178.38
-136.342
-97.7978
-43.4189
-40.0596
-4.94547
20.9155
13.8767
75.3926
244.45
295.539
241.309
167.323
65.3588
7.53448
-56.7936
-95.9388
-86.7922
-43.9976
37.3703
34.2634
-14.8113
-52.3501
-85.3626
-96.4663
-223.83
-322.43
-193.773
-40.9081
19.5137
53.961
81.9361
127.998
80.4487
25.4335
59.5417
59.9664
-41.5072
-53.7032
19.4391
48.5297
101.745
127.808
111.164
86.6643
95.273
139.986
109.086
9.88012
-89.7307
-81.6871
-81.2488
-105.873
-71.502
-2.86526
18.0293
-18.936
-25.133
-46.2651
-65.105
-41.5873
-27.7755
-8.02894
10.4034
55.2647
76.8652
89.8956
19.6669
-23.4972
-45.8571
-70.6532
-81.9585
-126.185
-121.556
-89.3146
-94.5013
-6.58108
86.6596
116.694
97.9253
62.7247
15.9775
15.0639
78.9418
89.9058
49.5238
-6.60266
-21.5103
2.69038
4.79667
-182.639
-264.158
-36.7853
153.818
175.402
144.6
101.745
86.1412
65.9837
-17.0313
-90.99
-85.1226
-54.493
-98.733
-111.729
-39.3482
17.9224
44.2808
-5.76968
-63.4209
105.762
207.938
94.0826
-23.4311
-61.6274
-27.9194
-49.5604
-157.764
-147.369
-92.505
-41.6354
-23.0524
-43.0483
16.7746
64.0489
65.4251
108.463
93.3734
37.4531
35.1896
31.0179
49.2754
25.4164
-4.79544
-17.7273
29.1013
14.5443
3.9356
38.9588
61.7453
72.6761
112.599
131.4
48.6854
-18.8104
-92.5463
-118.066
-73.3489
-66.829
-105.445
-135.911
-136.005
-153.155
-116.441
-82.6427
-134.447
-155.309
-80.7639
64.3159
177.763
190.964
162.327
158.002
74.372
25.1724
78.5795
108.16
70.9437
47.2575
60.4869
76.3747
54.6308
10.1201
-55.2716
-91.9159
-62.5611
-34.1134
-16.1784
-53.7794
-144.468
-164.127
-137.204
-109.167
-11.7746
50.8184
37.0909
23.0794
-48.9924
-86.818
-106.649
-79.4199
-16.6714
52.4186
123.779
168.634
178.042
175.865
131.31
48.8704
0.648729
1.8293
-10.8105
-18.0003
44.2017
32.2884
59.4901
83.3871
102.625
61.7051
-2.86561
-84.3667
-127.613
-143.587
-165.606
-127.887
-56.7534
-48.2531
-68.5392
-81.6176
-132.361
-170.237
-59.2114
58.2282
102.197
185.344
246.411
152.383
113.245
134.154
195.696
189.543
67.3923
-64.081
-128.138
-139.43
-183.522
-177.757
-106.13
-116.879
-112.357
-112.532
-174.376
-196.652
-131.313
-78.0113
-75.7393
8.68649
34.491
72.2288
81.302
69.0459
98.8855
150.519
160.418
94.4963
92.8235
193.919
300.918
249.208
157.397
138.602
104.409
19.1526
-46.4585
-123.598
-177.771
-184.513
-144.275
-103.828
-70.1018
-30.3755
45.9835
58.0949
26.7974
-44.1036
-105.731
-113.356
-120.468
-52.4303
-1.09872
-30.2157
-25.0808
18.2895
3.48986
-3.36676
-32.9618
-37.9245
-44.5179
-47.1882
-7.34601
34.0488
37.8715
39.9844
34.9619
54.7527
106.618
89.2601
54.7759
63.6475
70.8558
49.6962
-30.3574
-116.696
-153.57
-99.2916
-58.7402
-14.651
32.4883
49.952
-24.7444
-156.55
-170.495
-114.038
17.9961
249.308
376.068
295.765
107.175
5.10414
12.5163
47.0829
11.9783
-22.0163
-40.2228
-68.8032
-152.81
-240.442
-204.772
-103.114
-17.7178
110.458
143.951
135.635
105.401
-21.6946
-205.952
-306.398
-245.779
-91.7517
10.5479
44.5191
99.4584
105.713
118.637
127.978
167.785
212.677
218.833
137.328
34.7313
-49.8738
-81.9594
-90.5487
-102.055
-119.856
-133.352
-20.5332
59.1852
37.8449
15.4883
54.0418
87.7047
67.7666
11.8296
6.94118
-29.2488
-86.4454
-121.692
-141.709
-130.48
-87.4963
-44.9065
12.3292
-22.2003
-44.3016
46.6199
101.54
104.65
36.4039
-43.4305
-38.1917
-26.8529
-13.4873
-36.9257
-85.3751
-42.8857
-25.2028
-18.1596
20.9528
79.8632
141.293
118.768
47.4779
41.783
55.3449
42.0773
26.9342
-9.97078
-19.0054
39.3306
25.0064
-24.824
23.2996
99.0076
95.1077
21.1564
-56.8007
-72.6921
-30.3858
-16.441
-50.0608
-56.6717
-49.461
-42.1955
-60.392
-103.731
-49.2401
25.7429
63.7496
30.9921
-21.739
-3.4525
-16.5241
-82.1141
-65.9805
-44.7783
-39.8006
2.7077
25.2476
76.2978
112.439
98.0244
185.563
250.616
198.861
63.3401
-97.4222
-192.595
-234.387
-275.462
-175.83
-101.592
-114.075
-93.3739
-45.0997
45.3182
162.956
213.541
240.05
239.632
114.044
-4.75835
-94.5282
-176.631
-207.911
-92.3371
-9.52807
-45.7828
-54.8303
20.7286
46.6728
20.6262
21.2094
109.654
141.68
124.04
124.822
166.055
144.347
24.322
-139.41
-208.446
-194.744
-147.423
-87.7314
-63.6469
1.08072
92.1066
130.534
96.1815
-9.74821
-50.5183
-24.5761
20.6145
65.7327
69.7829
-3.40981
-117.767
-185.304
-220.767
-146.658
-6.96785
76.4637
162.49
268.135
275.208
136.37
-12.9485
-120.736
-87.1963
-35.4293
-4.86925
-25.5523
-80.5812
-114.429
-100.118
-86.4444
-96.9206
-74.5271
18.9256
149.746
170.445
101.367
-0.213916
-95.7514
-128.155
-86.7651
38.7076
77.4152
102.752
111.129
82.3397
66.6608
16.0305
-68.7467
-12.1033
47.7977
4.40398
-42.3052
-58.6277
-27.9817
5.23658
-23.222
-21.4183
-85.0983
-154.966
-117.889
0.586937
153.69
199.904
144.356
73.9808
-13.0988
-44.5826
-23.7508
-51.7305
10.6756
73.6363
4.97648
-86.7172
-63.2846
13.7189
7.09572
-4.2993
64.2379
156.536
127.612
-15.7259
-149.568
-208.846
-167.456
-134.587
-25.0819
17.0295
4.26359
-4.12634
-39.0662
-17.9741
54.1094
126.745
96.3272
38.5184
-3.11314
-86.7495
-141.664
-122.896
-55.8572
40.6121
117.87
131.848
90.5076
76.3696
25.2095
-15.6811
-15.1455
24.5243
33.711
89.4854
171.965
172.44
94.6253
-28.185
-115.33
-50.1895
-5.1957
-41.9907
-40.2576
-46.3714
-56.3652
-121.091
-196.9
-188.855
-64.3336
109.256
227.826
169.038
79.3182
-41.5952
-145.228
-170.952
-171.176
-138.239
22.8812
54.3303
57.6165
78.3884
43.7267
2.70008
-34.9578
-25.9443
79.2033
117.129
73.5691
-33.4559
-91.5859
-80.8421
-105.75
-92.1997
14.8082
77.8334
154.51
220.446
232.505
171.683
35.2301
-41.4738
-22.0853
-40.4383
-66.3867
-100.356
-101.002
-55.1007
-41.9963
-47.2238
-70.5229
-28.753
71.047
98.0995
64.3513
-12.4388
-108.94
-88.4225
-113.009
-132.459
-83.2281
-67.2313
-16.462
100.334
129.895
89.6761
63.7219
52.5723
12.4578
15.9337
35.8694
40.7382
15.3438
-48.3132
-71.0022
-27.6616
-10.5705
9.32178
61.6199
99.877
110.022
122.67
69.7427
5.92129
-53.2423
-27.0373
-37.0773
-81.9552
-57.7632
-48.3831
-59.8013
-96.9993
-92.7625
15.4358
58.5824
22.5843
3.7258
-8.27454
-40.9935
-76.0997
-73.9864
-53.0504
-27.677
-38.9018
-8.78666
24.3937
40.4099
47.143
64.2246
62.2839
50.7019
62.5065
84.6111
16.8572
-32.294
-14.2687
12.3696
-32.9231
-85.3951
-58.5933
37.802
113.809
111.791
88.0437
64.4155
24.5785
7.93956
-4.6877
11.2943
20.5266
-5.08727
-21.459
-38.858
-71.2436
-132.37
-115.594
-61.0126
-38.9099
-0.320993
9.30461
9.61687
2.86148
-13.8573
-4.97447
-30.9137
-32.361
49.0395
96.8814
92.4919
89.5672
73.1366
-7.43593
-47.3325
-131.601
-132.157
-48.1256
20.4195
21.9863
-77.5358
-56.9719
-27.34
-25.7962
-1.02757
27.2403
81.3204
105.416
104.021
92.3024
41.8852
-33.0994
-68.8554
-58.5433
-7.93246
39.462
42.2427
3.38566
0.439849
64.8101
126.895
89.3518
26.9487
-63.9743
-87.8316
-62.54
-43.299
-30.6958
-78.6283
-68.5698
-34.6791
-25.1154
-14.9633
3.28335
-19.8847
13.5064
14.6812
-21.2006
-42.4843
-38.3615
8.97961
71.555
100.677
117.994
112.349
55.7164
51.3998
66.9183
1.70656
-62.7525
-109.258
-115.654
-80.2307
-61.0397
-108.854
-108.343
10.992
84.4168
107.375
51.2463
25.6281
33.9976
28.2801
7.58547
-18.5933
23.5308
25.8059
-9.45998
-51.9493
-46.3879
11.5703
27.1914
-9.44375
5.56516
16.402
4.84702
-25.0284
-41.3567
-46.4777
-27.9058
-30.3659
-41.4537
10.5774
18.9315
-17.87
-77.2326
-68.7282
-17.2747
41.1016
84.7642
106.384
114.489
115.483
84.6271
67.2245
69.003
14.9787
-8.62835
6.49796
-15.0312
-50.7281
-85.2324
-111.339
-74.7479
-39.0062
-22.958
17.4765
33.8798
24.7745
-4.24751
-51.2286
-76.6049
-54.3515
-37.2186
15.7758
77.8038
76.0491
72.9512
49.7611
-2.12528
-20.93
-36.0128
0.703259
10.75
-37.7284
-59.0037
-79.1261
-118.562
-128.941
-114.01
-15.0882
86.5545
131.724
147.007
123.24
61.8176
17.9093
-45.9725
-67.3116
-6.1774
31.8183
28.9301
11.0371
22.5628
38.8813
50.4825
25.9178
23.4226
86.0664
36.2933
-57.0717
-85.1152
-84.4785
-75.623
-61.293
-78.0046
-85.0813
-2.09858
43.4966
42.2977
53.833
60.4984
14.0816
-1.18091
2.01736
-8.82022
23.984
25.6261
-12.5703
-32.3442
-35.8897
-21.5706
-3.40383
12.1594
57.5761
68.9363
69.3718
30.0524
-6.65059
-28.728
-43.6156
-43.5249
5.17052
3.06762
17.7877
5.84368
-40.3441
-46.5594
-44.1927
-19.5933
47.7833
14.1268
-14.6034
-9.56298
-18.1902
3.94901
14.9472
15.2627
18.1075
13.3162
-10.2581
-17.853
-69.6793
-70.3731
-56.7491
-46.9489
-55.2941
-22.3361
7.85678
62.1877
68.4524
116.998
129.383
82.4389
21.1348
24.9206
5.41872
-19.5104
-40.6914
-28.4066
1.4613
-14.4193
-39.2827
-6.25463
11.8276
-29.4557
-25.8239
-29.8539
-46.6331
-23.9088
27.9974
27.3184
72.2706
27.4832
1.44424
11.5293
40.807
38.9948
30.8845
28.5246
49.3549
24.9813
-25.0672
-109.413
-190.088
-128.707
-58.8096
-46.6761
60.5565
84.3886
-7.33482
-113.703
-164.88
-105.959
-62.8021
2.27508
102.673
203.425
289.294
236.008
164.969
122.667
32.3972
-35.6815
-13.708
30.695
75.1787
31.0197
-79.0063
-178.346
-237.867
-180.543
-110.558
9.96655
70.714
19.4893
-74.6526
-122.243
-101.317
-71.8786
-91.7214
-61.3306
92.7553
196.537
148.701
-38.0791
-172.053
-161.227
-109.391
-58.3854
10.9639
125.218
218.275
236.833
203.715
198.725
155.612
-7.85656
-82.9208
-98.793
-40.9806
-11.0311
-12.1777
1.10763
48.3095
121.063
107.08
101.164
103.868
55.3455
10.7313
-106.607
-205.006
-236.821
-218.243
-198.355
-138.143
-17.0344
-27.6699
-65.4126
-144.201
-169.623
-105.565
-49.1458
-58.3898
-66.4352
33.2858
157.206
220.998
307.985
339.112
321.97
166.705
44.5146
-56.6613
-142.106
-112.788
-100.362
-67.4163
43.6926
74.535
82.7502
134.132
181.927
256.745
174.946
-30.8137
-177.534
-258.508
-259.62
-267.78
-236.542
-154.728
-153.277
-146.063
-86.6781
-8.32379
94.4689
132.37
110.056
208.378
175.253
-11.5267
-109.895
-103.838
-27.6703
11.5828
32.0214
40.19
-24.1278
-9.85095
33.2545
47.8411
-25.4334
4.4898
136.415
206.093
174.377
69.1184
-48.1502
-133.946
-67.5678
-17.9003
-11.8314
31.7478
62.9018
75.8154
-20.4916
-158.109
-154.22
-112.285
-58.9834
65.9649
231.828
266.417
161.749
40.3927
-27.9541
-88.6631
-82.1552
-88.9177
-135.473
-213.648
-256.496
-237.516
-138.098
-8.76995
95.9849
173.231
133.13
43.5323
49.7133
29.2563
33.8746
37.5968
11.7198
-13.4576
-34.7355
-52.4874
-67.0088
-69.5653
-23.2137
79.3099
191.908
195.765
187.452
149.563
125.62
76.902
21.1379
-62.4632
-155.099
-197.99
-205.309
-133.908
-70.7022
-133.031
-138.321
-37.0664
67.2245
139.689
151.153
89.9809
39.9636
-20.1584
-88.7212
-104.739
-68.2994
21.8565
105.314
148.909
131.037
153.876
141.42
37.979
-109.436
-141.496
-88.8836
-2.25555
59.7882
47.8531
48.8686
59.4532
-8.2343
-105.982
-115.733
-98.9827
-144.115
-140.765
-71.5204
-14.333
-32.178
-82.8851
-17.5255
118.083
103.444
33.1248
31.2679
27.6598
-55.3142
-90.6037
-109.739
-57.0014
43.4585
125.211
123.303
167.839
172.31
90.509
9.53209
-12.8894
48.331
93.0844
17.8316
-82.3006
-43.6691
27.9302
34.0922
-0.929518
-43.4138
-68.453
-106.034
-186.382
-177.652
-18.1057
53.2684
15.4014
22.2492
45.288
61.0294
81.8823
31.53
-3.74435
-23.4835
-64.1021
-47.7958
-9.71666
-11.6564
-0.794329
55.5003
83.383
65.4243
32.2025
-41.2222
-89.9643
-67.0698
-36.5466
10.5134
92.4816
110.964
80.1685
48.7772
-34.5908
-88.3781
-86.629
-40.0406
16.5917
-56.8443
-177.459
-137.515
-10.7018
75.6162
127.449
102.376
32.6713
-11.1174
-0.462252
52.3358
48.6567
-18.0714
-49.7656
-29.5925
-45.248
-32.737
80.4886
95.4966
81.7551
101.261
90.1421
-24.7803
-156.599
-141.64
5.44485
80.118
51.371
71.7805
72.3126
-0.749967
-73.4754
-72.3988
-69.1409
-62.5471
-48.8109
-35.7207
-45.6319
-8.63111
-51.9695
-99.8392
-88.8052
5.71374
32.4799
43.4048
27.442
29.6512
18.4642
-27.8288
-56.6
-69.5628
-88.2909
-67.8203
56.7069
209.056
377.81
381.424
247.992
173.892
58.8881
-60.7576
-73.1714
-92.5346
-96.3135
-112.038
-194.624
-251.59
-148.16
-73.9839
-55.2512
-22.7527
43.991
86.5322
31.2212
-72.1221
-156.226
-195.535
-215.427
-188.033
-88.9174
-0.909542
51.0824
133.942
258.505
354.77
327.198
306.93
221.652
83.3669
-33.536
-97.1126
-39.9994
-2.53003
-28.2232
-83.0751
-181.285
-230.758
-236.403
-226.115
-92.944
90.0573
142.323
51.8468
-44.1502
-125.797
-109.071
-52.8701
-15.63
79.7285
138.875
199.503
188.92
158.696
69.4834
50.4352
45.2805
-36.5373
8.87729
37.8986
-49.1914
-86.3004
-79.1202
-41.6163
-10.5821
-7.89065
9.97936
34.982
-14.7926
-59.7987
-80.4522
-164.593
-237.786
-212.915
-117.429
-17.9961
164.827
330.226
328.296
161.917
3.77973
-84.3007
-113.034
-9.81739
115.976
161.295
140.529
41.4218
-20.1507
-59.5239
-113.276
-90.9478
-58.0453
-101.5
-87.0736
-108.65
-142.968
-98.3075
-46.2011
-19.6099
2.57518
58.997
73.1889
46.5598
-30.2187
-51.8349
-21.6562
-34.3692
-48.9696
-8.51439
131.698
189.106
152.957
120.967
152.374
123.944
4.91299
-89.5932
-52.7085
-10.4
-5.58769
-0.0397896
56.8875
63.784
54.9499
7.73839
-28.1187
-37.085
-83.0611
-149.523
-217.844
-207.111
-149.224
-50.0046
95.5359
137.268
121.791
135.221
72.9357
18.2323
-0.431906
-53.5645
-123.446
-97.05
-75.1172
-60.9043
-30.8609
34.367
100.02
148.887
126.863
66.9932
51.2254
3.29216
-94.9674
-94.9574
-58.9828
-57.1616
-56.46
-14.387
25.0388
87.0263
68.0758
-24.4633
-54.6214
-14.7307
37.6206
55.5275
39.9736
72.166
-16.6537
-67.6911
7.29009
54.4314
-32.2125
-84.6798
-80.1754
3.46807
30.0807
39.7038
23.2594
-12.9131
4.67377
1.43789
-27.6738
47.2271
42.6435
-1.8498
-36.6201
-78.7206
10.6517
105.127
119.45
211.466
288.699
234.248
81.747
-85.1957
-195.608
-226.904
-189.111
-233.822
-143.714
-103.152
-163.424
-183.585
-124.302
-34.9919
46.429
56.2233
61.6788
59.6577
28.9579
-42.4717
-97.4501
-126.193
-91.7182
-25.0271
55.5971
183.768
279.819
374.244
291.476
221.741
194.143
103.88
-7.31319
-91.5158
-121.112
-111.093
-68.2753
-40.3855
-67.4225
-125.762
-228.972
-217.463
-13.4748
93.7322
113.504
114.517
100.358
14.8657
-32.9953
-51.8362
-77.6165
-133.581
-129.137
-35.5185
-45.569
-70.439
-48.161
60.1911
178.706
222.529
230.83
195.012
88.6528
15.2795
-61.359
-164.557
-196.264
-154.141
-93.7873
-106.82
-79.6738
2.6036
19.349
3.60742
49.7384
55.4942
23.027
-51.71
-114.245
-89.3622
-55.0761
-26.6103
-41.6631
-67.7353
-33.2771
48.9522
123.51
128.851
78.0707
85.8016
110.289
104.461
118.849
74.6511
31.9501
78.274
96.9052
70.4378
12.3376
-104.327
-163.874
-125.822
-45.5474
92.2721
98.0273
53.6924
84.2329
41.7603
-76.6587
-144.787
-158.688
-165.495
-156.081
-74.794
55.5842
164.305
213.671
174.504
118.06
58.9677
-3.87513
-101.482
-150.291
-244.175
-211.781
-145.466
-133.77
-118.737
-40.8196
37.1391
86.5524
76.7268
75.8969
30.974
-8.64095
-57.3966
-85.5521
-93.1004
-63.2678
17.4462
103.572
170.296
177.238
157.461
108.629
47.6672
4.19585
-4.47804
49.7818
85.7744
77.1921
77.0909
70.4209
50.8417
-13.4917
-35.9926
22.1799
19.7123
-25.9091
-36.2948
0.236759
-20.3393
-57.4023
-83.3612
-79.4934
-35.223
-59.8229
-64.7677
-40.4418
-11.0323
8.4433
6.01411
-24.8783
-56.3406
-121.701
-166.146
-179.351
-128.466
-76.7811
-92.9273
-107.102
-14.0214
102.822
172.319
165.833
123.767
142.446
173.378
132.569
128.01
128.875
136.232
120.851
69.6497
57.3152
35.6731
-29.0701
-60.6969
-110.666
-139.817
-115.76
-79.1933
-113.728
-120.03
-120.134
-139.629
-145.929
-140.878
-75.7798
-39.9794
8.21311
43.176
103.074
131.245
119.438
126.741
38.5662
-23.6924
2.49604
77.0394
113.24
127.27
147.43
103.792
81.4193
55.7331
-5.57987
-33.9898
-75.4911
-104.025
-124.004
-150.92
-142.939
-109.494
-75.8089
-72.7721
-2.2921
47.5943
47.7371
12.8796
22.239
35.9001
24.4456
19.7401
-33.2844
-29.0653
43.528
75.1782
137.394
114.522
86.0386
77.6288
21.8995
-41.8081
-53.6444
-115.655
-163.106
-117.461
-103.176
-37.9635
29.685
48.8413
52.1553
31.3107
13.4607
56.601
36.7963
53.5519
17.2228
-5.01177
-32.7941
-72.897
-77.2821
-47.1664
6.07905
92.5728
144.397
109.892
54.1921
-44.4984
-115.563
-82.1233
-83.4477
-107.978
-122.615
-125.342
-55.903
15.4646
17.6641
-19.6279
38.7671
186.515
206.834
170.483
148.747
54.4139
-44.4963
-103.246
-90.0146
37.0365
38.8451
-23.6578
-24.5421
51.657
151.758
144.938
74.8865
-68.034
-107.398
-63.3534
-104.246
-185.408
-214.226
-194.028
-129.367
-31.4149
36.5001
92.3349
109.163
52.5893
32.9039
-12.4908
-45.7462
-47.8558
-57.0498
25.8054
83.1296
67.1568
82.2058
96.8528
99.821
89.1556
106.874
129.969
79.6908
-13.0514
-60.6118
-38.9449
-28.805
-38.4099
-71.8802
-56.7073
-67.7472
-75.5236
-19.7224
-29.48
-40.4427
4.28619
5.69082
22.9889
-27.9452
-108.597
-145.04
-105.182
-53.5308
52.3425
170.286
237.807
303.14
164.478
4.9687
-146.365
-200.101
-136.655
-59.3797
-60.5545
-7.27233
132.839
107.82
-10.1388
-52.7242
-50.2148
-10.1252
0.280322
-8.9314
-40.3372
-40.9322
-65.4783
-116.028
-91.4609
-28.9144
42.3753
78.1515
70.475
117.204
116.399
36.6166
-39.5343
-50.144
-61.6784
-52.104
0.0209221
86.2707
104.306
120.682
116.776
60.2226
-5.57837
-83.2708
-81.8215
41.3054
142.496
106.261
40.9145
-49.278
-81.6562
-100.857
-130.699
-117.512
-55.2669
31.1779
3.09973
-123.975
-154.461
-79.0156
-15.3742
39.1345
19.5239
11.4206
76.8652
67.5241
42.8437
70.4662
44.9682
8.24272
-10.0088
-12.2551
-10.9239
-40.6265
-84.6336
-70.9358
14.4786
90.8406
92.8855
129.505
214.312
170.55
15.4369
-32.1995
-18.3637
-45.4214
-107.696
-85.2073
-89.641
-88.2891
-74.3908
-54.0975
-41.8254
-15.7236
41.7596
73.7463
33.9128
-41.7022
-96.0196
-159.628
-184.787
-133.683
-5.07246
62.1379
59.6141
87.4151
25.5633
-29.0945
25.4395
100.364
150.124
155.311
115.494
95.5007
148.734
144.827
95.2122
84.969
85.8301
12.9212
-96.0789
-173.728
-196.82
-142.482
-112.541
-104.856
-39.888
24.2949
28.1734
-26.5474
-58.6742
-21.8349
0.028167
49.7288
53.2193
38.3383
5.29865
-51.6875
-60.2211
-31.3846
-73.8612
-48.651
24.602
19.0312
24.1327
11.4504
46.4915
45.506
49.6633
40.288
29.5197
-8.67371
-17.7713
-5.97844
-29.13
-61.5908
-30.7441
47.1188
58.7961
-38.4215
-78.4002
-99.0585
-67.0787
-11.9757
9.62921
66.4432
76.6463
32.677
14.0536
55.9156
55.8716
42.2249
43.7365
99.7566
141.12
43.9722
-18.9982
-41.4008
-27.8993
1.33249
8.7801
8.31808
-47.435
-151.768
-146.084
-100.662
-79.7905
-34.2477
20.3237
39.0485
3.96222
22.6679
19.6134
-36.958
-77.8198
-12.6422
73.566
126.238
113.961
50.1718
88.7135
107.27
-30.8225
-97.8686
-88.2069
-41.325
52.123
153.827
194.431
169.554
156.405
53.0452
-62.3569
-176.052
-217.631
-196.582
-213.006
-208.503
-147.062
-87.8606
-60.7582
-27.4503
80.9919
144.045
78.0872
-42.2845
-64.2431
-85.4685
-89.2082
-63.6937
4.24267
62.2146
73.873
50.4823
99.8422
109.956
89.4027
65.5367
84.6663
109.404
79.9716
59.743
111.644
107.672
58.3264
-25.3592
-116.058
-120.927
-112.435
-127.437
-157.768
-99.5862
-4.02227
64.8391
58.1194
74.5773
111.398
102.226
36.8297
2.21132
-3.33781
-20.2974
-36.3991
-14.0144
33.3822
80.1432
44.3576
-49.5653
-94.4273
-78.7005
-73.709
-75.6557
-54.5831
-13.3582
1.27229
6.27747
-11.7662
-20.1953
6.28246
17.6162
13.9923
-1.85793
-17.4181
-9.55252
-19.0694
8.83736
75.4088
83.797
54.7107
21.6488
-9.72557
-64.8705
-95.1052
-60.3379
-26.3697
-42.9079
-24.6219
20.9413
70.3365
117.891
130.942
90.5754
86.5816
61.3441
13.0981
-35.4739
-90.0687
-124.243
-149.092
-149.461
-45.7379
72.22
123.959
128.193
95.3947
60.3813
-8.77807
-83.2976
-123.459
-94.0122
-81.3488
-38.3339
-33.7412
-1.58429
52.7377
66.6513
77.6223
141.647
124.769
87.4341
11.8526
-60.2167
-69.5996
-126.014
-169.253
-75.5961
-47.0448
-28.9013
-38.8751
-75.4311
-70.2398
-64.4987
-31.8104
36.9283
130.243
197.329
196.418
182.245
160.263
91.4232
-0.307251
-62.5375
33.7028
72.9251
25.913
-60.5729
-57.5436
-51.2778
-60.2779
-92.5241
-146.646
-109.679
-73.1807
-97.4893
-101.152
-84.1971
-91.2691
-165.932
-146.966
-78.2828
-0.0928343
141.227
135.484
182.537
245.964
236.188
205.872
149.872
65.1049
81.6904
58.4872
-6.86043
-63.7802
-79.4878
-89.2885
-103.067
-90.2699
6.86014
8.49475
-3.19898
2.11934
-44.6011
-87.7124
-107.96
-125.573
-68.301
-39.2617
-1.88021
-1.16117
-67.1722
-33.1664
29.0135
2.34908
-27.7119
74.5126
126.541
118.943
104.708
108.154
73.2617
-1.95875
-118.938
-128.934
-103.585
-56.2453
0.0133123
117.489
192.294
220.918
144.852
108.543
47.5335
-11.3597
-41.8069
-124.117
-171.481
-206.191
-216.571
-139.882
-101.148
-50.05
-14.6166
-51.9285
-70.1801
-82.7026
-128.757
-85.0198
-37.7522
-5.76229
74.2381
110.938
127.563
151.261
147.167
84.815
100.65
117.154
130.618
122.256
146.206
158.649
151.333
123.231
53.8936
35.6248
-11.1732
-108.76
-167.551
-163.286
-134.361
-128.459
-134.213
-121.979
-52.7913
-66.3946
-114.134
-83.4841
-72.7896
-104.66
-120.125
-33.4406
87.829
168.587
205.57
189.187
179.29
123.071
17.2469
-36.0435
-26.3852
-32.5096
-23.353
4.40889
-3.08683
7.90663
17.2276
22.0784
25.7186
-14.5298
-3.21069
-31.9149
-124.554
-188.549
-177.348
-127.546
-78.5014
-71.3775
-24.0209
-2.95481
-32.9854
-50.405
-27.2942
-17.1471
-9.10868
31.8816
96.55
179.924
285.718
338.092
303.207
185.382
99.6337
149.627
103.125
-62.3945
-189.035
-203.261
-173.207
-144.737
-104.367
-55.5571
4.2083
-5.34174
-40.955
-52.2955
-70.1045
-118.328
-186.033
-168.588
-147.829
-33.2686
54.7025
72.8295
124.688
192.563
172.434
113.308
36.815
21.0442
-14.6928
-44.222
-87.7875
-53.9552
-6.14068
28.5
54.4698
64.4742
0.707075
-46.0971
-60.281
-116.569
-152.987
-160.976
-85.8905
4.10967
180.308
280.021
309.833
301.807
321.169
276.231
154.266
40.659
-41.7184
-67.5656
-150.704
-214.037
-215.872
-190.981
-174.909
-187.513
-124.931
-144.333
-173.533
-170.035
-176.891
-155.83
-97.0708
-35.2257
36.2168
69.0204
105.057
117.819
96.6967
96.4692
110.614
119.017
181.136
168.537
111.437
71.5101
35.1285
23.441
10.6754
-9.56313
32.531
8.5746
-49.9181
-113.574
-134.205
-88.7586
-52.0664
-26.3172
10.3906
62.6703
79.119
12.1214
-51.5918
-6.64276
73.5901
114.491
49.7328
4.73032
13.0991
37.4399
-1.414
19.4992
79.3161
48.5495
-22.4823
-71.8647
-135.215
-98.5214
-5.08846
-44.7384
-61.6919
-12.2707
-14.7881
-57.3622
-96.5233
-127.656
-122.575
-171.656
-165.478
-108.893
-67.4407
-23.6694
17.2684
89.3451
199.536
216.908
158.682
141.039
151.486
171.583
135.139
72.0559
50.8823
35.5619
25.4677
63.142
129.452
207.587
152.662
30.4076
-105.322
-135.123
-108.347
-159.514
-209.542
-162.92
-106.909
-86.6977
-115.507
-107.334
-44.8072
21.788
61.4522
90.0032
122.479
71.2177
-14.457
8.85671
43.4603
14.3236
-38.553
-113.517
-182.925
-166.055
-183.581
-148.564
2.33018
41.6236
31.1034
16.7825
15.7794
18.2567
-14.3913
-9.88655
30.9968
91.2291
116.113
103.866
88.3404
134.776
181.034
151.831
48.4947
17.7349
59.7983
46.6327
-89.5501
-249.483
-355.189
-303.312
-107.094
76.9255
234.401
397.705
394.75
304.097
177.604
5.61503
-131.671
-229.261
-217.743
-104.338
21.3157
117.338
152.005
175.442
222.234
189.369
62.4148
-105.017
-230.879
-367.343
-437.842
-436.398
-397.609
-343.661
-315.765
-239.323
-155.484
-3.69555
121.965
199.496
223.962
151.92
72.8742
80.9047
123.672
221.658
302.498
327.269
230.812
134.731
60.2388
-6.30792
47.5855
93.6675
174.721
201.191
183.487
104.422
5.12734
-102.931
-143.775
-82.9664
-97.053
-150.96
-174.245
-157.586
-113.685
-132.152
-114.235
40.1237
80.0122
19.9322
-47.7602
-36.0658
36.8173
6.60479
-16.3163
-36.2504
-40.5726
-109.113
-129.581
-89.6034
-72.3437
-113.028
-204.9
-305.882
-204.43
38.2658
68.6984
0.149106
-70.4157
-102.983
-74.6175
3.08163
78.6932
221.127
321.458
347.24
252.656
217.808
226.738
90.4054
80.7745
152.983
228.035
294.017
272.683
151.736
97.4116
52.4523
33.9053
-21.9132
-64.865
-99.5893
-144.089
-206.057
-248.123
-297.617
-278.692
-222.711
-255.201
-299.469
-155.491
-49.8848
-148.158
-285.524
-274.275
-159.538
-15.4287
59.2565
182.079
223.212
141.793
85.4472
28.0556
-7.26841
28.0237
117.416
190.228
220.183
256.606
304.548
132.72
5.46513
119.735
165.184
77.0156
-18.8539
-30.8446
-26.4439
-84.2921
-156.823
-166.726
-46.7762
13.3987
-18.5491
-109.075
-146.492
-123.907
-76.5538
-69.761
0.78946
75.912
60.6192
54.1754
113.135
112.977
38.958
-31.0737
-82.5173
-177.366
-154.187
-73.8528
-63.5045
-60.5717
-21.2749
38.5005
28.8825
-18.1658
-87.5669
-80.7645
-27.5607
19.492
80.9148
66.9456
132.396
171.512
144.537
15.4663
-2.07857
81.9063
99.3825
72.2501
-40.6533
-115.13
-84.9882
-64.7698
-20.0643
18.7344
94.2758
175.657
202.833
106.298
31.1042
19.9688
80.1727
82.5661
8.41068
-73.4557
-179.687
-221.792
-137.964
-68.6303
-1.5997
2.32502
-113.742
-248.497
-249.693
-169.54
-88.4646
-45.9376
27.7618
68.7839
29.8338
-22.1609
14.102
26.3731
12.3467
85.6887
147.808
110.377
0.314734
-30.866
-5.3647
72.111
139.804
195.774
253.597
190.212
91.7067
25.6661
-40.378
-23.8921
-5.8655
20.7307
34.4994
36.5543
5.48256
-55.9494
-114.092
-142.975
-136.66
-74.6408
-52.5102
13.7234
48.5343
53.9261
-9.40016
-35.4503
-82.2816
-168.033
-216.666
-232.436
-163.692
-115.661
-136.956
-122.255
-8.6508
117.819
226.576
306.388
328.786
281.363
194.766
69.6009
7.56061
-32.4583
-40.5489
22.1949
30.5988
64.6171
28.661
-47.258
-171.005
-190.312
-149.72
-82.9204
-33.2467
5.44818
-52.0957
-42.2507
12.2876
18.0727
9.7816
9.82657
78.2826
139.236
76.7964
-55.4973
-142.236
-156.862
-112.18
-72.1657
-21.4374
85.084
186.486
209.82
143.819
27.0804
-7.77574
-32.4278
-56.6824
-64.8406
11.369
31.9156
-0.856445
48.8068
95.0758
32.4681
14.3784
-10.7321
11.589
52.37
98.1304
73.0616
-16.4314
-97.6396
-137.503
-126.862
-43.2649
3.83654
-1.80258
-62.6965
-175.665
-200.465
-147.755
-113.093
-88.1465
-13.0227
71.6911
91.9833
177.087
297.166
340.076
277.135
145.256
50.2097
13.4342
-42.3654
-159.637
-352.738
-431.294
-306.807
-134.781
-57.2771
-62.2244
-45.6736
9.53553
108.68
198.613
265.754
194.132
93.6965
30.4135
-14.8862
42.9778
30.9153
12.8338
-17.1645
-6.52231
121.947
229.899
160.277
93.5985
41.776
-2.53024
-49.2488
-41.6315
-22.1087
-14.1274
-30.9982
-50.4891
-149.657
-232.709
-198.58
-208.709
-197.002
-163.239
-32.1346
53.2086
82.979
118.367
128.423
85.0318
61.2919
49.2815
54.4684
41.792
-26.3764
-148.151
-175.029
-163.18
-57.798
32.161
22.1995
71.3785
117.398
109.586
96.7821
143.674
192.787
179.915
118.463
11.8704
21.1365
64.009
-6.5447
-75.0272
-69.0125
-39.6947
-76.701
-115.203
-136.061
-71.1159
-6.57745
-55.7901
-88.2746
-40.7737
11.6044
3.45098
-28.9752
-31.9748
-40.1624
-65.5471
-81.3277
-110.069
-91.4135
-36.4152
5.69592
71.1849
103.832
118.581
70.8565
-36.1377
-60.1863
-7.94519
91.3167
215.921
205.929
177.974
140.774
40.5368
-10.1823
2.0339
-17.5403
17.8918
69.2891
54.5201
-4.19219
-114.915
-199.634
-199.949
-112.429
-9.53446
30.1586
57.5781
106.336
-2.0805
-54.9987
-90.9843
-51.5975
-71.0876
-107.591
-64.8953
3.93267
45.8651
42.4651
21.067
30.543
28.7544
-1.02633
-18.145
-66.3634
-90.8174
-114.172
-91.7608
-84.9888
-57.0284
31.4335
160.4
152.148
167.965
171.488
77.1539
-32.0804
-93.4574
-83.2119
-65.1756
-23.6898
63.7364
150.494
123.234
153.769
170.499
166.369
55.5209
-2.71693
-15.3395
-144.02
-243.131
-206.09
-123.359
-70.8791
-37.2647
-26.2128
6.05898
-19.792
-18.0386
-36.9894
-54.273
-73.693
-68.882
-46.6619
26.3448
66.5553
116.346
96.7915
74.9091
79.2662
30.8499
-37.6248
-69.9057
-55.8474
36.0181
61.8412
11.4211
48.0218
53.3551
0.364522
-33.4519
-9.68167
51.7837
63.8016
-7.41047
-60.9905
-59.8369
-44.7194
-33.9665
-32.2205
-10.9864
68.5164
55.5721
59.7805
58.29
64.7789
20.0289
-51.4061
-122.734
-75.1371
41.0043
85.6791
44.8931
-0.900398
-61.9258
-93.734
-61.7629
-52.5297
-12.8861
34.012
57.2147
26.805
4.83123
-61.5977
-121.074
-112.351
-67.5254
8.19728
64.7353
94.7874
69.5977
54.4734
17.2717
-87.8217
-73.149
3.91282
4.31855
23.1511
65.2592
131.202
163.753
139.636
73.9858
28.1212
72.9337
27.5063
-14.4646
-19.8752
-34.247
-105.137
-189.005
-218.555
-150.447
-44.8951
-3.90733
-5.91812
-63.9947
-125.647
-80.8858
34.4493
65.4449
-24.728
7.32018
86.3094
42.6179
62.7454
96.8769
95.95
104.549
66.7599
125.617
137.1
59.5779
29.8478
75.7546
76.7884
16.7089
-55.4748
-113.939
-206.304
-196.451
-191.156
-154.245
-42.6262
52.5585
96.2039
53.9565
-93.7244
-91.6379
26.4201
73.7938
105.738
82.1941
71.5433
61.41
-42.105
-34.4531
30.6461
3.91363
-21.1265
-18.8328
60.3814
88.9431
-30.6266
-161.09
-179.902
-101.266
40.6559
87.4152
90.1219
43.9188
-15.0757
34.744
36.9025
-59.1788
-36.9836
3.32399
76.8169
125.518
109.5
83.8698
103.195
32.6377
-27.7366
-48.2001
-34.9864
-46.6977
-17.0251
-20.5512
-39.5034
-79.6656
-152.149
-148.219
-110.442
-63.818
-27.5045
-93.8116
-159.592
-149.059
-61.4705
4.30269
26.5782
84.9005
149.472
210.896
241.297
242.475
134.106
5.89933
-110.354
-94.5545
18.6998
28.7453
62.2221
106.171
110.086
156.192
151.654
87.59
-35.2411
-149.615
-185.867
-254.782
-199.695
-135.026
-137.157
-127.734
-109.986
-32.8016
70.6598
81.164
123.4
113.952
92.7902
78.402
119.442
148.092
97.6443
-13.0107
-23.8147
-40.9106
-47.0999
-43.7955
-91.2891
-128.145
-102.351
-29.9196
75.7892
101.716
84.2968
7.38765
-8.90874
9.63975
-51.9514
-133.245
-104.73
-81.5283
-41.3346
26.0691
28.9378
49.7932
72.0649
79.5201
75.2446
97.1085
113.755
72.6177
28.3231
-15.6929
-92.7116
-82.6111
-83.9794
-84.9575
13.763
25.5713
-88.3671
-145.048
-93.4772
-51.3564
-34.716
-43.7277
-7.41285
105.264
243.068
192.013
89.579
19.0599
-47.9973
-99.1955
-92.5629
-74.0037
-22.7151
9.85656
-7.9693
73.3329
139.879
143.113
70.9441
-23.8773
-42.0325
-101.624
-107.578
-71.712
-74.956
35.3539
81.0299
39.3625
91.2013
104.11
101.567
100.133
20.1382
-3.90021
-40.0246
-67.1887
-62.732
-87.0167
-90.0367
-58.5477
-75.0749
-16.7171
-13.2998
-4.16406
-57.0596
-110.693
-158.8
-128.545
-135.673
-82.5446
35.3547
121.329
115.572
129.33
64.7119
12.9624
-1.49286
63.0903
102.46
90.8829
108.334
139.907
80.6115
-16.5704
-33.2348
5.7291
44.8097
67.917
59.4132
92.5086
83.2295
49.3646
29.0161
-26.6186
-19.2475
-66.1956
-150.326
-195.928
-144.791
-119.665
-168.902
-148.12
-35.0829
50.1825
61.4899
-2.8374
-82.2863
-77.8155
-25.0932
-67.9942
-99.1774
-99.8302
-78.0543
-39.9578
35.2082
95.478
161.357
220.241
193.426
181.751
195.872
201.838
99.877
-48.8898
-46.2206
15.6181
84.8004
69.4532
-20.8623
-97.6046
-133.868
-118.855
-53.5947
-51.7824
-43.0828
64.5293
112.174
23.5684
-107.275
-152.801
-93.4629
-58.7701
-47.1129
26.3928
64.4132
48.1377
-21.6068
-134.588
-108.93
-52.8104
-45.4751
-62.3409
-66.5544
-18.8003
25.9221
-11.5854
23.0343
112.622
191.718
224.842
202.321
124.573
40.7915
-16.0845
-93.1134
-116.878
-17.9871
66.5688
75.988
57.6743
57.2864
72.2123
28.5817
-46.9377
-32.7825
-64.3448
-107.808
-132.157
-154.41
-130.276
-98.6024
-107.124
-70.6885
-3.42783
23.2118
48.8973
16.6508
16.501
-5.44464
-11.6897
-37.7684
-61.7748
-21.6994
72.857
112.532
137.792
118.283
26.1284
42.2848
76.1841
53.853
43.9937
41.8195
19.9782
-1.61731
-78.9135
-56.4826
48.4149
114.559
127.58
80.2917
38.96
5.99435
-36.8743
-122.857
-219.172
-200.464
-126.89
-95.5194
-88.5022
-67.9211
-60.9097
-60.1946
-39.275
81.7145
115.23
81.1919
66.7398
83.0181
109.203
123.186
139.392
162.168
130.873
40.5592
-2.39069
-46.5242
-117.192
-270.569
-330.173
-218.091
-119.313
-9.14949
92.1806
123.615
117.178
53.341
0.742686
13.749
48.3853
115.311
36.2081
-78.2481
-52.463
24.7193
47.8375
47.0125
27.4781
52.7877
96.0674
55.4736
36.0896
-7.58769
-94.9845
-135.968
-41.2737
66.1875
80.8675
2.70183
-26.393
-40.4796
-13.2867
15.1712
-62.0148
-173.198
-145.971
-106.21
-17.1793
75.6717
61.1184
26.25
27.332
22.8143
42.5329
40.9869
-12.3996
-2.89024
25.1416
21.9791
-23.8912
-86.8468
-95.9737
-87.3145
-19.0973
92.1954
168.282
183.89
189.445
191.247
188.687
67.3029
26.157
21.5998
-50.3656
-137.421
-173.65
-202.067
-223.717
-180.675
-125.205
-58.1587
9.7035
61.6619
65.9479
21.5164
-24.8247
-45.4887
-34.1558
-48.276
-20.7021
35.7485
4.9991
45.6633
53.6478
58.744
95.5811
101.621
121.939
71.9826
49.5955
47.3097
-17.022
-5.15076
11.7174
10.1949
-15.9579
-67.4842
-39.2038
19.3876
-17.6283
-73.4799
35.1596
65.6877
34.2714
-26.2121
-41.7705
-38.4808
-4.71994
21.8007
-16.4214
-47.9822
-45.0804
-81.1471
-89.6527
-100.554
-83.7151
-46.2086
-33.4773
14.6693
88.3421
164.835
105.771
16.5419
-12.1332
-40.1615
-84.3693
-73.75
-95.1026
-8.93846
26.1328
49.4649
113.086
116.322
82.3912
51.3607
12.3952
8.85207
2.90062
20.954
20.9785
20.1826
-1.75726
-22.5866
6.06207
87.7067
116.992
69.2362
12.3788
-57.1163
-61.9014
-81.8214
-80.7454
-15.5264
-79.0605
-107.075
-62.3627
-31.9787
0.252557
-22.1717
-37.7294
-27.7838
-82.7784
-108.983
-99.402
-78.5853
-34.3176
3.82752
8.92456
60.5828
196.975
219.086
171.115
74.1658
59.525
77.2428
69.7853
20.8621
-9.64801
-39.1175
-19.3694
-8.10367
19.5436
40.4958
23.3018
-46.3526
-75.3633
-35.0789
13.7968
-49.2301
-137.619
-126.099
-82.0645
-63.3485
-71.8526
-0.925057
27.9813
-12.1395
-14.6016
-6.2094
-18.6049
6.09977
82.6715
199.038
264.45
239.824
55.9624
-185.403
-292.579
-212.391
-109.525
-19.0924
91.1155
140.822
177.873
156.194
155.803
203.213
99.5646
-63.3921
-160.757
-159.221
-125.234
-110.189
-102.268
-113.544
-87.8479
-35.16
-38.4751
-62.9312
-44.5727
-7.3002
5.38493
46.7707
110.176
92.099
-8.25408
-27.9071
15.0954
57.0859
46.4098
-51.984
-124.489
-160.117
-133.929
22.1049
130.01
196.659
229.427
227.638
159.456
53.2197
-25.751
-17.1378
-25.9526
-80.9341
-41.1482
-27.979
-50.4582
-26.4571
24.5736
97.3321
-31.5753
-165.731
-144.342
-107.784
-34.8272
44.1835
80.2763
48.1494
14.6693
10.8164
-45.0047
-125.005
-164.379
-176.002
-161.026
-99.8845
21.1851
144.572
226.652
254.926
311.423
286.756
158.977
64.5285
19.365
-76.4031
-100.872
-134.661
-144.835
-165.477
-154.705
-104.58
-69.7621
-1.84938
71.6278
21.2265
0.769792
-19.6338
-89.0804
-95.3719
-61.5555
-26.9589
24.3702
-8.56858
0.288163
70.9416
92.2425
33.9225
-21.5619
53.5646
156.738
159.061
137.685
114.548
26.1412
-41.7867
-98.1804
-148.415
-160.894
-99.6593
4.34508
127.792
98.6626
97.0778
97.5331
57.5568
-31.1438
-51.9737
1.64227
3.26278
-79.0355
-136.451
-95.9791
-32.1871
20.4549
9.09825
3.07852
-6.40864
16.686
-29.1061
-83.3624
-113
-114.388
-137.403
-123.842
-38.9385
60.218
111.885
84.8679
-7.04429
-51.0789
-34.3876
33.7461
146.583
152.223
191.219
209.353
219.72
181.533
86.4072
20.3641
-28.4184
-16.3106
-61.8467
-92.2031
-66.9325
-39.5171
-60.5827
-107.514
-113.413
-41.1431
91.7726
37.8049
-96.8816
-93.3968
-31.8323
-78.9944
-156.63
-196.123
-180.712
-62.7502
15.6308
75.9552
159.3
136.597
29.138
-34.157
-26.8716
60.785
67.9443
92.4466
30.8114
-12.6344
-17.3897
-91.3408
-174.79
-102.607
14.2235
135.592
161.681
106.056
73.8901
32.7326
11.6259
11.6474
41.1326
43.9319
13.6865
-52.3233
-46.2012
-67.9983
-25.6741
78.0763
119.191
126.372
91.3674
13.214
-27.8781
-51.5285
-65.1729
-62.8355
-55.4124
-3.18849
-12.7197
-25.2776
-0.650118
69.0464
129.295
98.1571
75.5717
-23.2997
-151.385
-249.103
-262.304
-239.196
-166.883
-118.691
-53.2493
21.1509
44.8082
6.30993
9.2154
-13.9938
-7.66804
45.3779
43.85
8.64963
61.3696
116.18
127.56
154.295
159.991
146.092
110.743
137.496
201.828
177.494
96.3077
-6.58224
-58.286
-71.866
-122.768
-198
-178.963
-97.1942
-64.7545
-34.1938
-24.613
-23.7907
16.1358
9.98755
-36.4001
-47.6581
-13.2656
-22.3989
-41.8115
-29.7709
6.79098
37.7485
24.3758
44.1636
80.3129
86.8121
37.2612
-56.6876
-146.963
-174.889
-158.077
-93.1761
-7.56893
14.0869
13.1709
52.9423
50.2002
40.3833
16.5888
-11.6496
-49.7037
-63.4703
-11.2406
-6.10026
9.37303
90.5765
108.783
64.515
130.484
104.816
54.9135
7.14745
-29.6723
79.6508
170.122
117.599
114.044
161.677
96.6756
7.69526
-61.1825
-69.0976
-12.2297
2.13003
-42.646
-66.1986
-86.3429
-119.035
-123.193
-132.744
-134.692
-98.7424
-106.902
-235.289
-254.872
-146.259
-137.976
-117.072
-10.8604
128.979
226.402
234.233
177.982
184.301
79.6117
-46.3397
-84.9298
-13.1149
61.8198
131.274
97.8659
77.3062
43.925
24.1072
-26.5039
-72.2407
-61.5303
-81.1731
-80.7453
47.1488
135.58
83.3219
66.4654
4.2462
20.0553
23.6588
-27.9636
-40.3953
-67.3897
-79.9116
-83.8856
-69.0306
15.0984
81.9583
50.8026
61.1739
114.26
54.2488
-10.1542
-117.579
-189.732
-180.951
-165.488
-92.0324
1.64692
14.9654
70.3728
108.343
112.848
166.625
183.201
117.738
17.0344
-98.6126
-118.315
-102.241
-52.8042
-4.28128
-38.5517
-27.5034
27.9679
50.5546
51.8736
18.9403
-11.2186
-26.9437
-83.2596
-123.148
-133.782
-34.0672
10.882
44.414
99.9069
201.765
248.946
182.85
36.5389
-2.6583
-1.77385
-93.6662
-149.594
-136.207
-136.914
-132
-91.5184
-11.1097
153.839
176.589
134.45
13.0978
-33.5521
-42.0384
-54.526
-57.9026
-79.8563
-24.8188
13.7526
-15.823
-11.188
15.2619
21.0359
33.7742
23.1749
71.7929
50.0709
16.718
-19.1987
32.8468
59.8219
-19.5143
-77.237
-38.0442
-63.0559
-77.3344
-75.5754
-80.5244
-67.6372
-22.5793
21.0157
51.1108
73.3454
87.679
98.5024
45.9931
26.1045
-6.92699
-35.143
3.93147
-44.4456
-99.4375
-46.7566
-20.7213
-1.53545
56.9045
45.227
-31.4096
41.6091
99.2138
116.843
90.2681
51.4577
25.1844
-37.1314
-110.36
-59.7683
-2.179
19.6414
-68.8196
-47.5017
62.2194
75.5873
-40.364
-38.956
30.9478
62.5361
86.3954
58.676
34.4209
20.838
27.8413
-21.7671
-129.684
-192.047
-260.314
-281.989
-154.573
-28.2726
85.7838
124.553
84.7634
118
143.958
100.379
9.27565
-9.79178
-9.76188
-63.7978
-95.939
-42.8293
58.4592
45.5472
31.4577
83.4352
160.8
212.929
206.366
80.062
-100.974
-97.5937
-40.545
-45.1913
-57.8777
-65.0925
-58.915
-61.8661
-57.2933
-10.9323
-39.2481
-136.437
-219.965
-154.19
-21.0978
60.6815
121.662
121.741
-11.7326
-75.2341
-70.1762
-80.9933
-48.5081
-24.4148
38.0218
144.937
204.464
281.075
261.616
144.582
91.8392
8.30545
-66.3602
-77.9694
-44.1099
-58.7763
-94.0045
-114.04
-54.2174
23.4435
40.8094
27.8688
47.3869
31.1898
-13.1426
-84.1338
-156.468
-196.224
-162.062
-130.054
-101.092
-21.0629
76.9276
128.098
103.256
77.6991
55.2448
-0.778829
18.3405
-19.0526
-3.32265
38.7331
33.3991
57.8452
48.7228
-24.1669
-93.0559
-103.512
-45.7198
-46.005
-1.96426
95.9253
162.447
136.539
108.386
90.9932
90.769
42.2875
3.32022
21.8001
18.9224
-78.4396
-194.653
-255.113
-213.074
-144.497
-88.2034
-15.7837
34.6194
91.643
146.507
145.665
37.3607
33.0521
67.8121
48.294
44.0319
29.36
-12.8668
-34.8587
-56.4866
-63.0582
12.2648
14.7916
-32.2754
-11.2212
89.8058
103.86
53.2645
38.9453
55.6872
26.8834
-65.1706
-164.651
-210.198
-200.627
-181.03
-94.794
32.9883
67.7296
47.8459
77.5859
40.9667
26.0089
-13.5851
-67.5749
-33.11
28.3824
90.9312
97.4761
66.5256
43.9961
37.2217
69.6913
119.972
143.632
131.27
95.2439
-8.35014
-64.1115
-84.2872
-63.5942
-42.0458
-18.7428
129.819
192.685
88.1089
-54.7571
-161.862
-223.605
-244.026
-220.792
-134.773
-47.9862
-40.7508
-35.8402
-31.4726
-49.2741
-90.6205
-144.739
-125.6
-29.6061
61.7025
81.3747
72.4418
76.0202
73.7497
113.327
97.8208
192.284
249.064
237.754
180.733
87.1579
57.4979
76.416
37.3832
-5.80565
-40.4133
20.0955
83.9776
25.7342
-100.248
-180.618
-151.074
2.82444
55.5435
11.4304
-94.8323
-263.869
-265.421
-161.49
-72.5746
-10.0406
9.96096
-41.9783
-36.811
25.3162
109.995
197.87
247.3
168.017
124.85
85.9568
-65.3506
-212.343
-265.703
-307.608
-250.177
-156.563
-88.8602
-12.1482
14.0827
49.528
4.13924
7.88813
61.7424
41.1447
29.6234
117.373
142.781
103.131
42.6255
65.8996
125.273
126.604
125.871
137.547
196.395
254.234
222.125
89.9288
32.0075
-10.4159
-36.3484
-52.5079
-38.5634
-37.6742
-90.8001
-218.049
-289.079
-250.166
-168.165
-98.2045
-134.626
-169.084
-156.931
-132.593
-74.9761
16.0317
113.196
140.066
133.982
65.5774
52.771
41.6797
8.63354
-31.9078
-6.67305
-6.70164
-33.0456
-1.27304
98.4497
141.038
181.883
173.495
192.598
218.88
153.967
64.2253
-68.3978
-188.483
-214.834
-164.316
-124.332
-78.3899
-96.9762
-75.8341
-100.781
-124.571
-14.3871
73.0088
45.4149
-13.139
-37.7433
18.5822
-51.834
-92.1876
-55.9257
-42.8249
-75.4638
-38.3621
73.7529
133.053
204.132
203.726
204.039
204.816
207.345
173.047
61.5944
-70.6142
-152.646
-114.465
-56.8647
-62.4767
6.26319
94.4866
82.8913
48.5688
34.717
21.5364
-47.3633
-110.771
-229.721
-268.08
-283.49
-303.239
-261.636
-172.038
-74.7065
61.1184
139.786
138.116
139.565
135.769
145.928
76.5207
-33.6712
-57.435
-84.2516
-81.837
-19.9124
52.1546
75.7917
89.9329
117.677
196.905
160.341
51.0536
-37.2733
-81.2457
-98.7263
-54.1416
30.3083
81.1434
102.541
218.037
277.633
288
183.817
88.6717
-4.01213
-96.4361
-154.241
-208.449
-143.153
-129.119
-156.046
-104.838
-11.6844
34.7312
88.1033
47.8117
-93.8453
-296.024
-388.836
-385.114
-256.078
-163.531
-67.4103
-47.2037
13.7238
102.663
154.788
191.636
165.305
153.304
198.17
198.479
237.926
202.011
106.768
44.8291
54.9696
106.065
85.3727
-35.0631
-113.16
-124.083
-111.724
-59.4983
-80.036
-76.2124
-17.5486
2.96948
-88.1596
-120.665
-76.8012
-10.2863
24.8484
44.117
84.79
116.093
79.4725
41.6818
-7.1659
-25.2421
-17.5131
-88.5186
-89.2732
-14.7634
-3.274
-9.1229
31.0756
63.2361
140.506
98.0627
14.3936
-31.3267
-127.954
-155.142
-172.329
-172.963
-76.1087
64.0285
124.255
149.496
134.879
86.26
19.0038
-37.0107
-5.03742
-49.5259
-103.357
-96.2903
-82.5309
-12.9698
64.3026
50.0541
-30.1866
11.0558
49.8251
90.7326
100.435
69.1923
57.7813
14.0667
-62.4485
-113.072
-6.90711
42.7219
26.7215
31.4413
4.46872
-8.53551
-4.88633
12.8504
118.611
190.282
171.719
-4.5798
-125.727
-195.285
-236.2
-257.759
-165.057
-45.5949
10.4038
54.1836
81.1026
88.8895
24.9235
8.54592
52.6544
53.9075
-45.6373
-176.145
-223.558
-148.543
-31.9173
99.1766
182.245
146.171
108.87
235.622
245.466
181.321
117.643
61.9495
-11.0693
-66.0091
-82.4448
-60.4888
-4.44112
41.0508
33.4886
-18.5617
-168.163
-257.128
-218.249
-132.584
-54.3954
96.7714
85.4663
-29.8642
-119.538
-203.328
-204.225
-111.996
-47.9642
37.3635
127.579
156.014
139.843
121.132
136.279
194.1
204.975
192.786
91.647
-98.3798
-225.634
-232.819
-145.538
-62.5082
26.9151
175.197
214.792
138.551
14.8699
-51.267
-33.8923
-29.6754
-76.8558
-61.7635
-35.9818
-37.1586
-11.0979
-8.50947
-15.9801
34.0552
62.5574
-41.5396
-111.167
-8.9535
13.5525
27.956
83.1224
60.0048
10.9482
-7.59445
-83.855
-153.935
-135.882
-135.01
-85.6207
8.54462
98.9834
67.2149
12.8911
-10.4766
-45.7352
55.8955
108.136
13.3218
-10.1298
5.85467
52.8869
127.084
161.459
125.821
111.609
80.4478
-19.6822
-77.0809
-87.3453
-91.214
-106.341
-54.6463
19.832
81.649
84.6305
-12.9802
-48.2274
-51.7452
-85.8685
-131.893
-146.792
-146.118
-81.5628
-73.9745
-104.709
-37.8433
28.4584
46.3132
84.685
213.123
281.765
185.789
90.0938
23.5288
7.20767
-42.5413
-69.5458
-48.2189
-7.17444
-12.7268
-26.8612
22.0885
65.6309
107.899
135.001
103.263
22.6177
-12.5648
-47.3409
-123.675
-148.7
-127.219
-142.179
-96.9576
-8.05646
65.193
75.5202
52.4512
77.4747
51.4006
-71.2393
-158.535
-220.418
-258.773
-246.508
-166.285
1.65477
71.0323
105.501
215.425
258.796
269.66
283.919
205.844
85.7627
-23.7661
-105.515
-194.776
-221.55
-133.899
-3.86551
103.009
179.566
233.675
220.022
84.9771
-67.8915
-168.91
-174.929
-224.673
-245.623
-169.806
-58.1592
8.92703
74.8971
129.838
199.164
215.805
94.9572
-20.0841
-74.1873
-109.945
-147.555
-187.717
-85.8839
-52.6023
-65.5955
22.7923
87.4836
89.4161
106.874
102.665
139.047
122.33
111.068
59.8655
-18.6168
-94.8282
-75.1618
-79.7585
-5.02155
21.4512
-39.1853
-36.2217
-18.6176
27.2966
77.433
81.5907
36.1168
-12.2405
-65.2485
-67.0386
-99.4862
-120.18
-125.875
-55.6762
27.6986
58.1503
61.6823
95.6022
-28.5707
-119.277
-56.0534
9.10414
10.2823
33.3163
78.2736
153.193
162.108
44.3532
-39.7618
-56.7841
-78.3008
-138.407
-105.843
-18.4418
-23.8545
-10.4212
43.4906
40.7433
16.5599
-83.2045
-55.5935
80.9748
98.1295
94.399
107.298
34.9234
-9.984
16.0415
9.91818
-27.9829
37.9093
23.8876
10.2897
-17.8727
-59.6305
-9.49377
13.7544
-7.87752
51.2845
155.84
116.042
-97.6873
-220.537
-212.28
-180.064
-129.975
-78.9266
-30.4217
101.135
101.18
60.3924
99.1362
69.3667
42.7183
48.9099
-22.5404
-41.3947
-44.885
-23.6335
40.7457
76.4413
116.29
138.254
107.325
113.061
96.7624
26.5197
-33.3611
-142.242
-169.958
-179.128
-124.32
-68.6524
-62.7449
-29.431
-75.9776
-218.51
-209.087
-77.4747
39.2478
106.969
222.192
254.175
189.323
77.3613
-11.3272
-55.9637
-21.4777
-19.548
-73.4904
-71.5961
-13.1951
16.5236
30.9736
-33.5025
19.6222
110.094
144.617
151.587
45.4391
21.9863
-6.47843
-38.24
-58.6267
-80.4349
-112.69
-83.7201
-55.955
-36.79
27.2023
93.9674
155.963
156.483
78.7208
89.1793
115.06
103.368
10.6227
-107.924
-216.945
-281.942
-279.621
-246.743
-147.812
-80.75
-30.8466
27.9294
46.6071
76.5701
98.8173
13.6678
-33.7478
35.6777
131.981
196.811
195.964
199.67
170.188
50.36
-39.4562
-192.486
-186.41
-145.21
-111.458
-34.0697
18.0569
61.4436
98.2925
86.0775
162.016
123.938
44.6351
-60.9418
-177.858
-220.994
-252.135
-192.012
-82.1293
27.1504
146.352
228.612
165.982
111.614
90.5939
70.2776
98.3496
44.8969
-42.0731
-57.6019
-94.5046
-23.5753
-34.649
-35.0019
33.1629
20.6353
-29.6177
-109.842
-135.574
-159.022
-137.284
-87.1826
-35.1045
103.685
140.684
149.891
76.9209
-14.0206
2.44692
20.8707
-16.1718
-34.5561
-24.3073
-1.88509
5.30433
26.4361
99.4428
177.914
158.895
117.17
76.4733
95.2193
28.7902
-41.8318
-78.2249
-128.47
-157.14
-152.315
-175.861
-146.102
-116.638
-51.4847
2.85107
2.62548
-20.6825
-54.2324
-31.4036
69.6451
102.624
165.091
229.77
160.221
82.6645
-33.6739
-134.083
-161.075
-133.781
-66.8887
-46.6081
-67.1045
-50.7041
-63.9963
-57.8812
-10.7023
87.3565
129.444
81.0464
15.0358
1.13778
-71.6416
-85.1591
35.6203
171.211
204.064
257.899
183.882
73.4773
38.0194
13.2778
-25.2501
-38.029
-62.2799
-29.6378
-11.0616
-39.1712
-25.5915
-3.99932
-37.478
-31.2455
-16.9723
-8.20335
-34.889
-89.1902
-140.807
-199.435
-168.508
-108.699
-111.58
-83.8867
-12.9535
51.6966
125.925
153.76
129.961
131.135
77.6846
33.885
-36.0961
-91.8634
-73.4841
-86.2137
-150.654
-162.389
2.86029
166.416
249.674
244.598
177.458
96.2118
-2.46227
-92.7896
-85.5866
-99.8603
-110.488
-126.119
-113.641
-47.1135
34.5825
71.3069
66.3565
19.6858
20.7623
-10.9882
-66.4754
-19.3523
56.6555
62.68
40.8987
105.34
137.37
144.593
82.9083
36.2849
-28.1264
-113.413
-121.661
-93.638
-51.6129
-45.8705
-58.6366
-47.392
-18.0561
24.0603
20.4146
33.6908
48.1153
71.7353
129.485
98.9929
-2.39554
-99.9007
-139.089
-154.769
-111.011
-22.2239
9.52064
-15.8849
1.61656
24.592
2.29089
-10.3397
30.9287
88.9397
26.4233
-75.0332
-133.316
-76.3875
-28.8353
0.0865862
53.3224
120.749
87.243
-16.8353
-113.731
-112.144
-43.9913
-1.34456
-31.1394
-25.9357
21.5338
64.0843
53.1204
56.0374
170.608
267.775
223.456
93.9918
37.4785
-1.73447
-43.5493
-90.0988
-86.6105
-0.610866
25.2936
-54.5355
-38.7212
-49.0756
-36.0015
-6.40886
15.0511
65.3356
73.7552
-1.75104
-65.7616
-94.1156
-97.2009
-102.225
-100.962
-68.702
-28.7071
-12.7482
-4.65565
-22.5916
-35.216
33.6026
68.8847
99.5308
56.6578
17.7026
14.6763
-19.8699
-29.8197
-90.247
-164.97
-218.505
-210.06
-95.9516
36.0225
97.4998
156.823
162.797
142.532
144.375
154.944
114.006
55.9778
-15.1237
39.3913
50.4571
55.8496
-7.94146
-75.4861
-55.915
-25.7721
-66.2805
-22.68
6.54521
47.8953
97.4809
97.0667
85.2515
72.1659
54.8882
-9.78193
-21.4361
-30.7463
-49.4839
-94.5081
-128.458
-183.939
-159.17
-163.753
-120.959
-36.0125
26.3583
4.42782
22.5701
19.7282
-27.8831
-70.0199
-74.831
-56.8454
19.2268
76.306
83.3901
40.8794
20.2359
-12.1616
-46.6696
-30.7343
114.639
191.894
183.288
135.461
140.99
160.869
71.6778
-46.1316
-51.3888
-57.1219
-18.5346
-10.9185
-40.0563
-35.4133
-53.381
-6.69095
54.642
-31.4089
-126.83
-182.386
-206.452
-87.9833
38.7284
101.518
191.304
292.629
255.601
97.8843
-30.9988
-69.0528
-127.325
-160.434
-212.033
-169.134
-121.055
-151.54
-131.489
-22.307
98.0978
185.944
166.039
150.271
106
-1.90557
-162.559
-334.616
-380.56
-281.542
-140.89
30.1615
139.274
189.196
240.519
230.959
187.332
170.68
116.325
103.902
162.56
147.505
86.9975
-34.3828
-124.155
-119.554
-143.88
-128.6
4.42045
60.4025
103.399
105.482
80.764
6.21121
-55.5182
-95.6576
-66.9542
-15.9594
-13.8244
-42.806
-111.705
-117.98
-111.459
-115.5
-62.4628
70.7222
139.834
158.389
108.989
64.654
-24.7494
-77.232
-60.5077
-56.3103
-95.4012
-25.4269
26.4447
-24.5207
-90.6882
-134.201
-13.3795
137.658
99.9801
20.778
-30.5317
-78.441
-24.8154
16.6499
13.9584
-8.93191
-69.6775
-7.38863
6.66044
47.446
119.587
91.3494
35.8056
45.3608
54.8913
42.9658
46.5171
-11.2709
21.092
74.438
91.1247
22.6819
-79.7083
-149.594
-162.939
2.19081
63.4605
-6.77223
-36.85
-52.6904
-47.0019
0.00146683
33.2202
61.4475
80.803
75.1938
-3.67089
0.105887
71.5918
55.5892
-6.03733
-33.8958
-100.253
-106.586
-93.0064
-115.27
-43.1488
-5.37061
-40.0341
67.3914
138.925
113.21
36.5032
-7.6272
-37.075
-51.3796
-60.8453
-118.215
-117.131
16.8923
66.9091
43.551
68.8735
65.7655
87.4934
74.6948
32.5309
-29.3055
59.7521
68.3756
11.5788
-50.3547
-117.25
-161.155
-140.819
-83.528
-30.5884
58.1088
64.2937
26.1869
-29.2921
-72.0515
-75.9556
-28.4435
71.9596
138.003
177.648
199.901
145.472
30.6948
-137.816
-210.497
-70.3493
56.2544
31.5116
-33.1283
-106.914
-149.377
-171.042
-135.078
-19.195
126.724
163.543
168.387
159.405
129.95
99.8913
41.049
10.3575
-2.35709
-47.3455
-56.0886
-141.836
-188.287
-83.3291
31.6484
155.611
228.297
221.112
166.523
81.3118
5.31078
-13.7639
-70.8331
-129.094
-205.058
-216.489
-122.329
-117.212
-139.784
-72.1093
-10.7959
14.053
18.7939
15.5551
54.5522
67.465
-11.689
-4.93927
-19.6225
-40.0216
-62.4603
-90.6645
-146.038
-93.699
-7.70849
54.1239
45.3769
41.6865
64.539
131.233
159.33
230.716
225.101
188.782
107.366
-30.1892
-55.2347
-32.1607
-58.4674
-45.5558
-57.78
-57.9275
-19.518
-38.6365
-37.5239
-70.1297
-124.23
-81.3011
50.3138
153.099
135.889
50.9385
18.748
-14.1373
-12.013
38.4827
50.5397
39.6675
20.1496
-22.3005
-61.9424
-98.6113
-94.5122
-118.438
-163.549
-127.209
-116.187
-83.2764
-99.8099
-115.272
-29.8087
17.7272
24.2546
103.694
149.51
99.0165
63.0057
53.366
83.7221
124.409
147.282
226.659
235.486
188.094
119.051
12.4002
-49.5286
-166.855
-283.382
-220.339
-210.751
-194.957
-144.245
-87.7147
-34.0641
-1.52717
-19.9039
6.97344
37.2326
46.6155
65.901
51.1242
23.4184
-23.3278
-18.966
9.76227
63.6766
164.104
198.19
154.203
101.346
99.649
83.7647
49.5036
-35.5327
-91.9093
-28.9252
-83.9346
-135.254
-113.058
-21.3494
39.8754
57.7001
44.0597
59.5613
64.2005
7.47822
-47.6851
-44.3643
-63.4368
-91.0424
-85.3216
5.58162
-47.7788
-97.2259
-129.589
-224.148
-259.113
-175.522
-114.357
-64.8001
-28.2101
8.96292
92.9611
152.983
172.254
208.045
209.729
206.833
190.642
181.498
123.094
35.3076
22.8282
38.0255
71.7496
73.1619
53.6468
63.0102
0.260086
-71.1171
-101.198
-95.8114
-66.8064
-73.5417
-103.396
-98.0657
-110.716
-94.6532
-65.564
-47.1458
-95.3991
-163.769
-144.273
-85.7195
-100.986
-61.233
32.3238
93.937
149.624
173.32
165.745
172.571
149.692
80.3304
47.3306
-21.0842
-94.0152
-105.921
-56.8828
12.9146
126.24
159.882
76.507
-46.8584
-85.2356
-127.753
-134.344
-140.864
-135.147
-78.0059
-13.9273
-62.3823
-62.7721
-17.2648
34.3554
118.648
214.586
154.789
5.39202
-66.0311
-101.603
-77.4514
36.3226
121.642
207.04
273.167
277.485
199.468
107.858
10.7481
-108.239
-135.249
-159.985
-215.92
-183.266
-151.253
-145.944
-87.4798
-28.4722
-17.4732
-41.3874
-72.7352
-20.6531
24.4135
21.1099
-32.9606
-125.098
-175.072
-139.806
-115.343
-23.0594
87.2795
199.262
289.447
292.969
237.234
111.908
37.024
10.6855
-18.5913
15.6971
55.5758
59.2912
139.159
246.873
238.971
97.371
-32.7462
-79.7496
-199.934
-315.396
-322.906
-340.679
-344.411
-322.643
-265.241
-78.2455
55.4515
81.712
108.995
144.715
186.394
142.638
74.9937
12.5733
-3.87156
86.7112
93.0154
42.2682
11.2675
-18.4181
-15.6517
39.8483
116.154
178.59
219.036
208.545
135.925
65.8692
17.2901
-48.826
-141.3
-137.063
-137.363
-165.988
-119.158
-123.811
-178.645
-142.8
19.3138
133.592
188.198
225.824
144.175
39.1294
-50.9464
-121.133
-157.379
-149.664
-120.191
-73.0425
-45.014
-82.4106
-128.312
-93.2485
-35.6153
4.67952
77.7484
147.35
155.499
131
82.9795
47.0803
62.0106
33.47
-21.6493
-0.217954
27.5613
68.9786
90.114
78.4258
25.2438
-93.3792
-123.422
-52.5462
-23.0877
8.06048
57.8105
51.7684
-2.17386
0.983345
14.8744
-25.6228
-83.3693
-77.3767
-47.5413
-98.02
-95.9408
-50.7976
-55.1898
-36.167
48.3253
132.492
133.472
40.4779
-27.0407
-66.5229
-58.9296
-53.3483
-15.4296
81.0594
69.5504
46.8016
68.2968
83.0867
145.627
107.41
-31.5813
-150.426
-119.94
-64.515
2.04095
71.7506
77.3164
17.0942
-77.6204
-89.9964
40.4048
113.588
114.46
17.0954
-50.8699
-119.195
-145.051
-170.056
-156.39
-99.2928
-33.004
63.4824
70.0809
56.9062
65.439
77.7485
101.914
103.144
107.801
96.3924
54.5435
18.9682
9.88672
27.7048
17.78
-65.0424
-35.8114
-30.8729
-56.2456
-50.1365
-44.4205
-44.8087
-70.1859
-146.788
-113.521
-17.1926
21.431
47.7077
65.462
75.1581
-34.2774
-137.391
-73.4792
-30.5857
-31.6833
21.736
33.8821
33.2597
-6.04082
31.243
196.254
276.875
274.355
216.69
32.501
-138.39
-180.314
-218.237
-170.36
-113.618
-37.3368
13.1847
-77.4511
-120.93
-71.1713
7.29179
43.7685
53.9475
142.035
142.392
48.9806
-31.1096
-39.8471
5.54535
58.7911
66.1
52.4187
144.273
171.945
98.8266
-10.1255
-53.062
-96.5739
-106.235
-106.024
-52.0989
-88.7949
-128.213
-151.255
-157.393
-125.984
-19.7254
115.363
180.415
104.489
53.0342
21.5882
2.06296
-25.4013
-61.0464
-60.949
-4.63297
28.5838
62.9763
131.454
137.276
159.417
152.85
82.8522
137.25
51.6004
-136.609
-293.171
-358.73
-339.628
-269.884
-156.968
-24.0598
58.0948
141.248
204.393
216.261
198.242
106.937
-6.97574
-105.794
-87.8459
-0.669927
34.144
-0.107791
62.2774
135.63
164.825
99.3213
74.3138
47.6295
-48.508
-164.268
-165.503
-101.46
-51.1316
-48.639
5.48184
120.69
193.16
171.305
66.8286
-19.1482
-32.0537
-82.8852
-131.71
-209.542
-251.214
-168.657
-122.19
-112.077
-45.6067
-12.8089
15.6006
71.4163
142.585
188.464
117.87
30.5822
-25.6441
-17.2721
37.1414
81.8849
76.0085
117.042
88.659
49.3651
23.571
30.1096
5.13394
-32.9204
-11.8932
-1.90261
7.29034
-6.90387
-38.3424
-46.4901
-30.2367
-25.594
20.8742
11.9659
-47.35
-54.604
-60.6687
-75.7381
-42.2185
24.3127
43.1286
9.86329
43.4872
24.461
-79.2419
-106.45
-63.7947
29.7768
88.3085
53.8546
87.368
72.6832
-74.1787
-149.023
-110.391
-63.7922
-11.7517
-48.0711
-21.1877
93.7738
130.574
99.0211
15.8973
1.55187
30.6576
-7.22369
-25.2033
-16.3224
-80.519
-80.0299
-64.2894
-19.9321
45.1
100.009
78.7571
41.0803
80.2748
61.455
27.5447
-16.9687
-10.9543
25.9059
133.714
173.794
145.011
32.3542
-109.233
-188.763
-154.602
-121.761
-111.418
-109.325
-44.2249
-19.2225
-10.8272
-10.5571
-40.7937
4.08083
45.643
84.5831
126.883
145.712
179.941
195.332
131.692
54.7437
-62.9758
-229.672
-285.516
-242.336
-124.293
-42.0141
-13.6268
-24.311
-52.63
-37.2363
-14.4105
-32.5962
-12.7401
25.8706
20.7576
18.0071
12.2686
7.56182
15.5139
88.6845
150.402
170.179
161.136
110.963
69.8833
13.9095
-17.7079
-1.77404
-21.4699
-28.5671
6.66918
30.8797
18.8198
-68.4066
-133.694
-174.4
-235.59
-161.751
-58.3275
12.4474
93.8931
133.519
72.5515
21.4931
12.0512
87.2266
130.092
166.436
182.44
169.95
95.1435
22.3903
-57.2682
-234.377
-151.9
1.15508
145.48
182.73
158.268
11.6577
-156.253
-231.514
-282.153
-339.76
-329.609
-253.456
-178.285
-96.0484
-92.9586
-105.444
-33.705
46.5655
82.9926
92.9665
129.618
152.023
153.181
158.251
129.758
120.109
127.097
130.926
159.305
163.515
193.294
230.801
236.283
175.314
55.6593
-20.7039
-103.923
-151.19
-171.757
-190.367
-264.16
-268.639
-225.499
-167.911
-103.716
-16.9537
57.6589
67.8017
54.4382
42.3323
41.4362
46.2239
44.4336
25.0475
112.532
152.092
134.71
114.348
70.0843
48.5495
63.1425
73.8056
46.634
15.4827
33.5446
-50.6632
-203.508
-294.113
-331.443
-246.849
-158.739
-132.867
-35.36
-5.94829
-20.1093
-65.129
-90.1856
-108.951
-67.865
-39.7736
32.7386
92.3018
139.396
165.724
149.657
160.316
192.882
215.452
214.457
120.225
8.82967
-32.87
-48.2467
4.09064
27.0227
32.6282
94.4306
101.4
71.9178
27.2404
-93.0757
-173.335
-211.777
-193.963
-80.4359
33.9071
89.0026
110.975
78.2842
30.859
13.6976
-29.9075
-108.741
-78.8632
-26.1736
-14.5994
-52.339
-29.6035
-11.9436
22.4694
21.544
-54.4925
-69.232
-57.9979
-139.832
-214.339
-196.476
-85.286
-25.5766
-41.5443
9.08494
113.591
223.302
184.564
142.174
188.919
207.434
185.567
104.795
26.4491
8.91926
-30.9833
-103.646
-133.312
-73.6173
12.8833
56.8546
69.9447
92.7231
128.486
85.2139
-31.0314
-132.323
-185.509
-244.487
-270.72
-163.57
-69.2414
-36.7921
19.8846
77.7922
94.1271
73.0535
66.3584
56.214
32.6525
53.6996
41.5334
22.414
13.5843
14.5044
61.7067
29.2896
-30.7077
-23.4723
29.0086
-6.25589
-42.2209
-8.35405
-12.5384
-53.1418
-48.0805
55.9988
122.641
89.7195
26.0357
-50.3608
-74.617
-70.2891
-76.8983
-85.6876
-105.249
-78.385
33.131
106.496
122.948
106.868
23.5858
-7.17504
64.2548
65.5632
39.0296
-16.2543
-59.4599
-105.416
-113.625
-86.3198
-77.9934
-64.9779
-61.2442
-28.1626
20.347
63.8595
95.249
132.271
159.905
188.01
137.109
22.4541
-107.411
-143.878
-141.798
-144.962
-169.014
-55.4815
73.667
60.9468
20.3123
-33.9315
-2.01173
62.5282
107.555
83.686
22.9477
12.2914
-60.7753
-110.713
-79.959
-57.0927
-51.7606
-43.9781
31.5913
101.738
84.8277
32.5027
21.7653
62.9485
85.0135
73.4805
137.561
93.2479
34.1036
54.7904
86.5631
52.4482
16.5837
-83.2184
-191.264
-178.433
-183.494
-178.41
-125.507
-52.8545
30.4976
45.3776
18.3684
6.75528
68.1792
91.4238
19.3373
-127.278
-231.498
-226.194
-161.657
-101.633
-4.61771
89.4672
210.57
263.244
271.778
231.26
96.0221
6.69264
56.2787
62.435
34.5446
10.5812
-84.6102
-161.106
-136.697
-25.2048
77.8052
144.295
96.9334
6.02339
-17.7851
3.69918
-7.48133
-60.2604
-86.5074
-59.4389
25.4071
49.9618
-6.90857
-43.4941
-82.0026
-83.7102
-34.9088
51.9977
74.2302
121.471
89.012
-59.8362
-137.724
-155.939
-156.556
-153.908
-151.136
-120.878
-42.7392
62.2311
96.6917
88.1355
70.6816
67.7114
85.6961
65.4127
39.3492
50.0803
5.18582
6.9532
20.9439
30.6755
13.9299
-10.4537
28.6771
82.9341
118.662
109.381
99.0737
79.5576
42.8014
-16.8265
-66.8849
-53.3305
-72.4185
-75.8127
-67.3534
-46.3028
-23.7195
-65.9721
-56.9044
22.8338
17.8024
3.74125
-64.5245
-124.92
-95.2758
-56.5245
-65.8296
-64.2317
-7.42984
-33.8749
-36.0042
-37.5416
-37.9501
-34.4551
-42.5827
-16.3408
74.9638
120.405
129.419
100.671
115.806
142.151
153.682
110.17
43.2716
70.682
127.4
150.617
140.342
133.77
67.2525
9.57632
-14.0091
-33.5733
-72.5022
-166.014
-215.766
-209.159
-191.093
-197.923
-227.609
-245.135
-204.816
-138.844
-35.6055
23.0026
63.1814
68.1283
62.2925
70.0034
80.3968
46.7902
56.1993
87.0159
110.967
99.6277
47.7789
0.597216
-24.8231
17.6279
78.1006
80.1306
52.3514
143.998
173.481
138.572
48.5918
-26.5264
-43.0319
-27.6092
-7.51511
23.1187
16.6737
-34.946
-106.913
-78.7959
-53.2164
-63.415
-74.461
-73.525
-52.7935
-35.3809
-74.9223
-106.042
-100.127
-134.294
-101.125
-18.4416
21.421
3.47178
-28.6636
-2.33073
27.3802
39.6634
83.678
113.045
116.297
156.719
146.38
140.927
114.216
71.5415
5.48777
-90.1513
-109.942
-48.6905
0.877995
-43.0077
-30.1989
-8.85567
-29.6944
-36.3082
-2.58865
10.9481
7.6157
1.32103
1.55688
8.51048
54.4515
-7.64514
-12.0889
73.5348
115.035
60.5739
-76.2486
-192.717
-228.062
-160.448
-106.337
-28.5162
82.6335
131.755
110.261
96.1782
89.624
106.508
101.876
59.3775
8.36139
-54.3672
-163.935
-252.48
-186.382
-54.1975
-19.6204
46.063
97.1038
83.9444
-5.94031
-70.8524
-70.2341
-41.5909
-12.6807
-9.55115
-1.40303
-4.00694
-32.8543
-25.3461
36.6258
117.903
240.466
316.482
229.272
109.538
63.5315
5.01846
-34.8683
-23.2188
-24.7226
8.15551
-6.3721
-55.9865
-106.181
-114.733
-114.804
-119.151
-110.595
-51.5973
-64.4088
-76.3816
-55.3815
-4.2717
58.0447
45.9524
21.4946
2.46488
-10.9087
-46.4587
-68.7693
-70.3857
-21.4909
5.25188
-39.7671
9.56855
108.949
92.6773
87.1583
55.9078
14.0213
-24.1903
-62.172
-105.154
-71.8563
36.9891
109.959
116.956
81.9985
21.5228
15.4574
-12.0687
-74.0716
-44.3131
10.7757
13.9176
-3.0951
10.8757
11.0873
-16.6901
-12.1987
37.297
98.6474
124.007
110.462
70.0002
46.8483
27.8739
0.925168
-11.193
0.13364
-22.1472
-54.9513
-112.963
-119.798
-96.2785
-89.3313
-89.9738
-81.0732
-46.137
-13.6165
8.06837
-11.459
-42.3056
-88.8674
-117.555
-42.3836
21.0933
84.3157
107.055
75.4806
81.1435
86.248
57.4201
70.2553
71.1046
7.83271
-24.8607
-29.2546
-42.0691
-90.3478
-148.601
-178.274
-69.4997
60.1072
141.304
155.654
176.524
141.098
105.162
57.1381
5.10753
33.4257
37.0383
-4.33745
-74.9118
-84.2134
-33.7325
-7.79275
-48.929
20.689
45.0201
-11.8764
-75.2911
-120.645
-164.932
-188.89
-176.6
-128.724
-43.3553
63.8873
110.179
78.1157
34.7464
19.2248
47.7993
67.0385
134.792
158.586
138.934
101.039
88.3585
90.717
26.8672
-53.8622
-54.8964
-32.85
-47.4386
-64.1457
-89.0669
-136.912
-156.808
-137.627
-103.882
-59.9552
-27.6604
5.10609
-19.9651
-30.0859
19.0903
44.4067
98.6933
152.784
211.235
201.966
140.809
86.0489
32.3858
-29.101
-62.5668
-95.4132
-46.0727
-31.4751
-30.2538
-41.1999
-56.099
-36.4467
-29.1129
-70.2638
-46.7125
-30.1705
-57.4288
-49.5796
-55.0808
-25.2977
2.78254
-12.701
26.4969
35.93
31.3575
49.4756
39.6676
36.9766
44.695
27.5492
66.5615
30.6126
0.634792
47.4873
58.0247
34.1813
11.4148
-25.7369
-77.3723
-92.4143
-59.4166
0.665
5.59658
37.9139
56.708
32.9758
-11.3698
-52.7329
-44.2364
19.263
-2.34259
-34.3645
-83.26
-84.9113
-77.9017
-75.4122
-41.8356
57.3747
90.9193
84.5939
42.6087
19.2967
61.2312
86.3775
89.8974
100.864
59.6735
42.0296
69.1867
89.3483
38.8823
-47.097
-87.5966
-118.537
-146.178
-148.486
-153.089
-176.466
-116.314
-72.6036
-68.6946
-48.2242
15.3645
85.1075
123.181
132.981
131.472
93.8853
41.3523
54.55
61.2886
58.7052
73.2069
74.6121
47.678
35.6367
-19.2879
-77.3275
-133.343
-103.568
-48.0226
-57.6621
-50.0672
-71.0362
-102.517
-53.1817
-11.3267
46.0223
63.3488
16.6834
13.6277
45.5405
90.296
156.417
159.479
106.731
64.8199
49.1419
16.9539
-66.2574
-114.282
-49.5067
-46.5944
-74.2753
-125.843
-204.617
-179.783
-135.746
-127.715
-107.711
6.76965
95.6682
114.221
104.624
103.309
84.9984
101.764
113.226
109.818
161.95
177.815
116.313
4.36487
-82.9999
-144.813
-138.249
-97.8707
-59.7045
0.280657
88.8746
39.9475
11.48
-17.2881
-67.2665
-60.0277
-31.8832
0.436819
-4.9125
-55.3914
-88.2032
-65.6195
-44.511
-52.1659
-76.2598
33.0355
183.327
202.329
155.594
48.7869
-49.3155
-47.8152
-35.3155
-12.0163
-12.3685
-56.1577
-45.7127
-2.74601
29.7728
51.3715
17.3542
-35.4105
-12.2169
25.0273
65.7268
25.5512
-73.5722
-105.588
-79.475
-32.8052
-54.2489
-53.8728
-1.72136
1.7736
-14.1535
-21.3216
-66.7229
-96.3908
-73.4677
13.3182
83.5037
106.02
82.5699
62.226
73.5029
72.8599
18.9797
42.3638
103.998
106.386
105.802
85.9728
29.2259
-19.5863
-9.51544
24.2463
47.4963
93.3909
50.7668
-8.11518
-26.3237
-34.4956
-132.733
-161.616
-141.506
-84.2566
-82.9268
-159.144
-213.148
-110.848
-22.5093
-21.2689
-40.9185
0.0388196
58.673
56.66
77.0754
61.0003
63.8309
64.0706
47.5389
27.9979
69.6036
138.183
90.3416
35.8015
46.7972
74.1045
60.8036
-5.50576
-51.677
1.08763
31.2579
16.2211
-34.8837
-67.5708
-78.2721
-106.679
-128.027
-72.1868
-36.4829
-16.1391
-25.0924
-85.3486
-72.3176
-35.8757
1.26843
57.1214
61.2386
56.443
37.549
4.57977
-12.7358
-59.9113
-81.7066
11.9264
21.5481
25.272
64.8252
69.0807
52.4268
54.4289
30.0209
19.5935
34.5254
18.628
-2.23504
-49.5294
-42.4481
-15.5457
14.0547
-7.06798
5.59898
66.0782
117.317
72.4917
73.5936
64.4765
-10.3257
-98.1127
-102.673
-103.869
6.54148
68.2567
74.2317
68.918
83.4312
109.305
86.8634
-9.00828
-97.4098
-165.014
-184.883
-164.701
-130.955
-103.952
-80.6012
-80.7673
-41.0502
11.8511
13.2236
30.1464
29.4471
22.7995
39.6141
38.2662
44.416
85.2036
56.1845
46.6795
63.5493
80.9527
69.227
39.0839
-31.1518
-64.671
1.48743
73.4511
105.696
121.524
114.436
51.3509
-35.9666
-114.34
-175.448
-150.628
-160.479
-165.404
-90.2591
-29.3495
-4.2019
-20.5258
-37.7186
30.2153
96.6696
121.462
99.815
54.4607
28.4738
12.7657
5.64223
62.5923
56.885
51.7533
81.0964
70.3528
37.7465
-28.2675
-61.7364
-34.407
-70.2448
-78.5363
-54.3887
-35.1156
-23.3459
-41.6422
-80.908
-57.5128
20.5177
10.7501
8.42854
3.88214
7.9857
30.6567
15.9284
-41.5913
-9.29541
44.1824
43.6206
41.9059
50.6432
39.2599
46.6773
30.6133
-24.8717
-64.6049
-6.82353
-4.47198
-15.5134
4.48466
-1.07531
-24.9546
-18.5389
-43.631
-60.8129
-13.1704
-6.82714
-2.95611
17.893
-7.6472
-2.73894
10.8103
37.4042
64.2265
57.1881
78.1767
36.6612
-0.141982
-48.695
-101.664
-84.0577
-34.5718
-14.8126
32.2355
51.8361
36.0406
34.1309
-2.75179
-14.049
32.4907
49.0146
37.5357
-0.390461
-48.6942
-21.3644
-4.05236
-50.006
-18.9127
40.4184
47.5163
25.484
-5.02571
-10.7193
-23.9985
-32.3797
-32.6751
4.48458
-7.64896
2.06564
-15.9433
-23.4056
2.92411
1.09759
-65.0493
-55.832
-14.46
29.575
38.9771
1.63729
0.883081
-14.5732
-48.4296
-2.95349
19.9617
18.1925
9.85317
-21.8888
-17.9466
-4.91613
-9.33439
-10.9947
58.0662
121.336
126.862
99.9122
49.7273
8.77278
-52.2035
-121.519
-95.6067
15.65
97.3631
73.4165
70.5299
79.491
56.5692
-0.702423
-70.9401
-160.523
-164.785
-104.206
-33.6711
-29.2285
-5.12919
15.131
33.9407
36.4985
24.5527
60.6459
75.3314
21.9494
-2.62202
-35.0752
-120.27
-141.181
-106.152
-50.6105
40.9511
74.6537
67.2632
39.1051
0.337688
-6.21015
-31.5312
-5.34943
12.8349
44.9682
88.175
77.4345
30.0487
-16.1181
-51.0689
-48.1599
31.6006
61.7662
64.6659
61.7287
68.3866
88.4879
50.0868
-9.13201
-15.7904
-6.74319
-34.5235
-87.465
-95.3589
-63.1751
-46.7596
-69.3289
-74.2822
-57.6122
-20.5679
-30.8226
-39.7422
-11.6732
18.2586
21.4169
-8.98013
-7.34051
73.6654
121.924
61.9914
26.3855
53.8949
64.8967
35.0502
-20.4807
-56.8853
-14.2314
2.49443
-39.1782
-77.6519
-50.5636
-17.8471
-2.05142
-13.9655
25.9501
59.3151
26.9895
-43.1486
-69.9943
-63.2509
-45.3968
-63.2128
-17.2872
84.8002
129.142
126.387
73.5095
37.328
-12.7316
-124.294
-200.173
-101.349
57.8875
143.292
130.639
77.7847
74.3027
61.61
56.8318
9.66627
-72.7826
-84.9454
-106.925
-104.695
-76.6827
-58.7338
-47.246
-11.725
75.3046
198.751
217.874
123.666
25.7035
-26.5679
-81.8665
-122.182
-96.1126
-48.8814
-70.2081
-83.879
-69.6744
6.0542
39.6244
-4.5766
10.887
74.8524
67.7391
49.109
26.8233
-2.47075
-4.42945
-61.5334
-88.4342
-60.1619
-43.748
-3.1981
6.08891
-19.8409
-38.7288
-25.9785
13.1085
61.5933
76.1831
31.6916
-13.5691
-30.1577
6.37631
30.3114
39.2911
19.5514
69.9675
134.775
89.67
-1.27969
-30.6068
-27.5463
-38.9266
-57.3592
-53.6384
-43.999
-3.77504
40.3952
11.4113
9.68855
-11.4375
-4.92891
6.49913
-55.5054
-93.4871
-15.1896
3.52426
1.80845
29.0709
56.5638
54.2787
17.1743
30.8758
47.0291
33.1307
-1.08484
-16.5747
-31.6558
-56.7801
-100.481
-37.124
-51.4542
-62.277
-34.405
-3.36829
-7.12595
-10.7618
-54.6382
-48.4494
67.1654
133.704
140.377
103.255
54.0025
62.1393
73.0881
32.2517
-54.7743
-68.0193
-35.7995
-85.3439
-98.2506
-68.041
-22.7145
-19.7421
-68.5811
-49.4122
9.45981
0.534324
-19.3386
14.6641
66.9285
76.2373
94.2057
160.967
175.483
100.52
42.3368
0.0352755
7.40918
-23.982
-54.0156
-77.0235
-72.3261
-32.0008
-32.4872
-62.4891
-53.5921
-23.1476
-63.4446
-104.591
-165.703
-158.92
-74.8999
-84.2789
-49.7879
19.8393
48.2883
67.9161
81.8744
79.4184
67.4746
93.7426
94.2697
90.0711
106.836
98.1226
60.7482
36.2809
-5.38072
-52.6671
-18.7954
-3.18235
-3.25042
9.00425
2.37716
22.6148
21.585
2.04184
14.4646
-19.0231
-36.1072
-68.8149
-102.907
-108.088
-56.9514
6.05287
45.1868
15.003
-14.6479
-10.9295
-3.89916
-1.58849
-52.2999
-53.0171
-24.7914
-58.7418
-58.6813
-41.8454
-12.7137
62.2667
85.2182
79.742
147.391
219.943
173.448
84.9851
-24.2834
-81.7866
-110.555
-114.406
-151.218
-136.285
-46.7353
-17.994
-23.1371
6.92959
30.0534
88.5868
73.3333
10.2073
35.0385
54.56
15.8118
-39.025
-36.3353
-35.2126
-47.9555
-67.8651
-6.60367
47.8387
138.854
105.357
36.7142
2.50767
-24.6727
-0.472683
12.2343
9.74663
44.425
13.0137
-21.4996
-44.4495
-66.1878
-100.815
-122.295
-77.9872
12.0791
47.7237
38.8506
34.9145
23.6582
19.4924
-28.7956
-54.1805
0.600471
13.1116
4.7944
-35.6108
-77.3131
5.89599
55.2592
72.0838
91.7722
75.488
69.9151
38.5406
-1.10146
14.8948
4.63324
-17.754
-53.3276
-87.7747
-46.0454
-23.6668
-45.6252
-48.8337
-36.4918
-0.369008
32.214
23.4416
13.655
-14.2152
-34.2505
-36.0424
-4.80997
18.8062
-3.37797
16.4615
33.5914
6.01569
-26.7028
-16.4115
-8.11027
21.3485
27.0394
115.132
115.31
83.7161
49.331
0.852509
-118.555
-192.707
-214.161
-120.635
-49.9845
46.486
73.9369
105.552
142.967
143.275
94.0568
16.6315
-52.8377
3.61579
43.1003
3.05668
-5.92573
-17.3903
-48.5157
-45.5741
-7.60406
-5.84301
76.9434
112.221
53.8187
-11.6544
-21.5007
-54.1161
-98.7595
-99.7841
-88.944
8.92815
69.4779
-2.08458
-37.1418
-46.2286
-41.9895
-63.8824
-97.1291
-35.3827
4.51438
69.8812
65.2118
13.7978
-4.28808
-6.25295
-4.55449
6.96078
2.30095
-7.02617
11.4951
13.1314
12.4053
30.5575
28.1488
-24.6561
10.9432
56.6156
72.2376
40.1887
38.4847
51.8395
21.6559
-24.4407
-30.7756
-28.8425
-30.3419
-49.3422
-48.2247
-27.6851
28.382
59.4413
54.2471
90.8469
53.3741
-2.23166
-42.0412
-59.643
-26.7199
2.76344
-5.50078
0.733485
-26.3198
-41.0614
-44.7853
-78.1595
-77.9383
-60.4066
-37.6027
19.5049
24.7994
-5.62898
-10.4086
-42.4656
-42.8131
19.304
14.6586
32.8518
89.4888
34.5462
13.1026
11.2477
16.0365
15.9354
38.6534
56.1057
62.8138
109.569
85.2234
56.7055
38.8233
48.2061
38.5916
-25.2764
-81.3154
-90.6638
-87.4165
-95.047
-131.634
-100.118
-30.9707
-15.1152
-10.2519
-10.3954
31.1956
49.6233
66.6295
42.7553
32.009
16.5371
29.7403
7.86549
8.78048
-10.4174
-30.3444
-58.2734
-64.8284
-61.9102
-66.9992
-69.9217
-32.9661
28.6369
67.6004
82.1024
39.6914
13.2656
24.4253
2.64927
32.9885
26.516
-5.04981
-9.63259
-18.6985
2.65566
51.8959
45.9981
17.2609
67.176
75.0959
58.7291
18.441
-24.9381
-28.4402
-19.813
-56.7075
-85.3475
-53.0529
-36.557
-63.1937
-60.0449
-40.0133
-20.2348
-48.1369
-95.7012
1.01172
79.2873
123.523
70.4158
38.6049
44.7423
30.516
-34.1581
-25.2314
14.3762
21.1839
21.8591
-10.3503
-25.6278
-8.07394
-9.70507
-47.5878
-13.7738
91.867
122.809
68.3542
25.9238
6.06359
-18.1337
-64.107
-71.5149
-53.9479
-26.2291
-21.9196
-44.7551
-43.0685
-41.1251
-53.4486
-59.2913
-79.4331
-40.9124
15.9812
17.9355
9.37835
47.5462
49.7524
34.1857
8.48038
29.966
103.426
115.5
93.1931
71.4694
29.6293
-3.72676
-33.5037
-41.7325
20.6073
38.363
36.274
-13.6304
-49.836
-59.6978
-100.82
-66.3941
-22.5348
-4.39425
27.3186
3.80091
-46.8796
-68.7971
-67.9478
-17.0985
26.5117
34.6776
71.5716
88.8162
44.6624
36.2991
30.7233
63.7374
78.0859
3.22595
-60.3894
-93.3975
-120.443
-122.941
-123.434
-120.653
-44.5479
43.4768
47.2288
43.431
27.3493
20.3914
37.0898
45.4834
7.60193
-3.94294
64.129
45.0115
47.1069
68.5625
74.063
49.998
8.92511
-27.9787
4.82087
30.3854
6.71006
-19.0554
-4.57703
-14.1018
-23.5179
-13.4344
37.5295
15.7428
-23.1816
-46.5279
-75.7279
-95.8435
-125.031
-92.8983
37.6038
108.412
46.8625
9.28616
-14.8982
-17.0682
-19.7811
-30.6384
7.93287
10.8683
8.63852
8.81629
-29.4046
-39.0403
-43.3053
-45.691
-71.4317
12.9077
75.5279
117.661
92.8915
83.2366
127.664
153.59
102.149
40.5834
40.0367
9.32556
-62.7821
-99.7591
-93.3532
-94.6823
-127.425
-104.654
-27.6341
-11.3943
-16.1596
-60.5702
-80.6877
-85.0528
-135.737
-115.598
-26.2998
46.8293
81.6979
86.9376
39.909
28.763
29.198
120.559
141.847
114.93
105.712
107.165
74.6856
43.7661
21.8209
1.93911
50.5144
26.6456
6.12136
-30.8433
-79.7559
-146.231
-182.511
-173.018
-155.953
-29.1637
35.6739
7.65998
2.90309
42.5873
57.6924
43.6673
12.4775
-7.81362
-7.21222
-21.1885
-57.613
-50.6181
-8.91139
26.5473
62.867
119.905
146.214
191.606
237.771
144.667
29.2795
-131.031
-217.419
-198.735
-160.504
-111.334
-46.5457
-9.36953
4.71249
-5.64235
-31.5235
-36.4113
-85.3814
-101.827
-68.4422
-44.8082
-8.91825
1.43157
6.69762
27.3151
59.4241
150.029
188.824
135.451
81.027
36.8778
-6.10985
-29.2616
-22.0292
-19.351
14.5381
53.8573
45.6698
16.5382
5.27263
38.2804
64.7583
42.0731
-47.5365
-81.1786
-88.0016
-90.6443
-66.0206
-44.7103
-12.7299
-4.11894
6.39416
63.9806
86.7048
88.0975
35.2125
-3.55122
-13.449
-53.3254
-87.4845
-18.7785
-37.6506
-78.2831
-71.4466
-69.5459
-24.7123
25.7654
25.2951
-13.2347
-9.15367
73.8151
75.4213
45.056
17.845
30.2258
49.1503
32.4402
25.3792
49.3733
31.6174
-69.4976
-104.189
-93.3184
-86.3361
-109.382
-100.179
-69.0962
-41.7544
61.942
99.5002
49.2825
34.2043
24.6215
27.4403
35.01
17.3808
31.4132
77.7285
80.8416
91.9018
56.187
37.5807
21.3378
-21.1654
-17.222
40.2332
14.9424
4.41441
-4.0043
-2.49267
-13.4193
-38.5566
-43.6968
-3.20169
-13.3779
3.67837
-11.3801
-57.5449
-118.713
-176.127
-151.704
-92.5977
-23.0107
52.8092
100.014
98.4354
89.1116
37.8671
49.0181
48.3947
-0.412177
-3.96297
-2.44974
-36.8302
-64.8859
-70.0761
-44.3906
-26.2443
64.399
110.64
77.8541
68.1709
82.0457
78.1378
23.5093
-51.1733
-81.1798
-8.03702
-34.1245
-63.2458
-37.4341
-23.7682
-28.6881
-35.6579
-30.1978
-55.6989
-20.5305
1.63635
-21.2628
-18.572
24.9195
53.5615
34.2644
1.22119
17.492
13.2631
13.5605
7.82135
-15.4549
-27.5292
-14.7658
-39.1085
-26.6159
-28.3979
-3.28514
43.2196
60.8284
90.3465
76.3011
8.26355
-9.04413
55.0962
70.9907
54.7442
29.0025
21.0444
34.0669
20.5927
-15.7589
-50.4369
-30.1939
5.78678
-10.6673
-16.2173
-23.1964
-30.6846
-51.0178
-77.5306
-33.3401
19.3877
-30.234
-112.021
-125.904
-99.151
-91.8049
-91.186
-29.6177
6.33713
11.0003
27.4285
27.9198
61.9421
91.4578
96.8641
132.637
135.651
108.292
94.203
71.8669
70.035
68.1535
5.18347
-3.38071
-30.1101
-32.1904
-16.9332
-40.1979
-73.6918
-73.9671
-72.1029
-64.4202
-41.5201
-12.1402
-7.21022
-7.44903
-29.0578
-78.8227
-104.36
-133.261
-145.831
-80.0269
-2.79712
15.4981
43.4135
53.9394
93.7383
129.637
140.262
106.3
111.761
143.04
103.424
48.3321
-5.99821
-47.5684
-52.5397
-63.6067
-49.1212
-3.60291
13.8834
16.2397
-9.04495
-49.573
-68.8512
-86.1744
-52.3146
-42.4285
-64.2723
-20.4191
-17.7842
-75.1465
-70.9543
-74.2398
-21.068
15.3536
57.2409
101.544
130.172
117.908
101.995
43.0615
17.6109
74.6206
104.687
96.7648
45.0987
-14.2756
-41.7291
-61.6374
-70.9396
-108.142
-119.234
-75.4798
-80.6578
-66.0195
-55.6676
-26.2524
6.97407
-4.98943
-14.2701
54.9738
70.6046
41.7422
32.9749
32.2181
3.98001
-13.0185
-8.2617
75.2332
82.84
82.7903
49.137
9.40275
0.545176
-42.8536
-60.6069
-10.8483
-52.3389
-83.8831
-73.5352
-86.7687
-70.8598
-57.099
-50.7419
-0.161217
46.6617
45.399
43.0237
8.04902
17.3252
33.4426
34.1826
8.15832
48.4185
120.139
104.482
33.2125
13.9562
21.352
30.2154
-6.59396
-92.7824
-62.9482
12.4532
-14.074
-42.2717
-37.6847
-25.1687
-15.3305
-2.07318
7.73443
33.3184
32.4008
10.3321
-23.7337
-41.4444
-41.9374
-25.7046
23.7002
63.3081
63.9729
98.4732
83.8527
56.1908
-1.91626
-96.4
-91.026
-65.4512
-100.257
-132.308
-126.756
-62.7599
24.5034
16.4309
4.20042
60.2932
47.0065
28.9315
-13.3255
-54.889
-62.5598
-44.0304
-83.7086
-67.2582
29.6418
131.619
115.504
92.9125
88.0938
94.0118
98.6656
66.3052
44.233
110.74
93.8583
24.0042
-16.7502
-43.8419
-42.0796
-35.0063
-72.9417
-22.1861
41.9355
-16.9589
-25.1635
-21.9591
-8.94551
-6.68072
-5.33931
-52.9987
-112.05
-66.4539
-96.4255
-123.451
-122.897
-112.68
-55.5701
-2.78636
34.2958
123.049
185.959
130.045
56.3575
8.54919
-18.2367
-13.664
-33.2519
-30.6539
-0.0923351
20.2809
62.6586
44.7111
62.4485
49.2328
19.859
-32.5302
-64.915
-13.7414
-16.2057
-63.9141
-76.9998
-60.6471
-30.0598
-8.72095
0.407683
38.4907
42.6503
34.327
9.86894
16.198
26.2323
-2.0464
34.966
36.954
-6.00257
0.602129
27.5349
34.2295
38.9528
-7.266
11.8117
4.43236
-18.5777
0.941682
4.19611
-8.60043
12.7724
-7.4926
51.843
49.6994
1.31076
-45.595
-111.166
-146.665
-81.2161
-51.5783
-39.8195
38.8708
20.6531
3.48148
8.57302
35.5374
63.7252
77.4214
85.6971
41.7832
25.8841
79.1019
11.7909
-15.0629
-19.8588
-29.259
-32.8907
-34.7782
-53.9955
-79.1073
-51.2947
-73.6607
-71.0831
-53.8595
-44.5586
-31.6283
-20.7374
-9.88219
-3.50735
38.1009
75.1523
28.9029
-6.25826
5.15584
24.1539
50.2468
35.9192
50.1162
112.296
131.442
100.056
41.0211
23.1615
11.4611
-30.7593
-17.9319
-14.189
-35.5615
-50.1428
-60.6461
-70.6522
-91.43
-93.6748
14.4474
41.4145
40.086
41.7254
29.3845
5.80406
18.578
-9.1065
-48.8884
-14.6891
48.727
23.5034
-9.59812
-36.0291
-32.4308
-16.1786
-38.1083
-32.3394
11.375
23.6602
-10.3995
-18.364
-45.7937
-54.6259
-58.9469
14.8756
62.6186
57.7662
70.8747
75.0064
60.0648
58.9679
4.59899
5.4017
-17.6404
-54.2266
-51.4446
-38.579
-25.2363
-0.797338
-4.7805
24.0211
101.991
103.235
81.7469
20.3639
-11.8261
-36.5272
-90.4816
-171.33
-173.877
-149.624
-113.437
-61.4897
18.8262
72.2732
87.815
80.7483
72.4976
113.322
104.253
42.9673
-7.92398
1.15529
24.2504
21.5199
7.2555
-20.4288
33.7519
26.0359
-60.2283
-68.0477
-31.6177
-20.8446
-38.2732
-18.3688
45.7032
17.2628
-38.4433
-65.1766
-39.332
9.66877
10.6088
51.3053
70.6601
22.6395
10.1649
35.1184
8.03401
6.68321
15.1139
64.4315
57.2654
18.0811
22.6063
24.5827
-26.2388
-34.704
-35.5466
-3.39648
-12.654
-26.0945
-25.8974
-44.2992
-81.0058
-95.1536
-89.3614
-104.158
-88.3279
8.97354
49.2009
40.517
56.7917
48.3598
33.5447
-1.87436
-59.24
11.7514
61.7277
19.0932
8.03935
4.8753
-6.64708
-16.3164
-33.6816
-26.9165
38.2805
114.401
107.263
108.772
123.174
97.6127
59.9538
22.422
-18.8229
-31.5093
-46.4508
-84.6945
-84.1751
-79.4343
-80.6716
-87.7097
-73.8426
-23.5016
-18.772
-32.2702
-36.3177
-25.2702
3.60229
-18.5915
-41.2535
22.5706
93.3863
107.431
95.8668
61.5181
24.2638
-33.2067
-48.0441
-47.8845
-45.5234
44.2185
60.4288
44.9235
52.9422
55.2026
15.3889
-56.6903
-67.8162
-44.5444
-46.0614
-85.6688
-131.896
-129.471
-97.6622
-68.4784
42.0142
99.2345
125.001
138.829
137.962
95.3103
66.7601
8.83557
20.5588
1.75295
0.411948
14.7401
-10.6161
-46.9519
-48.8573
-34.7615
-1.72541
0.154848
-18.8901
-33.4238
-34.8265
-17.3485
-28.2602
-39.187
11.2978
13.726
-1.38225
-16.552
-24.0949
25.571
35.7553
29.3605
19.4567
-7.81154
62.8557
73.7424
22.2582
-2.47743
-12.0033
-6.73177
-19.7404
-45.663
-98.6397
-56.1557
0.313847
-2.74834
-3.57907
12.6951
24.5635
25.2233
0.233369
-7.60341
50.3918
57.5297
-16.6614
-58.5982
-56.3685
-33.3934
14.4699
8.86947
19.3983
4.77666
37.9631
14.8866
-72.8603
-106.083
-91.7988
-64.6798
27.9049
39.8506
64.9464
99.2824
74.883
71.1373
54.7076
28.7794
32.9751
54.9778
49.3423
26.7473
6.9569
12.0666
8.63705
-37.272
-91.3216
-127.211
-62.1431
-56.7749
-95.9481
-83.9599
-60.7539
-20.32
-2.47874
17.3399
97.631
93.2986
46.9323
1.31935
-23.722
-10.3853
-37.4735
-64.8807
16.7745
62.2088
45.9775
74.2898
64.616
75.4328
48.7662
13.0424
32.9008
-13.0828
-60.0295
-61.0252
-78.288
-61.4514
-42.0772
-44.7243
-6.77797
56.7161
60.1525
64.532
17.3136
-16.5574
18.6292
18.1995
-33.8643
-20.4926
47.1288
31.8887
6.17438
10.0584
-14.1142
-20.3352
-39.4386
-54.2405
-59.9539
-8.19845
-32.3754
-68.5598
-73.1034
-39.277
2.90013
40.7451
22.5325
6.46737
58.2087
82.0829
35.5235
8.43448
-29.3016
-46.9695
-62.7616
-21.0223
18.3095
36.3844
44.6916
22.0385
20.0947
21.3541
5.77776
10.171
48.7454
46.8601
57.7435
82.4368
80.5235
54.4915
11.774
26.4186
27.2481
1.99524
-21.3913
-81.3509
-120.671
-91.5982
-68.0449
-105.532
-86.645
-8.7068
23.7136
21.1503
-37.3338
-64.5368
-40.8604
-17.0298
-58.8101
-26.7477
-21.4136
-5.26942
1.81181
36.084
67.4472
57.0034
37.0546
75.5358
97.7433
94.7291
46.6043
1.27663
36.4993
34.6013
-34.7039
-33.335
-37.0496
-30.6323
-19.3203
-42.8886
-38.0811
-22.5399
-47.1459
-86.6896
-56.1672
49.0204
77.8342
58.3405
48.316
29.3697
18.5138
-28.8501
-42.6036
26.0011
46.9616
27.9589
28.9979
40.5785
29.4768
-11.0436
-26.9756
10.4918
85.8256
87.7162
39.6804
-36.6552
-77.1558
-118.561
-128.576
-108.759
-53.1573
-19.2332
-22.8929
-47.8059
-28.4835
-9.12963
0.270754
-7.99342
36.3924
39.4465
40.7361
21.8078
5.25604
13.4432
-12.1877
-1.36801
88.6423
86.3072
36.6749
35.1177
49.8515
36.5018
22.8767
-20.5448
8.7685
17.5433
6.92156
5.89645
-24.7726
-47.8753
-81.3424
-120.635
-57.5439
-24.4606
34.935
49.9057
27.4475
7.39687
-13.9162
-30.5183
-38.5825
-44.174
20.3845
22.1895
35.0256
85.9708
88.1819
25.2268
-24.3534
-7.09553
58.4276
85.2403
-23.1518
-64.5037
-78.6182
-109.069
-134.559
-105.042
-60.2168
10.5532
41.9749
54.8323
37.905
62.428
51.3841
4.78127
-57.6109
-19.1121
19.081
23.5832
4.45747
4.3244
24.2369
52.0262
66.601
106.006
66.3267
63.188
83.0914
62.3332
10.9812
-41.5314
-67.7665
-66.3955
-112.514
-96.0071
-70.0194
-98.4314
-101.71
-92.875
-65.8671
4.87161
23.6894
28.7899
21.9506
9.24229
13.9462
1.45875
-10.8928
-18.8151
48.0666
108.084
111.671
94.6013
73.9176
26.2258
5.74625
-3.5939
56.2172
49.9917
28.2101
1.95149
6.81306
20.3996
-5.51582
-60.3421
-19.6869
-16.8254
-41.8096
-37.8896
-59.7043
-54.4799
-87.5391
-134.339
-46.671
-15.7622
10.7139
35.8425
-8.61735
-1.75322
-14.0703
-38.9514
-17.9323
14.6667
42.3464
66.4367
60.0846
62.8489
79.2085
58.883
-26.6917
-83.1726
-34.4314
1.59872
-16.3444
-4.44033
19.318
6.10163
-22.7359
-21.5555
40.5638
94.9579
53.4975
19.7483
-5.31012
-15.6708
-14.7104
-20.0845
-55.3275
-19.6682
41.4904
77.0277
55.8478
40.9483
-4.37469
-50.0446
-88.6866
-14.3129
63.6991
50.4405
0.392613
-72.7379
-94.1
-85.4738
-65.7283
-18.8714
-13.8465
-24.5581
-17.0267
-24.5029
-16.6836
-11.9466
-45.1966
5.82857
45.4125
71.4275
109.185
80.5978
40.8869
39.2284
-9.11978
19.8376
74.5622
71.3034
55.8865
18.875
8.66684
1.9895
-28.2525
-113.032
-139.033
-62.0228
-40.8095
-43.8873
-41.3394
-33.9973
-20.3045
-43.7767
-36.1525
32.125
43.3274
39.2848
43.1133
34.5621
40.9658
27.2763
13.9606
53.0611
80.8971
112.635
106.396
26.0893
-25.4178
-75.7154
-97.9367
-131.234
-109.244
-23.2338
-7.56758
-20.0419
2.79305
-11.846
-29.9385
-44.7708
-1.34769
59.4626
47.6455
10.7753
12.5895
20.4172
16.1342
8.05321
24.8533
38.2029
55.4411
84.2961
70.9607
15.8113
-19.0773
-29.2935
-18.2748
-55.0126
-80.9002
-25.5454
-29.6283
-68.7332
-68.5447
-68.5362
-43.5235
-12.7662
-15.7861
58.7368
94.9572
105.16
68.0303
26.4931
-1.71222
-8.66914
0.622192
14.38
-38.4648
-47.1529
-51.6315
-78.691
-62.8728
-55.6103
3.2145
47.075
67.354
94.7022
111.268
67.3079
41.5617
-3.47592
-21.0238
1.3205
-27.183
-60.6579
-55.7121
-49.5522
8.02162
52.0502
43.8557
-23.4437
9.7911
76.7119
10.9789
-41.1484
-46.3836
-37.704
-17.5963
-21.2261
-23.1263
65.3728
94.4597
125.37
100.517
40.7232
-37.4887
-104.999
-112.329
-125.707
-117.672
-16.6282
-27.2062
-70.3542
-55.904
-40.1671
-37.1393
-51.2395
-45.0023
32.9461
68.0166
28.7807
8.6783
-16.8167
-7.98735
25.9109
70.318
134.882
145.013
132.678
120.6
65.9722
2.13472
-27.244
-28.5023
17.6616
51.3426
30.7057
0.0304363
-57.6584
-49.4734
-64.6794
-72.1208
-101.222
-89.9437
-46.9133
-32.4206
-62.8417
-51.2912
-4.66714
-5.21432
-47.5491
27.5136
105.727
127.298
108.817
74.5607
54.1512
21.6732
-38.303
-35.9001
-7.45968
-23.1118
-46.6394
-60.5635
-65.9523
-48.4741
-45.8399
-33.2423
1.85928
22.8645
77.1136
68.6983
38.9616
10.4636
-69.3582
-78.1657
-18.0674
-8.72229
13.7173
8.33183
-15.2216
-3.47027
21.3643
0.209095
21.67
51.2702
22.8518
-18.0506
-13.0734
54.9151
91.5658
77.3325
53.9055
-0.00231912
6.60001
12.0614
-35.2471
-46.8241
-72.7986
-78.4729
-75.4014
-41.6213
-11.2116
38.8166
84.5694
27.5972
-16.0613
-8.82179
-13.812
-19.1944
-28.4317
-76.1272
-95.9554
-14.3176
-15.3123
-9.78082
30.1756
56.1527
45.5599
-3.64597
14.4599
76.2032
85.8199
102.688
62.8709
60.6747
94.4447
52.7579
6.86726
-48.2155
-111.508
-100.5
-84.1504
-86.7495
-59.5479
-75.7851
-89.8897
-31.5119
-0.836806
9.5905
13.2833
-1.57828
17.1868
42.459
42.4964
40.9957
74.214
74.0204
20.8061
-37.5881
-47.2922
-23.58
-10.7377
-12.3533
82.7183
100.001
67.6246
23.1845
-15.3528
-31.2013
-83.8425
-128.474
-84.7677
-96.0823
-91.8267
-30.867
-3.29355
34.014
65.5905
112.226
185.552
153.847
62.7328
18.0132
-25.095
-38.2293
-19.8001
-15.7709
-2.81507
30.6575
32.0235
-3.99783
-40.7297
-50.9557
-53.2223
-67.6763
-101.086
-100.941
-57.2047
-16.8598
-9.63377
-13.2713
1.64772
10.9874
-0.220959
6.78361
11.7159
30.5365
73.6388
66.8724
41.5772
32.2073
1.99311
-0.179988
17.2974
53.15
88.7233
95.7763
66.1798
27.2281
4.4931
10.8672
-4.10002
-35.8063
-8.87713
-14.1567
-55.3577
-96.4122
-94.1765
-73.2344
-37.3914
-23.8384
19.8747
30.9271
-7.67833
-60.5416
-88.8641
-71.3635
-89.0731
-80.8956
-60.0298
-87.5846
-49.1137
12.063
5.63049
-5.04234
9.54502
46.102
141.53
214.644
210.487
178.075
123.416
82.4614
57.3158
26.4953
8.09322
56.7309
53.9423
33.4467
-21.0365
-43.5086
-64.5
-116.474
-153.324
-64.9869
-12.0165
-12.9631
-71.8333
-111.221
-94.3319
-72.1264
-75.7271
-69.4601
8.95694
101.13
87.3892
-62.6927
-112.248
-110.245
-89.2391
-42.0182
17.8985
53.3103
124.751
142.314
151.345
142.434
90.8567
55.0164
92.6103
106.465
86.2534
44.4992
-43.0695
-135.955
-201.976
-192.223
-89.5316
-4.18454
41.431
73.7232
79.816
65.762
-8.74942
-82.8914
-105.773
-102.017
-9.71521
19.1474
7.95808
0.214858
8.39984
31.582
10.0593
-25.1776
60.2606
84.7222
63.9162
25.1748
-13.5111
-36.5953
-47.5746
-14.3497
69.1393
114.907
85.1175
54.214
-24.251
-45.3684
-45.5712
-76.5268
-75.7393
-108.839
-105.249
-38.2354
-13.66
-12.1672
-44.6932
-49.1582
27.1018
55.9257
57.5692
49.6501
-11.7558
-52.4481
-62.3431
-80.6248
-27.3911
16.6876
-0.220974
39.8975
78.6457
130.738
157.309
140.33
90.1999
100.315
124.425
96.3029
14.4992
-32.2447
-56.884
-84.7371
-97.1093
-88.9212
-92.3844
-38.3719
-101.959
-157.473
-136.737
-79.2559
-57.3009
-57.2857
-29.5595
87.9781
130.083
141.28
100.788
72.5674
56.1621
13.0767
-30.5174
1.93628
-8.51329
-16.6621
9.13785
-9.50976
-8.40044
-30.9111
-77.2914
-10.337
-1.01012
52.6152
69.8832
-22.7882
-67.5589
-93.3746
-118.814
-48.2931
-37.7594
-33.8658
-14.5484
23.9727
58.2049
67.5896
88.8671
118.593
142.205
141.149
138.824
44.7445
-15.2815
-68.536
-150.291
-137.069
-76.7606
-76.4683
-40.4397
-38.8253
-27.1825
11.1246
64.7699
123.145
133.477
113.298
103.228
66.0269
-8.8849
-92.9291
-163.342
-108.097
-45.3874
-36.8805
-28.0218
-59.2629
-55.9692
6.50848
33.4356
-26.4224
-6.15537
97.2842
97.8123
39.595
5.97404
-30.4696
-58.1315
-64.6975
-87.2779
-70.1791
34.1125
37.0726
12.1693
4.56279
15.533
20.995
15.0046
13.9555
-2.55646
31.3294
3.38847
-73.7046
-62.081
-36.3958
3.98715
15.8139
-15.7482
23.2047
79.6714
130.634
102.71
57.4787
57.746
58.3399
54.4143
78.1019
73.7255
7.61856
-47.6317
-133.693
-163.81
-130.787
-84.6162
-67.8846
-120.204
-116.193
-58.3324
-35.334
-22.5872
39.2942
59.7489
87.0086
112.506
126.303
151.718
119.196
49.1306
31.4285
43.5735
33.4614
57.6218
25.6179
-44.7032
-113.973
-93.4396
-75.8948
-67.5315
-91.4938
-95.6119
-28.3793
6.44835
-19.2428
-0.975401
7.10699
-36.979
-67.7352
-95.1525
-79.3054
-42.9429
-15.0006
-23.3761
-14.8827
17.8403
81.1571
171.105
203.402
183.98
187.02
128.15
18.3445
-47.7853
-97.6184
-152.421
-181.452
-143.522
-18.945
55.3017
116.275
148.957
159.484
135.214
81.4658
12.991
50.3922
7.41423
-61.5194
-104.907
-159.046
-156.333
-147.512
-116.139
-73.2752
-69.7261
-29.0876
-19.8277
-65.9941
-62.9777
-58.4737
-20.6722
25.9677
96.0506
138.461
143.369
86.0973
37.8011
16.2579
13.8075
1.3006
35.1323
1.11147
-16.3528
0.488666
8.9153
18.4835
16.6283
-27.1287
66.5802
84.5249
37.8853
23.4064
-13.1396
-27.0142
-33.8183
-116.93
-80.6849
-71.916
-43.8567
10.3599
43.4391
88.5986
113.737
62.5908
46.5207
-10.1623
-91.9841
-120.259
-127.311
-90.9976
-37.0975
-15.2883
11.7839
64.355
66.5225
4.36792
-60.7003
-32.4018
-26.5741
-27.5388
18.03
73.767
87.4129
114.817
89.192
75.6636
111.972
137.298
82.1863
16.8585
-59.7554
-76.8549
-101.075
-118.143
-104.129
-68.7879
-74.8746
-76.5746
-41.9747
20.6896
48.1665
6.8771
-64.5308
-79.8785
-40.6754
-23.4746
-5.33212
36.9917
12.6447
-15.2937
-10.8958
6.06343
7.6204
12.0309
21.439
106.222
171.442
165.136
149.406
68.3072
-34.7734
-104.256
-117.732
-115.08
-105.872
29.5573
112.08
89.5623
58.9387
20.1788
26.2827
14.9588
-24.7035
3.3276
-21.0589
-71.477
-99.7118
-77.2475
-70.8647
-98.7037
-75.7333
37.4138
62.0306
43.6672
28.556
-18.7181
-41.7861
-100.73
-86.6843
80.3586
103.96
61.6626
48.7378
-0.471356
-12.7476
-54.1916
-76.0209
12.7697
51.2479
42.8575
40.238
4.62891
14.593
23.1615
3.97122
-56.1626
-27.4634
38.4162
64.2046
16.2773
43.7525
75.2183
82.9823
31.2363
-27.8869
37.5343
12.3019
-76.882
-122.574
-96.3853
-87.7614
-98.0229
-81.0109
-63.2936
-30.8743
54.5873
97.8635
105.574
66.3169
-10.3668
-59.6516
-93.552
-94.6077
-16.5002
66.4252
75.945
88.5605
66.73
69.376
87.5899
62.8477
76.565
70.9952
31.7623
-14.0131
-59.7403
-116.964
-175.802
-135.99
-70.2875
-17.0063
41.1631
74.9737
60.4863
55.0846
-12.9331
-71.7249
-21.3323
-16.315
-39.2068
-25.8113
-27.1718
-18.3663
5.8874
33.2453
25.6888
65.4295
127.95
100.263
70.5202
35.7086
-7.24197
-33.4128
-58.8842
-18.2957
28.6183
42.9319
-0.150645
-18.5032
-52.7089
-82.7853
-83.1695
-48.4728
-2.87684
-25.5351
-89.5312
-95.4264
-76.8911
-46.5618
-14.6169
19.1761
28.4779
49.4502
46.4893
-14.0009
-29.4773
4.40806
32.4789
63.832
68.9494
109.73
116.203
91.1755
61.5005
74.0944
65.1467
-7.24177
-66.8181
-94.9571
-79.3565
-12.2433
10.6617
4.14388
-24.1146
-43.72
-66.6316
-30.2121
-3.69379
-12.3396
63.1549
60.4221
50.9443
11.7919
-48.898
-49.586
-13.2117
33.3404
174.753
194.148
100.691
30.7113
-9.2392
-92.2833
-176.352
-212.215
-147.732
-136.126
-152.828
-157.413
-139.914
-108.193
-76.7101
-1.40519
111.052
136.25
132.098
103.079
20.4843
-5.09365
-36.4441
-99.2143
-38.2044
55.5465
167.544
248.467
214.459
161.561
151.952
123.879
44.8824
54.642
75.5453
35.4069
-3.59835
-25.975
-52.4833
-60.5578
-109.697
-140.176
-64.9751
-43.9574
-140.254
-172.996
-157.646
-134.499
-109.756
-84.4968
-70.2139
-9.45828
54.2685
66.0055
56.8122
79.7467
81.3757
86.9894
67.3848
-18.001
-28.1169
11.1945
-32.5064
-45.096
11.6439
74.2516
105.284
81.5196
77.6072
95.4465
71.8868
25.5887
-14.5528
-62.0145
-96.34
-129.716
-127.548
-108.984
-9.56684
11.0625
-16.3355
-32.9119
0.789905
15.3771
5.73489
-64.1869
-27.9278
100.806
107.671
117.081
127.509
123.021
93.9126
58.2989
19.0947
16.2844
-65.3493
-125.472
-197.66
-151.866
-76.5593
-9.39177
20.4947
57.0226
43.834
29.8782
-14.9435
-69.1752
-69.3258
-85.8565
-45.3185
11.5937
51.4049
104.798
110.079
79.719
53.0343
-22.1882
-26.0714
39.1731
51.2741
14.4993
-11.8889
-20.7122
7.26937
17.0192
28.4517
68.4726
100.59
67.2413
-13.295
-85.235
-149.729
-189.471
-195.719
-196.431
-91.3115
48.3586
67.3801
50.2568
40.9677
61.0004
76.9114
43.6872
8.9768
44.8404
98.9826
29.691
-68.6683
-93.897
-109.643
-113.806
-68.0865
-19.8233
28.3235
133.762
144.945
129.183
132.223
133.441
100.36
14.5469
-48.2153
-14.776
28.2575
40.2064
0.738233
-47.0746
-93.2141
-129.073
-165.534
-85.4018
1.02512
26.5886
43.2558
10.1514
-24.7108
-44.4692
-72.9432
-64.7848
-1.13457
39.2326
47.451
41.6052
48.5213
35.3914
-26.4234
-71.6095
-51.6355
72.1375
120.358
86.5082
32.8793
-32.4897
-77.6757
-110.867
-67.7817
8.44597
35.805
20.5097
-1.92093
18.0828
29.0588
-19.0952
-53.5862
-55.0781
-47.8344
0.36735
54.1446
35.2883
49.0636
6.67628
-20.6103
49.8067
99.6642
82.9123
49.9096
-18.4114
-22.6212
8.86207
43.9837
42.0998
47.8442
6.3238
-25.1134
-72.3181
-153.53
-186.613
-150.581
-113.56
-37.1357
81.6018
151.172
147.441
146.252
164.394
125.889
50.8909
21.7706
-48.058
-102.926
-97.267
-155.533
-157.681
-110.48
-48.8034
28.8747
46.0491
62.3691
101.113
51.966
-42.4059
-79.7865
-82.7182
-86.2715
-81.8441
-72.352
-11.9416
-9.22695
25.4438
36.0265
55.1871
119.448
115.867
105.718
138.376
114.726
116.896
66.4549
-13.3145
-61.1781
-126.933
-122.065
-75.3357
-50.4921
-32.4413
-1.851
35.9759
79.1755
58.871
-11.9571
-41.7481
-13.5203
-14.5237
-41.4003
-86.7663
-94.3476
-90.9765
-40.5119
17.364
56.9362
157.369
141.413
65.7844
6.04034
-19.893
-2.84
-26.0504
-108.728
-124.528
-112.523
-109.487
-113.979
-33.8844
54.7751
133.578
214.67
212.211
105.27
71.7294
64.8059
32.0849
-4.78842
-52.8871
-60.3216
-27.6883
-38.1389
-14.4541
-15.2856
-32.4129
-20.0127
8.83791
61.2832
53.6364
-13.7445
-9.82201
-7.77622
-39.0839
-99.4621
-187.752
-200.237
-169.565
-145.634
-120.516
-27.925
-0.0595743
39.7319
72.0445
131.476
150.677
149.967
121.213
87.865
55.4271
15.4867
-21.273
-37.0355
-2.36641
56.4174
116.499
214.272
210.738
197.567
157.213
21.9967
-144.078
-264.878
-288.245
-175.518
-115.199
-56.8643
-9.66868
-56.0533
-138.466
-174.765
-168.285
-70.8674
12.5045
106.838
155.49
141.145
141.173
95.9336
115.764
114.719
111.095
135.137
89.8902
-11.8686
-19.3566
-18.4606
-65.2619
-72.9043
-60.2144
-42.721
-90.7429
-157.553
-144.956
-81.5823
-58.6995
-16.3154
59.4699
100.909
2.70124
-132.399
-159.061
-157.651
-93.6034
-31.5495
-52.3636
-2.04764
77.4866
97.8951
136.104
185.515
213.603
186.667
132.378
147.929
154.643
73.623
-38.6816
-78.9876
-12.149
79.9667
135.568
136.523
-1.7499
-95.5361
-94.767
-155.674
-214.585
-249.866
-201.685
-61.8881
43.2285
76.6451
84.8802
41.643
-23.7326
-92.228
-159.36
-157.959
-109.587
-65.3406
3.56126
70.9342
159.678
187.428
151.866
77.6938
58.5955
146.19
93.9344
-18.8738
-110.225
-168.54
-162.361
-193.919
-145.728
-53.4525
8.35709
47.0172
61.2071
93.892
95.4923
42.261
2.23623
33.2377
33.5309
44.2106
20.8778
-35.1284
13.4322
63.2111
79.9867
113.062
126.163
121.518
76.3954
-13.3028
-73.3366
-73.6202
-111.302
-133.27
-128.578
-69.5681
-13.5063
-9.36233
6.55944
21.9323
35.7953
45.8418
82.4901
71.7565
88.1963
92.2164
66.3124
0.0745611
-107.083
-175.349
-226.046
-293.523
-169.593
-52.6284
-31.0484
-1.11922
23.871
-4.7825
4.09494
62.2409
203.218
245.422
159.44
78.0337
27.0481
-40.6924
-149.257
-200.975
-65.3818
91.5461
178.708
221.511
144.574
95.1354
69.4187
-7.43621
-5.99273
12.9377
-44.6251
-123.306
-171.975
-152.311
-61.9848
-26.186
-3.47162
-7.20637
31.3104
104.212
96.5495
43.0008
-14.5372
-46.6484
-93.0208
-118.368
-79.8681
-65.11
-116.269
-66.6367
30.5317
82.1362
22.9456
-55.6681
-59.1645
33.1456
24.2228
18.6806
19.8938
31.2951
34.8365
38.5419
55.8517
93.862
67.5055
62.305
76.7291
81.418
82.6461
63.5277
66.435
15.2933
-64.9161
-127.312
-230.189
-262.78
-155.405
-19.011
84.3344
125.168
122.546
117.977
137.542
142.156
118.858
56
-20.2013
-77.7914
-108.433
-47.6186
2.61051
-4.18792
-41.3984
-84.159
-92.3372
-109.835
-183.024
-238.991
-215.827
-118.186
-130
-122.586
-37.5736
62.0577
170.187
224.966
214.995
214.274
271.347
147.436
5.22261
-2.30149
50.9228
82.7931
113.951
81.9775
71.0968
16.1212
-8.90356
-59.2107
-44.7081
-41.8265
-108.869
-144.17
-123.325
-83.524
-51.8081
-62.1967
-126.371
-133.867
-100.281
12.5981
73.3318
127.775
187.585
216.352
151.472
63.7133
-60.5423
-76.0889
-52.1277
-33.3211
-17.3828
-68.8124
-97.7138
-82.108
-30.6658
-22.8054
-38.4939
22.924
45.9987
-3.08921
17.233
33.4388
8.12337
-22.8434
-10.4876
50.4661
121.577
81.3314
17.7428
-17.604
-9.01837
5.39065
-20.6325
-83.2684
-69.4024
-9.84666
-4.36054
-26.1974
-56.4382
-70.2553
-82.1981
-101.918
-42.9222
35.1479
42.6127
60.45
43.0102
29.1726
27.551
8.83443
4.51594
38.7568
66.1503
84.3921
39.3028
28.9059
60.007
50.9874
4.7713
48.412
102.098
121.359
77.7296
3.05479
-49.5463
-53.0319
-25.1165
-39.3664
-66.0615
3.73193
20.4276
-23.3867
-44.4037
-39.02
-51.4163
-90.1627
-118.949
-59.2735
25.7236
-11.0837
-62.1301
-42.2252
-24.1366
-7.35659
-31.5637
-66.4948
-92.6294
-89.9174
-73.7268
-95.191
-69.0328
-11.8309
22.9996
82.6451
111.578
91.644
92.3043
45.0246
34.8669
72.0957
81.0511
87.2978
122.608
90.883
123.529
143.662
134.091
110.534
59.9682
-8.71396
-60.9872
-50.8233
-72.3759
-114.301
-139.62
-132.657
-124.173
-147.787
-139.515
-54.6919
-3.7101
39.6176
65.1105
159.085
253.047
264.601
167.543
33.5794
-22.554
-98.7038
-209.944
-247.222
-196.061
-161.25
-140.686
-119.89
-59.9405
-10.4597
42.3255
18.8293
10.636
19.0612
