-4.8024
-4.24474
9.69181
18.5257
23.2526
13.3218
-14.0235
-12.7808
0.974725
-8.0242
-33.9884
-60.3351
-16.1954
78.7729
79.3574
34.3691
0.745953
3.6883
-8.47245
-16.0368
-11.828
-17.1384
-21.0073
-14.5555
-3.17877
-13.7146
-6.24431
-4.35027
-16.0436
-24.4757
-17.7398
6.18812
0.0490188
-37.094
-20.3518
26.5415
38.978
11.9244
19.8138
36.4638
24.9691
12.399
11.2199
5.34487
-16.4097
-12.9753
-0.248775
8.04775
-10.063
6.86484
27.197
32.744
23.6956
-17.6038
-49.1182
-51.371
-47.4787
-26.2963
-17.5536
-13.3795
-5.81788
11.7903
22.6972
7.10873
0.977821
4.83896
6.95732
6.14005
13.2063
16.8434
22.7549
16.5824
1.81402
-1.43282
-0.0559568
5.12654
11.6513
-5.11108
-6.08946
5.98945
15.3251
31.8873
11.1153
-20.2721
-37.0284
-42.7068
-42.7545
-14.2039
55.3816
56.8613
2.64766
-7.72597
-11.8811
-18.0839
-6.35439
-1.33807
-0.286253
7.8498
20.9296
38.7281
26.3623
-18.6227
-28.5171
-15.8704
8.62133
26.2779
22.4956
-1.27694
-51.5908
-52.3645
-22.9727
-18.4282
-15.8631
-12.1759
-2.12916
5.04449
7.40421
3.94349
-14.5849
-30.3748
-23.4429
-5.63162
12.7181
25.3555
29.1868
33.2737
23.1832
14.7529
9.50211
9.90665
22.1398
24.1542
15.7622
11.4262
4.22186
2.82865
2.87003
1.33676
-1.2176
-19.0269
-16.3868
-5.92805
-11.3225
-11.3702
-11.0589
-8.8322
-2.15672
-5.18276
-5.47173
1.82394
-9.98232
-11.6491
-7.18147
-7.82488
-4.411
-6.62016
-9.90879
-6.25492
-4.65418
-8.52409
-1.80406
15.6817
37.5073
49.9497
25.5767
-4.84672
-13.6882
-8.32794
-6.04334
-10.811
9.48208
18.9699
13.144
4.70115
-7.46859
-17.2404
-11.6286
-2.58748
-4.07424
-18.1678
-25.7453
-24.2068
-30.3472
-36.8379
-6.88211
11.2987
27.8183
37.1318
39.9915
38.078
30.3573
7.57702
-25.4989
-34.5806
-30.0975
-13.3451
14.726
16.6338
14.7591
47.0906
65.4701
14.0649
-26.861
-8.29011
-14.1187
-4.7598
-7.93437
-11.0809
-13.9683
-16.4287
-22.4282
-40.0313
-24.7501
2.69407
13.6468
3.04534
-4.91672
1.68464
6.96245
-4.51441
-14.1163
12.5527
34.6702
12.103
1.10896
-4.75665
-2.71851
-11.8439
-18.7421
-17.0223
-1.34911
17.7645
24.7821
19.8523
17.7312
8.48631
-7.44664
-4.74592
4.49811
-6.20499
-25.3906
-38.1928
-22.7591
-2.34635
9.53732
5.97716
10.3037
13.8448
16.5529
17.6022
14.0818
23.9443
19.8474
-2.44771
-24.847
-22.8703
-7.88517
-6.34966
-4.02374
0.346609
7.43132
14.9952
14.9234
2.29102
-6.51775
-2.3995
-2.17838
-11.911
-13.6983
-1.0048
-1.50502
-5.03553
-6.23857
-1.68233
17.8591
29.6673
21.4479
7.55549
-10.9648
-24.8123
-28.7858
-24.0823
-25.9424
-13.0577
9.77562
18.1498
11.3485
2.96254
-16.5604
-18.4378
-13.1622
-3.31022
8.22213
19.3058
26.8222
19.8729
10.9321
6.86198
-9.26554
-10.2876
37.2464
22.387
-11.2364
-33.1158
-23.4992
-14.547
-7.28893
14.7795
48.4642
106.92
110.313
17.8813
-41.3885
-79.5349
-87.622
-36.2074
-22.4571
-27.1572
-10.1799
-3.43241
-12.0507
-26.9754
-66.9302
-40.4394
15.1507
26.1791
28.756
39.2626
21.4882
-20.6336
-39.3451
-14.7792
11.1348
37.1165
68.6108
72.702
27.5147
-16.8459
-20.1948
-3.23099
16.3929
17.6158
22.6508
34.5624
-7.17276
-46.0851
-40.3528
-20.482
11.757
9.26244
-39.1442
-24.1668
-15.0754
1.07674
5.40716
10.5393
-6.22492
-33.9867
-13.9651
9.00476
0.626075
-10.0981
3.72312
-2.87406
-9.51096
13.7579
26.0273
43.0835
56.2029
39.293
25.957
30.2622
34.2838
12.1808
0.793298
-30.6179
-45.4974
-26.9497
-32.8915
-32.5317
-32.6828
-22.3238
-22.5951
-16.6866
-17.4973
-2.97882
-0.335048
-26.9364
-56.3548
-42.8079
-3.50571
11.439
13.342
13.8116
27.1853
40.8537
50.3535
47.1634
32.9426
17.7478
20.681
23.8935
33.3934
37.9948
36.2112
23.3669
-12.6554
-42.2602
-52.4276
-62.5434
-21.7591
-7.47409
-28.0197
3.20296
75.0229
65.0288
-43.4569
-158.109
-142.645
-32.9693
38.1976
55.3642
53.1026
44.2288
27.1321
17.7002
21.1886
18.203
6.04769
4.81626
-12.7842
-15.5959
1.5249
-7.5405
-46.4548
-39.5418
30.438
114.078
114.882
39.8986
-8.5994
-42.9786
-54.1281
-58.5573
-43.1376
-32.3087
-24.1616
-11.5917
-13.9025
-7.06794
7.95706
16.0238
18.8419
6.42818
-37.404
-59.8672
-5.75436
51.9534
46.8287
8.83438
-7.8776
16.0191
22.8865
14.5361
0.542064
-46.5204
-46.9425
-24.0316
7.49583
20.7264
28.9829
29.1301
5.7088
-19.7018
-20.9756
11.2379
34.2646
38.0302
56.1634
61.8167
37.8271
28.6664
-33.232
-95.9716
-91.7671
-20.5318
-6.95977
-25.2345
40.292
102.441
62.8649
4.80773
-56.3
-148.641
-142.124
-59.2084
3.80195
23.5555
32.7886
34.2927
35.2846
10.3864
23.6865
56.552
58.3251
46.1677
38.9829
35.1959
-11.3269
-66.196
-61.4595
-32.3741
14.597
70.3696
74.8193
32.718
-7.06006
-28.1339
-37.7445
-44.6094
-74.2068
-85.473
-46.3862
6.22252
30.243
21.2891
15.3159
6.73493
-20.9965
-29.2999
4.72211
33.7877
58.3106
56.5981
18.3066
-11.8774
-27.3255
-33.4004
-35.8316
-24.7525
7.10596
38.529
47.8091
27.515
8.99283
-3.99944
-6.76128
-4.13348
-10.3071
-11.269
-11.063
-18.9771
-21.837
-11.1581
-2.62775
8.0699
4.81644
16.1411
31.4514
53.0926
55.9093
24.296
4.13608
-3.16087
-21.0807
-35.0576
-49.3871
-49.63
-0.11547
45.097
-8.01565
-37.4927
-26.2229
6.77663
52.0948
42.7335
20.0277
19.0333
-15.8126
-59.4982
-81.3765
-86.6887
-81.5112
-22.4045
38.9736
56.9838
55.2354
51.5004
21.8355
-9.479
5.08094
16.6019
14.6458
30.6596
23.0943
12.3435
8.9965
1.7001
15.8377
32.5499
36.5158
20.7384
-5.02151
-23.6391
-37.8828
-35.8717
-14.8076
1.32318
-9.78811
-17.9226
-14.5028
-18.2343
-32.0979
-50.7757
-68.6086
-75.17
-32.314
-17.6451
12.7031
22.2365
26.2522
52.3746
37.3935
10.4826
13.242
44.5213
75.3567
60.9142
15.1014
-15.3943
-25.5157
-26.9707
-10.9439
11.697
27.3989
19.2811
-19.0627
-6.43961
-4.73823
10.7991
27.0844
27.0519
10.9676
-68.8047
-137.263
-103.782
-44.451
-2.2075
9.81495
37.7361
52.2609
34.5988
38.8663
35.9943
41.3552
44.1913
36.6353
17.4096
-16.7189
-52.8065
-53.2413
-20.5137
26.6757
60.6992
74.3039
41.777
-6.77591
-27.0673
-20.6163
-29.3413
-21.3509
-22.2223
-24.7367
-24.7658
-30.3108
-23.4387
-12.6228
-14.4367
-19.5019
-21.3141
-18.168
-14.1498
5.89537
28.0317
43.4767
33.6095
8.10219
-18.887
-9.05824
-4.60291
3.4201
22.3031
20.964
10.1863
-29.0957
-34.8161
3.71394
6.45138
5.59064
17.9006
26.6734
27.454
42.2387
29.1532
-3.55132
-32.5577
-34.1745
-15.5554
4.05717
32.0309
71.6803
101.263
80.539
34.168
6.64267
-43.5822
-81.9254
-77.6185
-74.8931
-75.3277
-58.5084
-9.59208
-0.260312
0.914923
3.94345
-12.3938
-6.18508
9.82721
12.5368
-10.9851
-47.0821
-67.5966
-54.5691
-12.1136
31.1764
72.9934
75.6264
59.6449
53.0703
41.3391
33.9155
-10.4611
-35.7763
-11.4494
4.46747
11.2682
-16.2906
-24.0637
-27.778
-29.1395
-19.6131
-13.8535
-5.9088
16.1457
33.0586
24.0308
6.298
-12.0561
-30.354
-16.1647
-2.28674
-1.66408
18.7229
64.7379
95.0067
72.9006
36.2409
-0.0312134
2.02483
3.19258
-27.4883
-40.6263
-42.6833
-63.9189
-66.7525
-46.8578
-26.5892
-0.595023
10.4601
5.10284
-6.77058
-9.08331
-3.95491
-20.2298
-29.9123
-16.3202
3.15151
20.4773
9.09298
-0.262786
17.7142
27.3924
28.3354
25.6806
24.7143
39.4464
21.7652
-4.31789
-6.57624
-2.58559
2.05252
29.6371
17.4355
-28.8199
-21.176
-4.1051
10.821
9.38349
8.45613
4.55284
1.27973
6.73117
5.29319
8.22968
-9.90601
-21.3219
-14.372
5.24075
5.83032
-12.0963
-35.4525
-46.0008
-22.5145
10.0839
-3.98401
-0.854668
29.0452
36.2816
8.89369
-14.608
-26.5918
-25.0476
-15.2061
-41.938
-46.8756
-21.8545
38.1041
82.1955
69.0564
37.6815
15.4112
-14.238
-28.077
-20.5259
4.19254
-1.26521
-27.2858
-25.96
-1.39923
-0.437542
-7.06408
-10.8959
-7.60877
12.5455
-11.27
19.6973
18.1318
-43.4584
-109.686
-87.3138
-18.757
47.9687
88.6281
89.1938
64.0368
61.2344
24.8645
-12.9888
-2.83011
25.5893
41.2694
75.6335
50.1801
21.8752
29.838
-31.2005
-60.8014
-44.4294
-7.26281
-18.2636
-44.2975
-31.1179
-30.8672
-50.4904
-51.549
-38.9689
-22.6812
-17.8032
-20.6406
-24.9404
-17.4185
-29.191
-20.0656
-16.073
16.356
36.305
21.2381
24.5807
60.2886
77.3459
77.8829
34.1281
-19.4933
-23.1067
-4.45465
-4.78066
7.60219
24.3176
10.8097
-10.6596
-13.9839
-21.2543
-8.50855
12.7248
16.1055
5.59645
-2.96398
-15.4068
-18.1262
-10.8117
-7.00102
-17.9559
-15.8677
-1.01133
23.0532
59.6929
56.9889
17.1371
-22.2832
-28.6205
-31.1346
-27.4794
-16.4985
-6.9395
-25.0027
-43.7846
-28.8362
2.99693
26.9378
25.1611
3.75677
4.09469
-46.3974
-66.7156
-32.3963
-0.23045
33.477
46.3289
52.3574
35.1511
4.14494
27.9311
30.1702
19.3093
19.8266
29.3233
18.6107
12.8576
-17.9698
-37.3517
-25.6138
-5.98719
29.0698
26.1865
-15.9238
-44.6953
-57.5532
-37.3428
-6.70566
24.0979
30.8369
2.10635
-12.5378
-11.8857
-0.99934
1.32948
-10.3547
-15.0312
2.52524
21.5223
20.5224
2.02607
12.1981
-0.918029
-44.2123
-48.9982
-23.3375
-4.09279
5.67339
5.26428
45.4509
68.1688
45.4487
2.51025
-43.8681
-58.2463
-56.452
-23.92
59.9026
106.012
61.2147
-5.07444
-36.5984
-14.173
19.9657
21.9875
6.34063
-4.69335
-16.886
-24.1107
-55.9862
-83.8671
-57.663
-10.466
20.1275
31.1115
33.0533
18.0273
-15.6057
-44.6305
-16.9141
22.5503
38.6625
42.0316
42.1106
31.5043
11.7444
-10.5245
-6.06302
3.6947
6.51059
-4.53133
-5.32375
6.48171
11.9662
2.96595
4.40823
-1.24631
-25.1773
-40.0083
-26.3229
-21.2404
-2.44263
12.9043
11.0177
0.962777
-0.0205307
2.65636
-3.83891
6.04094
18.8055
17.0198
26.7225
11.388
-43.4314
-38.315
-2.29566
-20.588
-32.8905
-27.8813
-32.5974
0.0989526
45.0995
76.3682
64.9173
33.3829
10.5757
15.2883
34.5667
12.1782
-36.721
-38.758
-9.22966
-9.51078
-1.04178
-24.8664
-94.6239
-89.3964
-22.3839
17.305
32.1509
19.5428
2.42587
-9.21453
-5.71686
11.8376
27.0048
12.5388
-17.5137
-19.109
14.8876
37.7308
16.3648
14.9808
39.9538
53.6482
65.8537
55.3009
-1.28107
-30.3422
-9.72573
5.09009
-12.7881
-23.5547
-36.9684
-45.3604
-34.8779
-15.5127
-15.8373
-17.705
-8.09573
-22.3846
-40.8588
-32.0068
-2.74785
17.9425
45.4185
68.8289
63.0333
49.0611
8.05757
-28.8814
-36.1134
-35.0983
-21.0515
-1.5062
-1.56062
-3.22025
-11.5225
-13.0066
-20.3386
-1.52697
12.3279
12.1468
9.09261
7.53462
-17.4456
-30.9657
-21.8312
-1.22279
21.7111
34.8293
30.5513
13.113
-8.80339
-5.2945
-9.49922
-10.3106
24.7543
64.9724
85.1263
58.0705
12.9719
-27.6316
-31.5586
-19.6555
-9.33967
-10.5511
-21.0001
-48.2716
-62.6484
-29.5165
-15.5857
-24.9748
-25.3974
-10.5967
7.0134
13.1396
1.39287
-4.3231
-6.3798
1.59278
9.26502
3.18944
-22.2136
-31.6796
3.0592
24.3026
37.5641
66.4778
74.1097
28.148
11.1935
12.8673
11.1803
2.31885
16.9017
23.9195
7.21766
-20.2948
-34.4251
-38.5571
-41.2367
-14.7484
7.53014
15.7065
-3.32399
-14.7908
-14.6969
-21.507
-22.5287
-14.5544
-10.7605
3.17151
13.1719
-3.83005
-5.85431
-3.42027
-9.54099
-18.408
-21.0011
-0.25754
22.5303
42.6579
47.1885
16.201
-37.4088
-44.4267
-29.3816
-17.4475
24.5044
75.4768
74.7808
25.2452
-9.02075
-11.3341
-22.3706
-20.4143
-8.97461
4.028
8.22071
-10.1219
-4.70251
-0.105304
4.4544
6.19844
20.5719
21.0252
13.5986
0.414609
-32.963
-54.5977
-51.9331
-24.6734
-0.494013
5.45459
4.59733
8.2419
11.3581
3.25784
-3.63073
-1.05429
5.25324
12.8173
10.0534
10.3212
14.1532
9.3999
9.76466
13.4272
1.79433
-21.761
-25.4797
-13.1
10.1437
26.8318
26.4541
18.5885
21.5588
9.30272
-22.2316
-29.3796
-28.6131
-14.2559
23.8433
18.0009
-16.0765
-34.0379
-35.7806
-20.6003
3.44585
13.9224
16.2508
22.69
19.0453
7.13337
-7.14153
-13.055
-18.6317
-4.70262
3.42933
5.54244
1.03712
-16.5558
-32.6096
-8.78204
26.3285
40.437
33.6515
15.5657
0.760383
2.11063
14.9065
-9.70096
-34.745
-34.5564
-23.8224
-11.4285
9.57014
40.6305
48.3606
19.2703
8.13174
-2.69065
-14.2645
-13.284
-27.5908
-10.9762
21.1678
33.6789
18.1508
-2.19284
-17.1376
-6.23133
8.14304
6.66632
-12.7152
-37.0144
-35.0307
-30.904
-17.1913
0.56528
0.331432
-15.9089
-38.3325
-13.2979
34.5813
34.0378
1.89299
-15.7543
-11.0195
-7.8478
-5.77881
7.7924
18.3858
35.2247
61.4498
75.4641
47.192
-22.5533
-107.184
-81.2554
-10.424
62.2763
142.553
132.644
53.9828
-17.0969
-48.4674
-47.1097
-33.6121
-33.1486
-37.1557
-47.7551
-59.2996
-59.6831
-35.8049
-17.3674
-12.5041
14.1866
63.4507
49.8858
12.1004
-22.3728
-66.1346
-76.8245
-37.1905
9.3617
27.4194
26.0739
24.0331
24.8236
41.1999
40.5276
38.0486
26.0697
-3.11172
-5.9758
6.44897
8.61087
28.1885
22.7638
8.96099
-1.5202
-25.4992
-30.6842
-18.7476
-18.0849
-13.423
-12.828
-13.2481
-1.96874
10.6918
30.725
29.6525
12.6955
8.12569
-4.34423
-26.1938
-24.9881
-16.4986
-10.1123
-11.9878
-3.64665
-10.2168
-22.1238
-6.43723
5.48701
5.15875
2.39348
-5.8888
-9.89429
1.55842
4.65053
6.87836
5.92355
9.42522
8.28206
8.97435
4.26593
9.2999
21.2522
23.0087
24.1945
23.0682
-8.31367
-45.5803
-42.4416
-21.241
-19.3678
-22.1341
18.9161
38.2712
24.5325
4.13291
-3.9348
-8.14471
8.49931
15.8677
15.6398
11.0401
0.442089
-4.53479
-13.6067
-11.6888
-2.50196
-7.8229
-11.8049
-8.84164
-1.37221
12.7142
12.2536
17.5313
26.1299
23.9047
20.8957
15.6851
-10.4516
-38.2485
-49.6392
-62.8943
-49.1186
-12.0884
-18.0865
-26.8441
8.29006
38.603
48.033
45.0656
30.4232
5.42633
-28.1937
-61.9258
-72.6581
-36.5476
-0.523528
21.8514
30.3914
40.457
46.5715
56.687
39.0121
0.376285
0.811169
6.80114
8.6833
7.60778
9.42532
5.58537
20.1523
41.7334
25.3838
-22.8388
-33.6595
-33.4106
-32.9664
-33.8511
-27.1772
-19.7841
-22.8427
-5.55373
8.73116
8.6215
12.7405
11.1467
2.4872
4.32767
-18.0147
-45.9206
-37.836
-33.7011
-23.1441
10.8713
8.57057
10.8184
16.7656
7.60764
12.653
24.3527
59.1807
78.1818
50.5222
13.4966
-14.5363
-26.5976
-27.9249
-25.926
-18.4015
-0.208659
5.14433
2.36204
-11.4131
-16.0552
-10.125
-2.35301
3.71996
12.3222
3.18682
-13.1326
-31.4644
-39.0984
-21.6424
-0.607571
17.4549
26.5906
15.1588
10.2532
6.68143
8.26955
-1.547
-5.24963
8.46628
13.2678
28.0467
31.1568
21.9411
13.0425
2.30923
-0.887157
-15.2419
-57.2635
-60.7521
-23.1922
19.1129
40.5355
16.994
-12.2868
6.33058
16.4173
11.8675
-4.71222
-29.0564
-59.253
-56.6664
-33.5478
-1.14986
33.0111
47.215
41.1896
20.144
-13.7919
-3.4394
13.7492
6.55324
-0.146244
14.3133
14.894
-8.61963
-11.5344
-12.7034
-21.5069
-4.45725
40.1937
78.0232
57.6477
10.6988
-30.7414
-38.7993
-26.3335
-11.4533
14.7344
-11.3218
-44.3509
-46.9593
-44.2802
-30.5272
-7.53582
-0.134428
-3.51516
3.37448
16.7071
19.5418
13.4762
-7.16092
-5.06962
3.14175
5.96322
9.10637
18.7714
32.0562
48.3058
52.8664
26.8665
-9.93641
-32.8029
-32.4814
-16.5125
-5.71419
1.8049
3.37235
5.73209
-12.8083
-13.8032
-9.47723
-10.7823
7.18675
30.2627
34.6188
32.454
-1.96865
-29.6078
-29.5684
-14.9798
-6.22058
2.2153
9.86613
10.6966
-2.1538
-13.5131
-15.7274
-17.311
-4.36698
-4.5675
-15.909
-15.851
-5.60602
7.58298
-0.165037
-12.3468
-20.0368
-20.7678
-9.24005
-2.3697
27.1764
46.9483
44.7592
30.203
10.5487
-12.9723
-30.9425
-14.4414
3.69718
7.89529
5.76718
19.1151
39.3197
44.52
33.2871
5.78086
3.33184
9.4435
1.10937
-9.07971
-23.9645
-39.2965
-40.6539
-36.4254
-21.1393
3.14034
29.3785
24.8024
-27.1569
-49.2333
-16.1688
-7.92193
-32.9534
-52.1294
-30.6115
13.7061
42.63
32.282
21.549
15.2008
3.93682
-0.899939
4.60801
8.49428
4.49352
0.389373
-1.861
0.578537
32.1229
41.6311
15.1284
-9.32274
-17.7415
-14.8205
-15.8421
-16.0244
2.46013
23.2184
21.9612
15.7377
12.1715
13.7395
10.3182
9.37507
6.7475
-9.18872
-27.2453
-42.1296
-50.3779
-13.2956
13.3797
35.4171
71.4424
58.3876
9.67745
-43.5258
-70.7745
-44.2221
-5.23648
8.57566
3.04273
1.26797
-16.6786
-40.0365
-34.9795
-18.3472
2.69219
24.5538
36.4551
23.5793
0.573808
-4.85077
-18.5638
-27.7648
-7.81134
23.8734
31.0213
-0.86288
-13.4184
2.5238
16.8591
27.4771
32.2931
39.205
32.0429
5.05304
-12.3057
-7.42272
2.16706
-5.37822
-8.36281
-20.3485
-45.6043
-53.2644
-35.2317
-0.109362
16.4571
20.3388
13.7619
4.62985
0.883349
-7.19112
-10.2133
-7.12507
0.738019
13.7534
18.6796
14.5107
24.0247
16.5484
-3.54577
-11.987
-8.79008
2.82572
7.03346
-17.6907
-25.6984
1.80447
16.1055
1.81501
1.20585
31.7588
76.7555
67.4463
17.8499
-49.9711
-95.9476
-71.5344
-10.2394
5.69629
-1.46543
-28.4305
-48.6687
-40.6771
-8.29186
14.7616
30.9176
58.4094
68.4225
63.1645
7.54757
-72.4567
-147.541
-94.2087
-6.85975
56.9816
70.5943
31.4811
11.7939
23.3898
29.638
43.9586
34.651
2.56597
-3.52541
21.1258
22.033
-7.02867
-25.6375
-17.9988
-1.42956
1.23663
12.377
-6.78201
-21.2238
-11.8936
15.1776
40.751
22.5149
-22.3524
-37.9293
-29.5063
-14.421
4.22617
16.6514
32.131
23.8667
-11.3653
-51.682
-68.7897
-40.2595
-9.74576
8.02014
-4.25699
-12.0169
-2.26173
4.73239
6.19524
-10.8001
-17.6407
-12.9928
-6.516
10.7015
19.2923
-20.9024
-48.3226
0.290592
31.2833
48.4473
46.8662
44.8428
52.1293
39.4504
27.0102
13.6347
1.95923
10.0347
5.30356
-2.87257
0.178659
-6.70646
-8.37199
-8.91662
5.18431
14.9592
6.33359
-13.327
-17.86
-24.221
-42.701
-49.836
-39.6168
-15.7308
-6.15609
-0.934755
-0.542569
-3.35783
-8.07062
-8.74862
2.3924
17.456
16.9382
5.16144
0.496447
7.41354
6.06376
-2.36115
-6.75796
4.94277
25.7854
28.349
8.5608
-5.34475
-24.2074
-31.1027
-30.1385
-18.0099
-4.73282
14.2755
43.1753
59.3761
40.325
26.4107
5.11936
-3.50739
-31.7411
-47.3577
-45.0609
-35.5094
-18.9693
7.90044
52.9778
81.6133
54.3785
21.3778
1.07187
-12.0373
-12.9859
-14.7333
-26.6507
-32.1909
-31.289
-23.4843
-18.7469
-39.8601
-33.2481
1.50615
24.2694
10.5303
-0.566512
-17.3098
-50.4234
-28.199
34.6748
41.2823
52.1859
33.8791
6.02053
0.469116
1.15569
-2.20398
10.7539
23.0644
19.2845
22.8109
25.048
7.26625
-10.5902
-6.12162
1.4916
-8.1246
-0.035258
-16.6338
-33.8431
-22.3877
-29.1369
-13.8928
2.90178
-8.09479
-12.3347
4.632
10.9597
-3.32151
-9.15276
8.24402
25.2658
11.3898
-6.75773
-3.69078
4.36332
16.8255
11.7078
-11.4198
-12.345
-9.75723
-22.862
-47.8236
-10.94
30.6435
41.5068
17.868
1.19245
4.08297
5.10107
8.84924
17.3659
16.9395
5.53143
-19.0628
-24.6308
-17.8074
-5.47285
9.79612
30.0504
40.6571
29.9318
28.2338
-2.73819
-46.3942
-41.5599
-21.5978
-22.0617
-21.2422
-14.5528
-8.33195
-9.25885
-11.5192
1.92322
9.48369
5.26392
-2.45819
-13.5966
-11.461
1.1515
-0.415123
1.7957
12.9527
35.8322
63.1752
46.3682
17.1565
-11.2961
-33.3102
-18.3986
8.84784
17.9991
15.9753
1.57198
-8.79612
-16.6123
-32.7464
-31.9379
-14.7551
-11.3006
-8.1216
0.471886
3.17005
-3.12269
-20.6573
-23.9552
-5.89501
11.4749
21.539
32.5061
31.7279
22.9418
4.30487
-20.5593
-3.76036
16.8939
31.3191
45.303
33.214
9.90988
-7.30388
-8.79098
-10.3376
-28.9594
-37.2023
-31.2355
-19.2329
-11.1816
-7.00717
-21.9424
-37.0375
-22.391
-5.78123
4.6578
6.27009
14.9693
18.7925
10.0471
-4.10063
-6.18259
8.97094
14.2082
13.251
19.5777
24.5011
26.3528
28.2652
14.3358
-6.14807
-44.3728
-70.4282
-28.2153
7.25038
22.8965
30.7284
42.4181
44.1571
37.1347
8.86003
-4.17243
-7.91059
-10.9538
-11.6997
-23.0869
-48.053
-47.4842
-37.7393
-14.842
4.89816
13.9327
31.5011
6.88673
-28.7862
-30.1347
-16.4256
-8.06549
-6.93312
-11.3729
6.22555
25.9831
22.9378
21.9159
26.2555
19.8377
8.97384
7.20274
15.6233
15.4757
21.7323
44.703
48.3641
19.6939
15.9314
-0.639109
-26.4418
-24.0261
-24.9323
-37.686
-27.1079
-33.3417
-81.153
-117.864
-84.2729
-24.7969
60.7227
50.0931
13.3841
-3.2632
2.80036
26.1348
66.7173
77.3854
45.6519
28.9483
14.0735
-12.6657
-10.4599
-11.112
-24.1772
-19.2098
35.9341
82.304
42.4521
-13.5448
-52.2524
-38.312
-23.4263
-25.0419
-44.7191
-43.8162
-41.9583
-33.4901
-11.8475
1.86416
19.2881
17.6045
-1.65248
-4.36769
6.66467
9.8554
10.0694
11.545
47.1932
88.2985
62.8022
28.3082
15.0095
14.8209
19.8811
4.1685
-35.9609
-49.643
-34.7568
-26.0748
-30.9003
-28.7015
-9.52174
11.6432
2.48207
-8.37394
-28.5916
-54.3412
-41.6886
-13.674
-2.32307
22.608
24.6991
31.717
20.9638
-2.69951
0.0572852
-9.11172
-19.8099
-4.52368
10.8648
12.2579
7.46355
-4.41938
-6.30802
8.47317
26.8679
47.9529
37.2947
40.9558
62.5206
41.0149
1.55607
-18.9233
-13.1973
-1.01116
-11.5216
-23.4428
-29.7541
-35.8646
-16.7633
-15.4764
-18.7173
-43.4245
-116.417
-135.965
-52.1977
25.4464
63.0517
45.1587
32.0321
30.1202
36.4734
37.9251
28.4372
27.5896
22.5625
22.2471
24.9062
16.9176
-2.71518
-11.7306
-4.88492
16.9858
63.6052
74.1884
33.279
2.69716
-33.1273
-72.5054
-87.627
-75.2236
-56.9521
-32.2073
-10.9614
-1.41911
-3.47222
-4.05065
6.27786
18.329
15.1691
8.54148
5.71691
9.68145
30.1132
32.2485
18.5516
7.2688
-0.9469
-4.15986
-12.7954
0.0786626
6.86062
-25.1787
-46.5506
-3.58121
32.2237
29.7387
2.50406
-23.1758
-35.3846
-40.7988
-27.0919
1.21302
26.9003
34.3809
43.7305
68.9085
64.1084
21.956
-14.074
-20.039
-3.88864
2.25666
4.52457
-22.97
-38.2217
-28.5926
-15.0539
-3.75274
3.72234
13.8391
6.16947
-8.03532
-19.9373
-35.9321
-47.629
-38.986
-12.8995
23.3181
28.7742
12.4164
3.7417
5.64579
11.2064
13.0856
19.6656
22.2927
24.3985
15.2139
-2.67402
-4.00287
-4.81866
-5.22025
2.04872
15.5594
24.871
9.34068
-26.758
-43.072
-46.4806
-34.9854
-12.3521
14.7712
27.5823
15.176
4.62382
-5.67253
-19.1555
-9.23868
6.76277
11.911
19.2363
33.1246
39.6298
42.9154
21.4266
-8.08195
-15.7629
-14.0742
-6.20086
-11.0348
-11.7428
-3.89831
-12.084
-9.96141
-11.6697
-22.2766
-37.1482
-51.1552
-53.4507
-3.23854
51.9215
60.0107
69.2573
53.6468
8.95589
-27.9
-31.7251
-22.0699
-14.5014
6.80888
5.66047
-21.8423
-25.7988
-16.8699
-12.006
-10.8378
9.14401
52.5884
63.6096
22.4466
-18.415
-40.8589
-52.5621
-42.06
-12.9803
13.7267
11.8118
9.69238
14.0718
7.74341
2.82617
13.8622
25.76
25.8613
24.4234
34.8941
33.5404
7.75217
-3.42393
-18.0818
-43.0246
-41.1103
-30.1101
-27.3949
-11.3686
-2.88821
6.60845
9.62417
12.9747
16.2465
26.4763
29.0421
13.0277
-5.50476
-22.898
-23.5858
-19.4638
-14.6973
-2.33759
5.34442
18.3644
12.748
-3.39573
-1.84062
-5.73043
-10.5088
-4.06719
2.94266
13.1279
0.193416
-18.3387
-15.6047
2.067
2.44862
0.267974
20.1953
30.5698
1.8489
-20.0951
-19.6596
-22.1418
-11.5259
24.3872
31.4338
22.6444
-10.1934
-25.8766
-16.6966
-5.27548
11.8648
23.4789
34.5653
36.9526
-11.8183
-52.3267
-49.2735
-26.8025
-8.09217
7.84538
14.3726
18.2179
19.0948
-3.41383
-22.0672
-16.3688
15.9497
30.3813
21.9675
15.8388
8.2186
-2.44229
-26.6875
-23.9579
9.80742
29.3732
14.3348
-4.15191
7.25722
21.4368
2.07833
-4.1676
-9.45864
-31.6928
-27.6624
-21.6941
-14.6356
16.4944
27.2778
-2.49915
-8.41154
-3.70663
-7.70387
-9.01179
0.613583
12.0179
14.0022
18.4527
1.25823
-19.4828
-16.6358
-13.6309
-11.4031
-5.63927
3.81797
11.8672
12.6848
-15.1082
-26.5795
11.3281
54.3469
42.1241
13.9503
-19.1104
-16.4754
16.3963
33.6968
6.58274
-15.8389
-14.8638
2.51906
-7.05805
-16.8189
-25.9749
-47.8215
-24.9271
44.4735
50.3232
-2.42221
-52.4672
-79.1514
-44.6561
8.41692
23.9989
25.7644
16.4553
2.74655
10.6828
26.7827
25.0923
22.9176
20.3896
20.8878
23.1873
19.7967
-2.87117
-36.1368
-33.2867
20.6011
59.157
46.9941
29.9369
6.27634
-5.76166
4.49248
-0.608828
-15.7402
-43.9359
-106.534
-144.007
-91.0182
-26.8646
14.0574
21.4286
32.0613
38.3337
23.958
23.5664
29.124
20.1577
9.31586
-2.12502
-24.607
-27.4691
-15.1701
-8.04638
5.93899
28.5389
71.5998
117.66
81.8527
17.5602
-1.4806
9.06952
9.88251
-10.7487
-37.0587
-40.8323
-29.1485
-49.3907
-59.0801
-56.6079
-32.6861
-11.2202
-30.1545
-21.4397
1.29716
25.4684
80.7465
55.5086
-4.2159
-15.3491
-24.3093
-22.0688
-12.3093
0.34023
7.62106
6.76466
-5.99726
9.3007
21.8694
26.7774
29.3336
27.4713
20.0922
0.333286
-26.4571
-22.5941
-22.0737
-15.4841
-5.14765
-0.269785
-6.66827
-7.86128
-10.3277
6.20396
21.2489
14.6077
4.44634
-0.104958
-2.26513
12.8225
26.0813
24.8076
10.4384
-4.52458
-9.97132
-14.4166
-23.5496
-22.0076
-20.6399
-16.0485
-3.75473
2.32102
7.13002
0.953122
-1.53384
8.40836
-0.176443
4.75429
10.1763
-6.53009
-27.8731
-24.5939
-4.08621
13.6038
11.0858
-6.41303
-9.83954
6.22954
13.0298
7.4457
21.6831
33.3663
27.6502
7.21009
-25.896
-40.6598
-18.2831
-0.183277
4.14996
7.18989
22.189
58.7064
81.4306
55.2635
8.25951
-26.1657
-52.3957
-85.0571
-75.2402
-36.3656
-33.3474
-16.55
-1.25091
13.7812
25.9952
27.2349
27.4304
21.0021
24.2764
18.0897
-4.78005
-38.9205
-56.8735
-41.2143
-8.68854
11.101
19.4973
30.2818
35.2401
17.7924
10.0655
1.87624
1.22422
-2.54356
8.18724
14.7562
3.3133
-3.93888
-8.74714
2.29829
10.1005
-4.44159
-24.7633
-27.8726
-15.0209
-11.8096
-6.94306
17.5656
43.6792
32.9479
9.50822
-10.4024
-19.3017
-27.515
-7.61034
22.4624
28.6432
7.66364
-7.31168
-9.96936
-13.1828
-17.2942
-11.0087
-11.1729
-9.81627
1.52975
1.66823
1.67818
-3.29608
-12.0479
-12.0337
-4.42831
-2.79103
6.25147
1.68416
-7.54978
-0.435311
12.2601
3.32621
-14.5309
-21.5272
-0.219618
49.2436
58.4648
36.5847
44.0333
30.1479
-12.0566
-19.8195
-1.62383
25.2943
25.8304
-5.4091
-46.9001
-87.388
-109.282
-49.5975
16.1827
33.6374
35.5491
33.2719
19.1269
-16.8533
-29.0334
-22.7041
-22.997
-7.85383
24.0753
34.009
37.4132
23.7363
20.5861
20.388
20.3469
27.5528
34.7642
6.07542
-33.404
-37.3878
-22.9631
-22.3584
-22.6868
-23.453
-20.1989
-12.6727
-1.02925
10.1972
11.3941
-18.7156
-25.9646
-20.5508
-25.5979
-10.0844
28.8995
53.1271
38.6858
7.29418
-9.76659
1.84257
-0.0207156
3.15364
-1.13707
5.403
29.3125
40.9949
27.9362
-1.84893
-7.45981
-0.694482
-6.56738
-18.0315
-32.3873
-37.7309
-28.2782
-19.9429
-14.3236
-2.55474
17.5209
25.4297
26.1903
25.2085
25.3691
5.65694
-16.3129
-30.1206
-31.6705
-21.4321
-9.50953
25.7331
68.3637
65.3177
38.0108
17.1174
-7.39009
-24.6291
-21.1438
-20.3178
-22.8573
-24.9059
-23.0812
-21.9058
-30.0553
-20.8074
-10.1762
-4.0897
-11.9592
-25.2186
-25.4613
-16.7445
-19.5275
-22.9971
4.61079
35.7402
23.005
7.09572
42.3483
43.0686
40.8651
30.0326
8.20472
8.12336
11.8462
11.2286
13.3598
11.3343
16.3281
25.4906
4.7482
-20.0138
-35.1834
-41.1465
-31.3321
-8.14058
16.8257
21.6531
-5.38329
-27.4174
-30.6438
-10.2898
6.61074
24.9905
31.561
27.947
6.09814
-2.11776
-8.92695
-13.5251
-4.86776
-5.88524
-15.7123
-1.30591
2.19282
-12.4408
-18.5504
-29.0625
-35.8817
-10.9321
10.0482
13.1436
13.8603
0.630065
-1.4349
-1.60338
4.4441
-3.70676
-14.1961
-6.64909
10.0818
15.5124
4.835
2.06581
-0.135507
-8.30442
-1.04815
14.4387
22.9224
27.6816
33.5291
54.1371
57.4899
18.4137
-18.1106
-33.4313
-22.8724
-2.99103
-0.245119
-1.80741
-12.7239
-27.507
1.93183
-7.22395
-34.9544
-32.2432
-39.3842
-50.6697
-26.8308
27.3111
22.9563
-12.8529
-25.5526
-0.572317
9.63433
13.4346
9.42757
5.36498
3.99344
5.34839
10.0835
20.8244
12.7316
19.4796
31.4703
26.3644
28.7497
44.6867
27.4214
-12.7759
-24.8611
-25.4922
-22.3895
-21.7575
-2.26945
7.30704
4.69053
-5.1333
0.457957
-2.85069
-9.4381
-25.9031
-32.203
-23.7323
-10.6552
-2.57324
14.7768
28.1256
33.6685
28.4892
17.0627
-15.1057
-32.0242
-15.4487
-15.0485
-15.528
-1.7404
3.56249
11.8411
12.5132
-2.62533
-6.08813
-12.9262
-10.852
-5.31653
10.3983
13.0629
-3.00828
-24.7755
-45.4555
-35.1164
-6.86959
3.09372
2.77392
25.0796
56.0198
83.0063
69.0909
38.0377
29.0027
21.0074
3.32964
-14.9173
-23.4031
-26.4022
-27.0726
-26.8294
-18.5013
-7.67562
-3.2077
-13.885
-17.5762
-17.9042
-8.50653
-10.312
-26.7268
-45.0701
-39.47
-18.7223
-12.6393
-7.5323
4.11017
14.5436
18.6027
23.0057
32.9723
32.7605
17.4179
13.278
16.784
18.5162
17.1867
17.0275
19.1386
14.2866
-3.20413
-20.6671
-12.3905
-7.01505
5.09592
15.1424
19.7555
17.8041
16.2978
7.63493
-28.2301
-62.6325
-49.3514
2.55442
14.8348
7.9862
7.52567
9.6334
-3.92185
-12.3502
-10.2244
-9.3004
-4.27419
-11.4942
-19.785
-15.0341
-13.1807
-13.2328
-9.50234
3.16658
18.5625
35.5098
28.4958
1.68356
5.00454
0.397499
-23.878
-18.6977
-6.29837
-7.74553
-18.2123
-13.4184
34.853
82.6554
56.2797
16.8053
6.838
6.42511
-1.59069
-10.9513
-19.775
-24.3161
-13.3301
-22.0101
-30.0228
-14.8189
9.28271
8.32814
0.47669
-0.866953
1.39448
2.63292
-19.7595
-52.2133
-35.8123
-7.16813
2.63924
3.41708
10.4222
13.7734
22.5951
29.4763
31.1679
24.9888
18.6631
16.5631
14.8074
9.9776
10.63
-0.747774
-6.40309
-6.25939
-16.9519
-23.4783
-16.8685
-8.34802
-4.7572
-13.6244
-8.90127
9.53659
6.48055
3.12456
-0.250009
-6.69159
-7.37265
-3.30096
15.9425
-0.946374
-19.5968
-4.61997
9.80437
12.2625
3.23501
-5.5511
-17.6547
-13.0979
-2.51517
7.36565
7.9499
1.44258
-1.21133
3.7869
6.19894
2.61528
-3.92965
1.88095
-3.22611
1.07804
18.7169
21.9302
15.1475
5.2601
-12.6639
-9.42849
7.7405
15.871
0.988209
-16.8893
-21.6472
-35.1634
-77.0252
-59.3639
25.0995
80.0039
83.4023
37.7573
2.0145
-23.2875
-49.665
-48.578
-38.6542
-25.5647
4.5786
35.2204
77.8921
65.6898
23.7137
14.9395
3.35253
-1.30415
20.9181
2.2543
-47.4403
-58.8354
-54.997
-43.2701
-16.0559
16.645
36.9538
29.4976
16.0398
5.83446
-1.61654
-23.0784
-56.3965
-58.2885
-30.4466
-1.37999
16.159
27.3256
44.0139
44.261
18.5449
3.98218
1.83659
19.5169
27.089
31.3013
36.8052
26.9644
3.97766
0.508078
-6.97943
-19.1497
-35.2263
-43.691
-24.2146
-6.79363
-8.13394
-7.95777
7.13994
9.9256
1.79219
-9.86377
-13.2695
-10.0534
-20.5049
-13.1057
-13.7504
-10.5927
3.99475
9.769
8.45263
4.09811
10.2359
9.0426
3.8112
5.18932
2.69658
-11.1941
1.77555
16.3061
7.17458
4.03918
14.8601
34.9773
46.6455
9.91146
-32.3698
-33.8336
-26.561
-58.6121
-66.9892
-15.2347
24.5002
38.0788
33.13
15.1158
10.6657
16.2733
-2.90978
-28.3707
-12.0847
-2.37197
-3.31214
-13.6684
3.15672
61.5006
90.2558
56.7432
20.0936
17.691
9.41922
-21.2071
-40.2462
-41.989
-35.938
-36.2849
-24.3047
-13.6896
-12.7259
-11.628
-13.6817
-12.6887
-10.4267
-3.27419
-21.0036
-40.0831
-24.1872
2.02532
18.0157
27.7634
32.592
24.6649
10.2333
-4.38751
-0.992413
6.07194
7.77949
9.86813
17.7428
34.5598
29.0607
13.7028
10.5711
1.78443
-14.3432
-22.0147
-16.8916
2.25241
15.6065
12.6838
16.9257
7.53534
-10.4462
-13.3888
-7.7037
-18.6466
-33.3171
-27.2526
-16.524
-4.0403
5.6081
27.417
29.6114
16.73
18.1367
15.7292
0.155775
-30.5854
-50.4924
-46.838
-25.7034
-6.26803
4.3737
14.2136
10.5887
18.5864
27.1684
21.5229
18.0198
6.22244
-11.2251
-27.1636
-25.3587
-7.55398
-2.17186
-1.27219
3.15854
22.7208
39.5287
35.9831
2.48597
-12.151
-18.9416
-26.4681
-15.8445
3.87406
18.5805
11.7333
-1.78309
2.34133
27.7079
45.771
16.6084
-12.9637
-33.5461
-40.0893
-32.4982
-14.9127
-19.4095
-10.4054
7.12265
6.33312
6.42759
7.07352
-0.968962
2.05994
-4.05139
-4.38334
5.73821
2.56811
-11.6954
-20.0761
-5.04118
7.57602
21.8437
26.3699
13.3242
2.36848
8.98993
17.8433
20.9378
15.7298
4.34834
3.37429
-4.55429
-19.8817
-21.9036
-13.9748
-11.2543
-11.2777
-10.5905
-11.0164
3.44606
-6.56844
-14.2202
-5.80285
7.95684
15.3867
21.2911
31.3531
37.5693
20.0973
1.62759
-6.60918
-9.14468
-8.51888
-5.80925
-8.41191
-6.20142
-10.7082
-27.5066
-50.3999
-51.0018
-15.0615
13.7242
20.3613
23.957
15.3533
0.712844
-13.73
-13.108
-0.71736
3.26901
12.8506
11.6153
-5.77354
-1.71982
2.53367
8.30153
11.4175
17.4048
34.5947
34.2105
33.2795
26.8372
2.17065
-16.0129
-22.1358
-23.8004
-14.9026
-11.695
-12.4145
-22.1516
-41.182
-36.2858
-12.1805
7.82499
26.265
33.344
56.64
60.2258
29.5327
-2.75549
-25.1344
-35.2834
-35.6
-17.6762
13.0019
8.47832
-13.576
-26.23
-22.6459
-0.951598
15.9313
10.4615
8.32182
-11.1226
-30.1573
-34.3995
-35.5577
-30.9816
-17.6539
0.891503
8.77301
19.6952
25.3585
22.1472
18.0241
42.8468
68.7353
62.9457
27.732
-7.16642
-31.4881
-24.1819
7.12439
12.33
4.56993
-8.16246
-29.9172
-49.5729
-39.2781
-17.5402
2.43343
10.99
22.7548
16.965
0.533737
-13.7875
-23.2347
-15.5826
12.9043
32.1505
42.134
29.4546
-7.57325
-16.8254
-19.9566
-16.2331
-12.1498
-12.0777
-9.68878
-9.08938
1.78855
13.9198
0.716133
-23.6157
-41.3597
-40.9755
-19.9898
12.8075
67.6832
97.376
61.9448
19.9611
-3.54036
-8.38963
-8.67539
-22.2201
-23.2099
-6.66269
-1.51018
-5.92877
-14.7939
-19.4373
-19.2049
-13.9612
-3.96725
7.77758
1.93505
-15.2523
-44.4717
-47.6238
-18.0841
-2.69559
9.75604
17.8476
24.9171
21.7608
20.8661
27.949
30.732
28.6182
21.5202
12.1861
8.36301
10.8002
15.4902
12.2299
2.09182
-11.2484
-16.8722
-26.7157
-22.2546
-11.6729
-10.6754
-11.9737
-7.28881
-1.31388
-1.38049
-10.3508
-11.5359
-5.72785
3.61167
15.5102
42.1083
46.2574
19.2818
-3.25047
-22.2457
-40.0025
-47.3594
-44.5039
-37.0995
-10.4736
34.7414
67.1929
55.9206
23.1319
-2.53996
-28.3946
-70.4811
-57.301
-11.7493
6.09715
3.56025
-5.00873
6.71807
11.6372
17.3892
23.2411
22.9279
26.5307
22.5159
8.60337
-7.0163
-23.5511
-29.6646
-19.2232
-12.9288
4.21841
26.6891
22.5307
46.4338
74.8699
50.8207
9.17825
-17.2344
-18.7468
-32.0977
-35.9932
-38.0229
-32.7127
-20.9875
-14.557
-24.183
-36.3328
-27.0314
-6.21616
8.81713
24.7521
45.0255
48.6178
23.3567
-10.7303
-24.7894
-9.73816
0.972129
-1.67945
4.09973
9.38658
8.2253
3.59307
-1.45742
-4.82704
-7.64378
-2.50795
2.7226
-4.57449
1.50819
12.0228
18.1926
15.2077
-17.4868
-49.8031
-61.4511
-50.7154
-4.05955
32.6614
43.1201
32.6996
30.8521
46.0254
38.5521
16.1379
10.3201
-7.06574
-46.5487
-58.7276
-10.6933
5.92555
0.536871
-4.4668
11.5493
53.5057
67.1804
41.79
7.0819
-19.5479
-32.5272
-30.5288
-30.7557
-42.866
-34.0636
-18.1642
-20.4309
-12.4333
12.624
37.5768
27.1269
-6.45044
-28.766
-35.4007
-40.6534
-49.9814
-20.9599
22.2287
20.6255
12.9015
20.3489
24.2866
23.0654
28.9668
26.8038
19.2196
9.99795
9.98612
21.7315
21.5969
0.301614
1.31798
12.1732
15.6838
-8.13573
-19.2573
-20.3035
-16.906
-13.1141
-2.69627
-1.58887
6.2928
-5.55735
-31.4015
-35.3022
-18.3425
5.06905
15.7693
37.6176
52.9548
29.8891
15.0688
-0.0371227
-14.4458
-28.2429
-52.8222
-74.4577
-55.4261
-27.9832
-19.2262
-11.7878
23.0636
78.7616
89.5627
54.4018
14.9012
-4.73615
-12.3538
-20.3993
-27.2658
-28.6244
-20.2838
-9.09887
-3.97415
2.56635
13.7252
27.9809
26.8605
8.01291
-2.74663
8.88858
6.04393
-16.937
-31.3425
-13.5785
5.82304
-2.69685
-8.01352
2.27589
5.16388
-8.50742
-20.8209
-13.2984
-14.9307
-10.1419
40.3698
68.8687
67.2991
46.8685
28.6046
-4.51469
-32.4273
-41.0577
-31.1486
-27.2798
-28.3093
-21.7166
-14.3769
-15.0415
-14.3242
3.73037
19.9397
16.6181
15.0731
15.5077
-5.74264
-11.4777
-11.322
-4.70801
10.7296
15.4785
0.447648
-8.84896
-6.32058
3.15939
7.66897
-6.9783
-31.7519
-45.0938
-16.1134
11.6493
2.53891
27.4367
74.8513
67.5612
21.3001
0.772395
-3.0163
-11.7762
-15.9077
-16.6177
-15.7293
-13.74
-9.42713
-8.68043
-7.03514
4.94185
0.954837
1.26203
-16.8271
-23.8502
-1.64524
-1.34838
-18.889
-12.7396
8.928
23.1934
4.53877
5.93796
6.69778
-0.39822
-0.0156137
4.52001
10.6922
5.24416
2.15995
2.4616
9.87309
9.22205
-1.73586
-1.72256
8.04142
-2.51589
-12.8714
-24.789
-27.8118
-26.11
-12.9653
3.03356
18.3093
38.5552
54.0074
37.9188
12.1257
-2.31373
-14.021
-39.4165
-36.9345
0.555798
19.7957
13.2557
9.42795
1.83654
-14.3477
-9.83698
-4.01434
-6.64586
-8.98328
-7.64553
-7.14864
-14.5235
-20.0108
-13.0982
-5.57177
7.68389
-2.21772
-22.7613
-21.9151
-13.1611
2.12413
28.2005
68.6275
104.103
98.9031
49.7633
8.24435
-18.4258
-39.2201
-56.2226
-51.3153
-39.1345
-31.5902
-26.5642
-19.2449
-9.88357
7.68339
30.3671
30.2964
4.21931
-9.82331
-10.8202
-41.34
-63.9323
-50.6893
-18.0203
4.53903
21.4569
33.4764
38.0286
29.7421
32.0155
27.0789
4.40079
-6.64078
-6.72162
5.46258
19.2928
36.4488
42.1755
29.7533
8.17924
-11.7342
-33.3409
-43.8914
-33.8624
-14.6017
-4.18414
-4.36696
3.94086
9.99398
4.28167
-5.6814
-4.74995
3.40501
2.75918
1.15901
8.79519
3.24102
-7.52177
-8.7846
-8.47998
-7.08987
-19.6962
-20.2518
-20.7233
-20.0886
18.9865
41.8946
22.085
-0.588269
-17.184
-35.0496
-29.4594
-17.2915
29.6959
72.2175
63.6309
38.1775
11.74
-17.0864
-22.7415
-19.0018
-4.2326
6.33488
3.55715
-15.3362
-33.0559
-27.402
-16.9318
-7.84907
5.53023
20.0812
33.5224
45.0947
16.761
-24.2769
-29.3943
-22.3019
-17.1551
-6.96451
-2.15977
-7.74443
-10.8359
-16.8553
3.46989
29.4397
18.138
7.08804
1.75311
-10.8708
-6.23399
0.686044
4.6148
3.83019
-1.69392
-13.2598
-12.4844
1.47917
16.0063
16.8226
5.88927
0.0283951
-2.07749
-7.23786
-0.164538
4.00804
5.96151
10.3512
15.184
32.9268
27.6525
6.30575
-7.35549
-10.1347
-18.5203
-16.9468
-12.8236
-15.3499
-17.1425
-10.0449
-6.37708
-5.98677
2.85968
11.0457
12.4739
16.5509
7.29808
-16.0292
-23.4652
-24.5573
-13.8022
-14.4738
-19.292
-8.40852
-5.58823
0.771192
1.80192
26.2006
68.5293
60.0119
27.4841
8.52516
-3.57651
-1.3919
-9.46024
-17.2875
-13.7535
-4.43834
2.4241
-10.7856
-32.3787
-18.7675
2.06058
-3.01875
-2.96186
16.0432
44.6905
26.964
-19.9477
-44.0171
-59.9867
-47.8341
-14.8512
-11.5234
-1.04962
8.71434
12.5052
18.5875
20.8371
33.3421
53.2866
64.2613
36.2056
7.27075
-8.29362
-22.9421
-35.9216
-39.3709
-38.4037
-17.1074
16.5259
25.9281
18.3985
17.0552
9.15191
0.547147
0.146743
4.3834
1.57505
-10.6907
-11.2864
-11.3574
-4.47891
0.892873
-12.2404
-20.453
-16.546
-16.916
-13.4252
-4.18357
7.55281
13.6508
7.36862
8.7136
11.7373
3.36788
3.43382
4.19729
8.61347
9.40191
5.19864
1.15426
10.5084
5.24082
-6.22312
-12.0759
-16.1842
-18.7431
-19.1327
-13.7994
-3.22183
9.41989
11.1667
2.22536
4.69713
14.5957
21.3648
25.4532
23.2019
22.3717
12.5268
-8.55826
-13.7398
-13.6549
-1.84343
-0.137567
-12.6504
-14.1848
-11.4917
-13.4283
-18.2288
-15.5112
-14.3562
-8.46971
-5.42529
-2.75948
-2.08951
2.16
1.20092
3.39351
5.10953
1.50122
-5.39509
-11.5077
-14.9349
-23.5181
-24.9303
-7.31312
16.3029
39.9324
60.1974
69.156
71.1017
77.4355
70.0716
59.8798
36.3612
-8.91818
-59.4362
-74.8781
-68.8265
-55.7798
-39.378
-28.0749
-28.061
-20.6919
-17.7302
-21.8411
-28.5892
-31.5174
-28.1568
-27.8758
-30.1678
-29.594
-25.1443
-21.3011
-16.9396
2.50961
40.7412
48.93
34.7455
35.8165
35.3976
39.5545
46.2664
47.4173
48.5257
39.3573
28.4843
21.7859
9.89011
-3.23669
-6.61634
-10.6691
-10.0157
-7.90494
-4.97576
4.79799
4.51115
-2.58268
-4.03973
-7.42702
-7.84012
-0.567125
-2.60222
-14.0437
-8.96931
-8.74329
-14.2224
-20.668
-25.618
-34.8171
-36.223
-36.1508
-41.3223
-32.9634
-21.5092
-13.3592
2.0718
5.95614
15.0227
28.5781
36.7795
25.1721
36.0582
42.2083
20.8289
0.265641
-3.76753
4.30015
7.6286
0.989474
-4.54178
-8.96051
-8.21524
-13.809
-22.3357
-17.3898
-0.358301
20.4057
20.9793
5.47216
-7.55149
-4.96915
-3.53329
-1.27698
-5.93444
1.48779
5.0645
2.56782
2.71052
10.3056
12.5143
14.162
18.4737
17.5896
13.1299
10.5053
2.60585
-14.9067
-24.5817
-16.0278
-5.57637
-0.219582
-7.59344
-10.6949
-4.97417
-6.77203
-16.6779
-33.6627
-40.1171
-37.9661
-33.1085
-4.3647
41.0415
95.2283
119.27
92.172
49.0595
3.21359
-29.4709
-44.6926
-50.3476
-50.5968
-40.3632
-33.3089
-25.3057
-24.3189
-18.061
-6.88335
2.87416
13.5325
19.1459
1.33731
-21.9373
-41.4419
-52.7182
-35.2472
-10.7633
15.4293
37.8483
47.1779
42.846
35.958
37.3651
33.3309
20.7793
18.6869
20.2569
22.3359
17.8639
12.3699
7.99934
6.95011
-14.8187
-44.0736
-34.5588
-11.0413
6.47328
16.3292
19.4541
1.35343
-22.4696
-49.2897
-66.2545
-53.8384
-25.4542
-5.12181
12.7416
29.4161
33.4438
31.0061
19.2868
4.42565
-0.201535
-2.62433
-7.49165
-11.9882
-15.0361
-12.7129
-6.83804
3.55759
13.0371
21.2214
27.0472
24.1828
5.70993
-6.54934
-12.2352
-19.6342
-16.9491
-16.5614
-10.2406
-2.71933
-1.36021
-0.0740756
-7.05023
-4.30852
3.1654
8.42819
9.40083
16.3822
20.2785
18.4529
8.70118
1.55366
1.46078
1.14391
-4.22693
-9.34207
-4.92679
-1.76427
-7.79266
-10.5251
-14.8855
-1.15928
14.7776
13.923
18.1465
20.4241
8.82911
-4.84409
-8.4236
-13.999
-9.85765
-12.5097
-11.2711
-8.25507
12.9491
17.0585
3.66103
1.43997
14.1067
12.0702
-3.84165
-37.7788
-20.8993
-27.4058
-44.7572
-40.0879
-26.3829
-14.5811
-2.94739
19.3887
36.7684
43.8228
37.5545
18.4754
-2.32789
-13.1209
-4.18866
2.68799
4.50877
7.74078
19.0167
25.0051
8.94629
10.1613
15.3606
14.5759
12.1546
10.2882
6.32631
1.92628
-0.934232
-4.28006
-6.95412
-3.31084
-8.78885
-7.74523
-9.76908
-20.2118
-22.4246
-24.5838
-15.7856
3.12827
0.614967
2.75185
4.55416
-4.63467
-6.65623
-7.80873
-10.6936
-6.29548
-6.2403
-4.9315
0.454647
-10.532
-17.7313
-14.4222
-9.05298
-3.33302
3.98481
13.5714
21.5679
18.905
7.57848
6.68741
15.2302
22.8881
23.5901
23.5078
22.7045
18.8111
6.38436
-11.0367
-11.8715
4.14679
26.2006
27.7469
7.89254
-14.4967
-34.6779
-32.3231
-32.0508
-41.9401
-46.22
-46.1082
-54.0867
-49.2924
-28.4436
0.506449
16.0237
29.7953
56.9331
77.0273
71.8409
91.2155
124.126
73.0978
-10.9134
-25.1411
-19.7261
-36.6754
-50.9755
-53.3472
-48.9311
-44.8506
-41.7511
-44.0769
-36.4436
-32.1241
-30.7781
-27.0815
-24.1739
-18.3861
1.48791
-7.09398
-42.8189
-29.3394
25.4715
48.846
59.4105
71.0805
90.4674
87.0054
70.3311
71.4451
82.8676
62.9153
29.1908
14.9231
32.1102
26.1933
-6.65072
-41.708
-89.0188
-116.536
-110.43
-72.594
-42.4617
-38.6581
-33.5616
-34.9931
-40.3631
-30.4918
-15.665
-8.04177
-0.620309
15.3003
11.3901
10.0614
-0.846165
-8.32865
-4.69466
4.65651
23.8541
45.0673
40.7351
31.6799
37.8277
37.1353
36.5602
32.548
22.1449
26.7017
40.6566
24.4863
-6.92971
-13.9131
-8.26382
-10.923
-23.0389
-29.9815
-31.2458
-29.2773
-38.1464
-46.0383
-44.2428
-20.2208
-4.74556
5.78741
10.7449
12.4649
22.4814
35.6137
48.09
42.6266
12.1398
-1.38808
-1.98951
-4.59055
-6.73974
-23.948
-31.1646
-35.1196
-29.8407
-15.2254
8.91139
41.8925
51.4152
1.04593
-17.4815
-24.9324
-25.1539
-21.1493
-23.3624
-12.2072
17.8974
27.603
23.7438
10.9333
-4.64516
-0.624213
33.3422
79.1
72.8172
28.351
-25.9971
-78.4774
-91.5567
-54.8388
-39.8902
-18.8082
-5.38055
-2.68578
9.9229
3.84522
-0.371859
54.1078
61.402
-19.952
-35.8399
-12.5259
3.72728
3.65866
24.5685
46.5286
48.6616
39.4976
27.9265
19.2738
-13.2366
-33.432
-37.4221
-38.2828
-51.4144
-51.068
-23.379
20.1735
68.1365
64.0486
59.2999
55.5028
4.70847
-25.3407
-38.7615
-42.4903
-40.8916
-30.6711
-18.4054
-7.87117
9.05699
-15.79
-33.2842
-24.9016
-22.4338
-14.8494
-6.60095
-14.6216
-17.2513
6.96318
0.236018
-6.15234
-10.9241
-14.9146
19.6624
40.9773
33.95
54.0225
71.7292
65.7899
37.4193
7.00103
34.1544
54.3052
13.2952
-1.60378
-19.5171
-60.3083
-72.5651
-18.8478
-5.3112
-38.9721
-55.1196
-83.4292
-85.4904
5.09261
61.9121
49.8136
15.9393
4.73746
74.6253
142.871
124.506
64.0068
-33.6494
-49.4092
-10.2619
-67.7037
-94.8329
-77.3711
-74.0142
-41.3258
16.5068
79.1295
121.54
96.1504
-56.0799
-102.43
-34.6367
-58.137
-104.568
-105.317
-89.339
-46.033
32.0624
6.74106
-62.7916
-125.553
-119.711
-28.0132
91.229
184.228
220.909
204.002
164.035
97.713
64.536
70.3915
-85.7257
-140.929
-123.579
-148.618
-143.52
-57.7964
183.716
222.594
370.377
396.129
251.335
47.6917
-228.983
-238.511
-192.26
-174.361
-179.495
-157.631
54.9119
134.686
65.8595
-6.91864
-58.3375
-97.7655
-193.024
-202.89
-89.17
-115.804
-265.678
-222.835
-116.574
77.2983
245.376
99.4121
-2.6649
-11.4084
27.631
128.102
235.575
135.343
94.9435
89.0223
-23.8846
30.3938
236.427
135.19
-69.0657
-135.083
-82.6261
290.786
430.602
122.322
-81.8409
-106.49
12.3085
-28.7955
-135.661
-184.228
-117.987
-44.9761
-34.017
-41.3715
44.0921
83.3126
51.5708
248.806
-124.768
-402.801
-316.716
-416.323
-376.722
-125.18
215.509
245.102
34.0036
-149.962
-86.2554
47.3196
-22.4074
-46.824
104.283
251.436
270.853
203
-15.49
-251.478
-71.3494
208.837
320.222
268.108
171.109
90.4697
-96.698
-83.6895
-22.6447
112.166
225.146
463.495
357.773
-23.033
-272.283
-394.817
-390.952
-374.815
-246.008
-230.478
-23.4665
311.166
223.898
11.1133
-145.533
-144.507
-70.1466
-18.0655
-100.653
-35.8597
-46.3999
-207.071
-264.605
-185.251
-91.1837
-31.0531
-103.224
8.77642
384.718
442.536
482.528
385.281
128.704
41.4102
61.1351
-54.7761
-257.57
-229.296
-83.1483
-71.1527
-62.9394
-209.745
27.9688
306.608
389.201
246.262
174.545
28.0782
-109.018
-34.9902
-227.609
-306.647
-200.844
-28.6341
96.2056
22.4051
10.8694
-139.838
-72.2967
-11.7076
-73.7338
-13.7196
-123.327
-275.729
-187.396
3.66173
126.564
174.495
-13.5104
-28.7477
127.27
199.014
54.5253
-34.0349
-168.187
-12.4714
265.514
265.035
-13.424
14.95
267.661
101.406
30.489
151.841
102.204
9.95535
-49.0875
-59.5489
-30.5051
76.5787
-119.94
-348.128
-424.58
-300.463
115.784
230.854
-41.5999
29.8371
145.885
101.849
-85.2716
-130.809
-203.862
-179.556
-105.054
-1.58427
93.6816
142.671
39.3029
-74.1951
-43.628
-32.7373
66.072
-67.8992
-190.798
-94.2184
80.7423
167.67
202.584
169.955
115.302
115.559
90.2686
80.6496
111.526
22.7367
-227.737
-218.961
-140.002
-87.4451
-13.2966
16.1731
426.141
469.994
131.937
-61.7327
-52.2619
2.88512
126.068
131.773
-156.53
-229.076
-200.972
-159.437
7.71678
164.318
33.8458
-157.677
-206.988
-188.85
-132.055
-17.7959
-108.965
-105.706
-19.1645
13.2654
5.30809
-132.424
-168.503
-193.181
-93.9533
93.4948
157.973
56.7138
130.759
298.329
272.352
177.611
129.92
18.461
8.54496
123.854
256.956
210.785
107.293
-21.8141
-171.558
-207.135
-84.8525
-24.0254
-35.845
-87.945
-131.281
-165.166
-346.839
-262.421
151.154
106.289
77.4794
67.2564
31.2909
13.7803
-100.492
-105.321
-22.0593
64.383
148.785
204.203
113.632
66.9418
112.169
47.3691
-20.2463
-25.1231
-116.044
-212.817
-143.307
26.3146
46.019
50.8244
40.108
-11.605
-102.745
-68.243
-14.4994
46.4
80.1566
88.1986
41.992
16.0809
32.8762
21.1992
-0.803204
-12.0654
-23.6331
-80.2669
-68.0653
-42.9244
-91.9978
-51.1009
29.6554
35.4013
6.16373
-6.11021
24.0231
52.6223
72.308
27.9515
-36.8564
-43.9421
-34.6082
-84.7645
-45.7042
164.996
173.41
-85.3246
-111.482
33.6609
185.462
202.403
110.377
2.74304
-75.2941
-71.2158
-71.1446
-75.0042
-85.684
-103.722
-108.402
-116.051
-140.471
22.6365
137.857
52.9972
32.5949
33.3857
-22.94
7.32132
57.4222
30.6553
-3.35496
-13.8481
2.7445
15.1224
0.16542
-19.7581
-4.79537
43.138
55.8083
63.3351
112.102
64.2751
-13.6596
-32.4862
-8.21824
56.1541
6.23094
-140.51
-224.697
-218.485
-158.77
-94.279
15.2442
161.865
144.961
95.1926
89.7245
97.1321
89.8459
41.4733
32.0553
-22.9971
-63.234
-54.7189
-53.8791
3.40834
50.5289
92.3362
96.11
73.3995
21.4662
-20.1029
-62.816
-120.419
-84.7358
-40.0509
-36.0281
-64.7984
-109.791
-77.7442
1.8353
55.8875
8.39521
32.6232
53.1096
-24.3875
-82.764
-91.2753
-28.4222
12.291
23.561
75.7351
82.8577
45.1415
26.2309
33.1603
38.7041
50.052
72.3139
79.4165
45.0686
3.59847
13.7107
0.957917
-12.5015
20.0538
32.6905
5.50557
-83.4323
-129.003
-78.2448
-103.914
-43.3649
89.0573
101.083
25.6221
-33.3923
-24.4748
-27.8804
-32.5642
-44.9044
-57.926
-25.1909
-9.50306
-6.00636
33.346
56.3374
86.965
49.8584
-45.099
-58.7744
-7.20303
-44.3145
-132.797
-114.031
35.6073
91.4207
12.1254
13.6265
31.326
33.2755
23.6552
36.2356
27.5077
5.81826
13.6154
42.1244
65.984
99.3806
130.423
106.139
47.9384
-60.8023
-119.349
-95.1363
-119.57
-101.344
-35.5082
6.7224
59.0677
63.74
34.9999
27.9116
14.962
-7.83103
-48.0215
-128.766
-138.982
-23.7344
-14.7833
-53.2691
-12.6109
66.1691
67.0126
39.9671
16.2347
-3.84358
22.3147
11.3797
4.96773
24.0145
61.9046
26.2135
-9.09056
-24.7
-18.6702
12.9579
26.0583
-1.97072
29.2577
106.649
141.988
71.5174
-26.5578
-127.012
-159.823
-88.861
-38.3353
-22.2806
-35.7153
-65.9711
-80.4154
-50.8201
-32.3757
4.86006
38.5397
96.1578
186.64
121.274
28.7549
-24.0264
-68.0771
-98.0972
-47.5157
90.6607
158.53
55.6409
-12.1414
-40.8398
-53.7092
-39.366
-30.4023
-27.8261
8.07349
12.3887
10.7852
1.14845
-62.2163
-62.9864
-20.6811
-2.75546
4.41694
61.9352
77.8642
-10.5977
-95.1231
-59.8863
-42.0704
-16.953
38.6178
26.6964
32.507
57.7382
35.1414
1.47959
-16.1752
3.407
4.92774
33.4851
117.946
114.125
31.9762
-24.8886
-52.2918
-31.1375
-0.911969
12.9121
12.2512
9.90247
-33.6379
-37.2503
-43.2588
-70.6373
-56.1511
-37.1456
-9.521
4.2165
-4.42754
-20.8438
-60.7756
-79.0004
-55.5746
-27.339
1.89211
31.7409
55.1419
74.1169
75.4163
79.0311
45.8271
25.7606
7.33098
-4.02878
-17.3009
-2.33005
2.74394
-9.74595
-8.59857
-1.65806
2.16694
19.1409
42.7881
15.9412
10.8415
-18.7884
-91.3421
-85.9765
-37.3466
-3.45275
-4.27699
12.7416
29.9142
45.9105
36.9216
0.16026
8.44254
23.2628
11.9136
-14.6257
-33.1763
-27.8358
-10.7777
13.1008
6.45855
5.17522
40.1427
34.6721
8.0286
-10.7264
-5.04573
-6.30832
9.11031
48.4015
98.1713
83.9237
0.178708
-54.5429
-75.6098
-120.618
-154.97
-137.998
-70.416
-47.7839
-40.4235
-9.6798
43.9867
88.9972
208.096
161.757
73.0259
50.82
-21.6647
-84.5927
-124.305
-78.9519
2.06364
46.232
48.0529
41.6017
19.9238
-23.7466
-48.9129
-5.90801
42.2736
112.522
116.143
30.0537
-116.399
-119.12
-65.8893
-72.9295
-34.9836
-3.42921
-0.879172
0.239474
9.39176
3.7359
-17.8902
2.05368
44.4024
59.5297
30.6665
73.674
161.989
125.753
-27.38
-83.7621
-96.1357
-84.3101
-60.6077
0.945887
42.1308
36.5607
21.8849
2.63128
-62.6208
-170.221
-179.466
-72.9357
4.31816
19.8263
56.1367
32.7551
-25.6816
-32.3395
35.5455
69.526
57.1955
61.0289
56.2472
95.442
99.4908
70.8986
102.518
105.957
44.4647
26.2526
32.5926
-5.29316
-21.57
-19.3522
-58.2047
-84.2672
-118.549
-138.275
-106.129
-88.8771
-67.2683
-29.7063
2.50006
-35.3268
-71.3092
-59.0151
-81.6224
-102.289
-62.9217
15.5881
38.7207
74.1709
97.3685
102.296
86.0163
68.4017
54.7059
44.1727
49.207
66.3973
89.2557
72.0684
32.7301
-20.0498
-26.9798
-41.1946
-90.9398
-55.2406
59.9668
83.1751
108.994
42.493
-13.2394
-33.8855
-42.8481
21.1496
16.6789
-27.721
-28.9586
-31.5409
-67.4216
-87.7103
-65.5386
-61.7363
-86.2424
-53.8724
0.93954
15.0695
-16.758
3.86082
5.12481
9.81396
11.623
13.8645
12.1672
-14.8828
-5.45335
19.6656
9.53092
10.0644
16.0646
19.5879
23.6258
31.7241
40.1913
21.979
20.4701
20.2357
7.64867
16.9433
26.1868
11.7164
6.71612
2.51652
-1.7807
-16.5259
-19.2638
-3.12345
2.50387
-0.927588
10.9973
-2.03053
-44.7548
-35.6748
-5.47673
-2.27493
2.3422
-16.0826
-23.2536
-1.06612
-1.51894
0.149864
9.66924
19.6659
7.16116
-26.9273
-10.9785
7.18291
-3.74946
-4.7449
1.00059
8.43763
37.6946
55.6527
23.6751
3.49404
-0.293602
14.3552
9.96872
-7.78679
-25.1712
-28.0164
-40.4141
-40.9556
-12.0355
20.8863
19.9388
-27.3278
-35.2978
-19.5634
-5.1773
5.03195
-33.8752
-44.7371
9.08566
30.7658
30.3236
22.3523
22.8075
31.9657
37.1271
47.977
32.953
7.8712
-15.0939
-77.5538
-129.091
-122.482
-57.7068
3.14977
57.6975
83.0753
77.0981
65.6018
82.5032
75.7701
40.0146
19.4395
12.4587
0.057941
-20.192
-25.581
-31.2566
-17.8519
33.5543
50.3024
4.01488
4.18725
-7.35656
-63.6101
-81.2241
-65.7344
-57.2826
-82.1704
-90.261
-55.6522
0.864268
13.0299
22.6873
31.6566
37.0291
31.3256
39.6736
33.759
11.988
4.66243
22.114
29.5133
46.6651
50.8833
-26.0246
-41.7224
15.6457
50.9487
30.5118
-30.1244
-84.1097
-96.941
-84.8241
-71.596
-60.1943
-41.0801
10.2536
104.402
150.247
106.08
111.694
101.021
46.6401
28.1128
35.0464
0.888063
-36.6462
-48.662
-59.8585
-40.1044
-13.0587
17.0946
7.14183
-11.1306
-6.09699
-15.3418
-44.1296
-103.443
-141.005
-82.2225
-40.633
-42.0616
-17.6931
-6.75596
-10.9201
0.716749
3.57748
0.610461
30.0797
64.5622
67.2295
59.5924
63.1791
67.0623
62.2448
49.816
34.3132
20.6806
1.57371
-6.19011
-3.5008
12.4392
3.34789
-4.82957
-10.3199
-11.2529
3.94264
5.10075
-9.84767
-55.8199
-48.9971
-21.0083
-22.204
-29.554
-32.1552
-27.0895
-7.21338
-15.3697
-23.5513
0.0227065
0.873063
7.8172
12.6688
12.5159
22.0522
24.2462
20.4353
21.7005
13.0426
17.8039
5.7451
-2.12306
1.45376
-8.01039
-8.37481
-12.3976
-17.6924
-9.48307
-5.776
-1.16207
6.23484
-5.41986
-21.6111
-23.2713
-14.1057
-3.04308
11.9281
27.6952
51.7855
76.2195
30.1514
-5.54756
-14.9543
-15.1715
-12.4486
-1.35787
0.695772
-5.0777
-27.9334
-31.9535
-18.8536
-9.72247
-7.80369
-11.5426
-0.740965
29.6939
37.5862
31.2943
-14.5047
-40.3526
-13.424
-19.8662
-38.9569
-6.96694
17.1203
8.21713
1.56077
-3.95959
8.02526
8.03636
13.9243
40.4063
47.5963
32.9301
32.9002
13.7309
-0.0133854
-17.5143
-22.4698
-25.9898
-37.1509
-32.026
-20.2225
-18.4312
-12.6497
-46.0641
-10.0102
68.5025
80.0155
28.4073
-19.7731
-40.4523
-30.5918
-7.30635
-0.154927
-12.3396
-15.2836
-10.1003
-0.529144
26.9056
42.2739
35.2489
33.8661
25.413
25.5864
62.2142
18.9941
-43.0932
-67.8719
-55.173
-35.8937
-21.3591
-25.433
-39.7917
-31.1754
-27.0902
-26.8036
-16.513
-26.08
-62.5977
-11.2508
62.9647
82.8904
80.3749
48.648
31.7887
20.7734
11.7434
22.4634
34.0281
25.5258
12.918
13.7058
14.1902
-0.456645
-17.8168
-12.9902
-11.6428
-2.08873
17.9555
-25.076
-53.4014
-38.7718
-32.9294
-16.7502
0.508144
10.8469
0.319872
-40.5756
-47.3483
-21.5836
-16.3644
-11.8962
-0.690153
6.22385
30.2781
50.9907
49.0363
34.1928
18.7802
14.4078
5.27918
-8.1439
-28.4347
-48.5331
-34.191
-19.5591
-9.54014
10.7748
30.0922
34.2614
35.987
32.4223
10.5939
-2.54038
-22.9374
-27.1314
-14.3551
-5.66728
-2.65206
-10.9197
-12.2006
2.79197
52.9539
69.0542
7.00679
-11.0326
-6.76016
-5.04584
-19.0302
-28.6
-23.8192
-14.5126
-10.8361
-6.97479
7.43166
-2.30341
-13.5955
1.84044
12.8709
12.8281
2.05085
-10.309
-37.5356
-30.1739
4.10907
-3.78233
6.5278
22.5858
13.5678
-4.30037
0.0713163
7.58169
24.8341
24.4492
16.2366
5.64707
-7.54026
-5.24974
6.41591
23.5164
23.351
7.39513
-10.8218
-23.6333
-25.3504
-20.2071
-24.5409
-7.77922
19.5865
34.1683
33.3134
32.5415
39.714
-8.24471
-67.8415
-77.0542
-93.9598
-61.0751
-3.89921
18.6255
14.16
6.68672
9.15613
21.3748
44.934
65.2726
62.9121
23.0469
7.04178
-0.320016
-11.2941
-6.79309
-10.213
0.939146
28.3792
35.2613
61.9273
47.2343
-33.7487
-64.6478
-54.9443
-51.9267
-48.2927
-40.8506
-30.1979
-31.6852
-35.1418
-18.1175
-4.62144
9.0715
18.7923
31.7249
41.7218
49.6704
37.434
9.79989
-24.7737
-46.0569
-17.5722
-10.6146
2.11242
59.5245
65.8883
24.2769
12.7156
6.24821
-11.2014
-6.251
-5.46454
-1.78735
-8.68652
-38.4738
-33.9901
-16.4957
-8.44098
6.77724
26.5774
30.8275
29.9084
25.3356
13.4735
-16.5257
-20.7143
3.26935
-8.62809
-22.4157
-17.6726
-13.0163
-11.8878
-16.3539
-20.8611
-20.0283
-31.8189
-41.9787
-10.0099
24.481
25.7111
8.67182
-1.49292
5.88846
7.3707
13.0013
20.9946
39.7273
47.8112
33.2248
29.4804
14.1463
9.03637
6.02264
2.02538
-1.65247
-17.1913
-32.2323
-27.0216
-23.1769
-18.7001
6.44001
11.0262
-28.6644
-28.1827
20.4512
28.5238
-10.7468
-34.9047
-34.9455
-27.601
-10.6477
1.97221
8.49882
16.2531
13.6433
21.3667
36.9675
31.2392
13.048
13.6998
10.3924
12.6937
21.6917
11.4892
-40.3861
-51.1649
-22.1011
0.791549
-3.1134
-27.0408
-26.6532
-12.3175
-21.2979
-39.2976
-34.8432
-12.0842
35.4902
66.1826
51.3996
33.017
22.9456
23.7527
18.4827
1.15921
-8.44986
-11.4681
-13.1134
-6.32015
2.42041
10.2236
6.18511
-12.0933
-14.1471
7.87042
12.5968
-28.8937
-32.2142
-36.5875
-44.3366
-19.1714
-11.0127
-9.63568
12.5932
25.2392
20.779
19.7949
6.39102
0.251961
12.4354
22.1081
24.4469
28.9129
35.9028
33.2022
15.7435
23.6431
9.29572
-5.25113
2.14804
-0.916423
-4.32755
-9.46199
-30.9536
-49.5759
-53.3537
-44.9888
-33.6174
-40.2651
-32.0104
-18.9332
-5.6896
-0.38157
1.04084
21.9103
62.4751
81.3117
66.7173
28.6049
-17.3058
-27.0488
-24.9702
-21.5035
-8.19468
-8.6986
2.10644
36.8726
42.6391
-5.09946
-34.8336
-38.2011
-43.0839
-47.4817
-67.1603
-65.751
-26.8791
20.1554
36.187
42.6657
61.7476
62.3188
54.1764
50.9541
51.615
52.7334
21.7662
-20.7017
-29.7049
2.24458
16.0748
15.9212
16.0202
14.3945
6.57237
-13.2394
-29.2091
-42.3258
-51.6719
-46.9821
-36.1962
-34.8405
-35.5036
-30.647
-25.4112
-20.0005
-6.4297
-6.11022
-4.70509
4.80847
11.8291
17.5589
25.275
13.2984
27.2843
40.3644
15.8187
-7.02414
-14.1467
-12.6557
0.325462
14.4562
15.3175
13.7218
14.5794
9.56398
-3.1962
-19.4565
-4.20923
32.7207
17.0142
-2.69276
-11.5642
-4.41793
14.594
34.4489
63.0777
40.4782
-4.60845
-37.3949
-45.8367
-45.4035
-46.9345
-42.7924
-35.6028
-12.654
19.4709
22.9073
14.2159
2.80569
9.88787
12.4436
14.1764
12.6857
17.1891
-2.50539
-30.5309
-33.5266
-4.70484
21.488
23.7027
21.0422
18.3815
13.2626
11.5795
-12.3308
-38.8579
-51.2853
-62.0977
-53.4743
-17.2694
13.1976
28.1068
10.3589
7.08352
16.1197
2.53069
4.98455
15.5433
16.0774
11.4621
10.1959
32.4127
62.8993
62.1657
31.1698
15.9392
14.3941
22.6449
-0.952707
-10.928
-13.6996
-40.8974
-50.5933
-51.786
-55.8618
-41.5937
-20.5818
-11.7347
-17.1334
-4.56502
15.9877
38.0174
17.7406
-3.42517
1.50053
-0.992245
-4.16
-27.9186
-24.4481
-21.5887
-10.9154
10.9762
33.2232
48.3783
59.13
37.2392
9.37663
1.23099
8.31039
3.74732
-14.0679
-33.7931
-38.6066
-37.7799
-20.6928
-6.72375
9.27141
19.0354
18.1968
12.6757
5.93101
2.84019
3.99202
-0.294099
3.49916
15.6639
20.2533
8.7168
5.84562
15.3693
5.4433
-22.6051
-44.4759
-43.3717
-26.6894
-18.4076
-14.4234
-6.04086
11.3726
14.8911
14.5802
27.9854
34.7862
47.0939
48.8312
30.739
10.0655
-33.2099
-76.3484
-58.1476
-37.3393
-20.6889
8.66192
32.3353
43.1496
64.7709
44.3344
14.7299
0.287499
-4.05025
-12.8664
-31.4288
-37.9833
-54.6384
-69.1937
-57.1841
-30.9964
10.6451
33.0077
19.7174
20.9844
20.3303
8.53478
6.36698
10.7355
5.25632
8.24699
19.095
26.1886
26.0441
12.7083
14.1577
8.07281
-10.9077
-23.3481
-47.6193
-51.7342
-22.9613
14.6812
13.3333
0.735599
5.96103
8.83656
27.8756
37.4902
-6.59127
2.92048
18.0969
0.0144929
-8.07465
-8.13584
-3.61573
1.23379
6.78526
14.8249
32.8363
24.2076
5.4772
3.12455
0.295058
-6.83817
-18.859
-4.73715
-5.96816
-54.8952
-51.2881
-34.5713
-31.9315
-23.8529
-10.7908
-2.43334
-0.911308
3.39082
6.87331
11.243
10.1981
21.106
31.0083
33.6951
13.2122
0.546998
12.6641
2.06218
-12.3962
-13.7086
-17.4836
-13.5161
19.9739
38.2164
13.0296
-5.30356
-5.63034
4.46172
11.0167
4.91062
11.9243
26.2901
10.9341
-2.96889
1.26984
13.9861
12.5938
-12.1473
-55.726
-27.8956
8.36339
-9.28143
-29.813
-31.9611
-16.5703
-3.37844
3.49046
0.00771142
-10.9246
-8.04029
-3.37124
0.638374
20.3231
21.334
16.2432
17.102
6.24408
9.45245
18.4859
16.7978
18.535
18.1836
8.1165
5.16023
-1.94839
-18.7556
-34.3232
-39.6744
-22.8907
-15.9119
-5.15144
5.87522
13.9058
23.4155
28.2249
6.5148
-17.6688
-14.0909
2.13537
6.14533
4.97487
-5.33135
-35.7145
-35.6209
-29.6131
-7.52082
7.6791
15.6947
14.2709
9.85484
20.0126
29.3091
38.8559
35.4065
5.2637
-9.80486
-11.3893
-12.8113
-4.16539
4.11665
1.78173
5.54193
13.0451
-4.50562
5.62207
24.4653
14.2042
-14.962
-36.0375
-37.908
-24.1512
-36.583
-61.2704
-46.3126
-11.9886
17.736
34.3032
48.2073
66.4657
56.5726
24.0174
-21.7835
-57.8438
-25.1057
-17.7902
-21.1649
7.93415
25.7726
27.4605
20.5321
-8.17256
-11.9472
1.21703
-11.8971
-4.02743
8.38555
15.6377
36.8235
22.3838
-7.71835
-5.50563
2.58886
27.8999
10.571
6.61219
6.79049
-17.3407
-25.8584
-11.8659
-15.5522
-25.7906
-16.7115
-3.38953
-6.8384
-16.2853
-23.2757
-32.0582
-39.5437
-25.7228
-6.46191
11.2666
57.8591
79.5124
62.1784
19.4829
-34.3026
-38.7591
-13.8633
20.1351
29.3157
12.9857
3.4319
3.02093
-0.308177
-1.31889
8.22955
-3.64628
-34.7483
-33.9859
-36.2666
-37.6671
-25.8048
-13.7531
6.82362
21.1868
23.0613
20.4608
21.4613
11.6081
11.4132
22.4875
27.1347
12.2985
0.00851663
0.782593
-5.32612
13.7665
27.8831
18.7539
27.156
24.366
18.0876
-5.06026
-40.491
-51.4331
-29.5391
-14.7412
-20.2223
-30.5661
-43.2586
-31.056
-17.462
-13.4084
-7.63552
3.12538
11.6743
14.9197
15.1884
9.3143
2.15071
6.85772
-3.68312
-9.7504
7.26549
37.748
18.6956
-33.0546
-2.61409
67.6134
107.925
45.7019
-29.8666
-31.8423
-17.1538
-2.83607
14.3676
11.818
-3.07397
-7.33908
-8.35804
-21.8462
-45.93
-35.2284
-21.3704
-27.3378
-17.3318
10.9967
10.495
-21.465
-35.4089
-6.76028
21.6133
16.0646
14.32
5.35807
-15.1818
-23.9992
-13.5871
2.62254
16.8246
11.5932
22.2922
28.9242
27.3424
34.886
47.7479
52.3153
27.7454
-14.9633
-45.7792
-35.4105
-19.2598
-8.32393
-4.7772
-8.80618
-11.8571
9.68192
19.2012
-2.09573
-15.6369
-10.8108
-7.86388
-7.93352
-9.13159
-16.6409
8.17056
35.7274
23.0835
-8.38208
5.96535
18.8152
11.7102
4.68554
0.516934
-13.7851
-26.5206
-25.8061
-22.5269
-11.8656
-8.2948
-1.43768
1.48188
-6.56445
-5.82755
6.48769
-2.86245
-14.572
-18.8003
-8.61038
-12.1952
-22.1131
-13.3312
-16.9398
-25.0622
11.9737
44.1047
38.8571
47.9964
42.9564
25.2189
17.915
18.6891
20.5436
12.195
3.97138
0.351502
-1.66217
3.18975
-0.0214274
-6.0111
5.28123
18.2732
28.0781
24.2048
2.18362
-20.8719
-30.866
-52.6045
-74.725
-59.232
-36.345
-21.0952
-27.1848
-19.0652
10.4717
18.9355
-5.18879
-11.8136
-8.62758
-13.6273
-8.03121
2.81988
39.4296
94.7308
115.014
71.4211
27.4298
10.1436
10.7357
-2.30117
-13.0739
-19.2179
-23.4768
-26.1209
-30.6621
-29.4736
-19.468
-21.2476
-14.2977
-6.77738
-2.57668
-8.18413
-31.3234
-56.2348
-72.0808
-33.7042
1.18878
16.9823
41.8988
52.3158
32.5046
15.6684
30.3708
32.2914
10.6562
-18.0137
-13.4804
10.5525
14.9694
16.5479
13.5593
7.60579
8.95805
3.57291
-1.1122
-0.155055
15.0769
25.6287
20.7116
21.8915
8.84248
4.93254
2.31378
-14.0955
-31.2929
-21.6561
-14.2615
-22.6611
-38.4735
-56.315
-45.372
-35.1597
-15.1464
-11.7256
-30.0028
2.41779
32.3393
34.8647
-9.76764
-22.4167
10.1473
33.216
27.9114
10.4247
9.57579
13.3035
18.962
27.8746
38.1796
40.2837
42.1498
48.2333
16.2752
-9.84442
-18.2154
-35.4181
-51.5053
-57.3223
-21.2407
-1.02352
-3.26548
-8.06142
-2.7715
13.8088
10.6197
-15.419
-25.5248
-36.4109
-47.62
-17.097
-0.504173
8.29251
21.9604
33.8167
48.3904
26.7688
-4.72252
-8.91537
-1.93096
2.28625
1.93874
-7.957
-3.1029
17.0137
27.9323
19.5636
16.66
14.1481
23.3203
17.4086
10.5918
-1.46076
-13.0468
-24.3836
-29.0024
-30.3155
-45.4622
-68.5047
-53.1517
-11.9134
2.49466
-13.2327
-18.4457
5.9585
28.1919
63.7582
52.461
23.3585
24.0665
30.5121
10.733
0.751012
1.15179
1.05182
-1.86802
-2.4224
12.4844
30.8763
23.9958
-19.1269
-28.0756
-13.5487
-11.1946
-28.479
-37.9638
-36.4689
-15.2221
12.2519
6.95947
-0.266239
-1.77381
-5.05844
-12.5183
-21.3362
-16.4116
-27.7565
-21.986
8.13453
22.3892
32.4263
42.9074
39.6656
26.3841
14.4002
15.3418
15.7103
0.831284
-2.07881
0.696358
-6.01865
-7.18956
-9.46728
-3.31598
9.68451
-1.43512
0.629486
6.40121
-9.48069
-15.0677
-0.303015
20.5132
0.583997
-33.8267
-32.2028
-28.4766
-20.9033
-12.6911
-10.9663
-3.74638
-13.645
-15.3733
29.4367
25.5047
26.7516
13.235
27.383
56.385
42.3653
0.205268
-32.7752
-43.4629
-25.2544
-6.72633
-6.24666
-7.15225
0.117274
-8.02342
1.09827
8.08137
12.3263
17.6468
-5.35954
-4.9262
-0.304403
13.3373
4.25742
-18.6014
-27.8204
-25.5073
-7.27417
1.72438
25.2397
45.322
22.3152
-7.70774
-30.6536
-25.1541
-17.1707
-7.87646
6.69249
11.5876
12.1153
30.8403
21.8975
7.15956
0.0341901
-0.774194
12.4501
22.623
9.49613
-13.5369
-34.2942
-25.0465
-14.1781
-7.70909
-11.8597
-8.02483
20.5424
46.462
17.9923
-0.990733
-5.1377
-10.5635
9.66503
-8.28059
-27.6182
-22.79
-31.3782
-32.5832
-12.1827
-0.582783
6.92494
7.14691
7.39188
6.80753
22.8305
21.813
-0.429185
-14.1498
-4.05276
10.7105
16.1563
7.59661
-3.26425
20.1545
29.6564
11.085
3.44803
11.6742
5.32464
-4.70156
-25.521
-41.4236
-37.219
-16.324
2.26911
17.3401
13.4867
6.97642
11.3017
11.0519
-4.5608
-20.4002
-24.6072
-7.53161
4.76229
7.36873
31.0659
57.2614
34.0146
10.0161
6.48277
9.33089
5.48432
-0.256943
-17.5889
-39.0284
-46.0874
-49.3201
-55.123
-49.5587
-40.4008
-8.61921
30.6642
39.6571
33.3861
34.279
32.3051
14.4386
1.70869
2.99017
9.41583
-1.61893
-18.6689
-29.5069
-31.9963
-14.5989
11.0235
35.5615
17.5903
27.0158
50.6074
56.408
25.0106
-11.4797
-15.575
-15.7463
-36.8979
-33.7082
-15.9103
-12.2574
-5.11044
0.678963
10.0805
10.5902
12.3891
5.83216
-2.68337
-17.6812
-0.0211063
-14.7999
-18.306
-16.3884
-20.6327
-10.5711
-0.48513
-9.75108
-17.3179
-32.0528
-37.2339
-8.40072
13.6808
31.4979
63.9547
75.9033
67.1407
29.9017
-3.81402
-15.1129
-0.0934058
4.5141
-6.35327
-17.0433
-20.319
-9.35066
-5.87334
-18.1914
-13.1883
-5.85323
10.7668
9.56733
-3.51095
-8.15061
-11.7204
-14.2628
-8.49938
13.9256
20.6134
13.7787
3.96099
-11.3507
-21.1125
-14.9726
-5.85739
-17.3139
-34.2321
-19.1257
5.12457
38.0152
56.3506
18.5144
-5.50523
1.63559
4.56595
-2.88375
10.1676
0.853791
-25.2275
-27.1624
-9.40948
-4.06367
4.97703
19.9633
16.5923
12.5072
16.2582
18.3111
14.8465
1.24193
-28.0924
-18.5165
-2.28846
-3.87915
-8.24066
3.83415
4.00773
8.4378
3.09159
-16.6302
-31.4952
-23.9781
-32.8349
-46.8297
-28.6418
-2.92107
24.6697
34.5112
27.632
21.3222
24.6449
24.2131
21.1338
22.034
0.862279
-20.6213
-17.9401
-5.72263
13.7524
18.7625
16.1143
15.7313
23.2506
18.1845
12.1995
6.62906
-9.86699
0.864901
28.9482
-15.9433
-49.4115
-54.0583
-48.6247
-18.5002
-6.34092
-22.354
-34.6826
-14.076
31.3961
20.1577
5.21427
28.7281
54.9217
22.8536
-11.0835
-13.8547
-9.48272
-16.8902
-26.6405
-15.0756
-4.59985
12.7086
17.0682
-21.8573
-31.4361
-0.991839
15.0522
13.8874
-8.52114
9.49957
22.245
8.48896
-9.83936
-2.1986
16.5778
28.4056
24.0262
12.1973
-8.03547
-7.23743
7.55005
8.59769
0.336379
-11.9962
-18.8395
-15.746
-10.1935
6.51632
7.50788
-0.459678
4.0639
-3.00754
-20.5936
-11.255
-6.51551
-9.96485
0.22368
15.6022
37.4293
74.911
47.9826
-0.991021
-13.4669
-13.8881
-13.573
-6.22929
-13.4646
-25.0096
-44.2553
-36.8907
-37.2858
-33.5299
-20.4129
4.84959
26.8206
-6.36281
-21.01
-5.01661
-8.69239
-16.0988
8.15957
38.9292
34.3113
28.2459
27.9469
28.0434
23.2847
8.87482
12.5304
16.429
20.0709
17.385
3.10853
-18.889
-34.751
-20.8144
-9.829
-22.6722
-38.1573
-42.6827
6.43817
43.2505
38.1889
13.4183
-12.4182
-16.0259
-3.67342
2.22133
5.86429
10.166
5.55889
-10.4626
-11.783
-12.9406
-16.2631
-5.99169
-1.95037
-1.46633
11.3341
7.77908
-17.9132
-44.3063
-32.3729
13.6133
54.0031
65.6735
19.4268
-16.9123
-29.5346
-26.1427
-12.8938
3.75867
20.8013
23.8186
22.0188
17.7584
19.3114
12.2079
2.09946
-2.9048
-14.0105
-8.82197
-8.58885
-17.3476
-21.6314
-33.1112
-14.9281
4.84596
12.1612
1.65776
-19.224
-30.0072
-19.2307
8.68386
40.5039
40.7894
18.9344
7.2384
-1.91403
-7.97046
-9.07638
5.49199
17.2797
-4.69023
-10.1782
5.51736
25.2837
-0.232394
-8.6044
-4.17293
-2.91424
-6.29507
-5.99159
-15.462
-26.6403
-7.83541
12.6747
10.0782
4.42791
-2.9294
-5.21751
-12.9129
-9.7308
12.01
16.0842
4.75429
-14.5109
4.7208
15.6901
12.1778
-2.48643
-20.3639
-23.5737
-18.2402
-6.56618
2.96468
6.39806
12.8827
16.0176
25.5912
28.8523
17.6706
-4.21141
-8.15493
-16.1821
-23.8542
-21.6367
-25.8452
-19.1407
-5.40146
29.3731
46.3664
34.5799
40.8123
28.9047
11.0991
18.895
14.4409
9.24207
-5.28209
-34.1356
-47.672
-42.5002
-32.2556
-32.9254
-38.9279
-26.5535
-17.9835
-13.9239
-5.60266
2.69883
18.6746
41.9275
26.6491
7.72879
-5.10185
-19.5175
-21.6336
-8.67001
9.56233
28.4974
38.3584
33.1146
12.1815
-2.46105
-5.44145
-5.32292
2.60532
6.23116
14.8666
26.9697
26.4938
12.5181
-4.82027
-14.3429
-24.5268
-32.7199
-17.6185
-35.9833
-49.0531
-30.4124
-13.5753
15.0415
30.0463
35.6663
26.2729
21.9782
28.5222
34.2788
18.437
-12.6045
-10.1261
6.38332
24.5531
0.799188
-13.5273
-10.8341
-11.6443
-11.4347
-16.23
-15.8051
-14.2864
-7.15092
17.1772
7.99423
-3.42716
-18.0646
-37.0536
-45.1975
-41.9521
-20.3339
-16.9969
-32.3423
-23.6915
3.96885
28.7601
43.4357
46.1251
48.537
46.197
42.13
31.9371
-1.5471
-31.2877
-12.351
8.50099
15.3502
13.9292
11.8454
7.68431
-1.78493
-16.6697
-26.7804
-28.8065
2.63425
34.7352
5.36254
-9.2936
-0.944461
0.128618
-7.01232
-11.8025
-13.0258
-8.45131
-10.048
-3.34248
0.323003
0.906125
-3.87763
-14.3509
-24.5628
-10.8911
-5.73707
-11.3966
-4.99511
-12.0974
0.157735
4.99625
-0.284831
-0.478553
0.347704
27.9726
29.8975
29.0761
36.0555
11.5923
-2.16297
13.2991
24.2491
33.7111
51.0371
45.0645
-0.189058
-28.0546
-54.7176
-67.9437
-57.0363
-39.308
-16.2251
1.75003
4.57374
-14.3142
-21.0239
-16.5488
-12.0756
-0.390085
3.18069
8.50471
7.30844
6.74526
-7.22625
-13.6103
-1.30045
3.1768
16.8952
44.8038
68.6492
62.4387
29.5578
6.83163
-0.467867
-10.9724
-10.6853
-19.5314
-22.3723
-16.8218
-6.75597
-3.27729
-6.04
-16.0233
-26.8038
-22.5308
11.2644
20.0528
13.9219
11.9985
7.98823
-8.66698
-13.8662
-15.0915
-31.4272
-17.3536
2.36164
-16.2066
-31.1667
-19.6186
2.54519
25.5282
46.642
33.0188
21.3753
10.8122
7.26487
16.7075
14.4638
6.07224
-5.14404
-14.2553
-4.98083
-13.4144
-16.6908
-13.7522
-9.20011
12.5351
27.0928
38.9792
26.7682
-18.1107
-41.8073
-14.5092
5.92893
9.82312
15.404
14.2478
-2.90459
-54.1159
-95.7711
-78.6597
-31.7771
17.6241
54.9266
65.1353
65.1675
48.1265
17.9551
-11.8708
-18.2919
-7.78611
-4.58726
-10.5145
-13.0904
-6.6421
-7.59598
-25.5862
-21.7247
9.70204
35.4061
36.6332
30.1657
23.6164
13.1181
11.9221
7.85905
-16.7552
-32.2032
-33.017
-45.8344
-50.7779
-34.2294
-6.5486
-1.65991
2.5137
23.9453
18.654
10.4984
22.9442
31.0257
23.2147
4.31859
-2.02978
-1.24485
-19.4198
-35.8461
-13.8536
16.1405
24.9749
18.9777
22.9219
14.2723
-2.34663
-6.08424
-7.51018
-15.4242
-5.82742
0.984374
12.0211
27.5052
46.3451
50.2873
6.03536
-30.9188
-45.8233
-49.7006
-40.7388
-32.4648
-26.5397
-10.0782
10.0186
24.6834
15.8586
13.0589
-5.23248
-24.4636
-10.2441
22.1846
9.0324
-14.9156
-28.8815
-19.5404
21.2491
28.8527
12.052
15.0872
22.0527
21.226
12.6356
2.56489
-0.553461
7.65871
15.4532
13.3317
2.95274
-14.792
-32.9815
-63.135
-82.5093
-65.0229
-13.7049
4.05967
17.2129
32.9657
42.757
47.6938
39.7798
31.682
21.2807
13.0901
16.5562
8.62844
4.1155
-6.07739
-6.34774
1.63986
22.7122
-2.94061
-20.5753
-18.5893
-14.9914
20.5336
12.8268
-11.9078
-8.83447
-10.2746
-12.9629
-19.5131
-15.0386
-7.49134
-17.1011
-30.0457
-29.4472
-17.156
-2.57515
-0.378987
-0.795964
18.3529
29.6308
38.8301
25.3667
-4.97854
-17.6686
-16.8352
-20.7715
-11.9336
-7.25753
-4.72832
6.09174
15.2175
5.42402
1.60815
-0.404814
1.40384
4.04107
13.5983
29.5268
51.7278
57.4983
46.5589
9.23465
-32.8419
-43.4071
-36.1201
-17.1674
-5.41954
-0.0149133
13.8507
6.21167
-14.5299
-21.3781
-20.0258
-15.599
-1.93982
9.67107
1.15151
-25.1318
-27.0864
-17.3711
-19.0895
-6.88632
2.50539
15.1867
31.6388
31.3969
20.6502
9.9708
-18.8226
-30.7507
-16.5436
5.35958
14.6773
23.1056
37.5904
49.9933
50.0037
41.3039
44.072
13.8431
-18.728
-36.087
-40.4171
-33.1296
-32.2608
-29.8148
-36.8886
-25.101
-29.8697
-46.7343
-36.7077
-20.4767
-9.86988
-5.94856
-2.48877
52.7976
77.5429
52.0738
36.8271
16.814
-5.25527
-12.5839
-10.3672
-14.9213
-24.3925
-33.88
-22.0743
-3.14831
10.4173
25.2304
41.3993
38.3595
19.9627
7.01507
-7.28159
-19.9083
-22.324
1.14508
21.5668
18.0695
15.0129
10.6477
0.654735
-10.8793
-19.4086
-20.3889
-25.9425
-38.0765
-31.4796
-11.7401
-8.85365
-5.01377
-13.7454
-15.4309
16.4351
41.6205
45.7855
50.0345
20.208
3.67709
7.59317
-4.60119
-13.6915
-22.508
-25.5267
-12.8733
-1.90902
2.35914
9.22823
7.52791
16.4851
31.0044
17.8332
-4.96227
-17.2193
-24.847
-22.2085
-23.3459
-16.1291
-9.37912
-3.27314
-7.72327
-8.21688
3.03329
10.7928
-2.26635
-2.18922
4.23593
5.50716
17.9446
4.27137
-7.15699
22.0678
60.831
46.6749
4.29813
2.0359
-5.28054
-31.8359
-32.5876
-34.651
-23.3191
-12.574
-6.05069
-2.68252
-10.557
-10.611
14.2507
34.4548
36.1435
20.2102
-0.0937803
-7.35144
-12.7681
-18.1585
-1.01848
-8.31235
-3.5968
17.0061
11.6511
0.676871
-1.11864
7.38567
16.4172
7.93253
2.91669
-1.97964
-13.0344
-26.5971
-47.2977
-41.6717
-25.035
-1.87013
32.4034
37.4134
11.7485
-1.7711
-3.04763
19.455
30.102
10.7207
-5.48633
-10.3593
-1.59197
5.09599
3.39621
5.1562
10.6812
3.56586
-2.59165
-2.83101
-2.38343
-22.727
-42.3934
-11.8704
1.28132
-26.5098
-10.1839
10.1232
14.6194
26.993
31.3933
5.48483
-10.437
-7.18728
-1.10687
4.85819
-9.24495
-3.08626
9.68102
16.9935
20.0749
22.4193
23.1023
-9.41071
-18.6752
3.74371
9.86192
-3.53901
-15.2231
-20.8539
-17.874
-8.40525
-17.1874
-30.8897
-21.4315
-13.265
5.10117
29.0986
52.6741
52.8417
19.8357
6.62594
-11.4345
-20.1078
-6.35572
-4.64285
-23.2854
-36.174
-37.5929
-24.4322
-11.1382
11.334
35.1848
37.7924
37.2275
32.6474
18.8661
-22.3893
-54.6895
-50.8039
-37.3347
-14.7317
13.51
42.8445
28.31
42.4064
22.9198
-4.83078
0.415416
-12.7133
-28.1789
-10.5414
4.43795
19.111
16.17
9.70458
-4.50795
-11.5377
-19.7916
-11.05
5.27342
10.0597
-10.3589
-28.2246
-10.3783
-19.5589
-13.3179
1.31292
9.21326
26.7889
38.8975
39.7676
21.3455
1.65769
-10.3267
-15.556
-2.80359
17.0247
6.67901
-15.0284
-11.0119
-8.83396
-15.3147
-15.6167
-14.115
-12.2073
-5.14551
-12.1774
-10.0707
7.88958
21.3577
-9.14998
-0.803441
5.98393
3.93488
-2.24273
-8.28535
24.5887
60.6985
34.9696
8.55605
-10.2259
-13.7268
-17.3748
-9.36354
-3.8477
4.55332
11.8245
6.32449
-4.97425
-10.4434
-24.6942
-46.9753
-42.6188
-36.7556
-25.8339
2.72859
4.55972
-0.0511091
19.9851
29.7775
24.609
12.1099
11.7885
14.6375
11.1647
8.52893
10.6414
7.54132
6.00358
13.7094
22.0586
19.4931
11.2587
27.3716
27.3712
-1.61578
-21.2133
-34.8656
-31.2476
-21.0647
-13.5614
0.729952
-20.5714
-36.3266
-24.2526
0.892016
11.9359
-12.4823
-26.1937
-32.4729
-7.79222
23.8203
48.1151
44.4308
17.9313
-1.81906
-24.786
-35.1729
-22.3455
-15.056
-16.6348
-13.2067
31.0533
61.9646
44.8468
11.9966
3.29848
19.352
20.4935
6.5388
-8.51504
-19.2385
-21.3823
-11.8196
12.3487
11.1289
4.39128
-8.92282
-3.69767
3.74498
10.4959
11.3382
-0.103546
-10.8843
-13.9707
-26.3523
-24.3653
-26.6247
-31.3455
-13.4641
7.86615
11.3465
2.6686
-19.247
-7.58421
12.7485
17.1094
20.2569
12.475
11.7067
9.05148
-4.54338
-16.3476
-14.6339
3.45995
23.1503
22.9033
23.9092
38.5381
60.1451
33.0675
-11.1871
-33.0663
-41.7445
-35.9185
-15.6695
-26.1782
-16.3208
-24.4123
-45.3622
-16.8405
3.82248
4.09481
5.48691
0.205134
3.11151
26.8182
53.7171
23.5022
-17.7047
-20.2174
-5.61046
7.28974
18.1927
7.35381
5.52141
20.3618
8.46454
4.73074
18.8434
7.84997
1.94924
-3.5142
-1.01744
11.4715
2.7419
-18.8255
-33.6003
-26.3642
-26.7762
-26.3316
-12.8826
-10.2712
-0.238969
1.89416
-12.7668
-9.7853
0.803058
15.0155
25.771
18.6865
4.95023
0.697763
-0.218155
-1.27823
5.82593
1.56936
-14.8658
-8.84177
-4.46261
14.1202
35.1842
60.3711
68.2444
45.5302
9.14744
-23.5995
-45.2348
-44.7674
-37.4796
-20.9596
-4.91396
10.6298
9.23831
-3.44248
-27.729
-31.0648
-19.9908
-5.56353
-0.360246
-9.75711
-18.3716
-15.9324
0.422841
-1.86406
-6.54184
16.9843
34.0577
32.4723
28.1295
7.32981
-8.46673
-9.24372
-7.22771
3.93952
23.7379
29.0716
24.1926
14.2349
12.7978
7.99483
-14.3685
-37.1471
-42.1736
-32.2899
-16.9216
2.09338
23.1496
36.7095
19.6387
-1.41189
-3.38759
-0.695998
3.28048
-1.1687
-7.69764
-14.3418
-20.5411
-31.6003
-34.3158
-9.77895
25.7517
50.6683
65.7221
40.0609
8.13276
-17.0958
-46.7942
-60.111
-57.1213
-36.4523
-14.7712
-0.131981
15.495
33.9983
51.3916
37.184
18.8697
20.0389
14.3363
9.9827
-3.92703
-48.6188
-68.9773
-33.7398
-5.0326
-12.5926
12.6488
31.9699
44.278
43.4571
43.3844
52.4052
21.5405
-23.5667
-37.6491
-30.7651
-14.246
-11.0563
-16.8874
-21.7136
-13.9783
-11.3172
-13.7372
-10.2842
5.94006
14.9229
6.98866
5.38861
-0.901655
-6.63306
-2.58606
-16.727
-5.19948
0.725193
-4.77198
0.503047
-2.8538
-21.4682
-15.375
-10.9817
-2.9386
34.0527
62.4612
59.2207
48.5109
46.1387
37.6048
12.8736
0.745212
-11.3255
-34.0431
-60.6047
-83.5445
-67.7038
-45.2623
-13.7308
24.4688
63.7224
59.0839
26.6718
-6.09218
-28.0147
-39.4886
-23.3763
-18.2753
-15.7531
-5.14462
4.55409
17.1263
26.6403
25.9886
32.2896
24.6058
6.25243
-4.24288
-12.0972
-19.2514
-14.7359
12.0606
46.9825
25.1194
9.0204
-15.4069
-31.5205
-27.811
-18.2894
-9.4524
-2.38114
-14.0542
-23.4746
-24.0622
-27.4796
3.60975
28.7938
22.9655
15.4781
0.733961
-22.7823
-31.6597
-38.8952
-5.02383
30.5226
44.3566
48.2663
29.4569
10.3597
-1.27551
-5.56924
0.230605
9.10756
12.8549
22.6154
21.6696
25.6699
69.9617
63.3335
15.2222
-17.7648
-59.8362
-79.6597
-76.3583
-111.176
-101.355
-66.461
-30.3142
11.2865
31.0907
37.4707
38.4176
30.5948
31.9667
38.3757
30.3425
17.0787
-8.72683
-13.4025
-1.12701
4.56174
12.0288
27.4789
35.6293
43.0019
24.5288
5.27496
8.64685
22.6403
30.3008
-2.99821
-18.2973
-16.5312
-21.4452
-30.4219
-30.7666
-25.9809
-31.7992
-34.2937
-31.7061
-20.7416
-9.60211
-7.10171
-0.620532
13.8607
24.5173
21.1765
-0.395713
-27.8153
-39.1772
-22.4387
-6.57066
3.76598
13.8995
10.1706
1.5294
4.10662
9.95554
31.4773
61.8707
50.8923
36.3198
19.9587
-0.841399
1.97128
-5.86131
-18.6626
-17.5414
-16.1016
-10.3676
1.99353
-1.64758
-4.30294
-12.6539
-15.2105
-2.21671
1.54253
-1.10845
-9.49167
-7.21708
2.87917
17.5138
38.1651
2.42359
-31.1093
-49.3911
-64.1175
-17.0558
31.6215
32.3817
12.3923
0.18438
6.192
5.14643
-3.81605
-6.00669
2.23134
-3.50575
-0.993667
-2.90651
-2.6954
-1.03065
-4.17367
21.5726
36.2079
29.993
32.8851
11.9837
-12.963
-13.6635
0.258516
23.8014
42.2141
10.7472
-12.1207
-16.3825
-26.7085
-19.8766
-20.7271
-28.1536
-28.6873
-25.2012
-33.7448
-39.6686
-33.3138
-1.71583
42.3219
56.4787
20.8691
-7.40365
-3.62172
-3.98466
-25.7913
-6.38816
16.4657
21.3066
11.2619
-0.775437
-10.0794
-5.43908
-1.52525
-9.71769
-0.0338765
16.8989
24.4271
16.0697
-2.44542
-9.37741
-3.98592
3.60661
32.5681
54.0693
24.7141
8.81488
-2.14327
-10.7949
-20.6001
-17.3831
-1.52814
2.11808
0.606882
-1.8454
-9.69623
-4.28949
-7.54335
-2.46339
6.19079
-4.63094
-18.7567
-11.2188
-19.8623
-32.8685
-32.9937
-33.2173
-17.671
-2.19716
9.07336
-2.7503
3.54241
23.9932
24.7042
11.2738
7.19446
12.8518
18.856
9.08556
-4.9016
0.472032
42.0729
28.9289
2.77696
-5.12168
4.54643
12.1755
5.59104
-1.146
7.09667
9.99466
-9.75125
-21.2605
-7.66333
23.4333
16.6368
-4.54279
-11.9502
-12.1337
-6.64131
-14.0392
-40.9034
-36.2867
-34.38
-25.9428
-14.2624
-2.63001
9.94311
14.978
5.63224
17.5016
20.6102
11.0278
10.6769
-5.60352
-21.5955
-13.3272
-13.7634
-16.5387
-3.36283
1.74136
14.2615
40.6656
66.1931
49.0123
35.8983
23.5395
-2.47587
-7.4264
-7.8476
-13.398
-24.4195
-32.5325
-27.3663
-23.2844
-17.5585
-8.51077
-6.72341
5.6893
17.827
17.4496
8.62114
-9.43046
-22.6137
-18.4769
-14.3313
-7.03737
4.42667
-8.98787
-11.8876
-0.931623
16.9788
18.7074
8.62508
9.23394
20.1356
25.625
49.7998
64.8615
24.9841
-10.0596
-14.381
-21.618
-34.3273
-25.1872
-18.2546
-28.6306
-33.3463
-14.9669
-8.36581
-11.5755
-10.3892
-7.05365
4.12166
15.73
15.3708
6.96854
-4.65768
-16.8151
-15.3316
-4.69705
-8.95877
-8.05108
4.52666
7.78226
2.99336
22.564
35.761
41.9881
55.9022
66.2267
29.6592
-12.4708
-37.6735
-38.3653
-36.3247
-29.8998
-15.8556
-9.75792
11.1309
-1.98995
-16.5114
-8.88117
1.66211
22.44
45.2582
26.7927
-14.1652
-40.4998
-45.3379
-51.515
-38.9808
1.90006
-0.461203
4.51623
23.8868
19.6546
8.03172
0.368639
-6.57623
5.45086
24.4508
29.5899
8.64038
-12.0808
-19.7946
1.40923
28.2928
27.6632
26.4857
34.5776
46.3731
24.3553
7.04971
-17.602
-31.665
-25.3802
-26.2185
-33.2263
-33.0622
-27.074
-16.5593
-14.98
-21.7547
-22.0254
-12.8246
7.15771
32.2368
48.2974
22.7022
-8.76922
-3.72287
27.7989
51.051
22.0024
-5.97121
-11.0568
-7.88718
-11.6454
-16.4597
-7.70039
-10.8256
-14.2536
-1.24543
-0.969268
-1.84411
-9.13356
-23.4216
-28.2056
-31.8142
-25.9457
-14.6792
-19.9151
-8.61775
19.6739
41.1082
58.0025
51.6238
33.0318
12.9388
6.06289
0.195264
-0.572318
-4.44254
-0.328445
14.5284
4.43779
-4.55691
-15.5145
-7.40677
-4.22575
-11.8607
-12.2633
1.2349
33.7114
35.6588
-1.94384
-26.8069
-26.753
-13.1973
-6.11976
-23.3548
-35.0966
-21.7392
-7.81917
-4.91277
3.61862
17.8184
42.1282
27.2431
0.867532
5.22628
10.1351
2.764
-16.4307
-33.1767
-21.6593
-0.838062
6.12098
3.38788
3.35087
14.0835
27.1269
31.6881
37.3841
39.0514
8.99311
-32.2641
-45.5241
-25.9293
-9.19212
-9.23867
-13.8667
-14.6167
-12.6157
-15.3233
-14.319
-6.67863
5.80354
15.8135
13.6577
10.8011
9.2258
-2.0618
-20.6954
-30.6014
-18.2739
16.4347
37.6481
29.4984
20.8699
9.86171
-10.271
-22.8753
-16.4162
6.55577
25.9726
27.7176
23.8844
20.445
5.85997
-7.96756
-9.78725
-6.72645
-11.2048
-16.2824
-6.646
4.85939
12.7333
15.1065
-3.63039
-9.13313
-5.44367
-17.8936
-23.046
10.6073
13.1813
-12.5716
-18.7471
-34.203
-32.5404
-10.322
-7.52961
-1.41799
5.76367
10.7603
22.1068
15.6065
-8.98204
-9.67276
10.6013
21.4632
30.9336
33.7397
21.0409
-8.71074
-26.6655
-14.2135
-10.762
-13.4342
-3.57762
0.163343
6.13527
9.91088
5.38369
-3.60712
-8.43747
-3.58828
-6.435
-0.286694
11.4763
9.01302
23.2779
55.7332
33.2881
-13.9993
-24.1818
-18.6693
-20.9055
-14.969
-20.1919
-31.5447
-19.0711
-8.49104
18.2018
23.6096
14.3249
20.2125
27.4909
22.7429
-12.7816
-45.2594
-41.4802
-38.7615
-15.367
-3.19069
-4.89052
2.32737
15.0624
26.5124
26.4147
33.9507
25.4228
8.97484
-11.7924
-8.74497
0.225747
-8.6609
-19.0187
-27.0958
-0.271565
19.5437
13.7054
5.74102
1.71566
8.70936
2.1163
-10.6823
-16.9279
-12.5646
8.4848
10.6856
5.82754
-3.46847
1.21764
5.92657
3.77134
0.409671
-0.289694
4.90004
7.10081
16.8884
-2.511
-27.8741
-21.9328
-5.14834
4.77651
10.2837
7.51932
9.96331
8.2817
-6.73204
-6.7841
-0.097548
-1.60298
-7.65054
-8.94205
-2.02295
-1.48732
-19.0938
-21.3847
-18.8509
-13.0786
-4.54927
-1.16401
3.54397
14.5738
24.1497
39.3374
21.097
26.473
51.8948
31.467
10.868
-13.6003
-36.6122
-33.3009
-32.0387
-26.2797
-13.6136
-9.28443
-0.907131
8.83341
-0.783687
-10.4222
-14.4694
-8.68718
0.105749
6.29499
12.7847
-5.49311
-23.5209
-18.7923
-5.53875
10.2042
23.3162
22.2813
19.0953
16.1827
21.6798
28.1712
15.0856
1.8882
0.0121536
5.75338
3.05621
-3.52623
-13.1111
-19.9423
-9.69194
-0.910478
-10.0012
-14.8479
-14.8221
-15.5175
-5.91037
9.18766
11.4139
1.57909
-0.167146
-0.494298
-3.11341
-14.4053
-14.3058
0.0336955
16.4362
28.1577
21.1067
23.0392
11.8503
-8.3102
-12.7328
-11.2227
-6.61092
-2.64413
5.53763
-2.01216
-14.6641
-15.1187
-3.23061
-18.127
-17.9313
-5.09052
6.4421
13.8952
-3.96377
-24.4289
-10.8294
-4.66228
9.30532
-1.82351
-9.30481
-3.96127
-10.726
-3.7523
14.474
23.4818
28.0968
34.2057
37.4033
39.7887
24.8157
17.7586
17.8449
1.24517
-9.18303
-11.5874
-20.7247
-31.221
-33.601
-23.6677
-10.8978
0.573486
18.592
29.8598
10.3449
-10.6015
-2.57416
8.70055
-15.4177
-32.9266
-29.1843
-22.7326
-22.859
-16.5443
-11.0716
-3.92634
-0.935283
-10.6282
-7.60174
9.5417
18.6663
19.3366
7.70665
-9.75308
-12.7171
-1.59965
-7.02962
-16.4723
3.23543
50.9442
84.537
77.3759
33.9116
4.61052
-2.9048
-17.526
-18.7472
-14.1509
-19.791
-15.4594
-6.31519
-4.32717
-10.4937
-15.1152
-14.2359
-8.8348
10.7177
17.95
10.6429
-12.5202
-43.0575
-41.9505
-10.5155
7.40628
16.7993
26.337
18.848
1.98336
-13.5398
-8.30403
11.3087
-13.8747
-32.0671
-30.2896
-14.2221
12.961
48.2185
63.4128
65.4087
55.4783
12.4237
-21.5804
-24.4703
-28.3795
-30.926
-31.3889
-41.6368
-36.2043
-11.3962
3.63899
5.50365
19.6825
27.9654
20.9714
6.5253
-9.58048
-35.4899
-44.7693
-34.6495
-22.5277
8.36568
27.7743
21.017
14.297
14.4934
11.8653
20.5195
26.2026
20.3701
16.8658
-2.15175
-14.7856
-12.4699
-5.96802
11.9268
24.7398
7.02495
-14.4679
-12.5404
7.38353
7.74915
-12.3603
-19.4504
-25.4385
-29.2894
-10.0041
18.6695
35.3227
37.7397
23.6771
-1.5033
-12.9295
-7.06327
13.2268
3.33309
-18.7514
-27.8503
-28.3404
-23.6618
-31.9564
-8.90734
17.3346
22.7163
25.1352
22.789
13.1542
-1.65444
-10.8076
-18.8009
-26.9941
-12.5369
5.59817
6.24371
-2.37147
5.47142
9.88083
40.2198
31.7143
0.0631702
-15.6371
-17.9854
-9.53284
-2.51711
-5.04642
0.141789
-1.28634
-4.56865
-4.75648
-1.19574
7.09907
9.80638
6.09518
12.9797
10.8604
3.59062
-6.69804
-22.3895
-13.5858
-3.61611
-2.44889
-8.00738
-2.11399
7.79201
11.5253
7.55781
3.54832
-0.268644
0.360163
-4.26084
-10.4217
-12.236
-6.04013
5.15473
11.5919
7.02225
1.07278
-5.42528
-2.8544
-2.54206
-2.09466
6.5976
11.202
3.72614
-8.08594
-5.65122
2.08008
0.591951
3.66499
-1.87346
-4.61741
-2.02313
3.98004
2.05045
-0.156428
-9.7477
-11.3209
-10.6158
-4.25344
2.26556
6.03374
20.7599
25.3711
17.8539
17.2692
17.9062
13.4203
-9.03555
-19.1572
-12.154
-8.00547
0.539241
-4.07066
-8.16558
-12.4329
-7.48774
-0.758202
-3.8822
-5.18661
-2.71461
-15.0028
-23.1557
-22.1219
-18.0915
-8.86709
4.17091
-4.71855
-6.32458
-12.6509
-3.58674
26.6812
48.5998
49.3543
35.5957
33.9736
23.098
42.4204
41.0354
1.04311
-48.3561
-71.2086
-48.3135
-27.882
-8.54147
-7.40426
-19.2036
-12.5795
5.20248
27.6375
37.6678
15.6518
-13.382
-21.4832
-13.3312
-13.5287
-16.6968
-32.8991
-28.6916
-8.41708
19.7795
45.6607
29.6935
18.502
19.2338
21.1834
12.2223
5.43115
11.0593
9.79309
18.5893
17.0077
2.7089
-6.99683
-8.14414
-5.96988
-5.81899
-13.5677
-17.8709
-11.3524
-8.60188
-15.8448
-15.3089
-14.4197
-18.1399
-14.7521
-4.26871
-3.54584
-7.68254
-8.98846
-22.904
-31.8535
-21.9129
-0.579433
10.7652
12.3018
16.1816
13.9884
16.0193
14.9661
29.8212
39.4441
22.6525
12.0196
3.6188
-1.16382
8.19181
15.679
12.3233
-3.87819
-23.5217
-28.5379
-12.6693
7.22052
-0.908167
-5.13343
1.71133
11.398
32.0542
55.9694
37.5992
19.6036
4.37263
-13.9091
-3.6869
-8.67695
-25.9656
-38.8108
-34.5962
-20.709
-10.9389
-10.1935
-13.8216
-15.1476
-8.2221
-5.97678
-6.12799
-15.9714
-24.9713
-26.8952
-26.9854
-16.5888
-5.36692
4.19504
6.39528
14.2074
17.078
21.3205
9.79339
4.81288
10.2487
32.0454
24.7902
5.02029
13.2493
28.8995
44.1853
15.4516
-19.7039
-20.0561
-10.1349
-2.10112
0.903247
-2.91825
-10.2162
-8.68585
-5.39186
-4.35614
6.56807
20.876
26.5526
34.8523
18.7432
-2.20282
-26.7243
-38.0446
-33.8844
-15.3564
-8.72937
-5.48515
-3.83932
4.83059
-5.25753
-12.4571
-1.66184
-0.760172
-4.84701
0.303127
7.21376
14.0014
3.04086
-10.0765
-1.67082
7.50239
3.5017
-5.76647
-0.756635
10.1968
-4.21707
-1.91716
12.2075
7.92262
6.28195
7.27053
13.1458
14.4374
5.92924
-4.55833
-5.89803
-9.2018
-11.9197
-19.7062
-14.7159
-2.23119
13.658
20.088
-8.9138
-26.1387
-8.10288
2.14788
-2.41273
-4.26724
5.64297
12.9364
7.32577
4.85371
5.4093
7.08619
12.6055
9.61195
-2.21684
-6.93718
-7.40212
-5.77402
-3.63509
-5.34932
10.9169
13.5434
18.2196
9.10166
-7.09618
-12.2686
-12.152
-12.5274
-2.51547
2.35798
1.83586
-4.72238
-19.7518
-29.5168
-19.4021
-10.383
-2.54467
4.88901
0.978499
-2.85422
4.2863
5.23606
2.00905
-2.13052
-1.65262
0.301567
0.717293
0.131328
13.6567
38.1026
45.9572
33.7425
21.7083
16.0584
1.78217
-11.6888
-13.9375
-15.038
-10.3306
-10.9855
-5.32078
3.38856
-5.25264
-0.403336
4.93251
-0.426021
-10.9607
-9.52567
-13.2158
-25.7041
-21.836
-6.32243
5.41985
11.4327
1.74931
2.63025
2.3193
-9.37924
-8.24051
4.72265
6.76586
2.19051
-3.2356
-3.94166
-2.2224
5.12415
18.1789
12.8578
-0.374042
-4.15164
-14.4097
-6.98538
3.65394
7.58763
10.842
14.1759
20.5018
19.2659
5.55336
-5.06055
-14.5581
-9.56126
-9.04632
-12.3042
-7.98309
-2.90825
6.44971
13.9308
-0.831382
-9.88238
-0.611943
12.9213
2.20735
-6.86285
6.99506
25.3711
10.2691
-8.32758
-10.0872
-17.6122
-20.2185
-8.62694
23.9807
24.2368
1.90118
-13.7037
-18.859
-23.1252
-10.8456
-10.2722
-30.4875
-30.3443
17.0866
36.5897
13.1522
-13.8013
-14.3183
13.552
23.3838
7.36008
3.6562
-30.7917
-54.6813
-31.993
-7.95903
7.44213
17.7861
27.3172
29.848
38.8019
42.2139
28.3393
9.31662
1.85511
4.15846
14.3863
25.006
22.7174
14.992
17.8034
5.17716
-3.20272
-8.31039
-19.1202
-19.9365
-14.8021
-23.9548
-33.7627
-36.6445
-39.3722
-24.3879
-4.89449
6.61992
1.4414
-13.7036
-20.5192
-21.1587
-26.4025
-21.0437
-8.71432
-7.86524
21.3557
55.2924
60.4651
40.8188
10.4804
-6.36375
-9.83883
-6.55771
5.96854
0.965501
-21.1005
-30.9048
-17.7697
12.4382
29.1896
19.3976
0.582998
3.89666
11.9215
14.3244
12.7156
-1.36434
-10.6124
-0.476498
8.85932
16.1686
19.8793
7.70854
-13.5493
-15.7737
-4.27742
-3.95677
-3.74936
-5.25918
-8.61428
4.19806
13.8465
10.8423
-9.49293
-6.57913
-1.40972
-12.2229
-20.677
-15.4497
-13.5674
-10.6547
-4.69598
2.14998
0.176721
0.634767
3.51231
2.0964
2.80918
7.33573
12.4358
12.6048
9.37872
2.38394
-1.80799
-9.57379
-24.0475
-11.6758
12.1781
2.09458
5.95691
8.21165
-0.598848
1.74451
24.4066
42.628
10.6672
-16.8961
-24.1818
-20.6045
-30.2721
-38.1055
-26.7544
-8.80665
4.35713
13.5209
16.119
14.0966
2.52387
3.29479
12.2402
16.1964
9.94104
13.5361
-1.9383
-11.1539
7.32511
12.0053
5.47215
-0.817018
-8.99218
-6.41156
-6.57468
-0.338177
15.48
26.7512
24.2538
-3.79766
-20.9731
-18.2543
-7.23375
2.12856
4.86453
-5.19947
-4.3516
9.43842
21.8967
4.72838
-3.40303
-5.82764
0.607077
2.69727
1.70171
-5.41893
-10.4487
-13.7178
-21.2352
-15.4452
-4.31
-1.71346
-11.4769
-20.5858
-17.8852
-8.13243
-4.80372
-15.6653
-10.6182
13.012
33.6013
32.6887
28.7145
35.7941
20.1147
-11.532
-22.349
-26.601
-14.5702
-1.30713
7.06758
14.0643
-4.88029
-3.93673
2.88832
2.57786
2.42434
5.64011
13.3041
20.0711
4.42414
-5.61831
-12.0779
-24.6294
-19.0231
-3.15021
16.1444
18.423
-3.96925
-13.5835
1.54034
11.7692
17.9986
16.1231
12.905
-0.923039
-6.26927
0.920495
-6.06765
-4.8928
-3.23942
-5.44906
-0.275554
0.490459
3.1442
7.6529
-5.74566
-6.53154
-0.475109
-3.32354
-6.20254
-3.1768
1.14753
-1.3087
-16.2874
-7.52263
11.651
22.5613
-8.82348
-24.7019
-9.47372
-0.539029
-11.0394
-33.7081
-35.8079
-28.6349
-17.887
-1.94302
27.9833
49.6761
42.9609
15.0101
3.9816
5.72595
11.7551
12.0117
-6.36827
-15.5293
9.09235
14.5939
0.376462
-13.0099
-11.0099
10.1811
19.0647
23.1152
26.7524
20.6594
9.89335
-7.51712
-8.66116
-6.23619
-10.5707
-14.2006
-3.19148
-4.36946
-9.51204
-24.2702
-15.7635
-15.8604
-15.8434
-5.82722
-2.78731
1.16485
-4.31028
-5.05087
0.73564
7.25486
19.5228
16.7437
-16.403
-19.3751
-12.5018
-7.53969
3.27601
11.6012
7.88922
14.3173
28.6252
38.8852
12.8332
2.48246
7.26722
-0.305355
-6.68732
-8.59457
-10.6341
-7.68362
-11.3566
-17.5039
-26.4103
-20.8689
-0.166609
7.30398
2.18882
-2.00241
7.77874
0.900547
-19.067
-20.1876
2.93379
15.4473
17.5685
17.4188
19.7238
20.0992
19.8126
0.157726
-27.0855
-24.8056
-15.8717
-8.64758
-3.7471
-8.8092
1.13386
18.0076
20.3507
23.3274
26.3467
22.444
20.4933
9.95987
-1.67783
-4.38603
-18.9569
-21.6359
-21.8117
-17.7202
-10.9283
-7.59297
-1.0075
3.24381
-2.52238
-2.33832
0.176182
0.811631
-8.01493
-15.9877
-15.4049
7.29579
4.07142
-16.2207
-14.6069
2.45489
17.3094
14.139
-0.10265
-3.65088
-6.32858
-8.99263
-5.65939
7.25078
11.8246
4.78553
4.32649
6.63852
3.27671
3.69174
9.84932
2.24064
5.5296
31.3307
28.6061
8.44292
-0.934886
-18.8849
-15.169
-1.2476
16.1224
24.7325
19.3768
3.21809
-5.32547
-14.8078
-20.1746
-21.5342
-8.58402
-6.47872
-17.4148
-25.6091
-16.57
-17.7072
-12.3297
-2.01325
0.378313
2.27123
2.91485
-0.563779
-5.70567
-0.931662
-0.413746
2.18525
12.5628
25.7691
29.235
18.4326
0.304498
-7.6809
-3.44914
-8.45762
-15.9592
-7.36441
-2.3903
-3.36149
10.5926
35.9802
36.0749
29.6262
25.4826
4.1088
-12.7871
-19.8767
-24.7778
-17.9624
-12.643
-11.0269
-15.9852
2.85788
20.8143
15.6408
7.48579
-2.22876
-8.30065
-10.7104
-25.155
-32.6311
-25.7483
-20.9353
-20.0441
-4.46843
17.5433
24.4069
17.3381
6.23864
-1.95901
18.4546
25.4873
-8.03164
-22.2756
-1.36631
17.174
20.6015
17.6733
15.451
16.1494
12.065
10.6359
3.59262
-6.8178
-13.9054
-23.9723
-23.797
-14.1925
-6.97383
-7.45849
-15.4228
-5.69213
8.73619
13.0816
8.71223
-2.877
6.78623
13.6107
9.83722
10.58
9.28133
4.15725
-9.77888
-16.4049
-17.6311
-23.2111
-22.9837
-9.7252
3.31207
7.21751
-8.28787
-5.43969
11.1576
16.2138
9.08234
9.74122
8.95298
4.74096
-2.33057
-0.224444
-1.92607
-5.21559
-1.14196
5.96237
19.4879
32.1886
21.2232
12.9442
-2.14668
-16.7661
-12.9179
-18.985
-23.7985
-31.3737
-23.7304
-12.7584
0.681665
13.3073
26.1425
21.7893
2.02041
-8.81894
4.18283
10.1658
11.0101
19.7028
8.4084
2.37959
13.2397
14.1037
-0.0673938
-19.322
-30.8387
-32.9938
-29.3445
-23.4539
-25.2099
-20.2785
-11.806
-9.51176
9.8908
30.4691
46.259
31.4147
3.41607
-7.9117
0.815429
-4.57924
-3.47461
1.11814
8.56773
20.6558
19.3992
19.7827
18.6055
13.8327
-0.530095
-7.3536
-16.0567
-9.86766
-4.72319
-2.22901
-13.9109
-12.9872
-12.6206
-18.269
-15.1768
-9.59457
-9.95784
-6.807
3.46417
11.2986
17.765
17.8895
7.12138
-0.476683
2.68251
3.80407
7.54345
16.7983
15.1125
2.02238
-8.89981
-22.537
-26.3441
-20.7087
-17.9432
-11.3845
-5.85638
10.9593
21.9287
20.8153
16.4717
8.49312
6.68946
18.8385
23.0123
12.4166
-7.48201
-45.3463
-46.7292
-31.5193
-19.0063
0.0851316
12.5964
10.0831
33.5849
68.5795
55.3957
5.58577
-17.4094
-18.568
-21.3412
-28.1487
-28.8515
-22.777
-14.8374
-22.3434
-15.7814
4.79319
1.57338
-0.928428
5.42221
27.0562
42.6181
22.6287
0.457109
-16.8736
-14.2436
3.25836
5.04988
5.20807
6.67578
0.706074
-2.50181
4.50771
9.67061
14.0014
10.8416
6.85938
1.67628
-8.92436
-12.6307
-24.4949
-26.9847
-13.0693
-17.5607
-21.6179
-12.6797
-15.908
-9.70908
-0.746233
3.85382
24.8812
59.4478
74.2721
46.6618
13.3533
0.230116
-8.48326
-2.28492
-1.29237
-8.78445
-16.5507
-17.4072
-4.54859
-3.78995
-24.2065
-29.5214
-16.8854
-12.5581
-11.4868
-11.7327
-11.0949
-19.5834
-25.2494
-16.9926
-4.67941
9.66836
19.5643
17.6231
22.534
37.275
39.4031
14.741
-1.83215
1.0944
5.37321
5.32727
3.97617
1.78828
-2.48812
-8.70328
-13.317
-17.2943
-25.3554
-15.8262
0.0596742
2.05717
14.2732
22.6274
11.3863
-6.56518
-9.02326
-2.56695
4.54386
10.7898
11.8949
19.1935
24.2636
2.00325
-7.71964
-6.82558
-5.43228
-0.524792
-0.966005
-5.78493
-5.04121
-7.97772
-8.24703
-12.3935
-9.80058
-12.6099
-14.6594
-5.34246
-0.420783
-10.1438
-9.31362
-9.56883
-7.97144
3.02158
5.71735
10.8726
13.2068
-6.14257
-15.7672
-3.45117
11.3382
25.9691
32.8577
29.0062
23.7209
16.7862
-3.21617
-12.7095
-21.0643
-14.9319
-5.15419
0.745363
2.85362
9.60975
-4.72804
-12.5945
-9.03745
8.48906
21.0653
7.32485
-6.01365
-6.79381
-25.2444
-33.6956
-24.0683
-11.7768
4.08324
11.5224
15.2699
6.43293
-0.459227
-8.85761
-20.075
-12.6746
10.8766
20.793
15.9757
6.45071
18.8443
42.4507
20.2632
-0.183791
-4.33349
-3.08167
-6.4823
-6.21616
-8.40078
-18.5624
-22.647
-14.0877
2.4643
23.2722
33.1609
13.6503
2.59261
-2.19422
-10.6833
-12.0715
-24.0788
-30.7908
-15.3517
-8.0414
4.9015
15.8571
2.65094
-5.40975
1.13278
7.19534
5.98017
9.74966
9.17976
-8.18805
-18.4314
-13.3304
0.155923
5.33325
11.972
16.6329
14.658
5.0073
-0.21199
-2.97269
-14.512
-18.8061
-9.68404
-8.43379
-5.88356
5.60549
19.8493
29.9843
23.4457
14.1809
5.18326
0.126396
-6.91591
-11.5447
-10.1271
-22.6641
-28.0169
-14.9595
8.84546
12.9442
16.6266
19.6662
20.285
18.2506
12.7649
-5.42478
-14.5994
-31.7993
-46.4883
-41.0615
-6.72881
13.7504
0.786284
-14.002
-6.87624
14.4907
19.4322
13.8236
15.3385
13.2378
15.2975
12.5328
-0.716352
-4.60088
1.29002
5.1371
-0.0151652
-4.31359
-0.401849
15.2468
9.01602
-9.0316
-6.82189
5.50359
7.39431
7.84358
9.6565
-4.17351
-18.5681
-22.5145
-19.9092
-19.4825
-10.5797
-1.39712
9.86419
25.8068
23.2472
2.62263
-5.90894
-22.1349
-29.2234
-14.0298
-3.60024
2.23598
11.9979
8.99418
-0.73638
-0.429442
-0.77941
-3.14803
-0.94881
8.264
25.5946
19.2891
-1.69058
-22.1199
-23.5658
-7.17915
-2.72545
-0.734676
2.79197
9.57401
9.06774
3.69244
22.333
51.5226
37.304
15.9618
7.36243
3.58153
-5.8337
-19.2487
-20.5198
-17.6031
-10.3636
-8.82946
-21.7675
-23.7893
-10.8975
-1.87268
-6.59162
-13.578
-7.64089
-4.00869
-20.0392
-32.4426
-17.6679
-8.37668
-3.99716
9.1897
18.4357
22.7673
16.908
15.9814
20.764
25.6482
30.9195
32.6027
20.902
4.09638
-6.9552
-6.93345
-3.60717
-4.01566
-19.9456
-32.825
-32.812
-14.1557
3.61845
4.98044
1.8378
6.5074
7.88479
10.1947
25.1401
45.7022
39.7348
13.6573
-10.4648
-6.4524
-2.75941
-21.5994
-30.4746
-20.5384
-14.0905
-18.4521
-18.1812
-8.9953
2.34767
-1.11648
-16.654
-26.0406
-23.1562
-13.6893
-10.8839
-13.353
-2.67322
7.21046
9.43464
0.714134
8.18622
21.8982
28.997
26.9868
30.288
35.0622
23.9144
5.93227
0.790682
1.22544
9.38282
9.80989
0.859887
0.866828
-6.27848
-31.6013
-32.1124
-18.2832
-4.62214
1.56691
2.37547
0.346576
1.44888
7.81458
-1.55624
-3.66663
17.1635
16.703
-5.40234
-6.22322
3.12397
9.6202
8.80214
1.42795
-14.7876
-20.2696
-20.5656
-16.4197
-11.0801
-5.18714
-0.876479
-6.02825
-4.84267
-6.79237
-6.53976
-2.3002
3.5665
19.9454
21.7535
-5.17299
-17.6316
-16.2314
-9.60309
4.28947
23.7809
43.9752
27.1153
5.20742
4.12594
2.24209
-2.53975
8.18931
16.2327
7.94217
-11.6143
-25.1317
-26.2496
-19.6581
-1.66656
26.8673
36.7194
25.8426
13.8433
-1.57381
-28.126
-43.092
-29.4933
-15.4668
-11.7103
-8.39464
-2.23175
3.84441
-0.321399
-6.93249
-1.61082
5.64957
4.74969
7.44148
6.60824
9.16273
2.33198
6.81999
2.19717
-9.83402
-2.27485
2.37885
12.1446
16.4479
6.10544
1.3071
1.30562
-4.49374
-3.14489
2.0832
5.46111
-0.00105538
0.414732
12.0477
9.08186
7.91437
0.583446
-11.2349
-14.6178
-16.1509
-17.0507
-7.54243
2.64573
0.38659
1.4133
16.7966
6.35462
-2.72054
6.02584
24.3893
20.8429
1.10227
-19.2369
-27.952
-17.5621
-20.2735
-19.1251
-7.96368
-1.36203
9.16943
11.8106
6.51174
-0.505012
-3.30033
-6.32351
-13.3089
2.13048
20.9262
6.35073
-6.69494
2.58359
17.9763
17.5649
7.33924
7.48887
14.4681
9.09905
0.650829
2.89729
-2.61899
-10.5125
-12.8999
-11.3851
1.68508
-0.438969
-10.9181
-6.62906
-2.52181
11.0141
16.0014
-5.5591
-9.93642
3.18497
-1.47201
-1.34652
8.48362
11.0125
8.4117
1.6521
3.93424
6.31421
-4.53452
-17.7877
-26.7881
-20.7606
-14.7367
-11.4165
-9.17918
-14.2303
-15.4999
4.76807
8.72386
3.9963
9.30731
5.43033
-2.68555
-1.61832
0.658018
10.164
17.3126
18.2538
28.7512
29.2163
17.8328
3.19781
-5.38363
-8.56092
-3.81808
-1.44336
-7.33742
-3.63853
16.8248
23.3183
4.36513
-6.74699
-20.0887
-27.4196
-15.4044
-14.8303
-12.0065
5.28648
11.4864
-4.06047
-10.2208
-11.2898
-7.17118
-7.13314
-6.47358
-0.470336
-1.86794
4.99548
7.93432
16.1934
19.1956
9.38356
5.45874
6.46793
3.29102
-4.14269
-8.20557
-9.70937
-22.3936
-11.336
6.77158
19.4071
11.1295
1.60639
-6.5237
-9.07742
-10.9423
-13.7618
-12.0106
-7.20217
6.77197
16.1476
21.7629
21.91
3.54729
-0.707533
7.14786
2.10074
0.996057
2.56478
-4.82924
-7.08733
-0.0253679
2.17448
-7.19001
-6.47343
6.66625
10.86
7.9145
10.1111
17.1139
7.113
-5.51389
-23.1656
-19.2267
-2.66764
-0.789588
-8.81648
-17.1584
-17.7034
-4.71631
1.81518
-9.4224
-8.0181
-0.646968
-0.347537
-3.11114
-6.04921
-7.19942
-12.6971
-8.34666
23.6215
33.4526
26.0544
17.256
8.76664
6.66048
-2.54749
1.24789
6.90951
7.67113
1.77672
3.21136
6.11707
10.5521
-4.79817
-7.86582
-7.43105
-3.03445
-6.07866
-18.7577
-31.2007
-22.8643
-11.6356
-2.3423
-0.592651
-7.20369
4.79537
21.0728
21.8851
9.74127
-0.53537
-8.08992
-15.7254
-8.09847
8.47612
17.6676
20.4146
17.7182
2.44189
-9.66416
-13.9282
-8.51381
10.411
28.8788
23.5871
2.59204
-7.18429
-18.6434
-20.584
-21.6304
-8.79346
6.01236
12.1629
2.2655
-3.02579
-4.08251
-12.0173
-24.7442
-15.9766
4.24808
10.4086
6.75539
8.19072
3.89729
10.7318
3.2471
-4.33905
-9.83634
-15.1335
-5.94686
0.949037
6.71834
16.2383
12.0349
1.32591
5.73114
19.8756
31.2779
22.719
11.7997
3.93578
-8.82759
-28.1061
-34.8113
-34.9133
-16.4662
-1.39004
1.53311
3.52586
4.75777
-1.96484
-1.2879
13.2702
25.4361
21.9701
3.22641
-25.3619
-32.3867
-13.7404
-12.519
-4.89985
0.0350635
11.0595
6.60925
7.61428
24.3837
18.5708
6.10049
3.80207
1.03229
1.36323
-0.372022
-14.811
-14.6517
-15.2779
-10.5474
-4.08578
-4.99127
1.55712
17.5556
22.3816
13.5737
-4.68255
-6.0081
-0.832401
-6.34298
-2.24945
16.9689
20.4103
8.04987
-3.52922
-19.5635
-25.1676
-22.4601
3.746
8.82294
-1.3683
-3.10703
-0.706998
10.8374
0.727229
-3.57522
8.53388
8.70003
-1.6161
-10.086
-9.36356
-6.56626
-2.50209
-2.71478
-1.6434
10.8521
8.86983
1.39277
-6.00718
9.20143
21.2889
-2.28346
-14.631
-21.8679
-19.344
4.38217
24.3838
24.1332
20.8293
22.0479
25.9919
15.7405
-11.6542
-25.8383
-26.0872
-13.6048
-8.85925
-7.88094
-19.2128
-31.3381
-20.9222
3.21953
7.23061
8.98406
30.2933
41.0049
23.2436
10.2901
-13.4445
-38.6912
-38.5638
-20.4186
-1.03526
9.00305
11.3223
-0.686606
-2.67463
-3.53012
-0.257161
3.95564
9.33887
18.3716
11.9922
-0.250343
-5.81854
-13.062
-5.33763
1.3145
9.28698
19.2041
14.134
-2.3389
1.58408
4.94431
10.9296
12.4652
0.208902
3.18242
16.0468
2.68593
-18.375
-24.3475
-20.5432
-7.87449
-1.47828
2.78965
-0.370688
-1.75079
-1.03358
-6.30532
-3.75637
3.05191
-3.25472e-05
2.00189
-0.118688
-4.0317
3.3839
-1.73902
-12.4186
-8.05927
0.401337
1.27582
2.76236
5.37108
8.53078
15.0597
-4.44498
-11.445
-5.49776
4.66503
5.53687
-0.684678
1.83459
5.92368
-4.74896
-4.94427
-1.36893
5.32487
12.8167
23.5233
15.9044
-7.66054
-14.1948
-9.69673
-10.3139
-10.9563
-5.77453
-10.8638
-2.78543
2.15947
3.8862
10.6867
16.275
14.0421
4.17461
-6.11535
-4.57295
-0.121719
-7.08104
-20.3268
-23.6922
-1.29199
25.4446
27.0649
5.1148
-12.4138
-11.1034
6.833
9.34612
6.24628
-0.453902
-8.3169
-7.42051
-3.95863
-1.42662
-2.11087
-6.50576
-11.4015
-8.87222
0.160228
13.7816
23.783
11.7828
-14.2009
-11.8285
-4.5023
4.88372
0.325271
-4.24629
-1.1495
6.87408
15.9866
5.53272
7.96136
16.287
2.56287
-8.69423
-8.57139
-2.46339
-6.62785
-2.6401
0.817933
-11.8178
-6.53395
-1.03063
0.196434
7.47142
-4.59982
-9.98083
-8.85109
-8.27468
-7.2061
-4.16786
-8.92861
1.9218
27.3848
18.3269
-10.0094
-14.201
-1.10574
-0.151758
-9.76443
-3.66343
2.77989
11.4984
29.2697
50.0799
54.0341
23.1843
-0.573869
-14.0966
-17.4627
-10.5209
-25.6966
-38.9739
-35.1747
-17.5298
2.6425
2.80135
-2.22926
-6.2888
-12.6445
-12.6595
-5.05836
-0.138801
4.35292
0.117206
-2.27815
15.5282
20.2655
9.33553
0.852608
-5.45274
-1.68629
3.68308
8.13533
17.3544
19.235
10.2386
-1.44325
-6.83131
-2.75106
0.0382078
2.59289
1.52931
-4.35183
-19.573
-23.5729
-14.7557
-3.54108
6.16044
14.2105
14.8391
12.8231
15.5973
15.5354
-1.24343
-3.62011
-10.9397
-7.96087
6.62799
14.0755
4.73394
-2.20347
-3.84942
-23.081
-24.0721
-11.0381
-8.17043
-4.01749
-0.0423431
1.94612
0.854261
2.68617
16.1321
24.9082
11.861
-5.20349
-12.4076
-6.78871
-5.99698
-12.5014
-7.02447
-3.64335
-5.09179
-5.5235
2.15964
14.7617
9.33729
9.32843
15.303
3.54061
-10.3411
-9.98435
-9.06454
-13.4584
-5.48274
-2.76907
10.1866
26.6267
25.3676
13.826
4.20225
-4.40727
4.53414
0.863769
-16.7164
-21.1122
-17.1095
-13.3448
-9.86158
1.46741
28.7265
23.0176
-10.9953
-21.6252
-11.7571
5.52228
7.83652
-10.62
-16.3376
-8.16265
5.57061
20.4816
14.6845
13.313
14.0524
5.422
6.54819
5.05092
0.206954
-7.39909
-14.6908
-12.2314
0.732208
0.269218
-4.21518
-8.61396
-1.9998
-2.32746
-3.15276
3.93375
19.8884
21.7999
1.80962
-4.60099
-2.36585
-3.49566
-11.6811
-13.3565
-14.5707
-11.2016
-7.34331
-2.5137
-4.64794
-8.77319
-8.96558
3.37146
5.32444
5.94546
14.601
27.1469
24.9597
21.0583
0.574282
-12.5384
-7.58923
-4.75573
8.75393
4.7634
-0.889583
0.855823
-10.5635
-7.10697
3.62757
2.16186
4.05676
0.673111
-1.95568
5.05501
-9.76833
-25.8849
-33.4755
-28.0971
-9.27328
3.55093
10.7668
17.0097
8.23492
-5.9352
-3.1339
0.239856
13.605
22.0849
17.6397
22.6888
33.5469
4.04149
-11.3594
-11.4373
-5.32544
-6.0704
-12.9364
-18.4552
-11.1594
-3.8631
-11.6781
0.426106
15.2415
33.2533
33.2046
13.497
0.571856
-7.88355
-16.0712
-29.1795
-29.015
-8.37501
-5.53587
-8.96207
0.0640252
5.39857
3.01291
-4.36995
1.76007
8.33847
12.2949
3.55539
0.765767
2.92634
-6.46419
-17.179
-14.0718
-12.4319
-6.02949
-1.6728
1.10017
18.1784
27.2632
21.2752
20.9723
26.7442
28.6093
5.45183
-11.772
-20.6422
-24.0787
-21.882
-24.073
-18.2448
-3.21047
17.0388
15.6839
1.54202
-2.27517
5.12055
1.51591
0.592431
5.58208
12.5053
-2.68581
-23.4659
-25.2465
-0.998957
5.60277
0.822972
5.0959
5.30253
11.7297
12.0055
5.61932
2.49252
-3.19395
-7.7613
-3.08035
-3.12932
0.224127
-7.43112
-14.5246
-7.61378
-4.79967
-8.09821
-2.92823
8.41667
13.3163
14.3405
19.9572
22.3991
7.68965
-13.507
-8.21247
-3.51999
-3.59138
-6.81168
-10.2441
-9.4393
-1.70552
3.6416
-0.306853
-7.73562
-7.14538
-6.07779
-11.219
1.1643
23.6278
22.6432
11.6462
-6.22976
-3.0243
21.3746
16.5324
-2.72821
-0.993436
16.2185
17.1774
-4.35299
-23.1809
-19.2846
-10.991
-10.8386
-4.62105
4.4476
-3.16159
-23.0063
-25.8867
-15.4353
-6.41286
-0.460375
4.744
5.04001
9.38934
6.32688
0.136543
-8.52871
-1.05245
8.58001
11.6577
8.48025
2.92929
1.0458
8.26374
10.4253
9.82712
9.80391
5.18946
12.4508
22.9617
26.595
3.13044
-19.007
-33.8504
-24.7013
-13.8492
-4.07816
-7.03737
-1.08646
-2.62133
-0.0362912
14.9275
25.6391
17.1186
6.78317
1.52295
-0.88682
-8.61737
0.220177
1.53964
-15.3302
-9.68738
-8.94333
-12.2679
0.765583
4.26302
-1.30148
-3.56809
-10.001
-14.6398
-17.6641
-22.5238
-24.0016
-7.38859
2.379
7.82778
10.0533
12.4162
8.96127
7.54041
16.522
20.3368
17.0666
14.0597
18.6529
10.7208
2.19553
-1.32539
-0.486909
4.81234
9.41432
11.5181
-12.7862
-30.2131
-18.8889
-3.69309
-3.18253
-5.11588
-1.98642
-6.27649
-4.57163
5.1384
11.3642
14.7823
2.11548
7.25812
21.4043
7.80546
-12.8905
-19.7901
-23.4588
-16.4062
0.730627
7.16923
0.308654
-10.8906
-9.48573
-7.03467
-6.41639
-2.08744
6.92654
9.47908
2.61624
-0.289643
9.43443
2.40823
-2.27369
0.645472
7.6307
8.66743
5.61356
4.88205
8.96444
7.75204
7.91128
0.73121
-6.8258
-10.0382
-10.0883
-8.77377
-12.2786
-14.5859
-7.65959
-6.36858
-5.57077
11.2404
12.2844
5.13531
3.56898
8.25151
14.291
3.60225
-2.07086
4.94466
2.7813
1.9587
0.42402
1.76266
8.98185
8.95973
-5.76756
-16.2683
-3.5906
24.5414
30.7602
9.46762
-14.2267
-12.6552
-4.91486
-14.7762
-28.2991
-24.4248
-22.0776
-17.4434
-9.78505
-0.488486
10.164
8.75551
2.63189
3.5582
8.30197
5.45209
-6.37256
-9.47227
-4.82765
3.93534
-0.61534
-5.53732
1.93113
22.9098
27.7332
18.8411
8.57968
-6.90901
-7.7055
11.9974
18.6975
13.7013
3.54846
-0.476425
12.8578
17.9874
2.44373
-12.8976
-28.7124
-24.0668
-10.0119
-3.58306
-7.52403
-8.27917
-5.9916
-9.9391
-11.9926
-2.75783
-5.3264
-5.73715
6.80542
10.0044
4.26825
2.71913
-10.64
-10.51
1.14746
2.6199
-1.14402
-7.30112
0.117733
10.4234
0.728231
2.0213
12.1912
16.9417
16.0285
31.6753
35.8666
4.09931
-21.1055
-27.1534
-10.0809
14.015
23.166
1.98094
-11.9995
-12.8944
-9.84667
-3.50111
-12.4947
-10.6475
-4.89164
-10.7393
-14.8794
-12.5969
-6.06677
-7.66018
-4.67898
-6.93034
-1.00437
11.6695
10.839
-2.24558
-7.91662
4.04884
23.7351
21.0361
20.5875
26.3969
21.9049
2.47617
-8.58144
-8.43341
-6.5104
-4.31998
-4.52997
-12.0232
-17.2819
-9.16562
-10.5403
-3.3692
-0.720904
-11.8421
-4.38457
9.31055
18.0704
9.79693
-6.91729
-12.6247
-3.18678
11.6925
9.58102
0.300342
-5.81871
2.03052
3.16472
-2.7131
5.9069
21.9506
27.0416
29.9838
13.0702
-11.2539
-29.1405
-32.44
-37.8241
-21.9244
-3.28721
-1.9188
11.5648
6.8863
0.164259
-5.84698
-4.41231
8.4695
24.836
21.0715
3.1514
-8.40477
-12.4858
-12.0518
-7.7249
10.4105
10.3955
-3.41711
-7.55915
-6.56845
-2.98011
1.32692
-1.50523
6.61587
10.044
-3.81778
-7.05872
-12.7497
-13.8804
-9.31959
-1.15367
8.9367
11.4674
9.55507
4.75124
5.65089
14.3381
16.1247
11.4392
8.35077
5.6199
10.5744
16.1329
-6.98871
-17.5286
-5.04715
-4.95197
-12.282
-14.2226
-12.3536
-8.79245
-4.26275
1.47521
8.45822
5.14896
0.0477143
-3.48072
-1.63502
-2.03118
-7.95974
-9.7844
-7.85813
-14.9025
-5.29744
9.95562
14.8896
26.4097
29.1343
15.792
-1.83824
-11.4242
-17.4258
-20.5349
-25.4381
-14.6889
-4.66902
-2.23219
4.84367
22.7094
26.8779
11.6627
-0.897886
-1.91533
4.01015
5.16578
-0.242932
-12.9501
-16.5539
-11.2839
-3.6033
4.42216
8.06643
10.1404
0.354573
-2.83179
5.13254
11.815
8.14518
-3.07295
-1.4531
6.16379
-1.53995
-5.08236
-3.96781
-2.24906
-6.75411
-12.6173
-11.5637
-4.23747
6.84686
19.685
18.8477
3.90479
-8.0995
-1.01234
9.35447
6.46759
-0.235144
-13.1508
-14.6047
-8.22691
-6.7684
-10.2516
-3.65643
15.7971
31.8443
14.9635
-3.32338
-6.69428
-4.78553
-10.8876
-23.4918
-23.1163
-9.0297
1.95975
3.66945
-0.0967309
4.17924
11.0781
8.60588
3.2604
2.85369
3.29833
0.18208
-12.4441
-18.2458
-5.0948
4.40363
6.7807
2.60651
3.31628
12.1243
19.1555
21.9615
6.09114
-5.76151
-1.91349
3.16923
2.99938
-0.696937
-6.51738
-2.73755
1.48917
3.26996
0.00238205
-3.98813
3.23162
5.17087
-3.93516
-3.48637
-5.67308
-11.8947
-16.2423
-13.226
-1.30687
6.82557
6.97734
6.65036
1.89264
-5.52851
-10.1256
-9.1986
0.328533
12.5381
15.8736
-7.4349
-6.9555
19.1799
22.2258
1.35426
-9.66431
-7.65119
-1.12264
-2.61321
-15.0474
-14.275
-2.19199
-1.27105
0.342063
4.77058
8.31583
15.882
11.6428
-6.81627
-12.3072
-10.352
-13.2682
-15.859
-2.41614
3.75676
-4.28046
-5.69891
-2.54111
6.78334
18.7843
24.3356
39.7428
31.8438
2.1176
-7.66741
-9.24457
-14.1938
-15.276
-11.9807
-6.71361
3.65617
-0.409351
0.0391945
5.08597
-3.4985
-16.514
-17.6506
-10.6578
-1.86031
8.42882
2.68729
-6.83876
-9.22887
-1.72221
4.59335
10.5202
11.6692
22.5408
23.5122
5.3925
5.84398
0.608525
-22.7958
-28.0808
-10.1354
16.5107
16.9348
12.7886
4.11353
-2.99804
-7.79677
-16.4161
-7.3254
9.76769
4.90592
1.19142
-3.17615
-10.1334
-10.9527
-5.91345
-2.13712
1.39937
-9.32173
-18.1559
-15.2105
2.88926
38.9132
53.2777
33.9207
6.09399
-9.37712
-23.7675
-21.6797
-16.7621
-9.33374
-7.97833
-7.42168
-8.99663
-2.82942
5.691
-8.4552
-7.32899
0.71262
3.89241
12.6033
11.3067
-8.88394
-14.1689
-0.89675
-1.37307
-1.95385
5.64072
5.12612
7.39353
21.1254
34.9319
30.4892
13.91
-12.291
-15.4274
-2.10154
3.37287
3.21433
-0.743676
1.96623
-0.902219
-16.3078
-22.6612
-19.1585
-2.64449
6.81127
5.19494
8.49868
5.80985
-8.9209
-17.6191
-15.0852
-8.37413
-3.31078
0.37479
7.81693
4.18192
2.35654
0.210648
-5.2678
-5.21805
2.646
-5.19088
-7.41713
1.6603
9.5377
-5.96876
-18.8474
-14.2839
2.57649
13.5227
23.0337
31.6459
37.2386
19.7589
0.0872985
-2.6889
1.86872
3.62615
-4.81756
-16.2488
-14.9699
-13.3717
-8.30481
-5.27153
-11.0891
2.95644
16.2548
30.5208
30.3844
4.0648
-6.27248
-9.39294
-22.9845
-22.135
-18.0988
-16.9591
-11.972
-2.18806
5.30156
0.965995
-13.4085
-16.2895
-13.623
-8.09907
2.35253
19.5301
33.4498
10.6199
-15.7069
-9.08524
-3.69516
-1.03643
7.02213
10.7964
9.78846
10.5008
8.98145
0.300703
-4.42875
9.32151
22.191
18.7849
11.1192
5.88381
10.6764
-0.318101
-22.7962
-20.3368
-7.00666
-3.56962
-9.37242
-9.47049
-0.799762
2.55123
15.1756
14.268
4.27256
0.223801
-6.98375
-7.64803
-4.69292
-11.7384
-13.4906
-12.3221
-9.18342
-3.21939
1.83571
3.51382
8.53121
-0.927209
0.992033
-1.06094
-7.24295
-10.8145
-8.23594
-0.820262
2.03476
7.39539
1.81052
-1.71985
-4.43386
-4.73489
0.740184
12.1879
6.41701
3.39615
9.73743
11.2408
18.3245
36.6842
21.9034
-1.15589
-5.44577
-3.49374
-0.787779
10.3707
-0.61101
-19.1509
-16.1391
-12.7485
-10.0621
-3.0606
-0.969131
-2.28914
-16.4006
-18.4234
-17.0146
-10.8118
-9.04493
-7.79144
0.48439
13.7607
14.7595
15.5906
7.1764
-8.53157
-7.61122
1.13983
7.21837
14.3578
9.40924
7.26768
6.25919
-0.510098
4.00396
10.8085
12.8948
7.50394
-4.23968
-17.0096
-16.4781
-8.63514
-6.14885
-10.5992
-14.3953
-12.486
-2.69484
5.24441
1.64208
0.392836
11.4223
25.776
29.8099
12.6005
5.88649
8.96171
5.19942
6.02106
8.93483
-0.935718
-16.2848
-18.7168
-9.01782
-0.793797
-15.3107
-25.1742
-24.5901
-15.2508
1.09673
3.94968
0.893201
1.45684
1.14269
-0.536936
-2.98917
-2.48433
1.6389
-3.49613
-2.98257
9.47812
2.13189
4.92939
13.4765
24.4069
45.0169
31.2187
11.4238
7.52031
-6.88843
-20.8491
-18.8192
-19.217
-22.7112
-18.9022
-11.9568
-3.26361
7.70783
5.57301
-2.74272
4.96527
10.574
-1.16068
-15.5277
-21.6277
-21.6445
-10.877
8.14549
9.39974
15.0271
15.7742
8.22492
5.37434
5.80202
14.0578
21.9912
19.2249
-2.90622
-7.15204
-8.9816
-9.03621
-2.13929
-3.29076
-4.81861
-4.02494
-11.504
-7.60664
2.04676
6.74418
8.6043
5.9344
-2.08674
-4.99436
-18.1512
-18.3802
-11.4603
-7.45092
10.7719
24.1805
27.6382
26.4737
10.6503
-8.32931
-15.9265
-11.2786
-1.14842
-5.15218
-15.0157
-14.1643
-8.5626
-4.1535
-5.66403
4.54959
15.374
15.1989
8.41088
-0.785044
-4.46828
-10.74
-14.165
-10.4546
-2.12559
10.4209
18.3858
27.552
24.4693
5.05199
-12.6494
-12.5032
-6.9308
-2.95468
-1.09803
-11.3789
-6.96966
1.28182
-6.39406
-2.91558
-2.81072
-4.11156
-2.95766
-5.91699
-4.01777
1.0481
10.3605
-4.26709
-12.6327
0.963982
12.8332
16.1896
16.8129
15.4456
19.236
15.4377
-0.66838
-12.5484
-1.20704
-1.25793
-11.3556
-16.0086
-14.9964
-6.89978
10.347
21.0761
20.8864
-2.25939
-19.6463
-27.0642
-19.8227
-20.254
-24.7683
-16.7933
8.96123
30.2014
30.5581
15.9458
7.67777
11.4383
15.522
-3.42811
-7.12544
-11.0013
-13.0409
-9.5484
-10.6756
-0.841053
10.7872
4.84001
3.8547
4.57326
5.52569
2.44389
-17.8402
-24.4788
-9.16129
2.76004
7.58516
5.70884
10.8866
18.7242
11.3679
6.5071
3.5535
0.382454
-4.38244
-10.7003
-8.59853
3.1184
5.77406
0.542894
-3.09164
-1.33593
-0.180148
-10.9255
-13.3213
-6.62991
1.66974
3.98333
-1.11976
4.68714
10.0153
-4.15608
-8.33789
-4.7113
-5.04126
-11.1896
-5.20355
14.2608
33.208
38.9214
27.788
5.88749
-8.01053
-1.80932
4.28952
-10.5502
-26.9233
-26.7749
-24.4161
-16.4631
-7.59811
0.571491
5.32467
13.1867
15.1794
18.7293
3.34872
-11.4565
-21.5897
-24.5283
-14.1163
-0.23266
10.2179
4.61167
0.0870589
10.4677
17.8101
2.95229
-2.90574
-3.99707
-1.79986
9.00368
10.1018
7.04208
6.24906
-13.4352
-14.1435
-7.76209
-11.6743
-4.93755
19.95
50.3002
53.3876
15.6322
-8.74356
-9.59612
-7.76939
-5.89814
-2.48843
4.14501
-5.53496
-19.7557
-29.4523
-35.3119
-29.8088
-6.2334
11.6251
24.4661
10.9305
-8.78437
-24.7585
-41.9069
-38.7871
-14.6522
1.73856
17.7165
21.7366
28.0456
21.4394
8.97737
9.69515
16.648
21.4875
26.0823
21.8478
16.7045
4.58839
-7.39604
-6.27214
-1.37714
-4.1013
-9.28061
-4.30138
3.04615
-4.05783
-12.987
-11.8795
-5.71852
1.81121
2.39784
-0.896992
-6.57794
-7.73797
-4.13298
-4.08868
3.39955
3.90884
-6.82813
-14.5291
-14.7055
-11.3646
-2.52087
-6.85095
4.88564
6.97784
3.30252
-3.1644
-5.31496
2.14457
18.8033
22.4465
14.5753
5.94953
-3.49957
0.18081
9.09494
3.70721
0.519864
-5.916
-10.808
-7.75582
-6.89457
-5.85879
-0.641714
18.4598
20.9596
20.2234
5.76532
-11.2782
-17.4783
-13.5023
-6.99318
-9.7738
-13.5926
-12.8518
-9.82389
-11.8951
-14.6576
-4.49434
7.995
11.4253
8.55294
5.71189
-0.206705
-20.819
-13.792
6.454
30.9478
50.7881
42.2088
32.8498
21.629
3.12158
-6.09745
-13.4624
-15.8175
-9.72302
-8.97314
-3.64625
1.10698
-13.6468
-27.3252
-24.54
-17.3162
-4.19588
-6.71303
-7.99322
-13.1841
-13.9905
-19.0228
-23.0834
-10.4869
11.7394
25.0707
31.4943
22.9135
19.425
22.6753
15.3417
3.74847
4.70304
5.73804
2.61603
-4.74941
-9.55849
-4.14121
-2.03351
-7.15546
-11.0051
-7.96717
-4.55195
-0.245745
6.83484
8.73209
5.35383
-3.00229
-2.69963
-3.16267
1.62753
3.88169
3.45125
2.85685
-3.5536
-11.7766
-7.53758
-11.5284
-12.4831
-3.89564
0.759053
10.675
22.5782
26.712
17.027
-2.21571
-7.02232
-7.59164
-8.52632
-3.88004
3.38831
7.81879
6.73322
-6.19144
-13.0922
-11.3746
-14.5532
-9.24871
0.630661
11.2985
13.5663
15.6965
9.30063
-13.8814
-14.8465
-12.2719
-13.9328
-10.0267
-0.933682
-11.7837
-17.9619
-13.1101
5.45771
24.638
27.3455
27.6953
30.3181
8.73924
-13.7967
-15.8596
-2.41223
0.120465
-9.67466
-9.02526
-9.54561
-0.932506
5.89036
6.15617
6.89434
9.48027
8.9741
3.09837
-6.01362
-4.42245
-3.93815
-8.2738
-4.8689
7.59369
14.625
6.0455
-5.09785
-9.05074
-7.90047
-3.36576
0.712513
-0.67341
-1.52285
3.76385
0.529962
5.69512
9.54558
7.29416
-3.84441
-9.56677
-5.54138
0.67519
-1.84735
-3.48959
1.29479
6.77515
-4.00905
-18.3797
-14.4899
-9.16909
-8.85071
1.27074
16.4769
30.726
17.0817
6.80751
-6.34831
-22.1773
-9.22853
5.81504
21.254
16.2157
-12.8857
-10.3723
10.654
9.93245
-0.422314
1.40279
-1.05169
0.315022
-8.94094
-8.30795
-4.34349
-9.81228
-11.3482
-12.5232
-12.4567
-2.47461
-8.51405
-10.8667
-12.1233
-3.4525
22.7753
27.0595
5.66726
-4.55465
10.5027
7.91155
11.637
16.7955
22.4411
11.5358
-3.28539
-11.6134
-10.9407
-9.14534
-4.209
-3.99957
-12.6368
-14.2743
-10.2097
-2.51117
1.44379
0.214885
8.6855
9.96516
11.202
26.9305
21.7037
3.475
-5.17578
-2.8124
6.72201
2.38247
-7.71182
-7.91613
-6.39037
-9.50124
-5.65995
-6.38769
-3.55148
-8.30252
-7.95673
0.711531
-12.5685
-15.0353
-14.096
-17.3432
-9.1293
3.85689
6.14959
-7.80565
-6.28766
6.35075
19.0592
12.9445
5.22655
8.34393
24.1461
25.9926
8.43015
-4.69449
-9.92301
-11.1206
-3.75802
3.15651
8.49374
17.2659
24.3512
7.61008
-13.4162
-8.95686
-16.3287
-17.9407
1.6526
-0.989822
-8.47376
-4.76865
-7.68237
-0.0634027
15.7205
14.5946
7.05212
-6.80156
-6.80046
-3.24422
0.837881
-4.79576
-13.2422
-8.23018
2.23096
2.58865
3.52675
1.5043
-6.44781
0.983292
6.75837
3.67059
-1.06832
-0.882838
-10.4756
-15.2676
-4.18034
6.22057
9.76219
3.55487
-5.49802
-6.01771
2.50804
18.1441
23.5134
28.0426
9.44984
-3.05889
-7.46459
-6.16483
2.13713
2.28897
-12.0165
-28.4356
-22.9685
-7.1702
-3.37959
-2.88404
-0.491136
12.0122
15.6831
2.51587
-0.640367
-5.89729
-4.00451
0.937511
22.2834
44.035
25.13
-1.93252
-12.3395
-20.7347
-19.7825
-7.63878
-5.90899
-1.3976
-4.29819
-9.47624
-5.97914
-6.67345
-17.3991
-20.0952
-12.1907
-0.045154
6.03307
1.96626
0.404519
-9.1427
-6.95906
4.63568
8.7197
16.5001
21.2612
20.3067
13.0167
11.6695
17.5354
14.6247
5.10385
-1.75101
5.01399
16.263
-5.4748
-15.1502
-8.75232
-5.89432
-7.18793
1.10777
4.61713
-2.69215
-14.2975
-24.6678
-17.0489
-10.8549
-2.6416
7.24503
20.0182
16.6075
10.6582
0.848242
-11.7486
-9.81624
-3.97575
-1.58947
1.61884
-4.63694
-12.6786
-28.632
-25.7384
-9.42034
5.94677
30.3126
45.0412
37.3814
26.4159
-5.87711
-20.1104
-16.3848
-13.8801
-13.0591
-5.9616
-0.794768
7.66789
10.3861
4.12764
-0.402273
-3.4951
-2.9623
4.05133
5.92161
-6.41192
-19.2093
-29.7089
-23.0624
-14.9909
4.29507
9.44136
12.167
15.5041
18.9496
18.044
20.6982
18.0474
11.8803
10.9944
4.59037
3.0106
2.23467
-2.09358
4.51954
8.12357
-6.12253
-16.659
-20.7012
-11.0543
0.62765
-13.2167
-10.4472
-7.32852
-9.01804
-4.75331
-8.17654
-9.8969
-3.75109
-2.50013
-5.35906
-0.910023
17.9486
23.8639
0.207701
-4.09126
2.36231
10.656
4.06168
-12.8722
-12.6573
-9.08493
-9.12319
-7.38294
5.31311
22.8514
24.3846
4.37069
-10.7963
14.2194
30.8239
15.2137
-4.68188
-14.7358
-6.89983
-4.75439
-9.77807
-8.5833
-2.44958
-0.748964
-4.55539
1.30151
7.49217
10.179
-5.23541
-15.3713
-14.7033
1.3943
4.70307
-8.9049
-11.6149
-11.6851
-18.0352
-8.40006
4.02993
13.4613
21.0424
19.4249
16.5422
12.8728
12.0692
26.9845
10.3734
-8.33878
-7.64858
-7.11526
-9.14306
-8.62153
-3.12662
-6.08934
-2.22424
2.67735
3.02186
-2.99718
-8.78525
-8.28485
-3.57442
-23.2644
-26.7476
-14.9048
-1.61884
-2.03611
3.19629
11.8735
1.02116
-9.87225
3.68417
22.0609
19.4889
16.0565
12.1535
4.01271
7.40719
5.96137
4.5918
0.862293
-2.5911
3.33962
5.30458
10.9678
-0.149675
-14.4162
-14.2782
-10.1741
2.90682
8.85779
3.06968
-6.12835
-10.4514
-5.47065
-14.9748
-8.10255
-1.30135
6.67091
19.7634
18.1344
-1.51032
-9.87336
-6.04921
-7.37137
-16.0605
-10.2019
-4.72978
-7.96789
-8.55314
0.920535
6.71894
9.67572
10.4983
8.14931
24.9985
19.901
6.05581
0.25321
-11.2744
-16.0168
-6.84777
-3.63836
-6.20515
-9.13861
-3.07423
-1.16226
-2.11501
0.0117805
4.88312
-5.88909
-6.74488
4.02397
35.7019
38.2014
-5.31847
-5.70224
6.35559
-9.23473
-12
-10.0543
-6.66074
-1.65873
-0.793501
-2.73702
-3.14587
-13.0913
-4.16586
1.2926
4.90989
11.1178
11.2232
5.53143
-16.7663
-27.3541
-21.8982
-9.98612
4.76627
19.6535
16.4198
11.0075
7.67632
8.33467
0.93425
-3.20894
-9.7894
-5.25098
-5.78684
-4.71111
8.03012
16.2524
8.57965
6.24634
2.66432
4.16004
18.6856
6.51979
-12.1139
-12.5819
-4.10962
-5.71023
-8.16978
-5.27598
3.48227
7.39391
7.76082
6.48305
10.6466
3.36833
-4.59406
-6.78748
-4.97434
-9.56948
-15.6333
-19.7268
-15.5618
-11.7391
-5.82481
0.362834
-0.162652
0.619557
7.96002
10.1886
3.91894
2.1719
1.91749
5.12454
3.06469
3.33215
4.30295
3.20945
2.42703
3.5218
0.878838
-2.45405
-1.92869
-1.2932
3.47339
15.5607
22.6504
11.895
-2.83185
-10.2936
-10.7524
-9.71403
2.92821
11.8482
20.8727
15.3234
-9.52969
-22.7704
-23.2066
-22.265
-16.2105
-11.0784
-1.06914
-5.55461
-8.72664
-0.930164
7.18604
20.6842
26.9711
10.7141
4.05831
1.73081
-15.5387
-12.9752
-12.7631
-9.11575
5.65694
17.081
20.53
10.9446
4.62094
-8.15209
-3.95093
25.177
27.2119
-4.67401
-26.1074
-21.9025
-22.766
-13.7112
-9.93225
-9.80763
4.2987
4.77659
-3.04583
-1.1587
7.92472
16.2862
20.2572
5.39312
3.3703
10.8091
12.553
-1.14662
-7.9477
0.11311
7.74457
-5.06098
-5.34335
-1.32694
2.84013
-0.543478
-3.04282
-6.42141
-5.23992
-1.06976
8.89958
-1.65482
-17.8604
-12.1851
-9.34256
-8.48551
-11.3719
-11.5595
-11.4492
-1.22774
13.4927
20.4078
16.6534
9.18113
4.54011
-1.21556
8.98569
8.69056
24.1969
20.465
-1.74424
-10.3853
-10.2102
-4.9399
-4.75778
-12.0382
-15.5838
-17.9316
-14.2897
-9.21174
-14.8282
-9.92175
-6.36249
4.32946
32.1545
32.6711
11.4632
3.97867
-9.43019
-8.71804
-10.8128
-7.19909
0.877362
8.16008
10.3227
10.4994
8.44727
9.86815
11.7914
4.84115
-3.55351
-9.91988
-8.7564
-1.78011
-14.2189
-15.0173
-0.546149
9.31133
-0.101237
-1.33949
5.40567
4.75634
4.89853
8.77879
8.29336
13.0098
10.9698
-11.0594
-13.9286
-9.48252
-6.10101
-2.79053
0.274417
5.41644
9.92569
7.10109
-7.03367
-13.077
-14.8919
-12.8475
-10.7068
-4.46307
3.34844
3.53463
-2.19826
-9.02666
-2.18733
22.3294
23.4345
5.43208
11.7048
20.574
-3.03688
-25.5569
-40.018
-23.3903
-4.86551
1.57379
6.9206
3.831
-0.600823
-0.714883
-2.80676
-1.13126
14.4116
25.8705
18.1866
13.6074
11.2697
-1.77171
-13.7681
-20.1263
-7.47942
0.761685
4.73048
8.83316
7.7974
0.891516
-6.23308
-4.02973
-3.88639
-0.196986
8.06759
21.2305
23.5755
-4.49502
-17.5705
-22.1642
-12.4959
20.0162
32.0396
8.97308
-4.27665
-4.44515
-9.77107
-21.4131
-24.1341
-17.2976
-10.1063
-10.3896
-6.55592
0.665018
-0.0909069
-12.6093
-12.4447
2.82139
15.7673
12.3861
-3.3477
-10.741
-21.7766
-7.38192
12.5384
23.404
25.7778
29.5162
32.0703
41.5684
48.1902
27.5474
-4.52865
-25.0974
-27.606
-26.7579
-29.2827
-19.0112
-7.27797
-11.5997
-6.67404
-8.10124
-11.9745
-8.15595
-3.46563
-5.7962
-3.61369
-8.30694
-7.39447
-15.7706
-20.6519
-9.61818
14.7152
34.0599
33.1247
24.2227
16.1129
8.10154
-1.85386
-1.04014
-2.08409
2.23823
1.67178
-2.13673
-4.59036
-5.95726
-1.57572
8.80971
7.76543
1.55095
-14.2651
-13.332
2.05937
6.49592
5.74869
9.70247
3.38702
1.19889
2.68343
-2.50064
-1.18957
-3.81009
-5.60769
-4.26866
-4.17207
-7.33628
-8.34066
-5.33306
-9.59442
-13.445
-1.15302
3.99484
4.8599
-2.91655
-10.1993
-12.506
-4.69496
9.42754
16.2036
20.001
6.74171
1.69226
4.05381
-5.14794
-9.17524
0.373896
3.67599
14.8293
18.9605
9.83499
11.9519
25.3759
15.0395
0.793134
-9.50241
-18.1241
-17.6421
-19.1862
-19.4059
-24.3005
-17.1145
-20.1441
-15.7231
-8.90721
-4.89212
6.8856
12.4711
5.36747
2.50937
6.76269
0.780594
12.8781
41.0682
52.5678
50.9697
19.8969
-20.8894
-32.8087
-20.4619
-20.3625
-16.8625
-8.75428
-7.00857
-5.47794
-1.69686
-2.35478
-5.08781
2.44126
-2.45689
1.02941
8.24235
2.72831
-6.84738
-11.1144
-8.21182
-7.16517
-1.62875
7.39861
3.45313
0.90801
1.10303
10.465
22.0018
10.4188
0.413826
4.3251
13.9434
11.1171
4.96755
2.63778
6.207
-9.4581
-11.5976
1.17547
-1.45525
-14.1918
-9.09489
-7.89963
-8.51269
-2.88828
-11.4026
-18.9041
-16.9316
-7.80307
-5.00511
-3.25918
-0.626358
22.874
35.7732
2.98994
-12.4418
-3.80557
-3.31166
-18.0135
-21.3225
1.32754
17.8234
12.7524
14.7918
13.1817
17.3141
19.9774
16.4306
14.5361
17.7949
-3.64882
-11.6305
-19.0653
-16.5665
1.47121
7.45788
5.77178
-0.175348
-0.452349
-14.1006
-17.7449
-12.7412
-4.65348
-4.78575
-6.26456
0.48238
3.30056
-8.93786
-5.86403
-2.525
0.812796
0.682515
8.05272
21.5255
24.1605
7.78272
-16.2132
-12.6347
-3.8901
-9.37044
-18.9994
-14.2947
-5.92245
1.17045
7.79656
2.23232
-3.74095
-7.09979
-6.78195
-0.679698
10.5635
14.6756
12.0599
0.979431
-1.96227
8.08218
36.6918
45.3549
19.399
13.4594
16.9756
17.379
-3.3066
-26.1704
-30.1335
-22.7177
-12.148
-4.17716
-11.5049
-17.0697
-16.0997
-25.4133
-28.5366
-21.3814
-3.55381
2.36384
0.817397
-6.37622
-13.5056
-5.28356
6.21627
7.76115
14.8226
27.4944
16.8104
5.84533
7.61253
10.3641
15.98
16.5
13.4621
9.76301
11.4743
11.6643
-10.5122
-20.0056
-12.156
-13.5771
-7.92355
-4.38644
-1.63133
0.443314
11.7223
10.363
12.0059
11.3481
2.55566
-1.35287
4.74424
4.80137
6.46689
0.0249175
-17.9787
-22.0309
-12.3103
-4.568
-10.0369
-15.7221
-6.37772
-5.51677
-4.59239
-3.63402
-1.85181
11.8221
17.7751
3.3864
-3.25528
-12.447
-22.6413
-18.7784
-10.5117
2.73879
11.147
7.59319
12.6011
15.5804
4.68309
5.62497
9.46699
12.4857
6.5123
-1.85317
-4.73463
-9.45137
-14.1884
-0.556448
-0.832592
5.18072
11.712
24.6184
48.9067
51.0624
15.0299
-12.5108
-18.756
-16.0623
-9.97442
-10.1544
-12.8381
-12.8849
-18.4562
-20.7078
-26.1718
-25.8779
-14.2065
1.17017
9.07777
14.7254
6.98587
-1.05623
-25.0834
-31.8847
-13.4288
1.252
14.9874
21.4472
6.21231
1.97794
