-409.798
-126.109
-232.16
91.5251
510.315
167.635
-767.821
-240.415
349.832
76.8153
-598.983
-504.212
8.384
46.779
-293.67
-531.647
484.422
1367.14
894.234
385.396
1022.89
869.893
-44.8584
-893.49
-1418.12
-774.934
114.636
58.0498
-250.863
72.2761
218.133
-123.365
-136.779
-53.8838
-12.8667
180.572
-123.315
-508.633
-728.329
-386.416
-26.0411
617.152
359.293
166.958
267.154
220.297
347.945
270.08
-120.557
-343.608
-107.606
189.924
295.121
531.601
292.404
67.0438
94.0745
150.392
-66.7064
-302.273
-668.966
-1051.45
-641.326
-223.265
70.0416
633.185
966.827
778.525
189.316
-526.211
-317.871
134.629
-428.509
-455.299
578.02
457.268
-748.683
-711.204
-24.2653
569.768
261.889
4.34572
521.203
379.683
-5.34972
-120.558
-265.423
-940.434
-835.043
-136.928
-32.3631
268.056
1254.42
686.196
-596.83
-198.574
550.215
52.2486
-268.024
-278.768
-207.038
-259.422
-72.1553
243.263
115.562
-169.978
-29.2059
289.018
220.776
206.295
268.374
398.691
62.2692
-420.143
154.096
-122.522
-1059.99
-372.619
808.468
422.036
-440.21
-272.566
-214.283
-154.671
-193.459
-196.949
-45.5868
117.084
148.588
91.0311
154.759
198.159
175.127
277.121
173.909
378.231
728.571
475.009
-268.769
-578.895
-134.482
183.057
43.7373
-32.1377
-109.616
-188.816
-362.811
-153.163
145.984
-53.6048
-251.002
-465.286
-227.173
81.0522
-110.408
-466.161
-263.101
-190.961
-341.129
61.9387
620.64
876.962
545.998
-328.862
-164.356
92.3917
151.354
356.124
378.463
49.4161
-410.154
11.5417
374.28
437.124
-369.517
-692.741
-354.934
-271.253
-243.762
-235.89
-108.527
193.853
360.071
446.334
292.671
111.597
329.143
351.429
-147.734
-184.813
-421.617
-511.198
-676.429
-544.277
262.446
865.955
782.626
245.998
-5.63443
494.011
588.456
-91.3335
-411.333
-178.593
-141.175
-94.5808
111.9
-261.431
-687.878
-581.231
-47.485
15.1426
-100.156
38.4737
121.135
-254.675
-228.815
310.785
391.521
307.302
150.529
-132.279
-6.69215
119.298
-145.286
-322.197
-846.042
-527.891
428.011
812.577
722.763
176.887
351.179
295.512
-32.4987
-5.5712
-29.3733
-199.192
-226.674
-564.984
-495.137
-131.8
-76.9755
-36.5502
155.707
279.356
329.594
110.672
-27.9412
28.9654
155.057
286.845
319.281
236.433
-59.9441
-505.89
-522.511
-497.888
-179.658
53.6583
106.221
77.8527
418.907
109.521
5.22594
444.606
229.296
124.818
-63.9835
360.633
346.971
-547.998
-1181.74
-1161.97
-958.028
122.392
756.71
988.263
731.246
217.414
-67.04
45.5812
-138.479
46.5501
155.633
15.5173
-119.709
-489.666
-161.989
-419.901
-506.589
-108.468
109.742
328.812
742.17
611.519
230.49
-113.243
-377.111
-579.618
-229.998
174.968
38.3325
-176.032
-164.826
-184.331
224.512
914.837
1062.47
323.65
-224.178
-240.346
-122.403
-256.997
-370.21
-700.137
-688.399
-103.834
765.83
608.682
-669.218
-467.082
245.651
230.594
217.499
65.3796
8.59318
-66.0186
-214.064
-265.054
-26.2511
342.721
273.024
-70.8493
171.841
385.089
343.181
220.62
-86.4968
-192.554
-33.0491
-229.393
-318.294
274.373
73.7081
-183.165
-180.178
-598.031
-1209.91
-509.65
478.089
1004.9
654.337
356.989
274.962
153.702
-347.493
-362.339
-244.747
-462.24
59.8505
-122.594
-247.816
52.517
68.082
-190.904
-278.604
531.494
1449.17
839.302
-321.956
-642.011
-647.865
-144.486
-54.9377
143.259
484.188
10.0046
-314.337
134.452
328.951
216.507
-125.447
-606.782
-598.026
148.595
923.458
462.472
-385.67
-173.505
-56.1266
-269.414
-80.1938
15.4684
182.904
118.217
-172.3
-46.8026
-703.807
-163.054
442.245
538.717
217.401
-119.625
-19.8677
-60.0592
-336.624
-446.751
-376.513
7.82648
351.279
183.088
-139.095
-73.4814
184.276
225.223
-34.0945
-281.283
79.6908
163.006
94.3427
-5.54963
28.8954
188.085
118.541
68.3269
299.585
-110.096
-227.764
-258.466
208.516
331.662
381.689
253.987
-52.6399
-155.579
90.6776
75.0158
281.185
165.085
-566.84
-801.696
-509.259
24.9657
502.384
335.421
-526.287
-237.331
365.346
267.253
-728.436
-1245.6
-552.914
-98.5472
189.166
300.133
177.505
153.31
220.505
251.274
807.027
656.664
362.037
331.251
-408.732
-918.082
-571.513
-178.02
-233.928
173.65
799.604
1188.94
879.507
377.776
-20.3293
-122.968
-452.738
-673.634
-15.2614
-52.6591
-359.396
-250.821
-70.1783
-327.691
-128.613
259.068
273.772
91.39
-68.1442
-376.787
-292.297
5.93448
-171.448
-164.753
255.226
317.075
311.858
120.876
-1267.23
-1175.8
-368.989
-11.6772
181.163
290.678
546.532
566.985
334.353
124.679
138.967
79.6442
111.094
184.073
330.181
202.179
-438.854
-472.196
409.423
965.398
1035.91
530.373
82.2904
262.402
-354.979
-1123.49
-873.662
-330.121
-148.938
-130.733
142.484
190.457
-117.24
-399.257
-423.756
-331.378
-207.365
-232.046
-295.322
-253.007
47.6611
216.352
401.638
388.832
169.093
406.507
485.515
186.65
18.3506
-7.78164
-36.4746
70.4905
-249.779
-488.678
-91.9898
413.063
296.435
0.98558
81.6108
237.665
576.934
305.473
-797.604
-1125.87
-98.2901
178.039
-245.707
-485.352
-88.3153
311.309
372.8
-195.476
-80.8617
407.114
258.64
40.7936
165.717
299.025
173.112
-136.988
-362.294
-57.108
321.927
265.504
-29.1039
137.628
349.574
240.09
-311.741
-524.786
-680.283
-426.527
279.629
254.235
-43.1941
-72.5034
-186.881
-194.805
-177.711
-93.5015
-80.5564
-49.4333
151.067
186.523
91.6729
115.665
191.342
85.6111
-49.8173
158.276
172.675
143.948
-84.2528
-91.5252
40.4445
195.126
305.208
-81.9168
-354.072
-192.76
138.974
37.1948
-98.2696
-146.491
-102.226
86.5077
553.71
608.037
-410.419
-810.77
-27.795
-144.247
-352.241
90.3263
265.057
-120.349
-418.02
-183.344
228.025
378.71
98.8241
52.2071
266.445
236.4
-9.33325
68.9806
11.3789
-54.1459
354.351
376.903
-101.548
-44.9144
32.8028
-129.324
-324.484
-438.921
-221.389
246.639
268.617
-342.201
-314.511
-119.605
-188.545
-209.881
239.646
47.2314
-450.125
-348.484
219.214
408.976
329.961
251.875
118.05
139.241
208.187
224.474
130.864
-51.7078
-167.561
-37.1739
-191.682
-239.029
-139.936
173.126
205.925
-17.7365
-136.743
99.1374
393.817
508.793
311.824
37.9508
-292.153
-506.639
-175.035
-93.2384
-575.829
-773.06
-632.281
-128.413
193.05
314.963
284.01
240.631
383.747
300.579
-189.615
-191.652
43.5196
-57.2986
-106.069
186.107
333.889
180.32
53.2261
146.444
375.872
371.286
211.78
75.9986
79.0711
-69.4938
-278.09
-365.09
-565.64
-273.237
290.797
280.843
26.3245
-156.781
-310.818
-291.457
-153.964
-154.94
-222.098
-115.58
52.2058
204.46
257.923
96.8082
-52.2516
-17.554
151.482
30.97
-64.233
-5.31256
23.7551
-82.3286
-95.3316
6.08263
-314.522
-129.784
535.408
433.055
-362.291
164.499
1468.13
850.264
-884.837
-1155.09
-979.723
-345.903
129.444
429.499
359.886
224.669
225.639
62.4031
-138.371
-78.63
152.132
355.887
332.16
140.631
-73.8835
-516.132
-933.699
-417.887
278.96
347.595
616.856
358.559
-19.1275
-78.1005
-155.186
-593.497
-492.344
-93.1072
187.323
99.5452
-67.578
-170.002
75.0637
349.576
128.362
145.934
-294.189
-292.93
517.1
202.581
293.558
319.713
-199.651
-173.257
-21.6115
-139.044
-124.538
-319.269
-333.158
-341.18
-151.481
81.2535
83.8321
209.545
403.949
54.3568
59.8105
34.9637
-103.251
495.715
224.758
-85.4333
114.102
-28.37
-170.037
47.3626
-0.223416
1.30666
-94.5753
-5.53973
376.142
43.721
-586.276
-359.715
373.262
128.104
-197.377
-116.052
96.2939
-109.72
-284.942
-154.45
37.2406
11.8051
-260.842
-132.399
82.6162
278.562
648.97
573.937
-6.6835
-318.633
-542.252
-221.026
52.7182
94.4004
339.746
-92.4217
-578.601
140.159
635.282
198.303
-463.566
-604.371
-437.251
102.095
354.556
252.381
131.889
167.591
267.057
399.64
220.881
-610.413
-709.651
250.337
188.066
-362.841
329.825
282.857
-85.2556
35.7543
63.0925
-9.35398
303.455
265.096
42.6046
4.55105
-41.088
-100.536
-176.544
-227.584
-42.678
60.7538
18.5284
-435.011
-554.082
172.82
254.384
60.7677
-137.717
-201.595
178.408
253.217
102.595
-53.1272
-253.352
-264.362
-203.454
-205.835
-225.134
-43.0627
204.687
330.176
356.062
354.754
332.732
58.1639
-223.235
-39.1648
-76.3983
-101.289
141.517
282.41
304.103
164.777
194.569
-288.855
-469.43
-242.516
100.249
94.3234
-67.5845
-133.359
-138.961
-183.826
-106.802
241.671
356.796
-10.2873
-334.025
-196.865
49.9729
91.9453
140.281
116.059
-246.357
-139.761
75.2663
15.4404
71.8288
44.0463
120.006
52.8122
-133.589
-140.795
15.4078
296.549
142.05
-39.3116
248.829
191.677
-384.897
-500.745
-356.404
128.872
289.728
32.1077
139.579
67.6631
-259.176
-292.149
99.5705
298.147
355.682
180.545
-91.0613
-234.493
-64.684
-67.9464
-230.551
-81.4127
286.16
278.251
56.0894
-177.692
-168.034
90.0569
95.7286
154.072
143.613
113.502
-148.534
-242.267
-221.156
-95.492
-46.153
-264.093
-195.827
93.978
242.33
204.585
211.896
302.479
296.479
-269.021
-771.789
-185.277
-46.6107
-2.86023
119.722
150.078
84.3281
6.43665
44.6651
64.5409
79.5117
44.8265
-187.46
-120.387
19.6701
124.403
304.193
134.149
-72.2783
10.9507
236.627
184.085
124.08
-33.1774
-246.197
-355.527
-394.361
-81.956
117.194
118.948
50.305
92.9919
114.909
31.6455
37.4766
70.7665
-40.4842
-297.864
-362.927
142.919
262.099
-76.712
-189.891
-210.933
-74.3481
31.2977
192.113
155.388
109.169
243.985
385.91
24.9034
-285.388
-244.766
-120.577
-145.96
-165.223
80.1641
196.002
-19.8541
91.885
200.929
-11.3045
-150.57
57.6035
212.418
138.867
-120.103
-253.562
-176.368
-399.738
-14.0874
357.137
224.104
237.752
213.132
120.179
-288.649
-574.529
-196.019
226.308
251.903
-115.072
-527.311
-229.076
345.126
491.322
304.384
101.667
-49.0921
-6.18701
-10.2412
-42.1765
-207.181
-287.156
-287.57
-217.75
402.378
568.822
128.396
-127.871
-62.4534
123.533
138.493
-103.906
-244.623
-219.587
88.0872
-66.2865
-176.823
225.218
381.366
-255.365
-341.248
-333.662
-205.084
-55.9085
-168.337
-138.976
-0.536368
202.512
241.387
296.092
610.478
639.675
369.754
-47.3061
-301.058
-96.0032
-237.137
-276.722
-22.2498
317.135
596.367
557.757
-435.512
-1018.59
-761.593
-188.091
475.705
230.859
-183.34
-141.494
-7.19685
-167.295
-271.73
-82.6774
412.415
662.23
-78.5986
-660.964
-339.731
234.495
152.606
-134.051
248.421
509.338
371.69
171.736
-227.6
-170.564
7.47582
-81.6732
-168.723
-77.0285
-46.9992
-2.41602
-82.2864
-280.782
151.202
386.099
92.3627
-107.872
-206.207
-166.737
73.593
254.84
237.968
172.286
-62.8606
-71.6914
-99.4871
-122.833
8.45164
166.417
171.463
55.5806
-155.442
-240.005
-359.717
-232.831
-288.838
-100.5
84.791
137.777
69.2884
-48.1042
272.038
387.148
312.197
237.715
237.889
44.6974
-147.497
-444.395
-465.69
-411.003
-277.065
-52.1072
318.039
303.92
224.503
130.319
-8.66674
-43.6865
202.002
461.402
311.252
-42.1706
-376.47
-259.682
-234.96
-322.715
-228.228
-11.4637
-29.3994
388.035
460.353
225.177
385.613
41.6603
-601.611
-255.655
24.5219
-58.3397
-113.711
-78.6887
-193.15
-95.4774
80.2082
16.3168
-4.6896
173.283
279.34
175.075
83.5175
-189.69
-311.355
-185.672
-129.372
108.485
360.801
-159.069
-265.141
30.7884
90.801
-70.158
-190.139
-65.3062
67.7799
356.817
636.403
293.479
-531.222
-569.182
-385.528
-188.176
-68.0426
79.9382
76.342
71.6571
308.099
429.364
380.621
387.628
199.464
119.757
462.537
261.405
-580.975
-753.336
-600.191
-183.965
332.704
350.33
225.786
-66.8084
-144.921
-86.7079
23.8634
131.566
38.9667
9.11055
-55.9257
-198.151
-63.2571
35.6029
-250.496
-559.85
-245.181
-188.002
-162.705
-6.54229
137.788
150.381
157.086
215.81
197.211
89.5008
-44.2396
61.0137
43.4271
-176.528
82.5546
142.669
-2.971
-29.6946
-95.8703
-216.517
34.5336
433.928
378.735
333.852
239.431
127.079
167.429
80.4198
-119.927
-188.623
-196.341
-317.863
-217.302
-66.9021
-196.135
-213.036
-139.343
-155.695
-204.21
50.7501
210.761
-27.1451
-107.995
13.4168
172.22
30.5732
-151.113
74.6466
263.246
187.986
242.306
349.645
54.8026
-217.311
-316.023
-630.033
-655.775
-105.145
113.672
284.421
350.329
238.767
43.1569
83.8471
404.456
204.052
42.3172
102.106
4.21299
9.59567
-48.3757
-144.755
43.8548
175.38
78.4407
155.973
217.246
-26.6712
-51.6262
54.0968
-54.0693
-391.112
-474.705
-432.213
-426.674
10.3583
339.83
34.8263
-220.484
-32.8759
216.204
14.737
-163.76
-137.018
-99.5842
27.0107
97.409
42.3102
47.5515
90.156
182.256
203.112
17.8604
-71.7578
98.7692
79.2303
-87.418
-107.289
11.1239
-73.112
1.05965
357.242
306.107
-184.454
-558.845
-171.483
122.298
127.949
67.8949
98.078
52.7262
-139.921
92.8186
286.471
151.401
-19.0531
-141.886
-86.3237
56.4937
82.9215
-146.872
-312.862
-97.7046
307
420.482
137.545
113.933
173.314
217.718
58.3581
-343.651
-252.929
-407.189
-256.498
-116.918
-328.874
-222.519
-251.622
-147.874
15.0363
54.9339
28.586
151.999
280.974
406.112
296.617
99.2206
-156.376
-258.566
-205.835
137.905
447.034
452.073
-19.5595
-448.997
-202.695
11.09
108.013
248.222
338.486
-56.3148
-264.952
-131.343
13.6131
45.6791
105.268
60.8138
-48.3965
-161.834
-193.894
-94.8488
-123.781
11.3909
70.1294
80.259
159.542
82.6254
6.9798
-133.402
-262.109
-96.1322
34.4026
-26.2176
-164.18
-208.667
-98.7512
169.393
227.86
174.132
77.3015
101.86
66.2037
127.655
330.333
-70.0496
-238.243
-89.2926
26.9351
-2.18407
-130.357
-61.5522
-103.739
-19.5854
80.7456
140.82
63.0683
-202.396
-159.785
-86.3632
125.36
474.378
317.551
-446.264
-328.436
289.871
188.716
-304.18
-351.761
-145.025
172.795
156.459
147.715
238.107
407.148
370.243
-140.272
-473.647
-701.134
-190.971
59.0942
-130.575
-56.1009
401.629
140.807
-80.9603
72.6903
202.453
210.155
58.4213
-94.9872
-93.1049
83.6379
51.3999
-71.9952
-174.376
1.25558
160.59
301.575
73.5078
-146.829
-254.165
-205.023
-60.6466
-143.101
-205.291
-122.562
149.713
200.235
144.134
159.834
318.877
-17.2541
-723.763
-539.208
-60.5987
204.923
248.527
330.093
74.3417
-203.332
-97.5373
68.5316
214.888
129.98
39.9487
90.6221
84.9062
30.6176
-16.225
-113.077
-44.5115
-32.2727
4.72565
-21.746
-20.9288
-32.8633
-23.718
-27.8523
-3.60341
104.137
-12.7705
-156.661
-31.4623
238.294
276.753
90.2873
-3.33447
-79.2553
-129.242
-136.76
-281.021
-162.999
143.118
70.8876
-55.7511
73.896
247.024
270.368
-137.086
-209.725
-121.036
-32.4862
-118.307
-197.058
0.0131771
15.8857
-108.546
-23.5827
206.464
202.889
46.5876
90.3419
-3.85439
-199.36
27.4955
262.297
275.62
72.1615
106.083
-345.012
-311.785
-164.675
-74.537
-99.094
-4.85414
253.326
271.056
-34.5045
43.7037
-1.70028
-435.772
-385.01
22.1933
395.435
187.456
-79.786
-167.134
-21.5102
247.541
329.338
58.3391
163.974
233.049
140.631
1.30162
-89.1021
-139.32
43.4435
-61.1067
-235.966
-96.5342
2.25428
53.5693
-91.4138
-117.467
-8.07741
-96.2501
-226.429
-247.978
51.0933
161.686
-5.80364
-103.618
-95.5969
-53.3331
-20.4237
10.3736
-36.1766
-157.503
-35.2073
251.259
253.508
201.742
108.514
59.7291
-1.69039
83.3583
170.042
289.958
320.551
-77.2465
-294.231
-183.371
-219.165
-227.156
-170.29
-36.5316
4.0613
-2.70843
24.0478
-6.14457
-58.2565
-44.2981
51.6723
203.257
183.24
-20.5636
-163.886
-221.372
27.8529
258.12
169.478
56.3784
111.518
75.8191
70.0235
261.519
574.504
183.448
-787.609
-329.619
237.627
-59.2032
-612.896
-544.524
-535.919
-481.227
-140.863
160.49
234.499
415.058
514.568
56.5038
-223.099
34.3086
130.425
152.43
34.7216
144.856
608.412
413.626
-38.5243
-222.934
140.605
160.492
102.748
168.524
85.0472
-146.211
-326.954
-284.372
-237.657
-94.9707
43.436
-44.2217
-61.3106
-139.421
-331.371
-261.929
61.7902
32.1097
35.8229
194.428
38.2773
-219.779
-85.8994
253.976
405.573
126.775
-355.884
-712.24
-461.319
23.1801
482.801
393.174
61.594
-223.307
-188.391
366.807
1000.33
-236.635
-717.621
-15.9059
198.457
170.462
170.119
71.7865
-24.9766
-14.0656
-60.2402
182.039
168.504
92.4412
-107.975
-178.788
-58.0849
51.3322
42.8391
-170.657
-410.371
19.2722
38.116
-4.97228
193.425
105.951
14.7528
42.5003
-54.3561
90.5077
373.904
284.24
42.0932
-150.083
-256.211
-252.696
-196.781
-150.626
-142.199
-157.5
-292.351
72.2571
248.928
-16.9218
-130.165
-112.96
-3.10326
44.2992
-265.402
-355.625
257.82
320.937
-350.636
-206.142
198.24
238.29
236.784
358.068
472.466
99.6402
-171.627
3.92961
157.259
76.5896
79.4552
251.881
350.786
-123.834
-85.6525
431.005
-570.902
-1023.68
-170.816
-108.944
-193.801
288.573
619.673
198.139
-145.439
-89.6169
131.934
258.267
69.9891
-302.103
-458.333
-173.445
-179.5
-65.5813
76.002
-126.697
283.746
416.467
17.1171
79.3217
364.001
-177.635
-471.737
-329.841
-234.445
-97.2308
61.8628
73.5109
-36.8203
-57.4814
-80.7144
-41.044
34.7534
101.476
217.972
97.7452
147.782
492.23
668.97
318.863
-295.195
-440.372
-583.34
-277.894
16.0662
171.942
23.1815
-23.6448
0.641621
266.615
528.305
-163.395
-528.478
-224.479
-159.135
-123.145
249.672
537.245
38.8205
-280.896
-343.235
-503.133
4.68866
439.705
447.813
348.844
204.784
119.503
187.529
119.49
-18.4761
-24.2495
-83.3406
-124.43
-192.19
-123.92
-290.403
-369.661
-183.07
-64.8738
-212.873
18.3036
247.403
15.6752
-198.831
-45.3527
-152.099
-144.625
-31.378
-116.02
-213.641
301.554
517.043
267.562
121.514
-50.8344
-80.6701
-10.4527
157.273
-87.7647
84.4628
358.939
214.376
-16.6541
7.14252
238.692
-93.0659
-424.24
53.3188
45.2572
-376.693
-398.124
-107.388
146.996
110.423
-110.007
-15.0103
-60.8018
94.7012
646.343
426.775
46.7472
67.1169
69.3822
-15.9166
-340.553
-232.054
28.0659
155.015
-92.9636
-234.108
-105.856
39.2297
65.8679
128.72
49.6321
-94.3381
-185.388
-464.201
-413.227
107.338
362.646
108.287
-97.0489
-47.7155
-78.6545
64.9892
194.645
-126.303
-91.6377
165.454
71.7112
-142.349
-148.21
23.0867
256.653
209.789
-135.793
-288.243
-128.515
16.4874
119.059
142.192
32.5974
-323.191
-327.67
-32.747
319.653
689.147
756.419
373.651
-114.931
-261.514
-319.635
-325.175
-201.508
-27.46
240.29
712.906
486.042
313.207
-180.148
-760.444
-510.216
-137.112
-22.5105
351.614
132.252
-754.524
-683.538
-172.044
46.3381
219.821
284.111
200.25
66.5065
-19.7727
69.1547
33.5635
-131.029
-350.287
-198.88
-53.0985
114.873
324.84
250.14
13.3532
-94.2943
25.6219
51.1265
120.428
193.208
162.567
85.6343
-27.076
-91.9618
-24.8562
-35.6633
-90.155
-92.1178
-143.957
467.368
804.17
-206.834
-568.822
-490.334
-251.965
-154.375
-483.216
-116.809
327.592
395.378
59.261
-139.435
92.1536
296.362
175.838
2.08939
-36.1362
-18.953
6.44617
-237.661
-185.871
386.87
564.429
207.488
18.7858
4.84348
142.635
-65.6073
-65.1429
7.224
39.7504
-177.594
-429.939
-186.315
22.3598
-126.57
-588.058
-306.295
68.3957
-189.691
-533.11
-39.8525
483.367
633.588
220.254
-4.10005
138.709
208.291
68.8703
76.8462
179.289
-96.7625
-9.3483
23.9021
-384.433
-143.831
212.006
380.365
230.488
-403.722
-213.822
84.2614
-258.853
-670.271
-115.258
183.607
129.667
217.448
115.22
-110.038
176.037
432.313
154.594
166.825
244.095
-48.8926
-1.83142
-65.4976
-43.6621
329.834
247.934
-90.5623
-128.792
223.254
16.188
-407.304
-398.711
-230.069
-254.571
-294.067
-411.268
-140.819
-47.3646
-248.141
191.432
480.885
-183.7
-695.849
-260.607
442.942
604.561
372.138
458.255
517.242
-503.295
-695.918
220.026
241.904
113.4
6.3782
-165.998
-47.9651
269.492
650.874
712.929
-241.054
-287.028
-224.132
-109.444
-57.7204
-569.243
-365.385
21.6301
-172.896
-33.9285
378.334
93.23
-120.524
-80.3632
62.6183
153.629
216.96
146.711
-191.263
-336.916
58.9404
320.556
175.74
-307.86
-192.356
312.944
262.175
-70.539
-74.9863
316.808
255.091
-384.562
-291.802
-102.021
-221.306
-235.892
150.987
501.152
40.0081
-827.941
-202.673
503.31
585.975
-106.423
-411.692
-62.8426
-200.109
-401.553
-175.578
57.3892
-126.765
154.294
338.22
315.497
489.795
404.957
-77.264
-482.896
0.675913
457.132
-102.578
-196.111
-11.8934
58.2957
-7.14014
-130.204
52.5112
133.727
-261.255
-212.546
521.001
418.413
-25.8784
-153.985
-294.376
-365.842
-167.801
42.6053
-151.386
-100.706
109.838
-5.01821
74.1227
507.829
627.681
-92.1531
-657.493
-133.331
142.967
-192.112
-383.444
-15.7338
280.064
154.568
17.2985
-154.306
-218.239
-64.9712
-60.0265
182.809
378.024
269.922
57.4935
-247.44
167.731
511.291
-5.77585
-472.602
-647.616
-57.2022
309.797
-53.3607
-618.703
-334.974
70.0188
344.824
279.857
55.3945
3.22865
-63.6726
-61.0605
-22.1059
-72.6541
122.518
-58.0038
-52.7806
614.304
546.357
617.933
303.96
-146.345
-84.8595
28.47
-74.3442
-167.108
-205.152
-257.282
-221.807
-169.756
-432.07
-467.491
-10.3688
335.461
34.3359
-319.481
-293.875
-206.276
-24.4414
223.277
107.881
130.648
289.042
331.447
173.102
38.3016
-47.3167
-117.257
-177.878
-115.929
95.7816
151.61
-177.581
-243.631
434.1
736.387
255.836
-96.908
-177.89
-205.661
-173.742
-468.497
-446.616
333.521
967.372
937.306
-289.412
-1016.73
-1187.07
-1087.59
11.5872
442.709
316.756
184.492
286.612
282.807
350.495
387.894
93.6658
-62.4124
251.75
381.805
171.866
-260.399
-601.121
-537.272
243.304
650.591
518.466
207.073
-269.196
-179.005
76.7912
87.371
-397.932
-909.849
-466.401
-121.97
-306.292
-12.8026
127.937
104.539
62.7998
-137.803
-238.777
-244.764
-128.767
135.752
744.965
1297.22
699.592
-76.8096
-250.546
-20.4201
22.0829
-217.993
-384.883
-382.773
-132.32
-46.3325
62.2316
286.993
227.288
-194.628
-187.298
-171.484
-129.21
-156.505
-239.105
136.14
489.665
-27.3294
-268.152
-144.253
-76.8731
244.968
368.924
331.637
-67.939
-172.077
-25.0922
82.4291
62.284
207.49
-21.588
-169.559
-32.6493
224.908
520.64
-44.1825
-746.366
-186.602
113.392
109.367
43.3003
-173.034
-251.656
-246.284
-110.608
45.5559
241.199
-82.2709
-32.2966
62.005
-199.087
220.848
714.142
-26.9113
-690.699
-474.381
-209.666
217.9
307.692
106.9
16.9785
316.751
400.772
208.461
151.695
-24.1901
-372.047
-284.1
-205.652
48.368
359.491
-58.2979
-477.486
24.7526
486.584
480.963
139.04
-122.738
-278.179
-70.4722
-312.064
-580.498
-493.277
-336.887
401.576
481.66
-353.449
-458.711
61.9
346.22
411.423
424.917
359.917
206.317
-48.9537
-158.88
115.063
84.1813
7.21391
-132.633
-1.14116
92.646
64.5376
145.452
-133.761
-250.837
64.8939
99.4806
-173.975
-323.167
-390.773
-315.788
5.54929
184.338
330.71
196.413
-12.5266
15.5075
113.631
-550.893
-390.384
-113.262
-85.5716
87.295
108.283
-10.9906
213.79
197.612
60.0277
-85.3008
660.574
957.273
16.5446
-374.404
-460.957
-282.107
-64.7118
-52.0218
-41.3412
242.657
219.36
241.498
330.134
677.696
328.674
-583.234
-1064.1
-917.534
-322.59
260.118
-60.0601
-266.545
-23.3972
-134.519
-236.037
-60.0766
351.163
511.415
499.777
475.905
359.897
153.245
-50.9276
-381.719
-338.159
155.897
367.019
468.47
257.548
-328.728
-566.024
-462.154
-285.268
-6.77926
27.1492
-168.53
-238.78
-230.312
-25.7484
279.066
-78.8446
-245.429
87.4569
-331.617
-344.889
316.341
579.991
359.079
-328.658
-44.9723
276.688
258.698
556.535
598.119
1.92105
-166.328
-186.629
-33.4313
-174.374
-470.832
-59.231
323.983
472.729
503.148
-126.273
-524.722
-385.441
81.2592
362.415
145.515
-132.234
-306.662
-304.522
-257.019
-130.577
-55.6395
64.0072
-223.785
-215.826
254.104
273.716
48.9827
-202.041
-117.477
256.442
301.189
130.497
-168.21
-96.1595
-37.3307
-33.9723
-175.13
-302.409
-108.532
205.682
495.481
465.222
-111.336
-258.638
-78.647
217.798
-192.642
-904.833
-419.447
213.019
539.924
160.679
-208.489
-207.534
290.03
425.419
218.208
772.724
899.866
280.822
-485.678
-968.263
-629.147
-276.199
-112.891
-214.019
2.77447
374.502
307.253
148.698
-117.321
128.331
511.744
406.378
-150.517
-308.711
-72.8646
-456.14
-530.257
-6.11033
-2.98538
198.287
435.503
87.1492
-243.899
-251.773
74.6149
288.768
-239.02
-295.991
-73.4835
340.379
183.492
-303.333
-786.267
-606.61
-116.448
-31.38
-59.2837
23.8214
288.35
643.378
481.776
313.633
81.0704
59.8469
217.847
270.411
308.309
104.377
-57.9488
-197.775
-148.559
134.36
395.88
253.908
42.8722
-24.9379
-46.0824
-86.8346
-338.208
-454.062
-86.6096
-29.2741
-425.375
-380.202
-352.783
-290.16
-244.463
463.588
747.514
410.996
-265.142
-451.675
-282.836
-561.17
-336.755
106.401
237.895
270.814
317.798
322.652
243.896
229.417
189.142
-128.416
-99.4168
108.645
82.3389
-90.0803
-294.275
-242.27
41.9811
399.018
306.243
225.765
297.626
274.952
-67.4955
-470.654
-362.326
-87.5252
171.743
-264.086
-445.954
-48.6622
254.13
243.479
138.654
-82.2531
-388.745
-376.29
-42.9904
187.169
196.526
18.5394
-11.7631
317.843
614.609
-39.5097
-275.83
-309.312
-412.999
-476.716
-219.17
211.252
192.157
175.018
80.8909
-39.2645
77.9259
194.362
164.436
174.813
117.723
108.851
-21.8275
-242.444
-282.673
207.555
253.514
132.427
4.43131
174.181
115.042
-89.2241
-186.766
-145.59
-332.046
-120.414
14.8565
-45.7146
-108.41
-148.012
-137.367
24.0784
-53.09
24.1521
-12.7372
106.458
144.364
114.209
110.076
188.003
70.1154
-175.335
-252.88
16.0786
488.807
624.944
298.514
-595.546
-985.449
-337.114
394.634
26.8688
-186.185
75.6419
-91.1806
125.143
538.785
635.393
572.973
-100.099
-770.494
-529.135
-285.253
-202.956
44.1893
36.8671
-217.73
398.816
857.051
478.458
-386.125
-403.717
-162.664
-238.498
-1.2855
53.1015
-215.553
-396.379
-394.386
67.4491
449.533
286.794
79.7403
91.7
0.858293
-331.202
-51.5847
281.202
152.141
-0.6399
68.2632
198.279
216.284
198.275
348.072
63.9234
-725.488
-552.865
-219.583
217.735
445.221
168.967
-17.8295
23.3616
-122.909
-151.356
26.3457
19.578
40.2662
-7.43557
-159.751
-141.562
60.2542
84.5699
-144.552
-33.841
287.355
97.5642
-89.1975
-321.881
-348.261
-160.009
87.3404
439.519
45.074
-50.5331
192.346
-240.89
-418.205
-284.531
-191.024
-252.789
231.045
630.143
523.529
278.065
252.168
215.202
137.684
333.503
475.955
-234.664
-674.773
-708.681
-144.774
19.3925
-187.026
159.431
341.44
94.3049
57.5503
180.299
-140.632
-495.906
-521.273
-326.807
-129.184
-139.555
115.456
255.635
85.3599
272.213
257.953
-76.3797
38.7723
109.501
0.972577
-92.6035
-19.2608
91.4916
267.621
454.304
360.497
68.6425
-312.376
-788.522
-626.519
48.2898
18.7494
-45.9247
-53.1971
-4.57885
236.963
441.548
291.816
134.477
194.605
96.8196
69.4947
-158.232
-348.976
-75.3104
-166.267
-110.219
62.2295
370.032
351.917
-35.3627
-234.33
-347.614
-157.426
127.592
43.635
-409.97
-238.657
166.109
296.335
113.264
-48.9836
-16.1555
81.7252
-73.6726
-57.5912
-102.513
-80.6698
112.282
29.9167
-295.093
-209.247
33.2635
49.0029
273.404
444.243
394.469
51.5444
-144.805
-236.754
-165.153
-93.2416
72.1306
16.0743
-482.589
-252.831
303.554
463.776
-252.453
-434.732
240.943
588.829
516.212
296.795
-378.939
-625.853
-490.014
-187.95
162.533
156.446
-101.479
-257.401
-210.6
129.55
503.339
411.039
215.921
46.9894
178.205
284.573
140.512
-120.368
-241.304
-101.633
134.495
-41.0969
-123.996
-211.964
-30.3464
-98.6171
-148.83
33.4252
59.7856
-76.265
-22.4847
51.473
-256.413
-565.951
-23.9332
105.385
-99.3109
-118.02
-140.001
-109.612
153.561
464.636
430.422
263.188
-136.621
-153.919
308.59
326.691
57.2072
-306.546
9.55046
-69.4769
-257.567
118.311
236.042
290.69
193.575
-208.476
-514.162
-587.049
-110.329
-20.5753
217.636
296.552
-62.5569
-5.21346
72.9518
-55.052
18.0481
39.2216
-188.661
-27.6124
149.208
193.719
470.566
483.141
-177.357
-351.968
-134.868
18.3346
75.6327
74.3531
180.093
60.441
-394.354
-396.722
-330.485
55.746
-74.0138
30.4787
203.432
-47.476
-86.7705
102.194
96.68
-85.1425
-94.5547
163.265
94.2693
143.472
-74.0077
-114.363
-211.962
-226.99
94.2569
141.157
143.526
-17.8764
118.801
206.915
-24.4338
-136.166
-122.508
-105.118
-165.281
-25.2275
327.83
295.973
272.702
209.372
31.6348
-43.5361
-219.494
-272.028
-77.9417
5.77094
45.6355
-37.2624
41.0236
98.7874
-26.5651
-47.9559
34.0761
-18.982
-222.246
-204.063
17.5533
75.6804
-33.1179
-61.3767
-80.1276
-61.9921
96.9241
341.283
392.51
139.638
-542.548
-561.299
-10.9545
135.396
77.7409
71.9411
62.2801
82.1232
98.5633
11.3975
-192.29
-236.996
160.379
208.031
79.479
107.197
77.182
-40.6448
-142.277
-26.4553
286.527
118.511
-212.487
-232.003
46.2106
233.645
198.225
220.464
13.9557
-167.439
-121.368
-232.949
-211.444
-10.5367
120.81
-1.01937
-325.33
-557.134
-243.508
15.9863
226.715
241.009
239.628
325.815
117.184
15.112
25.4127
-146.572
-173.186
-55.7571
91.1521
201.249
32.6848
78.2788
84.9895
90.7126
444.528
94.6473
-503.594
-154.09
78.1178
61.5998
-81.0249
2.14582
-79.9667
-284.381
-287.349
-142.99
-27.4734
97.9087
103.872
149.282
90.5347
-126.649
-170.789
-34.1347
-84.7032
255.089
491.056
134.696
-12.7855
122.689
140.465
-234.4
-309.126
-139.406
-7.57509
-0.653676
137.292
95.529
-144.841
-23.704
230.989
20.3447
-108.412
-170.459
-180.372
-170.557
-56.1096
30.0267
125.304
148
98.659
94.333
104.797
47.6482
-64.4223
-62.7156
86.0411
120.08
-78.9343
-47.8908
-266.027
-199.948
-185.373
-98.1812
-60.0609
47.4917
262.992
254.153
214.589
116.214
-20.956
285.824
429.544
-331.639
-310.502
-186.262
-70.912
96.1359
-291.554
-366.291
107.313
139.265
158.204
35.5698
50.66
115.305
25.1125
-88.4153
-127.966
-81.2174
38.7183
-14.2216
-65.2206
264.309
139.55
39.7943
-94.5035
-292.323
198.942
425.805
243.195
178.305
-176.481
-45.5845
123.57
-106.964
-511.038
-513.995
-349.206
-373.865
-52.002
394.624
384.899
187.513
165.236
55.6743
-116.086
-102.775
269.588
387.553
-14.9254
-248.057
-133.988
-142.668
-275.436
-150.381
192.83
386.361
335.09
121.204
-150.29
-470.505
-476.779
-80.3309
-85.4189
149.494
195.509
-10.8157
10.2167
-209.363
-118.612
92.7859
576.359
703.286
58.3093
-99.9785
-275.432
-803.253
-482.675
119.049
260.588
166.756
192.125
469.349
581.123
58.2387
-75.6149
488.084
218.258
-411.64
-404.808
-171.008
-629.88
-430.588
334.788
330.688
-136.759
288.886
57.1409
-254.751
-222.196
-166.339
66.8255
-39.5532
-221.219
-75.6085
-21.6266
-185.007
-3.50335
283.885
463.207
527.766
-120.918
-703.075
-347.214
-162.409
472.103
588.591
-10.124
-291.349
-134.582
-107.094
-193.304
-127.575
-12.4284
132.079
202.217
-42.4088
-81.392
124.412
86.9073
-80.4404
330.058
557.231
157.777
133.559
-83.9266
-256.117
-77.1079
98.5789
233.596
151.877
-28.3475
-330.829
-483.621
-425.511
-254.204
147.791
301.441
209.075
-252.637
-507.794
-112.063
100.719
59.4634
107.007
71.4078
-35.4961
284.224
167.892
234.926
537.718
266.902
104.409
-292.95
-15.9832
114.9
-475.758
-929.746
-596.3
-422.876
-145.793
311.253
272.384
322.985
498.875
392.416
78.8217
8.86143
135.547
-51.8854
-310.593
-412.597
18.2831
467.349
36.2843
-407.684
-64.8674
340.042
302.609
182.719
97.909
178.621
-100.926
-257.807
-252.756
-91.8678
9.77274
164.88
198.168
-159.592
-406.274
-153.771
-9.61931
-9.38122
67.4226
397.119
446.632
-102.949
-325.643
-29.4318
-17.7059
-514.306
-192.403
182.444
-140.762
-32.008
248.614
145.892
-14.7756
-59.9517
224.917
366.914
-388.93
-260.954
-73.539
-188.915
-97.662
556.516
438.032
53.1019
58.079
36.8258
60.8892
6.69539
34.8007
-247.842
-306.432
92.8893
-176.51
-342.19
-317.676
-72.1877
394.741
237.284
46.1452
3.5753
-42.5821
-337.399
-354.155
81.3226
324.943
300.745
116.38
172.463
208.241
104.863
292.947
-40.5182
-18.7649
32.9811
-73.9383
-326.032
-228.054
27.4095
46.3587
-44.9174
-28.9446
354.477
333.214
27.6562
-157.258
-186.575
-259.549
-393.526
-288.096
-127.954
-281.379
33.0239
488.053
-400.933
-578.273
127.193
230.444
209.82
297.845
400.012
14.9657
-222.783
438.719
663.525
-451.191
-676.38
-289.547
-221.357
86.339
555.76
388.948
205.113
-299.144
-126.353
260.372
180.191
31.7428
-255.985
-249.026
-88.381
312.822
366.319
-103.806
-312.71
241.524
421.862
222.128
-27.7664
-217.284
-208.183
-245.769
-268.001
352.398
444.098
-108.45
-528.189
-319.832
-60.789
-112.086
-266.271
-225.551
88.8424
47.718
-321.349
-251.482
-61.7253
170.899
302.363
248.563
107.562
40.9924
-120.292
-169.827
254.108
264.553
139.186
192.328
316.972
296.627
-79.5011
94.5925
-361.301
-665.614
-98.5161
162.569
304.171
191.597
-185.853
-518.365
124.059
278.837
-40.0913
12.9054
496.868
411.087
-230.961
-365.553
-356.724
-193.883
156.584
36.4876
165.329
182.662
-285.743
-434.342
25.7119
258.708
139.37
439.797
270.612
-58.5987
-59.7144
-134.42
-305.698
-155.273
49.9058
42.9708
150.161
-49.4342
34.4748
-0.648719
-371.659
-305.782
16.6592
396.375
183.9
-287.675
-276.092
-208.075
-399.399
-99.622
63.9607
-158.925
-182.24
272.197
529.734
285.295
-51.1923
79.9115
259.055
43.2359
49.625
346.823
371.155
236.738
-46.9729
-90.7139
263.237
193.273
-540.264
-686.026
-458.606
-118.317
530.346
717.818
447.163
-746.255
-856.164
-411.262
-307.894
-193.084
240.893
341.173
439.161
371.92
106.264
127.552
99.8654
-126.156
-12.9358
232.303
155.17
-134.97
-377.241
-606.137
-351.306
520.9
550.083
231.979
-215.203
-255.775
55.5061
11.1167
-205.425
-230.711
-131.651
-33.1891
8.5397
89.1858
100.372
-131.825
-223.571
278.166
349.651
-62.6382
-198.196
117.036
190.12
71.3982
142.814
137.546
-8.67437
-105.766
-82.5409
-75.6433
-75.4645
-97.1651
-123.918
-94.9566
99.8866
125.268
100.547
68.5176
-90.1508
-94.6925
63.9914
0.0712919
53.938
126.018
91.109
-32.4644
-171.204
-183.461
-242.238
8.38681
824.447
1042.68
6.02671
-927.197
-1136.24
-329.183
41.1725
-140.863
-103.762
184.387
230.417
290.469
145.146
-166.931
-132.02
155.918
361.308
497.532
153.885
-195.152
-442.661
-495.612
71.5704
485.66
442.929
33.8776
21.6321
246.863
88.7498
-276.599
-371.424
-210.523
9.93467
278.662
262.131
-91.7941
-296.625
-380.536
-225.487
-99.6289
-196.832
-111.318
179.825
310.031
293.994
140.965
77.4373
-61.1096
-148.209
-30.3793
117.868
63.7813
-30.7925
-160.844
-247.04
-152.859
-116.112
-34.6406
256.454
439.124
390.886
-169.532
-657.932
-294.144
118.774
105.91
76.6955
-67.1363
107.014
192.323
-60.8266
195.478
360.253
345.332
119.678
-83.2122
-423.477
-303.349
124.461
313.439
-16.5178
-968.069
-488.702
306.804
341.413
195.295
211.71
214.463
57.6059
-133.343
-152.776
45.5337
10.2111
-101.845
30.1349
74.3782
134.238
-113.848
-228.056
-239.143
-135.565
442.958
476.528
30.2032
151.422
255.165
-23.3957
-223.391
-329.355
-340.031
-208.14
-164.302
-36.0151
95.9084
100.477
-65.586
49.4528
322.777
258.783
-452.235
-624.77
-169.608
79.0487
179.198
-99.3737
-120.664
79.5388
227.539
393.657
701.954
758.027
-12.7059
-904.363
-620.812
-600.882
-368.122
57.215
217.691
299.964
487.111
338.565
360.111
231.83
2.44252
37.3269
23.2484
-73.7704
-83.437
-66.7363
-111.738
-239.272
-181.851
95.1
-5.38242
92.2139
133.384
75.9049
-51.8811
-216.628
-133.723
-55.1352
-70.5716
-202.587
-5.60082
309.043
175.214
-81.3263
-202.846
-310.041
137.76
136.512
-220.121
1.86248
-160.501
-89.5492
193.604
296.796
263.165
-145.526
-313.316
91.5339
382.031
313.682
-545.971
-689.457
254.381
-41.6359
-356.12
58.4965
34.6723
83.0588
472.471
571.894
381.658
363.067
-438.592
-457.433
12.8018
162.436
-281.964
-295.007
-24.1494
-94.4026
217.477
293.925
-347.6
-135.045
391.455
269.511
-429.568
-597.561
-144.885
72.9247
339.136
535.866
604.321
97.318
-91.8536
100.334
443.882
-255.787
-658.396
-323.631
195.894
248.736
93.7102
135.329
-56.2556
-285.739
-202.521
-41.5953
-233.188
-470.9
-280.502
-93.6828
224.481
151.506
-246.631
-122.011
215.25
362.092
276.37
-24.4645
-155.351
-119.322
-213.973
100.398
258.63
92.9561
34.117
91.6028
252.388
256.66
-173.799
-270.247
21.3705
133.991
99.539
483.234
66.4849
-943.291
-592.885
-100.843
188.626
-95.6464
-339.46
24.7042
145.112
262.348
396.989
505.655
564.028
451.408
216.403
-934.614
-730.388
-298.596
-199.535
-284.661
44.5846
739.095
499.301
148.085
120.58
595.369
449.324
-423.492
-543.875
-98.9488
-71.0697
-302.077
-443.017
-75.0394
212.39
534.654
254.46
100.857
-138.035
-494.701
-277.682
66.3038
-8.36195
-28.2581
-233.912
-484.639
-229.627
90.2636
128.381
-83.6695
-93.5209
-77.8241
-143.605
-265.717
-258.676
412.266
602.189
361.821
265.57
-115.616
2.2936
277.907
319.015
412.529
213.944
-329.4
-420.043
-162.855
159.804
30.074
-158.766
-61.2583
-211.316
3.2403
198.886
-0.0698738
-64.7677
-16.6872
-104.493
-60.0409
-79.9005
10.4462
331.672
293.14
111.332
139.086
173.34
63.4259
-144.711
-150.623
-0.416268
33.1814
129.029
145.18
91.517
-416.291
-634.905
-550.874
-220.517
53.3318
-8.62194
-33.5383
-180.032
-34.7261
-135.989
-26.0099
394.764
434.155
58.1815
71.5438
365.695
315.993
82.7107
-553.402
-378.212
152.893
236.628
164.722
58.5179
13.1914
151.382
121.664
-308.02
-598.153
92.8831
543.977
231.076
194.362
74.2575
-253.07
-649.341
-891.391
-451.281
336.977
717.455
300.889
-209.073
-310.282
80.4882
519.949
375.711
178.68
197.301
174.431
-77.986
-241.788
-194.259
-241.925
-36.4179
218.7
125.613
32.2183
144.711
168.51
-342.506
-309.78
32.882
176.131
85.277
-66.0831
-76.5423
-138.262
-158.298
-214.247
-242.302
-189.96
-117.416
-84.4541
-28.1786
-48.1253
111.077
383.153
316.278
51.7969
-180.811
-37.9583
213.293
435.927
93.8743
-121.863
-167.984
-88.0121
-26.4092
62.5116
-46.2413
-205.032
-180.477
49.4602
116.568
39.2617
154.514
211.574
124.16
93.483
385.475
276.968
-139.792
-19.2116
-618.746
-493.848
61.1015
118.321
-357.869
-638.547
91.8917
335.817
97.7301
-205.827
-274.558
-239.351
201.646
794.867
694.172
581.851
262.238
-376.942
-222.199
-318.567
207.88
121.191
-396.52
-267.866
155.101
354.775
-105.406
-248.961
-59.9562
8.18373
16.5104
39.5792
-268.202
-518.436
-334.826
-349.966
-331.45
238.892
284.941
75.3897
198.626
214.687
170.983
22.3575
174.935
311.523
-32.1922
142.436
333.231
100.362
-70.4104
-101.455
-128.38
-201.456
-286.055
-297.988
-1.16488
469.516
371.167
-104.495
-124.025
34.0794
-59.0501
-158.117
-90.4249
-3.40672
157.902
105.792
-16.6754
79.6474
263.262
319.517
-115.465
-271.709
-268.218
-178.748
-29.0932
277.699
222.445
-189.934
-412.79
-715.631
-489.933
193.688
484.207
403.01
-14.857
-106.14
108.442
141.865
-74.1056
-213.975
145.815
342.755
315.678
-375.506
-562.662
-148.743
106.983
430.801
147.864
-316.428
36.5304
569.129
664.711
176.051
69.186
165.677
-60.3572
-326.368
-295.044
-284.671
-256.035
-300.125
-357.295
-32.2336
-6.53788
-272.822
-169.714
121.597
565.699
828.468
94.3282
-595.312
-564.667
-225.538
197.594
341.724
41.2099
-106.361
-410.915
-292.633
-152.798
23.0505
250.664
411.29
396.004
122.169
228.874
616.164
508.387
2.98532
-322.909
-310.845
-367.143
-190.22
-142.103
-339.19
-162.765
186.522
325.444
162.762
245.56
77.9328
-213.251
54.9919
427.324
130.642
-329.848
-478.776
-370.55
-35.5418
317.64
209.041
-112.211
-161.448
-211.348
-185.031
-10.1514
19.3776
310.893
418.79
-323.987
-315.381
-38.7347
-275.584
-527.449
-234.849
81.9691
159.947
106.933
262.07
468.524
245.493
88.4021
84.9583
212.746
128.327
113.237
64.1229
-177.508
-284.348
130.948
345.626
170.916
-243.124
-450.799
-102.209
78.7582
-26.4612
-74.6738
-13.6034
-72.8879
-85.5407
132.656
686.187
420.732
-1127.64
-1099.7
-262.976
348.69
502.72
364.026
-49.8748
-110.903
333.97
664.517
508.03
-338.618
-561.403
-157.931
-101.313
127.08
308.123
83.5786
-418.882
-597.933
244.448
488.288
200.737
-52.0776
-148.066
-62.4277
-46.2343
-54.2419
-139.548
-422.376
-430.002
164.433
402.133
184.383
-81.7039
-410.35
-87.0219
248.657
-257.722
105.359
660.664
528.342
177.278
-144.615
-152.444
-53.365
-94.8243
-130.329
353.707
487.152
-316.801
-798.102
-259.088
80.951
107.313
107.66
-70.0502
-91.6097
140.694
18.6682
144.124
-435.593
-584.164
-338.029
223.161
632.612
566.897
542.809
397.328
99.8897
-8.72338
123.957
-13.1718
-485.899
-628.112
-392.893
-297.635
-238.617
5.33605
134.533
169.472
380.72
184.648
190.212
119.102
-157.183
-167.911
-145.976
-299.148
-281.596
-20.7948
283.117
208.502
8.38078
150.384
254.58
-62.6794
-198.46
143.574
185.934
-87.2868
-95.7047
488.657
389.173
-330.958
-273.155
216.619
9.26962
-627.424
-567.862
-173.59
115.83
-69.4414
238.377
291.902
-141.107
29.2061
391.164
227.91
-194.96
-73.6521
407.599
532.135
527.188
-553.578
-1191.22
-898.86
-465.052
66.0062
325.713
516.192
418.872
36.0138
-75.2883
122.051
350.769
201.178
-53.7574
-246.44
-158.277
-45.7082
-14.9428
-174.121
-58.7814
327.366
187.904
5.3943
189.261
228.36
-125.576
18.0897
175.851
48.0713
7.61011
70.582
44.7549
-130.013
-330.257
-247.664
36.8742
3.19748
-233.018
-398.737
-346.142
408.042
721.532
36.1599
-242.177
-26.8962
15.4639
-214.416
-451.693
-343.656
7.75683
398.948
482.129
251.691
94.3109
112.146
-189.717
-365.625
-264.035
54.8486
219.641
-242.64
-168.779
305.472
554.476
195.843
-122.002
94.5426
1077.03
848.405
-1337.85
-1570.53
-948.621
-268.921
46.0338
-85.5732
-72.6328
208.03
212.857
248.536
471.152
656.554
406.38
162.909
38.3458
207.629
391.701
96.1851
-385.333
-322.675
209.809
426.697
354.409
114.112
-9.32626
-193.409
-56.4744
-159.847
-282.527
-269.346
-528.205
-530.137
-133.226
-159.115
-101.108
-24.9706
-322.947
-553.363
-510.804
-132.997
737.65
507.059
39.4796
-252.955
-204.926
308.423
803.589
985.68
793.768
-236.628
-602.173
-106.579
48.5269
78.2537
-112.098
-241.191
59.8933
175.528
-18.3477
-33.172
127.612
304.756
646.605
256.782
-638.46
-944.096
-869.777
-518.1
-319.297
14.8768
159.225
230.441
190.253
58.0342
-93.3975
135.308
410.337
434.775
242.687
252.912
319.093
142.06
-219.056
-75.4554
319.299
335.702
-1.37395
-278.191
-180.878
-69.2075
-57.1565
-184.955
-417.15
-158.451
153.812
21.8536
-194.682
-339.744
-418.709
-283.449
73.4401
-237.132
-745.262
-382.685
669.023
1027.31
317.641
-114.26
112.24
391.659
283.321
224.175
234.651
56.0546
-160.386
-186.609
-80.8726
-229.742
-213.779
671.404
624.143
-106.054
-439.795
-77.4674
-82.4549
-186.997
-448.717
89.5139
90.6161
-398.117
-283.52
31.2831
17.1379
-132.511
-71.7544
-235.223
-21.0526
289.719
311.973
-139.595
-176.255
237.244
529.342
348.342
47.0838
-8.00445
406.024
55.5105
-244.077
-95.0815
-22.9028
59.4646
-8.43711
-90.7945
-94.774
184.179
63.1347
-98.8035
-350.752
-560.009
-287.314
92.3222
228.864
69.2091
-92.6819
-207.324
150.328
274.01
-205.34
-305.593
65.3734
-114.933
-21.9318
238.766
111.594
202.071
293.996
304.458
359.404
-17.269
-319.81
-593.1
-656.673
-38.1339
472.127
541.493
362.485
-2.15984
116.73
483.322
286.068
-42.1721
-449.555
-548.764
177.71
527.746
-782.196
-1343.94
-739.091
-369.273
40.1173
427.919
686.248
346.877
-38.1038
-67.474
108.592
176.532
267.569
213.782
-38.955
-197.052
-41.9989
235.592
386.925
188.534
501.774
755.83
190.977
-123.706
-245.516
-85.9274
283.859
-71.4364
-739.815
-811.928
-537.705
-526.753
-321.76
149.286
223.363
391.786
477.978
239.75
-256.937
-689.828
-303.693
175.138
41.2862
-218.476
-75.7215
123.953
46.5291
78.6134
295.697
236.681
41.6932
62.2166
174.805
-69.3767
-223.983
-139.84
30.7875
174.784
222.209
293.688
75.6092
-121.361
267.201
214.765
-100.618
-186.24
-224.858
-276.227
-128.26
23.3536
130.132
299.623
173.634
-163.881
128.562
134.262
-371.718
-336.413
-172.05
-43.3121
221.315
311.477
169.49
101.546
-39.5409
-240.712
-59.3831
292.74
538.506
286.6
-628.792
-607.066
-286.26
-74.1337
-176.429
-213.086
61.877
124.408
24.5559
26.2368
285.588
129.149
-299.958
16.0251
348.632
16.5152
-140.623
-158.635
-338.421
15.265
572.951
28.7817
-308.695
-42.9855
200.846
254.917
281.693
156.505
-98.434
-237.727
-184.109
-18.6759
203.517
167.008
-70.2456
119.407
41.5044
-125.272
-192.929
-298.997
15.0895
419.134
556.069
55.2914
-609.831
-519.057
82.2857
45.538
-65.5409
-69.1
-123.364
185.723
380.324
-87.8999
-221.981
-146.926
-36.4575
-12.5692
25.9212
69.2485
71.0643
103.46
-33.4209
-127.851
86.5094
257.247
188.581
98.7332
60.7031
58.842
28.1777
-213.64
-440.452
57.4528
231.346
156.949
88.6116
-155.911
-130.712
241.385
94.8144
-314.541
-430.683
114.504
135.023
-52.5315
-178.593
-125.274
-67.3613
-77.8396
6.44193
-1.42599
46.0622
67.7637
166.938
22.2277
-542.397
-2.01943
345.85
181.237
294.248
630.736
494.451
-322.034
-361.582
-359.446
-237.206
83.9598
186.005
-71.4788
-154.049
-100.626
65.2882
242.844
3.63232
0.608866
413.521
167.743
-99.6153
-252.201
-344.728
-275.355
-5.73817
-84.9159
-370.005
227.134
643.398
156.937
-649.619
-285.961
-36.0647
-23.9828
-78.967
60.1934
252.831
252.568
45.4215
-94.7062
275.751
288.079
-57.8417
-90.3423
226.395
254.936
151.065
70.8633
-258.022
-282.781
17.5673
-71.0218
15.7897
244.448
438.02
-91.1559
-615.695
-335.537
-39.2506
-46.2185
-277.13
-343.101
-103.536
-80.0684
-245.654
43.964
306.029
89.8053
-29.8037
61.1845
244.181
269.63
174.447
-32.1257
-231.578
-53.3019
417.203
465.688
318.456
176.268
-44.4155
-137.095
-75.2896
-120.099
-243.942
-112.276
67.5018
278.45
116.282
-84.7077
-258.63
-534.797
-278.001
-192.033
-120.679
-194.465
-445.429
-239.23
366.277
577.681
479.82
283.965
219.127
183.368
123.455
134.775
54.1762
-545.23
-644.076
-271.692
92.9233
267.204
74.9477
-37.836
-32.1416
152.854
396.992
231.696
-152.057
-365.36
-292.904
-85.3861
32.4855
152.507
413.75
629.048
48.8524
-167.386
30.7034
-651.849
-534.086
-62.0916
68.1077
123.73
62.5261
97.6054
92.6696
-21.7124
170.573
275.099
-26.4727
-321.389
-517.188
-215.727
2.32342
-143.965
150.51
285.679
115.784
427.705
368.877
19.7724
-67.5406
52.1581
286.617
373.341
67.7414
-205.977
-408.346
-439.932
-245.723
-105.921
-30.0074
-223.954
-397.241
-229.708
51.9871
100.635
99.3161
280.747
257.916
229.264
137.24
-7.73448
-182.784
-361.928
-180.034
226.74
556.733
153.382
-321.351
324.922
465.187
-731.656
-796.408
-360.217
195.123
463.078
496.543
375.28
212.717
104.437
-29.7702
-105.971
-118.66
-100.692
14.5824
-4.02214
-282.145
-99.6514
178.671
-145.515
-148.204
435.689
300.349
2.07073
-227.89
-281.248
-256.495
-101.002
-40.5131
-12.4538
4.65898
-8.5746
-67.9138
-173.05
-171.423
-63.6276
-11.8136
190.933
290.829
101.692
44.0406
246.252
197.838
47.5991
-70.0449
-112.42
-97.9417
-24.5963
-4.68459
-1.19976
10.6945
13.4418
1.61768
34.6361
47.7363
-57.3534
-175.299
-144.378
-52.5924
-59.3544
-20.4533
146.305
151.579
100.926
41.5829
7.61856
-17.9925
-2.84725
13.1644
40.0122
41.7926
16.5558
-4.9041
14.9711
22.5013
-24.6813
-85.6414
-95.0077
-44.2394
-24.0475
-16.3166
27.6551
19.313
-14.4993
-28.7223
-17.3229
6.50373
37.0722
37.2707
8.78165
-7.69839
-1.21188
3.01835
14.4191
12.6013
-6.18472
-32.5964
-22.1702
-4.83454
-8.42706
-6.86858
20.9451
23.5197
4.04967
-6.85954
-1.52843
-11.0032
-18.2101
-17.5706
-8.31132
7.83551
7.11886
0.0977527
13.84
23.3149
9.5964
-9.77861
-10.379
1.66075
-4.7513
-10.7358
3.64466
-6.04584
-0.86991
25.3398
44.9395
48.7406
32.3867
18.028
13.0376
11.9634
3.58099
-6.00198
-11.7522
-18.6732
-39.7484
-46.6315
-48.1993
-55.5518
-56.8499
-35.5748
-14.9453
2.52965
3.82385
-3.20929
9.27883
13.609
22.8408
46.9031
56.1611
30.9083
32.2019
58.9846
67.0688
47.7037
19.7745
14.549
38.3657
60.74
58.8011
18.842
-48.4138
-115.59
-147.556
-159.544
-163.588
-146.85
-110.302
-72.374
-11.3966
32.0959
40.8609
21.0529
2.40372
8.05148
52.628
121.806
172.05
181.612
135.153
110.343
71.9565
33.5544
-9.43389
-57.7936
-101.507
-112.589
-60.4663
-9.14449
-16.2651
-25.8473
-13.4337
10.4722
42.8462
61.271
53.1581
-2.02549
-45.1686
-57.7236
-33.2395
-15.6445
25.6884
44.8367
41.8352
42.588
60.7982
54.5189
12.0814
-52.0787
-126.438
-147.35
-133.527
-109.447
-86.4634
-81.1562
-66.7018
-59.3387
-41.6916
-25.7922
3.21295
39.4755
62.0271
94.2946
152.583
177.822
159.414
115.157
58.8178
30.9162
24.1717
-5.11003
-26.4255
-25.5115
-17.132
-17.3629
-37.9814
-55.975
-53.5718
-27.5714
-14.25
-19.9103
-37.6914
-15.5849
19.5814
70.0417
65.7015
55.5776
27.0185
-49.0484
-74.1004
-66.3355
-72.6131
-70.9178
-11.9862
45.5765
89.2917
114.599
89.9913
14.9413
-63.0542
-92.7764
-64.9445
-42.4957
-50.8127
-85.1502
-83.2523
-28.7868
15.2005
93.5451
162.252
165.9
112.401
66.4879
13.1508
-52.6451
-71.723
-96.4085
-125.84
-85.4033
-6.83532
79.1696
131.399
103.681
15.3928
-40.9647
-27.4171
-12.1637
-29.4038
-58.071
-91.3124
-118.244
-51.7764
-19.8675
-39.6373
-67.6022
-74.8396
-19.6428
34.8791
44.6878
32.9902
103.167
221.118
264.575
144.146
-53.7659
-133.771
-159.448
-100.4
-45.8111
-48.6337
-12.3099
20.2338
131.358
178.191
127.986
31.5196
-30.4889
-43.5344
-66.2278
-127.78
-214.409
-257.413
-243.518
-96.4719
82.1415
166.588
257.908
318.431
286.836
198.399
134.628
109.447
45.7392
-42.9169
-120.712
-133.646
-132.952
-72.7659
-19.7944
-22.4747
-71.1307
-129.863
-171.962
-71.754
61.8503
126.215
11.1552
-138.746
-235.995
-324.323
-307.665
-225.768
-139.091
101.352
339.882
409.734
264.518
75.6866
76.6312
149.483
135.471
137.616
124.63
-112.621
-173.34
-255.845
-380.62
-323.223
-119.055
117.501
170.074
197.119
147.132
97.1077
137.8
191.261
260.54
273.328
-101.573
-409.122
-370.069
-193.538
-63.0217
37.5436
43.2599
203.279
394.837
358.664
308.768
249.14
183.339
34.542
-62.4972
-198.468
-280.787
-354.878
-436.021
-333.143
-48.8603
244.681
361.304
236.969
149.536
21.9254
-180.583
-418.342
-406.846
-178.84
-35.1125
-37.8091
-218.91
-315.069
-161.945
-37.5066
3.02761
131.112
415.074
407.439
340.29
223.732
74.1212
-116.453
-389.058
-453.375
-245.29
20.0087
297.171
545.557
457.809
223.18
70.8907
-21.1064
-289.262
-444.239
-458.244
-223.446
0.278053
-117.744
-102.55
27.9694
40.5901
122.8
200.901
280.032
371.735
442.771
342.573
121.892
-107.645
-7.42197
356.907
291.017
38.4272
-109.09
-103.15
-275.429
-341.881
-14.2094
24.9148
-162.392
-486.161
-628.567
-231.429
132.89
114.368
57.6548
104.457
-62.5916
-22.9554
125.144
27.5175
-163.15
-247.119
-176.54
31.8252
119.795
84.7913
-26.0367
-64.6087
40.5595
336.848
493.522
318.172
14.2595
5.99447
-82.68
-461.959
-627.458
-486.231
-148.484
202.73
525.059
770.535
782.429
396.444
-92.5636
-362.027
-346.775
-176.5
-119.984
98.6424
240.508
115.947
42.4573
-15.2855
-47.9033
-197.344
-79.4211
-51.9145
-238.903
-564.103
-711.272
-558.752
-176.82
191.603
430.835
406.345
397.8
383.761
258.801
1.41862
-224.169
-214.121
6.25946
50.9041
34.2597
127.904
186.915
273.909
232.108
250.263
260.592
47.6818
-272.891
-390.299
-299.526
-266.403
-332.129
-205.436
110.058
122.535
19.8026
82.6943
96.2488
-131.045
-307.219
37.81
180.757
11.6111
-143.075
19.316
191.666
439.939
282.889
139.304
108.628
58.2881
-63.2894
-316.737
-499.308
-463.304
-223.038
35.6744
141.87
203.499
219.593
95.8771
105.77
124.822
61.2198
-9.89125
1.71167
-151.972
-17.1794
-49.66
-222.017
-183.332
-30.1983
133.616
250.046
334.604
217.639
-98.1798
-162.641
-120.621
110.422
232.904
13.743
-147.611
-120.578
-152.652
-12.0307
-41.9626
-86.1336
-23.6804
143.523
168.728
114.264
-47.2006
-240.08
-185.211
-77.5596
156.172
125.655
60.4538
-101.778
-410.519
-415.1
-74.4593
108.288
96.4487
87.7268
159.707
46.573
-57.7816
29.8668
303.513
374.562
328.514
260.887
121.132
-132.672
-370.616
-201.639
-14.2596
-29.7665
129.971
177.903
-95.7145
-287.283
-156.982
14.8504
65.3367
125.057
70.1098
-133.497
-263.082
-254.714
-169.167
-67.8642
-52.181
30.3596
192.307
197.339
216.992
173.317
43.1703
6.11449
29.1722
67.592
-15.8094
-216.629
-193.125
-76.4701
170.579
328.299
193.477
26.5295
-73.3736
-173.393
-300.203
-157.004
97.7749
57.4161
9.56762
99.2315
-75.3104
-266.341
-239.336
-89.5448
-14.1288
65.4411
74.8755
106.151
118.444
67.6792
46.3814
29.5556
129.304
195.749
230.131
181.047
113.679
143.189
-11.1088
-241.665
-213.082
-36.087
50.5776
-35.1807
-18.1436
14.6801
231.719
185.662
-229.66
-437.112
-371.449
-338.164
-236.71
20.9787
141.327
107.165
-112.248
-73.3955
62.4997
47.0412
80.3557
-23.4911
19.4654
162.561
202.328
124.516
-90.2835
-41.4696
150.065
249.559
193.778
165.406
68.1978
16.9623
-19.6788
-46.94
-133.115
-200.044
-64.1069
76.1935
53.836
34.1143
-67.1644
-68.3071
-74.9889
-133.444
-175.965
-48.7208
50.9001
-128.295
-104.397
3.62392
51.6309
-30.8714
42.0872
163.995
147.185
-72.9845
-153.583
17.8123
186.962
208.62
138.788
-2.6343
-115.142
-69.0874
-28.4593
-120.327
-97.7627
28.9432
54.3782
13.6505
-19.6531
72.603
208.532
64.4767
-124.483
-274.137
-324.686
-109.041
162.758
130.511
109.216
183.126
155.983
79.9275
23.5108
-68.0018
-57.5337
102.898
128.391
136.215
91.9891
-66.8228
-280.261
-335.832
-227.142
-7.61075
104.641
21.7104
-106.841
-34.6897
27.3741
-29.8166
-51.3848
-54.5966
-48.7816
-54.5989
8.85922
65.7144
62.1375
117.899
163.211
125.722
62.2971
111.621
213.137
122.378
-60.8565
-215.452
-156.021
-82.3862
-68.6189
-8.52295
88.4806
170.524
108.634
36.2212
-26.0505
48.8324
101.077
-11.4425
-174.513
-311.581
-278.247
-12.9886
197.451
249.581
142.772
4.14531
-207.48
-229.964
-195.068
-197.564
-85.8685
-14.3773
94.0216
121.786
68.9547
-4.26485
-51.0135
24.7107
118.496
161.332
138.648
23.7976
-99.5551
-144.771
-32.5976
127.083
255.95
293.68
154.032
48.073
-21.3106
-101.304
-80.8158
-48.2526
-47.152
-124.876
-147.333
-128.873
-104.564
-11.7586
82.5424
78.1899
64.9108
90.8248
162.357
130.9
-53.3269
-190.334
-192.873
-165.492
-68.0263
30.5158
-13.7505
-66.0397
-65.848
-59.4155
-31.4182
26.7803
86.7213
61.9298
-16.3757
-83.3939
-72.4598
35.4094
9.2085
5.79385
137.949
117.717
109.962
111.034
99.9118
26.684
-11.7172
17.1294
-2.71113
93.8942
61.0573
-88.3706
-82.6303
44.5061
82.2959
56.5193
79.9221
22.6531
-71.3316
-239.009
-378.901
-291.714
-77.5841
99.8211
129.186
105.451
131.223
196.305
158.596
84.4453
-13.4038
-77.684
-103.685
-110.842
-85.4273
-20.5256
-44.2694
-90.0444
-37.4386
12.4504
2.7113
73.1217
196.8
234.69
14.392
-269.419
-316.719
-243.342
-72.4891
-53.9125
40.8389
126.516
141.316
178.14
178.731
102.418
31.9966
-31.9291
-35.0029
15.1471
103.935
180.073
30.0163
-159.526
-114.942
91.6481
225.63
120.379
-62.0363
-147.799
-117.985
6.36457
-11.1598
-89.4868
-91.7847
2.98908
2.83397
-58.9939
-99.6095
16.7801
86.5298
-3.96841
-108.102
-193.422
-121.241
102.13
52.2878
20.9273
14.4435
18.4228
-77.7859
-161.149
-58.5706
73.1191
89.069
86.0797
1.67703
36.7359
78.0138
31.415
64.6188
161.475
236.964
125.773
-15.7235
-115.473
-65.3195
7.53782
38.4243
32.3766
-6.51339
-72.3124
-165.328
-236.692
-190.907
-84.6888
63.2441
177.02
252.999
162.312
72.7191
-40.5961
-93.8263
7.06957
-8.20369
-30.5707
-14.5221
-78.3746
-49.6677
-30.1907
47.3732
23.602
-39.4539
-54.2258
4.46391
4.6365
-70.1182
-111.909
-31.848
-54.0852
-115.492
-52.6836
53.6098
74.2224
45.9192
8.72887
-78.3764
15.7703
161.885
106.178
-23.1324
38.8106
123.552
120.841
38.6777
-6.68705
3.03048
-32.9201
-109.862
-69.6455
-8.09798
58.9226
157.476
167.4
62.2996
-56.3314
-33.4453
12.038
3.22357
-0.677342
-50.2885
-126.214
-147.108
-109.396
-57.8994
8.11966
107.286
126.658
-13.0725
-160.907
-226.791
-182.256
-176.339
-41.3638
108.019
137.866
110.731
64.6952
39.6934
33.406
52.1048
88.4058
115.536
42.5402
-21.0252
-34.9594
7.33206
39.4157
46.8115
66.2355
104.844
89.1078
-85.1406
-165.693
-79.649
3.04248
-1.00034
-95.22
-148.901
-62.4094
18.6723
11.0066
43.5083
184.466
135.06
33.526
-49.316
-149.24
-96.3617
40.1662
139.349
26.6989
-35.6905
-66.1448
-71.2737
-69.2422
14.7306
80.9411
47.264
-16.8826
30.9919
-20.4075
-111.626
-85.5368
-16.5038
-12.7705
-38.6293
39.5036
-71.1977
30.6507
188.306
179.929
108.247
-13.3938
-66.718
-45.4234
-14.6647
-5.5965
-15.6165
64.3745
88.4632
168.434
163.895
-33.6983
-158.835
-86.4526
-67.8664
-158.534
-146.102
-98.1234
-73.5655
-123.382
-105.754
-15.4885
-0.484444
33.1496
79.5514
159.709
74.2211
-6.3747
38.2977
58.9125
17.7811
-0.687954
48.6053
48.9846
-14.5753
28.7356
159.804
233.534
92.6208
22.3672
1.47807
-127.548
-100.962
-62.4844
-72.9119
-58.5177
-15.9439
-56.854
-67.9622
-36.819
57.4516
130.936
75.4039
-24.9093
-98.8576
-132.755
-56.8715
-76.2893
-43.8494
-35.6391
-42.8713
146.163
157.361
44.1104
-110.097
-218.868
-171.925
-42.2845
110.304
138.914
24.3178
-69.0147
-59.0957
-12.1832
88.5469
128.458
81.2306
68.2069
39.1308
89.8679
83.6928
28.6682
-24.7087
-20.4706
67.5977
-3.68987
-22.4375
-79.2333
-217.591
-195.711
-35.855
77.2266
119.69
199.689
262.054
137.535
-39.5889
-150.698
-204.93
-238.362
-86.6365
-6.55506
-19.0724
38.3961
16.2237
76.2385
169.471
222.837
157.842
-45.3475
-242.652
-159.795
14.9363
-99.0556
-137.725
-36.9295
8.75139
56.5181
58.2402
23.9286
10.9373
-21.3245
-33.1081
9.83279
27.7462
-29.3844
-48.4532
-31.4713
48.0047
112.382
174.037
98.8195
6.56891
-7.27251
-66.0006
-54.9657
-22.284
-43.218
-16.5862
15.6695
7.05834
21.4938
126.847
145.385
10.5885
-70.3216
-81.2858
-108.131
-163.459
-142.345
-40.2596
60.7393
123.222
29.5172
-98.7467
0.528994
141.422
109.026
8.9316
46.2425
26.9517
-63.3868
-91.2316
-48.9046
43.5356
88.8331
88.4761
93.6271
-0.813468
-21.12
-75.6788
-180.136
-204.541
-68.7992
32.5781
0.862816
-63.4657
-71.3109
-1.93076
125.286
111.552
128.91
100.401
-59.6511
-122.835
-131.986
-129.507
-52.9152
44.3525
139.31
190.683
144.694
9.54851
-72.0161
5.33894
57.8637
157.736
205.499
48.8203
-74.7662
-111.863
-169.966
-184.929
-161.441
-18.6715
95.1169
94.3634
24.0001
0.496669
-43.3819
-51.183
-91.1485
-45.5514
122.299
133.109
23.7469
-80.5528
-36.3194
108.358
48.7025
-42.4601
-0.0166926
-18.2541
10.0441
-3.59675
-10.8582
-31.3207
-40.2826
-9.69938
60.8418
77.9139
59.2397
-46.2703
-107.956
-19.0523
-1.06723
-73.0567
-158.14
-124.392
-135.693
-81.8662
56.1513
143.431
127.706
103.178
95.7157
104.32
55.3699
35.2307
8.31106
-38.655
-14.1089
106.333
63.3515
-52.0477
15.5474
11.9291
4.95947
5.80335
40.959
-7.41825
-111.72
-48.4128
-17.6244
-69.9603
-79.1558
-47.0071
54.2537
27.3813
-50.6741
0.0471709
143.06
43.4757
-45.2632
-49.0594
-114.856
-93.6111
-56.5691
-48.3326
16.6229
95.6411
106.538
37.9596
-19.0632
-81.717
-48.7614
-14.9532
-35.5153
-25.2513
85.2128
114.468
36.3771
82.4735
91.7803
86.6286
90.1272
26.4529
-68.5239
-120.012
-130.29
-39.7006
2.41216
-26.3635
5.77586
84.5234
99.6224
28.8706
-50.841
7.53812
11.1497
-81.7143
-145.849
-161.967
-148.611
-132.242
-83.3798
38.8729
71.7023
67.9693
97.8227
128.021
141.814
119.109
79.9623
8.84019
-4.92223
29.3244
17.1532
13.7839
-11.4766
31.0472
16.8766
56.1412
69.0873
-79.0709
-152.47
-87.1326
-51.2916
-10.8946
28.3842
6.21567
-42.4929
-56.5062
-50.1579
-20.4324
-44.5381
-31.5186
-11.3859
-0.637126
97.145
109.692
17.3421
-45.2628
1.97025
84.2361
96.5909
20.7921
-15.3044
-25.1039
-32.169
79.0703
118.445
100.622
40.7072
-134.609
-302.957
-355.705
-187.28
-42.9349
-15.3201
30.4202
101.762
119.034
99.3483
98.1596
109.545
42.939
11.5907
51.3494
60.4515
-54.7411
-67.8558
-80.9586
-55.7714
74.6437
148.811
170.659
112.402
-3.07815
-6.69396
42.1965
-27.7773
-48.4232
-48.6247
-88.8635
-75.9415
-6.74423
35.901
-16.4959
-68.4313
-74.6774
-75.6603
-21.8753
-31.9389
-49.2818
-20.9268
73.8527
92.896
32.6747
-46.5443
-71.7762
36.636
67.7752
0.91844
-26.5486
-6.2216
39.0025
-32.9125
-66.9632
-33.0516
30.4377
44.1536
-29.4483
24.9603
166.703
147.344
-0.52209
-66.3575
1.2762
-2.49771
-23.46
-76.4642
-186.842
-252.588
-107.609
-42.5559
-10.4922
151.418
216.402
90.4412
-11.6032
37.0806
206.466
236.516
44.2072
-16.8305
-20.1439
-6.91586
-35.0947
-53.8986
-25.052
-3.02337
2.29429
62.8383
19.2981
-19.3706
-36.1231
-100.819
-142.931
-108.374
-85.3513
-96.0666
-142.394
-99.6501
83.9299
225.928
190.811
76.8447
-19.3963
-58.4647
-135.703
-198.042
-52.202
75.8835
70.1719
126.293
94.2458
-15.5765
-69.6758
-43.4576
-66.9899
-87.2001
-7.56028
-0.869409
21.5248
7.30769
-17.9705
15.0203
128.874
205.23
144.929
112.969
52.7431
-21.4297
-7.97851
-40.7947
-48.3159
26.171
44.8805
36.1351
52.393
22.3766
-29.6675
-51.5117
-123.526
-124.858
-27.6144
46.7526
3.55177
-156.128
-147.838
-33.5838
40.6442
19.5906
-42.4475
-6.65922
12.9606
11.5684
32.9759
32.9111
28.9439
7.74135
-109.291
-141.373
-36.8696
22.6821
51.8177
13.7596
-45.3087
-38.1417
-27.5776
65.8479
147.836
156.428
138.926
8.59424
-32.8087
-47.2181
-8.90635
62.1453
174.425
167.598
44.446
-85.3026
-186.284
-131.454
-67.6247
-16.8665
-8.9277
7.59376
55.6254
34.6002
-75.4582
-65.055
-25.1883
-38.1858
-15.8379
48.3891
28.3656
-2.60555
6.84549
74.3905
200.169
227.691
111.709
-95.3132
-117.634
-103.873
-153.675
-202.373
-199.14
-116.605
-41.705
14.1281
99.5427
145.59
66.8244
-26.0028
-46.1002
-25.803
-44.8264
-64.6127
-23.3444
-30.9207
42.5938
153.915
110.943
92.8864
81.2799
101.807
76.275
45.4641
59.0894
10.1924
-71.7988
-82.1014
-41.89
-10.3827
20.6307
27.829
-39.5888
-37.9845
-44.2053
-2.76872
-0.0398231
-5.39894
4.54186
1.05094
27.8894
6.77451
-37.7604
-165.845
-186.703
-68.8181
16.3169
70.183
64.2932
27.5598
-3.84534
-42.6446
-44.2826
5.52405
20.4219
16.8258
12.5744
-15.4685
-0.996974
-3.04362
60.1054
154.123
127.712
111.506
97.2227
33.5801
-56.0956
-140.016
-110.978
22.4086
54.1499
-3.90751
-109.146
-190.95
-127.162
-40.3398
-16.6276
38.9735
105.626
113.506
40.1461
8.48972
40.0366
42.8129
3.8839
48.9547
133.58
124.548
-8.65095
-128.062
-70.7396
31.6657
44.5759
-31.9903
-140.302
-145.961
-87.47
-42.2699
-29.567
-6.30323
56.1529
135.495
160.429
106.243
-36.4833
-192.993
-206.045
-164.262
-15.308
97.9732
107.932
77.9624
110.11
91.7924
70.4872
16.1014
-39.9226
-62.2181
-22.6524
52.4678
17.0947
-123.227
-105.65
38.8535
131.93
136.457
57.7173
49.5182
-28.461
-88.3259
-98.3097
-63.1513
-29.913
-1.4867
-34.3774
-11.8887
104.88
98.2253
-41.6389
-116.623
-112.559
-144.13
-131.675
-85.3507
86.7914
123.247
63.0175
111.629
164.351
90.3134
-45.4056
-150.405
-150.345
22.1425
131.94
159.393
101.24
34.5828
-1.27173
-23.4543
-13.8682
50.49
7.11679
-80.1587
-184.085
-109.93
52.839
70.4542
-17.6085
-14.46
75.4086
82.8151
20.216
-54.2878
-111.252
-145.546
-146.677
-77.0294
-26.7077
0.650503
20.1984
67.6556
149.111
133.55
77.0483
-7.80139
-48.9495
-9.84005
17.4868
22.0569
8.57102
-4.72197
19.712
23.4761
71.7694
110.9
103.696
5.50452
-140.757
-207.58
-82.6781
44.2605
-4.77242
-85.3785
-64.4697
-15.0592
-7.52028
7.74644
53.3538
74.3145
52.5196
60.3656
45.3328
53.1468
58.8426
-23.4989
-86.5236
-32.53
57.7724
37.0336
-42.0263
-93.448
-29.4916
90.2682
10.3068
-61.4255
-77.8065
-67.9282
-33.2802
-65.6112
-80.2796
-29.2389
80.6649
129.256
117.492
93.9329
-7.7591
-27.7032
-21.1581
41.0839
28.3565
-68.8498
-161.746
-189.853
-110.981
13.1934
39.847
52.8632
72.1056
101.235
96.0796
73.4602
79.2682
-11.2427
-105.37
-39.2015
121.674
134.488
140.598
85.8921
26.705
7.78629
-21.8341
-27.4499
-10.2823
-44.5323
-73.228
-120.543
-111.191
-91.687
-71.7043
-5.60862
-38.6246
-69.9049
-84.3516
-67.102
-12.8145
-17.7921
-32.1599
83.2716
121.481
63.4363
54.7737
74.2894
63.449
-4.12604
-6.41114
-4.20135
15.581
23.6406
42.7539
11.3213
-104.94
-125.023
-38.7614
-25.49
27.6114
85.7934
99.799
30.5066
-5.22641
72.6107
79.3037
-29.4335
-62.7288
-34.2869
-48.7463
-25.21
-7.8768
30.3913
8.91468
-29.8487
47.4042
194.1
175.273
69.4549
-93.3144
-181.202
-254.835
-308.232
-188.776
-67.7773
25.4031
98.3672
107.071
139.57
188.172
105.902
-19.9281
-33.5971
55.471
105.627
91.4989
-49.4302
-114.588
-90.8648
-42.227
-7.48701
69.7246
119.956
69.6654
37.3778
-24.5779
-56.6165
-31.3042
-38.649
-27.0783
-39.4203
-42.1648
-43.7568
-42.5074
-22.7686
-36.6314
-52.8558
-7.90486
15.5242
-7.06296
-10.528
-8.17013
24.2301
56.5579
84.8029
89.9644
54.2402
28.189
-3.91909
-32.3355
-35.063
0.130486
23.2134
-44.2337
-103.675
-40.5443
36.0987
21.1692
-1.66955
54.9626
138.439
86.4442
-61.3906
-117.179
-119.487
-124.223
-41.0494
82.7724
142.823
120.416
42.7322
-37.8449
-74.1849
-57.7986
42.0689
75.7672
31.6167
10.7435
-9.79709
-111.221
-164.523
6.63764
145.826
110.936
12.0281
-48.3124
-47.8102
-64.4194
-73.7078
-42.6233
39.8903
115.238
118.914
69.5517
-10.1991
-54.5596
-31.409
-33.9755
-76.1336
-51.626
23.4679
4.07723
-19.0701
-45.5206
-36.9926
50.9401
50.3386
-0.561549
-44.1466
-36.448
4.44299
53.4408
75.7797
74.2691
-11.3768
-96.1299
-139.038
-71.0199
42.7382
150.935
129.9
3.53167
-45.4648
-24.8169
-16.8662
18.1588
76.1635
25.9909
-14.9553
-38.9491
-61.2976
-59.446
-59.8769
-63.7121
-37.1405
-20.1486
-5.40775
136.01
179.601
116.32
-4.49095
-109.473
-109.116
-4.33222
74.4167
67.387
33.2948
1.77048
-41.6497
-95.6803
-57.1362
19.0172
45.0485
45.4745
-0.133789
12.138
57.1049
7.83058
-48.1743
-136.612
-137.938
-52.2724
119.84
167.131
118.805
66.7794
-38.1214
-119.986
-82.5303
-29.4177
-7.38935
-39.219
-78.4308
-55.7257
-3.30284
-6.0846
-4.46088
-26.7547
9.43995
59.5083
60.6228
135.581
94.7671
-44.9649
-118.111
-132.318
-28.5108
141.099
142.782
84.4699
27.548
-9.63004
-10.0992
-16.2998
-9.55699
14.342
-0.204019
-26.4553
-52.1739
-42.9063
-14.7087
21.1275
-29.3635
-17.2145
30.2784
13.1605
-23.1659
-18.3991
2.95076
17.6308
12.0924
-13.2006
-74.4234
-61.2218
76.2924
106.094
77.7363
10.1317
-60.711
-33.3304
-51.4271
-73.7802
-93.6688
-90.2391
-38.8216
9.93676
17.2139
59.2861
93.7853
84.5055
51.766
16.523
46.9998
92.773
4.65808
-54.5125
-52.7568
-41.9997
13.5433
63.4106
77.2028
13.9762
-48.5956
-55.8842
-0.250355
21.8529
12.6209
-50.5354
-46.5182
-28.7259
-50.8363
-8.76415
-12.2355
-91.3737
-21.6742
58.0787
46.0426
-0.540554
0.611958
-32.5802
-29.0844
2.19154
46.7771
42.4139
-45.9496
-65.049
-25.5928
-26.8441
-33.5313
42.7045
106.286
89.753
110.844
150.656
44.8762
-39.8208
17.4601
3.75401
-21.4528
-38.8382
-22.8292
-27.9969
21.695
62.8125
12.5134
-69.6296
-120.035
-150.149
-135.914
-53.5588
-26.8268
-56.407
-55.6745
-15.3639
58.899
102.667
19.9175
-5.51036
77.5967
165.992
159.624
80.2814
-29.4705
-65.871
-59.658
-16.8875
19.8533
14.1377
17.885
43.7961
32.5916
-42.1543
-57.1218
-93.7919
-96.9776
-19.7507
37.766
79.8718
18.6507
-61.1153
-35.8722
30.245
19.6049
35.0971
48.7598
-0.468697
-41.9614
56.821
111.64
-19.0618
-85.4107
-60.0395
-28.6425
27.8169
34.284
-41.4045
-78.5517
-45.4328
-34.1476
-33.6946
-14.0097
5.20614
17.2463
44.1101
64.9945
35.2261
14.9905
-22.1925
-58.2958
-49.2463
31.3796
88.2637
38.5702
-22.9062
-60.3715
-28.3504
37.5781
46.5753
60.8192
131.003
118.599
-12.7447
-101.567
-172.067
-161.719
-60.9521
72.1649
104.45
34.9436
-7.6024
-16.3696
-35.3964
-18.9258
29.3039
74.1965
58.7514
53.3845
43.9568
-52.0716
-173.198
-165.678
30.4147
179.503
203.99
141.425
53.7443
-71.054
-118.46
-71.401
-8.0814
-21.2522
11.01
32.9018
-30.6053
-92.1416
-123.321
-164.786
-126.643
-43.27
38.5534
34.9119
27.5795
36.1904
-60.272
-72.9672
47.6456
88.4769
71.4917
81.1751
60.1673
64.5652
107.172
76.1856
-4.92617
-37.571
23.9353
32.1669
-13.0647
43.6332
82.5183
46.6817
-29.0365
-106.875
-64.6177
3.88965
-18.2576
-21.7951
-20.8046
18.2956
6.59794
8.99135
-32.6088
-88.4487
-84.2888
-54.468
-47.3368
-19.4118
35.5116
47.596
-5.82617
-51.2078
-44.6058
-3.34143
38.1332
41.84
37.0692
67.5352
84.7503
26.0896
-62.4523
-112.537
-110.845
15.1538
102.486
74.5711
35.6199
11.932
-24.6538
-81.1518
-2.18534
122.036
163.888
102.784
-11.7122
-114.569
-61.1929
-2.27779
-17.7391
-29.4436
14.4874
11.6978
-3.42061
-42.1536
-54.6997
12.5849
40.479
18.7878
-33.93
-67.8264
-40.0027
-37.8024
-54.0865
-21.5686
22.0538
29.414
-5.12021
-23.6074
-23.4191
-10.5047
4.56343
50.3926
103.699
96.6231
72.6866
52.2828
-4.96309
-32.5681
-12.4083
14.6143
-25.0785
-22.5048
-26.1238
-82.4411
-48.8588
32.2276
9.7956
-75.2985
-49.1849
-10.6152
-4.38211
-10.9635
-28.7234
11.2037
27.4694
49.6933
70.9008
54.4846
38.9432
3.43914
-34.1631
8.64336
5.90029
28.4346
30.2068
28.3628
-0.543015
3.26003
36.6454
34.1665
5.1206
-15.4671
-23.4192
-22.3984
0.905162
-32.7391
-38.3575
0.547518
28.9899
10.7897
-57.898
-121.993
-115.986
-31.7097
-26.8169
-62.5091
-18.6688
74.8363
79.9613
27.0306
11.3132
35.231
57.6851
7.14188
-16.1924
-23.0301
21.758
-5.69214
18.5129
72.9984
12.2229
-75.8361
-92.6069
-97.5731
-57.5485
-2.53367
70.5978
147.472
149.87
103.782
38.0504
-52.4954
-102.073
-116.375
-65.3508
33.8453
3.56633
-6.50423
7.42669
7.07999
78.8433
109.389
86.7846
101.233
140.066
129.255
-13.2234
-139.104
-170.897
-154.858
-75.906
10.2237
64.472
13.4469
-63.0428
-115.321
-65.6903
35.2733
6.22373
-75.7599
-96.5578
-105.439
-49.331
-6.77487
27.6027
65.7801
80.0723
25.6761
-17.1901
-29.7763
5.12067
12.4363
-1.43488
52.4489
120.012
105.854
60.2355
-5.5423
-74.8097
-4.30089
65.8942
105.587
56.2632
-21.182
-69.9358
-45.426
3.75327
-2.3978
-17.2861
27.5
76.2349
96.0323
38.0657
-24.4351
-105.575
-125.556
-179.334
-154.459
3.31478
73.1826
60.8475
51.2813
38.0922
27.9436
16.1653
-18.9305
-26.3681
9.78099
31.7825
25.5739
-22.9032
-35.8832
-33.0868
5.62075
42.0948
6.71601
4.03607
33.8677
18.6975
38.8104
39.9675
-19.2923
-22.7282
-0.91371
-14.3284
-60.8958
-86.133
-5.10957
8.57224
102.981
127.596
10.0535
-110.801
-159.262
-105.384
31.2596
74.6278
40.3713
19.976
-51.2232
-98.2166
-55.8625
-32.8253
4.88704
63.1716
93.5662
79.1635
-9.58454
30.1184
12.2698
-24.0485
-7.28591
60.1724
127.25
95.7239
15.1849
27.633
53.4733
0.278503
-50.1482
-72.4815
-66.1235
-49.6505
-42.7008
-47.1635
-35.7649
-21.6154
-23.5044
-36.5688
-62.4425
-19.5624
-6.01059
26.4699
18.7809
-62.5411
-76.9319
-51.59
17.9818
93.878
78.8323
63.2709
57.736
64.5349
52.5038
50.2942
51.8585
80.6206
62.8574
-5.83941
-69.1439
-126.902
-105.404
-33.3532
15.7934
51.3122
46.4817
19.5424
-58.1846
-123.583
-75.2733
23.4572
64.4726
53.3512
37.9755
-2.44644
-59.4437
-71.172
-86.5084
-83.7316
-27.4713
-8.15245
76.9744
132.304
98.8404
45.9734
6.82733
-11.8061
40.7604
83.1457
59.8048
-12.1404
6.38481
16.8326
2.97179
-71.2765
-145.501
-185.345
-100.344
-45.2524
-27.7506
-2.53126
-2.12288
5.62486
30.9824
95.7701
129.848
136.273
26.5091
-41.2659
49.9917
68.6978
-50.84
-144.316
-171.726
-31.9994
68.5228
70.849
81.421
91.2928
87.0739
70.5132
21.6124
-60.7253
-83.8567
-67.163
-56.361
-12.2078
-13.8462
-38.4057
-68.1677
7.99461
71.4994
90.9961
69.4209
17.9954
14.1991
41.3192
19.1151
-9.51596
-53.7297
-55.4276
-67.5297
-82.0374
-86.779
-97.8399
-78.8657
-25.6115
73.592
113.438
71.2874
47.7268
51.5732
72.2015
7.43443
-73.4432
-50.806
20.9578
46.4576
0.811629
3.70383
-9.46267
-23.4437
-0.991694
72.8472
87.4543
38.0657
-28.3636
-63.4545
-35.8706
-42.3494
-50.3959
-65.9247
-100.389
-84.808
-50.7591
16.863
69.9596
122.673
112.97
48.4148
-18.7446
-26.9161
49.8002
123.063
98.5477
18.5405
-50.3972
-68.9913
-53.2833
-39.8904
-61.281
-92.5886
-108.98
-0.0314896
115.35
119.094
40.7844
-52.4625
-81.617
-89.2526
-30.7159
25.2379
3.99773
-55.7964
9.97849
85.8447
92.0112
35.9945
-35.2923
3.94427
-7.33331
56.2523
152.919
106.658
-5.09092
-87.3872
-100.241
-120.019
-104.687
33.4504
93.3643
37.07
-6.85352
-35.6601
-58.8426
-55.1182
-60.1634
-25.2893
-2.47096
7.73972
36.7012
27.9688
20.6704
35.9117
12.7361
-9.30109
-24.1586
7.75995
63.0729
90.7998
58.486
30.9703
-14.7856
6.94677
13.3183
-9.11066
-10.978
-39.8584
-58.5481
-36.2224
-17.1365
-3.75825
8.24092
5.41282
-2.28216
19.0816
41.9179
-19.3397
-75.468
-129.735
-16.6678
116.766
82.2016
-30.0371
-56.0711
-114.798
-142.412
-29.573
129.227
211.355
136.84
-38.3534
-105.983
-96.0431
-63.6468
28.7557
0.0728976
-5.29506
79.5962
67.6599
-10.1131
-101.357
-54.5328
67.0881
125.881
156.893
133.475
65.9267
-26.6308
-132.403
-138.171
-53.9528
-27.3995
5.78189
68.1192
29.437
9.69213
14.2452
9.98557
-25.358
-26.831
-5.54426
-15.3835
-63.2259
-90.4376
-53.3194
0.250356
6.74702
10.8673
-38.2931
-68.825
32.3264
88.084
39.2723
-24.0948
-32.4968
-43.4224
-107.099
-30.2913
96.4205
68.1787
10.7798
31.4791
63.5282
11.7129
59.8968
90.3401
58.1347
-4.48183
-30.3805
-8.00065
-25.0914
-22.3633
-18.7342
-39.9273
-25.4169
84.7411
127.622
-16.0472
-57.7362
-16.3047
14.2019
-43.0612
-103.455
-34.0238
19.7576
-30.2267
-58.5621
-49.7851
0.735612
55.4984
46.381
14.5546
34.8028
49.7907
-8.64983
-46.1334
-28.583
-44.6367
-74.3073
-56.6345
22.1852
71.3571
44.9575
-8.34242
-76.0326
-42.2208
-6.98265
21.4503
44.3266
58.5475
91.8266
76.2265
34.9814
81.7639
72.4483
-6.98438
-22.0774
27.031
3.57596
-49.7742
-82.6865
-92.0237
-91.7555
-44.4167
61.7996
158.33
106.279
9.01355
-120.584
-176.147
-184.048
-136.957
-78.649
-4.29176
130.978
157.825
101.488
44.8258
-3.07547
-60.0053
-143.27
-75.1259
23.3532
15.8265
-17.6616
-76.5575
-14.7598
162.185
281.034
261.687
128.147
21.2925
-36.1476
-125.556
-188.151
-127.164
-87.9769
-9.57733
149.618
203.563
123.489
45.3717
3.06237
-6.52789
-27.4493
-74.2609
-99.9351
-170.529
-185.346
-133.707
-49.7671
-16.8712
-5.89783
4.67565
3.83104
29.0311
78.8681
78.6023
-30.6071
-66.3446
1.98024
21.944
-44.6242
-96.3124
-53.8497
1.96577
107.447
110.562
76.4532
67.3972
73.5127
127.139
152.444
76.7923
-10.6582
-56.4644
-45.2669
-38.2584
-61.2568
-43.6552
9.07624
-12.167
-19.2943
-1.00735
0.312566
2.39453
-45.0362
-12.7956
44.3495
-13.2923
-88.9942
-128.806
-26.0922
55.079
30.6727
14.8267
2.31666
-10.4492
7.71389
-4.50879
4.66685
28.2959
7.59966
24.736
-40.3169
-104.214
-75.8958
-85.1815
-6.27606
102.893
125.857
44.9897
-48.7634
-54.1094
-36.452
5.5996
64.5597
71.0436
22.0915
65.6782
58.2344
3.73609
11.0516
-19.427
2.85324
84.0433
85.0889
38.3987
-88.1891
-130.455
-80.3196
-15.3295
-6.50195
24.7838
32.8952
0.269229
-64.8012
-71.7728
-29.2451
-62.2643
-46.6149
28.6647
118.33
108.164
34.5752
39.801
-3.59106
-30.1306
-33.7997
-15.2645
4.71434
38.9881
-21.7659
-49.596
-33.7914
-34.5593
-38.6759
-40.3298
-63.5077
-58.1239
15.501
76.8647
27.7616
96.6036
106.68
5.14813
-54.1357
-101.489
-44.8244
93.4239
131.251
-15.4777
-71.6525
-56.0553
-44.59
-12.5188
96.6801
152.438
90.2885
49.0407
42.5396
-14.3898
-55.6648
-117.897
-134.632
-114.901
-44.275
38.21
79.8522
61.6653
-8.75557
20.3107
-2.30122
-61.1533
-91.758
-97.5604
-25.2104
11.6839
56.9517
58.0758
35.084
-3.52154
-23.0384
-24.2566
31.1382
96.8725
99.2983
23.5285
-36.8808
-60.1137
-19.1112
19.7796
60.3465
66.2987
102.891
37.4682
-115.015
-122.399
-36.6983
-10.8944
8.55269
19.1817
-11.1835
12.3027
78.1693
62.9193
2.99769
14.0899
-62.3157
-119.105
-90.6004
-39.8526
18.7518
56.7159
60.9475
-0.482798
-47.0732
-60.8683
-10.6439
78.3104
38.2707
-51.9594
-18.4968
-31.1239
-115.765
-73.0314
-22.547
23.7255
25.0838
46.2065
48.7422
42.5665
41.3604
53.0837
47.8193
55.6986
33.8358
31.6031
32.4719
-37.6118
-75.993
-4.58853
15.4218
17.7362
-5.12176
-49.0014
-13.9683
47.7972
129.527
60.7249
-80.0754
-105.947
-17.8188
38.6777
29.336
35.9857
49.9922
-76.97
-207.612
-117.796
-80.9376
-93.1378
-130.564
-58.6861
71.5798
91.8392
52.6334
64.2909
111.22
112.643
131.014
124.196
65.7138
-20.8198
-20.124
-20.1135
-14.804
10.8344
59.5866
-21.1634
-64.6634
28.3003
85.875
36.2007
0.178929
2.21405
-36.9097
-151.475
-182.276
-122.139
-33.6688
-11.5978
-37.4082
-35.9313
-46.1506
-8.30168
29.1999
73.8204
75.0209
63.0645
75.3087
1.94793
1.91788
4.19216
-2.77684
-22.7667
9.61159
41.2779
-29.4168
-85.9944
-43.1599
16.2357
29.8013
-6.1145
-53.7866
-14.3284
36.8004
73.4962
65.9152
39.4562
22.2019
34.8265
70.2998
74.8375
-0.165673
-73.7169
-79.137
27.7875
48.1814
-37.3244
-57.954
-28.7957
15.5093
49.7608
56.7052
-37.9516
-92.0375
-99.5006
-121.983
-76.9206
38.7205
132.604
104.671
45.5361
12.2296
5.42252
-57.6661
-171.727
-115.21
-43.1406
-3.94138
26.6155
19.2684
45.1214
105.106
148.997
119.471
40.3122
11.8805
78.3785
61.081
-40.9626
-109.574
-104.329
-102.539
-73.8086
-10.4075
33.0009
26.6532
47.7672
36.4696
21.9372
10.0268
5.37103
-54.6475
-67.347
13.1703
17.5135
-2.35353
-39.5122
-42.2479
-19.8894
-13.857
-45.8226
-4.3096
104.009
106.344
46.9141
-19.2644
-51.3437
-67.2631
-72.482
-73.6746
-36.3175
26.3975
61.9589
-3.96617
-10.7141
74.79
59.1035
27.2271
26.4007
67.3158
62.6852
2.17406
10.2106
22.4015
23.2432
10.4552
8.76807
-25.6206
-41.995
-27.174
5.94458
77.5288
11.0998
-11.8778
15.0279
-96.5901
-203.752
-226.097
-121.739
-0.509564
94.2791
153.45
117.943
31.3743
-31.6963
-90.3358
-25.6408
40.6439
38.2552
53.7026
13.5567
-60.3097
-36.3446
-16.1323
8.67714
54.5736
41.8659
37.1698
39.4581
29.6088
19.3839
19.1501
13.1297
14.069
-0.198233
-22.9526
-13.9078
-14.4244
-8.17309
-8.4223
-30.9278
-7.0562
0.491232
-44.9643
-71.0656
-58.369
-1.35924
16.3323
-29.2343
139.236
171.564
16.7412
-141.276
-140.97
-13.7341
17.9122
49.9153
51.1958
-5.99385
-28.2492
28.2551
77.8841
13.047
-53.8528
-12.2203
18.3078
-19.422
-35.5999
-5.93333
-87.9203
-72.6299
20.9923
77.5095
64.379
-16.7955
-44.1068
-35.8674
-8.2032
43.8378
62.8206
36.0917
-4.14186
-6.70663
36.4252
30.2332
11.7263
0.749021
6.03553
34.7633
-11.2031
-43.5741
-16.4036
15.3063
3.7866
-22.8085
-11.9207
-9.35563
-13.2701
-12.1952
-20.0284
-17.639
-17.4271
-14.4439
8.28528
10.0345
-4.80056
-7.64009
-7.11946
-7.56728
-53.4028
-66.4729
-28.5122
29.1333
61.8481
38.7814
-9.5686
6.81701
106.89
86.583
-18.1782
-52.4366
41.9719
152.017
224.159
146.942
30.7935
-69.4525
-132.175
-188.865
-194.224
-133.446
-92.6594
-89.8355
-73.2865
-9.5566
49.1505
55.6819
-2.60385
-16.9344
57.1329
86.2881
-4.20343
-77.8872
-95.7688
-67.8732
6.64873
66.8829
84.106
123.343
132.267
116.985
88.8599
64.5906
41.321
0.916983
-23.2352
-43.2021
-66.2896
-32.4909
-20.7752
-31.8014
-41.6115
-50.552
-64.5194
-36.3834
-9.4485
10.992
27.3732
32.4544
17.1801
-5.93805
8.82746
28.1889
34.4191
-15.3372
-40.3928
-52.0281
-62.5618
-49.9525
-51.6519
-68.7833
34.5084
133.738
107.091
62.7677
-16.3358
-43.3009
-28.6228
-32.6227
-18.3343
-0.762
-17.1629
-67.187
-129.254
-81.5936
64.6964
129.952
186.803
245.219
169.156
-12.7536
-57.0692
-62.2414
-83.1719
-127.452
-127.241
2.28996
57.0569
11.5707
-41.5988
-54.5842
-10.1828
22.3662
29.2786
64.9461
-25.863
-67.6366
-48.2808
-81.2459
-52.3831
40.8137
-33.2856
-114.909
-55.7075
42.7592
103.882
49.1329
30.6534
64.317
113.824
79.2949
49.1252
43.7337
23.7438
-25.3821
-68.6416
-103.126
-65.9314
39.2023
108.333
154.721
93.5328
-23.2648
-39.1258
-34.8099
-27.0333
-10.0605
-25.6656
-92.1033
-93.6956
-35.0094
-18.0062
-4.40654
2.01258
-34.3069
15.3031
52.7572
-30.0295
-81.2813
-39.0497
-29.9016
-42.2016
-0.622737
-26.0316
-19.7949
31.9285
-3.66491
11.9777
91.8196
104.282
49.9466
1.56841
28.7913
94.6002
115.838
64.2196
11.5861
-43.5475
-101.556
-67.3472
-4.4795
6.52154
-8.85931
-36.7484
-79.9271
-95.6408
-34.9649
-19.1405
22.3661
22.7578
-7.60784
-14.7565
43.9888
125.449
95.9142
59.6404
-0.599555
3.62905
43.0104
-40.8031
-91.7655
-83.5175
-74.9113
-94.5578
-80.3443
19.9157
73.139
91.9949
84.4542
28.1389
-8.3597
-21.9642
-39.7043
-52.2204
-37.9805
-52.976
-37.8183
-10.4666
10.4328
71.456
110.782
93.1585
46.9633
50.3487
72.9756
25.4753
-48.1014
-107.192
-90.9247
7.79322
88.925
39.7989
-67.2302
-126.396
-59.1938
18.1829
69.5468
4.30177
-65.9273
-56.1331
-99.2556
-57.2745
53.9897
128.942
119.334
11.4909
-17.9135
36.273
55.0337
-12.6752
-35.6884
52.7097
66.3647
-12.861
-139.912
-132.174
-50.4333
36.6789
35.11
-16.6472
91.7722
101.742
-2.64406
-20.7154
-6.18044
2.20396
-26.7494
-77.7271
-89.7298
-71.8029
-31.966
12.1525
52.2755
71.381
78.8655
33.48
-3.67813
-7.67048
-3.95168
-15.6951
-22.9717
-2.12176
32.0946
4.25711
-12.5505
14.2564
24.2292
62.1433
34.1185
6.88899
28.2962
-45.2526
-109.324
-91.9857
-28.9426
24.095
99.6001
143.671
136.677
88.3454
-13.1104
-107.717
-158.446
-158.451
-147.917
-76.7398
6.55445
30.7095
17.128
30.6997
4.25635
14.965
95.4187
134.902
61.9322
-27.127
-77.8107
-51.7827
-7.72272
-17.184
-20.6833
42.2504
75.7607
74.7147
77.8339
46.9121
-6.83882
-56.1303
-54.9229
-31.2452
-2.90741
25.8737
-24.6746
-43.9083
-17.1049
20.7922
27.5544
-41.7814
-134.217
-102.862
-71.7597
-41.2541
41.2899
98.4139
126.176
130.869
73.1585
-14.9094
-54.7066
-65.157
-84.2648
-42.7452
23.0377
34.5863
70.2694
97.1714
56.952
-6.34605
-36.9605
-39.5722
-35.3553
-59.2484
-33.7716
23.2407
47.6766
-13.5257
-37.1721
-33.187
-31.9746
1.07963
0.246846
22.6632
114.482
90.7123
-30.4907
-81.3748
-98.7143
-46.1027
73.8266
148.795
142.957
91.3978
-8.64545
-111.898
-198.561
-183.096
-69.7367
17.3976
73.3572
66.1636
75.6603
61.616
-28.9183
-76.2802
-14.5668
-5.59166
20.8253
-13.1285
-67.8273
-59.6168
-54.3288
40.6516
148.32
120.212
65.3724
12.7874
-13.9098
37.1089
36.6828
19.5744
23.157
16.2776
-35.7832
-99.7997
-78.0856
-77.6399
-76.0922
-44.714
-52.1649
-23.2764
42.1447
5.92727
-38.4647
16.9563
82.2554
144.512
112.335
-6.90887
-32.1259
-23.9589
-6.18776
-28.8424
-34.3402
6.46171
21.5722
46.1611
-15.4909
-48.9625
-30.9906
-65.3438
-55.0898
16.5366
37.9119
-1.06428
13.7094
25.7291
-13.158
-5.8011
40.9361
30.6524
-15.5403
-14.0259
-1.11737
66.7203
69.1643
-19.194
-41.5231
-36.1331
-15.6258
15.3906
3.97231
-4.00876
3.06291
40.8766
71.0876
28.3924
-82.4781
-98.093
-12.637
26.2475
0.434401
-52.9438
-93.0893
-49.2527
9.042
39.8458
69.7551
73.0124
43.0737
25.2265
7.3597
-39.6656
-43.2476
-5.90783
-15.4406
-58.6815
-6.03862
107.196
125.435
94.5311
46.6849
-9.11978
-52.0875
-120.228
-110.986
-22.218
3.86918
-3.66514
18.3368
-0.29281
-20.3063
-52.8489
-61.0085
-19.2138
-13.4752
25.2326
97.198
60.3542
-54.3796
-72.8473
-44.1558
3.15135
64.8356
95.8423
105.362
60.7606
24.0276
21.5096
-5.67899
-65.5795
-40.2021
13.6597
11.8938
9.7537
17.1267
4.01738
-4.89753
-56.2118
-102.742
-133.351
-82.5695
-16.7755
-9.35235
-7.56959
-20.0275
121.54
186.08
101.581
12.9596
21.7079
28.3672
-31.5773
-20.11
-7.45507
-28.2931
-74.8405
-108.047
-59.195
-12.9444
11.6954
75.0469
91.0566
59.9394
53.5795
19.5424
-86.4825
-112.288
-70.7207
-36.0947
-7.09729
10.7572
61.6854
65.6962
33.6512
13.6545
28.1331
30.1272
6.2702
-3.18607
-33.4818
-6.95203
-11.9762
11.3424
-6.81898
-53.8536
-67.726
-49.8947
-8.35167
55.4656
70.9285
47.7859
29.4047
-13.4531
-38.7872
-46.4568
-16.1905
7.38244
38.8488
70.8263
71.9626
-30.5521
-80.3153
-40.5906
18.1569
39.1776
50.5465
55.9417
29.5552
-32.1601
-61.9107
-12.589
19.3615
19.5358
-19.6465
-59.612
-93.0482
-40.9362
29.2688
43.2031
19.2695
-4.03224
-37.6432
-35.6838
-9.8492
13.2266
14.1708
-34.0182
-9.52938
55.3956
47.2442
-10.2112
-18.4064
1.17206
4.55837
58.1312
63.7209
42.9866
-49.0345
-133.361
-88.6283
-52.243
-5.24547
54.1568
55.7037
46.0138
58.5154
51.9045
4.00173
17.2696
-26.858
-76.0095
22.9175
41.7857
-39.8802
-74.4365
-26.6599
-20.6684
-28.7557
31.3258
48.7642
31.4876
56.4517
41.4184
13.4248
48.6149
16.2933
-46.8784
-5.49563
21.2514
46.9227
47.7426
-47.6852
-89.062
-58.5454
7.71607
76.3283
117.795
121.15
43.0628
-53.8748
-117.035
-153.765
-251.031
-217.171
-50.5692
-9.53082
20.7256
125.211
146.026
121.03
109.468
73.2484
2.69454
-30.8372
-75.7518
-120.719
-90.8592
-66.915
-44.4685
29.1435
119.04
188.765
244.855
140.993
-42.8708
-78.8846
-65.1559
-109.395
-94.8042
-41.2686
-76.6751
-77.8203
-18.6619
35.5198
67.2509
66.8564
13.587
-15.2909
-40.6424
-39.6402
-0.380542
26.837
80.0495
75.5715
-11.7171
-31.0259
-10.1545
-23.3583
0.525644
19.0169
29.3158
3.05594
25.872
70.6706
-15.3719
-117.732
-92.171
-36.9895
13.535
39.7415
1.30628
33.2732
70.6562
15.6645
-15.8926
-10.9849
53.8388
46.231
-20.1745
-52.0684
-33.3134
-12.8174
-54.4043
-77.1238
-28.8789
20.5926
39.8937
50.6656
83.2435
95.7458
74.4651
16.6238
-71.9637
-68.8761
-105.68
-161.808
-153.257
-112.232
-73.0836
0.747755
96.5544
153.905
145.087
117.043
125.237
172.314
65.3421
-23.0478
-88.5684
-103.967
-52.4803
-72.8147
-91.791
-60.5765
14.8498
92.8236
46.0565
7.78395
-8.61155
-19.9584
-36.8628
-45.4771
-23.9598
-7.9804
14.8506
26.0491
74.3239
76.7185
14.3176
-31.9318
-21.0321
-19.1541
-30.6118
-12.4446
-6.61169
0.494789
23.5071
57.0861
52.6455
17.7953
6.30322
-29.0329
-25.6268
-17.7278
-14.6035
12.9473
-14.5099
-30.2681
14.3686
17.8817
-17.0078
-37.6208
-47.9615
-20.2338
20.6419
27.5345
17.67
-0.43009
-43.2705
-59.521
-49.991
-21.7964
49.9361
115.575
80.6911
-13.0399
-41.1894
-28.4782
-46.2631
-90.1612
-55.6487
-35.8404
-13.5849
12.4279
22.2277
25.4971
55.9849
69.6964
76.6116
79.6251
47.3857
3.10066
-18.722
-40.4197
3.28032
28.1153
-11.228
-24.6553
20.1651
50.9298
69.08
71.2921
45.6934
1.81883
-29.64
-76.1066
-127.548
-141.404
-62.1689
19.0259
39.1133
-1.82998
-28.5587
-35.7183
-55.1765
-32.1101
-23.4538
-2.59762
49.6848
83.3765
30.1548
-28.7713
-53.9987
-22.0251
28.3315
70.4659
89.266
13.9478
-23.8767
6.66051
49.7094
47.3435
-0.218081
-50.4166
-64.539
-62.2043
20.8258
60.7775
17.6299
18.854
-11.8281
-20.1103
5.96203
11.5734
10.4392
-28.6737
-79.7538
13.6123
119.599
81.8404
-66.2581
-77.2017
1.1822
49.1604
21.1943
14.395
0.720572
-26.5306
-4.63923
-6.11727
-28.7773
-46.7739
-47.1083
-11.6131
30.0897
46.1183
73.0265
16.7076
-70.4205
-74.0813
-1.7717
50.4442
3.14114
-47.8778
-15.3269
-29.4298
-66.0703
-100.084
-112.917
-63.2018
55.9552
101.793
99.3913
120.693
145.752
134.651
68.0171
42.2143
-14.0329
-56.8558
-58.3585
-54.7775
-57.5017
-48.3634
-42.9918
-23.0106
3.15803
32.5698
38.3294
23.5512
-14.8106
-0.279249
-9.4462
-59.8893
-103.949
-107.447
-55.8249
-2.01283
-5.4587
-15.5659
32.0539
124.795
161.657
99.7905
36.5005
14.2771
36.1047
38.1413
31.3209
16.9861
-64.5867
-87.4648
-60.2598
-18.9972
2.97347
-0.808875
-31.344
-101.204
-122.627
-66.1393
32.7513
82.4587
18.1859
-8.60471
3.65085
-10.2277
-15.1514
79.4362
85.9987
47.5636
15.4914
-12.9086
29.9181
22.5002
-40.1651
-27.6471
40.8345
21.8933
-9.40729
-15.1182
-44.9851
-87.895
-105.038
-35.3037
64.5521
91.1844
87.8959
-10.07
-19.5406
15.1348
27.8878
12.7312
-49.5665
-101.381
-105.365
-68.1607
-1.95155
75.4471
122.256
95.036
28.4854
44.9842
43.498
-123.688
-111.355
4.30052
30.4443
75.0867
51.8993
23.7407
19.9196
2.92948
-15.33
-30.7863
0.841089
49.4807
17.7374
12.5745
-38.4353
-140.182
-195.528
-113.648
47.2777
145.924
163.117
80.4374
-37.2484
-79.1309
-72.9888
-107.275
-41.3267
68.0223
60.157
3.72837
-4.70713
22.7088
50.9055
8.09815
6.37509
81.8419
110.189
7.29559
-58.2816
-20.2274
-81.1587
-110.48
-27.8675
15.7589
25.6876
31.1532
17.5717
-35.6933
-50.4772
6.63186
-14.4117
-23.126
51.4412
61.3137
1.74268
-18.6608
105.161
105.743
16.7917
28.6758
-6.03361
2.15469
-14.0068
-60.8853
-60.4032
-29.6595
-28.6939
-22.1369
-21.1055
-73.4361
-70.8604
-23.9191
32.7184
135.269
128.611
35.5314
-85.0584
-94.9171
-90.0652
-79.8556
-62.7221
-57.7334
14.574
69.2483
43.8698
55.5507
20.6671
28.7484
128.415
182.971
145.358
24.5876
-98.5857
-159.44
-92.1798
-0.342466
0.805183
-43.0275
-35.3539
-37.6477
11.018
24.3669
-2.31588
-13.1107
-23.9282
-47.7035
-21.8357
14.4881
7.30142
83.4201
168.733
108.11
-58.2068
-90.5712
-35.944
-16.3872
-49.8712
-74.5188
-43.7502
-2.91437
72.324
114.564
13.7365
-24.2909
57.1395
55.7434
9.37336
-12.7601
-23.0637
-26.378
-18.1717
-23.1419
5.98565
6.89413
-52.7705
-75.9612
-5.06568
45.6765
21.4748
34.4031
-6.60103
-54.7752
-25.9053
-61.5986
-55.055
17.2401
58.4788
13.9989
-28.4792
-74.7912
-17.2022
59.6392
27.3562
2.6805
31.2064
67.0394
56.8118
14.4825
14.5333
1.03144
-41.8908
-40.155
14.3693
31.9148
-5.91384
-58.5807
-53.6487
-58.3476
-16.3862
4.43252
-25.9709
26.0253
112.34
94.4147
55.6277
35.9418
-18.2693
-47.874
19.4487
46.4427
-10.244
-15.409
36.9387
83.8611
58.9044
-8.08583
-45.0877
-27.7858
-36.5887
-31.0764
-55.4484
-99.4686
-97.5516
-73.3729
-35.2763
-38.1119
-29.2481
23.1119
3.95445
-7.63172
32.4603
2.2943
3.28156
15.2708
-14.2978
70.1355
146.313
90.2617
19.9977
-26.9047
-76.3066
-99.1379
-25.2812
47.3318
100.313
106.691
70.1249
23.766
-14.2464
-87.5464
-71.3659
-12.4507
-26.685
-36.2981
8.65082
16.0043
-24.3032
-12.8022
30.9334
35.9771
36.6583
29.1522
-22.7943
-56.8416
-60.8863
-18.922
38.9272
56.035
79.5362
61.8369
-74.1595
-145.125
-110.842
-84.4317
7.64915
84.6178
137.066
194.876
46.9414
-208.661
-96.2331
164.235
67.1552
13.3704
-117.739
-342.506
-374.209
-174.939
25.335
313.395
660.641
799.613
335.485
-304.925
-847.987
-704.209
-403.509
-400.466
-129.936
208.791
113.698
156.029
540.435
785.672
1001.28
850.122
-195.395
-802.498
-384.913
-208.427
-390.089
-602.311
-361.949
385.517
854.717
493.929
241.205
316.106
232.812
-195.878
-547.767
-866.71
-876.63
-848.477
-525.745
62.706
681.123
414.802
-322.539
-471.302
-311.013
193.054
911.614
900.835
444.086
314.878
184.001
-61.4357
-209.117
-38.6301
230.841
306.919
163.133
80.7919
-186.985
-315.687
-3.14765
100.408
-51.7614
-332.125
-453.494
-322.524
-405.535
-374.236
-289.871
-119.531
-177.633
-108.406
466.544
672.896
544.883
376.918
46.3306
0.0225909
-76.24
-190.822
-164.711
128.507
297.496
362.282
349.421
-7.42828
-381.937
-400.024
-65.8956
77.7938
296.754
142.701
-285.861
-436.47
-443.889
-422.921
-148.169
-188.647
-26.3237
188.926
-19.0436
-415.568
-355.806
-63.9309
417.03
672.79
772.383
333.956
-242.365
-412.417
-267.409
12.1937
109.473
417.406
526.325
445.883
273.226
231.802
67.2523
-87.7825
-26.0748
164.691
72.795
-57.8646
-196.88
-447.94
-558.216
-438.973
-73.3538
75.2617
-35.2309
-170.695
-165.164
-108.805
-30.9719
-53.5046
-115.451
-56.4777
-74.1352
-29.6746
-140.957
219.122
526.13
324.74
-25.3276
-279.722
-331.102
-50.9744
252.508
442.812
288.443
-71.6519
-556.743
-306.292
69.8268
29.0073
-226.214
-249.844
12.1624
258.976
549.496
688.254
-198.966
-633.338
153.583
875.063
748.385
-54.9271
-248.624
-609.551
-928.695
-405.63
162.185
220.19
194.798
413.593
660.175
534.247
260.384
-46.241
-62.9722
-299.921
-261.455
82.3382
-186.279
-416.43
-297.629
-30.4645
-189.965
-203.51
186.786
153.592
-284.107
-596.383
-374.436
92.9085
377.842
334.475
60.5349
-276.444
-240.71
-25.3973
434.25
150.207
-381.803
-868.669
-734.364
-271.135
232.764
525.775
576.125
511.198
635.471
541.784
-25.7998
-435.245
-238.964
161.769
438.693
-200.551
-473.905
-425.886
-113.223
642.877
567.58
575.559
474.434
516.418
461.427
332.139
-333.876
-797.249
-552.593
-383.905
-35.0598
159.059
-111.717
-464.808
-559.734
-48.1292
233.71
257.826
264.804
111.328
195.53
-83.6586
-514.344
-767.519
-708.877
-326.794
40.8288
-116.814
-222.143
45.8054
391.812
433.602
345.09
109.702
127.34
331.318
217.281
102.015
-121.699
-221.14
-36.9653
42.5647
14.6794
216.654
243.905
-450.943
-223.205
523.098
849.932
698.227
165.93
-399.735
-519.346
-284.411
-247.617
-142.683
143.809
153.726
155.966
-244.496
-559.611
-242.747
94.8217
122.94
1.06013
129.765
77.3903
93.918
-28.4239
-143.981
-152.782
-74.0554
-151.924
-241.217
-113.165
70.3242
150.781
79.1557
-217.573
-25.4703
92.0988
155.53
146.182
168.861
250.219
378.164
364.196
251.651
-169.223
-285.615
-216.219
-274.22
-334.634
-183.698
-82.0079
71.8716
19.4337
129.211
66.5795
-64.8384
37.8423
-63.6493
-3.47147
-3.30899
-188.132
-233.69
27.5259
442.284
548.522
266.812
-48.7675
240.281
359.467
-143.276
-573.914
-428.075
-153.343
111.772
475.865
384.938
-361.639
17.1689
-530.938
-384.283
-443.816
-216.766
152.187
274.875
104.921
-34.1057
156.374
227.572
65.5114
7.75468
-142.472
-323.78
-165.329
182.472
319.047
149.034
-492.646
-11.1718
583.282
410.238
393.198
102.293
-343.876
111.607
304.818
284.493
116.208
-274.651
-650.296
-342.584
-85.764
-218.012
-49.1619
-161.755
-247.456
-186.739
84.5801
134.3
150.985
131.506
25.5771
169.942
330.998
-126.585
-196.449
-139.988
-46.5881
439.744
834.158
524.035
-47.8181
-244.02
-298.943
-196.695
-408.17
-562.43
-200.872
83.0073
253.354
341.809
111.84
-153.438
-331.304
-490.067
-498.611
-379.99
92.9811
653.59
790.01
173.947
-373.241
-263.047
-214.284
74.1498
329.853
120.084
-89.9264
-187.838
-114.089
157.906
276.078
309.303
482.977
329.492
90.5372
23.9838
-27.2105
-262.809
-461.004
-393.918
-157.943
69.078
434.296
528.466
-133.094
-250.668
-183.859
-86.2988
-11.5302
-206.456
-299.317
-56.3848
224.695
280.64
266.479
91.5523
-235.828
-461.092
-328.663
-178.287
6.446
26.4157
-71.6966
-131.787
167.68
425.511
527.58
363.465
59.6111
-125.397
-161.732
-252.393
-235.278
-131.715
-192.213
-131.076
138.282
251.726
-112.355
-309.011
-182.998
33.497
206.187
592.932
691.543
284.406
-144.156
-315.898
-159.15
-135.358
30.2385
388.605
270.519
-47.3484
-8.24311
22.2984
-253.44
-538.602
-552.45
-338.689
147.381
566.701
180.989
-552.789
-380.202
2.26327
352.048
568.818
183.44
-419.126
-257.237
-122.414
-93.6818
107.68
166.672
0.423977
-13.6461
172.761
442.016
381.789
-57.2096
-304.176
-83.8998
-3.40671
143.62
497.178
282.411
-290.176
-360.317
-447.258
-671.868
-623.079
-211.085
207.694
214.319
238.905
209.758
169.99
218.543
396.372
368.395
47.0301
-114.502
-64.8667
-87.2107
-235.481
-56.5186
286.896
138.641
-9.80957
57.2795
-68.4571
-195.18
-56.9492
273.615
486.737
334.371
-410.021
-547.207
-420.881
-119.878
-19.4385
31.0174
63.5156
-195.121
-440.153
-486.957
-333.071
66.5058
691.107
795.053
557.564
112.222
-224.892
-386.191
-393.485
-271.607
175.011
458.29
421.956
194.486
17.1958
-279.909
-471.048
-389.667
-224.122
-97.3256
196.831
314.147
411.776
252.705
-190.805
-52.2939
-177.68
-268.525
-151.955
58.5018
363.648
353.131
140.092
335.67
728.994
157.533
-394.605
-251.88
-72.1487
-50.672
-244.681
-380.718
-430.08
-364.655
-42.7745
201.463
266.874
259.178
191.295
-186.646
-357.272
24.4131
285.84
-394.649
-883.752
-333.679
223.114
229.89
158.639
183.776
163.674
82.076
174.993
268.571
246.136
25.1963
-35.0169
-55.1393
-107.231
-16.4591
-40.9498
-158.127
-42.5271
258.762
227.64
132.014
110.116
63.3317
-19.0478
153.293
235.377
160.782
-133.638
-321.076
-349.06
-419.203
-137.6
53.7969
15.9475
-73.4331
24.661
-77.7989
92.5052
318.683
228.902
-109.134
-263.043
-386.142
-112.101
-45.2179
28.7184
217.811
328.067
268.571
256.705
290.463
101.605
-254.182
-319.132
-104.97
-145.565
-188.142
-223.77
-197.565
-40.2898
448.588
557.346
-3.23077
-446.883
-417.085
-402.584
-289.456
-17.8081
242.589
508.62
601.115
269.606
-273.991
-389.292
-59.6143
140.451
-116.841
-156.849
-47.3105
-10.9191
-35.6881
-101.354
286.876
452.061
369.049
454.232
348.943
9.08762
-223.834
-353.366
-448.423
-417.358
-9.73917
142.124
10.9087
4.60791
55.6456
55.3885
-31.7935
-102.627
-48.8112
79.1891
95.9547
-42.4353
-146.171
-187.293
-116.466
146.206
188.349
5.25173
-156.279
-96.8723
43.8897
121.092
137.096
124.085
88.2166
18.1333
60.7408
-67.4048
-389.672
-296.191
-50.1205
54.8707
-41.2844
-183.836
-121.972
22.0813
64.3255
94.0119
118.042
168.042
210.703
192.852
66.6492
-5.88061
57.4216
-7.16559
-50.7904
14.0595
252.888
302.911
71.1369
-9.78569
133.55
179.578
-38.4463
-211.573
-275.049
-186.39
-112.807
30.6527
-272.922
-48.3084
-195.999
-325.221
-614.738
-464.094
-77.6827
114.704
240.013
355.733
393.568
122.391
-95.4683
-0.854059
184.435
277.676
328.636
379.052
188.484
-427.198
-240.732
-36.1472
132.683
262.573
453.854
359.649
-15.2484
-276.429
-338.545
-374.623
-299.467
2.22883
92.7232
60.4587
40.0574
-131.6
-144.089
-142.576
-171.471
-32.0561
77.1496
-117.753
-164.553
-24.1045
216.293
164.61
102.602
152.004
50.9436
-114.073
-138.87
-89.5449
63.9962
115.249
69.8641
10.6878
-150.204
-169.779
-96.516
103.508
292.231
180.995
183.32
205.661
42.194
-168.293
-204.654
-82.1184
21.4871
118.707
219.899
112.104
-171.626
-453.793
-435.157
-88.943
177.738
152.238
247.761
250.193
162.271
227.94
55.7519
-374.041
-292.537
52.926
-8.94545
-191.193
-74.9227
66.0566
-254.298
-570.309
-97.8277
358.484
426.67
401.966
441.88
2.81037
-619.808
-322.214
-144.599
-81.1588
-23.284
19.662
119.571
93.821
182.284
285.26
333.651
283.524
220.622
183.587
-123.997
-315.961
-131.135
112.259
-79.1084
-350.865
-20.7092
3.69587
-60.5549
-263.469
-162.686
48.7225
114.384
44.4922
-83.0004
-119.281
-159.205
-180.402
8.16318
328.718
244.338
-40.0409
-60.5153
-80.508
-96.508
-50.759
-77.1389
-129.362
-74.1114
89.3628
193.426
266.413
223.993
91.8194
17.6783
-106.341
-107.168
-125.401
-5.26994
141.559
175.8
176.335
34.5175
-93.1649
-192.137
50.6894
305.183
334.77
215.309
-50.354
-207.416
-110.605
-133.729
-255.829
-220.56
-53.4749
-21.1289
-83.7498
-79.3567
80.1216
-54.7418
-277.812
-488.371
-406.06
-140.675
109.296
187.05
87.4104
116.788
268.307
492.371
382.132
129.267
107.327
115.488
-16.2626
-72.1391
52.869
17.9614
-130.567
-84.9967
187.731
215.585
-34.4384
-223.597
-117.245
-101.764
-93.3018
-154.723
-68.2892
21.8535
135.466
97.2051
226.154
91.4028
-338.673
-154.647
-19.5243
-242.849
-414.407
-169.799
134.114
231.52
0.165552
319.706
368.024
97.5388
216.102
486.144
-324.035
-1044.08
-781.747
-249.03
-57.755
148.393
419.579
242.567
67.5625
204.442
379.073
264.631
17.6171
18.5526
225.881
118.902
58.7499
189.427
20.7163
-152.032
195.01
238.837
-80.4652
-179.073
-188.217
-130.617
-74.9864
-196.256
-281.969
-186.409
-92.3692
-146.582
-144.666
-9.54082
59.8875
-61.0914
-75.2131
-9.0759
-136.472
-245.201
46.5165
310.667
197.387
-22.4673
-31.9617
-116.42
-49.0405
236.748
321.042
152.511
69.2309
290.606
251.106
33.2481
-33.1066
-31.2261
28.8714
11.4707
-123.029
-237.391
-172.787
-93.1179
-12.7407
243.32
362.887
283.556
-484.092
-814.791
-580.629
-184.267
43.9997
-35.798
12.5804
137.3
233.498
328.575
228.59
42.7015
13.6607
62.393
117.833
241.878
224.648
-67.0298
-309.557
-109.883
550.19
561.96
128.154
-99.9608
-248.411
-348.568
-163.134
132.989
-25.0466
-604.485
-508.232
-260.233
123.608
304.408
314.319
170.669
23.0768
-41.3363
-43.5908
11.4599
65.0931
-329.277
-212.434
-34.9591
32.609
168.77
30.7274
-246.043
-109.813
255.582
302.209
189.299
-11.9121
-104.015
-172.259
-146.987
8.03261
103.465
84.7964
-31.2042
-51.6405
52.1737
164.926
267.042
232.599
106.522
-7.63181
-95.4684
-158.95
-80.412
-155.85
-141.831
-60.7112
-20.36
42.7008
161.414
103.466
-44.8806
-167.855
-205.256
-51.0506
240.182
388.414
252.468
-46.0069
-311.33
-352.709
-330.177
-138.904
64.9753
99.2169
109.996
-41.458
-187.113
-135.07
72.0376
194.405
265.193
96.1002
96.4166
393.111
447.108
-175.44
-595.035
-273.027
-69.6191
24.6029
131.435
163.787
-91.8401
-129.739
86.0392
303.692
150.424
-103.581
-232.47
-177.569
-78.2895
68.5501
65.0299
19.863
-37.2783
-89.4852
46.8027
80.8847
1.67623
-6.78942
18.5373
-17.8377
110.304
284.983
228.958
-319.529
-390.879
-287.122
-265.965
-164.059
108.451
466.957
578.129
-153.76
-716.235
-253.594
109.768
167.283
250.753
274.259
312.166
155.552
-85.3462
-297.206
-290.371
255.65
647.292
332.12
-370.673
-446.356
-435.046
-358.961
-296.938
87.516
481.599
448.717
214.136
-37.2453
-201.314
-272.473
-298.69
-41.0344
364.511
406.652
226.125
99.3155
-143.941
37.8523
283.918
-13.5584
-396.548
-269.983
-177.49
-108.97
-19.115
-113.154
-56.6428
51.3848
180.012
278.484
212.816
-117.378
-534.219
-417.37
-145.678
143.247
273.586
-91.2217
-491.286
-120.33
254.04
137.959
29.4422
132.272
216.928
230.533
194.382
112.928
124.759
80.2167
13.2868
47.2471
137.488
32.8952
-44.3685
-150.693
-182.959
100.978
531.449
370.53
76.2136
-207.233
-243.442
-291.003
-343.739
-253.81
3.10645
153.952
28.146
-229.397
-250.569
-96.335
317.473
564.289
337.496
-656.03
-878.524
-590.037
-161.274
64.7966
148.402
17.2406
-172.796
-99.6024
208.803
393.99
404.663
305.584
348.972
405.072
79.2272
-95.0656
-132.352
-309.309
-235.042
275.47
404.51
323.463
222.218
43.0699
15.0077
71.334
21.4256
27.8022
148.455
37.5067
-731.019
-974.303
-458.907
-207.437
34.6993
116.655
193.917
20.3786
-168.609
-145.254
21.2442
23.1102
56.7572
59.7079
35.5291
72.5435
230.219
289.42
102.565
-14.9882
185.627
275.352
174.649
239.885
207.497
-346.194
-642.337
-504.961
-143.919
200.894
193.396
228.664
288.323
326.924
185.306
-200.645
-318.867
-171.605
-229.503
-240.646
52.9316
71.8001
-146.122
-218.474
-130.182
154.667
170.294
134.319
55.5782
77.0708
94.8368
87.8488
43.684
-38.3468
-69.9568
49.5745
102.554
-2.40512
69.8438
40.9571
-110.245
-53.4882
-21.5335
-175.322
-295.536
-97.6671
88.2305
207.333
175.752
139.935
111.338
38.536
-7.36296
-123.159
-187.543
-110.995
-71.8784
-68.4957
-64.7819
-62.8406
-63.1101
78.7215
121.34
86.2582
88.4301
270.465
85.1834
-107.639
-90.935
-9.40242
-274.978
-273.475
-169.331
-133.089
248.849
497.228
322.12
9.04514
-107.709
58.0201
331.301
268.271
-374.606
-404.476
65.214
340.843
371.264
-395.21
-947.052
-455.673
130.23
383.846
287.224
142.578
26.2808
-0.316916
34.4799
76.6179
67.2366
1.46732
-87.1921
-157.103
129.756
376.911
193.509
-447.916
-572.492
57.7454
366.733
109.614
-7.20636
-82.0329
-82.8027
94.4649
52.5582
-62.972
-108.809
-141.237
-35.0556
144.738
187.141
7.3154
-154.166
-298.512
-439.342
-308.776
-40.3148
152.108
401.033
363.003
243.032
74.2761
5.57125
10.2176
-37.0783
18.9553
65.7718
124.084
57.0962
-194.94
-315.24
-135.261
62.2415
62.6873
62.1044
156.746
130.453
180.857
128.967
15.8556
66.1742
107.751
27.7532
-202.24
-411.807
-468.957
-197.698
19.7273
50.5293
17.8333
-41.8673
27.6728
76.0938
25.4475
88.3677
206.885
146.08
118.74
275.118
294.99
32.2762
-390.34
-444.218
-170.663
-7.61299
32.5016
10.0975
16.8694
87.459
273.702
377.544
-48.4946
-470.487
-229.424
-51.6421
96.8598
93.3103
-32.3719
-389.362
-486.712
-123.209
254.696
378.427
363.227
351.665
270.206
-1.06554
-183.456
-74.362
-107.394
-157.135
-10.4564
212.008
97.7039
-34.5872
-71.6354
79.8541
162.768
158.865
-59.2987
-335.171
-229.693
-72.8054
-98.3904
-147.55
-250.407
-221.09
-62.67
-149.666
-64.6869
112.616
245.207
347.153
277.823
207.813
101.838
-5.8711
-54.856
-5.75179
63.1038
145.856
232.074
346.391
274.641
-315.037
-614.451
-165.019
26.8377
19.1467
-37.9888
-164.23
-110.978
-26.4115
-103.997
-38.8826
162.398
84.5424
-65.5028
-108.26
-120.784
-72.073
-80.341
-175.645
-175.761
215.802
498.415
336.715
149.554
-37.4504
-112.758
-32.2384
48.339
166.576
319.58
126.488
-210.34
-242.404
-228.658
-345.181
-166.974
84.9814
136.928
48.9675
-182.349
-184.362
14.6301
44.4629
157.969
333.56
297.578
-19.0338
25.5173
285.156
253.452
-355.436
-692.194
-249.778
99.4544
73.2963
-312.532
-256.114
-189.534
-112.618
92.7
305.899
348.942
278.416
222.01
84.6308
-121.493
-10.1052
-20.742
-181.929
-197.356
174.211
348.511
73.2455
-0.641117
165.254
308.925
124.682
52.9783
-21.0705
-39.4136
-26.3719
-31.2465
-174.609
-343.918
-331.345
-280.9
-179.296
-55.0755
-60.9657
-99.3274
121.649
214.112
11.2584
-180.202
-20.5817
191.69
49.6716
-101.527
-164.955
-106.343
3.30044
201.537
399.987
262.23
-268.928
-167.616
22.5941
6.94446
-113.607
-97.7089
47.4531
178.788
253.82
387.438
243.961
33.019
-36.2917
-27.4354
-35.0282
-163.365
-123.066
-99.6433
-218.9
-148.925
149.825
199.57
159.402
20.4069
-165.399
-268.287
-149.096
-38.5838
-66.1664
-66.6129
60.2294
74.0943
17.089
-152.86
-178.541
23.257
61.0569
-73.2904
-62.2775
128.081
420.115
297.826
-42.7248
-186.817
-70.3614
177.631
203.835
91.9837
-79.5261
-177.441
-309.421
-105.597
23.3708
141.562
133.022
64.8706
95.4044
201.019
204.42
-148.85
-300.931
-42.8574
155.426
107.257
-321.725
-627.717
-371.872
-108.972
77.2718
148.396
265.81
320.8
347.969
270.516
131.716
-68.1734
-16.7145
-53.4872
-292.536
-270.221
-52.74
-56.4369
-53.949
11.8707
292.811
389.182
135.422
-43.732
-131.59
-233.055
-128.956
-73.9645
-203.038
-102.795
117.02
255.635
168.646
41.6694
-19.436
-59.6862
-105.129
-55.6773
79.5419
223.421
302.406
-68.5584
-273.819
-262.348
-93.8683
-29.0814
-153.002
-145.238
-32.5756
2.96927
-47.4222
-63.7714
-91.3959
-48.4914
74.6361
270.987
302.72
224.719
247.418
243.873
159.669
112.757
-64.3939
-221.485
-339.16
-199.496
44.534
219.681
188.193
-281.729
-391.456
-120.739
-72.264
-14.9455
78.3984
102.04
38.7511
14.434
1.27307
-99.8077
-99.4511
120.363
235.688
253.513
172.973
91.6533
80.8404
141.089
2.49896
-178.58
-439.887
-223.095
-76.2488
-74.4335
72.894
361.827
415.174
98.9691
-696.513
-732.684
-351.252
-61.9595
158.526
286.7
275.729
197.868
-47.4139
-208.448
-64.556
278.941
507.089
284.108
-30.8588
-165.926
-122.566
-265.035
-339.681
-234.2
132.782
162.696
143.182
246.902
132.862
29.3365
94.1082
181.855
102.185
-169.047
-108.87
55.3255
122.602
-12.3963
18.402
47.7625
-78.2437
-173.756
-241.791
-226.678
-45.2334
27.7333
19.5856
94.9082
163.926
6.72303
-203.126
-203.797
-73.246
-147.645
-190.738
-92.4661
23.8936
92.9833
128.388
109.948
86.507
109.8
146.588
177.587
163.863
121.513
53.5321
-70.2293
-147.79
-133.093
-34.8436
-8.50527
92.3937
221.049
251.998
197.284
62.5077
-71.5202
-108.365
-124.306
-179.419
-284.555
-165.348
-25.5147
-25.9014
-78.5999
-33.9933
-2.98006
-29.3785
-99.3032
69.9386
208.529
113.935
-30.4386
-18.226
-275.282
-413.019
-99.8743
304.668
431.38
36.2358
-408.829
-266.157
-65.9001
124.311
187.561
118.778
94.8098
126.225
199.075
102.476
20.0238
82.6331
254.249
269.878
243.416
-93.3586
-161.43
-152.381
-53.4205
53.4434
62.4584
-63.7395
-31.9893
-29.4945
-99.8794
-108.655
-130.008
-133.951
-78.6753
-140.4
-439.001
-278.595
-69.8915
-55.8493
55.5436
245.976
162.894
63.6336
-87.5873
123.211
439.331
252.094
83.0915
49.555
-38.3371
-89.011
-53.2249
-82.6403
-68.1771
-153.038
21.6454
224.839
396.281
179.711
-240.026
-135.254
-4.62316
-87.2866
-344.578
-619.907
-314.975
-169.654
-83.9303
19.3186
270.292
400.642
270.8
-50.2894
-40.1972
212.41
367.416
314.959
184.613
-138.747
-392.121
-90.1861
-45.7548
-87.853
54.9815
274.742
263.462
249.318
141.183
37.6936
-92.9255
-128.703
-48.813
80.0114
-118.02
-251.364
-203.461
-317.277
-475.201
-242.937
274.131
262.248
92.0692
5.37743
66.2878
105.221
-0.282312
-134.052
-129.335
-11.1795
-14.8977
-98.3997
-167.481
-64.2326
71.3834
160.99
205.952
136.93
2.79189
5.2594
171.981
111.328
6.64884
-58.0005
-99.6579
-8.35982
36.7747
134.466
31.2922
-88.4506
-91.8773
-167.1
-300.258
-157.368
140.571
267.373
177.197
61.9979
-3.46879
-21.863
-14.9313
70.5396
248.746
249.974
-167.646
-224.536
87.1261
195.833
-9.08579
-433.669
-339.356
-35.0244
168.226
182.27
54.9195
29.4921
-36.1549
-93.21
-102.695
-51.3441
120.908
193.622
68.129
-273.415
-384.06
-74.5208
-83.4048
-93.8088
38.5673
177.712
248.598
253.874
268.633
99.6486
52.2557
-48.1246
-329.018
-309.048
-67.113
267.084
317.867
-237.128
-467.946
-251.377
244.273
530.241
542.425
151.532
-532.605
-424.459
-244.385
-190.541
-86.8367
127.805
229.847
230.926
362.093
308.257
110.729
-127.913
-245.897
-72.7997
-50.263
-25.5166
84.8575
-117.913
-271.46
-128.985
186.294
245.873
219.938
103.263
-5.54868
-55.2021
-194.4
-305.53
-193.54
-60.9365
-62.7801
-141.905
-105.307
156.488
217.675
212.476
91.5934
-114.857
-225.481
-117.275
168.418
212.67
27.29
-57.839
-22.1696
35.5824
73.9316
38.4103
-69.6428
-92.0693
-104.222
-63.7404
4.18042
32.3526
39.5391
76.204
176.991
120.102
78.3424
27.3513
-25.2782
-18.4849
113.914
81.3145
-15.9112
-75.0646
-121.085
-58.3861
23.2274
-88.8265
-260.069
-88.1145
76.1403
136.156
85.1556
-95.1664
-355.875
-160.94
98.0307
51.3937
17.914
50.1068
88.7224
78.0572
57.6397
-74.3773
47.4825
387.444
427.585
61.9392
-284.68
-25.1184
-68.0914
-457.916
-369.708
-73.4242
246.315
130.398
-14.4916
50.2737
178.375
196.277
49.0643
-6.70166
-99.3447
-45.1732
-14.7764
-166.116
-185.159
96.3386
350.404
71.0561
-154.71
-74.7709
-27.6208
46.2623
1.42726
-42.1688
-68.025
-27.6954
27.4129
13.5514
-141.745
-141.879
35.9851
147.082
275.718
290.504
-128.131
-616.106
-245.244
19.1436
148.657
156.355
44.6714
32.5482
99.5504
97.537
64.4191
43.1327
24.1105
-6.37375
-36.091
-35.4846
-44.7252
-79.22
-176.667
-240.596
-49.1695
265.653
185.354
-34.3373
-51.8332
38.3192
174.569
164.149
-51.565
-154.94
124.478
195.97
123.525
76.8748
-135.028
-319.501
-383.466
-249.865
-119.11
2.72953
18.2246
100.888
126.265
118.511
98.2546
135.607
86.3533
-66.2249
-25.1889
59.1527
-32.5685
8.60357
32.7829
18.5761
93.8014
192.779
185.331
89.4208
-60.3603
-167.817
-64.6094
41.1637
23.0025
-34.5562
-69.8175
-42.821
-61.6656
-45.9003
-6.2832
-44.0007
-203.21
-241.468
-130.284
-44.5659
36.4984
89.6952
151.468
185.395
-13.3149
-245.578
-280.922
-223.585
-6.37168
300.776
540.178
389.5
-168.706
-195.287
-60.5489
48.6936
21.8745
45.5492
145.823
189.081
157.263
-262.687
-516.677
-291.442
-210.122
-56.3241
118.123
315.95
388.881
198.85
-9.73904
-135.826
152.1
271.701
176.184
-18.2806
-232.249
-221.309
-143.823
-244.583
-188.788
270.404
465.001
171.792
37.4866
2.91462
-1.07113
-66.4883
-224.025
-308.191
-308.921
-132.431
23.9095
-11.2084
-15.4237
11.3225
73.4165
37.1966
-59.0266
-21.9501
61.9214
83.1974
105.008
-21.8064
-27.065
5.21307
36.037
35.2042
-33.3352
-70.3982
-65.4757
33.899
126.927
98.7867
-0.772461
-6.02273
98.4599
75.1981
-22.4618
-43.3473
-9.8336
29.2722
58.7458
27.9998
16.744
157.64
89.1443
-144.725
-174.225
-49.8415
51.8917
154.402
153.205
91.3246
75.9254
-25.2656
-304.64
-324.519
-146.687
-52.9873
-54.2164
-94.3517
-100.603
-11.051
37.4003
-98.0033
4.77968
160.347
191.653
75.705
52.2071
243.166
348.962
49.6844
-389.952
-449.034
-10.7235
65.2691
-289.509
-280.843
60.8777
169.339
140.824
191.892
232.664
152.104
66.5041
102.359
175.051
238.267
255.405
-168.953
-550.129
-377.256
-7.55627
158.886
-41.3328
38.1894
303.415
265.613
12.9475
-96.3157
-70.1615
-13.2682
-0.172563
-26.4144
-99.3604
-121.59
-166.676
-245.779
-422.939
-244.968
9.51982
121.281
185.869
178.725
221.013
141.743
-97.7224
-136.459
59.2129
49.7378
-121.272
-131.589
38.8275
205.242
196.184
50.6045
-101.118
-164.021
-135.428
-49.7057
8.06641
104.967
223.588
238.928
131.193
-7.10461
39.5853
80.2858
-59.4489
-46.6238
56.4857
8.45378
-68.1162
-120.162
-40.0166
67.7004
-19.4253
-134.466
-118.667
117.103
220.528
-272.86
-431.639
-165.516
-25.9708
-238.481
-84.4333
93.733
250.3
328.727
373.05
154.717
-84.7553
-103.814
-22.2886
52.6183
121.956
30.3179
-38.213
-188.829
-246.784
32.7549
257.094
224.348
132.364
91.9491
7.38643
-2.08744
23.1369
59.4454
-100.025
-411.128
-284.661
-193.383
-208.023
-141.023
5.27634
139.906
25.6951
-5.2738
50.0654
103.765
50.4032
-31.8294
-1.07147
206.832
277.239
203.729
-71.9969
-217.117
-160.725
155.674
318.636
260.305
2.9263
-227.379
-212.969
-154.978
22.5184
22.4416
-21.8379
65.6702
37.2636
-44.0741
-76.0851
-40.0502
-49.6681
-118.863
-130.92
-121.746
-74.1557
44.1888
10.3053
-17.2862
69.2204
231.619
344.397
388.067
215.578
-145.839
-634.545
-378.833
-58.4031
-9.09917
73.9778
174.735
358.761
299.668
-12.3197
-207.791
-290.554
-107.948
58.6788
60.0627
22.717
-68.3815
-187.227
-157.035
-6.0017
148.483
398.092
153.475
-94.2185
21.6777
222.641
113.783
-169.493
-83.8609
12.2723
18.4059
51.9835
27.5838
-49.0526
-77.9577
-39.4164
-18.7124
-53.6865
-88.1671
-76.3117
-77.9011
-68.9865
-39.2139
24.9337
-26.0845
-143.72
-95.3942
-53.7323
-82.9163
-16.8907
78.618
120.478
42.5053
-27.9493
-27.2247
5.0341
16.5211
25.051
114.394
153.271
187.65
247.212
156.93
42.1523
-35.7354
-130.609
-100.2
-83.9722
-108.666
-60.305
3.88708
42.6712
59.2525
17.0301
42.5625
67.871
31.1539
-46.5863
-111.407
-77.0621
-22.4092
5.69288
6.07342
-25.184
-49.2476
-48.6649
-28.8628
7.63439
-3.39771
-4.5014
19.1074
67.3409
23.1124
-146.131
-136.107
15.0628
25.4226
59.651
213.306
242.433
-15.1545
-260.393
-66.9073
44.6091
8.45346
92.452
89.5737
-47.644
-84.9444
12.5481
102.852
118.06
-30.5844
-56.8457
-86.9674
-170.182
-216.813
-155.12
-55.5837
-83.3074
-28.1349
417.924
685.504
517.834
147.182
-654.261
-916.423
-435.671
-211.573
-17.6843
83.4055
41.2539
234.782
379.026
289.337
227.01
367.843
311.98
118.493
-6.45819
-63.6645
-223.94
-443.732
-398.62
-198.849
215.312
386.841
207.318
81.8369
-15.368
-49.456
-33.604
-99.8132
-124.547
-76.0856
-53.3525
-53.8038
-84.0233
-162.522
-129.752
-1.80385
-1.2336
-95.101
-54.7632
95.0859
258.006
234.542
-31.7106
-72.8203
-9.82562
-62.589
-48.1761
-80.0682
-58.3981
-46.6888
-11.5842
58.3937
57.1246
-90.4866
-96.711
53.8369
125.229
88.8408
1.25311
-36.3577
47.8392
185.513
276.803
228.736
-1.68671
-195.511
-132.622
13.2203
44.0296
44.7461
-20.0402
-133.314
-150.78
-50.7968
38.1874
145.683
179.071
85.1151
-221.575
-235.917
10.7365
8.18287
-5.16731
65.7274
106.83
-55.8007
-264.21
-168.659
-18.134
168.714
175.693
97.8201
120.968
119.85
-63.3363
-389.202
-409.241
-99.3306
197.88
225.738
67.6264
43.3928
68.7621
24.6757
-64.6408
78.3823
282.312
353.121
103.253
-419.704
-670.331
-311.123
-55.5372
65.9121
153.067
209.351
165.828
35.4288
19.321
-86.9976
56.932
251.059
208.841
220.656
286.008
321.3
-220.497
-598.47
-399.137
-149.021
50.024
-23.1575
-97.2472
-60.2826
88.8577
126.342
87.7799
42.7604
75.8749
27.6471
-89.9475
-201.531
-183.69
-148.557
-203.865
-268.129
-19.0476
258.745
365.095
431.188
396
260.464
31.662
-272.275
-264.8
50.1579
162.427
-87.6033
-296.452
-56.8238
127.898
64.11
-19.737
-179.307
-204.779
-96.8645
148.551
133.439
10.8924
14.6359
-69.2694
-146.05
9.9851
207.473
108.29
-63.8766
-78.2083
12.4206
141.746
124.2
-95.5861
-224.872
-208.018
-87.4596
9.68472
62.3511
123.359
99.5082
3.64066
20.1659
97.28
159.256
191.955
53.6402
-406.63
-361.771
-147.752
-120.504
21.8749
17.45
-53.9841
86.6703
254.814
225.618
245.549
399.345
344.237
-140.151
-543.505
-329.531
-94.1992
-10.5573
37.9552
156.87
326.879
134.622
-129.632
-32.5871
0.180787
-113.344
-63.3876
21.5768
-25.2115
-68.5637
-82.7827
-126.701
-173.521
-45.6415
176.223
101.707
101.46
-34.5837
-146.875
-88.9509
81.035
85.7699
44.8136
54.0113
25.3708
31.8467
-25.5351
-112.665
-109.545
-48.878
-67.5019
-199.855
-138.168
150.588
257.108
-41.2819
-127.894
56.463
44.5543
56.8371
191.071
217.827
50.4418
-83.4393
-88.7949
23.4476
97.2908
113.913
142.544
113.954
5.42647
162.673
92.6119
-349.954
-349.846
-294.781
-139.01
-19.536
-35.1401
-100.038
-80.7884
-36.7929
90.8754
178.413
177.809
263.322
481.799
336.649
-281.165
-517.341
-153.325
-196.682
-209.013
-79.7272
10.0492
226.306
258.437
139.45
45.3803
-27.4044
-128.598
-209.455
-168.699
-64.3604
104.172
76.4587
-138.479
-84.4295
386.09
596.698
52.111
-434.177
-278.671
29.6424
141.667
200.439
108.161
-17.0296
-11.0057
-11.1595
-4.93721
54.7196
57.335
-48.2981
-144.107
-142.31
-128.504
-35.6292
-63.0292
-180.459
-59.1325
249.136
207.474
207.129
145.152
-44.3019
-217.573
-395.239
-296.981
-54.6038
-17.355
-10.8452
15.2203
111.64
204.129
67.2277
-314.368
-340.533
72.2888
328.41
302.61
201.201
58.4929
86.2433
35.7066
40.3768
82.7287
136.064
54.1158
-76.6632
91.0064
560.655
772.024
147.782
-715.612
-1080.49
-928.68
-410.524
-199.045
-118.836
50.98
185.227
253.921
279.767
268.009
209.781
184.881
181.557
99.9618
97.0271
-23.19
-266.842
-366.997
-36.6039
362.437
541.507
510.832
179.521
-88.272
-175.256
-163.414
-137.287
-158.279
-211.795
-212.893
-160.448
-168.393
-184.537
-123.595
-78.5093
-24.7602
-115.858
-191.845
-64.8792
141.24
237.836
317.528
197.463
46.8726
-64.9965
-94.4091
-36.7917
18.4479
16.4006
-1.57906
-0.27388
9.88974
88.2273
121.536
112.869
105.272
-102.758
-227.026
-36.0669
197.961
375.665
405.903
32.1023
-394.279
-233.389
74.0356
6.5996
-77.9258
-208.016
-268.847
-69.4436
33.3534
5.60049
6.20655
-25.6663
-0.895828
117.281
120.387
27.8187
-45.2501
-85.6127
-58.4479
80.2406
220.139
107.82
-51.1773
-30.1149
-49.4875
-10.9959
139.465
75.4107
-129.788
-168.579
-1.44932
48.1465
-15.0914
22.8138
73.9885
28.8734
-156.148
-62.3322
162.658
208.777
-218.185
-480.877
-242.272
-63.9099
25.5746
123.04
101.523
37.5909
129.815
173.277
88.8923
16.3467
56.5869
97.12
30.8431
-123.831
-71.9552
-27.2343
-91.8223
29.5364
407.155
502.059
-12.0889
-169.087
-53.7545
-78.5644
-100.166
-84.3118
-54.727
-54.3934
-95.3466
-97.7377
-112.777
-140.919
-116.049
-0.0927706
94.2281
59.8303
-20.9016
-58.5185
-44.0218
-47.4327
152.637
76.2052
-79.5572
-60.3962
42.8411
296.48
260.514
-56.278
-177.275
-59.3364
29.4781
-43.256
-63.5287
2.727
-0.812203
-65.2157
-38.9639
-30.3041
92.122
166.804
86.1304
10.049
0.450803
96.8173
29.033
-82.1038
-74.1764
-2.50893
-32.5679
-155.986
-206.792
-78.5961
107.573
198.213
213.065
89.0716
-47.7015
-60.8393
-14.9493
-42.8207
-51.6733
80.3321
148.466
6.01122
-201.721
-285.604
-233.672
-47.6778
87.4649
147.889
134.144
83.1675
21.4535
-48.5225
-57.102
-49.8363
-26.2589
11.1054
31.6615
78.7591
90.2146
51.2353
-52.6978
-61.4541
115.813
124.843
76.5265
153.09
126.131
25.742
41.3812
196.964
230.52
-293.419
-850.649
-586.692
-213.035
13.7586
125.484
134.197
101.67
104.489
155.409
127.192
-129.02
-151.496
-88.8803
16.8581
152.97
235.262
224.197
79.7675
-80.4584
132.494
350.706
209.498
17.0336
-62.4968
-71.5751
-171.778
-258.371
-63.4108
114.316
19.2447
27.2361
-180.31
-116.294
-55.1141
-84.2336
-157.932
-214.509
-231.346
-168.699
13.2236
210.323
178.524
104.598
40.2027
6.5531
101.747
153.623
42.4935
-65.1064
-4.62552
89.7655
151.087
120.779
44.1755
-46.6608
-66.7376
-91.8865
-104.292
2.71138
127.683
160.908
23.406
-106.805
-94.2898
-146.034
-204.313
-148.105
-128.855
7.84726
187.345
279.818
280.184
77.3383
-61.0261
-1.31503
43.4827
-57.2412
-89.0669
-106.716
-129.363
-74.5538
10.1933
37.6369
-52.5933
-20.7534
44.8647
85.2427
60.7006
-59.0433
-121.478
-94.251
26.8902
129.316
-35.4216
-177.049
-90.3463
81.7837
132.129
80.1638
81.165
77.5969
73.8549
56.5379
-5.97416
-30.1908
106.578
136.824
-5.82232
-237.554
-293.419
-236.076
-38.8624
155.417
178.474
93.7117
96.8523
64.4649
31.899
67.8005
191.141
229.198
-16.9592
-329.281
-140.473
126.833
-206.687
-659.63
-350.05
21.4779
139.217
135.333
28.0049
-22.09
95.3082
153.948
80.6618
66.577
45.1205
13.3851
-73.7222
-80.4105
103.988
305.298
177.908
-0.152176
105.22
296.047
138.048
-7.90556
-83.1755
-71.3716
-88.7632
-149.518
-210.793
-113.703
-112.468
-85.4027
-72.4295
-106.621
-112.004
-76.4353
-19.1385
73.834
34.9432
-55.0674
-37.2726
68.8409
59.4182
41.956
73.1385
113.883
53.9569
26.7236
123.152
92.3877
110.24
132.959
-91.8977
-196.696
-217.559
-182.763
-78.1151
-20.1366
-92.0106
0.0182002
184.148
277.065
237.527
125
13.071
-210.812
-153.211
0.325175
-43.3965
-127.199
-90.1302
-104.669
-6.38415
86.7563
166.755
87.2464
0.586302
1.16883
106.286
68.6
-30.5781
-77.7478
-11.6753
-37.5653
-104.804
-93.2496
24.6998
45.1238
44.7248
124.815
1.06416
-111.032
180.208
417.173
327.572
-193.899
-427.666
-504.114
-355.14
-82.0694
13.2993
66.1844
33.4232
81.2744
221.032
394.384
283.809
32.86
-119.032
-113.813
-102.315
-54.0168
-100.598
-214.727
-251.301
27.007
247.63
362.613
255.067
122.303
80.2754
-19.6328
-63.0135
5.92223
-113.019
-301.558
-364.717
-105.719
121.332
127.406
54.3672
-23.0621
-104.822
-173.564
-136.325
92.8329
183.364
170.461
131.456
2.22407
-138.118
-38.3795
4.67437
-78.3979
8.61481
104.617
69.9786
-105.449
-250.749
-136.905
30.9983
105.146
49.5861
82.4067
146.216
121.922
99.9671
101.35
43.0224
-33.0568
26.7975
48.1234
48.3936
164.55
217.439
266.677
139.472
-422.903
-796.614
-488.503
-4.79156
171.214
-43.7943
-177.681
-0.112197
33.5779
-12.6413
41.4598
158.085
168.385
160.735
66.9759
111.444
140.526
-463.826
-601.479
-243.929
192.205
538.543
385.428
121.991
35.0435
135.214
185.064
65.9404
38.4866
-13.3882
-32.8332
-112.823
-139.368
-79.6884
-112.879
-201.792
-209.625
143.892
247.613
146.159
41.2814
-102.232
-108.36
-64.3875
-48.2309
-22.784
-53.8715
-220.591
-149.399
-2.95943
66.9854
73.8607
12.5785
-94.2117
-66.8979
-54.0754
-64.0424
91.8078
93.9552
33.9671
146.915
272.145
139.231
-15.4724
-54.8706
-2.40712
31.93
56.558
34.2211
-64.084
-218.564
-278.942
-98.3058
275.52
371.027
39.5826
-309.054
-44.0021
87.6211
38.9243
-55.2612
-16.6601
-42.1259
-162.928
21.7142
147.385
85.9613
-18.4732
-46.0382
-10.5173
40.3557
208.021
266.366
-261.673
-502.415
-206.123
175.316
513.697
365.263
-115.707
-236.082
-317.573
-287.959
-181.35
-70.9416
34.2861
141.72
193.207
165.32
188.788
251.595
51.3085
-275.267
-131.045
-5.47507
77.7162
94.9396
-188.238
-170.462
13.725
161.54
347.918
300.396
219.01
57.6145
-95.6095
-169.816
-138.525
-123.175
-141.634
-178.939
-199.049
-138.804
43.232
136.169
-103.209
-233.584
-111.363
45.0852
99.2156
-1.18902
-22.4235
-53.6406
-70.8541
-160.78
-130.105
-39.0937
101.074
170.982
123.533
65.6998
68.9611
154.1
203.329
257.501
345.348
215.322
-191.448
-165.451
35.4466
187.675
74.8314
-144.684
-193.657
-202.251
-75.9225
-10.1273
-19.855
7.29964
8.1528
22.2619
19.5053
20.0739
-117.027
-273.392
28.9443
441.773
336.825
-259.32
-396.997
-476.278
-206.568
59.1987
227.824
235.472
128.845
63.7403
25.8395
0.0804035
46.0311
101.293
158.318
-81.4871
-397.89
-226.286
-198.103
-168.99
-63.4193
139.581
218.468
325.014
278.418
233.434
122.653
48.1409
-23.4672
11.6443
-70.8883
-324.122
-264.465
-99.3534
-8.27083
100.552
228.227
174.07
52.1781
-158.251
-152.007
-31.77
8.43814
43.315
16.5567
85.7248
105.041
-15.5017
-191.334
-198.777
-115.687
140.098
163.071
-139.789
-216.474
73.0412
153.405
3.42706
-191.57
-259.639
-58.6139
221.489
215.105
171.09
194.093
241.505
151.515
-128.546
-145.33
-237.766
-239.864
-189.491
-55.0951
211.414
338.505
130.255
-12.5474
-26.0493
22.9639
10.5859
-116.374
-243.809
-152.612
-20.6966
38.0551
-4.74173
-22.467
277.407
344.785
18.4638
68.9129
122.16
19.145
-95.4066
-233.616
-348.602
-271.63
-53.1587
21.0333
68.747
116.642
107.762
73.0877
27.7691
11.464
114.929
239.119
-171.429
-687.033
-193.787
61.1927
149.4
91.5581
30.2924
-1.59021
65.9058
199.864
170.624
140.152
98.1864
21.7537
-34.7603
-55.5452
-68.0598
-154.611
-174.395
-141.285
31.4832
331.837
289.041
182.871
161.88
-24.7265
-287.927
-316.58
-101.667
0.555488
-53.8479
-119.689
-76.9673
6.66633
30.702
17.4959
79.8582
140.672
92.6551
93.5661
56.7611
-138.054
-45.2671
-160.733
-326.216
-139.6
53.9261
87.0522
3.54969
8.72095
125.846
299.471
164.446
-114.136
-153.889
59.736
110.626
22.9563
-37.3492
-138.951
22.7129
279.859
109.471
26.5429
39.3243
-38.9468
-3.88675
25.0239
5.92092
13.6694
-25.253
-141.815
-206.276
-37.8679
145.329
-19.7219
-134.38
-38.3134
-95.0271
-125.862
-103.774
-52.5818
-62.9646
33.9537
60.6842
2.03524
175.259
302.903
47.7888
-199.107
-228.199
15.5456
217.395
163.081
31.7548
-46.5175
-69.4825
-136.845
-152.431
-47.9542
165.472
315.08
317.924
153.201
-79.9081
-545.759
-539.441
-378.642
-61.3155
202.421
262.509
126.055
70.7633
120.069
138.857
166.173
188.797
155.5
99.5348
0.786399
-4.60418
30.1858
-116.681
-243.125
-96.4884
283.631
238.468
129.428
170.907
94.1621
-30.1491
-140.384
-271.35
-327.858
-397.504
-377.863
-187.587
-75.213
-28.2528
-14.1625
-28.0318
-10.8149
-28.912
20.3201
36.5472
203.796
304.718
213.384
-84.0831
-277.884
60.1213
226.228
211.884
155.043
104.899
79.407
-25.9487
-75.7417
-88.1803
-83.3284
-62.5783
-30.4427
28.6951
63.4666
36.019
24.0297
-40.0065
-56.0369
51.8777
149.276
-19.9832
-124.259
-94.5287
-94.2658
-76.1509
34.9581
9.75858
-86.6426
-4.03239
121.645
117.766
100.366
171.277
205.148
70.7219
-112.659
-240.536
-263.711
-89.6739
54.3303
54.4957
-96.2459
-122.498
10.2702
141.715
68.609
-58.2603
21.7726
93.0936
95.331
-161.582
-499.974
-296.531
-156.202
-50.3009
111.032
271.804
357.463
342.674
362.098
146.265
70.8602
-330.634
-340.279
-193.455
-65.1807
90.6174
149.008
125.495
-59.7387
34.1574
309.236
94.8783
-46.7326
56.8642
87.8854
-72.7778
-200.45
-101.681
-62.6245
-85.025
-73.7055
167.933
163.379
69.5726
34.0693
-12.3693
-121.299
-313.972
-258.081
-76.5156
31.0331
-41.6577
-207.163
-154.35
93.4726
197.971
180.364
-92.4275
-221.389
-103.108
33.1716
245.575
246.304
177.754
173.006
142.721
140.16
16.9877
-187.178
-102.135
-0.623342
84.89
156.739
58.3937
-123.281
-180.878
-83.2171
-71.4433
-94.2369
-88.0712
-32.8915
-43.7091
-159.309
-152.234
-29.7768
122.312
159.769
335.329
382.583
74.6322
-153.24
-32.4578
23.1255
-68.9975
-68.8366
-94.1711
-122.801
-41.532
-10.2595
-28.8554
-25.3577
79.3538
118.497
56.642
-56.8264
-117.919
-143.415
-140.747
-68.4445
-1.76113
58.0067
22.6393
108.169
189.696
108.515
-48.9588
-47.7381
73.3022
97.7107
74.1396
-12.4202
-196.635
-54.0313
117.16
4.21462
-58.2541
-1.95252
20.4703
-40.8613
134.259
378.566
