5.22803
3.84325
-3.01547
-0.820603
7.26633
20.3287
17.742
5.5476
-3.3711
-4.65531
-13.0116
-16.493
-9.86804
-6.66201
-7.52257
-9.34666
-8.35501
-5.47684
3.42588
12.4935
11.2091
7.92064
2.62214
-0.442999
-8.35875
-20.5688
-10.2116
-3.34453
-6.53501
-5.53443
-3.36657
-4.57988
1.89703
4.12796
7.47315
9.68859
7.69808
11.9715
19.2478
15.6731
13.1315
17.8471
18.7651
13.6434
-3.49164
-12.0555
-15.9523
-12.328
-15.2855
-27.2339
-18.9058
-11.3263
-8.70441
-2.93398
-0.284502
9.11981
6.86731
-2.22354
-4.64546
9.82241
17.4166
14.9244
2.49165
1.34168
2.86226
0.320448
1.75076
-5.71376
-9.61245
-1.02555
-1.80192
-2.22123
4.16891
-0.851907
-4.98475
-9.03827
-4.54329
7.84985
7.52184
6.03199
4.62967
3.33301
-2.7401
-0.16837
-1.80175
-5.3058
-0.00193917
-1.41352
-8.01168
-13.4959
-17.7704
-19.1711
-5.32658
7.26245
17.3806
19.3913
12.4794
17.1145
32.2691
22.9977
5.99795
-0.467594
-0.365878
-6.54877
-5.09104
-5.16918
-11.1595
-13.3073
-13.4986
-18.8148
-19.7199
-6.86361
-2.73469
-8.72274
-12.8165
-7.0997
-4.10032
0.234232
9.29975
9.47784
12.6604
17.565
2.78234
7.64651
8.90906
-3.79628
3.6003
15.7219
13.7671
15.4953
-0.166443
-9.30076
-8.5643
-9.41566
-7.94685
-2.52716
6.00407
-6.02597
-19.5162
-15.0131
-5.21576
1.01246
6.92456
6.497
4.2825
21.3897
13.3792
-5.25064
-14.2322
-6.32074
-2.30455
-12.5399
-8.65679
0.381237
4.12915
11.4412
5.89113
-6.27829
-0.808826
7.90952
15.7286
14.1617
7.9508
0.591273
1.06671
-11.2555
-14.924
-14.1225
-18.4449
-17.5874
-12.3591
9.44505
22.0817
7.25417
1.96643
-6.43133
-9.77324
1.16668
7.8733
6.39312
15.8368
11.4306
2.06981
2.22172
-1.12113
4.02884
7.11721
9.37895
9.2165
-7.33888
-10.877
-22.5943
-17.6268
-0.0955694
6.73693
1.06373
0.472005
-7.311
5.96803
11.9769
11.0297
10.3053
4.77654
11.0236
0.113635
-24.8221
-29.5911
-10.6112
-3.05134
-3.54369
-18.3012
-35.7363
-20.0638
24.2114
45.4015
38.1165
12.8542
17.9159
18.1997
10.2101
-6.16596
-16.4683
-13.816
-20.5749
-21.5962
-12.851
-1.31434
-13.9251
-34.333
-19.1543
-3.07372
14.3015
16.6893
-4.1897
-11.4018
6.59527
27.1789
39.0271
35.8584
24.2405
14.8696
1.73129
-11.4944
-16.5313
-5.07983
4.40198
8.64903
6.59718
-15.9199
-20.3372
-13.0932
-1.71322
63.9207
57.3228
-18.6845
-42.1545
-42.7466
-46.5252
-19.9939
-1.72486
-2.32324
2.54835
6.67427
1.03367
0.685615
23.4791
24.1476
26.1646
32.7978
12.4031
-29.7347
-53.2807
-76.4092
-37.5839
7.73693
10.4421
13.1433
9.09534
10.5839
20.5224
31.2471
29.3444
16.4765
1.06572
6.13359
5.67711
-1.76024
1.30449
5.41683
-9.69034
4.21525
6.29676
4.36941
-14.8633
-22.2757
-0.793365
1.82829
-1.77871
7.8264
2.68363
-20.9712
-14.4967
-8.66665
-23.9647
-39.9085
-36.959
-4.94284
5.3349
-12.5328
-0.491122
17.7329
33.1424
11.2326
-7.22965
11.3516
28.9006
36.3001
46.8118
42.0282
10.6796
-7.93234
-13.6011
-21.6484
30.5667
107.856
53.1638
-8.97077
-22.4239
-25.4367
-30.2253
-44.7557
-49.9105
-62.8629
-69.9303
-67.9899
-61.2176
-55.9746
-32.7376
12.8448
79.4378
95.7117
94.7143
61.9626
13.7172
-34.5781
-32.2614
-18.1814
-9.2563
-14.8515
-23.0885
-11.1258
27.5259
49.4765
20.1762
-29.3066
-29.2765
-9.0892
0.487607
-6.55562
15.037
14.2472
-3.11563
7.17241
17.2228
10.0283
16.2103
-13.2934
-21.3288
14.1717
6.93035
1.82794
-7.25677
9.38187
29.7633
42.1009
47.9098
28.9543
-22.752
-52.0945
-60.2638
-51.7483
-18.3949
-9.64094
10.0124
26.6262
8.93957
-16.6643
-9.06231
21.8677
0.0893375
-21.945
15.3602
48.8702
6.31822
17.741
17.667
-26.1587
-52.1036
-67.3653
-91.9374
-46.9028
12.7149
-0.0650775
92.4689
136.774
-3.43233
0.29814
7.38741
18.6252
37.4347
-13.7018
-68.9284
-69.8
2.04285
13.2925
-1.08967
3.49723
13.0705
17.9218
11.8403
9.37771
-28.9496
-2.80589
-38.9967
-49.5784
42.0554
0.610435
-46.7821
-91.4052
-107.638
-31.8966
40.3624
108.871
228.565
149.376
44.3887
23.0961
43.8699
42.6705
28.8278
2.09645
-42.3775
-40.2409
-78.086
-107.049
-49.1883
-4.62137
33.9346
57.5133
58.4277
-13.549
-94.4425
-70.2413
-129.713
-132.364
-99.1447
-66.8733
-26.7492
17.3228
49.0906
36.2197
35.1781
39.5528
67.5216
126.16
96.937
1.35782
-42.5623
-28.5345
-8.37219
35.1075
63.3562
13.0746
-17.0482
19.6931
31.5231
3.69556
-19.4645
3.6807
35.7042
22.2933
-6.90034
-33.351
-58.5453
-75.9765
-37.5655
-2.44198
-4.31882
-10.2287
-10.1532
-5.13967
10.2931
5.55328
12.9984
50.0625
69.0295
84.7854
61.574
23.0889
2.67529
-30.6846
-32.8981
-15.7273
-13.658
-33.1933
-19.1866
9.80126
2.69394
2.08825
-4.86812
-16.4798
-36.9331
-66.6364
-53.5962
-14.9454
-97.0007
-84.4349
-1.52576
3.16368
7.02715
8.57485
11.847
43.8728
75.6648
103.966
127.359
78.8614
29.7533
-23.5162
-58.9561
-14.6145
9.07017
16.5266
-38.9201
-74.5463
-19.9057
-16.2143
-19.6263
-4.5429
-14.7761
-10.0681
-19.266
-46.7296
-57.2343
-78.8745
-63.3297
-12.6977
30.6612
54.9782
91.7593
103.728
112.369
109.21
60.7602
-10.4398
-9.05138
-18.2095
-37.0231
-62.4847
-64.192
-33.1587
-9.76964
29.9867
73.7948
91.5929
87.67
32.7832
-21.98
-47.0788
-48.994
-50.6089
-27.9723
-19.881
-30.8903
-12.9425
-11.0873
-33.8985
-52.676
-23.0978
-15.2315
-24.6157
-15.2705
-51.7978
-124.185
-132.264
-75.3038
11.6464
99.4039
143.273
127.292
116.496
110.618
90.375
39.0516
22.1192
41.1036
53.7565
27.3213
-19.804
-51.6513
-56.3985
-62.1027
-65.2715
-31.0436
-40.0168
-89.9621
-95.5633
-56.5946
-10.2781
69.1885
149.699
140.553
67.0267
-31.4747
-99.4141
-97.9119
-68.2843
-9.01071
13.3039
-11.6844
-13.3964
8.81773
3.92019
-9.71245
48.5425
72.2683
57.8657
6.25945
-40.0023
-37.8638
-58.0148
-48.8046
-8.76502
54.2833
111.111
90.7411
16.2136
-22.9451
-23.7395
-41.2653
-55.4897
-68.6434
-65.8144
-31.5456
-53.2548
-62.1589
-38.4645
-13.6531
23.7047
50.745
12.6893
-18.0488
-7.34341
19.935
45.1386
65.5554
90.0931
92.3511
99.3398
118.01
100.617
56.9024
-5.48906
-47.9767
-36.8177
-15.8646
-37.1243
-22.1993
44.413
-9.49752
-81.5981
-61.205
-20.1749
97.2796
95.6199
-9.08243
-91.8632
-187.719
-204.835
-152.114
23.3939
59.7212
-35.9978
28.3953
69.5136
47.9929
40.4843
42.4906
-58.1405
-78.2199
-44.3216
-32.4707
90.8204
33.4305
-108.117
-84.3459
3.15073
59.9751
63.9293
73.7044
53.6333
66.037
137.138
93.1669
41.4592
-1.15016
-12.2826
-47.492
-40.7541
-7.11927
25.9142
-7.52132
-119.033
-125.22
-37.0409
0.987017
4.89119
41.3305
68.2574
33.5577
-49.2242
-58.8151
-2.25775
33.5954
5.00117
-13.2929
-4.66896
-19.4028
-31.4159
-7.08816
10.6375
35.0623
40.134
11.3109
3.29907
20.2457
28.9081
40.2333
31.8506
28.5134
22.7219
-6.65036
-24.6122
-40.2644
-44.1649
-29.9043
-4.25843
-23.2468
-37.9322
2.89165
35.6262
45.9118
18.1666
-8.0325
-2.15034
-34.0658
-15.442
33.2892
36.645
14.1215
-100.261
-116.791
-62.0755
-49.3104
-32.9355
7.25465
40.4532
30.8162
47.837
42.9057
-8.39468
-1.46521
-49.9323
-55.7836
112.128
104.388
53.6805
44.9051
65.8552
56.5335
64.6306
48.8738
42.1375
10.2677
-19.4978
-54.2173
-72.682
-42.8602
-20.1482
-10.1349
7.03576
-38.4222
-53.1582
-56.7995
-107.111
-45.7442
-44.9139
-68.5159
-72.7765
-73.7601
-49.67
-39.9581
-21.0565
16.3037
56.4273
93.246
112.801
131.158
105.831
36.7487
-38.5635
-81.8746
-55.5111
25.0975
124.364
237.763
43.7765
-22.3182
-10.4581
-47.0591
-41.5373
-28.4952
-31.5342
-4.92503
20.1149
56.1431
65.6215
43.8969
-5.92474
-34.7249
-37.0131
-14.0521
-1.10347
-20.2924
-97.1944
-150.668
-32.2188
-7.32427
-24.194
-10.4595
10.6539
31.2051
24.5519
12.2621
-17.7821
-100.006
-109.693
-87.4125
-52.5261
12.0459
58.9809
77.9015
54.5192
18.8881
-17.7228
8.85056
100.37
127.445
127.692
74.7437
24.1502
-26.8619
-60.1185
-70.0692
-51.1208
0.937704
40.6994
36.7501
10.9464
1.45132
18.0136
102.031
108.778
10.3464
-46.9163
-149.685
-185.419
-146.717
-89.0836
-48.6162
31.4258
91.8219
62.0556
20.248
47.226
131.795
52.4031
-80.9968
-87.8743
-49.372
13.2341
-1.92044
16.2155
89.5226
51.3716
9.52388
3.63254
-12.3219
-5.37799
27.7593
13.9045
-18.3228
-59.8616
-66.1939
-79.1868
-126.131
-72.455
5.54371
45.1267
54.7825
-43.7043
-85.8357
-62.3991
4.76434
69.2523
122.649
117.14
88.2632
75.2021
72.8991
44.6352
50.2149
46.4371
-33.2121
-103.521
-112.644
-99.1777
10.0562
176.031
36.4867
18.6253
70.388
82.8783
30.0092
-41.4743
-74.2139
-75.4418
-69.8772
-102.966
-118.955
-110.989
-100.496
-61.1183
25.033
100.115
146.08
123.762
27.0399
-75.7748
-28.6383
16.0211
-7.56528
-30.9419
-64.6447
-71.4784
-17.6858
8.05505
104.132
109.637
93.6356
28.4775
-19.0316
-2.71551
6.87825
0.665671
-43.4807
16.7003
62.3558
-60.166
-53.8886
-17.3549
-8.57433
-10.609
-9.02476
-18.1106
-9.08427
-14.5892
-79.8511
-37.2379
-15.6853
38.0499
88.3825
70.5984
8.87847
-9.68452
-43.1209
-97.0008
-66.3616
-3.58417
47.403
63.3939
65.2749
62.898
75.3092
115.729
122.243
115.221
48.6809
-41.7061
-116.081
-182.549
-199.056
-147.879
-61.8163
18.9414
70.6012
74.6529
81.2903
70.6254
65.6426
69.036
86.0698
71.8626
13.2729
-69.8842
-127.081
-156.814
-150.53
-105.594
-18.9207
28.2662
-16.7844
-13.2367
-4.25611
-38.5643
-60.6824
-28.5254
-15.6674
17.3634
3.91734
-30.3954
-18.7618
114.563
287.936
96.9842
-32.163
-41.4872
-10.0455
-2.2756
30.9403
40.4394
-26.3073
12.4447
101.753
128.439
80.4191
66.5007
59.092
65.5291
95.4183
88.8948
37.7774
-129.529
-260.982
-223.021
-215.096
-181.962
-142.444
-66.448
38.711
149.963
231.836
112.494
-1.98882
-28.5115
-48.4925
-73.9318
-83.6658
-97.1094
-93.3266
-68.4158
-37.5866
4.76961
18.901
112.205
183.891
177.36
110.443
51.5285
-37.1661
-105.562
-95.7225
-51.5919
-26.9481
-16.5435
5.98199
12.3519
27.9592
13.5005
15.0012
32.69
-23.4018
-86.439
-27.7173
76.0371
94.9593
66.1021
64.6783
83.4935
82.8121
55.3212
11.0872
-9.97161
-30.7342
-50.7733
-39.4811
-38.9253
-7.06026
14.9536
-39.8211
-36.816
-32.9194
13.8874
-0.448661
-37.569
-63.6482
-65.6039
-50.8928
-25.6221
-20.8177
-71.351
-68.3687
-43.9636
-38.969
-5.09007
38.774
92.0997
57.1913
-28.0285
-25.0897
-31.0093
-46.9075
30.0687
38.2992
38.4894
50.3273
99.9253
185.491
145.283
67.5201
-25.2815
-107.464
-136.622
-50.8815
156.874
33.1372
-81.837
-55.8045
-61.9974
-52.8605
79.7549
139.428
68.8471
11.6309
-20.2535
-13.6696
-28.459
-101.333
-106.351
-78.1216
38.8019
102.583
97.5026
23.9863
-111.947
-75.179
-34.5585
-53.2548
-21.6813
13.0039
-34.0985
-22.1653
-5.70369
-1.00998
11.9734
31.2782
32.179
-4.71435
-25.1511
-46.9195
-82.3862
-59.4333
-31.002
-3.50582
48.0118
142.284
116.898
64.0374
87.9877
105.352
42.8804
19.7165
5.13283
-15.2402
-12.0895
-0.876269
-26.7669
-49.5306
-41.5651
-30.5524
-14.7867
26.0283
47.1712
1.1608
-103.075
-122.012
-59.1464
18.784
21.7162
-3.57307
16.8485
21.4166
45.1734
46.3685
35.323
15.6703
1.942
-13.5953
-26.0551
-28.1887
-54.9572
-66.627
-63.6835
-27.7793
27.2775
53.0983
47.6577
31.1944
6.57089
-30.94
-36.8434
-40.5744
-35.6992
-10.3367
17.4513
18.9442
37.0538
46.9064
7.88921
-22.0278
-14.3759
4.92683
18.5483
18.4594
-8.79553
-26.1643
-38.8292
-44.702
-8.48041
62.6374
79.4527
69.9032
126.093
91.6736
8.06617
-30.5553
-52.9832
-85.737
-73.7063
-13.2966
46.198
110.686
110.588
83.5833
39.4847
-0.720411
-31.9782
-51.2382
-28.5032
-3.76122
-47.1998
-95.5826
-147.674
-120.327
-74.3495
-48.4543
-35.4792
-21.7479
-6.45059
-3.12647
-23.3051
6.15802
56.3169
-16.2195
-55.3635
-39.7628
19.1915
41.3382
8.10609
-34.4108
-25.2015
23.2349
57.2667
78.5298
99.3218
125.188
122.501
101.639
69.1321
10.6918
10.2835
-45.533
-99.3704
-69.4322
-21.0256
7.35749
36.013
110.001
136.653
76.5741
50.6285
41.7962
-12.8972
-65.5416
-71.6944
-60.9469
-76.1575
-78.7707
-56.9136
-60.6774
-115.18
-123.265
-112.816
-75.842
-15.4737
23.4641
-8.21024
-35.6718
-41.7682
-13.0941
21.77
25.9942
26.7443
33.3367
3.40025
-22.6141
7.49023
47.1423
77.4538
99.2199
120.627
113.453
92.5345
72.8051
-36.1204
-124.675
-133.506
-116.143
-47.9438
70.7023
146.415
167.22
180.586
163.695
122.883
117.152
57.0323
-34.0105
-87.9002
-107.733
-128.535
-147.221
-178.774
-174.88
-116.166
-84.9933
-44.8701
-18.0471
-3.17893
-7.69083
-80.9317
-92.4557
-79.9519
-50.4926
-0.260013
-9.18801
-6.69037
37.9896
50.8993
117.704
150.257
68.8794
69.8915
93.4738
97.3104
127.827
109.472
66.9305
24.172
-4.15564
3.23247
-27.508
-57.1862
-49.7303
-34.1135
-37.5926
6.17105
13.9592
-4.58343
-5.31755
2.47751
-21.4375
-71.4435
-102.54
-79.9587
-46.1065
-26.0863
-5.67671
-2.51332
-19.9131
31.9419
92.1483
168.056
124.152
-34.5734
-92.2497
-95.4984
-110.555
-54.9237
17.7909
96.345
73.4836
4.3397
3.34648
-27.3627
-44.7179
-34.605
-41.6516
-60.9361
-84.9455
-73.0468
-55.9998
-69.3833
-23.007
59.0629
64.034
60.3663
108.049
140.504
96.9075
-17.3075
-22.599
16.6165
34.7235
49.5981
63.4035
53.8346
26.3334
-10.0623
-38.6935
-47.9058
-25.3694
30.8554
65.5994
132.933
120.923
36.8152
-44.0793
-85.8676
-159.787
-226.498
-175.574
-57.9601
26.9238
90.9956
124.19
52.9026
-16.1917
-32.8831
-48.5246
-58.0504
-82.8412
-133.458
-125.866
-89.3935
0.883681
154.166
115.087
14.1587
5.81441
31.1886
53.6304
43.0118
6.7355
-22.2446
-32.0034
-8.38411
33.7045
67.3107
64.9382
83.1668
80.6404
33.5648
12.503
13.9677
-50.6752
-105.954
1.07316
137.475
115.456
47.824
-32.6205
-92.7927
-71.4582
-75.1395
-86.5943
-52.0971
-33.693
-46.4876
-51.0953
-37.2504
-3.45496
42.4148
52.3537
30.8543
10.8014
2.72309
-31.9452
-66.3008
-36.451
-7.77949
30.7137
51.1401
88.1133
93.1085
21.8938
36.4455
64.3816
2.55543
-5.07743
-9.68084
-19.3594
-31.7576
-64.601
-106.876
-97.2185
-73.9773
87.2605
13.7304
-108.625
7.21034
63.8122
96.568
101.681
51.3547
34.5979
13.9855
-20.3134
-0.262255
23.6101
35.9841
68.88
44.0911
14.5625
3.00048
-22.2328
-62.3563
-137.281
-122.75
-45.4043
-61.3624
-58.7526
-49.1203
-100.196
-87.9171
-10.4596
3.0009
-13.6866
38.3264
42.1784
46.2984
37.9804
-18.1317
22.7401
77.4947
67.4283
34.8843
-28.6285
-18.5723
45.0371
83.7476
154.263
203.531
191.359
112.001
67.6215
64.7265
20.1166
-45.1855
-92.5002
-142.502
-150.384
-71.7264
-33.1747
-66.1824
-92.1897
-98.2512
-78.5433
-12.986
12.9026
-28.5614
-74.4757
-141.832
-155.912
-102.789
-31.6603
-11.2126
4.85353
42.628
13.3533
-17.6102
75.2098
125.184
123.201
103.164
128.052
164.037
160.579
175.403
110.091
-0.688822
-83.6009
-42.7759
-17.5817
-75.5157
-81.9362
-79.3145
-40.1787
-19.0207
-11.1485
-11.835
-109.572
-136.775
-43.1905
51.8204
48.3561
64.8659
49.8449
-21.5536
-56.4543
-61.1345
-65.2811
-77.1894
-93.5801
-73.4427
-44.1238
28.4283
133.36
183.79
171.354
127.112
96.0591
74.0332
-3.38478
-53.3788
-73.5503
-106.429
-104.134
-85.9401
-41.3012
-17.4223
-26.6274
-36.5736
-12.5244
71.1956
32.9968
-69.4285
-113.592
-95.4888
-3.44063
106.976
168.926
236.693
204.206
119.144
69.3903
2.20494
-65.3106
-80.3975
-72.3085
-66.914
-55.1627
-24.9702
-24.3579
-30.3681
-15.8116
9.06878
0.69427
-58.7875
-86.1222
-123.127
-138.722
-140.29
-115.578
-69.636
-6.66259
54.3
82.2563
79.6308
73.6279
67.0799
75.7935
41.4899
10.7678
24.4471
70.0367
110.68
103.817
98.3769
113.757
147.471
126.979
9.14083
-92.2145
-98.2632
-94.6824
-11.0034
31.5582
-50.3258
-75.0825
-117.799
-145.319
-94.6233
-6.59264
133.369
-31.7657
-133.914
-91.9081
1.76103
8.89032
-55.8902
-56.1437
25.5344
59.423
33.7168
1.65201
-86.3398
-50.8885
32.4654
66.4765
117.346
136.218
85.8489
22.8921
-68.3248
-15.3659
-11.6525
-32.7004
-41.6828
-38.4169
-4.79595
-15.8113
-22.9808
20.4827
75.2433
94.3392
90.9968
47.6758
18.3761
22.8616
36.1815
14.1059
-1.04494
-43.4357
-99.4514
-44.4396
-10.1385
-21.1806
-15.0989
-26.5035
-48.6577
-8.46925
7.07767
39.4304
22.634
-3.1947
-13.0196
-66.1706
-91.2245
-53.5926
11.6493
23.398
-11.917
-34.512
-41.0963
-0.228311
-13.4354
-6.85265
-13.3852
-22.2149
18.9698
70.4937
179.088
181.16
130.297
131.125
74.4836
38.6146
20.6742
1.4236
-39.0663
-84.6386
-114.024
-108.089
-82.4414
-44.8007
-25.0001
-49.2461
-87.8987
-95.4722
-103.104
-110.174
-150.436
-112.463
-65.9799
-37.0338
10.1844
88.1978
200.28
153.714
113.712
135.414
133.854
84.8862
19.0275
13.6498
51.1613
129.84
122.826
27.7903
-7.71174
-17.891
-64.5848
-98.1179
-79.4188
-62.6036
-57.5655
-66.8833
-67.5856
-9.8001
16.3781
-45.5943
-129.317
-142.773
-101.595
49.4261
156.078
-39.86
-33.4602
79.1124
133.956
177.703
151.079
43.6972
-9.96636
-31.9097
-29.6365
-27.639
-78.9214
-146.389
-149.03
-86.7028
5.93356
102.333
187.03
177.893
67.7945
33.0207
30.5307
-84.6134
-188.633
-171.985
-144.873
-74.5601
-7.77479
11.0351
9.85578
-3.63754
-5.48581
39.1244
69.2664
69.5068
64.0704
22.9438
-37.0004
-112.626
-93.2945
19.9693
42.5575
87.24
99.9956
77.7402
58.3073
47.2341
42.8325
86.7983
120.178
59.999
-24.2837
-68.7316
-112.894
-59.5076
0.265045
-0.0378331
-44.5363
-84.3873
-85.378
-53.2564
-50.4718
-13.9114
23.3954
16.2652
8.48211
20.3165
7.61216
-29.6237
-42.1886
-15.9071
15.1947
48.3065
130.909
111.229
7.4278
-24.356
-7.71106
-21.1131
-37.2614
-59.6885
-59.9449
-26.1759
-14.0968
-20.3345
-11.2252
10.1241
30.9033
35.9135
23.3246
18.4164
14.7102
-37.037
-120.423
-134.48
-10.5021
115.338
204.253
86.7205
49.0128
36.9964
13.067
-0.368394
-58.3119
-93.6992
-89.9142
4.87639
137.857
-50.3371
-120.166
-64.9916
-3.78974
82.1043
127.754
25.1565
-80.1168
-106.433
-105.378
24.0975
50.4074
25.6229
26.1874
-1.44892
-1.98475
54.7765
140.747
118.745
-24.5895
-11.8872
-26.7233
-23.7899
-18.9456
-46.559
-56.215
-47.2082
-67.6201
-116.375
-127.666
-94.1672
-6.70712
66.5426
-5.98377
12.9355
79.4232
82.3518
43.1058
31.9246
48.1566
87.0177
89.6728
71.4006
40.5355
26.4839
38.0456
57.2957
47.9554
-19.6125
-93.1745
-97.7879
-79.2449
-70.4182
-2.03505
21.6416
-2.50609
-61.8947
-76.863
-63.1326
-10.2176
127.569
103.197
-3.97384
-53.4095
-60.884
-19.8917
8.49466
9.48959
14.9611
9.8868
-21.5542
-38.9988
-54.6536
-48.0415
-28.9969
-4.16876
83.4675
79.4789
5.18893
-15.7149
-32.2173
-5.25603
34.3473
29.0407
18.4604
-8.13144
-11.7746
-13.6492
-1.83406
15.1418
23.7871
57.9947
73.1203
41.31
-5.44584
-64.114
-70.2264
-4.52345
27.3181
-3.99552
-3.54911
-12.9881
-10.3699
12.4178
20.9562
15.1888
0.919327
2.2435
1.55882
-7.826
-27.286
-69.1632
-60.7316
-5.7642
24.5658
60.8917
35.6003
-1.65113
8.53977
47.1262
41.3585
10.1068
1.24345
2.84851
-58.9672
-118.683
-98.0059
-44.6819
-31.306
-39.2821
-34.3806
-5.25285
-20.3508
31.9179
147.691
185.547
124.432
85.1282
53.0692
-7.79922
-56.3424
-92.4768
-121.494
-28.7653
259.256
52.9671
-40.6959
-40.2393
-102.661
-128.837
-108.653
-63.713
73.7525
141.944
10.0206
-63.2687
-86.6675
-83.6195
-60.7753
-14.9844
63.0184
115.509
89.7044
-11.7615
-176.613
-46.9294
35.2849
35.6474
88.2176
120.16
87.2396
34.5122
-48.8066
-100.361
-67.962
-52.9693
2.18548
23.5039
7.76065
6.69084
-38.3911
-23.8495
50.136
50.9538
11.6247
50.8148
9.64615
-18.8401
-5.10285
-13.0456
29.6522
56.5897
52.8764
32.574
29.8945
46.0884
19.4319
-7.46964
-12.5581
-29.0038
-42.1233
-60.1792
-49.8345
-42.9766
-68.7963
-13.0399
20.1216
-10.5635
-58.0727
-52.0906
-50.3992
5.92433
58.3535
16.332
10.3092
-30.1471
-46.5856
-41.443
-35.6747
-26.1527
32.1557
54.6868
64.7313
16.4656
-32.4904
1.54476
28.3907
66.5746
99.6259
134.533
103.671
-12.4045
-96.2778
-92.3401
-61.3392
53.078
85.5469
63.0712
35.8138
-24.3507
-68.295
-57.4395
-70
-78.0841
-70.64
-46.2075
4.73381
89.6954
71.2719
-51.2794
-107.646
-72.1964
-72.6451
-54.5958
-3.51415
82.0681
149.628
118.223
66.0987
47.8413
46.3397
45.0358
-23.4235
-49.7399
18.4422
172.686
199.042
-110.535
-168.162
-130.779
-81.3851
-22.4824
-0.0353023
3.19447
-15.6235
-90.2619
-135.383
-80.114
-7.25001
19.888
27.9303
11.2699
31.517
50.4657
40.1428
5.88105
-61.6612
-64.0224
30.0634
162.713
158.808
75.215
66.4303
50.2421
4.30515
-60.3477
-128.928
-111.585
-45.4274
-19.9487
-35.2045
-9.35176
34.214
63.7431
46.4854
-25.6662
-30.014
67.6088
28.8995
-24.9273
-14.2317
-32.9657
-49.432
-16.4061
52.5366
89.2004
130.673
104.647
27.801
13.7713
9.46395
-22.6961
-21.6525
-32.9162
-61.4197
-38.1099
-64.8966
-63.3986
-66.4362
-84.0795
-86.0091
-45.6274
-30.6125
-83.6753
-158.265
-173.189
-102.434
4.19095
32.9161
85.7104
141.165
143.555
171.659
220.474
164.897
116.281
105.369
54.7744
-29.4723
-75.2716
-8.12601
17.1996
-59.076
-55.0692
0.763114
14.7487
2.95059
-29.5554
-28.8506
-15.8165
-38.6875
-41.4164
-67.8901
-95.7917
-68.2846
-105.437
-143.176
-95.1742
7.04104
54.198
70.4977
108.934
63.4925
41.4196
54.8392
41.7043
10.6191
8.67072
22.115
26.0162
11.6782
-13.9994
-34.0699
-36.6149
-31.9077
-25.633
50.0909
129.334
149.331
110.162
-12.6727
-71.7222
-12.3745
6.8784
-22.4313
-40.6016
-59.0227
-49.9999
-42.5783
-44.6008
-61.4591
-93.1771
-140.96
-110.291
29.6628
186.918
198.258
10.6227
-60.2038
-72.7608
-58.1584
-25.0402
26.7629
30.4825
33.6225
35.1625
-6.30102
-49.171
-28.5833
35.7129
65.2542
61.1533
44.2371
26.8414
-7.14984
-0.235751
71.7746
85.6017
1.88408
-75.5158
-72.3167
-17.6196
-3.84727
-33.7269
-92.1677
-57.4587
61.2131
36.0206
-18.3478
-59.1487
1.94054
46.2232
30.4653
17.1169
-39.6098
-141.666
-182.949
-84.8349
6.95881
91.3935
151.216
135.972
131.934
112.542
110.943
67.2309
-17.9657
2.68246
17.176
1.80404
-33.5431
-41.5568
-38.095
-42.6135
-45.4697
-68.0439
-64.3514
-34.8172
-59.9055
-102.163
-121.293
-113.743
-64.1392
43.7089
47.9311
7.23801
6.32242
76.1942
110.829
95.4076
68.1902
55.5687
74.2444
58.0836
3.71597
-53.9803
-75.5902
-58.1731
-13.7809
44.2412
48.5449
42.507
67.9159
72.8295
58.9697
17.3206
-91.1231
-129.702
-71.892
-59.9748
-47.0939
-38.9055
-11.1738
38.5423
55.3895
37.417
13.4017
-0.199372
-26.4398
-43.7387
-61.7961
-81.1263
-77.3071
-76.3254
-31.6123
25.1632
78.2247
98.0825
80.0625
66.8018
79.0994
89.8618
126.696
165.965
1.25404
-156.047
-136.629
-88.7811
-54.6021
-41.0835
-41.8522
-34.5887
-31.0886
-27.5461
19.3565
37.4087
39.7776
13.3407
-6.17477
15.3373
5.59432
-3.12922
-31.7685
-67.451
25.6281
112.712
110.251
88.2182
43.1506
-4.25469
-13.5937
-33.7489
-41.7314
-44.9577
-73.9086
-67.8219
-57.0212
-43.2736
-25.5732
-6.06892
73.9232
139.612
-2.89091
-149.255
-88.5435
48.2278
273.147
193.448
-15.4971
-36.1545
-87.5188
-111.432
-111.468
-123.274
-100.306
-19.6196
102.026
114.412
120.152
116.869
51.2892
11.5171
41.8011
13.4762
-69.4955
-110.558
-161.124
-101.744
6.70218
-7.56599
-30.6699
-17.8559
6.8936
-2.71117
17.798
3.18464
-5.21732
-3.05965
-40.3467
-1.48467
25.4101
54.0198
80.8498
96.9007
89.3384
29.9125
-46.6637
-39.6845
0.75562
11.1192
53.7386
73.0368
59.4104
50.2376
26.0916
7.79524
-44.8806
-50.0251
-18.0832
-10.0167
-38.8382
-102.455
-109.394
-30.8098
17.5438
-54.5345
-121.766
-75.1643
12.3709
66.9874
76.2391
56.6434
38.2877
29.8205
36.4174
15.6156
-4.28757
5.4358
-15.5677
-58.0194
-55.2621
-38.4028
56.5151
71.3167
62.3039
101.137
55.0512
8.65871
-17.2428
-43.356
-48.9529
-28.8138
-53.0438
-75.512
-78.4527
-42.2338
-9.56863
28.6208
55.6818
54.4664
42.2615
28.8969
-9.1117
-39.017
-75.1754
6.57681
40.8648
0.291669
-3.46089
45.3402
35.9212
-8.68515
-27.3077
-3.56395
29.7738
63.0517
71.5945
-13.4106
-57.3541
-35.6915
-9.0269
8.69828
-16.6651
-37.1766
-14.5218
-45.2333
-65.068
-48.0726
-53.6616
-69.278
-33.5347
46.034
114.468
102.651
80.6782
80.4772
37.0109
52.8378
47.0608
-9.93838
-29.7306
-22.5552
-24.7329
23.4038
50.2734
16.6772
-9.63123
-37.656
-82.0167
-87.3681
-54.3411
-48.0324
-25.2382
4.87492
-14.2671
-46.857
-43.4362
-7.63808
28.8609
0.572849
-7.72685
-11.7864
-8.44434
123.035
67.0209
9.22012
205.168
151.157
-31.2869
-71.3321
-73.9976
-78.0576
-60.2023
-18.6533
27.9986
-10.8404
-93.4426
-50.6502
5.63905
51.037
58.1933
95.2814
86.3025
-4.14659
-26.477
-17.4375
-104.72
-58.8506
25.8799
5.22304
-24.7631
-32.7413
-30.1725
-31.8835
-18.0631
13.6023
37.9693
26.3148
6.76409
11.7474
29.4244
25.6557
1.94056
-50.6892
-37.1933
-12.0081
-25.3569
4.499
30.2606
8.24618
-16.426
34.7899
106.935
60.2893
39.8174
49.9194
61.2728
6.00847
-47.0552
-63.2299
-66.4859
-83.3279
-25.917
1.5872
14.7579
4.36477
-30.8926
-9.22668
32.7157
60.7393
50.2611
-18.2925
-65.5875
-48.7312
-77.1642
-76.9819
-54.6093
1.26056
115.982
86.3195
38.4728
12.2693
-0.411325
-26.9492
-57.5371
-57.371
-58.2368
-21.6205
51.7966
67.2322
38.5555
31.8593
43.2666
69.7415
41.1471
-3.09602
-19.9021
-22.175
-11.2423
14.3533
12.0092
-10.5785
-6.02135
64.4353
52.0895
20.7554
-4.41639
-19.1199
-49.589
-72.8535
-51.011
-56.4882
-48.3781
-19.9292
30.2155
35.8951
1.52472
-69.5827
-127.403
-85.0945
-27.755
-13.4125
-18.4911
-34.1581
53.9908
92.8585
51.0351
16.6719
-10.5062
178.765
137.28
10.6284
23.6998
-0.205084
-15.4395
-3.46725
9.50708
47.4742
47.7855
9.44532
-40.1649
-46.608
-29.3539
-35.6288
-25.1355
-8.90183
16.6642
26.2214
39.7252
-73.5215
-8.04545
89.0059
-21.8508
-70.6192
-72.8354
-53.1659
-29.5445
-34.7228
-20.0679
26.6648
80.1978
83.6391
42.2071
-10.5439
-16.8708
-15.4801
-17.1292
-12.4448
-22.5443
-71.0554
-97.4015
-83.6121
-41.5442
9.01983
28.682
28.9183
31.6455
36.5723
32.7007
25.5224
35.2643
59.5301
46.6191
33.0904
3.42511
25.2433
48.7084
6.87203
-54.6818
-17.3547
16.6169
39.487
82.4974
-17.9908
-77.0401
-46.2894
-19.4171
-18.756
-4.46495
5.75607
11.7216
2.91739
-8.69916
-42.6333
-57.1214
-58.9019
-42.6098
14.4739
68.9391
32.8435
-19.8568
-54.7637
-40.8269
42.694
58.4485
13.8089
8.43601
-9.64848
-10.4465
5.3421
33.6207
97.5474
55.4995
23.4027
55.9948
38.4362
28.1263
-5.66569
-39.212
-67.8736
-112.271
-56.6156
-71.2951
-89.6713
-16.3622
55.5988
34.3998
-6.08297
-11.8568
52.4948
207.173
32.6318
-24.7927
-4.6074
-94.047
-139.945
-75.3031
-7.43569
-6.05956
-21.9709
-11.3817
-33.3863
-31.2194
34.6381
44.7536
38.1131
65.4279
88.6877
73.6356
33.4306
-97.1492
-66.6692
4.38312
25.3161
58.707
65.1605
6.20492
-5.34036
1.52559
3.0052
3.16523
-24.5809
-20.861
4.50295
-28.4077
-35.8152
-15.7129
1.9623
-1.88701
-36.1226
-70.9634
-5.45399
80.3738
17.8204
-16.4451
-1.80112
-15.0487
-9.14538
19.0396
43.8299
70.9723
41.8758
-0.353844
-4.64391
-5.46686
11.5473
-2.42802
-50.8873
-37.275
-9.86902
-0.262785
30.3146
5.72146
11.1493
37.704
26.4837
1.13034
-17.4435
-40.8871
-65.0138
-67.1821
-45.081
-20.8903
-24.3671
-16.3987
-32.1019
-38.5316
6.94476
40.9281
40.4257
51.8709
31.8625
-3.10508
4.05304
34.7469
82.1829
21.2285
-2.9386
17.6833
20.1216
13.3508
-18.8712
-69.9699
-72.7305
-48.2453
-19.7931
10.5384
57.3147
76.5646
71.5752
43.6232
12.3438
-25.8797
-2.53362
44.7405
-26.8971
-48.1907
-102.033
-184.747
-135.439
-19.7111
4.32247
38.5908
120.634
296.971
142.254
5.83576
-31.5904
-38.9793
-32.248
-39.2461
-31.0558
-26.1576
-26.8769
-41.7252
-36.1635
-5.65446
33.0476
58.9686
21.1886
-11.1255
91.1979
66.9262
-41.574
-183.542
-106.433
-19.6988
-13.4589
-73.2605
-98.2706
-31.4786
56.7344
101.115
122.617
70.3169
32.0577
24.9036
23.1888
32.3234
9.43365
-32.6462
-70.7472
-51.8263
-39.7816
-62.9072
5.20647
46.545
22.2515
34.0179
23.9283
29.948
50.9636
7.5713
-41.7669
-34.4987
-18.2953
-3.5457
20.7627
39.1184
33.2463
-0.924608
-39.5574
-24.5635
12.3027
12.3131
3.16825
13.75
14.6125
13.6804
17.9715
-23.7029
-67.9029
-48.4471
-37.2343
-13.9444
6.26694
11.7148
19.1734
18.3984
6.35391
16.0955
15.936
0.0905109
10.7053
11.2361
9.80695
-5.17893
-17.6124
-16.0087
-10.7532
-23.7119
-24.9204
-2.49795
-11.4054
-8.64455
16.5155
10.0252
13.8453
50.3172
42.9832
24.5412
20.8554
3.34302
-22.348
-36.2211
-6.00665
19.0141
20.8434
27.2951
21.436
-17.7981
-26.9246
-16.1018
-13.0207
-20.952
-24.9795
-13.7436
-22.3447
-32.0076
-30.069
-21.0712
-29.7549
-13.4447
10.5008
-14.2082
-27.9082
-21.643
-16.045
26.566
65.7445
49.1483
23.0994
13.5156
28.5097
49.752
38.3364
18.6464
10.8445
-2.54044
-3.30651
-15.2184
-31.2551
-34.0977
-4.85611
52.9025
74.9386
44.2035
4.3206
-32.7319
-35.1922
-46.906
-74.3214
-78.8581
-31.3106
169.759
156.962
-8.54736
-37.6115
-23.593
-21.6926
-33.6205
-56.258
-49.9199
-46.3492
-53.4431
-65.0802
-43.3085
-15.7164
-1.24013
20.8789
71.1334
112.799
122.396
38.0475
-105.464
-95.6313
8.29988
25.4578
2.36598
-29.7089
-10.7626
34.5653
50.2855
30.2311
5.34955
10.6101
21.6318
18.4528
9.09828
-7.97357
-10.3158
-9.19402
-11.517
-6.13844
-32.674
-26.3016
9.1247
19.9512
11.0942
5.09165
-10.9326
-12.1436
19.5106
40.6586
27.8009
0.9935
-6.55142
-13.0543
-28.2051
-26.7642
-16.6438
-24.1298
-26.3616
-17.3963
-43.0021
-41.465
-16.6582
-16.0644
-1.20488
13.3513
28.4131
28.8524
21.0135
30.9104
29.7607
12.9699
-3.45018
9.21623
41.2016
60.8345
40.2817
3.68741
-25.0457
-11.5036
-4.10725
-7.0153
-5.99709
7.34752
1.8142
-2.1478
-27.7107
-49.5443
-38.5844
-18.4291
-16.9408
-0.0764746
7.20891
8.43471
-3.47474
-8.63507
-9.69441
-2.94962
6.99052
-0.359873
5.76525
46.5682
-15.7022
-54.3614
-39.2773
-19.9936
32.1142
43.8347
-5.00249
31.44
145.779
78.3028
-52.7785
-101.656
-94.365
-24.0698
21.9298
70.7313
77.7585
35.4757
-14.4431
-49.8985
-6.20859
28.6541
21.6903
0.142152
-20.0239
-30.5463
-23.176
-55.6129
-112.854
-71.8485
26.1108
72.4334
71.9634
33.3135
10.6221
1.5515
9.4594
36.2465
34.4196
5.99762
1.55721
-7.10612
-13.1351
-7.18407
-5.05197
-9.6845
-7.06865
-15.2796
-34.1637
-21.159
-2.26986
14.4626
28.5782
18.5952
6.89826
-2.02245
-10.1797
-35.2096
-37.789
-41.2642
-35.7714
-17.7812
-3.81675
-14.5147
-10.5431
13.7435
25.5304
15.0876
23.1193
34.6743
50.0713
58.5187
36.0384
2.24269
-13.3285
-2.65026
-6.19466
1.43422
22.4968
31.3517
9.98421
-23.7735
-25.9808
2.89311
-17.1838
-59.507
-64.5355
-52.0414
-46.1563
54.9501
73.9317
33.2099
44.8226
-3.67853
-35.2591
-19.8454
2.36716
9.72409
0.115518
7.56004
12.7583
16.8272
14.8271
-7.56047
-1.27689
14.6889
0.0195992
-16.2088
-15.2216
-10.9096
30.4829
-43.4331
-106.67
-45.2907
-11.3124
-39.983
-59.9565
7.72522
52.8571
76.5627
70.1173
87.5695
81.5937
39.3067
-1.1925
6.05538
32.2409
32.2728
12.0425
-46.752
-123.978
-110.552
-58.7893
0.201598
41.5271
69.7892
70.6677
14.2933
-22.9431
-25.3717
-13.3019
-39.6097
-105.813
-101.277
-30.2626
-11.3328
-32.9286
-30.7283
10.4701
22.9175
66.0435
107.728
69.1798
40.3889
48.2036
55.8543
51.016
19.7553
-15.9182
-37.5228
-26.9349
6.20864
127.217
93.0829
-0.656269
-36.9253
-43.1374
-14.9092
-27.6122
-69.9551
-73.4167
-53.5342
-47.5525
-38.6009
-22.2098
-19.6509
-18.0992
4.919
28.5484
64.7745
20.9117
-34.4722
-55.3576
-33.5043
-20.1453
-27.7181
-24.7405
-22.7497
-33.4374
1.60373
62.5899
81.1535
42.8503
33.3433
37.7102
123.401
131.935
35.1947
-57.3496
-124.552
-99.4995
0.0414239
202.404
120.026
-92.3003
-75.1411
-24.1253
-17.3575
14.2477
21.8242
-4.48946
-13.4122
-9.37173
-19.0144
-28.9332
-56.1996
-36.578
12.4606
-8.64772
-13.0478
-0.240352
-19.2257
-81.6677
-32.9198
51.9978
6.73919
-52.9376
-43.657
-23.6806
-4.8688
8.89807
-3.51479
10.052
22.1813
43.1655
46.4687
55.4793
38.793
45.7838
56.3247
41.9856
34.4631
-9.99894
11.0872
18.8115
24.2434
72.3646
48.0039
31.8372
-63.1879
-115.433
-77.9939
-54.521
-52.8962
-69.6112
-83.8522
-76.0423
-41.906
-0.906996
36.5097
51.8861
37.4547
-6.69859
2.50474
59.7854
67.5183
34.7545
-5.1889
-26.9115
-11.2144
-0.0332557
22.1591
33.8054
57.829
57.8889
38.2049
16.8406
5.2637
-3.30256
-23.2871
-25.0534
-48.7518
-107.259
-122.364
-78.0256
-50.8651
-15.9071
42.7186
78.1064
92.8256
148.474
127.898
60.0307
32.9049
12.9631
-24.0812
-62.002
-65.9512
-58.0698
-36.7447
-8.43279
-39.287
-58.347
-40.1546
-11.8629
3.51777
5.24184
2.64273
-27.1421
-66.3417
-96.4617
-43.4589
16.3421
27.9655
37.7394
67.5508
94.521
68.2494
13.4067
12.2963
17.5601
100.831
47.0972
23.4128
32.3486
0.828269
-28.0427
-64.6628
-54.7607
-28.8592
-34.591
-58.3406
-82.3304
-76.5192
-44.8306
-21.9284
20.913
84.8822
89.7316
10.1939
-20.9591
-34.0245
14.259
34.1701
28.8069
14.1047
-32.894
-53.2248
-40.1447
-0.34289
18.9218
15.8947
45.5081
75.086
62.2028
112.739
109.088
-2.41593
-24.5734
-3.77612
-17.8677
-44.5298
-32.7905
-39.3582
-50.1578
-30.1446
-27.4439
-11.802
-12.1582
-28.7973
-37.062
-0.586155
-1.91451
-25.8541
-30.4573
-64.0355
-48.0815
-3.7475
2.15338
2.61365
10.1514
1.58508
5.00695
23.6425
36.4842
31.4288
33.4025
56.8834
109.919
113.907
83.1823
5.20313
-43.1764
-44.9178
-20.1694
-34.8021
-39.4586
0.586341
15.5351
26.4809
3.55577
-28.3644
-37.1962
-46.2051
-72.3995
-71.9063
-37.5749
-24.1555
-35.0281
-13.6708
16.5896
33.7038
44.0774
35.1644
8.05115
-13.9563
-24.46
-36.1505
-58.0971
-51.4117
-32.8403
46.7855
120.198
83.6225
97.1444
98.3414
58.611
56.4334
86.1526
72.3251
28.7496
1.08658
-56.9546
-78.3124
-36.7931
-49.0018
-53.5783
-41.9188
-41.2186
-53.3632
-40.3153
-46.9716
-90.4574
-79.8868
-81.4304
-73.0225
-68.3601
-73.8573
-66.9259
-31.6883
75.4619
68.4129
86.7638
153.914
111.195
91.9652
91.3997
80.5674
75.162
75.4838
47.0436
-15.5968
-18.7425
-12.2988
-58.7025
-43.1839
-3.53447
22.6307
11.7222
-14.4452
-72.8038
-43.1644
-6.35425
-34.0549
-22.776
-24.4901
-42.7489
-49.3203
-60.338
-51.048
-8.75034
33.4214
65.309
93.5708
138.091
112.723
14.4706
-76.5705
-115.757
-107.3
-68.4579
-9.65318
-3.18647
-20.4679
-12.2454
-2.07597
-9.91837
8.45679
37.4334
52.6387
37.7595
-16.0519
-56.2905
-43.6209
-45.0453
-41.3993
47.4716
77.0377
36.1799
25.0848
11.5293
6.95633
15.1796
16.6358
36.242
36.2181
26.9088
38.6898
51.1547
31.7763
11.6426
5.92963
18.1446
6.12439
-54.9374
-97.9634
-112.506
-74.4771
-9.78667
40.0884
45.619
18.4575
9.43876
-0.906421
-1.71159
-6.74144
-21.5825
-25.5379
-20.9778
24.2224
81.9824
6.65776
-30.1857
-11.9459
-4.6462
-7.53628
-45.5483
-34.8071
-29.528
-45.0752
-35.5311
-0.533417
2.78751
8.5626
28.702
56.1757
78.2451
66.9712
35.2978
-53.9554
-95.4891
-47.155
-10.168
17.0725
27.8709
21.9808
33.786
12.32
12.4206
53.7061
52.4258
-16.7435
-35.2408
-34.0877
-4.98685
17.2312
12.0806
10.1255
1.32737
7.24626
6.16033
40.3545
50.5797
-26.4853
-79.9522
-42.7534
-0.301291
37.2005
36.8471
2.78455
-20.654
-10.1507
-15.247
-38.5067
-54.9806
-52.4078
-32.8004
-18.2946
-13.6092
-13.1256
-21.8018
-18.6074
-28.6544
-24.4703
10.4983
40.1604
44.6562
25.3642
34.6255
31.9416
32.7281
44.5523
32.465
32.7269
26.2384
8.90669
17.1728
17.2886
19.9285
9.97121
-4.64509
11.1458
23.9491
36.0813
3.31385
-54.1789
-74.4059
-68.0425
-98.5613
-92.969
-80.0211
-2.6812
80.9355
69.8489
119.943
82.5893
24.5738
5.1617
-21.7301
-50.1799
-98.7379
-119.284
-72.3559
10.6634
91.2445
134.232
111.669
54.1019
17.1412
-35.8454
-60.8842
-59.6242
-53.5774
-30.4587
-53.5056
-36.0095
-29.0112
-18.5301
-4.52279
13.5276
63.3011
55.5248
-14.1314
-54.303
-65.2571
0.0511847
68.0322
8.18386
-4.01315
14.7757
20.3247
26.4095
16.81
-22.2849
-45.6507
-0.310482
61.8652
63.1388
60.0261
64.3029
82.4434
127.464
125.918
61.1738
-35.0093
-129.747
-166.159
-114.608
-64.9247
-46.1335
-37.3602
-41.2496
-53.8017
-23.5299
17.2524
52.5644
35.0943
2.09847
17.9718
4.84432
-17.0045
-28.4408
-34.4152
-33.6043
-43.4907
-61.0506
-76.2566
-35.9037
7.5637
55.4135
91.4895
101.372
94.1264
66.2704
-2.60534
-0.549205
49.4138
32.2048
19.2066
25.9344
11.617
-42.9168
-48.6929
-18.8679
-2.22308
-10.125
-15.0584
-20.0627
-15.6832
35.5695
1.85273
-50.4297
-37.104
-15.7277
19.589
15.2932
9.26705
30.1421
37.9682
33.8206
3.68526
-19.9003
-18.7624
-10.933
4.97192
4.75335
-26.6726
-44.0635
-58.8267
-83.4636
-45.4611
1.28778
11.8291
53.9177
96.0385
105.398
62.1142
40.6388
3.61441
-39.0999
-55.7454
-44.6285
0.0759487
78.9367
66.2858
7.55287
-18.7601
-40.5729
-34.9541
-40.6276
-50.7633
-48.1809
-46.72
-68.5557
-96.5586
-141.491
-76.8142
-6.85393
4.60108
20.7205
153.293
161.412
33.6313
-38.7407
-38.1695
-2.48009
31.6628
38.8511
71.5287
114.544
114.315
99.0456
96.6789
75.9886
50.0952
49.4361
-10.1757
-48.3905
-42.9553
-59.3744
-122.569
-126.463
-77.5487
-67.8843
-52.6665
-30.2512
-36.8724
-21.2927
-39.8562
-64.8955
-38.9911
-5.66343
69.0317
24.9359
-40.0302
-14.7561
-18.8646
-12.5738
18.4778
31.439
23.2988
50.5634
90.4214
112.648
92.2885
54.7075
42.6184
34.7557
11.8324
-17.4673
-43.4586
-57.2316
-107.342
-75.6622
-10.5385
-8.79531
20.0835
44.6355
19.4955
-5.49163
-15.7221
-14.5633
6.43928
12.3177
-14.4007
-32.4667
12.113
27.7325
-23.6691
-26.4864
-29.2038
-30.6092
-57.6869
-64.504
-3.72745
49.3888
97.8267
80.6063
47.8867
37.5336
44.8274
48.2798
-0.497324
-23.9429
19.1786
13.0197
-36.4034
-63.9946
-47.9561
-47.6363
-50.1121
-42.4719
-29.8509
-3.00834
-10.7535
-27.8221
-41.5424
-26.4204
-15.5566
6.74733
29.6416
15.4856
19.199
17.421
2.3012
9.56345
4.3907
11.7614
41.7303
38.9158
13.4141
-0.307907
-7.68816
18.3167
60.7305
155.787
170.018
88.8488
56.0866
2.22368
-29.9557
-52.2556
-48.4895
-35.6608
-53.4925
-56.1415
-57.2512
-70.8568
-72.7212
-60.4538
-44.8443
-30.9331
-17.9757
23.0523
52.2365
-20.1373
-37.8693
-56.9482
-48.2812
-50.5985
-65.2647
-42.4681
-27.4584
-26.2907
-0.486017
21.5916
34.1758
51.8714
53.7232
57.7539
74.9427
86.289
84.2702
58.1655
23.7526
2.10644
-30.9219
0.156692
25.4062
54.7222
47.6584
21.239
13.5097
10.3048
10.8931
-7.50118
-21.9726
-37.7998
-38.6863
-29.3955
36.7793
11.3424
-44.3276
-51.9029
-69.0988
-85.4062
-65.1478
-18.839
-5.25716
51.0485
104.913
61.4853
3.63991
-93.6737
-123.042
-101.832
-48.1889
23.3595
45.1347
33.8066
-38.1404
-41.7859
6.49174
8.06959
24.2763
54.8888
96.1224
134.608
100.043
71.2381
44.1698
9.69982
-34.2613
-25.3161
-26.5292
-26.9952
-32.5405
-54.0023
-53.3224
15.4777
83.47
65.0712
36.192
-2.35478
-48.2973
-77.2362
-115.349
-141.575
-109.717
-77.751
-25.7284
75.9182
60.1123
19.0247
4.51492
28.314
107.012
59.0039
38.6074
33.5157
-16.821
-8.27292
16.1482
15.1746
7.0078
5.91202
9.51244
29.7625
38.2948
-1.8872
-80.9899
-119.178
-56.5637
42.7502
110.92
108.243
52.7293
7.45567
-15.2695
-15.849
-73.4601
-85.7408
-46.0347
-22.0401
-21.2793
-27.6894
-34.1307
-27.6145
-10.9571
-8.82788
2.43266
-1.25607
14.0158
66.2239
94.3656
31.3471
-42.9075
-23.2846
10.4709
-3.23842
-1.92785
13.4207
-2.92694
-13.1776
-14.5015
-10.4586
12.5334
54.7774
67.5608
48.7456
53.6995
44.2583
-0.760921
-52.8649
-88.1175
-75.8273
-50.859
-11.2839
-3.55705
2.11356
11.7755
14.432
6.44362
4.89042
-4.55069
0.169569
13.2084
16.166
14.5364
16.3516
13.6592
19.4133
-3.23383
-17.2629
-26.201
-20.3961
-50.6911
-56.1646
-41.822
-42.5283
1.90767
32.0566
30.2287
9.52901
-2.0075
57.8492
102.271
74.8456
52.0921
30.1268
-9.85424
-29.9517
-20.7175
-23.4838
-5.40656
-0.756608
-8.68552
-33.4732
-82.3913
-75.087
-32.6445
4.69145
41.1667
47.5319
41.2392
20.8654
-36.3377
-60.2898
-80.4768
-100.236
-104.458
-63.5716
20.1972
60.3846
123.432
191.984
105.802
75.463
63.9844
35.8022
22.3472
12.6849
6.69794
-21.1828
-55.3544
-69.2303
-64.2077
-44.054
-7.47867
21.3862
2.24968
-27.3121
-37.294
-25.1866
-51.1805
-89.8537
-30.9176
-30.3508
-4.67013
19.9458
-5.06515
-14.8359
-12.7553
8.76974
39.5159
64.4858
94.2276
88.6616
56.7962
29.3601
30.7994
31.4547
12.4189
-3.23581
-35.3297
-63.9196
-42.2407
-15.1256
-18.6803
-26.8097
-13.613
-16.3353
-23.6399
-7.21865
19.9495
16.4956
-14.5941
-18.7324
-2.86427
26.1748
48.0654
50.3502
36.541
19.8742
14.3533
-8.90978
-40.0893
-50.6597
-48.9402
-37.1553
-26.4701
-18.6017
-14.5618
-7.45733
-17.42
-15.877
-5.75342
9.56892
13.5145
0.633368
-2.15452
-5.28626
-21.3673
2.55497
31.2763
37.5508
35.6047
17.4764
25.5344
34.018
43.6123
19.5156
11.8643
1.63409
-13.8071
-13.7231
11.4423
38.5049
48.4069
16.3891
-14.827
-28.0265
-31.5461
-42.1139
-48.2799
-58.9427
-49.4306
-17.7021
-7.29156
-8.36435
-23.4165
-25.3426
3.91473
26.839
62.7241
87.3686
61.4695
49.5466
32.5262
4.67291
-17.3479
-17.7389
-31.4094
-39.0166
-60.6238
-114.198
-68.8351
-1.47631
53.5017
41.7223
13.715
20.6798
12.0003
-30.2723
-65.8237
-45.8936
-20.8231
-20.5491
18.1842
10.7088
97.0288
217.583
123.039
-23.2788
-44.5568
-25.0511
-19.508
-17.8262
13.0673
20.4589
-8.92111
-38.9042
-32.8806
9.16784
14.4541
-3.625
-22.2827
-27.7868
-30.5399
-6.59812
-38.9974
-64.1028
7.54096
49.2571
18.2494
10.8306
-10.6918
-23.0121
-50.2522
-35.4731
12.4017
-8.88344
-44.5108
-40.4469
0.0316626
22.3421
36.8132
48.2392
35.4119
44.5828
15.2924
-40.2641
-18.0062
33.6373
55.6546
43.894
27.1791
7.99099
-12.5336
-15.4362
5.9156
35.4526
71.4899
74.6284
57.3745
39.2347
-6.61861
-61.6546
-88.8284
-61.7282
-52.8918
-64.6062
-30.0506
-6.66752
-16.6595
-9.76731
-2.61082
-42.222
-72.5526
-76.1779
-43.1184
23.3629
86.6138
121.079
72.8909
5.61517
-21.191
-6.95188
5.19915
-10.1522
-30.5131
-36.3327
-37.4812
-17.9469
7.8113
14.0659
19.9613
82.2644
95.9281
46.9885
-6.68655
-44.6169
-74.2459
-55.0884
1.49807
-33.9942
-49.873
-7.96312
20.9499
26.2361
16.9547
16.4458
13.5741
9.25172
15.6295
13.1305
10.513
-27.1653
-32.5019
61.0336
115.24
105.398
121.122
-4.95306
-120.477
-78.0428
6.96783
20.9085
3.48967
10.1969
-5.22454
-36.9518
-51.2454
-52.7234
-45.2328
-27.8574
-28.4753
-43.2606
-53.1166
-52.8736
-28.2753
-41.7189
-66.9068
-24.146
17.484
38.6664
50.5072
60.8764
74.9918
82.8792
85.5263
73.2427
25.8914
-2.89055
1.24543
14.7131
8.04446
-0.335455
-16.7561
-49.6779
-48.7297
-23.312
-27.1163
-16.4658
-5.70662
1.23547
-14.382
-24.3028
-20.5927
-23.3291
-10.3446
48.3399
89.3221
61.3566
47.4946
24.6891
-5.35385
-22.8523
-35.6856
-47.6432
-38.3362
-22.5207
-16.2552
-4.36667
8.92658
18.9859
34.2611
28.0831
20.8102
17.9476
-0.772617
-34.632
-51.7139
-38.2018
-18.749
-17.6273
-14.739
-1.72529
13.1798
20.9875
17.725
19.418
8.65319
-10.6014
-48.8749
-41.4656
-4.54015
17.9713
34.2733
31.3092
24.4645
5.50135
-5.66978
12.7745
13.7619
6.21585
-12.3
-13.9999
-4.28184
-2.22613
6.86376
1.24326
-12.1846
-9.44858
25.9944
33.4277
27.9871
23.8547
3.47902
-10.1816
-17.6627
-18.0146
-19.2054
-37.8874
-35.7234
-15.4397
0.264664
72.326
55.979
13.969
-25.484
-41.8018
-23.4217
-4.96583
0.979358
5.55048
4.78659
-3.60607
-3.46658
-18.0306
-11.1175
10.57
-12.3955
-2.31521
6.3139
4.42008
2.14961
-36.1279
-27.8944
-14.2395
-3.37495
18.9112
43.2171
53.1483
36.964
22.8829
12.5161
-5.46665
-39.6111
-42.0672
-54.7538
-25.6467
81.9055
33.4835
55.3808
61.8328
-23.7559
-54.0911
-51.8616
-43.2047
-19.8612
-6.81035
-11.1467
-16.0452
0.386467
3.098
2.24585
-0.886134
37.9704
51.4537
49.2337
91.765
27.5749
7.06466
-24.85
-48.3673
-24.5209
-42.3398
-35.8853
-23.2149
-8.67128
2.99549
-4.34071
0.651166
-6.87102
-24.6328
-24.2033
-0.0407067
13.129
21.3364
25.5711
-27.9672
-43.6937
-1.84736
0.66812
2.18897
23.3908
20.3071
2.7619
-6.14529
-2.93547
3.3066
4.65868
16.5432
0.315309
-5.00755
-1.84197
-6.2302
10.8318
52.458
76.3696
69.9993
29.3606
4.04804
-16.9521
-23.9412
-21.8968
-22.0566
-23.59
-25.0165
-24.5164
-33.2293
-35.05
-27.003
-21.6518
-12.5286
-6.23655
-4.58666
9.45289
4.70609
-17.1334
-25.9244
30.289
47.6871
9.238
17.603
31.9965
19.0403
-4.1216
-5.66221
-31.844
-92.9005
-67.2358
-9.31434
104.931
160.51
93.0481
25.4684
-8.02487
-28.9965
-40.182
-65.9445
-76.4575
-72.2883
-27.812
-8.00876
-11.4676
-6.35801
-0.626103
4.43728
30.8208
80.9724
66.4479
32.1032
-19.2477
-48.3347
0.0102373
24.2084
-9.38961
-3.3763
9.06109
5.31783
2.40636
9.98683
10.0936
-10.3964
-26.1048
-15.4082
0.878989
2.70558
6.18494
19.4585
18.6483
8.33185
-16.7386
-43.4077
-22.6021
5.82119
23.5934
9.28717
-17.3916
-20.2877
-11.8963
-1.31157
4.37557
23.5548
29.0961
17.6165
-4.6302
-25.2751
-18.8756
-3.70782
2.49187
-0.955144
-15.4898
-16.7638
1.63234
9.11647
8.80725
8.16995
4.03628
-2.18617
11.0202
15.0205
1.90531
-6.28997
-4.93325
-1.34789
-8.7369
-12.2814
-1.51029
0.995671
-2.97033
-4.42581
-6.51122
-2.28093
6.74399
3.66939
11.4939
12.1289
16.8236
6.65144
-7.93472
-17.9446
-11.8843
-6.82658
-7.58044
-0.64767
17.5185
35.3556
31.1551
10.6482
-12.1838
-19.5409
1.14037
-2.47059
-16.3103
20.3372
51.3596
25.6151
-1.47134
-7.39501
-7.8467
-11.9819
-6.04139
-8.47714
-25.3043
-34.9865
-48.0219
-59.6288
-48.6351
-17.1256
5.04804
14.7534
2.45913
-3.22792
17.9958
19.8288
16.7189
16.9829
22.6679
29.0222
13.1919
-2.60753
6.32687
21.3378
10.7217
-7.38567
-12.1296
-8.38383
-1.5896
10.0957
24.225
46.2294
47.1993
27.1398
6.29651
-16.3339
-19.0919
-9.19235
-16.7955
-43.6615
-55.2304
-45.6639
-34.4964
-16.9482
19.4214
56.1058
67.3889
63.7468
71.0395
55.0933
10.2279
-30.0723
-53.2687
-78.0014
-60.859
-54.0345
-54.1016
-27.3009
2.06361
1.10363
3.71624
11.0046
-3.58037
-12.1409
-21.7047
-38.4255
-40.4913
-32.2188
-29.417
0.168251
26.3061
25.6138
27.4722
33.3005
22.5149
37.2106
55.5119
58.3705
51.1651
47.1148
49.1065
36.5981
25.4655
16.4646
-7.93201
-12.5306
-18.3686
-25.4484
-33.6255
-34.4933
-35.134
-15.775
-5.46671
-1.02019
21.2377
27.6035
19.4294
13.2768
-0.318883
-7.49874
-11.6264
-28.1523
-32.1589
-7.80726
1.23549
-29.9323
-47.3432
-36.9955
-30.5559
-22.7756
-20.0805
-16.6384
-7.81154
4.18861
5.35683
8.26489
17.8827
16.6107
8.11581
1.07487
-2.85085
6.25615
10.4339
3.71398
6.53124
8.19597
12.2561
24.962
20.4373
21.7405
19.349
17.7719
24.0386
21.8655
17.2697
12.8021
12.6241
11.0639
2.80423
-8.68106
-10.9912
-14.3836
-23.9525
-36.0804
-39.105
-31.5063
-22.7796
-20.1866
-15.1224
-6.12447
18.0716
32.7925
25.3459
23.8211
22.8751
20.5381
13.1442
5.96628
2.55134
-5.56245
-12.2207
-10.9134
-9.24158
-2.50632
-8.35158
-7.48289
-12.7795
-30.7406
-36.1688
-28.5249
-25.4562
-19.6588
-19.5284
-20.4876
-20.2107
-29.4517
-26.1099
11.8794
63.2447
98.6652
110.723
74.5902
34.1577
20.0239
10.9981
-7.29117
-4.51407
-1.82475
-24.7455
-23.9874
-9.85314
30.2358
41.4704
4.58755
-1.77224
6.75425
-4.92658
-38.4003
-76.7327
-111.257
-115.709
-94.8061
-72.1678
-64.5684
-52.0376
-23.2829
19.8202
62.5308
103.671
111.987
71.0841
46.8924
61.9999
63.5108
49.6627
42.3643
21.542
8.29183
11.3728
24.116
16.8691
-10.0274
-14.9051
-4.02345
8.38369
19.1624
-13.7643
-42.7456
-43.4072
-61.6749
-52.5726
-43.4253
-43.4946
-40.3803
-20.3167
23.8212
50.825
27.5856
-13.985
-47.0606
-20.583
39.1522
81.8418
61.6451
3.57315
-41.8567
-65.9166
-83.5083
-98.2431
-82.3374
-51.1348
-29.8986
-13.737
6.5314
15.3897
-1.72964
5.20347
21.4056
28.9702
15.6422
-14.6964
-9.98515
9.14196
67.045
135.367
171.105
204.43
182.569
162.888
176.125
182.485
126.355
-1.30924
-127.563
-184.942
-192.757
-192.144
-190.52
-150.364
-88.5386
-89.0621
-88.7887
-35.8873
45.7388
77.3073
90.0429
45.3996
-26.0867
-90.3785
-182.639
-223.293
-192.374
-104.102
-12.9985
38.8779
42.7514
31.6981
71.1966
122.133
134.434
153.75
160.01
110.351
37.2349
-16.9194
-83.3927
-127.799
-96.4023
-32.6896
44.0973
36.471
22.0256
69.2677
131.341
142.905
158.139
192.249
211.328
153.483
70.0518
37.4025
2.99042
-35.1707
-118.661
-192.421
-199.339
-109.571
-86.2874
-119.78
-92.7574
-29.8753
-13.9467
-35.2156
-105.841
-164.06
-112.689
-67.3058
-87.6359
-90.7172
-73.7276
-46.7429
-11.5592
53.5162
217.603
233.431
80.2084
-15.5313
-52.7446
-45.5554
-46.1921
-49.7173
-41.9846
-1.26413
65.7338
137.624
169.842
170.793
217.295
243.665
201.379
69.2238
-10.9122
-47.6317
-177.22
-227.18
-181.875
-147.359
-75.4172
15.8202
106.617
80.28
-19.0298
-62.6521
-47.2505
-43.8069
-58.8302
-96.9516
-137.389
-121.692
-36.5939
74.3575
110.269
44.3148
45.9345
143.619
161.703
98.2235
17.8782
-28.0503
-41.511
-2.08168
172.762
199.034
84.4711
-21.3522
-80.6029
-73.8248
-73.0633
-181.342
-256.179
-160.868
-44.3404
-45.497
-63.2352
-56.7502
10.1785
161.368
239.58
81.2117
-93.8921
-109.963
-97.353
-59.0233
-39.6347
-24.5867
0.101642
-3.56709
-8.45449
45.2451
103.42
59.0848
-24.0373
-13.8993
2.50263
-7.15708
-24.3035
-44.0975
46.3687
146.423
98.6332
33.1213
5.49037
53.0003
210.758
299.549
191.334
49.1157
-42.2904
-63.2061
-79.8987
-112.108
-109.669
-100.918
-109.214
-40.3802
55.9571
-19.7794
-135.952
-96.1141
-14.6661
-48.5492
-63.6928
-20.8365
-12.9005
-75.9026
-61.4946
-17.0737
8.06564
-34.9897
-78.6271
-45.5802
-10.271
56.4975
191.188
164.543
135.404
169.013
59.6598
-66.7393
-78.5628
-26.7132
-26.2175
-88.3556
-176.94
-197.666
-115.45
-31.5434
22.6335
92.9018
175.501
284.338
434.12
216.919
-136.582
-255.689
-240.37
-206.5
-124.831
-41.5059
16.9278
65.7396
101.417
41.3458
5.96842
55.3959
109.593
160.986
183.804
90.6113
-21.068
-138.922
-277.835
-207.687
-61.5402
83.2154
82.5862
56.3547
121.138
69.9607
-20.794
-63.5871
-115.422
-101.413
-55.9094
-20.4191
-10.7759
-37.5702
-17.9924
82.0386
72.8312
-30.2765
-78.9037
-3.42322
40.6552
-25.7082
-111.297
-93.8601
45.0519
119.583
109.815
77.2189
21.952
75.7069
124.548
32.9217
-92.9275
-143.969
-196.31
-8.72461
87.7705
-78.1197
96.8626
385.745
285.813
-42.2606
-73.7978
-23.1599
-161.049
-226.953
-114.208
-52.015
-95.5361
-97.3017
-44.9464
-31.1516
62.6266
169.101
218.074
161.875
203.44
276.165
-79.8688
-400.654
-368.641
-206.965
-173.904
-128.191
-11.1265
109.75
223.315
257.148
140.774
31.8553
-96.4725
-111.295
-79.6711
-26.5462
24.8118
-39.2933
-82.6842
16.1861
127.676
56.0347
99.2568
275.017
274.224
-5.60414
-275.761
-289.359
-346.031
-343.201
-194.142
49.8098
607.586
1046.18
631.289
68.6479
-134.538
-236.276
-244.149
-205.711
-185.128
-164.476
-81.3134
-17.7854
-185.282
-310.215
-265.848
-195.796
-94.9033
127.329
108.765
-51.496
-173.538
-270.299
-69.5674
108.03
104.579
146.309
465.382
589.678
270.651
67.7344
-217.939
-536.502
-472.884
-55.9916
526.42
629.702
520.621
474.823
325.04
57.231
-227.236
-278.809
-332.389
-683.123
-569.557
-392.821
-397.346
-219.977
-51.1552
72.1935
275.075
498.454
485.093
94.1473
-441.639
-411.868
24.7599
112.369
-158.31
-123.014
197.733
459.419
397.426
702.528
682.385
265.325
-111.926
-431.519
-444.258
-449.743
-516.196
-413.427
-237.762
113.783
609.251
520.427
28.3811
-108.995
30.0123
-137.81
-601.167
-706.349
-65.8474
229.379
186.573
271.269
68.8804
-159.451
-147.4
-141.743
237.098
900.785
771.205
4.15985
-445.57
-279.483
-188.585
-579.706
-532.585
-72.0408
598.046
357.792
-37.7562
141.609
40.0539
-40.0366
34.1893
99.2253
235.522
416.613
281.734
-250.393
-345.937
-71.4915
-64.1173
-222.6
-191.854
56.4982
35.9636
-125.165
-316.499
-58.6938
126.564
-259.91
97.3305
243.435
121.174
55.5542
-68.1904
11.9599
31.7219
-139.543
-206.41
-200.131
-190.138
-155.924
-47.1814
25.3256
192.767
435.452
283.757
-262.406
-386.176
45.425
415.55
550.132
260.412
115.633
94.0941
43.0469
9.9063
102.834
183.455
20.1496
-152.436
104.569
126.167
-229.212
-177.1
-233.28
-257.14
-5.05124
14.5217
-195.076
-550.796
-534.529
-156.926
-1.65959
49.3228
-321.386
-550.97
-274.029
9.44924
318.953
712.978
529.695
285.142
367.64
435.506
400.113
164.99
10.7996
99.9923
57.7231
-185.549
-297.425
-277.724
97.824
141.82
-76.7907
-119.145
-160.02
199.38
143.565
-276.477
-541.613
-506.265
-56.7192
116.924
107.479
171.986
172.718
-107.773
-188.655
18.7188
-110.765
-401.987
6.33335
473.047
234.078
172.079
6.21318
-310.368
-407.378
-447.804
-78.8792
959.16
1386.16
715.912
36.6634
-119.586
17.6982
18.9354
-46.4784
-248.352
-243.371
18.2733
-298.859
-565.046
-235.454
-151.261
-225.844
-223.44
116.629
312.959
31.3064
-684.012
-979.209
-634.463
-213.864
-97.5829
-151.305
92.1242
418.62
686.586
972.701
402.07
-396.841
-465.695
237.06
776.197
1021.95
906.495
394.919
-20.784
62.3256
-148.884
-588.352
-441.539
-160.71
-166.919
-172.121
-13.8836
65.6647
-69.1092
-448.874
-185.05
129.475
290.065
60.3412
-247.395
-506.647
-520.531
8.77462
224.991
16.0106
-119.049
82.4127
-48.6367
-89.2139
116.122
363.864
350.501
93.6728
-31.4798
-16.7852
221.476
275.667
68.3104
55.5936
143.732
29.7257
-327.527
-583.614
-515.787
-380.886
-194.228
-394.878
-628.5
-275.461
1.43359
34.5849
553.403
990.7
687.786
820.166
1410.81
695.882
6.20465
-120.255
-441.311
-554.512
-427.562
-369.142
-428.861
-334.51
-229.359
-233.808
10.7694
172.139
401.035
406.34
-4.85245
-231.986
-298.754
-693.85
-1332.19
-1369.64
-912.817
-528.901
370.191
1422
1952.8
1470.93
760.845
256.633
22.513
445.615
460.443
-211.221
-488.191
-102.626
-129.773
-478.033
-479.609
-192.324
-44.8107
280.143
281.248
102.135
-413.13
-910.215
-827.655
-305.214
496.266
649.052
432.809
127.169
-235.256
-447.463
-401.299
-712.788
-732.552
-344.04
265.756
579.688
737.073
984.174
1093.18
610.475
-66.4247
-146.906
-49.2597
7.75356
-253.19
-410.9
-395.709
-103.606
344.243
444.754
103.55
-217.853
-541.294
-467.101
-122.816
-231.608
-244.712
-156.757
-254.286
349.453
591.904
101.445
-400.941
-294.104
235.473
173.304
-120.818
-158.506
187.473
297.361
-35.6602
50.867
71.519
-290.389
30.0438
293.176
238.137
337.604
296.514
195.133
239.874
131.588
-138.062
-381.043
-593.33
-562.48
-354.191
-604.987
-31.9483
601.188
733.625
647.424
98.2419
65.9431
-372.783
-708.883
-676.301
-325.204
439.129
690.943
388.434
135.998
22.1696
-456.87
-459.6
129.653
280.74
28.8019
-159.032
-126.885
-113.163
125.181
527.259
401.408
90.9472
159.995
100.912
-102.379
-724.699
-1096.17
-931.729
-337.504
231.604
528.558
391.387
519.954
628.4
632.539
354.441
40.7012
177.528
-20.7607
-348.535
-469.427
-643.871
-623.122
94.5838
711.305
205.047
212.94
283.227
137.396
47.0677
-26.0369
-529.734
-1060.56
-993.35
-62.5195
527.186
1088.78
783.003
149.409
39.5978
166.304
159.753
42.4811
-393.485
-794.307
-521.632
-340.74
62.7523
-265.566
-315.749
287.539
744.082
450.637
280.903
82.7894
-454.586
-631.702
35.0913
166.362
346.267
319.277
263.813
94.2942
-311.961
-655.086
-197.08
-101.133
-247.777
337.995
738.65
287.965
228.548
183.171
369.185
8.36376
-264.377
-298.15
-600.451
-634.196
-176.61
268.203
2.04117
-214.332
-105.907
107.09
-151.318
-186.395
73.5648
557.526
912.593
1038.42
596.394
283.941
-64.8756
-225.856
-356.536
-642.464
-607.206
-255.872
-322.795
-483.723
-387.969
-254.618
-282.529
-258.858
-81.9075
-218.835
-278.904
132.488
89.4273
45.1058
158.051
204.635
207.846
471.188
868.557
218.69
-363.02
95.6239
210.455
751.063
976.491
624.111
693.936
594.144
260.105
47.0996
-115.602
-823.671
-1442.39
-1494.55
-1008.94
-591.202
-230.243
62.7163
121.506
233.392
316.797
54.0572
31.2812
-241.321
-348.67
-283.347
-577.127
-97.1463
438.93
-12.6889
422.838
579.533
466.825
1365.21
1266.85
724.575
270.582
-235.96
-557.481
-428.141
-278.146
-509.635
-699.754
-793.74
-335.764
310.832
467.536
141.529
-17.2747
145.106
-184.868
-614.745
-577.796
-597.773
-412.106
-78.103
256.205
453.622
433.004
454.39
241.48
56.7774
64.8594
126.291
287.076
314.687
197.834
146.216
30.3953
155.082
118.432
156.207
208.047
-421.22
-565.405
-272.323
-378.072
-569.924
-611.13
-485.944
15.373
290.668
318.348
844.321
1317.83
921.472
371.665
-658.404
-1235.17
-583.72
199.789
473.801
16.6643
-285.878
-376.131
-78.9631
177.157
266.601
51.8464
-165.577
-354.308
-284.721
-19.0382
-141.108
-158.765
-191.361
62.3903
383.009
541.512
414.616
191.276
-284.596
-377.293
-216.603
-200.715
-176.692
298.54
136.161
-73.2033
-36.1362
234.169
677.532
578.084
-162.238
-962.308
-609.531
82.1654
183.293
82.7495
4.86445
-402.812
-377.875
241.482
460.271
396.007
252.087
-213.518
377.456
273.31
-544.818
-212.922
197.717
734.175
775.419
204.731
-83.8173
-284.229
-250.515
-113.496
-260.776
-434.082
-171.029
-68.2155
-213.911
-94.1479
-92.777
-241.509
-526.082
-640.198
-330.749
-80.1152
479.446
-69.0845
-338.875
-36.5041
328.832
430.714
534.284
645.095
489.338
348.115
78.872
-454.476
-884.727
-775.073
359.763
464.324
447.575
1057.59
1264.45
514.32
-529.004
-731.553
-501.277
-240.003
-374.13
-447.135
-252
-111.587
21.9136
12.4529
-47.5683
0.913651
139.006
-169.195
-164.327
-180.745
159.459
250.976
112.974
3.11766
-315.128
-167.346
-154.371
-138.861
136.871
457.581
-47.7266
-214.144
111.506
235.187
199.455
73.9529
-53.2176
-49.6576
-50.1342
144.759
388.526
247.936
76.8303
111.522
280.447
276.224
74.8016
-119.349
-306.083
-298.123
-463.659
-333.486
18.7403
-92.1905
-410.694
-393.285
-150.639
-107.075
-176.884
-345.68
136.663
1212.59
1006.72
503.174
60.6085
-226.296
-49.1373
405.803
11.4617
-691.622
-782.805
-554.305
-225.706
-6.64056
87.7489
88.8137
40.4568
128.808
190.081
156.362
-93.7354
-477.518
-344.733
-56.6469
111.323
343.563
409.946
56.1222
178.474
140.488
-23.1947
6.16949
162.241
140.981
104.646
226.865
401.498
232.26
43.8257
-27.4427
-200.386
-241.518
-52.3168
-63.9035
-33.0881
-21.2191
-267.099
-652.543
-543.986
68.1403
227.26
-107.234
127.536
351.786
174.188
-65.2947
-217.719
-108.189
-18.7748
-22.4176
-59.7069
-307.266
-350.661
-96.9605
30.6275
73.1765
51.6686
295.162
517.469
277.709
110.671
-58.5745
-396.699
-201.415
585.702
609.815
94.8634
-15.4536
147.831
166.18
31.8457
-168.822
-246.816
-240.851
-217.858
-284.717
-150.422
-71.5356
75.3885
-113.564
-207.119
68.4425
107.576
224.362
70.3335
46.3064
73.1899
6.71797
-47.6833
-28.3088
-0.90588
-74.4218
-82.6143
-40.4327
36.2116
34.3709
35.6089
-56.1301
-258.125
-301.407
-54.0323
86.365
127.562
-118.412
-145.265
51.3694
129.8
66.0504
7.07869
48.4272
256.749
481.222
407.853
207.525
-65.0297
-161.831
-78.2799
-32.296
-78.7857
-90.5405
233.697
240.592
-148.616
-112.736
25.5674
-263.72
-269.199
-119.367
-265.662
-334.064
-361.282
-118.541
454.005
376.672
202.55
129.357
82.0649
93.4307
138.128
167.354
-56.3386
-205.617
-304.269
-399.76
-385.81
-107.113
141.354
152.536
262.892
338.219
162.519
-238.148
-489.393
-101.199
36.4902
-51.7356
247.349
264.733
73.6872
197.875
300.566
418.244
421.276
-38.0651
-210.946
-203.932
-188.3
-113.822
-41.9039
-108.45
-126.914
-110.585
-125.25
-90.967
59.2829
173.038
-17.1262
-118.451
-94.5717
-256.549
-296.393
76.6563
53.5287
74.8262
45.7105
76.9937
97.9744
88.95
-53.4568
-83.2648
8.71184
69.1696
130.544
17.9937
-2.49848
58.4781
-70.4639
-201.092
-106.487
111.147
24.9685
-130.625
270.366
812.01
803.096
-174.531
-586.208
26.8348
207.705
8.75745
-37.85
-137.123
-166.77
-255.919
-426.321
-206.753
-120.961
52.4912
139.102
69.9054
-27.3986
-165.583
-324.053
-545.902
-555.864
85.5012
397.075
72.0974
-17.6324
82.8719
130.007
315.418
345.024
389.906
462.84
249.026
159.175
79.9864
0.36045
-55.4584
-144.197
-228.137
-148.703
-220.044
-184.9
191.19
360.684
158.344
148.782
163.558
-85.8409
-397.342
-471.512
-252.185
-93.4625
98.7886
-53.7889
-235.653
-61.9713
32.0654
73.5777
49.3349
-91.6173
-112.688
-144.437
-134.852
-109.842
197
289.018
171.489
199.875
171.181
-181.4
-365.769
-169.448
180.653
846.372
387.94
-24.5054
23.5571
-57.9683
-152.018
-114.598
-70.5939
-105.503
-127.281
-89.1185
-176.051
-30.0891
102.787
-29.5526
35.744
221.608
197.395
126.043
-194.625
-468.654
-112.016
31.5929
-7.73968
29.6193
46.9577
20.9904
-29.826
-61.0126
-47.1868
-58.4282
-146.182
-153.006
-95.758
104.527
134.767
89.1658
56.7867
75.9047
48.5916
-76.5842
39.7448
41.7578
4.16914
45.6199
171.164
225.143
256.42
304.26
198.976
33.8641
-89.6458
-113.84
4.21736
-109.346
-177.776
-112.103
-23.6469
77.4323
0.77082
-145.7
-64.9822
-2.78896
-61.6204
-109.769
-270.295
-218.371
-52.6299
-131.165
-162.062
-187.837
-150.291
-234.362
-253.508
-0.860699
221.841
506.694
676.797
102.682
-264.332
-228.648
0.858485
112.728
386.739
553.381
489.008
189.844
-63.4829
-113.642
-170.284
-142.76
-23.5562
26.4496
179.099
179.47
67.3221
-222.436
-495.054
-285.036
-44.9561
-57.8257
-72.3399
-122.473
-339.872
-460.984
-341.354
-102.376
133.12
245.794
296.82
309.064
242.83
200.266
71.0214
-20.1319
-110.141
-142.121
-22.8175
118.164
130.799
130.447
37.9959
67.6147
21.7445
-61.9801
-117.058
-82.5947
-2.30537
66.6836
-13.0586
-10.4239
-121.954
13.5643
144.105
37.4655
-7.69091
14.5997
84.2403
40.6354
26.7244
82.8165
-100.465
-240.733
-246.962
-158.267
20.4136
277.019
465.006
111.672
27.1046
-17.3655
-14.6173
-108.171
-224.272
-157.14
-56.8526
-33.5163
-96.9407
-110.497
-165.725
-220.002
-118.789
82.499
115.432
166.643
126.179
-81.2205
-143.315
211.686
242.643
88.3685
13.3209
-35.2951
-64.5303
-5.79671
26.2995
22.9849
18.2176
-25.6545
-63.9396
-30.1868
164.772
285.274
249.038
-110.987
-227.332
-189.543
-267.116
60.5508
211.658
41.377
107.393
141.14
104.238
20.7258
-68.5786
-102.767
-68.9561
21.3645
6.91151
-97.0424
5.27486
12.9762
-111.623
-81.4391
-80.1202
-95.8586
-209.266
-148.555
53.3893
49.1401
-12.2744
-0.584496
41.3576
71.3319
-3.54471
-73.0132
62.224
161.709
160.603
172.186
74.2265
-60.0847
-88.0582
12.7004
59.6258
48.4347
103.229
-36.6796
-165.783
49.7698
44.8593
-94.7213
-53.2864
68.8645
109.071
2.23263
-264.384
-278.058
-88.2862
4.67208
-119.363
-113.485
31.2318
291.158
726.673
583.728
126.551
-190.09
-326.846
-262.823
-2.14815
29.0887
-108.783
-143.398
-42.4532
29.1022
29.6594
-22.3721
-43.2494
23.4239
36.1028
-105.909
-189.361
-253.118
-369.32
-109.906
71.9241
-14.3206
-2.81324
-127.911
-194.785
96.187
292.735
222.94
131.608
223.692
360.365
225.598
118.388
71.9572
74.667
122.082
159.794
102.834
-98.9704
-239.717
-176.022
-200.358
0.271205
213.616
131.764
-135.548
-290.787
-166.118
7.56426
-95.1879
-219.719
-75.7026
77.067
84.2524
102.761
77.8305
29.7682
-19.5481
-70.5778
-76.5662
-172.338
-170.18
-63.8694
31.5408
36.1383
10.9785
-10.1732
-96.2899
-194.567
-160.472
-35.2808
213.687
248.215
429.161
606.327
274.33
-46.7937
-142.025
-129.013
73.4328
153.994
19.3331
-131.544
-158.172
-147.634
-44.4111
-69.5336
-227.915
-247.788
6.52962
326.041
100.521
-68.093
-232.554
-391.716
-252.377
-8.07769
127.073
122.442
-19.61
-63.2488
43.9186
121.518
147.782
142.201
186.641
163.054
266.515
381.185
71.54
-275.934
-304.846
-232.709
-157.327
-66.9983
81.9811
84.4806
-6.4786
-36.3384
-69.8425
15.2604
123.226
54.1345
148.479
116.631
-106.879
-51.4687
13.3422
11.4541
73.5069
-9.42262
-131.546
-154.453
-151.97
-159.276
-54.5892
112.855
158.044
40.2217
-43.5111
-51.5513
-24.5677
-72.8281
-194.343
-152.771
-12.7114
32.7036
71.0757
100.457
124.734
78.8385
62.1287
4.35861
134.342
172.775
-14.3381
-14.086
-24.516
-42.8816
19.8022
62.0796
57.3174
4.64909
-34.3017
96.7875
111.474
50.6702
12.1257
-56.8985
-103.331
-130.394
-79.1691
-37.3481
-111.149
-123.391
-74.9178
-213.618
-181.416
-132.8
43.4582
209.533
158.682
233.279
264.966
104.826
134.64
151.457
21.586
-128.839
-225.534
-78.7992
28.5861
-30.4138
-133.47
-175.872
-73.3849
127.882
148.599
-8.88093
-160.69
-143.522
59.754
37.483
-129.609
-137.287
-59.0105
-48.4419
-19.2032
51.359
197.146
292.708
272.306
187.666
99.0672
22.214
-44.8475
-113.289
-105.009
-20.2346
-62.0923
-93.0207
-75.6967
-6.38925
98.8454
65.4096
-34.3734
28.082
54.6804
-28.1107
-166.964
-186.994
-89.2232
10.575
62.9759
68.6548
54.613
43.4216
46.7207
76.1744
29.0868
-56.5088
-89.3127
-46.6835
-29.62
-27.1456
3.24241
33.9709
60.2724
3.13412
-25.1797
-39.6519
8.56153
-44.1343
-38.6832
-19.7861
43.8187
43.9225
-89.117
-130.172
-84.1394
-63.7434
-56.013
-0.936411
202.451
274.046
119.096
63.7737
77.7429
95.4372
100.507
-4.53994
-76.8751
-106.936
-116.862
-48.2792
-46.5238
-15.5993
182.994
237.463
50.8402
-33.0171
-85.6282
-164.292
-335.775
-342.517
-146.484
-53.2728
158.104
339.915
274.131
43.051
-52.8831
37.3484
39.7625
23.1063
1.83304
11.3109
-73.0051
-159.267
-219.701
-300.482
-151.185
50.3673
83.7858
77.1224
76.5757
123.081
94.4132
19.4199
58.7213
171.279
170.73
162.036
165.773
120.454
41.5713
-163.096
-278.432
-175.651
82.5725
196.131
32.1901
-123.011
-88.8087
43.6971
-8.04967
-158.909
-205.092
-101.973
39.3592
50.0134
-54.2865
-99.8743
-96.8414
-72.9059
-47.1652
20.4248
-40.0416
-43.3539
95.9333
199.286
181.857
132.769
112.853
28.6524
33.1887
78.1967
48.6033
14.7188
-52.0094
-122.256
-121.804
-69.3215
-6.21332
-11.7935
-30.814
-5.07524
-30.2419
-60.4673
-89.9237
-25.5563
95.9217
132.015
168.359
118.768
145.416
116.116
-68.0999
-151.726
-143.313
-52.7636
67.4351
-35.1107
-205.806
-234.76
-151.634
23.4846
380.122
332.595
91.323
-33.6157
-84.5482
-47.4116
-67.2129
-162.41
-157.694
-73.2094
2.59036
9.15574
-53.5598
-113.737
-70.1424
29.1996
56.6038
39.114
29.534
140.082
121.924
167.701
248.535
135.755
-99.2348
-240.935
-136.708
-78.2891
-75.4226
-18.4368
58.1748
83.0596
96.6209
114.884
77.0142
95.6431
162.788
77.6721
-47.26
-167.073
-230.747
-109.351
-42.2216
-83.7334
-19.6484
55.3477
62.2225
101.104
45.3156
-87.5683
-20.3912
59.089
30.1525
-113.544
-230.643
-201.566
-2.62308
253.722
141.663
-57.864
-101.721
-92.1175
-76.033
-16.6879
0.316371
-27.2125
-8.72279
68.9426
63.2677
-113.66
-193.049
17.3346
188.028
294.163
363.891
277.155
113.81
-8.17022
27.2212
-6.03528
-100.384
-186.556
-166.777
-79.0458
20.2613
65.9719
14.4473
1.50336
13.1982
36.1264
-86.42
-231.45
-211.577
-55.3675
13.2933
0.531978
-85.9113
-150.596
-98.9437
-100.92
-114.399
20.948
207.127
265.575
197.545
149.408
51.9935
54.8585
99.3552
101.764
89.7179
-47.9801
-103.737
-108.899
-108.664
-148.083
-48.6131
102.37
269.91
326.204
74.3061
-98.4604
-225.093
-192.301
-11.6602
-15.8273
-149.262
-178.778
-112.074
-13.0648
61.4591
101.562
152.218
115.738
53.6084
80.6417
-10.8993
-98.0975
-121.509
-101.663
75.4697
86.7902
3.41278
-85.5567
-221.678
-195.054
-54.2712
-90.4804
-130.948
-11.0495
126.978
208.996
191.717
113.868
114.956
173.41
155.604
23.986
-106.821
-121.132
23.895
126.814
83.8713
107.26
131.399
87.8231
-30.1903
-103.141
-137.767
-72.9268
12.6743
-68.3548
-135.748
-153.803
-111.452
-32.3591
72.941
136.151
-41.1125
-168.671
-163.933
-114.079
-28.9283
11.9303
33.0811
-16.566
4.4211
50.0941
59.3575
46.7922
-3.35291
-33.4951
-29.1572
32.5946
100.047
194.936
112.091
-98.5607
-69.2052
19.948
1.17677
-60.4379
4.06104
-1.64456
-5.45598
113.963
88.2983
-47.6994
19.5235
244.511
250.512
134.169
4.31761
-49.2318
-51.078
-38.8079
-69.4314
-144.442
-225.437
-340.361
-253.242
67.8331
210.544
85.1403
-39.2562
-64.1472
-25.523
1.00965
-28.5996
6.20268
74.4083
40.8943
81.0703
132.04
2.27484
-142.525
-92.7828
-3.19374
69.7988
103.75
29.5782
-131.689
-168.238
-87.766
-2.96051
44.5019
101.477
292.682
355.57
7.7825
-35.1299
21.5764
-44.6861
-120.789
-138.293
-270.544
-351.906
-245.121
-5.28145
185.977
254.923
179.973
51.864
105.879
87.5754
-16.787
-1.99437
-38.5815
-142.656
-82.3121
-53.4784
-18.3192
89.2978
218.947
146.033
121.158
140.934
133.917
84.4009
-68.891
-123.115
-110.613
-179.585
-172.368
-146.283
14.2174
151.031
159.253
21.9458
-121.5
-258.295
-261.622
-205.49
-95.1142
48.7323
50.6624
43.6213
115.902
199.028
223.108
30.8305
-103.363
-80.1383
-62.1856
-12.3361
-62.4597
-91.1891
5.67016
172.863
302.44
291.908
260.536
28.8486
-254.337
-339.075
-290.227
-139.278
-79.592
-65.5925
228.812
452.916
344.691
178.219
52.7174
-34.3434
-26.851
-159.513
-322.321
-282.816
-113.86
-117.402
-95.7989
31.8584
73.4177
121.482
156.058
63.9717
24.2212
-11.0729
-131.71
-103.807
-81.5364
-80.7986
-52.8275
-41.319
21.9081
68.2993
38.2081
50.408
-54.6429
-46.8239
140.691
288.903
246.663
116.576
84.4364
-70.7235
-199.712
-57.7113
16.0753
-47.826
37.5419
75.2311
0.467399
8.77096
-34.5288
-34.3085
-32.8085
-92.4911
-86.5211
-200.622
-358.014
-288.777
-92.3662
176.663
272.005
244.648
147.025
9.40169
-75.0979
-87.1319
-112.929
-133.667
-170.333
170.02
706.069
506.134
173.028
20.2694
-211.476
-334.591
-207.912
-39.8151
60.503
125.825
93.9329
20.3501
51.31
-61.3835
-188.136
-182.75
-135.751
-44.2458
88.5354
-50.8733
-386.683
-284.371
-78.6626
-19.2694
132.989
264.171
157.437
-61.9034
-18.3838
116.186
114.449
127.412
-22.1095
-55.4194
40.2689
28.684
0.958089
38.5815
223.134
297.717
98.3617
94.5565
71.4938
49.0736
48.784
-48.7041
-56.4056
-8.88258
-137.833
-420.354
-419.364
-282.716
-106.934
-11.4677
15.859
10.9414
8.7488
29.1479
2.17086
-108.986
-137.297
-69.5368
-11.1894
49.2875
136.088
298.789
316.885
199.33
119.803
63.9428
-3.40168
-60.3162
88.7254
250.3
99.2336
-86.6906
-133.529
-115.041
-72.332
-67.24
-158.117
-108.455
77.3321
108.726
45.8051
-19.2792
25.2401
212.14
78.5306
-66.7148
5.13552
41.1221
-66.4312
-130.335
-71.4308
-131.647
-85.3149
-45.5008
-141.184
-172.16
-96.2213
-94.1311
-136.228
-91.0058
-2.41509
81.3489
99.2645
27.7746
53.2648
112.28
-7.33193
-90.9711
-80.5699
-42.2042
81.718
203.952
212.419
192.133
216.242
229.923
149.765
33.6212
-10.7407
-67.5732
-145.185
-239.751
-243.955
-73.9845
252.375
495.199
449.729
247.741
-1.07042
-191.036
-330.673
-278.269
-140.446
-123.536
-207.939
-268.931
-172.925
-44.793
-17.9948
-48.6397
-70.9334
30.4195
85.2492
19.4864
-10.5324
-121.419
-164.395
-1.0511
146.091
121.364
-11.9401
-89.4825
-87.9615
74.953
94.9045
58.8618
77.4936
95.9681
139.604
148.163
141.547
239.18
291.882
117.747
-77.7344
-134.452
-158.124
-169.552
-95.8789
-38.9621
-30.8824
96.0889
148.798
26.5453
25.2086
-41.2826
-129.737
-143.966
31.0113
240.436
144.766
-45.019
-125.493
-128.233
-216.185
-307.984
-189.207
-56.8791
-4.02634
28.7606
106.519
117.257
-30.6697
-165.043
-249.241
-120.915
82.658
210.639
198.947
129.657
195.345
257.147
59.0481
-81.3527
-122.422
-62.7756
22.3133
60.0349
91.0872
58.6442
44.9919
51.5628
43.6628
51.3605
141.71
168.063
-9.14137
-162.499
-299.958
-433.087
-424.13
-283.242
51.8246
264.002
230.645
148.594
234.125
177.5
41.3773
48.9794
131.593
49.4876
-16.2031
14.5832
12.5004
-64.8522
-170.917
-256.436
-299.705
-210.926
-108.992
-142.322
-142.092
-45.2714
29.0299
30.9367
78.7069
228.967
299.441
195.991
60.2711
15.7718
-15.7945
-32.4416
20.2016
144.931
278.379
233.798
128.485
28.799
7.85735
-14.561
-89.9644
-149.911
-110.116
-129.946
-229.056
-143.687
-18.1842
71.4949
59.1882
-64.0344
-99.4145
-64.3112
43.7632
101.823
21.6935
81.2688
26.9569
-4.58817
-67.1983
-100.368
-94.7438
-42.4719
18.3451
-29.2477
-123.625
-150.607
-114.856
-65.2775
-43.7966
26.1453
43.3836
86.5673
110.559
-26.3005
-7.17636
41.5974
161.731
234.255
252.462
170.982
42.3674
-60.1552
-44.6118
83.0367
158.86
85.3045
34.2708
-24.48
-32.6158
79.8026
193.233
38.5342
-227.006
-287.892
-240.218
-119.196
3.75382
-117.445
-202.491
-142.182
-49.6877
76.8759
165.393
96.0613
-11.0404
-58.8504
-92.999
-60.3615
22.6383
115.091
8.87714
-74.3014
-40.6587
-12.4851
18.7049
15.6922
-124.054
-155.378
-24.4433
219.006
298.489
113.027
-101.584
-158.671
-48.6999
179.144
272.211
78.1638
-47.3298
-125.427
7.76838
97.6426
63.9957
6.75574
-88.0208
-192.161
-131.175
50.8685
264.057
230.952
50.2757
127.325
52.2743
-11.5588
6.78716
-58.0847
-155.421
-95.1334
-90.7667
-153.613
-238.183
-106.391
50.9848
116.298
143.792
89.2731
21.1137
-77.4248
-186.171
-271.307
-166.568
-17.2121
60.5734
22.7419
-8.77078
-114.477
-82.8768
-28.5049
3.18996
125.128
225.396
179.371
55.6364
33.0159
8.8698
9.80153
44.5676
59.4291
24.6231
34.7182
109.722
125.167
144.563
67.7192
-42.1813
-87.0627
13.3792
197.283
295.816
18.2941
-273.167
-353.77
-302.669
-162.393
45.9365
126.031
86.8614
85.0267
-13.4419
-1.96569
0.209124
-205.657
-264.459
44.1033
121.215
80.0254
-25.7081
-109.549
-152.969
-89.468
-12.5646
46.6847
79.6686
44.497
-39.6908
-111.463
-77.0411
-25.3862
26.8661
70.6367
73.1208
128.463
204.89
148.642
149.274
223.172
62.5475
-119.103
-159.699
-128.81
-70.1238
-54.8915
-2.21409
29.6318
41.2567
142.747
162.527
15.8014
-53.3122
-73.5277
-4.86979
98.8195
30.5102
-87.3002
-173.839
-281.793
-260.27
-117.425
-13.4963
90.1289
130.198
83.767
-50.4469
-85.4867
26.1352
143.439
177.739
255.216
214.02
140.177
-32.9548
-200.077
-161.142
-121.043
-130.005
-73.7698
1.68475
-68.2355
-215.164
-122.224
3.36201
-3.8771
199.099
486.941
281.967
-33.2469
-105.594
-133.416
-90.5502
-100.621
-96.3614
-94.2542
-76.5307
-47.9444
-0.300227
-23.5495
-77.3878
-35.4654
215.009
318.447
202.337
261.513
65.7311
-245.735
-179.407
-86.4305
-113.179
-92.9916
1.20943
60.4287
84.8201
171.101
112.126
-52.2804
-76.2607
-20.2645
140.108
308.657
111.709
-145.225
-236.542
-271.42
-336.292
-269.85
-130.072
-19.9686
159.382
197.863
108.577
-14.2817
-24.9353
36.8871
-2.34366
-8.25307
29.0324
20.0171
17.4681
109.959
92.5996
-25.2226
0.978439
61.851
114.511
64.3596
20.9467
-27.7634
-156.768
-136.444
-43.0013
72.3633
111.213
14.1519
26.8206
194.66
129.461
-8.88231
8.48053
-52.3091
-46.0929
-19.2427
-97.9747
-150.04
-66.5742
-20.9684
-129.021
-103.817
35.4921
55.646
54.3545
61.2885
-29.2466
-185.207
-203.517
-96.9989
-32.2109
-18.303
-73.7089
-107.879
-21.5578
79.8273
176.525
192.822
215.373
226.094
122.093
8.5503
-32.4248
-20.6264
28.9549
114.942
176.229
41.7562
0.317312
-16.8339
66.3232
197.017
158.875
17.057
-94.1551
-220.219
-203.314
-125.373
-125.324
-180.466
-99.4757
30.971
-18.2727
-100.702
-192.657
-219.818
-147.895
18.7683
77.3962
-23.9095
-143.054
-180.818
2.41826
167.534
194.293
193.096
214.637
186.483
83.2718
-50.0435
-17.3651
-7.3825
16.4027
61.7071
68.2616
169.653
224.299
79.9775
-0.0682546
76.772
207.279
154.154
-93.9473
-273.166
-302.881
-202.178
-117.569
-74.3525
-69.8908
47.7246
87.5238
136.656
99.4923
74.7462
37.7285
-202.369
-410.86
-310.072
-87.1016
-76.6662
-101.322
-57.5744
-17.4257
117.183
135.154
54.9438
35.22
22.8769
138.839
307.577
197.353
-11.4967
1.54807
10.5276
-20.5677
-55.7888
-50.2358
44.5817
104.358
177.764
192.018
143.803
80.8539
86.8942
69.5418
45.5552
-41.0697
-146.245
-275.256
-394.661
-364.142
-363.382
-230.823
42.0527
153.661
287.054
446.436
349.12
5.76859
-216.307
-248.97
-136.026
-91.3099
-111.955
-29.2883
25.9761
-9.0233
-22.4151
50.8631
61.1637
168.143
296.378
203.824
-13.6595
-203.455
-308.176
-236.092
-59.3857
-9.524
35.5446
4.43482
103.577
368.238
307.27
70.8373
51.7285
42.4063
-13.4632
0.958773
-4.33402
-76.5448
-156.559
-155.672
-81.0952
-66.0582
-55.198
-4.91792
219.412
211.415
12.2891
-48.8123
-146.985
-244.621
-170.574
13.6834
40.9186
96.2903
69.8713
-0.887403
-54.2219
-105.968
-119.785
-84.3123
-27.1644
95.9289
186.833
80.2788
-137.62
-80.8169
39.4069
143.493
137.81
2.06677
15.2177
68.6088
36.3001
-8.09992
78.5372
69.1043
-80.2606
-33.7128
31.1153
44.8669
6.09528
83.1009
153.873
-95.5981
-242.46
-75.7428
93.7745
-55.7619
-111.68
-76.4244
-110.228
-154.284
-168.343
-115.055
-44.3496
-0.0557781
153.176
243.475
291.761
199.033
-26.5692
-181.725
-245.205
-88.1258
18.2266
75.9691
173.146
322.556
206.549
14.0081
-65.8533
-17.2217
58.2443
-72.6519
-213.153
-68.8982
89.7189
12.7664
-119.278
-127.81
-74.6275
-60.6476
-21.7083
29.1737
96.0282
171.776
106.023
-128.244
-146.358
-82.7348
-135.303
-82.7901
68.1888
41.3904
73.2029
5.28914
11.6429
3.40939
-75.9299
-129.881
-51.2559
135.788
252.512
192.319
-8.67075
-143.711
-190.82
27.5985
295.367
397.061
79.6821
-177.613
-410.851
-319.548
129.897
554.036
187.254
-109.302
-244.224
-212.259
-231.976
-105.045
459.982
949.734
439.448
-161.876
-497.193
-589.247
-628.32
-432.075
-93.6442
12.2771
-2.17188
29.4955
-7.81704
-166.428
-111.44
39.7789
208.311
288.503
322.552
36.7031
-181.203
-281.906
-62.0497
151.06
337.299
349.51
327.319
306.263
276.429
282.4
274.622
193.095
-202.544
-439.624
-206.602
-13.9291
-74.705
-212.255
-162.554
-49.272
-173.411
-391.148
-340.186
-178.488
-242.134
-181.746
291.459
57.7842
-175.49
-83.2886
123.902
225.164
238.364
-2.80637
-137.307
-21.0079
298.704
520.893
566.861
318.019
-52.3469
-352.956
-434.696
-367.177
-234.286
-189.928
-145.924
254.818
255.522
216.481
205.632
-75.4987
270.021
692.536
118.267
-201.906
-141.576
-217.262
-392.182
-388.34
-409.61
-279.636
-50.5855
64.2346
277.567
379.424
89.2357
-90.0651
160.101
106.953
-195.456
-282.377
-523.061
-523.041
31.3741
356.381
421.015
490.55
365.099
229.102
89.4337
-110.077
9.82054
78.9624
95.8871
22.759
-185.435
-301.103
-423.944
-256.38
-59.7366
-34.1588
130.271
530.101
781.97
182.366
-306.694
-515.358
-499.039
-245.128
-99.9762
179.227
305.958
-128.793
-85.2391
487.727
450.694
318.487
120.856
-242.417
-413.301
-223.692
-224.848
-303.101
-167.379
-5.66026
-28.3874
-32.4367
90.1706
25.2978
-185.475
-227.617
-119.031
611.613
417.795
-458.195
-312.187
-196.301
223.982
603.509
412.333
293.132
218.68
-66.5394
-236.367
-202.77
-266.188
-140.845
112.327
36.2548
132.293
214.069
98.0868
-212.587
-178.775
-8.68284
-87.5257
-53.889
-99.6637
-207.583
-4.66907
182.8
106.846
-271.771
-455.783
-35.0828
326.511
253.122
146.829
120.658
217.945
281.719
311.736
231.207
32.4208
255.325
58.9246
-221.943
-350.168
-418.748
-319.634
-202.665
80.9612
77.2852
-165.529
-356.67
-393.04
-238.164
39.0538
246.523
210.1
114.318
-35.8952
79.0921
144.282
-47.4271
-118.296
-28.7213
196.786
256.407
240.653
4.86306
-439.196
-399.262
-78.5312
102.231
106.174
507.379
400.304
263.537
159.804
-120.206
-393.115
-425.594
-255.799
-57.8035
209.94
441.948
291.591
81.3566
-174.291
-104.997
-21.453
54.8017
189.207
-225.747
-141.324
106.28
-80.5783
-84.9488
91.7059
0.564033
197.727
148.901
16.146
-77.3225
-167.887
-449.66
-439.131
-130.665
101.643
83.5469
18.6193
-99.361
-253.832
-21.2949
72.0933
-199.13
-268.486
-223.821
184.695
508.636
471.628
446.285
404.861
86.028
-204.719
-18.647
57.6994
-80.7456
34.6875
77.1571
-76.0845
-105.492
-6.66568
315.542
179.722
-100.854
-3.48881
225.409
396.785
-128.805
-447.492
-204.632
-70.634
-198.659
-202.896
-111.655
-47.6004
-25.8548
-46.5981
-87.4658
-108.246
-115.845
-175.932
-207.525
32.7792
-9.78184
-14.6399
-76.6935
-405.029
-63.2474
265.319
185.115
35.429
46.9008
194.621
339.469
258.773
81.8636
40.1868
182.402
348.45
241.081
502.922
382.162
72.4156
167.316
-360.629
-698.275
-849.434
-553.488
-421.279
-93.4243
399.787
434.478
237.576
-53.8985
-113.569
64.9684
207.459
333.907
45.4174
-117.342
-135.649
6.21513
-4.28167
-229.958
-12.483
51.2683
38.2895
86.3828
382.485
174.343
-474.827
-583.826
-406.504
-101.014
225.856
117.131
-108.875
-299.473
-76.1753
182.79
36.0433
8.99327
89.0734
136.411
345.096
378.564
184.165
-64.6782
-244.622
-369.392
-323.147
26.2685
638.691
638.111
-87.5363
-445.6
-163.125
81.1427
61.8508
25.2735
20.0422
22.7068
209.66
219.915
41.2224
-113.12
-227.874
-177.71
-103.758
-126.473
179.695
10.6377
-207.211
-89.5813
87.156
381.034
243.019
-63.434
-129.498
-50.2193
-9.68385
20.2064
-275.932
-408.401
-90.5407
-114.785
-250.628
-146.18
63.5075
679.944
456.284
113.869
125.908
-120.993
-128.147
-1.36867
-157.587
-510.676
-438.571
-474.043
-318.913
135.486
447.646
460.565
149.618
168.401
450.182
418.91
190.786
-286.235
-334.342
5.04802
-240.045
-341.717
171.557
316.33
240.898
282.805
201.852
386.578
293.724
-325.496
-400.399
-230.373
-180.007
-21.2429
86.8858
99.5719
-76.4539
-231.199
-162.871
130.718
296.504
-131.31
-136.518
-98.3038
-214.966
-130.292
-73.3868
-151.319
-235.952
79.9104
561.994
512.566
-132.573
-709.744
-570.085
38.0026
75.0013
-12.7307
167.077
103.94
-43.8365
211.025
72.6466
-193.271
-178.409
21.147
91.5022
-5.47796
396.707
427.213
-25.8192
-136.821
322.676
820.855
462.381
-56.4225
-53.784
119.056
503.161
124.251
-559.822
-719.837
-674.246
-218.104
-199.994
-544.164
-309.214
-6.82825
-139.273
-312.818
-141.225
176.98
379.426
405.548
390.626
82.904
33.4034
-95.7658
-397.719
-283.591
168.37
385.673
222.979
-6.01227
245.61
451.656
308.539
208.445
12.9903
-52.3303
-189.486
-381.125
-411.419
-394.512
-293.418
219.738
381.478
188.281
27.3256
-1.9343
-85.4076
-104.449
-99.8255
-46.3075
24.5224
353.495
685.142
180.422
-253.043
-371.066
-521.211
-688.964
-645.567
-669.016
-414.022
615.387
987.212
441.761
315.997
398.609
276.937
78.4356
-245.179
-233.205
247.942
361.582
-89.9917
-27.1853
-3.12839
77.2201
117.821
101.736
106.19
148.514
-45.7337
-672.824
-787.798
-369.687
-447.515
-426.266
-200.782
11.8163
505.942
768.493
218.035
-105.798
219.4
16.8508
-315.261
-275.623
-66.7129
112.922
268.58
393.326
384.563
60.7564
-310.036
-229.166
-92.3632
114.667
396.896
371.799
188.549
-87.8689
-142.523
-92.7012
-154.839
51.1497
127.217
68.9072
-61.4934
-81.4454
-163.472
-374.481
-562.061
-476.737
317.008
469.006
247.455
180.172
40.4209
-24.9587
-154.959
-178.231
-71.2546
-333.306
-536.647
71.614
550.772
194.728
181.951
-64.6526
-304.52
317.636
627.978
304.357
-161.63
-259.414
-42.887
-3.68302
-54.218
-51.7265
-70.9863
-188.752
-235.851
4.86213
89.0359
-302.489
-297.724
-19.3003
34.2268
223.705
334.404
124.528
91.5107
67.5105
-31.0709
79.3574
82.9896
-32.7592
-125.771
-66.1857
-48.5816
-51.4235
23.3867
23.4719
184.21
519.305
265.03
-181.172
-180.738
-76.9662
54.9912
92.8754
33.5387
-141.336
-296.429
-334.182
-303.503
-215.238
-115.905
137.549
344.54
317.189
261.126
150.52
-100.195
-348.556
-346.772
-125.935
-77.2508
10.4897
101.74
-23.1502
-126.837
-112.146
-16.6056
44.0788
90.0771
90.474
158.905
458.241
366.466
154.16
-97.0242
-137.318
53.5062
-211.062
-270.034
108.303
267.303
347
213.904
-217.819
-294.977
-242.595
70.6554
71.7793
44.5416
149.628
55.4846
-299.978
-302.079
-193.817
-205.892
-293.055
-489.679
-299.049
127.456
541.729
735.842
391.698
-26.0489
-1.85576
47.2599
72.5901
-72.0652
3.63639
-18.0712
-109.805
-155.08
-263.252
-306.277
-229.451
-13.411
257.705
540.867
735.562
317.541
-311.068
-653.552
-693.824
-415.187
123.109
312.521
434.28
557.924
381.541
209.037
20.1133
-126.898
-200.336
-137.437
-137.243
-94.02
-66.8803
-190.599
-217.836
-103.151
-101.118
-197.733
-76.2513
91.4235
-24.7556
-120.43
-99.5269
-145.472
260.754
527.683
164.43
44.87
129.891
150.408
229.758
261.938
8.43667
-379.709
-410.718
-271.463
-195.195
46.5657
74.5417
77.9618
87.1911
196.193
146.879
0.562281
-209.303
-247.385
-11.5758
127.441
232.234
279.576
126.566
-62.462
-126.172
-119.6
-118.107
157.324
176.753
-110.167
-121.975
-74.7785
-81.4357
-82.1823
-40.818
-76.5574
-165.606
-104.344
41.8704
-2.22808
-150.388
-133.324
-77.6917
-35.5445
186.666
303.044
348.395
140.16
60.7784
48.7961
-8.65108
-184.16
-271.463
-275.08
-199.063
-41.0348
29.3556
-114.558
433.572
881.383
326.801
105.716
17.3398
5.88889
-13.0346
-49.3139
-144.845
-147.505
-179.694
-288.017
-321.391
-208.848
-58.4145
83.8179
445.976
405.638
115.918
-2.93716
-285.72
-461.896
-247.169
-283.997
-196.205
-58.4395
12.5815
79.1215
50.1873
-13.4543
-17.2136
32.0326
108.808
260.645
354.775
282.688
-34.0029
-257.347
-28.5305
249.614
106.818
-83.6723
0.527361
31.2371
-75.5011
-194.601
-206.684
129.196
238.723
23.0629
81.7324
218.981
231.37
164.141
132.024
51.0203
-174.334
-235.093
-198.197
-147.238
-88.4894
-208.159
-423.581
-439.131
39.8014
332.065
248.197
53.7031
-6.57583
45.2293
-60.3961
-184.366
-223.668
-161.166
-95.9269
133.13
461.011
267.448
46.3053
-105.994
-185.494
-39.2529
314.605
380.308
-24.8379
-242.725
-46.8688
36.1801
-6.32534
124.891
199.129
237.069
171.104
51.3586
-103.255
-265.24
-407.87
-181.968
26.6125
69.8019
-67.383
-113.878
-52.0488
70.2762
262.092
291.572
-32.185
-306.165
-308.613
-304.699
-299.832
-260.788
80.2781
379.578
339.002
226.532
91.2585
75.1995
-38.1345
-207.877
-214.111
-60.1874
193.792
282.308
175.351
32.563
14.1755
-98.3254
37.095
102.536
42.8267
4.24565
57.0021
43.2926
-100.092
-121.042
-92.6475
-5.68289
60.8045
29.6424
6.02379
-36.6073
-124.154
-138.06
-108.336
-16.2895
70.7805
47.292
-117.201
-190.292
0.442891
215.34
95.6937
-0.696261
115.483
31.927
-27.0114
-96.6508
-174.734
-242.989
-258.992
-126.545
99.4746
324.171
520.844
243.297
56.498
74.3486
74.6891
110.58
56.4288
-118.753
-344.856
-436.174
-279.134
-32.0265
29.7675
-25.8785
121.771
356.291
424.507
324.327
71.3625
-228.299
-461.862
-327.888
-149.298
-72.5794
-77.5248
2.29316
50.5381
119.475
221.569
164.625
137.138
170.635
164.352
29.2059
-67.0209
-20.8634
-90.2586
-268.43
-265.789
-124.489
-141.083
-117.592
51.459
186.603
298.273
163.768
-9.11284
-34.1833
62.1454
50.6037
70.2435
-50.4631
-206.098
-145.865
-129.789
-110.342
-17.016
66.0557
68.1503
90.0746
86.4833
119.355
15.1622
-75.8808
-106.888
-17.5247
55.9401
23.2012
-28.513
-41.9506
-111.03
-86.8713
46.8661
255.473
306.937
177.789
81.0156
-33.0732
-91.9291
-42.1104
-28.3088
-98.1395
-216.991
-259.726
-47.856
279.712
235.296
-48.6089
-31.4247
44.0312
26.4734
-30.2715
-133.922
-189.457
-213.64
-243.773
-116.251
14.7662
27.4658
137.02
135.253
79.9064
252.275
346.294
203.053
-114.557
-248.31
-198.707
-160.785
-78.6145
-34.2317
-21.4127
202.521
159.628
71.1629
4.73799
-11.0287
185.04
135.169
-143.439
-103.59
55.8599
-2.18426
-67.626
-152.974
-189.457
-17.3318
162.208
113.715
87.7337
30.2836
18.0078
-114.633
-74.9797
-24.5818
28.3124
90.6729
117.033
165.619
9.7479
-191.887
-198.496
-107.621
-2.47163
-100.082
-210.527
-225.951
-129.288
-122.578
27.7147
392.474
377.97
120.505
49.6913
196.19
212.823
139.203
-32.8718
-169.871
-182.34
-102.494
-9.62929
6.83166
-73.6395
-68.5708
53.203
119.611
84.3096
73.2694
-104.488
-397.568
-379.208
-191.372
33.1948
191.413
361.139
276.976
100.382
14.5742
47.46
128.17
110.301
32.4609
-67.9076
-164.441
-257.746
-186.81
-91.9601
-12.5188
15.9193
-15.8966
-9.66627
0.494207
-16.6078
-119.009
-117.915
102.566
95.521
28.3238
170.938
99.4085
-41.4923
42.7049
109.545
16.9113
13.1392
-12.1636
-14.2349
191.096
202.359
1.87184
-44.0191
-19.1164
-57.3383
-90.9108
-44.5156
-187.567
-188.408
-44.8806
-32.6366
-19.2857
1.55221
-59.522
-80.8603
30.0786
150.171
233.372
117.591
-77.7956
-96.969
4.76875
22.1869
2.56973
-4.59448
-20.9462
-78.1127
-53.715
-20.1323
-50.8532
-129.23
-48.707
169.818
181.184
152.089
143.175
19.7139
-158.579
-105.464
8.57168
26.9084
69.0661
60.1385
-39.1102
-68.749
-42.3339
-41.1758
-12.5258
36.7817
44.9903
-10.1671
-42.763
-62.0241
-42.115
-10.8873
20.3206
45.3379
61.859
41.7972
-23.74
-35.2603
-20.4275
-5.14979
19.29
18.7442
29.9934
32.6034
32.2446
8.38429
-50.9686
-106.98
-130.242
-114.416
-5.60682
114.335
60.2947
51.7718
56.5991
57.3363
23.8266
1.24719
-23.2764
-25.3493
-2.36981
18.6935
23.9118
-35.0132
-46.1451
-18.6732
33.7272
-4.50104
8.74231
118.153
206.901
31.2632
-191.368
-354.664
-242.441
13.9279
128.96
100.955
120.812
136.097
102.198
21.3076
-106.397
-67.0666
3.13078
18.3756
19.5514
-15.8387
-122.182
-206.789
-142.459
95.8183
251.414
207.977
33.1168
-158.879
-216.618
-44.0216
143.339
321.031
246.619
47.7109
-37.7039
-79.6705
-92.1304
-73.0416
-66.4067
-9.3599
29.4071
-18.6546
-119.828
-170.725
-90.5287
28.5663
23.8574
-36.159
-13.7498
-24.1671
-101.956
-209.657
-160.337
21.4602
168.386
190.413
156.039
126.866
84.1646
69.6415
90.5679
84.8452
33.2167
-24.0652
-12.0668
37.8918
70.2994
64.5159
2.70188
-67.4951
-122.214
-160.743
-90.2285
-24.38
-0.747267
-14.8976
-39.3232
-50.761
-49.114
-13.101
46.9552
113.178
17.6677
-80.8463
-77.3171
6.85269
56.9743
44.1351
22.5249
5.27061
-3.11361
-13.1732
-16.231
-14.2641
-4.83441
-3.18091
13.6738
37.8881
49.6899
42.2953
23.0481
-21.8543
-9.8533
31.1516
38.787
-1.1355
-22.9219
-22.161
-18.5599
-18.9091
-14.4093
-17.4889
-22.8488
-21.0486
-3.81312
11.2219
13.1485
-13.4568
-18.8973
-0.756272
0.137736
-18.6397
-14.8626
-4.30372
7.73827
14.2808
21.5738
27.1328
18.7479
-1.79128
-11.1437
-19.6964
-27.8071
-27.5005
-0.933616
30.0726
35.7626
49.276
45.531
26.8797
11.4666
-7.4907
-8.0218
-25.6219
-54.9386
-53.8678
-43.6134
10.842
122.215
110.002
27.5701
-9.39644
-23.585
-25.7154
-35.0843
-44.4012
-28.3201
-12.4909
-12.4566
-19.6009
-21.1346
-23.5618
-19.6972
-14.1494
-8.49391
0.256407
0.772501
3.98514
-39.322
-36.1957
-0.330031
24.9769
28.4987
26.1368
27.2237
20.595
24.6433
32.1197
29.7428
35.4067
73.4958
11.7848
-42.4426
9.12482
-15.0941
-40.8448
-11.8486
-24.0778
-50.5652
-42.0237
-30.7389
-15.5992
16.0209
17.3714
22.0641
27.7343
26.9732
39.724
55.4306
43.8725
-8.37434
-10.1513
-5.96078
-58.4737
-64.1996
-28.9424
-36.1275
-35.7021
-73.1357
-76.4016
-33.9187
9.84913
136.654
272.978
106.135
15.5732
27.7931
-3.69833
-54.2689
-93.642
-99.5648
-7.84727
76.1538
55.1638
27.8953
20.6714
-6.51952
-56.7973
-91.1781
-77.8718
-37.9726
-13.6127
-56.5053
-122.983
-33.3813
6.34751
-8.29839
-1.66263
14.0257
47.0579
59.9553
24.0233
-1.39573
28.4463
54.7149
25.9972
12.9528
30.7101
80.6913
105.865
81.0004
35.8724
-30.929
-78.445
-32.085
-17.4137
-27.1726
-18.1685
-4.51683
-15.5976
-23.6081
-23.2146
-28.5248
-22.3986
-8.87468
-6.71466
-14.6411
-10.6912
1.0257
-1.57696
-12.6848
-27.7884
-41.8607
-53.1123
-19.6112
24.7146
91.3144
115.646
55.5452
21.7467
36.769
75.632
65.9826
-5.40358
-27.7991
-3.04425
22.0074
-29.7578
-87.6862
-101.4
-105.281
-70.528
-36.1371
-28.2863
-4.82209
-0.0467199
-15.2382
-17.2055
14.5194
36.4978
47.1685
11.0203
6.39987
33.7175
23.2603
-17.5002
-36.4525
5.58816
54.6117
59.933
59.8677
56.5651
50.0182
79.6074
75.9453
21.0437
-31.3899
-45.3378
-30.1484
-31.5381
-59.2752
-103.246
-106.323
-47.6762
0.609643
21.0213
49.1945
97.4978
69.6393
-23.2881
-54.7884
-38.1176
-19.5426
-48.0657
-50.2482
-11.4676
17.9939
0.939398
-10.0468
-8.80841
-5.08142
18.1323
66.6355
36.1933
-1.89618
-34.4676
-63.4361
-88.404
-56.0728
88.0166
168.657
78.2343
-5.90649
-33.9845
-30.0413
-19.4758
0.709076
35.8158
41.6187
19.0279
1.62492
-9.64617
-25.8773
-21.3584
-3.16527
26.2424
16.1266
6.28028
16.7189
-5.07574
-34.7254
5.12602
31.5004
19.1633
2.00245
-8.40874
-9.60729
-51.112
-87.0836
-56.8355
-5.97823
0.785423
-17.2973
2.46128
7.03059
-1.24485
0.479533
-0.16171
0.181241
4.49137
-5.92935
0.741117
-6.03805
-8.14921
13.5381
65.9862
64.1182
15.1119
18.5018
21.3114
18.4639
15.9233
11.1203
40.047
27.9825
-26.4382
-65.5049
-38.3808
-4.56459
-6.80068
-19.8243
-3.98778
0.68485
0.859931
1.25891
-24.3657
-29.6043
14.3816
27.0243
-7.52789
-24.7462
-23.4235
-18.618
4.6924
44.537
45.1774
14.4003
-33.0344
-67.0819
-56.8617
-30.37
-8.28076
-3.42449
-20.0126
-7.11874
3.54735
15.4145
39.5642
50.5597
44.4287
35.1409
20.8252
16.9729
38.9588
66.6159
59.7873
7.82059
-15.5928
-16.878
-30.2613
-43.3681
-45.4036
-25.7659
-4.21023
1.7435
0.959103
-1.04533
27.2362
36.0713
9.81725
-15.4484
-44.1228
-68.8737
-73.4095
-92.1474
-72.638
-2.90366
21.7512
21.329
10.7374
27.5533
35.3398
-14.9539
-8.27525
13.2496
53.9103
77.4617
52.4749
29.8183
26.2288
27.9818
48.4113
77.0588
-1.53658
-70.7662
-44.8625
-20.6472
-23.4811
-13.0083
4.07568
3.17246
-2.38713
28.4297
41.2162
22.8034
-39.9873
-44.0739
-37.9284
-18.5957
-8.75053
-16.4275
-18.8641
-27.3189
-26.7893
-29.0597
-27.0716
0.739983
13.8367
-7.41046
-1.90747
0.736294
0.556276
13.2618
-2.20098
-5.15318
9.50277
-2.58518
-3.05084
5.1726
-3.33071
-14.154
-5.2243
2.56249
32.0244
58.3738
48.7486
30.9316
14.2679
5.84121
12.3509
25.8215
26.5061
27.3414
11.6097
-5.35765
-9.88007
-30.3205
-27.2568
-26.5386
-17.4747
6.45834
8.48345
-4.31983
0.731455
0.972119
-8.59215
-16.712
-18.3657
-6.51888
11.1388
4.49571
-7.36489
-34.9707
-62.0584
-42.4984
-15.5829
15.5264
41.679
43.8158
44.1874
34.8423
-23.9254
-44.7771
9.43622
75.825
32.0392
-52.4281
-95.3956
-83.5655
-69.542
-61.6186
2.77296
53.4866
71.1975
65.361
53.5689
38.9962
26.471
7.7354
-22.1705
-28.0576
34.0597
91.528
45.1842
-26.1508
16.1916
70.9074
28.5001
-19.1403
-32.1612
-36.7074
-47.4045
-49.8251
-50.3466
-51.6683
-23.6738
-6.31521
-17.4818
-13.3159
5.82188
11.6613
2.49768
-38.9092
-56.3581
-50.5025
-39.5887
-5.9522
36.803
51.7625
57.589
45.9954
22.43
21.6422
17.1686
11.2343
20.1386
27.5946
21.9599
11.0331
14.2893
18.4593
6.44607
-9.16844
-17.2062
-14.7172
-11.8434
-8.85033
3.03246
6.95085
7.65774
-7.80848
-50.1842
-38.8704
-9.36829
-0.563536
3.70333
4.65213
8.19151
9.08208
11.3352
-11.0467
-14.0574
-12.8468
5.07521
3.57283
-16.4999
-26.2983
-20.2355
-8.68997
2.62896
3.31972
11.6064
24.3796
31.0104
47.5881
49.7613
67.8768
0.996772
-95.461
-84.8165
-35.5104
-4.08676
1.26762
-7.77574
-10.2143
-36.5179
-56.2629
-26.576
10.0026
44.8248
142.929
146.903
75.325
23.3911
-10.8473
-23.8332
-36.4696
1.06335
52.3457
14.3082
-25.5616
-63.2497
-82.0209
-75.8226
-47.1132
-9.76481
17.9932
2.38025
-29.6992
-47.5918
-96.0771
-78.5533
-28.0137
13.155
63.5156
108.301
78.8777
59.2994
65.0297
59.789
56.026
30.1042
-10.0898
-21.3649
-28.1155
-37.8269
-29.0874
-22.3237
-19.6254
-23.7663
-37.7417
-29.3338
-7.9409
-8.54792
-43.2387
-55.5759
-48.442
-17.6735
18.189
33.9529
38.465
48.8815
57.371
61.1895
55.4755
25.3705
2.7343
7.65655
22.3363
12.9567
9.1867
-0.565485
-57.0126
-45.1041
-20.7708
-16.5029
-12.6956
11.8673
15.121
-13.296
-22.5518
8.63357
64.6741
41.7498
11.3703
1.44303
-50.64
-73.2853
-52.3072
-30.9418
-21.0074
15.168
50.9286
35.6098
9.82049
-25.4681
-55.6562
-29.4663
26.3462
65.5224
57.9808
1.38137
-49.2325
-39.2241
-25.07
-25.1415
6.36882
13.6554
-6.31459
1.00318
4.03562
-4.11566
8.63703
29.5821
42.2108
43.2809
48.467
20.5467
-0.121838
-31.8494
-54.8493
-31.8159
-13.6235
41.0977
64.0914
14.1681
-6.23399
-4.07438
-19.7066
-30.5886
-28.4411
-46.929
-58.8343
-49.5897
-41.0713
6.83189
67.3496
80.5488
25.7135
2.31552
-3.57552
-7.19438
-0.84444
-16.8011
-34.1971
-8.70285
2.22829
3.62001
11.6506
15.3842
20.0152
33.7908
43.5389
24.325
-9.09794
-19.6297
-25.5484
-3.35493
18.2033
-10.3387
12.8703
37.9166
5.94244
-17.184
-10.8346
2.53203
4.14732
-3.88077
2.55783
0.190133
-12.8438
-32.9141
-25.159
0.805755
21.7129
13.2432
-3.77968
-36.0268
-88.3239
-78.1019
4.79782
32.9472
-49.9352
-38.5791
31.9682
61.4228
59.6262
39.9944
13.5403
15.9691
31.6489
47.5541
54.8431
21.1603
-45.2499
-57.942
-45.8804
-25.0934
25.681
53.8154
4.2513
-9.09963
44.1492
18.805
-33.8104
-49.624
-44.471
-27.7929
-13.2487
-11.5313
-6.91765
-25.0548
-13.6869
4.53277
35.1576
44.1181
23.0726
8.50929
14.6223
17.6657
-20.852
-40.3699
-20.3717
7.71253
56.4879
89.3655
54.9453
-17.7243
-46.7321
-46.1664
-39.5042
-27.2883
-29.0779
-29.2273
-28.8276
-17.2006
-1.90119
16.5865
36.7679
43.4902
30.7081
16.1184
12.5359
-5.64166
-39.6954
-57.3544
-16.7927
22.5958
22.6592
14.3408
8.22298
14.5163
14.692
2.50605
-7.36711
-10.1201
-0.530835
16.6722
18.1292
9.66679
10.5407
19.9048
25.1444
-4.77849
-26.042
-31.0584
-23.097
-18.2638
-21.3958
-26.1922
-24.2182
-15.1843
-1.03864
8.32904
16.3536
32.6782
27.9623
9.32767
2.12334
17.6548
9.64915
5.97151
15.1284
11.694
-14.7249
-30.2046
-26.5905
-11.1047
-1.66377
1.54041
10.9899
20.6443
22.3012
2.82345
-17.2972
-18.4995
-7.71208
3.082
8.26649
7.67753
-3.32203
-22.1721
-30.1884
-10.6459
6.52497
-2.66571
-19.7972
-18.899
1.48886
5.85443
8.25819
-2.23471
3.90287
6.05518
3.788
20.7712
33.0423
39.5194
43.8545
37.1287
44.3245
42.7496
1.52082
-54.6493
-49.9592
-28.3994
-29.4553
-40.4143
-39.8334
-25.5755
-18.3968
-12.1248
-9.15934
8.67863
22.2117
13.119
18.8479
-4.39206
-16.0004
-21.4084
-25.3844
-5.85166
22.5006
54.8085
63.6346
37.8119
13.0867
-4.58159
-60.4877
-64.3828
-29.5992
5.34705
58.5879
90.8035
27.8953
-0.775432
0.828732
9.36045
7.12948
-27.5504
-49.6484
-11.8381
69.2186
60.6893
7.97893
-17.9381
-34.9514
-38.25
-42.5911
-38.9064
-25.7549
-9.39428
-17.9768
-34.3061
-33.2355
-63.5731
-71.4889
-11.0433
32.567
53.1142
37.9411
1.39464
-34.7164
-5.8237
24.708
35.5566
51.2087
46.7108
51.6166
43.3181
42.7271
24.9012
6.27624
-6.09674
11.7563
36.1862
35.3104
-2.34342
-36.0875
-26.5654
-31.1695
-20.2493
-20.8218
-9.32937
3.76156
-31.1506
-93.9635
-79.2179
5.66819
69.848
46.2776
3.77223
-45.4053
-35.1389
14.3631
23.1141
5.65491
7.7362
25.0958
6.45046
-13.8143
-9.27427
2.59929
-9.96613
-23.2157
-10.5668
19.458
19.853
26.4721
11.3157
1.30275
1.86356
6.14283
-8.64695
-22.8871
-12.8202
1.48168
16.0654
55.8966
76.0767
69.7895
12.1566
-83.5625
-127.804
-80.1198
-20.9321
12.9911
17.2768
3.91379
-1.5712
-0.591322
-10.0062
-6.02714
-7.96433
-11.1388
6.4428
23.6913
8.49213
0.394396
29.4163
41.132
19.0622
30.4279
50.0171
35.0435
12.3525
24.1331
43.1282
-26.9559
-79.1714
-56.0631
-12.4475
12.7276
-1.41684
-21.2901
3.74123
13.7582
-21.2821
-34.1835
-35.352
-24.2706
-8.7892
-17.3721
-15.1371
19.6251
46.7932
-13.1299
-47.9359
-24.2048
1.35145
8.61627
-4.08879
-12.0269
14.092
41.615
22.3689
24.4945
53.611
37.2314
3.53601
-14.2984
-9.73562
4.61561
16.3582
-14.5173
-35.8007
-5.81685
-19.4411
5.03282
69.6016
41.1308
10.9038
17.9951
11.7222
-3.23152
-5.13036
-19.4848
-57.4649
-61.8452
-30.8676
-18.054
5.67552
28.6063
19.9488
16.7557
5.82678
-6.36404
3.43755
-6.2496
-40.5034
-25.7826
-4.46746
-21.6698
-17.5148
35.0511
19.1619
-17.7497
-2.48957
8.23901
8.71094
16.1576
12.9811
-0.416167
5.54648
17.4569
27.5353
23.2793
4.64042
-20.0122
-42.8873
-28.5174
-16.9518
1.96442
15.6085
-13.5742
-11.3408
28.1083
44.7447
27.6437
10.1454
12.1499
-11.4747
-19.597
-15.1215
-26.9188
-41.2409
-31.5027
-2.80821
14.7229
19.5563
22.8529
15.7826
5.41224
1.62974
-1.61211
1.44397
-3.74512
6.34351
15.3079
17.1163
-3.23845
-0.324858
-1.70256
0.675801
19.2506
28.4764
-18.3353
-52.0413
-50.8136
-28.4329
14.2136
45.53
33.5088
52.6883
58.3175
17.3078
-7.49945
26.5221
27.856
-50.1283
-69.601
-57.3864
-52.185
-47.4997
-26.7399
-15.9285
-10.6136
12.8838
33.8945
6.81499
-16.2963
-29.4002
-19.1993
-46.9247
-36.4441
5.76863
39.6014
28.8105
15.822
51.1419
65.4672
77.489
75.1751
44.8704
29.2433
17.5142
-14.7982
-40.8109
-71.3599
-79.6359
-59.7044
-3.81935
44.7593
40.973
-10.8291
-13.7167
-14.7648
-29.9071
-22.2084
-0.402335
-0.743015
12.7955
99.0946
93.7131
-1.74127
-34.4851
-14.2321
1.7014
2.2326
10.3286
-0.887173
-34.1192
-47.0586
-35.5495
-26.1911
-26.8184
-8.53682
9.01561
15.9343
7.87181
-14.6041
-36.1403
-79.0176
-35.567
27.0791
25.7908
12.9194
17.6203
31.2124
26.8293
23.6503
15.6112
17.8041
29.8045
13.0606
-21.8691
0.392083
21.7672
25.4991
23.539
11.9648
0.281692
-9.1667
-24.6756
-34.9275
-18.7523
7.58618
14.4526
-10.9924
-41.5798
-54.5503
-47.9766
-43.8689
-23.2708
11.3721
49.1031
61.7106
31.8795
4.85147
2.61451
12.1342
27.9821
28.0496
1.05371
-8.81296
-13.9364
-10.5771
-12.3082
-9.0541
-8.31528
4.65647
8.60678
13.5862
29.4349
16.1772
6.26146
12.1721
33.8119
35.6533
33.6138
15.6825
-28.2608
-53.9834
-19.9153
7.80103
-4.07716
-19.5824
-33.1746
-28.9234
-26.7486
-0.615917
-6.72405
-54.267
-72.0705
-30.7804
-4.66965
4.09577
11.4294
22.2436
23.1736
3.48646
8.09137
23.6864
60.9784
52.7681
-8.47934
-15.4021
-2.73181
-11.2516
-9.57343
-13.3586
-4.9056
29.1741
54.264
28.8963
4.7386
-25.3179
-29.4801
9.36862
-4.86318
-20.8681
-12.4001
-16.6387
-46.0564
-32.8447
26.1742
17.9432
4.53277
3.2177
6.78681
-7.85182
-5.01968
2.81919
11.8821
37.4446
37.8146
26.7953
9.47337
-11.8669
3.07096
15.8557
-0.702042
-20.2771
-41.3063
-32.2783
3.78854
4.94896
17.8476
43.3012
16.3704
1.79761
28.1331
30.7762
33.4611
-38.6246
-88.7817
-41.3516
5.50065
-5.74537
-14.9435
-4.94998
8.24112
15.3027
0.560923
-15.5413
-28.9633
-22.3754
-17.3723
-6.2256
29.6061
26.3485
-22.4989
-64.1107
-76.4679
-37.6528
3.82921
32.3305
28.2323
34.4187
46.0788
53.8319
54.8525
41.9348
3.90114
-6.05034
11.5165
19.2432
-7.18629
-48.1208
-22.3022
19.5641
31.7544
41.9011
21.9142
16.3464
17.2512
-0.676588
-22.7567
-18.3713
-12.0934
-17.1816
-27.0035
-26.1437
-13.1716
-8.39806
35.5211
23.2245
-42.2812
-40.0254
-39.8345
-45.6074
-35.0068
-18.7418
-8.49358
9.48665
17.6065
17.7661
21.5183
36.2838
28.6325
10.418
2.57883
11.1092
24.1966
4.1972
-19.4686
-34.9442
-38.7938
-12.2817
10.8727
4.98731
2.99795
3.75106
16.9035
12.0818
-7.72746
-33.7088
-32.4496
-22.5935
-4.10474
81.9097
79.5238
48.8249
26.1121
21.3289
24.4714
29.963
41.2185
-3.6152
-64.2795
-65.9492
-35.952
15.8947
20.0535
4.20792
-8.55673
-14.3888
5.20451
6.0897
6.57301
-30.9131
-12.7895
15.1242
-7.89819
-46.2365
-131.169
-155.782
-97.3256
-39.3475
15.9945
33.5456
37.852
24.8345
94.9609
165.611
75.0311
5.5183
-0.705579
23.37
12.8557
-13.607
-17.9018
-13.555
6.98546
30.4148
45.8555
76.6101
83.0717
36.2345
-2.78326
-39.1842
-57.529
-64.8331
-85.9569
-84.9497
-34.3499
6.34288
15.7798
-22.4214
-21.1729
-1.70439
-7.1983
-16.6221
-14.8219
-0.58606
43.1243
39.7376
0.845882
-15.9452
-24.1389
-8.7138
5.25998
2.70727
-3.30479
-11.9649
22.3869
52.8767
35.2224
10.0328
18.065
25.5137
4.94188
-0.412961
5.48223
-10.9692
-7.75019
-13.647
-16.9992
-0.38055
11.3224
6.652
23.1132
20.5408
-11.8978
-46.6149
-48.4824
-19.0092
8.39688
14.6726
4.73389
-13.7751
-30.1698
-20.1902
-22.4641
-2.33001
32.3305
35.8924
25.6055
-4.86554
-9.25626
-4.08047
-2.60955
0.418859
14.096
-0.378464
-10.6289
-2.6284
1.54896
16.7913
25.2498
41.5003
34.6158
1.01508
-37.6937
-50.9732
-48.5358
-9.28019
38.2141
34.0228
-4.59144
-0.815663
-0.0752114
-4.68074
-22.318
-22.853
-6.06258
-13.8231
-29.9492
-3.00843
34.6452
25.3932
35.096
59.7827
45.0376
10.268
-17.014
-57.9113
-48.5545
-32.8934
-20.2898
63.9054
47.9115
-25.2034
-70.3256
-35.4457
-18.5675
5.84632
23.1177
15.6235
6.71179
18.6085
18.1729
0.44006
7.40367
35.1964
47.856
29.6191
-31.1804
-52.6178
-59.1591
-86.7153
-43.3554
22.854
63.2436
55.6804
37.4639
9.74445
8.37124
4.13315
-3.43716
0.307843
-3.37323
-21.5573
-29.3196
-26.1547
-36.0907
-24.4163
11.758
47.2125
34.7103
-2.65958
-19.0922
-14.6609
-1.37467
10.4737
28.7113
34.319
31.6925
29.9926
15.6695
-19.3922
-49.6158
-53.9373
-41.9463
-25.2117
8.54635
40.8557
29.8621
8.45876
17.3167
3.17534
-2.57435
2.52528
7.13832
1.26062
-16.1591
-20.4623
-16.421
-14.2915
4.50572
16.8594
10.1361
8.19112
7.84449
1.16365
-12.5974
-22.7619
-31.3319
-32.3105
-12.3694
11.4076
45.977
28.0802
8.00522
10.5436
2.59369
-7.77841
-10.8835
-3.15126
8.88696
8.27067
8.99192
16.1881
24.6401
26.6308
14.9527
-5.26626
-30.7247
-2.3777
-23.2721
-55.8858
-52.9909
-22.9304
0.68344
16.1
26.626
11.8313
0.633659
-18.0459
-41.155
-19.665
9.16334
16.566
18.1457
19.7422
36.6404
61.5667
60.3765
16.8693
8.13712
2.56943
-25.1175
-30.555
-18.2017
-23.2497
-27.169
-18.4655
-0.139669
28.3178
32.9071
0.617592
-12.603
5.72289
8.71005
-13.507
-15.9391
-35.9568
-57.9736
-53.3262
-28.2943
-4.03408
30.5286
47.5542
31.0981
11.1376
8.81696
0.386385
-18.0851
-5.99134
14.3392
20.0075
3.99098
-11.5874
-6.18802
-4.22724
-2.16995
10.4756
30.1227
41.5259
16.1801
-10.144
-20.7041
-32.1886
-22.9019
9.60981
17.9177
19.2368
29.5275
13.0527
6.59193
8.74207
-8.92776
-12.5371
0.0245067
15.1612
3.13136
-18.9587
-34.8176
-39.5633
-12.6422
-8.67986
-6.30461
-0.177711
-6.61256
15.7882
13.4184
-11.1018
-22.5973
-26.1174
-14.063
22.4436
45.8444
17.892
-2.62098
-11.9523
-18.0324
-15.6808
-4.44127
7.99648
22.0469
28.7848
26.7434
11.4248
-6.15264
-29.7914
-28.7969
1.01838
48.9489
65.5119
37.5432
-6.42271
-24.8129
-19.9813
-27.6368
-25.8043
-12.6975
3.90014
18.4515
6.0615
-19.4765
-36.5083
-43.2426
-23.5596
5.34143
14.8783
5.94112
-11.4737
-10.4449
3.74457
20.9164
27.4315
19.7176
36.3295
18.8244
-22.0815
-17.8698
16.2452
6.7609
-16.5261
-18.0232
-11.3018
2.19413
-1.0643
0.253521
0.463624
2.37843
4.48166
6.54867
2.70077
17.1699
16.6574
1.15786
-17.6508
-2.25429
16.9877
10.4834
1.01261
-5.79008
-5.47192
-9.39246
-5.2261
-13.8692
-30.3896
-37.7986
-30.1801
-16.8302
11.1079
29.0043
27.4735
18.6351
11.8967
5.27351
0.749851
7.7067
10.3847
-0.645693
-28.2536
-37.9746
0.253506
26.3948
25.5108
47.2979
56.2879
20.6038
-10.9607
-10.8312
-11.6213
-17.837
-26.3629
-30.0003
-16.0632
4.72428
33.5952
46.1296
12.298
-40.6217
-36.5197
-15.6747
-13.4624
-15.5379
-5.52574
-17.4275
-25.0537
-20.9565
-8.28493
-2.82716
-6.51292
2.8363
29.2902
36.7132
27.476
17.3281
2.1944
-12.8593
-12.9172
8.55577
11.9383
7.87338
11.2898
-1.83687
-11.258
-24.0468
-24.184
-18.1125
9.84536
31.7918
26.0838
16.0038
3.52702
13.061
16.9407
6.04309
-12.4445
-4.54659
11.4492
27.6146
27.0922
7.86739
-2.32642
-25.5028
-76.9237
-64.1438
-16.2587
18.6541
30.3458
10.9154
-5.23707
-5.89765
-10.8375
-12.5014
7.82278
18.6006
14.0389
9.2351
8.57499
4.10706
-4.2917
-0.0668802
-39.1228
-52.782
-13.1226
48.2385
28.4047
20.0263
16.382
15.9777
5.36624
17.9356
1.70903
-38.4221
-34.5174
-18.4111
-19.5287
-16.3601
-16.086
5.26368
32.7609
32.1809
17.5978
1.82361
-12.9418
-33.3327
-10.1927
1.40025
9.48529
17.1208
14.8786
9.3586
15.8068
31.3098
17.3099
9.67724
3.37947
-9.86819
-10.553
-0.346041
-25.1928
-44.7
-35.4015
-15.3818
10.6506
14.4915
-5.75637
-20.2858
-12.7547
-12.9021
-3.30881
8.16326
29.1217
32.8411
9.10735
21.5854
28.6474
17.5399
-5.94006
-21.4565
-1.15973
1.69767
-2.37234
8.78734
7.25137
-14.1473
0.821389
9.64273
-1.79834
-22.7514
-33.8536
-16.2075
6.53951
8.34862
38.4718
25.6438
-3.77212
-8.09295
-19.0601
-23.0143
-8.81688
-3.76641
2.2512
13.4108
13.3025
-4.20741
-10.9498
-12.4599
-43.739
-32.0884
-3.71724
0.615631
-11.2707
11.0227
34.232
9.84651
-0.643624
15.152
38.3816
30.5237
19.3591
31.0083
30.7076
5.03274
-6.63482
-12.3307
-18.5503
-22.1824
-31.8864
-19.4931
-10.9863
-17.7637
-10.4747
9.89073
10.6713
23.5771
30.4811
12.2817
-16.7103
-23.1991
-14.9452
-18.5064
-28.7393
-42.5115
-41.8734
-5.97997
34.0976
40.7582
41.6098
26.8118
21.0981
20.8041
17.4223
9.5799
-8.19421
-28.9752
-34.7273
-19.2306
-1.02104
6.43194
8.65515
7.19024
0.857709
-4.24129
-1.63367
-12.8132
-16.8458
-4.28829
36.52
36.9524
2.00894
-4.52852
37.6435
12.9346
-71.1973
-69.0445
-26.9689
4.99557
30.6491
13.5414
-8.18047
27.2458
65.6179
48.2954
-22.574
-20.8294
-7.45062
-24.6879
3.42004
-5.4002
-21.9018
-1.50734
1.35843
16.015
12.1493
-23.5032
-19.1281
-6.18607
-26.6596
-28.6782
8.90743
-7.89524
-45.0389
-26.0242
9.06441
7.76609
5.20444
0.383897
-17.7799
10.4285
30.2012
51.9253
73.2142
71.0799
96.9528
115.297
34.9943
-19.8597
-37.196
-34.0632
-44.3362
-72.4736
-89.0385
-81.5159
-37.406
-21.2067
0.87552
29.5757
35.3473
26.8401
0.981684
-39.7016
-72.6563
-57.7622
-16.3119
12.6738
21.7318
23.4005
15.8662
15.6932
26.0902
33.7374
51.076
32.5695
-4.81256
-36.8534
-23.8378
-1.02993
-23.7089
1.69736
39.5704
52.0295
-1.78676
-30.2096
-11.1251
8.27343
8.6318
3.56295
13.1175
12.096
-0.917265
-19.4718
-15.9188
6.32216
31.3667
40.0857
18.2422
-3.18977
-10.7934
-47.0389
-52.3918
-32.3574
10.0933
35.3159
32.4834
20.6532
4.18829
-1.34866
-0.12162
-2.68751
-19.0752
-36.991
-16.1711
23.5074
-12.6714
-70.0393
-58.1433
-48.5164
-14.4268
14.4175
24.8708
34.5525
56.7767
13.7315
-40.721
-27.1186
-3.05382
5.33943
19.943
30.3254
40.3192
26.2888
-19.3474
-37.2446
-36.822
-5.0983
32.5102
87.7667
117.118
98.6262
42.8431
-32.2682
-58.2504
-16.0892
23.0643
-11.1324
-34.9141
-30.5114
-40.1261
-36.1953
-21.6411
-28.5587
-40.1581
-26.898
2.29232
11.6687
-27.0907
-52.7552
-43.1119
-14.2241
2.19473
15.0744
13.3447
19.1326
28.6845
32.6451
42.2267
73.4087
60.0987
-26.5603
-25.8098
14.4945
27.0147
14.2683
9.0013
-1.69923
-8.05088
-26.6111
-83.7803
-79.9472
-57.1017
-39.6509
-33.8154
-18.5388
36.6244
72.2548
106.017
115.192
44.4639
51.0981
54.4511
37.6997
-15.4996
-65.1456
-74.6207
-61.1535
-27.9532
-9.66114
-7.31267
-21.4116
-23.3811
-9.62685
12.9819
13.8309
-22.8237
-47.6576
-65.894
-75.5305
-19.3579
35.7357
40.7648
27.4412
7.52825
8.19652
37.2391
41.4907
29.5083
13.8094
-9.15991
-23.1662
22.9448
68.4545
109.296
105.95
35.6957
-6.55809
-52.9157
-84.1164
-34.1634
-33.5576
-70.5523
-73.4079
-26.6636
12.0084
10.1335
-3.99187
-17.1633
-19.72
16.1557
33.6289
9.75179
-10.8224
-20.4395
-18.6919
13.5487
33.78
15.1115
-11.2354
-26.2211
-26.7349
4.71258
66.0558
37.6373
-13.1289
11.0472
10.043
-8.57049
-22.163
-22.3968
1.15444
18.6474
22.6915
8.36133
-14.9219
-20.5435
-8.17292
18.7241
40.3739
27.4339
3.4525
-10.9279
-36.7267
-21.7129
-22.7541
-39.1287
-19.4563
11.7317
46.9113
39.7204
22.4029
0.871044
-19.6877
-25.1024
-6.03109
1.24476
-13.6784
-11.3119
-12.1714
-27.245
-13.0355
3.59593
28.9598
60.7725
35.6238
-5.75235
-8.77126
-8.04733
-5.64888
7.53103
13.9138
1.3552
-27.9504
-36.1449
-48.2383
-38.8931
-31.8181
-1.07319
38.6756
92.2592
94.6308
34.2301
-30.1811
30.2215
6.3688
-21.5991
-21.8722
-32.954
-0.539642
10.5869
-6.35498
-57.2184
-94.3495
-62.0725
-8.73134
13.792
34.75
21.3148
4.50457
10.2091
6.04168
18.4247
33.597
28.2111
17.4315
19.9285
27.6698
1.4439
2.36828
10.6426
-6.22061
-10.9993
-5.75178
1.76286
-1.16957
-27.2197
-48.8611
-21.7423
-2.04953
8.21972
27.016
28.0498
-5.88893
-22.5672
-19.9891
-9.48246
3.27899
41.1969
53.1344
-16.2659
-25.1501
15.1525
63.4517
24.4956
-49.1305
-73.9166
-76.2845
-31.1248
20.2518
37.2973
37.4772
13.8864
-22.5102
-20.8714
-31.3642
-4.10209
-3.95099
-15.2473
-10.4168
43.3407
78.6259
62.0303
-13.8673
-77.827
-49.1853
-3.53796
23.6729
17.1446
11.3072
13.5725
11.1986
5.80099
5.21318
11.8963
19.6214
-7.71758
-8.48298
3.64007
-0.143087
14.2585
6.24869
-33.3925
-44.001
6.5393
43.9308
46.972
6.13055
-40.218
-43.7604
-23.1458
11.605
11.8467
-9.37129
-5.108
-16.7517
-19.3363
2.39746
24.2512
21.7641
13.6611
5.47636
-16.174
0.398122
-7.60846
-7.75096
1.49041
1.69081
-3.33919
-11.5038
-36.638
-48.3014
-26.1493
5.15359
25.096
54.8449
61.9093
40.6977
3.29961
-9.91225
-26.5274
-31.9124
-10.4522
5.58128
28.3733
14.007
-19.4073
-20.7954
-7.94422
2.22403
2.61431
7.88754
13.5755
14.9924
9.27011
-3.37555
-11.6525
-0.907419
11.2092
11.1262
11.7925
-5.15778
-12.3461
-13.3189
-13.2651
-12.4328
-11.0357
6.24643
31.3261
20.5754
-15.9788
-12.6097
-5.63683
0.0636784
8.6248
16.8311
16.7778
17.5879
5.67904
-27.0912
-39.667
-35.2536
-17.895
2.24094
15.6027
16.9654
13.3852
-11.3189
-28.0243
-22.6
-12.3687
-14.9498
-1.24537
4.54567
-0.988585
5.94075
18.29
17.0483
11.6399
14.351
17.3112
11.1522
10.6572
9.80097
5.41152
2.15987
-29.5289
-28.9381
-10.7256
16.5403
51.2502
49.1268
12.3987
-4.38258
-11.7322
-19.6347
-12.5999
-0.0819195
7.09737
13.4345
14.5732
13.6358
14.4613
6.42025
-26.7322
-40.0865
-38.3319
-28.8061
-34.0785
-35.5307
-22.6088
-15.3959
-7.36
-4.86697
11.0302
34.8274
46.6492
33.0913
4.88388
-1.93847
-3.04252
-12.4739
-21.8354
-17.295
5.3666
12.5403
43.1526
54.4518
-1.31028
-36.9842
-36.3286
-12.8573
9.75046
15.6043
13.9034
12.0732
-1.24652
-4.22481
5.61485
3.73079
10.4441
19.0928
16.8788
9.8501
-1.69273
-4.11812
-30.5228
-59.5746
-30.1337
3.18147
20.6374
53.2006
28.0372
-6.46829
-3.36891
-1.55128
-6.43633
-19.5323
-15.0971
-12.2208
-3.94505
-5.62554
-12.1465
-20.5505
-12.3511
-6.54313
16.161
40.4123
18.1491
4.54129
-26.9568
-44.4738
-1.40984
13.204
9.5121
21.5654
44.8112
51.6336
15.634
-25.5444
-29.8588
-29.547
-21.0551
-6.67148
-12.0637
-15.4765
-22.9137
-17.6439
20.423
62.2818
61.9074
23.9513
-17.2582
-26.0916
-20.7875
-26.6547
-34.473
-15.0521
32.028
51.0468
61.1831
40.5664
-9.39856
-3.10736
2.64527
-24.2508
-45.7538
-51.3741
-37.512
-40.6276
-18.587
1.86231
6.93719
14.5083
7.68996
6.39711
0.69745
2.25563
6.12367
-1.77846
-12.0592
-3.53962
20.3
25.7806
21.782
9.94181
7.43818
9.62416
9.82046
7.77862
-3.85681
-18.6713
2.20205
8.76663
17.5482
32.7977
45.368
18.2071
-31.4566
-54.4149
-56.1148
-29.25
5.3704
16.8077
34.7965
49.1771
-10.3681
-42.6843
-37.3715
-13.5826
-0.107995
-0.0584412
-2.41099
1.97742
23.6236
15.2117
-22.5954
-30.0604
-1.90842
15.5625
23.887
15.6145
-7.39117
-9.31393
-17.4033
-32.1965
1.17733
46.5632
60.7936
19.4151
-8.40764
-7.46344
-9.44164
-12.3854
-25.5072
-25.616
-20.1153
-16.7681
0.593595
-3.98551
-13.8394
-2.76449
29.7631
32.6836
-0.0402774
-24.2092
-5.84534
-5.9525
-18.2665
-9.99016
-12.8767
2.44971
22.4438
0.907556
-2.79589
11.3991
25.145
45.7152
51.2175
44.2798
35.6266
17.8624
-10.783
-27.7221
2.69497
-2.67908
-23.4418
-29.355
-24.8337
-2.08108
0.326958
-15.9041
-27.9179
-14.1297
-8.41981
-6.75742
-9.47326
-14.8487
-21.5173
-9.65456
4.93037
8.16099
6.86345
16.4839
9.80936
7.34094
2.07607
-22.6658
-28.4004
-2.07895
24.392
54.0184
21.4313
-38.4315
-56.8388
-17.4222
27.1741
68.1348
83.1408
18.023
-29.581
-26.4058
-50.6426
-40.5955
0.140729
22.8413
34.3749
22.779
-16.7278
-48.5148
-35.2052
-20.1431
8.39732
40.8172
53.0666
53.9519
49.2007
20.9594
-14.03
-5.56645
-8.73499
-31.6949
-10.7007
12.9477
-3.29252
-18.9853
-30.7758
-29.2254
-9.71108
-6.34618
-17.9871
-22.4162
-23.2026
-13.1414
-10.2248
-8.03927
2.61687
13.3763
18.5719
22.894
21.3145
11.6781
0.475417
-23.2868
-30.0247
-23.0857
0.919993
7.89151
3.89681
23.8921
27.4403
13.104
18.7012
22.3908
12.9754
-1.41274
-14.1146
-7.64283
2.26703
17.0797
22.6437
19.8596
23.7359
0.54955
-18.8436
-15.6154
-12.958
-24.6556
-22.964
-9.03256
5.69946
2.84035
7.18737
15.1677
1.25411
-12.5127
-14.6183
-1.37906
25.3127
19.0563
-6.47431
-4.84649
-35.0077
-25.4005
-6.04578
2.30413
13.3939
22.2331
5.16252
-19.15
-34.3497
-24.2773
-9.22032
0.151765
3.55407
10.9406
17.1977
30.3568
31.5418
12.1845
-14.0164
-60.9521
-52.1047
-35.5856
-12.1943
22.6372
49.7228
55.7265
72.1945
45.0382
-17.9904
-32.2483
-11.2703
8.23784
5.85605
24.8793
1.21804
-27.3782
-37.6736
-34.0281
2.60543
49.8796
46.9633
16.1126
3.52339
-21.4974
-53.9042
-58.5763
-53.8064
-23.0025
20.9669
25.0991
16.1628
12.0549
9.72099
-0.315059
5.5811
6.99472
6.92462
19.6961
26.9895
26.6749
10.46
4.14493
-4.2378
-32.2464
-37.8628
-30.3749
-26.6298
7.25791
39.4377
16.72
14.2441
-3.28805
-15.0325
-17.9881
-9.86623
3.56639
9.86648
15.8357
7.2003
-17.2046
-16.153
5.99004
22.769
22.4799
18.8034
5.57623
-26.3078
-42.2929
-36.5551
-18.8606
-11.2839
-3.44886
0.871313
7.51494
17.7175
19.7467
20.9716
13.2726
-3.23922
-22.0851
-17.4284
-8.67526
3.1713
8.99383
25.9011
12.2104
1.78393
5.61302
23.545
29.9468
10.8672
2.02619
3.77027
0.13617
-6.89483
-12.4661
-10.9401
-2.28608
-14.7455
-5.29092
-13.6506
-15.2924
5.70799
20.8091
34.9159
-23.838
-30.1022
-35.8842
-33.3398
-14.5118
5.95679
13.1562
15.0769
24.6938
-1.33749
-29.0169
-19.0523
0.847953
40.823
62.762
38.1536
-0.711004
-32.7557
-42.4821
-61.6862
-25.8868
-5.25658
10.5988
37.748
43.5061
31.883
36.0977
19.2691
8.89047
17.2146
23.3872
-2.72037
-31.5821
-48.8351
-52.0202
-28.9169
-0.152238
26.4841
39.1894
16.1836
-17.8721
-29.2618
-17.2755
-26.2544
-27.1793
-15.0903
-23.4974
-19.4692
-6.36975
15.3357
35.637
30.6471
37.4983
51.521
48.6095
34.184
26.5449
-2.49624
-33.3989
-27.4838
-2.17494
-6.40463
-12.9005
-31.8623
-47.9042
-39.3916
-25.348
1.51561
38.4969
7.77797
-22.8516
-4.75279
9.62138
9.13517
15.0618
10.0947
-0.241365
2.02495
0.295138
-2.34135
7.67471
9.92399
-3.00364
-9.67794
-2.70025
7.24602
20.1206
6.22443
-11.6074
14.8586
29.838
4.95013
-4.98391
-4.32296
-24.3869
-29.8672
-7.91843
2.4063
-11.9927
-30.399
-12.4937
19.6115
22.2902
17.2948
4.12133
1.00565
2.33647
2.45172
10.7114
27.0441
32.7923
30.8289
1.52272
-49.9071
-43.8978
-17.6504
-7.20313
5.17804
4.96608
8.58422
-1.86897
5.91166
-0.0126436
-7.34743
0.402102
-3.5209
-12.49
-11.9036
-13.8599
2.33048
25.4951
16.5514
-4.35295
-2.4806
28.3258
23.9748
-3.72244
-22.3525
-45.8397
-39.6877
-25.2698
-7.64488
39.6713
47.1693
20.7973
19.8984
1.57415
4.60744
7.73686
2.48409
-19.4854
-20.0446
1.994
8.27594
-3.7522
-1.07605
-13.2613
1.4373
56.7401
68.1588
35.1455
-39.6001
-94.7165
-77.8784
-45.4051
-19.6889
-11.3129
-14.8504
-5.49254
9.54231
34.7572
32.3057
31.7905
29.1182
24.1525
19.4197
15.7953
12.9929
17.3088
-3.46471
-45.3441
-66.4457
-49.7952
-6.99355
22.8692
22.5082
28.8379
23.5116
11.4038
0.358627
16.0129
36.8823
33.4589
12.1276
-9.32475
-14.7993
-15.7606
-19.2961
-33.1847
-26.733
-17.5539
5.2383
16.837
12.7629
-9.7591
-23.478
-3.34888
20.93
30.7531
24.3497
-4.91808
-7.56407
1.17608
-13.2958
-10.4031
-9.13224
-5.70524
-14.9016
-38.3301
-45.7581
-15.5433
1.27456
7.34239
16.4795
23.7392
34.8527
24.7252
-12.1394
-21.1029
-4.20235
11.7688
14.6133
10.8869
-0.316173
-20.6661
-20.3305
3.74004
14.3424
12.7705
-0.96581
-4.76297
4.0701
10.9467
-10.9123
8.34425
22.6906
28.5989
14.4022
-16.4929
-18.8929
-7.74123
-6.17006
5.29104
27.4563
37.1486
34.3188
21.3616
5.49674
-17.1414
-24.8484
-16.2923
-9.63135
-10.353
-2.04837
-25.8355
-27.698
-21.1813
-6.89888
10.875
-4.52469
-27.9454
-23.1653
-19.2915
-16.0766
-10.0634
-8.14151
-13.8277
6.16145
21.603
13.3522
15.107
17.6364
10.6376
18.9128
19.576
11.7308
-6.25482
-18.358
-18.2598
-0.888043
21.2122
22.0691
6.93982
-5.67318
3.01578
13.0807
35.5583
54.7754
37.4741
-5.86105
-36.8795
-25.6779
4.90713
-1.78457
-8.42946
-10.5272
-14.325
-16.4925
-12.4426
-1.99018
3.89221
3.03774
5.04386
8.75433
10.8076
-5.63817
-26.0072
-42.6187
-31.6758
-18.3208
-21.1668
-22.9779
-21.2896
0.0046764
3.70853
0.421469
5.83238
8.57484
10.2036
22.4147
33.4463
34.6224
39.5303
34.8844
27.9649
14.0071
-6.34995
-17.4253
-9.27615
6.29801
21.6573
12.0121
-11.3719
-6.48081
-15.7192
-40.2251
-38.772
-16.5616
-0.571309
7.83034
4.88174
3.5084
2.43231
5.68627
8.30693
-4.41742
6.93753
24.5612
18.9103
6.1002
-17.2759
-36.3013
-60.7324
-55.6938
-8.8246
41.0206
40.4486
38.6981
15.5776
4.05341
3.38984
9.14443
9.7406
2.68446
-6.61672
1.15749
-6.34016
-21.051
-36.2065
-30.8129
-1.20102
10.872
28.3958
38.431
8.26209
-34.5904
-11.8969
-3.20705
5.43915
11.8436
-0.873448
-4.28274
-2.05218
-12.5002
-5.31243
11.59
19.1217
29.5803
36.1781
23.9601
6.27784
-16.4749
-32.9191
-26.759
-7.38464
3.27753
7.4182
-5.36488
-22.0492
-20.5184
-4.34328
3.46141
-7.05859
-2.92777
0.942435
8.4825
19.5633
-1.30857
-34.7647
-33.3736
-12.6438
1.84654
14.5683
20.3441
27.5356
38.2818
1.45528
-24.7273
3.74094
22.6991
17.6199
18.739
18.8421
6.65014
-4.07457
-14.786
-35.3356
-35.5724
-20.3564
-13.5947
-2.96621
12.0607
21.6442
7.25316
-15.7033
-16.6504
3.79979
15.9744
9.51815
15.4844
28.4036
21.2272
17.2501
8.13327
-6.38699
-4.81275
0.0215572
5.85212
19.2158
-5.08829
-69.264
-88.4711
-48.054
15.2333
40.6965
31.7292
27.1022
14.0202
-25.1918
-26.881
-17.938
-3.94371
14.2226
10.2668
8.09916
12.9281
0.805212
-6.32103
9.16514
7.6534
29.9531
30.5359
-4.85983
-18.7008
-28.607
-23.6174
-5.56768
5.40088
22.3512
31.4213
-9.65671
-30.0375
1.61237
-8.3739
0.32456
2.96347
3.83226
-3.08475
-9.00116
10.6857
27.3188
19.4206
-6.92814
-33.2396
-27.4006
-6.00991
8.9383
16.9613
15.6577
-0.055876
8.27221
24.6567
11.6901
22.3121
10.2038
-2.53199
-32.0459
-46.1591
-34.8995
-24.3147
6.57867
35.9417
-0.686874
-13.6303
-0.887959
-5.28934
-20.762
-17.1303
-5.7281
-0.390491
12.0485
33.2695
41.6163
48.6935
39.3747
7.1294
-8.25657
4.06431
7.8358
-6.69901
-29.251
-66.9521
-67.7668
-49.1255
-29.6948
-12.2907
9.37443
21.0928
27.8081
36.3255
41.9974
14.1011
-22.2232
-2.08262
-1.88911
3.00923
9.91738
16.8531
27.3254
26.211
13.9627
7.17897
19.8709
13.5045
-1.23467
-9.24346
3.24848
11.3633
-12.6763
-36.9806
-27.8544
-14.006
-9.23601
-18.9209
-12.9954
-17.3524
-10.1801
8.38717
15.3549
-4.72386
-3.95134
0.903856
8.98792
11.2993
13.6113
-0.65705
-16.8974
-21.8579
-32.6745
-14.5844
13.6017
20.5413
30.7158
38.9037
-4.0224
-23.5517
-23.6238
-18.6909
-2.40055
10.6776
13.389
8.94526
-13.8997
-12.3176
3.10996
11.2812
17.3062
27.9292
11.3463
-9.33108
-6.0516
14.6482
24.2903
-10.1556
-0.711126
24.2805
12.9295
-8.16728
-26.2261
-10.7448
-13.022
-4.04105
24.1209
6.74424
-4.02502
-16.2361
-33.4176
-28.8898
3.1007
34.1937
16.7466
0.588967
-3.09448
-14.5465
-32.7777
-22.266
-0.426638
2.30681
32.9576
63.6756
14.445
-23.8279
-29.3598
-13.335
-12.4292
10.2836
13.3548
-0.215556
3.7398
7.65234
-14.0756
-49.7457
-45.4967
18.9248
76.7735
55.7959
5.24082
-16.9868
-31.0741
-40.2405
24.952
39.0208
-13.1713
-22.8377
-15.6406
-15.4943
-5.2236
-11.6479
-11.5191
2.06965
22.145
51.6399
45.1365
19.5906
-15.5748
-18.1067
-3.53809
5.16636
-0.452437
-29.1488
-63.8235
-58.9487
17.3423
53.8258
38.2405
8.26607
-23.7387
-49.1506
-25.703
1.29459
20.0094
40.0679
43.9496
12.8051
-4.70157
-9.54115
5.85153
32.8596
5.21374
-25.3099
-18.0966
-13.0156
-13.6574
-23.6658
-10.5082
-0.605958
25.2986
44.5188
28.3296
21.9806
14.2059
-8.8797
-27.6186
-20.8807
-2.37242
20.335
18.8968
-16.6759
-32.6412
-19.6217
-10.8424
12.582
35.9894
-6.06666
-47.3981
-32.2153
-14.3791
-7.19662
-13.1863
-21.7057
-9.10873
11.9848
39.805
39.052
20.6657
9.50118
-13.3579
-16.3284
-0.016688
-9.42424
-18.9394
-26.9206
-25.7642
-1.19105
29.3298
32.3215
36.9797
38.0964
22.6066
34.3779
46.0942
9.26395
-65.8562
-59.2259
-36.4943
-13.9873
35.6206
29.6581
11.3041
-5.27512
-27.7636
-27.2548
-27.5685
-9.40473
4.50374
-4.89469
-14.4519
3.575
20.8798
19.3342
11.7328
20.9009
27.4273
20.1216
25.9102
-3.45141
-64.1558
-30.4048
6.38938
55.8714
82.4336
-18.8336
-73.8417
-48.3168
-5.51741
44.4654
47.5298
-15.5341
-47.5478
-40.1848
-22.2625
-0.708062
38.2331
25.5865
-15.1051
-7.31098
12.731
10.1622
0.763301
-19.9548
-49.1883
-32.866
-17.9591
-18.6141
-19.5762
-26.1493
-9.61544
18.9945
21.1478
12.016
19.6181
44.3359
64.7157
37.1808
1.23915
12.5619
14.5349
6.75641
32.0609
17.0948
-2.71292
15.4492
13.4684
-17.4961
-30.6471
-46.433
-32.4569
7.19955
12.3862
-6.65324
-13.6637
-16.2183
-17.1646
-3.7962
6.85409
4.34938
0.54671
-5.52355
-18.3903
-29.9156
-24.8663
2.55579
4.80102
4.83489
20.5314
16.9664
-2.56998
-8.60585
-1.09443
13.3638
38.786
49.1831
19.9399
5.13022
-16.3554
-4.11769
-16.728
-62.1114
-59.8397
-19.7649
18.6583
40.3821
25.6519
0.455306
-1.54236
11.2359
19.8962
16.9382
-0.246935
-31.539
-42.2425
-26.7798
-10.9483
2.62611
22.0233
21.0821
39.9746
50.9717
36.8147
17.0752
-16.7503
-47.1215
-44.3665
-28.3691
-17.3955
-9.48954
11.4771
25.8654
27.4193
13.5786
-6.49025
-19.6002
-8.32667
17.7112
37.0835
-4.20494
-26.9459
-13.6674
-4.08245
-0.803448
-6.00887
3.91283
15.8947
9.58062
-10.2375
-28.7412
-42.5132
-29.8628
9.64822
44.9137
46.2187
23.6472
3.54406
-11.2421
-10.0566
8.27651
4.95127
-8.56311
-11.6337
-18.0844
-27.8648
-25.9482
-13.6812
20.3483
55.9632
41.7856
3.98383
-51.2784
-53.8644
-7.70884
6.04654
-0.202918
5.9636
14.2819
17.709
19.1738
10.1211
23.9367
45.3645
39.0885
16.8386
-38.5063
-54.1896
-65.7389
-87.1435
-38.7472
4.47606
40.7466
37.1951
20.9904
23.3776
28.0392
30.4412
21.1437
-0.437877
-12.5284
-3.58382
0.036052
-3.40408
-2.34314
4.90886
38.6023
41.7073
-4.70936
-37.1176
-54.6383
-24.8282
2.95634
-0.966917
-11.0632
-9.03939
0.181922
7.0821
7.04623
3.96729
-0.979445
-2.77365
-16.2076
-21.7144
-9.16364
11.444
-6.39213
-25.7604
5.10144
31.5376
22.1166
17.0043
14.9523
-1.37626
-7.40075
-0.4175
-6.43439
-5.98558
2.05255
4.82589
-1.83208
-9.43405
-11.3885
-10.1714
-6.00399
-10.6716
1.22312
-0.251368
0.928177
24.2245
36.9287
43.9274
18.5654
3.27434
-13.3882
-20.0487
-8.89413
9.37246
-3.16503
-30.5215
-64.1419
-47.0422
8.87018
12.797
35.6653
49.8513
11.2689
1.92579
0.374765
3.27666
9.73118
-13.7802
-17.3017
-15.3203
5.00889
25.6119
-0.821168
-11.1995
3.71987
10.8275
34.2073
33.1677
18.0615
31.8637
-43.2029
-101.399
-46.7854
-10.7358
-38.1841
-47.057
-32.7551
10.2983
50.1918
36.9868
11.8882
8.16936
20.5343
23.9272
15.2538
16.1264
25.6202
23.7133
2.69825
-19.9632
-3.79764
11.8985
-1.58285
-14.066
10.0798
16.9803
-8.61289
-45.2031
-18.7212
5.77892
11.0316
-12.4623
-31.4718
-14.2014
-6.3778
16.77
34.6644
7.67199
-23.0679
-7.64644
9.85665
0.639336
-2.92731
-10.6283
0.725739
15.0805
14.909
8.22687
-8.14285
-12.7194
-15.5714
7.52491
28.4296
25.1047
34.2021
2.54089
-12.6902
-2.08346
-11.6908
-19.397
4.15559
22.4811
9.01805
-1.20581
-20.0836
-40.1349
-28.3828
-14.7448
-15.2736
-9.54957
-11.3399
-4.8307
10.9551
19.6303
17.1872
22.8888
19.6082
17.7434
10.2586
-11.1991
-20.9372
-24.5389
-10.5657
-24.026
-19.5809
7.31172
15.6053
18.2501
29.9064
22.9339
5.45296
8.964
16.3496
17.5309
11.0673
-9.18214
-34.8413
-23.0525
2.47946
11.8432
-4.94915
-14.3986
-11.7246
-16.5594
-21.0471
-19.1151
-5.49986
11.0334
30.04
21.5269
14.6571
-8.7473
-8.14317
-2.94502
9.09397
20.7744
29.669
21.1958
1.49218
-4.09184
4.96176
-9.54127
-20.8215
-34.0021
-12.2698
5.30208
9.96113
-2.52349
-28.065
-28.6255
-21.2464
4.20814
11.5226
15.2125
17.7907
14.4427
11.3336
-0.484785
-6.73981
-17.8127
-12.4682
-22.5237
-17.4983
21.91
48.1092
38.184
1.2638
-11.3239
3.7708
19.1526
25.4078
18.4163
-4.49537
-3.93352
-35.947
-59.6198
-42.3125
-9.89095
23.2961
32.688
19.6753
-10.0357
-21.1552
-24.7265
-35.8797
-28.1924
4.89248
16.0925
7.86722
19.0517
31.7362
28.8893
18.1171
1.79711
16.259
28.1202
12.7649
11.9479
-2.1298
-8.67189
-12.2096
-5.31036
0.754074
-5.5953
-13.2739
-13.9352
-11.4316
-10.9901
-15.9551
-24.8959
-31.6246
