7.00028
-12.5149
-34.4265
31.8215
65.7515
-8.63707
-44.3463
-40.325
-44.1005
-53.3041
-48.7721
-74.105
-56.6349
18.1836
46.4578
32.7308
13.7977
6.46845
15.5395
29.2109
34.3165
69.0825
58.8429
-6.48038
-0.661242
-4.16782
-3.85515
5.51857
25.1548
26.4714
3.00236
-11.083
10.5569
56.0769
-14.867
-66.6093
-64.2841
-45.2173
-23.2049
-21.6454
-56.4398
-27.033
26.4088
26.2308
13.0761
22.2661
21.9566
-10.0864
-11.3206
-13.0403
-0.123371
73.1783
130.863
59.1581
-12.2785
-26.7776
-17.0197
-20.2432
-18.7643
-16.6152
-32.8487
-45.378
-9.42272
-1.34056
-10.6872
-25.2395
-14.3696
3.08555
11.5819
42.8802
18.4912
-4.03982
22.6282
32.0073
13.4806
-20.1565
-33.856
-24.1948
-22.2627
-26.2344
-41.8128
-62.9288
15.3726
42.2393
57.3646
42.0758
8.00355
-16.0693
-27.7382
-66.0607
-41.5852
59.4584
54.5082
40.1111
19.2176
13.1221
7.35557
10.2545
-19.7197
-27.92
51.7271
40.7392
-46.5821
-26.2524
-13.6978
-23.3407
-0.454407
-3.0561
-29.7725
16.718
84.3834
37.931
-18.2516
-29.109
-21.1534
-18.1767
-16.9465
-33.148
-58.8293
16.5803
17.3249
58.7829
26.3324
11.7967
4.28232
1.04101
-2.45255
-28.7476
-47.9355
-12.6385
-2.755
-4.6553
0.477886
1.02257
-11.2845
-13.2798
-17.9148
-31.961
64.005
76.5156
65.5307
37.4207
30.3471
7.21461
-14.679
-35.9583
-64.2337
-13.3016
39.0561
11.9789
-24.792
-48.3879
-80.9242
-86.4754
-37.8495
13.9781
23.8534
49.1547
81.1775
84.0258
77.1979
20.4437
-31.91
-37.0247
-10.1265
12.742
-19.2682
-41.6046
-1.10625
46.8089
9.70768
-18.1171
-15.8707
-13.2454
-16.9891
-21.3576
-28.1505
-53.8409
-18.2057
-9.90044
-18.5362
-2.58437
2.72138
5.56922
22.1501
17.3522
17.331
75.8986
60.643
4.87821
-2.56711
-5.93611
-12.8817
-14.3386
-49.4757
-67.6674
27.5316
84.2833
29.5735
-6.35391
-20.9321
-16.133
3.02085
-32.3357
-61.4707
-5.73819
110.392
71.6207
18.0793
2.78491
7.30743
-5.58731
-11.3361
16.6124
18.4912
-3.05914
25.5451
33.9902
-10.2829
-55.0731
-53.7939
-50.1454
-46.4418
-23.0143
-24.4912
-57.7515
-32.8546
5.02387
-1.42024
-0.153514
-6.80542
6.31572
10.5909
-21.4778
-51.7613
16.2649
24.6578
2.54439
-10.6172
-5.33446
35.7411
48.9226
27.7287
35.4568
88.656
108.487
79.4521
33.6814
7.83236
-21.2769
-33.5511
-37.7874
-27.2473
-43.3301
-11.3938
40.6963
-11.7636
-30.1301
-39.1645
-46.0593
-41.786
-34.9232
-14.2435
19.3514
-8.44952
-4.27572
15.2675
-1.17664
-2.96601
4.34695
5.00517
3.62254
10.753
30.3697
11.9326
-77.2702
-30.2033
-18.3254
-4.30107
25.8747
29.6597
3.21479
11.3881
-10.9933
-10.5393
28.0743
3.7853
6.90314
29.6827
36.1463
33.4982
27.1125
-4.45662
37.328
62.0922
18.6826
-33.3526
-36.266
-41.1882
-51.7771
-48.7791
-62.6625
-50.4762
55.4415
56.6878
38.3143
13.4326
6.05734
-2.33938
-8.45772
-15.905
-39.9839
-21.8886
-9.32462
5.37499
-8.02288
-35.1062
-19.4835
7.46761
9.23866
2.27634
1.40388
-24.6852
38.8034
70.3231
17.6344
-17.7278
-15.4958
-15.9811
-10.7469
-27.21
-19.2676
47.8768
33.9609
36.8907
69.3176
44.4727
11.2113
-10.2129
-50.1422
-66.0612
11.392
91.282
12.6956
-26.2449
-42.7225
-38.8452
-23.0314
-12.3623
-13.8773
-41.2556
-6.25489
37.9235
20.6438
-1.53769
-19.0418
-30.5351
-27.2433
-21.4081
-4.23669
-32.735
-60.1036
-15.0265
12.8408
9.56598
30.7061
65.0011
59.7521
41.963
43.5759
58.4676
-4.92287
-20.9325
18.5924
34.4441
10.3387
0.98444
14.1877
14.4286
-10.5198
-49.0439
4.05611
18.3675
-41.6235
-41.7585
-27.0623
-29.3662
-23.0503
-23.4637
-38.7439
8.37346
58.9065
4.4083
-28.4602
-21.7573
-17.4987
-29.6473
-40.2271
-49.4984
-11.1037
90.2502
76.309
16.95
-5.32639
-2.24087
10.2401
-1.24297
-27.0897
-30.4015
4.65229
71.2023
69.0915
20.0314
-6.76277
-23.5341
-30.7666
-28.4986
-43.469
-72.6507
12.7995
138.097
120.125
52.5974
26.8395
17.941
5.03601
-5.02103
-34.6966
-69.7059
-31.3516
-37.8301
-37.6138
-22.1009
-20.0996
-18.9252
-21.5002
-33.5756
-45.2022
-12.1325
33.2472
-1.12996
-24.3358
-27.7541
-23.9952
-21.9202
-1.20976
34.0003
12.0213
21.1187
67.4013
56.7043
57.3028
40.4544
7.00857
-1.17717
-2.65965
-2.86432
-3.85095
5.30548
9.12489
17.1858
15.1201
-4.35576
-16.2724
-15.8114
-4.62927
-11.5229
23.0585
-0.427834
-90.5126
-44.7129
-9.73642
-14.2845
-10.4436
2.12038
6.65835
11.2595
31.0531
9.69745
-30.4161
-23.0833
-31.7314
-31.3865
-10.8726
13.785
33.9033
37.2873
26.6277
82.1866
133.564
62.6909
12.2185
-24.9821
-44.4085
-59.5224
-67.9839
-93.0283
3.75881
78.3588
13.6525
-50.0824
-38.5801
-14.144
-5.38324
-13.2742
-63.4421
-62.9336
-8.54245
62.1166
23.6558
-17.3907
-26.3206
6.58779
26.9538
23.6798
8.84734
13.3769
30.467
47.2947
34.7819
15.4955
20.5312
8.609
-9.0522
-5.71118
1.61893
27.4065
40.7218
-8.55036
-12.3251
-6.76762
-28.0106
-45.1842
-71.2875
-16.2489
29.8868
42.4493
6.21347
-1.53052
2.00984
-9.23843
-20.5917
-39.3005
9.59031
39.106
41.2812
34.5402
17.0585
-24.6239
-39.656
-73.2528
-23.4782
2.94873
18.6721
-17.1125
-28.4546
-6.2236
-15.999
-38.1146
-80.5206
11.4531
104.663
94.1043
36.45
-8.37943
-9.11593
-17.0929
-18.625
-32.7283
-34.4129
11.7829
14.2699
19.2715
43.4762
45.9673
32.6618
-11.8097
-67.5966
29.8382
128.182
50.0698
-25.1838
-21.0384
-16.455
-11.8358
-31.1432
-23.3648
12.6786
13.6709
-4.02516
-22.4764
-36.067
-26.5543
-46.9637
-44.0117
-4.92484
8.47727
5.52427
-39.9608
-48.4817
-44.4352
-67.7054
10.516
55.1299
75.0568
76.7913
38.8316
8.41185
15.9118
4.82425
-51.4064
-8.00943
59.0768
84.1751
55.3611
5.03481
1.39612
19.1741
-34.2184
-73.478
-66.8456
31.6246
31.2947
9.79935
-3.33455
5.40749
1.94386
-2.15947
-44.0044
-32.1206
73.7492
31.6375
-25.0453
-24.8708
-20.1757
-37.1367
-66.3498
-64.6032
-10.7864
5.88529
5.76869
-7.93779
-13.3578
-1.29744
-18.241
-5.0192
24.3356
33.1046
62.5248
41.3715
26.7657
32.7503
-11.0312
-29.5888
-7.89868
17.2528
36.4506
28.13
3.39584
-0.568001
2.16594
-15.3549
-64.74
-10.9278
24.2101
24.0851
25.5756
13.9353
-7.49606
5.90953
-30.2467
-52.8311
-13.1292
-6.99941
-17.0148
-11.6907
14.2344
8.8906
-47.982
-7.0111
78.6421
67.2205
48.4548
-7.90499
-15.5376
-7.31854
-46.1812
-40.9599
-5.59089
-5.3938
9.77214
15.909
4.08622
9.57162
-23.6351
5.36579
18.3974
4.30147
16.2296
-3.57878
-48.9676
-70.5798
-86.6273
-50.6601
31.2312
51.0541
63.8904
66.7335
45.9168
27.4356
1.64775
-42.9104
-47.0269
18.8559
16.0385
-26.746
-39.3345
-12.7201
32.7349
48.4476
3.81915
-15.3416
82.5207
92.2539
41.8695
5.60825
-30.557
-42.22
-55.3751
-106.676
-47.9184
13.8498
20.5558
1.44039
21.8203
18.8671
6.1044
-35.3006
-27.5965
-3.78636
-17.2365
-3.07333
-23.597
-41.1971
-48.8062
-63.4744
-14.3526
22.9829
59.0478
107.949
70.1132
34.3439
12.56
-60.6458
-54.4042
32.552
48.362
52.1489
35.8332
1.13219
-4.49718
11.1972
-24.5202
-96.1214
-37.7919
37.5559
35.1115
25.6247
42.8265
45.2984
-5.06499
-27.0664
-61.286
-26.7716
58.8265
0.299201
-14.2533
6.34234
-13.0982
-32.6128
-29.5019
-55.3731
-22.5594
49.0694
-2.00589
-22.9738
7.00789
26.5305
12.3472
-4.70745
-44.5817
-42.065
4.39688
60.8533
-3.29313
-25.2842
-24.9194
-14.34
1.72882
11.5084
4.21356
7.26055
44.7408
46.1399
29.6004
24.7702
15.5765
-8.34081
-30.72
-31.6653
3.9915
-29.6748
-49.984
-1.74224
54.0363
43.9653
28.6893
-4.02328
-35.6527
-30.825
-5.04911
21.6587
-14.8932
-3.80155
53.0239
39.9576
6.94295
-15.3304
-12.6461
-4.8857
4.12434
-3.00365
37.4855
24.3217
-40.3161
-50.8137
-38.9251
-27.2827
-15.5081
-27.1001
-66.3113
-22.8999
52.6279
26.8927
-22.3387
-7.94841
22.7267
40.9655
20.1156
-36.9724
4.10665
86.7267
68.6744
3.75811
-30.3662
-31.8189
-31.587
-17.7516
-29.0316
-29.1175
72.3698
76.1707
24.6782
12.0278
-2.67251
-14.578
-11.5667
-6.11942
-1.02895
-7.14749
-78.2545
-44.6936
29.8623
5.17085
-0.00516591
3.25663
5.38595
11.487
27.9129
5.05547
-28.6852
16.7377
21.2549
26.616
3.38623
-11.3636
-12.9565
-16.2314
-28.4758
-26.9313
-13.6389
25.5163
-13.816
-26.0757
-18.4833
-6.94649
-6.46954
-5.12008
22.9333
46.446
7.98113
19.5943
12.2511
-23.6617
-18.1802
-9.80467
1.7018
18.6544
27.4167
5.4772
20.7475
9.86477
15.615
5.8036
8.2002
6.21916
-14.1548
-29.9085
-35.6663
-22.708
-25.671
-70.6361
-16.8709
6.39712
20.9702
31.1834
36.0228
41.6232
51.9498
34.9588
26.6498
21.9232
-5.66846
-14.1288
-21.5224
-20.2919
-10.0343
-18.8729
-57.7039
-57.2834
23.5671
21.2801
-18.4165
-12.6072
0.403277
3.53181
-9.09389
-50.0629
-39.9262
76.6061
83.8333
7.38691
-28.5752
-13.8504
-17.596
-34.8601
-59.6941
-71.102
28.2112
97.7197
80.2572
72.3074
47.7582
32.0555
15.5657
0.200807
-16.8009
-33.7695
-43.7329
-16.2846
29.5105
3.53514
-1.75174
2.93669
2.44969
1.71743
-14.7256
-41.3508
-31.9854
-14.5366
-31.8846
-21.2678
1.7612
-18.1793
-31.8271
-18.0838
-52.8585
8.45287
82.5355
46.3988
17.1829
10.6347
0.755177
-12.3391
-9.48905
2.26212
11.8547
-1.88795
-13.9353
-0.286415
13.3138
-6.70106
-32.2339
-13.0042
3.95614
15.9062
44.0825
21.3827
32.1912
41.507
3.99684
-19.943
-22.5942
-25.4335
-7.62464
11.4316
29.1902
29.1945
-31.8499
-34.7796
43.037
47.7043
16.8075
1.52119
-0.867136
-9.286
-13.0374
-41.9769
-51.2983
-26.1909
-17.9131
-17.9565
-16.8509
3.06005
1.59028
-43.3724
-84.6492
48.0114
122.093
69.1115
-27.3003
-55.7147
-51.2797
-41.1167
-23.2983
-0.41467
75.0799
123.148
52.6406
-19.3389
-26.4081
-19.0062
-24.3342
-34.3387
-39.9965
17.5249
92.9439
55.6049
25.8662
25.6482
-9.04883
-35.9513
-8.4197
23.4018
-9.48989
-69.5019
-56.7552
-2.47459
2.58175
-5.89491
5.76115
16.1565
7.77529
2.03445
-18.7536
-44.0155
-20.5117
-6.64212
-39.1386
-53.5476
-26.7316
9.02194
6.8929
-25.9556
-36.8291
61.0954
93.5103
60.8406
49.3229
52.2505
47.8638
35.1999
29.7209
20.0683
3.90068
-11.6471
-22.5565
0.571211
-9.90095
-30.685
-36.4681
-26.7926
-6.4791
2.47881
-32.6744
-102.08
-40.5508
-7.18971
6.22487
20.1998
20.4897
17.2359
9.27198
17.3925
42.1024
-7.28673
-61.199
-31.7751
20.5431
24.2691
12.3779
7.08536
8.11081
4.24579
31.6102
37.7774
-64.7217
-17.1241
18.1722
3.72629
-3.78021
-6.97551
-2.14296
-1.22634
-33.9614
-41.8414
57.4587
23.9056
-39.0133
-33.0956
-9.97283
6.13874
17.3869
-12.9327
-11.7141
87.2779
90.1772
20.8344
-14.8906
-17.7349
-12.2809
-8.93086
-48.7638
-54.0449
43.6107
118.379
53.0295
-8.93961
-18.2401
-37.5314
-48.1547
-50.368
-73.3856
-66.5666
23.9175
96.487
90.5624
26.2869
-15.088
-20.5812
-17.234
-14.6522
-4.50725
-38.9264
-60.5433
6.56847
19.9304
-5.11125
-14.0835
-11.6468
-16.3261
-20.3688
-27.5822
-16.5608
-8.55687
19.9519
43.1058
49.5368
52.2439
35.5871
9.26225
7.4635
31.0011
24.7456
-6.90901
-37.9561
8.70252
5.2806
3.73271
14.0546
21.6543
10.3886
11.5865
-14.2712
-49.1321
-64.6011
-41.2189
-42.9099
-28.1829
-10.5387
-7.43846
-2.67145
11.1505
13.7793
-24.7104
-24.2082
1.68819
6.20984
6.05552
6.92837
21.5259
37.719
42.2878
40.1652
43.2108
26.3026
7.55439
0.0973039
11.1931
14.2092
16.3728
11.0959
-36.5051
-46.207
50.2136
42.5893
-39.1457
-44.85
-38.4502
-39.6373
-32.4456
-53.3216
-60.8996
74.41
90.8837
13.4191
-24.6819
-13.5713
-7.83483
-7.60657
-42.8087
-43.4974
51.8556
83.128
47.8707
15.8394
-23.6095
-38.4185
-35.602
-20.9519
-36.7093
-19.9756
44.4543
24.4307
-0.130008
-29.3959
-33.5576
-6.55402
26.5338
53.2426
57.2809
25.9158
-10.9452
32.5216
33.3649
-1.90647
-36.196
-54.3731
-34.1626
-4.92992
-4.15763
-32.9575
-29.5627
58.1388
39.2671
1.72392
-15.7083
-16.9041
-34.0125
-52.1803
-13.9545
-9.80251
-57.0033
-32.8356
46.6693
52.441
50.8587
48.2124
24.2715
7.89275
10.5833
6.12444
28.1333
8.994
0.287758
-5.85819
-5.00691
-6.07838
-12.4295
-1.42594
-25.2795
-65.7374
11.5185
77.2873
9.01634
1.80497
23.406
11.1695
-0.120247
1.29504
-1.24197
-47.9207
-21.9542
-22.5724
-16.2102
-14.46
-6.79957
6.00088
14.8386
-11.4638
-59.3869
27.0883
70.8714
-3.60995
-38.6484
-39.1732
-24.5038
-2.03905
-14.9042
-51.0951
-24.1222
89.1829
56.2976
-0.411878
5.73705
20.6936
12.6827
-5.29352
-35.2225
4.18064
78.2592
77.0666
17.8371
-17.7222
-18.0522
1.09548
-2.34654
-41.0455
-67.0105
-17.0421
56.7787
40.1385
14.5648
-20.3941
-25.8082
-4.5122
12.8158
-12.0872
-41.4233
-33.1752
33.2931
25.5028
7.71795
2.27489
-11.7865
-17.5642
-39.3613
-44.8167
20.9096
45.6642
2.8681
8.37642
4.01077
-4.23716
-2.27337
-15.6473
-42.3239
-11.3293
66.0076
42.2924
3.05405
-1.63853
-18.9445
-25.4564
-50.2703
-58.328
-4.41292
39.3018
33.216
7.20292
-5.95901
-10.4528
-28.3367
-34.934
25.5176
40.1495
63.0714
66.7313
54.341
41.3595
-2.60675
-32.6493
-79.8828
-59.8872
44.0467
40.2208
8.60474
13.4168
-2.05437
-22.746
-36.4919
-63.2456
26.7525
33.5004
-5.28227
-7.43078
9.26984
12.877
-8.91665
7.65644
13.5323
-1.29471
10.1665
4.80966
-30.2643
-28.0257
-61.2717
-29.0408
-5.59938
-12.2624
-9.02155
20.3162
-2.673
-31.2159
-81.7134
-14.7409
34.2272
36.9476
40.3479
28.2527
22.7804
39.0786
15.526
46.8062
40.423
32.6859
46.2561
12.3177
-22.7251
-21.0994
-12.2169
-32.5009
-23.3891
22.7976
33.368
-16.6902
-35.3303
-24.3061
-17.7511
-43.0382
-81.0506
-61.6048
49.2715
61.8652
30.6158
-3.58688
-13.064
-9.4384
-13.5412
-68.0758
-18.2872
57.2172
19.8106
14.7697
47.838
37.7169
22.0273
0.982415
1.33708
40.3481
38.5903
20.0225
-31.6577
-75.0004
-67.0573
-46.1657
-20.8547
18.2343
32.894
57.04
25.9349
-3.49342
-22.5963
-55.4822
-18.3057
2.11857
-20.0882
-10.317
9.64085
1.62486
4.08589
4.40077
-44.8622
-47.686
46.3341
69.6359
52.027
38.9058
50.4931
47.9648
1.46768
-67.3616
-14.0239
44.6864
0.00151349
-33.2356
-32.8763
-22.2001
-13.3518
-41.2851
12.8374
38.0706
45.4002
9.7407
-56.4868
-47.0534
-32.3633
-65.4214
-23.9641
-9.52227
1.68333
33.7609
8.14784
-5.27444
-25.1082
-51.7301
-19.4414
68.2591
92.1919
93.5128
61.0103
30.3849
27.9477
23.7254
-29.0304
-25.7446
-1.55867
-6.68109
-39.9898
-39.9142
-27.9482
-8.62746
-19.8537
-56.2534
-60.1064
31.1143
65.4024
33.0064
12.6892
13.0205
14.7176
11.361
1.46539
48.9881
67.6085
30.8862
-15.4291
-39.0878
-71.2594
-73.9267
-72.5486
-19.8394
-10.375
8.17005
29.9213
3.25507
-10.7043
-37.2304
-30.1045
15.6006
-4.09134
-15.3667
-6.23976
-35.3662
-33.8494
-42.6164
-18.804
74.4823
74.6592
70.3049
84.7636
64.4909
31.6541
-1.21833
-22.2647
50.0791
42.4498
40.3814
33.5388
2.31875
-13.9529
-15.213
-31.734
-94.7885
-18.5227
20.8585
1.91336
-42.5287
-50.2698
-45.7922
-38.8346
-64.622
-70.8408
28.3995
64.1038
7.46537
-5.87515
-5.76126
-7.19896
-24.1388
-34.5399
18.386
72.5241
78.6382
15.891
-7.23091
-20.388
-34.0514
-18.3145
-9.9172
34.8116
68.0097
60.6953
27.1783
22.9548
-13.9739
-33.5672
-70.3486
-29.2005
25.5408
31.7871
-25.1112
-32.1176
2.95211
-19.4411
-31.9816
15.3434
76.5692
57.6768
56.3129
20.4773
-11.8177
-20.9478
-40.1178
-45.744
-43.3161
-18.2285
4.97643
-9.68444
-20.8068
-5.84896
-5.42812
-15.4664
-39.8356
-13.0787
26.5952
-8.58788
-54.5151
-50.2921
-41.7951
-28.0495
-17.7992
51.0137
127.285
139.132
110.344
61.1351
34.3432
9.91949
-33.6116
-18.4075
7.21993
3.70909
11.0565
-4.43479
-8.95725
-25.5426
-89.0081
-35.4184
-18.8769
-34.4739
-26.165
-30.0125
-52.0629
-54.9944
-77.9423
-7.56351
20.3161
18.1175
28.6716
28.9962
28.0886
44.2475
36.1976
-41.5327
1.25906
70.2244
89.7
57.1353
28.2132
3.25895
15.8776
18.2133
-47.0768
-70.5369
23.1496
12.3719
6.81746
13.9337
17.4059
0.853055
-34.6207
-94.1199
-48.4451
22.281
14.421
-11.1232
-1.87104
-19.0028
-19.8274
-51.191
-46.5927
0.856983
11.0559
26.7987
-5.50675
-26.0188
-24.0295
-35.4507
7.34617
37.892
41.8329
65.1028
54.4198
51.5905
12.9503
-53.7238
-63.4028
-7.05875
54.6673
77.2827
56.2785
2.98106
-2.43336
-1.79919
-11.9342
-43.2631
-8.09369
18.528
-8.13658
-17.9868
-7.76966
8.63863
-1.37388
-32.4622
-11.7438
16.9081
12.9404
-33.0397
-63.0353
-43.2618
-51.6166
-89.1065
-3.25208
46.8136
40.2435
41.86
25.7207
26.3855
35.5809
15.3427
51.7522
40.7164
10.6688
7.26665
-17.4685
-18.8508
-14.2913
-59.028
-53.3133
-13.93
12.8702
31.1507
6.46584
2.84979
2.86882
5.29115
-31.6723
-35.9287
38.485
85.1871
27.3647
0.47475
-5.79753
-4.476
-12.0661
-29.1308
-55.2893
-1.35341
38.8462
13.9911
7.65867
12.34
-10.3458
-21.1968
-33.12
-55.3397
20.278
41.8503
8.61229
-16.6377
-25.0322
-7.58015
-8.21113
-60.7146
-8.41015
62.3444
70.2666
39.3916
-6.69677
-19.1457
-24.5808
-42.7459
23.526
31.4777
21.0717
38.912
22.6767
15.5667
-16.2054
-37.8214
1.99658
-10.4422
-9.50068
21.5498
-3.7901
-26.715
-17.0127
-62.7808
-61.2628
8.08501
74.1125
58.1012
-21.7619
-30.3586
-16.0034
7.97598
-10.5237
-2.97261
26.3938
20.9032
-10.0441
0.424167
22.304
36.3414
-13.1561
-8.69436
24.932
38.0758
18.4455
-20.3312
-39.0917
-21.0305
-53.7095
-73.5887
-37.3509
53.8963
67.885
47.8012
11.6362
6.11764
6.58843
-2.12359
-44.9658
9.22111
24.1063
0.241882
-21.003
-12.078
-12.1084
-38.4009
-72.015
14.6588
32.2364
37.5757
28.4458
-13.6119
-25.0173
-39.5395
-59.736
-37.7955
46.3043
59.2812
67.7462
51.7637
52.7455
40.0221
30.8375
2.22694
-10.6867
19.4757
5.14031
-21.7482
-1.3747
-10.5045
-33.0124
-79.1462
-52.6422
1.34269
17.9383
19.0259
-31.2623
-25.0209
-16.4375
-83.3975
-64.3017
-4.84254
1.15862
16.1775
21.5442
7.02616
15.3295
-27.8123
7.21719
43.9772
40.951
41.5714
44.2998
34.8745
37.2626
4.6147
-42.8182
19.1122
48.5545
41.0039
17.8771
-21.7282
-32.9842
-26.9131
-29.1223
-90.3627
-58.9926
31.7286
75.1918
55.2697
37.9986
25.6665
-0.0213733
-15.9269
2.6515
15.9604
-34.0637
-71.4806
-26.6246
-21.0596
-23.9051
-24.6377
-15.5485
-10.9566
-11.1598
-16.8554
-31.3628
-5.60839
-18.198
-8.75491
1.06815
6.55082
21.1022
32.5496
16.5632
65.6932
84.4021
34.4922
-9.26429
11.0199
21.1177
-25.3793
-68.8947
14.4593
37.3202
44.2413
40.5181
-8.80799
-42.1241
-36.2848
-46.936
-2.25993
8.68624
5.37022
11.472
-15.0131
-16.533
-28.9592
-31.3012
-65.6689
-67.1761
35.5216
84.1914
43.4152
22.0703
39.3319
49.0475
9.44484
-45.0933
25.582
56.5521
12.0823
-31.0117
-50.7007
-43.4177
-50.9625
-33.2213
20.9101
6.73905
24.6593
33.2338
0.491089
-12.0056
-62.3657
-62.408
-25.9471
-16.9877
5.96505
48.2473
18.8098
2.98296
-23.1307
8.65885
46.7905
37.4453
44.147
50.9655
22.7258
8.61782
-14.8921
-22.7004
19.7417
20.9221
15.539
-7.94596
-19.975
-12.9204
-10.71
-27.3441
-92.0075
-23.0578
29.4804
12.0463
-16.6788
-8.51766
-0.710735
5.57603
-4.25847
-17.6125
-27.3873
8.54088
44.033
44.8346
25.4027
9.02386
9.49498
4.72819
-29.403
-83.141
6.7513
42.0934
16.518
15.5254
22.6637
31.2871
18.8386
-27.4548
-10.7592
23.9961
41.3832
9.78514
-55.8488
-61.2621
-55.9802
-63.0506
-15.3428
1.51519
-3.18625
23.0257
-2.14642
-45.1574
-46.2724
-76.8667
-7.68021
29.1276
76.2541
88.4361
58.0183
44.8293
55.0368
43.0027
-3.03716
-30.4585
47.8466
47.5042
-18.6959
-42.8742
-21.7693
12.7462
-14.7124
-31.0363
39.616
63.7432
0.89868
-28.664
-33.2535
-16.6743
-62.8855
-45.5113
-15.9442
-19.999
-7.66061
23.041
-16.9383
-25.3931
-64.3066
-55.1611
29.1857
53.6591
45.344
27.6609
-8.37226
-0.373528
6.28016
7.5221
-40.6331
-3.99933
82.7573
46.5915
23.5317
19.4207
-6.2829
-12.9
-50.3862
-70.5623
-16.1482
57.7017
38.1735
20.2413
19.8298
8.88206
-14.2109
-13.6585
-33.2264
19.3428
35.631
9.26651
-17.8333
-24.0234
-32.0637
-28.3476
-46.1877
-12.3885
6.45155
27.1784
27.2554
-7.83623
-20.7847
-33.4775
-49.7715
-13.9144
30.9206
41.184
55.2546
33.0224
36.7372
19.6469
-29.9743
44.0925
30.5729
-3.98282
-7.13665
-29.9921
-19.4476
-23.9437
-27.3965
15.9606
5.16583
-1.07408
11.6019
-2.40751
-27.5888
-77.1645
-82.8813
-42.7935
53.4302
63.8933
52.8698
-8.04549
-1.10884
26.115
42.8892
-11.5341
-21.6837
50.6781
51.3638
15.252
17.9441
25.669
5.75461
-66.5327
-98.4644
22.4582
35.697
8.71243
-29.5875
-30.3646
-20.5866
-31.179
-77.2465
-69.0802
12.0329
44.3521
49.2068
11.4748
0.786971
-14.0203
-34.5363
-31.0814
33.3344
58.9916
56.8038
20.29
19.3944
2.94274
-51.405
-12.0509
23.6555
25.9321
47.2149
27.9883
-19.6999
-13.018
-48.8284
-76.8139
-14.7571
40.6305
44.5179
56.7679
43.1335
39.6557
26.4355
-13.9643
-64.9888
-9.25386
2.22282
-23.1109
-35.3145
-34.4995
-18.2908
-13.9437
-60.0826
18.6433
59.5017
56.5758
6.25575
-50.4733
-51.9919
-73.3454
-90.3943
-16.9829
40.4502
54.0248
74.7411
27.3732
26.4527
33.4747
5.09252
35.6767
41.2458
29.4253
24.4194
-21.7125
-39.984
-52.1685
-81.9947
-39.4149
-17.0835
3.59084
19.4247
11.3391
9.82563
7.84547
-17.1944
18.4344
54.5349
33.555
22.9485
-8.03744
-12.2422
-12.9716
-5.5511
-18.4472
-43.0937
-32.8405
26.3976
46.568
34.1813
24.2761
18.0506
-1.84613
-27.9878
-30.335
-50.7462
-79.0263
-47.2381
22.1587
63.1241
49.4671
37.4757
27.0522
39.3086
19.828
-27.922
-8.06255
24.545
-32.9744
-37.2859
-18.6926
-27.5158
-39.9386
-68.3095
-29.8165
46.1682
39.9911
14.3314
14.7951
37.4289
27.4032
-29.2409
-28.2173
53.8032
37.2266
40.6016
10.9749
-37.2551
-46.4128
-32.711
-63.9651
-68.7579
20.8765
67.2195
46.2207
47.4664
49.1766
40.0408
-30.7926
-101.29
-42.2623
21.2582
32.1689
-18.1871
-21.9342
11.4863
10.3294
-38.3213
-22.1436
9.45455
24.7965
38.7798
9.05687
8.35679
0.83908
-21.3594
18.4221
13.5549
9.34138
22.8677
-5.9103
-5.52608
-30.6191
-62.6892
-25.0463
51.1301
55.5161
43.1909
-3.52879
-35.1119
-20.9143
-4.74461
-29.0684
6.28132
3.98553
5.29361
-16.4278
-14.4362
-3.19141
1.29501
-23.4782
-44.725
28.7011
47.6932
34.589
-9.93407
-13.7173
10.7879
0.259212
-37.8186
-30.298
26.9584
31.0853
4.24152
-4.00584
14.5601
12.1452
-5.00318
9.14398
27.6348
18.218
28.166
-11.9231
-27.252
-33.9273
-54.571
-21.5664
4.44804
6.19165
11.2214
9.88578
-8.72481
-13.9047
-43.1309
24.035
37.53
17.4248
23.4249
22.5666
4.75875
-27.3415
-49.5726
-31.5877
22.1027
21.7509
26.087
5.322
-26.7949
-28.2992
1.53083
1.386
-53.7637
4.51925
70.9898
37.7879
32.2504
26.4398
23.833
15.9366
-25.361
-50.2202
33.2727
21.7163
-25.6863
-24.43
-13.5533
-5.86356
-15.4516
-17.8766
7.59998
49.9552
36.7721
8.31397
-14.7712
-41.7369
-40.728
-28.2034
-42.8566
-61.2481
6.89387
43.4588
18.0298
-3.09667
-13.4246
-7.59434
-29.6114
-68.453
24.1578
47.3559
29.9275
16.5876
34.4894
13.0726
-7.11434
-42.236
-12.0499
56.5925
78.3382
62.7762
26.9055
26.8387
7.06365
-6.77859
-34.6034
-38.7711
9.21588
16.1065
-24.5893
-5.31541
-7.75334
-30.2059
-64.3628
-68.5548
12.4957
49.598
35.9254
-10.9819
-14.948
-7.91719
-38.8278
-25.7945
15.9037
16.0068
18.5004
23.9258
16.0811
20.977
-41.2097
-40.9635
-21.6696
-3.76676
28.4632
37.7951
-7.34664
-21.3495
-55.1482
-47.2577
16.0881
33.1348
40.1145
33.1527
6.51328
4.34284
-15.682
-25.7649
60.594
75.4565
52.5692
10.4174
-14.3008
-11.9376
-0.655168
-8.70462
-77.2543
-39.1679
22.0891
-4.04708
-9.98473
25.7083
36.0241
16.2164
-29.9165
-39.0452
13.222
50.6754
-33.9105
-46.449
-37.6212
-45.0169
-32.9772
-37.0021
-5.39538
20.3143
37.1238
37.7369
30.5403
24.916
-12.9399
-45.2417
6.12487
25.0608
22.6693
16.6796
5.28952
-1.66432
-21.5214
-24.8538
8.54911
40.58
22.8379
16.1462
-0.0451032
8.63699
17.7241
-21.0008
-46.5245
36.6349
33.1426
28.179
0.232716
-13.5653
-2.33942
8.46289
-26.719
-69.7213
5.27699
7.9418
-23.9297
-40.6829
-28.0187
-10.1927
-33.1827
-75.0204
4.51244
42.3699
44.1293
10.8691
34.726
75.2792
40.554
-1.61743
35.5175
17.501
9.40976
9.92725
-32.1531
-23.0256
-31.6621
-44.8287
-1.89548
0.59748
13.5353
27.5884
0.447989
-13.2561
-58.6715
-89.1908
-19.776
15.7097
28.7564
38.1145
30.2963
27.6489
16.1663
24.6986
-21.9186
-13.1767
10.754
12.1803
0.0610177
13.9522
13.9543
16.8082
-17.1431
-70.0663
-10.1192
45.3618
5.85218
-12.0296
-4.49872
18.6819
6.5806
-8.7293
-47.1778
11.9472
31.8134
0.354657
-13.5155
-14.696
-34.9774
-36.1944
-34.9165
35.1909
39.5448
67.2884
52.8116
7.42553
-13.3317
-45.6874
-61.3346
-12.1457
-19.0828
25.3668
77.356
34.1457
-1.46358
-40.3873
-51.0031
-9.8696
1.17741
4.55404
20.5367
-6.03689
-10.2404
-1.64059
-40.5196
4.42398
52.5365
38.095
22.5939
-3.44346
5.1363
-16.8978
-30.0621
-69.7076
-78.1819
26.7139
66.4514
31.2389
6.88975
5.14855
16.0857
2.81563
-30.6461
-19.6825
90.501
59.8932
7.9548
11.0696
16.1878
-17.0807
-47.637
-77.3997
-86.2016
-8.7966
69.7711
17.9111
-14.8188
-26.9054
-25.071
-10.5949
3.33825
3.79716
-13.7083
13.5802
28.0891
13.3906
-6.84684
2.41437
15.2232
13.9694
12.3038
23.4239
-27.2062
-67.3665
-22.3665
23.6553
8.54018
23.83
41.9054
31.7973
12.2749
-0.159973
3.49027
-31.4013
-65.0197
10.1347
15.7773
10.5721
13.0818
15.5616
16.9074
24.5931
23.5306
18.0952
18.0333
-24.3717
-34.2224
-43.5959
-48.4828
-39.9035
-33.9929
-62.5569
28.6624
81.0619
45.7416
-13.4486
-26.7195
-26.2952
-12.4551
-0.208878
-33.8074
-26.0906
72.5758
72.4091
18.9551
6.70947
16.0837
4.8366
-26.8283
-40.4947
14.5035
13.6913
43.3873
14.4337
-0.471685
-14.9072
-5.18483
15.11
12.4292
-32.4519
-58.2883
-19.5741
22.2789
21.7691
-4.64568
-9.06647
-7.47491
-8.45232
8.57414
0.533071
-29.3986
26.1596
36.9757
17.8228
-7.17928
-26.2975
-29.4823
-24.8852
-28.2381
-21.7211
39.3145
62.3103
36.8102
26.0221
-3.0944
-20.5515
-22.4832
-26.0416
-32.7057
-48.0838
-58.8832
-12.3646
9.16492
20.8715
27.6631
28.9722
40.2451
50.619
19.3553
-42.6952
-2.63624
39.236
23.0311
12.2313
2.3202
4.17902
10.412
12.4961
-0.715835
-25.7771
-20.2651
2.10115
6.46045
-10.5203
-16.1106
-20.199
-27.7876
-32.9312
-4.02599
38.4098
-18.4065
-49.4042
-15.9388
-5.97186
2.50938
15.2119
24.1361
10.2437
-5.76116
13.8293
41.9171
22.1457
-24.3294
-2.20357
5.45734
-7.64537
-12.4545
-27.6407
-27.3029
79.0718
91.1698
32.4401
-11.2873
-18.5697
-27.1574
-38.3531
-78.0388
-74.7828
13.804
66.2044
44.9919
19.8283
-0.00945956
-11.7934
-4.33053
6.51843
-13.7702
-12.5968
38.7883
25.3535
1.20658
-2.4764
-2.11608
-10.5352
-13.6096
-16.9317
-24.9881
-50.1746
-26.8074
11.3335
-1.0942
-11.2537
-12.5848
2.0012
11.6191
-16.1626
-13.0194
18.0406
46.8752
76.9675
55.6064
17.2004
-9.07645
4.60814
12.9312
-0.957402
-11.669
-32.6041
-40.0288
-6.6841
-3.76403
-20.4462
-31.0001
-21.0327
16.0339
66.2336
27.6181
25.9204
58.4432
-12.0727
-25.1075
-25.8462
-34.5231
-38.7206
-29.5848
-31.4958
-31.3865
19.3116
32.626
15.8934
6.22178
-5.5158
1.75746
13.0628
-8.03215
-19.9046
-14.0938
-26.1081
-0.010842
23.7403
11.6367
-1.58957
-0.799921
1.15669
-0.282545
-27.5068
14.1522
85.082
50.3736
1.79188
0.867704
3.9404
1.24476
-12.5177
-61.2674
-39.9742
61.1919
73.1479
-0.972531
-29.0049
-8.07635
0.886059
-13.4288
-55.3158
-41.4777
45.6336
56.4847
10.4966
-28.9229
-40.8702
-23.6676
-23.8646
-46.0285
-79.3564
-4.67063
73.6688
56.7459
42.3491
13.91
2.30337
-1.45714
-5.45467
-13.3881
-33.9247
-26.1581
5.9237
51.3352
20.7539
9.91201
10.374
13.3462
24.2046
29.6057
-0.261412
3.72239
-38.6395
-2.0083
-2.45129
-10.4315
-11.4502
-19.13
-14.3029
-3.80025
9.83612
-29.2467
-13.3957
21.8173
25.8975
11.2252
8.55673
7.42789
-0.853374
-20.7366
-25.7199
6.65532
6.29618
-19.1546
-17.1092
-26.1159
-22.0891
6.07842
12.6183
-6.32304
-10.7387
27.5676
43.5541
-8.88475
-21.8576
-22.217
-23.7276
-11.7891
2.79505
26.4208
34.0131
4.92683
18.545
31.0445
24.6293
27.8546
25.6186
7.39967
11.4059
11.0285
-25.8581
25.5851
18.0405
-17.9231
-32.1162
-35.6291
-34.8442
-35.901
-42.7377
-73.8435
30.0169
45.5831
5.12976
-17.0214
-0.932889
2.91532
2.4642
-28.5421
-35.2047
39.5752
90.9386
57.4592
6.67981
-2.70522
-5.98634
-13.9616
-66.0846
-57.2607
-32.4069
83.4472
66.6535
21.643
-3.59315
-17.332
-11.8278
-11.7431
-11.9303
-18.7277
-25.2612
-8.95463
43.6431
17.9828
-4.44087
-5.30643
0.110319
15.8836
34.1402
1.17827
-40.9844
-52.8287
-26.1707
20.5795
18.8438
30.496
27.2255
9.09485
5.78394
28.7834
1.46142
-42.1869
-29.9867
-0.749496
-20.7878
-40.3703
-44.1906
-33.6106
9.06776
17.3653
7.07401
14.4454
30.601
-1.65791
19.1861
29.8735
35.3448
22.0215
-14.5843
-30.807
11.0579
39.8772
27.6436
-15.4857
-11.9003
3.0278
7.35714
-10.4354
-19.7512
-32.4971
-26.8881
-27.1496
32.5744
18.8438
-6.34867
-32.6238
-34.8264
-11.5744
17.4915
8.50151
-26.093
5.50564
24.5003
23.952
24.953
19.393
12.1129
-2.48103
-42.2161
-28.0876
82.4431
71.5761
-6.9807
-27.6929
-33.7021
-24.4077
-6.97027
-41.4719
-33.7592
72.0345
87.3158
31.6508
-4.38828
-25.117
-43.9975
-39.7465
-64.9495
-61.1154
48.0135
72.2622
28.9105
-8.7991
-36.2273
-28.6738
-19.2866
-24.5969
-58.6926
9.88987
78.0036
32.3773
19.7727
-3.64949
-11.5313
-3.56533
-4.27719
-5.7702
8.70016
-18.5736
18.8445
47.0459
31.0382
14.0886
7.23154
11.5054
15.4269
9.69952
18.9733
-6.65757
-74.3262
-31.3246
27.3447
15.7515
-8.6045
-24.3891
-23.5197
-24.5138
-17.5272
-31.6409
-112.476
-35.7812
-10.4568
13.5465
28.6426
28.5854
18.3279
25.55
22.6202
13.8322
59.5907
47.743
18.3259
3.40759
-3.39954
2.98083
3.82122
9.02665
1.20355
-49.1023
-24.5609
30.4964
57.2392
60.4876
29.3784
-2.56254
-20.0598
-18.6142
-7.04743
-36.0236
-15.6868
12.5771
-6.44238
-16.5858
-24.1887
-18.055
-17.7523
-35.1104
-75.9031
12.9066
59.0671
-23.6556
-52.8923
-54.7998
-39.5024
-14.926
-5.06548
-11.1545
19.2791
82.6918
54.959
9.57052
11.6088
21.3973
30.7069
17.6809
-2.16015
70.2213
90.2898
63.6701
0.507971
-30.065
-37.7008
-44.0763
-40.7819
-75.0544
-88.3287
5.33984
63.0618
49.4464
19.8002
-7.40163
-17.3517
-17.5216
-15.9436
-0.128893
-15.8276
-61.9803
6.42485
56.1583
22.1433
-3.62517
-13.2625
-15.5174
2.9253
27.4352
14.226
-56.0081
-62.1721
50.3208
49.8828
25.312
9.69151
5.00839
9.47352
8.21689
-1.76493
10.798
3.98638
-21.0801
-27.2012
-40.5253
-47.681
-53.9429
-58.7132
27.3197
67.8483
64.4247
57.5842
25.5913
45.5606
29.0739
-39.5004
-40.2262
-7.70415
-8.1307
25.864
15.081
-10.3169
-30.7478
-81.451
-99.4691
-6.42279
57.6728
61.2971
15.8102
6.49606
0.590546
-10.8329
-44.6899
-70.5372
7.50658
54.2999
38.5869
0.755868
-3.67742
12.8308
-5.1717
-26.1666
12.8094
37.7587
50.6823
11.1184
-11.2101
-7.52274
-45.4547
-47.9312
23.5384
36.7191
13.2385
12.4304
-14.955
8.72816
28.1027
6.40968
32.1049
33.5491
24.1234
10.2193
-28.8164
-28.9325
-35.6232
-78.6798
-44.688
29.8203
38.2014
36.7876
-4.84598
-31.447
-23.283
-21.6994
-68.4828
-43.5435
14.0991
31.0556
10.684
4.25874
0.199004
4.54919
3.62848
-26.8288
-22.5102
47.371
33.7468
-10.3457
7.3576
24.259
12.4636
6.71663
-6.91221
61.6392
99.2513
58.343
-6.70406
-33.1652
-49.2388
-62.7808
-93.7231
-40.5154
30.5943
50.945
51.3026
9.32673
-20.7478
-31.0689
-51.0187
2.63204
10.4708
-7.86555
-4.03703
-17.4702
-16.0805
-26.775
-67.4071
-0.730178
42.6825
47.1964
61.9307
47.795
9.24436
14.7343
-2.35432
-34.2097
13.6951
23.4009
29.6877
1.19092
0.241422
15.1798
11.8107
-38.7885
-12.9262
-8.74833
2.77618
-25.676
-45.3118
-40.3479
-23.8867
-49.5525
-21.2119
-0.902001
10.4162
21.5581
-13.9111
-15.9449
-18.2114
-42.2579
19.1148
39.6009
91.7478
92.4549
55.705
57.8983
66.581
35.9606
8.43677
-26.106
-1.05871
-3.35864
-48.3256
-58.2084
-41.3035
-28.6098
-36.4978
-72.8372
-58.3178
14.1129
10.2637
1.52803
-18.0376
-6.65818
-7.11392
-5.5068
-12.3041
-56.7179
-35.473
54.6628
42.6426
52.0806
52.8303
62.8699
45.319
6.04929
12.6625
46.7974
37.0655
0.79661
-29.7375
-18.4798
-7.81028
-43.1176
-64.9006
-23.5958
-11.2904
8.74846
-3.32177
-21.2954
-16.5905
-63.0298
-64.9413
22.265
29.35
38.7913
14.6816
-10.7131
4.77256
-13.0583
-3.62621
21.003
1.85574
16.023
28.5428
15.3159
21.5945
15.0042
-14.5371
49.5285
69.4232
82.5063
47.0183
-43.5514
-54.673
-37.992
-32.2159
-57.5485
-37.9235
27.7928
6.34312
-19.6356
-17.4756
0.134991
0.782666
-45.0082
-89.0556
-23.1159
54.1807
15.4428
-5.12636
4.93966
6.21844
-1.69148
-6.98419
-3.5511
-15.6441
44.4909
47.4104
14.1592
14.3352
3.1961
-5.80942
-11.1335
-18.4583
47.7708
82.4882
53.3351
11.5665
-25.5278
-36.6417
-66.252
-68.268
-21.8672
6.68355
21.5037
36.6867
9.23207
2.37266
1.45991
-21.5797
-43.8512
25.1006
40.044
34.879
-7.32447
-8.65789
-16.1238
-28.7317
-47.8252
-78.5997
-9.25213
11.517
1.05849
19.5012
33.8927
40.3728
18.0352
-31.9818
19.7185
57.3761
40.3947
-1.62936
1.06694
8.01328
-17.8526
-49.1296
26.8688
33.7552
33.8559
40.5101
-4.80363
-27.2305
-67.1411
-111.594
-30.5136
-11.9061
8.12947
30.2678
-22.0599
-37.1861
-29.4862
-45.1048
20.6873
56.4771
52.5219
62.7959
16.9524
18.948
23.9464
9.19783
-47.233
-35.2533
44.6408
50.8836
-17.2189
-28.3864
-23.5829
3.14928
-6.20845
-16.9187
-25.2583
29.1097
15.4688
1.35885
2.50588
16.1571
3.66643
-4.26652
-38.8328
-48.636
48.8357
44.6896
-11.7063
-1.3071
-9.11903
-9.72793
-24.1952
-36.1566
9.29676
21.4975
49.7977
19.7051
-4.27987
19.7634
20.2031
-0.204377
-9.58182
-29.7603
-14.8481
20.1166
0.734894
-4.68128
-55.9372
-67.102
-14.4009
34.3795
43.753
56.9625
19.1884
5.98313
-2.3615
-55.9229
-37.0247
-4.24821
-4.25401
1.70803
-9.94775
-15.3535
-16.9151
-35.2193
-32.9656
15.8198
27.1661
21.7044
-11.022
-18.0424
6.59497
-15.3157
-7.03718
74.8192
82.4238
83.5355
66.4965
15.8168
-15.9126
-53.3794
-40.5294
5.2662
8.78839
31.9521
21.5045
-18.2661
-27.6519
-55.2389
-74.8468
-11.4286
14.3837
32.1705
9.75689
-38.9083
-35.5581
-16.2615
-29.0283
-65.3064
16.2289
68.9722
45.6659
16.9426
23.8535
31.0097
1.70834
-29.6353
-39.7176
32.229
47.0603
4.57651
-5.70699
-2.04853
-4.86164
-18.3237
-15.0486
-36.6327
-3.73964
52.7588
12.4256
-14.8589
-25.0934
-28.0269
-22.4135
-43.8958
-10.6579
19.5114
29.3057
14.1203
7.6762
-8.88393
-20.4069
-25.1803
39.5678
40.1418
25.4095
32.2384
22.5304
13.649
-11.3964
-16.9943
44.6666
27.6457
10.4418
-0.244471
-21.4996
-27.9476
-70.4761
-88.9031
-33.0795
30.589
34.0362
49.1499
9.48259
-12.8099
-9.78212
-26.7285
1.44991
18.7163
26.6637
32.5779
-4.31902
-13.5096
-12.5613
-19.5249
-18.9209
26.0041
39.4323
28.2502
-7.03293
-37.3381
-41.7329
-82.9337
-44.1324
5.0915
34.5043
67.418
57.6365
27.7538
8.17719
-3.39042
-36.6362
-46.8339
-8.83278
12.4212
8.04015
-15.6228
9.90907
21.6289
-20.8138
-45.8388
25.9545
55.467
10.4606
-13.6546
-9.16481
-6.23841
-65.6701
-17.844
20.2148
57.4028
49.6009
40.5018
10.3646
12.8873
2.56307
-38.582
-41.0624
17.7433
17.1578
3.82512
-18.0326
6.52033
-0.0622219
-17.1998
-43.4297
10.3335
33.8729
2.86094
-6.24859
-23.0246
-15.1149
-37.6701
-57.5406
14.2655
33.1315
30.0106
25.2826
-8.97247
7.09021
-0.729924
-48.4219
-6.61476
-0.00234022
-3.33215
8.21132
1.15186
16.4538
10.4812
2.90507
12.691
46.3775
45.3084
34.6378
-13.0923
-31.0139
-21.2297
-23.6838
-101.683
-52.8225
20.7517
63.5686
39.4712
27.5407
28.3187
24.1972
-2.7438
-6.4719
-24.6944
-61.8493
-62.2415
-0.07034
26.4062
30.5251
14.379
10.1417
-1.47975
-3.39336
30.6786
-8.36578
-51.929
-20.234
11.5958
15.3175
35.8901
33.4492
0.0554826
0.375705
9.21776
18.9833
-25.3032
-47.1025
-6.48777
1.3402
6.41536
5.20088
-0.171327
-0.632111
-19.0092
-65.9362
14.4678
32.4721
8.37453
2.61097
-16.6941
-6.09446
0.971759
-14.3203
-39.2858
-4.26637
71.0077
51.0843
14.348
6.98325
8.96181
11.2293
23.2154
21.0954
-5.19505
-14.1029
-18.161
27.8685
13.4579
-9.44762
-26.7586
-25.2223
-8.63755
2.24862
-10.9946
-35.3277
-8.93466
-10.7713
-14.0663
-17.1883
-22.289
-18.3806
-17.5049
-29.9252
-17.4487
53.4689
24.6151
-39.5793
-23.2758
9.14418
17.6201
21.8095
-8.21498
-23.0489
77.8943
103.694
55.7957
25.8616
31.554
12.1259
-25.4289
-85.5989
-46.2086
9.98002
34.5151
28.7639
-0.329777
-15.4264
4.30018
14.855
10.2865
-43.3801
-45.2505
12.283
34.581
25.1466
-14.8739
-41.6528
-51.1001
-35.7794
-12.8128
2.48083
-63.3656
-47.1087
51.7899
52.2023
28.268
0.0575213
-29.1797
-42.2795
-49.9249
-12.1582
25.9063
11.0628
33.7601
56.9753
54.1821
59.9526
45.2692
21.5756
14.3663
22.4721
10.6059
15.3764
-21.5475
-40.5808
-40.5588
-38.2152
-37.4899
-35.9899
-74.5863
-50.3012
53.114
67.6231
11.7096
2.94927
-14.6858
-32.0878
-23.4697
-13.3529
-42.7011
-39.7333
52.7012
51.6122
23.8841
20.8357
9.79684
-0.202003
0.126858
13.042
29.3446
4.20227
1.16897
26.8967
-10.0656
-8.0228
6.02755
2.6275
0.0181889
-49.2482
-40.3768
68.9814
74.528
22.2048
-10.8994
-28.2783
-20.0528
-13.9673
-47.1594
-62.417
31.2089
61.3844
14.2495
0.0868949
21.7827
1.2791
-36.2916
-100.535
-71.5623
55.7779
85.0663
40.0078
-9.60074
-22.3245
-11.9805
-8.07478
-33.943
-67.9132
-28.645
33.5158
17.8198
9.1354
-2.51259
-12.0579
-15.3612
-1.86797
9.79898
-2.52649
-5.46473
-10.8162
62.7001
56.3155
14.6766
-2.19363
-10.4486
-9.08014
20.7298
45.3901
-9.5711
-25.0415
43.2523
39.3852
11.0234
-13.2257
-16.8327
-12.1019
-0.443727
21.5632
-7.47456
-26.2201
-0.864793
-12.2668
-6.56412
-2.06678
8.65945
6.41476
-33.7968
-47.5341
35.9215
53.6194
-11.5958
-22.5639
-17.8008
-5.20889
-6.96065
-34.4359
-77.0149
-4.7148
47.3463
26.7926
-20.5914
-27.9657
-24.2903
-14.0558
-15.4238
-17.6917
-34.0419
-31.4037
22.4538
48.1999
18.2503
29.7946
41.9766
45.3886
48.1419
52.362
29.1148
35.2968
67.6699
35.6246
-11.578
-22.6754
-27.7552
-40.6495
-60.1542
-92.2005
-15.615
55.9131
20.3212
-13.5364
-25.2531
-23.7609
-20.739
-31.4123
-74.7283
5.61012
74.2389
45.2927
-6.32403
-17.4736
8.15177
-20.1218
-54.5494
-38.9895
79.4145
59.0754
-8.72676
-16.4265
-6.32321
9.35058
23.6005
21.9438
-5.0636
-17.8208
3.52531
52.7134
30.3706
18.6545
-15.6438
-40.6982
-47.9289
-39.2009
-9.47253
-17.3276
-4.65255
49.5156
35.281
43.8499
29.1372
-0.425144
-23.3617
-57.4252
-88.128
36.2206
50.8095
-9.81897
-21.9386
-17.9465
-1.68823
5.41978
-13.6174
-25.8614
35.1678
69.039
38.0591
-9.1627
-12.7509
-9.8386
-7.6259
-25.5602
-66.9874
-4.9916
65.6872
61.2536
-2.38881
-40.2151
-42.6392
-41.3879
-21.0818
4.31332
-0.315566
-9.06909
7.05484
80.3334
62.3611
29.1525
11.3059
-14.8997
-21.2669
-4.09758
10.5124
-43.7204
-44.5347
-17.5316
1.95726
-5.18234
12.9057
49.0047
48.7117
25.4226
24.7673
25.0802
-34.649
-91.1807
-26.2449
-4.32008
-20.5463
-21.7957
-11.163
1.93276
27.2798
45.9214
18.5666
23.3635
-4.80873
-25.3864
-34.5189
-33.542
-19.8949
-14.8022
-26.9802
9.96564
67.4579
62.6644
21.9221
-2.82276
-3.10771
-0.14709
-5.84576
-16.1067
-62.0887
-32.1308
38.6105
27.2811
17.3156
18.544
5.771
-13.9418
-19.7869
-10.1609
-9.52792
-67.0488
-42.3598
31.821
26.3441
38.2048
53.2394
42.9001
33.911
4.04404
-19.1429
23.2548
42.7204
-19.2059
-22.791
-17.3972
-29.1457
-39.9559
-74.4575
-95.0001
29.6933
79.7791
26.6344
-20.2494
-6.77064
9.39114
5.85548
-22.8367
-45.0244
12.3744
96.206
64.2515
0.762784
-22.6176
-28.2768
-25.6572
-16.6812
-6.35687
-8.78704
16.4312
17.5298
44.7854
29.4019
0.199118
-20.0832
-33.0233
-27.7798
-5.66132
5.10755
-41.3657
-81.8438
-1.62858
21.734
17.897
13.2484
-4.75192
-6.73983
6.25198
39.8204
24.295
-18.1955
5.01995
10.1106
17.4433
26.4942
18.7672
10.807
7.98476
-19.8868
-3.7766
58.5446
2.72768
-16.4803
-18.994
-19.9195
-8.99775
-17.7662
-70.7793
-25.2677
62.7758
37.5993
-8.61942
-15.2602
-1.54195
6.09998
15.684
-1.11294
8.01852
40.2702
49.5935
18.9275
-4.83094
-21.7216
-36.9601
-31.1376
-21.2597
-16.5219
-32.5353
-36.6129
-37.8877
-14.8414
-7.08516
-11.5099
-12.9865
-11.3987
1.29277
23.9244
-0.580944
4.75807
58.238
38.7913
-4.56624
-16.9416
-4.45332
7.56681
2.1884
-24.1806
36.142
100.326
72.4434
56.2168
30.2899
3.27244
-2.51226
-11.0463
-80.4752
-45.9569
32.1933
31.2685
-19.3262
-32.8073
-41.762
-40.3355
-33.4371
-33.6909
-31.8868
-40.7822
2.89202
17.6261
-5.06049
-4.60607
4.79862
10.6154
-1.85005
-1.13453
32.0477
-15.0109
-81.3
3.68628
80.4293
63.8307
39.5335
28.4885
26.732
25.318
20.71
22.1999
-53.3751
-42.0778
2.15494
-7.98192
-6.30617
-3.374
1.84475
0.872351
3.15196
-3.2079
33.2218
10.6517
-26.235
-23.633
-15.1508
-1.5634
-11.5582
-43.8777
-92.716
15.3601
78.1735
23.0448
-6.8994
-8.31222
-13.4013
-11.5029
-22.8937
-36.4581
15.8489
80.8805
77.0135
26.0826
-4.22838
-9.10192
1.66832
5.7931
-4.65212
-23.3244
-37.9743
-42.197
20.6988
-3.16948
-14.7063
3.23015
11.0775
6.73594
6.74768
-13.2401
-48.4166
4.41761
50.4695
22.5987
0.145203
-2.59298
5.53515
13.7997
1.10523
-8.44239
40.2443
9.19654
-39.6192
-51.1765
-35.1543
-12.0934
-3.63068
2.80669
-5.5466
51.1242
113.632
73.1089
9.14434
-24.111
-46.9588
-48.8933
-45.4219
-34.9729
-42.2965
-50.8307
2.84433
57.0224
35.0535
24.7217
4.64524
-11.7089
-16.2931
-10.1648
-12.7005
-52.5348
-12.1998
28.5141
11.2385
-3.59706
1.35352
10.2301
15.4142
12.8362
17.4284
3.54439
31.2734
14.5276
7.469
8.05318
1.3675
-4.05179
-9.08618
-41.2265
-59.6551
31.4583
58.9273
9.99199
19.2871
32.3058
23.0096
13.074
-9.07328
-44.469
8.5138
57.2681
7.36094
-36.6695
-50.9339
-57.1822
-31.9723
-46.7325
-62.2805
26.8206
103.88
82.3441
15.4272
-18.0641
-13.2171
-8.39751
-23.4647
-63.7114
-66.2449
-24.174
23.9559
25.6019
-5.58801
-23.9188
-6.15758
13.4074
11.6775
21.9631
-24.983
-45.5771
51.8643
36.9448
2.60575
5.69409
14.7372
27.9071
41.9715
21.1327
35.3129
65.8666
6.04323
-6.65793
-18.2318
-23.3695
-14.8159
-22.9415
-71.7191
-37.0208
61.9387
55.7032
-20.6657
-39.2122
-39.0259
-25.2684
-13.7543
-14.1327
-13.2907
0.689996
21.7428
30.5153
-6.39257
-15.8143
-4.55997
-4.67274
-15.5401
-3.33713
26.7817
-8.3327
-44.5516
5.25569
36.5661
31.2983
36.8806
40.0679
16.6431
3.75387
4.34083
21.1254
-43.9818
-83.2638
20.2029
38.1648
18.9597
2.98088
-13.9699
-23.0619
-13.9368
-38.8503
-21.6856
14.443
-2.01497
16.9668
37.004
31.6969
9.58425
2.06374
-19.7902
-37.4209
48.7161
42.193
-21.905
-18.1338
-11.7444
-14.5626
-18.3416
-51.7561
-19.1179
62.1244
65.6223
-2.1784
-31.5584
-32.4515
-32.8387
-23.6133
-32.8332
-75.4565
-10.436
81.5041
37.2627
24.0647
-0.416318
-8.77875
-10.6607
6.7135
9.68771
15.094
-8.49514
48.1323
47.3023
27.4685
18.8387
23.7271
20.7281
9.15592
-3.47514
-13.6299
-1.89473
-0.8934
-11.2722
-9.80636
-18.5136
-25.2163
-28.3966
-72.9158
-111.361
-39.5702
27.1889
16.8649
21.1011
11.8144
-5.91425
-13.3332
-8.33769
0.67698
11.0619
6.19498
42.9227
85.1397
75.4418
31.168
2.28762
-6.43496
-17.519
-5.7307
11.5432
-28.3506
-8.94514
-10.8412
-21.8594
-25.8692
-19.059
-15.9403
-9.63381
6.6414
2.36563
-33.2758
-66.0185
-11.7462
14.7665
12.9178
12.679
17.5769
18.978
21.1273
-10.7566
-23.154
38.014
45.2742
57.4529
45.5436
33.4447
14.3024
-10.148
-69.2216
-63.0498
75.5738
64.4307
-34.0707
-56.9906
-44.0627
-28.1739
-17.6416
-50.3675
-46.5497
65.8186
92.673
23.4181
-18.3339
-21.0626
-17.0818
-7.137
-30.5241
-62.1208
22.4884
84.2799
29.9949
-16.7815
-41.6022
-26.2369
-10.167
-5.96724
-6.59386
-27.437
-11.1837
12.5649
62.5965
26.1135
-3.82649
-3.80395
-13.9839
-30.9914
-9.56472
-20.09
-32.2265
56.8472
88.9204
57.46
21.9333
-1.21341
-10.6154
-15.1367
-45.4216
-9.81856
9.50938
28.0973
25.1644
4.57165
-15.9592
-31.8088
-35.1618
-20.7482
21.8665
37.9231
-6.6727
-3.93689
-4.95886
-23.9158
-28.9603
-34.804
-32.3545
-22.6117
-14.1087
-15.765
-7.55228
50.9162
31.0799
14.0322
12.0928
21.0863
21.9513
18.8146
-9.78606
-33.0424
8.57883
10.7254
-3.0117
-3.56893
-0.172771
10.5473
22.9342
24.0289
21.4014
-10.6702
12.3626
-9.49073
-21.4512
-12.8711
-7.40326
-3.49954
-7.40184
-29.2598
-40.2281
32.9769
61.8441
5.81288
-6.96565
-6.42974
-10.9095
-13.4801
-25.1269
-32.8954
7.5724
79.1665
36.5447
-37.3032
-42.1163
-33.791
-18.5965
-33.0691
-59.5243
10.2796
64.6643
55.0985
31.7172
5.27659
0.469365
16.0738
27.8139
11.5064
-4.61457
26.1011
35.1886
9.35836
-10.4964
-41.4333
-42.4335
-47.6254
-49.2017
-26.6496
-9.62028
13.378
42.9001
17.4507
-0.675668
-4.60241
-2.86037
-3.13236
-16.1104
-48.8048
-81.4911
2.07289
52.5485
45.6376
24.3297
9.33696
15.7895
21.3292
16.7856
18.7505
10.0858
-26.4054
19.0237
52.2935
36.5496
12.4871
4.63923
3.88265
-2.83452
-20.5061
-24.6855
-3.99318
-32.5572
-24.1678
-16.855
-13.884
-22.0619
-34.5245
-31.623
-31.4452
-45.021
14.3328
-3.9546
-2.46801
20.3648
39.5652
49.1702
40.8215
37.0633
40.3774
42.1212
16.2023
20.6335
-2.5954
-16.7276
-17.3381
-24.3588
-28.5526
-43.4825
-61.0312
20.0059
24.2774
-24.663
-29.8372
-14.2702
-20.8301
-32.5184
-36.762
-47.6343
30.4715
85.1961
23.174
-9.12536
1.76077
4.84636
-6.41236
-27.2042
-11.1105
44.1926
75.2862
64.05
28.9056
14.0818
4.58856
-7.37526
-7.98426
-28.7297
-21.394
54.0745
45.5837
27.7942
-13.3398
-38.0318
-34.5006
-23.6348
-23.9581
-33.2021
-52.4589
-43.2862
29.4732
49.9611
5.38477
-4.66275
-4.93519
-13.3432
-11.8443
-22.5141
-25.7219
-39.8358
-6.08334
10.9964
5.26509
2.69026
17.9298
14.6038
9.6754
35.7855
32.501
-7.52388
3.2277
16.8898
-1.15129
-3.24073
16.0528
23.7371
6.67246
-21.7854
-55.8631
4.40157
0.406751
-6.12089
14.702
31.0834
21.9948
4.48917
-17.5708
-72.1436
-5.59051
59.0992
41.2613
10.8742
4.1271
-4.48456
-4.01061
-5.69301
-9.51953
20.5879
-12.8867
-70.9975
-23.7639
14.0901
15.4421
-2.0058
-19.4224
-28.2042
-17.3748
14.9709
-32.701
-11.9848
2.51004
4.64408
1.70731
2.16338
17.1386
40.7494
25.8932
3.32695
71.6989
69.1942
4.36389
-24.5109
-42.1743
-41.9879
-28.8046
-43.4833
-84.3789
15.6426
91.2709
38.2644
-3.47227
-3.20544
10.3417
12.1944
-12.734
-39.1252
4.04737
79.3333
71.8149
26.1374
-13.7884
-30.2029
-30.5865
-33.1581
-33.5489
-33.0456
-46.4148
-23.7234
29.9091
25.4445
14.2154
-0.917158
-7.88933
-9.7368
-8.78538
-26.3436
-50.7839
-5.98292
60.148
44.4517
12.4788
2.61759
5.63752
4.75582
-1.97207
3.35103
-4.88798
-45.2544
-32.2549
-8.73431
-21.1936
-14.961
-9.53523
13.9414
47.9155
71.7093
17.3109
8.83734
37.1118
29.7986
16.1115
9.47046
2.90119
-8.19674
-12.6378
-25.3891
-38.6365
22.3297
7.02236
-9.23924
-12.8401
-14.2541
-11.5987
-16.1326
-17.7133
-13.0173
-1.89223
-18.183
-39.2899
-20.2983
-7.42823
5.56422
10.4863
5.6191
-6.25723
-13.7712
1.8616
45.0217
22.6795
15.9439
21.5594
25.908
15.0593
-2.89895
-30.9624
-44.9493
63.4892
86.0958
22.4646
4.76386
3.95575
-8.52349
-19.0246
-38.8934
-53.6937
14.5437
70.7356
-17.4821
-49.285
-51.7721
-41.5335
-25.5817
-40.8752
-66.6347
-10.6042
68.7638
75.7452
23.7449
4.16249
2.49678
3.07031
5.08924
11.9937
2.04007
-16.0656
-8.11593
46.1263
13.9484
-3.66897
-3.93356
-4.85352
-2.04715
13.6704
-9.65393
-41.1043
18.1981
3.4464
-0.133027
9.65959
12.1403
-10.9166
-26.5867
-60.6052
-43.7752
81.3083
59.3693
17.9881
-5.31168
-25.6803
-27.9214
-30.7786
-24.6179
27.3708
50.8879
44.5772
-14.2035
-27.3856
-16.5089
-43.2084
-48.7903
32.2864
63.69
70.9551
65.9866
15.873
-1.76308
-44.8805
-110.094
-75.6729
30.8575
39.6836
29.9183
-0.829824
12.6961
11.4618
-13.5156
-46.1019
-25.8343
0.805506
1.44574
-21.7819
-20.0508
2.46881
15.3917
-29.562
15.7609
26.8403
39.5379
33.4405
-10.3431
-15.9691
-25.8907
-45.9698
1.49932
52.6062
42.1138
48.8787
21.4071
1.23216
-10.4163
-48.2497
-6.91753
-1.15103
6.67409
0.610931
-28.2084
-8.11634
4.97104
-42.9603
-20.3972
-3.5478
23.9968
54.2978
42.4602
3.77493
-21.8286
-39.3937
-39.5728
19.4904
60.2381
48.1687
8.61701
-0.336486
-8.81314
-6.63628
-58.7067
-60.7298
11.1596
25.6036
-13.1917
-14.6855
-2.55119
-1.66731
-8.30146
-41.4604
-34.3087
58.306
73.3956
10.8567
-22.7802
-16.9083
-24.1306
-16.5486
-35.3259
13.1062
52.5593
34.1791
0.234791
6.22918
0.84522
-12.5957
-29.6239
3.70173
6.40868
22.7964
27.4901
1.02563
-2.90734
-29.9294
-43.4357
5.50562
2.32158
4.63178
38.9982
26.939
12.257
-10.6991
-49.8727
-11.2732
31.0572
34.5848
29.7136
-1.11077
-18.726
-14.0736
4.37481
-36.1338
-20.0189
53.3219
45.4124
13.6937
-3.47479
3.14749
7.95173
-50.0956
-35.7968
-15.6097
-2.47772
-11.1959
-35.4592
-24.9927
-18.7736
-47.4071
-35.7768
36.5648
35.9938
41.3677
28.8565
3.39932
10.1015
-33.2632
-61.2056
22.9936
29.5021
35.0965
26.422
16.7626
15.9044
2.05706
-27.7437
-35.8569
7.18972
23.5864
18.5722
-12.7647
4.92981
31.2502
0.992583
-36.4749
13.6771
61.7285
70.5157
7.89466
-8.69482
-0.968373
-17.6295
-33.9259
-74.8674
-44.2044
-1.76121
0.134409
-18.565
-5.57601
3.25388
-14.9271
-42.4525
-7.16279
23.7436
37.378
12.2618
2.84326
-2.06605
-51.77
-82.7985
-24.4209
4.3979
7.71411
27.3563
27.1373
42.9653
43.7229
5.54531
56.4714
48.8038
27.5028
16.9857
-7.08982
-3.5772
-3.98426
-41.2698
-9.06108
7.01955
2.27233
25.5142
5.27141
-20.7054
-22.6272
-49.0715
-55.5125
10.1613
27.4001
32.2993
3.10825
1.99203
7.35879
19.8768
-9.52967
-29.8489
23.4777
16.9627
-17.7284
-28.8833
-20.1879
-6.0221
-30.6806
-53.2426
-1.51608
41.7727
30.7034
-20.965
-20.2947
-0.940288
-4.59349
-3.65938
-43.7028
-38.691
64.9464
77.8931
27.4311
22.6234
28.7504
30.9114
-0.99508
-5.44626
29.874
23.032
-19.0467
0.579685
5.28434
-29.7401
-58.6249
-22.4096
-7.01564
-8.86819
16.325
19.423
-30.9146
-26.9006
-41.4097
-71.0446
-39.6863
28.2496
67.127
51.8938
11.8352
15.6561
12.4289
-2.72393
-59.0927
-11.5232
36.2569
17.2372
1.35032
4.88448
12.9378
10.3361
-40.0689
10.1652
44.172
61.5893
32.8675
-3.04189
-14.5759
-18.8949
-68.6314
-20.8959
13.7802
-0.914053
12.0169
-23.6891
-19.1508
-10.801
-20.7447
17.5175
31.4619
15.8426
15.6684
-15.1539
-27.5941
-27.6009
-63.1492
-12.6508
8.8626
26.0308
88.8337
94.9114
42.4544
5.35109
-42.1522
-62.2906
-33.1047
2.82298
2.56309
-19.3614
-23.9786
-10.0577
10.5147
1.49503
-7.88652
41.092
52.0334
-9.18635
-37.8173
-36.125
-40.1747
-65.3903
-78.8382
-47.7629
44.1465
76.6654
83.3924
41.7267
34.6512
23.0392
-17.9733
-13.8003
37.4299
28.2894
24.1541
2.15181
0.580911
-24.0754
-40.3635
10.619
8.36904
-17.8606
-18.2979
-24.2637
-29.2686
-34.7071
-55.2836
-0.0856872
22.9686
35.2757
58.1724
64.9922
31.5702
-13.7651
-59.1928
3.90787
59.3023
34.5292
10.6453
-29.2536
-34.6953
-32.1422
-23.4021
-32.9718
-1.65009
23.0852
0.865867
-31.6388
-35.2182
-38.5947
-29.8439
-41.0097
-8.00052
29.642
55.597
14.6352
-11.2057
1.74501
-11.6524
-41.5642
36.5428
72.0501
74.7842
71.2539
23.1891
-10.9155
-18.8479
-49.5545
-32.726
18.1869
32.0869
31.5923
-3.24092
4.88721
11.6151
-17.456
-41.5151
-62.0575
-5.85746
20.3792
-12.7094
-19.4516
-13.782
-6.61792
-10.2682
-15.8835
-23.919
-33.6273
15.2553
42.8648
31.4191
28.7524
12.3017
14.5527
37.1457
6.24525
-42.0642
39.3178
40.7691
20.3538
-11.1113
-34.8639
-36.2515
-46.0752
-58.086
-5.84609
16.5664
39.6208
13.1871
-32.3764
-24.6789
-30.7449
-19.1831
21.5443
25.946
22.0422
22.5046
0.389898
7.09367
-19.7071
24.4548
40.2434
32.5421
24.9017
12.6404
-24.1115
-36.3429
-54.8804
-4.20425
0.422474
-2.23732
8.39478
8.36684
-7.80025
-14.8534
-43.0032
-33.2569
-14.0838
46.2256
55.5129
17.5822
-0.548156
-0.258784
7.38079
-12.4552
-53.2946
28.748
66.4051
12.8299
-21.5015
-26
-13.4155
1.69074
-26.553
-31.8545
61.9663
73.3451
30.9477
-28.5364
-30.9758
-38.3168
-26.9464
-16.6776
-45.9905
23.827
82.4204
54.0859
58.9634
33.683
-5.54706
-46.741
-95.3149
-26.6858
34.1952
23.7273
-2.80438
0.79258
-6.03289
-34.0518
-85.5787
-74.5287
18.1104
22.83
24.8951
-1.20141
-21.4833
-31.4783
-33.6582
-43.1777
-25.4925
51.9639
83.2266
37.1219
15.6552
37.9971
37.2257
1.25242
-33.8355
2.7294
100.168
74.4436
-7.00804
-29.8374
-11.2132
-23.2748
-46.7101
-7.35214
-6.18026
-1.10555
11.1234
-6.23541
10.8677
-10.6775
-18.1785
11.1922
-8.67928
-0.46065
16.1204
-9.45672
-29.605
-63.4011
-86.4684
9.98527
55.0287
39.7539
38.0469
6.83749
-0.467332
-7.70948
-50.2824
-8.7965
51.0308
40.5421
29.2715
8.14411
-6.06485
-7.41065
-9.8752
-42.2508
-52.9829
52.1767
65.8249
10.5992
-15.2935
-6.06548
9.64074
1.60871
-62.5722
-67.3672
36.7676
30.2665
1.68506
7.5216
18.6866
8.03385
7.09788
-4.54129
-26.647
16.0401
15.7572
-16.5437
-28.8431
-46.4168
-49.6865
-66.4499
-60.3255
-10.1909
23.031
39.5713
16.02
8.06108
9.40326
-28.804
-20.3812
54.7509
58.2283
57.4681
63.3202
42.5212
46.559
19.9453
-20.7097
-60.6778
-27.0258
49.6102
25.5281
-4.76868
21.4448
27.0594
12.5787
-6.41073
-31.3353
-54.3957
-28.696
-0.557008
2.07306
2.98572
15.6689
8.26147
-4.8475
-17.6919
-41.7083
-37.8945
11.4058
-21.5991
-20.6465
-31.252
-21.6814
-16.2128
-45.4613
-10.6613
41.0759
67.0914
33.8558
-8.4004
6.49173
11.1208
-25.7208
-59.0348
-10.6544
0.253834
43.528
61.2436
2.42381
-25.2751
-45.7652
-76.8627
-3.80959
56.5593
69.1984
29.1799
12.7518
46.4426
65.2823
31.673
-13.8238
-74.9065
8.20913
63.6132
26.2961
18.2598
11.2016
-3.94615
-35.8509
-45.7034
-55.4766
-8.71063
-4.77624
-30.4279
-23.343
-29.0135
-36.0512
-30.1812
-35.3835
-57.8734
9.67481
63.5474
31.8545
11.9405
4.36591
6.3292
16.1563
-11.0953
-10.5623
28.163
46.4316
35.7062
-6.97184
-10.2152
4.11291
-10.7793
35.0642
44.7013
28.4156
32.342
14.0507
5.58786
-42.4473
-93.9299
-19.6987
14.5108
-5.52726
10.6075
12.9695
-2.28259
7.59441
-53.8292
-94.7455
-13.3549
54.6898
40.5858
-11.295
-20.4565
-3.66909
14.6999
-12.8263
-7.00517
55.0071
79.8822
32.9067
-1.30248
-9.39094
-8.54265
-31.9818
-44.5943
-11.331
14.5322
27.162
-15.7607
-45.51
-14.4665
-47.6085
-59.7554
11.1196
29.9361
40.4698
46.1731
14.496
-7.52093
-36.3228
-34.8527
-43.1825
-52.1835
15.3526
59.3649
45.3684
65.9618
68.6017
37.3398
9.62873
-14.0946
13.7202
17.5945
-16.9672
-19.3778
-13.2043
-8.19663
-18.9662
-53.323
-58.3644
-9.64064
53.9216
56.7947
8.80551
-30.125
-35.8649
-15.6101
-20.8294
-48.2065
-4.12836
29.3097
28.8618
32.5994
7.6215
-4.76103
-13.65
-44.013
12.3634
48.5694
33.5719
2.28772
-14.2324
-3.46452
-26.6116
-48.6253
4.5415
-0.892319
8.07909
26.0279
6.18645
-7.40349
-46.0864
-51.2852
24.541
53.0653
56.0554
39.7779
-18.0061
-8.24119
-4.67283
-32.3606
0.307571
19.6711
10.0147
10.1163
-17.6639
-4.99733
2.81072
-8.64997
-50.9122
-71.3979
40.4054
76.2265
24.3215
6.8675
-0.486648
9.93971
-9.36317
-40.6487
-26.1954
38.4051
25.8991
-1.46419
-3.5341
2.3967
-1.45259
-4.23571
-11.015
-43.6108
16.7371
48.497
-0.765199
-14.3614
-27.7339
-28.4676
-27.0289
-30.5156
31.7705
58.5968
35.9891
-2.07267
-18.631
-12.3418
-30.313
-27.1345
-3.30495
-1.44941
-5.31238
16.7233
6.36295
16.6913
3.31142
-22.5535
-4.28183
34.938
43.739
52.5914
20.4794
16.7736
-3.88959
-30.4862
-53.4422
-61.5078
15.5977
15.4611
-6.8361
-6.50989
12.9916
32.4883
12.1146
-33.6282
-29.4517
34.8509
26.2799
7.85366
3.52211
3.06808
-30.7438
-53.3876
5.06998
12.5849
-0.521265
4.48612
-2.46893
-3.05772
-36.0627
-58.865
-1.91638
14.0093
18.696
37.5342
27.6096
-9.19449
-67.9842
-81.5873
4.23136
53.7586
47.8974
52.5428
28.4162
28.8846
45.4567
20.7085
26.1072
41.9717
14.401
10.0227
-22.9083
-30.2658
-41.2151
-26.6957
-35.9875
-46.4349
24.9455
30.1584
-17.4601
-41.6438
-40.2233
-18.2659
-45.0674
-63.0537
-18.7751
39.0924
21.3261
-9.03081
0.0112017
13.5797
1.53423
-25.9039
-20.7364
37.0959
38.813
47.7166
41.7489
40.6463
15.6092
-27.1618
2.79465
55.5748
36.4945
30.0079
17.3132
-1.38623
-40.9306
-89.1398
-56.9639
18.1566
21.4779
32.0915
31.0942
0.102077
6.53856
-3.43054
-53.9102
-23.3154
12.1427
33.7718
22.4744
-4.551
-6.08518
-15.0432
-32.3866
-63.7762
-26.1304
9.61259
-7.19575
-39.8815
-34.1803
-11.916
9.53318
-9.25931
-2.88622
48.5147
67.5654
47.8701
23.6634
34.5137
17.9349
-44.5897
-19.1612
14.3832
4.55624
8.85244
-15.3531
-17.7262
-16.7079
-54.1583
-47.4657
12.2869
20.299
30.7818
31.4264
16.2733
17.5538
3.43797
-30.6712
-56.9005
-3.10704
50.8321
35.7792
11.3722
3.40358
29.6862
37.6613
-13.1065
-48.2961
24.9352
47.9439
4.59655
-3.58773
-6.66651
-19.2363
-39.6938
-39.3608
-53.4826
18.7434
41.7097
-5.01841
-30.6961
-51.9144
-56.1398
-51.5422
-58.8073
17.6623
65.0413
83.9152
53.4462
30.0157
14.9725
-14.0561
-9.64398
1.32331
-9.3462
-3.47079
22.8703
15.2815
8.29852
-46.0608
-4.11114
16.9122
29.8745
33.9407
28.2508
-20.5724
-34.5144
-68.1688
-47.8005
-9.48569
-3.96792
5.5594
5.73443
13.5476
31.5948
5.31134
20.5222
33.676
34.5532
38.3159
11.5754
7.67859
1.96044
-10.4187
-41.1296
-26.3423
-10.6034
8.07489
-32.1474
-42.7007
-35.7573
-38.5146
-64.331
-51.0323
-16.9026
35.73
32.7244
29.4489
60.3402
98.5446
82.9327
24.4473
8.6061
46.4921
39.7432
-18.7698
-35.386
-31.8681
-44.3934
-82.8435
-58.7806
-4.76878
13.5771
8.54817
-6.88616
-5.3539
1.72101
-37.732
-43.2984
2.19811
11.124
33.4648
19.0408
-12.5208
-4.37971
-26.5368
-8.42621
39.5609
35.5904
40.2843
19.9526
3.67915
22.9282
30.128
-5.69795
-11.5823
27.3709
24.069
8.90505
-32.1058
-44.2792
-36.9866
-56.903
-34.45
33.8568
37.5305
24.5766
-2.09176
-10.8953
-0.640397
-25.6751
-7.12352
22.197
3.61245
4.87845
2.91721
-18.2299
4.01175
10.4484
23.002
28.8375
11.615
16.7173
0.265608
-21.3906
-39.3018
-94.0895
-36.9865
15.4341
16.4565
39.4112
24.6291
3.43067
-6.02538
-8.63863
-18.6862
-5.12845
14.3758
12.8456
-2.674
-2.00155
18.4168
34.2244
16.3015
-38.5871
-9.03401
31.6799
-16.8614
-35.9287
-8.56906
11.3289
24.9207
10.4099
-22.7858
-14.7153
45.7374
25.878
4.17736
1.33463
-16.5577
-29.3515
-45.8699
-41.4016
26.0823
51.9047
34.8919
22.7918
9.62408
-0.268968
-41.6595
-21.9292
-9.92242
-7.82059
10.468
12.1773
-13.6781
-27.5691
-64.1925
-24.1157
39.4427
32.7433
47.2028
49.9882
4.43177
-5.1921
-19.6388
-40.3125
-30.0326
24.1267
34.5231
25.4576
13.5845
17.5954
17.8726
4.84355
-31.8143
-13.1247
43.7309
32.213
-16.2685
-37.2677
-25.3485
-23.942
-75.9708
-80.4991
33.2515
54.288
26.5471
-17.4144
-5.58131
-20.936
-50.7625
-30.7411
10.9147
9.6574
28.8782
39.9527
37.2892
9.88037
-50.262
-9.61247
50.8021
57.3306
44.2475
32.427
-14.8308
-6.72814
-9.61115
-33.4661
-39.3397
7.41301
23.3272
10.9633
-8.95009
-10.5505
-8.7742
-11.3401
-21.4511
-42.297
22.7796
49.363
17.2221
-11.3306
9.26556
20.371
-5.93827
0.825779
-29.6167
-41.8831
12.0958
-11.6695
-1.54081
5.22907
-2.12952
1.17763
-25.3464
-33.1035
31.1724
45.256
16.5128
-21.102
-35.953
-27.0568
-49.9869
-30.1664
27.79
20.8208
31.3614
32.2969
8.61125
-3.06764
-23.9017
-17.4455
42.8636
45.9463
51.9949
43.6943
10.4682
20.5449
-13.238
-39.7716
-1.60513
-5.25071
16.5204
19.3569
-25.9109
-25.9378
-40.5739
-18.0256
-21.8096
-28.8463
-9.62133
13.7166
19.4438
19.4569
-7.34482
-33.921
8.52901
3.60239
11.4901
10.9984
-15.5289
-10.2493
-24.0192
-37.9529
-35.2534
45.6045
53.9135
33.3929
30.6236
24.8988
6.73073
-17.0284
-81.2427
-50.1529
37.1291
36.8725
-3.15861
-5.07703
7.94058
17.776
-35.6539
-18.9834
15.7273
28.3129
13.7271
-26.2889
-12.7477
-23.042
-71.1747
-15.1405
57.9246
56.505
61.4715
43.7673
6.00177
6.1448
-23.2546
-22.1688
29.4721
14.9192
16.6103
-1.38752
-3.67187
-10.0862
-31.0743
-65.95
-42.8905
-8.49393
14.2097
-0.157688
-24.4038
-15.9304
-4.81682
-34.9963
-31.6515
51.2495
47.6826
47.6359
12.8515
-2.96609
3.84624
-21.2508
-24.2029
34.495
28.2386
25.412
8.49918
-14.3707
-6.21594
-48.0737
-22.2703
1.43071
1.83021
17.698
11.7133
-20.7695
-25.4059
-40.3551
2.7939
39.4745
36.5979
40.7443
39.1719
0.905138
3.41863
-12.8498
-69.0836
-3.38622
35.7002
37.1452
-13.8224
-34.357
-31.4434
-16.939
-13.4481
-46.7559
31.7865
67.7868
32.6543
7.60189
2.18087
-12.7285
-27.2255
-103.149
-59.2448
53.2082
82.2027
27.8654
9.40628
35.4974
26.4405
-27.7302
-24.2683
10.157
8.22112
9.83801
-18.2293
-10.3159
-27.0451
-70.3385
-36.5961
1.74434
8.92505
51.9994
37.5089
-20.3863
-33.9658
-85.4149
-26.6766
16.3195
22.4124
44.2627
33.3191
12.4514
19.701
23.0506
-14.9222
26.5916
42.2925
47.6156
29.7617
7.91422
-1.47634
0.395748
-14.1087
-63.8568
-34.719
27.3706
-10.3075
-26.288
-14.3862
12.1514
12.3548
-41.828
-44.4027
22.1794
26.7733
-6.32587
-23.1973
-5.96757
-1.33787
-31.4682
-14.8105
30.4681
15.8324
25.7868
39.045
16.6213
-20.1234
-77.7852
-83.0418
27.6213
51.6082
61.7001
50.8156
15.6301
18.5668
14.6771
-0.213269
-39.4895
-53.8802
24.688
26.1071
1.12608
-6.43876
-10.8938
-27.6307
-56.9889
-80.9894
-16.7818
49.2372
9.12525
-2.00652
11.8298
14.4394
12.6035
14.3907
-17.5068
-21.4784
52.3607
52.9691
24.7629
16.4821
4.6903
2.65441
-15.6706
-15.8473
-1.3908
3.09991
-5.09944
-23.6638
-24.1168
-10.667
-41.7642
31.9981
31.9218
14.2581
12.8057
18.0292
-2.19013
-22.5789
-57.1324
-7.0764
8.06673
10.3739
16.1501
9.8639
6.46476
-9.55011
-54.0917
5.59833
12.5423
2.61324
23.6867
-13.6424
-26.1646
-21.9621
-34.4222
-26.6585
71.8736
83.6915
73.8926
14.6017
-13.6714
-19.4573
-33.4724
-60.007
-11.127
13.9507
31.2641
-19.9704
-49.7856
-26.3165
-3.71037
-64.6342
-51.8539
63.5533
113.048
106.484
18.0746
-11.6958
-22.5339
-26.4778
-43.3562
-60.092
14.5843
35.1172
-12.1611
-4.37178
11.0685
0.349329
-16.4907
-42.7128
26.4084
64.6669
49.236
0.249431
-6.81026
-13.2414
-33.463
-53.9862
-9.32151
32.7468
33.4389
34.0043
4.77008
-4.98942
-24.0118
-20.9039
-38.197
-23.6018
28.6335
42.0032
4.63909
-1.35314
-0.779154
-30.9708
-30.5257
-34.7512
-7.23653
29.9657
9.84844
-25.9833
-10.188
12.1729
-5.81417
-41.2594
8.97638
36.3572
47.3632
36.6291
11.0043
16.9846
-15.2731
-65.9232
-1.02502
42.8699
35.39
35.5036
8.52519
10.8056
2.08702
-41.215
7.28348
22.3207
17.1546
37.0073
0.0609322
-30.8345
-44.1559
-96.86
-104.757
-25.1374
45.9462
57.5671
20.282
-15.5065
-8.70744
10.608
-11.9827
-49.4749
-18.1603
56.3739
41.9471
37.4527
42.0127
51.139
15.7576
-7.21355
-32.7109
-44.1889
17.5425
18.6508
-18.4146
-4.99484
-22.4611
-21.6911
-7.03945
-35.4318
9.98084
34.6599
16.7584
-17.0776
-35.5805
-33.431
-60.6143
-64.2443
15.5638
46.2846
49.4418
63.9095
16.7853
-18.6879
-17.867
-14.7914
19.939
13.0305
10.5883
30.7928
14.7744
28.5705
25.9969
-27.5399
-15.9478
29.3862
28.7467
20.9149
-26.5341
-35.9994
-10.3661
-7.8355
-73.0368
-14.5959
2.62425
20.677
6.1571
0.204691
9.30913
17.1723
-30.2899
-7.69737
6.3101
21.8253
12.6995
-12.3639
-11.2683
-3.34928
-43.582
-8.49983
37.8691
55.8766
61.5535
2.63274
-18.9305
-32.1113
-84.3485
-37.828
21.2202
28.4107
31.414
2.62646
-11.2538
-10.9786
-43.6343
-53.3292
-5.02507
9.57302
19.565
10.2594
0.914793
12.5868
37.4571
34.1797
3.95358
47.4341
77.2483
34.1886
-9.32098
-15.3049
-9.77472
-32.8485
-73.3104
-87.9569
-21.7624
46.1018
27.1839
9.41286
-6.54737
-27.5833
-30.0321
-33.5541
-27.4564
-1.99838
17.687
10.995
16.5228
18.3388
16.6566
-10.9992
-7.5435
53.2291
62.2178
65.0261
31.1473
-14.7193
-38.6843
-57.7204
-29.4067
12.5296
0.374528
10.0808
18.1173
-5.01868
-5.81474
-43.8901
-22.4248
8.12318
0.288406
20.4401
21.0563
-16.8478
-5.24168
3.53449
-30.9619
-18.3808
14.299
26.36
30.247
11.0541
-2.81281
-6.54444
-36.7145
-58.612
13.3744
49.3689
17.9299
-4.32986
-5.16608
5.89897
6.99174
-18.2737
20.6218
38.3787
43.037
6.45012
-30.9134
-35.2277
-58.6399
-118.106
-35.2366
8.57014
17.0884
21.9289
-6.26522
0.149322
18.6774
-7.37522
-11.5257
45.049
75.3398
60.3487
23.844
6.13332
6.05954
-3.56862
-26.2967
27.1058
36.1484
45.7367
-2.4952
-23.4045
-20.6235
-20.1205
-66.7695
-89.9401
-9.606
37.5276
30.7174
11.0266
10.021
23.047
6.01696
-7.99772
-34.591
-25.184
21.6532
-7.67005
-14.7913
-8.19731
-22.1968
-20.263
-35.3935
-31.2105
51.9745
58.8921
14.968
1.89322
9.35992
-3.5018
-42.9175
-36.7567
21.7211
19.7908
24.1516
7.77109
-1.02601
-0.931756
-37.3309
-53.7628
32.754
36.8574
46.7729
38.3467
6.50075
11.5986
-28.5153
-27.432
11.0071
9.75794
19.6039
9.09688
-14.4008
-2.54272
-3.8163
-43.9385
-45.0158
14.6124
27.5329
36.062
-11.3993
-14.7106
4.34235
16.6258
-37.7236
-67.3965
-8.82795
28.9934
24.2946
23.241
29.4007
24.2247
1.00801
-26.2491
-29.79
50.6384
94.9283
37.2581
24.3078
-6.51594
-62.8632
-71.844
-81.6683
-55.7112
-2.22744
18.9006
-1.74757
-13.7679
-16.6885
-23.7929
-44.3989
19.1456
17.1095
27.7917
32.2377
5.93644
-18.7595
-45.5007
-45.3412
40.9139
44.1447
48.7451
62.6028
43.7247
26.7378
12.6573
-28.1133
-25.1238
10.2446
6.876
16.1933
-22.2931
-27.1859
-17.3695
-5.60247
-22.6203
-31.4204
30.5406
44.0477
16.7326
11.9587
10.9376
18.0564
-22.2803
-30.3199
36.074
40.5645
11.3172
-24.0233
-21.9
-14.4545
-43.053
-71.4929
-13.4099
-3.29438
-2.86153
-12.9339
-43.0911
-32.0765
-50.3121
-52.0684
32.0753
56.1603
66.9651
58.8194
40.6071
44.293
0.771527
-36.3358
4.46889
47.1883
39.1136
43.0732
8.68251
-4.33004
-16.2098
-28.1668
-66.1846
-40.3114
-15.6688
-9.60279
-42.3075
-42.8822
-17.5443
4.88693
-21.6872
-47.0955
6.27582
80.2207
75.3107
57.6539
51.7732
41.4348
19.4328
-0.995118
-15.8751
6.58043
52.333
23.6736
-9.76772
-9.23094
-21.2486
-22.0437
-66.6532
-5.77379
8.01773
7.39867
3.61466
-18.4661
-25.9573
-41.8807
-74.3449
-18.8785
-14.3013
-11.1026
11.5091
6.39547
-5.43168
-21.697
-29.8518
18.821
15.671
-2.24153
19.3945
-5.90153
2.11938
18.8146
9.13816
-50.9335
-12.9455
73.4248
84.0048
46.8945
31.4195
28.6004
27.5757
16.909
-18.4879
-13.3673
8.63207
-20.0666
-27.5741
-15.45
-2.38821
-17.3131
-68.5937
-48.8947
19.6565
42.791
14.2909
-41.1861
-39.7747
-47.5606
-68.6919
-64.888
3.26272
38.2449
52.027
68.4751
62.3419
49.2736
32.8555
25.5852
-4.73971
18.4269
46.9764
21.3606
-24.259
-22.2562
-22.8482
-44.5947
-78.7239
-39.1494
19.5717
75.7475
47.7087
18.0023
6.81923
-18.372
-35.7008
-63.5872
-81.5414
-6.197
53.9444
16.5147
10.2315
11.9556
-0.773317
2.17272
-1.78399
-23.1208
54.86
44.2297
17.3236
-20.5298
-41.9321
-45.0012
-46.7329
-47.8746
-15.4687
-5.83254
15.9091
0.224754
-3.38951
-5.14725
-15.2085
11.6854
39.4528
47.8588
49.8647
57.7227
50.5606
26.8859
-6.54964
10.2977
1.4594
-6.05549
14.6815
18.4286
-27.972
-50.008
-75.3063
-40.2158
-1.92234
41.7984
41.1262
22.8158
1.84862
-3.31289
-11.5328
-41.6301
-35.9419
4.08295
5.62555
-17.7912
-20.2972
-6.10838
8.56036
-7.63181
-55.4983
47.16
78.3212
18.4689
-7.77505
-22.1868
-1.54221
1.13663
-9.16011
-25.7498
-41.1882
32.7745
35.6411
5.39129
16.9712
-1.61599
-20.3504
-61.5051
-121.797
-18.5885
45.1839
3.32338
-5.76016
-20.0353
-25.1538
-29.2205
-43.3522
36.7966
79.8508
93.3486
103.609
78.4421
63.2787
34.7653
-32.2017
-48.54
-4.52672
14.8194
33.4515
-4.60981
-18.495
-34.1205
-16.2696
-10.668
-35.5906
-48.8244
52.9957
18.0283
-21.9376
-31.5627
-24.2446
-23.0772
-29.166
-25.5837
43.9998
24.6498
-16.9723
-2.91654
11.4331
-28.0617
-54.9576
-34.5553
11.4843
25.9487
41.9875
58.5708
33.2014
1.63216
-21.4869
23.0209
17.3035
-20.8452
-29.066
-22.3368
-16.5143
-9.07672
-12.3702
36.2708
36.9629
28.2282
30.6485
5.77288
-26.0075
-45.5193
-59.3649
-37.8862
-18.3992
-23.308
-2.27738
-1.1234
7.21292
16.5583
11.2356
-37.8001
-53.6751
40.5722
101.556
54.1739
38.4315
35.4639
27.8196
4.2194
-18.8035
-36.6172
1.82758
9.13624
-8.94085
-14.9934
-23.9917
-33.3898
-33.214
-19.8625
26.0807
61.2387
76.6895
43.9173
-2.17636
-12.6739
-8.5939
-54.6547
-37.7784
14.4651
11.6993
20.4794
-10.3529
-43.5469
-80.7922
-104.661
-25.8237
45.6801
63.4053
49.4528
8.39371
15.4815
32.0092
-15.0458
-76.0355
-23.4847
16.6773
32.8868
22.9042
-9.76438
-17.8347
-11.3011
-44.2949
-58.6626
33.0412
74.295
34.7354
-18.8233
-28.3417
-6.84985
-2.6904
-12.7012
26.589
28.3198
35.7552
20.9542
2.7356
36.4103
40.9777
27.9481
30.6619
2.54699
15.9502
15.9115
-25.1532
-37.8064
-102.346
-111.698
-13.4613
55.6379
96.4274
92.9291
52.7963
14.7379
-26.3302
-68.3704
-85.934
-37.3415
-30.7793
-54.8443
-56.528
-29.6588
-23.5366
-10.9421
-34.6311
-50.3732
19.0667
50.2353
29.2087
22.8082
4.45719
-14.0726
-26.4066
-7.36472
-32.0712
13.2024
72.0661
31.3687
23.9586
12.9948
-8.60565
13.2248
32.3914
90.008
110.945
106.033
53.0922
20.7488
-0.242487
-3.54826
-15.4312
3.56385
-26.8591
-49.8723
-27.0986
-51.9314
-58.4525
-60.9764
-77.388
-14.9135
39.1014
20.8929
18.3925
-15.2932
-34.0574
-12.8853
-33.2853
-48.7771
-41.6324
0.113027
10.097
65.2055
124.34
58.9899
19.6465
-5.83648
-56.4136
-45.0252
-22.1618
-1.93261
4.64868
-21.1725
5.85856
15.7118
-35.5899
-71.8282
-27.3931
24.1449
18.2575
-32.0972
-35.9007
-27.6696
-53.2176
-60.6927
26.6153
24.5883
56.2334
71.2821
80.4119
75.4852
57.6827
41.7664
106.888
82.1487
30.9822
22.9645
-2.73296
-35.5115
-78.1997
-110.458
-62.7972
-46.1444
-28.0341
-13.9978
-21.4294
-21.3051
-46.9888
-81.2811
-59.6433
-14.6023
67.8903
80.7061
18.8317
4.09956
-7.66142
-49.2069
-26.6754
52.0878
71.5641
62.0547
12.1609
-15.8458
6.08317
32.8852
20.9669
15.6525
31.2198
80.5923
35.1552
-1.57835
-17.2705
-42.4506
-59.0858
-72.6856
-62.4832
23.7652
26.8297
-18.5885
-2.71376
8.06258
-9.006
-16.5629
21.1445
11.3142
5.41354
22.8078
-36.2081
-93.1338
-103.499
-68.258
8.82074
46.8958
57.1381
43.7484
29.874
8.20156
-27.1054
-82.0298
-42.9626
5.25636
25.589
-1.75073
-54.8565
-41.1703
10.1063
40.0226
23.4975
92.141
115.41
75.947
61.9105
46.398
8.42002
22.2074
-1.68947
-6.00609
39.6333
27.0462
-27.1441
-54.1213
-38.9417
-13.6057
-33.7071
-89.124
-59.4186
-47.9012
30.328
24.5619
43.0167
89.109
37.2866
-30.3104
15.9769
28.8255
22.3197
-50.827
-97.3073
-43.2304
-17.5492
-40.8451
-1.10599
60.9438
72.1909
6.64945
-79.8583
-81.2057
-29.2001
-11.624
-31.8125
-57.5779
-48.1293
-29.1796
-18.5734
18.7838
39.7957
51.7156
39.433
1.03497
12.2782
74.6464
48.2676
0.0680424
6.55531
62.9021
82.279
52.2773
-15.7006
-25.4372
-19.3069
-37.1728
-12.5012
32.4597
-15.0423
-74.484
-99.1488
-54.1857
-24.7648
21.3132
77.9402
37.901
-1.36213
-15.5191
7.70081
62.4757
42.9123
59.6129
142.109
186.002
137.657
-16.1555
-100.088
-94.9858
-43.5296
-17.4478
20.9622
43.4718
-7.07272
-90.2403
-116.777
-96.6866
-118.023
-114.951
-119.397
-77.772
-4.11337
-37.6516
-186.43
-194.238
-53.5057
94.8538
136.582
113.791
93.8284
64.3415
-34.3012
-53.0084
71.5584
144.603
116.59
81.0658
59.4004
67.5144
47.0975
-45.2467
-71.5278
17.8036
125.267
113.724
68.3689
78.5569
49.1515
9.2814
-63.9436
-63.097
5.20507
-15.9637
-74.2577
-83.8338
-56.6178
-3.89103
-50.2436
-29.5887
72.021
59.6053
58.7207
-26.5034
-97.9973
-155.189
-270.674
-278.297
-105.084
-35.0839
29.3506
127.772
235.367
179.031
55.8359
8.20897
57.1643
228.065
300.088
209.28
91.2642
56.0379
-10.1746
-78.6442
-186.647
-261.7
-124.737
-83.0933
-131.584
-161.832
-178.39
-175.122
-241.302
-182.398
-64.0518
13.1755
34.9564
-2.4344
17.6518
-26.7542
-61.4048
58.2965
79.2253
72.3301
179.651
268.048
259.858
262.823
150.323
145.635
137.532
76.6313
128.833
182.278
179
95.3347
-62.4636
-108.029
-83.1549
-36.6344
-44.3045
-117.231
-137.245
-109.606
-120.967
-203.529
-200.451
-98.3565
-86.3036
-33.967
-41.1194
-41.3887
-31.7914
-28.9671
-66.4006
-141.441
-99.1149
-104.259
-78.2439
49.545
234.578
240.456
118.486
23.6319
-5.58344
120.256
105.429
-31.4852
-75.8825
-102.534
-73.9495
-24.3458
6.29116
40.4505
45.2679
141.821
133.957
100.073
63.2053
-25.3314
-128.677
-33.625
31.0221
42.4598
-9.59132
-86.7236
-79.5258
-17.6367
20.5909
89.4428
102.57
69.5093
37.2932
34.9497
69.2803
44.2471
-53.6329
-227.9
-178.37
-91.8015
-127.311
-176.254
-89.8923
36.3502
129.696
116.067
55.8064
113.248
153.156
25.8416
-63.8021
-66.7091
-36.4518
-77.9198
-99.3376
-3.94158
83.37
129.822
75.7745
16.4018
55.8279
26.6435
-13.2012
36.2405
21.6339
-11.3182
-20.973
-60.1505
-40.2214
15.5871
40.9397
52.9506
76.7833
12.3384
-38.5402
-103.147
-101.117
-99.0095
-145.982
-156.126
-44.2286
3.65927
-4.50729
15.2766
110.466
134.885
110.506
51.1079
-25.7595
-14.4855
73.6593
39.5144
-16.2773
-21.6326
-31.2644
-52.6696
-63.7783
-52.0572
-44.9408
36.6685
26.2559
81.6239
116.302
111.233
70.0984
-28.1868
-22.7136
75.2089
133.852
57.6857
-59.2489
-98.5934
-115.05
-100.603
-69.8894
6.09094
10.1679
-8.73031
-28.6555
-75.5512
-111.518
-137.776
-82.0233
-0.457762
-1.29556
51.0334
79.7749
39.1505
36.3964
-4.73972
-1.69766
108.253
74.3883
64.7288
68.8622
40.5541
33.6928
30.5951
33.1202
-15.0105
-8.13463
1.40539
-9.24559
-70.2481
-69.8579
-21.5999
3.36289
-54.9255
-68.2185
27.3687
83.0842
58.2549
48.5806
30.3581
4.7913
-82.9523
-75.3876
-61.4209
21.6701
26.1775
-21.3327
-42.3641
-44.0858
-32.4568
2.32383
-49.1897
-33.6254
69.2316
96.7244
52.8015
15.9346
2.29049
5.75472
-32.7121
-0.109834
27.1384
5.61328
7.58997
-26.4037
-19.9734
-44.8141
-112.166
-81.7883
10.8813
95.129
113.095
54.7529
-3.77804
0.884417
7.33012
-57.3077
-104.287
-67.0651
-43.2086
22.1512
124.84
149.491
148.005
67.5788
63.0646
62.9902
51.2669
-2.42071
-83.3467
-134.421
-118.246
-138.283
-68.3028
-12.4615
-2.08903
32.0775
-5.9904
-37.4238
3.18175
-41.3551
-27.543
-22.7662
-39.5025
-8.64793
8.10167
21.8466
48.21
16.5987
67.5303
88.1361
103.721
102.702
27.784
-9.48938
-18.5597
-33.5388
53.9176
36.989
11.5718
-23.0436
-74.6215
-95.4013
-83.0715
-74.1467
-64.998
-5.93115
63.9619
77.4037
14.2665
-13.5476
-10.2653
3.79814
-9.33998
-37.2216
-65.4749
34.0587
33.4236
9.98145
15.2294
11.4036
-6.45064
-8.77333
-36.4113
-43.718
31.1189
20.2523
2.69286
25.0719
18.6053
-14.9266
-25.8352
-4.41157
83.7706
69.7918
74.5963
28.1008
-22.9876
-13.4223
-50.5642
-47.5652
-6.27844
26.8754
42.4474
25.3252
-35.6157
-64.5339
-101.649
-78.2121
-37.3015
24.4509
29.1377
34.5472
-9.07653
14.6638
32.7209
0.750879
-68.1623
-22.0371
66.1803
64.5614
20.708
-6.19487
10.9631
26.9036
25.291
123.642
134.323
83.887
6.47527
-59.8193
-73.4804
-109.617
-146.279
-99.9094
-49.3885
-46.2188
-27.833
-27.1034
-23.1604
-32.5145
-52.1538
23.5778
45.3881
81.9489
73.2656
-11.9783
-5.49759
8.74018
-34.7416
-18.8344
63.6207
86.0025
67.1598
21.5552
13.8962
34.3033
37.5129
-8.82573
-10.9487
91.5773
113.604
37.9297
-69.942
-125.127
-122.108
-98.3993
-85.3099
-36.1496
48.131
43.2212
23.0059
49.21
52.0307
30.4945
16.6567
-12.5969
-20.8503
26.2977
-8.0057
-64.1693
-66.3849
-63.0253
-4.22594
-3.56237
-28.5008
19.5244
41.9922
30.2285
10.0867
4.35855
-15.0852
-39.8233
3.21085
56.0135
56.8734
51.1977
-2.97402
-50.9168
-31.7148
-59.3493
15.4661
48.376
67.2358
60.2872
21.3614
-49.6897
-70.3741
-122.587
-121.277
-18.8784
43.4185
64.2349
39.3838
15.6656
39.8416
69.6077
54.9564
16.9087
34.8724
18.4556
-28.2008
-56.7911
-55.6338
-25.3503
-22.28
-41.4076
8.68053
42.0638
59.436
30.2846
-5.41684
-17.0964
-86.1856
-98.6422
0.867836
46.2698
100.596
110.105
64.5742
12.4206
-38.5999
-30.7589
-67.3082
-37.5922
0.337485
-18.276
-24.2669
-0.891903
-3.51394
-17.5374
-71.56
-45.3457
24.896
36.6317
-12.7695
-36.7291
-28.7897
-7.93829
-12.2668
-35.2932
23.3393
157.858
158.541
99.8047
41.8928
-1.64657
-31.348
-37.5946
-94.5513
-43.0657
36.0217
17.1438
10.7444
15.3422
-2.6179
-8.41513
-44.1187
-65.3547
1.57387
17.6384
-6.25091
-87.8344
-68.1079
-64.0004
-87.8839
-66.8206
-39.2728
-13.489
65.3431
92.6101
118.365
117.823
72.8267
83.7585
65.2431
48.9089
46.7875
65.962
56.5573
48.4129
-25.9654
-49.2315
-89.1043
-110.918
-90.0626
-69.2833
-47.777
-21.116
-63.5695
-89.2556
-66.2884
-48.4729
-8.57619
-21.5565
-22.042
-7.26544
10.4866
-18.0855
-80.1754
10.0242
112.052
73.6796
98.9461
122.733
120.292
91.4455
54.242
9.24252
36.7992
45.1986
-23.0434
-33.5102
-22.6927
-47.3181
-57.8195
-72.5718
-2.20742
80.3237
87.4531
21.8727
-20.5668
-31.0433
-84.764
-140.449
-11.6876
15.5157
5.05468
4.38674
-11.8146
-63.3625
-64.4728
-48.5028
23.9873
40.4488
51.7626
50.3965
7.64842
-49.3773
-60.4537
-82.9311
-113.231
-4.56068
110.808
121.4
51.7254
30.6094
16.8459
21.7975
4.46131
-59.2716
34.2529
79.3919
39.0231
23.8983
1.79948
12.2691
2.76735
-54.6269
-28.9232
-9.74178
12.0638
-33.6431
-62.4078
-35.9596
-58.9864
-58.2864
-2.11066
27.1667
61.0342
104.355
76.9553
38.6473
-26.8959
-31.1885
17.9971
9.69467
-4.67643
13.6907
-1.36016
5.46842
-25.1104
-65.4698
8.193
-1.24903
-20.5719
-21.4526
-51.4624
-47.9478
-25.9977
-33.6984
-74.1599
12.1013
89.9673
64.4701
21.1039
7.63973
8.38486
7.89853
-8.0988
-53.7034
56.5291
108.044
44.5069
11.6315
-22.5693
-30.8863
-28.5931
-21.6386
-54.2999
-11.2721
28.1079
-2.93565
-25.0012
-15.8041
-3.35714
25.2105
9.48172
1.11064
32.4462
23.5037
-16.7792
-31.1767
-40.2237
-19.4863
-40.4137
27.6941
80.4104
59.3454
51.209
33.7856
-1.29705
-29.6581
-58.9179
-56.2956
-10.9618
0.449903
-0.0196093
7.14178
-5.60232
36.1688
34.5743
-18.1244
-74.4451
-26.1832
43.1739
4.33919
-28.1892
6.99211
45.8097
49.1261
-3.64372
-44.7045
25.3405
44.722
-7.97791
-13.0974
11.3909
3.29869
-38.2882
-47.8559
3.21689
1.62224
20.5293
7.63834
-10.999
-22.4174
-57.5038
-123.575
-54.8531
19.0296
41.0551
61.2296
38.5192
29.2704
27.7635
18.271
-49.0815
-7.43446
59.3658
71.3129
21.7462
18.221
15.1901
-8.71085
-45.7856
-40.8005
36.2376
77.6915
26.8548
-35.1696
-34.4101
-31.678
-42.2894
-75.4798
-60.5881
34.8595
84.6139
47.897
14.2909
22.2692
0.888077
-7.74167
-58.7339
-13.4893
17.1463
-4.85131
-22.94
2.05711
-20.9473
-58.7706
-55.4093
-15.3584
-14.4149
42.2423
44.0105
-9.1107
17.3419
5.25007
40.8967
109.02
81.7465
43.3696
21.605
-30.4591
-52.7647
-100.035
-108.768
-27.5885
-20.3757
8.343
46.2762
19.8746
1.14532
-32.4865
-14.8558
27.7853
36.039
48.3473
9.95711
-54.9418
-64.3747
-43.0685
-47.1091
-41.1687
49.8331
105.72
96.3665
59.7347
38.5831
21.3645
-10.3464
-66.823
-76.9653
5.36195
76.2336
36.406
12.3611
-7.17674
-26.5821
-49.4244
-81.7307
-69.4929
46.4594
39.3326
-22.6545
-14.2174
-13.1508
-25.0795
-43.017
-16.0697
45.788
45.0652
40.7662
21.0039
-0.610162
13.8288
-21.379
14.7708
51.9434
33.1376
26.086
23.762
1.60599
-2.26547
-42.7566
-31.3575
-37.3582
-40.4336
-1.08315
1.99045
-25.8362
-7.79837
-3.55124
-48.6925
-52.4243
19.4604
26.0594
-12.1827
-34.4313
2.25325
42.4568
34.0422
15.6138
75.6495
105.982
39.458
-6.94325
-41.1208
-51.6867
-73.245
-76.5142
27.8885
58.4229
64.2976
14.4815
-40.851
-3.85134
-21.9752
-39.5881
20.4522
18.8594
7.99028
-6.00451
-51.3532
-79.1888
-90.4622
-80.1842
31.8933
52.7548
68.402
86.4834
57.076
35.8363
10.483
-16.9152
16.5649
32.7997
22.3436
5.9672
-38.7191
-46.9332
-22.6568
-4.23848
-55.3207
21.5701
66.819
59.8294
7.36749
8.61794
-3.56127
-35.3825
-119.647
-98.6941
59.5321
84.0517
28.7558
17.422
28.5509
18.5527
-8.35817
-58.691
-103.035
-23.8746
14.3846
-12.1778
-13.1513
-11.5533
-27.7667
-33.2826
-3.20957
65.1016
121.45
114.713
13.2262
-25.1151
-54.7472
-82.8232
-108.219
28.1929
61.1386
72.4381
80.2691
13.6187
-0.638254
-46.0825
-56.0446
6.81149
-12.3977
-0.0723426
-10.793
-40.17
-38.9625
-22.8296
-48.1292
-26.3061
54.3761
96.9615
127.057
54.4906
6.61942
-4.78148
-18.1664
-76.8422
-19.4072
19.5813
6.07292
-16.3305
-9.69477
-15.9361
-44.1284
-56.2378
0.716445
24.1662
37.5192
26.6841
-16.1095
-5.53683
5.65573
-65.0947
-42.5609
21.4473
30.5421
33.2992
-2.85533
-30.7522
-32.3331
-33.1174
-27.2689
0.888011
52.8049
63.8568
11.4526
-4.03796
2.82994
17.6244
-0.896886
-27.3338
22.0374
77.7823
51.1765
2.80395
8.206
17.9167
-7.06803
-21.7702
-34.3092
-66.4271
10.9069
25.5192
17.6023
3.15698
-20.5098
-33.193
-53.8418
-48.6765
30.8754
60.01
43.4471
-5.31549
-54.4587
-52.9852
-42.7633
35.0273
54.6916
35.6116
40.6054
34.8274
-12.3687
-36.7795
-89.9153
-41.3996
-9.53471
-1.26965
11.2147
22.4037
-19.5281
-53.1561
-85.9574
-36.1613
33.2627
38.6087
38.3215
8.8236
34.4166
56.527
33.7311
51.6178
61.5933
38.2224
40.2838
5.70055
3.44502
8.84636
13.1001
-19.0001
-34.8852
55.027
54.8528
-27.9271
-59.2102
-58.7971
-41.0412
-46.0896
-112.2
-134.712
-26.0714
25.3938
-1.2821
18.1272
40.8367
28.9814
16.7479
-12.1566
-15.877
55.5462
63.5479
13.6559
9.07946
-2.63821
-5.28229
5.67562
-15.8433
3.7215
37.1334
47.1439
9.52306
-16.7382
-21.4362
-39.0817
-84.3158
6.61758
10.2431
-2.09218
12.5097
24.4708
28.0317
-7.07564
-72.9628
-12.5465
32.8043
38.104
47.1346
35.6689
24.8504
14.9098
7.64264
-35.0388
-50.2085
35.0525
63.1163
17.2889
13.0771
8.88355
-9.90485
-68.2531
-51.6666
-10.3707
24.3881
-16.2002
-34.1112
-26.5677
-32.547
-76.2481
-11.8852
5.44163
-15.3226
-13.4038
-4.45883
-4.31557
17.0348
-22.3104
39.4526
39.553
37.5383
60.1215
44.162
-6.57565
-51.0687
-48.9714
50.5443
93.1667
72.4168
75.432
32.9805
15.5882
-24.2848
-60.2335
-65.6407
-45.0508
-31.8365
-35.5901
-68.0908
-44.4862
-10.7446
-4.0781
-41.0518
-34.9497
83.0553
120.594
71.0412
9.30754
6.90861
-0.0145328
-25.0738
-40.065
-78.9289
-34.2887
16.0894
-8.88584
2.53888
14.6484
15.7605
27.3374
12.307
-4.06555
58.0773
112.56
53.8692
-4.37043
-64.42
-78.2078
-81.7965
-105.473
-44.6644
-6.11038
39.7976
40.1199
25.3184
21.6311
-2.30447
-28.3537
9.76193
-0.80023
-1.42769
12.8188
-8.0554
-5.17465
0.377575
-39.0964
4.50794
55.8108
84.9203
77.9647
29.6425
15.295
18.5538
-1.19592
-67.7404
-93.0159
-17.5117
15.1525
-4.12704
-0.438715
10.9519
29.9016
7.52784
-19.0041
43.2473
47.636
-9.27248
-49.5321
-51.344
-18.1034
-56.5382
-23.9226
7.62332
8.67478
18.6867
15.1255
-16.9404
-34.7858
-69.4553
-61.8981
25.3033
48.1093
50.7869
41.19
5.79831
15.8555
16.2642
5.21703
-37.2566
34.5585
62.58
28.1435
14.4338
14.408
18.4151
9.93699
-50.5411
-38.6465
-1.91682
9.81518
-54.7104
-56.1443
-38.6881
-14.3141
-3.03514
-6.00067
-31.1972
22.1288
53.2518
52.5569
58.0693
27.7227
-4.42139
-44.6927
-77.6774
10.3462
63.1197
77.1404
54.8322
37.7909
20.024
-45.5305
-80.551
2.19037
-7.66463
-11.6376
-8.96828
-35.4892
-35.4542
-76.2257
-99.3205
-32.4199
-5.7687
12.969
34.2497
14.1028
19.8785
-18.7038
-14.7409
49.3564
43.8661
54.1443
55.9341
9.10381
14.4124
-0.694551
-37.4053
-49.1332
63.8296
75.8718
81.3347
33.1943
10.7968
-2.23515
-5.879
-61.066
-80.5898
-23.9731
-42.5204
-70.4439
-36.9812
13.5237
41.0885
19.503
-27.0438
41.0898
62.5943
42.182
-29.7097
-23.4118
12.6486
-10.617
-64.5074
-85.0758
47.4788
57.7758
30.4434
-7.41209
-3.32366
-21.3427
-63.3794
-59.4538
3.0945
5.26973
38.1293
13.1929
-0.551667
-1.02672
-35.0093
-32.489
37.7611
59.4663
62.5456
49.2724
-25.0473
-31.4749
-13.2666
-33.5559
-8.53641
13.3319
46.3172
32.8339
11.0233
15.1268
14.8422
3.32286
-11.7646
-20.8863
33.407
0.477856
-59.1165
-71.8589
-39.7881
-2.42478
-54.4216
-55.2031
26.8446
44.4705
44.7434
30.7005
39.6344
48.3055
-4.52812
-11.7021
39.7922
55.7232
62.766
50.588
-5.17127
-11.4511
-68.5027
-97.3737
-55.993
-48.399
-22.6035
16.3064
0.155362
-1.84255
-31.797
-35.7439
-6.28628
-7.75507
-5.92186
-5.14391
-9.88545
-7.21745
-15.942
0.370631
41.4064
58.5308
63.1493
57.0485
30.6895
19.1777
13.1922
-9.28904
-51.0874
-26.008
26.6888
31.3561
13.2536
5.4639
2.48279
0.359462
-9.28791
-48.6134
-30.5975
-7.9716
-45.6748
-53.0401
-33.5606
-0.375549
-10.683
-75.2183
-7.82949
79.6583
87.9482
83.1464
69.2822
56.2053
34.9845
-10.2725
10.4658
33.6323
-19.3491
-7.85628
-8.10453
-29.283
-52.3336
-86.2685
-48.774
1.61603
2.691
38.5538
-5.40576
-60.5289
-63.611
-113.711
-68.5171
-6.92908
-14.8038
14.3085
41.7999
56.5242
86.8119
84.1546
37.9113
16.7293
33.8597
22.096
5.52166
-14.9023
-10.3829
16.2296
-25.0741
-48.3958
31.8823
81.1114
49.5451
17.1261
16.1498
-8.14128
-82.3611
-77.633
38.674
37.9161
25.807
4.98104
-25.3591
-12.67
-45.5614
-101.503
-24.8237
12.2708
3.44022
-1.14152
-18.8925
-12.2779
-23.177
-36.638
-61.9935
-7.36494
62.1419
41.2846
-24.7662
-16.8571
3.31608
26.382
17.168
0.0716074
51.5315
98.5084
49.811
20.8852
19.8126
14.2924
-1.36048
-17.1104
-58.7743
24.915
73.065
70.9743
31.605
-2.75311
-35.8225
-60.0958
-83.9658
-10.0063
3.617
1.39494
-26.8268
-34.5134
-37.6042
-85.3003
-97.7516
-5.12212
34.2179
37.0347
51.0409
-2.18368
-15.1174
-42.654
-39.3847
34.3804
20.4789
28.1787
43.9116
20.4541
14.7084
20.2183
-11.3278
6.38203
37.7741
34.3653
27.294
-35.0554
-56.5475
-32.6992
-26.4036
-84.9661
-51.6539
46.9554
121.307
75.9585
65.8095
70.1967
77.6203
32.7975
-24.8045
5.79083
30.9121
-9.22209
-76.505
-64.1295
-48.9137
-65.1314
-105.688
-70.0961
33.2819
57.4792
13.9178
-29.6678
-58.0128
-59.2169
-37.6431
-30.4229
-49.152
-40.1512
33.7706
31.0952
39.5539
41.6901
42.566
46.4178
-7.81932
34.257
122.081
90.2167
26.4574
6.44144
-6.15519
-13.8569
-16.9587
-59.16
-3.51637
58.2294
50.2239
33.3255
16.8988
-7.42557
-22.4964
-14.9116
-24.5691
-48.286
15.8869
-19.1473
-48.5911
-46.0229
-56.2609
-32.3299
-32.6024
-42.1512
5.95174
46.9574
-1.29403
-34.0384
-15.6956
-8.37062
-17.6677
-44.5382
24.3401
20.328
14.514
30.7137
31.8337
26.7524
16.9043
24.8293
54.531
40.9324
31.6679
22.3213
-4.67112
-5.81629
-48.4415
-70.7403
29.3602
24.828
-7.67436
-19.154
-59.8237
-27.0862
34.7413
32.6075
22.866
57.4454
50.2919
24.3123
-20.9943
-32.9634
-34.846
-25.5935
-55.0437
-80.2104
40.9047
55.5694
6.1521
-1.2481
12.4454
39.1879
22.7881
-18.2648
-60.7851
-39.1048
16.0874
-23.4634
-40.9577
-25.157
-8.33791
16.381
-2.60458
3.64544
27.1486
57.2126
49.3159
58.6746
22.1109
-21.725
-79.7365
-27.0174
20.3934
26.0001
11.3525
0.351654
-34.4813
-51.6968
-81.7684
-35.3598
-0.177869
4.99936
40.525
46.4327
45.8095
41.3622
-38.2838
-60.5996
27.377
34.5107
43.4298
2.86015
-19.1381
2.16008
28.8851
42.5967
3.97246
25.9064
40.7979
14.5569
-15.5838
-1.50408
1.04516
-44.3368
-99.7014
-37.4858
65.8815
71.1969
-1.16369
-19.5298
-5.60368
-17.6069
-66.4309
-32.541
-11.5859
-15.1668
-20.8482
-42.8736
-20.9461
-2.7362
-26.4037
29.9354
46.8634
50.041
59.8176
8.43253
-47.8351
-41.3666
-91.0833
-40.405
80.0393
92.6683
78.5337
35.4264
-7.40752
-22.019
-21.6619
-45.4738
-4.34455
15.4381
-12.9978
-44.6762
-26.3292
-2.50388
18.6426
13.7253
-26.2347
20.1801
80.239
62.5262
15.6754
5.27609
6.6558
-11.2469
-24.4931
-36.0916
27.0228
45.8517
11.5429
-2.27492
11.4175
-14.7439
-36.3661
-41.9465
43.7523
49.7175
49.0525
6.77597
-28.8893
-31.6812
-65.3141
-84.264
-25.51
-31.1746
-17.0948
-2.03179
-41.0769
-60.2384
-108.426
-82.0892
28.9595
35.9379
41.6618
53.3963
24.0745
33.7145
49.7864
33.7549
66.5537
50.9728
33.988
33.1991
1.34573
1.38919
-2.67244
-12.4826
-27.8704
26.0151
51.3644
39.3169
-8.68191
-1.70165
11.1612
-11.4208
-58.62
7.653
10.4793
-2.35431
-26.497
-27.1248
-4.56344
-17.7949
-62.0766
-32.3488
36.0413
43.9283
43.2892
14.5783
-2.62767
-27.4555
-32.7783
-35.1707
-18.0718
22.467
12.1869
-29.7618
-33.6009
-23.7914
-26.5201
-75.5122
-59.2921
38.2575
44.0361
28.9052
-6.66642
2.04597
2.22902
-25.227
-60.0424
17.3159
57.5523
60.3926
35.3218
13.4531
21.1686
7.98548
22.5018
11.1384
44.3926
79.5746
42.1253
-10.7105
-3.5309
-9.1446
-33.5468
-50.7661
-12.8038
21.1835
55.0292
10.2179
-26.3575
-1.15949
13.6964
-21.1053
-4.27437
3.36182
-10.4264
-6.61386
-31.3543
-31.7512
-31.2342
-73.9982
-44.3575
-18.6107
-16.4828
5.87748
-11.9199
-32.3035
-29.9138
-56.2175
-18.5679
-4.87203
-2.05152
27.8342
42.8002
57.3204
76.0165
69.6875
-12.1383
53.6946
101.449
105.546
81.8238
50.0676
16.8262
-23.8116
-62.7454
-104.294
-140.174
-50.638
19.1508
1.81718
-22.6846
-21.6818
-16.654
-14.0247
-26.0866
-33.8649
20.7726
27.6943
-18.169
-37.3144
-30.5617
-11.5588
4.7955
-25.6418
27.6348
76.8444
92.7529
81.4989
32.6169
11.2486
-2.84612
-56.9449
-32.6528
4.97522
7.40538
29.3992
40.6988
-3.56565
-11.8884
-52.8545
-92.1762
-42.3123
24.95
29.9856
1.20652
-0.116265
33.2451
0.808205
-74.2002
-104.435
-4.92796
108.663
62.8506
3.10324
-3.39511
13.7566
18.5192
-36.0178
-63.4443
33.8986
48.7545
22.0513
-14.4926
-1.31024
-9.71784
-38.4192
-9.13153
42.3005
38.7745
53.22
9.69124
-32.2743
-46.6662
-88.7669
-36.5735
21.5574
21.8838
26.8121
31.846
12.7133
11.2345
-24.1975
35.2491
59.1161
2.58075
-47.6713
-61.6536
-68.8883
-36.3232
-23.8634
-53.8664
-42.7774
77.8513
93.5035
53.0973
24.8708
21.8583
17.6876
19.3746
-31.6337
-27.7578
38.728
22.3864
-2.58088
2.54198
24.0351
28.6914
6.84354
-52.618
-73.4217
44.3497
47.3885
-20.8821
-25.2975
-30.0251
-32.8301
-20.8822
-44.5886
-24.872
39.0494
29.315
-15.1872
-51.3094
-35.0439
-37.6264
-71.7753
-3.29558
21.6258
55.1075
95.9207
51.0227
24.9896
-11.4851
-36.1558
-0.482147
21.7384
18.7658
43.1449
37.3277
20.4307
8.45029
-55.9103
-54.345
46.9251
98.3979
132.983
53.3678
-14.6092
-37.1558
-84.2256
-144.923
-111.025
3.33207
33.403
13.3376
-7.12799
-11.0129
0.545895
-17.5244
-45.048
20.369
35.6537
12.2374
-50.234
-67.3957
-65.7515
-81.2419
-76.9605
52.0113
93.2108
96.4459
74.3631
15.0937
46.552
21.83
-9.50879
-13.7987
50.0855
43.9126
40.0617
10.6893
18.2478
4.79133
-19.4939
-49.3861
-65.2871
3.86491
23.1767
-3.57498
6.77782
5.97588
-6.39031
-55.0494
-78.6724
-38.6099
41.6458
50.2301
9.34103
1.6769
-2.99088
-29.0158
-38.8085
-80.8916
-53.7658
67.202
101.34
46.9919
24.9433
-1.34256
-1.86246
-9.68191
-17.7236
9.81515
16.7678
11.0498
-11.8325
-5.45339
-26.4882
-51.1758
-28.1565
30.3148
65.2071
91.4445
50.7125
-39.8546
-58.8777
-89.8453
-64.0729
0.824953
10.1655
22.6863
27.4039
-2.94621
-0.00178664
-35.4393
-31.0252
20.3397
26.1489
45.1529
36.3008
-4.69921
-10.6133
-26.1681
-31.4303
0.960928
21.295
28.8962
27.3114
-13.9695
-22.6474
-19.4925
-15.0172
-33.4614
24.8897
63.5815
27.4751
3.20021
25.0116
30.9984
12.7072
-50.9423
-79.9995
7.83336
42.1721
12.247
-9.72943
-6.20456
-5.48996
-11.5694
-25.7916
-25.5624
21.2012
15.0238
-1.65083
5.94225
11.1981
-2.67713
-45.5328
-28.7026
24.5948
19.4543
11.4919
-15.0676
-29.3438
-30.1964
-48.6975
4.28471
14.2242
8.71269
37.3289
52.3298
19.3886
11.1506
-28.3441
-39.3838
49.5295
51.2606
36.8485
8.19238
-11.9214
22.2978
48.6523
14.5773
-52.8857
-35.959
19.1496
-3.60313
-27.0169
-30.4652
-26.7367
-23.999
-59.4509
-9.87744
9.21025
12.456
-21.2342
-14.3377
12.7706
14.8338
-20.3844
28.9148
20.1791
8.31443
19.5508
-8.54777
-27.5105
-65.0459
-82.5967
19.485
33.1216
26.0212
44.6174
31.5267
34.6899
19.6666
-26.2293
14.0993
12.0736
16.1669
25.5775
0.179531
2.16173
12.4143
-0.349744
-48.8645
29.9691
65.0939
51.9893
-5.95147
-19.1225
-12.2051
1.1207
-21.4036
-58.115
-69.7055
19.1094
28.601
31.7438
45.6525
40.0992
5.19178
-18.6436
-63.7497
-56.8978
6.53417
-27.0545
-54.3725
-44.3432
-62.7433
-46.1101
-30.4046
-65.7116
7.48942
50.478
68.7487
30.6376
8.69027
23.4144
-10.2762
-42.8595
21.6683
29.1962
54.4782
73.2991
55.0718
26.7768
-3.38745
2.2121
68.7473
57.5842
28.2944
37.3954
-8.94817
-28.9719
-18.7088
-65.6371
-70.5527
-5.91467
-1.10692
4.29624
-39.3143
-47.2491
-31.4012
-21.7037
-54.0688
-28.6807
14.2447
15.4737
-37.307
-37.4511
-22.5414
2.56057
-23.3359
39.5557
94.5409
85.4278
72.7399
16.2739
-7.97378
-7.5696
-55.207
-12.2326
53.3444
45.3103
25.0916
-26.697
-36.4908
-28.8799
-73.6
-75.4551
11.5704
73.0558
67.3858
37.2252
11.1147
10.4386
0.486784
-34.6521
-75.1125
-22.9308
72.2937
45.0987
4.63875
1.07098
-6.33944
-19.1105
-31.2733
-78.7565
-67.7635
71.7976
44.3729
2.64119
-0.29643
-18.0241
-22.2942
4.07157
-10.4245
-25.7991
45.9485
19.0174
-16.5522
-21.1958
-24.3447
-9.74444
-20.845
-17.1108
43.7972
59.4544
50.0708
-16.584
-23.1618
12.4958
6.18328
-16.2915
2.62927
-5.96088
4.45663
22.7575
24.5581
19.9403
-24.7479
-31.8986
16.0134
10.9036
22.1187
4.11342
-38.7951
-21.8296
-39.3499
-66.1395
-6.24356
33.4162
30.7616
30.0903
13.4291
18.092
29.9802
38.3189
-3.9075
-2.87553
19.5169
10.4273
-15.1147
-7.5021
-1.1535
-9.1602
-48.2298
-63.5293
28.224
27.6975
-13.2531
-42.5184
-16.9234
2.10378
-29.3214
-79.0016
-48.8367
39.598
60.6322
53.0084
46.8172
38.3568
6.58435
17.547
1.42901
31.909
54.4478
37.9275
-17.8262
-30.0281
-50.6675
-67.1164
-89.0143
-26.7436
5.44661
35.1523
30.8786
-14.7373
-23.637
-58.7042
-110.862
-46.0331
78.4055
91.3469
77.5714
34.9016
12.1798
33.4753
27.7809
-15.3418
1.05956
35.6137
40.5634
-5.08805
-8.11804
15.7773
15.071
-23.3956
-29.7852
15.936
37.744
6.75434
-70.6321
-87.8266
-67.2689
-69.6608
-77.5856
33.6101
58.5759
67.4044
35.8741
11.034
5.2001
-35.7882
-31.9907
23.7023
18.8584
14.6922
16.8497
-2.34478
18.5234
12.3585
-16.4192
30.6358
18.8374
10.85
12.2989
-38.1478
-49.4978
-60.6413
-84.298
-53.6501
19.0852
61.3236
59.7752
35.2834
35.1747
33.0822
46.6581
4.11302
6.79096
70.2904
5.57723
-61.3792
-51.7329
-24.8048
-12.4064
-27.535
-66.346
-61.6005
32.768
44.3271
19.287
3.16354
9.49438
0.11615
9.44329
-15.1316
-11.6218
45.5556
20.2268
-35.7433
-17.6976
-7.6746
-17.4199
-78.6962
-29.3358
15.8024
46.2558
89.9958
56.6992
20.2837
1.05228
-15.3501
36.5385
34.7811
5.23275
12.7892
0.308273
-35.4251
-45.0007
-116.211
-63.8834
-6.33646
25.0283
52.3258
26.6512
3.04684
16.5722
17.9171
-16.0136
-60.5389
-42.6854
2.89631
51.0161
35.3821
25.3574
30.9201
25.02
18.9658
-4.14786
-0.457168
13.4399
-24.86
-25.1631
-8.15959
-23.9372
-40.7874
-61.0368
-20.5481
-8.89328
5.80362
13.4472
16.6751
-19.2238
-30.5302
-52.161
19.1511
49.8458
52.8724
80.9836
90.7316
46.07
12.4562
-46.129
-34.0983
12.1441
-13.3282
-12.2592
-24.5547
-29.3108
1.64735
18.4679
-19.4366
-50.4359
-3.48218
11.6318
-10.1893
-21.6688
-23.7097
-10.955
-21.6663
-28.3173
-25.0084
80.4769
72.8958
13.6302
-0.493735
9.80815
9.52156
13.5395
-14.229
-27.0226
30.741
9.15046
-6.87217
14.5004
3.77855
-0.76499
-34.3873
-44.1746
15.9204
9.25486
18.8742
-2.2362
-0.843562
-22.9135
-83.4903
-26.4285
45.2124
33.5717
26.5589
21.2448
5.80905
-1.56208
-44.6975
-22.0327
38.3054
33.1079
36.5672
33.0127
2.67445
-11.0024
-6.1556
-42.3206
-32.1913
56.4943
59.9796
-6.26302
-47.8291
-37.3616
-22.0314
-10.8102
-39.6771
-50.6346
40.4079
69.2431
15.1098
-7.72871
-17.2161
-20.3507
-37.6595
-47.4752
18.105
21.0911
6.57021
-35.8279
-0.728408
12.8101
-17.4644
-41.3143
5.51215
55.6653
46.5406
47.9811
22.5437
7.57691
-5.24823
3.78299
-36.8926
-53.0993
44.7507
70.8073
23.9839
20.326
20.9366
-6.89668
-24.1735
-47.0669
4.78556
21.423
2.72755
-24.5085
-23.7292
-24.5943
-31.2184
-51.6128
-68.8254
8.36307
76.5852
79.2602
16.2803
3.20046
-2.80926
5.23741
-27.7154
-35.075
28.3838
31.0877
-2.20518
-5.95397
0.428364
-5.65198
-28.5995
27.8319
28.827
4.00423
5.91858
-21.1008
-28.8239
-35.2502
-60.529
-7.30587
-20.9747
-25.8622
-7.18004
-4.04595
-19.498
-33.0235
-34.2224
52.4289
51.4255
32.6294
47.8878
20.067
17.4448
26.7637
34.2684
48.7853
25.8277
19.103
7.06959
-25.0031
-14.3977
-7.82987
-49.2421
-55.1455
36.8276
62.9511
46.2804
-8.88278
-27.4368
-32.5434
-24.9165
-38.5238
-105.099
-59.042
75.9194
64.2764
40.13
21.909
6.1297
-19.3539
-24.2666
-46.0082
-45.3788
12.9216
16.0789
18.9385
23.7265
7.27359
1.32394
-10.3294
-45.3557
8.65891
45.8437
24.2159
-32.9484
-42.1506
-7.87657
4.29555
-16.9725
31.5935
20.5257
24.9814
46.6285
15.1158
-49.9401
-78.954
-61.0739
-25.6144
-10.6017
9.61531
44.2756
24.8821
36.6991
41.3696
8.85897
-15.3843
38.5444
68.9696
62.4547
4.25824
-8.07253
-8.70229
-2.34674
-48.1219
-91.9233
6.15633
7.16018
-6.83028
-2.95263
-2.92479
-2.19168
-50.8026
-20.2342
25.3848
13.4783
11.2615
-13.0065
-17.6589
-10.4278
-47.0345
-24.3902
26.7346
46.0958
61.5215
55.7276
16.9381
-0.731667
-46.5032
-24.5012
6.31598
10.7892
21.814
13.4474
-13.9706
-24.5101
-29.4986
-29.4292
0.358427
12.1457
15.1935
10.4787
0.808264
-3.39926
-12.655
-53.134
-66.4884
-15.4567
18.2894
21.1904
33.4726
46.933
44.479
29.6081
-22.2032
-44.5485
33.6585
65.0419
29.2546
24.9879
22.9327
6.6999
-15.6482
-54.4909
-113.717
-11.3229
38.0295
4.55971
2.07355
-10.6682
-23.642
-30.0431
-57.5097
-14.3306
44.7543
93.225
69.6072
14.4057
-18.506
-26.2372
-59.7923
-29.6102
-8.44567
5.45458
39.7165
2.62625
-29.0422
-50.766
-65.6748
-3.51089
18.0034
65.6964
57.9569
27.2357
8.2446
1.45712
-18.8294
-27.0833
-74.7113
-24.114
63.622
35.4118
13.9637
21.1294
33.6628
2.99215
-49.6399
-37.2675
35.8563
7.41558
10.2098
-1.55355
12.8295
5.2367
-23.0899
-27.3402
35.5164
28.6027
33.3566
11.8056
-20.3295
-26.3539
-29.9474
-23.3207
27.3937
23.2121
33.116
23.7011
-8.03188
-25.6909
-31.9029
-48.6592
-63.6561
-12.3608
23.6319
24.1375
-17.9579
-12.9539
11.7938
-0.0976555
-67.4127
-69.6408
22.8504
86.7621
39.6538
14.3773
7.60345
9.45956
11.172
-2.90126
-41.2382
-7.25507
43.4318
17.6473
19.1602
31.2457
19.1365
20.8712
5.37959
24.9901
50.9348
27.5215
-32.5102
-62.3795
-51.9191
-48.382
-92.5701
-65.4168
15.4264
6.86992
16.0533
-1.13801
1.99458
-1.89311
-35.4164
15.8251
28.8095
30.846
35.8819
18.6819
22.7319
17.651
-30.8597
11.7371
6.11529
-5.18417
17.2162
15.6057
-15.8962
-15.4039
-44.1089
-14.9841
57.4637
53.3317
55.1466
7.26863
-36.5052
-32.9182
-14.9461
-43.9351
-26.9329
56.5419
56.0989
9.11481
9.06632
9.9305
-1.05271
-42.1445
-110.18
-8.18461
72.4815
56.5165
-6.13413
-31.4339
-20.2691
-21.3177
-21.3096
-62.0492
-43.5774
12.7213
8.1667
-26.008
-8.09354
-13.6116
-13.7765
-39.5222
1.38126
58.0679
74.7972
32.3363
7.63557
-11.0301
-30.8793
-62.1752
17.3606
44.0086
53.8846
86.6729
85.4279
46.9997
30.6717
-12.6972
-81.1162
-44.6178
39.2982
47.0599
21.1016
-8.8118
2.91314
-23.0057
-45.3522
-85.6701
-45.0101
38.3218
-7.3504
-38.0635
-33.7354
-18.3256
-20.0188
-43.4051
-14.8826
39.2264
74.8462
30.854
-39.107
-25.3015
-12.6804
-52.9105
-6.14564
17.358
18.1101
44.3895
21.2259
4.83534
-18.2509
-0.0818547
54.2243
30.8012
5.82735
4.19371
-13.6725
-35.4003
-36.8139
-5.52764
35.8226
22.2277
0.490152
6.53287
-7.71933
-19.8263
-44.2509
-34.135
16.6113
41.3278
58.2708
67.6794
43.1501
30.6225
14.2982
-2.11287
-33.9588
-0.458508
30.2436
-6.88106
-60.7592
-58.3372
-48.3831
-30.4369
-45.617
-76.6083
-28.9947
42.1214
4.97081
-7.20927
7.93276
4.41174
-5.55575
-19.8687
-15.5102
63.2409
72.6658
20.1165
8.66236
10.5526
-4.97917
-31.8855
-8.07237
13.0022
14.5198
41.1741
57.2393
32.9174
17.2002
-27.9052
-8.77666
11.1002
-15.6435
-5.57608
-8.3849
-42.4291
-27.084
-69.3965
-72.5806
-27.6617
13.2735
91.3564
55.5159
27.2715
14.6207
12.1921
5.97878
-34.2715
-37.2599
1.35305
-11.509
-32.43
-15.4929
15.117
28.3106
-3.77708
-2.72826
49.7198
48.5981
5.74685
-23.9046
-38.6532
-34.0956
-54.234
-33.581
8.34259
1.37522
11.3122
9.80899
9.73784
19.572
-7.16797
7.18902
43.8927
41.401
30.5876
23.6235
-4.23247
-5.89195
-12.8556
-54.6675
-94.5632
21.9071
52.1531
25.1203
7.97938
19.6494
29.1736
18.4345
-24.0823
-51.4528
2.73869
6.55871
-7.97027
-0.295423
11.0447
10.9317
-5.89618
-43.373
-26.6034
58.0614
54.766
-23.6825
-28.7208
-12.935
-22.5628
-59.7496
-42.2484
-0.491634
12.3891
17.4231
7.03157
11.4982
1.85764
-37.7486
-11.1975
17.068
13.6021
44.6662
40.9372
7.44261
0.268206
-50.937
6.04874
13.1023
12.4964
33.6707
17.9537
-14.9528
-44.0444
-25.1382
20.6651
22.5696
21.0681
33.5394
6.08642
-3.03524
-13.2548
-45.5066
-9.23984
53.2711
70.0778
45.7884
-20.2799
-40.5399
-39.3811
-40.1002
-84.979
-47.1887
55.8894
46.1375
17.0119
8.51439
5.22528
20.231
-16.5631
-62.5496
21.7642
90.9924
36.4776
-38.5669
-54.5415
-51.8108
-51.8968
-37.9079
-55.0598
1.69485
114.726
68.6783
-2.55377
-7.67687
-21.4438
-17.8805
-50.1666
-36.0913
55.6336
60.6406
2.24192
-24.4859
-23.3161
-29.5344
-33.4535
-31.9804
31.2761
40.9127
54.7837
26.9519
-5.84756
-2.26616
1.68487
-22.9165
-43.5262
54.4654
73.0119
45.8789
1.89862
24.5011
35.0591
32.4767
-37.8075
-51.3941
14.7522
21.0471
-18.0618
-11.4245
2.39696
-13.4435
-66.767
-53.8673
18.2043
46.5796
46.9017
-15.1685
-11.9762
-11.2144
-56.1568
-50.7429
-26.4415
-25.1572
0.119452
-7.52759
-38.9463
-27.5117
-54.0546
-57.9372
42.2599
43.6362
53.9971
61.2002
12.3982
4.45213
-20.6374
-28.376
45.5996
57.1934
58.7452
31.0212
-12.2433
-12.4321
16.9682
-10.2092
-52.8568
39.3084
49.3977
37.2283
-4.03181
14.6252
23.6418
9.87605
-50.1885
-79.0088
-5.4706
36.884
1.58438
-0.0136843
-13.4085
-13.3587
-18.1792
-51.9407
-38.7772
18.9755
43.8438
-3.26523
-24.2974
-32.9711
-46.4577
-63.5051
-41.2652
24.924
36.113
54.6616
51.2678
22.5062
3.008
-35.1967
-34.9657
55.6287
54.9681
64.1487
50.1869
21.2322
4.27174
-67.403
-57.0622
-0.528768
-19.6787
-16.0576
-11.2653
-32.0233
-15.9826
-4.0556
-68.1768
-79.5002
44.521
72.63
55.8096
3.21763
6.861
15.858
0.81256
-21.9263
-3.26202
63.0443
50.2717
12.1606
-1.37402
-0.176538
-8.88356
-56.2456
-0.250911
25.5027
38.2241
30.491
-20.8761
-9.81048
-5.20441
-63.9624
-17.0871
-2.30436
-7.37771
3.25564
1.59749
-24.483
-31.5154
-64.3133
-34.0941
11.2129
26.1439
40.1673
19.7911
21.7548
35.8706
27.5256
-17.4989
-37.4321
34.35
45.6673
2.56973
-8.78847
2.55892
11.9264
-4.41767
-53.1593
-66.1032
-8.9654
30.9201
14.951
1.87867
13.5955
9.14659
6.38677
-11.4446
-7.89163
20.3467
20.6277
-19.1122
-15.9144
-16.8447
-20.3161
-33.2281
5.82267
6.81299
21.5604
36.2317
16.1935
-11.9285
-12.5336
-32.1977
21.0316
25.4263
15.6094
25.3907
9.03163
-12.3581
-21.7837
-40.4262
39.1242
40.7754
14.5932
13.0059
-13.0557
-20.2388
-14.2716
-25.9517
19.2782
12.8525
-3.20462
13.6915
-0.917064
-7.04394
0.226363
16.7268
-26.3165
-26.1251
43.8137
23.1599
-33.0676
-42.275
-32.3363
-12.4764
-19.8028
-64.1587
-13.909
71.8282
25.8931
-5.40743
-9.40025
-13.6171
-37.9584
-65.6151
-35.1552
47.9729
83.0973
72.023
39.3345
34.8244
14.7938
4.32163
-31.014
-21.6836
39.7902
53.3838
12.5341
-45.8185
-52.2424
-31.4641
-33.6391
9.70012
40.5299
41.9677
10.3202
-38.2053
-26.0699
-26.3535
-52.6249
-50.0128
4.75952
36.1329
50.5139
38.4198
-2.25641
7.549
-5.21465
-14.2038
-46.9166
-41.5341
66.7609
55.847
31.908
33.171
17.3574
-18.8166
-38.4153
-31.6017
32.5631
40.7686
-8.77297
-34.0395
-28.2654
-26.4838
-55.0211
-14.1713
0.239529
-13.6282
-0.413997
5.55634
-20.6008
-27.9113
-51.2843
22.7221
34.3786
31.3443
44.654
47.2887
40.6577
20.6041
-35.8535
33.3699
27.3501
7.26192
11.6103
11.3931
7.98436
-12.1654
-60.925
-14.2276
-0.713931
-5.28598
11.0365
-19.4609
-26.8431
-20.6193
-6.3898
-29.2939
-62.1491
32.3747
42.2837
-16.4965
-9.39648
5.32088
12.7461
-7.25237
-61.2693
-9.91414
58.7092
40.2217
15.224
24.1006
20.5093
-10.0871
-11.76
-23.3474
-39.7766
48.0409
70.3853
12.8737
11.7926
-1.56666
11.1651
1.14374
-41.4062
-0.626344
29.3511
13.2223
5.60119
-26.1801
-43.3203
-66.4518
-59.7503
-8.62563
2.03111
25.0872
45.7959
15.1378
6.78783
-39.2672
-20.67
23.6624
3.00038
-3.3129
8.53962
-9.92476
9.01045
1.82059
-35.3447
-62.0284
29.0554
93.0386
94.2128
46.1908
13.73
3.28989
2.34181
-58.4313
-32.3795
23.9078
8.36858
-26.39
-18.5451
-8.84956
-18.0935
-39.245
-7.92981
-23.5798
-13.8153
-4.75535
-46.4431
-52.7422
-59.0461
-33.3421
36.1219
46.1215
58.0913
72.6944
51.6991
30.8004
-5.26517
-56.4304
-23.3448
54.9755
56.8325
46.3675
30.3979
33.4964
26.6981
9.33388
-78.6178
-71.9857
25.4464
12.0436
-16.5226
-18.2135
-22.2145
-15.9424
-16.192
-34.5313
-29.2049
21.1566
19.8041
-23.389
-9.89915
-13.2889
-27.5658
-20.1757
-23.9039
17.6901
41.8638
24.8814
-1.44264
9.35003
11.4855
0.314582
-53.245
17.3615
50.1827
47.2286
50.4553
19.6208
-0.314981
-19.1262
-40.785
-3.10528
4.77075
-0.417535
25.1639
13.0566
6.66014
-33.1742
-105.566
-46.4917
-6.04986
6.46634
55.8994
31.7
-1.05372
-8.84508
-30.4454
28.525
71.0751
43.9143
36.9444
2.68707
-19.1093
-36.0504
-50.0907
-94.3944
-63.8708
6.11679
45.7216
23.9169
3.26002
4.2684
11.4701
-11.9993
-33.0518
30.7469
40.6922
-4.919
-33.969
-20.4693
8.46735
-11.295
-56.3592
33.6323
59.1121
61.6288
41.6878
13.4234
10.647
-14.2794
-38.4198
-47.16
22.1932
45.9246
54.5151
24.2416
19.5163
-5.69013
-48.6951
-82.5523
-14.5298
12.6404
33.6055
-19.7421
-30.9244
-21.2598
-33.2534
-86.3598
-9.30983
57.4346
42.5006
53.7957
37.342
15.3773
8.11234
-23.2857
-60.4425
-29.239
11.4649
23.1885
8.16467
16.2021
17.7223
-20.4422
-62.8647
-37.1807
18.676
42.0001
6.78512
-25.2169
-7.94106
-11.0823
-64.1978
-14.4306
23.3552
41.6878
66.8521
30.8186
12.4001
18.1995
-23.2338
10.3267
7.54062
1.05772
14.5278
8.45791
1.90218
1.09669
-50.5448
-29.5489
9.32865
12.6869
22.2678
-9.68997
-16.6183
-12.0312
-35.8739
-17.2562
36.7703
24.1666
18.4061
-4.61915
-1.74575
0.238292
2.30708
-24.2862
-47.6736
22.718
69.3031
34.497
2.89026
-3.43455
-1.52624
-8.16906
1.14765
-40.7564
4.51037
46.9263
9.25125
-10.9448
-27.172
-46.9007
-31.4549
-25.9651
-48.4419
3.70847
46.7555
8.85957
-12.8342
-20.5987
-21.6534
-17.1277
-34.2589
-5.6024
36.3566
59.0063
53.8935
9.00789
-7.33464
-6.00809
-35.3607
27.2022
42.3457
31.9712
28.6609
-1.8202
-13.389
-39.2994
-90.7553
8.81674
48.3519
40.1432
49.3016
20.8677
-11.4213
-1.7594
-10.5199
-57.0623
-36.4265
-4.7303
33.1717
10.5104
1.90915
3.17906
5.99503
-28.7608
6.09765
31.1639
54.3613
-5.61865
-29.8724
-22.907
-35.4423
-61.5307
-1.46321
12.6258
12.2626
7.92689
-17.5985
-13.8367
-17.6065
-39.024
8.6909
12.8981
18.0218
38.8389
17.0971
5.82324
-21.4573
-52.5631
-41.3316
53.2628
71.3175
61.2035
15.344
12.91
12.466
14.8525
-30.9825
-52.7716
-7.81716
44.4813
-9.75349
-31.0575
-28.8601
-23.1729
-25.9367
-19.2303
-38.2716
21.7742
66.888
12.1963
5.42609
5.65825
3.15248
23.4363
41.0814
4.08046
26.8088
37.8029
0.733288
-43.2266
-52.8059
-40.1461
-30.3221
-64.3788
-66.1788
23.5697
72.1614
44.041
13.6321
-12.3892
-10.0648
-21.5594
-5.42086
23.2668
19.9731
41.1422
35.2962
28.6552
32.2281
-28.9466
-30.4432
-19.6708
-25.7796
-8.29124
-25.1168
-43.1211
-13.0787
-21.3642
-32.3887
-15.6505
40.7396
55.2197
25.7889
-0.18208
-4.23036
-1.53569
-13.2582
-62.2538
2.24015
40.3177
29.5589
19.4085
19.1483
24.5261
14.3442
-40.7642
29.8096
25.9119
11.6137
-3.12099
-18.0429
-3.47539
-33.8507
-60.1346
-19.5151
47.7422
46.4922
48.2858
-0.657749
-5.24536
-11.8461
-22.5841
-47.4869
6.61971
37.1979
37.6019
-12.6479
-30.5448
-36.1662
-33.8014
-56.9984
0.221383
16.8115
23.1578
22.127
11.1971
26.9298
42.8705
-19.948
-65.7882
-11.2042
49.7523
56.0062
15.9908
-5.1339
-9.90289
-29.5591
-42.9848
-43.73
-9.50949
2.67221
-5.47604
12.605
24.8973
6.26548
-51.381
-38.6796
-3.24166
21.5177
52.9918
33.5177
0.703154
-6.25612
-66.4736
-31.2589
36.1972
31.6669
39.679
43.0007
15.7199
12.091
-32.7958
-14.7365
35.2157
27.0398
22.0478
7.84038
-7.64328
-7.49083
-34.4716
-16.3731
0.489508
-4.16261
9.79669
-23.6036
-38.1034
-11.0593
-14.2861
-23.4583
-3.9673
47.2995
56.5281
36.7121
2.5617
-1.50192
-11.4338
-36.8401
-64.9578
-37.9033
26.1196
0.344192
-11.7473
17.9829
24.5844
11.9182
-1.43964
-41.32
-2.9529
49.2099
20.3612
-2.00683
19.7125
26.7873
-1.06904
-51.2564
-45.0045
22.4472
26.6267
5.32975
-5.52304
-7.07431
-31.6641
-67.3188
-19.3713
14.4887
3.30903
11.8472
-0.522729
-10.4594
-11.4679
-46.2812
23.1072
38.2344
40.5296
59.1614
46.2353
13.5619
19.4604
-21.3325
-47.2269
-24.4687
62.8836
84.3467
36.176
-6.71977
-18.9523
-16.4745
-38.5952
-64.8444
-11.7379
13.365
-19.4448
-22.5009
-3.7593
12.817
-8.30495
-41.6994
35.0621
45.3571
37.2836
0.825582
-58.8007
-52.9221
-80.0829
-82.7583
33.7883
60.561
54.0134
46.5233
9.96462
-5.34948
-45.4815
-49.42
0.80884
25.2105
44.5886
41.9282
-4.93666
-5.58816
-32.4995
-73.2637
-29.4399
36.4057
63.5505
66.8193
3.68512
-4.21024
10.5059
16.3923
-12.6871
11.9498
46.1723
36.8483
8.54279
-7.91594
-16.2911
-15.4508
-43.5744
-99.5082
-27.6405
67.8493
23.1205
-25.0141
-19.1404
-12.6296
-28.8539
-20.5848
-42.8467
8.58229
62.54
41.6618
15.2101
8.63035
2.55753
0.432111
-43.8281
-10.9797
20.6199
44.319
19.2634
-12.3655
-21.8154
-14.1169
-28.0302
2.71045
-6.51769
-10.6995
3.531
-11.6951
-28.3098
-54.3145
-74.6145
7.98486
12.7401
24.1465
58.7623
40.973
34.0432
45.1609
10.1266
12.6123
28.3871
37.8837
25.9282
1.81023
-2.85009
-1.66037
2.46398
-48.9376
-42.3199
26.458
33.2511
-6.06445
-8.32316
-12.6997
-15.724
-59.1977
-36.6341
-6.34014
8.46346
-6.81444
-32.1048
-40.1358
-18.6576
-46.4012
-31.2402
21.6836
61.2429
85.7289
60.452
21.1319
16.3957
-3.52136
-14.3252
-12.5704
46.4714
45.6497
9.49278
-3.16785
-7.60117
-21.8015
-69.24
-88.7619
-1.24975
13.2741
11.6554
-5.57772
-21.4371
-20.4827
-19.6089
-46.3656
-24.0783
49.3223
70.999
69.4051
42.0876
45.535
28.0324
7.1913
-19.582
13.4854
27.7891
7.96563
-55.5227
-59.6473
-59.4744
-66.6048
-80.8529
9.48376
24.9895
40.1516
35.0826
-10.3064
-11.812
-37.7244
-78.6841
4.22992
53.4489
68.616
93.1119
61.9571
34.3682
-5.75149
-45.1577
10.9233
5.28458
4.50583
7.72387
-34.876
-38.9565
-47.8659
-57.4163
-3.4757
6.13811
28.8627
54.5795
10.8554
-26.6465
-54.9661
-65.1166
-20.3307
33.1277
47.9698
42.3533
6.84199
-3.10646
1.3706
4.56176
-56.9691
-2.1491
71.2166
72.5595
11.3928
2.11982
19.7517
22.1258
-9.72854
-59.0811
-25.9584
15.2522
-16.0039
-31.4091
-20.3646
-19.9998
-42.917
-60.7298
-8.18177
43.9507
88.124
59.8624
9.16044
6.20166
-11.3838
-39.9793
-29.7214
-0.539537
-7.92835
2.4961
-2.81685
-4.35964
-6.50499
-39.0272
-28.9659
61.3152
49.4886
45.1208
23.5853
6.45054
-3.50009
-51.298
-110.252
-3.88449
29.6116
48.1726
43.8186
29.8368
24.7501
26.4739
6.22969
-65.8251
-21.2597
21.54
8.8231
-44.2395
-39.6829
-20.4101
-29.1089
-63.7688
-4.41113
29.8308
66.218
35.9507
20.8918
21.6379
-12.2096
-45.6352
18.363
62.2198
55.0797
46.5732
-24.7835
-53.3773
-49.6986
-92.1346
-33.7229
-10.3124
-10.7399
8.2239
-7.62018
-0.621885
7.34371
-46.5474
-11.2491
44.6591
55.7998
58.0778
9.81765
-18.4867
-11.135
8.18273
-26.1744
0.823181
62.9036
64.7547
24.2197
14.1049
13.2856
7.10303
-21.9774
-70.8751
-70.5792
4.62248
29.4113
22.9033
48.8054
38.7113
-0.799851
-19.109
-53.0681
-36.1655
51.3086
27.9724
-14.9032
-10.8947
-15.0737
-19.4791
-54.6496
-24.4195
13.3499
26.7006
25.1655
-12.5218
-49.7727
-85.595
-82.366
-1.99717
-2.53606
1.18191
30.4684
43.7879
12.7491
-26.2652
-61.255
33.3162
54.5998
49.0844
70.6502
61.8457
32.0811
60.149
70.5382
-1.52251
-32.6052
16.3062
67.7809
5.20493
-29.1701
-58.0224
-51.6681
-53.8028
-80.6855
-26.2621
35.7725
9.67797
-15.6044
-33.7457
-30.2169
-32.6332
-59.7724
-43.9798
17.7901
34.3959
34.381
11.6776
-14.9213
-10.4076
-39.1528
-34.7529
54.6655
94.3057
86.172
64.839
29.8107
-18.9326
-33.6326
-38.381
-69.369
-16.5562
37.4418
32.2128
-0.129976
15.1716
19.4662
10.2645
-22.1411
-49.8314
41.1842
130.827
60.1363
-7.33812
-22.7799
-29.491
-38.02
-56.8168
-82.5121
-93.4043
4.9273
4.88887
-9.23153
-6.41873
-16.0742
-6.30129
-23.2614
-79.5093
-4.17196
92.1342
58.5685
-5.04215
-21.6685
-8.15193
-0.565979
-2.20478
54.6934
68.2464
59.7312
56.9828
25.1137
-4.79625
-9.50106
-1.201
51.0642
51.2478
23.5457
18.6724
-33.8488
-69.7713
-93.5694
-116.093
-29.3569
2.4517
19.3314
19.3432
-40.1657
-56.8396
-31.1898
-27.622
2.13862
76.0887
65.6984
20.5507
-35.2141
-38.6989
-9.2401
18.3878
4.6093
-50.5132
4.65413
86.5412
43.2939
24.4304
25.2569
20.974
4.39263
-16.125
-42.7506
-4.50796
41.8805
-14.0516
-25.1105
-1.32071
2.5489
6.75726
6.78093
2.31781
47.3332
63.252
28.8271
-30.7304
-48.4162
-43.3202
-50.0122
-44.9798
0.540276
17.0906
45.8088
55.9366
10.1179
-20.4028
-50.9313
-54.6694
-7.26207
-11.9778
-8.54576
9.16331
-0.696854
14.9945
11.5136
-32.3245
-14.2771
13.7859
19.7349
34.1176
17.0379
4.44158
-9.30482
-22.0529
-74.7469
-75.7784
11.3876
43.2194
21.2509
25.1532
43.4448
46.1827
-6.83716
-1.33616
64.8193
67.0567
30.079
-10.5864
-25.0217
-31.5721
-59.2001
-19.525
-0.266902
-4.00466
3.30813
6.03999
-13.2914
-13.3573
-51.9012
-6.29165
9.28695
4.64861
23.5471
28.9906
-4.48061
-2.95392
-19.006
19.6876
52.217
30.7971
11.2389
-15.7861
-26.4197
-41.6247
-70.0233
-39.5535
8.1227
7.89997
16.5802
-14.3376
-27.8783
0.664946
40.7776
26.1976
17.5695
41.886
15.2607
-31.4815
-34.5435
-14.5697
-4.05021
-18.378
-37.5348
-50.1588
-11.4381
94.2852
57.7006
34.3547
13.6993
-1.51474
11.5294
8.99726
22.2743
76.0201
40.0022
-2.50538
-1.85358
-18.3139
-35.3001
-44.0331
-26.8633
5.79067
-4.02379
2.54206
13.794
-42.9044
-60.1657
-77.3572
-56.8638
19.7506
17.7926
16.6068
4.50754
-15.7034
-5.57366
-7.59975
-28.8743
-31.9092
22.6379
45.8882
35.1282
19.3387
28.0358
30.2691
20.4978
-19.6398
-31.5695
38.3334
50.2747
9.40702
9.32185
14.2559
1.66507
-34.086
-30.5176
19.6262
23.1583
9.90432
-19.5135
-8.74515
-1.24617
-25.794
19.008
40.8544
21.9903
-8.331
-13.3482
-10.1354
-20.3935
-92.7001
-31.2603
16.0357
17.3499
23.7481
23.1447
-1.85978
13.15
7.20751
-32.7854
-63.2745
-7.45506
26.4819
-7.07743
-22.1509
-18.0271
-0.369305
20.3429
21.2637
-2.59771
35.3207
50.5004
27.9562
2.70076
3.30384
7.14939
11.9939
28.4706
-14.7417
-37.7717
25.3351
7.69395
-11.3023
-16.0952
-24.1107
-32.7961
-46.8478
-40.3536
3.41799
11.2973
11.8585
-17.8479
-24.0209
-13.891
-54.5684
-47.6152
19.6715
46.9346
56.9795
54.5489
23.1838
-1.93836
-31.8668
-32.5997
26.4549
29.1998
45.4966
42.5042
-7.75663
-3.014
-19.8777
-52.3431
20.724
69.4921
91.8768
63.4572
-11.474
-32.6791
-2.76048
-19.14
-55.4659
-31.4178
25.7595
12.9475
-45.8318
-44.6868
-27.8893
-20.3096
-29.8031
-34.3084
20.5791
27.3321
-12.4626
-13.689
22.3937
31.8989
-11.4153
-60.9283
3.33269
32.3712
34.2516
13.589
-15.1639
-17.9744
-11.3373
-20.7483
-82.4642
-31.5426
47.4231
58.9741
41.6418
36.0805
4.98468
-14.2351
-34.8028
-0.796306
36.415
58.4346
22.7705
7.06136
4.72245
-13.9443
-68.3294
-35.6063
11.7115
19.9663
45.5983
3.27306
-39.2195
-4.5663
-19.4543
-47.4409
16.7734
46.794
51.7766
33.6266
4.99665
-8.4863
-33.0447
-57.4755
0.959246
43.1051
56.6697
21.2769
-53.6746
-54.3538
-26.3521
-57.5277
13.0809
26.9383
20.7047
32.3373
1.00118
-21.8852
-39.9697
-93.3481
-18.3287
58.4819
50.4229
54.5536
12.2571
-11.034
-1.34057
-21.6999
30.7942
24.5728
8.00177
29.5611
7.1274
10.5729
-8.28641
-44.0534
-29.7441
-5.6424
10.4164
41.2061
-5.38604
-48.3093
-47.3479
-55.1972
-110.353
-70.1122
62.7954
97.6281
49.5854
33.9503
39.8329
32.4336
-13.792
-39.5736
-4.08452
35.7159
11.1143
-5.1171
18.7424
39.8621
22.3702
-24.8432
-50.3405
19.7597
61.5421
40.461
-38.6771
-62.2659
-75.4847
-74.6495
-49.1862
35.5803
26.117
22.9138
16.5994
20.7555
13.5234
-13.9777
-13.1102
34.4587
20.0748
25.5807
42.1209
17.2501
16.7837
-56.5472
-124.354
-15.0782
48.6297
56.369
47.1107
3.04732
-16.5808
-14.5271
-31.5445
-75.4426
-46.5129
36.0085
54.0638
21.1138
9.9889
11.5642
14.041
-10.918
-38.6155
14.7069
31.9581
-22.6847
-53.0043
-36.2082
-18.9768
-40.6911
-44.1125
46.1001
62.9005
87.253
66.2598
15.857
-0.505239
-34.0112
-48.0069
13.4384
27.2395
7.38253
9.52895
-7.38882
-4.90274
-60.6451
-103.804
-10.1292
43.1669
37.3394
26.5231
-14.0511
-4.82036
16.6356
15.3694
-24.723
5.11393
41.2249
48.6859
10.0631
-2.24521
-10.9767
-3.68095
-10.6789
-29.9699
-16.8439
8.16553
23.9034
-14.2646
-6.66197
10.5524
-5.39557
-15.4675
-62.4969
-51.4811
-4.5192
-13.2203
-7.66187
3.09244
-19.2243
-21.094
-19.563
60.2928
84.017
79.6685
53.8271
32.806
-29.6826
-69.1068
-85.237
6.44422
26.1579
22.6384
37.1627
20.8583
10.1728
-3.54928
-41.2691
16.2676
30.5979
35.37
33.1314
-4.98528
-17.2862
-32.7781
-82.6641
-45.5644
17.2625
40.0511
62.1425
14.9121
-7.92394
-17.9677
-27.7477
-65.1081
-96.7224
-21.3204
48.9645
17.2065
-7.93262
-13.8972
0.796231
-14.879
-43.0499
35.2932
96.1381
73.0136
-1.86084
-9.32601
5.77225
-18.982
-63.6478
2.56366
36.393
42.158
52.1882
9.29393
-11.5647
-4.15038
2.01039
-42.8962
-81.9135
10.9707
50.2316
-2.14698
-19.1778
-23.685
-38.9515
-46.1933
-80.65
10.0627
48.6349
22.0151
22.141
45.6721
67.4682
54.3735
11.8997
-5.13546
26.0339
47.0611
65.2437
-0.236269
-19.4745
-34.4324
-32.3858
-57.3478
-75.4744
-15.5304
-1.15665
-50.6732
-34.7147
-29.721
-15.7287
-22.5444
3.18565
53.0928
64.1635
43.3054
8.71047
21.7665
41.8598
-29.6603
-15.4396
4.46598
-3.35861
4.3117
-0.280827
-21.7425
-11.2982
-96.8684
-44.2698
43.539
49.3751
66.005
48.2549
7.51489
-9.32384
-61.3645
-66.9567
-11.3359
-7.30437
12.0108
5.95741
2.16868
8.3183
5.9844
-20.6186
2.99102
35.7087
71.3422
46.5149
-6.77882
-8.71103
-6.48652
-35.8867
-73.5884
-27.3175
17.5069
60.8663
20.8747
10.9949
16.7906
11.2788
9.07215
4.19531
-28.3382
-5.22127
14.3154
3.14665
25.2127
20.4139
-7.09607
-21.0679
-54.4088
1.41422
20.7943
11.2061
18.6995
-15.3475
-20.9707
-21.8863
-60.2687
-24.3966
-7.25782
-3.59916
11.3071
3.31344
-30.8402
-26.0965
-42.8148
-16.8433
9.20816
1.86945
17.7413
8.85419
28.1416
37.0803
10.595
-38.6216
34.3613
53.2942
55.0545
21.9933
9.27993
1.84996
-0.814958
-13.2137
-48.3524
3.53674
38.2316
12.4456
-3.13105
11.9214
23.4271
-5.93058
-57.3621
-21.8726
54.6965
53.7234
-0.936429
-12.8632
-1.26966
-9.09225
-27.7114
18.8097
41.8692
31.093
14.428
-24.929
-43.3637
-77.4618
-115.996
-24.3718
-5.9159
-7.87869
11.8882
-6.58629
-14.1505
-19.5033
-78.2865
-49.835
35.4402
45.2926
42.4384
12.3229
5.97067
7.74575
18.1291
11.51
15.213
58.9707
66.6325
15.8133
14.8448
24.1476
45.1859
47.8022
10.5927
-35.446
14.4812
36.7757
-19.9085
-45.5658
-44.597
-55.8772
-46.4536
-47.9716
-61.9905
46.0191
71.3991
31.4272
17.1223
-7.92054
2.2998
1.82978
-31.0787
5.66467
3.9519
38.6907
18.423
-23.5182
-44.4555
-66.8951
-54.9186
-12.1592
0.382061
5.93511
14.6525
-35.5183
-30.7736
-21.2537
-3.16558
32.6768
43.6376
34.6295
41.2495
20.0342
34.5422
48.7931
-4.53335
-21.9286
32.3651
47.409
41.4519
14.1259
5.09557
2.13072
-3.2788
-63.1071
-70.9097
-14.5211
-4.59134
-33.5672
-56.9788
-45.3578
-31.1493
-67.2076
-51.3783
27.0983
58.1736
57.8194
19.0582
33.8135
49.5863
6.73417
-39.8135
9.14149
49.9809
37.5553
24.417
-5.72087
-5.26656
-21.9996
-17.1361
-29.9017
26.6098
69.9368
43.1937
-6.8859
-16.3084
-15.9662
-31.1197
-71.7485
-64.1836
6.52138
47.8288
11.0809
-10.1066
2.52242
6.64915
-10.7053
-19.9539
-33.6512
-36.08
66.5834
55.1147
26.7013
18.7658
6.01081
3.81804
-19.8432
-50.4625
4.73815
-4.805
-24.1755
-10.3128
-4.49023
-9.23536
-42.6465
-42.8556
23.5252
41.772
58.3504
53.5457
6.62573
-10.7597
-30.9797
5.5494
8.12224
-3.17828
-5.03508
2.80282
-7.91893
-5.78397
-59.6428
-28.54
-5.41039
-16.7021
22.6271
50.6006
21.5407
10.0595
-19.2482
-20.0374
15.5313
36.2233
31.5402
5.10134
1.69909
6.46511
2.41177
-15.467
-31.5242
9.55845
40.2806
6.31153
-25.4104
-23.2602
-7.50929
-0.79664
-23.3798
-31.2049
21.3281
48.5263
13.4818
-11.1315
-5.95822
1.60396
2.07901
-16.9221
-43.4805
-42.0199
36.2966
34.0549
31.9089
11.7393
-12.7401
-21.3198
-49.6162
-87.1915
-42.1177
58.8041
40.7786
17.8831
4.5277
13.0639
29.0317
2.21068
24.4889
28.0678
37.495
47.4258
12.5492
-11.7747
-22.6232
-49.8158
-80.098
-12.783
14.9707
25.1154
2.28622
-21.4876
-9.12301
-5.2309
-38.9935
-70.0341
6.96654
40.8644
8.56671
7.68105
29.3861
46.6015
17.7622
-23.7233
-3.88499
18.8389
36.1771
10.9874
1.40121
8.47828
-15.5211
-60.22
-3.59613
0.231623
12.7344
26.8507
-3.14534
3.86807
-18.0125
-30.6763
60.127
58.5003
21.8466
7.19727
-18.1285
-25.2282
-40.8278
-111.4
-33.6753
9.21851
26.1665
36.8263
-0.901994
-10.4928
-5.53864
-35.2104
-10.6575
16.745
22.1839
25.5686
-23.3975
-32.8924
-18.4565
-33.6683
-28.94
62.5338
88.0244
77.0924
24.0319
20.323
7.87519
-4.01224
-13.171
-42.7301
-51.8643
52.3065
28.1885
17.0224
19.881
1.46425
-41.4641
-60.1823
-96.2297
-3.65757
50.3975
8.07801
6.22583
9.34986
-21.2078
-49.2206
-74.1439
26
43.791
34.7078
30.1
4.06356
-17.4673
-40.1798
-33.3119
55.1487
57.2704
51.9203
60.2617
29.3171
-8.18357
-48.5046
-61.7104
-71.0699
-13.8742
24.5572
35.63
-12.4831
-22.5884
-0.0331845
19.1779
-9.26877
-54.493
18.1122
56.7195
14.3072
-2.76714
-8.40398
-6.8244
-17.6237
-49.6969
-6.97207
20.1009
38.1724
4.75607
-6.98349
1.41952
-28.7014
-39.046
37.4133
44.1448
43.6736
60.9206
27.95
9.85772
-50.3769
-74.115
-34.7632
12.5398
55.496
45.8444
-2.7183
-23.5507
-20.3871
-30.7068
-37.7049
14.5452
43.2219
21.3668
-27.2426
-34.9068
-33.3327
-21.3607
-43.834
-78.4331
-17.0084
30.4312
42.5611
41.5835
34.1219
37.2751
-12.544
-75.5625
-4.80121
27.4225
50.5538
39.6859
4.12622
5.76827
-0.610876
-4.57509
39.8642
56.2431
42.6049
48.5883
25.1313
0.357203
-55.6935
-91.1497
-53.6967
-39.8786
-25.2398
11.2429
-16.8426
-33.7624
-57.3768
-57.3134
19.4436
38.695
34.5358
35.2457
11.9922
4.39762
-21.6617
-6.73198
39.5347
18.5826
15.2854
18.1294
-5.45125
7.95736
9.98463
-12.9162
-14.9545
31.4144
32.5449
26.0419
0.741377
0.37434
-20.1508
-30.6498
-77.6546
-46.6161
69.8922
92.5469
52.9478
31.8501
17.5179
0.173608
-54.1076
-94.9316
-48.4373
19.3154
3.71039
-26.4719
-22.6327
-28.8491
-61.5141
-52.0475
-48.0825
27.54
70.0719
53.1296
10.363
1.23099
-15.8974
-22.3884
-72.5346
-5.07142
52.5176
57.9444
30.3633
26.4362
18.7498
-4.1285
-26.6296
22.9713
38.1143
37.2177
37.6248
10.7898
14.7086
18.2661
-16.4036
-62.8381
-6.81312
9.42737
44.534
-0.212697
-36.5997
-19.1872
-19.1873
-30.6666
-6.40951
34.4126
46.6357
3.52203
-24.0149
-24.6164
-9.55207
-54.3369
-28.8086
7.86763
1.43582
25.4569
-9.49901
-8.80111
5.86782
-47.8358
-24.9195
12.703
12.7893
18.0093
0.0927546
-31.2381
-41.4648
-59.4293
10.5688
50.662
47.5911
41.7813
17.9112
1.37681
16.9042
6.16403
29.1724
40.3095
43.3008
41.9075
9.52154
-9.79056
-16.7463
-45.9998
-84.6749
-42.4717
1.45688
16.811
-13.2574
-18.4999
-5.89933
8.05899
-0.0371074
-60.6196
-53.8334
19.1036
56.31
35.9759
32.239
29.7632
16.6285
14.2271
0.225051
-22.2628
46.6568
5.18521
-3.59677
5.0285
-19.4559
-25.9605
-11.7439
-20.4638
14.1869
61.5039
45.9808
21.803
-39.5064
-55.3119
-53.3043
-62.8238
-11.1727
22.5485
33.871
48.0613
-3.23813
-26.3327
-51.831
-60.5582
-4.81087
-5.04923
-1.68888e-05
23.8261
25.0596
33.8742
37.1474
0.340442
-45.2942
26.4299
45.0575
48.0052
4.01207
-17.9154
-13.0442
-5.25461
-44.9544
-32.6073
-4.88503
18.319
1.01275
10.8853
0.616229
-16.688
-46.3931
10.1522
23.388
37.806
41.2003
4.88211
3.94468
-16.6767
-22.8604
1.53841
-16.4625
-2.65685
24.1319
13.6061
12.2439
-38.5283
-63.9855
25.852
73.1318
71.3448
40.4637
-18.8348
-13.2522
-5.60576
-23.2152
-77.6109
-22.7111
20.0317
15.8862
-10.3839
2.56942
-6.55714
-15.8971
-38.5376
-87.0344
-1.21991
95.1914
32.6891
-9.48867
-6.81386
-2.94409
-14.8062
-22.3742
-48.4147
45.0855
60.9557
26.9319
16.3063
-6.77166
-21.1301
-37.5817
-21.4273
24.5806
16.375
40.2038
45.1599
-2.32565
-36.0329
-65.505
-18.7666
28.5806
18.4403
-0.0936929
11.2341
-10.5931
-11.4065
-49.483
-14.0513
24.1579
20.0184
29.43
16.0338
-10.1894
-9.74694
-33.9229
4.04387
10.7892
11.7616
17.7269
-10.2138
-25.4019
-6.42972
26.8127
31.3426
12.141
55.7655
57.9864
23.8002
-2.55151
-13.9425
-21.1736
-25.1056
-58.2972
-22.7747
40.0502
-4.89718
-43.6824
-45.3984
-21.9781
-17.4026
-62.2185
-27.9918
38.2095
43.7324
17.1817
-11.1839
-7.00513
-0.910745
-6.11352
-27.3785
1.0507
37.9698
24.0942
-2.46279
0.190319
11.5532
9.17026
-8.77843
4.13989
45.7601
63.5032
35.1322
1.19706
8.88927
2.04956
-52.466
-73.6854
5.88377
7.0941
25.3532
16.0432
-3.0288
10.1349
-2.71026
-28.8082
-98.5786
-57.5418
42.1154
33.8347
1.31936
14.3252
12.6589
-2.01338
8.26221
7.51575
62.2537
44.6699
-14.6356
-9.75824
9.81998
1.90359
-40.2034
-27.8623
-1.89285
-13.3834
8.12889
0.390591
-25.5291
-20.9055
-51.5463
-35.5372
27.9912
21.8527
28.3488
43.4642
22.2212
22.8163
-34.9091
-44.289
18.6442
21.9527
15.374
-3.21074
-29.4042
-17.1439
-10.1003
-6.87109
18.9923
18.1686
23.9769
14.8709
-19.2163
-23.5552
-16.5929
-35.8488
-28.5752
56.5613
74.2847
44.5899
-8.64528
-11.309
1.14877
7.33032
-18.0852
-67.7011
-27.7389
35.284
12.2806
19.0468
9.13461
4.97606
-2.49523
-13.3326
-26.4483
16.2584
60.6285
-4.94415
-17.1521
-17.4408
-23.5393
-28.0513
-57.1042
4.28012
24.0543
39.9992
32.4843
-9.20861
-22.8015
-24.803
-45.6734
11.5624
11.8455
23.0944
41.5817
25.8471
-15.9694
-49.5253
-44.8479
18.8351
17.2762
19.6022
42.1785
2.20995
-12.42
-2.63051
-25.3283
-75.3351
-47.4846
16.2019
49.0623
39.4029
30.3373
24.4709
22.5489
9.31408
-19.6763
43.1909
44.5183
14.9839
2.48663
-6.13882
-14.9391
-65.6831
-77.8154
-2.47648
46.3627
61.0131
37.5635
7.8148
-0.725985
-47.7276
-59.1015
-20.3093
-12.4608
2.11704
12.8742
-18.0645
-38.7543
-80.3527
-86.8259
3.92236
61.5144
70.1381
55.7291
7.72721
-13.1133
-8.70176
-48.0321
-63.7583
-37.6795
54.1655
71.8462
45.8782
41.957
49.3806
41.4468
10.3676
5.70095
-8.11942
34.8562
12.186
-27.6403
-28.8962
-14.0307
-22.785
-34.338
-37.8037
-20.689
41.0231
46.5598
-8.0952
-17.7306
-21.158
-23.3556
-64.3979
-70.2156
10.4242
44.7512
44.946
22.8943
-10.2831
-20.0986
-28.2341
-23.8533
31.2614
49.5388
65.4214
61.8436
17.2501
0.198383
-64.4175
-63.9186
-5.73654
-1.7474
27.9374
34.2548
-12.4064
-5.62627
-29.7742
-62.9557
-22.0012
31.6464
20.7555
19.6671
-4.34879
-7.78811
-0.500828
-2.83749
-33.4217
-3.05087
36.6544
38.9809
6.17529
2.60013
4.80801
3.32859
-32.3747
3.05029
25.6139
33.0651
-2.95221
-35.4379
-13.4729
-19.387
-68.6183
-65.4507
-19.6544
32.2832
35.8857
26.4553
24.3013
31.0602
39.022
8.624
8.40165
46.1504
27.2228
-0.76397
14.2626
6.18886
-19.3293
-58.8375
-14.1572
11.9978
14.2275
9.19854
-19.2403
-44.2158
-35.5985
-68.5275
-67.6871
13.3134
26.6392
30.6453
32.9019
26.2847
37.6564
21.6322
-3.63616
-31.8035
19.2884
60.9812
32.8581
19.2821
5.40913
-16.8887
-36.8003
-74.0275
-21.1248
10.2393
5.59407
-31.7592
-38.4817
-12.6305
-13.9243
-51.8084
-14.0507
36.7816
47.9967
63.6203
27.6638
-0.580233
-34.9445
-83.9539
-5.05149
12.9417
9.61301
23.301
10.6034
22.7293
29.2531
-14.2667
16.2483
42.5922
53.5313
51.4218
10.9046
-23.4027
-34.1529
-47.9104
-33.8929
-6.1045
14.4341
35.2335
-4.99675
-18.8353
-13.2899
1.62451
-35.3224
21.4843
45.517
27.0339
-4.97958
-12.165
-13.7495
-4.10395
-12.9064
-61.108
-71.6124
12.7869
31.7223
11.3559
5.21137
14.6062
-3.08089
-4.18844
-31.6785
6.88732
24.932
-11.18
-18.1111
-7.44955
-17.4788
-37.1898
-32.3481
29.6786
32.6613
38.3874
58.3716
22.4841
2.90844
-18.464
-40.3395
17.5133
3.88111
-5.08256
19.8778
13.4621
7.67263
-16.9822
-57.385
4.12016
48.7739
68.3804
55.617
