19.0355
10.9131
-24.7481
-33.005
-9.9455
45.6825
31.8201
-74.1577
-56.1936
-67.2868
-84.9139
-8.61524
30.9947
45.2589
64.421
72.2157
73.9385
60.3879
24.849
34.6809
46.0628
0.23327
-9.82788
59.2576
40.6378
-0.531863
2.08781
47.4127
27.1749
18.0273
17.3081
-22.994
-55.3003
-66.1164
-66.4721
-56.1763
-42.3551
-25.9802
-3.89459
6.70296
-10.7029
-30.095
-66.491
-80.3366
-54.7341
-43.9322
-24.4062
13.9217
19.9634
34.3292
45.0464
33.664
27.727
28.9392
33.0593
32.1323
25.2522
22.8402
16.8676
3.88444
4.16855
2.62729
-13.9234
-14.0029
4.3546
5.23691
4.18781
14.9457
8.27815
9.12427
9.93201
-5.75962
-11.8326
14.2508
5.27298
-15.9405
9.1851
38.1589
20.9845
10.6599
12.7269
2.31735
-18.3013
-37.0084
-45.6894
-49.2762
-38.2634
-31.7916
-12.1543
10.2386
15.8632
13.9521
5.42734
-10.2428
-4.27017
-0.523321
-12.3286
-19.7236
-13.7081
-9.57801
12.7684
44.1575
39.2873
26.6222
21.6096
-14.8826
-59.2804
-42.7843
-29.6419
-19.2469
54.9991
178.895
169.848
42.8367
-27.8567
-13.2768
-4.12735
-24.6174
-13.7425
-11.3001
-75.897
-109.55
-94.3636
-88.4989
-30.5269
18.7852
18.3276
14.0673
16.476
17.3871
-13.0317
-69.5475
-64.1178
-12.2454
20.1815
20.4685
14.0227
21.4962
23.8624
29.1491
63.6702
59.5499
49.1243
69.8717
42.5591
32.7299
67.4496
40.009
-15.3112
-39.211
-58.4668
-86.9356
-69.3401
-23.3158
6.2358
7.37175
9.83704
-2.578
-9.42931
-32.486
-43.3943
-14.1496
40.1086
40.356
48.3624
61.4147
-69.616
-124.528
-30.4301
35.5945
27.8993
0.796269
-11.3749
14.2133
29.7662
14.5743
-4.73274
-4.30023
-3.7743
1.70933
11.7652
8.62538
-12.1507
-17.9574
-26.3332
-28.3085
42.0893
83.2539
44.5375
-0.425811
-21.4524
-25.9066
-27.0392
-32.2251
-30.5527
-15.1886
-4.59501
2.21733
4.46262
5.96898
10.9491
5.62308
-12.7746
-14.9109
-10.824
-10.0639
18.7572
21.0789
3.85053
8.16003
-5.32267
-44.4006
10.8973
74.0656
28.5492
16.9701
53.0424
63.3992
22.7452
-33.2543
-21.4961
-20.7861
-31.4732
-43.9875
-56.6126
-48.483
-15.2226
31.1762
55.4018
28.6092
10.1005
19.3798
-12.3828
-53.8884
-31.1057
-28.7346
-49.6386
-48.3537
-28.6411
15.4794
53.4458
47.844
24.6975
8.32563
-13.1299
-5.45068
14.6987
13.2358
25.1495
77.6639
53.6788
29.5766
9.05578
-10.3938
-10.7746
-13.1345
-28.0712
-42.9404
-43.4762
-60.2268
-61.7391
-4.33344
39.7763
87.4515
96.2265
16.5198
-37.2754
-44.8831
-67.4592
-81.7163
-35.8029
-7.06837
6.09151
13.7917
15.704
14.4042
9.36759
12.7569
28.8352
47.25
22.4407
-6.08417
-14.0089
-19.8399
-13.9423
30.5259
80.4687
50.2392
-9.06301
-23.5713
-39.8536
-45.402
37.6623
45.9911
-77.9795
-45.739
-29.506
-6.75552
2.65077
14.0075
15.2457
6.30025
-1.54975
-6.51409
-2.64579
3.63249
-1.94955
14.336
22.826
3.37462
7.32484
-30.5787
-92.8622
-87.4658
30.3575
79.9513
175.863
141.68
31.612
-6.51841
0.652358
-14.0608
-54.7053
-68.1265
-59.6932
-52.3516
-50.7256
-36.2963
-21.3018
-21.3697
-6.76408
23.3172
4.53509
-8.036
11.3691
-16.9353
-74.1829
-63.9485
-3.07253
19.2935
15.4261
14.7757
31.8472
38.3022
50.9649
58.481
43.7345
39.2643
42.4241
51.728
63.2386
59.3726
22.0489
-9.41193
-19.5698
-51.635
-87.8227
-80.6128
-28.07
-11.3308
-23.5051
-18.0757
-3.57672
2.19988
0.974512
-1.5724
0.893983
3.27726
2.17018
-15.0713
-23.0548
-11.9154
-4.12333
5.10187
14.6976
10.7956
0.55153
-9.97028
-14.1771
-8.85474
-18.6132
11.3828
122.204
84.6161
10.2774
-20.3066
-37.6712
-43.245
9.47628
53.4872
8.4593
-9.88383
-3.57046
0.768439
3.44405
-5.04655
-34.3292
-54.1534
-85.5893
-96.7462
-41.4268
42.0269
8.13559
29.6986
87.4829
117.734
68.847
12.2057
-51.8817
-88.7501
-41.6299
-12.2309
-7.79085
-7.90567
-6.03836
-0.420401
19.635
41.388
60.1328
66.2154
35.9751
-8.72935
-20.253
29.4738
-8.355
-76.7942
-79.1072
-53.7668
-63.3909
-73.8865
-28.9186
33.3515
100.6
79.6798
-69.3602
-66.7548
19.3244
60.8024
72.8098
71.2352
38.1154
-9.3392
-39.6167
-55.4184
-29.118
-22.7046
16.8004
49.6205
60.0213
75.5504
112.413
71.1598
-12.0718
-37.2839
19.4435
5.17073
-76.1135
-100.949
-72.0838
-52.8776
-45.8481
34.5619
64.5612
-5.13139
-29.0842
-11.919
-1.88557
-7.06464
-16.3193
-48.0014
-96.2992
-103.626
-81.449
-38.5826
22.3809
35.2554
39.7042
43.8486
43.2696
36.9411
35.9993
-16.9518
-51.1256
-12.9504
42.6707
50.6957
56.4362
90.1207
64.5205
33.2027
0.592152
-15.3448
-14.1851
51.397
86.6824
30.2126
-12.327
-25.8022
-41.0359
-38.3153
4.94275
15.9893
-9.22497
-12.9582
-44.5923
-35.4098
-24.7247
-27.45
-10.1945
2.1768
-4.22769
-7.21865
-8.53262
-34.7087
-22.4599
9.8848
22.4771
15.23
0.00392655
-18.757
-45.0518
-69.403
-51.936
-34.1423
-41.3266
-4.61743
31.456
21.4942
47.6081
130.107
101.958
31.3336
12.5397
-13.9294
-20.0783
7.41377
26.911
33.8796
62.7348
8.25903
-30.6836
-16.6917
-14.8278
-32.5548
-28.5617
-38.7557
-43.6058
-30.3859
-13.0732
-27.4672
2.6596
37.6761
39.9856
19.2375
-15.7098
-22.6873
14.8719
8.57983
-37.1865
-2.39202
22.6542
-9.5143
-17.2616
-2.39345
22.5425
29.5771
10.1338
-11.924
-28.5225
-66.3057
-93.9977
-43.0047
-23.9859
-26.29
50.7669
208.958
228.343
137.5
-33.6423
-62.8747
-20.7419
-21.0797
-37.4107
-46.0486
-55.2839
-53.3584
-42.1135
-38.9321
-21.4201
26.7415
15.3474
-30.1854
-26.7453
15.0404
-10.9548
-47.6453
-21.7615
-1.29492
61.6945
61.2576
0.22563
-33.5878
-11.7298
-7.0846
-9.17401
-11.3853
7.8518
30.3721
27.3627
5.75488
30.2576
48.6017
36.8168
20.0963
5.85093
-49.175
-84.2313
-36.1619
28.6227
52.9022
53.9753
49.687
32.676
35.6767
39.9914
22.4191
-6.49567
-22.4681
-22.2616
-15.3517
-13.4177
-44.3251
-72.8625
-55.0766
-40.6431
-70.6611
-83.7062
-56.1299
-12.4845
14.8483
24.7158
36.9569
44.9307
41.138
38.4767
36.4843
29.0929
19.1743
2.33982
-21.3132
-12.7398
5.43309
36.151
61.545
16.7874
-31.2184
-47.1259
-41.9329
-22.6869
26.1019
18.6361
-2.29129
-12.0668
-11.2496
-33.5209
-29.467
-12.7573
-2.39302
12.9645
76.3164
88.6694
59.0198
28.044
-33.1707
-59.0408
-48.7177
-27.6544
-11.1789
-4.42951
-23.311
-14.6067
-24.6644
-40.6182
-22.371
2.24674
-12.8118
51.3178
120.505
79.1923
40.5271
49.746
-0.817664
-57.8807
-75.2884
-53.2173
6.37515
56.8965
20.9703
-25.5689
-50.766
-37.7431
-3.07106
11.1987
8.44259
39.3304
67.4611
-2.46772
-55.7633
-54.2169
-82.7462
-92.8819
-31.3607
18.841
43.6029
85.5128
85.7782
38.8646
31.7357
41.455
18.1248
-71.6428
-165.95
-144.95
-34.1842
35.9021
75.9587
75.0482
26.831
25.1067
13.4959
4.95153
32.441
50.1065
24.6129
-7.00125
-6.38623
-34.9215
-47.3268
37.0386
83.0598
87.6742
115.023
90.2038
16.5787
-41.2037
-73.2835
-87.4984
-84.3319
-71.7161
-71.9071
-68.6696
-52.212
-44.6921
-21.9709
-5.82304
-21.0492
-15.9345
8.35827
-13.9958
-24.9294
12.7751
50.3293
62.2878
33.2142
6.24218
1.18668
9.48596
10.6513
20.8565
43.6729
51.0965
41.6931
31.9437
23.1045
-9.28674
-50.3836
-53.4974
-44.5756
-40.0672
17.8844
74.9902
38.3738
-13.751
-14.0455
-47.438
-61.9961
-0.535479
114.205
149.311
72.409
12.415
-18.9051
-29.1645
-31.2063
-19.3871
-21.1063
-31.6885
-29.4078
-39.786
-67.4778
-66.0816
-18.7691
11.3966
-1.2108
1.79036
-2.94553
-21.4496
-13.4562
-62.4131
-104.772
-68.8742
-4.42998
31.1284
55.7838
129.3
131.043
87.174
68.886
25.7641
-14.2907
-27.6856
-14.1647
16.4682
-7.29599
-33.13
-16.0579
-23.6424
-70.6574
-36.7334
39.4479
39.0756
19.2742
18.6333
47.7418
-21.4962
-40.713
-18.5905
-25.7108
-18.1918
-6.96512
18.3222
56.9288
39.454
20.4739
44.706
35.3247
15.1765
-24.993
-43.2364
-44.6801
-102.303
-193.686
-105.098
-10.68
32.925
29.2399
13.8271
26.7266
37.1955
-6.99557
-15.2084
5.40795
-7.38205
-4.65225
116.96
177.79
86.8154
23.0365
11.3463
45.4952
91.9911
102.845
27.0086
-63.0532
-88.0891
-80.0156
-60.5755
-52.4288
-40.6032
-32.5698
-47.7907
-58.4277
-30.619
0.864512
4.23862
-34.1794
-41.3684
-13.8662
-26.8425
-49.3075
-9.23013
55.4621
52.9612
21.0678
-2.33609
12.5091
33.0862
32.3087
16.3388
-10.4533
-49.1459
-39.802
41.3158
66.8908
-27.3964
-45.0706
6.95378
13.1581
21.0765
22.189
14.4996
51.9558
52.2254
44.4231
32.1564
12.4724
0.338012
-1.20112
-4.65418
18.5141
42.9778
15.6724
-45.4595
-51.5701
-27.7182
-17.1432
6.8069
19.2153
-22.8055
-28.1396
-46.9265
-64.1879
-81.2958
-64.7186
-35.1612
-35.9938
-22.3176
7.81942
41.3785
64.2826
64.3602
43.8998
31.1603
15.986
-23.6201
-65.3342
-52.1809
-45.2545
-7.33958
31.0415
122.653
117.306
94.9506
19.4414
-19.9917
-1.83063
5.29291
28.1303
26.9896
-9.98253
-32.6221
-31.1014
-33.8651
-54.6397
-57.9774
-3.38178
41.4227
12.018
-13.6714
-58.0466
-175.236
-176.126
-74.284
38.9058
92.0119
70.2172
57.4945
31.7236
0.410971
14.8455
33.5209
46.322
51.6569
53.7625
40.1118
15.6883
-19.4044
-4.57221
54.797
93.0311
79.635
52.3101
-6.8443
-54.2232
-69.3109
-57.4854
-51.843
-44.6641
-30.939
-32.316
-37.7369
-29.7256
-23.6561
-14.9841
1.54071
12.4665
3.39278
4.42511
-3.39571
-22.2699
-23.4215
-32.0395
-23.53
-1.42606
3.14577
17.8702
21.2437
6.98191
-18.0733
29.8563
97.0631
77.4454
16.9714
12.9446
-18.6653
-33.8723
-15.7245
-10.6759
-11.3176
-16.4225
-5.25763
46.2794
108.8
56.2291
-15.4981
-42.3645
-17.015
4.81625
-7.39706
-45.6002
-66.5497
-61.1184
-18.3876
5.83657
16.1871
26.3318
6.12451
-6.93275
-16.7798
8.92794
28.0582
-28.7932
-68.7145
-6.10109
43.3887
49.6926
55.0296
45.0617
49.6144
6.77422
-26.6813
-32.0437
-16.5387
0.527515
-22.4881
-116.268
-75.6302
10.1521
27.5142
-2.73628
-3.09783
-7.91271
-37.2635
-26.0041
8.64829
33.0722
17.1711
3.97319
16.3414
54.7074
61.0717
42.0191
6.12215
-5.29541
24.0157
64.4994
70.115
83.3249
37.9215
8.11556
0.107586
14.2431
-8.71504
-41.2033
-47.6754
-54.1899
-66.5877
-76.008
-62.7522
-29.0877
-43.3398
-67.0237
-53.2922
-43.58
-4.0644
45.5899
9.64534
-35.2712
12.5688
57.1287
29.4131
11.4998
-32.2097
-62.2094
-0.578927
21.1877
-42.917
39.4912
71.245
61.9183
76.0171
91.1907
80.8913
39.7027
-4.3474
-11.6792
-25.9434
-50.3388
-42.8877
-47.0601
-23.2727
-0.163219
7.96171
8.78123
19.2818
31.2926
35.8984
-11.587
-57.2566
-60.0535
-12.4531
19.2583
28.4221
25.0058
0.953951
-3.53622
-3.71109
-19.7824
-37.9452
-34.0244
-12.9241
1.25921
27.8978
33.9938
-8.52139
-25.1483
-0.433314
-24.822
-33.6171
-40.9491
-48.0722
-32.0831
-21.7352
21.2407
100.313
74.4761
51.7072
73.6441
63.7654
18.8848
3.9023
3.92959
1.56565
-9.71206
-31.9553
-46.8747
-55.6722
-48.8286
-14.5002
-1.47833
-13.245
-18.6179
-11.8779
-14.5101
-27.133
-2.08203
13.9014
-2.50784
-1.00075
18.1259
22.389
40.8355
33.7997
4.27507
-10.6327
2.36217
36.3518
41.0516
33.7433
25.9131
4.88484
-19.6466
-35.9071
-48.6766
-80.8103
-79.0823
-53.4226
-35.7907
-3.81893
131.285
188.386
115.766
3.61078
-114.841
-114.079
-56.7816
-52.329
-19.2248
18.8316
38.0976
40.1098
29.3977
8.22112
-12.1129
-36.2019
-21.7807
17.5707
31.7429
47.5964
68.0625
-37.5794
-83.9284
-36.5988
41.8421
50.8253
71.3223
72.2545
-11.5652
-35.5264
-23.6452
-84.0193
-70.5307
-23.6697
10.8147
41.3276
35.1048
-2.00404
-28.7619
-50.7849
-122.491
-84.5606
-16.8449
32.4344
80.9031
93.4129
47.0718
26.1845
33.1792
15.6037
3.058
36.2335
38.6651
21.7406
6.62747
5.77982
7.81281
-7.29869
-20.6695
-32.7788
-58.5987
-42.5291
-27.0208
-10.2125
9.74229
-2.18856
-29.6668
-23.0597
-11.911
-8.09522
-5.20202
17.3951
49.1398
69.0889
49.9821
5.65042
1.09864
-2.04394
-50.5976
-73.7014
-50.8714
-6.62687
2.65847
14.2271
-1.22178
-43.3971
-36.6115
-16.0326
-12.6228
13.6459
107.332
109.427
86.274
28.2877
-27.4634
-15.2009
-13.0479
-19.343
41.8624
98.8258
31.7491
-21.0273
-31.5435
-37.6308
-26.3404
-13.0803
-28.7292
-42.0922
-34.868
-47.6213
-82.2902
-29.9301
-23.0297
-22.0911
31.3877
42.0247
18.3004
-6.48107
-28.6468
-68.5672
-57.5369
-42.8587
-29.4095
28.5161
54.4261
76.7198
76.782
83.57
118.273
67.2224
-8.88644
-23.3975
-23.5955
-4.32432
3.00524
18.1603
21.8471
27.1987
24.8378
17.9861
9.11117
-4.85295
-36.1222
-54.7476
-29.9998
-17.7946
-26.0856
-40.0161
-38.5974
-8.82306
24.1108
49.4832
10.6393
-44.1574
-62.5404
-64.0025
-20.1178
-4.11352
-25.5474
-26.2012
-11.8608
16.6458
62.5299
52.996
28.8285
-7.82694
-21.8168
-21.2473
-30.3799
-32.8338
-10.7437
-17.5829
-34.8178
-24.8098
-11.6187
71.6664
152.648
126.255
78.0009
64.0809
71.6406
37.6105
-2.86188
-28.9224
-42.0783
-43.2168
-36.9276
-35.7456
-50.1282
-42.6618
-49.4271
-67.3431
-40.4325
-7.08718
6.47155
-32.3763
-90.2764
-73.1298
-32.4898
-10.9884
27.6995
51.681
39.6329
42.5543
43.6256
52.9487
59.4843
60.0524
37.3716
23.9981
6.83051
-1.26974
22.4281
36.161
21.6036
-17.6744
-63.5364
-68.0101
-44.9643
-16.9601
-10.9631
14.3663
62.2615
12.2701
-44.36
-29.6761
25.2471
11.8611
-5.46863
11.5979
3.02882
-6.61626
-38.3716
-40.102
-7.53203
30.3769
45.5309
69.483
-21.1524
-67.9575
-48.6344
-84.0299
-95.7492
-36.2229
33.9368
60.8999
136.169
142.302
73.9198
-16.7372
-47.884
-34.6851
-12.9892
13.0321
27.0567
-38.2571
-45.1001
-12.2627
43.336
29.3775
-14.7966
-10.9498
-13.7046
-14.0978
-11.1981
-54.3801
-129.143
-92.6075
-25.0521
24.1282
34.2504
31.4697
48.7113
37.1041
10.0831
9.60118
-11.5354
-4.92536
43.518
35.6672
6.10289
12.0915
20.0835
20.5967
27.3588
65.3551
22.423
-19.686
3.52444
27.8364
15.9306
-18.7494
-37.7841
-49.8768
-65.2181
16.6561
37.9322
-29.3426
-38.491
-9.70656
-3.12535
-3.56444
-17.5973
-10.2652
-3.76621
-21.0299
-21.807
43.3266
46.7004
14.0887
6.79798
-3.64096
1.63607
14.5608
16.1096
-18.7335
-31.4036
-25.8201
-22.0991
-10.6825
19.9316
50.6316
39.0453
-11.7173
-33.0459
-35.6203
-55.4407
-75.2014
20.436
47.2118
40.0066
43.0017
24.5321
40.8932
39.0692
1.23347
-14.1737
-9.53023
-12.2049
-12.1828
-12.7536
-17.6895
1.01349
56.2625
79.6042
12.5821
-29.7696
-87.1396
-225.279
-167.465
-62.9611
-11.6088
39.8017
48.7578
52.3957
65.1134
72.9367
84.7211
82.3044
67.5227
45.7211
28.3874
18.1029
1.51585
-33.8143
-9.01257
22.4158
12.7446
38.9504
46.1347
16.0073
5.89186
23.3683
-49.1853
-69.1586
-57.3675
7.77782
1.2926
-27.3171
-20.6044
-18.4986
-44.8448
-55.5414
-80.8527
-120.975
-81.6903
43.0105
52.4246
2.9532
-22.1058
-15.9642
-13.6533
-31.724
1.86225
16.4704
24.9157
0.963251
7.73173
33.8271
35.1297
24.6164
26.4352
32.1863
50.6506
89.9504
79.5535
43.4224
55.6957
49.0959
-2.81031
-40.0843
-43.0285
-12.0955
28.8014
14.6277
23.1837
1.92097
-10.2831
-25.5609
-72.8746
-80.1174
-61.2975
-50.3546
-26.191
73.1751
63.0967
-16.4939
-35.2305
-4.68362
12.6671
6.11486
-9.50035
-40.7279
-44.1559
-26.8687
-34.1805
-46.4691
-37.9871
-12.5379
23.6318
28.6719
37.0298
45.2308
14.9829
-53.6782
-58.9829
-33.4144
13.1332
42.1806
85.2735
144.992
116.999
2.84568
-138.657
-103.873
41.2082
93.5314
71.858
22.0685
-37.0012
-24.8352
16.9787
-13.2713
-64.2328
-33.8774
22.8256
28.7995
19.9382
25.2144
-3.13279
-70.0548
-108.919
-55.5685
26.0912
28.2399
-24.4825
-30.9742
18.5285
96.3715
106.608
69.4853
5.82074
-4.70492
-10.2609
-43.1815
-43.8237
-36.5179
-46.1605
8.13438
14.1597
-11.6421
37.7377
30.0693
-24.3503
-50.7917
-63.8756
-66.6974
-54.5611
72.5551
114.23
55.5043
14.8081
-0.844979
14.1882
1.20515
-23.1372
-37.8481
-34.3246
-49.6173
-45.0303
-23.0013
-32.9242
-27.2157
50.0718
71.8881
29.5943
36.8784
71.5371
-40.7362
-58.1365
-28.7286
-4.83411
23.76
33.9425
36.6935
24.2486
10.4386
7.10542
-7.88722
-6.80026
2.50877
16.6571
40.3041
56.1511
44.0413
11.9821
-16.0528
-46.9805
-90.6636
-92.8966
-70.7464
-62.547
-17.8875
10.91
14.275
21.6921
17.3786
15.2626
6.53557
0.508259
28.5479
67.5174
56.0968
37.5037
20.6866
11.6054
-4.15387
-44.6116
-34.1784
1.54484
28.9364
55.2825
74.648
-39.8746
-115.283
-45.5897
-8.24222
-15.1562
-33.8487
-36.0664
-43.1718
-46.1426
-4.91325
24.0974
46.2985
55.7331
12.4274
-9.44401
-5.74981
-23.5294
-50.9604
-9.9575
0.7423
64.1216
84.6671
67.4003
80.9869
45.8104
27.262
13.2696
-6.0288
-26.9197
-40.9428
-41.1406
-49.8466
-50.2845
-22.8049
-11.7885
-16.4364
-11.511
2.82904
-20.7404
-36.8611
-2.60844
21.4485
-21.6929
-58.4603
-35.0612
-28.1902
-16.8966
15.6752
77.4968
117.632
75.4277
31.0783
8.2421
-38.9056
-43.468
-17.4128
31.5963
65.5861
19.9477
-27.0547
-57.1192
-57.2391
-36.944
13.9362
60.6527
53.0105
35.3304
56.6339
-15.4974
-108.481
-69.0741
-16.0989
-21.7606
27.9526
63.0355
53.8224
10.3495
-23.1034
-32.1091
-45.2455
-22.3972
37.8371
56.8183
-5.56742
-31.6458
-7.18148
1.28028
-27.5761
-22.9134
9.68024
10.5961
8.24643
25.845
20.3071
1.98764
-13.9211
-15.6949
-24.1458
-23.2486
-2.10698
6.73234
-40.5289
-36.9
45.6155
30.6682
55.2055
132.583
74.2662
9.3873
-20.0526
-41.9619
-51.5428
-47.9144
-35.4115
-15.1147
-3.0764
5.13674
6.93991
-41.4238
-142.634
-96.7751
7.43502
16.659
-19.1568
-1.58911
-3.27353
-37.045
-9.56963
52.3249
87.2806
123.563
119.165
68.2565
35.544
-13.5215
-53.1847
-65.7419
-58.1306
-18.328
118.06
129.593
57.7708
20.0844
-20.5621
-27.1571
-31.8343
-56.8706
-60.09
-64.5161
-58.3996
-46.841
-20.5881
-12.1403
-10.2339
2.82996
34.7566
68.805
41.9853
34.7317
20.2326
-3.29704
-17.5199
-30.2826
-33.7292
-23.9918
-21.4257
-10.574
8.45639
3.09964
-19.803
-49.4905
-74.8369
-53.3791
-14.6268
34.2554
38.4993
-2.92565
-15.6664
50.5055
102.699
52.5734
-9.83301
-14.3316
17.7002
-33.3587
-48.0548
63.1955
89.1888
46.2591
28.3
8.22654
-2.33539
-1.06775
-9.2232
-31.3075
-33.3437
-0.484573
60.7995
29.6438
-51.6241
-45.7191
-13.6882
-11.1313
-29.9542
-0.417863
8.81072
-56.5524
-67.4273
-34.2425
-10.2249
-2.66069
4.9911
14.7008
21.0392
28.7056
21.086
-6.14571
-17.6857
-5.61548
14.9771
28.4408
29.5838
24.6824
10.9796
24.8312
25.734
-14.1054
-25.42
-22.5586
-11.9051
-4.80908
1.13886
9.1998
6.6546
-8.56102
-13.2287
-30.0501
-8.75638
52.9692
90.7513
102.069
46.7937
-62.0605
-158.495
-87.5525
-11.8038
-2.82804
-6.18021
2.96079
11.6937
13.8301
14.6211
18.4496
3.52188
8.04174
25.157
11.8226
-29.2059
3.10012
-11.6938
-70.6747
6.01919
131.422
96.6134
-8.40432
-66.2034
-125.145
-78.9208
-23.6911
-4.05739
6.25813
9.75797
12.5913
30.2889
30.4766
24.5198
58.7544
49.3816
-37.7951
-84.4375
-50.6489
-30.2665
-2.63412
56.7461
52.3302
48.5994
68.8493
46.8986
23.9254
15.3287
18.2586
8.83112
-24.7377
-35.4472
-38.2378
-45.9639
-32.5129
-15.3895
-18.8432
32.8963
20.6979
-46.5477
-68.2948
-9.66974
22.1385
51.8664
68.106
19.8938
-18.6071
-24.4433
-26.7825
-34.6218
-24.1446
-9.28604
-2.15888
5.11479
-1.87063
-9.70975
-20.7778
-39.6115
-6.55323
15.8282
-0.565052
-6.56407
-17.3679
-31.2661
-18.2341
-4.14546
34.4001
102.125
76.5217
58.3701
47.4828
25.3759
4.27486
-13.2982
-2.90169
15.6015
-0.241927
-33.1408
-36.7713
-43.3038
-73.8905
-25.753
41.7653
16.389
-8.15144
2.94116
0.305232
-39.0471
-52.6828
-51.9391
11.0469
50.2638
29.2153
24.6849
101.438
77.2683
23.4762
14.2914
21.2815
28.4953
36.6424
8.51128
-84.6747
-177.189
-112.71
-21.9853
-17.2599
-33.1759
-19.0511
2.99497
10.2202
-1.02208
-23.7305
-19.6803
-52.4447
-15.6567
49.0881
66.0968
57.2042
55.7652
43.5079
17.1873
36.1103
62.4554
28.7148
10.6943
7.40008
0.932307
6.54845
-2.31606
-57.8559
-58.1233
3.33235
27.6646
23.0275
74.2224
35.4289
-31.0229
-60.1298
-74.3759
-43.0121
-15.5978
5.11117
50.9925
31.9408
-16.3799
-27.1816
-30.9088
-16.4095
22.4751
26.7802
-22.6432
-36.8107
-26.3177
-42.2786
-66.2933
-38.0453
4.03184
19.2751
40.1265
41.1333
40.0371
36.5288
39.5363
17.8244
-16.6615
-26.3191
-31.6645
-22.0899
-27.443
-20.0748
33.0683
95.9712
59.4482
1.81196
-30.3554
-13.925
19.2241
-16.2904
-48.6271
-38.8565
-25.8053
-9.50473
94.5486
123.192
57.9808
-0.846668
-8.54319
2.73819
28.2397
53.8741
-36.0505
-118.727
-76.2502
-6.46679
-12.6935
-25.8167
-35.17
-45.2191
-31.0428
-33.1642
-21.1825
14.3728
28.2512
13.6174
7.82587
35.2219
45.2069
31.2111
10.0606
0.914837
41.9415
53.8316
12.4432
-124.772
-177.352
-90.4082
-15.5919
40.9929
62.9255
82.8856
98.0697
53.7035
-13.2159
-15.7153
25.7795
37.4138
33.8181
12.6515
-8.41992
-25.6336
-11.2895
-4.54708
-3.30113
41.5108
60.6692
16.0658
-19.442
-7.4396
-2.985
-17.8082
-28.9935
-24.6793
-42.8514
-59.8732
-50.1222
-35.0068
-33.2934
-23.9745
-21.3453
-14.9171
10.1721
35.5032
54.2933
63.8963
64.6528
40.1728
-10.5218
-44.3985
-49.9075
-101.865
-99.7784
-29.9166
5.13958
2.68941
0.878909
12.0254
112.763
177.832
103.473
38.0674
-5.36793
-24.1213
-28.4084
-12.8489
1.09601
-4.13381
10.8033
29.073
30.9321
34.4327
8.19003
-28.2505
-56.8504
-65.845
-69.755
-57.2838
-74.2326
-67.4447
12.4466
73.0789
56.1251
2.04658
-24.3501
-19.8111
-16.7979
-9.90786
25.3757
20.0527
9.13522
38.3958
22.0829
-2.48823
4.11228
21.2174
33.4363
24.1898
-17.767
-58.3335
-61.4895
-52.8978
-17.7861
5.22199
8.13973
17.0928
27.7957
28.2098
-5.36033
-15.2727
11.7636
36.334
47.6447
19.6547
-6.78005
-7.61546
20.9266
18.0592
0.809259
9.29995
17.1243
29.5162
51.181
-67.3004
-142.171
-74.4236
-5.16815
12.6404
25.2078
56.9848
46.0453
-40.3429
-61.8083
-43.8775
-44.5094
15.6046
166.958
155.947
42.7441
-29.771
-49.2692
-62.1412
-70.1799
1.91214
47.6454
13.74
-18.9811
-36.5034
-39.2812
-27.6936
-4.61292
25.507
11.6797
0.375557
-19.9698
-52.2255
-118.467
-92.7395
-27.7387
58.0517
113.584
59.7963
22.7477
35.7942
48.474
29.5374
5.19967
-15.5325
-26.7217
-30.6303
-29.1779
3.76388
60.4761
75.8943
76.0696
43.3622
-19.4117
-23.1098
-19.8142
-39.7614
-63.8884
-57.7982
-48.668
-31.9773
-19.1781
-5.49326
27.6009
33.8114
20.6814
28.8226
58.5387
45.5633
-15.0093
-38.8929
-75.7246
-47.2396
-34.6028
-23.1899
-0.812532
-17.3394
-24.2026
12.0169
41.9982
71.3947
83.3356
57.7653
-7.95442
-36.6254
-4.26549
12.8334
-0.20198
-4.74593
10.5394
15.9109
45.1793
37.4789
8.53067
1.37445
2.52891
-13.026
-31.3823
-31.5207
-31.595
-51.0179
-84.9769
-76.804
-20.8466
30.9747
156.529
164.447
29.3085
-54.1313
-68.1675
-60.7652
2.47855
25.3675
-34.9928
-58.5771
-52.4607
-44.4716
-7.59543
20.9956
-95.7402
-140.172
-23.8085
57.1716
74.1239
64.1028
-13.366
-43.2368
1.802
41.7987
59.417
61.5041
38.8684
25.4679
54.0148
58.5012
49.479
33.2374
7.99831
5.97517
71.6153
107.245
64.0876
12.0725
-20.8782
-37.5281
-77.3251
-85.56
-63.6123
-47.9116
-42.825
-39.9924
-49.2052
-55.7131
-48.9663
-39.9396
-26.3354
-9.44946
-3.52936
-28.0062
1.79544
30.0408
26.7691
32.8011
52.6234
23.7031
-7.4142
-14.2494
-2.68732
0.882687
6.30096
14.2442
7.79879
0.330386
3.30866
7.36115
14.3039
12.0449
0.474695
3.04939
18.958
23.8294
6.16942
-20.5223
-27.6967
-0.782782
14.5039
16.0837
27.083
36.0831
19.1976
4.7195
-6.5123
-25.4784
-21.3017
-31.2195
-38.2303
-27.8592
36.0985
68.5546
89.6376
74.8989
21.016
-12.5806
-46.1002
-86.185
-115.259
-108.152
-80.588
-53.4735
24.4006
135.129
120.968
101.93
54.6779
1.70891
-24.9101
-37.9258
-66.9636
-72.5269
-74.6035
-62.995
-31.8326
-14.5748
-3.35729
25.3078
48.9926
48.7923
44.621
44.2825
11.9086
-51.2441
-49.6541
-38.0639
-15.2683
15.3913
28.9129
30.0208
10.3865
5.91496
8.56996
18.234
35.1114
34.2471
32.7792
47.8545
55.414
43.9024
21.5858
-0.29372
-29.6165
-62.7514
-53.501
-35.047
-9.79167
3.72095
10.1022
7.9222
-4.84691
-23.8836
-27.7991
-19.5894
-20.0229
-35.0145
-36.4293
-27.5812
0.0431038
59.6741
27.0345
-38.2312
-48.9289
-12.3831
-15.08
-19.0451
25.6038
71.1015
42.7723
32.06
17.1884
10.9567
10.7692
3.90012
3.56728
9.17702
3.58651
-7.54437
-22.452
-51.8296
-19.2058
24.2235
13.9629
-21.7091
-23.709
-18.4596
-46.0681
-47.6707
-2.8283
41.6467
90.1421
122.041
68.0507
7.01568
-39.4805
-110.641
-129.194
-50.0871
4.63173
-1.91273
-13.6151
58.7052
66.9336
33.9414
41.4559
44.1233
43.0153
22.7472
7.07534
-22.6314
-49.896
-57.9516
-22.8919
10.2607
25.2604
66.1628
80.3215
23.6238
-15.7629
-22.363
-58.0674
-129.27
-101.074
-12.5514
59.2522
42.3049
20.8806
-0.698156
-20.1895
-36.8831
-47.0645
-44.4842
-21.7044
1.93354
19.0287
42.0624
61.6269
58.4357
34.9591
22.8517
44.9871
45.6715
25.0592
-13.6159
-52.8721
-40.718
-38.9027
-29.9345
-6.75695
4.05628
-20.1945
-33.4384
-24.348
-22.7586
-3.99081
65.0957
75.4953
25.9746
2.30586
-1.88653
28.3423
13.191
-16.6891
-27.4749
-66.3013
-56.346
-32.0251
-27.938
-18.5176
-9.17255
8.67613
39.2392
44.2692
23.5283
16.9956
-7.50746
-11.3144
16.1631
43.0397
40.5476
12.6138
12.6361
18.0724
-3.6178
-24.0595
-24.2705
-25.5234
-19.8583
8.15659
67.9596
65.3879
-2.80934
-37.8068
-19.697
-12.989
-28.9402
-25.3217
-20.1565
-29.6478
-34.1819
-27.487
-8.58444
10.0204
18.2402
23.8177
16.5158
9.9701
9.17533
-4.12191
-37.9043
-33.8828
-19.3121
-41.6619
-18.1977
32.0841
44.6491
48.9837
112.497
79.908
38.5666
9.1256
-4.17894
-14.1387
-19.6083
-19.2445
-25.5731
-25.2299
-21.1557
-26.1727
-25.3374
-3.35585
23.9579
35.716
3.38702
-35.1141
-53.016
-58.9284
-91.8961
-82.8549
-50.5279
-16.4201
18.6598
26.0916
11.362
33.4986
62.3533
63.2982
78.6551
120.006
69.8054
22.426
0.0686852
-3.49275
-8.2606
-7.03765
-2.76734
-15.5887
-35.6831
-26.5025
-7.25157
1.15246
-5.61758
-22.0778
-30.7646
-35.1474
-39.3852
-11.1137
34.6583
40.7546
48.2619
30.5012
-25.2952
-123.934
-136.12
-42.3032
39.8755
46.8671
20.2198
20.1208
13.9525
7.35557
4.97735
23.5301
49.801
63.659
51.5285
20.7746
-27.183
-81.7525
-113.77
-83.7194
-23.2809
85.6763
113.338
33.6635
-9.85327
31.4763
41.5319
37.9122
50.338
43.5888
23.2014
3.66037
-23.2508
-50.8894
-63.9361
-92.1458
-93.7053
-89.7277
-79.0894
-46.8096
-0.0143169
27.5272
82.0533
171.75
113.81
11.7246
-51.4038
-60.559
-47.4203
-35.3844
-17.9974
57.5249
67.7847
40.7393
22.037
22.8982
-5.95846
-20.1555
0.876391
-4.19688
-5.96562
25.558
-35.6465
-118.566
-103.654
-49.7882
37.6855
48.7419
14.4333
0.192862
0.2758
-30.0308
-22.0203
-1.7941
15.6043
16.1185
16.7486
26.3428
47.6822
71.0661
59.4902
6.91828
11.072
-2.09208
0.115697
-12.1289
-25.0217
-16.9792
-11.7373
-11.8987
-7.42167
-28.6636
-23.8433
-0.969009
8.00686
16.0761
16.3692
14.586
8.13006
-6.83238
-14.241
27.1833
19.8973
0.838144
-13.4837
-20.4188
-23.5033
-28.5611
-25.4155
-17.6133
4.37691
17.2657
12.5458
15.0777
7.46754
-18.7137
-22.8025
42.1219
42.4466
-21.832
-110.183
-119.081
-55.5081
-19.7506
0.454274
144.648
171.061
67.9104
32.9984
3.79832
2.18732
5.89539
-18.2263
-34.7929
-23.8455
-1.66411
2.07415
-33.6906
-31.2283
-4.05532
51.731
58.1086
42.8928
30.1429
-11.5268
-174.264
-179.874
-42.3088
10.1085
31.1101
13.4112
-6.07453
9.73846
29.3133
38.5916
49.1737
53.084
26.6094
17.2827
20.6306
37.7221
45.3881
20.5549
-5.83042
-1.43958
6.74328
-28.1142
-46.0413
-73.2995
-84.0903
-40.1223
-15.9872
1.75549
25.5856
37.9291
12.1981
-4.67727
-14.5202
-3.40278
6.33975
6.37506
-4.96432
7.92853
15.7063
17.8544
16.8091
11.9452
4.75237
12.7408
38.3689
27.2577
6.80918
8.25034
-9.42121
-20.7387
5.63058
5.52561
-10.681
-26.7679
-37.5146
-37.2307
-48.9182
-63.3408
-47.0963
7.76411
51.4225
72.2713
37.7206
-13.8494
-43.1533
-60.2827
-36.6563
-6.58887
21.9408
14.1135
10.3147
11.0891
19.7612
-27.3076
-38.8124
38.9819
44.6063
11.3576
134.65
234.923
132.797
1.50376
-27.7125
-11.6374
-7.40313
7.23427
-14.086
-93.2399
-113.97
-90.4967
-74.3943
-49.8365
-39.6238
-9.93648
3.97587
-26.1668
-23.1165
-12.6344
-101.343
-171.19
-91.0941
16.1953
31.3124
31.4833
56.8177
60.3891
76.7435
106.679
91.6348
72.2504
53.1159
16.1731
-14.919
17.0768
48.0708
14.7905
-0.604968
14.7579
2.89964
7.81852
22.6019
-13.5958
-93.6833
-124.607
-43.973
5.80961
22.0786
29.5322
21.4347
26.1622
25.017
47.5281
56.9709
14.1158
-19.4598
-25.1146
-17.4545
-7.10309
-22.5966
-39.5406
-43.0798
-30.6525
26.9064
55.103
-7.90756
-57.4674
-87.1644
-96.9688
-54.535
-34.9642
-23.2781
-18.8648
3.6078
34.3878
45.8011
45.0237
22.9059
14.8585
16.6904
28.2243
37.1959
42.0394
42.7275
13.3661
-5.66549
-13.2863
-14.3311
34.0847
88.4194
59.267
47.6373
7.11621
-32.2996
-25.912
-40.7499
-50.5912
46.6584
67.3905
5.82489
-11.3385
-46.8631
-83.9414
-53.8329
34.9673
33.6439
11.226
9.46241
-12.8845
-70.3497
-80.9448
-78.6114
-54.9133
-26.1402
-12.638
6.3812
14.8841
-10.2568
-12.7336
-1.34824
-26.1672
-12.7445
36.9958
70.9136
31.3425
3.17586
28.5501
50.2998
54.0629
33.8092
30.4336
13.7935
13.7419
14.0009
2.88567
40.3275
74.6881
5.38164
-33.2279
-39.8194
-47.3
-21.1364
8.73536
48.833
77.2014
30.7435
0.658193
-18.4309
-35.5428
-44.4169
-39.6855
-30.896
-25.5302
-25.9305
-31.6388
-52.5536
-62.2773
-53.6235
-36.8796
-0.747404
4.48425
-1.32956
5.57363
-7.17239
-8.35031
19.655
-22.0293
-78.5768
-13.3225
74.5073
71.8189
68.1739
123.239
70.1423
26.1702
3.05398
-49.6607
-35.9528
5.87093
17.1828
13.831
5.6833
-5.2235
-19.7184
-22.4981
5.70276
40.4253
73.6464
17.4063
-38.7569
-36.4156
-44.0192
-53.3798
30.1017
34.3589
-13.0876
-9.47244
-3.07335
-5.04067
-12.4556
-50.7025
-61.7681
-40.4586
-35.2872
-31.0283
78.775
146.856
121.271
68.1772
-62.541
-133.426
-66.7567
-33.8025
-36.515
-17.5787
4.1649
10.9293
4.00987
11.3036
16.1457
40.1884
102.119
74.3436
1.82481
-35.5854
-101.695
-150.081
-71.3559
-8.60269
29.951
76.7678
41.5574
-8.73729
-3.71469
24.8687
46.7915
54.3979
42.5932
25.6048
19.8758
22.6095
-7.7958
-7.75023
5.20912
-16.6054
-28.2982
-26.6297
-55.9819
-28.6172
57.8407
38.132
28.6147
36.7986
7.72084
6.11054
7.22389
-3.96902
-9.67841
-21.2091
-20.3223
-46.2499
-84.0046
-80.0811
-42.2904
-14.9715
-13.3034
-3.3305
13.2883
6.33506
-6.8499
13.5253
1.89893
-24.4943
-17.1151
-11.9333
-7.48803
37.1929
91.7853
59.1111
-3.88185
-40.5376
-32.4547
1.16954
25.2691
51.1722
136.654
145.097
80.0526
16.7382
-25.4127
-18.9712
-24.6983
-37.3381
-45.4923
-49.931
-40.7347
-44.0384
-43.7559
-39.9896
-24.8753
1.91691
-9.30094
-26.2645
11.367
33.9161
-42.5818
-59.8445
-23.8039
-9.78697
1.90124
30.1412
18.4907
-14.1486
2.70654
27.0225
31.77
15.6498
-22.3868
-19.3197
0.533948
18.1319
39.5594
40.6911
23.0438
19.1347
5.69428
-15.7414
-21.4343
-18.5568
-16.5196
16.8072
90.7543
98.1607
37.0791
3.22238
-8.07521
-13.5065
-29.4062
-25.8638
-18.4903
-29.3934
-53.2582
-47.9711
-54.2695
-51.943
-29.7027
71.5759
91.1949
40.5823
22.7531
-8.27607
-33.8891
-18.1574
32.348
43.7163
-98.5951
-244.469
-208.408
-56.5329
18.2891
59.2493
90.38
85.5861
73.834
71.636
59.1628
12.5098
1.52194
20.7374
17.9274
11.1398
-4.44586
7.80918
6.77971
3.47026
73.0919
146.244
121.166
39.2944
3.41711
-5.55462
-6.05773
-19.0657
-36.426
-46.573
-65.011
-91.5621
-117.17
-144.568
-111.513
-83.4096
-81.613
7.84598
171.327
132.567
68.3417
60.8773
36.483
-4.5114
-28.6862
-43.216
-54.9814
-48.2141
-20.9619
-12.5912
-13.8916
-16.4617
0.0921239
55.3429
59.8506
35.5641
22.7577
-24.202
-131.498
-103.738
0.0829985
23.2618
38.5846
45.0936
51.6116
50.0596
43.7147
37.5335
24.2227
19.8666
16.6713
2.86005
9.71997
8.56075
-2.88656
28.4596
37.849
-11.6279
-51.4672
-65.7122
-50.9314
7.09501
14.2629
-6.49125
40.3701
72.5915
28.7068
1.06509
-2.71539
-10.0598
-31.5937
-35.7699
-31.1975
-26.6303
-25.4676
-41.1708
-40.6823
-20.1386
-24.8974
-15.7655
-1.04823
5.0996
-16.037
-25.229
-19.8761
-17.1486
26.3501
61.4943
59.0675
9.34192
-43.4367
-85.4939
-73.6878
-25.1982
9.9445
79.7834
119.668
98.6905
84.2937
74.5042
48.9757
23.0717
14.5684
2.42215
-57.2434
-101.993
-84.2757
-70.3337
-63.291
18.4181
159.224
170.823
109.679
20.0455
4.04618
-38.9095
-81.5147
-78.3114
-92.5021
-69.4248
-69.8485
-135.942
-109.859
36.4921
66.5824
33.2534
11.0476
2.54294
5.38797
-12.0992
-54.0615
-36.4772
-6.04058
28.7779
45.457
38.1645
3.76664
8.26203
21.2707
20.2831
18.1283
38.9295
39.9833
-13.2546
-13.4315
61.8529
129.059
84.3435
41.4175
9.26266
-12.3006
-20.6332
-25.3566
-25.7159
-49.2134
-60.2548
-44.7937
-45.8482
-52.6192
-47.6766
-1.40678
71.0893
79.9653
28.9052
-6.90568
-52.3524
-117.285
-114.24
-96.1546
-79.7185
-36.8456
8.37756
36.9691
57.5109
51.5619
43.6382
60.8314
71.2685
60.5657
48.2816
41.0747
30.8447
17.3458
-0.101173
0.46599
8.85024
25.8495
47.2123
50.0467
38.1838
-3.59322
-15.4664
-22.2496
-23.5904
-33.4517
-69.4665
-104.668
-92.2612
-61.2784
-48.7494
-3.15055
92.6697
69.8897
31.8728
17.6698
2.08908
-24.087
-37.5429
-31.5977
7.54046
33.5939
9.02276
-44.507
-47.4555
-37.3426
-18.8158
-8.68903
14.1296
25.1565
1.40297
-43.1045
-95.6937
-59.6354
-11.8627
36.1006
100.655
118.483
84.4654
64.8016
30.9568
1.7995
-1.2087
20.7041
19.2551
25.7951
28.7929
37.0692
12.8234
-0.772169
13.0205
6.36373
-18.6066
-33.808
-51.2217
-66.2795
-85.7233
-85.816
-51.1173
-29.2838
-17.1016
-5.37018
8.71535
26.7601
19.2378
13.0464
23.6016
37.158
34.4555
32.265
16.4221
10.3008
1.14145
-7.86341
-15.3396
-20.4018
-20.9306
-16.6018
-4.26873
-4.46875
-1.51306
1.7654
29.5425
52.872
52.5513
38.4853
19.0418
-0.544734
-23.1574
-69.0982
-151.624
-127.175
-30.3119
19.2319
34.9362
37.5799
45.0498
72.9403
72.1398
44.3804
25.3567
9.84799
-11.4426
-18.0551
-22.5362
-59.4335
-63.684
-24.1709
-16.5317
-6.72785
163.126
172.024
44.8058
23.8501
46.8475
-12.285
-53.9169
-64.7054
-107.779
-125.61
-81.2927
-44.263
-29.533
1.55291
21.2266
8.30384
9.60326
0.707581
1.16873
16.0617
-15.917
-29.5227
-12.553
-17.6974
-24.7156
4.53753
34.172
42.4711
101.917
128.06
73.0469
32.9593
9.08682
-18.965
-38.1694
-19.0348
-8.15283
-4.27604
-0.447543
3.03861
-14.4208
-20.1888
-14.4425
-18.468
-18.0302
4.22774
-6.97928
-24.2217
-20.5469
-11.9971
-8.80476
-10.1155
-6.08132
-9.27915
-1.47949
13.1911
15.1079
21.3684
29.9604
54.8109
57.418
28.1963
-4.36381
-15.1184
-71.8482
-115.9
-85.7746
-49.0559
-25.2978
-10.5389
3.2223
5.7693
14.658
28.0426
40.2099
79.9523
81.0976
40.3431
18.0125
4.29631
-14.3079
-12.0566
-1.70965
-6.22858
18.8303
52.0032
39.0267
7.98432
-14.517
-18.4714
-19.5738
-21.9086
-19.9279
-18.3777
-18.7604
-25.2031
-31.842
-56.7178
-71.2823
-53.7631
-38.3158
-21.5278
74.5511
128.704
83.6224
48.1113
24.0708
7.31083
1.23019
-8.04665
-0.921355
-9.50872
-38.6123
-50.7088
-38.9109
-38.5702
-39.0148
-7.76782
-1.34481
-40.3289
-16.8905
29.7215
-19.8551
-28.8592
70.0409
76.5515
55.6814
30.5489
3.93835
0.0318853
-2.38884
7.76915
71.2693
71.7854
-1.33421
-45.4847
-68.085
-76.0437
-40.5154
20.41
42.8128
11.6873
-9.14279
15.7932
-23.5565
-14.0883
13.5091
13.7664
33.2076
46.7405
2.8174
-38.3106
-70.6363
-96.9503
-47.426
10.7171
34.1716
58.1226
61.6784
38.6918
3.23445
-0.80582
-5.74477
-49.3128
-58.3332
-45.7471
-30.588
-4.57383
-0.612142
-1.70025
48.6876
90.6479
79.5601
85.4109
54.0674
-91.9846
-151.884
-67.0142
-12.989
9.06669
16.5812
14.6714
26.1165
23.5133
21.3409
17.7911
9.31663
3.72008
2.78914
-12.1601
-27.2551
-25.7738
-21.2965
-10.8369
7.95337
68.5898
95.5539
48.6052
7.17012
-15.8931
-35.8527
-35.9698
-38.9801
-43.4694
-35.2855
-25.4385
-20.6075
-16.7835
-16.1463
-7.69814
-8.33495
-4.23525
-2.84438
-0.79287
-17.105
-12.5473
0.112374
-18.4242
-30.9759
56.2987
144.587
106.073
123.438
108.088
5.62657
-55.5305
-43.4258
-24.7478
-59.1292
-67.5426
-47.8837
-16.1679
3.69777
-44.3987
-18.4745
18.5057
30.9654
26.855
24.775
-25.0296
-81.2499
-67.3488
-79.6893
-76.1599
-7.68502
28.093
-5.92349
-8.1389
34.8615
57.7908
50.8923
29.1781
14.3464
42.5405
45.0843
43.9348
43.3169
32.1144
14.2731
-20.0836
-44.379
-31.5561
-24.7945
19.3078
49.3938
54.745
57.462
31.5674
9.90702
-4.53227
-16.6391
-28.9003
-38.7729
-31.5644
-24.7312
-17.6724
-18.2079
-19.6233
-17.3706
-27.4294
-35.8954
-31.0772
-34.6113
-47.262
-41.0849
-19.0931
0.0423964
20.2473
25.9503
18.2598
6.97808
-3.50055
-21.6364
-16.5142
-13.9358
2.53024
29.7561
44.3487
53.43
38.3281
4.56807
-21.5078
-12.844
3.05575
1.58535
46.624
88.416
-6.6911
-29.371
49.2324
15.2252
-27.2911
69.3789
125.45
65.7335
14.4138
-20.2384
-35.1349
-46.4806
-65.9932
-61.6003
-37.1361
-39.029
-55.6735
-48.0518
-61.1155
-77.6366
-27.0006
-7.18817
-32.6504
-7.91039
26.036
-11.1801
-31.1499
20.7981
39.8074
46.9398
35.6781
14.3479
18.6661
25.8576
30.2984
53.6596
82.8357
53.7847
6.10205
-15.1674
3.76535
8.1721
-12.2033
-3.70158
10.3766
-20.2221
-38.5536
-34.2523
-23.0868
-20.9604
-10.1473
8.28105
19.9221
26.1226
30.5069
6.17586
-27.6784
-19.0456
-10.3135
-10.1862
-19.0094
-45.3364
-40.4771
-18.8915
-4.48039
1.88158
4.97163
12.2326
13.6048
6.82918
5.65747
5.83985
9.35274
23.7942
22.3944
3.84192
-9.47145
-4.49506
1.78063
1.17624
16.4294
30.5314
18.2326
12.6281
5.16817
-8.0347
-25.8317
-62.5121
-69.7606
-53.9028
-32.9469
10.8422
113.576
137.195
67.9951
20.7506
-10.7692
-24.1201
-1.58287
23.7456
-0.74949
-25.9562
-41.771
-63.1314
-43.9411
-52.4958
-70.3811
-40.4993
94.7527
129.28
48.6276
-3.6594
-76.2041
-94.2157
-61.7652
-39.6545
-22.1535
8.59676
18.5245
20.4577
50.3447
54.1931
-35.7919
-57.322
7.81171
54.7353
81.2996
59.3715
-16.7621
-40.778
-2.93498
-2.15429
-1.57405
39.6697
86.2784
77.2752
27.0314
-18.4355
-56.1736
-78.6711
-93.0966
-59.6908
37.3984
83.9451
38.5341
20.1175
21.4352
29.0276
4.08226
-16.5988
-11.068
-5.58751
-33.1802
-69.4277
-64.5613
-5.20202
34.4817
12.5663
-18.8892
-34.1542
-13.7261
-9.86969
0.769672
-3.49065
-33.649
-56.7691
-38.9149
1.4356
28.2076
67.7974
115.396
77.9133
31.2223
-0.164956
-21.8749
-44.6139
-48.3136
-19.1372
4.12514
5.63476
8.0385
7.56544
5.96712
17.5438
35.3709
35.5116
17.8193
-2.67236
-32.7511
-58.1198
-73.4056
-43.6876
-18.1413
-13.1044
-18.5924
-29.6778
-53.2198
-51.1568
-6.28817
65.2904
113.034
180.25
182.92
100.094
30.7318
-18.377
-48.5094
-63.097
-66.0825
-53.4268
-47.9837
-42.4932
-34.591
-34.3201
-38.8852
-42.7918
-17.8883
8.49005
18.6595
-0.655418
-21.9915
-52.0463
-60.1823
-17.504
13.3431
56.4374
61.3865
45.1392
40.8266
37.1162
20.7213
23.6989
25.3204
19.1866
20.331
26.8501
37.0628
42.1637
19.4117
-10.9447
-28.1757
-51.8052
-50.1503
-38.7987
-32.0745
-18.0386
-3.99497
-3.88867
-17.9542
-34.716
-38.8657
-30.7481
12.2445
52.0115
18.1795
-1.42687
6.03011
5.70042
-5.53708
-37.131
-39.1367
-31.5503
-45.4634
-42.1326
61.0663
97.3483
66.4908
72.3612
66.6279
40.7027
1.75166
-37.7971
-52.1679
-29.7431
-1.19169
-12.0205
-37.705
-49.326
-23.5108
62.5175
66.799
-2.1259
-68.0963
-50.6699
-87.7368
-74.7155
-0.711874
97.9023
100.688
56.6923
36.1215
32.9535
6.98995
-29.3474
-17.8742
17.4544
39.3008
31.6289
11.7899
-22.4325
-43.5776
-27.481
12.5344
-40.3125
-117.07
-70.9184
-15.4231
-34.5422
-33.1898
-12.9984
8.09892
34.2596
47.3092
37.4888
38.978
31.3487
26.1015
34.0293
30.3896
10.0643
21.4464
33.4328
51.2714
75.4582
74.6722
14.9212
-40.625
-77.4694
-68.0554
-43.5271
-29.0107
-22.7422
-29.5856
-40.4488
-36.6744
-23.914
-8.21741
-1.25755
-3.77266
-16.4417
-20.1916
-14.2714
-5.3579
10.8253
34.0836
31.0002
19.3622
3.47724
-1.15449
2.86847
-1.45284
-12.6278
-11.9964
-4.20283
3.88519
30.4578
43.7934
24.3031
13.393
-5.08633
-22.4894
-15.0296
2.93795
12.0705
79.9317
117.443
86.451
8.52977
-36.3621
-43.2399
-47.0301
-34.4094
-34.35
-40.843
-38.7893
-55.3898
-64.1549
-45.3916
-36.8135
-13.9632
48.9704
47.7905
38.7701
51.7568
-9.14029
-70.3868
-72.6933
-33.3127
-2.5683
12.4649
30.8013
52.4896
53.4875
47.6247
42.113
27.8768
12.5773
-26.2469
-40.5378
-20.1277
-18.5346
42.4065
54.6061
38.0178
10.3094
35.5586
100.604
48.3419
-13.1726
-56.627
-89.9118
-63.1336
-46.6178
-59.7007
-61.0114
-40.8441
-11.37
14.4153
23.8078
19.9154
2.41004
-1.8133
-8.29673
-11.6819
4.49095
37.5664
22.4109
5.32983
-13.6023
-7.13551
3.6755
-7.78558
3.46995
12.8202
16.1544
11.0834
6.37619
-0.279062
-2.08575
10.0822
11.1197
4.58988
8.89629
5.37125
-0.755682
-36.7932
-60.78
-14.3205
32.1813
38.0002
26.6861
19.974
5.96981
-30.0167
-41.3985
-16.5654
-2.49664
-10.3052
67.481
111.905
65.8836
20.6928
-7.49647
-25.9156
-34.1329
-35.6922
-41.5035
-30.7488
-22.5115
-22.8583
-14.0507
6.91686
17.4411
21.8125
19.9671
-16.2964
-42.8879
-46.34
-99.0602
-142.827
-71.2958
10.3963
39.136
47.024
50.1452
34.1683
21.067
16.405
19.2992
37.6235
53.4427
37.6874
53.8915
92.3799
70.6835
56.9801
38.2816
19.4302
-13.3464
-24.0132
-31.5096
-40.4142
-33.198
-35.1594
-42.1231
-45.2014
-43.5704
-30.4404
43.5804
64.9175
0.277182
-9.8706
-17.3717
-46.2315
-45.5429
-37.9419
-29.9967
-22.0634
-11.9762
-8.29011
-11.417
-11.371
-1.69621
6.53439
10.0566
11.8625
21.3778
30.4301
0.886038
-18.9641
-6.39704
2.60277
-1.07456
4.27075
23.4915
12.2651
18.9866
26.5265
14.3803
27.3515
80.4894
67.3749
13.6413
-7.61911
-1.05344
-12.3773
-7.15064
11.9801
-27.9603
-31.1256
-15.9729
-51.5464
-83.1736
-71.1478
-28.5807
-6.43778
34.2874
119.668
119.874
56.631
-42.1256
-64.1748
-29.2382
-13.0749
-18.5336
-17.523
-28.4678
-34.2104
-21.9615
-19.517
5.82494
47.2493
48.2563
25.9899
-21.9985
-58.5942
-74.1769
-47.1918
-34.7147
-20.0375
15.8835
45.7376
60.4478
46.627
24.1873
36.4663
18.6028
-10.1546
-14.8534
20.5752
50.1313
31.0653
41.7631
55.7004
43.4431
40.9785
20.2245
-56.6004
-74.1879
-67.0716
-67.1724
-23.4395
40.3228
4.48052
-22.0371
33.7225
19.623
1.30089
6.54007
-28.4853
-58.5527
-44.6279
-33.7761
-35.1644
-36.1303
-4.57724
24.6985
24.3579
49.8766
97.1421
29.4257
-116.514
-132.143
-56.4415
-40.8497
-69.8437
-31.2479
29.1725
88.869
160.099
128.879
70.4367
33.7331
4.54905
21.3005
26.5276
14.4729
-6.90808
-28.2945
-53.9062
-16.7012
32.2822
5.69458
-1.10239
19.4954
6.17189
-0.490212
-9.75116
-34.8772
-81.0242
-79.7064
-49.5105
-28.513
-9.79917
2.26697
10.8221
3.42089
-10.0116
-4.42016
3.80441
47.5771
112.72
83.4183
21.7593
-20.2395
-60.2649
-66.6233
-55.3533
-31.7797
-29.7657
-16.6253
9.01989
17.7151
23.4919
28.4758
23.4705
21.7817
18.1854
16.6858
12.4727
3.35765
-12.5509
-18.8131
3.11926
26.0918
37.4761
46.6227
56.5312
29.8697
-2.66378
-16.7447
-24.98
-31.1623
-35.4346
-33.8806
-34.8639
-33.9703
-26.7352
-20.4201
-15.7565
-12.3348
-17.1633
-29.4348
-31.7017
-6.41866
16.9859
16.4039
34.9406
80.325
42.9939
13.8326
8.98122
3.39986
-7.25419
-11.5911
-11.3656
24.6035
50.0414
-18.4498
-52.8062
-9.63109
18.0188
6.48988
17.6793
16.181
8.60641
3.05962
-31.8688
-79.0224
-57.2474
-3.53089
18.3388
3.64648
4.72994
9.72414
7.99039
-14.4573
-59.7105
-50.6197
-10.3088
43.5344
63.5595
83.8453
96.66
58.8229
31.5577
4.55017
-13.3753
-28.201
-25.2109
-28.3906
-34.5079
-16.6799
-1.91021
1.69518
-7.3156
-21.688
-7.56962
19.753
5.79328
-38.9252
-55.2932
-44.7679
-38.6406
-19.1349
-7.2268
6.36431
8.02096
5.74223
18.1755
23.2393
20.5227
31.4712
21.2483
8.05975
28.7887
62.4031
47.2714
16.542
-18.7361
-31.8667
-15.344
5.26141
10.053
21.8307
10.344
-11.1612
-41.2145
-43.7653
-41.3946
-34.7536
-9.89151
2.78346
12.262
16.4927
3.79535
-9.58373
9.35435
31.4099
38.3858
10.8913
-10.1765
-15.7819
-20.4228
-14.1811
-4.24225
-0.595081
-20.1223
-23.4657
-14.7866
-15.6272
-16.0418
42.795
84.0024
77.5471
39.9247
-4.20887
-17.2829
-16.1342
-7.98277
-9.56448
-19.9611
-15.0625
-27.1456
-43.0511
-45.4646
-23.6712
13.079
23.9294
19.9491
19.2615
-0.552361
-64.4627
-96.8058
-81.5424
-43.7266
0.712365
102.413
122.506
76.3174
88.7328
60.3163
10.881
4.28574
-12.6558
-18.2552
-15.0636
-2.09464
5.08017
-2.78234
-15.3146
-13.7902
-7.85772
-8.3439
-7.35381
-7.07398
-17.8886
-58.9618
-60.8061
-31.8279
-35.2714
-29.5294
-23.412
16.326
79.9825
63.5697
25.4407
4.47491
9.3041
20.3265
27.2631
29.1703
20.8098
9.18979
1.71367
-0.978935
-12.6178
-46.5704
-41.4847
-20.2134
-26.8942
-11.548
1.28292
-9.57364
-26.4216
-6.76098
14.0336
18.6994
11.4116
17.7915
16.4321
13.1588
24.2271
21.0948
10.9698
10.5894
-1.35041
-9.64542
-12.4959
-17.9963
-20.7054
-14.6975
3.37886
7.10165
0.976464
0.099739
19.0882
46.663
15.7784
-37.5469
-50.7508
-44.1676
-23.6422
-6.33625
1.29645
8.57139
19.2038
19.041
21.3688
25.8663
18.2599
7.00056
1.29306
-4.4682
-8.25283
-3.90577
-4.19784
-11.6189
-2.8305
11.3104
7.61522
7.70708
0.439637
-64.3231
-99.0704
-66.7049
-31.8676
-24.1229
93.5522
237.129
193.542
112.133
-14.0442
-94.3919
-82.2599
-54.5208
-44.7623
-47.3241
-42.1033
-31.7309
-24.8744
-23.0373
-25.267
14.2389
35.6935
20.6565
7.42079
4.32834
-43.251
-107.254
-98.8452
-61.4069
6.72088
37.2539
61.9377
93.8906
39.9063
17.6008
94.439
93.7733
57.0997
42.3225
20.5894
-0.601841
-25.1081
-36.3173
-59.8107
-59.3987
-43.4852
-42.411
-23.1922
-1.87869
25.2327
42.8761
30.7204
11.4728
35.9261
21.4824
-60.6037
-73.5377
-29.24
-4.89081
17.7517
77.6747
74.7364
0.919249
-26.5342
-34.2889
-57.5859
-59.9307
-18.308
52.563
45.7898
39.5997
16.7012
-80.5043
-151.004
-88.6285
6.85598
66.1806
54.8266
2.51421
19.3482
43.5329
47.1191
67.4211
51.3163
33.5728
1.65488
-26.3401
-42.4611
-44.4683
27.016
10.4432
-23.0242
14.4983
63.2759
36.713
-16.6824
-42.0874
-42.9147
-25.4178
-39.9225
-62.271
-35.6884
-16.2462
-22.1884
-9.31403
-0.0754896
-12.5188
1.57782
81.4895
65.7327
35.75
12.6064
-1.3602
9.61726
-1.94376
-21.2499
-28.0053
-33.0889
-20.9426
-20.735
-31.527
-7.8281
56.2382
97.02
80.5908
49.2795
16.1044
-8.27145
-79.1246
-91.801
-53.6155
-28.4229
-5.86282
12.7982
17.8382
18.2898
19.6282
23.7877
26.1171
19.5225
13.7587
6.32667
-16.5161
-8.08292
6.80047
3.73229
5.16382
2.89265
-30.3194
-36.108
-18.0955
-7.26318
0.619906
10.9439
9.10434
0.0336657
-2.66202
0.716678
2.21307
-6.62575
-7.03347
-11.5235
-2.01374
16.2499
24.3789
34.8424
63.0297
35.3883
-13.3375
-29.7327
-35.635
-24.1538
-21.2572
-21.6656
-20.821
-23.9209
-25.9744
-22.8755
-6.51577
19.3767
49.0518
41.4632
13.3058
-0.755016
-5.35554
-17.1991
-29.7054
-17.1211
-6.4145
-4.8898
8.46082
11.6763
11.9654
15.1199
19.8838
18.7415
16.8537
16.0752
10.2214
-0.383169
-21.665
-11.8354
-0.610142
-2.23592
1.55999
0.535301
-13.4454
-11.4031
-6.89663
-6.69212
-2.77826
-6.4049
-4.96602
-1.82297
-0.976443
8.10546
14.6993
16.6596
12.8276
8.53354
2.48728
2.96155
-0.460511
-3.83203
-6.13265
-11.6254
-17.9994
-10.5445
0.0170031
2.18785
-0.562466
-0.693409
-1.50945
5.4475
8.93692
6.55961
6.08134
4.39133
1.95378
-2.48896
-7.16261
-6.75102
-7.82908
-8.95389
-9.96307
-8.29357
-4.04881
-2.38699
-2.50833
1.9478
4.28205
4.2294
4.21163
9.10028
16.8865
16.1863
4.85248
-4.72681
-7.60285
-4.14487
-7.2651
-7.97694
-6.15219
-5.14069
0.218174
2.43449
3.23128
8.73328
13.6945
17.0572
16.5496
15.794
13.1328
9.22658
2.16978
-0.0785146
-4.74913
-12.3838
-16.5611
-18.08
-13.54
-5.98633
-3.40529
-1.83986
-7.57725
-8.7857
-11.7325
-9.02519
-9.98812
-9.97281
-10.0192
-6.72818
-2.96466
-3.95536
-9.60078
-4.79975
4.30025
14.8929
20.8449
22.39
24.8344
15.3009
3.99519
-6.9854
-12.9114
-14.9813
-12.5804
-9.67426
0.0243105
4.69063
11.4212
15.7743
18.9801
11.2871
5.71642
1.86562
3.46495
6.10769
5.95258
-1.83034
2.11982
9.51274
18.6245
20.7699
21.1857
29.9755
32.8427
12.4418
-6.87614
-17.7937
-19.1458
-25.4333
-33.6938
-38.4826
-44.4945
-43.2797
-41.0777
-35.5674
-22.9852
-20.9383
-17.6305
-11.8273
-6.16291
-3.2335
-5.42482
-7.44579
-0.0481024
10.8494
16.9169
23.4704
24.9808
34.3822
38.4762
41.8146
54.7667
63.0884
56.6698
42.7857
27.6477
17.1984
2.10606
-13.6433
-23.9644
-32.4044
-36.4668
-40.4286
-39.7463
-26.7785
-16.8881
-16.0941
-19.6607
-17.5898
-11.7483
-3.65665
-0.241159
13.7411
41.119
27.2014
19.0775
22.4821
10.268
-3.54912
-10.2444
-10.1174
-17.6683
-28.9363
-36.8621
-41.7689
-36.6545
-22.4063
-10.0823
7.67788
27.1276
29.996
23.9035
6.36907
-11.9724
2.2711
2.23727
-2.38025
3.36119
4.22605
0.981594
0.953499
7.99815
17.6455
16.0614
20.0474
17.5438
7.47141
2.72166
-5.5621
-19.719
-25.3069
-15.6459
-2.01271
15.8868
45.9847
51.7233
21.6625
3.72004
-5.92615
-11.0877
-7.1998
0.828543
-2.02262
-7.08752
-14.9415
-24.0888
-9.70485
-5.00904
-5.42328
-5.12091
-12.5068
-28.5407
-45.0071
-54.6185
-65.9019
-54.1043
-19.7742
5.66535
23.6952
38.07
50.5742
59.9409
63.786
72.227
75.2756
66.5523
27.8973
4.88995
-0.693917
-8.32464
-11.1916
-11.5674
-20.909
-48.637
-55.548
-47.7885
-32.864
-28.5619
-22.4002
-5.40597
12.8892
5.51013
1.06547
2.12977
-5.44429
-7.61469
-4.32984
-6.53083
-9.70564
3.11419
15.9959
20.6676
21.0722
24.9855
15.2849
-11.9667
-26.2309
-5.43054
18.6793
-2.37534
-32.5466
-24.9707
-10.4589
-9.25238
-12.7662
-14.1308
0.902351
8.83802
5.84554
12.1222
26.5972
37.3
42.1066
55.4159
51.0469
21.6722
6.64679
-11.0621
-26.1614
-8.23786
20.7324
33.7505
33.3141
-4.18778
-24.9156
-21.6651
-37.6891
-68.5852
-65.3172
-44.726
-33.1275
-40.1917
-55.5801
-47.2439
-12.5241
45.9616
76.3363
65.1564
46.1476
42.38
25.8162
-14.7515
-33.5262
-10.2175
1.36921
-11.0826
0.529444
45.3876
85.4942
78.3536
37.0371
26.567
28.7612
27.4039
15.1764
-26.7076
-93.8394
-108.481
-85.6876
-83.6811
-99.8763
-78.167
-37.5837
-24.1048
-20.1871
-13.5532
-17.4517
-0.00120013
19.3698
42.1367
41.9434
41.0371
85.2626
91.7205
20.5815
-21.0826
25.8588
54.4058
57.068
40.2402
19.3154
21.2672
3.0014
-13.7898
-11.3608
19.2288
23.1358
0.586094
-48.8598
-63.806
-33.1663
-16.3256
-26.7655
-21.855
18.4382
40.4112
23.1545
20.6386
15.6387
3.40141
4.15982
-20.0415
3.59665
32.1801
30.8818
10.2288
4.72164
-6.8447
-14.4477
-46.6861
-59.5561
14.2989
-34.4279
-86.3746
-79.3672
-31.2567
8.01824
11.9957
27.2817
38.356
55.4441
62.7724
16.0987
-8.2458
-12.0779
-23.9847
-12.6037
-14.103
-58.2432
-67.9062
-42.7848
-87.8569
-55.9851
-1.19357
32.147
43.3329
44.6211
28.4512
17.1254
26.0795
38.1053
61.018
99.1089
97.6092
58.4298
23.0402
2.74423
-16.1401
-9.20591
-1.0679
-13.1515
-46.0937
-57.0958
-50.7656
-9.26506
40.8188
-4.8471
-24.0477
-21.8021
-29.7461
-19.2552
-19.0245
-55.6487
-49.5156
47.184
59.8269
30.7789
39.2433
35.1079
2.14485
-7.16424
7.23383
6.21442
4.69663
0.412246
-7.94072
0.312118
-29.0938
-39.8856
-11.9985
-2.46986
-6.5604
-10.4204
3.35121
-22.6132
-29.1074
-51.3185
-38.8442
51.8248
81.5666
28.2739
18.3582
47.6019
45.1717
57.3012
40.2747
25.697
41.0699
6.36544
-47.4629
-101.408
-130.904
-134.711
-65.3854
5.58831
3.85731
24.0911
57.5723
26.3766
47.7924
64.988
11.6701
-10.2391
-32.6226
-58.5268
-60.9575
-54.384
-21.2849
4.01386
29.9668
95.3924
149.614
151.747
76.1476
-36.5478
-58.9324
-47.1789
-89.0573
-101.309
-84.9027
-44.0147
20.8048
42.6911
58.8139
28.8502
19.6751
57.4063
35.3567
-14.812
-22.5095
1.14006
-14.6441
-42.536
-93.5164
-107.691
-66.1191
-6.52632
45.9992
60.0856
47.3422
46.651
50.4695
30.5838
-11.3742
-24.4381
-21.2772
42.4788
125.074
127.433
97.9403
55.492
-4.1674
-26.017
24.3379
43.2048
42.5194
7.77865
-38.8746
-53.0064
-93.4599
-129.641
-154.148
-131.51
-65.6841
-44.1198
-52.1784
-70.7827
-79.0202
-70.8485
-72.6702
-58.108
-25.3959
57.8952
92.7827
91.2027
67.4693
56.3358
80.1929
53.5781
48.6434
72.0687
83.0237
70.4863
16.4295
2.4726
18.489
10.8135
12.9996
59.7782
68.2144
13.984
-42.9057
-80.6389
-101.89
-66.0187
-5.33517
11.7248
-21.0427
-15.3921
34.3506
34.0975
10.0495
44.1664
66.2502
35.831
-19.0741
-84.3437
-86.5321
-60.6545
-52.3691
-27.3405
19.7251
31.8237
22.8923
4.42056
-24.9831
-39.1923
-20.8296
-16.8274
-23.2623
-33.5258
-16.7607
-17.0877
-13.8158
14.746
33.8756
55.1607
23.156
-5.66457
-7.54854
-15.6996
14.3427
46.6749
65.1291
67.7996
47.0156
0.928503
-36.2702
-12.7019
18.8962
100.969
130.565
54.4111
27.0964
-61.896
-136.246
-107.889
-70.1316
2.99425
62.3036
125.197
120.863
25.1626
-90.6497
-151.609
-96.8683
-8.70432
16.1341
-47.8433
-105.348
-133.636
-104.43
-36.992
13.7602
51.9133
55.3739
18.9339
-4.20183
-42.0958
-67.2821
-36.7452
33.597
67.2258
80.5161
89.5942
66.1772
29.5521
14.8829
52.4434
96.7225
66.0012
30.7907
21.4322
13.2881
35.6195
69.8585
51.1642
4.30632
-33.312
-76.2368
-160.359
-170.75
-72.1311
-18.3941
16.1176
114.698
123.078
55.9431
9.13923
-12.3974
-38.6377
-81.6622
-95.0235
-86.2426
-56.038
-39.9022
-5.9978
22.2368
29.3296
25.8398
21.9327
1.57716
-30.8181
-7.63506
57.7582
-2.60667
-36.6781
20.2945
53.4008
27.3568
22.1694
30.2349
17.8253
7.93662
28.8414
58.051
21.0542
-23.6394
-13.3845
31.1999
31.0049
8.81471
0.126617
-17.9163
-46.7298
-30.8379
-11.3297
-40.4115
-62.1871
-47.0469
-42.1749
-40.8042
-31.6619
-2.89135
83.7484
112.227
94.3868
39.5079
-8.38572
-80.4303
-113.61
-85.2524
-40.65
11.538
31.1996
17.1957
37.9177
52.4583
50.1526
16.8024
-27.8905
11.8679
37.4941
11.7792
-42.5236
-81.0696
-69.278
-16.7547
-0.60599
28.7575
85.3075
83.1052
77.9793
60.7624
-1.52478
-47.5211
-70.4819
-53.2926
-43.5164
-46.283
-16.0187
40.1997
61.6936
14.9717
5.64112
2.96574
-50.6343
-52.7218
-10.137
44.1018
57.448
36.5495
6.10263
-3.55706
5.30299
-36.1672
-22.5696
17.195
6.41795
-10.4686
8.06225
-11.4762
-33.8272
-39.2248
-81.6095
-70.1292
19.5835
61.8002
57.8907
49.2319
35.1514
22.1624
30.12
27.5816
13.8671
8.0977
21.7163
6.31694
9.14809
18.0419
-12.2876
-72.5298
-89.6099
-80.2675
-25.531
35.7871
78.5601
44.4322
-0.765725
-7.25762
-19.382
-29.4728
-52.8557
-72.559
-57.7352
11.5055
15.4799
18.9719
0.646128
-13
1.20388
23.3475
46.0129
59.1288
34.4312
-19.8357
-47.7242
-28.1077
-8.01181
35.7429
70.2083
72.9128
34.116
29.3991
52.2531
-18.6676
-79.7366
-63.7061
-34.4282
0.439015
38.4304
51.2737
34.6697
51.3769
38.8955
2.42348
-3.81835
-4.36086
-35.4758
-75.8559
-71.2034
-72.2717
-85.5024
-83.2446
-79.043
-17.5597
40.1006
32.6379
15.6347
26.8272
16.8252
-4.21527
0.713707
19.4746
27.4495
24.3634
-21.8853
-33.2609
36.8104
80.5825
34.1425
21.766
56.3729
61.6732
44.9633
64.0012
34.0107
-11.6255
-0.377084
-0.273956
-0.418271
-26.1805
-40.3873
-51.5335
-69.4319
-60.0239
-41.5772
-26.1303
-27.3208
-33.5571
-14.7003
41.05
44.9104
14.4591
1.34481
-17.3492
-0.0674731
48.2372
67.2174
16.7458
-25.5421
-21.1964
-17.7809
-29.7804
-53.5035
-48.8099
-20.1659
-7.36252
3.19153
-2.23952
-5.62493
-33.4052
-5.10905
40.9273
37.6929
31.8393
27.6917
43.5381
39.5423
32.0664
12.6797
-15.9857
-32.5874
-47.1979
-6.12924
40.0862
61.9894
86.1792
60.6176
24.1577
-11.0639
-40.8489
-58.415
-65.5662
-29.8048
-32.8499
-59.6798
-64.2639
-61.3574
-47.3698
-23.9559
1.30801
-8.75214
16.4699
52.9889
112.359
104.822
76.0543
26.1696
-21.0095
-14.3336
-11.3471
-15.8717
1.88968
-36.8805
17.5388
6.32636
-5.53531
-6.47302
1.55625
1.92708
-6.15465
-46.2734
-112.162
-137.856
-40.1031
76.1587
92.4358
32.3125
-31.7894
-19.0621
36.0854
65.1664
47.6445
26.7742
24.365
17.8616
3.15513
-26.7506
-33.6844
-14.0228
23.8306
88.3105
90.5752
39.8248
-51.6234
-137.148
-160.044
-122.17
-25.5897
44.7055
47.9248
40.2773
38.6959
41.0018
45.4537
41.7174
36.4914
20.4753
8.67295
43.5225
34.9564
-7.27077
-12.9991
-12.8636
-25.1801
-38.394
-32.3934
-21.1519
-32.3312
-59.9637
-62.8747
-27.4043
18.5691
22.8132
-8.48132
-27.8817
-18.2686
-5.23818
-13.4848
-15.588
13.6871
25.2658
11.1658
23.2963
34.0575
35.6669
16.1499
18.7942
17.9377
3.24349
-14.0412
-26.1202
-36.9982
-30.5426
-9.38645
-5.74915
-8.16485
7.72865
29.9303
11.5119
49.6073
107.854
74.5674
42.9907
23.8985
9.11084
31.3591
35.6247
-13.6339
-72.6382
-108.675
-94.5555
-82.3328
-53.5462
-9.39139
8.03973
13.0855
29.9036
32.0657
22.4584
-25.557
-56.7052
-19.482
13.7782
41.415
33.0683
17.3715
18.0453
35.9497
39.3915
28.5386
-3.68087
-11.4072
-32.5108
-70.7662
-72.5842
-54.3213
-39.6734
-32.0315
-6.31773
17.734
24.4503
46.8644
28.2538
1.32387
17.1439
24.4481
-8.78594
-6.38137
5.84075
31.1814
68.3363
72.1068
77.2781
78.2661
52.7919
17.2419
-12.4942
-12.9224
-20.852
-65.9506
-86.8839
-78.4157
-76.4833
-71.9242
-56.3479
-46.1678
-25.9044
9.88682
49.688
35.4679
-27.0737
-32.6461
-15.0757
24.3672
63.5411
66.9824
27.979
0.536429
-9.28832
3.12963
22.2191
32.9465
33.074
10.3419
3.90503
-7.66994
-17.8321
-34.4593
-32.8603
-17.3336
7.44571
26.1545
33.7109
23.2819
16.8227
14.0475
26.78
-10.0143
-49.6948
-59.8736
-69.7061
-48.7309
-21.1913
1.86783
14.0164
30.3331
43.3111
32.5365
16.1862
30.494
23.2485
-8.70318
-39.5221
-58.3405
-40.5537
-18.733
-5.18316
49.4425
83.5378
83.1891
51.8838
6.36402
-16.4939
-2.37471
5.19714
-15.873
-36.6856
-36.2041
-71.9299
-87.3119
-55.6152
-6.31084
15.8212
38.0035
58.5769
43.7074
25.4371
0.963239
-20.387
-7.9465
12.3953
-1.74228
-14.2548
-10.0796
-4.75541
5.94845
15.4435
38.1019
70.2109
48.0229
5.31722
-41.9436
-43.2863
-24.2984
-27.1034
-24.4661
-15.743
7.2071
5.47069
-43.6401
-73.47
-38.1468
-6.17765
19.2309
30.4432
28.8879
0.00840241
-1.90781
33.9164
65.4438
60.5976
20.7384
13.7554
-1.24647
-32.0969
-46.8383
-34.0542
3.86337
6.309
-17.502
0.810932
31.3249
62.8747
66.4599
28.5639
18.9847
37.5652
-12.4104
-73.8875
-80.7047
-77.8678
-67.368
-60.0319
-62.0656
-59.8096
-26.4692
19.3061
43.5477
75.3884
101.623
102.945
82.6994
50.3016
8.11804
-7.87977
-12.8196
-23.1442
-35.494
-38.4124
-18.3021
5.34872
15.8876
-11.7156
-38.4373
-17.7267
-2.5431
-11.5872
-28.7614
-20.6493
-13.9888
-32.2383
-52.5452
-44.6843
-21.3625
2.10086
4.71274
17.8667
45.3612
55.1193
29.2579
13.8087
6.22913
6.01407
36.8334
55.9049
65.5
49.6659
20.7055
8.25192
11.4858
18.2179
15.9621
-10.3617
-37.2313
-46.2771
-45.8913
-38.1589
-52.7142
-66.9225
-30.5014
11.4681
36.4474
25.4023
8.82282
-12.0984
-34.4864
-7.18238
-12.098
-27.4126
-14.954
21.0923
28.8221
20.2849
38.0447
24.5602
-33.5456
-5.6046
33.8329
54.4747
14.3113
-54.9625
-69.4406
-28.8194
-3.60869
10.628
27.2163
21.2791
12.8086
2.27849
-0.808298
7.79259
3.98109
-15.229
-33.55
-30.2404
-4.29883
13.112
23.6769
18.2502
25.2454
32.5263
7.4413
5.56979
3.69641
-16.0688
-61.0664
-70.5439
-35.5749
-12.8578
-5.25418
-5.60013
10.9706
60.6145
84.6509
106.599
117.527
76.9471
18.5619
-28.7238
-45.1783
-41.5087
-62.8471
-66.4581
-20.877
-4.91396
4.16246
-3.44556
-20.0824
-31.7757
-44.9293
-40.7359
-37.9745
-58.0238
-68.5895
-46.1993
-9.28744
3.38095
44.1442
77.1762
74.7385
58.1323
96.3827
88.8009
30.0266
-17.8005
-22.6055
-16.3141
-24.1904
-4.96318
20.458
0.829848
-23.9554
-21.0959
-23.5608
-52.9241
-66.0886
-55.6487
-43.5147
-26.4936
-2.06796
12.8315
24.5547
28.4529
27.5967
47.9855
50.7204
47.6942
45.5521
34.7778
8.01518
-0.880918
9.97339
39.663
51.849
42.0889
12.1308
-40.2489
-64.0859
-63.7656
-59.2129
-44.38
-49.436
-56.4099
-38.4384
-8.7149
-6.36626
-3.48807
13.549
9.53503
7.2759
26.7524
20.9697
-10.3392
-17.3338
-14.0071
14.9468
45.2143
61.8938
59.0255
42.0305
26.129
10.8817
6.67087
-3.93077
-12.4532
-16.5829
-26.4417
-32.8088
-23.9884
21.4679
19.6731
10.8078
20.4983
19.6555
-8.78955
-33.42
-26.0105
-17.1781
-16.0315
-34.6705
-43.0059
-27.2821
6.14985
0.269295
-24.8476
-28.2876
-37.9973
-24.7546
11.3969
31.9672
48.8646
37.4539
-2.92198
-18.3173
-25.6798
-17.1445
-5.67557
-0.988566
22.6677
59.8159
93.384
90.6996
33.1011
3.47142
0.763389
2.18441
8.60012
0.627067
-14.0819
-45.3848
-87.9082
-58.6479
-4.20703
16.2552
44.4932
30.8624
-9.24046
-8.08006
-14.5803
-21.5978
-20.1968
-17.2016
-0.135098
29.3036
26.5196
-5.92663
-9.5188
-7.48431
-8.31154
-1.13909
-6.22615
-11.7567
-15.4967
-16.033
-2.82274
19.5691
31.0137
12.9898
0.052414
11.7178
-7.59199
-29.1041
-22.7312
-7.78713
24.2429
46.6685
22.5476
-9.19512
-19.4615
-15.4499
0.380046
-10.3851
-16.05
-3.94481
-7.65383
-12.5914
-4.84288
24.8053
8.22996
-28.3109
-0.489794
22.7587
-1.90927
-14.43
3.30047
14.7602
15.5202
26.9591
53.5452
63.5928
49.9957
7.15342
-30.572
-43.585
-31.7115
-34.8432
-36.1072
-43.9401
-17.7602
-9.60713
-22.842
-5.18717
29.5499
20.2153
-8.20635
8.8671
10.219
22.1716
25.5646
31.8065
27.0268
10.0565
-12.454
-25.7513
-38.4313
-26.7605
-27.9667
-25.1886
-21.3307
15.0411
53.5331
41.6235
21.874
10.2022
-5.25556
7.94669
9.09562
-18.3677
-58.9401
-83.1609
-63.2417
-28.4836
13.4667
50.1996
68.5744
67.3545
68.1451
37.0123
18.8908
-0.251409
-34.4376
-43.6193
-32.0047
-19.2934
-31.811
-38.0338
1.46028
1.99438
-7.0995
6.63282
25.6994
35.5039
12.951
-24.0987
-46.2084
-28.0037
3.92006
22.5751
30.2638
30.7704
28.68
25.576
17.689
3.67937
12.5231
12.204
-9.03907
-15.9217
-10.2858
-11.328
-13.4383
-3.81559
2.39469
-16.1454
-22.1389
-5.36725
1.86215
-3.45699
-4.53306
-5.13324
-6.15548
10.6069
1.33816
-5.91751
20.4945
14.4282
0.862609
8.43065
3.37979
-2.46586
-15.8239
-34.8617
-48.0346
-44.633
-46.3195
-41.8515
-9.45566
21.7288
35.3918
54.3018
62.097
33.8094
22.221
23.9491
0.78149
-5.68127
14.9241
39.8589
24.1158
-17.9571
-32.3664
-19.0683
1.34188
6.38005
8.93776
16.0952
12.6226
-19.898
-32.0505
-40.2607
-42.5699
-25.7664
-20.7341
-15.4862
-7.79796
-14.3457
-14.2562
7.58528
49.0746
72.9375
68.306
37.0962
33.0815
27.5088
14.4147
0.188793
-22.1581
-23.9402
-50.1695
-78.4306
-50.9764
-16.319
17.0057
18.6528
16.9224
35.7666
31.72
-3.91598
-18.3418
-41.2764
-50.9599
-40.1692
-38.9088
-32.2593
-4.94932
9.23726
10.5639
30.1997
60.6321
69.7889
26.1386
3.76136
21.4151
34.2185
24.7189
-5.80114
-21.4568
-14.6753
-11.2627
-13.5177
-11.1621
-27.8477
-65.7187
-72.2957
-47.99
22.7497
79.032
75.8599
70.2658
60.3884
33.8763
13.1226
-6.76389
-31.3852
-49.2731
-37.5516
-23.7435
-28.0288
-28.3693
-1.35107
13.6257
27.6897
52.2582
77.7167
62.2735
7.71708
-46.768
-75.4651
-77.3133
-64.677
-35.3445
-40.5144
-49.177
-39.5488
-6.49919
23.9049
37.495
33.1275
13.6503
8.99322
6.34996
21.5634
44.3296
61.3915
44.5338
-7.2595
-24.3104
-16.1502
-1.39076
5.41089
2.35717
-3.00661
13.298
32.2632
19.683
-8.40323
8.84567
30.573
-0.267608
-42.9999
-34.3459
-32.5954
-63.0487
-86.3675
-31.7062
30.1286
47.7818
54.987
42.1397
26.2277
20.4938
4.58056
-24.5033
-24.4247
-2.29908
4.55664
-7.38507
-6.54117
14.2407
19.9325
4.43856
4.33136
30.7343
52.4196
44.615
0.897674
-41.2183
-48.3509
-56.7189
-56.8011
-37.8554
9.19643
46.6225
53.6758
27.3657
-14.035
-31.7763
-44.6533
-36.8017
-18.5999
-12.4311
-16.149
-15.4147
-18.0934
-24.2717
-8.42401
15.5511
24.636
45.1679
35.8346
20.86
25.8088
33.739
22.493
7.1719
6.36123
15.1913
10.1447
-0.673485
4.90081
0.549613
-7.73721
-8.3109
3.65137
13.3295
10.9171
21.6696
18.217
-26.533
-38.687
-49.3406
-64.4884
-68.9088
-70.2059
-48.2895
-1.19279
14.9456
18.4459
36.144
62.8123
93.3368
97.6615
90.8017
54.9023
16.0686
-25.7955
-62.0624
-65.813
-33.3704
1.71985
15.8642
-1.35224
-33.5173
-61.9541
-76.6526
-62.6846
-35.6668
13.3851
18.4923
-1.13763
0.0193391
6.87958
-3.25338
5.44912
40.8826
62.2406
50.3938
28.2367
19.9805
13.9831
-4.95534
-15.7902
-13.9102
15.1752
39.9765
28.9768
7.59999
-8.85651
-12.0232
-12.6476
-21.299
-19.1296
2.44682
15.1017
-11.8028
-23.31
-9.00683
-9.40275
-31.7531
-50.7368
-30.7657
-9.51066
-20.4468
-29.0405
-22.1542
16.0937
42.5694
33.1584
27.9981
20.9252
5.55456
9.28619
4.23421
-3.9062
-4.55327
-9.08128
-6.00706
-2.87632
2.60557
3.61372
21.173
48.4921
53.2584
48.7777
58.3675
18.2115
-38.0881
-53.222
-39.6521
-11.666
-5.19981
-8.58602
-4.42533
-0.413087
-18.0125
-32.4545
-23.2393
3.76468
26.986
36.1861
17.1877
0.833833
-16.863
-25.2688
-22.7109
-37.3357
-42.5877
-40.8983
-45.735
-32.125
-12.442
1.28522
15.1956
21.8276
18.2485
11.3364
10.8281
15.4552
19.1075
33.2437
28.7945
12.088
26.5884
43.6294
41.3569
47.2381
51.2179
46.6563
29.6786
-12.0015
-29.1798
-23.1516
-23.2195
-15.8549
-5.6321
1.69328
-10.642
-27.9677
-22.9162
-26.8602
-35.5878
-49.9796
-39.9286
-26.1659
-31.7923
-27.6408
-25.1187
-24.3721
-16.3964
-4.6798
-7.36811
-8.66696
19.8196
39.385
50.7665
63.0167
60.7593
55.8758
40.1271
14.5288
-17.7943
-30.4101
-13.3899
-7.01282
-22.7738
-25.1667
-9.32316
14.4791
37.8792
42.8904
39.8558
26.3781
-0.0186698
-39.1399
-55.4489
-50.2427
-39.6347
-24.9628
0.68436
15.7149
30.7818
51.2049
31.8536
15.5167
-1.21776
-23.7286
-43.6155
-59.35
-22.6962
16.5196
15.6751
22.3771
34.3172
29.1123
11.7418
-15.2084
-31.2372
-46.0927
-56.4019
-40.5092
-3.71498
23.5449
16.4963
-6.48362
-6.66728
10.0929
48.4764
57.6733
36.6158
25.8243
-0.531899
-34.789
-38.4169
-18.6699
3.3047
26.1675
28.3769
24.6129
14.4342
-6.87036
-21.977
-19.6175
-21.9666
-30.3991
-7.82647
16.8919
-6.79917
-13.0033
-7.04914
5.88411
7.11401
-2.82524
4.13819
22.7122
31.3408
5.61407
-11.2184
2.67793
-3.05454
-15.7664
-23.2197
-20.7931
-1.14987
14.8677
32.2471
53.2485
47.1263
25.346
1.58448
-22.9039
-17.6623
-9.21688
-17.9397
-37.4544
-47.1513
-15.8814
-5.71173
-23.2376
-47.2705
-36.9622
5.71208
15.0328
22.7279
43.4213
33.6149
0.62086
1.628
1.54854
-21.2726
-51.0518
-41.4879
0.604463
33.2057
45.8085
45.6205
31.7004
21.5192
7.76889
19.3651
34.6736
16.0677
-3.72551
-25.5349
-33.281
-17.8919
-5.10162
-2.18214
10.2925
2.92896
12.1441
20.2471
10.5591
-17.8466
-37.2377
-46.6869
-46.1065
-9.12741
31.0635
38.7819
33.0518
15.9947
-10.1327
-28.3536
-28.526
-57.2454
-60.2265
-23.3064
-2.69405
12.3979
23.6679
38.1008
53.4822
47.7272
18.1029
-5.28073
-8.30289
-10.5727
-17.0078
-9.34247
-0.846473
-4.55128
13.2882
41.7941
31.185
19.4117
19.6507
14.5985
-10.1616
-18.7148
-28.0882
-31.5247
-31.3855
-21.2932
-1.78173
7.27651
4.66601
-7.21335
-6.49407
-3.08395
7.64843
20.072
25.3252
14.6446
1.23538
12.1143
-16.3326
-45.3874
-23.6892
11.0282
-6.62376
-30.2083
-23.3353
4.4212
24.7418
11.7323
-0.671912
-8.58598
-4.74591
1.85492
-8.8675
-13.1885
-9.54906
-8.04568
9.20889
28.5021
55.9097
45.7558
21.4795
9.54918
21.1721
58.1211
29.0695
-32.6176
-45.0384
-46.4362
-53.9572
-45.8971
-20.2572
0.956795
13.8186
38.1668
31.5961
4.59485
-9.86855
-32.1375
-29.3717
5.63774
26.4045
19.0298
15.2628
10.7348
7.50959
-6.97243
-32.8941
-21.2872
9.02295
25.3046
14.6777
-10.8783
-25.0972
-24.1435
-12.9493
8.55014
15.0914
17.6741
9.97128
-6.62411
-12.5343
-11.6709
-10.3318
-31.5079
-23.6107
13.983
37.8839
27.2138
12.7705
7.24168
4.67387
-2.33114
-10.2004
-18.8798
-12.6998
-1.79762
0.982964
12.0642
34.4117
16.8676
-1.78799
-8.57701
-6.98073
1.77235
-8.13826
-31.4155
-21.0529
6.33988
18.006
18.3321
6.05124
12.2193
19.5622
7.4608
36.1311
39.1918
8.30279
-1.76309
-36.5672
-53.5862
-58.9315
-76.1011
-75.7405
-54.8797
-14.6037
9.37566
31.6665
60.2782
67.2456
58.8976
68.1921
77.4803
56.9405
26.2739
-23.3854
-46.5598
-56.0662
-82.4123
-62.9867
-20.3307
1.82578
23.6427
20.8457
7.41017
26.869
65.9566
48.9712
9.96597
0.232764
-1.72534
-15.5952
-40.5526
-26.1698
-14.0971
-35.2624
-38.5972
-15.6685
-1.05157
-8.37016
-18.3071
-3.05955
-0.504263
4.09897
24.4743
27.7846
10.3497
-13.3255
-6.06852
4.25725
2.90545
2.02652
-22.1343
-42.0912
-45.3412
-29.4636
12.3588
54.9387
69.6723
70.9543
65.0889
37.9655
33.1324
31.6654
6.05404
-34.1754
-54.493
-59.0995
-89.251
-80.7421
-45.5273
-22.0661
-1.11009
19.4174
36.6767
36.5924
24.7495
13.8532
18.0898
45.8943
51.3638
40.3714
39.9625
39.7004
31.7851
-12.1116
-42.9363
-15.5499
6.42958
-0.416595
-18.7875
-37.9116
-26.7386
-28.6098
-34.7986
-30.1764
-19.2484
-11.1995
-1.40888
-5.75179
-8.56377
-22.3306
-32.5125
-17.3174
-14.546
-19.2062
-16.8419
-16.2307
4.6469
27.9914
39.9689
36.8744
40.0502
37.1467
43.1755
13.6372
-14.1463
-10.321
-4.37327
-18.5578
-12.4347
18.3684
20.2722
25.5103
38.9511
60.7325
41.2497
8.97772
-2.20066
-18.3114
-33.3862
-40.1187
-43.0762
-43.8589
-50.1644
-32.416
2.94755
17.6045
9.26863
-7.37052
-30.8436
-30.9753
-25.8577
-29.5208
-15.61
13.4377
46.6443
53.3053
52.9354
51.6001
37.0582
15.9622
-4.2408
7.6171
18.7397
15.3996
15.5017
21.7568
13.4812
-6.61346
-15.4145
-22.6577
-29.9601
-30.9778
-32.4694
-42.1361
-35.1094
-24.4873
-25.8113
-24.9764
-24.1416
-2.70338
-2.27082
-14.9346
-10.822
30.4935
52.18
8.48235
-11.5122
6.9132
16.296
11.6446
21.5641
25.7306
15.8284
9.31481
1.32211
7.53086
12.1277
-3.51439
-7.13946
-2.48582
22.8965
45.5715
46.6383
36.0639
12.306
8.80309
-7.30746
-51.26
-81.2789
-108.504
-101.084
-53.8852
-3.07151
12.7909
32.1359
45.8901
31.1027
32.3411
42.3236
39.224
16.689
7.79199
16.6101
-3.48962
-32.595
-52.5497
-45.9494
-14.3446
14.1096
36.1428
44.8966
35.7385
23.9077
19.7948
0.470882
-11.4941
1.81756
4.92526
-8.03519
-23.5213
-17.5366
-37.5196
-47.127
-30.8805
-28.3673
-16.111
3.67813
25.6301
49.9254
56.7324
42.8495
12.4398
-18.2045
-26.5502
-29.1245
-34.8103
-28.0423
-17.2361
2.28302
17.4171
26.1253
38.7967
26.8877
14.65
7.72728
-5.09969
-7.15959
-9.2342
-13.583
-8.46892
-8.74589
-20.6869
-6.00759
32.0453
62.5777
42.3783
10.4993
-25.6599
-76.9201
-72.379
-44.261
3.87146
23.9354
0.227273
-28.2244
-25.1032
-13.1255
0.915359
8.9946
19.1384
30.7576
43.2574
34.0325
15.579
-3.06195
4.68515
7.44396
9.09578
17.9862
24.4411
27.8189
6.62927
-1.93956
-3.24287
1.14885
-0.817087
-3.69133
6.02413
6.2417
1.62037
-3.58212
-22.7718
-36.0787
-47.6585
-55.3717
-26.9406
16.6347
37.2142
32.7187
5.00816
-23.4047
-39.6986
-42.484
-45.5156
-28.5064
9.23666
27.393
14.0841
15.7222
23.8835
13.7023
11.4783
14.6414
5.6029
8.58309
6.27527
-14.937
-26.8377
-7.86247
-0.430769
-9.25585
-3.72734
8.65302
32.9604
86.2878
96.9179
38.4489
-8.84989
-38.3902
-40.9539
-18.6074
-12.0098
-21.161
-12.3385
-5.9123
-5.54627
-8.39799
-7.4479
2.54721
18.7095
27.1686
23.1766
1.93372
-0.146081
-20.4049
-47.2882
-38.175
-31.4895
-12.7077
4.08494
-5.17992
-3.38516
2.45832
7.37997
22.7739
10.5499
2.68262
8.00123
10.2838
9.50767
14.8275
1.70987
-10.633
-21.5961
-33.2123
-9.96513
13.9109
25.1825
22.2668
9.91833
0.968152
2.17859
7.60186
-4.17106
-23.3563
-24.854
-8.55688
9.66505
13.2653
1.91525
-2.34993
2.4833
13.057
20.1517
21.8626
27.8427
6.64934
-8.53976
-40.7722
-88.5236
-88.9833
-60.4023
-31.6473
21.0962
52.9864
83.3594
109.392
94.1266
53.1796
8.65917
-11.9126
-20.9475
-20.8354
-21.0836
-16.5633
-28.6682
-27.2267
15.1452
48.4538
82.1288
65.807
4.31325
-46.0196
-92.8579
-93.7827
-91.1351
-97.7878
-70.1991
-40.477
-14.0145
15.4048
31.9155
36.2418
50.8037
42.4101
23.1074
36.0161
26.0773
9.55942
18.2325
33.2137
38.9447
28.0351
15.4564
4.84073
-14.4959
-10.6048
-15.1254
-6.11407
6.44452
11.494
25.7641
10.72
-13.2558
-13.0673
-9.01296
-20.5906
-24.5981
-25.6084
-23.5695
-24.3533
-24.3236
-17.832
-3.19996
-0.337098
3.52535
-6.05197
-12.4511
1.77487
25.6019
16.6115
3.38371
0.42086
0.429172
-5.71433
-8.13562
-5.36879
-13.1029
-16.5651
-7.78586
16.8825
45.599
50.3893
49.9856
45.7359
30.6261
10.5659
22.587
12.4905
-9.45215
-8.551
-12.9443
-19.7736
-38.3406
-60.8675
-73.5515
-51.3677
-19.9976
5.09436
24.4226
23.0297
11.8585
13.5836
-3.23353
-33.727
-32.7299
-21.1203
-30.6803
-10.1374
4.85112
-10.0288
-9.37253
27.0846
80.0636
108.289
82.3104
47.3157
28.4908
26.1941
2.89298
-18.3773
-28.7661
-33.5863
-28.5152
-10.5149
-10.3437
-8.99156
-15.9152
-29.477
-32.538
-18.3939
3.16847
8.67268
-19.7976
-43.6303
-31.491
-27.7097
-32.7157
-20.0633
-3.54393
18.7149
29.4617
29.2692
23.2806
6.34896
-7.8061
3.75939
34.1912
48.0933
38.3196
21.2543
4.30828
-14.807
-22.6325
7.09546
27.2211
28.0023
22.9255
11.5736
-2.58926
-24.3109
-17.7405
-6.54819
-14.2135
-33.0681
-18.7802
-8.50708
-22.723
-33.3921
-18.7086
-10.7479
-1.93093
10.219
10.7204
-3.95472
-6.51282
4.96673
-8.38567
-17.7175
-7.25562
-1.28784
-14.1069
-4.96456
14.2681
49.5743
69.3389
54.1237
43.0711
27.7616
17.6476
17.9388
-4.47629
-22.6959
-23.8217
-26.4441
-13.4365
-14.468
-6.76891
9.51793
4.24269
-4.53887
4.4603
4.22382
-12.0399
-37.0903
-53.0903
-55.1103
-61.1042
-53.3095
-28.9629
-1.31721
31.8067
45.9424
43.0108
35.1673
32.4894
23.4086
16.1911
12.1878
-4.20059
-9.80266
-9.41216
-13.1259
10.9807
43.0276
37.9923
23.7616
17.1313
5.99174
-5.92769
-21.7112
-44.6619
-42.0478
-33.6817
-20.1088
-20.0659
-18.2254
-7.76349
-5.15891
15.8194
40.2855
39.9425
30.9638
27.9798
15.0597
16.5895
23.3805
20.7513
18.2989
7.71877
1.20848
4.22702
-16.9438
-50.3991
-83.8756
-72.9949
-58.7985
-39.5173
-12.7892
-5.45403
0.0748318
27.0022
36.1544
31.8676
15.4528
-11.3231
-13.7693
-11.1068
3.92966
14.057
15.34
16.3113
25.9174
62.5267
71.8635
36.5488
31.3299
29.0017
3.92324
-17.7249
-38.954
-66.5033
-60.1421
-44.2172
-17.6922
-12.5685
-5.57442
24.3229
23.3292
13.0774
6.99775
-7.40485
-6.79648
-1.07787
6.87015
17.3686
18.9525
11.0597
11.9232
6.99792
-4.83765
-4.21434
-2.69688
-5.60443
-16.9866
-21.7663
-33.9377
-45.9099
-44.3594
-29.4193
-2.12689
-0.883767
-4.72498
8.00871
16.3105
21.0929
26.4029
30.7653
16.8884
14.5015
13.3007
0.641466
1.57148
-1.56121
9.96523
40.2391
60.3352
53.081
41.4429
19.0197
-16.7877
-38.8296
-58.2731
-80.0826
-68.8452
-36.5887
-23.0753
-20.2172
-21.1429
-27.5402
8.84036
59.1759
76.0369
63.2555
35.9378
17.4942
11.6522
-0.270616
-13.9138
-38.3897
-50.3028
-25.7802
-6.0925
-15.2901
-7.08435
15.5345
25.8105
17.2296
-5.94359
-3.03991
-0.886064
-6.70145
-14.9432
-11.9017
-1.42371
11.7442
3.76392
-13.7162
-17.504
8.63983
24.4557
24.0603
29.0346
42.7374
35.7088
11.7183
-4.25291
-5.75211
10.6066
17.2451
9.41261
-15.8951
-35.6984
-44.6662
-47.1862
-58.7784
-64.5906
-41.1454
-18.0753
-11.1677
-7.10007
3.97017
20.721
47.4812
48.7272
28.5079
33.4541
30.1206
28.5982
18.3481
16.6392
7.49948
-17.5325
-31.0515
-30.9253
-23.9287
-10.9695
-7.8122
-3.94812
-0.612946
20.9606
34.3903
28.2173
20.5686
13.0442
-4.67218
-25.6035
-19.4293
-15.0512
-25.9076
-40.2905
-33.7244
-6.78167
20.7035
48.3206
64.9344
55.5029
46.7921
14.9994
-3.4279
-18.3877
-18.6145
-9.77555
-28.9223
-34.3143
-25.0884
-21.2399
-22.6992
-15.1857
-9.39467
-12.3743
-3.74841
-2.576
-10.4684
-13.1642
-10.4442
-5.78329
7.32605
30.9404
32.1052
11.4989
7.83008
4.20118
-4.08502
-18.9744
-10.2082
11.4152
9.15688
-10.533
-8.63689
-7.88689
-27.4207
-22.2168
5.08983
14.407
16.8276
20.9628
36.4706
51.7773
50.063
47.3039
23.1865
-8.98687
-19.1963
-6.71865
-6.88202
-29.3408
-20.1655
16.1196
25.5248
18.6048
17.3345
14.7643
2.27854
-26.7654
-51.0161
-59.6095
-67.4199
-61.4494
-56.7744
-35.6058
-14.2163
1.28897
36.4749
77.4381
52.1805
15.8837
-3.5315
-9.61179
-5.51285
-11.1449
0.88929
16.604
14.8997
8.95391
10.2975
15.5185
13.8886
5.23351
3.00278
-15.2486
-30.653
-20.0853
-19.6453
-19.2566
8.19886
29.8757
27.3536
6.23277
-16.9893
-13.8699
-13.6746
-7.13371
8.20923
20.2499
13.6916
26.085
39.4945
25.4673
21.5677
28.5093
25.6038
7.05294
-27.4212
-64.466
-76.7505
-52.4095
-17.0393
20.3277
56.5099
57.3253
30.7857
12.7099
6.1363
0.977422
-4.63925
-21.6772
-49.2184
-69.4185
-76.3751
-44.8691
0.873843
20.6196
29.871
29.7371
23.1698
-4.5507
-6.98914
-7.85312
-5.87718
2.8536
8.20802
-4.54713
-17.0364
-12.8547
-4.19486
2.9261
24.1267
43.4342
38.7363
20.5164
-6.51961
-32.7498
-28.7489
2.73439
47.2648
70.3614
49.3935
20.372
-17.2996
-45.214
-40.072
-21.938
7.92872
27.3043
30.8674
34.7986
23.6812
15.2043
13.685
-11.8987
-24.9794
-29.6372
-26.625
-19.3893
-28.4896
-36.2945
-46.568
-32.9915
-20.4436
-23.0552
-14.1461
-11.0152
-6.8742
20.6561
20.3019
-14.1899
-20.0689
-10.3574
-0.494114
12.2152
19.488
45.463
51.7536
9.90154
-33.6392
-23.8133
1.58536
17.8398
25.2595
50.6478
58.2538
37.5524
13.6652
-8.54472
-8.6364
8.45737
12.1072
-4.2045
-13.2296
-11.0878
-8.15852
-3.2627
-5.57016
-16.6272
-18.0448
-19.3883
-31.903
-63.06
-77.1966
-63.7335
-14.1842
23.8412
19.0759
20.3649
45.1317
62.4645
42.2955
28.3225
43.6188
40.3385
18.8175
-3.90235
-8.87984
-11.5191
-28.7245
-27.4277
-8.0025
18.2079
50.3441
41.4806
-6.77939
-43.1575
-57.6267
-53.734
-29.2959
-16.1603
-7.97472
-0.252972
-11.2511
-3.69628
13.35
11.8977
-5.10399
9.49468
34.3619
42.1892
27.2175
-5.49149
-36.493
-55.9494
-58.6741
-23.4549
6.48771
9.01045
10.2598
-2.47963
22.0669
52.6277
54.677
31.4744
-20.383
-22.5905
-2.03281
-12.4838
-13.4279
-7.85692
16.47
45.9076
55.2842
58.3828
43.5007
6.52611
-16.0585
-44.7594
-73.0058
-61.1041
-38.2775
-36.252
-36.4663
-29.6591
-4.43322
9.53349
28.989
45.7982
42.3165
31.7535
22.6
7.42095
-6.81299
-21.9339
-27.5504
-24.6324
-11.1125
10.348
20.1636
37.7686
16.6972
-16.6985
-35.6609
-36.1802
-9.39176
13.5791
10.4369
9.63266
13.6395
27.0204
19.4581
-0.923879
-0.817473
5.55974
5.02594
-0.962833
-2.88457
9.43509
16.465
2.2102
-19.6669
-10.0317
9.39862
4.6184
-16.0611
-20.6306
-42.6089
-67.9162
-69.5905
-40.9202
-5.67406
2.50525
10.2077
24.4949
57.6833
80.5741
61.9193
30.1777
15.9627
-7.86946
-26.7644
-35.2636
-23.7802
0.481043
30.0873
26.8633
33.5824
42.109
26.4192
-21.8207
-60.0053
-51.9195
-26.2042
-13.8398
-13.473
13.2823
21.5449
2.93645
-11.1809
3.16512
24.9211
24.7279
7.27037
-2.70432
-5.43824
2.54954
-4.09628
-6.18463
2.26132
-2.44364
-12.3455
-24.1808
-20.0441
10.1308
34.4278
26.0519
19.8814
-2.58227
-43.4633
-65.9393
-55.4271
-14.157
23.1106
38.8979
17.8971
-2.70962
-11.9016
-21.7542
-24.6684
-5.38084
19.4164
47.0305
45.8725
34.2586
-2.62349
-34.3867
-53.0964
-42.6987
7.21736
37.0305
41.5287
40.007
22.0183
8.70816
19.6628
32.8226
28.3406
34.1212
30.4839
9.82743
-4.74867
-11.1974
-10.2533
-25.7265
-42.0998
-65.152
-79.3188
-63.2219
-56.0444
-59.6579
-41.915
-14.704
-0.609721
23.5958
45.607
22.9088
14.2529
16.3065
36.7524
56.5067
49.6668
34.9739
16.5218
-14.8299
-37.1648
-39.5333
-0.373116
34.6043
43.0992
44.495
35.7877
20.5597
7.4255
-2.81453
-29.3146
-39.5077
-24.0741
-11.1857
-8.92252
-15.4723
-12.6893
-7.05272
-8.80871
-3.89024
10.0781
26.6417
15.083
-0.747669
-0.498752
-9.99642
-18.8069
-20.764
-30.9361
-46.492
-50.3644
-34.3192
-8.93057
10.6348
16.9436
12.3627
22.038
30.7094
25.7502
33.9149
50.0633
40.7348
33.4621
25.2628
30.5737
31.1554
-5.25786
-42.8377
-60.6051
-61.1834
-45.7399
-16.9805
-12.0362
-2.7359
27.6934
21.0969
-18.8604
-22.0164
-4.3467
-0.791806
5.42533
18.7248
26.7964
14.356
-14.3208
-20.8517
-9.58902
8.01222
40.0977
59.8856
58.2961
14.302
-14.5241
-28.9389
-49.8162
-48.8349
-24.0147
16.9213
30.7582
17.2516
-9.68664
-30.7482
-36.5335
-16.7943
-4.00888
0.946781
1.21364
3.25915
0.651857
1.66665
6.67794
35.2188
50.4094
34.9258
1.31736
-24.3285
-21.6747
-47.5284
-69.1204
-58.9826
-31.8951
5.93014
26.5324
35.882
49.999
55.4421
47.8187
24.2505
18.2725
3.79948
-23.6437
-21.1074
-17.3999
-14.6576
-10.9906
-3.59021
11.5668
7.16585
16.0691
30.667
38.0527
34.9048
24.5783
6.56174
-4.99189
-21.3806
-41.5195
-38.1576
-41.9778
-41.8876
-32.3583
-33.2091
-37.361
-22.699
7.06824
36.0363
32.2085
7.39064
-20.8705
-34.7265
-32.8711
-22.7689
-7.52743
14.4261
8.45081
13.6876
35.0336
48.427
49.646
52.9329
52.075
39.0931
29.9198
9.67493
-4.58398
-31.9606
-53.9164
-44.382
-17.4306
-4.95425
-2.0632
4.87665
20.5454
17.1777
2.81062
-0.893632
4.33168
-7.75782
-13.4522
-19.3527
-24.0714
-32.4185
-21.986
32.301
42.7243
33.5349
18.0959
-12.9562
-22.1828
-19.4185
-39.7238
-55.829
-39.0797
-10.1297
-1.67238
-1.59161
5.24204
11.2821
7.42477
8.66607
14.8601
27.1703
23.8401
0.370703
-8.04979
14.5883
6.61132
9.74719
41.2433
67.2576
84.1284
74.3088
15.6055
-30.5819
-34.4097
-54.5412
-73.3191
-62.5668
-38.0911
-0.0341957
23.421
15.877
-6.26502
-17.9258
-15.2138
-20.1262
-3.52586
10.0589
-0.514696
-4.4555
-12.6583
-21.4234
-19.1935
-32.43
-30.3132
-14.5126
4.71919
18.5567
20.5365
14.4293
14.7243
16.7799
11.6583
18.3783
24.3062
24.2853
27.4848
29.154
5.79843
1.47895
23.9467
24.2448
13.6022
14.1328
6.37739
14.6786
28.0306
26.42
17.0497
-28.1848
-64.1475
-85.5407
-73.2283
-51.7531
-23.4848
6.09714
2.83991
-8.18319
13.9674
7.76601
-25.0963
-31.7499
-14.4948
-1.8003
19.3974
30.9689
33.5897
33.1349
49.1967
56.8921
46.62
41.7381
33.7991
13.3315
-19.3126
-49.8048
-44.001
-30.4586
-46.7186
-39.0229
-25.3652
-34.511
-28.5804
-17.612
-27.4462
-39.5934
-48.0004
-37.3515
-2.79882
38.3337
46.8294
45.8927
53.1846
44.7665
35.1154
42.9758
52.6958
46.2841
33.2076
8.03254
-2.52685
9.48645
-1.9424
-4.67251
5.02331
22.2234
16.0955
-11.9684
-39.0239
-50.445
-41.4527
-16.7402
-5.91052
-36.0263
-58.5957
-58.7386
-27.9384
-4.32846
-5.67124
-2.20489
5.15619
20.3929
23.4952
19.8291
20.759
36.8017
39.5791
30.5807
12.4143
-1.04408
-7.27979
-27.8713
-38.5587
-26.1635
-21.8102
-24.5112
-18.4351
12.0746
25.0533
32.73
41.0549
27.7484
8.81598
-14.3779
-12.7228
-18.1984
-28.7387
8.04
29.057
23.3301
21.997
21.8395
10.836
-1.92987
-5.30418
4.3036
-23.84
-47.437
-39.2222
-42.6714
-40.2368
-13.2607
7.30203
29.6472
14.8674
6.43943
19.0935
14.6763
3.17183
-1.70608
-5.08066
5.07433
21.1342
33.4285
38.0893
30.5188
30.5022
10.7286
-9.67895
-25.13
-23.1096
-19.2482
-6.13822
7.40739
21.9087
28.5465
23.51
-1.49895
-10.5593
-36.9968
-53.5218
-60.3872
-63.1792
-42.9676
-40.9619
-40.1777
-17.7847
4.79573
11.4857
12.1222
18.5269
30.8014
42.0007
53.9859
57.213
61.3276
60.3836
33.5787
3.16639
6.45166
10.6065
-3.8728
-21.7456
-15.3668
0.257443
13.6068
-1.72472
-30.3657
-28.3596
-23.0631
-32.1086
-44.2006
-25.3948
-13.1227
-21.3654
-36.8293
-28.0292
-22.9218
-17.8743
-8.85675
4.05208
32.6907
54.324
47.5357
43.9633
33.4591
16.2982
6.26557
-12.3192
-11.6657
-2.23894
17.3373
3.92521
-19.2181
-10.5055
1.80562
15.7116
52.5015
56.0303
28.508
-2.76115
-39.5164
-68.3852
-98.6495
-95.3041
-47.7588
9.53409
41.9611
45.7371
58.458
58.7549
19.2852
-12.4981
-22.374
2.71499
22.5283
-7.50457
-27.9691
-13.6169
20.6648
34.8579
23.0504
16.4909
33.2377
41.2451
0.8808
-45.5719
-50.4227
-29.382
-25.7083
-17.3353
-5.43043
9.73018
2.33772
-29.424
-47.4121
-55.4962
-67.3882
-67.3555
-32.5829
10.4958
50.76
76.565
78.386
73.3785
55.4417
35.314
28.5759
35.8036
22.957
-16.5753
-32.1449
-26.5069
-22.4576
-8.98192
-1.47886
10.5189
14.0088
2.4711
-9.44044
-15.9293
-13.4229
-18.0783
-49.9373
-60.7663
-35.9907
-16.4831
-7.2264
-4.42201
16.8827
33.5978
28.8639
27.9287
32.6615
21.0436
6.46172
0.57338
2.47138
6.95926
-0.233859
-8.22629
1.76607
-0.58896
16.723
50.7672
36.2154
13.5382
8.72719
-2.81958
-12.4842
-12.1221
-27.9521
-27.3032
-22.1028
-32.0305
-51.9915
-37.7865
-21.0004
8.06473
26.2947
-8.90425
-44.6883
-51.2429
-27.6297
-9.5763
14.4409
25.4115
29.3637
38.0541
55.6537
43.4053
32.1446
22.8213
11.9227
-1.08098
2.45844
12.6562
26.4974
7.34789
-18.7962
14.9827
47.9642
32.9595
-8.52448
-44.6558
-45.3032
-48.1188
-53.5005
-48.4199
-48.5397
-36.1811
-19.2072
-18.7657
-10.3369
-1.00787
1.93091
10.3317
34.9314
42.4714
24.8703
24.9805
39.9958
58.7972
57.2385
38.4669
21.2958
22.3434
13.9537
1.21544
-10.4811
-5.28241
-0.678162
-14.8403
-26.7338
-16.6838
-17.1206
-43.2413
-81.2659
-83.383
-55.0655
-50.2171
-52.641
-15.9515
21.8784
26.2196
10.3765
32.7514
54.5328
38.2988
32.6487
36.6491
24.5335
18.6033
23.5532
6.67757
-9.85083
2.71008
1.97862
11.1776
19.7595
20.6608
22.7002
10.4291
3.11834
-17.6719
-18.3125
3.54675
20.1201
7.39118
-42.9565
-70.0032
-57.2701
-48.6023
-41.143
-15.8098
20.0094
26.1708
23.4686
7.55247
0.967112
7.57145
19.2481
15.4819
-3.32489
-3.97626
2.65732
-9.1267
-11.1073
10.8207
33.3415
20.3022
11.999
15.4295
7.54253
-7.46381
-18.877
8.86144
34.6955
23.8476
2.07797
-10.9708
-23.8846
-26.7707
-15.2758
-4.63341
-3.37893
-23.9468
-52.6498
-58.3854
-44.673
-21.6973
25.0383
54.338
59.2095
63.4049
49.2538
11.9532
-16.4841
-11.8171
-1.65878
-10.531
-42.0464
-44.6768
-16.0998
25.0799
39.2283
17.8668
16.5138
17.818
13.3014
15.6661
-4.63132
-15.0679
-18.1931
-22.6616
-4.72854
-12.1603
4.88525
33.8315
6.55583
-35.2773
-12.8869
16.6605
-0.822836
-20.7647
-22.9592
-22.7941
-14.331
1.71931
4.69343
22.4389
34.8685
30.462
24.6673
11.5674
4.10057
4.86409
-13.5041
-36.8439
-24.2033
-0.467538
5.48296
-2.46475
-7.71965
-3.44235
-8.56318
-5.66667
3.25646
8.26676
20.9023
14.7942
-11.692
-14.8888
-4.7082
-3.36319
-3.05638
-1.79485
-11.3751
-17.6629
-10.5815
8.33417
11.8636
3.23033
7.45046
17.4755
9.38925
31.3057
42.9827
29.5869
8.21826
-17.2311
-35.5428
-55.8567
-64.3536
-37.793
-21.0484
10.3675
26.6959
18.7365
14.6
17.2782
18.5066
26.7257
29.0775
10.8121
8.43359
-1.26397
-25.0271
-8.32139
-7.29753
-25.7021
-4.25557
22.816
31.3278
19.3302
4.86177
-1.43491
6.23662
4.6708
2.67715
13.5019
14.0465
0.996713
-8.12289
-24.6677
-28.6557
-23.0393
-32.4549
-46.1412
-37.76
-6.72664
-0.0215997
-17.2306
-13.1635
0.0907219
2.3766
8.69987
17.3176
20.3203
32.3476
6.97644
-15.5823
-15.0794
-12.9486
2.5403
32.5122
46.3509
35.1728
20.0161
9.5327
8.44318
11.1342
25.0206
24.8255
12.5526
-3.08293
-28.1821
-47.2256
-54.9863
-23.3163
20.5333
31.9965
21.7059
5.53404
-15.2472
-32.7986
-46.0289
-16.8231
10.3667
-2.29936
-21.0726
-5.80318
-12.0049
-10.7502
0.423061
9.38203
17.9076
24.6884
34.606
9.00064
-6.86913
-2.94893
3.31971
7.4686
17.2273
13.6351
10.2321
4.61605
-7.07862
7.32414
35.6413
19.6766
0.315728
-34.0221
-71.8525
-65.8038
-45.8865
-22.4797
10.1725
28.128
34.9947
64.8094
71.5898
48.9393
33.7818
12.7819
-29.7545
-63.3907
-64.8677
-43.5446
-21.9298
-15.18
-11.2666
15.9255
41.2803
40.6286
19.0991
-15.9599
-55.2464
-58.5037
-37.8802
-30.0433
-34.1489
-16.9968
-1.20185
20.179
34.9178
42.5074
39.7184
32.4045
6.83934
-4.77536
17.3862
18.0984
8.45493
9.62427
30.0976
46.3763
64.1389
64.8583
50.2896
12.0453
-15.3172
-30.4826
-53.6171
-55.0002
-48.0116
-67.4102
-52.8705
-21.9588
-3.95701
-1.35429
-12.397
-8.8438
9.2048
11.241
-3.27883
6.43409
27.5621
52.295
44.789
24.0617
14.367
-7.13475
-30.2469
-38.9057
-32.2219
-10.6133
-4.84344
-7.49914
-13.0826
-8.7198
-2.81991
-6.01696
-6.83021
-18.1539
-26.5859
-19.2243
-2.3993
-2.26799
-5.80291
-20.3812
-15.8113
22.6828
73.0909
86.9276
66.7199
56.4124
27.5579
-1.49379
-2.7878
2.99337
-1.68321
-13.9183
-19.7768
-20.1241
-19.9538
-15.2713
-13.5242
-26.0167
-33.9603
-10.3683
0.976206
11.5977
-17.382
-41.3622
-24.2292
-20.5572
-40.537
-39.4906
0.397649
32.7231
67.6013
85.9962
73.6408
45.0755
8.75791
-32.99
-53.4535
-61.3044
-52.4116
-30.8384
5.46591
23.1903
40.355
37.8282
26.9703
39.6024
61.0173
47.2048
17.6933
13.6226
-9.3904
-25.6527
-24.8791
-12.7252
2.96471
17.4309
-1.10152
-26.6653
-43.7603
-49.7914
-53.4488
-42.6563
-21.775
9.58015
14.8488
-14.007
-26.0781
-22.6987
-36.7539
-43.196
-47.783
-51.9456
-33.7457
6.82753
52.5391
68.3593
71.0589
76.6549
80.0328
60.7188
27.0396
-5.32687
-30.6677
-38.8838
-25.8872
-1.00076
26.9849
42.8085
45.0915
45.968
40.5111
25.857
0.778615
-16.7363
-28.923
-36.6839
-48.1642
-42.323
-38.0982
-49.6347
-33.8211
6.82391
27.1094
24.1831
22.1095
13.1946
-3.92258
-22.1459
-30.8132
-40.4809
-17.2155
7.08649
12.5651
11.6266
-0.114322
-5.21382
-6.3083
-2.13014
2.08757
14.2483
16.1592
5.31354
14.389
6.67737
8.63814
26.6408
23.7664
8.59525
8.94768
5.6289
-8.9883
-13.0341
-9.71916
-4.11814
-15.2989
-27.0482
-14.5579
-13.5318
-19.2648
-20.7933
-11.8758
-13.5603
-11.4179
13.6957
31.2471
22.0533
14.2706
18.446
13.0542
-15.5893
-21.0291
5.02404
38.9498
43.0193
21.7
-5.57901
-17.9454
-24.377
-22.1883
4.5415
32.8138
40.4501
47.3654
37.4032
4.19834
-28.6429
-47.605
-37.872
-20.0197
-22.261
-35.1405
-28.7182
-16.9605
-14.4799
-16.5506
-7.46973
-7.74665
2.20756
23.2813
25.8079
2.60883
-6.84711
0.888677
-7.31004
-6.71874
7.13981
32.2095
45.7941
35.0135
16.5685
7.09324
2.47129
-9.28805
-24.1926
-14.7769
1.35998
18.4735
21.924
13.4006
-2.70478
-9.80506
-9.61046
-22.4862
-29.2219
-28.7725
-21.7008
1.7622
6.09646
-1.78868
7.20916
11.3341
3.71876
-7.16401
-0.689394
12.8714
21.2203
18.8715
9.38793
-2.70435
-5.15573
-4.27446
-12.6355
-19.998
-9.74737
2.68752
11.6934
-1.82756
-9.88278
-12.0665
5.4129
31.5774
28.1529
-4.78381
-34.8526
-33.8967
-13.6909
-12.0045
-17.7203
-5.7752
28.6946
61.9116
82.7232
77.7511
35.64
-12.6002
-49.6337
-87.976
-88.1985
-62.3248
-32.4213
-0.59124
-6.13438
0.65007
12.0321
13.5048
21.3181
42.5487
67.8063
61.7861
15.2254
-13.9138
-24.637
-41.0174
-29.6124
5.52181
37.865
58.6373
47.0274
19.8598
-23.5319
-53.6487
-48.1684
-23.8852
8.27922
29.6874
24.3512
3.7536
-11.0931
-9.70966
-7.37343
-24.1199
-39.2887
-39.8989
-39.419
-32.9903
-25.9432
-3.95115
12.0322
20.5505
30.8238
26.7513
20.5756
18.1694
13.4196
2.43605
-3.0184
6.21115
0.124374
-0.246623
8.13117
7.06744
0.560868
3.90891
22.5583
36.1536
18.282
3.26212
0.816496
-6.21204
-1.97118
9.46922
16.6844
17.9798
6.05317
-14.0526
-26.8731
-20.8314
-32.7005
-50.6219
-48.194
-24.6278
-15.1795
-20.4518
-28.4282
-21.0626
0.401517
13.6765
41.0539
60.3369
55.4462
44.9625
32.6892
11.556
2.05425
-5.69021
-12.5885
-11.0817
10.6624
23.9689
20.7716
-4.05356
-25.4206
-36.4599
-22.5417
-14.7759
-9.87073
0.225903
2.51422
-11.1813
-22.3249
-45.5622
-48.8645
-25.992
-8.06974
9.65952
33.4963
45.8273
37.1688
24.6199
13.3671
10.1238
17.2357
16.7719
-7.62422
-26.7737
-19.789
-9.55627
-10.7752
2.5987
26.4689
33.5751
29.6059
28.8552
12.8785
12.9085
2.19944
-23.2341
-45.3139
-48.7556
-24.515
-7.67264
-1.6549
19.6413
39.8033
29.8447
14.0574
0.937492
-17.7986
-34.9119
-39.8199
-39.2463
-16.7816
6.75049
18.0486
4.04396
-3.8959
-3.16046
-13.78
-32.7689
-48.4595
-56.4012
-37.7049
-10.983
20.4571
55.4905
75.7003
67.1201
43.5266
32.3384
43.7405
54.3984
22.5973
-26.7249
-39.552
-13.949
1.40798
5.64956
17.631
45.2226
47.5465
21.7929
4.77846
-9.60901
-23.86
-27.2807
-37.0637
-53.5446
-52.6987
-40.8249
-40.8356
-46.8014
-32.2886
-11.2842
12.8602
14.6742
-9.97193
-16.2489
-4.7944
1.54135
4.14464
14.7631
22.6671
28.1569
28.2636
9.91473
2.438
5.14019
2.20203
-2.65485
-1.07899
2.27762
10.7049
18.6545
19.9418
10.0354
8.73197
9.08399
10.4312
8.17268
-6.22438
-4.91581
-5.45886
-7.99383
-6.75213
9.20201
37.1037
27.6015
-1.58092
-11.0559
-15.7593
-11.2064
-7.27054
-9.69652
-10.4571
-10.8303
-3.52407
-4.62629
-12.0611
-14.1869
-1.1193
0.0164177
-10.1352
-18.1011
-20.6884
-16.0796
-16.6018
-7.2724
8.94964
18.9181
15.008
27.3174
28.2298
-0.752639
-42.8857
-46.6643
-12.8213
0.839257
-33.1894
-23.0073
81.522
136.371
98.8993
52.8964
52.5576
16.7892
-73.2329
-81.4234
-48.7589
-57.5632
-60.3521
-17.6813
-10.9466
-52.1062
-80.4395
-40.5644
21.4321
55.8336
75.0601
55.5146
-0.418119
-26.3846
11.9381
4.90122
-45.7431
-52.4016
8.69999
62.9199
178.033
215.577
37.3039
-110.605
-69.88
15.1115
53.7424
25.0101
-41.4084
-80.3897
-90.7725
-84.0756
-79.6605
-100.043
-47.4443
68.8459
116.882
76.3724
19.6762
-24.7879
-78.4948
-60.0352
33.5739
91.8957
58.6505
20.7353
14.5456
3.58149
-18.934
-23.9538
4.34819
3.99163
-33.453
-48.9125
-72.0299
-76.9469
-55.6778
-31.6262
14.372
25.5925
-21.3682
-44.1671
18.8416
48.5244
49.0321
65.7501
68.9433
54.299
41.3763
46.4231
49.6672
47.7918
42.1587
51.0587
34.2316
-7.27226
-34.96
-16.5139
-13.4581
-24.9947
-42.2196
-46.4481
-27.6441
-36.2077
-55.7198
-41.7307
-15.8231
0.156978
5.22891
0.208225
-12.8633
-18.9477
-27.9999
-25.1536
-20.0401
-18.4234
-10.861
-2.1014
-7.6832
-7.61152
-6.87737
-13.7373
-14.3705
7.38815
21.5401
32.1414
32.2281
25.1597
23.4611
13.0994
8.20496
15.4223
25.2834
42.6462
52.1532
41.5249
29.2168
31.7749
19.2433
9.43891
1.05947
-6.7929
-9.7936
-29.0089
-43.8128
-49.5906
-44.5871
-30.781
-25.6414
-19.8716
-4.09197
1.07494
2.93438
-5.69371
-6.81928
-2.80055
-8.61748
-10.7175
9.49947
12.2453
-0.956056
-5.93965
-5.04826
2.22981
0.269585
-9.30201
-8.51656
9.84868
34.6469
48.8578
54.7377
48.5259
32.5846
26.3407
16.8442
-15.6808
-28.0059
-41.4849
-48.9164
-36.8298
-26.9462
-34.4605
-41.3734
31.2423
80.9629
30.8351
-16.7725
-47.3423
-74.0541
-71.4017
-3.03745
91.7718
97.9183
35.6961
10.7345
31.6005
3.8014
-31.8958
4.66356
17.5282
-8.45687
-55.4051
-87.643
-90.211
-64.7518
-16.7472
18.9839
24.6532
16.3875
-19.4242
-39.2039
-61.2849
-54.2632
-11.3402
7.39376
23.7117
62.7317
56.1682
16.1557
47.8538
92.4043
130.615
150.544
83.9609
24.4095
-1.7442
-9.88275
2.53804
16.2126
26.2418
-16.1976
-75.4735
-74.8883
-42.2259
-38.2378
-56.6746
-43.633
11.8415
32.3042
4.14962
11.3813
5.61105
-17.5795
-27.1953
-54.7784
-49.7638
-44.2152
-47.2856
-29.3791
-5.70065
-4.05142
-4.00951
-3.29426
17.5199
28.3028
8.72239
-11.0595
-9.15476
-9.91104
-26.0862
-43.8292
-36.514
-14.1494
1.61326
23.5883
40.9631
54.8354
68.467
74.1062
76.8024
67.7955
35.498
28.572
14.1865
-6.90947
-15.6756
-36.8634
-32.1238
-12.6846
-14.8435
-58.099
-48.004
43.0431
52.9164
-0.495618
1.96547
50.3686
106.205
66.1618
5.72799
-26.3483
-48.9309
-90.4808
-115.323
-116.825
-87.0783
-39.3004
6.4237
32.4175
48.3478
56.243
35.8412
-8.90177
-11.4362
36.4254
36.1706
-29.8581
-95.2567
-101.416
-73.3552
-33.3389
37.8465
95.7643
89.1407
67.9115
36.1852
5.7512
-13.758
-22.9913
-24.5795
17.614
48.6357
20.1039
-1.54017
-8.23683
-4.49091
0.295043
2.20495
13.4838
25.2698
13.572
-8.26167
-23.9985
-23.0838
-4.44163
7.70995
51.41
71.2672
48.0417
41.1684
8.41909
-41.3383
-69.7018
-67.7106
-121.871
-105.377
-23.2323
28.3078
52.7865
42.6409
15.4941
7.2098
-22.3019
-42.6475
-34.8058
-2.63366
-0.265149
-0.660368
64.1313
93.4936
61.5801
58.9167
22.3138
-25.0361
-4.619
-5.71756
-26.0087
-39.7054
-29.9319
-7.40599
-8.80355
-15.3883
10.1798
39.9155
35.8991
28.0786
11.3801
-17.703
-83.3233
-113.811
-85.4136
-56.4015
-23.3645
12.2087
49.6996
44.1958
21.5919
2.01324
-7.7071
2.96282
17.6234
11.1103
3.96722
5.07021
15.7133
14.0296
-1.50702
4.99336
49.4371
64.554
29.3014
44.0974
81.0717
102.779
67.0728
8.53023
-47.1173
-106.127
-143.371
-120.283
-33.0904
8.27264
-20.2758
-4.42832
17.1809
17.4723
18.1127
-0.780327
-39.625
-46.5122
-6.78763
0.361326
-8.03723
-20.3996
-7.43593
16.8243
28.2549
37.6165
51.2926
34.7719
-10.8574
-20.6445
18.7128
31.8445
27.2385
30.4574
40.0226
38.1242
-1.06159
-32.4853
-38.6283
-38.7411
-23.1545
-9.38598
-12.347
-13.1275
-5.79143
39.9651
54.1814
9.28277
-49.4161
-60.1928
-26.5021
-32.864
-76.6203
-19.4197
49.3686
28.1544
-10.9973
-22.735
-23.3803
-15.5065
21.427
45.9093
58.6224
47.5804
-0.968027
-52.6104
-65.8534
4.20587
68.1919
110.51
29.5622
19.9257
90.7843
32.0069
-61.5879
-70.0477
-33.0648
-6.33621
-6.91134
-19.1005
-37.3245
-57.3189
-53.9092
-33.8485
0.437129
13.5246
16.5272
10.1107
19.8413
-28.9412
22.1668
91.5207
84.6611
28.4161
-10.099
-25.3781
-36.3151
-41.7864
-28.2695
-10.906
-18.0983
-10.0082
-1.12471
-11.8174
-20.8541
-10.8572
14.5889
24.1667
15.901
32.9111
44.2081
3.30259
-32.2555
-11.1446
36.6534
73.5792
50.5082
21.1124
4.60203
-13.042
-35.2256
-75.1557
-84.6536
-66.0946
-29.4769
21.2062
114.626
122.743
49.6532
-10.5365
-49.3773
-80.2214
-71.3805
-42.6602
-28.2893
-11.8853
-5.63595
-7.25955
-8.18827
-6.01095
4.74897
22.2106
18.4383
21.8991
29.0134
15.8799
-29.5798
-28.9334
23.0484
31.5121
22.488
8.7631
-11.355
-18.8392
-24.6018
-19.637
-2.73781
14.5871
20.4263
18.1315
12.0908
6.32002
1.88473
8.41758
20.9685
19.4289
3.54784
8.46035
24.3647
20.2329
-11.0569
-14.3374
-15.8287
-37.1576
7.45491
78.3562
98.7299
62.0441
38.8102
18.1469
12.371
-12.848
-69.1349
-147.899
-121.347
-45.8749
-21.4468
-31.5736
-47.474
-42.1201
-24.1781
-21.5517
-10.2307
5.55586
-32.8923
-90.6984
-73.5427
-10.7931
29.7479
57.0673
65.5104
76.0764
119.617
151.33
123.853
77.282
34.124
0.480684
-12.5924
-20.1555
-38.2298
-47.2781
-26.615
-19.1774
-39.6994
-56.0453
9.3684
92.312
66.6125
10.3762
-20.3967
-28.1477
-36.2907
-30.1151
-26.881
-18.3195
-37.6689
-61.0432
-49.218
-19.1794
3.32995
16.1639
-3.62687
6.79721
25.2504
28.1354
10.488
-0.183137
-8.77063
-12.0626
-11.4869
-0.892899
17.3831
32.1687
14.9007
-20.2618
-24.1173
-14.8149
-11.8633
8.85705
49.8641
54.8929
30.3174
18.3382
13.6893
13.2401
-18.0034
-55.4294
-53.3771
-56.5625
-47.8502
-23.1547
10.0747
45.255
69.4185
67.059
53.1806
54.0798
34.8747
14.5452
-0.584186
-32.6286
-62.3279
-52.265
-29.8825
-22.5496
-29.6203
-47.2248
-35.2313
-5.59593
40.5307
70.7581
58.5453
56.7047
58.913
27.1935
-38.4992
-85.7253
-96.6488
-77.8805
-61.1012
-18.4098
40.6869
52.0335
9.29773
-5.55353
-4.06699
-3.95106
14.917
29.4987
14.8091
-8.72845
-11.2618
-34.6044
-70.7893
-66.0415
-18.9824
7.06676
13.5166
18.8187
49.1503
72.7555
54.8254
97.3246
201.872
152.51
44.8337
-24.4452
-46.6946
-35.2881
-43.7748
-51.7828
-44.0618
-48.216
-39.3798
-37.7759
-25.3934
-15.4896
-3.7471
-11.9771
-53.3544
-72.1715
-63.5914
-71.0373
-88.0175
-50.6639
14.5525
64.8781
47.8963
-47.305
-49.2547
11.6025
39.54
51.8369
23.3378
2.9343
-8.99956
6.11555
40.041
106.203
155.421
169.418
154.368
85.239
-7.46706
-61.2446
-104.234
-111.403
-69.8803
4.29703
31.6983
27.4594
15.92
-24.5242
-48.1572
-36.0135
-25.961
-26.0056
-31.0278
-63.3532
-109.701
-94.6299
-16.7634
1.1008
-20.3699
32.3655
67.3694
37.3137
20.3034
20.3014
9.48025
-13.5958
-22.8011
-2.35508
10.5118
5.26463
17.6949
24.7051
-6.75265
-51.0996
-45.2309
-26.2301
-18.9314
16.3189
67.9542
85.9915
89.6895
65.7708
34.2249
38.438
29.8898
-18.7825
-79.6056
-81.2595
-46.0627
-6.15366
-2.30093
14.0549
120.808
149.372
81.9281
2.94975
-80.5722
-107.514
-104.974
-100.982
-71.0154
-9.56907
37.22
38.3691
18.5555
7.10834
14.1291
10.0186
-3.79422
-19.918
-7.85352
-8.74331
-53.2149
-51.6138
-10.812
-2.6461
1.33065
-5.81571
-3.4521
-1.30691
-5.85401
-4.61529
8.71239
36.6324
45.3751
34.8009
36.2976
41.3997
44.9912
29.0188
21.1626
10.8205
-16.9943
-21.9656
-7.21761
1.77094
1.3866
-11.811
-14.7102
-10.5022
-17.2936
-17.0019
-11.9039
-5.48639
-3.46518
0.411514
24.0259
26.422
-3.66199
-52.6504
-60.9311
-25.5786
-6.42869
2.44983
4.77431
9.12877
25.1392
23.2473
4.50045
35.2688
73.0936
27.7262
16.0631
24.1018
7.73307
-35.4375
-82.9089
-93.7127
-28.8996
65.2476
68.7873
29.1459
8.67518
-10.9311
-20.5416
-39.9204
-46.3414
-36.8446
-34.1845
-55.5169
-61.5742
-31.1786
-19.6709
-33.3858
-45.4248
-23.1723
29.0861
67.8191
49.0693
14.2632
82.8318
148.424
115.35
89.5607
66.1977
42.8242
14.7039
-8.57247
-33.8035
-66.8104
-77.2263
-60.8368
-8.47939
48.1614
66.8451
38.8114
0.557246
-74.8935
-119.272
-78.0873
-77.4395
-99.1039
-72.9945
-34.7952
5.38537
35.4846
49.4946
53.2802
60.3125
61.3119
61.047
45.6028
-4.64711
-56.0956
-59.7476
-12.8911
6.00993
40.1813
65.7296
45.8435
25.9413
2.12749
-0.0188222
14.7656
21.7231
2.35235
-19.5711
-33.5884
-27.4014
-21.8845
-33.369
-32.3702
-44.9174
-47.368
-28.6554
-3.28464
17.6549
29.3382
20.0608
5.45746
-15.0341
-24.9229
-19.5224
-15.4794
-15.6484
-19.1985
35.8736
65.088
31.538
-19.0133
-28.5013
-4.03768
-13.898
-0.901732
51.8773
50.7405
22.3963
24.0954
35.708
37.3761
47.4786
71.8875
71.7472
12.0996
-37.1502
-48.4932
-45.8978
-64.968
-84.595
-94.5651
-14.3114
81.0453
111.181
91.7427
16.8143
-38.3738
-88.1864
-67.8387
-26.094
-6.87806
-21.0088
-64.4632
-89.8855
-58.4825
-25.7647
-3.70948
-14.4609
-7.74605
26.7172
61.0887
37.3769
-17.1464
-33.7835
-30.2526
-16.372
20.1518
63.7364
70.5463
54.4433
28.6564
15.8476
12.4171
21.1012
24.102
23.764
25.9257
23.6719
32.2614
54.5414
62.7644
26.1906
-9.70218
-16.0354
-22.7373
-23.5381
-12.9935
-6.23208
-22.1129
-44.6894
-56.1911
-55.1621
-42.2222
-39.0149
-29.14
-15.2169
-4.2404
-14.6302
5.62986
36.0195
35.8658
15.1029
-5.9509
-29.8999
-30.3447
-0.976021
8.87784
1.81015
-7.08041
-12.4461
-14.9787
-14.4715
-15.0517
-40.5928
-80.6888
-68.37
-12.2115
47.0404
92.9999
143.747
167.283
96.4269
25.9546
-11.5421
-33.7026
-57.9501
-65.3388
-38.5228
36.5722
78.3247
23.5394
-14.7977
-42.1739
-52.9105
-13.1683
33.2336
16.3367
-22.239
21.1526
24.7207
-25.6603
-37.6408
-27.1388
-7.88042
-3.57779
-22.5671
-30.4036
-17.0262
-32.662
-57.3507
-28.0425
-27.9825
-31.5577
-0.220641
11.7148
10.8446
29.3044
53.6441
9.04405
-39.4159
-15.1242
33.4622
43.5842
37.819
29.7824
36.8872
48.4672
46.4083
26.8491
12.9442
19.844
32.5767
47.206
45.3384
33.7091
-1.27919
-52.2359
-80.9782
-99.9471
-116.206
-105.055
-37.1348
39.3379
85.387
110.859
110.292
91.433
47.6336
-33.4261
-145.499
-157.468
-77.17
-34.5827
-25.2042
-9.7093
-1.58437
6.92164
15.9816
37.8358
42.9096
-15.2189
-62.6026
-65.7885
-38.7036
-25.3649
-13.4852
11.6568
39.2363
50.2345
72.9125
92.4823
89.2965
100.646
81.7391
43.1233
16.1905
-15.4282
-63.711
-130.261
-118.92
-46.535
-3.80851
-9.58192
29.5465
90.1604
62.5755
-7.01899
-32.4347
-9.4802
45.8748
42.145
-28.0354
-83.997
-80.6147
-89.5114
-123.185
-85.2271
70.6824
163.445
161.371
148.044
134.138
72.1481
-49.7344
-129.324
-120.991
-76.6485
-65.2667
-64.6191
-53.4775
-25.7731
7.41136
7.90063
17.6317
47.53
78.0287
70.4845
-1.65136
-48.5678
-63.9048
-68.9388
-79.2184
-44.249
-12.6824
-19.3682
8.83055
45.5422
59.3045
81.8961
104.31
91.7646
54.377
53.7525
55.0943
47.3007
30.9309
14.3471
-10.6283
-40.5508
-55.426
-60.7072
-59.7452
-49.4306
-29.1579
-25.4094
-44.1679
-41.3019
-25.522
-9.2667
-0.149804
0.409546
5.87954
-9.39874
-22.7086
-18.9318
1.9175
16.5518
1.58458
-4.32977
5.24982
18.8624
23.6104
26.1088
22.7109
23.6163
22.2645
11.1652
-6.62422
-34.2097
-28.7385
-1.34613
16.9163
39.2581
60.1418
59.4528
33.2996
-2.78721
-27.7649
-21.5964
-8.86501
-5.63415
-17.1206
-17.2047
-12.0611
-11.0627
-16.9229
-18.717
-11.8538
1.2292
-3.61884
-10.2879
-16.8536
-24.4259
-37.6828
-37.217
-11.7771
14.1587
24.0552
27.4183
26.8709
17.0542
4.84955
-2.46863
-0.309537
1.52491
8.75426
21.5167
29.6475
14.354
-0.187756
-9.24154
-17.271
-45.1882
-50.7341
-29.1551
-24.8532
-32.0321
20.0646
115.598
99.2868
64.242
85.2906
73.0082
-3.85553
-48.7972
-60.4251
-53.6806
-32.3597
-4.96326
1.03532
-23.9957
-27.1692
-5.6356
-3.29615
-9.822
-1.39841
18.0436
-11.2754
-74.4037
-82.8137
-66.6082
-70.3191
-43.916
7.09834
13.4567
6.90578
11.0865
14.0954
26.0069
60.199
81.4294
46.4525
28.2152
27.8301
38.3588
67.4336
76.2538
48.3191
14.3331
24.743
31.0564
-7.79663
-32.7545
-26.3906
-13.4071
-18.1113
-26.1423
-37.4443
-52.4792
-67.0887
-64.5057
-29.7484
1.6112
-0.662225
-27.6084
-31.4812
-23.5247
-10.3896
-6.71606
-9.42912
2.72193
39.5793
29.9325
12.6221
22.2801
32.8324
27.5789
20.0948
12.2619
9.48776
18.3282
22.7438
20.4476
22.5859
12.6014
-22.951
-53.5707
-51.6528
-49.0149
-40.7632
-22.4032
-21.0867
-15.4492
2.71336
15.0784
21.9535
25.4597
36.9729
43.0456
37.4461
18.4216
-2.78035
-7.7604
5.76394
11.0978
14.6035
22.2254
0.867638
-33.5905
-31.1074
-16.207
-2.84879
11.9075
15.9359
24.6498
20.1852
-3.59386
-24.0621
-19.6681
-12.756
-44.515
-62.1127
-28.6563
1.85617
-7.38643
-10.5568
84.5045
134.644
72.2422
-2.21499
-37.6221
-43.7589
-23.2154
-11.3834
-43.5922
-51.3418
-50.0582
-35.8757
-25.8942
19.2974
102.113
106.824
32.2494
-15.6156
-15.6675
-7.48092
-57.1472
-89.5095
-46.3546
-9.90568
-1.29395
-8.3992
-9.0333
-0.246518
15.1801
28.318
60.9913
73.9728
31.6499
-27.1044
-59.3868
-21.7156
15.4733
21.3405
24.6152
16.805
-8.6183
-4.90439
26.1802
52.8981
60.683
40.9419
-6.90313
-22.3268
-11.8478
-9.27415
-15.4121
-20.3979
-12.7947
-12.7696
-27.5474
-33.1221
-27.0903
-32.2824
-25.5881
-18.5243
-25.3496
-27.6742
-15.9522
-5.19933
5.99572
40.485
70.0923
53.253
29.8118
12.1911
1.89214
6.05308
12.1488
-16.8944
-33.9291
-34.2894
-17.5393
4.79492
17.9799
32.2573
42.0036
43.6595
32.8806
16.6024
-10.7007
-34.6534
-45.6925
-46.3206
-48.6236
-62.1227
-69.4505
-72.3886
-49.4837
20.7303
70.6455
82.2273
20.4812
36.9623
77.2974
29.9778
-41.114
-50.5613
22.0384
77.5741
44.1452
11.9631
-6.08008
-2.97636
13.96
27.4113
15.3389
-5.84901
-17.1401
-24.3627
-34.0346
-45.3479
-14.3025
-20.6084
-46.3495
-42.2305
-20.5856
-21.0842
-47.4886
-67.7758
-38.7828
-13.4384
-4.89769
6.02055
39.1933
68.6246
63.1086
55.5067
49.9038
43.1938
45.6427
97.718
139.5
66.0661
3.09124
-10.0071
-31.6561
-69.8345
-83.5899
-106.622
-168.683
-137.194
-48.3174
4.28342
13.1952
28.4108
39.4331
14.9592
14.1095
11.0963
-3.7446
-38.4174
38.7505
132.241
73.8142
23.4673
45.9585
59.6112
38.2105
15.6312
47.294
48.8622
8.48793
-37.1296
-43.2722
1.87929
23.4208
-23.9316
-66.0145
-77.9054
-86.4084
-115.989
-129.882
-98.7071
-49.1961
0.970938
84.4699
80.7104
14.5013
-33.5892
12.1649
26.1273
4.07973
16.6649
35.1657
48.0838
37.3847
39.951
27.2271
5.73765
8.28867
21.7086
-24.7743
-65.5615
-21.9048
24.8137
-7.89608
-9.70891
-5.40695
13.3866
23.4291
23.583
14.5204
27.5246
93.3148
52.1671
-0.961824
9.73534
13.8877
-12.1331
-56.6341
-61.3204
-60.833
-49.1557
-38.5595
7.67141
68.9134
36.1303
29.8016
37.9061
7.37417
-25.077
-31.3525
-42.4883
-99.9335
-114.406
-94.292
-58.8933
-18.1857
35.2378
78.1387
66.7825
45.7312
41.3262
44.76
24.3244
-20.6558
-13.6375
-66.9399
-68.2651
2.48426
47.4766
64.0408
69.9908
50.03
41.4407
43.8785
44.1233
32.6648
1.53481
-24.5235
-24.2522
-21.0679
-32.3913
-30.4417
-27.7583
-41.7148
-39.4389
24.4003
93.9498
91.0805
36.078
1.6511
-27.6704
-42.6854
-64.1477
-57.934
-45.5322
-35.9981
-37.6758
-25.179
-12.7795
-5.16243
-12.538
-16.2018
-28.3726
-19.8096
21.8701
41.2713
11.7395
-9.32514
-6.92243
6.21385
25.7152
26.8889
34.42
27.5414
19.4932
31.4526
45.9402
32.2498
18.3269
7.38207
4.70424
-2.1994
-18.8755
-34.3836
-26.688
-6.30468
0.851195
-10.2639
-5.85178
0.481907
-16.8104
-30.6574
-17.419
-0.706945
-3.11734
-31.1081
31.1953
76.8026
40.0466
-2.23618
-22.6912
-34.5137
-36.3167
-27.7779
-12.6539
12.5527
9.34436
3.69429
9.82671
6.21817
-5.31125
1.52555
51.1611
71.8579
37.8936
10.1136
-47.8582
-96.6375
-74.2512
-19.985
18.8017
13.7025
6.56464
5.03026
16.2871
42.5751
40.1363
24.9077
13.31
-6.72146
-12.333
-24.2634
-65.5976
-75.2175
-39.6271
-14.1659
-10.7372
13.0755
40.7749
42.1258
30.4645
36.7837
35.6223
18.6532
0.226046
-17.2138
-14.8212
-4.17023
-5.81127
9.80088
22.758
10.0691
-10.8405
-18.7032
2.32695
14.2844
-1.91794
-7.29548
-1.01803
-7.80154
-16.2848
-12.1933
-7.24781
-1.99622
-5.83721
-26.0453
-27.0819
-24.0152
-14.9058
-3.80258
19.4439
41.8582
44.0483
38.0101
27.3806
17.386
7.45109
2.97161
-13.9899
-30.7776
-26.5899
2.09207
16.6605
-5.36343
-40.5369
-36.2167
-20.2616
-21.8592
-20.1293
19.0134
77.2105
72.804
15.7888
-24.6501
-28.4753
-25.4281
-30.8564
-32.3453
-16.137
-10.2151
-35.8531
-25.0179
74.1621
107.006
75.6179
41.9843
17.5563
-5.95418
-29.0426
-31.4722
-58.1637
-61.3509
-21.2782
17.4838
25.8508
-9.60389
-19.6798
2.63154
18.146
19.0292
28.7193
12.3929
-44.826
-57.5626
-26.3468
-10.0384
-2.11478
7.9525
18.7941
2.42988
-22.0047
-22.2845
-13.5616
-20.4227
-21.4562
8.6667
34.8145
41.7891
45.9082
54.8921
61.2258
53.4586
16.7321
-0.429205
6.236
8.61434
5.36996
9.04348
17.712
-12.7329
-54.2538
-58.569
-56.2165
-39.377
-11.2192
14.6063
12.6317
-7.84055
-36.826
-33.4328
-4.32705
-5.57685
-32.5768
2.01869
77.912
70.6202
10.2887
-24.5059
-35.8286
-32.9647
-15.6562
20.1188
30.6947
16.2488
6.33651
-3.24383
-2.99458
1.35782
13.0479
20.6068
5.98375
-11.9417
-16.9807
-30.131
-57.3877
-53.4535
-20.3451
12.3843
28.9044
37.514
44.9679
36.9849
21.3991
6.46599
6.72634
14.5665
3.15039
-26.939
-47.7631
-34.5939
-7.48426
19.9378
11.4296
72.492
77.4776
13.1326
9.3496
-1.36706
-7.94342
-17.0886
-15.0761
-7.35889
-8.59519
-22.2481
-27.6837
-23.0535
-30.6357
-58.6914
-66.283
-21.648
4.58032
0.619024
6.27168
24.532
47.4591
37.4422
22.1854
10.78
3.40414
-4.10349
-28.3126
-17.7892
-0.138005
25.255
22.1919
16.5372
14.2846
-5.26129
-13.0082
-4.95935
-8.89263
-12.311
-14.2364
-17.3515
-10.2758
3.26288
20.2642
48.971
57.1534
45.7755
46.9712
17.6478
-26.2941
-39.5296
-32.8806
-45.8545
-52.7854
16.9618
40.9701
8.16793
-4.17148
-6.19092
10.221
9.17464
16.0299
14.4632
-5.85351
-5.5661
0.230305
-12.781
-52.9527
-80.5237
-59.7706
-47.6232
-16.2205
24.6006
27.3817
-24.8418
-47.2333
-17.6456
2.5234
12.8273
20.8568
35.0016
24.4293
27.3736
38.1988
18.2774
-2.14978
2.13816
30.0037
65.0802
76.1147
60.0153
35.3025
30.5217
30.7817
-13.3411
-41.8233
-6.48707
21.6708
-9.28813
-41.8125
-47.0063
-48.9193
-55.5671
-43.3421
-50.0171
-43.9669
-18.0224
12.366
36.3862
44.5896
62.6054
63.4459
10.6108
-18.4651
-37.1509
-44.2323
-55.875
-66.1038
-19.5065
9.95078
-0.818692
4.00213
18.9277
13.4281
6.04955
0.338945
-8.74507
-18.553
-19.8406
-15.9462
-25.7565
-9.47275
2.95352
21.107
122.648
145.035
100.699
32.6355
-38.3075
-51.8013
-27.5092
-17.8193
-12.6843
-0.265922
-1.80367
-20.7454
-33.6411
-21.8812
-8.99561
-16.5257
-25.6213
-28.4417
0.270765
4.11409
-30.8742
-29.6301
-27.7027
-7.99954
21.6291
33.0531
29.8122
20.9166
15.2299
9.50938
14.6922
24.2603
30.2411
27.489
18.8488
11.5385
-3.54435
-15.5277
-12.375
-8.27009
-18.4553
-16.1772
3.33173
12.6193
21.7204
16.8429
4.40811
8.02959
-0.0586006
-23.6619
-21.7007
-22.3102
-30.9827
-31.1921
-25.509
-13.5996
-13.6712
-15.8563
-5.26347
13.2584
17.0597
11.5437
0.122748
-1.4101
-0.290848
6.64666
15.3709
9.13738
-8.33286
-26.3603
-20.5071
6.808
30.362
43.192
46.9297
35.0222
35.1775
17.7243
2.50274
-7.09799
-8.28734
-4.62727
-2.08998
-2.96905
-6.11983
-24.4794
-45.9516
-64.5368
-60.7362
-28.697
-8.97914
-5.09813
1.98799
2.66823
-0.891641
8.55387
7.31258
0.699734
2.44091
8.07413
6.99189
17.86
38.3778
45.8176
10.2955
-3.48356
-23.8884
-27.595
-10.7003
34.4834
69.2847
142.55
207.795
151.534
24.5996
-45.5837
-74.333
-75.8542
-73.5271
-78.2445
-92.6492
-106.293
-103.938
-88.6504
-56.8284
-36.7093
-4.04708
13.8253
19.0937
12.3369
-4.42665
-42.9454
-88.104
-71.887
-12.5609
26.3843
43.6499
55.1006
57.6808
58.0306
68.8371
74.9101
67.9782
61.3252
83.3691
75.0918
63.6061
49.258
22.7428
1.67179
-19.5572
-46.9403
-74.8654
-53.6125
-15.3633
-9.84237
-11.8096
-5.59934
-3.38231
-16.2877
-40.0452
-41.5393
-27.8476
-21.8732
-26.1646
-24.5795
-26.3239
-28.3063
-12.0998
-15.6665
-23.8125
-23.6012
-6.9355
8.37569
13.707
30.0147
50.0092
56.179
44.1929
31.1565
25.3419
19.5861
11.5958
-3.22301
-14.3229
-7.4824
-8.69539
-17.6047
-19.5323
-10.0207
-3.21777
-5.97267
-9.15606
-12.3437
-9.50845
-8.45967
-13.468
-13.071
0.839479
3.32002
1.31973
-1.86544
-3.12222
5.22363
12.0998
22.4073
28.4892
24.6362
-6.17437
-37.4121
-43.7769
-38.489
-44.1596
-20.4026
86.9922
185.502
213.211
111.844
28.5934
-0.278605
-31.3918
-64.5084
-77.8381
-80.0194
-80.7142
-80.6852
-69.015
-55.5438
-23.3453
-4.19188
-12.8358
-10.7423
-1.50634
-23.9431
-74.7527
-116.027
-109.681
-41.5231
25.7375
86.5973
78.5343
45.1153
32.6999
29.2826
35.2875
50.3314
61.1985
57.6036
59.722
82.1957
105.503
109.812
88.7338
60.1268
-11.603
-80.7564
-109.967
-88.8527
-77.4652
-85.8307
-52.3454
-11.5129
5.57454
8.96636
4.56039
-11.3479
-10.1717
30.9217
38.578
15.7813
-9.7138
-32.9251
-43.1364
-39.646
-27.7567
-15.6868
-6.55362
5.03244
-7.77649
-22.8431
-11.2818
6.82812
11.8489
17.6068
28.3093
35.7358
36.1747
5.54623
-16.9299
-17.7164
-7.93113
-5.50985
-10.5146
-24.098
-31.671
-11.5848
-15.7931
-32.4115
-13.421
88.6866
144.367
106.531
56.8979
6.9097
-18.2783
-30.2205
-47.9499
-1.19739
53.6123
24.9053
-16.2883
-38.695
-44.5263
-37.871
-38.5942
-39.0231
-32.4091
-13.9237
12.2288
-14.5623
-35.5908
-12.7714
-5.30218
-11.6854
-28.3489
-13.761
20.1012
-3.14032
-29.3311
-8.13619
21.4249
32.6039
37.2177
43.4936
52.6477
56.2266
48.894
43.3193
27.44
-19.883
-40.9875
-26.7115
22.6122
51.9081
59.7906
37.6219
-28.8951
-81.4619
-92.3061
-40.5622
-9.72073
-25.7068
-6.37874
-4.70375
-17.2942
-18.8463
-2.16879
18.2866
20.25
-5.05646
-26.4524
-38.7466
-31.597
4.68821
35.2569
47.62
64.6856
49.0116
24.3565
5.65222
-3.92656
-4.40427
-21.6648
-23.5845
-9.30941
-12.8615
-23.8972
-26.7939
-19.7892
-24.4111
-22.3764
-11.729
-10.5542
-7.44247
-6.36108
-0.0322188
7.03329
27.2307
35.1659
30.1352
22.3084
37.4464
31.5318
16.6089
5.45334
-0.115153
-3.27884
-7.91596
13.7129
24.3703
-9.10827
-21.6853
-20.2418
-22.4897
-35.8736
-31.0608
10.2969
51.2488
51.3674
18.9435
0.156251
-2.71834
-12.0016
-16.773
-20.6106
-38.9681
-85.1176
-95.5397
-66.7969
-38.4366
-24.7133
26.1066
168.532
200.078
101.16
16.2536
-29.6919
-46.6513
-44.5835
-40.2954
-26.3606
-24.6522
-27.7364
-10.7361
12.1308
21.0493
43.6127
56.3198
17.0935
-20.9629
-10.8428
-13.3305
-90.0865
-107.061
-34.9219
18.0693
28.7808
9.70145
8.71944
27.1923
27.0936
16.9141
14.4407
8.18882
8.74805
20.276
39.8422
39.5113
10.9058
-2.21321
-0.156243
-21.646
-64.6698
-70.6578
-46.9471
-14.3386
29.643
50.4756
35.4341
16.7759
-8.95276
-20.5479
-7.95466
-1.19746
-4.4407
-1.02531
10.7133
17.3844
16.8605
27.758
51.0306
47.9608
3.4196
-12.1689
-7.49214
-21.4788
-50.1764
-33.4659
3.6605
-14.1408
-37.1014
-31.5595
-7.94986
18.1082
18.7128
3.8208
-10.6788
-14.1128
-9.01919
-14.7971
-21.5821
-13.6997
-2.09861
12.952
9.71604
-4.69167
-4.30795
-4.60979
-0.346449
19.8142
43.4686
48.8708
22.6352
-10.938
-12.9069
-6.66069
-2.62589
-1.92124
8.78615
33.5646
49.5324
24.7269
-10.4008
-37.9065
-33.8549
-31.656
-42.8229
2.64005
63.3241
41.6439
5.30845
-14.0831
-13.5495
-8.69018
-3.67147
-3.7626
14.7806
19.099
-8.55779
-23.8992
-38.8865
-53.2031
-37.978
-20.0264
-17.4971
4.19463
48.7304
58.7991
-7.37902
-24.5575
12.6042
38.6296
49.5766
36.3206
16.4379
-10.0439
-35.9467
-45.6977
-29.855
-18.952
-4.51636
31.8111
40.176
4.58423
-17.2638
-17.8401
-16.3178
-49.2546
-63.4378
1.62173
61.5127
34.5754
-2.99513
2.1284
14.9651
23.8667
9.007
3.68671
26.2404
33.0541
26.2097
31.6589
29.9283
11.7674
-3.32736
-8.98396
-11.3066
-24.3401
-27.2649
-41.9117
-77.03
-70.729
-39.9321
-11.5493
11.1335
27.7419
21.9506
-10.7511
-36.302
-41.2324
-35.7701
-15.9787
19.7092
80.8264
94.8776
58.0452
23.4987
6.34374
-2.292
-15.3164
-20.5341
-15.1667
-2.1514
-14.2193
-14.3447
-5.55551
7.86805
37.3572
64.7653
94.2051
68.4304
1.14372
-43.9665
-65.5191
-63.0725
-34.5802
-25.4161
-28.7104
-15.3917
2.55098
5.27819
-17.8394
-33.6902
-26.2601
-33.7325
-43.7773
45.0979
131.066
99.2664
31.869
-1.41718
0.655333
8.9045
-11.2481
-27.0001
-45.2141
-57.8931
-40.3494
-8.37441
-17.7014
-23.5721
2.01854
14.3165
16.0936
20.4489
17.1265
-27.1191
-71.0694
-63.2519
-51.8594
-30.0884
-0.744178
14.0187
37.7939
66.7417
78.9462
82.7707
59.7577
26.3967
26.3863
25.4794
29.4796
31.2765
24.6066
20.557
15.7467
-17.2972
-61.3482
-65.512
-39.9909
-18.938
-38.8281
-40.3807
13.1018
31.9689
-24.2864
-54.187
-33.2023
-18.5534
-8.04939
1.58894
-1.34467
-27.8944
-31.4613
-2.83613
28.3903
44.5426
62.4026
94.4853
69.5781
4.43281
-5.95775
-4.56791
-36.2672
-48.5893
-23.22
-48.4603
-71.1228
-60.6373
-24.099
-17.1114
75.2775
210.783
163.133
62.0663
4.62397
-35.051
-69.2641
-101.352
-102.355
-72.0376
-45.0664
-20.8247
-0.534551
-9.38986
3.86078
35.1071
32.8807
19.7161
-5.73001
-7.46577
-34.8206
-68.1748
-23.6115
21.3411
28.5582
19.0523
8.75762
-20.9618
-36.9659
-9.75644
25.1296
44.8932
48.1948
57.1654
52.6187
55.281
58.0346
48.731
42.9334
36.9208
-19.8899
-53.0482
-34.6113
-23.6389
-29.6728
-3.2551
54.4405
65.9023
18.2409
-7.33313
-24.0553
-46.0546
-69.9642
-61.3737
-31.2979
-12.3161
-1.07377
-1.46019
-36.5324
-55.4907
-52.2848
-59.3709
-57.6224
-51.1592
-31.6132
-24.5606
-31.5754
-6.21956
40.193
69.8525
77.9695
60.9894
45.984
37.0704
33.3861
32.4013
24.0886
24.3187
35.7504
54.4304
50.1567
5.10102
-25.2052
-36.3061
-26.3527
-22.4438
-30.8298
-24.6165
32.7147
41.8088
3.14103
-11.0963
-28.5328
-26.4089
5.09808
23.8977
9.14394
-32.844
-24.7936
-25.3843
-46.1812
-28.9473
85.3889
156.859
75.5936
0.693136
-27.8451
-39.9615
-45.0941
-45.0095
-46.0862
-38.59
-6.83152
-21.2986
-48.3304
-50.6051
-39.0707
-23.5881
-17.6023
-13.171
-0.0342304
7.58855
-30.4791
-47.9985
12.6744
49.0153
50.3136
54.8766
38.9763
25.7552
34.6166
31.29
19.8539
29.7253
24.3666
-1.59859
-14.3346
-10.0027
3.04492
81.4101
137.188
91.5578
-0.0241255
-47.2365
-54.3967
-48.0593
-41.0747
-40.4403
-49.5766
-48.0086
-35.0107
-19.8829
-12.3216
-0.400675
12.8415
12.9483
11.5216
7.4113
-4.02925
-52.2576
-89.6709
-71.0475
-47.4606
-23.1857
37.8797
65.5471
36.9974
14.2563
11.491
14.8479
-0.00376063
-42.2691
-40.0902
1.77806
20.2044
16.9305
63.0507
187.656
178.011
62.5642
2.47041
-13.914
-25.5513
-44.7101
-69.1154
-74.66
-61.0974
-56.4751
-43.8121
-34.4176
-13.6335
16.8125
32.0615
21.2905
-5.47391
-1.16188
-5.80326
-42.1694
-43.1267
-20.87
-17.7895
-11.9376
0.477736
6.78278
13.5663
20.2301
30.4009
51.8839
52.2387
41.3693
39.6954
37.3653
23.7749
26.1221
23.9263
5.47235
-26.8909
-77.79
-90.75
-81.8374
-64.7895
-37.9373
-5.05714
19.2794
28.1649
50.5366
70.3246
44.1624
13.189
-5.27638
-25.6471
3.97056
26.5841
-11.8109
-36.0877
-19.7684
7.19668
-1.3158
-13.305
-26.7259
-8.99896
17.8358
30.147
45.6491
60.2774
53.2773
10.5978
-14.1413
-14.7463
-5.75497
-7.3165
-32.9732
-59.7967
-56.7008
-28.5478
-8.92862
-11.6478
-19.9643
-16.5863
17.3971
28.71
14.2314
-1.8902
-24.5587
-46.6349
-55.8553
-27.63
-3.65542
0.641044
-4.20387
-8.91584
10.6679
8.5536
24.0578
113.916
165.155
95.5514
77.2083
148.899
126.058
45.3269
-24.6489
-67.6787
-92.2828
-112.409
-117.008
-100.427
-79.9017
-56.6622
-33.4782
-7.45358
-10.4901
-10.5381
-2.76157
-45.6866
-73.5017
-36.5637
-29.4105
-52.7295
-35.4613
0.103878
31.1659
44.2121
50.0386
59.4855
67.1938
67.9765
78.3567
81.6673
61.474
37.0074
0.292955
-9.67162
-2.0022
2.17649
15.0945
28.7187
38.3419
1.81772
-8.59979
0.571667
-11.4159
-12.3159
-9.10026
-5.06534
-26.1519
-53.5826
-59.5221
-62.6272
-55.0373
-30.5935
30.6921
67.4799
25.482
-15.1467
-31.8124
-45.1179
-54.9873
-69.6332
-58.9721
-34.8196
-10.9572
5.73368
12.6331
16.724
42.3785
57.7177
47.7368
36.7473
30.455
16.8887
1.69367
-0.54329
22.3438
17.9153
10.9548
23.8791
28.6151
30.6006
27.8813
12.9295
-2.8796
-17.5081
-24.6572
-27.8848
-27.3209
-36.3367
-75.3676
-66.8184
-24.098
1.39529
-11.4145
60.6149
180.855
133.955
32.2574
-10.9256
-32.8817
-35.9356
-26.8766
-13.5017
-23.4051
-39.9315
-45.708
-55.0741
-62.5517
-51.4604
-8.66813
20.0032
21.8503
23.5513
26.5307
-26.3105
-99.6403
-105.168
-62.5695
-15.2206
13.0605
40.0474
66.8174
83.2491
83.9025
87.3191
86.0024
71.1387
55.7422
47.7744
21.0846
-30.5619
-49.7471
-43.3835
-28.3338
-43.4042
-38.9355
44.6109
62.4641
24.2428
-10.8442
-34.3091
-36.9604
-35.1772
-27.0848
-32.2821
-44.1426
-25.8899
-13.0154
-5.23251
13.4197
29.059
31.6805
26.0198
14.1528
-8.5866
-44.4281
-65.971
-56.4901
-37.0516
-21.6225
-11.1887
-2.89448
8.50279
-7.24555
0.938129
21.4122
34.8683
49.174
71.0033
86.155
65.8458
38.9803
40.9012
41.0389
12.5984
-34.9342
-37.3421
-19.1706
-27.5764
-35.8807
-39.3001
-68.3626
-68.8711
-2.43983
57.0572
26.9328
-35.86
-35.3321
-19.2979
-14.974
-6.30219
86.4174
147.74
77.7658
-17.9674
-65.1748
-88.8876
-106.208
-90.3753
-18.4112
57.2161
70.532
36.9223
10.654
-8.31579
3.33487
27.2669
19.2813
-7.16574
-16.437
-7.85012
-42.5262
-77.3223
-39.9457
20.668
53.6603
47.8584
34.2119
36.356
-2.81986
-40.0656
-19.4723
21.3607
23.1462
10.8847
11.1765
21.3371
16.0115
5.44664
0.954358
-0.896254
-20.4935
-37.4777
-17.9096
0.403737
-11.0322
-15.3448
4.25752
29.5324
30.6241
23.4376
39.5248
6.05737
-34.7304
-18.0194
13.9647
18.8248
-0.613604
0.838803
-0.298756
-21.9322
-44.3054
-58.0968
-55.8706
-39.3895
-14.9162
-1.17828
1.36058
7.77371
9.03085
-18.5121
-39.5745
0.929758
31.8157
16.6587
30.5316
50.4506
37.7
33.1211
34.0229
36.6036
16.9674
-6.60046
-21.4905
-21.3654
-4.58398
11.621
25.4693
8.87472
-1.76417
-2.09676
-9.46313
-13.6831
-10.5885
-22.3663
-41.5192
-40.3816
-18.1305
-17.3351
-16.0059
6.98967
25.8087
29.8794
30.1876
22.0264
-4.49041
-34.1664
-67.8514
-58.2251
-26.3523
1.49171
19.2796
83.8664
173.262
154.579
85.8048
9.20917
-45.9844
-74.2854
-81.6479
-70.8167
-52.98
-36.1398
-22.4055
-2.47065
8.09733
7.60369
5.41508
-12.5084
-24.1731
3.53568
34.4535
-25.3112
-102.269
-100.859
-64.3916
-17.6407
21.898
39.4574
46.0325
47.1195
40.9816
26.133
28.351
24.5114
29.8111
43.9333
55.359
55.6502
45.5698
16.5421
-20.2197
-27.9055
-32.7437
-27.0272
-12.0398
7.39715
15.3926
3.65408
-0.990467
-26.7896
-60.794
-49.499
-19.7912
0.064351
20.281
94.7841
137.061
70.7574
3.3727
-20.6851
-29.084
-51.7667
-74.0975
-71.4514
-73.0622
-70.3193
-52.032
-31.4298
-21.6837
-4.81864
11.7876
3.52674
-13.326
11.1032
45.1824
9.02186
-32.393
-2.48329
42.9683
64.6431
60.519
27.6252
12.5637
1.27226
-13.3147
-24.145
-20.1362
-0.585432
27.3053
53.079
61.514
44.291
27.7985
-2.15564
-27.82
-44.7787
-39.066
-17.5377
-15.2962
-23.4845
-16.6982
7.10654
16.1951
18.8544
12.0023
2.39702
1.31277
3.47972
1.08299
-4.24477
12.4737
30.4207
15.101
-2.00318
3.57471
13.1762
-28.3875
-58.7934
-56.5725
-36.418
-33.0477
-24.4488
-7.77299
-3.79083
11.9851
28.8667
29.7301
18.859
-3.33615
-41.3938
-46.4125
-31.1153
-22.4957
-29.987
-7.35892
92.0247
137.648
112.516
73.5838
19.1071
-11.5121
-4.74472
-0.527167
-26.9504
-40.9818
-53.7952
-56.4561
-45.2402
-25.1387
16.1361
23.0739
6.53225
12.8907
29.0794
2.38416
-74.0524
-78.5957
-37.572
-2.70746
16.982
11.4044
-1.6637
-4.90968
19.94
38.1808
44.1006
40.3199
40.6277
48.202
41.7588
28.4411
12.7089
1.05939
-32.5434
-88.2493
-108.778
-58.8275
-6.22494
28.5956
76.1168
114.605
85.734
1.6444
-51.9799
-44.0693
-24.8014
-30.8864
-25.5205
23.1974
32.9888
-7.74108
-37.082
-41.2192
-14.1357
12.5302
1.21009
-18.3789
-33.105
-50.7159
-63.7737
-65.0228
-33.1954
23.9541
60.0308
53.336
27.257
10.2098
5.16318
-14.3719
-7.82788
26.4336
52.3711
70.7639
65.2887
50.2606
32.6368
15.6962
11.4866
1.12973
-34.8167
-61.6749
-50.1661
-24.1
-2.89158
8.0218
18.6387
33.0891
24.3697
-5.20247
-23.152
-21.5025
-15.7752
-50.0491
-53.7271
-24.9425
-10.4192
4.41716
21.7877
29.8069
12.1031
1.15953
12.5427
34.698
34.5748
24.205
4.9718
-16.598
-30.1216
-45.3936
-47.4612
-26.3493
-3.15035
13.4947
14.0342
10.258
-3.55659
-20.6768
-28.1023
-25.8772
-1.59023
21.2403
-0.0624162
-23.2065
-13.1962
-3.57954
8.55962
19.1929
29.7212
28.7464
20.8273
24.1771
33.0267
52.8851
49.8123
23.0637
13.0064
6.3523
-0.20557
-10.4589
-26.6131
-47.1724
-42.9314
-29.4883
-19.5319
-0.955436
27.894
38.6616
11.0666
15.0335
34.6792
15.8275
-20.3331
-45.2471
-38.7686
-20.5186
-10.9656
-14.2746
-11.1504
-7.94117
-8.08151
-7.92607
-18.932
-21.8066
-17.241
-19.2458
-19.5642
-9.52555
1.2271
-4.4585
-9.97707
-5.86365
15.176
37.1669
40.2469
41.7236
34.4185
29.6501
30.7305
28.8561
34.667
25.3146
15.9812
-14.9882
-73.8531
-72.7491
-36.9287
-19.9377
-0.859802
64.9501
154.722
113.897
21.9376
-25.1382
-39.3256
-47.7072
-44.9293
-54.2443
-66.5948
-63.3816
-55.2291
-34.0495
-23.1711
-4.08246
29.161
29.5694
6.28294
-2.73544
-22.0018
-65.382
-104.284
-54.3125
23.7398
82.1
106.851
81.639
51.9395
41.9854
32.4332
25.9362
27.3616
35.3338
39.4563
41.1503
21.0745
-0.301632
-18.0826
-20.1191
-10.7267
-27.0297
-68.3023
-82.3378
-77.5687
-77.9277
-66.3294
-29.7605
7.5835
42.3078
55.7064
43.8917
31.2416
12.9048
-1.61094
-9.36756
1.83399
11.8938
6.60292
-2.08417
-10.003
-11.9135
-7.95082
3.02779
18.8009
28.4744
35.6974
20.9461
1.28147
-10.6585
-13.3813
-8.08366
-0.190058
0.749236
1.86535
2.98772
-3.35218
-9.36118
2.41775
18.7163
22.9304
16.1502
4.73828
-1.79541
-15.3302
-42.3975
-62.5838
-60.0927
-43.7832
-36.8477
-22.3353
-3.41057
19.8447
16.7218
-12.7566
-11.1724
10.3944
5.59343
4.84859
98.3257
153.226
100.212
69.2409
53.415
13.8101
-19.0104
-28.1349
-24.1306
-41.8149
-51.4222
-51.4994
-30.2341
-48.1754
-55.6612
-33.2595
-19.0461
-11.8346
-1.46177
-2.65502
-57.1024
-71.2067
-35.6579
-19.4703
-1.37222
24.3809
25.0153
17.0149
23.3826
40.5058
56.1635
43.3933
31.0064
39.0512
31.3465
28.9084
29.0726
46.195
58.396
49.6554
4.96318
-41.43
-55.6253
-59.3925
-63.744
-48.9764
-11.4366
20.1965
46.5282
55.0072
46.471
29.938
-10.0009
-43.4497
-35.1325
-27.0976
-35.9421
-57.678
-55.1705
-23.178
-23.9631
-18.5343
25.1664
67.7567
79.4524
41.4375
-3.97405
-34.3134
-72.8552
-88.5306
-78.2509
-53.8787
-37.4139
14.8315
89.2679
86.6842
38.9257
22.6381
6.17936
-35.4547
14.4035
108.067
76.3935
4.25837
-37.2782
-21.2816
-6.21508
1.58266
9.71365
5.19569
3.88362
12.0534
10.3597
-11.8104
-25.7708
-5.48219
4.48951
-4.54992
-8.54864
-8.09975
-37.3319
-75.2093
-58.695
-33.419
-9.27446
11.1245
17.9541
17.7164
24.9741
25.2128
23.8879
10.0417
9.91633
22.1522
19.6545
29.3905
32.537
34.0703
36.5538
44.0347
40.0321
24.0983
18.8279
-30.7452
-64.1579
-69.6334
-63.0576
-61.4972
-56.386
-39.8038
-18.7342
6.63232
35.6946
25.9585
-28.7475
-41.9169
-12.3272
2.41014
-0.955017
-1.3735
-4.59475
-21.5782
-32.4826
-3.16399
30.0244
52.1521
58.6772
53.1949
47.8485
45.8286
32.7147
25.8026
15.848
-4.67615
-13.0222
-19.2301
0.942052
19.3621
17.2547
-1.8826
-24.6984
-43.5109
-44.3143
-28.6904
-24.1364
-22.1631
-5.53408
10.0561
14.914
13.0141
7.43951
-2.74799
-15.3495
-31.902
-31.8128
-37.4961
-52.827
-55.9518
-7.74404
108.491
132.928
97.7423
65.8907
41.7442
9.11483
-28.9333
-72.1504
-82.9444
-40.6697
2.72125
7.33657
6.97813
4.06422
0.387171
9.45487
18.9719
37.7704
14.6688
-34.2416
-99.4646
-99.6343
-71.1499
-43.5045
-23.407
1.33817
13.0721
17.0922
36.1453
37.7425
24.1822
33.9539
25.0101
11.4049
9.4192
-4.28968
-8.50218
5.44655
33.8969
43.0573
33.5924
32.4759
41.6158
34.6038
25.9233
24.5529
31.9145
39.3397
17.3036
-17.548
-32.6434
-44.1412
-43.3327
-39.874
-12.6273
28.7245
38.1441
2.42035
-40.0322
-62.8585
-100.132
-95.7504
-28.046
-5.44502
-18.2783
