13.2658
32.5804
17.2277
-11.3955
-6.96524
-3.60459
-11.7454
0.00332333
-1.03827
1.73092
24.8074
8.33144
-8.20631
-15.5132
-15.2672
5.62765
7.9007
3.28945
-5.6311
27.259
0.811176
-17.7766
-11.8569
3.57532
10.4661
7.07168
8.41038
24.9773
-9.15584
-16.8845
-18.6604
-4.79042
3.96696
-3.50423
12.1808
43.813
-6.07793
-28.7138
-33.9984
-30.3821
-2.03655
1.03537
15.6693
33.7051
-2.88461
-7.39048
-11.3964
-12.2583
10.3637
11.2181
12.1403
43.148
12.7064
-18.4836
-26.03
-32.6571
-0.445024
9.08546
6.93187
16.6736
53.1611
17.3741
-23.6346
-27.826
-9.4902
-11.5328
-13.056
-11.5842
8.20578
25.8146
-9.94962
-31.5699
-10.3156
12.9355
9.83894
2.38667
14.5271
33.109
-0.152716
-25.8501
-36.5211
-18.2577
2.77243
7.17634
27.9393
61.3186
31.1041
-22.6834
-28.2247
-32.1044
-15.6188
-19.1348
-1.30657
27.1752
13.4011
-4.07487
-4.9245
-15.0118
-4.37051
-4.22311
-10.206
25.9037
5.13114
-5.71376
-10.8387
-28.0472
-11.1547
22.5956
21.2107
36.3532
35.9469
6.95308
-14.8384
-19.7531
-9.71885
-4.17822
-1.1425
-1.59951
10.3375
32.9309
-10.0997
-27.1225
-3.52245
2.38726
0.189506
-12.1782
3.01013
17.5896
-16.647
-26.4148
-19.0602
-9.58389
4.06445
3.29385
21.5259
29.8724
7.20113
-16.7953
-17.1728
-26.9547
-2.97476
-0.423659
4.8663
9.9991
28.5128
-3.39413
-13.7664
-6.57237
14.3754
-1.0156
8.54143
27.5087
31.7229
-25.0182
-40.216
-32.1788
-11.3526
6.1803
7.33605
15.4393
56.923
34.3019
-2.11717
-33.1837
-36.4359
-16.5949
-11.055
-11.1975
4.58742
19.3563
19.3197
-16.8238
-9.27954
26.9615
20.2315
10.4529
8.96237
17.0723
0.701916
-22.8021
-29.8179
-18.652
4.06141
12.5926
5.32853
30.3923
18.0033
-17.89
-23.7869
-27.1157
-16.0665
5.62305
4.4261
39.4463
36.4589
8.85151
18.7142
2.91456
-10.2831
-11.9126
-30.1747
-15.7184
-26.8123
-24.6349
-16.826
-26.8287
-22.5111
4.34759
24.1208
46.7415
39.2715
27.4251
-20.2793
-33.1953
-27.581
-13.8336
-12.5446
8.24534
24.3431
38.5671
18.51
-21.6198
-5.48627
3.05677
-0.550531
3.4879
9.06302
7.88111
17.7002
-20.6145
-44.3249
-31.9656
-4.25695
-12.082
-10.2839
23.2342
49.4836
7.65436
-19.7681
-24.255
-13.7771
11.0456
19.3136
22.4403
34.0232
7.79806
-4.46577
-3.36558
-8.9227
1.09122
8.58141
12.2051
32.4906
-2.99212
-8.8994
-15.9228
-39.4616
-29.7616
-13.8056
-19.0438
4.55773
-3.09813
-18.7697
-1.04626
-2.9511
17.3664
47.0172
66.7743
43.0579
20.8971
16.4549
-20.176
-26.0423
-17.4338
-20.0448
-7.80653
5.40764
18.3509
10.5145
-27.9285
-31.0855
-7.06745
7.43888
0.737629
1.52899
33.3276
42.6362
-40.7236
-65.9675
-47.1467
-29.1742
-5.29871
2.30705
23.9187
36.1881
-11.8483
-27.5043
-18.7218
-6.26883
17.733
14.353
12.4724
39.3875
26.3467
-16.7517
-31.2855
-41.9242
-3.21914
22.7082
32.6339
19.6222
37.7192
16.3201
-17.1032
-22.0121
-1.7422
-4.33393
1.7204
10.6862
29.9053
39.78
-4.87961
-30.7905
-24.411
-9.00745
-17.8914
-20.2083
0.113756
13.8252
16.4463
-13.9104
-16.0369
-7.25655
6.66746
5.9563
15.909
25.6743
20.6045
-9.71154
-22.2151
-27.6133
-3.23834
7.61668
10.3559
24.567
30.6108
-16.7686
-8.47449
-15.009
-27.6331
-7.39013
-1.57763
25.2815
42.2024
-8.49793
-10.3838
-13.0518
-16.8027
-8.67353
-8.59053
-9.71893
17.8758
3.94697
-17.1885
-22.8666
-24.2177
2.92014
4.88408
4.65129
7.86644
32.724
17.9438
-16.7083
-16.5472
7.74695
3.27476
-0.487704
3.82748
30.3647
7.75551
-15.1935
-16.3886
-5.33366
9.96544
7.46514
9.53952
34.8473
19.8617
-10.5789
-40.3432
-31.5533
-8.82187
-1.01562
-5.24634
5.689
25.9985
32.2882
-10.5883
-23.8294
-12.2291
-6.75238
-5.63088
4.82351
42.0176
58.4038
8.80439
-13.1489
-22.5883
-9.08427
11.5297
-4.54496
-0.778195
2.05367
-22.0827
-49.4331
-51.4962
-41.048
2.74367
14.5855
33.7221
52.1909
43.3437
-7.95986
-34.4405
-36.722
-13.4557
-4.70673
11.0367
44.2555
68.7046
30.5216
5.0019
-2.40267
14.1038
26.5273
4.13734
-8.31111
-1.14144
-27.9643
-41.3024
-49.4442
-49.1688
-18.4421
-6.77224
-0.297707
18.6492
-19.8969
-21.4612
-21.7577
-23.4087
-7.64579
-1.54685
18.2296
25.3919
12.1474
15.5016
4.33219
-2.71939
12.2635
21.333
30.6548
53.1991
50.8563
2.27609
-59.3722
-52.7281
-19.3819
-5.28646
-11.3554
-8.30043
30.9343
23.8209
-10.6004
-17.66
7.17001
15.72
16.8636
10.4329
15.6072
19.0704
11.2109
-38.0706
-36.4331
-11.3099
23.8779
24.181
20.6258
34.9405
63.1801
2.02914
-30.805
-22.1375
-9.95038
-10.052
-8.51689
-8.42665
9.47531
-27.3114
-37.6124
-33.4309
-16.3479
12.4549
25.9184
33.8097
40.4537
12.0151
-20.995
-31.1772
-46.5213
-18.2781
-6.73062
-9.4189
-15.6113
-0.747387
27.2207
21.135
-40.8479
-19.8864
1.30263
0.929453
-16.9989
-13.46
10.0295
29.7874
-20.4693
-25.7902
-3.02228
1.20544
-1.38589
26.8362
40.1886
67.008
40.1944
14.9572
-7.76447
-17.5332
13.8888
28.1718
34.7688
27.3311
-17.8324
-32.1373
-45.195
-42.3993
-4.42709
7.24963
29.1667
6.47585
-3.75523
-0.149981
-8.81103
-26.6785
-15.0733
-14.6625
3.68295
20.5338
-5.64934
-12.2671
-26.5541
-26.8586
-16.7713
-17.3604
-8.50104
19.2759
55.3384
30.5729
3.37801
23.5999
24.1343
3.15668
-13.7231
-29.1593
-8.15665
43.9897
36.4808
15.5111
2.23438
-14.95
-22.9755
-4.67756
12.0199
0.331716
-6.72086
-36.3467
-67.4339
-45.5702
-26.9813
-25.3515
-12.8043
3.14191
34.2756
33.365
3.63512
-13.983
-14.894
0.468528
27.397
40.5812
65.5305
47.2567
14.0294
16.057
-0.364615
-14.2021
-0.0814431
8.85661
10.3845
25.4989
-2.17705
-29.7205
-38.9418
-22.8843
-6.38068
-21.6178
-23.4116
-26.5695
2.42217
-1.25591
-19.8959
-19.3841
-7.59396
-1.99337
-2.43386
5.44538
37.1374
41.6076
7.77069
-11.9389
-2.93644
21.3759
10.9187
-2.53116
22.0574
13.9077
-20.553
-25.3185
-26.9534
-12.3063
-10.4818
-2.51279
42.5397
62.5709
8.66151
-16.0836
-27.9062
-26.909
-11.5203
-5.38482
-4.93173
1.55275
9.19203
-19.6659
-25.1152
-7.05708
15.8074
37.0617
31.9504
15.0658
30.445
3.21972
-45.8038
-45.4937
5.14134
29.7249
18.026
6.4197
6.96152
19.5497
0.810662
-22.1385
-16.0997
7.32121
-4.13973
-28.2943
-17.5371
2.85918
-19.7869
-18.8884
-23.4125
-22.8722
-3.25384
0.163896
15.4898
45.8619
27.6898
17.3203
6.9616
-14.208
-2.75924
10.9391
9.6774
38.4359
11.5851
-5.01174
-15.3541
-37.0987
-14.9924
5.64631
7.63231
28.8308
6.55431
-18.8455
-18.4665
-29.3674
-15.0183
-3.39843
12.2454
38.4698
37.9407
-18.2209
-26.9393
-25.3391
1.19177
10.8143
10.1241
2.53592
15.2968
45.5561
-2.16098
-35.1269
-13.4892
-5.7388
-9.31893
-19.3241
-4.24838
24.1638
28.4508
-31.1565
-47.6627
-3.83079
1.5639
2.26731
13.6929
16.7647
23.759
52.3183
4.85836
-38.0354
-20.2034
-14.3229
-6.85676
-2.81877
12.5919
19.8186
-25.524
-34.2201
-23.371
1.66839
28.0747
47.0006
61.0138
62.1961
28.9095
-18.1784
-29.7852
-51.1356
-25.0315
-8.8065
8.01839
33.8738
40.9351
-11.8661
-51.3594
-54.6364
-12.7745
-7.88222
-5.80969
0.0254156
-0.149785
7.12583
-11.3324
-59.5035
-33.2919
10.1077
19.7614
14.4137
23.8505
46.4729
34.481
-1.68749
-3.49043
19.3629
25.1953
10.13
4.03201
19.7265
-11.652
-11.1274
-13.011
-22.0181
-18.7207
0.856235
7.97927
20.1525
-0.356195
-9.5184
-9.67533
-31.5078
-26.1482
-8.51378
-0.870719
49.4393
20.123
-18.8923
-17.6747
-24.688
-6.32613
1.72937
6.50783
17.7517
21.0382
-0.923926
-12.9893
-15.9508
-7.61848
-9.34268
-0.407155
3.67433
22.2225
69.4649
24.5352
-38.3235
-19.0784
3.15654
5.53826
-3.05222
-0.433506
-10.1057
-7.68443
0.248484
-24.5528
-6.52932
-1.86637
-1.4585
-3.05434
25.9911
59.5222
64.8545
19.4952
-4.73803
-6.06795
-9.23586
-19.9596
-21.8884
-17.7256
-14.5773
-47.3128
-41.1124
-16.392
-10.9487
-7.95432
1.48459
21.9886
9.2499
1.25867
-14.4661
-27.6561
-28.2505
-5.43406
-6.70413
40.6751
96.7739
73.5806
-8.87516
-43.0855
-43.485
2.67087
0.998254
-15.2601
-11.4863
34.8813
27.2494
12.4984
20.764
29.7662
26.1679
13.3249
3.94061
18.5567
-14.8478
-42.1645
-55.2648
-37.2685
5.4596
21.0781
39.4914
32.9355
1.68196
-13.1106
-36.3711
-44.7874
-26.9569
-9.71943
15.8917
41.2309
-6.56724
-46.1374
-50.4253
-54.1873
-45.4428
-28.4719
-16.5489
10.2897
88.6462
87.1814
1.02029
-11.9912
-3.08428
-4.56093
-0.531164
-0.379546
22.5297
41.0419
4.55522
-39.3175
-27.854
7.7509
20.434
20.1938
25.921
20.3769
23.0218
28.3019
-24.8205
-30.8599
-6.56877
-2.74858
14.1455
20.5937
42.3344
40.6619
-16.055
-42.1116
-22.1601
6.88251
26.9714
14.2496
14.5746
12.7521
-32.1954
-35.0988
-40.6216
-44.8081
-40.97
-21.0901
26.3478
27.7252
-1.04894
-11.3374
-24.8852
-32.1753
-2.71524
10.2423
48.8867
69.982
21.1789
-19.0345
-16.5816
-9.43384
9.41826
-0.31721
-7.26761
4.43661
17.9673
-2.58859
-55.1419
-45.2526
-26.6731
-20.3632
-12.6031
-3.37739
34.9037
27.8713
-13.1247
-24.1844
17.4757
47.4497
23.3458
0.522382
21.6383
32.1545
-10.1883
-22.934
-14.1571
-11.8762
12.1668
14.824
30.7128
47.6214
18.0291
-15.5337
-27.4951
-21.6804
-20.5669
-23.3117
-14.3859
17.375
54.0265
31.5888
20.72
3.333
-7.58846
-34.7285
-42.9675
-4.32958
29.6172
-11.3402
-11.3745
-19.1825
-27.4487
-17.3216
-13.3908
12.4063
43.6962
46.1115
5.9091
-51.2135
-60.902
-25.6504
-8.98423
-0.728537
18.6015
47.2389
25.2329
-32.5385
-29.3818
12.7772
14.5139
-1.87466
9.9271
70.6962
47.8415
6.25215
-16.7063
-33.0577
-15.9958
10.9074
17.2444
18.2894
-5.6621
-34.9404
-29.7536
-34.3654
-30.2369
-13.7552
3.5245
31.6722
16.0835
10.6093
30.0909
26.3499
27.5502
15.3818
15.3066
23.9103
-6.59181
-35.1098
-55.3871
-71.7492
-83.8867
-46.8384
-6.68053
14.3855
63.0016
115.009
43.4841
-22.8688
-22.6484
-8.14199
-14.3582
-44.4572
-31.0371
2.64173
24.039
-28.6992
-25.1488
11.0322
26.645
36.4034
50.3758
43.851
42.5021
11.6704
-9.2292
-22.1646
-10.8902
0.330939
-3.107
-4.67301
15.5059
-0.246902
-14.4838
-15.3087
-34.8045
-17.0863
11.3557
16.4722
17.8269
4.1832
9.91435
9.29333
4.3622
-6.47422
-27.0772
-39.6354
-10.6529
10.766
-27.3395
-21.6435
-19.5939
-9.30275
-3.03598
-3.03604
-2.23336
14.6306
46.7593
44.2318
-28.877
-32.2944
1.39547
17.6866
-3.2316
13.659
34.1573
22.8459
-31.1439
-29.0832
0.616528
3.59781
8.17678
21.6372
39.1674
27.7699
-15.4735
-6.90843
-4.35864
-8.41977
20.9469
37.8524
25.4391
1.35614
-46.1956
-55.4564
-64.3406
-48.2305
-7.11187
9.79365
51.0829
46.8423
-14.7429
-26.4307
-19.4414
-20.684
-0.200757
13.0853
19.8498
28.2359
37.7662
3.89356
-3.73343
-16.2398
-8.23581
-0.0841886
7.64096
3.09637
31.4296
20.818
-15.2545
-50.3966
-21.1031
-10.9888
-12.5563
-11.8905
-3.13108
18.6734
21.5385
-34.2361
-28.1015
-20.8537
-30.2299
-18.7451
6.96125
18.5159
18.2313
-8.73915
-14.8775
2.44041
27.015
55.5514
64.949
75.2017
65.9829
26.6618
18.4536
0.216187
-23.6564
-5.62518
1.55415
36.0066
25.6161
-15.1466
-12.3827
-29.8372
-44.8644
-35.8752
-40.6642
-39.393
-12.7014
-25.4005
-51.1047
-58.9479
-52.2646
-27.6884
-4.68634
-0.368691
0.329122
32.1414
24.5627
-32.5144
-20.6248
22.0281
40.7855
39.7785
20.5541
40.1071
60.2989
17.9746
-12.0104
1.67902
6.02827
-6.77202
-1.56122
9.61051
28.0378
14.7941
-32.7088
-26.3191
-18.5217
-1.15134
-1.33798
11.301
20.1674
27.4238
45.1431
20.9658
-12.6638
-21.8549
-20.6037
-9.91621
2.33035
15.5889
26.8672
-7.41829
-30.7007
-27.0391
-3.05337
-11.9536
-5.3995
20.8295
37.8816
30.2399
-17.3398
-42.7279
-56.3402
-51.8478
-39.2468
-13.5415
-18.1217
-8.90823
24.5487
-20.3105
-40.7736
-0.836219
8.35178
8.77367
30.3023
37.4452
68.6066
34.9422
-7.35578
-16.7314
0.645226
8.63831
13.9111
21.0217
43.424
12.2016
2.61856
-3.43411
-16.5562
-6.52697
-10.2606
14.6681
34.9074
-10.7903
-19.9308
-18.7288
-28.5558
-2.46557
6.71147
8.05044
39.8943
-5.81086
-35.7774
-33.5267
-39.0913
-12.4663
-2.70203
18.926
7.779
17.9022
40.584
-2.7764
-57.1496
-29.2595
-19.1053
-28.5495
-43.6186
-16.9729
24.5678
56.1515
66.484
84.3612
80.139
33.8404
-10.1492
-10.6608
-21.3777
-43.8389
-50.3791
-34.9374
-20.272
11.8658
7.79586
-2.24236
-0.922729
-1.10591
3.43094
-3.08963
-17.3583
-35.739
-33.3527
-29.2239
-35.3231
-10.7562
-0.603535
13.2906
27.1577
31.0252
48.2157
62.2376
21.3716
-11.1796
-6.66621
-1.37605
7.36877
17.7929
16.2752
19.8015
16.4706
18.3914
-28.7464
-31.1217
-10.6851
-7.31719
-1.62705
5.23025
-0.700979
-18.875
-26.7817
-1.85337
15.6133
-11.484
-3.61417
17.2624
23.2856
16.3746
-8.66942
-13.1563
19.2422
0.503481
-42.1578
-47.1305
-32.8459
-12.8898
-4.97274
1.03891
17.6774
52.4677
32.2636
-34.9505
-41.5927
-3.04902
24.0187
29.3211
17.9426
13.9892
23.2656
11.1739
-44.6837
-39.2909
-11.0944
2.04017
5.13487
7.04072
9.62704
51.599
29.3876
-49.0918
-55.2193
-23.7589
-4.95356
4.31389
-0.690955
-4.21957
-3.19366
-5.64911
11.8673
41.5224
52.5939
14.2722
17.9987
14.2251
8.81246
-3.17329
-9.00173
-32.3606
-3.66276
36.6525
32.0285
-30.2763
-31.3641
-11.0016
-22.4726
-21.6053
-4.25216
-2.28693
-13.9312
-9.29314
-20.1264
-23.2416
-15.891
-1.85313
16.6399
28.69
24.0785
21.5634
36.7673
-3.58595
-52.22
-37.5596
-32.7529
-4.2911
25.98
34.1761
40.8029
75.0343
60.3872
29.9107
-10.3039
-3.86214
-16.6021
-20.8542
-14.1992
-3.11027
-13.4793
-26.8194
-24.8041
-2.74053
-3.01213
10.4173
5.06982
-4.35665
5.31152
-4.01297
-38.4488
-47.1418
-19.8105
-27.1674
-16.0902
2.66038
19.6543
24.5034
8.56699
4.25378
28.3495
21.4775
-40.8186
-33.7033
8.87496
29.9007
22.7988
4.60763
-5.1411
22.4141
39.423
-6.66614
-38.7534
-23.2653
5.97674
4.95279
4.22157
6.97593
36.3059
42.8116
7.22218
-55.0426
-48.2758
-32.3083
-8.49484
-5.34183
4.34507
7.17091
23.1867
52.5214
44.3794
42.4317
2.72626
-9.08601
-0.753804
-14.6846
-19.6451
-9.23623
-22.681
-24.8906
-6.24512
-6.68578
-15.6775
-9.26405
11.158
12.596
4.46617
7.57704
-6.57529
-33.7206
-16.921
1.29597
3.81078
3.86747
7.98912
13.6953
18.3651
9.66536
-2.56614
9.75466
-0.799831
-20.2021
-9.01401
-3.38918
8.81784
18.8535
11.1476
10.7863
19.3097
2.82965
-13.8028
-44.9008
-32.7111
-35.4486
-24.7815
-10.5104
-1.9397
15.434
17.925
20.0576
20.0727
17.7386
22.033
22.1445
11.1276
1.46449
8.79468
9.74667
-2.6868
11.0222
19.1083
-18.874
-22.1709
-19.1555
-19.3384
-15.7792
-1.6667
5.53813
22.3322
-14.4895
-42.1163
4.58124
25.1534
25.2037
19.5435
20.8751
20.0501
21.7147
-21.8104
-49.2833
-47.6383
-7.56815
8.27845
6.934
0.708512
24.2641
32.4897
12.5651
-32.3122
-37.676
-20.177
9.96823
13.0912
-2.88948
-11.7765
6.7578
12.1322
-24.3252
-37.1445
-28.9985
-25.89
-9.72954
9.36227
30.8359
54.8038
74.433
80.3545
33.6543
-14.4463
-63.6454
-31.6589
-34.7422
-34.5946
5.51688
32.1181
25.7468
10.6641
16.7396
11.0482
-16.9348
-29.324
-6.67449
6.88673
6.92993
-12.7172
-44.1404
-41.0677
-4.26435
-2.75964
18.4582
12.1714
14.8305
16.6487
-1.09773
-21.7454
-6.91641
5.3732
-15.0146
8.75307
17.9361
17.5217
18.7761
1.33099
-11.9619
0.483442
25.1895
-16.3406
-11.0744
7.14882
10.7508
0.219156
8.68043
7.95007
-8.72533
-9.60667
-21.8812
2.45999
12.0768
-7.58593
-7.08065
0.350025
14.3659
21.9634
14.0052
-3.94077
-9.43994
3.53792
-46.3107
-12.0557
1.86187
-2.7289
-0.548322
-1.32456
9.87552
42.1353
15.8432
-49.5344
-28.6767
-0.450844
19.4849
16.9875
-6.1286
-3.09878
33.4899
11.4827
-44.1617
-38.3443
-3.07658
14.5219
19.9632
23.3472
31.4866
20.7888
12.7176
-27.5057
-49.6694
-22.9267
0.594912
16.4044
13.7103
6.91753
1.84536
1.4804
18.9346
14.33
17.2166
-38.9148
-20.3292
-15.865
-14.4338
-6.01526
0.0521246
0.918414
5.61763
26.4062
34.339
-20.1206
-30.0956
-12.0304
-4.08381
7.27504
10.3454
-8.69072
-26.4637
14.2691
-2.5654
-15.8099
-12.6076
3.11359
20.4747
37.6922
27.3211
25.1301
42.9857
-13.8286
-33.4481
-9.69087
-10.7369
-12.6582
-24.7407
-15.693
-2.80726
36.3293
33.8609
-33.1521
-51.3062
-27.1907
-13.7447
0.882325
14.5993
8.00783
2.9884
48.3117
27.6223
26.9143
20.5573
5.75545
7.40504
-0.599018
-12.1127
-27.6213
-28.2898
-11.478
-21.5405
-16.8471
18.7415
50.4675
33.9457
-5.78796
-16.8234
-5.50052
24.0813
-8.0959
-67.8852
-59.3028
-14.2193
16.5575
19.4489
12.4514
15.5659
38.1645
24.668
-26.0797
-28.8401
9.73423
23.5293
27.1022
31.564
37.6706
55.5363
10.1936
-68.8265
-99.4996
-55.2949
-25.6191
-17.8762
-16.0638
-9.15352
9.82522
25.0097
32.4765
41.4503
-3.31167
-14.0539
2.74237
17.2149
11.1409
-4.23126
-3.56471
-19.9712
8.95761
25.3694
-15.9363
-21.1011
-3.32484
3.34699
11.1721
3.69178
14.2238
19.6493
22.7982
38.7132
14.4359
-36.0406
-37.6758
-25.1826
-14.4915
-10.4557
-15.9062
-9.225
22.3438
10.3832
19.0922
35.1442
16.4159
6.56911
-5.80455
-12.5368
-1.96308
8.83516
-2.22488
-70.3915
-30.5207
3.93292
9.73645
7.46622
4.82028
10.2289
5.08155
-8.42972
-25.7532
-9.19565
-17.5358
-15.6222
-1.92534
9.84812
24.4699
29.3043
6.71767
2.37287
-8.31128
-5.30491
9.96329
21.7654
27.9051
32.11
28.7712
27.6958
14.0431
-39.1181
-49.6679
-21.84
13.6041
13.3859
17.0469
42.4609
50.1421
-23.5053
-36.3652
-33.8398
-42.2365
-18.7204
-12.8613
-0.272961
34.7499
-9.20893
-43.3371
-30.875
3.09617
9.23957
-6.03587
-0.259655
19.187
40.6444
-2.71412
-34.2296
-29.466
6.74877
0.375643
-14.3335
-13.9211
16.2714
68.3566
54.4649
-29.8486
-45.3076
-13.5815
-17.6114
-19.7232
7.51722
19.0931
25.0969
4.79952
-36.6314
-27.9733
-12.3553
-9.25214
8.31579
27.0575
48.4945
15.3423
-2.36978
-27.4024
-17.9297
10.0197
39.4786
44.9301
39.4017
14.3321
-2.72758
-5.23688
-9.3295
0.499872
3.41819
21.8693
32.9273
-23.1819
-33.0256
-28.3804
-28.8946
-8.13495
3.47472
0.857177
10.93
18.0806
-7.54778
-28.0559
-19.1798
-9.93947
-5.8716
-21.7825
-26.9534
-16.2471
6.14565
12.8518
-19.1203
29.0105
43.1609
23.6627
4.02188
18.1248
39.7502
9.97374
-57.1587
-53.8964
-21.5028
-5.04254
-7.51543
-15.0006
5.81836
34.3557
-3.38724
-15.0782
5.33953
8.28887
-2.24726
-17.7778
-3.64211
15.5455
29.446
-9.40723
-39.1908
-12.542
25.6582
22.4546
30.9143
41.4751
34.4739
7.76319
-2.7293
-13.2011
-4.15922
9.13468
0.636779
-1.47888
16.2557
32.0173
-20.9582
-43.6071
-37.8012
-10.7012
-5.35172
-11.5283
-12.6601
2.79523
21.76
-30.9432
-33.1014
-8.52838
7.90135
10.4929
9.36554
23.7342
38.3508
-15.8328
-57.578
-48.7361
-6.3348
17.4801
13.4619
29.4699
46.1744
-9.05512
2.39855
-6.13079
-15.9277
21.5328
25.0896
37.475
16.2837
-29.3346
-14.6647
-16.1717
-26.5913
5.2679
24.8673
32.4124
17.3051
-2.29923
-18.7701
-23.8239
-25.6739
8.38561
11.0812
12.2148
7.23024
-26.0627
-13.8704
-3.88263
-4.11911
5.21416
12.1308
21.7978
32.494
-1.15515
-22.2287
-25.2783
14.2425
14.9991
1.18053
-5.18067
-4.52692
18.7149
21.0601
-17.7961
-32.5527
-8.88079
-12.4846
-11.0816
-5.53437
7.35882
24.2601
-10.4882
-30.8272
6.47747
12.0129
-6.49561
-11.2205
-0.659282
12.0783
-0.745408
-11.8064
-15.9873
-20.8825
-2.89259
10.4857
46.8216
24.7842
-5.53559
-13.2882
-16.0212
-30.598
-6.1634
1.16351
9.72356
42.181
11.4656
-11.2931
-7.62362
0.427213
3.55257
2.37158
9.00102
45.6368
19.576
-5.95415
-20.5161
-19.366
-5.23989
6.05194
8.15208
19.4206
-6.53453
-33.5612
-34.0293
-27.9278
0.36157
9.01552
8.08707
32.6215
12.733
-5.37313
0.933258
-12.8168
3.49411
20.8064
14.6676
30.7082
33.2881
-26.6108
-27.0293
-35.7812
-18.245
-1.31254
-3.79405
4.65824
37.7686
-4.0629
-29.4607
-37.1717
-9.45442
16.5281
6.14421
-3.33593
21.0755
20.6487
-23.3719
-23.2431
-3.31227
14.7191
-9.73194
-13.475
7.55851
44.5387
71.4879
-0.302569
-50.062
-22.0406
-10.7511
-24.2743
-9.17451
11.8868
42.854
47.9204
-30.2526
-46.0349
-5.84559
-5.13424
-22.5202
11.3817
47.8393
86.5691
50.9999
-10.2184
-35.6592
-18.3119
-12.6585
3.66864
26.7969
25.7738
-23.3718
-43.3855
-52.2329
-53.5075
-9.24555
11.2036
34.0086
29.7334
-10.5018
-5.95837
-13.4728
-42.3027
-34.175
-17.9651
-1.28453
43.2776
57.5702
7.92861
-7.74289
-19.3194
7.0033
2.98713
-9.55779
-5.67419
20.3875
12.081
4.99456
2.39572
19.2463
15.1689
7.88228
10.2526
22.8595
-20.7647
-31.2032
-27.6409
-18.04
22.0381
11.9484
18.7629
23.1628
-34.1135
-47.782
-53.2006
-33.5595
-11.2159
-8.7327
6.63033
25.5369
53.6223
59.5327
-4.01386
-14.2579
6.04082
-1.17092
-24.5898
-25.2715
8.22703
37.8362
-9.93091
-28.5578
3.03082
21.1703
24.977
16.3618
9.68312
7.89388
17.5515
20.9904
-15.2234
-29.7545
-5.05284
1.78626
10.1347
6.60998
16.5337
28.8904
-13.6937
-50.1102
-25.0723
-4.59581
14.0126
5.58524
0.0268678
25.2629
7.95802
-29.3299
-35.7343
-31.5062
-31.6315
-18.0463
14.5961
28.3982
5.73581
-3.06498
-7.74062
-19.0714
-6.17612
9.88447
31.892
41.5459
-2.83794
-19.9651
-24.2123
-47.9487
-19.8825
37.0342
54.6315
33.1062
15.208
4.00063
-6.97643
-12.1579
6.52534
17.8192
23.3177
21.1281
-2.57192
-20.3439
-31.2836
-28.5923
1.17415
5.44588
7.11199
6.05505
25.2189
31.9152
-28.3464
-30.4329
-10.5747
-18.9131
-25.76
-21.9841
1.88108
14.7707
30.0471
-4.061
-32.9304
-10.4954
11.3308
13.3548
19.1212
25.2419
58.7464
19.7259
-30.214
-56.302
-35.8558
-13.9904
1.85508
32.2795
40.8541
-2.71488
1.74385
-1.30491
-22.2179
-15.9882
0.701842
22.4768
54.2233
9.34309
-25.0662
-26.4922
-38.319
-8.68961
10.0113
0.590186
-2.47495
5.43824
2.9814
-38.8794
-31.3573
2.32521
11.3278
8.99333
9.83545
22.4852
53.4543
17.5179
-15.1399
-14.0613
-5.99471
7.88283
4.27423
14.4999
33.1441
0.416955
-17.9684
-23.0861
-25.4172
-1.89448
-7.52811
-10.1273
3.41089
-18.8871
-18.5841
-10.4271
-15.3951
-8.22012
3.43424
45.0927
58.8661
3.77176
-15.376
-6.81379
-12.9355
5.1168
15.2284
11.9399
21.8602
26.6845
-24.6659
-21.8637
-32.8116
-10.3483
4.45532
0.130843
2.1162
10.6079
-38.3894
-38.9916
-9.4356
21.3074
9.14697
-3.90767
5.37551
39.5405
73.1099
14.6067
-33.0821
-30.3187
-3.70413
-2.04379
-8.11074
-0.918036
9.75907
28.5236
-5.88051
-15.5289
-3.89079
-10.6195
-2.95348
11.3838
21.8108
17.3572
-24.6261
-29.1804
-30.3271
1.31498
16.064
12.8027
40.9053
39.614
-6.81423
-8.52576
-14.6047
-32.9137
-16.3428
-7.67243
36.8575
40.1013
-12.4486
-48.9663
-41.9252
-32.9165
-13.0852
-8.37553
-2.48835
9.59737
29.9142
35.4532
-19.2287
-31.1922
-10.398
1.64655
1.43583
0.47395
26.0568
45.4938
-4.37461
-9.02731
16.8148
38.3515
27.6027
10.4913
22.7541
38.8739
-0.960727
-25.8081
-23.4585
-29.9486
-9.07585
0.980109
20.2862
35.3362
32.3726
-22.7233
-41.2006
-38.7586
-14.9379
-12.5832
-5.82544
1.01229
9.88804
20.2673
-28.7715
-42.2354
-33.27
-16.9975
-20.3825
-13.5746
11.9988
42.693
45.1726
-11.6084
-44.5482
-21.5882
-9.14962
-19.8617
-4.26058
18.202
29.0604
46.0324
38.7516
-2.44247
-17.0397
-31.5994
-21.2422
-1.2481
12.548
49.0475
78.404
45.0251
23.8299
15.9242
3.297
-2.80221
-10.7566
7.48854
-5.45807
-26.967
-39.6144
-48.5618
-42.6945
-10.6819
25.3683
39.5767
11.8916
6.08812
11.865
-15.1417
-34.4357
-40.592
-27.4981
27.1846
0.610113
-20.4331
-17.5089
-20.6763
-7.09052
5.46831
15.7366
23.7461
63.036
42.631
4.62938
-15.0031
4.21892
16.1897
0.365199
-28.9286
-37.3893
-5.86847
-17.4214
-60.8492
-16.1416
33.1682
44.6455
24.9711
-2.96676
-0.339671
9.41006
-26.5731
-52.1443
-24.6472
8.12012
2.3215
2.26181
10.9601
21.6358
49.9498
8.67565
-35.5628
-5.22244
12.5239
14.1524
22.7987
16.6189
26.1116
19.0871
-27.236
-24.7855
-0.451228
-7.98563
-10.9098
-6.41849
7.66764
9.2274
-6.7102
-19.3656
-29.6899
-4.91311
5.00145
1.113
24.1987
78.2741
50.9707
-8.84359
-35.9073
-40.848
-24.7431
-7.71134
12.1682
18.6949
38.5859
-2.78635
-52.9644
-31.1677
-14.8226
-9.55045
1.15881
13.1788
43.974
14.7727
-24.9126
-67.2361
-54.2144
-8.76975
-4.87055
18.5637
53.4328
19.881
1.53556
-5.50434
-20.8132
8.51112
34.6487
61.6427
78.0077
24.3791
-32.7287
-33.6655
-54.0523
-48.9679
-14.6187
2.89095
26.8375
10.093
-5.8302
-11.9877
-17.6774
6.83706
27.0127
24.8518
21.617
47.8586
32.8652
-69.3431
-94.5028
-29.3003
16.2855
13.1701
9.56724
14.7802
27.8629
8.40143
-18.5168
-17.5448
-2.00957
4.29916
-2.49639
-15.1127
-26.5896
-7.782
-1.73531
-36.3348
-22.8234
28.6403
37.4746
30.9881
14.4975
18.4082
5.32201
2.11113
-8.20929
-5.40293
1.11683
4.79516
29.1574
66.3059
23.3496
-37.8192
-42.5192
-49.8219
-44.1304
-15.0905
11.4815
32.2129
8.33339
-7.8788
7.41349
11.6503
14.6952
12.5502
0.444945
2.85697
24.5269
3.55759
-14.3398
-35.499
-8.26051
20.1464
12.261
11.5989
41.7677
4.47696
-36.2856
-37.3631
-0.264821
6.01011
1.08026
9.36249
22.5358
-25.7442
-60.2913
-52.8346
-32.9444
4.87851
-8.12699
-27.0847
13.5092
14.4398
20.6895
32.431
19.9466
32.8027
24.7493
2.27829
-16.1415
-17.5034
-19.5062
-30.5981
-15.7374
18.9029
31.7726
26.6674
13.8098
36.4892
54.9691
9.43288
-9.86348
10.7698
-8.75326
-48.862
-63.8696
-47.6497
-23.5026
18.4916
23.0836
2.33472
10.9242
26.1951
17.0022
22.1604
15.9531
22.0013
33.156
-12.0739
-42.1553
-18.3341
-7.35502
-12.1176
-4.13302
23.2675
16.7593
-9.6326
1.41166
-7.43644
-24.8605
-25.4958
-18.7984
10.4581
-3.50862
-9.42667
5.16117
-2.64507
-28.0921
-17.7202
-10.0913
19.0174
-8.07191
-11.9885
19.5033
20.2369
11.7491
11.4714
12.5305
17.5932
-9.40179
-14.3214
-4.91561
-17.5135
3.53917
20.3653
18.4827
37.5831
56.8866
26.46
-8.48663
-27.0838
-21.2154
-10.7327
-27.9862
-29.7679
10.9147
46.9903
-1.03257
-33.4746
-15.7041
12.4433
1.53166
-13.5035
-7.38619
19.0002
-18.0312
-50.7262
-52.7347
-20.6585
-1.14856
-1.76256
8.02662
19.2421
46.9325
30.4702
-6.387
-2.98904
29.4949
26.8393
25.2267
37.2493
62.1415
19.1953
-40.3162
-43.1872
-19.3092
-9.22669
-13.0164
-5.33245
29.9076
31.1905
-9.29585
-0.758315
-12.4132
-27.7597
-55.0231
-66.851
-32.8288
11.0914
54.683
6.74792
-32.1984
-19.1524
-0.686491
-9.10552
-3.75143
7.25848
47.4433
51.9309
-4.75299
-11.206
2.41656
-0.847514
-24.919
-19.476
24.2241
17.0111
10.5144
-1.69389
-11.193
2.21759
2.28147
30.9831
46.4816
7.74379
7.06381
-5.87569
-63.684
-72.9396
-58.4646
-17.9717
13.8336
15.7785
60.5001
83.9085
54.2527
28.22
0.256616
-18.3086
-6.50868
-3.81268
-0.0361495
-21.1357
-28.7794
-19.4445
-5.79957
-8.89448
7.30748
31.9815
-4.02395
-26.7347
-15.3014
-5.42224
-12.6763
-26.6958
-40.8363
0.0560319
42.3859
23.1033
-53.2727
-31.7868
-15.5631
-15.9151
-4.21887
18.1448
26.5482
60.0707
19.6275
1.74537
42.4563
31.1246
6.00023
-7.20014
-11.592
15.5222
-12.5174
-15.0359
-22.3328
-10.9603
22.8113
32.436
31.6124
37.4524
-1.15756
-24.5455
-28.8463
-31.4184
-7.98906
-6.24468
2.18623
25.0883
16.7558
-39.77
-56.781
-62.2765
-12.7213
2.7546
-3.77899
13.8852
45.656
28.9764
-19.931
-29.8889
-8.93243
10.9863
20.7405
5.02315
16.5801
30.7561
-10.7683
-9.94364
-7.81732
11.4344
13.0377
-3.0227
7.73804
16.0214
-17.1744
-21.8868
-34.8962
-21.2887
9.38526
16.8
51.4031
47.6491
10.0383
0.306955
-9.05334
-17.5343
2.14677
-8.86129
15.1137
44.3772
17.7717
-36.3875
-45.6497
-51.8461
-27.4561
-15.0257
-8.74992
2.92823
32.1607
0.00198903
-22.8152
-31.2167
-16.1285
14.6492
25.3038
31.5267
59.4793
52.3209
-4.31336
-25.8245
-10.1682
4.00013
-13.1501
-8.35673
-6.33983
13.3248
29.4934
-24.0487
-40.4589
-3.04404
13.1827
21.5092
26.3088
25.7668
-9.55391
-50.2451
-52.3773
-41.3308
-21.0291
-17.662
10.3307
65.1601
41.6853
29.2667
20.6758
5.19963
-6.60384
19.0791
33.6192
36.2212
-21.8827
-46.438
-51.6812
-58.8526
-34.5529
-15.018
-6.25769
7.93239
14.2181
-6.43572
-9.33531
-1.72875
20.624
25.9681
26.8272
11.4037
35.0029
59.1316
9.76726
-12.0753
-9.26494
-1.6175
7.9136
0.0269874
6.28571
13.2923
-25.5153
-30.1973
-25.5375
-4.1736
-13.835
-44.2539
-36.4206
-9.00841
-18.3282
-23.5594
-5.88945
-3.33943
-2.73891
-5.80252
10.2538
21.7186
51.3463
25.5638
26.392
18.5955
26.64
6.16204
12.008
22.6594
24.202
20.1626
18.1561
4.35733
19.37
8.29629
-28.5845
-23.8674
5.08127
-18.7143
-27.8984
-33.9579
-50.3816
-39.6378
-30.7491
-6.25047
41.8549
81.0839
49.2254
-9.61307
-35.3294
-37.1239
-35.6614
-40.8143
-27.6613
6.89828
18.4176
-22.1379
-20.2985
4.16417
16.0588
17.1358
21.4708
47.1542
7.5475
-20.8295
-23.4181
-44.3499
-23.5231
17.5195
44.0532
81.7896
43.9806
21.5579
4.06531
-14.8226
-23.5699
-10.9825
-7.7757
23.292
4.62227
14.3333
11.9669
-15.5757
-31.1281
-36.6814
-32.4999
14.0589
31.9026
-9.93761
-34.1129
-40.6333
0.451445
7.81751
3.66292
4.34533
17.1747
55.1068
10.6099
-11.7823
-13.8774
-28.3343
-19.6774
-0.0866388
36.1663
60.5216
21.0446
-53.7301
-57.0868
-16.3028
-0.793904
7.54545
26.0498
40.1566
54.1854
-8.26954
-51.554
-46.2952
-15.2074
-3.8462
7.58785
9.33117
17.5118
-4.94059
-19.3795
-2.91115
15.1821
14.3377
8.99644
34.3858
63.6383
30.2144
-23.541
-39.9704
-45.7419
-2.91724
18.9475
4.88965
24.0369
9.97824
-22.9798
-22.2276
-41.3689
-46.1073
-23.4381
-12.3015
-1.2469
18.0853
20.3833
2.90806
-16.8175
-11.3167
9.95118
10.9575
3.26415
9.05134
23.4095
-9.00258
-23.0608
2.32934
51.5725
15.2589
-27.6719
12.0021
33.889
3.10486
2.82443
-0.0133285
-1.12328
3.0613
-15.6459
3.11571
12.9529
-2.66434
5.74916
21.3948
-3.40693
-19.2972
-28.1188
-12.6966
14.7151
12.335
39.1108
22.0433
-20.0936
-20.6475
-31.7098
-32.5158
-7.42195
6.45328
-22.339
-29.3695
-13.0396
9.79079
10.1673
8.58521
9.03012
21.3608
57.7996
14.4796
-33.6276
-3.2777
1.50522
-15.9518
-15.9714
-1.79788
11.9724
18.7971
-18.7531
-24.5532
9.31468
6.99817
1.09704
-7.62678
4.43226
31.985
-8.85366
-10.958
-15.607
5.41056
22.565
22.0077
10.3245
26.1433
-0.543181
-13.0662
-25.901
-33.0451
-20.1819
-6.06814
12.1262
49.7447
31.4001
15.8473
-27.2199
-71.8099
-26.6991
4.50411
-0.839817
22.8952
31.6734
-26.6144
-30.1532
-24.4939
18.1722
26.3538
19.0337
8.2495
21.8956
54.8335
5.84476
-30.1994
-23.306
-12.5815
9.07268
10.426
-4.37469
-4.4973
-39.6999
-37.7665
-31.3067
8.23975
15.8738
-0.754023
17.3434
45.0599
37.9006
13.3741
-9.0484
-43.2824
-19.2179
-9.93136
-2.81628
-4.08202
3.08234
11.3232
-1.52771
5.06733
20.9004
13.1581
15.4001
37.0632
52.8089
35.3811
-0.135451
-31.6652
-37.9756
-30.945
-35.6852
-45.2585
-41.5808
-14.2757
14.9306
1.84592
-1.0089
-3.35739
19.3213
21.1909
16.2803
-14.1671
8.98574
-8.77967
-28.9061
-14.7933
0.161052
10.6892
19.1897
30.5739
51.0823
14.744
29.2154
15.1137
-33.6101
-40.8658
-27.9131
1.14659
35.8005
-11.5576
-23.9367
0.177876
-10.07
-8.19156
-18.6868
-13.7395
29.8647
0.741106
-26.7971
-17.0193
-26.9075
-4.11159
3.18691
-4.33486
26.9984
33.9053
14.09
6.22069
-3.82783
17.1883
23.9728
14.9512
33.3849
44.963
-5.47382
-36.0716
-38.2196
-30.8032
-12.3565
-10.4836
-2.53336
39.1784
75.096
51.186
-13.9703
-14.2964
-19.5548
-48.0783
-49.9599
-17.2906
-14.1547
-2.20384
-25.9143
-55.3041
-18.385
3.43291
13.8617
37.2227
50.3303
59.483
41.2757
-3.32677
-38.1982
-36.3499
-5.80837
8.48877
18.3394
42.3972
36.4768
-8.95321
-5.98136
-24.8392
-34.031
-9.85092
17.1132
43.2326
4.72052
-41.0096
-45.9211
-39.3143
-27.583
-16.1991
-18.6502
1.87383
15.2202
-17.1025
-12.2904
5.68962
18.2715
46.7835
47.0443
19.9689
0.74307
21.4137
2.68881
-25.6019
-30.5164
-8.69123
12.5036
13.0831
34.0767
49.0921
-10.6095
-28.0851
-30.0119
-11.4443
0.909226
-1.45719
11.8344
38.6823
-9.07968
-39.7801
-18.5101
-7.08667
-12.6651
-22.5551
-2.64904
37.5178
5.1172
9.67196
3.38822
-6.464
12.1877
2.02975
21.4667
69.793
30.0494
-29.3859
-43.3092
-56.7485
-32.6647
5.34968
8.5817
13.6929
51.4459
34.6601
-13.6053
-16.8654
9.32171
6.82134
1.59976
-13.3229
-20.6375
-1.89431
-6.99418
-37.4034
-14.7142
1.20273
-7.98664
-12.015
5.71354
16.3716
22.3402
-29.2216
-29.8825
2.01909
25.0271
15.1803
1.11619
-0.170982
-1.83251
-25.6379
-11.8498
-6.41776
-0.270846
2.74643
2.69817
10.429
3.22462
-29.764
-17.959
8.44223
11.8804
37.3181
27.3936
40.8799
53.2687
22.0752
16.6665
-22.013
-37.8283
-21.6473
0.26811
36.0057
14.7019
-23.804
-19.7617
-2.21555
4.42343
17.1795
7.72043
-6.24775
1.33044
32.494
-2.10105
-33.4533
-54.7342
-47.1531
-38.4158
-29.1326
-5.1106
28.9212
-0.455924
-26.8812
-7.77346
19.3455
32.8452
35.3871
47.3488
64.437
16.3885
-28.9092
-44.0182
-50.7981
-21.8194
-4.13746
-4.83013
8.47007
29.3845
20.3643
9.78058
-6.96536
4.3083
-9.76672
-11.1864
5.79384
1.26275
-27.9126
-24.0726
-12.9598
14.6732
33.5166
23.8505
21.7464
38.4979
35.3906
22.1859
-17.5488
-38.8926
-56.9824
-45.209
-31.8836
-22.1639
11.6895
25.9573
1.63249
0.510812
12.4898
2.98502
-3.07723
7.46302
41.4053
16.6404
-22.9223
-13.3353
-7.42357
3.8994
21.3509
29.3653
62.9733
61.1526
1.83021
-15.4186
-43.5204
-44.1558
-10.6696
1.82457
20.6992
-13.9032
-48.3944
-32.9387
-29.0236
-12.4007
6.84803
-6.86602
-12.1962
-35.9504
-18.7109
16.7825
13.1495
-9.81042
17.983
40.181
34.1185
-5.3055
-4.80209
-7.06072
-11.743
5.23629
24.943
28.7181
29.5845
42.897
-4.45379
-32.0659
-24.1553
10.3402
19.4413
0.267862
-5.53692
-13.4825
-1.05136
20.057
-24.7642
-14.1707
-20.2998
-16.6148
-22.8094
-10.5051
19.1554
60.7977
6.91432
-44.3775
-13.6292
10.3338
16.7586
9.33441
-10.1803
5.18848
-9.46332
-25.9559
-16.2928
-15.7849
20.3711
32.9485
19.8042
26.1144
14.5583
0.674108
-10.6503
-52.9441
-37.6754
-1.05339
23.8295
37.5115
33.5902
33.4103
-15.1657
-39.7536
-22.8528
-9.42347
-6.42768
-11.3272
-5.56563
17.5936
-8.01612
-23.5877
4.62768
16.9414
6.34708
6.43439
25.0077
45.5253
1.18106
-21.5547
-24.2352
-17.2949
8.79715
-5.50024
4.8528
21.9362
1.42458
-28.1529
-24.1331
-19.0168
-6.7956
-6.85784
11.9207
33.8208
-2.59751
-2.05598
11.6593
17.6812
26.2112
-3.52519
-19.3041
-7.51273
-4.17609
-3.38793
-0.242695
-4.70384
12.2018
11.9626
1.0326
16.2931
36.4369
4.36108
-32.783
-52.7649
-34.3469
-20.6247
-13.1557
-6.09983
27.2514
66.0086
29.49
-57.5183
-52.1979
-13.0446
7.94395
13.8585
1.13601
-12.5418
11.6968
14.7116
3.32878
22.2603
28.1939
15.9065
13.3558
4.27548
21.563
23.279
-13.4526
-31.7647
-21.7382
10.752
16.0434
12.5262
17.1009
4.55433
-22.7626
-5.00521
-26.9127
-49.9827
-18.927
15.3421
27.4257
28.6421
-8.70922
-21.1713
-36.5115
-41.8823
-22.7696
-20.1577
14.7785
52.6401
41.5222
22.6696
-21.5252
-21.6667
-2.07036
15.5893
32.3611
30.0822
23.982
13.0508
-23.3972
-28.6718
0.400112
-4.20461
-26.0234
-25.8891
23.3346
27.6703
-26.1258
-25.2399
-4.11543
-8.34463
-2.16732
-6.5461
27.284
42.5838
30.3573
-20.0812
-23.2549
-33.7492
-25.3221
-11.9473
15.4269
38.0498
63.9377
7.41158
-21.3287
-19.8091
9.24154
-1.6208
2.42735
20.9968
33.1615
2.43704
-55.7777
-49.8489
-30.5774
-2.5728
4.21422
20.0964
27.0049
31.3618
16.337
-3.45439
-47.195
-34.3759
-29.3107
-22.9357
-7.70277
9.31309
33.7577
31.9894
-24.8797
-5.24662
21.7141
5.18484
2.35153
21.0575
37.2512
19.4296
-37.2139
-39.1109
-17.1717
-6.70542
10.2319
26.2685
40.4916
13.9249
-15.3875
-4.57365
-6.87502
-8.73772
20.065
20.7677
41.6904
-9.68135
-25.9247
-19.2162
-25.2735
-18.859
29.0477
40.8991
46.3919
-9.43677
-57.6548
-38.578
-27.0339
-15.3141
-0.0121514
-10.2116
-14.6069
4.86856
32.4571
6.33161
-25.3721
9.17176
0.708068
-5.64362
-9.30088
-6.74833
15.3663
9.02237
-11.0137
-14.2936
-1.16178
4.97726
-2.90166
6.56613
23.7046
26.7493
29.8097
5.5189
-18.3533
3.7744
9.38916
9.28054
2.0146
9.99222
43.0037
17.5672
-32.3099
-57.5467
-48.0207
4.0104
26.3362
19.0945
37.3372
20.4602
-10.7793
-21.8175
-34.0759
-39.59
-20.3653
-6.11519
34.1757
1.66962
-3.8047
-2.32312
-25.6513
-9.11759
12.6038
15.1078
7.82098
22.9873
36.4484
-8.69168
-27.9105
-12.1173
6.49368
7.7939
0.685116
-5.86847
-17.3022
-48.2441
-59.5925
-10.1202
27.9038
36.1602
34.453
52.9097
58.7214
-10.0237
-30.146
-22.1086
-15.2467
9.28939
6.42628
16.4581
44.8984
-5.54624
-27.7763
-20.6405
-2.42053
23.6564
13.1106
17.0647
31.8668
-8.56637
-40.7672
-36.6051
-35.977
-9.7181
9.98415
10.1195
15.9022
39.6212
-7.35604
-62.4805
-61.095
-27.3693
-11.5174
-7.59391
0.518118
18.3239
60.144
69.1612
-0.260071
-5.69953
-2.42642
-16.3882
-9.79072
18.324
22.1168
23.9801
10.356
-30.774
-31.0705
12.3993
10.3344
22.8718
3.33074
-7.81849
11.8411
-25.2476
-45.3523
-41.8972
-4.66301
14.4171
9.51189
7.67336
17.7492
4.80214
-3.90545
-19.7964
-5.00523
8.94283
23.0306
39.4102
45.3439
-6.22058
-10.3607
-2.2027
-7.6079
12.5986
-3.78919
-19.0254
5.9429
-15.7944
-44.2919
-28.6166
-18.5549
-3.71418
2.82491
9.96599
-0.939928
20.1217
10.4033
-11.9042
-13.3094
14.9326
34.9133
39.6956
37.8044
55.726
8.48075
-49.1037
-60.6257
-36.2215
5.11317
17.5071
3.97987
16.4331
-4.54319
-25.2175
-18.082
-11.5156
7.40267
9.619
2.12654
18.8121
11.1994
-21.1926
-37.6752
-34.8679
-10.9322
10.9854
4.82176
15.4388
46.2457
19.63
-34.7081
-30.3282
-4.82463
18.4993
19.1808
2.15754
2.16454
17.5767
-11.7289
-27.2288
-23.3417
-1.68148
8.45329
-0.367546
0.00771239
5.70202
28.4341
15.9797
-6.98354
-8.48846
22.4198
22.9929
9.67063
3.35371
17.5549
-21.7502
-23.0384
-23.2424
-11.1009
11.0326
24.4564
50.6058
41.5086
-13.7144
-19.3891
-11.2048
-26.9144
-20.6373
-14.6708
6.31173
10.5928
-12.9428
-22.4079
-27.4424
-25.7128
-3.03883
-2.89062
19.0303
31.8979
-9.64308
-8.78644
-16.3849
-20.8056
7.57085
23.3225
45.8332
54.7347
3.77897
-30.808
-39.8319
-26.8639
-13.7156
-4.40505
-3.06309
3.56263
39.4056
45.6165
23.9938
26.6143
31.0798
-4.61811
-24.8307
-20.2533
7.1766
18.5925
14.3314
-52.4983
-42.1276
-27.2204
-32.8742
-18.1233
-1.15938
19.5063
37.1124
1.50269
-19.9502
-18.2018
-28.6888
-25.1652
-2.48427
16.9086
44.2294
14.4004
-1.07109
-9.22486
-16.774
5.29666
33.4448
51.37
65.017
38.4869
6.91992
-16.3375
-40.6897
-21.5281
-12.0255
-8.68396
22.1989
31.6944
-19.6602
-50.2259
-58.1126
-29.5382
-6.80867
-7.27961
-24.6979
-1.45048
35.2205
17.0643
-7.16153
4.55653
20.69
22.2789
24.527
19.53
26.1746
-0.0745303
-35.9773
-48.827
-8.39813
11.1602
4.08522
23.7707
19.8484
-26.6337
-32.1871
-17.2092
-3.21856
11.7346
28.7627
50.7702
33.4779
-20.5997
-17.262
-8.43728
-25.8426
-20.2328
-7.6458
12.1268
12.4952
-19.7512
-23.3438
-13.9439
5.29062
29.8461
27.612
27.0576
48.6451
13.82
-44.263
-43.6418
-28.1173
11.2627
29.6683
35.145
28.9103
42.7373
14.7713
-50.8657
-41.6043
-0.738419
-8.37558
-30.6498
-25.1263
5.27218
17.6109
34.1209
-5.87805
-37.6916
-27.4778
-35.4053
-30.934
-12.4876
-4.51782
14.8397
5.40671
-20.1238
22.1841
34.2311
24.3271
29.6535
29.0562
19.4238
-3.12418
-38.5378
-18.7594
-21.2639
-30.0833
3.43435
20.598
45.2415
54.1849
25.5501
6.93452
-18.6137
-15.2208
2.41584
-4.27617
16.5078
24.7125
-27.6345
-27.8502
-30.6907
-29.9705
-1.38839
-2.56394
-16.0966
11.2951
13.528
21.6198
7.63044
-3.10123
6.98634
-9.75463
-21.1875
-4.52317
-4.43705
-18.6053
-6.91827
13.1639
46.4521
35.4572
23.9357
27.2521
-11.4429
-17.6779
-17.3191
-32.077
-10.8503
-7.7434
-19.2899
1.91172
-11.1127
-24.7775
-10.0342
-13.1027
-15.4438
-16.9707
-10.3092
-0.0898496
38.8566
72.1729
44.4054
13.2852
33.1918
13.6956
-11.3672
-18.9165
-5.2416
17.6156
-11.3547
-66.4059
-49.9395
-31.3661
-17.9861
12.5044
31.1906
30.8345
33.9237
14.3679
-18.3205
-27.3327
-1.00896
10.4755
11.2846
21.1741
42.8342
-6.92844
-11.2922
-8.75305
-8.25786
10.4767
22.1052
41.1052
33.2252
-20.1367
-23.6031
-32.6794
-41.4395
-27.9152
-16.5218
-13.6642
-5.12536
-4.71105
18.8854
13.8487
-15.7422
-26.202
-32.8114
-14.909
38.7521
18.7128
16.05
-4.34763
-27.0273
10.8556
35.1971
55.2461
60.9224
55.321
-8.54216
-46.7665
-50.4984
-48.6168
-37.8428
-21.5157
-14.5636
26.662
45.4731
-5.21948
-24.6536
5.10046
16.731
21.1483
17.0517
26.9832
28.2437
-19.8618
-44.6141
-41.2984
-7.74824
5.52551
6.06252
9.47611
22.6801
23.4267
-3.95295
-16.4795
-16.5687
-7.42557
-13.0517
-3.55663
10.5497
26.7555
12.1073
-10.8321
-21.433
-9.91573
-12.8732
-5.57236
29.3754
43.5632
7.58343
-6.55093
-24.7945
-21.5777
9.76631
15.3353
17.1328
45.5219
18.4129
-15.5649
-27.4083
-31.7471
-30.5857
-37.0206
-37.1821
-4.26158
9.50673
-29.5392
-18.5477
-10.6168
12.0832
22.7668
28.7501
47.3774
50.0513
16.2514
5.06258
-14.8915
-4.21359
17.2305
10.8742
28.7348
18.8835
4.06178
-1.79592
-4.62638
0.423002
9.51081
-12.0767
-12.7046
-15.6219
-7.57196
-6.59734
-32.4211
-39.9462
-12.4729
-4.14496
3.18637
-20.0032
-25.9559
-14.9176
-31.4514
-2.95847
16.2623
17.4226
37.4151
46.3866
13.6457
-4.90172
-6.24805
9.71187
2.65168
-12.7737
-9.01322
-0.79244
18.0561
11.6391
-25.966
-4.2079
9.2259
3.14894
1.59133
12.1135
11.1481
23.7175
20.6275
-28.7857
-7.77273
8.24373
0.247752
1.23028
-1.69638
5.18996
18.9176
-15.2649
-45.622
-27.0857
-1.43314
2.0572
14.2323
25.5965
33.8541
-13.8125
-21.3388
-17.8264
-20.919
-13.3463
11.5784
26.8107
25.4358
15.3253
21.9258
-6.67371
-34.8396
-25.5827
-12.2018
-0.904493
14.0124
-20.3066
-13.2437
-15.6725
-12.6857
16.7031
30.6935
17.8148
15.4749
0.590927
-12.731
-11.0083
-17.2346
-18.4087
-18.4146
16.8156
54.3959
11.5812
0.286575
-3.18443
-10.9955
9.89499
20.7389
24.8399
14.171
-3.35872
-21.909
-29.21
-24.2627
-0.679076
7.70622
15.9829
28.4157
0.14108
-36.3308
-43.026
-47.8839
3.06384
28.3782
7.9015
1.45561
30.0689
16.3313
-28.1149
-38.5316
-8.96886
14.4408
19.1386
1.98799
-1.67351
36.5591
26.537
-18.4465
-4.54615
18.3365
18.6679
-2.72442
14.191
22.7549
13.57
6.04935
-23.6521
-31.0038
-8.92458
4.4616
4.61888
4.86721
26.2993
-5.87983
-23.5641
-35.221
-25.5448
2.81195
18.9289
17.5506
-8.60248
-51.9803
-31.8402
-3.05098
4.43265
-0.291471
17.3893
35.6977
28.5091
-15.8239
-10.9509
3.61577
-8.95004
4.54829
23.9043
42.4696
27.9554
-34.0338
-50.0109
-42.1078
-26.6125
1.36292
1.63246
-1.83754
31.651
52.3075
17.8199
-12.9845
-24.5921
-11.0556
-6.0158
-1.98814
-7.00981
8.45734
16.1389
-39.8905
-28.3408
16.3194
36.8569
38.1368
36.0126
50.2217
33.1571
12.3432
-37.5643
-66.7145
-33.1858
-25.0846
0.0499776
18.6152
17.6083
29.595
4.33003
-45.8231
-31.4857
-6.69108
-6.63131
4.77552
3.41188
14.8406
29.8718
-6.93133
-13.0197
-11.2215
-7.45071
6.44382
26.1555
44.1959
47.3572
26.1068
-29.909
-49.8493
-39.2544
4.34227
24.6541
7.54972
-12.2553
15.6065
16.9629
-57.5247
-60.6474
-14.7522
-5.08943
-6.213
6.04421
8.47221
4.17395
-22.2729
-22.3878
-3.90537
15.2784
14.0735
19.7211
20.491
7.23621
-21.8742
-27.6426
-18.85
22.9679
93.7867
101.981
75.2687
44.2743
-1.13763
-37.0712
-42.212
-47.5121
-30.255
-29.907
-17.7996
7.99892
-30.6309
-29.5092
-14.8202
-14.7541
10.7932
14.8898
-2.19167
-3.70107
1.21225
-47.0217
-48.0075
-29.2641
-0.701121
24.5279
31.9578
35.0467
52.7756
40.3787
5.94738
-14.9067
-8.96075
-7.50822
8.87775
16.9598
13.1463
30.0916
41.551
-19.4835
-34.2273
-21.8818
-10.9086
-7.19213
2.10504
7.14839
18.751
-33.1039
-37.1672
-17.0162
2.62235
12.5091
26.611
46.4864
45.6938
-20.6311
-24.2595
-15.9595
-25.4457
-19.0583
-29.2889
-12.1528
16.5177
-16.7928
-18.0984
-14.9673
-24.4144
14.1094
22.5042
24.8689
29.437
11.3081
14.2316
20.2675
-6.44579
0.635273
0.376581
-15.3689
2.12765
35.7249
26.194
-21.4767
-45.6698
-12.3576
0.103741
6.05638
9.70033
25.3657
16.8125
-31.1414
-35.1327
-15.0308
-1.24603
-8.83053
-8.02988
31.8501
32.9606
1.40104
-13.1983
-11.3936
2.1299
27.4783
32.7484
55.031
32.0524
-28.0945
-44.5533
-46.0854
-48.6671
-13.0465
-4.73086
-3.64072
30.969
14.4664
-14.7289
-14.4929
-8.42092
2.8689
-16.5396
-28.059
-15.3706
31.5742
57.3354
7.35504
-6.69082
0.87811
-2.11984
-1.3255
7.67737
26.414
51.8515
47.0427
-11.4898
-51.4509
-39.425
-29.1643
-11.526
6.73667
10.3344
20.9929
23.2549
-24.4862
-43.5492
-20.7392
-12.9283
7.38396
10.2233
18.3323
4.01378
-10.4674
-12.6063
-10.3413
-9.24696
16.4108
59.9574
77.8994
22.3274
-34.8246
-44.287
-44.7342
-26.5536
1.47074
-0.806622
17.7175
-0.983812
4.88884
7.95605
10.5394
10.9245
10.5477
13.673
15.5384
32.6098
39.6394
-3.28316
-35.9857
-61.2134
-44.3191
-23.7715
-4.34318
25.3971
34.6217
52.9752
9.68348
-56.5168
-54.1866
-41.0316
-39.0958
-20.7165
8.49959
29.2122
13.4088
16.6843
18.5003
36.2572
33.8548
3.23054
6.3239
34.0513
-1.40012
-18.7446
-21.9916
-33.4347
-5.27372
20.5874
43.9248
40.0618
9.80978
-10.1135
-21.056
-4.80865
0.754261
-24.8643
-25.3879
11.4046
2.04316
13.9114
16.163
-2.99244
-53.9678
-114.308
-105.914
-32.5713
-17.3431
6.6793
53.0998
65.5155
63.8926
65.6546
47.0469
12.4364
28.8356
19.9667
-20.0385
-25.8752
-7.58905
-4.54729
5.31509
11.693
44.6043
90.2317
83.4835
-21.3491
-44.458
-31.067
-53.6732
-70.7341
-52.3254
-22.5092
20.5155
-1.56907
-31.3246
-22.4307
-10.2089
-11.1284
-1.03167
6.01187
14.644
-8.93649
-9.10779
9.69482
6.44356
8.28834
22.3523
27.1827
34.3248
-5.0569
-8.41859
-18.5354
-34.8036
-25.2749
-17.7051
-10.0945
27.3899
38.9639
-11.7854
-19.8888
-22.5447
-6.47795
5.64758
11.138
26.5236
39.1966
53.0512
31.299
-26.1015
-11.1921
-0.422304
2.00205
-9.47197
1.60213
22.0609
16.26
-17.4241
-26.6209
2.47764
2.96255
-8.32892
-2.212
31.425
21.3974
-15.6431
-20.9023
-8.61534
6.45278
13.3569
30.5597
69.538
53.7866
-28.966
-53.0462
-57.4354
-58.6611
-45.8517
-39.6599
3.67771
41.2346
26.5353
-23.0554
-31.3433
-21.9518
-10.9741
-10.9331
-13.1409
-5.11578
27.2691
3.48131
-20.2559
-12.0293
14.6789
4.6269
-1.47572
25.7172
40.5684
74.5349
34.4329
-11.9257
-18.6317
-11.4365
-27.1823
-10.4667
8.12604
25.0999
25.8427
-16.3104
-25.4728
-11.0715
-23.4146
-27.2718
-0.499515
32.7672
28.8435
9.16904
10.3803
-13.0163
-2.24544
2.04842
15.6129
40.0637
28.2429
5.80697
-7.6872
-16.816
-28.087
-3.98085
6.23802
14.6329
-22.1273
-18.7479
-16.4825
-23.1478
-7.41179
12.5053
2.83159
7.50081
-8.83608
-34.7857
-21.1309
2.71532
28.575
27.811
-0.63663
-6.53265
28.3063
7.84854
-35.1414
-29.737
-12.6033
-6.57191
11.3549
18.0505
28.9604
7.48847
-6.49168
-16.9887
-0.69125
12.8422
15.4199
17.7582
28.6075
5.82458
-31.4532
-37.4321
-44.7436
-22.7212
-2.74595
8.13958
28.5823
54.7061
69.4589
15.548
-31.05
-20.6581
-8.76062
-15.3427
-11.6757
6.00316
10.6068
-6.1314
-49.8512
-25.1225
15.2645
16.0807
0.178883
-6.24758
9.60904
26.1686
26.427
-26.8397
-50.9473
-17.7841
5.87788
12.7228
7.05008
-0.912527
3.19591
8.55128
-14.2065
-10.844
11.4474
17.9372
32.1411
30.7424
30.2085
47.956
1.23142
-40.6455
-28.2241
-5.5572
-4.42927
3.50379
17.0289
7.12366
-38.2551
-43.7121
-26.8032
-27.6786
-20.5057
-13.9351
17.2759
45.6804
17.8533
4.82324
-29.3757
-26.2752
17.2109
16.9928
22.6727
40.7259
12.4999
-17.9301
-17.5714
-18.6315
0.802466
4.90554
7.48665
4.75569
39.4197
31.9779
-22.0815
-32.6075
-3.45239
7.03193
8.42593
-0.489843
-2.66727
12.0146
7.48505
-48.8036
-53.1801
-12.4866
-3.80941
11.6289
26.4475
19.3228
8.50644
32.5706
12.7739
-28.5599
-18.5607
-17.3074
-6.306
-18.8221
-15.8303
-0.0931492
29.6956
3.90868
-21.3387
-1.98714
10.7922
12.6212
12.6837
22.093
47.5629
27.8539
1.90771
-27.4159
-38.1706
-7.03217
4.37043
-14.4502
7.48387
33.0579
3.66055
-24.6149
-31.3972
-14.2125
-10.5972
5.89039
30.6856
50.2159
47.4369
-6.35114
-57.228
-38.0483
-13.1391
-10.3706
-3.65759
10.1928
35.9998
16.4246
-9.42163
-10.8167
7.48914
-15.3662
-32.2327
1.91703
31.1326
-19.295
-27.174
-22.3092
-11.5052
12.4927
24.9219
58.8765
70.2554
-9.78867
-30.5264
-15.1553
-23.9553
-30.9741
-31.2128
-15.2262
20.4926
5.74713
11.3618
10.5204
5.36579
30.2715
22.7685
1.31007
0.448314
28.0064
-18.9187
-51.1311
-57.2295
-18.9654
-6.44495
13.5369
17.5708
51.4236
60.9584
0.151
-44.9011
-15.0607
-8.94755
-14.8625
-24.1953
-9.69409
5.99405
24.726
4.14006
-32.3443
3.98065
8.14219
5.28692
28.1225
29.6854
15.9364
17.2084
-18.2676
-23.6001
3.07983
12.6276
17.395
14.4366
22.6939
31.1347
-8.47864
-13.105
-16.9531
-17.5125
-8.41284
-0.782188
-4.443
5.81946
-18.6375
-18.0313
-24.3235
-37.8881
-25.744
-21.5004
-2.98654
26.3719
35.6181
-7.72114
-13.8689
-16.7536
13.0832
17.0482
-6.35534
-13.765
5.59964
39.1054
26.5699
-3.78198
0.0329488
10.8519
22.2934
7.93653
-3.18228
20.3855
-4.0044
-17.973
-12.5753
-10.866
-28.7793
-20.849
2.33278
24.4017
4.97543
-9.05202
-11.1693
-8.38305
-5.68555
-3.9634
30.5121
50.9139
30.854
-20.0419
-28.536
-34.1614
-19.2929
-11.1387
-7.04116
20.2924
50.6077
34.0631
-5.57779
-21.3396
-8.62972
1.06487
-4.94197
-8.7524
1.44262
21.9238
-7.72697
-23.1271
-31.9609
-3.77273
21.2057
7.21436
21.9685
53.9176
10.7715
-16.9304
-31.6837
-34.2076
-18.3757
-14.0273
-11.7621
7.03874
-6.81086
-6.34888
4.50822
-6.1515
3.08032
-2.7639
-4.3412
31.3658
20.8597
2.95222
-4.88538
-23.4189
-6.88546
18.1547
26.7446
54.6355
45.0002
-2.46966
-8.50426
-21.6476
-8.37515
-8.52978
-13.5058
-1.71936
-12.18
-25.2907
-20.3759
-12.5867
-3.26953
-5.72672
6.22784
3.32065
26.593
16.6455
-23.8993
-41.2438
-21.2886
11.0142
13.5324
13.939
21.8035
35.6025
26.0729
-36.9591
-21.9775
-7.24
2.38627
-6.69627
-7.18809
22.624
30.5598
-21.698
-33.8305
-8.40088
11.9518
7.9755
14.121
14.2725
21.7343
22.795
2.18447
-3.84868
-6.32236
3.54231
-7.62433
-2.67628
5.33347
5.00591
-24.5872
-22.6519
-22.5273
-5.48276
0.579467
0.583004
24.2995
30.275
-17.8114
-18.7377
-11.7268
-10.3865
5.95439
5.09526
-9.63819
12.2952
26.1459
-15.4336
-24.2377
-15.3519
17.9451
17.1087
-6.52402
1.10944
36.4133
2.73616
-20.9022
-22.3202
13.3594
21.5901
11.6606
-2.49175
6.74088
-14.8129
-8.06272
-7.32366
-12.2114
0.779166
-2.08388
9.17998
32.3202
-19.972
-25.1713
-13.9888
-21.0436
2.83274
13.9658
25.6094
21.9697
-26.0591
-34.2762
-27.4062
-28.6143
-2.19197
23.082
39.3349
43.3813
6.89555
4.4498
3.57496
-5.19983
9.92669
14.6268
20.1183
17.4431
28.9065
-9.9794
-35.0075
-21.2369
-1.13839
-8.31019
-7.0233
-3.4113
6.42686
15.6346
4.10299
-36.8815
-13.808
0.775404
-2.65138
-7.22041
-2.40569
-1.41534
29.6214
-1.51728
-24.7357
-8.36592
-4.13861
6.47128
14.9045
13.0792
24.015
13.1677
-21.4123
-27.0096
-20.9037
-1.50665
12.4754
12.8978
18.8519
22.2375
-3.42782
-5.18449
-23.5314
-21.3882
-9.64787
0.478256
18.684
13.2224
-11.8364
-5.82474
-8.01964
-6.49005
-0.881534
-10.0261
-10.3576
27.1296
39.0664
-11.1408
-21.924
-22.7283
3.76192
5.11742
-3.83671
3.81592
38.3453
29.519
-19.2807
-19.6406
1.00155
0.851896
-5.79085
4.93081
24.0435
-11.422
-17.2371
-18.307
-11.095
11.0718
7.44414
12.1237
19.4971
-1.33865
1.17288
3.54649
-9.04757
-5.44485
3.85496
13.8714
26.0508
29.6823
-13.6876
-31.6714
-33.8362
-12.0185
-8.98128
-9.58538
-5.95769
19.0872
-0.460915
-8.45696
-4.09353
5.82136
-0.81219
-1.69892
-5.19984
1.2669
31.9175
23.4318
-17.2896
-24.5255
0.169559
7.02766
1.52899
6.10048
9.69725
21.3122
24.2867
-13.1707
-5.72763
-4.74692
-8.92951
-5.62157
0.0458161
29.7539
23.5366
-35.8043
-47.3326
-43.0584
-13.4821
-3.88357
4.93485
20.8358
21.5409
-0.30245
5.8684
-0.738581
-9.69526
4.11624
12.6132
25.922
12.8255
1.64112
-7.58188
-26.2811
-22.9564
14.6035
29.2191
41.2681
6.4294
3.70429
6.95957
-5.69255
-6.91306
9.35824
-0.599629
-11.1097
-2.5089
-7.86675
-21.3369
-30.2334
-14.076
-0.108059
0.908785
-6.76559
-4.9908
26.6709
-6.40961
-30.6614
-1.54243
0.905711
2.59164
-2.86419
4.45288
24.6878
3.90783
-33.9018
-29.7608
-12.3635
-1.78189
1.21529
6.36794
15.0844
32.0781
12.4854
-7.44113
-5.83389
10.0864
14.0733
22.8273
23.4173
43.6342
5.08079
-15.557
-15.5246
-3.27196
14.7019
5.81419
22.7649
46.6217
13.5373
-26.9981
-32.2591
-41.2638
-33.9618
-24.1902
-23.8266
-22.2158
-0.104293
23.6581
-26.605
-39.4898
-16.5218
-6.85727
-8.17183
3.82854
23.1604
42.7619
10.4149
-21.8618
-5.30658
20.7689
26.1098
25.291
32.4769
47.5337
28.1109
-7.59567
-20.861
-22.3048
9.64631
1.29868
4.13356
17.4136
2.3345
-19.3233
-18.592
-32.2746
-26.7123
-17.4677
-2.14179
26.0671
-1.1696
-20.3397
-18.8873
-10.98
1.64502
17.4315
22.7697
45.1082
19.8427
-39.7811
-29.2538
-32.031
-21.1874
-3.39857
-0.820237
-2.77319
30.7938
23.643
-6.2516
-16.6811
-5.17169
3.14708
8.00215
5.31064
8.3558
31.2966
20.8995
-47.92
-27.6538
9.26389
10.8129
6.60736
7.78133
23.0214
31.7869
-12.7236
-30.2164
-12.0499
6.77504
-0.497961
-1.00648
11.1966
8.15355
-40.8099
-28.7621
-12.499
-9.81742
7.45046
21.9039
60.3591
53.9456
11.9091
6.63334
-1.67286
-15.5789
-2.05423
-4.60459
22.2845
26.8506
-16.6523
-14.2539
-18.114
-13.5612
15.9484
9.42839
-11.0034
-14.8861
8.06643
8.14074
-45.489
-51.1688
-29.8763
-28.4448
-18.8474
-5.03793
23.8505
33.873
-7.88475
-18.5297
1.38377
5.32713
-3.23567
-4.81307
15.5897
23.9597
4.86967
-7.62599
-7.4923
-2.11793
17.8912
25.0532
52.4057
80.4272
17.4827
-4.31317
-18.5861
-35.0233
-29.5987
-20.3724
-4.16757
8.32224
8.47934
-9.4704
-8.90854
-9.06421
-0.656464
7.19517
3.4936
17.5795
52.2258
-8.19362
-52.9861
-67.8226
-35.9384
-27.7017
-15.0628
-0.114909
22.8297
57.671
18.639
4.58001
8.01149
16.2795
1.812
-5.67864
3.41299
22.1121
-6.39807
-26.1405
-25.5327
1.85042
7.77936
-5.0834
13.6573
30.9236
6.68596
-52.6841
-61.0663
-51.5753
-6.63816
6.96208
22.5358
52.2059
13.1333
-4.81371
-1.75722
-11.7733
2.11896
-1.55052
-5.99469
40.0285
30.7755
34.0524
38.6687
39.4755
54.4667
77.4267
61.0496
14.7812
-2.25549
-48.7133
-58.5708
-61.0848
-36.9822
-35.6737
-39.6353
-40.075
-17.4663
12.6296
-22.8736
-50.6667
-22.1895
-5.18401
3.99674
-25.2442
-39.5955
-6.00879
6.08986
-4.18171
1.63258
21.9559
18.7458
4.90978
13.4863
33.9631
29.8486
2.9099
-23.6143
-16.9228
6.76409
15.7967
25.0441
21.4585
17.5841
38.9424
9.3425
-0.157646
-6.28759
-1.58189
14.9379
17.7373
9.42359
3.91983
-17.3862
-16.7477
3.45959
12.5049
17.4864
7.83405
13.4111
31.8582
19.8223
-13.6359
-22.5058
-40.4689
-33.7217
-38.4819
-34.8222
-36.129
-24.854
21.2331
26.2234
2.52589
8.55106
-4.4327
-13.6992
-2.64296
8.22295
19.0364
10.2148
-11.1975
-8.53007
1.1
-8.90648
-0.255427
30.8912
40.5175
8.75202
-33.9585
-51.6067
-48.5727
-36.4237
-15.3513
-4.15344
28.4457
47.7824
28.1836
22.0803
12.1481
17.3571
6.07681
-14.6887
2.10929
-15.0904
-20.2335
-11.9339
-20.3693
-3.29014
43.6425
59.8279
54.0411
58.8248
30.6351
27.6373
1.2781
-36.6467
-26.647
-8.93448
-22.3271
-23.6644
5.2482
7.45936
-46.7372
-45.7909
-47.8485
-39.9767
-15.8662
7.07418
22.8588
16.4002
1.1427
-23.0736
-18.8632
-30.8882
-29.7994
-7.48871
7.28731
-0.171047
13.2307
-1.95311
-17.1316
-2.53318
27.8344
50.3351
51.9776
56.4019
57.8831
21.7447
12.4202
-6.3539
-15.5403
0.265629
14.5158
26.6468
26.5122
-12.277
-15.5847
-26.8526
-41.7528
-24.3967
-37.1076
-27.9547
22.3129
17.4168
-21.6022
-31.7385
-28.2715
-1.03388
10.1424
25.3624
28.245
23.3174
-8.73024
-37.1567
-46.3774
-23.8754
-3.47743
7.77919
-13.0639
2.5182
11.2143
27.8011
36.989
53.4535
68.3867
34.2506
-6.24737
35.6049
16.6304
-42.6924
-67.7443
-75.2544
-42.2874
-6.15552
11.9029
41.9945
-9.46055
-20.4708
15.8941
20.1618
18.1219
2.05533
-5.23429
6.854
-21.228
-78.1888
-70.9539
-37.9403
12.9867
35.8835
36.0208
34.6533
66.4128
71.9942
-33.0071
-71.7026
-28.9408
-2.94319
21.7312
33.2095
34.1088
75.7682
52.3202
-16.7436
-53.8012
-83.144
-108.912
-70.9935
21.4455
89.5588
81.0059
54.777
-54.628
-105.939
-44.2452
30.441
64.8006
33.7592
-83.9584
-32.4831
129.505
99.1812
8.03172
-24.093
15.4522
59.2139
61.6371
90.4256
58.1354
12.6434
-38.2919
-102.613
-127.896
-84.7171
-54.4153
-109.282
-152.812
-98.1955
65.7601
149.749
83.5045
48.9489
-25.511
-48.1346
5.60316
39.8587
9.731
-86.6741
-122.381
-106.118
-52.7678
11.9674
121.964
168.677
124.208
55.2079
70.1198
92.8403
78.498
-28.0984
-100.312
-88.0456
-17.2255
24.5251
37.4965
66.0118
73.8593
-10.8158
-17.1554
-13.4086
-23.6465
-54.7527
-67.279
-51.5138
36.2743
97.5094
70.9824
28.5782
5.59806
-66.0889
-152.255
-158.255
-123.138
-98.5551
-70.2022
-15.9149
59.0526
70.9431
1.34194
-20.0112
-45.8916
-23.6009
24.8718
57.5407
87.9728
63.8612
36.4197
-64.2853
-112.862
-46.6534
27.9211
35.6295
70.0916
83.0997
78.862
53.1045
18.392
50.8213
83.8886
71.3358
62.8334
67.546
77.5888
31.7553
-57.0405
-60.0716
-27.6025
29.6908
25.9489
-2.34331
-12.804
-32.9408
-63.1447
-66.0504
-72.3142
-38.4
-40.9339
-100.001
-42.9011
77.5906
70.3714
-9.83835
-38.9244
-58.0238
-50.9112
-29.6911
-9.17662
0.663964
-31.4918
-73.7731
-94.1451
-62.6617
-18.3713
18.9332
32.1464
10.4857
51.9686
72.24
-7.35916
-79.6206
-88.5235
-27.6025
55.2251
54.193
66.5813
97.414
117.557
67.2731
34.0191
18.0531
41.4022
47.4773
61.6345
53.5762
60.0518
53.1
-19.2923
-49.1235
-72.2051
-101.163
-25.4386
41.8157
1.5986
-30.2357
-60.0563
-68.3011
-103.591
-49.3663
0.24345
6.96286
-14.4777
-10.6883
-55.4519
-34.4857
-18.8205
-22.0546
22.2551
85.6017
93.4013
75.304
60.9504
42.1662
-24.4353
10.447
23.2396
-22.9682
-15.6238
46.5664
88.6507
38.7811
1.394
-22.2184
-2.50806
-26.3421
-92.2753
-86.7626
-36.6692
-47.9403
-23.0782
22.8274
61.6996
38.238
2.98213
-22.4543
10.9869
-1.04842
-32.022
-51.376
-42.5876
-7.09765
2.39277
-6.82046
-20.451
-44.0858
-23.4774
17.4117
62.6422
89.5131
47.1018
-10.5513
-32.1728
-3.68642
3.35598
1.37793
3.31842
21.6031
7.00909
4.85207
-10.9616
-47.0096
35.8953
72.4923
94.0889
74.9272
-14.1298
-37.1988
-48.9792
-61.1889
-123.894
-116.51
-84.7827
-29.0842
37.7905
46.5098
13.278
4.02849
46.5112
21.7384
-19.3804
4.92826
6.03869
2.30186
-5.96521
11.1806
67.8333
82.2562
31.121
-30.4569
58.5754
72.0015
8.31157
-5.71366
-0.511592
-17.194
-53.8549
-34.2046
-5.00876
13.1887
28.4724
44.6373
37.0703
32.541
-36.9822
-42.376
-24.9065
-57.6817
-66.7545
-6.74618
-17.1262
13.7345
27.5394
-33.1373
-28.3114
19.2311
44.7108
42.0825
-1.50041
-32.8943
-15.6014
10.2541
-57.8528
-48.2682
8.76268
25.9936
21.1629
-21.0461
8.56929
84.0616
54.0484
23.7568
4.72741
-47.3317
-94.9074
-108.801
-63.3818
-35.4279
-4.96011
50.7202
50.0094
35.1682
41.8524
-23.5066
3.03057
68.6952
96.1472
36.8772
-62.011
-112.791
-50.6861
-27.0593
7.29339
55.6136
77.9624
32.0506
7.00837
1.46854
-11.1561
-21.8988
-15.8382
11.7706
66.5673
75.8545
33.9935
3.61573
-1.0117
27.9999
20.8942
-63.9771
-109.98
-96.1891
-32.1114
-19.9572
-39.6849
0.953018
35.1848
43.9749
22.7043
-19.0262
29.6192
3.7356
-31.795
-49.1858
-47.2441
-72.0787
-47.1828
30.9852
93.8578
83.9789
69.7486
47.2742
30.9528
46.4002
30.9809
18.4941
10.1204
-27.8289
-37.259
-1.61914
-18.2947
-12.3869
-22.8184
-22.9631
-4.71324
-29.2564
-42.1914
-60.949
-50.8845
-25.0841
25.3205
67.5406
75.8196
13.0328
-61.379
-82.8231
-24.5084
10.8386
-4.00318
-12.8524
7.51783
76.2565
40.0822
-15.7849
-14.1475
7.04781
-0.0873682
7.86081
10.6266
-4.97772
-4.82397
-19.4121
-41.053
14.3429
48.0942
65.7623
4.99093
-20.9508
35.2247
59.7828
-20.388
-77.7546
-38.984
-1.1816
22.9955
24.9693
41.2064
27.1993
-7.13075
19.8165
3.21088
-21.843
-34.4945
-30.5092
7.36014
-24.4588
-31.9243
-20.8109
-35.3816
-29.0805
58.7275
114.812
123.232
85.2435
-35.1032
-92.3513
-78.8593
-78.1415
-46.211
-26.9789
-4.94065
2.1375
29.0168
52.4732
-0.0626999
-24.7844
-12.0808
-42.8812
-50.527
-12.4238
17.9955
33.1451
40.233
-4.46096
8.23528
17.5084
32.7813
33.6956
32.8775
43.7217
111
17.1855
-111.272
-168.965
-96.2045
-1.59272
21.6815
13.8427
33.076
7.70629
-35.1419
-40.0392
-36.8934
8.54117
85.8201
99.6356
72.005
19.5794
34.56
1.7336
-56.019
6.70071
80.2445
86.2222
51.7105
-6.535
-109.661
-110.545
-84.1337
-72.4186
-32.2957
-14.6837
-8.92773
38.4724
54.8335
-6.41106
-47.6298
-26.782
-23.5979
-26.3934
-18.8085
13.4217
25.7487
9.25839
8.11705
20.5661
117.074
135.207
63.7962
-17.5986
-1.70387
-3.74804
-28.2956
-61.2427
-58.9201
-5.91088
5.68272
55.794
56.8622
-38.1622
-69.319
-131.354
-103.669
10.6367
30.1173
-20.6211
-46.0644
-17.4607
34.172
60.1891
55.7109
39.832
20.3791
15.1691
26.2118
41.4677
76.1671
39.3485
15.6111
3.4959
-36.1504
-24.5054
-16.8803
-28.6768
-56.5629
-21.1653
65.6788
43.5967
-8.40452
-10.9393
-30.1459
-63.1299
-38.2544
-25.0981
-22.8112
17.9994
-12.0876
-2.46879
-16.7421
-3.40023
63.456
95.9235
59.3918
-52.2961
-56.4162
-20.0632
-35.6244
-38.7628
-7.7899
24.4485
55.3214
19.2489
-14.3742
-21.2661
-16.2697
-27.9997
-18.0313
-9.55468
-2.46824
15.5708
20.1119
38.1184
42.4586
15.8817
1.28899
42.9052
69.9579
58.8493
-5.28358
-61.5514
-53.9443
-10.4679
6.8196
-22.2843
-32.1539
8.34436
-49.222
-101.931
-54.9936
-3.74305
-18.838
-19.7527
40.5254
90.9917
68.2372
-6.40162
-28.3416
95.7917
124.094
-15.4402
-142.736
-116.403
-37.4478
21.3167
28.5523
-11.3621
-0.805745
18.2914
19.7625
50.9285
69.3232
59.5412
-19.4753
-3.17814
40.4298
54.9958
-4.26979
-100.822
-59.4657
54.3791
66.7853
36.3676
-21.0244
-31.4702
-8.21561
6.5909
8.96789
-0.523221
26.6398
-4.64286
-76.1977
-84.6385
-65.4
-27.6243
12.9859
4.67771
14.904
10.6035
-75.7818
-62.9753
-11.283
3.64498
0.581515
-20.6721
3.10335
11.4007
1.57673
28.5875
1.61321
27.8455
81.2013
51.5593
28.5699
0.667256
-33.6045
8.70193
18.488
-5.5355
44.1834
84.8136
103.031
20.1991
-41.7013
-25.1435
11.6694
-9.12867
-28.6549
-5.9957
24.474
-40.8407
-54.5799
-28.6783
4.17823
1.94507
-12.9779
-73.6998
-81.3314
-38.5856
-18.5041
0.127746
6.90491
33.1332
41.8926
50.4212
18.71
3.70071
6.45018
-32.2381
-68.0312
-9.26988
23.1679
36.7118
37.3826
25.0848
14.532
17.9278
-26.0652
-34.9619
-9.84688
-8.46371
-14.7104
18.5758
77.5716
98.7079
6.76704
-60.0914
-49.2837
-33.611
-30.1272
1.16875
23.6942
3.67406
-18.9497
-4.99539
33.2834
32.01
4.20522
-23.2409
7.75599
-26.393
-37.8971
-34.1
-54.3228
-70.7974
43.4114
122.051
118.849
91.3853
-36.1659
-63.7479
-53.5898
-39.7759
-34.7047
-44.458
-42.6616
19.3397
59.457
86.0967
31.204
-37.2211
-43.1196
-9.12158
29.7724
46.3636
-24.3295
-59.5191
-43.056
-55.6969
-6.42774
20.6798
43.4647
77.1355
12.507
8.84425
13.2849
-45.0025
-41.4291
-25.0967
5.46846
84.365
62.467
15.9471
-5.83101
-57.0789
-35.3158
3.75646
30.6214
62.8918
82.28
53.5644
-58.9507
-74.5116
-20.7719
-12.3445
-19.0794
-6.82341
4.24465
-0.13848
-3.15727
-12.4459
-21.1841
-10.0998
-24.0035
-18.3935
-24.481
-31.2282
-5.06281
-14.8645
-39.6485
-28.369
25.2966
36.7556
53.446
36.2836
7.21119
-3.49556
-36.3251
-38.2123
-23.9008
-0.251833
30.6533
43.8625
73.5322
114.962
27.6213
-25.138
-62.8169
-72.9145
-36.504
-27.4318
17.794
50.6532
27.9233
19.9926
-3.87099
-7.44087
23.9774
7.10998
20.2682
24.6183
-13.3397
-21.5274
-32.1102
-42.5844
-20.9938
-23.3267
-23.2874
11.9941
33.3352
7.06517
-31.3296
-29.3923
-2.09044
-13.4309
-27.582
3.27855
45.8675
72.8408
15.3335
-41.0253
-16.8109
10.7045
10.0481
-6.93264
12.8841
40.3445
69.1826
36.1239
-11.106
-30.4856
-39.7055
-64.963
-40.8474
-11.9778
31.4017
74.1034
8.58804
-66.9658
-31.2651
47.9346
67.4428
21.735
-3.51664
7.63329
2.19423
-46.6686
-91.6324
-79.0042
-24.8961
13.6761
15.7577
40.6828
94.4533
54.7304
-5.19861
-59.2656
-37.8132
-10.389
-1.03173
-5.8991
11.9669
27.4349
-9.66046
-28.7124
-5.73037
12.0261
19.3931
47.7922
61.8814
73.1617
33.8493
-8.48008
-66.5051
-71.2939
-39.8313
-54.4898
-41.3674
6.08992
-12.3027
-26.7117
-23.4081
-1.73231
25.9959
12.6125
18.3723
52.7382
36.6647
31.8111
10.8058
-18.0926
-16.8268
-31.3348
-5.3894
69.5517
24.9005
-20.877
-38.2478
-41.0221
-15.614
5.05745
-23.6282
-30.0809
18.1389
-4.02565
-1.37441
-1.88248
11.9355
16.4247
19.2339
40.2139
64.3066
103.087
11.1979
-92.6659
-47.0868
-4.12593
15.5984
7.83403
4.19143
-0.634203
6.25547
-8.96983
-33.0299
-1.64905
20.5629
1.59971
-24.0417
-7.46461
12.5296
4.01754
-48.2915
-72.2036
-56.319
-3.82993
28.1833
37.0296
40.252
24.5446
-10.2921
-4.14784
15.0639
21.2425
1.04571
2.91022
24.2047
-16.5679
-37.1997
-20.7801
-27.878
-24.6249
33.7006
30.1021
0.798807
20.7213
-13.6796
-17.4699
-24.9521
-14.5911
52.8484
70.3757
35.8544
10.9847
11.1168
-45.6968
-38.569
24.8277
16.9837
-22.4567
-20.7102
-18.4367
24.9761
16.0968
-5.97224
-43.5573
-37.336
18.3609
33.1436
8.05628
6.08491
-15.5245
-27.5052
-28.0103
-9.17622
45.9125
8.67664
-7.75654
23.4048
-7.31084
-31.5179
-30.0073
-25.0734
-7.3195
30.1914
57.8705
59.6579
38.6978
19.0679
-13.3369
-70.9106
-95.3487
-66.0159
-24.1885
-7.42317
45.6048
54.6612
22.0672
12.6401
20.7958
28.5663
28.831
-4.72154
-21.0996
21.6616
35.602
9.56171
-13.0076
-22.8004
-13.5309
-2.69192
17.4688
26.0541
43.2564
1.03006
-65.9284
-51.6094
-48.9858
-52.2879
17.0082
61.5827
53.7386
-45.2543
-64.4633
-48.381
-14.2799
28.2016
31.7865
38.4175
51.2682
25.4163
-0.302671
-21.0576
-29.6935
-9.07901
22.4297
39.4194
36.3454
-14.4975
-61.199
-70.6946
-54.228
30.3696
70.7095
73.5778
67.0218
-11.2692
-16.4577
-77.027
-161.859
-68.4289
43.7371
60.639
33.043
31.2257
8.12693
-4.85513
16.721
35.3432
2.40029
14.7214
41.5767
44.2118
-63.6846
-59.1342
-42.3725
-1.04782
-16.1255
10.7128
72.6766
66.2008
31.1471
-7.95584
-8.92016
-17.0637
-16.3332
-32.5041
-20.3195
17.4523
61.5282
32.1966
-33.867
-74.288
-50.4475
-47.7679
-53.2184
26.5078
51.6425
27.8553
14.4237
-6.86806
-38.4973
-18.3574
-12.1666
0.818059
17.5532
27.4746
1.8613
0.753141
-6.78556
-13.9487
0.154365
25.1209
49.8594
47.1939
56.2504
-14.4533
-42.3072
27.3426
54.3949
-17.6789
-76.0226
-39.3553
58.5229
37.0199
-3.38335
-56.2862
-66.4126
-28.9432
-35.3555
-13.1316
31.7958
25.1258
39.8427
27.5683
-10.2831
-13.7251
-2.91119
7.75187
34.703
26.4214
41.4663
20.9111
-51.6584
-69.8462
-67.2761
-22.7557
38.1005
-9.36432
-17.2963
8.29574
-0.119164
4.48745
39.4991
49.7963
38.4962
-24.3378
-51.2252
-27.5901
-38.4947
-20.7627
-1.19103
13.537
6.92078
49.3419
52.806
10.1128
-6.01643
19.444
25.9148
-0.495978
-8.80724
2.0137
10.9503
10.5805
-68.7192
-50.576
-9.9249
-19.6061
-21.1933
-9.73372
8.9978
58.2826
19.0757
-1.62242
-16.0051
11.5899
44.0754
51.2731
37.4597
-11.0466
-73.8333
-58.3551
-28.8297
-16.0582
8.572
29.7024
51.0184
47.837
14.2566
23.5994
0.281149
-29.5048
-7.68201
-46.7221
-54.1038
-6.06273
-4.90738
-33.3542
-28.8134
-5.5865
28.7031
24.7487
-35.5793
-52.5622
8.21484
34.502
12.2941
-3.28179
27.4376
30.5584
10.8244
-18.8429
1.6213
45.2061
45.582
20.8756
-7.72664
-50.9376
-19.9446
6.42451
20.6534
-6.08923
-2.87247
6.23719
8.03176
-5.0187
-4.24045
25.3048
63.7386
16.146
34.8683
63.5296
22.0889
-27.0016
-33.1267
-46.855
-15.5623
-2.78496
-76.6621
-119.754
-79.0917
-32.7152
1.80706
11.6357
21.5365
55.2455
53.3198
-11.765
-44.4584
-45.7551
-50.0941
-49.9481
-26.6861
15.7759
79.7972
103.835
-0.550108
-13.1675
13.4543
33.475
45.9952
54.0305
41.0101
47.0879
40.5835
2.86324
-41.1149
-41.3357
-26.0124
29.8511
30.5222
13.6693
-14.7937
-11.6147
-29.1798
-51.9317
-11.0471
31.3004
61.8321
56.6782
-28.7799
-42.2109
-26.1891
-24.9128
-46.4626
-45.6125
26.7348
38.2078
-16.4037
-54.3306
-40.7882
-38.3835
-2.40675
-13.21
10.1529
37.6127
-10.0882
-50.8109
-29.1523
-6.18095
26.965
30.389
15.2831
0.996196
26.5784
63.8672
-9.763
-23.5228
3.67575
20.5207
1.52948
-9.0853
14.3995
46.7626
-28.3559
-63.1161
10.8958
68.5264
43.3313
36.8582
32.3163
47.7894
4.95295
-46.3804
-50.0535
-32.8541
-18.9552
-15.3611
5.72199
12.5581
10.1591
22.0418
-51.3813
-69.6513
-11.946
-27.1545
-30.1086
38.4121
60.144
30.1185
-5.76805
-18.7527
5.70232
20.8453
4.99103
15.9661
45.5833
64.9128
-31.3264
-131.296
-117.835
-36.8791
54.8714
41.5398
19.2068
17.485
23.7733
-36.1605
-56.8934
-29.2893
23.3503
25.5665
27.4003
34.4162
35.2265
-28.7826
-10.0351
3.16616
51.827
97.7455
94.8447
48.1567
-33.401
-60.242
-48.5873
-15.015
0.0456634
8.27128
16.165
29.6331
-13.1469
-43.3388
-40.1377
-70.964
-66.4662
-13.7264
-10.4238
-1.77618
-23.5196
-32.8626
11.8571
6.47944
3.20542
12.1997
10.8159
15.6507
5.49115
-39.2761
-30.4009
-12.956
16.6516
22.2689
25.3615
46.8686
44.6945
53.5071
27.8619
-23.3989
10.46
55.4902
17.3068
-27.5261
15.1732
43.0765
40.1608
26.2723
6.43322
2.46151
-31.6658
-60.7411
-75.2571
-50.072
-9.49303
61.6402
41.1483
-32.9209
-60.2446
-56.7239
-27.557
-0.0772681
40.0489
56.3435
-2.67643
-77.0864
-132.725
-105.096
-26.8831
28.2076
30.0923
43.6957
87.6993
26.1624
12.3939
-7.88016
8.93388
38.7716
18.8378
10.1866
33.221
44.6379
12.9699
-49.5577
-5.0417
44.3107
63.1901
27.3951
-21.5919
1.37346
48.6622
-0.685667
-29.7317
-5.74262
-14.1134
-31.2305
-31.6917
-20.0243
-2.54281
-23.1201
-35.7466
-15.8917
2.42212
5.47543
-14.9187
32.0963
63.616
-0.955325
-5.48401
-14.6335
-37.6218
-15.0443
6.35154
26.3545
17.8146
-45.2575
-48.8858
-39.2302
-23.4362
21.7978
24.8889
22.422
43.1905
4.33755
-35.0457
-43.4171
-31.0324
3.67454
11.9148
35.4412
70.6799
92.1552
29.7093
-66.164
-62.6561
-9.85416
-7.47094
-1.19604
-9.02148
-20.7446
15.654
18.8491
-50.9765
-5.41226
30.9383
17.8404
10.8945
18.2117
5.05163
28.0178
15.4082
-47.9639
-45.2474
27.7877
27.7389
5.75078
1.51407
25.6641
19.626
9.18871
-11.7873
-30.2289
-7.24501
11.7026
3.79448
15.1695
14.8363
29.4076
16.7699
-63.9761
-79.2097
-32.1041
-8.23256
8.53884
17.0279
34.0323
37.4007
16.4698
29.4809
10.9328
-49.6247
-31.1359
18.6208
-13.6946
-52.81
-51.1088
-34.9539
-13.9424
-3.08393
4.51466
11.1427
50.965
52.8873
23.3525
14.5605
0.437624
-8.18233
-48.4229
-44.7278
20.2117
77.6166
35.9944
-25.1408
-11.143
22.6927
11.9053
13.5947
11.9192
20.2126
53.978
23.7037
-74.4945
-87.9367
-58.1134
-70.2599
-56.7319
-8.47059
33.098
60.0618
66.2055
69.8419
45.7172
-15.34
9.8673
42.6266
14.2723
-16.4464
-23.0772
-26.1973
-38.8727
-25.8275
22.456
-3.73334
-23.1676
-5.70065
23.8239
22.5607
12.898
-8.42472
-34.5046
-52.8743
-24.5443
-21.384
-43.1347
-41.3307
-5.59252
28.5758
23.4876
4.72312
-6.40791
25.1008
16.7731
4.41819
34.2542
24.7758
-3.90986
-14.1215
-3.89187
22.6296
39.3918
-16.9867
-31.0131
-1.8059
-7.63739
8.55382
17.9455
12.3067
25.4987
37.1314
-7.17878
-34.4687
-14.1523
40.7584
38.1671
20.7799
27.8785
24.415
22.8231
-0.565546
-25.6708
-37.1755
-45.2208
-19.1576
10.0952
4.38148
-5.58174
-21.8412
-41.9544
-14.097
31.7708
-29.4391
-46.0405
-6.22726
-8.02683
-36.5115
-23.4994
-0.577862
18.5774
31.4704
-35.8932
-10.0766
19.1653
21.0006
32.1062
19.088
-16.6257
7.61026
23.6772
-6.86153
-23.1577
14.5293
29.3717
13.9751
-5.9887
11.4972
12.7304
-3.56847
-11.7119
-17.8939
-4.27398
10.2861
13.0499
8.49873
-14.5741
-30.4387
-19.8351
0.561224
35.9997
41.3942
34.2669
6.71533
-2.58337
-18.742
-7.31806
11.9774
17.2027
6.83264
-1.94558
2.2754
-1.51581
-34.1092
-16.6701
11.0325
6.14458
3.4406
0.654722
-22.461
-10.1768
-15.8565
-38.7404
-24.8056
-12.327
-1.48611
6.80191
12.0228
11.5348
39.0235
17.7995
-61.5805
-45.2005
-5.69141
4.37383
-2.51498
5.93894
23.2647
67.2851
9.89172
-59.2146
-43.0971
-3.50617
23.1782
31.2884
21.4163
19.6425
44.4454
19.7249
-38.2012
-40.8155
-2.02323
28.4479
25.1112
-19.4919
-16.7724
10.0736
25.9012
28.2734
2.5172
-4.47934
-0.174168
20.3193
22.3318
14.1182
-3.8338
-28.8064
-28.9594
-11.5857
-33.3713
-40.4325
-17.3387
4.92834
21.1224
29.6298
-2.03885
-2.95385
0.351861
-69.6376
-39.7849
-26.5904
-14.432
16.0471
24.9174
27.6878
45.6394
53.4558
29.94
-6.66914
-15.3659
-19.508
-24.2832
-13.47
7.1585
17.466
8.69359
-23.71
5.4842
1.99424
-26.2967
-13.578
3.74608
2.64367
9.75938
8.79351
-9.77041
-15.0943
3.58384
24.0106
26.1911
35.4747
34.7356
18.9058
18.3187
26.0769
14.9481
5.61276
8.52505
55.939
31.4562
-26.6985
-69.2538
-67.2953
-45.1815
-37.6915
-28.7339
-0.400062
15.3484
-18.4128
-22.4778
-37.3457
-48.3504
-30.3537
-23.2521
-30.9168
13.6348
47.6928
-24.7747
-44.1075
17.7125
57.8186
59.3571
33.1003
13.4693
30.4447
46.8349
-11.1909
-88.0378
-37.9582
20.3782
42.0656
54.8305
49.8227
28.817
18.6353
28.3489
20.2055
5.34268
-21.3422
2.99706
7.41897
-8.38441
-13.8322
-14.4719
-28.9774
-10.8383
-3.11007
-12.6373
-12.6082
-4.54308
-6.34534
-13.785
-17.9096
-11.2959
7.00482
-11.4058
-60.3546
-54.2222
-21.9396
-7.51228
-4.93322
6.03935
15.4139
7.58668
-7.09182
7.38376
43.6363
28.9714
-16.3874
-4.04079
17.4693
18.3316
-3.68197
-15.7855
-0.75898
22.4597
22.5975
-0.941926
-0.355735
6.49843
14.6194
11.5495
13.3862
19.0864
29.2832
33.4046
2.71572
-9.29109
-1.5519
5.73984
26.8468
22.8754
-19.8467
-44.7845
-31.5338
-9.82565
22.689
-6.81558
-34.1188
-32.6943
-13.63
1.3746
-14.2234
-9.92426
22.1164
-7.92262
-47.9385
-26.3682
0.813234
12.0937
16.101
28.7922
51.1441
63.4025
31.71
-60.9961
-68.8511
-27.3368
-2.68746
1.05303
-2.81813
9.75457
55.2639
34.5012
-35.0691
-58.1876
-6.81907
22.4104
16.9329
-2.4497
-25.7453
-23.0083
15.0558
32.5168
-39.3353
-22.1172
5.38754
42.0791
49.6112
43.3875
35.3742
14.1081
-2.56512
3.59821
-36.7224
-43.1732
-33.6971
-16.4106
-0.603135
5.06467
-11.1006
3.38598
13.6751
-28.5448
-28.539
-0.162529
7.80271
22.0462
19.015
1.27751
-1.45678
28.0237
-15.3491
-40.6891
-1.4748
11.3556
18.7984
17.1536
18.4095
38.498
-1.47369
-14.4451
-16.6871
-21.3185
-14.0255
-15.4597
18.3209
65.9088
53.8302
-27.0648
-44.0275
-39.0671
-30.1364
-9.90857
9.30413
22.4778
15.1129
13.1816
43.4228
-12.4847
-34.8204
-52.7131
-29.3659
-9.16169
2.06475
17.2311
11.9212
6.3049
-8.97561
16.8888
16.1635
-7.2284
1.54173
8.31868
8.38477
18.6024
6.21538
-18.8601
-40.0313
-32.4397
22.6712
67.4102
43.927
40.5963
36.6356
-7.03674
-31.1574
-58.5074
-52.3943
-15.0174
-0.701101
13.6777
-16.9892
-35.571
-20.1396
-24.4586
6.74063
32.677
9.99938
2.86783
36.7385
16.3276
11.5419
40.2101
32.6763
-3.68278
-43.069
-53.0951
17.0426
54.3452
13.9131
-58.7159
-49.7986
-36.5281
-13.5345
-0.061505
2.19012
16.4466
60.5465
48.6204
-35.3287
-44.1093
-43.53
-42.8852
0.610992
60.9696
73.6159
85.758
14.4781
-48.4078
-18.1327
9.52352
34.385
41.6071
19.8988
20.037
-15.3345
-97.3723
-90.3101
-45.7007
-5.46837
-59.5592
-47.6107
-45.005
-32.7777
9.98717
40.2672
82.1778
119.649
94.5782
-31.6716
-29.333
-3.31162
23.8023
49.7267
44.2251
24.2677
7.92075
40.5506
15.9601
-14.416
-33.6776
-16.4294
-11.0448
-21.2675
-18.3171
-10.8137
-8.91924
-32.9225
-15.3305
19.1017
-30.6806
-48.3085
-33.2602
-26.5283
-19.0059
4.24853
7.12233
-16.832
23.8306
11.7495
-23.3145
-20.6321
-0.115695
-12.2133
-14.893
-1.95501
-7.07863
1.5486
-13.7655
-43.8173
2.76305
42.852
13.8506
12.5183
42.7637
64.9364
88.0258
39.3948
-17.5029
-23.1284
9.98899
34.8735
44.22
23.4444
3.24846
5.00035
-9.89613
-12.1051
-53.8678
-51.2246
-52.2754
-30.019
-8.91628
-10.231
-2.6142
2.35655
-2.89622
11.5461
-14.9156
0.955146
-1.6627
-18.8126
-18.2307
22.8867
51.5301
70.4814
90.1742
42.2307
21.2259
-5.28115
-13.4543
-21.162
-14.1505
-4.31675
-0.654088
-7.15634
-53.5221
-70.1017
-58.7613
-15.2306
12.8139
6.63299
1.66805
-3.82
-12.5405
-52.9372
-69.7746
-48.0025
-8.75366
37.389
69.506
71.0095
84.1534
39.8924
-40.1163
-77.3341
-43.8938
-14.9112
26.5824
37.7121
22.7656
25.5244
2.98476
-24.3708
-18.7101
-10.0171
1.89169
8.68109
-5.53555
12.9438
43.7825
7.11531
-7.75306
7.58772
30.5772
18.5854
11.6309
24.6543
36.836
-19.5997
-21.7678
-13.6802
-5.76351
9.67749
-18.3238
-20.3433
17.2
-23.4954
-22.1638
-20.5427
-27.6682
-30.159
-56.0776
-4.06798
40.2958
10.375
-3.50145
5.66927
6.73915
12.1142
9.33261
11.0323
5.73957
0.986505
18.1071
18.3625
-42.5547
-60.8257
-41.6732
-23.7149
-4.14769
26.8026
27.3391
9.08848
12.1305
39.7295
-1.57293
-36.2833
-12.6396
27.3068
28.0879
25.4185
47.3767
58.6642
64.8919
1.48973
-41.5012
-6.71582
15.6061
17.4013
-3.78697
-18.5931
6.93423
37.1367
-7.7645
-54.9862
-22.8939
-10.1146
-37.1084
-32.3228
-22.7838
-13.7911
-15.426
-48.3844
-54.8057
-15.7261
24.4371
35.7205
27.65
38.8507
45.5579
9.31249
-16.5939
-55.8752
-41.5313
6.34455
26.1735
54.4575
60.0355
25.9764
6.6074
4.66694
-0.335308
-7.1207
-34.2498
-14.2239
-0.723299
-32.4353
-39.768
-39.0575
-32.6953
-2.26333
4.80255
9.75929
36.6389
3.53538
-29.8477
-34.8893
-19.5708
16.7357
31.2086
34.1334
53.4468
-1.18016
-1.97752
7.85463
9.40689
28.1316
21.7841
16.0922
17.5665
4.76707
-1.30612
-22.9553
-42.8476
-16.7397
-3.1579
-15.0756
22.1868
23.5432
-5.82427
-14.5856
-52.2118
-23.8196
1.24426
23.3394
28.8366
27.6089
35.6233
3.2736
-24.5776
-11.5935
0.0782743
-3.75741
-10.3169
7.08989
36.0045
-25.8603
-84.4746
-38.5924
20.4361
-11.9355
12.1004
88.4228
67.5225
20.9996
-17.0042
-29.7085
-34.3619
-25.7684
-17.6821
-11.1197
-10.784
16.4946
44.3497
-1.34902
-7.43672
8.38172
-3.10342
-7.54733
-8.60543
20.4585
-0.992976
-61.2426
-40.1781
-28.7883
-16.9271
2.04918
22.9878
52.7636
85.333
81.1021
53.5694
33.7807
-0.387708
3.60354
-26.9906
-32.8888
-25.0928
-7.7682
-54.5945
-99.1695
-84.7842
-45.2208
-33.4056
-12.7029
23.4248
54.3917
-9.32691
-28.2332
-28.8244
-7.84858
7.59017
11.9198
29.0262
61.6085
26.9656
34.4996
22.0956
-25.7624
4.81535
45.7013
52.1706
71.6201
30.1395
23.0463
20.2565
6.37016
11.1048
3.23763
2.81974
-9.91563
-67.6376
-73.6953
-51.8036
-42.5142
-14.9525
3.55727
16.469
22.2473
18.6333
-17.2909
-28.2637
-23.3426
4.27708
-2.91506
-22.1808
-22.7622
50.5438
47.2279
-36.6408
-40.3996
1.59883
27.3437
35.5361
27.9745
0.374161
-17.6209
13.6593
-11.6819
-30.5969
4.3521
10.89
5.35118
-12.8198
-33.2461
-15.2432
-11.0007
-41.3528
-27.9501
11.5871
37.4414
50.6792
28.2031
17.4477
-6.98036
-3.80525
11.8735
-8.45302
11.4479
26.5841
6.35737
12.7627
-14.2262
-13.4972
7.36033
-1.39918
-4.03137
-8.11414
-4.69287
4.34768
9.9775
-11.5976
-40.0399
-30.1213
13.1274
41.4606
25.9124
-13.1832
5.6109
33.1266
-5.76909
-28.4568
-14.2283
-0.70696
-6.47112
-3.44741
12.5999
12.5227
-25.3253
-16.3598
-13.383
-5.48682
8.50762
-2.93747
19.2222
35.2702
-15.2571
-13.7586
-22.4874
-32.3793
2.75111
7.7018
41.1742
40.6001
31.7485
-20.684
-21.1416
-25.9825
-7.93381
-0.204913
5.88281
33.2928
34.5243
-18.7748
-33.8775
-29.6772
3.6661
11.0225
13.581
21.6436
40.0077
52.2739
-27.2783
-61.5672
-30.4535
-1.61661
-19.3725
-12.1944
22.6514
22.1115
9.28105
-33.0399
-56.9563
-50.2989
-37.9361
-31.9597
-11.4784
28.1823
51.0564
3.87609
-5.28244
-3.09511
36.0036
48.8435
29.1846
49.3249
77.156
14.6679
-22.5487
-23.3107
-23.2717
5.19693
16.4396
40.6209
51.9035
-7.82491
-9.07691
-24.3893
-52.0656
-23.855
4.81571
19.6362
59.9688
16.2274
-29.5425
-60.5687
-103.06
-68.9003
-38.3449
-15.8472
0.874029
39.6849
30.9171
9.60304
-4.05429
29.1257
29.9771
16.3714
3.67028
19.2729
33.7899
-21.3616
-43.3551
-26.0302
-13.5995
11.2354
26.3625
51.8129
76.3686
23.026
-21.9357
-45.3112
-62.3194
-83.3239
-93.5366
-59.1819
-29.3776
12.2136
6.85342
-14.6205
-5.99325
35.4148
24.9217
39.2613
71.5013
94.3775
61.5436
37.2944
11.8302
22.9526
20.7749
2.30897
45.0673
96.8388
64.7077
4.9636
-23.1263
-47.9866
-49.3639
-43.7934
-56.6158
-61.786
-35.8502
-13.4983
-59.3715
-63.2641
-38.4547
-33.3096
-38.809
-28.6172
7.21265
7.30131
8.12911
8.63354
16.2822
48.5787
46.7893
37.6145
49.9541
16.695
-2.51215
-7.05025
-25.143
-19.8921
13.7992
25.838
20.8625
-11.6166
-3.13776
28.8209
25.1694
23.9148
1.24385
-30.2314
-32.7342
-38.4043
-26.7557
-22.8595
-16.0017
6.42952
2.70582
16.9112
10.225
7.95267
24.2236
11.6389
9.9268
20.3702
4.60663
-12.9737
-1.18833
23.6733
-3.30897
-8.42664
-0.259398
3.14782
-4.23226
-19.1378
-30.6307
-2.98194
45.7204
20.0941
-21.7588
-21.0214
-26.9154
-21.135
-7.77179
0.893809
12.4204
19.3213
-17.4252
-78.287
-39.6837
-8.72221
1.48125
11.1807
28.9153
64.5979
42.592
37.9372
12.1922
20.4459
28.5893
4.86597
-7.64508
25.6455
-19.0308
-15.5798
24.6541
22.0916
-1.71268
-26.7931
-41.1983
-13.8548
-40.3527
-51.7499
-36.4443
-21.9607
-7.90146
-16.106
-31.876
-25.2159
23.1956
39.1333
24.8798
5.1896
24.7813
30.7955
17.4013
-0.0016654
12.8907
70.3467
40.6442
11.5627
44.9755
59.4904
31.3468
3.93731
26.7031
-0.569019
-64.4981
-75.7956
-63.0978
-39.7149
-21.875
-40.5513
-21.668
0.785392
-66.3854
-65.1729
-36.6822
-17.5519
29.483
29.9773
27.8856
51.0022
29.5282
-7.39218
-55.3952
-17.4445
14.3553
24.5194
19.5277
21.822
33.6081
43.3989
17.4623
-20.9453
12.4841
23.7965
17.841
12.8495
18.4784
27.3667
37.5802
-20.8945
-28.2729
-7.53918
2.84227
-0.130577
22.3934
-1.00075
-25.8133
-8.25387
-20.7289
-43.3274
-30.1274
-7.58997
-7.96643
-9.6471
17.3572
33.847
-18.3879
-41.1223
-41.6275
-25.312
-12.4592
3.95596
50.2827
48.7505
-6.95245
-8.62161
-19.0094
-25.3892
-3.97508
-8.58663
9.87225
13.1137
6.77605
22.1937
11.8023
-4.57194
15.3377
13.1533
10.1749
36.15
16.6131
-24.7973
-40.4248
-35.9397
5.61874
17.7883
13.5732
9.22543
29.4695
11.5098
-16.1694
-18.2594
-8.7585
5.47106
-5.03211
-20.6875
13.613
20.948
-12.3407
-20.6899
-9.28802
8.09469
11.9789
12.2488
27.1259
26.8802
30.1989
1.92581
-22.8139
-37.7905
-28.7324
-24.4387
-16.8708
-12.3565
-2.70217
-22.8323
-13.1507
-3.66977
5.97201
-9.3646
3.84009
38.4954
22.1331
-15.0588
-10.5618
-12.7423
-8.4701
6.47774
8.00414
52.7053
90.2684
54.6678
-14.8186
-32.2224
-35.6756
-14.6873
-7.23001
-5.95418
5.02549
47.8125
10.7119
-39.0028
-20.2501
-4.30521
0.604454
5.98308
-4.24886
4.33942
-12.6893
-25.2143
-34.571
-23.8045
12.9411
13.1587
21.5932
65.7945
41.4985
-22.346
-26.7427
-44.1508
-19.0095
10.1564
8.23555
25.6437
-31.0899
-45.2132
-23.1713
-15.7731
-6.18431
-0.54154
1.35959
34.9627
24.4671
2.24957
-8.40145
-21.1862
-12.3379
23.551
38.2929
52.4193
31.3547
-15.3424
-48.2973
-58.2037
-10.0323
25.7164
17.2943
6.81259
41.2779
53.3613
4.4357
-29.039
-14.8207
-9.65011
-2.61935
-15.1964
-12.9933
-2.62651
15.795
14.6063
-16.8322
-12.4368
1.75384
6.85408
7.14458
-2.38483
0.108792
21.8522
-30.8456
-33.2335
4.81827
14.302
20.3687
-13.1149
-48.6666
-32.3373
-27.9004
-16.6894
-28.3947
-30.6217
15.5799
43.7524
62.7771
41.4306
6.51721
6.38609
11.4435
-4.09838
24.8035
29.8589
54.368
53.072
14.5944
0.922352
-7.71898
-23.9289
-20.3904
-15.2793
-20.8278
-28.1276
7.2825
-13.6529
-35.6225
-35.4176
-16.9301
-13.4215
-9.38145
9.53538
37.9066
-1.33913
-47.1913
-53.3301
-21.5554
16.546
42.5014
60.8765
57.0621
7.23862
-24.4396
-22.2679
-22.8258
-8.65958
-6.72519
20.4669
37.2929
-16.9865
0.0260655
-7.57796
-31.8422
-26.2194
-19.583
8.7225
47.9951
7.67004
-8.05748
-10.4073
-1.14732
23.4457
28.7667
10.0816
-3.90404
14.7049
13.7099
-21.623
-15.404
19.0058
2.09893
-15.2959
-5.69463
19.6655
33.3224
-18.2873
-49.5734
-7.844
2.3811
-17.1977
-19.3269
-1.37393
5.99157
17.2347
-8.13019
-4.76838
1.23977
9.45127
-3.48371
1.37567
7.16862
22.9594
0.158087
-18.3286
-23.6384
6.47925
9.27746
9.15581
30.6962
43.819
-5.36109
-12.9195
-25.6705
-7.42778
25.4362
15.1267
29.6096
20.2186
-71.6016
-64.2349
-47.0932
-50.2325
-24.591
-2.34884
24.4913
44.4192
49.2153
45.7267
36.5904
-3.77057
0.489168
-5.00587
-4.38382
-9.50088
12.9558
14.6851
-27.8257
-29.1527
29.0732
29.1633
8.23636
1.47217
28.1732
14.791
-19.7152
-31.7259
-40.031
-36.8869
-35.0032
-16.6432
29.6334
68.488
22.673
-24.5835
-38.6149
-39.1204
-26.991
-15.9391
7.74591
30.9842
27.7633
-24.0643
-15.7865
10.1196
5.28218
-5.02329
8.7003
45.6797
17.9321
-9.65971
-5.93141
-8.45449
12.033
-0.0541462
-6.93297
20.3532
60.3288
29.8183
-23.1138
-31.1648
-31.452
4.69208
3.17868
-0.497679
8.48182
26.8602
-11.9307
-38.921
-18.5062
22.5238
10.8379
-14.0828
17.5157
44.5883
-6.08958
-31.0478
-32.1842
-6.53958
21.4757
3.40826
16.9601
36.6606
-27.6293
-52.1769
-29.5381
-10.9545
20.1688
10.1845
15.8197
11.7793
-33.6356
-24.2878
-16.3995
-6.5588
26.0747
25.9316
21.7338
19.8238
-8.35505
-29.3272
-15.3738
-6.66345
6.23433
1.48584
17.9348
39.969
7.68835
-30.2198
-49.6457
-41.244
-11.2117
0.454413
8.1887
2.20502
30.7589
28.8871
-30.0316
-32.3228
21.5009
51.2115
34.0474
17.5155
23.5268
26.8202
22.9473
-10.1644
-15.7307
6.44503
3.96091
-14.0532
-11.8264
-17.4336
6.4695
8.42281
-30.5824
-23.9913
-2.79756
1.4817
3.99233
1.03635
12.5513
-5.50781
-11.8971
-23.9056
-39.52
-38.2566
-4.27558
31.4579
48.7367
13.9067
6.05639
-6.23305
-23.9112
-22.6357
-8.61815
-7.30537
27.9915
30.434
4.90682
-24.5936
-25.2751
13.9024
25.6351
23.0578
5.22457
15.8558
28.2985
-36.6123
-24.5904
7.88418
17.5722
4.79479
-16.468
-6.821
4.07051
-11.8669
-15.9989
-18.4
16.5701
37.3563
6.27781
1.33337
27.1265
-19.8901
-22.4985
-22.1371
-25.3548
-2.78994
-10.1441
-0.120322
1.28479
-21.0634
-2.92218
25.5877
52.4913
66.4114
28.6298
20.5607
26.8348
-21.6895
-50.4829
-46.834
-51.6694
-14.1125
-5.26812
-9.51308
11.3508
63.031
26.9829
-29.5177
-33.8148
-5.26946
-1.50815
-16.098
-30.4081
-21.3147
12.7894
-12.1134
-14.1808
37.6098
54.8001
34.3904
-5.94883
-26.7566
-12.6196
9.31015
-36.8272
-45.8671
-1.46779
46.3865
42.5863
36.9614
32.6305
8.75457
-14.4769
9.97544
10.6483
18.1653
7.52887
-4.84874
15.8266
-32.7628
-33.603
-0.749505
-7.97094
-30.7766
-11.6949
-6.65922
5.8848
-3.53713
8.1219
11.7809
-12.2609
-26.2029
-22.5333
-26.7589
-14.5098
-13.1245
-36.8451
-11.7519
-0.447639
22.2755
22.5119
24.8004
26.5482
33.3778
42.1071
-0.999026
-7.31781
17.0305
25.0214
26.293
29.2921
34.5915
18.6983
-24.4071
-39.5361
-20.9647
-7.14265
-21.0204
-27.8523
3.27026
11.9322
-4.01342
-13.2976
-11.7669
-3.06188
3.34339
-0.395553
0.756325
-10.4381
3.56501
-15.5484
-24.3693
2.16408
16.266
-3.41059
-0.232205
10.6188
12.7447
-33.6102
-42.1066
-23.6753
-2.1215
-1.81463
-13.1451
-10.9253
19.1086
43.64
32.4646
7.79809
-33.2872
-21.1831
-0.322204
-3.44854
-14.9028
3.29499
51.5499
77.2214
7.29452
-5.20362
-2.29872
-2.36254
11.9375
14.3881
15.1895
25.298
-10.6905
-31.79
-21.0134
3.10347
16.5731
8.06789
18.0129
13.3071
-20.5968
-19.4471
-27.557
-32.1438
3.68858
21.6851
37.0804
5.37184
-8.44045
-13.5165
-18.0948
-8.879
32.6416
37.2425
41.0901
-19.8667
-35.1564
-27.8377
-24.532
-10.0804
20.7105
13.7052
11.1982
-28.2818
-70.9139
-76.4697
-60.4167
-29.6161
2.04794
28.2966
28.7583
14.3422
39.871
24.0311
-44.5793
-17.0479
1.97954
14.2208
12.9905
14.2823
21.222
33.017
12.0034
-14.0567
31.7802
54.6245
42.3307
51.9433
38.3392
43.2052
18.7978
-23.0145
-42.6973
-46.9863
-29.048
-7.08786
16.9546
48.7959
-6.44566
-47.6657
-57.8738
-61.8874
-52.0741
-25.909
-9.04858
25.9543
11.8893
-18.5069
-21.7523
-26.0707
-19.124
-2.43037
-7.93487
8.20317
65.5006
45.7445
9.08677
-21.8369
2.20099
14.8207
20.5928
15.5953
7.72364
47.3468
55.2971
-11.8629
-19.4488
-16.9683
-11.9201
-14.3881
-10.9975
17.3676
2.46538
-37.8835
-33.5588
4.59282
58.7351
60.0329
43.4908
52.4109
31.484
-2.66564
-25.6264
-54.3049
-59.3566
-27.5742
-13.1218
19.9244
-18.5721
-44.225
-20.2158
-11.8589
-5.3957
19.8284
-7.0625
-0.802035
-16.1197
-84.6762
-62.8317
-39.5355
-27.7376
-10.1024
14.6217
26.2219
30.743
35.0578
14.3309
3.55275
30.3624
34.66
18.6142
-1.04894
-15.2559
32.3934
58.4364
14.162
-24.4194
8.74654
16.5401
-1.32023
5.70577
24.742
30.784
53.6352
33.5224
2.87691
-2.75316
-5.31467
-4.90716
-5.86982
10.2162
56.8354
30.4672
-23.6379
-57.6555
-40.7315
-23.4021
-9.27007
-4.71742
11.0588
-15.0288
-45.2731
-45.8856
-60.6836
-46.7933
-15.1111
-2.00043
34.6876
6.16082
-10.1362
-15.5104
-43.2919
-18.5326
-9.09176
-2.11718
21.6609
50.9577
22.1708
-10.1119
-17.2267
18.3727
40.0854
28.0584
8.0183
19.7824
22.4542
-7.38242
-23.4451
11.6808
15.7389
-2.08125
-14.5467
-3.76382
9.61148
26.2385
24.1722
-13.2682
-6.51629
-0.11551
-13.1389
9.15079
24.8815
-16.3868
-28.41
-20.8006
-21.6518
-10.7578
-11.3934
3.30592
46.8654
67.3344
7.73745
-19.878
-19.4288
-27.1214
-15.8767
-11.38
3.12435
34.7727
48.6057
-18.4472
-62.3474
-22.2743
2.80332
-3.28383
-2.7578
7.89286
12.3232
47.3282
37.2416
-37.6372
-19.2433
3.09731
7.84076
-0.326045
-18.2127
-16.8162
-10.6943
-35.9872
-22.3337
2.73305
11.8023
30.8118
45.2223
54.4817
20.096
1.06551
-4.96079
-19.0931
-25.3737
-9.5371
-5.22519
0.95368
-21.417
-14.6993
-6.87704
1.24443
12.3093
12.2938
6.43137
21.4644
-13.5684
-18.4161
-10.8822
-24.8714
-13.7371
7.83539
0.676646
-2.28801
-36.4943
-18.8135
0.674084
5.49953
19.8619
26.5033
20.0712
28.8778
44.6029
-0.0762961
-31.5517
-14.4541
24.2193
11.771
-8.72935
-14.4599
24.385
45.3439
17.5736
-40.2485
-29.2615
-10.4921
4.17063
-6.91391
-16.4417
-11.9629
21.233
51.6713
-0.439693
-11.212
-13.3129
-23.3051
-16.5353
-2.18001
3.267
21.9843
-26.0978
-36.2424
-20.1845
3.50812
22.6181
21.7984
19.0198
34.5382
-17.3786
-31.6193
-38.3893
-48.4022
-29.3093
8.25199
53.2786
101.664
30.8973
-36.6336
-36.2469
-33.6262
3.24137
7.52523
1.23157
6.25921
30.7098
7.5456
-14.0843
-21.7794
9.85082
18.255
13.7818
13.9566
34.2175
4.23859
-26.3509
-54.4077
-14.1075
21.9278
17.5697
8.47635
4.06539
-14.9536
-10.5636
-10.3783
-28.4265
-7.45422
3.96916
8.29683
5.94345
-4.00578
-4.46106
-11.5682
-9.47866
19.1048
12.7908
23.5417
10.515
-6.99273
12.0306
15.7072
5.52529
7.91005
-1.98369
12.3819
27.1556
-12.0472
-17.7408
-17.806
-14.0161
-6.18749
-22.2531
-27.7438
-24.804
2.54487
12.584
-28.7828
-1.11691
28.3606
14.5397
-6.11029
-7.07923
-1.33301
28.9503
33.4398
-17.3335
-13.4096
-2.58641
-2.51786
7.55035
3.99806
7.89421
29.4896
57.9733
6.30738
-27.8177
-30.7915
-9.36717
-3.20887
-27.1874
-23.806
10.8191
1.12707
-15.4291
-28.8424
-12.1299
8.20231
0.246484
-12.9454
13.7903
16.3774
20.5741
-0.678727
-41.5748
-8.53348
1.57336
12.1279
32.8658
-8.07259
-9.85335
-8.18216
-22.158
-9.5239
-0.233365
12.025
31.9771
30.2833
5.10475
14.0202
11.518
8.83667
9.4037
12.0189
18.987
-1.95477
-14.8601
-10.0737
-22.3062
11.3825
36.6796
51.1935
66.1081
16.0658
2.40895
-17.3166
-26.7653
-18.8881
-0.756791
13.1473
10.8846
-32.4049
-55.2376
-52.8604
-49.8099
-29.0034
-25.2185
-19.7387
-0.241959
15.1382
8.75374
-35.4206
-49.3954
-14.1687
-4.52546
2.29595
3.62671
21.6922
70.8846
53.1237
0.504688
-25.4424
-17.8727
-16.0216
-9.7457
8.20002
26.2489
20.2205
25.3574
20.2943
5.35607
10.8737
5.0989
10.9005
10.8914
6.91377
15.974
-0.473732
-40.2267
-41.2535
-20.1755
26.7002
35.348
25.8687
41.4098
21.6491
-17.3312
-31.4672
-25.5164
2.56943
8.46239
3.17811
4.58986
3.7559
-14.105
-35.5705
-52.9176
-33.3574
-5.68337
6.94503
33.2095
6.2558
3.48335
2.28023
-20.6554
-9.09022
23.989
35.6573
28.7783
-9.02616
-33.139
-30.8396
-19.8175
-6.76528
3.63566
18.146
22.1144
17.0216
11.803
-26.7143
-34.9506
3.91426
12.9177
16.0826
14.2355
10.6994
20.0528
4.58734
-37.886
-23.526
10.0117
21.4841
9.21614
7.96231
0.997872
14.3218
18.9601
-2.23868
-21.348
-7.51053
-6.84396
16.0611
8.92229
13.1461
16.3661
-19.8102
-25.1234
-19.1687
-9.2155
-2.87769
7.19702
31.2919
37.6186
-9.42784
-17.1819
-27.5616
-35.5692
-13.467
-1.98551
22.9354
30.5561
2.25295
-22.9086
-40.1251
-28.5943
0.78381
-4.67075
3.01406
13.2637
26.1311
29.9459
-20.8787
-27.9635
0.484201
-2.22817
-10.7679
6.04438
42.7375
26.37
-8.16351
-16.62
-3.76796
9.44489
8.12613
2.0588
36.4501
37.3516
4.96157
5.42083
-12.3555
-30.4803
-21.3627
-17.3838
9.97691
0.484487
-1.9473
2.92744
-14.6052
-7.47981
1.79474
-15.0297
5.82015
12.0336
1.48505
-1.61407
-2.80934
-9.98155
-6.72
-4.81514
19.7789
31.6485
25.8668
-31.5126
-37.7626
-13.3536
7.18674
7.48289
-10.6603
-12.8971
15.3048
26.7856
-9.70497
-29.2154
-15.5275
-9.0099
-5.93413
-3.61773
3.83842
1.20914
14.9224
-0.593575
9.53149
33.5991
34.984
31.5117
18.2301
20.299
47.7453
12.3674
-39.9244
-46.0554
-39.5183
-15.7024
-2.18933
3.60925
17.7291
2.05475
27.8751
33.7144
-4.64404
-20.2459
-18.7918
-1.90025
13.5486
-26.9626
-33.4426
-41.9101
-54.0923
-27.529
0.56401
12.4406
30.6736
65.6433
57.6073
10.3572
-43.7965
-30.2374
-39.1335
-31.8897
-14.8816
-10.2307
26.8406
29.9411
-51.159
-11.3333
20.9529
24.04
16.3363
16.5458
24.3656
21.0836
-4.22028
-11.5213
-15.2368
8.29815
31.3004
39.1881
42.7111
31.2966
-32.8935
-21.8552
-30.6635
-33.139
6.54618
17.86
25.7243
33.8145
-12.6357
-29.5653
-6.80643
-25.1464
-13.2023
-14.4038
-1.32422
14.7256
37.3139
-10.1269
-26.8663
-31.6955
-10.0833
0.106271
3.68888
6.70888
23.8046
36.7501
-11.3214
-49.5591
-15.5931
7.30282
5.82825
7.77362
25.6891
47.1729
52.9363
-30.1306
-63.2393
-27.8688
-26.4571
-23.0381
-6.04778
-3.04807
8.46374
-19.1764
-21.1446
-20.3486
-0.384736
10.7614
9.61682
19.9509
19.2324
-1.12585
-11.9751
-17.2678
-12.5911
27.1757
29.708
41.3918
33.6602
5.09159
12.5835
23.9272
18.1473
16.6714
15.538
24.3227
15.229
5.21778
14.6839
11.001
-7.92851
-6.48164
-9.57644
-9.82377
17.0988
3.83605
-42.8369
-62.0429
-41.7447
-20.638
-23.8697
-24.978
-6.45835
37.055
-0.519441
-37.4751
-18.3315
3.64766
4.07535
18.6712
28.5744
32.8559
-7.14525
-58.544
-77.069
-36.7799
-1.95456
16.5187
18.8087
15.823
19.2542
33.1767
-10.6601
-13.323
15.8382
9.59177
-0.270191
0.381602
13.7517
15.9083
-19.8128
-17.0748
13.7339
31.8408
14.8323
24.3953
37.8015
41.1783
21.7958
-4.38906
1.62458
-11.3655
-15.7501
-9.97467
14.4656
3.91191
-6.51285
21.3323
-17.1141
-33.5348
-20.1644
-13.8033
-9.98771
-8.05629
22.7283
13.4321
-45.7629
-51.6547
-33.5042
3.87701
16.6043
10.3783
32.6705
37.1919
-14.7716
-8.72212
-8.43286
-24.1652
-21.611
-27.2397
-3.42228
20.6142
-3.35525
4.3308
-8.1792
8.39531
45.7092
35.3739
34.4979
41.3151
-1.40129
-30.3488
-37.4725
-39.9347
-5.35446
15.8452
16.0682
22.5857
40.0301
-17.4901
-35.4716
-35.5081
-3.72204
6.47454
-6.54551
-12.9075
17.5162
67.1038
0.905626
-28.8558
-15.1164
-10.7079
-2.9104
0.150281
2.31774
11.0843
30.125
3.95057
-27.0474
2.93172
3.84138
-10.6192
-11.4666
-8.0007
9.60851
18.3033
-22.0694
-46.6649
3.217
16.2864
8.81049
6.03435
15.5071
17.729
-5.55824
-14.928
-26.5489
-21.5599
-2.35837
23.5108
42.2242
40.7831
12.6192
8.30702
-5.25094
-7.77909
8.64441
-1.00351
-3.76605
26.7737
3.83478
-18.2545
-32.5725
-40.5861
-17.4769
-9.25263
0.0404742
-3.59475
31.7545
-10.627
-22.0141
-10.228
3.27767
-12.3123
-27.3881
-4.18559
52.8926
33.0279
-14.2066
-30.8433
-5.38619
19.6189
17.3032
7.42823
20.0206
-6.43163
-19.6124
-15.6142
-14.1641
12.5609
2.11359
5.1217
45.4275
3.19154
-5.67048
-12.9321
-20.1993
-13.7852
12.0604
17.2911
23.0157
12.1905
2.34103
-16.0668
-2.99093
6.55637
2.46778
-6.40044
-17.8549
16.3352
9.23251
-17.6609
-18.3616
2.63679
-1.63181
-13.4655
-23.7606
-13.4044
13.4362
24.1631
-4.44315
-5.14856
12.8172
15.0476
-3.2511
-4.65426
-0.394939
17.1572
11.2913
-21.3179
-14.0083
-1.69017
-14.5434
2.48591
12.2089
17.176
7.91569
-14.3757
-11.9888
-25.0436
-4.89845
8.39036
14.5949
38.4337
20.7804
-11.3161
-5.22041
-11.5934
-15.9856
-1.51709
1.75581
19.3857
19.9949
-9.7099
-13.5847
-14.6068
-9.47077
5.22903
0.0280864
-8.29514
15.3583
10.5317
-17.9313
-21.008
-22.309
-8.2672
2.14326
16.8385
23.5563
41.4993
23.0079
-13.0549
-12.7444
15.926
19.8895
12.6718
11.3787
48.2328
-2.48052
-20.2097
-23.7502
-32.188
-48.0399
-59.3004
-14.9019
10.8322
-30.5903
-38.7302
-27.8984
-16.2366
23.2112
48.3694
34.363
39.0163
49.8028
-9.02486
-27.1523
-30.6708
17.649
14.8824
3.48026
29.4715
60.5147
6.75799
-25.062
-13.9814
29.1129
52.9655
40.7771
-0.770993
-24.2438
-45.5264
-66.9802
-44.2673
-39.7693
-7.3769
-9.80127
-43.3
-58.2356
-10.3528
-6.73304
-26.1085
-0.46703
43.0503
52.238
54.8052
40.1942
34.381
9.24729
-9.26032
7.28099
21.5749
18.6018
2.52784
34.1958
106.734
69.5422
58.053
42.5225
-20.1646
-64.6448
-82.4522
-75.9915
-31.2829
-61.7262
-90.8837
-120.701
-128.455
-88.0408
-50.6715
7.43135
68.5053
102.074
122.732
54.3002
4.00334
40.0099
79.5092
101.061
105.17
79.3093
-21.1495
-118.381
-116.71
-58.2299
-23.1397
28.5976
34.0324
53.6834
48.4144
-55.1831
-107.947
-72.0847
-65.3893
-33.8791
-24.1962
-10.5734
-12.1037
27.2124
23.4256
5.00821
60.5249
95.2576
78.152
53.93
37.4672
40.7209
49.9419
-26.0996
-34.0416
-2.51797
4.21984
-16.7324
-36.8171
-28.7435
-21.0608
-55.6416
-66.7978
-76.6195
-62.2378
-13.305
32.8839
70.0634
78.8011
43.7769
-8.72069
-21.3148
-34.9345
-9.72712
3.9257
20.4354
52.3341
21.848
-23.1364
-28.2393
-28.2789
-5.12646
-8.74513
-17.6206
5.82987
49.2944
12.3675
2.50427
-14.8477
-12.2968
13.2401
24.6115
30.5194
55.8026
-6.85734
-58.8085
-77.0461
-24.5518
7.45373
10.6995
14.9317
45.5573
29.4224
13.9281
-10.0959
-33.3304
-11.0732
-26.778
-37.9793
-23.9263
-23.0932
-5.57389
-4.0564
5.58652
38.8209
44.5957
19.9769
18.161
16.8131
-11.2028
-39.5985
-33.4687
-6.88674
16.2187
37.0836
34.4573
2.21642
-40.364
-81.8817
-22.2402
62.8572
94.5806
100.24
66.9274
50.7572
55.4426
26.5678
-47.7205
-57.5896
-49.78
-38.617
-47.7873
-50.0539
-57.8656
-48.871
-26.4344
-6.04836
24.7954
50.6556
21.358
-14.4404
-52.2017
-50.1026
-29.3303
-59.9829
-46.4628
-12.8717
12.6122
22.1526
34.31
43.2113
40.1655
0.569466
-5.2764
-0.392039
6.52307
31.5215
46.3916
69.5685
59.5354
5.49729
-36.9501
-40.9727
-44.9478
-6.64704
9.30236
14.2059
43.9849
68.4866
46.5245
-29.084
-48.9494
-23.5782
-20.1444
-29.7641
-24.3856
8.78619
43.5962
0.220876
-22.2955
-8.93035
-5.10171
-15.9854
-15.4379
7.50999
26.7288
9.39322
-3.51332
-17.5237
-10.0213
26.9148
31.9196
41.18
52.3038
17.7672
-26.4442
-46.4242
-51.15
-25.4722
-16.9094
-3.8429
0.807015
2.80925
17.5776
-23.8926
-33.0695
-19.8866
-15.3149
-14.9697
2.29554
31.3949
38.5706
-11.2014
-27.0639
-19.9036
-16.425
-5.62857
2.12951
32.7244
51.0815
55.6697
10.377
-8.21876
-16.7793
13.0205
10.0491
9.83314
29.3128
15.5133
6.36985
6.50587
-5.26051
1.87978
-14.0204
-14.0139
20.2911
10.552
-17.4463
-19.8555
-29.4634
-29.1977
-10.755
-27.0157
-17.814
3.0014
-37.5149
-38.4417
-41.1523
-22.438
-9.95308
-8.74216
12.8229
27.8207
3.93224
13.6894
15.0332
32.7025
42.8054
26.5519
31.1526
36.0646
9.58218
3.78271
-8.31898
0.688223
25.6045
25.8425
15.0987
18.7636
16.878
7.11654
-45.7655
-33.1315
-9.30295
-10.5204
-14.424
-7.55184
9.34535
48.859
2.54735
-55.6155
-35.9797
-34.0796
-32.4152
-19.3138
-9.03624
-8.52056
0.269064
-16.9448
-40.3797
-20.3589
21.0602
34.8613
57.7662
72.6305
100.211
82.2491
-4.80832
-45.0946
-44.8922
-41.9419
-32.9842
-13.8348
-17.5832
11.9365
23.2687
-7.80911
-27.5683
-21.189
-0.905173
-3.64406
2.16846
-0.571605
14.8483
40.4458
3.13004
-32.1258
-16.1943
-20.9183
-10.3495
7.38826
19.7604
28.4463
29.0016
2.64481
18.7493
31.7183
-7.48942
-8.76504
-4.27653
-14.2064
-24.877
-27.8535
-6.54851
-10.3738
-66.5032
-56.2196
-18.1785
-5.45583
5.25001
9.91379
2.93843
21.3745
33.4469
-11.8911
-36.0828
-20.6025
23.0365
45.8599
45.7593
46.4257
59.4666
38.6468
-22.4871
-43.5813
-6.14184
10.8226
20.337
26.5615
36.4868
56.8739
30.9814
6.57049
-35.0629
-20.0757
-9.9106
0.451359
5.27814
-4.64963
3.07855
-5.00256
15.9868
8.22252
-49.4012
-71.0024
-57.791
-44.6771
-44.3603
-53.845
-63.8737
-64.8617
-9.34001
33.9918
59.8022
47.4736
49.4212
35.1277
11.5143
-7.06373
-16.1146
-16.4356
-12.3622
20.6577
10.3695
1.25845
12.3275
5.8946
5.36039
10.4263
23.7546
46.4718
38.5427
2.23066
8.85059
26.3863
11.4604
0.19633
-0.641524
18.5002
36.434
-18.9624
-100.02
-89.4533
-31.7267
-14.5383
1.65102
20.2528
42.4109
83.9611
32.2621
-25.5085
-54.126
-43.9795
-55.6474
-34.1101
-16.8014
-10.5433
9.34353
-0.483455
0.000386312
58.8088
88.65
64.792
50.2144
38.1921
41.2853
36.6488
-36.9295
-74.0602
-54.7145
-32.9165
-10.6696
-12.3503
13.4458
-0.563735
-45.1202
-33.4111
-23.8955
-30.9293
-40.0925
-34.2077
-4.45151
10.8755
9.10326
11.5843
-3.66059
-7.5812
19.2937
15.9459
39.9766
64.9492
50.9407
0.860854
-10.4973
-4.25298
17.4213
12.7515
-11.7287
-15.1265
-1.71656
-2.44444
-23.1319
-13.1736
41.1445
66.531
43.5382
2.43116
-13.9591
-22.6193
-13.2412
-45.4501
-45.0469
-29.1476
-24.1089
-32.9371
-42.7876
-16.3824
47.3763
50.0369
41.6811
37.6228
47.7891
32.0812
-3.44079
-30.3569
-15.3831
-51.7333
-46.9308
-35.8736
-19.4082
-22.2185
4.16954
33.6598
64.7497
36.4933
30.6035
19.3019
-19.562
-36.6536
-42.7888
-32.7359
-14.7074
-25.8124
-38.2065
-28.2528
-8.62175
47.3899
60.9461
44.1376
44.5826
64.2914
4.45639
-40.9602
-49.1109
-7.06694
17.6405
15.2244
15.1731
43.4821
8.51604
-20.7787
-32.0785
-16.587
6.07137
3.42879
-11.0467
19.8046
3.61055
-20.0906
-46.3322
-28.9849
10.8105
34.3877
32.3359
54.6824
25.2658
20.0966
-16.1803
-33.287
-40.4333
-36.1455
-29.9727
-32.5005
-15.9123
-18.5085
-54.7367
-46.0815
-13.3382
26.2401
48.9876
55.5187
49.6388
51.0049
14.27
-56.2257
-34.9182
-17.1845
6.20105
-8.93571
-2.12001
5.07944
20.2514
56.783
51.7361
18.0863
30.9991
10.1415
5.51431
10.2345
3.57615
-16.0635
-80.582
-75.624
-68.1848
-14.9168
31.3831
29.9214
32.4573
55.2005
24.2201
29.389
3.33808
0.501656
-11.2471
-21.6249
3.14339
3.14678
-27.2856
-36.7021
-34.5212
-38.3525
0.895808
11.681
37.8492
50.2663
-15.4037
-43.1008
-47.489
-51.9865
-8.46526
-7.39976
2.20155
20.2132
-5.53546
49.8732
45.3007
21.1677
28.6479
23.0218
16.1795
24.3138
39.2191
-16.9401
-30.2704
-36.8923
-7.35479
11.7754
3.05907
13.0227
41.1713
1.73175
-16.6318
-42.5726
-32.4448
-53.3785
-63.846
-51.4318
-27.3399
6.58658
12.3293
-26.329
5.35243
67.2469
69.8183
59.168
75.8471
78.8409
62.8556
-18.3999
-48.9731
-24.8065
-19.4779
-26.9494
-8.04622
19.8727
15.8874
-8.47488
-13.0454
-31.0478
-32.1822
3.49012
-7.21296
-9.73972
11.3302
-12.108
-75.0403
-69.9007
-48.5358
-9.90981
-2.86303
9.77472
18.8378
38.7707
39.1561
-12.9034
-7.45179
22.2036
31.7074
31.8872
19.9169
26.5904
18.1165
-11.4775
-32.7631
-18.3338
15.8573
1.3577
5.96011
47.4259
19.8336
12.2951
8.65531
-9.40992
-11.4236
2.31902
11.7406
45.278
14.78
-31.3243
-29.2368
-32.5706
-23.5909
-7.65144
-17.4362
7.79695
-31.0209
-43.6763
-12.4505
2.88552
14.0211
24.0145
13.6686
3.39334
33.773
0.0635013
-33.386
-38.1594
-14.2386
11.9061
12.5107
6.60827
4.87826
22.3339
13.7476
10.2903
-0.230207
-27.029
-36.6286
-40.3758
-16.7679
-3.17553
20.1186
53.1895
25.0063
19.6725
33.0029
-2.74267
-15.84
-3.11769
20.2901
49.1416
39.3628
-11.3978
-25.8145
-41.902
-2.30351
11.4471
3.71776
20.4508
12.199
3.98938
-7.04255
-45.3795
-47.7418
-26.4666
-19.9781
9.87352
10.0619
-2.24304
-27.7713
-39.8385
-27.9443
-13.6226
-22.8851
-9.44614
17.6165
20.1687
31.4701
15.8854
21.6869
11.0537
-8.24541
2.3067
16.5959
11.1682
7.60263
-1.85991
17.2297
25.4479
20.8244
26.5485
31.2258
-2.09203
9.92998
-5.05693
-1.1787
-3.79695
-26.9116
-8.17368
-4.34804
-35.9817
-10.6055
5.49432
-5.23723
-28.2126
-17.6597
18.7839
42.2677
52.8365
10.4312
-6.74521
-10.113
9.01065
-2.29701
-13.5986
-3.72194
35.9205
3.56409
-21.7321
-21.8478
-4.26156
-17.642
-35.1857
-33.7304
17.2594
33.374
-19.9196
-32.662
-30.3931
-0.0642621
-10.0745
-18.4459
-8.68244
-5.29431
22.2937
15.9712
-35.4489
-23.5197
-36.813
-27.3002
23.2453
51.321
74.5807
68.1399
21.4132
-7.71892
6.9619
4.11937
-8.6194
-9.94061
-2.68566
15.5468
-14.0571
-6.60908
-8.37087
-0.578821
35.9301
46.5013
41.1646
37.4133
-24.1884
-44.403
-55.8983
-31.8987
13.6168
23.9156
40.0719
-22.0597
-34.3256
-29.5182
-46.8908
-56.3284
-12.8867
6.85146
17.7155
56.1558
28.4873
5.66861
-12.5204
-20.6588
-5.09442
-9.76838
-20.9873
-8.71914
21.7809
-20.8821
-26.9108
20.6667
28.9945
24.348
27.5133
35.4698
40.9203
-0.0654312
-23.7042
-48.819
-34.5856
-8.64171
3.96026
1.16313
2.99756
26.5657
26.1854
-13.1702
-18.7472
14.1776
7.70273
15.3293
17.8537
38.6845
8.82765
-20.361
-13.6822
4.27468
-0.0401063
-20.5839
-15.4127
8.27253
-33.2017
-34.3865
-15.7394
4.45916
22.7559
25.3931
22.123
43.4853
21.5593
-7.62782
-5.52964
-15.3978
-29.2763
-30.0649
-29.2186
3.89159
-11.385
-77.3862
-64.5897
-43.6072
13.7806
53.4182
102.868
143.502
70.8759
-18.5162
-42.3446
-63.1788
-54.1234
-35.9312
-35.3564
-20.9293
-11.8445
-1.01897
-2.69541
-14.9338
-3.02593
61.0323
83.5074
71.3271
46.0458
-3.91089
-34.5144
-87.595
-59.3685
-3.60024
8.27982
37.4866
-0.601701
-2.70978
-2.71811
-16.7838
7.36251
17.0346
13.8961
13.7563
40.81
43.92
7.6512
-9.39817
-2.75963
0.423568
-16.9083
-41.8145
-29.8947
13.35
15.8269
-13.2222
-30.3178
-21.8112
-7.22485
5.66079
14.1183
7.5648
18.3053
39.722
-0.366938
-30.7379
-12.5007
-16.8263
-30.8644
-24.9148
-9.88166
11.9987
-2.17019
-0.207333
23.0249
26.1539
44.0708
36.0673
31.3998
45.2657
13.0311
-13.7712
-27.8919
-43.137
-30.9491
-5.96346
15.3578
9.0574
-28.403
-38.3387
-49.4228
-57.7044
-29.6244
18.7421
48.0891
42.1801
22.6618
-13.8146
-19.1485
-26.8888
6.95156
19.8045
12.8557
10.2324
46.4996
-1.72116
-36.1969
-32.9132
-1.13912
23.1527
17.1045
17.2397
49.096
8.25131
-11.5769
-24.2426
-23.8083
-4.69714
-17.566
-16.4766
5.41923
0.594965
31.3492
56.6671
59.1478
51.4482
7.58384
-12.0413
35.474
-3.85258
-83.902
-78.5068
-64.1375
-49.0995
-52.1036
-34.6273
13.6856
80.246
47.2435
0.295457
-10.5069
-7.8782
-15.1515
-30.026
-55.2432
-11.7761
38.9455
46.9894
-16.6221
-2.92434
50.8564
55.7422
35.5016
20.7471
11.2109
23.5817
-2.70738
-26.9798
2.39473
17.4104
3.76971
2.83608
19.308
-2.0521
-32.6141
-41.0532
-39.6555
-29.8697
1.4335
11.6077
49.4003
4.02524
-17.1976
-11.0935
-17.3097
-23.8624
-3.92101
0.605716
28.0378
-0.610005
-11.7342
-6.31429
-26.888
-35.4808
-21.3559
8.03698
38.3736
25.5308
20.4829
10.1867
-4.65594
4.57124
2.27606
-8.37483
-5.88679
23.1955
14.0936
-15.0744
-17.2802
6.08824
15.5755
14.2734
-11.3898
7.18936
33.5668
-24.145
-55.6629
-28.124
-9.28003
-8.73481
-23.5536
11.3361
68.086
41.426
12.0058
-10.1482
10.7269
6.59281
-14.0038
-9.07231
-6.16943
14.8175
-4.21614
-23.3701
-27.334
9.48227
-0.765257
-13.9334
-3.60255
31.5525
30.9769
24.3406
-0.819782
8.13567
5.6722
-15.7503
0.608725
2.6827
-35.9532
-37.7752
-24.4675
-11.5167
-5.2225
-11.0312
-12.1613
-0.169664
19.8456
17.7031
-8.13534
-3.94232
39.6274
26.3817
-33.8374
-40.4281
-4.00664
29.4387
3.91256
22.3491
37.7163
25.2847
9.60678
-1.62585
42.2005
40.3554
-18.2857
-21.1848
-24.2253
-15.6074
-2.96476
-14.5789
-3.99245
-28.2599
-35.6323
-17.1345
-24.8695
-28.9483
-3.12823
22.2663
75.8176
22.5361
0.87869
-22.0328
-36.8066
-28.5947
4.4502
17.6567
33.0235
13.515
2.93103
0.568447
-14.1276
-4.97652
10.5395
10.4589
8.07391
19.7358
-0.150773
-52.847
-58.3298
-4.60429
17.4824
18.6393
11.388
3.83427
23.4792
27.1682
-18.5659
2.13896
36.3647
30.5981
-1.7049
4.20471
5.72231
9.83286
3.0306
-32.7207
-19.1677
-10.2582
-26.1699
-17.4205
-19.603
2.24409
11.7621
-15.3635
-14.4352
-9.44131
5.38775
7.85507
1.08288
23.6903
35.682
-18.3775
-22.2544
-29.8219
-18.6991
4.35017
6.9575
31.678
28.5239
10.8767
9.09587
-11.4604
-19.4548
7.69509
12.3987
11.5533
31.4449
21.1703
-40.5604
-61.3298
-49.7448
18.9809
59.2497
56.3358
55.3904
20.2274
-24.2952
-36.1948
-31.9153
-10.3939
-0.741202
-2.88973
8.45156
-0.605549
-22.6928
-30.675
-34.2294
-22.8957
5.18814
7.54633
19.5287
-2.13869
-20.3058
-5.41424
-12.6191
-6.17917
10.6752
7.25304
23.9998
53.7727
-7.18603
-27.4997
-18.402
-1.54138
15.3896
24.6762
31.3723
38.9343
29.1255
-0.871346
-13.0646
-5.2258
-1.68428
-20.0215
-32.861
-18.129
-2.97145
46.6137
13.579
-27.6173
13.427
19.9826
7.04183
6.31933
-23.8592
-41.3888
-44.1767
-79.8552
-7.18386
64.577
93.1554
59.4068
-3.60568
5.17911
-9.89586
-23.5636
-10.8153
-32.6581
-35.9279
-27.9802
-7.9429
21.3952
-26.6935
-24.3016
-2.91129
1.27633
10.1015
38.5487
23.2983
-3.92799
-61.8278
-54.3331
-14.6935
-3.28726
14.0222
8.85615
16.0105
26.7956
6.54075
12.6262
28.4833
38.2393
48.7499
32.597
31.2601
33.8642
48.3754
29.4199
-35.4467
-46.6231
-30.047
-7.31421
-3.97594
-17.0661
1.42083
14.3778
-41.8189
-49.6318
-23.5579
-14.7588
-16.2708
-22.7789
5.5393
35.6365
35.3524
-6.64623
-43.5111
-33.4597
-8.83585
-7.78568
-5.24794
4.74404
27.2396
50.7408
2.04377
-13.2928
10.9946
-1.15526
4.84591
8.64892
14.7623
8.03308
-20.7598
-30.4201
-22.3883
6.09708
9.65506
11.0329
54.8655
66.6112
-12.048
-38.9496
-46.5386
-45.3152
-11.8076
4.47457
20.495
42.5292
67.6441
34.7059
-12.2741
-23.9651
-13.73
-13.9634
-19.4441
-14.8859
-0.570297
5.44758
-35.2972
-43.918
-0.856671
14.3459
18.9238
10.2933
37.4061
31.6118
-15.5831
-42.3603
-45.3481
-29.4753
-14.015
0.357781
31.1012
36.3176
5.99837
6.96207
-5.6166
-4.31447
-3.58758
-17.92
26.5351
45.9142
15.9966
17.8504
8.74596
-7.99393
3.91512
-1.83063
16.0973
-2.119
-7.36923
-15.0656
-24.6365
-27.3333
-8.75748
-3.24598
2.21849
29.3137
19.0624
-18.0262
-19.912
-21.7581
-5.33514
-8.75059
-16.0957
-11.5661
20.2863
33.0777
6.81622
-26.6895
-18.5996
-10.9014
-8.72698
-10.2551
18.6176
38.8591
29.7496
-48.3201
-19.2349
30.5684
29.5843
20.7387
20.9238
15.5009
0.00984879
-8.99143
0.812387
-9.34709
-20.6782
10.5071
23.0299
37.6152
-15.4324
-52.943
-38.1656
-27.5685
-18.5609
15.1015
23.7741
28.1364
25.8587
-4.58273
-34.6853
-31.3692
-17.9907
-2.67206
-0.851417
0.0709895
15.8765
51.0934
-12.7438
-33.0956
-0.887975
25.1282
12.5462
-5.43896
5.9963
30.5341
-6.55765
-16.1835
-10.8662
5.78268
19.8959
17.3849
40.5229
38.0973
-10.9384
-27.488
-35.8859
-33.181
2.27963
7.48088
28.8411
15.27
-12.7035
-23.9524
-29.7231
-27.9962
-7.29399
-13.559
2.72828
16.6697
6.82652
-15.8224
-29.0942
-24.4067
-0.4743
7.06447
1.57751
3.31432
44.0453
26.2328
-14.1065
-16.1529
-16.8946
-9.19892
-5.22622
-0.621853
6.62276
27.4075
27.1517
-6.86284
4.17239
20.8269
22.8783
27.9523
26.3171
13.5483
20.9507
15.7869
-32.6976
-25.1446
-14.8864
-5.85001
0.17543
5.40526
26.0045
25.0687
-4.28936
-38.5043
-64.5521
-39.7718
-16.6816
-5.01071
17.1446
48.011
3.99217
-6.34756
-19.6821
-34.0072
-13.5236
-5.30359
28.5739
27.3978
-18.4629
-15.9258
-29.3196
-28.5275
0.713277
25.8784
47.3938
12.5455
-14.4405
-10.6715
-22.4491
-28.0953
-6.16319
-6.30655
5.10668
34.1354
59.7818
34.5945
25.8589
19.4399
39.2684
30.8846
16.9891
2.53186
17.0598
-0.0594427
-47.8775
-27.9471
-12.1824
-15.6718
-20.2733
-21.135
19.836
-2.28167
-22.5956
-41.093
-37.3128
-12.9294
-9.71424
-3.55734
7.48861
8.0009
23.4596
2.02017
-20.5909
-15.4302
-7.45538
9.32945
23.5322
21.8976
25.9827
-11.4667
-24.3156
0.637331
4.30532
-1.54948
1.34745
13.1578
17.003
0.482588
-3.25294
-21.8724
-26.1796
-8.20683
1.52846
2.7419
11.2788
32.2515
44.4255
-5.87597
-27.6225
-13.2503
3.97111
17.894
19.6198
34.1631
13.5825
-11.2704
-21.8334
-28.5941
-17.4924
-1.59634
0.990986
43.5003
3.44229
-41.7617
-18.6535
6.99959
-11.3967
-4.81017
8.24862
50.0206
27.0566
-9.2343
0.168031
-10.4203
-23.8009
-18.4372
-11.4059
28.1973
5.94815
-6.35562
-12.8551
-36.1983
-15.1203
11.4825
0.833549
-5.36647
17.9628
4.66899
-11.7865
-26.7402
-18.2824
2.15007
-1.71875
0.577481
30.5412
60.4912
-2.51633
-20.5679
9.76329
27.8719
16.8784
-2.33717
-12.7527
-1.06137
31.1193
11.7835
-32.5937
-4.91666
-2.00795
-16.597
-8.33804
-2.47463
-5.09615
4.78456
-11.9558
-20.7816
-4.83599
-5.18269
-2.4219
-1.80664
20.2243
37.8266
24.9418
13.5718
-26.3983
-35.3539
-15.4736
1.25335
22.9737
13.8129
-27.6817
-17.6695
-9.75421
-11.799
6.70365
9.93981
34.5704
29.1757
19.3914
-13.2732
-61.455
-51.1282
-8.58953
9.56274
6.22233
0.210501
22.2241
26.2708
-10.6403
-4.63255
21.4726
18.3499
2.36168
0.845178
13.1373
-11.9568
-6.39204
15.2059
33.7412
43.8722
27.7833
7.21112
41.1219
20.5885
-45.7761
-43.5237
-36.2714
-24.2956
-9.79296
-12.4451
0.641075
-18.2793
-26.9913
-21.6192
-38.8542
-38.695
-27.4162
-20.5768
10.0584
57.0486
38.1197
24.3975
-5.54407
-3.50311
24.6575
11.1282
-3.25359
21.9199
15.3566
-15.3037
-14.2371
8.0063
20.8458
16.6479
11.0197
21.0042
36.4615
0.377332
-41.6791
-46.4005
-9.30079
-10.3003
-24.2804
-32.7519
-17.1428
17.7634
6.07829
-9.78002
-0.361395
16.3566
23.722
32.3869
50.9023
42.5436
0.115709
-7.688
-22.9505
-24.9398
-34.1224
-54.5955
-31.0596
0.162557
-21.7398
10.7374
47.9437
48.0473
41.0149
13.8259
18.0442
12.517
-31.9426
-37.2728
-38.7912
-32.4734
-7.19372
0.62681
7.77397
31.1152
46.377
-18.5292
-28.0987
-28.5525
-3.8955
0.0657414
-4.26218
-10.5023
29.0104
13.0372
-5.4891
4.084
12.1559
1.49534
1.88647
6.33903
36.8259
1.6186
-11.4718
-8.93151
-10.7747
19.7446
19.1046
18.7956
33.2201
17.8577
-8.41748
-38.6643
-53.0633
-23.7836
-11.1741
-14.4585
1.37909
19.958
16.1711
-21.9861
-28.2034
-10.8927
-10.7313
-8.00772
-7.72784
24.4666
21.0312
-2.78337
-7.59708
-0.998323
12.0003
21.0184
11.1573
29.2527
44.9793
3.88155
-37.4193
-35.1616
-25.8088
-2.32259
-2.71097
6.36364
5.62091
9.7789
7.07099
-0.0905244
22.8752
24.259
-2.90376
-16.343
-9.89315
6.99936
-27.4204
-60.9565
-59.4331
-12.9126
30.5982
38.9761
38.6768
69.0551
52.9013
0.619796
-7.1723
-20.7512
-26.5919
-29.1769
-37.3703
-16.649
-12.1125
11.6773
22.2259
19.0471
32.0768
24.6059
-0.344663
5.4177
-20.2283
-36.4637
-31.2522
-36.315
-37.7821
-2.13614
28.2863
63.7272
49.1753
15.7342
-22.5951
-28.1267
-3.91133
-6.2791
-9.8194
-20.353
11.8193
45.8183
0.171232
-17.2732
3.25096
9.36658
-2.74061
-12.3233
1.69409
9.30006
0.650258
-22.3624
-34.5229
-8.19777
16.8753
18.1968
25.523
10.8841
15.0964
4.5261
-32.4037
-35.3232
-2.06652
14.0275
26.5486
29.9694
28.4865
-20.4913
-31.7485
-16.1265
-8.77522
-7.32552
17.9089
26.2205
21.6954
-16.5845
-16.0466
13.6698
17.5414
-1.92426
-32.4434
-46.1099
14.6937
47.6532
9.80731
-42.684
-35.166
-6.65514
-2.6286
-2.0591
-2.15374
17.7574
25.1186
-18.1482
-12.2463
7.36306
4.62125
-10.3959
-25.9944
2.50203
7.973
-6.33531
-17.3029
-25.1551
11.4492
45.1065
47.4218
61.0017
28.492
-1.89382
-5.30247
-14.2017
-13.8784
1.61481
-0.752615
12.0357
-18.2584
-35.214
-36.2359
-32.8187
1.36498
17.9731
11.913
31.8641
35.7828
-7.42983
-24.5662
-23.0705
-3.37091
22.3285
18.3815
-3.58141
5.48165
15.7887
-17.1325
-39.906
-17.4442
6.92394
20.3565
26.3059
42.1687
41.2103
35.2408
-45.8614
-77.6995
-43.9462
-35.2392
-33.6686
-17.8726
-4.01971
5.30623
21.6538
-15.5947
2.15636
26.8814
28.4058
30.5187
24.5064
23.8833
11.1828
-25.176
-31.5347
-38.4705
-9.92541
17.6982
39.5813
73.8974
36.9923
11.7868
0.704046
-19.1193
-27.0974
-7.75645
4.88851
33.3906
-20.2707
-44.3418
-45.2425
-37.6615
-31.1359
-16.4755
2.02574
38.2535
38.007
1.77661
-34.8996
-54.5523
-21.9702
9.28925
25.439
22.2028
23.2748
39.2354
-25.9557
-49.4031
-6.40717
12.1081
20.4557
22.2067
34.0014
30.2639
-14.0059
-39.0815
-20.8923
3.93052
31.5966
26.529
46.2941
81.7537
38.1923
-38.473
-49.6745
-52.1563
-21.3725
-14.3144
2.71146
26.0698
29.0757
-21.9141
-28.7704
-12.9485
5.62891
1.95218
8.13952
37.5448
36.1307
-23.5963
-43.1485
-72.7532
-42.1242
13.1506
18.4178
19.3123
28.5221
26.9494
17.2491
-28.4162
-37.7939
-10.6917
-10.7018
-0.0955095
18.5591
30.6441
36.5235
-23.6097
-23.3294
2.64555
-6.53704
-22.9811
-26.6943
-1.05299
18.0658
-11.7301
-12.4989
-12.5162
-7.79704
8.05886
3.392
19.6629
36.4922
0.962226
-1.05056
0.648638
-2.60754
15.5742
12.5012
29.6589
41.003
-8.8957
-18.0157
-14.7881
-18.1256
-9.97493
-3.58491
28.1879
68.891
21.7867
4.65895
-4.5912
-26.8142
-3.89226
1.89941
-8.24101
13.271
31.4593
3.50672
-73.0896
-78.7633
-32.9904
-14.3577
-8.31339
-13.3844
-0.907442
19.2443
2.31051
-44.7403
-11.3335
6.76578
7.0176
6.81397
16.1293
19.7028
23.2048
11.6085
-33.8325
-18.6279
20.6931
27.7704
47.8412
55.3384
51.8982
34.4032
-13.7156
-19.565
-22.928
-10.4283
6.96819
12.5317
38.251
15.7911
-34.2808
-38.9911
-46.4213
-58.9454
-32.8103
-23.9418
22.858
33.8384
-5.2831
-15.6586
-16.707
-15.4014
11.2074
9.66696
17.9944
32.2356
23.1418
-35.3722
-61.5809
-33.8982
-6.03654
-5.81524
2.22979
30.5388
83.4145
18.0936
-12.5546
-13.1637
3.93836
0.724794
0.523065
3.98501
28.4149
-13.3044
-21.2271
-10.0414
4.2818
44.2473
38.0078
18.2135
22.2899
-0.664935
-5.1252
-22.3038
-35.3059
0.422651
6.7203
14.966
11.5803
-2.74269
-6.33475
-18.8764
-27.4964
-6.65909
-4.22577
22.5289
17.8668
-39.4186
-47.025
-36.2025
-20.013
-8.42189
-10.3005
-17.6179
-18.083
38.4936
25.5876
-26.3646
-4.44075
16.4268
19.7054
28.9252
28.2782
45.3883
42.6851
-18.271
-30.7735
3.07184
10.1082
9.36985
1.78305
-5.83067
-0.707444
30.5079
9.92527
7.45288
28.5062
27.684
-3.45889
-20.232
-30.3752
0.611759
-31.1862
-45.4462
-44.3418
-34.3581
-25.3284
-11.5523
21.786
64.2634
29.6613
11.794
-1.25286
-24.1412
-13.5925
-23.7743
-32.2153
2.94389
16.7662
-23.7577
-29.9231
-49.2341
-4.59234
32.6021
37.0149
46.031
66.1947
100.136
25.1969
-58.1647
-28.8205
-2.003
0.196125
-7.63927
-4.49061
11.488
1.41136
-40.9183
-29.915
6.33919
20.3292
16.8045
12.297
22.7956
-3.30173
-27.6414
-35.2037
-34.9272
-4.68533
9.36437
7.60021
25.558
16.1289
-22.497
-25.7078
-36.7437
-20.9555
-1.15384
-0.27429
30.4394
47.8532
25.5671
-17.8529
-30.0026
-12.9586
2.98781
1.69643
5.35077
41.4251
3.45093
0.984539
5.98781
9.88405
15.1559
13.5257
4.82142
33.5004
65.3344
11.7729
-52.1854
-69.7107
-51.4411
-15.0087
-15.1943
-16.7689
9.54171
29.835
-19.0449
-39.7139
-15.4609
-6.73693
-8.79669
1.81067
39.8062
64.7849
34.1258
14.5995
-13.5519
-4.77497
14.17
6.71333
4.09527
17.0286
-25.1532
-21.2218
-14.4463
-6.93096
7.98004
-0.143733
33.192
54.9823
-7.05889
-34.4906
-50.7941
-66.4377
-58.0786
-56.6076
-36.4315
11.6363
24.6513
11.7864
20.8721
16.1816
27.0565
22.9841
11.549
-4.91029
39.2555
49.7085
4.03219
-10.0418
11.7724
16.8295
18.4227
24.7797
56.5074
48.7254
-1.68106
-29.2228
-35.5899
-11.7652
-15.0439
-18.9832
-20.5843
-15.5288
-7.10883
-25.5327
-51.508
-45.3657
-20.295
-20.7297
0.457252
22.5104
55.8497
1.14787
-30.3386
-32.6638
-10.2132
4.60817
11.8119
22.4358
55.7517
6.99124
-18.2739
-9.7985
-8.66095
-2.57802
3.21259
20.6983
52.0682
47.8465
3.47664
-15.9017
-44.2356
-15.1867
5.46439
6.11871
21.9296
34.3985
56.5954
5.00939
-28.0704
3.19906
22.1826
10.303
-20.7273
-11.0533
33.261
-51.0492
-95.3506
-80.0947
-39.3727
-10.8466
3.00501
22.5722
50.2921
-4.35875
-21.3576
-13.6226
2.91049
36.5252
31.8022
24.4774
25.4928
-8.19235
-9.73752
-10.1085
-30.7989
6.7396
31.6664
37.3916
66.3716
3.96738
-36.2509
-28.7134
-33.7291
-4.10024
2.66994
-7.05342
3.9175
10.7929
-37.8116
-27.749
-15.7434
0.217735
-0.930878
-1.1067
-5.46461
20.4003
40.9539
-22.7854
-32.3013
13.138
37.5409
45.2961
35.4004
35.2884
64.2068
20.2551
-47.6511
-79.5718
-39.2328
-21.6075
-8.63785
2.92214
7.88749
24.3957
-2.44707
-30.3304
-30.7854
6.072
8.27449
8.4268
10.4077
7.6861
-43.7472
-32.5831
-22.5858
-3.97161
2.97334
20.5177
51.2383
50.8645
-0.777843
-18.8036
-10.7034
-15.0036
-1.03641
16.0732
12.8585
48.4393
31.2933
-27.4957
-32.5671
-30.6862
3.69025
12.6092
-5.87975
-5.4909
24.6187
41.3834
-17.4395
-28.0823
-3.32111
9.99214
14.7388
10.0716
14.0045
15.0948
-34.0912
-54.6379
-40.5164
13.2563
18.1102
-5.15203
9.06354
3.19391
-10.8013
-5.56087
-16.3504
-21.4696
-1.8845
-9.47254
7.06775
36.9739
3.43912
6.49854
15.7404
10.4448
17.7584
-2.23215
-12.1912
12.9967
24.7809
-21.4658
-22.4674
-6.16431
2.72284
10.1681
1.40961
8.51505
59.1008
28.0121
-37.804
-46.4172
-20.1379
-27.6343
-44.6696
-32.3099
5.67381
35.4676
20.1439
0.111877
3.54445
32.9862
24.5835
6.82665
-2.22042
20.4059
37.1972
-23.1046
-46.7015
-20.3419
14.913
0.689382
-1.5166
19.927
-6.43366
-22.1052
-7.46021
-2.05962
9.92032
12.3851
3.35908
19.8579
-4.17834
-7.9648
-2.87989
-20.762
-23.2601
5.23405
6.82302
40.938
16.6802
-11.6002
-8.05525
-26.7501
-18.0575
-1.32845
6.64999
35.1724
58.1256
-9.45454
-45.6708
-39.6008
-22.5889
-21.211
-8.91589
0.99786
4.64807
23.48
-21.5542
-31.7771
0.901782
10.3457
14.3068
7.77955
21.599
41.4224
36.7409
-42.1828
-66.4309
3.32069
31.6937
32.1356
48.8046
51.9709
45.4897
21.1384
-24.4274
-32.1535
-14.8308
-23.4932
-29.9999
-13.2399
4.96592
0.878515
-12.1133
-18.7095
-21.3077
-7.03833
-13.39
-9.28034
22.0256
14.6146
-25.5516
-23.5511
-16.2331
-4.84994
12.6845
27.4325
35.9375
50.077
38.0929
-12.0793
-45.2617
-32.0456
-8.11067
-6.23205
-10.1173
3.72186
34.9948
44.5989
-22.4061
-25.0203
-2.36121
2.24393
-10.3778
-15.6278
4.89764
8.61089
-13.0349
-17.4292
-7.44837
10.741
20.1241
20.4562
45.5865
8.54386
-4.80385
-3.15546
-15.2977
-21.8794
-7.86093
6.79519
29.0372
-12.2479
-15.6077
-8.08413
-8.4256
-11.4695
-3.78521
-11.4404
8.00114
17.2654
-1.36767
-6.36809
-22.3165
-10.8892
-3.8818
7.95855
36.097
8.55926
-17.6378
-13.3831
-9.39967
12.2002
6.54488
5.10147
4.89601
26.7133
37.1078
-25.5401
-26.568
-6.69917
10.3705
20.3274
20.6614
34.7744
46.2276
19.6497
-56.0981
-63.103
-27.5147
-17.853
-23.4775
-10.1635
-2.12212
14.9931
5.13753
-48.9933
-25.9145
27.7777
38.7001
35.6813
25.7467
23.0498
-3.42148
-44.8464
-44.2781
-30.099
-0.9473
25.7695
44.1053
52.9116
20.1088
-5.86049
-11.744
-17.6873
-10.9314
10.4497
7.46873
25.909
7.41983
-23.9732
-13.6643
-22.6764
-29.9394
-16.5673
-20.3501
-2.48335
34.4226
29.1785
-13.8125
-21.9655
-4.5844
10.7969
9.11417
0.200014
22.1341
7.5501
-14.977
-16.7588
-3.65573
9.59197
-0.816529
-2.62952
8.77267
0.445549
3.18209
-4.04231
-8.42052
4.95843
19.4885
8.41418
33.9623
3.64163
-17.9391
-22.4164
-25.6605
0.889594
9.68422
-7.84374
-10.7037
23.4056
21.0239
-23.6246
-29.7377
-9.55516
4.10382
12.544
-0.24068
-5.10503
34.0226
23.7986
-12.2989
-7.74932
25.2583
35.7269
17.1478
-4.27217
-12.37
-5.32439
-1.70691
-41.4301
-37.8196
-17.5331
0.474452
32.9608
27.8757
19.8888
-4.40207
-30.6579
-33.4816
-34.1312
-30.5502
-11.04
5.73542
40.8442
-9.01277
-27.2914
-10.0595
7.8285
14.4085
29.3021
28.1919
61.9881
10.2965
-6.18387
-7.94135
-4.63897
5.9192
13.2224
21.8366
33.8182
2.06648
-9.54529
-19.2471
-37.5775
-13.724
-4.02939
-7.6408
2.99785
-6.16496
-38.5095
-40.682
-32.0776
-13.2845
-14.8521
9.47626
22.5612
29.6536
40.2688
3.29685
3.07574
23.2388
25.3113
4.383
-18.344
3.36728
41.8101
24.1131
-52.9226
-49.1245
-14.2183
-7.21131
-17.518
6.34559
16.3266
27.7396
3.25964
-45.2148
-35.2111
-13.5163
-11.3636
3.09435
16.7088
24.7448
-0.9636
6.40848
5.95566
13.3742
31.2019
17.8798
25.3297
50.0004
20.4853
6.32794
0.730067
-29.0781
-20.7136
5.3033
-4.36753
-3.74171
-1.21604
3.18932
-24.9641
-35.3087
-23.9045
-27.9348
-28.6918
-18.8008
4.2731
44.4589
47.4591
5.55399
10.6176
3.28071
-14.3371
-26.1528
-7.85071
31.8531
9.58405
-15.8961
-34.4291
-19.9462
9.25048
5.53949
15.221
20.8557
-10.1774
-12.1544
-6.7917
-26.1831
-7.54119
27.9905
44.5685
35.6997
6.88851
-0.810993
-14.3881
-22.7632
-12.2859
7.72092
30.2818
9.59932
-11.7358
-13.3157
-15.4296
-16.021
0.0663004
8.28133
16.3736
43.3048
57.0147
-24.3326
-84.5113
-56.7681
-13.4109
0.18177
-6.05988
-10.3376
14.0138
24.7941
-18.3762
-20.2839
5.60608
12.4558
15.9293
16.8418
23.2249
44.0912
34.5557
-37.3501
-56.1725
-23.318
3.70975
12.0826
26.1962
41.3993
18.4815
-8.13489
-15.0874
-28.8083
-14.1191
-2.55179
6.22648
28.0437
38.1485
8.46788
-1.86318
-23.9828
-27.095
-22.0577
-23.1707
12.6791
16.9037
-17.4674
-23.7998
-31.2561
-2.80125
11.0959
14.3676
51.8844
36.7823
-6.17295
-13.5072
-18.6013
-28.2647
-22.9846
-11.9629
6.39023
40.6775
20.2547
-2.81205
-17.1734
-8.36222
13.7622
7.33946
-11.2047
24.6525
-6.93082
-27.4935
-34.2829
-13.2136
19.4988
25.9422
21.6496
23.3759
2.69955
-3.04672
-16.4219
-27.3649
5.85303
5.94602
5.16214
25.0263
2.50213
-6.03757
5.10818
-17.0909
18.3881
30.2858
0.166789
-0.556336
27.2793
45.9761
7.18324
-34.1048
-15.486
-17.6798
-24.5314
-27.3701
-5.13914
39.7229
3.41885
-45.5189
-31.6977
-15.0826
-14.6754
-23.3194
-16.8248
-11.9111
16.2628
6.64458
-16.1018
-19.0288
-5.09025
8.70013
17.4423
31.173
47.1548
13.499
-0.56263
-21.064
0.520839
19.3978
23.7109
39.8975
36.5088
-22.4579
-18.2521
-3.15119
-2.97581
3.56694
0.00262663
16.8294
-5.41936
-43.2867
-31.702
-24.3981
-21.0126
10.7524
34.853
44.7071
6.5469
-3.29322
4.71431
-15.1358
-17.8989
19.5758
20.0808
19.4113
24.3274
-16.5626
-31.4188
-47.3726
-37.3859
-12.0914
-9.91944
-3.58763
-6.24937
0.863296
-7.14843
-54.8
-24.9319
1.90469
20.212
19.3778
15.5835
44.288
51.7117
35.1401
-10.492
-6.38413
-10.9752
-24.2222
-12.7897
20.198
40.0131
71.517
73.9239
8.81472
-0.170344
-3.14745
-0.387496
-11.2274
-23.108
1.05706
0.244123
-44.1765
-51.7066
-54.2413
-42.2727
-13.726
9.48066
47.1771
53.3869
-16.0735
-37.5644
-54.8451
-54.7148
-22.9327
-18.3537
24.3577
39.8514
2.53386
-2.25127
-10.2879
-8.40181
7.4583
9.60057
21.2392
39.1695
46.8231
0.284963
-12.4517
8.02939
34.5807
25.6684
8.17334
22.6949
20.6587
-20.2394
-32.0824
-38.3024
-5.01482
7.60345
7.21232
24.2133
-4.00296
-22.9987
-23.8857
-28.8034
-9.74945
31.4803
20.9521
19.6982
13.9026
-5.30667
-24.878
-48.1699
-33.7255
-1.3175
24.7044
54.4272
8.39384
-0.376121
5.58602
-16.6315
-8.76207
-1.71144
-7.89601
11.005
6.13276
-33.9061
-49.6642
-41.3068
-3.17453
18.1707
13.0241
1.12389
14.8994
19.5217
-30.5022
-33.4661
18.2685
35.3228
23.8943
12.8432
27.9628
51.9834
13.8759
-23.3289
-29.6642
8.8394
15.911
-0.172525
2.78168
1.03586
-5.39827
5.86715
-4.5186
-13.966
-7.41585
-1.20303
29.6703
7.00007
-32.0199
-32.7079
-28.7987
-29.9988
-11.4111
-1.10206
26.7517
42.298
-7.96562
-14.7291
-7.47499
-7.58875
-4.35345
-4.74019
4.79803
27.6743
43.901
-6.87938
-25.5523
-19.0053
5.71516
15.6394
19.863
12.5196
21.4937
14.4533
-22.5315
-23.9082
-1.31687
-9.08342
2.66588
12.7599
36.4949
44.6266
-15.6788
-27.8905
-31.6139
-12.911
-4.86638
0.48727
12.6613
12.9719
-29.0387
-35.9585
-23.6859
-19.6085
-12.8975
-9.60895
37.0107
55.3969
-12.706
-30.3197
-26.8078
-23.0714
21.6133
36.7405
54.628
84.1986
46.3246
-37.754
-56.447
-52.0491
-18.2891
-11.8599
-19.8484
-9.81923
27.1765
36.3274
-13.0937
-33.7952
2.94455
13.5735
2.7899
-10.1451
-4.00563
1.44227
-6.95763
-46.7996
-23.8309
24.2501
32.0118
30.1855
34.1236
51.1779
53.4197
-11.9347
-30.7852
-28.6985
-7.70904
0.907463
11.318
19.6944
-13.1766
-35.4431
-14.7005
-8.96488
-2.90644
4.6383
2.04874
32.8387
6.09679
-12.4399
-3.85923
-17.7405
-19.4491
19.8473
25.8442
38.4369
-4.47782
-44.0907
-28.0725
-28.043
-13.947
0.5895
3.90724
10.1452
22.7634
-7.03911
-27.217
-28.8545
-17.7714
-2.80544
10.6156
9.89237
16.0962
35.4118
9.75662
-13.2518
5.44798
14.8052
16.4331
29.0079
35.5905
48.0556
43.6142
-33.4322
-63.9728
-34.228
