-155.426
-74.0154
-110.114
-283.551
-310.865
-191.751
-87.0784
73.2783
159.823
-27.2002
-151.468
-16.4951
169.502
72.1966
-74.0545
-6.12503
-30.527
-12.3099
49.0336
192.199
240.68
106.142
32.0702
34.4697
28.5131
-13.9702
57.3702
45.9388
-58.7645
-43.1743
35.3734
41.044
24.2344
12.689
-138.561
-311.058
-287.606
-16.0638
98.5454
68.9771
255.77
229.987
-24.115
-108.84
-190.51
-305.841
-32.9999
251.289
259.685
7.55131
-94.484
57.4882
109.728
30.8954
-14.6977
43.8552
121.794
53.8854
-127.907
-249.137
-351.449
-270.191
-52.3234
179.753
357.231
392.111
129.941
-70.6201
-111.024
-104.381
-106.942
-133.451
-110.313
-104.404
-53.0498
25.915
22.7731
-39.6975
-14.7527
134.878
217.57
150.042
110.411
-68.2233
-234.554
-63.6388
4.91307
-27.54
119.12
138.163
51.1456
-118.548
-242.61
-271.674
-94.485
226.986
287.989
247.055
101.329
-141.707
-217.584
-111.924
-20.0287
114.291
291.156
224.065
130.66
158.949
16.7145
-133.49
-60.9526
22.3363
9.79408
22.6758
0.429584
-86.695
-192.451
-326.348
-312.173
-152.931
6.81642
68.7448
56.3335
-23.0351
-151.374
-143.586
-4.20597
0.548436
-5.892
63.4986
102.968
126.068
114.057
140.761
110.599
-16.6818
-24.07
-23.5179
-14.9802
85.8597
84.4527
110.688
160.054
15.4495
-79.6768
-133.704
-239.989
-124.298
164.737
300.663
188.071
94.9698
22.9494
-165.62
-242.499
-151.872
-61.2359
-26.4655
-15.3646
-9.96439
-187.258
-222.75
14.2642
368.016
451.052
308.136
61.0717
-278.863
-491.434
-285.237
-111.217
-23.2038
110.957
198.95
121.081
52.7259
14.2521
-163.517
-41.889
168.971
255.629
114.899
-59.998
-158.072
-158.422
-7.56742
66.3538
173.576
151.056
-20.6231
-44.1011
-23.5753
-39.5201
-42.6828
-52.4456
-121.161
-56.5709
183.645
190.203
16.2209
-63.2789
-85.9779
-87.6925
-81.2974
-76.6947
-151.33
-186.212
-213.593
-242.001
-237.489
-141.069
18.0212
171.854
333
461.396
394.104
338.099
163.862
-201.14
-389.452
-269.626
30.442
109.884
60.3409
-33.1159
-112.75
186.043
469.925
342.49
155.905
75.4618
93.2074
88.0387
-30.6657
-146.187
-245.329
-324.336
-306.934
-203.107
-150.526
-87.7638
-69.6538
-178.895
-47.7895
161.317
261.854
24.6371
-269.949
-232.487
-179.845
-91.6708
48.4139
29.8706
-17.7447
12.8314
44.1952
54.705
218.02
300.003
327.833
259.799
32.9977
-66.0131
-57.7854
-31.4019
-58.1193
-12.8599
187.59
121.982
-43.5644
-78.193
-225.437
-464.336
-205.89
161.052
171.948
87.5199
17.0221
89.1339
90.9816
119.423
191.245
200.754
77.2694
22.1728
-26.1725
-137.402
-170.159
-117.399
32.0072
-58.0331
-296.638
-163.052
-144.636
-263.982
-157.455
-32.975
-13.0757
144.587
294.261
174.907
70.4966
98.9029
25.5221
-44.211
8.3687
9.27797
-50.3999
-45.7762
-30.8075
-5.44914
54.7666
80.9971
-12.2837
113.075
333.484
180.099
21.6898
-71.776
-135.42
-136.017
-150.029
-123.678
-143.804
-235.626
-205.702
-66.0997
260.128
467.739
253.113
80.5833
-57.8939
-58.5813
107.012
-27.3324
-234.513
-210.905
-66.1323
30.7202
69.7275
29.6695
-15.8413
-141.917
-125.546
-76.2418
87.319
143.047
-35.8608
-163.337
34.5445
149.159
222.849
192.679
-11.6014
-55.2761
-149.654
-210.226
-152.092
-89.0143
-55.0388
107.481
200.24
221.292
187.473
159.317
83.8619
87.6738
10.8019
-39.4539
-127.578
-206.021
-162.236
-108.015
-33.1276
-48.5029
78.9827
262.647
215.228
26.4379
-67.9215
-129.886
-150.853
-71.1536
-9.82068
-35.6051
-121.594
-118.003
-85.8006
-60.2411
39.9103
139.158
133.412
56.3106
-18.1311
-94.8789
-120.945
-144.769
-98.0998
19.7348
15.2525
37.5468
124.41
129.692
59.0939
26.1978
62.8442
-27.4729
-149.717
-79.2515
57.9666
180.073
97.8466
103.607
180.62
137.88
87.8222
70.1807
120.026
42.1563
-74.1645
-66.5881
-44.6549
-24.4284
-86.8169
-104.468
-127.436
-102.783
-60.4416
-67.4534
-121.146
-159.153
-58.154
7.12508
-40.3283
-19.8222
39.2262
44.1335
-44.6397
-81.0868
-14.2451
-109.362
-224.265
-269.336
-165.975
133.713
334.205
362.455
370.472
329.897
207.919
107.003
93.0908
51.9998
-7.87186
-45.8301
-163.967
-252.782
-257.537
-166.537
-48.0573
97.126
188.9
212.393
172.337
-0.567344
-152.54
-200.849
-209.932
-122.178
-19.4264
-49.2779
-46.7115
-66.2892
-129.661
-39.8086
55.5599
82.2889
80.804
139.34
189.065
116.495
56.7111
31.5296
-11.0148
-106.518
-161.079
-62.0533
-4.43099
-26.0716
-13.1335
-14.512
26.2961
83.5057
132.695
111.142
71.4438
62.2668
30.8673
-75.8102
-155.235
-93.6689
-1.85754
-23.8855
-94.0225
-96.3033
-23.8619
-16.9531
55.4849
52.3687
27.3717
54.5124
-9.79042
-93.2295
-82.0973
-8.74444
79.5517
77.8305
-17.699
-53.5132
-2.70145
-19.7025
23.1488
125.9
168.842
131.946
109.969
117.809
-6.36729
-130.829
-58.308
-80.1532
-183.369
-109.249
7.25596
133.071
82.1497
-124.757
-189.69
-33.6845
173.314
200.602
95.8141
33.6348
44.0533
7.66845
-313.289
-467.994
-323.705
-122.058
103.943
-201.366
-95.4314
269.974
496.053
403.279
256.003
52.7146
43.1102
-0.730442
-144.79
-49.2696
116.644
204.269
115.527
-176.916
-484.147
-495.632
-280.909
-108.591
100.138
95.1217
142.004
86.6913
39.1156
94.3477
61.4253
224.566
356.818
293.935
153.07
49.9876
-110.42
-273.092
-258.646
-82.9314
32.0014
40.0084
-35.5875
-163.532
-309.602
-94.4215
149.395
66.888
-6.92298
-9.7214
8.18373
-19.9756
-92.2286
27.0726
205.868
188.569
100.656
2.22452
-31.0192
-9.66956
31.1
99.7435
106.492
23.9577
-21.0788
-161.65
-306.872
-335.058
-284.813
-93.2057
59.9035
130.263
156.704
136.577
15.6817
-116.388
-35.8003
136.918
197.562
100.776
149.369
283.059
3.87587
-203.847
-169.815
-57.317
37.0526
193.792
151.932
-102.507
-174.872
-112.814
-98.1792
-8.36271
27.1573
-83.6179
-47.38
31.0435
77.7373
15.735
-48.6708
-82.379
22.3086
189.548
198.624
77.3021
1.75729
-163.542
-172.896
-75.6626
64.9552
125.466
279.503
204.51
-18.5239
-91.979
-39.5922
65.4676
-37.7892
-114.111
-202.948
-353.417
-430.517
-322.873
-50.3256
194.884
180.069
100.621
129.643
216.058
212.888
47.4776
-166.809
-282.699
-155.116
69.2945
86.6923
-31.0872
-24.3198
154.433
329.303
297.849
313.004
296.699
171.969
-53.266
-239.089
-245.964
-235.346
-297.004
-287.977
-72.6169
71.308
140.142
160.899
101.33
15.6491
-100.155
-32.1012
45.6941
-71.2315
-89.5127
-8.42011
29.3185
25.7856
24.1711
43.3094
34.6782
-4.46838
-38.6221
35.783
345.43
323.06
21.7529
-308.871
-320.953
-150.505
41.9483
72.3653
-103.193
-202.426
-224.126
-150.893
-108.201
-101.184
-66.5051
-15.3748
65.3543
185.972
282.019
191.298
-83.7579
-216.711
-189.041
87.7449
160.043
96.4479
91.2402
73.3875
127.867
269.412
349.241
232.227
-65.274
-125.261
51.5678
157.768
107.268
4.00054
-84.4148
-91.9748
-205.796
-220.384
90.429
50.3068
-131.127
-229.589
-316.361
-273.946
-108.392
-12.2806
56.3204
217.077
221.742
-32.1302
-219.751
-263.775
-83.8085
29.2477
104.595
169.958
176.095
154.226
119.65
44.3932
-60.9036
-250.017
-318.412
-65.086
286.816
285.82
125.285
-0.064195
20.1805
12.643
-80.7885
-99.178
18.4184
119.395
147.23
18.0545
-89.4061
-48.5115
-66.187
11.7402
115.559
278.725
296.338
45.0132
-225.021
-379.656
-500.33
-566.273
-132.206
310.87
468.593
369.72
59.2559
-230.939
-311.122
-171.969
-76.7759
108.075
193.434
167.456
133.067
98.3121
180.554
155.161
-29.0658
-142.527
-74.2697
8.22845
-141.072
-143.678
-83.232
-19.8469
17.2144
97.1491
91.2641
41.731
-16.1573
-114.207
-45.8234
-18.2884
-30.9304
-38.1952
-36.1252
25.4672
20.6847
2.96813
-10.7252
150.666
195.239
134.725
112.922
148.926
43.3283
-109.777
-248.363
-230.476
-100.499
-82.0933
-237.169
-206.964
-57.4641
26.5102
58.4328
71.5279
173.827
281.346
195.683
44.835
1.71444
-143.3
-195.672
-113.677
-30.4218
-46.6409
16.1644
10.2009
59.3576
195.667
436.968
469.705
208.831
14.8512
-224.229
-407.567
-360.577
-159.725
46.3209
83.1905
103.063
58.791
-36.6411
-176.272
-174.397
-94.997
-48.9809
-70.8429
-10.1079
-28.5207
-244.849
-255.358
34.3116
210.306
271.308
137.461
2.33585
-67.7035
77.3006
315.868
252.328
-5.47648
-84.9838
-9.14884
31.4482
126.421
295.223
211.691
31.8294
-67.7366
-109.183
-103.255
-228.193
-252.972
-140.798
-53.7481
-39.1986
-72.7561
-138.884
-141.332
-143.166
15.2338
37.0487
28.5665
107.403
171.012
65.833
-32.0155
-57.1884
-64.4042
-34.0146
-21.6319
76.3123
90.7874
77.6045
167.113
180.094
145.5
28.6948
-151.351
-166.795
-78.5738
-42.1952
-19.4321
-21.6671
-77.6963
-36.3288
107.642
89.6825
69.6403
147.636
131.253
12.6803
10.3521
19.1352
-32.5679
-83.7131
-160.972
-144.294
-136.023
-59.3129
43.95
83.7987
66.0285
14.5846
71.1447
67.2756
128.035
126.383
21.636
-119.438
-195.869
-289.07
-443.903
-361.706
-131.671
6.82422
205.973
191.954
231.765
310.792
349.094
289.005
178.642
-15.3692
-80.7658
-42.9919
-57.1967
12.58
-6.89544
-24.3989
-65.6729
-88.0549
34.5953
53.7375
-48.5223
-161.311
-213.249
-67.9621
3.28649
-33.1352
-83.932
-36.6746
43.8994
150.265
84.7435
-60.711
-112.547
-199.771
-175.107
-92.9421
21.7853
208.243
254.637
209.513
132.455
43.6476
19.9498
20.4279
-26.1545
-92.8597
-183.556
-133.653
-54.9802
54.749
108.519
140.412
109.716
40.8062
26.283
-5.31139
-4.75218
-8.23075
-68.1098
-126.212
-88.7243
40.0952
31.9007
-22.3778
-9.88275
32.4683
99.0573
66.5253
-48.5234
-102.386
-121.935
-120.485
-70.6382
22.0222
49.9622
41.7521
61.1812
104.704
93.7734
99.5316
108.6
48.8936
58.3643
17.8953
-147.51
-205.924
-229.48
-239.527
-178.284
-24.4263
193.262
202.519
110.963
-1.87684
-33.4922
-104.939
-74.1546
115.719
161.218
61.6285
-12.8098
2.07794
-7.73675
50.7525
86.1208
-0.51428
-40.5255
48.7776
113.572
45.9125
-50.6835
-41.8577
-31.775
-3.43512
7.39999
30.9773
34.1919
-7.82802
-89.6626
-151.44
-102.603
-7.7237
77.567
-42.1498
-101.095
-94.5777
-129.697
-82.9916
31.6404
176.865
156.565
29.479
-69.3894
-66.6499
-23.5136
35.1462
36.6415
-21.3763
45.7363
163.895
144.88
54.9539
-6.00746
44.2457
123.223
86.994
19.4577
-19.4044
-56.4567
-168.94
-236.856
-143.323
-4.22584
43.8273
39.3112
3.8557
1.42824
14.5971
4.54504
-16.296
-59.185
-167.365
-189.901
-74.7119
9.06946
30.1651
62.1378
149.719
172.325
153.08
136.209
20.5005
-139.188
-90.0697
4.30147
-82.7964
-123.652
-116.087
24.7665
199.754
344.093
378.542
289.467
-14.4017
-169.818
-202.579
-160.962
-40.4657
101.284
61.8427
-138.967
-207.587
-111.379
-36.4355
9.19938
86.9428
3.25508
-176.998
-341.765
-375.127
-225.727
-48.2587
53.6238
187.897
205.379
257.906
306.685
222.757
114.457
57.0431
130.412
169.881
83.8745
-103.274
-169.957
-84.2266
-43.2069
-20.5523
52.0399
13.0888
30.1073
-1.25468
-179.773
-222.536
-150.919
-73.3824
8.73639
-48.3516
-222.493
-262.331
-30.6368
198.921
341.118
243.924
131.226
28.1968
-22.9377
-33.6771
24.2004
127.106
-61.8024
-162.464
-32.6837
107.085
157.242
4.48338
-62.4807
-105.215
-96.4949
-33.7211
-95.3086
-9.71836
59.2511
-42.6404
-88.1538
-3.44379
61.5912
205.32
141.018
46.3991
-27.7651
-68.7808
33.6688
54.2251
1.27837
36.4442
62.3097
47.8247
22.2872
28.9259
-1.07199
-149.297
-237.725
-74.943
-86.8028
-69.0262
4.69034
9.83119
74.2561
53.5664
35.8735
88.7306
9.00651
-84.684
-163.104
-245.386
-259.989
-34.3996
300.732
303.531
156.082
1.64849
-104.356
-124.781
38.2175
201.809
94.3502
-123.841
-146.284
-154.84
-157.872
-55.0999
71.5771
245.861
311.721
192.699
-53.2404
-203.682
-249.967
-127.174
254.189
377.632
419.597
323.433
90.9483
-171.585
-150.31
-62.4222
-69.652
-54.8595
27.4247
86.631
-83.4556
-327.539
-368.161
-152.975
53.4943
42.2445
-79.3873
-143.794
-332.901
-341.236
-186.356
-31.7485
6.89945
-11.4018
-1.95226
50.6567
94.773
149.208
220.432
158.434
183.912
227.4
241.03
279.429
294.492
193.359
15.2812
-68.6433
-90.1691
-70.1233
-92.8672
-90.8587
-24.7665
42.1395
66.3097
88.9485
2.71126
-79.2152
-187.963
-221.649
-202.505
-174.829
-249.524
-188.002
-127.66
-66.4353
13.7051
220.03
232.326
180.004
89.9864
-13.4844
-130.538
-53.7851
204.029
127.128
1.85673
71.0268
187.123
102.697
-42.3314
-24.9775
38.9783
0.426013
-24.2015
-122.894
-90.0249
-55.1205
-35.4248
-51.3718
-85.5795
-40.954
102.629
104.671
-49.7296
25.8132
154.692
6.78605
-108.126
-137.538
-49.1832
-10.0551
11.8526
127.695
172.776
75.7727
-143.104
-384.952
-485.681
-350.465
-26.6787
173.652
236.68
193.943
98.6931
21.4245
31.3658
151.004
112.339
108.729
149.124
104.906
87.8573
2.65395
-36.1892
38.3936
91.0483
168.025
199.111
81.3605
-59.8463
-90.2921
-225.209
-366.683
-263.393
-106.955
-62.9153
-62.462
-6.38516
82.5305
35.3436
-0.902846
8.44264
27.9879
6.43338
21.7468
75.2118
41.5886
16.2643
64.0261
7.53502
-132.819
-274.109
-82.3839
103.51
145.801
113.262
65.603
-23.0361
-91.4843
81.414
57.4192
-116.138
-158.546
-3.45615
42.5458
21.8139
110.541
236.331
268.351
188.692
83.6042
-15.6778
-165.467
-302.488
-31.7151
73.9889
3.54357
-175.836
-245.327
-173.26
-22.2679
69.1996
12.0202
12.9736
48.5269
48.2903
-12.7544
-20.433
-42.3973
19.3982
215.413
259.792
8.92634
-137.982
-201.247
-211.332
-214.529
3.65854
210.398
142.803
114.564
186.912
191.167
68.9922
1.83095
-23.0672
-94.19
-207.325
-145.477
-92.3079
-113.579
8.10617
212.4
218.788
35.7174
1.30355
133.149
192.196
74.7564
-166.759
-293.384
-360.244
-329.574
-127.811
58.0719
78.6673
3.13245
58.8301
127.201
146.673
45.6874
-2.00371
28.1298
43.5902
-49.8571
-80.4182
88.6595
221.007
195.525
228.102
179.302
63.7333
43.0818
-40.4072
-189.988
-169.812
-65.4719
-109.797
-259.422
-354.234
-169.419
59.1916
172.45
160.521
9.3317
6.76002
-70.5047
-167.437
-143.293
-90.865
0.996677
111.202
146.111
150.631
140.965
58.6273
24.9437
37.0527
126.726
211.477
183.685
140.514
-16.1347
-165.247
-249.961
-207.977
-272.889
-174.965
15.2623
48.4709
41.7358
62.5124
28.1072
-106.225
-93.5327
22.0948
49.6358
113.702
135.248
85.3246
31.1428
54.8315
65.5446
-82.9762
96.019
151.143
78.92
-14.808
-105.616
-99.9664
-69.8218
-17.5215
14.3996
11.7161
38.154
67.9546
37.7845
-80.6972
-150.447
-183.873
-207.487
-181.309
-42.8178
145.125
148.314
62.3764
83.7478
33.442
-46.0921
-48.2018
-23.4452
58.7223
78.8595
-16.7658
-19.9927
-13.4956
-19.5159
-57.7097
-90.6335
-45.2393
-16.0963
83.9749
133.055
186.575
137.014
77.1328
30.5879
-0.437317
-44.6136
-93.7112
-52.5677
9.65788
6.74067
15.1743
-13.6472
-65.4161
-94.4333
-18.409
100.012
124.053
99.768
26.7438
-31.2632
-24.143
-23.905
-86.196
-75.463
-95.4499
-106.16
-69.1679
22.3196
26.6609
-96.7868
-82.789
-40.9959
57.9706
114.178
143.276
125.275
110.303
94.866
-4.86354
-58.2271
-160.247
-259.213
-267.739
-136.433
98.1806
215.662
251.097
164.917
17.4255
22.7046
75.2295
31.9315
-36.9089
9.87062
-113.55
-222.482
-228.177
-112.208
2.64732
75.4472
138.934
191.254
230.538
122.928
-5.77499
-41.7394
-170.983
-191.258
-48.0286
23.2336
47.6577
-3.40187
-11.6269
-10.2407
120.805
199.946
121.932
-9.58316
-64.8641
-37.8174
-73.4216
-70.5069
14.6227
-5.36285
-24.756
-28.5435
66.5646
-26.4083
-312.795
-204.544
-104.629
-53.8346
118.459
213.162
208.7
165.47
79.8717
44.2072
-57.6154
-169.733
-182.334
-41.5014
96.6795
130.596
129.442
236.078
85.7394
-92.4483
-35.8625
24.9349
-77.3569
-78.9856
-39.1855
-69.6686
-146.212
-260.486
-261.509
-288.335
-144.279
56.3357
268.929
259.719
145.77
151.192
86.18
-35.2295
71.7502
157.811
202.778
121.106
-18.8573
-41.1549
-145.184
-188.326
-123.127
-47.7216
47.2329
143.088
73.1408
-21.8281
-44.1254
-44.9261
-44.1309
-23.249
-45.6468
-133.408
-136.38
-79.8296
-19.0237
99.0851
272.538
211.045
48.3536
131.66
219.582
132.355
-4.59774
-136.191
-170.329
-203.305
-236.904
-272.676
-222.126
-129.18
-42.7322
24.8472
221.011
404.788
315.809
39.3147
-75.6492
-41.8719
-30.972
-146.826
-233.295
-213.59
-235.106
-60.1172
213.462
367.491
456.304
250.807
-68.8166
-145.182
-98.693
-44.557
-138.678
-149.028
-105.811
-65.4474
22.5307
120.266
139.905
113.368
85.3745
112.056
87.4898
-114.182
-97.939
-79.0212
-225.455
-225.239
93.1906
201.138
74.0387
24.7642
-80.781
-145.452
-69.0519
-25.32
-0.0531156
31.872
15.5077
-59.6767
-110.641
-14.6391
144.919
326.704
189.3
3.2088
-11.0551
156
83.2524
-14.0986
-23.9262
-100.638
-177.291
-271.442
-152.882
19.4506
23.1917
6.58327
90.9433
159.777
157.915
48.9661
-1.70842
-42.3723
-214.777
-201.168
-46.6227
22.6735
-8.42396
-37.2805
5.35271
12.1952
47.8635
84.6942
61.4333
14.7098
-90.4302
-82.5463
7.39264
61.4585
77.2217
-24.6216
-38.0747
101.585
146.676
83.1321
-62.4926
-116.805
-72.5046
3.41441
33.5557
27.8013
68.4725
41.4205
30.9926
-43.1014
103.234
194.293
72.0714
-45.7161
-78.7539
-7.23517
-47.1225
-217.253
-225.049
-81.702
70.6232
119.981
25.6916
-104.618
-122.488
-104.921
-116.105
0.679892
46.1624
55.0373
11.0266
-40.7719
48.9022
89.8179
72.3039
62.2756
101.543
3.1138
-90.1241
-73.6195
-39.0497
-43.1228
13.5598
227.11
413.9
352.126
160.7
94.0419
-15.6157
-232.303
-372.971
-337.232
-241.727
-172.58
-129.575
-63.8253
30.0035
155.378
279.7
234.963
100.611
23.524
-16.6287
-55.8109
-107.895
-126.971
-103.932
-181.556
-176.049
28.0812
207.074
176.968
35.1762
-26.1296
30.6761
70.8959
29.2236
48.8372
21.8782
-120.288
-173.315
-102.602
4.52879
-74.7506
-157.205
-80.7395
75.6548
201.639
154.426
56.7014
-31.2093
-51.9263
133.912
223.353
227.26
224.217
223.602
100.806
-84.6518
-50.2484
-10.5474
-117.197
-211.265
-178.743
-106.974
-8.96409
3.015
-95.5169
-94.3279
-73.5397
-131.092
-137.365
-162.584
-223.422
-125.731
31.1132
99.2688
133.066
147.682
-10.5639
-142.056
44.6109
162.783
133.022
52.3615
-53.9978
-52.5448
114.277
77.9804
108.225
215.159
192.436
60.3164
36.0556
-75.3227
-157.275
-165.996
-61.3231
105.303
258.412
295.036
-32.4554
-213.683
-83.9364
-64.2868
-113.203
-130.504
-114.124
-109.763
-83.4006
-40.8658
-125.254
-178.215
80.4254
154.384
38.5146
58.9422
24.0988
27.276
78.3461
237.493
372.497
306.645
137.75
-60.4805
-118.051
-164.414
-294.159
-203.124
-137.548
-166.321
-36.8702
74.9821
-25.9263
-112.468
-88.2738
-84.8435
-3.96059
6.96395
-26.6976
-91.4481
-67.2288
10.7507
-31.8336
7.06545
125.917
249.889
282.032
195.867
125.451
107.269
134.606
198.963
162.765
-2.70176
-230.343
-262.384
-339.887
-405.025
-272.461
-68.0654
94.5879
217.926
222.567
202.576
149.554
146.814
-2.30877
-27.4292
26.7191
44.0853
-3.90636
-52.6038
-101.76
-29.9875
98.1924
39.3489
-45.3653
-132.825
-118.582
-76.6939
-70.7392
-90.9815
-90.704
-35.9757
-27.1977
-112.817
-1.75165
89.0329
113.55
132.451
25.5121
-127.514
-253.809
-19.8847
144.073
100.837
228.619
374.699
247.208
-49.2148
-158.483
-175.181
-96.9498
-69.9718
-57.103
8.0087
-28.4936
-58.2767
-102.393
-51.9626
-8.14395
76.8516
184.994
59.5241
39.7828
31.7484
-37.6611
-63.3104
-36.5068
9.10784
53.655
23.2099
-25.2668
21.93
91.2276
73.7097
90.9593
105.638
49.62
-116.725
-325.708
-385.748
-178.9
-18.8316
-11.4234
-81.2156
-134.098
65.7983
189.465
244.41
240.245
181.305
43.3114
-94.8781
-95.579
-54.5127
-26.9233
67.7452
154.857
145.263
210.94
174.536
27.4592
-86.6895
-212.182
-163.713
-61.8251
-62.7289
-74.5309
-88.2621
-87.8747
-6.42025
24.3491
29.8493
-34.2742
-55.5146
-30.8567
-105.798
-134.391
-44.9655
66.571
91.6323
54.5789
-5.38669
34.4143
187.768
245.613
181.139
103.793
26.592
-59.1812
-184.19
-233.081
-89.3322
-44.4502
-28.6845
-5.27603
-49.1414
-21.9108
21.8351
26.4093
44.4896
25.2622
63.8781
108.687
71.4595
-46.4015
-104.067
-117.988
-117.221
-8.56086
101.588
90.7912
9.29749
27.0518
12.4635
-1.59182
53.3521
32.8031
-59.8303
-46.4032
-8.5285
7.40851
32.9899
77.7952
98.4359
51.0233
33.395
-26.5451
-46.3337
-57.4927
-33.2978
-23.6549
-37.2603
-28.5239
22.4516
54.0064
18.7061
-3.622
-14.3398
-62.3236
-105.521
-138.682
-156.966
-129.293
-79.6345
46.9358
122.789
174.048
181.63
115.048
43.2187
78.1566
143.7
16.8848
-119.28
-74.3349
-20.5399
-82.512
-105.213
-52.1507
-28.2582
-15.2092
7.95477
25.801
20.083
24.2484
-33.9401
-69.2044
-15.3079
95.5844
160.808
117.581
16.1358
28.2046
29.859
-30.5818
-29.6897
-15.6664
-13.3806
-4.38577
-44.6205
-0.588164
23.2042
-5.01049
-14.7286
1.53861
86.1504
116.998
46.0872
-109.917
-265.491
-267.705
-162.218
-38.4075
50.2876
-4.43252
-79.0569
-3.78536
50.9648
47.6715
105.393
95.8285
21.9164
-33.0223
-6.93204
65.9719
88.3391
126.451
108.005
83.1924
99.8349
-6.44042
-142.208
-85.598
-87.4844
-25.5092
-39.7885
-23.6002
88.7794
33.7885
24.8098
77.8067
57.8402
-25.5067
24.0536
-2.12726
-132.661
-199.346
-114.844
79.831
208.449
150.238
80.2015
-17.7278
-65.2091
-24.3219
45.9105
16.4434
-60.6993
-65.6224
-68.2673
-4.31488
89.2437
74.1441
-82.444
-92.653
-82.4521
-57.0651
-51.2861
-113.144
-125.326
-9.4591
35.2562
77.8322
140.307
40.5118
-75.5271
-58.0231
-26.3689
6.55143
-23.6549
-67.4551
-49.8216
20.513
97.1072
174.916
223.677
142.166
53.7898
-69.9883
-135.57
-86.2066
29.8926
88.1538
73.2755
49.9632
47.2856
-30.145
-125.402
-33.8239
23.1002
-33.4204
-71.9137
-7.29789
35.3906
-7.27664
31.4089
113.314
63.5392
87.6932
54.9641
51
-49.3406
-222.056
-326.761
-356.531
-193.573
-33.9812
53.5334
167.451
196.056
185.936
196.643
139.823
111.439
105.987
-9.78437
-29.4523
-54.0937
-135.769
-130.996
-163.488
-233.722
-258.133
-88.1879
117.389
168.223
190.902
310.351
187.96
36.3874
-32.4253
-111.857
-111.761
-89.7231
-26.0303
12.6081
-107.49
-92.9601
-50.0481
11.2365
79.3141
179.73
213.119
151.473
73.1481
67.8227
-2.01939
-93.5431
-181.797
-152.488
-48.939
32.4893
22.6902
-120.912
-257.832
-264.362
-78.4697
83.5323
132.527
106.499
78.8986
111.132
140.405
52.177
25.5594
58.5588
31.5273
21.4028
-13.8107
-42.2613
-47.8262
-20.3442
-12.4739
-101.315
8.9546
50.514
-24.4347
-42.2382
-73.533
-10.7989
167.004
170.512
69.3668
52.7715
22.719
-142.886
-153.045
-61.2016
-113.269
-74.1136
31.2982
151.095
128.043
85.3355
-33.8258
-48.4792
-18.4641
-48.6925
-54.7734
-66.0232
-68.8607
-22.078
37.0528
60.4204
64.5625
111.408
146.823
117.176
40.0151
-152.6
-348.443
-547.537
-421.414
-165.287
36.6774
201.64
201.649
281.761
299.775
178.535
58.3394
41.5785
107.52
146.756
105.702
55.2176
29.5518
-49.445
-25.7863
34.4634
95.0952
136.325
31.57
-19.2111
47.9539
39.1103
-62.2866
-245.034
-333.37
-228.469
-219.392
-192.948
-103.534
-42.9117
-13.6559
-31.1882
-19.3998
15.776
76.7885
130.474
114.753
102.111
191.231
238.974
15.1006
-205.029
-179.385
-57.1356
76.5627
92.2181
57.8324
14.7512
19.1195
11.4148
-22.6864
14.493
31.3753
-78.3642
-90.1489
-42.5177
19.2442
137.026
145.661
190.024
122.298
-28.3912
-90.1372
-168.217
-213.469
-147.446
-44.5623
48.2353
59.6044
54.8153
113.433
108.432
52.2895
88.3287
77.2881
-3.60177
-80.3828
-140.97
-172.893
-275.383
-230.798
-8.25821
152.51
181.814
159.601
48.6226
43.524
26.4552
-11.619
-36.7234
-8.08385
-22.9533
-24.8635
-15.3667
25.7414
61.4201
5.84756
-99.6636
-137.055
-38.2239
43.4534
94.4226
135.715
123.609
171.115
177.021
31.563
-13.458
-60.8232
-89.4709
-154.02
-256.94
-324.66
-253.413
-110.642
51.5346
134.703
160.882
177.434
161.597
127.234
-31.73
-140.092
-61.4812
-93.7287
-116.042
-9.22985
58.7601
115.924
159.041
148.894
63.569
27.7005
-1.83736
-134.698
-126.947
-78.067
-31.126
113.078
141.49
86.6063
96.488
104.693
107.753
144.38
59.9442
-62.2985
-175.775
-261.288
-240.108
-156.39
18.7569
105.622
26.1708
-8.23015
-72.4199
3.25885
88.8928
-20.8447
-35.6559
-25.211
-36.7428
-41.4318
-16.383
-85.5
-100.29
-6.78923
-56.544
-243.44
-172.016
8.38022
235.676
416.323
461.607
352.266
213.233
49.7281
-117.293
-266.578
-316.879
-204.328
-77.8531
-79.2139
-106.913
-33.4896
65.5234
116.192
262.012
430.399
236.297
-17.7541
-156.376
-297.453
-360.546
-220.48
-90.9415
-81.0044
2.14602
151.008
182.178
85.1462
-95.7793
-65.6393
-21.9298
93.6108
251.4
291.402
135.296
-49.0112
-103.246
-368.798
-457.466
-287.555
-92.3528
70.1333
167.782
204.511
179.059
139.514
115.746
108.797
136.218
61.1539
-45.4062
-115.394
-180.272
-172.573
-4.63971
132.117
106.215
154.743
130.051
77.3213
72.8281
9.23031
-129.278
-234.693
-241.156
-189.252
-14.543
83.3414
41.6783
24.5378
18.1283
-0.426831
-75.6205
-113.7
-82.8003
8.41968
99.8709
170.345
110.129
-10.4575
-37.005
10.0258
107.872
266.675
197.424
-102.726
-248.139
-205.251
-36.5416
-15.6534
-101.715
-143.292
-90.1275
-62.8302
-74.9299
27.96
135.682
207.944
144.43
35.9125
-54.3011
-51.858
41.1587
57.7387
44.7984
161.165
101.892
-58.4506
-96.8713
-28.1761
90.45
127.833
74.8789
-94.4611
-204.34
-172.323
-172.192
-137.99
35.4816
199.946
235.463
51.2137
-105.757
-128.553
-58.7374
47.5849
75.631
72.0159
-5.29321
-85.145
-85.0668
-84.1061
-56.5641
51.9587
103.562
64.2712
66.8388
67.992
60.1748
34.8688
-40.8659
-59.4812
-71.9634
-109.237
-92.8556
-62.2007
-67.4376
-80.839
19.5376
111.827
97.5011
49.9935
30.4351
90.9279
169.142
136.064
32.1916
-53.1084
-64.915
-116.451
-138.114
-27.2945
3.32996
-58.9313
-12.9261
59.9457
81.1495
78.9895
23.1753
-56.9276
-62.0525
-86.6527
-15.8826
7.14055
-16.9821
-51.1933
-65.799
-31.5147
60.4511
72.8193
2.35976
-94.2132
-47.7515
133.121
137.251
33.8164
-38.637
-18.638
13.6577
51.1682
44.4606
86.6662
112.257
104.502
43.7649
-64.5225
-141.853
-160.093
-210.105
-175.219
-74.7215
73.6354
164.849
86.1559
-14.7999
-32.6212
-7.53101
96.0417
82.9561
17.6325
-16.5043
-55.3789
-74.1261
-65.4406
-73.5529
9.53052
125.217
138.43
56.1523
12.1066
36.0937
21.0185
-38.1802
-86.9114
-92.3314
-60.5288
15.7306
-14.7475
-30.9804
-51.9145
-20.3119
19.2091
-0.590141
53.2533
82.9756
31.2784
-99.3227
-106.856
13.0313
64.8869
65.2745
-25.3924
-81.7061
5.86037
62.9384
15.7086
-93.1074
-100.505
10.019
117.871
142.027
172.307
129.874
31.5823
-5.06054
-48.2581
-76.5443
30.5643
81.0615
32.6911
-41.3835
-110.62
-110.328
-80.1394
-42.8139
2.90906
-3.40241
-31.7057
-33.4341
-73.3725
-60.4909
20.7726
30.5467
-35.7763
-150.574
-81.6829
123.97
147.348
86.853
70.8631
62.9632
87.3721
81.2102
-53.3658
-98.082
-114.478
-7.2382
89.9029
111.406
144.681
136.66
-30.2347
-150.323
-242.027
-92.5481
44.7166
82.3493
22.0069
-114.637
-101.543
-45.8525
82.4324
60.1751
-39.2984
-14.5911
33.4499
9.7037
-22.0099
-28.2263
35.4357
58.9261
88.8139
108.893
118.56
7.77659
-249.01
-329.348
-170.958
10.5978
42.8198
45.3083
62.8164
88.9251
120.189
90.8453
104.747
75.524
-70.9733
-101.302
-66.2434
-43.1617
-19.3059
58.4624
89.2609
119.589
202.14
160.645
36.8233
-61.129
-135.47
-195.074
-294.337
-111.883
20.6651
26.6508
42.5455
51.5323
83.5504
5.005
-14.8987
49.6824
28.0883
-53.021
-102.902
-42.2857
97.4165
129.185
59.0847
38.4868
21.5363
70.6023
146.681
-15.216
-125.498
-197.714
-144.716
-73.4423
-15.1437
19.5485
-43.7538
-123.781
-118.967
-74.7561
134.897
247.121
150.033
11.6084
-17.5416
-8.69177
-69.6991
-77.2847
-40.7942
-53.5498
-61.8039
10.8382
55.3027
51.8006
53.8527
55.8905
46.0001
17.8759
69.0447
74.5383
47.8127
-36.6615
-166.223
-91.0278
96.0768
84.757
36.8346
-42.5382
-178.282
-118.684
83.7419
179.329
171.817
27.785
-44.9205
-60.3837
-86.9506
-32.8953
30.8369
90.1485
118.277
116.226
119.154
85.5831
-120.533
-173.22
-130.723
-176.021
-136.032
-98.6463
-61.2384
-21.4941
22.5025
81.1941
32.812
-9.67696
43.5799
103.889
45.9532
-65.3398
-94.3649
-105.097
-68.5174
20.0183
56.7895
54.0581
60.0265
108.594
141.653
58.3409
34.5182
80.0023
-5.02328
-44.3447
-80.7086
-36.3613
36.2625
45.1958
0.892944
-11.7078
-87.2897
-134.914
-109.238
-90.127
-42.2983
22.9263
71.0891
100.318
142.104
146.021
22.0501
-48.1046
-94.8296
-75.7812
5.19418
46.3083
0.756262
-65.3613
-38.4549
31.0403
-30.7944
-186.444
-137.638
22.6436
62.5934
47.3567
93.2598
158.386
195.864
69.769
-131.76
-89.8458
22.399
50.9092
59.7495
37.2267
16.866
-25.5157
-74.0812
-90.5458
-54.5486
96.0881
124.962
30.6484
-16.8784
-25.3771
-51.374
-125.437
-180.156
-79.1507
63.5225
66.9591
8.82722
-145.358
-152.49
-13.3346
71.1026
148.483
145.039
112.208
106.689
40.4401
-59.1947
-216.759
-157.967
0.879042
111.919
185.712
80.8418
45.7558
37.6617
-43.7762
-47.0672
-32.9466
-52.8364
-112.504
-92.7779
-43.4984
-22.9244
22.4122
50.2822
92.1839
69.0828
55.0299
76.7865
57.4678
48.1592
-55.6183
-96.2605
-122.624
-136.036
-216.337
-87.7302
195.562
278.476
168.312
57.5819
-57.6885
-67.1426
-42.6482
-80.8806
-51.7454
2.85395
6.4667
-131.822
-172.677
-75.1464
56.1231
158.054
178.211
185.349
204.677
12.0438
-95.9747
-114.915
-61.9511
-36.6956
-23.097
-10.6378
-9.47018
52.6875
55.5488
10.0604
-6.97648
-54.6282
-91.5307
-88.8552
-60.8996
12.0335
44.1545
10.0513
-25.2002
-56.2585
-34.678
25.0513
41.8391
-15.3148
-69.6775
-71.5037
16.382
93.1975
40.5038
49.1861
141.132
142.854
65.2598
67.2675
12.9216
-106.768
-111.494
15.2699
121.754
113.83
16.0675
-14.9019
-40.3704
-46.6068
-73.7619
-114.34
-82.1515
-100.892
-67.5028
-43.3796
-112.2
-21.2499
164.085
197.715
80.9385
24.142
-25.3058
-125.349
-153.005
-161.244
-135.805
-47.4131
15.9514
72.7007
79.5515
112.761
106.046
43.9276
71.0322
176.521
186.513
127.395
-8.67894
-214.437
-213.692
-76.3122
20.707
92.6989
12.1394
-51.5684
-40.8653
-111.519
-47.2925
18.2645
62.5478
153.068
118.881
74.6181
7.7751
-56.1991
-32.2962
-37.7718
-127.53
-98.6223
-1.54007
7.51613
-18.1422
-11.2293
38.289
103.778
123.485
77.748
2.82832
21.5772
52.9879
25.7252
7.19162
-63.4176
-144.348
-283.931
-227.847
-70.0365
15.6857
23.6004
42.906
39.0724
41.1871
6.19166
6.78804
102.971
149.908
155.85
141.807
34.9396
-78.4222
-192.495
-270.547
-101.982
31.7421
141.869
184.217
147.934
-11.4331
-62.27
-33.9241
-31.1353
31.3853
103.291
46.2189
-56.862
-87.3905
-107.026
-103.438
-112.282
-36.4215
97.9874
118.568
22.8442
-57.8556
-21.7082
68.1557
24.3957
117.876
177.491
28.9076
-125.189
-181.694
-202.464
-98.4818
33.9511
78.0941
171.152
159.001
102.393
95.5584
11.2034
0.257155
37.0217
83.8958
60.1091
-23.9064
-80.0137
-125.902
-87.0808
13.4777
-15.5895
-143.868
-197.65
-232.759
-182.679
14.0176
49.5627
35.8278
46.438
34.1075
-4.16866
37.6396
61.4905
79.7398
28.1677
-84.6279
-55.5291
4.83985
-70.999
-93.1158
55.2115
203.841
242.286
254.501
197.429
14.5003
-80.1882
-86.0265
-48.1557
-47.0048
-26.0628
-23.3722
20.1143
44.469
27.1116
14.5243
21.1092
131.035
157.815
122.615
60.7905
-123.566
-149.654
-231.156
-368.938
-354.703
-275.569
-143.51
-135.604
-132.503
56.5879
130.862
20.7726
51.633
265.134
367.161
333.633
135.18
-22.0064
-108.939
-58.6473
168.424
232.987
272.155
303.259
197.559
20.7126
-108.343
-137.72
-203.744
-363.197
-365.791
-256.187
-230.243
-169.92
-87.3015
19.8052
143.936
112.36
49.4686
16.8725
13.9292
-65.271
-153.523
-110.068
89.7675
209.332
206.106
177.814
125.943
105.528
73.7795
42.2936
41.8293
-44.5831
-127.903
-181.78
-167.166
-54.2851
111.648
151.369
23.3475
-14.2506
56.4754
91.4546
-76.7048
-160.842
-90.2512
-41.9831
8.32656
70.6557
137.293
61.0696
-54.5856
-63.1275
-39.3491
-94.8173
-137.523
-40.5188
-56.9171
-41.8516
68.8332
158.275
88.048
34.4959
27.8583
53.4907
8.7899
130.525
183.641
95.4555
4.25786
14.4173
-58.3618
-206.046
-156.965
-13.9798
15.9842
-72.217
-82.8256
-27.4082
-12.9286
-52.6036
-117.164
-108.262
-3.44905
55.9879
50.1946
1.13571
52.226
40.0153
-28.4137
21.4201
83.9662
143.092
127.348
78.0168
30.7644
8.72962
16.8944
-45.4154
-123.541
-141.873
-32.4431
-16.8054
-75.0302
34.0977
116.121
27.9201
-93.9641
-113.868
-76.661
37.7622
106.405
157.402
57.5376
-88.7512
-52.7635
9.71095
77.6365
28.3832
-31.5363
-28.4199
41.1593
170.594
174.311
-4.61201
-63.0469
-48.7164
-99.281
-114.95
-120.259
-158.189
-40.2944
22.5041
42.12
52.7185
-20.402
-48.0755
-4.89185
58.3947
46.6286
68.5712
124.092
83.9875
68.4925
21.5279
-108.199
-147.77
-42.0827
37.2218
76.4611
32.0063
-43.6491
-123.56
-117.832
-64.2411
11.9021
81.1066
72.191
40.682
14.5973
-38.9622
-71.165
-35.8799
9.01406
-24.1147
-83.9154
-29.5455
23.5502
65.898
107.824
99.5394
64.134
62.1842
85.3497
108.288
86.9628
-1.75135
-85.8633
-97.4566
-131.232
-157.091
-81.7712
-53.3298
-54.1143
20.096
146.008
137.304
99.6205
62.1097
-20.853
-78.176
-46.5404
-17.7796
-13.0787
7.17904
-25.6176
-78.426
-107.113
-95.7808
-11.9417
114.259
108.058
-13.6306
-65.5979
-21.5588
25.1056
59.0095
38.6027
59.758
116.539
75.7395
1.21743
-45.4744
-55.7484
-84.023
-115.333
-84.5404
-54.4115
-17.1151
127.286
167.221
100.267
25.0883
-23.3618
-47.6042
-130.598
-190.914
-105.847
-3.46436
46.2193
103.159
85.5418
45.7325
0.704638
13.8445
85.9974
145.625
93.1237
41.8321
-67.9491
-138.346
-155.032
-81.4799
-39.162
23.2861
95.8439
95.5056
6.68575
-88.1778
-128.128
-49.5815
95.9868
90.9776
20.4069
-19.3329
-95.4416
-151.768
-34.1662
103.232
104.023
36.722
35.0003
2.52584
-10.8374
14.7589
39.249
28.4718
29.7172
14.1073
31.3218
79.5444
6.66581
-50.2109
-55.0317
-65.3692
-40.7511
-21.9036
-44.6781
-68.0737
-92.2686
3.67131
85.4235
23.807
-41.3548
-101.887
-114.568
-51.8635
43.0057
140.902
134.086
8.88124
22.5271
143.925
85.8301
30.3022
50.643
28.2546
14.3412
-9.67637
5.85612
-39.2027
-137.93
-110.107
-30
22.0854
27.5067
37.9565
76.8092
75.0532
-4.17446
-80.3187
-207.004
-247.508
-210.472
-189.954
-98.2323
49.3757
185.723
125.326
45.6622
-2.64143
29.6419
113.588
238.164
256.058
187.477
70.5551
-36.0055
-92.1253
-73.8491
-40.2411
12.2166
50.7863
89.2998
55.8267
-26.6247
-99.8022
-153.447
-107.216
-18.7233
55.6151
41.8104
-2.52588
-89.7845
-122.753
-94.507
-37.1308
-27.2935
-15.1511
55.0924
128.179
98.7729
-44.3284
-146.8
-74.1503
-5.53254
5.61112
8.87013
-29.1715
-16.0275
0.454367
1.95749
-20.3153
64.1092
81.6626
63.6611
69.2175
59.4002
-5.37346
-103.382
18.5773
153.446
61.8753
88.3553
13.8321
-27.1846
-45.6806
-63.289
-77.9749
-115.332
-29.8573
26.1412
114.245
57.2413
-50.8392
-79.6328
2.27851
-17.8887
-106.215
-99.5781
-143.458
-172.749
44.5897
194.401
199.481
74.6095
31.3869
22.2127
106.3
189.113
109.939
27.2142
-43.3106
-65.2488
3.94215
58.9419
-13.1741
-75.7576
-66.4799
-88.7987
-144.887
-116.024
-107.422
-124.184
-44.6772
69.0921
91.1467
42.784
14.8221
8.70215
23.2222
11.2683
-19.2146
-50.0801
-24.8889
-8.54181
16.5797
26.3584
-25.3744
-33.6486
-47.1214
-25.9114
89.2584
144.067
92.1484
6.06109
34.8594
68.6709
80.2314
54.2952
-17.5502
-19.9235
-28.9112
-42.4398
-48.9205
-71.1972
-53.0859
41.7618
76.0465
86.7416
146.323
48.0598
-149.664
-260.49
-151
25.1877
42.6826
3.71557
2.26955
41.4153
7.68721
23.0079
89.3997
20.803
-54.3778
-109.184
-150.129
-147.74
-40.2056
122.891
146.187
53.5017
-24.3447
-19.3491
92.9512
115.462
70.1302
49.6241
48.9032
45.3714
50.2667
-73.14
-217.395
-172.938
-45.0614
65.3831
93.0965
66.5092
5.724
-157.26
-169.363
32.202
170.51
168.492
13.8838
-59.6598
-46.3809
16.8633
74.9222
-6.18057
-61.3587
-8.00994
36.7136
-5.81397
-9.06911
-20.2114
-69.2149
-51.6243
22.6839
54.8101
35.9858
-6.88346
-15.6684
64.9975
150.554
102.859
-44.5829
-123.231
-109.44
-72.5383
-110.977
-139.074
-79.7401
-59.7898
-16.0114
46.9574
112.869
137.505
154.158
140.397
4.92137
-96.1806
-81.5575
12.2871
-25.8635
-103.514
-6.59411
12.0549
-42.966
-11.6838
112.83
182.973
166.11
108.089
0.820694
-82.8634
-85.4918
-106.076
-121.855
-59.0415
53.4063
120.334
144.336
66.7653
-57.0854
-70.6039
-57.5483
-26.4835
-30.1778
-45.2008
-33.0601
-13.9956
-4.51012
28.1918
1.38564
-41.3515
-28.0249
85.6313
106.351
-30.8985
-80.0322
-42.3317
-46.8332
-56.7415
-44.6549
-94.9663
-144.376
-101.364
-44.1481
-2.44652
31.5578
85.3135
105.203
119.487
82.6966
40.6763
-2.34178
-21.1052
25.9221
103.886
113.507
103.046
75.7339
8.84559
-29.7555
94.1795
165.715
84.4142
-8.82879
-55.4574
-72.1076
-91.1807
-147.764
-207.627
-166.407
2.81082
21.2693
-143.546
-174.673
-78.9597
-0.275141
81.1296
99.2223
88.9461
155.355
171.961
75.4481
-37.8757
-48.887
-29.9201
-84.1987
-66.4229
3.66469
0.526407
45.9946
105.094
134.378
91.0029
6.02098
44.5565
91.293
31.7971
-78.8868
-225.239
-241.613
-220.742
-131.285
37.7401
68.5788
8.37883
61.24
78.7894
62.2342
113.366
86.2931
-12.2372
-46.7549
-5.10619
-0.233185
10.8425
-33.5067
-80.656
-67.2336
22.9966
15.7347
5.18773
21.7215
22.4918
24.8379
-36.5236
-92.787
-49.0187
14.226
135.408
152.645
90.2135
16.2842
36.2777
-4.45644
-87.1894
-60.6408
-27.056
80.2433
143.399
97.5997
13.8141
-49.4968
-75.4148
-71.9497
6.73985
9.5176
-112.097
-166.849
-159.246
-141.086
-158.176
-27.2011
102.349
160.988
83.5815
-30.1953
-122.176
-172.988
20.7131
214.93
212.108
163.243
110.87
67.5473
44.6136
22.3551
15.4988
21.4802
26.2825
56.4849
-5.92597
-150.719
-119.844
-33.5577
32.8765
62.7098
160.252
128.667
-95.1318
-184.989
-213.809
-296.472
-218.803
-4.74355
27.3258
-22.9463
34.7422
127.178
86.7591
92.9493
141.387
105.258
-11.0265
-66.3338
-159.408
-172.43
-102.017
14.8339
127.59
139.092
154.119
226.474
113.47
-53.9752
-37.046
12.7531
-1.40188
10.3388
63.6021
20.4511
-43.745
-20.656
23.103
20.2928
13.9735
-57.4987
-242.654
-244.306
-221.271
-182.962
-42.153
78.6592
203.469
209.824
126.387
78.0684
-40.7241
-156.131
-316.099
-328.766
-94.2432
81.5408
149.024
183.492
264.528
325.485
334.834
195.438
154.948
57.1857
-157.473
-135.22
-164.85
-228.551
-157.457
-26.0728
61.3795
57.9909
75.3781
50.0748
-14.8585
-29.4946
-76.5638
-80.5624
-15.9231
-39.3861
-91.1839
-24.012
74.2322
76.1553
31.123
-55.6826
35.5106
49.7409
-86.572
-222.406
-203.834
-155.261
-62.9596
93.4365
152.423
133.717
122.363
86.4072
-59.7102
-127.313
-11.5111
59.3783
83.3187
102.502
83.0937
-73.1928
-105.228
-48.3051
100.634
219.86
192.441
83.7733
1.2835
-47.3726
-49.8775
-2.56215
11.8741
-19.6755
-10.5604
0.408735
-12.0001
7.9848
-76.0804
-179.618
-137.283
19.2757
33.6571
-46.2093
-185.835
-210.376
-108.348
45.6795
58.83
22.8727
1.4867
1.22778
13.704
39.7647
102.55
170.515
146.632
26.9256
-85.5012
-66.8787
39.2432
79.14
27.7679
69.6509
151.598
142.709
117.439
75.9212
13.0145
-31.2591
-37.6204
-105.736
-175.858
-171.536
-162.406
-89.0341
-108.2
-94.5933
23.2795
111.651
61.3843
-29.4299
-3.24638
28.2881
3.30664
-29.9067
-48.193
-1.00888
124.436
128.271
98.0304
78.8255
16.0433
-24.6937
-46.4659
-83.3387
-81.6247
-49.6167
-83.9147
-61.5141
14.9469
45.0203
-33.0154
-85.4639
-27.7499
9.4839
12.0849
-1.88981
6.04583
37.2107
97.2672
170.481
244.855
174.519
-21.0939
-95.9762
-35.3839
4.7554
-13.9216
-3.72894
-22.4453
-45.3441
-102.818
-101.421
87.5138
140.444
-17.6734
-138.985
-56.549
-9.79132
-111.303
-60.2014
80.7918
148.818
85.1762
-55.524
-110.133
-155.345
-128.947
-105.166
-89.3009
11.0264
190.767
227.031
64.2009
3.08219
143.265
77.6832
-158.159
-149.262
-57.5684
-83.3178
-164.406
-116.519
50.5128
118.065
179.69
181.594
129.172
104.049
39.0148
-58.6973
-136.516
-111.884
-78.4594
-44.6948
71.6408
224.424
241.399
128.037
32.5157
-53.0114
-86.3914
-122.537
-126.491
-108.749
-194.424
-181.196
-57.3453
103.522
165.508
80.5772
9.48803
111.954
105.419
24.1122
-106.245
-181.099
-92.0764
15.4661
-63.3265
-157.75
-93.5849
-19.9541
59.809
94.3028
139.172
227.095
156.776
-29.6229
-43.0562
40.9897
7.90045
-89.0026
-42.9062
-2.9903
6.58303
22.9822
23.8627
-120.54
-157.337
-139.233
-78.7461
-100.736
-55.9975
48.2471
115.263
96.3103
55.0797
91.1622
165.235
181.929
131.752
66.7949
64.7451
53.336
-1.8434
-53.5868
-64.5505
-204.905
-217.838
-82.2429
-12.3861
99.1485
132.616
124.706
55.1349
-22.3427
-71.6409
-115.796
-170.868
-176.962
-76.7646
-34.6265
-63.5391
-9.88218
-11.2195
-7.91512
34.5275
151.734
268.636
249.343
145.054
10.6711
-93.9048
-124.93
-56.8407
-48.3226
66.3564
118.934
-80.7188
-246.594
-116.385
-6.87592
4.51986
63.3483
80.215
3.81655
-81.6806
27.9134
85.6192
19.5788
-48.1064
11.0139
51.1588
5.5201
-74.8071
-128.445
-167.131
-81.7285
148.654
265.704
109.32
-47.8729
-106.303
-140.073
-80.6078
38.7786
189.502
242.354
65.5903
19.9007
86.8947
-10.4402
-126.259
-55.2524
34.7272
98.5384
-1.28415
-171.26
-163.76
-4.70597
-29.8409
-49.2912
30.5226
0.57839
-58.9028
-45.6268
-136.075
-249.396
-91.0153
-5.49181
-49.3081
-11.5609
156.188
214.598
219.599
225.517
204.63
133.693
102.872
49.0423
35.6476
28.9804
-11.7569
-21.4932
-67.3261
-72.1132
-62.11
-74.5517
-20.0681
5.20493
-15.3867
-44.1543
-82.1664
-94.933
-166.195
-210.234
-169.609
-70.4241
-39.7579
-105.822
-104.399
-78.0796
-59.3819
29.9823
228.766
284.046
266.084
191.206
121.699
79.5636
29.0253
30.3957
3.80577
-45.6352
-70.2351
-86.1038
-39.8923
-14.6083
-52.9433
-10.042
45.0992
48.1751
11.8561
-4.50244
-77.5724
-125.247
-102.194
0.825474
-51.7277
-102.773
92.1424
179.169
119.758
72.5673
-31.8465
-105.498
-158.037
-47.4098
86.9768
95.8548
72.9341
91.7268
84.0774
37.3079
-17.4764
-17.0141
-28.7774
-88.6368
-149.98
-106.863
-131.475
-68.6801
31.9226
12.5372
108.801
235.22
223.311
176.914
126.797
72.7672
-26.3026
-215.35
-388.853
-152.047
95.1838
57.0637
-52.4125
-11.1122
119.015
128.43
-43.8364
-141.489
-103.885
-108.368
-70.3076
-17.9171
6.68772
-52.3198
-134.074
-211.374
-144.073
24.2105
355.409
321.123
120.035
10.7575
-1.92009
70.9791
158.118
82.2197
36.4473
22.1439
13.812
13.7261
-60.3626
-156.708
-90.9227
-100.256
-92.1338
43.7185
149.554
140.932
70.8954
-89.3711
-227.974
-140.038
-28.1238
-61.2716
-137.673
-80.0417
-1.21699
59.2618
58.6073
46.4545
72.9672
84.79
87.1776
107.002
137.969
121.815
76.6465
106.41
30.4472
-83.0723
-57.3521
-83.9971
-153.972
-221.143
-237.997
-103.208
-8.81847
90.5183
95.7495
50.4568
91.6308
103.051
64.5743
31.5032
-5.96244
-24.3985
-15.7937
2.18935
17.8671
61.8186
33.907
25.6326
117.092
144.768
39.4543
-108.375
-36.3069
-27.2513
-31.4191
-22.1244
-113.884
-221.499
-353.977
-208.504
-145.588
-136.805
47.4903
50.6501
13.104
140.557
308.693
229.956
81.598
29.5868
37.5054
126.16
163.963
4.14363
-152.415
-140.695
-54.938
18.8153
81.3913
68.2363
62.0109
56.9268
-10.5032
3.90315
8.84442
-85.2746
-202.901
-153.308
-84.0115
28.2502
86.0006
81.1694
12.3605
-62.0811
-83.5663
14.7603
69.0995
136.743
157.271
72.8054
43.8518
54.7893
-29.8324
-81.2848
-92.2352
-120.618
-111.397
-27.0681
3.41238
1.01195
86.235
77.6195
-61.3053
-79.4074
23.8806
32.3277
-6.02566
-63.2564
-26.0727
52.2682
79.1976
191.104
72.5779
-86.4981
-161.553
-138.782
-83.0371
-150.113
-44.4548
139.028
148.737
131.603
91.7367
39.2854
-36.5744
-33.2444
25.2184
-21.522
-63.4328
-99.8225
-55.1719
-92.7369
-111.624
-79.9029
-44.188
60.2685
147.323
198.318
65.5392
-68.2052
-159.21
-87.275
104.135
94.6169
32.9049
3.03245
-6.12778
66.9405
64.783
32.5828
-59.4461
22.2831
304.043
299.451
137.682
-16.3811
-168.941
-207.893
-151.911
-226.241
-125.51
-10.7668
-61.9843
-11.0078
97.5526
112.749
52.4517
4.78443
6.76046
-23.7839
-22.5459
-76.8368
-165.702
-127.772
-31.9909
-10.2495
-20.1359
20.0969
109.134
151.667
104.737
-20.7963
-95.8416
-22.3458
30.5697
49.9276
31.4924
93.2802
109.118
80.1501
41.9848
-146.447
-345.169
-261.125
-36.7507
9.52717
0.636268
48.9241
72.5637
135.921
222.436
174.381
66.1201
27.6707
19.8441
-3.30406
-75.2836
-90.6682
1.78625
-24.3334
-7.64623
63.4053
85.5681
34.6014
-27.1708
-27.7056
-11.8636
-8.22524
-67.7016
-103.8
-83.7469
-150.954
37.7204
179.695
75.301
15.2186
9.45302
-37.4808
-48.2461
9.31272
27.7741
11.3875
30.5916
24.5854
-63.4182
-152.675
-135.524
-40.1367
-17.4285
-54.0605
-79.1158
56.9315
26.9718
-36.5291
59.2584
92.3561
1.9037
-116.747
-86.3528
83.0947
164.213
113.335
80.6508
88.4908
37.2418
41.782
47.6821
60.9677
84.2125
54.6112
-5.71371
-16.7897
-83.4498
-141.643
-145.469
-20.3969
85.533
118.163
17.2195
-165.727
-263.122
-150.816
8.79907
46.2466
48.7263
69.1236
88.2684
55.7456
2.69973
-21.4903
-72.0719
-49.8902
4.29779
54.3701
60.6166
-54.5378
-16.6789
111.853
73.0207
33.1492
82.0956
46.7605
-38.8745
-47.123
-10.4212
-49.7837
-109.224
-168.425
-162.716
-53.1221
158.468
116.609
54.729
60.5924
47.0732
-0.904007
27.5001
36.9664
72.8468
36.0381
-61.9227
-137.673
-168.275
-88.7697
-40.5423
-14.0763
101.774
212.783
215.553
131.211
-40.4564
-92.7687
-140.052
-132.624
8.89032
39.6653
-15.3578
-66.7657
-75.2194
-123.216
-13.0305
137.787
180.229
59.095
-58.4761
3.95956
49.1999
54.3786
69.5707
59.5846
3.44954
-46.5989
-107.976
-195.086
-196.765
-81.8462
-54.881
-16.5158
48.6081
7.32973
47.3575
140.45
251.374
259.866
162.327
38.0135
-48.6944
-107.221
-100.245
-96.0258
-130.012
-127.561
-6.98153
87.5396
33.1438
-82.1443
-122.278
-129.183
-145.794
45.7395
165.256
153.015
29.8601
-19.1386
16.3744
23.3971
18.2016
-4.70563
-37.0632
-22.7221
45.6975
119.328
75.721
-8.74887
-93.8434
-60.6329
5.6396
-6.61622
21.074
136.241
178.75
33.9448
-42.4479
-22.6394
-2.10659
-46.25
-95.3926
-168.609
-189.081
-50.824
-120.34
-122.695
74.4443
185.884
138.03
38.3783
1.70747
-22.5005
-39.0889
-3.4729
-80.4903
-105.237
-63.2014
-16.9764
-12.1023
164.404
193.978
43.2782
88.6621
92.9072
108.678
82.7998
-49.1491
-132.132
-49.0206
67.8697
105.313
152.545
169.141
49.1203
-156.689
-151.915
-65.9395
-162.855
-208.611
-213.355
-185.46
-1.31581
104.013
94.0451
103.622
67.7348
13.1505
10.7018
39.7767
-9.43232
-77.3611
-60.5757
-18.0936
-37.6604
-36.481
-74.1509
-102.663
25.5101
123.439
88.9912
67.6231
118.738
107.083
26.6036
-1.79917
-8.4379
51.2635
106.787
105.236
93.2978
57.8608
-79.8726
-231.727
-326.983
-297.555
-124.05
60.5508
125.565
124.845
49.4042
49.5274
45.8112
-78.806
-72.0554
101.602
168.206
-28.0204
-51.9342
-44.8139
-14.5905
23.5999
99.6543
333.2
499.695
287.491
-52.0414
-155.585
-177.272
-94.1142
-111.861
-155.247
-141.106
-92.8337
-136.201
-258.917
-345.443
-206.042
-92.8231
-33.2304
-4.19598
53.8053
110.365
30.6164
-53.7768
49.458
142.233
106.421
103.521
155.685
307.915
302.555
141.967
83.5394
19.1677
-65.1397
-82.0952
-42.9844
-74.2228
-54.4899
-5.94194
-18.9788
-13.4941
-48.346
-108.445
-54.325
25.3984
-30.8925
-65.4681
-78.8379
-105.171
-47.806
2.54546
-51.1584
-91.0097
-34.9459
67.2332
101.91
82.2756
28.0207
-42.6815
-49.1967
4.29991
33.2793
68.4588
161.393
233.374
221.203
137.886
-44.4431
-228.066
-250.003
-115.357
-82.435
21.682
93.7873
123.705
111.11
39.7528
-93.6462
-206.26
-108.643
-18.3979
-21.8541
-18.7115
-47.8823
-109.285
-169.249
-66.9803
82.1575
141.693
122.217
82.3986
85.6984
44.2559
10.4314
-21.9415
6.03117
59.3182
23.5996
89.7925
62.9793
12.0497
90.8475
39.5547
-41.7767
-59.4993
-61.2233
-79.6138
-72.3394
9.15713
-15.4121
-160.377
-198.732
-133.404
-103.09
33.6644
204.057
177.345
151.998
94.5222
55.2248
12.8572
-47.8405
-20.3161
35.7004
11.265
-33.5585
-84.8592
-59.0806
-62.3278
-50.7241
34.9375
134.83
158.399
91.5469
-36.2514
-199.656
-230.449
-120.986
-57.0182
11.5817
-42.565
-116.473
-56.4459
-30.2098
1.05559
50.4009
187.777
250.611
167.422
133.819
121.194
58.5987
-24.9513
-20.0284
-20.1913
-33.5404
0.760577
81.5472
84.4524
5.80947
1.54523
-15.2851
-93.4668
-136.072
-168.548
-133.058
-106.587
-129.338
-37.0149
152.6
158.809
43.7224
6.59499
23.6297
-70.6563
-53.8194
-63.1791
-151.643
-222.129
-98.6781
68.0332
108.341
104.637
109.649
87.6512
17.5217
-3.49269
60.2743
50.3958
-89.7896
-31.1814
189.053
183.197
82.7966
61.3113
8.19549
1.58786
208.882
348.347
95.917
-113.928
-183.904
-150.527
-192.545
-258.894
-209.735
-219.045
-202.067
-195.426
-120.776
-18.9015
7.93083
144.259
158.052
81.9638
124.323
208.623
31.6324
-67.4985
13.7351
59.7434
139.361
105.45
157.136
221.107
164.724
48.83
-104.265
-112.912
-92.0883
-121.14
-148.242
-175.437
-162.144
-114.118
-116.027
-150.787
-92.7777
34.1596
69.2421
-67.797
-289.378
-202.702
-6.22848
143.113
249.5
305.239
318.42
346.607
141.978
-137.319
-237.015
-140.33
4.6849
100.15
159.13
221.45
149.593
69.8891
124.612
249.252
196.996
113.686
-58.5266
-204.271
-248.002
-200.118
-151.153
-152.767
-155.255
-150.653
-125.079
-141.729
-89.6331
-11.4219
-54.406
-73.566
-130.325
-259.367
-415.966
-391.655
-2.79993
321.986
564.73
550.015
385.305
191.904
19.5163
-56.3486
44.9472
183.02
205.387
97.5528
8.2355
-3.23381
-93.9798
-163.714
-104.771
-55.6107
45.2439
16.7514
-50.0036
-100.381
-34.962
62.5915
-9.8668
-207.426
-348.576
-367.786
-381.375
-195.072
1.25142
141.06
150.683
72.4491
25.5728
2.93576
109.411
235.991
324.835
381.372
251.489
40.3223
-131.283
-112.187
12.1975
161.811
273.119
168.956
24.0185
32.5418
-14.8696
-257.758
-445.704
-399.078
-167.569
-30.266
-0.743154
56.4902
67.8362
-21.873
-48.0176
-19.0471
-15.2868
-48.6331
-39.4879
39.5452
111.866
118.939
64.9902
38.6951
104.845
90.4126
140.775
194.7
53.9946
-34.2988
0.25167
117.277
32.3519
-112.981
17.1497
99.0319
-192.24
-336.138
-245.511
-215.619
-254.021
-197.749
-108.643
-133.373
-147.437
84.9769
226.808
117.785
57.9953
225.744
251.384
25.6469
-101.743
51.9407
105.375
29.2887
60.241
78.5443
76.1207
42.3548
9.12651
146.363
276.108
146.999
71.7154
-9.66958
6.74694
92.3648
16.5657
-209.115
-316.72
-153.135
2.01895
-26.6569
-115.525
-152.391
-113.634
-66.9028
-114.353
-99.693
42.0336
69.8867
83.4054
-21.7244
-220.866
-297.366
-273.924
-20.2535
367.31
474.259
241.31
6.42984
-55.6626
-59.4335
-65.1429
-137.166
-25.4657
219.052
252.555
236.121
125.112
39.3997
68.4084
105.789
103.497
116.863
96.6679
-37.4102
-190.198
-326.854
-237.927
-72.2411
29.0839
-61.3231
-274.14
-259.041
-120.386
54.5071
201.361
196.313
62.7812
-70.8302
-146.502
-109.03
-391.697
-282.615
70.8821
153.383
65.0455
61.1412
53.3016
57.2432
80.177
183.401
370.681
437.569
284.205
38.6477
-86.9795
-348.898
-388.629
-200.621
-64.6464
78.4857
308.973
287.53
75.209
-66.3464
-153.987
-36.7789
221.669
141.129
-28.4855
-183.971
-434.061
-498.57
-179.136
-69.769
-185.331
-27.5434
223.868
297.613
280.67
292.156
370.115
261.461
24.0457
-149.171
-85.8897
-193.603
-429.015
-280.655
-90.2734
-25.0124
89.5694
278.201
113.659
-200.478
-188.583
246.952
416.035
263.037
202.443
91.7666
-137.825
-209.404
-138.113
-30.9201
-95.134
-133.369
-22.0352
-13.9751
-75.161
-13.1945
158.683
52.7933
-220.421
-183.688
-25.4865
5.53688
-50.0103
-35.909
-106.426
-116.725
166.266
-33.8311
-364.341
-116.747
189.771
451.376
390.612
72.0049
5.30677
-6.22373
-4.77901
36.1953
191.065
228.224
-16.5812
-224.865
-327.144
-384.083
-42.5529
44.5324
-57.3048
-138.182
144.979
380.692
271.504
105.486
-23.5536
-74.0869
-173.973
-49.3791
-27.7021
43.4081
92.7391
-74.6648
-47.9827
-25.6349
59.4884
130.68
0.867794
10.5277
22.4182
151.344
125.747
-205.605
-266.022
-136.165
-83.4892
-24.4687
-7.96873
25.0025
43.0433
-66.1573
-209.252
-164.844
75.8015
105.103
100.609
156.531
52.1659
4.0646
13.6531
102.599
35.5578
-44.0518
77.3618
-42.9505
-62.4524
-55.5268
91.4175
169.723
188.552
79.1905
-0.955229
-122.131
-338.885
-163.069
145.088
102.808
-132.609
-172.972
-15.0096
177.024
-46.9561
-234.57
-426.412
-288.451
153.769
381.392
141.461
95.9358
319.282
221.098
91.9849
179.701
216.81
93.3376
-61.8822
-72.5302
-107.736
-262.688
-172.383
-62.0861
-71.6123
-283.015
-63.1085
259.194
74.7126
-35.4189
71.1004
-75.5931
-213.689
-80.9351
1.70755
6.71084
-76.0761
-73.327
-9.7004
216.409
135.767
97.3991
51.3381
35.3082
29.3676
114.266
-63.3718
-353.469
-330.709
95.1663
563.532
334.799
-3.63835
42.6919
118.79
78.7749
-18.3271
-245.499
-496.697
-547.39
-300.931
147.652
357.19
75.124
116.516
91.5834
153.985
244.021
245.893
-178.836
-557.437
-304.787
-437.543
-404.766
-245.937
247.521
535.61
479.874
538.076
388.434
435.48
181.422
-205.138
-199.786
-125.342
-98.8188
-45.9092
-8.16507
-201.868
-146.771
-236.153
320.13
597.38
157.629
-43.9387
-196.064
-242.662
-217.889
-326.955
-266.903
-237.133
-34.0097
-86.123
-40.3277
-52.3845
114.812
-31.7146
-209.878
70.2769
126.856
152.813
-176.194
-182.638
56.6391
82.9471
39.1457
189.126
311.453
270.761
313.828
215.578
-106.255
-153.573
75.6751
281.895
164.958
-18.6758
-124.425
-226.559
-58.885
146.499
-88.8514
-105.395
-35.9184
-120.052
-248.157
-226.617
-110.705
-337.312
-534.592
19.0468
347.633
185.918
155.041
347.807
268.274
74.8772
111.885
257.27
-150.347
-327.226
50.0247
130.359
58.9664
70.7674
80.9028
9.18868
-50.8421
41.1438
-119.781
-296.186
-455.562
-312.273
-120.641
80.9891
241.175
382.397
308.165
23.3686
-29.6645
-26.0884
-117.936
-110.714
-61.5629
36.6017
94.8337
244.419
99.7288
41.5
45.5847
-130.051
-117.162
-85.7124
-138.794
-158.832
106.824
101.078
-24.6022
3.24426
-95.3483
-212.29
-195.075
-176.734
42.9144
166.46
119.291
61.9982
21.773
36.3355
189.995
113.404
30.3467
98.99
77.3899
-18.306
-163.711
-89.3383
-59.485
-14.1004
298.395
398.39
54.1763
-220.327
-274.462
82.2233
143.831
-6.91127
-155
-172.547
-12.6842
205.35
180.42
18.0755
-107.587
-154.584
-190.894
-124.979
-44.0012
-93.2147
-8.10238
94.2715
42.6446
131.357
-20.4164
-401.619
-296.781
-157.064
-145.657
44.1343
167.926
160.829
417.112
343.081
126.274
-126.312
-78.0269
58.8058
65.9309
101.575
-44.4017
-305.774
-250.292
25.4368
288.324
402.182
540.06
236.537
-109.874
72.6614
164.395
-31.7869
-375.929
-449.226
-260.994
-79.3643
-73.1777
-161.708
-162.819
-201.405
-151.354
89.008
148.235
57.6722
8.32371
73.7004
-103.275
-192.667
-23.6526
-179.093
-370.614
-251.253
271.091
607.736
493.123
173.079
-10.0889
34.4784
118.22
83.8289
44.0078
9.12982
43.1543
-61.6186
-250.993
-265.652
-113.531
329.491
425.414
323.797
294.001
100.392
-180.101
-255.912
-263.456
-282.994
-240.399
71.0673
107.719
-94.1889
-238.311
-204.837
-224.069
-204.144
-22.7797
184.958
116.068
-14.8915
59.0269
-34.9876
248.8
310.582
-10.2624
-228.341
-52.158
217.541
146.351
14.7433
-137.466
-211.012
-60.0795
155.449
204.123
226.733
194.317
-39.319
-200.28
-297.145
-155.186
-7.20532
-165.54
-141.681
4.99971
191.744
58.2707
-69.6341
-51.0983
-77.5507
239.087
577.033
516.183
136.943
-21.4055
-121.835
-290.358
-269.702
-111.981
41.1181
100.862
87.0198
-137.536
-240.877
-176.069
2.77371
-6.85819
-126.635
-94.0341
-168.46
-325.78
-177.675
-165.771
-218.785
5.90953
189.898
462.504
434.25
463.861
287.409
183.292
160.756
-0.285662
-264.114
-169.028
44.1821
37.1009
-6.59862
-193.694
-422.179
-81.7891
186.413
159.597
201.941
161.818
74.292
-121.761
-177.03
-248.917
-197.286
-102.627
-3.16595
-147.347
-157.548
56.6889
287.462
214.664
337.671
416.36
-22.9249
-527.18
-389.097
-152.951
-122.143
50.3267
174.652
257.829
198.628
106.326
84.1667
-7.45074
-142.087
-119.583
-197.014
-138.625
-148.962
-180.94
-35.8395
52.9601
302.569
429.017
264.546
155.262
103.605
-101.015
-162.299
-182.845
-200.637
-182.943
-102.916
1.3842
-16.0413
-35.6049
142.551
139.693
-85.7419
11.0174
-92.7061
-55.6376
256.953
186.813
-218.442
-304.403
-125.691
23.2934
264.67
450.679
365.62
100.628
-175.525
-405.443
-348.652
-39.8047
180.15
-135.475
-259.297
-86.1653
26.5784
130.395
225.768
220.473
185.082
153.957
95.1753
-231.465
-284.825
-228.165
-149.73
-30.2047
103.022
316.222
325.9
237.5
145.125
62.5176
-148.878
-400.015
-152.841
92.3478
-102.138
-140.56
-117.28
-242.743
-151.984
198.352
284.946
96.0351
2.56803
-55.7525
-188.525
-348.571
-407.43
-304.06
180.528
402.703
370.578
452.528
226.338
-127.205
-106.383
-102.827
-140.306
44.94
225.27
364.573
205.931
-67.8967
-466.883
-403.729
122.204
247.896
433.283
294.452
-127.656
-259.749
-75.2746
-95.4056
-252.407
-99.4601
81.9163
56.1625
-23.1825
0.720192
-82.8983
-204.44
-226.772
-155.982
135.384
203.374
51.6057
68.0595
4.87501
57.5401
19.5546
-96.8815
-85.9378
-77.3768
-23.6313
27.8068
18.949
158.232
252.319
145.119
10.6446
-105.918
-355.778
-247.181
200.595
182.544
-74.8294
40.4098
85.2622
26.7383
25.321
93.6296
133.854
87.1616
-56.9218
87.9058
163.587
122.308
89.2292
-180.656
-404.794
-578.759
-457.115
-194.582
63.1377
426.998
389.866
285.121
76.9202
-133.75
-146.412
-92.1467
-10.6206
106.109
102.638
-71.9839
59.9671
73.0162
-52.446
131.55
250.063
247.496
219.236
6.109
-303.286
-438.891
-308.186
-234.527
20.4184
246.829
145.826
44.2327
-59.0607
8.31375
98.3951
29.7006
-177.4
-240.155
-260.373
-193.975
22.4577
181.645
187.882
204.887
28.2169
-53.3024
172.497
78.855
-99.7251
-164.367
26.9858
9.32416
-113.655
-105.26
138.83
76.266
-181.175
-316.894
100.195
752.277
543.204
197.068
61.1323
-54.5876
-130.064
-28.2299
-46.0674
-92.0119
-178.797
-105.915
-132.416
-74.9277
-72.5166
-277.044
-355.265
-300.599
-67.5837
134.913
168.958
-61.576
-29.2051
167.809
254.484
235.098
111.918
-119.906
-66.422
-37.9295
-3.7961
293.166
359.528
96.9752
-147.817
-222.346
-195.139
-84.9342
-88.9833
81.6151
212.582
16.5964
-128.602
-197.135
-249.422
-149.094
16.1461
272.233
419.599
238.707
111.441
-123.326
-228.758
-51.2137
207.441
301.061
135.747
-136.687
-319.662
-253.757
-342.676
-306.698
78.8451
123.919
119.863
176.401
83.9467
63.1669
-209.359
-267.292
-135.518
181.663
286.779
165.994
44.8061
-48.1143
-186.101
-164.233
218.708
394.152
84.1413
83.3738
-4.53888
-246.305
-282.039
4.1905
-67.502
-264.597
-191.708
-56.0972
-81.5134
137.821
361.018
250.091
74.4554
36.8514
102.982
109.83
27.5871
45.86
200.239
147.032
53.6375
64.0972
-68.6107
-363.294
-483.479
-356.206
-155.045
24.3934
125.775
176.083
215.612
253.474
-8.12594
-305.709
-558.6
-257.512
254.536
295.923
156.298
12.4479
-97.3215
-89.1941
-76.4318
-169.032
94.4006
410.395
277.954
141.177
18.724
-127.54
-126.893
-191.545
-123.451
154.614
254.957
155.055
-43.8431
-139.991
-280.568
-406.859
-248.539
10.0167
112.022
486.359
433.551
139.485
71.8337
80.8572
234.824
251.187
-103.525
-358.582
-443.826
-578.615
-320.21
-33.0706
13.3053
155.456
151.576
212.204
265.541
253.066
329.233
206.924
36.4592
-251.518
-358.77
-116.808
-32.3325
-298.626
-349.879
78.7568
406.727
355.594
60.5057
-124.366
-172.729
-146.27
-40.3504
165.91
195.997
10.5102
-365.698
-483.012
-262.183
-56.1969
73.9567
-118.216
-185.588
101.009
233.71
109.902
239.867
330.78
447.105
352.352
45.8318
95.295
166.101
110.959
84.9483
-65.8065
-158.003
-58.6866
-292.809
-466.133
-222.183
-74.8988
48.2339
80.9877
156.879
96.1755
-99.8698
-75.8996
-65.6023
-186.171
-188.016
-27.4577
68.2352
-74.1662
-205.246
-363.309
-360.142
162.636
558.596
412.676
162.003
173.816
95.557
220.177
289.686
32.3156
-141.359
-74.5213
-98.7759
-79.6179
33.7123
19.2383
-32.4885
24.0027
30.1545
126.683
101.218
-321.673
-506.726
-220.677
38.7459
114.467
39.4288
-176.291
-218.226
-231.938
-293.003
58.643
308.77
416.385
455.19
287.938
164.692
-80.4728
-173.784
58.1585
67.7223
-134.154
-176.673
-165.393
-92.4026
102.679
-10.3039
-197.03
31.1242
119.397
68.0871
142.016
282.814
48.7396
-157.105
-212.521
-297.292
-371.711
-254.16
-70.0594
206.52
605.871
481.668
28.4003
-23.9589
120.438
236.06
186.592
-8.40134
-50.9742
-160.918
-246.772
-339.752
-280.563
-238.313
-245.523
-202.163
119.746
51.2467
-46.7648
42.5351
78.7907
254.263
473.588
266.239
9.3229
-67.8966
-48.7983
-127.319
-36.4669
150.126
98.3815
-106.479
-213.542
-224.218
-31.1369
51.4741
19.8805
101.03
142.761
-87.9279
-357.316
-333.674
-27.7607
170.659
150.108
144.939
264.436
329.167
169.424
47.4791
-163.002
-453.06
-270.615
109.372
97.4285
47.409
165.83
213.693
123.184
65.0177
-143.356
-188.724
-58.5279
142.245
5.4774
-157.421
-307.449
-351.186
-133.92
174.542
279.052
375.344
284.017
1.75565
-75.8141
-61.6138
-86.5063
-114.116
12.3998
150.016
246.509
62.3915
-314.032
-643.771
-552.316
-160.227
105.416
168.584
209.644
200.318
111.087
239.694
49.6933
-33.8428
-12.2798
99.2742
431.761
321.897
-123.299
-415.223
-430.027
-70.7173
352.277
193.927
-177.4
-196.392
-98.8
-91.2908
18.213
53.2245
106.307
140.352
127.437
56.8763
-22.8535
-26.0488
-357.39
-162.712
47.3076
192.793
130.412
-57.6019
-172.369
-37.8354
286.367
281.493
148.482
103.624
128.086
57.7677
-144.76
-334.407
-263.602
-160.652
118.325
199.544
-24.2506
-152.887
-147.679
-143.097
-136.363
-41.6817
137.894
285.738
161.721
-25.7947
-83.6269
-103.881
-181.853
-95.0912
-89.2728
-270.541
-248.916
-38.8051
170.968
329.689
153.303
-36.7258
-12.5945
106.519
334.588
409.255
210.489
31.3163
36.7296
-2.45351
-20.2654
34.9534
-60.4597
-592.692
-490.333
146.251
219.831
131.723
146.103
149.789
258.903
157.896
-91.3986
-194.875
-241.709
-190.739
-153.257
-203.496
-201.997
-77.0477
-45.8846
-142.906
-83.3605
370.67
546.623
236.345
73.7215
-81.4591
-242.601
-236.518
-35.1742
76.4612
67.6881
-6.51222
-82.7551
-69.1105
-40.7105
-3.01036
10.1061
10.9972
29.873
15.3693
13.0394
27.1526
47.1405
82.543
75.5756
32.0891
14.1038
-118.9
-126.475
12.2278
51.0119
-154.919
-268.538
-200.85
119.106
364.192
457.15
374.801
154.895
112.781
185.39
186.464
-108.012
-367.447
-304.86
-223.262
-308.122
-265.129
-256.692
-396.771
-5.48998
259.114
386.668
394.08
108.221
-28.4432
-37.3843
-55.1634
-131.969
-174.378
-13.4348
192.935
187.297
42.6132
-38.1732
-77.5857
182.87
286.976
204.341
46.2549
-267.925
-351.789
-262.161
-193.682
52.1838
-52.6563
-248.275
-120.817
148.846
154.921
-37.0458
26.4405
-80.9751
-323.716
-109.286
190.069
104.935
37.3765
114.917
257.512
220.439
253.806
293.187
232.798
30.1045
16.6076
-0.416955
-144.84
-238.502
-75.4222
64.1268
-99.0796
32.561
220.191
114.415
-74.4714
-211.092
-343.72
-230.166
22.2447
58.7257
105.277
42.8389
-99.2675
-180.229
-156.774
-94.9437
-108.462
-73.862
-51.7489
-2.65338
-9.26895
-21.8475
135.199
0.421272
-66.6896
217.575
406.227
220.767
23.1222
120.16
225.768
-17.6624
-151.743
-190.47
-192.871
-61.7175
54.2415
308.933
221.028
52.1885
-87.1396
-83.3846
-83.8108
7.23061
51.8568
-177.85
-267.578
-145.389
-75.5638
-101.454
-146.006
-47.7757
11.0342
30.3121
40.9007
48.2859
167.205
96.3032
-87.2633
-140.694
-24.3645
7.15955
-16.2365
119.96
226.594
222.716
252.285
96.1166
-92.3279
-84.9275
109.187
278.706
178.577
-15.8465
-30.1935
86.5236
-26.6738
-197.209
-435.644
-786.601
-814.901
-159.282
384.114
796.281
805.666
330.01
-58.6974
-262.016
-198.371
-129.464
-166.662
-156.651
-225.547
-196.207
29.0586
-26.8507
-100.997
-38.5563
233.981
362.343
428.692
89.4599
-206.983
-227.718
-240.447
-137.252
-70.6014
6.72883
105.312
242.238
160.869
56.4658
109.39
102.021
-60.9823
-90.8188
37.4614
133.545
182.094
301.882
219.531
-126.69
-273.651
-351.151
-261.546
-250.451
-56.9248
173.672
54.7405
-148.571
-282.063
-185.926
33.5228
230.656
370.28
266.493
279.202
89.5537
-203.405
-228.573
-400.193
-260.202
83.0942
149.47
94.0023
143.1
17.7143
-101.722
-17.7831
65.0747
110.485
114.147
79.0198
-180.336
-302.606
-28.7488
176.026
-5.0582
-8.69434
-79.0092
47.3412
236.756
248.602
162.204
80.4287
-127.037
-288.387
-116.152
87.7259
-110.682
-33.8908
124.363
-17.7931
-1.60912
11.1769
-55.987
-208.424
-146.747
-16.9421
17.2821
19.2073
106.424
119.316
-5.45929
13.8052
29.7582
-5.84894
-62.0046
-55.8986
114.2
195.751
120.98
26.5718
24.2464
-35.3402
-150.378
-227.836
-82.5987
113.437
237.734
236.639
2.32122
-153.978
-233.516
-393.818
-127.698
98.2004
106.16
73.122
27.5056
-102.818
-311.23
1.74647
365.662
327.226
144.014
-77.0066
-219.648
-210.302
40.1821
330.659
198.291
-17.0964
-101.076
40.6426
59.5962
-89.0495
-140.132
59.1779
225.09
141.632
77.9989
-16.7053
-188.323
-204.826
-239.582
-47.423
143.611
51.2913
-63.5344
-198.638
-144.449
-58.5964
-76.391
-61.6295
41.579
329.248
405.604
102.203
-83.2165
-94.5856
26.7576
-26.1907
-231.68
-128.073
96.6593
-47.8728
-154.406
-145.869
-138.981
227.655
409.904
27.8734
-207.17
-129.395
125.134
195.506
35.2892
-173.054
-167.816
-139.969
-185.562
-172.448
186.775
477.531
279.592
69.4276
41.7538
295.977
302.1
42.6953
-74.3338
0.649918
117.323
55.2798
-286.931
-616.734
-330.066
-34.5947
33.6556
-22.9236
38.6809
293.873
182.728
-155.484
-326.912
-303.635
-201.021
72.1983
108.468
102.43
24.7972
-60.4376
78.9952
194.714
50.885
24.6112
124.645
177.382
-2.86974
-92.6764
-52.2608
-58.7234
-43.306
38.2729
247.322
219.841
-105.711
-421.521
-243.983
-335.514
-314.176
32.0475
126.556
246.123
366.707
329.103
154.987
10.7134
47.8453
266.453
-10.19
-343.79
-281.116
-258.3
-150.291
77.551
319.698
297.287
25.9179
-87.4846
94.8139
293.329
122.601
-212.687
-331.336
-122.804
-36.8689
-8.41661
-80.4074
-153.671
27.032
200.339
157.803
166.274
48.3104
-35.2033
-5.62288
29.3897
-33.4843
-177.136
-329.946
-382.684
-163.102
-110.714
-138.163
-33.3968
93.2197
186.195
371.449
387.466
246.809
-1.04247
-135.703
-123.423
5.64123
67.9381
7.82632
-142.277
-237.936
13.5088
360.147
181.437
126.256
115.61
72.8648
33.3655
-338.279
-496.956
-206.849
-60.5112
-46.987
10.9553
-9.40909
66.6855
144.829
78.1288
49.3863
109.532
276.474
256.857
28.8219
0.795152
-11.7223
1.36553
-56.9531
-217.666
102.107
418.443
-20.8558
-154.711
-94.6945
-389.637
-411.248
-4.67573
44.3862
10.3909
57.1123
243.154
148.301
-96.183
-229.861
-143.977
-117.657
37.3733
237.934
239.644
75.0872
-150.41
-101.539
-231.31
-214.361
-1.72866
83.2036
-168.216
-141.14
81.8355
98.5827
16.6328
222.902
276.018
182.616
99.0271
-25.7366
-146.122
56.1391
185.736
80.9204
-26.3764
40.456
127.875
12.4652
80.6615
0.572242
-227.354
-67.6811
-64.53
-8.79273
158.242
16.7768
-184.405
69.2792
129.052
-58.0118
-31.8149
-137.072
-332.063
-407.773
-59.6576
261.988
174.018
149.727
167.33
145.77
126.669
-85.0983
-194.23
-262.642
-437.052
-362.06
-133.065
-143.266
-109.456
-5.99748
241.784
482.228
523.739
449.875
177.858
-335.221
-414.621
43.0536
229.251
238.24
145.466
12.3392
-213.754
-249.157
93.0217
101.029
156.066
80.0094
-50.8002
-65.9688
6.09198
48.9547
-110.488
-99.2371
-171.067
-145.455
112.662
152.481
140.232
63.4224
-64.4583
-103.677
-50.5354
-24.6987
-149.147
-77.3656
-41.2582
-156.459
-76.4547
206.724
89.944
-108.432
-59.5074
23.4557
140.079
175.19
64.2698
-97.4005
-184.72
-177.905
-49.3181
79.3496
269.629
342.313
234.578
81.5939
-105.045
-201.365
-300.238
-335.081
-103.616
5.87894
-70.4872
-164.488
-4.69562
162.59
297.179
298.104
183.981
84.6363
-87.5133
-262.346
-38.2005
116.952
97.8571
-40.142
38.1138
95.0178
165.799
150.784
-137.358
-289.583
-23.7595
177.921
93.1381
-45.8149
-236.395
-408.34
-356.168
-179.471
56.0567
169.71
-41.7642
-104.629
68.1024
290.307
198.863
116.013
182.862
201.68
-23.2757
-153.816
9.8828
59.4466
-208.932
-65.6218
255.068
259.276
79.6041
21.3557
-6.73717
-83.4548
69.6701
87.6955
-190.48
-298.58
-177.525
-28.6127
-6.71325
-22.6044
51.74
16.9621
-147.178
-279.716
-167.409
-38.7658
-134.388
-180.744
14.6594
295.425
390.534
164.691
-2.12205
65.5257
35.6721
-77.7849
-47.1965
-3.73078
124.87
186.013
236.835
221.643
163.015
152.516
116.637
-41.5236
-250.155
-258.205
-204.029
-172.569
-172.563
-54.3278
-114.196
-404.54
-259.28
98.2348
46.8779
15.5126
144.184
155.845
42.2394
81.6798
153.158
91.0262
-11.0415
-154.236
-241.675
190.657
314.384
28.1862
1.14552
142.626
161.696
212.453
139.538
16.7661
12.4264
8.26724
-190.284
-267.913
-211.762
-162.438
-100.798
-83.8364
-127.955
-23.5371
113.109
-111.109
-19.2413
285.722
163.461
70.8604
157.453
114.058
59.9691
-81.8108
-254.622
-320.983
-290.074
-214.229
111.537
145.088
-1.734
-10.1122
20.7488
161.583
222.823
59.0702
-150.607
-124.058
72.305
128.135
49.2506
162.812
131.592
117.431
182.125
78.8565
-96.3811
-119.478
-109.334
-162.735
-130.676
37.9847
122.474
37.5578
-11.5924
-56.7333
31.2487
-156.346
-233.607
-45.3827
15.1428
10.4589
-45.4665
-102.066
-81.0593
46.6632
139.271
55.6459
-37.4502
154.295
-5.57162
-161.54
12.2363
-36.2439
231.9
492.092
301.232
2.23007
-154.378
-213.548
-163.504
-135.834
-195.625
-107.536
-56.1962
22.6771
333.482
307.061
3.7721
-161.288
-124.006
-0.854199
22.2091
4.62333
-139.416
-194.22
-11.5512
98.2747
-33.3207
-292.431
-410.935
-329.88
51.921
297.473
505.116
662.46
308.358
-62.8813
-128.79
-161.891
-88.3268
109.266
24.9752
143.119
84.3762
-153.851
-435.882
-445.831
-257.999
112.392
447.244
311.099
140.099
203.559
38.5812
-200.049
-181.508
-60.9871
-82.1888
78.385
316.407
92.8132
-73.2468
-103.683
-46.235
-36.6168
-85.4848
-75.8387
-93.4665
-124.188
-79.9
36.6787
-35.5413
-208.888
-155.973
-238.989
-213.892
219.251
134.036
-112.687
80.5884
165.179
82.2654
175.201
134.266
128.394
227.79
285.533
263.761
144.77
-38.6746
-41.3709
-138.291
-244.555
-212.344
-30.5315
-3.71939
57.6415
284.342
271.199
92.494
26.5702
-56.3993
-295.745
-423
-401.59
-177.387
31.2072
133.637
105.692
-17.0378
-178.549
-417.654
-448.761
-93.6433
256.03
259.495
257.631
382.913
318.502
138.385
-110.913
-106.431
-53.1859
21.451
103.006
251.675
146.194
-70.9667
-196.577
-274.681
-114.102
306.273
456.653
222.827
-219.888
-400.108
-419.706
-271.459
-7.92432
129.882
197.243
259.275
269.261
114.311
-133.64
-410.599
-329.463
86.3905
153.844
188.726
131.26
40.1028
57.4819
-16.2099
-101.04
-94.2289
-151.034
-91.9944
-75.4885
-176.569
-255.664
-146.221
-49.5627
30.1304
275.736
390.836
222.817
-52.0566
-52.0789
161.562
305.108
210.761
33.8647
-123.721
-260.203
-88.9486
-18.5158
-144.47
-82.7867
-52.0098
48.0943
232.508
221.124
59.3738
-223.935
-336.806
-61.9918
53.3613
37.7251
31.9055
-47.1968
-131.272
-92.1945
-24.9157
175.577
287.536
309.895
230.138
178.264
2.70072
-263.376
-487.889
-461.116
-83.855
209.039
166.129
-63.7928
-183.527
-384.657
-249.207
295.967
314.414
194.244
245.071
297.663
159.508
-188.957
-296.587
-163.76
-2.79802
148.79
42.6122
-82.7197
-147.702
-132.022
-47.7284
70.1345
119.258
271.25
222.85
-110.377
-72.758
37.6513
-15.7226
-40.9075
11.615
-12.5087
-113.859
-242.976
-154.314
-68.486
38.5518
252.392
280.331
277.564
122.377
-112.627
-208.137
-156.716
-149.921
-12.1326
234.404
234.618
60.5894
-82.8694
-393.077
-79.1812
146.997
26.6597
-177.441
-32.0552
-36.6515
-213.024
25.8555
120.465
36.3476
123.215
194.266
167.905
14.8854
-175.467
-215.693
-269.152
-142.084
3.06021
194.559
45.2532
67.6357
253.927
166.704
43.5356
152.666
96.3822
-100.932
-190.537
-218.501
-38.7517
62.5452
36.9476
-17.9637
-125.485
-207.1
12.1375
177.086
167.621
122.092
-51.6674
-190.866
-126.119
-50.9959
-24.578
-82.4608
104.295
144.394
96.3409
188.586
15.1428
-4.4911
153.699
94.8715
143.163
259
27.181
-183.043
-200.563
-113.605
-242.731
-178.565
-126.36
-7.73433
9.75504
-121.195
-86.9929
-84.505
-215.787
201.749
303.998
159.006
114.417
48.7774
-134.886
-270.972
-271.428
-258.246
-157.589
34.2865
332.951
309.453
29.2149
-35.2809
51.7565
223.35
183.277
103.758
268.123
129.171
-14.9295
-102.946
-169.562
-50.141
-22.3492
-170.75
-302.533
-1.17975
331.169
258.849
160.945
159.91
95.9997
-25.8118
-28.6861
-37.4391
-133.076
-359.084
-417.549
-377.113
-254.756
-206.484
-162.763
-147.395
-7.16057
142.047
280.836
183.589
0.570277
68.8035
179.962
295.278
461.022
353.985
152.309
20.4211
-97.2111
-263.602
-285.236
-335.893
-9.89284
401.041
365.019
139.038
-79.0009
-91.6689
-29.3299
-63.9823
-155.964
-154.476
-39.2575
-202.284
-285.671
-141.902
-110.91
-32.5639
109.647
233.356
226.69
-74.5051
-445.833
-355.753
109.314
219.7
279.045
419.474
372.389
294.159
259.447
106.404
-131.069
-305.617
-429.306
-480.357
-406.582
-77.8883
16.3142
0.947595
130.276
364.99
360.922
176.494
7.01061
-26.9418
-72.9248
-123.563
-93.2223
-90.9678
-96.1911
-94.5927
-38.6896
-19.0447
23.7195
126.495
119.849
3.19537
188.744
366.279
229.453
-57.9632
-207.012
-235.208
-1.63656
201.023
72.9358
-43.7502
-122.597
-298.666
-406.885
-258.994
-48.039
145.695
127.93
92.1027
-16.8433
-179.439
-65.4204
-0.468906
-7.01418
111.055
276.28
291.483
34.6621
-49.4054
-73.9322
-78.6708
58.8654
197.083
264.129
147.472
-114.113
-153.034
-187.944
-73.8032
83.035
104.965
65.6862
57.5757
-151.926
-248.611
-111.185
-161.911
-218.196
141.061
295.431
57.3358
-64.2311
63.2282
147.123
59.979
-52.863
-157.372
-134.231
-63.1802
48.0849
89.8104
-77.9958
-116.069
40.9672
156.971
65.7493
83.3897
104.766
-346.882
-486.202
63.0046
395.799
254.422
192.77
208.493
16.6205
-172.733
-147.294
-164.65
-4.9449
169.473
-19.4926
-109.461
-19.2799
35.0761
-39.3727
184.032
153.383
-55.674
-59.9238
-75.7823
-99.5428
-132.066
-117.548
-57.7727
173.299
158.019
-112.988
-368.016
-464.952
-206.419
148.113
451.218
345.117
65.4453
-42.3107
-188.219
-6.64409
245.416
162.632
-68.0607
-98.8221
20.2185
87.7353
140.481
200.087
197.512
258.707
340.407
263.943
0.816662
-254.942
-470.409
-531.255
-514.016
-303.087
42.3089
34.1416
-79.966
333.5
570.795
72.9252
-171.209
-316.226
-416.987
-409.779
-277.612
-52.2396
186.969
301.927
391.128
357.666
136.734
124.673
302.777
279.361
-67.8278
-286.861
-190.879
-185.316
-268.246
-47.646
120.808
2.28406
-97.2984
-92.1443
-40.3029
-49.8494
215.162
300.235
152.488
18.5901
-114.155
-170.756
-146.387
114.372
262.933
183.207
135.239
21.1439
-168.567
-202.097
-187.633
-81.1297
48.7048
178.888
248.903
277.06
86.8887
-103.923
-330.821
-180.701
-8.23594
25.2133
-24.9902
-111.362
-213.927
-172.186
-186.502
-285.265
-241.147
-20.6131
331.063
359.599
174.371
-98.4964
-117.588
63.2688
145.209
100.486
117.251
2.5146
-47.9819
105.449
257.599
246.109
223.727
22.785
-292.227
-342.114
-246.475
-181.271
-200.08
-77.5605
175.443
352.841
332.886
103.348
-190.133
-160.188
-104.921
57.5453
198.153
147.117
139.253
71.0766
-142.372
-324.716
-330.34
-255.259
-84.0936
210.465
225.092
116.015
-81.6105
-199.252
-170.373
-40.0815
122.327
250.202
261.054
122.679
-83.6507
-50.6261
78.773
-27.1025
-133.424
-33.1617
320.873
338.81
121.436
-99.8795
-278.415
-227.579
-117.885
-11.0861
23.3238
-23.9563
-130.683
-269.996
-187.325
-167.634
-12.3536
41.0587
-16.622
59.1539
171.578
226.787
207.8
156.198
69.4078
-97.9118
-74.9051
13.5639
-20.85
-88.1753
-108.705
18.4537
120.783
122.494
105.099
111.903
-27.3829
-32.2359
35.6941
140.775
20.2074
-101.364
-88.0131
-55.3556
-85.888
28.4249
18.5815
-71.117
-69.9106
8.5445
28.8633
-45.7809
-61.9024
-16.3516
-69.5877
-148.696
-28.987
55.1132
69.0714
-58.8113
-47.9836
79.5302
-2.1021
-6.27236
99.5239
-51.9879
-108.391
50.0342
138.01
218.195
198.22
151.914
52.8476
-179.377
-178.293
60.9074
188.187
-38.1418
-342.62
-362.964
11.6844
145.748
80.703
11.5056
25.4929
75.8401
81.2964
1.1473
-87.7226
-219.308
-154.521
-53.8976
-83.6241
93.2204
243.288
-49.4549
-65.3918
225.431
490.551
286.794
32.5093
130.472
-65.4613
-340.969
-248.152
-235.779
-291.447
-119.643
-6.91528
106.911
124.617
-78.6878
38.2438
221.212
-31.9419
-189.412
-262.55
-61.1922
238.296
346.592
72.427
-168.591
-11.8039
113.597
26.4756
88.779
125.062
-19.3366
-61.8583
-26.1404
31.7462
163.963
47.6999
-139.913
-92.9279
58.043
104.793
-45.0952
-220.757
-287.347
-393.868
-288.298
54.8887
326.43
406.734
245.446
46.6504
-139.626
-205.083
-6.35885
161.552
146.881
52.8041
2.71177
111.409
113.836
-20.2609
-128.299
-245.569
-233.172
-50.0978
-41.128
28.9148
58.3857
-188.572
-57.8754
150.2
211.986
238.592
74.9633
40.8123
-28.6472
-90.9922
-150.528
-200.763
8.9522
225.84
136.553
1.3623
0.763788
-66.9648
-13.876
-27.2924
-1.5505
45.3201
-68.4985
-88.1627
59.6155
171.069
24.5853
-186.699
-195.328
-66.8772
36.795
140.863
91.4515
60.5859
22.282
6.50725
15.5739
96.6747
-41.4455
-187.599
-89.2839
85.4628
112.425
88.088
80.8906
-102.121
-406.986
-403.083
-284.988
-96.3978
273.751
353.621
313.467
369.846
287.221
130.25
-153.327
-478.587
-460.402
-277.786
2.0161
99.0481
151.086
315.036
185.781
79.4495
268.62
280.304
198.22
69.0661
-197.772
-278.779
-281.312
-346.914
-250.121
-185.489
-78.5162
329.041
588.49
342.092
93.016
-46.9274
-177.22
-419.87
-424.955
-333.354
-4.81836
207.2
232.971
219.545
174.259
28.399
-137.942
-200.217
-110.084
-7.25489
87.095
77.8456
-59.8736
-20.8265
-65.3781
-87.7983
-30.2999
189.02
245.388
264.461
110.017
-122.646
-179.639
39.4781
73.9308
-32.9693
-42.6396
-88.735
-220.772
-272.51
-72.5452
94.6485
115.495
179.67
166.927
96.7594
-8.0005
-78.5394
-40.4422
11.5619
29.4294
92.5213
270.621
138.669
-148.673
-231.449
-234.753
-263.061
-171.802
83.7991
257.494
136.027
76.8571
16.5773
-86.4855
-26.4042
52.1767
97.6483
129.559
42.3302
5.63207
-53.2906
-189.12
-252.679
-108.63
-36.076
89.1631
113.649
139.659
189.197
43.1898
-128.743
-80.0706
53.3664
51.4609
-22.179
-76.8109
-123.747
-157.505
-85.1588
-75.6701
-57.2131
-6.3066
24.9571
-24.8365
-164.877
-150.363
228.921
504.834
429.413
105.879
27.5229
9.98702
-61.7806
-77.5623
-125.675
-267.294
-114.909
-1.54056
46.9084
75.6667
67.6844
112.693
222.558
146.297
120.813
37.9643
-141.415
-447.183
-724.486
-575.695
-83.063
243.808
382.777
292.23
221.523
567.506
286.233
-92.2065
-133.947
-127.664
-129.856
-137.521
-192.226
-132.888
-63.0804
17.2503
13.0051
-22.7399
297.665
548.451
315.317
-29.0845
-193.449
-216.675
-142.317
-197.818
-262.22
-147.699
-79.2057
-92.2512
-58.2494
-78.3939
-151.918
12.97
182.825
177.656
153.084
201.802
143.726
4.03849
-77.5378
-116.255
-177.65
-15.2967
84.459
82.6548
111.543
136.971
-4.19383
-146.923
-240.423
-105.455
81.904
185.72
233.306
178.999
75.8952
18.679
-75.7115
16.3487
43.5522
-49.8092
-15.7983
-24.9227
-59.7618
-155.729
-152.977
-98.1738
100.393
280.859
197.966
37.8112
-39.3932
-99.7351
-92.2944
-127.832
-243.532
-302.139
-62.6976
-1.62227
-132.245
-24.212
60.9669
20.9618
123.93
345.022
182.566
37.2121
19.0382
-8.99522
122.191
97.7883
72.369
-68.806
-214.916
-291.415
-118.521
72.5718
-33.8281
-65.0918
149.717
179.054
-14.6321
-55.502
-141.696
-164.844
-53.2689
-33.0191
24.4434
226.329
314.067
325.076
50.6128
-400.338
-211.614
91.5903
176.049
117.847
-69.4104
-202.94
-119.26
-16.8679
68.8429
127.713
98.6636
18.6008
88.1032
112.358
11.6195
-147.497
-241.348
-203.951
-16.2262
328.381
312.212
107.198
-104.806
-135.305
-146.656
-168.022
-52.2785
-20.3218
4.56397
-11.1526
-91.1513
-225.195
-216.616
-56.0963
94.2131
138.036
125.347
53.8787
-142.945
-148.165
36.4424
197.878
245.851
208.543
203.32
132.385
-48.3925
-86.6278
-1.73251
155.481
238.354
82.1996
-52.1322
10.3071
1.69559
-286.752
-344.709
-220.162
-114.985
-38.2443
-64.0879
-53.9606
29.0065
29.4548
0.965139
124.873
99.9254
-16.7615
-113.491
-375.792
-392.142
21.8768
223.251
179.26
61.8637
117.564
161.143
127.57
191.605
217.969
12.5963
-113.889
72.3201
210.18
106.086
8.74883
-27.7368
-29.693
-16.0057
-0.354926
-39.4299
-236.51
-336.92
-133.049
-59.9531
19.9344
45.3626
-27.7213
-52.8803
0.0922177
57.8013
186.459
102.22
24.3701
32.9811
45.212
-57.2625
-97.8482
-39.2501
111.31
145.283
-67.4577
-236.299
-450.59
-149.759
294.455
233.437
105.866
35.1462
53.8318
287.041
191.277
-230.177
-423.877
-225.053
-7.33965
156.325
98.7028
50.9439
142.972
130.093
91.0979
146.423
86.5835
-102.641
-307.525
-203.17
-22.8554
126.559
-58.6861
-297.005
-238.86
52.6565
243.414
191.646
-124.98
-337.183
-194.118
107.352
64.68
10.1224
176.646
423.169
326.204
129.686
11.1278
-19.7934
-182.263
-255.064
-57.5792
68.6622
102.972
41.1751
-46.8421
56.7136
101.11
80.2579
66.9774
-109.345
-144.956
-70.6249
-56.3462
-52.4355
59.6916
67.2296
-54.7757
-117.065
-92.355
-70.1471
-106.722
-161.192
-108.387
23.412
-0.371586
-124.251
-59.8991
47.4491
147.288
263.538
257.436
163.411
237.431
179.912
105.277
74.97
-77.5468
-351.312
-468.804
-3.55246
175.503
136.518
27.8973
-122.995
-87.5725
-81.493
-51.4406
37.1615
0.543679
-79.5432
-84.0371
-64.8663
-115.319
-106.556
-113.226
-141.471
-16.627
339.125
620.47
425.604
228.469
39.3089
-110.46
-170.204
-295.778
-252.691
16.1044
45.8138
37.249
-27.6402
-100.459
-85.0308
-70.6949
-63.8845
-2.32417
41.3313
88.8446
92.0229
66.4019
-78.4834
-66.0813
15.7252
10.353
-60.087
27.0171
207.589
159.781
111.693
-32.5507
-165.504
-229.09
-152.526
-51.5099
66.4242
218.695
180.034
31.4932
-48.9743
-48.577
-83.8621
-84.582
-76.285
-89.621
-25.1466
71.8253
71.1678
53.9869
49.3177
-24.6571
-209.228
-247.48
82.3084
291.365
74.888
-51.831
-3.39617
-98.3802
-108.926
20.0413
46.0323
77.4935
94.593
137.067
115.921
-80.2399
-295.802
9.17048
203.132
194.194
248.989
222.15
-43.9197
-356.117
-303.71
-293.526
-301.488
134.504
251.649
145.592
32.0323
-54.2423
-2.98331
34.6431
81.761
200.055
262.631
-84.6041
-243.198
-182.766
-118.501
4.75424
-63.3077
-140.395
1.35895
73.5142
140.816
106.541
248.304
118.343
-146.234
-31.3986
-46.5303
-109.441
-75.3346
-9.24351
13.6194
-27.3214
14.4753
57.9814
27.5593
-12.8814
-4.33362
99.0849
6.06429
-109.977
-108.309
-203.757
-277.692
-74.7056
141.574
144.901
90.2133
62.6975
88.1368
115.614
-5.03756
-185.525
-360.091
-144.323
359.141
298.264
114.653
187.333
224.524
212.493
123.968
-52.9201
-171.361
-333.774
-357.656
-220.501
-80.8797
62.9705
73.7217
98.3935
213.314
215.293
161.317
125.833
-140.39
-136.128
16.1318
-18.1054
-227.424
-452.585
-409.101
116.009
351.761
270.444
223.478
192.354
49.6325
-0.661897
-31.3754
-69.1493
-85.2457
-38.8976
26.6224
-89.7675
-300.495
-282.406
-74.7898
-29.1138
33.6999
163.544
165.509
-18.4732
-115.134
55.9705
201.637
48.7183
20.5745
-56.64
27.3961
290.774
178.687
-239.846
-295.435
-227.485
44.4133
290.207
171.92
18.9114
33.4232
37.3915
1.82825
-21.2381
-5.12514
-13.0213
-69.0764
-109.125
-69.0642
-60.088
-101.232
-93.0707
-57.4127
76.5357
136.413
256.416
259.852
-3.64372
-286.292
-169.879
50.2965
-17.5422
-36.0166
149.573
167.494
-13.6714
-214.701
-287.207
-129.239
49.3351
164.002
22.0617
37.307
84.2216
149.43
102.32
27.398
117.058
129.108
-69.2485
-251.169
-175.369
2.42951
-23.5078
-27.3977
33.6339
48.0538
9.71552
-94.8705
-83.5589
63.6533
4.29535
-109.644
-4.47594
96.3989
6.97994
-97.347
-141.24
-153.018
-176.218
-88.6647
419.086
830.132
396.486
-102.245
-191.213
-116.482
-78.0928
-44.7932
48.3572
-72.4809
-192.323
-227.444
-179.303
-121.339
-22.6634
57.2487
111.165
214.578
195.803
24.2369
-304.53
-562.799
-446.89
39.7736
380.387
274.872
133.473
46.5772
76.4341
100.116
288.863
400.991
313.619
111.515
-76.4522
-284.649
-505.939
-311.694
14.674
134.003
104.382
27.1628
72.9677
5.27037
-95.542
12.2039
68.9258
42.4705
-136.123
-176.043
-173.597
-120.436
-35.7817
-10.1285
-25.8979
5.64652
99.5228
90.4456
76.4933
156.779
153.125
50.9234
85.7321
-47.5238
-171.363
-111.686
-95.1217
-75.671
98.567
188.616
137.023
-48.3996
-217.823
-292.274
-282.383
-18.5463
256.949
228.824
242.669
186.186
126.493
177.384
125.561
40.6797
-135.859
-372.124
-325.227
-116.372
-89.4124
-132.184
-130.069
25.5312
171.532
145.709
137.514
55.7061
34.1332
-44.1346
-50.3385
-37.0824
-128.815
-94.1086
-46.6232
28.2127
294.406
352.239
292.531
151.675
-18.7234
-141.934
-242.273
-327.475
-73.9824
324.149
319.696
167.008
-85.4386
-325.2
-511.236
-307.83
55.5792
101.52
-41.3239
-115.014
-133.531
-15.6286
128.168
124.347
58.5095
3.49849
84.244
253.01
157.629
-23.1425
-55.7464
-157.745
-123.518
194.518
315.024
150.942
-20.6184
-139.829
-103.098
-26.2301
-80.0255
-35.6888
-11.03
-13.2397
50.0893
75.8491
-13.0621
-127.786
-29.5012
-42.6911
-154.197
-61.6436
-49.8318
-3.00676
324.628
383.337
94.4796
-182.406
-257.868
-154.128
-78.4202
-55.6728
-95.9801
-8.29621
147.858
177.062
244.985
76.9169
-152.668
-289.991
-214.458
-48.2744
169.122
296.264
25.7042
-108.316
-25.361
15.8581
44.5279
52.0666
90.3097
-73.7156
-174.561
49.4648
19.042
-7.60833
-12.8262
30.9618
21.1382
35.6527
93.7015
75.0454
36.8003
-112.851
-69.3307
30.3302
8.13069
-4.98697
42.5819
-66.2931
-253.971
-76.1987
285.302
159.624
-17.7608
-60.7921
-135.281
-172.697
-135.087
14.146
177.67
211.697
85.4744
-41.4377
-169.456
-280.541
-171.788
18.4911
29.9943
141.315
191.181
232.294
310.428
182.003
-72.6316
-184.316
-159.047
-55.3381
55.9723
-7.47435
-63.3493
-85.7482
-73.2014
-58.0124
-39.9045
-48.3656
-69.4106
-68.237
121.357
256.219
169.412
9.2722
-240.288
-144.042
54.2898
4.8824
-50.4315
73.8316
17.1003
32.6937
24.2199
-40.7125
-47.3587
-18.425
29.3091
173.647
197.896
85.0769
20.2805
-130.412
-132.037
-140.283
-309.612
-282.313
-40.8755
135.091
269.408
247.197
148.019
104.669
32.5523
-28.4443
32.048
156.871
105.344
-63.1334
-186.813
-174.482
-346.123
-388.254
-106.393
117.432
265.77
260.324
185.115
20.2175
-130.492
-185.268
-175.21
-118.588
42.5422
217.241
104.368
17.8523
32.6664
48.5301
160.829
303.542
308.711
178.291
-21.4093
-175.82
-334.27
-438.148
-265.618
14.3919
64.1764
90.0917
96.1435
-34.5934
-160.504
-348.891
-230.923
-55.3899
105.826
162.863
128.908
-0.0326764
-28.6234
25.8768
111.986
450.497
554.999
274.529
-65.0844
-213.569
-197.977
-183.848
-61.8136
65.8704
67.7166
50.9864
67.9546
-22.6984
-194.879
-212.426
-137.399
-103.178
-28.0743
26.5218
-72.3979
-297.512
-132.727
170.793
183.248
201.469
193.962
130.734
38.2051
-44.7051
5.87793
11.3951
-71.5835
59.084
-78.364
-182.656
-179.254
-198.277
-58.6487
102.613
202.206
190.968
65.2341
-48.4442
-106.463
-143.193
-87.8421
3.38514
57.4431
137.766
216.473
273.536
94.0352
-60.3185
1.45691
69.1364
113.594
195.627
77.5725
-22.0985
-154.164
-176.275
-195.406
-277.794
-190.175
-94.6269
-116.548
-139.939
-68.4412
-5.19098
-36.7443
134.805
222.637
82.7661
20.8175
44.0162
38.1338
28.5481
-24.6639
-155.467
-109.524
-5.65931
94.5638
143.846
73.4937
78.4383
122.822
141.489
41.8776
-8.23796
-63.1153
-242.954
-106.684
126.18
157.038
88.4718
15.9722
-88.2866
-80.8377
-4.66594
60.9482
-10.084
-143.123
-63.9261
120.185
105.195
-55.4003
-73.1067
98.9426
140.663
36.1496
-46.1887
-69.2389
-267.224
-267.55
-280.083
-174.214
-4.24191
52.0407
143.334
288.089
364.145
168.09
-117.285
-127.323
-54.4016
3.49733
96.6903
95.7152
-7.04835
-71.4954
-74.7888
54.0085
110.337
52.693
35.7242
-0.841885
22.7067
19.1431
-71.9389
-295.023
-431.948
-159.683
168.594
209.558
282.853
285.14
101.369
9.21904
-7.40849
15.6878
-10.0604
-91.3457
-132.122
-117.958
-128.453
-77.7913
12.6651
34.0664
16.0742
54.5052
1.97818
-44.9364
-83.1046
-72.2945
-23.1464
-7.5578
78.7608
-0.242077
-181.671
-37.0163
200.213
137.436
63.9862
101.067
157.968
91.7198
-44.2141
-80.6225
-29.1805
101.247
109.347
-39.8566
-167.518
-258.472
-290.214
-47.1261
63.8005
102.253
192.173
110.903
-40.062
-152.424
-22.5829
123.439
147.617
66.7217
-114.67
-65.7862
82.3956
-25.1198
54.1895
137.277
125.787
76.9455
-89.1984
-241.624
-143.339
18.7748
74.9854
12.3917
-3.91943
-7.2078
-180.326
-188.855
-74.2201
-4.86013
57.1271
43.0998
73.843
125.454
-9.0739
-94.8076
-71.5595
52.8662
189.129
235.835
-27.6016
-183.614
-95.1833
-48.7439
-65.3634
37.6747
159.783
139.535
48.3163
71.8382
87.121
105.654
-123.161
-216.559
-115.975
-39.4538
93.1878
111.988
-92.4203
-124.143
89.3675
16.0872
5.22876
-54.8697
-30.9229
30.5434
-16.109
-59.0377
95.4626
-76.3524
-157.662
21.9868
163.122
66.0104
-79.6322
-199.527
-242.347
-72.2744
264.692
227.62
7.47348
-66.7713
-28.7433
165.171
157.955
45.3646
-81.7114
-204.044
-72.2562
215.263
158.075
-116.508
-111.958
42.2865
117.112
86.7853
-46.7098
-143.048
44.6726
24.0002
-156.383
-100.735
-39.143
-1.58552
149.87
177.858
108.951
56.4084
-51.9096
-95.5996
-11.2873
-38.9216
-237.029
-289.33
-79.6454
187.553
319.695
213.092
-88.2745
-133.993
41.7198
77.4831
-66.1288
-211.847
-336.528
-211.144
79.7031
249.809
192.375
75.5087
43.5128
43.6677
39.6196
52.3166
70.0248
50.976
200.714
114.489
-158.805
-102.52
56.7873
-82.6849
-85.3308
25.8432
71.5432
-19.7607
-102.657
-128.312
-167.936
-123.21
-8.57285
112.882
119.377
-16.4455
-108.468
-75.5893
-266.053
-261.826
223.5
366.112
177.418
154.174
48.7417
-28.4504
-67.8947
-98.7672
-63.2221
37.6936
165.666
162.63
40.1416
-95.8201
-113.167
30.3256
63.363
39.717
48.716
-31.0439
-255.315
-275.591
-148.312
-55.15
52.5214
112.266
125.021
92.5987
57.6298
36.6555
49.7273
159.289
242.326
87.288
-54.2065
-198.783
-200.223
-114.594
-202.387
-107.048
171.242
319.8
219.785
73.7258
-73.3643
-186.182
-208.146
-182.137
-64.7816
2.92058
-46.5921
34.3425
-15.2932
-88.0181
10.5706
109.37
122.188
197.659
280.707
178.332
-120.193
-384.364
-285.202
-85.9852
14.651
57.2271
99.79
149.584
105.237
2.63994
-96.351
-195.64
-163.909
66.3458
172.291
200.565
74.2236
-3.2124
-18.7083
37.4922
83.6263
52.4346
-60.6404
7.77098
52.094
-25.8367
-61.0357
-10.5464
24.3573
-9.17062
-75.5973
-142.08
-82.5266
-9.91292
-31.8413
-46.4638
-10.7779
-62.8083
38.7779
110.327
124.698
113.782
83.2961
3.39241
-229.326
-367.654
-216.639
54.1697
144.268
132.769
146.542
93.6308
0.653126
2.01766
94.6896
137.869
140.091
94.0308
11.2344
-51.1335
-215.721
-229.067
23.2871
103.367
132.137
175.122
157.907
21.7605
-144.675
-254.596
-260.964
-275.915
-133.38
32.7846
7.45899
-6.45442
17.8101
4.88413
-26.8364
-92.1861
73.376
378.604
173.587
-30.5796
33.644
124.492
120.15
-49.5606
-87.395
-56.4675
-79.2587
100.045
64.629
-60.6912
28.4917
89.6351
-57.049
-32.9975
28.2439
54.4866
-87.6379
-263.7
-214.061
-52.2082
87.35
163.488
138.303
24.9499
-31.5984
-57.112
-76.1959
-43.4309
7.51131
-0.374868
-59.055
-69.6945
59.1255
75.638
46.0484
88.5513
85.1101
14.7158
19.1291
-20.1505
-58.9663
-34.9785
-64.2428
57.8658
101.194
130.911
134.648
5.35049
-83.7896
-32.3518
3.40251
0.938152
10.524
-51.905
-148.27
-140.07
-50.2578
-33.7892
-66.0452
-66.0421
7.51394
63.4413
35.9823
6.80978
21.6541
33.7807
-7.44098
-65.8958
82.3183
134.551
41.004
-10.9798
38.2503
52.6527
106.099
9.80958
-65.2208
-75.246
-64.5139
-66.2943
-79.0357
-104.119
2.18575
92.1908
-14.54
-72.2704
-54.6621
66.4208
79.3906
40.2409
82.8588
70.4834
-33.7819
-31.5959
87.2494
68.2023
-53.4827
-80.3728
47.0892
118.627
42.0634
-34.8817
-169.88
-270.809
-95.6088
65.5301
143.864
77.8077
-3.23466
-13.9769
-83.9726
-20.9434
87.7305
-19.8222
-166.323
17.1874
412.8
423.373
75.3659
11.5776
44.2238
-189.035
-156.641
-50.5402
-48.0689
-108.913
-210.635
-188.723
-71.3167
-81.5471
-61.8749
-108.517
-143.781
49.332
241.831
155.657
-100.991
-176.345
-29.0225
71.7305
75.2916
264.939
298.464
174.586
52.6453
-4.55599
-26.6133
-98.1071
-141.032
-124.441
-27.5013
5.22311
35.5329
76.719
8.46848
-32.1237
-91.4752
-51.0907
56.8364
54.7515
37.8715
-30.541
-112.358
-68.8535
-95.8109
97.3102
386.436
210.392
-47.3617
-115.346
-141.714
63.8208
135.833
-11.775
-95.6271
-43.8484
-63.2
-134.841
-189.218
-153.658
-73.806
5.9533
-5.73032
-0.55787
90.0088
60.6282
26.403
134.684
151.273
93.1437
77.9202
-20.2903
-76.0679
-23.6483
-52.5463
-77.0571
-58.1182
29.8413
167.732
67.6032
-50.6168
-40.8676
92.8604
-22.5361
-130.731
-110.395
-275.767
-174.086
59.7936
156.114
169.225
72.6812
-43.0642
74.4621
229.109
119.323
22.9731
-43.9839
-92.6476
-100.133
-36.578
19.8811
-30.9115
7.8111
78.2572
38.161
66.1282
59.4217
23.6683
4.70048
-52.7556
-127.899
-112.08
-211.327
-282.034
-170.939
-29.0413
125.769
152.201
120.736
73.185
67.2922
93.1606
88.8858
-66.4297
-107.866
-7.08192
-114.046
-12.8086
175.183
150.663
139.258
87.1678
-24.6098
-13.9344
12.2666
72.1685
47.9208
-96.6981
-199.078
-184.561
-111.245
-23.6872
88.4886
55.0874
-17.9966
30.9572
195.357
73.6826
-64.9406
-67.717
-92.8194
-28.4667
-28.3565
-140.918
-73.6707
64.8765
99.7375
220.946
325.67
152.107
20.6299
-97.0466
-158.464
-70.6535
-42.9704
-73.257
-103.887
-181.843
-134.763
45.9364
37.8173
-64.6983
-68.6932
17.5142
42.4434
-11.0955
-60.1801
-143.29
-150.128
-38.8932
53.2329
90.074
176.383
239.258
145.356
142.902
141.57
90.8668
-23.0237
-130.127
-43.0493
-22.9408
30.5345
89.4001
29.7302
-119.356
-11.7148
59.2074
51.5654
26.5652
-3.14604
-65.3369
-261.567
-208.618
6.90611
-0.438348
-9.54569
-7.66087
-31.0561
-31.891
-57.2327
-17.4893
-18.1911
41.9041
159.738
210.27
109.946
-49.4592
-156.118
53.7143
169.167
-3.20331
41.0651
97.3484
9.39508
-117.863
-117.179
-61.539
-10.7704
42.5391
88.8438
81.8339
62.6111
-65.4111
-229.644
-245.853
-166.168
11.3283
74.687
-80.2555
-24.6499
154.974
121.558
19.4075
-63.3004
80.8925
120.816
36.4569
-3.16717
-18.6262
-29.9149
11.5058
68.9845
83.9684
28.9891
-25.3354
-33.2323
-44.619
-8.35073
-23.4251
-114.807
-33.197
35.4927
51.805
88.9248
37.2446
24.0197
61.4285
-61.3775
-174.115
-117.391
-85.0901
-19.7069
31.2132
69.9794
48.7894
-118.96
-198.703
-3.24512
258.85
186.1
92.7348
83.0324
27.7318
52.1558
45.1317
-40.0281
-9.26519
48.4718
-9.00957
-78.4704
56.2051
60.534
1.56697
69.5696
-151.884
-144.636
100.232
-2.03685
-151.204
-190.479
-203.189
-127.14
-131.88
-173.235
24.1158
101.259
61.2602
117.881
170.962
135.591
41.8499
30.0508
76.6732
-54.283
23.6021
174.236
168.923
99.4502
17.6093
-19.5026
-32.7296
-58.5664
55.9582
73.1678
-120.795
-158.337
-133.142
-119.844
-50.7228
10.803
7.01161
-46.5614
-117.183
-67.1203
54.2904
43.8726
-19.5582
32.1322
20.8148
33.5344
68.6575
67.8735
58.2583
45.3829
-49.9847
-157.062
-180.538
-91.358
131.795
230.848
125.033
59.1324
96.9325
219.259
174.327
66.5012
15.7369
-29.4726
-176.839
-268.376
-223.623
-137.433
-74.5412
-41.9162
33.3838
89.7057
70.4057
34.0837
-22.9606
-46.742
-37.492
5.74796
63.1606
25.5199
34.5046
28.792
-48.6082
-120.281
-108.31
45.2447
90.4846
126.187
199.586
106.49
-94.187
-123.03
-108.2
-49.7229
-60.1526
-116.889
-26.8142
64.2373
4.52908
-79.8431
-96.9397
-4.32842
76.5676
135.157
227.276
163.536
52.562
-12.3662
-97.2212
-100.331
-69.2815
-16.0996
67.3411
47.5702
-4.17404
37.8493
28.2743
-27.6008
-22.4932
-5.57423
27.0703
-36.64
-150.429
-174.063
-62.8809
122.658
118.2
14.3956
-60.0831
-11.0371
95.2417
121.969
50.5909
36.2598
31.0311
-59.5803
-118.502
-128.028
-5.12087
43.1751
13.9262
-20.3084
-8.18099
8.83266
-29.1449
-89.6152
72.9414
65.4988
-28.2045
-62.9563
-15.7009
-32.5069
37.5795
68.6468
41.9038
27.034
24.8927
36.8702
-26.0569
4.05314
148.788
59.8868
-23.6713
27.3287
-10.3405
-8.45477
12.1864
20.8645
48.3897
-45.2813
-215.164
-155.752
-26.2212
6.524
-43.592
-40.0303
-10.3599
1.52227
7.41777
-13.038
-116.421
-78.8433
4.53687
34.1754
88.1354
46.6551
-24.0867
57.8402
69.4424
34.7031
6.24405
36.0487
29.9232
6.62612
25.6067
58.3082
78.0249
92.8915
69.2888
-0.338676
-36.7759
-17.6606
-55.8056
-61.5998
31.6006
35.9108
-42.489
-68.7473
-49.1843
26.8982
106.923
60.2996
-16.0975
-49.5683
-79.8321
-135.694
-32.6519
117.647
22.041
-69.0615
-57.8503
-23.67
-7.18214
-31.1856
-68.0877
-33.9072
-36.6087
-55.0962
-17.8382
20.2343
52.3876
95.4499
82.8412
46.452
41.1024
49.1067
-55.6601
-189.198
-70.667
163.981
152.191
86.8691
58.6804
28.7017
9.69639
-16.5095
-23.8136
-110.2
-91.9775
15.8393
-9.72864
-30.1892
-12.2425
-24.4167
49.6156
109.849
109.628
11.8873
-37.0868
-131.904
-112.322
-94.4389
-124.5
-189.12
-90.5277
184.123
218.699
225.115
155.116
74.9111
80.3825
26.6406
-19.4962
-21.0121
-60.5264
-47.4948
-100.487
-141.993
-138.686
-89.1203
-11.1134
-7.86844
73.6881
213.923
127.182
-19.77
-13.8344
-64.7961
-96.1068
-108.341
-101.299
-43.4248
-16.097
14.747
48.4669
42.5538
21.845
30.8936
17.4176
43.6059
44.4797
47.7136
51.9422
-0.170046
-16.3303
-90.6427
-92.1178
-11.5592
49.3204
45.59
51.8117
49.1846
6.16488
54.7828
106.964
54.4194
-10.427
-35.3648
-108.72
-168.891
-95.1749
-28.4027
76.3196
103.625
76.8295
15.0593
-52.3812
-69.9796
-65.7833
-3.54548
-30.5761
-100.312
92.45
86.4005
30.1481
63.7674
93.3436
39.1908
20.4359
117.514
104.053
-6.09288
-124.888
-114.666
-51.1162
-91.2934
-132.871
-96.6267
-47.5959
-22.0756
-7.82735
30.8365
-69.4053
-143.235
-2.46881
120.723
159.994
191.975
104.593
-123.656
-350.198
-216.328
16.3894
99.6294
48.2455
34.4705
132.305
215.797
130.246
83.4607
240.982
147.868
11.4855
25.8903
-76.22
-164.274
-198.786
-179.339
36.9087
154.656
184.102
146.28
10.7163
-86.2952
-97.2898
-81.6815
-127.298
-129.988
-108.723
-92.4386
-91.1729
-54.3001
-62.4133
-67.4595
-100.377
-86.6375
-35.122
3.06
-41.4471
175.13
374.481
191.97
-5.31156
-3.96392
112.458
117.654
13.18
-115.444
2.64125
170.464
40.9938
-108.138
-166.33
-61.1143
29.9716
3.59702
-0.62754
2.78711
-43.6558
-168.949
-117.85
91.7555
185.688
141.336
38.3823
-30.5333
-11.0673
9.6872
-14.2606
-123.537
-63.0466
181.355
125.591
11.099
-124.054
-144.38
-28.7611
9.46636
-14.5118
-88.0575
38.4565
14.8523
-64.8494
48.1221
23.9867
-8.45893
3.86006
22.3422
-24.948
-52.4061
-111.757
-162.243
14.94
53.4888
17.5023
-23.2947
-6.33714
77.6653
225.843
222.026
28.9802
0.167586
35.9115
-56.9427
-76.5599
-35.8329
-15.2064
44.6719
127.275
92.9578
17.96
-43.807
-59.2417
-92.3292
-69.1841
-14.5137
-29.5998
-15.7374
59.8291
74.8231
9.46807
113.223
52.5804
-296.254
-296.819
-63.8926
-49.5251
-67.5652
-45.689
14.2509
86.9148
91.1854
24.6618
0.914225
88.1138
149.236
152.085
131.854
25.3945
-45.5553
-94.6511
-158.857
-67.0333
142.975
129.933
51.3301
39.6026
-44.8433
-48.9261
-1.45305
-87.6215
-82.0597
-21.7099
9.40585
37.741
-92.9478
-124.618
-0.808673
80.825
-13.3714
-83.8286
-81.0066
7.9362
137.226
141.367
-21.5773
-12.6748
95.4878
50.7302
-59.1738
-30.416
-45.5898
-135.178
-86.3068
-38.1106
77.2184
87.4601
22.4213
-16.0686
-30.1358
58.1527
135.143
40.3582
-34.1746
-51.0616
21.6866
19.5733
53.2639
86.9613
33.6891
-13.2898
-56.3772
63.6778
70.2731
73.6009
38.6258
-73.2418
-117.882
-86.4436
-4.18699
-5.21933
-110.673
-85.5635
-78.0972
-122.987
-162.875
21.6515
111.345
71.1216
45.2773
2.66689
74.0863
98.8624
24.1579
-51.8273
-33.6414
21.9108
-10.6643
-75.219
-33.8777
-26.2752
-39.6325
-21.5468
79.5038
125.25
74.8756
-55.6016
7.64771
45.6979
36.4786
178.854
147.203
54.2007
-46.6632
-101.335
-54.2621
-40.0969
-41.2187
-24.4969
-12.3757
45.677
34.6562
-48.1814
-84.3697
-41.7448
21.5274
14.3162
-112.976
-205.148
-81.1255
45.1093
53.6239
17.216
20.1223
-15.4757
-20.3274
11.4161
23.9543
47.3444
64.7945
9.85072
-8.19246
28.9999
49.8485
107.905
71.1128
-40.1648
-130.853
55.1828
130.83
-29.5989
-120.594
-83.5707
19.0628
101.604
137.758
91.3859
31.2906
-32.9408
-85.9855
-104.837
-80.2267
-61.1154
-61.0893
-74.0662
-36.2734
70.0229
155.112
73.3805
-39.7763
-97.8414
-47.8468
63.9754
32.29
-40.1361
-28.6722
26.7411
17.9415
30.4645
61.0277
10.559
-142.992
-250.604
-156.253
127.62
198.153
153.373
83.2654
-7.2686
-93.3698
-66.6583
112.363
97.3687
54.5181
-14.4707
-94.8185
-106.741
-46.1997
-6.13261
-15.5895
7.23911
112.939
196.829
153.928
-54.4887
-121.35
-88.0918
-90.0549
-90.1843
-24.7104
87.8426
60.6857
-32.1593
32.4018
133.682
-11.7694
-144.983
-125.034
-2.57168
-27.6645
-37.3303
25.4569
102.972
77.6692
-16.7476
-43.3601
-34.2288
-30.1549
-22.0881
0.589412
-14.9048
-44.0282
0.0345947
-60.8258
-153.573
72.7022
321.151
203.768
2.82571
-47.7225
-122.757
-82.7243
75.2725
127.331
8.17452
-33.9688
-90.527
-144.249
-91.1223
-11.0385
-64.7612
-102.283
-22.7824
107.149
259.287
137.119
-16.5736
-10.032
-4.08119
-100.073
-36.7046
118.44
15.4361
-78.4035
22.4063
80.5615
96.1386
52.1318
116.737
175.75
103.964
-32.001
-156.529
-193.657
-261.157
-197.375
-20.9311
71.819
24.8953
119.507
129.145
7.00878
-59.8429
-120.372
-188.257
-226.602
-145.374
-6.19985
-27.0205
-19.4324
-4.2752
211.229
319.015
158.181
18.4693
-26.6286
-91.3143
-98.8538
-32.6877
35.5069
81.8098
49.6696
38.0185
69.8638
84.8396
104.853
103.142
59.953
-36.5629
-165.646
-137.322
-127.389
-117.072
-94.7195
-37.1347
223.471
255.791
34.8749
-20.3113
0.83115
12.5441
-38.4994
-91.1837
-71.6183
-31.6046
-28.4349
-35.8988
52.3253
172.911
127.197
-21.7993
-67.7243
24.3422
100.853
94.9991
-104.265
-304.804
-316.497
-214.622
-129.793
-22.7918
56.0195
84.879
115.039
114.149
129.499
73.8474
89.0365
48.588
19.8165
74.739
-19.4709
-69.7703
1.84475
-51.487
-82.1715
88.4774
156.424
54.0996
-57.679
-89.1153
-26.8623
105.413
140.344
75.9683
54.8262
11.702
-150.573
-217.668
-98.0058
-61.5947
-79.1407
-86.7207
-53.7206
33.3553
-11.5686
-37.6006
93.0807
133.17
139.629
104.244
13.8163
-53.0154
-75.8534
-37.9851
-28.7006
-14.2909
16.6466
-6.29592
-78.2305
96.6563
267.33
46.7869
-129.39
18.4096
89.0883
-7.08586
-72.8793
-118.71
-127.06
-43.6342
74.7503
54.0817
42.0685
18.247
-101.875
-86.7341
-5.44393
28.3194
10.9831
38.1973
7.38182
17.3644
-0.113978
-38.0183
-58.2218
-55.8557
-35.6235
42.947
108.613
48.1027
-27.6358
-16.2422
-37.1496
-45.2298
124.27
157.908
61.7448
-14.9516
-75.4367
-137.892
-87.2559
138.989
99.4577
-31.3038
-69.8742
-23.6988
67.1466
83.4501
55.6702
-69.6239
-129.029
-82.696
-74.3213
-7.0565
8.77482
20.3715
19.3423
-15.413
-8.20645
40.4853
44.8921
-2.81499
56.5786
-60.9177
-188.626
-50.6419
30.0072
38.7447
51.1327
109.769
163.657
145.988
59.3186
-63.5104
-154.092
-159.165
55.035
184.106
153.725
49.5382
-17.8239
-62.2012
-80.02
-62.2505
-10.9656
-43.4879
-65.0394
-71.7638
-61.1244
14.7385
-0.648817
-62.7286
-81.2234
-94.8879
-36.6422
26.2778
-69.9867
-65.3866
121.92
225.645
191.204
39.3521
3.86552
78.2016
89.6422
-0.316634
-24.1245
-57.0257
-141.711
-149.977
-33.8271
-1.83744
-66.9841
5.4472
53.9598
109.232
43.0767
14.1845
19.9674
5.03409
-121.534
-243.184
-95.51
72.9342
126.646
88.3047
30.52
119.972
214.322
106.665
-39.8951
-69.8967
100.752
107.523
31.3719
-75.3072
-91.5964
-116.37
-187.717
-199.253
-124.549
28.4098
58.8254
26.591
60.6594
102.011
92.5571
-32.4886
-134.918
-93.092
14.3804
32.2354
-83.4787
-66.1676
19.7253
127.068
82.6857
-2.52389
-52.2816
-163.685
-130.477
66.7425
90.2658
160.989
312.147
224.024
121.394
-17.4452
-120.322
-48.4187
-44.9145
-25.8331
4.847
4.324
-34.331
-91.7694
-86.5088
-85.7807
-22.2269
110.234
91.4919
4.21773
-36.8487
-137.425
-219.619
-140.587
-76.3047
-37.3568
16.2429
156.262
171.668
-73.5633
-163.497
-71.838
-0.552072
61.8963
88.1446
142.802
87.8729
-67.3139
-90.2404
118.365
188.757
121.18
-19.4827
-97.7894
-28.5123
30.3638
80.7324
-22.0978
-83.201
34.8382
110.882
73.9736
47.49
-41.9546
-64.6948
-48.5982
-26.2135
-0.19073
-7.81794
-127.191
-154.948
-121.15
-68.6795
-13.7624
-17.5409
80.5166
168.653
74.4058
-13.4409
16.3835
45.0019
-1.99926
6.44771
36.498
6.87377
-19.0929
-33.5298
-15.4805
35.3801
-19.4972
-67.7168
-47.5175
-8.75689
62.8497
120.268
-55.903
-239.684
137.53
328.695
77.5661
-203.982
-463.501
-566.422
-232.885
252.57
310.782
251.015
179.273
117.569
57.4857
194.457
231.983
137.675
48.3195
-39.3327
-3.65609
87.8273
-181.321
-320.665
-151.866
45.1674
216.985
247.347
76.4544
-159.034
-202.999
-166.745
-102.733
-80.7277
-99.7393
-146.489
-138.922
-107.428
-140.011
-122.738
105.132
188.239
78.8089
-15.8706
-24.8918
-68.7718
-10.534
286.274
339.979
224.188
136.529
-43.1186
-170.399
-16.0163
47.6616
-56.3676
-87.1656
1.95087
16.6893
40.3758
-2.0328
-68.6482
-47.8921
-2.54847
64.4618
200.644
228.04
20.8814
-186.945
-228.175
-191.717
-95.3624
92.6708
78.5764
-24.1167
11.041
65.4561
-0.253789
9.96118
1.39045
-26.558
6.33186
-22.8337
-27.6717
19.2691
42.0187
56.6118
-3.4197
-47.3701
-73.4385
-47.0474
21.9293
27.3768
-32.8988
-19.4235
-26.0872
-58.5544
-61.5447
-49.0237
-63.9723
-89.8438
-46.9397
-42.7194
256.8
332.191
259.11
82.2788
-102.666
-226.77
-293.402
-162.523
-82.4047
-11.6727
-81.0074
-1.53467
410.576
400.411
197.92
70.2317
-72.1832
-165.263
-126.254
-22.1261
-58.2493
-58.5696
-72.9463
-72.3228
53.9236
187.643
185.718
90.3205
62.6241
13.2206
11.623
-37.6493
-263.25
-273.416
-165.142
-77.3658
26.1898
79.7292
56.0457
6.55809
-117.324
-125.944
-56.8899
51.2124
60.7799
34.8919
70.202
71.0009
73.6363
54.8013
57.5751
46.3762
-58.6444
-64.7464
-3.22879
35.8311
68.6347
79.9546
55.9856
18.4909
-60.9599
-129.425
-38.3389
79.2338
34.1477
31.831
33.3323
14.8912
15.1253
3.87105
-0.606647
-33.0557
-79.4694
-23.9737
2.12618
18.3388
43.8501
53.0773
-9.24384
-124.265
-209.015
-168.596
-52.4497
47.7843
83.5476
-74.871
-187.661
15.5124
147.865
-8.77912
50.6797
339.803
175.77
3.82746
11.2462
0.338091
8.82918
38.4894
63.5917
85.8207
78.502
55.9453
-98.5008
-223.557
-218.331
-72.0065
59.9528
55.1365
47.1937
89.4199
-3.32093
-168.71
-105.491
-50.7503
-33.2519
1.91441
-2.29324
0.289992
-29.4042
-133.017
-244.536
44.5936
174.876
144.308
130.029
65.3786
42.6479
-8.97122
-41.3507
67.9801
95.2648
8.28377
6.489
-21.01
-21.3348
-52.383
-122.721
-140.275
-18.3312
153.934
275.791
318.975
255.265
-32.2431
-256.463
-247.996
-156.034
-157.631
-143.469
-104.623
-43.4845
-12.4615
-8.85035
39.4159
26.1313
65.7417
142.598
124.101
54.5899
23.6356
38.8635
-146.582
-178.474
17.8134
121.774
155.946
178.569
107.286
-45.0681
-155.052
-133.266
-55.1444
11.0601
37.2786
13.6708
-41.7504
-17.4169
-14.0267
-16.5214
87.513
17.6801
-103.258
-53.0608
17.7568
56.0757
103.331
57.1891
-31.6058
-20.5934
44.0008
-6.35022
-155.357
-166.784
28.9174
87.9857
32.9138
31.5854
55.2529
10.3528
-102.755
-32.1344
33.3769
-47.6325
-52.5201
-15.7189
22.2332
3.78209
-90.1422
27.9073
159.521
57.2222
38.6283
57.8452
-41.4729
-86.6178
-8.90857
12.7327
-120.267
-91.3217
107.275
92.0975
-13.7026
1.66253
-50.1251
-21.2774
34.3749
67.4116
114.608
103.638
49.6385
117.567
106.151
-27.8526
-76.7299
-89.972
-107.536
-171.86
-51.4177
-4.55734
-65.1235
-32.8896
-23.0314
-39.0525
62.9291
75.8013
-48.7356
-80.1432
12.7356
16.8066
22.6553
-16.4692
-57.5184
-62.3751
-60.9201
-31.801
105.766
211.485
128.579
81.8338
70.4017
27.053
-18.8155
-5.49895
14.4525
33.2029
-14.9374
-98.071
-73.7227
-104.523
-56.6702
17.2989
-19.3793
-11.3389
-106.089
-117.058
51.1178
216.628
108.695
-56.1602
-60.316
39.1905
50.9387
3.91121
-6.69163
28.8663
65.6884
53.8932
-10.4636
-69.855
-169.015
-100.961
19.4672
25.0478
23.0414
33.9332
-51.9493
-7.01823
110.019
161.491
183.435
98.6257
-112.471
-329.076
-262.928
-39.1216
49.0433
118.575
106.782
40.7817
-1.13385
-40.6656
-28.435
-52.4342
-75.6927
75.076
118.625
-124.212
-61.4152
100.27
29.5696
-87.0658
-22.9009
202.706
261.989
70.7435
-53.1338
-170.563
-172.992
-54.1024
19.3214
-1.8742
-7.14385
85.1048
51.3206
-99.7373
-91.6188
87.1921
50.1953
-86.8906
-89.4045
-17.6855
95.0613
121.189
134.351
52.8513
14.9629
43.33
22.9021
-29.9109
-65.7968
-34.7417
-5.85114
-30.9269
32.9816
3.14599
-123.276
-280.578
-167.897
33.1831
-0.430343
-20.6627
70.045
120.767
56.7779
13.9764
-34.8645
-76.8859
-52.994
52.2194
161.387
117.367
0.186844
0.869636
8.16281
14.4272
17.0308
75.612
17.7423
-60.3441
67.2602
65.1994
-1.68183
-52.9339
-111.446
-101.717
-66.7814
-4.48615
-22.5071
-53.4396
-38.2582
-23.9201
39.8667
102.135
179.086
171.34
71.117
-41.809
-131.385
-82.1214
-18.8751
-32.6617
-56.6495
-40.5819
-61.3523
-116.193
-67.5932
131.529
235.303
216.531
120.399
-10.071
-41.8605
-68.6746
-128.482
-149.265
-133.452
43.0645
104.497
-120.24
-261.532
-57.7973
119.391
4.15796
-37.1434
89.7728
129.949
15.8935
-72.0284
-35.8917
24.6796
107.412
94.4422
67.6534
57.3071
120.072
99.9682
-97.3858
-150.693
-46.4764
3.72456
-11.3982
-71.4255
-70.4564
-95.2297
72.55
216.182
143.553
111.441
44.4197
-154.775
-150.819
-177.222
-14.3098
56.3468
10.0701
8.75964
9.65139
55.9233
98.7806
65.5797
-15.993
-74.8267
-84.9249
-7.48022
-20.2852
-84.8883
-82.9002
-64.546
-119.063
-81.2268
110.398
127.172
-44.5566
-59.4421
74.9354
141.401
39.0851
29.7555
68.0295
63.2088
-41.5237
-70.3584
16.5554
89.1851
35.9618
55.3731
-14.0972
-148.105
-80.4244
60.7429
-2.60745
61.394
66.0363
80.8337
23.9618
-118.971
-121.605
-40.3627
12.7065
-12.7693
20.5153
7.39307
-63.6064
-76.713
-66.0936
-82.1483
-20.2904
87.3946
103.958
40.1243
-53.0185
-17.2624
45.9679
63.6207
49.3536
13.5567
58.6159
45.6187
-36.6251
-81.9736
-36.4016
26.3088
97.0515
189.846
129.823
22.0073
-45.9512
-104.993
-162.706
-133.925
-87.5488
-80.6583
-7.58806
25.0668
-64.3973
-41.1754
-32.0641
-31.6812
-61.9706
95.5942
228.1
203.208
128.938
-57.044
-77.5889
-97.1316
-48.7504
78.868
121.528
44.2767
-42.2925
-80.4003
-227.688
-245.505
-120.006
126.782
169.397
161.12
177.817
20.943
-58.1666
-9.91406
44.1834
8.53756
-102.694
-93.2105
-26.8837
0.691164
1.56257
5.02659
-91.9913
8.10879
205.337
156.025
47.9953
-99.315
-76.7019
-38.9749
0.141771
60.4859
-22.0189
-236.686
-245.501
-47.6576
84.0654
134.399
129.709
111.407
118.606
121.735
155.108
41.8312
-88.2323
-113.863
-55.4006
-82.2924
-190.676
-233.93
-209.492
-62.0861
232.059
373.46
189.101
-0.459559
-29.788
-74.4936
-113.844
-89.9435
-91.6081
-140.358
-26.7509
54.328
22.6983
19.245
28.2796
23.7947
110.115
151.895
129.988
-9.89572
-141.892
-31.4728
122.594
119.469
-21.7993
3.68152
121.241
78.4868
29.5689
24.8125
-18.494
-68.576
-98.5292
-152.628
-86.9547
-60.1992
-72.8874
-46.0174
-58.6095
33.5686
-52.9313
-188.732
-165.889
-71.5447
209.735
142.506
15.5135
-30.5306
-34.0056
24.2066
5.57866
28.546
140.548
201.717
94.6541
56.2168
30.2782
-89.6733
-37.123
-54.802
-82.6166
-12.7473
63.9787
81.9406
-14.4962
-28.3141
-8.10459
4.12049
43.6258
24.926
6.7283
-11.7636
-7.25153
-26.918
-14.7943
7.15002
28.3803
53.1635
19.4262
-38.3776
-30.0354
-19.6956
-34.7564
-76.1977
-131.195
-92.7424
-64.6882
57.294
66.4363
-27.4872
-14.8327
111.43
160.029
49.7188
-124.743
-214.786
-130.121
-51.6183
-38.6638
34.047
116.625
69.2692
106.144
125.038
183.659
135.371
27.5438
-35.9556
-121.286
-214.059
-138.55
-33.7754
-44.7056
-75.9604
192.915
316.678
81.2639
-59.2131
70.2365
102.779
-18.8019
-93.3697
-74.2452
-32.7085
-42.4229
-65.023
-69.0381
-34.6293
13.6302
64.6395
19.0128
-22.1769
-54.4182
-57.0408
-180.474
-201.136
6.41991
79.5646
36.9654
105.159
135.203
49.6428
-1.70516
-22.0586
-59.4155
-22.7431
30.1611
3.06167
89.3159
163.282
94.9167
-1.07317
-9.10761
-42.1789
-75.7188
69.3241
112.028
117.896
57.6882
-108.717
-231.007
-223.068
-83.9355
-49.1755
34.3235
42.7837
15.9891
82.4092
33.0445
-9.74407
-29.0359
-129.116
-76.4026
116.213
84.5366
-55.0718
-85.7885
-109.788
-58.995
61.0984
102.746
118.253
96.5871
78.5727
51.2642
42.7147
10.0638
-41.6181
-114.657
-208.596
-10.0749
275.242
199.813
26.839
-48.6918
-100.016
142.86
292.268
49.0472
-223.843
-265.129
-125.659
-47.6258
7.70938
26.3447
-62.5041
-174.355
-141.184
21.9648
141.306
36.0256
-89.8986
-30.6017
-87.9927
-103.446
2.4945
-61.9802
-91.3397
63.1643
281.991
310.691
123.753
28.5422
1.8041
29.6139
116.117
129.848
43.2099
-64.5681
-131.996
-133.978
-88.0709
17.6012
70.4368
150.952
5.10537
-168.191
-79.9321
-29.0754
-80.452
-85.8607
-35.9637
48.7201
6.3954
-143.097
-26.8071
-32.7392
-109.434
28.9474
208.679
163.904
31.6311
-22.6252
25.1934
21.8456
58.696
107.188
-20.1372
-79.3147
-34.1587
-16.0549
-48.0492
-105.295
-52.4563
29.1702
-52.4589
-20.846
58.2996
29.858
-46.533
-95.6675
-45.1082
164.598
225.812
101.681
37.3937
-75.6006
-132.557
-62.7141
-78.8457
-112.962
33.4388
98.805
69.4555
45.3053
-50.0854
20.015
167.108
184.965
60.1327
-6.43026
-65.2741
-270.794
-225.925
-47.2158
67.7092
74.4557
-5.67638
-71.5665
-51.3489
7.45969
84.1775
66.969
6.58663
-21.6179
24.1731
13.3215
-24.8556
-45.9414
-11.4716
34.2704
-13.5362
-67.3823
40.348
183.251
65.6532
57.3016
26.1595
-2.21424
24.3188
11.9067
-22.667
-66.5384
-93.8529
-30.2568
-46.2913
-66.6776
-115.071
-79.3302
4.35633
7.83799
103.815
105.19
-20.9626
-140.569
-94.417
-68.0446
14.4055
77.64
52.6431
33.8839
-79.1957
-19.4115
151.179
119.245
89.0749
44.1535
97.1302
125.355
-16.0011
-139.74
-159.665
-5.99234
106.621
108.743
33.7176
-133.208
-136.789
-52.3875
-53.8899
-39.3965
-19.6911
-48.928
-30.0475
148.138
279.574
185.623
-81.8204
-257.987
-34.6518
150.184
126.611
23.3508
-72.1256
-141.276
-106.718
-3.71121
6.93261
-28.3613
-26.5145
-52.8903
-62.4737
-124.156
-155.077
-10.31
28.7897
114.231
148.517
7.64194
-106.167
86.9877
200.764
144.387
5.68793
-134.221
-123.813
-12.9489
171.79
99.6687
-34.453
-117.056
-77.5821
128.608
248.032
60.9039
-164.871
-65.4985
-3.62883
-20.5029
-15.2166
-129.282
-138.281
-20.1118
-28.5248
64.896
131.618
74.9397
-29.0786
48.6433
122.836
122.765
53.3135
-96.1095
-251.169
-242.347
-18.5567
-54.0197
2.68519
54.4514
-48.3325
63.1428
203.718
106.723
29.0219
12.8657
5.06545
17.8744
-19.4885
-33.9695
-15.7964
23.0026
-50.4137
-161.698
-122.534
-51.5359
-50.6042
-20.7143
140.337
255.088
182.819
38.8489
-98.468
-168.103
-79.2432
-190.938
-375.95
-12.8861
246.133
110.164
101.13
227.129
288.82
236.076
117.316
-21.2035
-156.953
-211.952
-226.176
-95.5963
52.8234
23.7185
-3.63843
104.061
51.5457
50.9989
153.833
-8.11523
-185.304
-195.28
-213.417
-181.054
-126.949
-42.5899
128.984
71.9668
20.2663
5.63582
-17.4838
-45.2258
-85.8876
-97.2782
106.898
238.739
190.8
115.4
83.5655
-135.772
-83.8138
274.278
256.308
113.353
24.8106
27.339
-76.7217
-166.538
-158.522
-60.3442
-54.1159
32.785
134.003
86.0819
-56.5834
-226.938
-248.194
40.3704
150.965
48.2904
-96.4778
-217.731
-188.978
-97.2189
8.02696
57.0338
40.0121
86.9437
118.318
73.7251
51.9051
-36.1094
-32.4768
69.8336
13.8149
-16.7902
16.5585
-48.4024
-42.0059
60.9019
127.292
114.394
32.2664
37.8624
80.6914
-170.97
-297.023
-267.779
153.393
547.363
223.851
-38.1633
-13.261
0.980942
-98.3238
-118.672
-56.6594
-65.0286
-53.2144
-16.9427
0.740754
-95.4919
80.3692
44.4528
-91.4098
2.74295
35.9186
11.3804
-189.666
-135.661
85.9118
108.189
-35.4161
-146.132
-121.326
18.6222
150.538
128.993
107.736
107.603
-48.233
-65.7071
-49.7937
-52.1919
-22.059
29.7302
73.7372
205.509
176.746
-87.5391
-121.631
-76.1335
-42.8075
-57.7197
39.4743
40.8068
6.46045
11.6691
28.0663
31.8286
19.2727
-17.4574
-114.389
-95.8396
-26.0887
49.9161
111.835
86.0936
-37.103
-99.6109
34.7938
22.9871
-28.5058
11.2857
30.8594
-27.3919
-108.267
-60.2841
-39.9954
-48.809
44.8377
167.846
196.819
125.414
43.5813
-37.3007
-137.622
-241.923
-177.14
33.4814
102.426
58.0387
-12.0851
8.04152
77.1232
43.2101
-4.47178
-47.7011
-93.0278
-122.233
-172.858
-126.05
67.1616
86.6425
41.0121
60.9103
123.687
217.491
130.059
-60.5217
-85.3046
62.0605
108.471
17.6407
-73.3896
-67.7342
-28.6315
74.4604
94.573
82.5325
6.53598
-189.089
-306.943
-208.039
-56.6225
37.5629
110.419
158.012
80.1405
-142.177
46.7126
187.782
67.0397
61.3906
-20.4715
-205.74
-224.497
-132.566
50.5021
310.134
405.964
207.805
-96.3041
-139.478
-97.5632
-113.707
-90.8354
-68.1102
-35.0125
60.2501
-105.87
-249.347
-251.434
-214.871
192.399
411.43
329.015
106.466
-34.6161
-97.642
-140.701
-69.5015
42.8361
5.40908
28.9585
90.5813
94.5549
-7.02244
-55.7558
-73.9887
-133.828
-29.5896
123.705
116.99
-74.2958
-77.074
34.2101
-1.31524
-81.6908
-104.5
-36.8066
102.778
202.3
159.505
15.9797
-52.7333
-115.92
-55.4939
122.14
77.4232
-41.4083
-83.4968
-16.5701
28.9805
-52.2392
-27.9229
-1.62305
7.98144
-4.84963
-53.8269
-57.2395
-15.7507
-18.6436
6.4233
18.326
5.92779
22.2027
8.25234
-42.9102
-29.5166
6.73112
-45.2561
-39.6024
53.4698
35.3231
10.2042
11.4296
-34.3422
-43.6433
129.878
156.084
56.8194
42.1967
77.0669
56.2257
21.0089
22.1308
4.51938
-46.7682
-64.0486
-173.152
-269.083
-37.101
91.1799
51.8355
17.2413
63.7533
105.269
90.1063
-87.5277
-166.431
-151.264
-155.574
-159.738
-40.4133
68.5014
124.973
116.087
-115.154
-272.912
-60.7125
452.108
535.886
268.098
46.0946
-114.866
-141.103
2.41907
70.0653
-17.4697
-75.5867
-51.3188
-16.8079
-16.9171
-50.7438
-73.6368
-133.04
-154.858
10.094
149.31
83.4383
-135.096
-285.268
-185.406
-38.7543
68.3342
49.0212
-24.7465
-19.4122
18.3293
105.619
138.19
128.111
126.112
116.431
108.645
51.0691
3.44645
41.1742
-18.1419
-104.057
-99.5325
-65.3868
-54.012
21.0454
87.8421
94.3518
106.757
31.4983
-37.4345
-54.4541
-56.8158
-115.893
-98.8174
11.0279
-94.5577
-73.3448
25.0383
14.1798
26.6917
111.715
68.1582
-50.6715
-86.8564
-91.1401
-82.1049
-68.0874
-64.8051
6.91755
52.0859
56.9144
79.9994
127.952
101.964
-71.9411
-62.576
12.456
30.9293
72.3873
93.2997
79.6428
5.57103
-58.4774
-68.9807
-20.6533
27.1623
-24.1416
43.1098
46.6924
-51.5571
-58.4402
-27.3147
-19.193
-28.4019
-46.7068
-14.0242
-13.7879
-1.55469
110.145
160.122
50.2263
-66.6304
-102.763
-91.0817
16.8549
29.2767
-7.42957
-67.1218
-63.5189
-32.9519
-30.9101
-4.39027
29.5446
30.2268
13.4773
27.7788
38.844
8.44418
-47.6449
-6.66845
43.4107
45.4876
11.0688
6.69794
-38.6207
-56.5644
88.1587
57.136
-28.9852
15.4784
-9.4807
-29.2207
18.8388
89.2412
53.4184
36.7693
25.3744
9.70114
-25.1866
-77.9315
-63.6287
-16.5902
43.6084
53.6418
0.54481
-62.7659
-131.699
-53.7262
-21.1763
3.75387
110.156
6.93924
13.8147
-27.3572
-73.2147
-43.6022
-70.4831
-48.5565
-56.1999
-62.8271
2.54196
59.6802
114.788
160.2
110.201
52.0205
26.7165
75.2048
-39.0471
-9.39022
0.727143
-98.3857
-205.249
-43.6135
112.302
110.036
75.9626
6.70355
-75.9998
-143.067
-27.8461
179.63
128.695
-35.0457
-108.271
-57.0372
-1.66612
-7.4475
68.0447
51.9042
37.3022
16.8984
-95.2656
-124.44
-53.1068
-42.9724
-34.6528
18.8002
67.0098
83.7005
-7.98431
-125.112
-98.8942
-13.0832
43.558
76.9729
55.5753
-19.2674
4.22142
-51.88
-120.149
81.4768
196.501
90.8312
9.86264
-26.7791
-23.2371
6.99681
101.134
159.945
134.561
-2.08265
-104.83
-113.436
-113.596
-126.109
-72.4788
-7.02712
45.8782
45.895
-50.0713
-165.9
-115.646
-23.8513
-67.3265
11.5753
198.898
148.867
75.0757
56.4803
-71.5291
-110.261
-27.4075
80.0141
90.3013
110.432
118.565
59.1688
-17.5914
-115.772
-159.994
-67.1706
24.1961
69.4072
113.861
51.964
-49.6238
-64.8513
-102.808
-94.7856
-95.883
-68.6954
-58.0086
-73.8586
-13.3591
38.1648
48.5436
44.5695
10.7347
44.1325
174.637
228.793
111.745
-9.24011
-15.0941
47.8532
7.59358
-68.0792
-56.9061
-32.4013
-30.6568
-85.6683
-35.6563
3.7978
-34.9099
-101.728
-156.877
-111.261
108.94
119.772
85.1408
78.9236
8.97022
-17.4636
-7.41308
-44.6529
-106.553
-31.51
-34.5415
-37.5416
56.4048
204.511
180.188
61.5039
-33.1138
-100.669
-167.222
-112.49
-45.6118
85.9557
77.8248
39.4642
23.9164
-13.9971
6.7094
11.2131
-14.2205
-69.2751
-145.664
-40.0044
50.8637
151.945
119.249
50.8341
91.4444
86.9704
91.8741
20.1391
-84.6105
-161.809
-136.292
-65.0408
-12.2635
6.17821
20.1106
18.5497
33.5174
35.368
83.4887
-14.4176
-211.468
-319.148
-125.231
76.4364
-22.0064
50.3958
182.827
234.541
139.282
7.37876
-30.5151
-17.9341
81.37
37.953
-80.199
-118.477
-156.54
-184.205
-128.928
-52.482
224.028
351.002
149.719
-10.5197
55.1977
41.3564
-15.295
-85.488
-137.671
-108.252
-76.1181
-8.49037
41.8686
-5.17287
-33.199
-33.4024
32.5998
121.964
141.08
98.7699
-10.4157
-124.61
-114.856
-59.8619
9.17865
-23.7668
-119.019
-123.803
29.3827
157.164
133.101
8.45233
-23.5239
69.6149
51.0574
-1.15826
-55.3771
-19.7752
4.13125
10.5112
-3.45844
-24.3795
-8.44478
-10.55
-66.8804
-36.038
12.0477
30.1614
21.2582
28.2464
54.1265
48.8693
-21.2829
-50.0899
-11.635
5.58398
55.6461
39.8544
0.418841
-34.3815
-51.4358
-132.728
-142.809
9.83088
167.306
187.786
90.5538
-38.8966
-148.723
-166.365
-1.82636
26.3885
-85.3945
-74.3947
2.90358
132.63
84.0874
-28.4139
82.6132
-5.48314
-0.152975
231.867
226.836
14.9519
-182.02
-170.883
-27.1908
30.1061
31.6281
-4.43589
-55.9577
-29.2764
29.162
-27.4698
-90.8576
-75.6766
11.8675
-20.4163
-52.6895
65.275
108.826
-16.6631
-117.649
-254.455
-203.445
8.8465
153.744
114.734
83.2171
153.692
70.2484
-20.2704
51.223
157.104
134.233
32.4242
26.0761
86.5198
-75.2842
-93.7092
-80.244
-151.989
-127.883
14.1872
63.2781
15.8275
-33.4604
-12.8604
30.2033
46.8715
2.87722
-0.44824
13.6661
-57.9577
-38.887
2.92525
-30.1178
-12.7289
-0.285899
-0.876755
-28.0227
-28.4239
23.5598
89.8371
97.059
-15.4584
-71.5395
-3.52648
53.0282
-5.72596
-51.8231
-74.7381
-183.751
-176.717
164.973
163.99
16.1655
25.5428
19.7098
97.0312
78.7802
-20.5567
3.90462
41.4096
92.9544
-69.7915
-100.03
-18.1896
-90.4041
-52.6047
46.6926
76.6394
13.8288
13.8805
-114.084
-132.165
-15.2383
39.1309
98.7784
48.8979
12.9551
43.9666
33.9858
0.307598
-4.62118
61.2937
3.15958
-73.586
-61.8416
-96.7115
-40.4559
-33.605
16.1716
137.013
104.668
86.5766
66.9115
-60.9288
-107.867
-97.1727
-65.9791
10.8876
55.2867
33.2058
16.9548
15.2502
-135.916
-167.774
67.6866
197.255
162.493
68.1262
35.6787
-46.1431
-126.044
-130.95
-108.253
4.90486
63.4054
22.5855
-6.84546
-24.2943
-36.502
15.4703
17.8611
9.85056
50.8754
49.7452
-13.2325
-64.3185
-126.539
-49.1328
49.1074
24.9728
7.31763
63.6902
24.1765
9.70828
15.2622
-10.3382
-18.1936
-3.73333
-87.0122
54.6952
339.254
232.119
120.264
-79.4812
-194.985
-88.2719
-0.636877
22.8589
-15.3436
-40.8512
-41.446
-21.162
14.2034
-61.2104
-157.057
-223.28
-196.774
-48.8566
73.244
47.6993
-92.5664
-27.5172
107.809
194.265
149.146
-6.23543
-71.5789
94.3284
210.404
151.229
112.453
14.3744
-65.0717
-32.1111
-13.6721
15.8628
9.76584
-27.3133
-14.9442
-34.19
-104.195
-107.397
-184.28
-135.75
9.05199
128.001
107.803
-56.809
-156.47
-117.072
-108.051
-49.3349
55.7609
64.9726
75.6271
129.451
157.96
129.913
95.97
-2.57679
-50.6135
34.6486
83.7373
95.0295
17.4792
-78.7374
-88.6235
-96.1492
-70.7605
-33.535
11.0769
3.80421
-4.14872
33.6488
43.7003
34.2211
-26.3723
-188.807
-132.215
8.16918
28.1882
42.5725
76.5152
54.6649
-22.123
-23.5151
58.2246
-24.125
-109.898
-60.9924
-18.7702
-64.9795
40.8285
108.768
17.517
3.939
262.471
254.38
78.5114
-65.7617
-141.214
-170.833
-168.425
-114.944
90.0651
223.937
132.812
58.85
46.8336
-24.1753
-131.636
-115.336
-120.521
-89.0041
40.7101
67.2834
-114.958
-114.443
-116.138
-145.841
-75.0108
34.6866
192.702
183.868
-6.14987
-237.597
-199.881
149.583
250.227
155.835
111.09
116.073
51.6987
-16.0853
1.43218
11.681
-36.7989
15.9774
83.6031
40.9366
-2.79121
-19.3387
-33.114
17.0887
63.0895
47.1224
-30.1482
-154.783
-213.877
-219.071
-122.622
-3.51677
15.5793
-42.0464
13.3703
107.962
87.2735
24.0163
14.6634
31.9505
2.84612
-24.2533
11.5265
46.8772
67.1176
101.582
58.41
-31.8192
-29.1711
-24.2823
-45.0188
-55.8915
-26.4421
68.1633
21.6768
-152.705
-235.873
-175.094
-167.526
150.2
334.316
212.952
254.124
252.683
79.5186
-94.31
-186.932
-237.931
-137.064
65.2656
68.7735
-3.79851
-22.9032
-44.2496
-72.7634
-49.8053
46.3619
23.2375
-10.2882
-170.897
-258.363
10.1825
325.032
161.105
-57.7981
-106.318
21.3514
107.969
74.4325
-35.9273
42.4101
82.7179
-3.50054
-68.1578
-52.6654
27.8276
43.4046
38.0304
63.5325
46.9494
58.344
-36.2391
-271.135
-244.593
-116.279
-44.7574
33.1353
116.806
115.834
87.9556
73.4806
51.135
8.21712
-40.8741
-15.5846
25.0824
11.1625
39.9931
103.223
85.6556
48.8208
-50.5115
-215.933
-252.459
-255.082
-181.308
61.9971
117.779
142.455
221.454
125.946
41.7483
44.3292
42.9079
-33.3154
-2.53654
12.5973
-14.8408
103.311
12.0842
-43.2696
-22.8903
-52.0789
4.56498
110.501
137.817
-87.7568
-169.872
-108.457
-132.496
-166.774
-142.245
-51.0539
76.1039
128.166
73.0353
44.2412
25.5771
-27.7075
42.4489
-3.32084
-176.271
-190.388
-68.3144
54.3356
146.642
308.263
372.028
198.699
57.8552
-20.5586
-57.5019
-69.2555
-71.4005
-41.4187
-26.9611
-27.8598
-47.903
-177.957
-226.419
-141.401
16.8942
22.9804
21.9604
85.5835
110.899
-86.7495
-178.785
-139.209
-106.169
-20.4523
90.5332
294.129
292.97
131.244
3.16654
-8.00147
31.5809
-48.078
-82.6463
3.70844
67.8714
92.9469
22.5949
-59.0377
-145.947
-96.776
-59.7676
-26.1981
85.5886
152.697
139.596
-37.5171
-120.691
-40.5681
25.0649
-38.4852
-75.2625
-91.3356
-49.452
31.2195
42.6018
-22.5727
-125.389
-171.383
-117.132
-64.4738
-15.3696
73.6123
126.123
125.818
90.4026
12.0982
-1.60104
25.4773
29.7753
78.8977
106.043
156.793
158.312
31.6828
1.10906
-58.4803
-19.947
45.482
48.1489
6.55252
-8.38217
-27.7238
-145.959
-233.463
-145.519
-18.6734
15.189
-23.2721
8.63691
46.1472
7.93564
56.3023
26.5598
-82.1071
-135.396
-121.173
-29.979
207.423
164.023
-19.1666
-171.837
-113.535
23.8037
18.9512
-54.9493
-68.311
-38.927
7.01643
12.331
30.4281
76.3132
46.8432
89.6818
171.664
96.9499
101.405
96.2025
-102.841
-164.598
-46.5113
202.932
222.801
193.466
125.628
4.00842
-66.2432
-173.662
-131.558
-125.688
-82.3744
-103.743
-148.174
-171.365
-165.279
-74.9688
-59.9728
-195.65
5.6996
287.616
238.522
39.015
-4.14718
-47.2087
-30.6318
122.104
205.591
114.462
18.7894
-11.2492
4.29449
-6.44103
31.2164
67.2939
-5.95068
-65.8636
-62.1459
-35.5296
-44.9655
-33.472
-1.23769
85.1184
27.4247
-225.641
-343.649
