2.27884
36.3475
50.629
35.675
-46.3001
-66.2018
-26.7061
1.87282
2.57099
-11.2903
-24.9047
-15.2545
28.9871
7.54188
-22.8735
35.0636
42.5873
1.01485
-17.6061
-26.1812
-13.4602
20.0701
-15.6313
-15.0713
3.18418
-27.5276
-30.7152
-46.0996
-44.5275
-8.46944
-17.6585
-9.6076
4.7274
30.5965
46.0648
48.4688
74.3506
79.3871
60.6031
17.6424
-33.183
-78.4646
-65.1687
-30.3222
14.4864
63.8108
40.6961
43.9128
33.0423
20.4846
20.3942
0.588261
-18.1554
-17.8399
-49.7015
-34.5576
-45.1756
-43.39
-9.4677
-1.93064
4.71185
27.4301
40.4016
-8.96819
-58.3144
-54.2772
-12.871
-14.3541
-22.912
-25.5914
26.6906
51.7204
-2.90296
-22.1419
16.2763
30.184
25.8795
-0.240377
7.31747
9.85444
12.908
29.8896
28.7084
27.4959
26.8915
6.87019
0.362628
-1.71118
24.5239
-3.34207
-77.7578
-56.2948
-7.85149
-11.3889
-6.79354
-10.8957
13.0163
-11.322
-46.5518
-27.641
-7.88854
-9.10482
-19.1615
-13.8258
13.0481
23.9851
-3.41133
1.01695
53.3553
66.1736
69.316
40.7695
26.0236
30.9153
31.9088
-53.3489
-78.4864
-41.0342
-7.24438
23.6268
6.31209
1.99492
37.5514
-32.7016
-43.0566
-49.2771
-21.7631
-11.6957
-45.5755
-19.6429
39.7931
-11.4183
-38.2194
-9.13631
12.2301
43.4221
22.6077
32.8427
61.2495
-2.51671
-6.87721
-18.6704
-38.5679
24.2437
44.9437
48.1841
48.9816
-2.11075
-16.8151
-7.91303
17.7795
69.1253
55.2959
4.90279
-21.9456
7.77035
-25.7008
-41.1238
-61.3078
-37.299
-35.7677
-23.7748
-20.1186
-2.52999
1.18098
-66.6208
-51.5153
-16.8051
-15.11
-23.0574
-40.7105
-40.3988
10.6836
58.9406
18.6957
-2.85362
27.9198
32.7219
23.8582
50.4258
74.0766
65.9733
12.2273
-43.3171
-33.3669
8.39628
3.3429
18.8226
16.6363
29.5983
13.1937
-15.347
-15.8094
-48.8692
-30.9828
3.61042
30.7801
62.4425
23.5492
-26.6405
-16.5481
-13.3977
-5.21776
10.6823
-11.0369
26.0306
25.3539
-22.7155
-35.5236
-49.9225
-42.0605
-8.11988
-9.48814
-8.06821
14.7903
43.8403
-2.69884
-46.8041
-23.2624
-5.7336
-5.46852
-13.3512
-14.5625
21.5712
61.3933
-8.64801
-21.6093
12.6304
36.0755
28.5511
13.7248
34.8475
6.45473
-53.9898
-22.9826
-11.2045
5.08265
-2.79517
0.710717
61.3551
29.2088
3.97803
-2.06162
3.39982
-4.30149
16.4282
10.5173
18.1023
-10.9099
-64.8745
-63.8206
-42.8396
8.3861
56.8604
49.374
-3.47422
-10.5505
1.91874
-29.7427
-51.0163
-25.2573
-20.1847
-6.15463
-0.823556
-10.5342
25.1738
56.8749
-10.3669
-64.0193
-17.3378
10.1558
25.5704
28.5615
27.81
25.2424
8.3915
-16.9503
2.77653
26.767
9.43209
5.59148
11.74
35.4576
-0.31231
-53.0466
-25.1939
-9.72519
21.8927
51.4626
57.7606
44.3701
-29.8688
-43.4686
-16.3812
-15.2693
-18.3991
-9.36652
-0.121843
11.0834
-62.1068
-56.6085
-29.611
-24.8232
-8.75343
14.7634
27.0073
70.788
42.4805
-8.6986
-11.4085
-20.7573
-12.543
-16.7036
-9.09337
-11.9725
29.891
48.0803
-44.853
-46.3579
1.27865
29.6893
42.4858
38.0446
69.4256
69.8365
-36.7122
-78.5553
-46.337
-5.67478
-0.285716
9.83638
28.9055
32.0635
-0.348851
-47.8948
-31.9645
-12.076
10.9139
13.2048
34.9102
20.5294
7.3131
-39.4778
-57.2171
-38.5269
-21.7324
-33.9719
-7.30483
15.1463
16.1843
15.0819
-20.883
-31.8325
-2.23676
52.5857
48.5718
33.0523
48.974
95.0248
57.8433
-14.1737
-37.0677
-10.0973
-17.7429
-31.562
-13.3372
-22.2108
-5.17999
13.3271
-15.8348
-57.6498
-30.5266
-15.279
1.84853
1.20234
-3.86966
30.1102
5.29661
-24.4648
-7.26364
14.0884
12.285
5.71514
11.0511
32.0569
-1.74305
-2.96252
6.99467
6.55874
3.24528
24.2923
41.2236
50.6863
-6.29682
-46.8159
-53.9149
-63.2208
-20.6867
-18.7885
-6.35268
34.4196
1.45421
-10.7733
-14.837
-28.5584
2.21276
3.56619
-6.56325
-9.70832
25.5932
34.3235
-9.69135
-5.12143
24.2426
48.5011
30.7216
9.49238
21.4856
51.3558
14.0496
-70.6908
-66.0589
-41.6948
-22.532
-7.83841
12.8395
14.0902
32.4343
34.6331
-12.6882
-5.82939
15.4877
-0.753713
-1.807
5.68607
28.9347
28.29
-12.1584
-45.4777
-26.7214
9.39001
21.2151
17.5578
33.8371
1.64571
-29.8353
-26.0172
-28.9615
-33.5598
-31.3529
-28.562
13.0581
16.6213
-23.423
2.48397
-5.20503
-30.5918
-11.9756
-5.05021
16.6312
72.0025
80.4789
-2.18445
-20.3045
-3.11573
25.0912
15.3875
-1.12496
15.5852
54.8228
-17.1414
-44.2461
-48.4239
-9.77358
-18.4273
-35.0146
-7.37706
63.5409
25.2658
-19.0134
-22.7103
29.5897
70.7203
29.3899
4.03118
20.1805
-29.5166
-55.2713
-53.2682
-52.9061
-1.82138
5.56616
13.5611
40.1236
9.30862
-10.5063
-5.34707
-21.388
-2.2072
12.2991
-1.80207
-12.002
-8.24331
-67.1476
-35.3284
-28
2.86632
38.5483
47.2096
28.8651
40.8525
46.6736
-12.7322
-15.4004
7.75943
28.6279
23.5547
8.66024
15.8077
45.153
1.29715
-52.6925
-91.6831
-36.7138
-21.1116
5.84104
49.2268
33.5019
50.1312
45.9983
-9.667
-38.1652
-32.6516
-32.3705
-10.8781
3.85696
19.6373
-39.3187
-55.8458
-39.3396
-12.9475
-1.8785
41.6186
75.1004
76.3529
-27.791
-61.4616
-38.2373
-38.6562
-28.3097
17.4073
55.1409
110.874
46.047
5.84616
-10.6158
-23.2576
-4.67586
-5.66539
-19.6195
-4.47915
26.6194
11.4359
-36.1848
-49.0846
-4.22016
10.9962
-4.38034
-31.7722
7.45876
10.1639
-54.9354
-57.7497
-9.41695
6.40659
9.40948
6.96096
45.1254
71.6958
15.6906
5.25464
-21.5471
-5.95346
5.9266
-10.7488
28.1626
58.1346
-10.8103
-29.3791
-30.1484
-8.1724
16.1956
1.31291
-6.94228
4.48255
47.8243
41.5238
-36.9695
-41.5957
-1.33893
-7.20231
-13.1575
-12.1652
23.6783
50.8707
6.49147
-29.7691
-3.44739
3.29499
-4.29888
1.89641
3.77469
-10.4596
25.915
-11.0234
-63.3611
-49.5048
3.05642
-13.3383
-19.7794
-9.1824
25.2717
54.4979
13.5166
-11.3101
7.30785
12.8205
17.3213
-4.57243
-2.63033
-8.58691
-38.9314
-26.1296
-26.7796
6.36032
31.3403
47.4654
53.8647
12.9631
-17.7858
-11.9545
-13.8799
-12.5797
5.57598
-0.513344
15.9995
10.4732
-10.2848
-1.44164
-10.1696
-4.66828
15.7021
7.82415
7.67489
12.5977
-35.8422
-38.9354
-26.8254
23.4345
63.0878
32.2633
16.568
29.7081
49.4739
-21.119
-73.052
-59.7847
-23.0922
-7.23432
-15.1732
-15.4723
22.927
41.2257
-23.0821
-69.5682
-28.8431
-24.564
-5.38083
8.76215
8.06022
22.0189
43.9314
7.43763
-59.0968
0.306587
50.0943
59.7843
43.3466
16.741
31.4147
-2.7192
-19.8684
-33.47
-11.7733
20.7019
31.1761
49.7115
51.5681
-21.9526
-29.9353
-26.2704
-43.5079
-34.9199
0.350674
40.4992
29.5638
-54.9646
-60.3228
-17.8793
-24.4947
-12.542
-5.98969
-4.17679
10.7627
38.3405
-15.8235
-30.2316
-25.9433
13.6361
14.5836
24.7806
39.5174
31.569
-5.09253
-12.8
-12.0541
13.1497
21.9319
1.09767
14.079
31.4838
8.01517
-4.55737
-2.55459
-17.9227
-1.33987
-10.2557
14.2458
-30.4645
-27.6136
-18.3605
-28.124
-20.3006
16.8851
15.6703
32.1166
-1.34902
-14.4872
-11.4934
-16.6001
0.31903
16.173
17.9726
25.682
11.343
2.72858
-1.55428
-41.8366
-6.89213
9.07942
-0.0688249
-4.12058
28.9863
67.3635
-13.6973
-31.9536
13.3968
43.4085
28.2716
-12.1673
-26.0477
2.44999
1.78851
-15.0483
-37.431
-21.8331
-26.6613
-24.1673
-0.429782
9.85391
29.2315
26.2729
-42.1741
-49.9748
-4.23528
-12.1727
3.56119
9.6025
22.6545
33.6926
-13.8535
-9.92994
-3.69921
2.10844
15.4473
16.5422
46.8392
72.2389
12.1804
23.7293
7.69207
-25.0241
-29.1116
-40.6416
-5.52765
7.00273
-50.2452
-53.6383
-31.9448
-18.2995
11.3497
-3.30538
4.9656
9.22277
35.8093
21.4676
-13.6436
-13.7025
11.3526
9.86168
20.1156
19.4409
25.253
31.5354
-9.87471
-11.8138
30.6613
25.4622
-3.2471
-8.28694
6.83167
2.463
-43.2479
-51.2676
-43.0904
-16.1434
2.15
-6.05773
9.48627
32.456
-4.98507
-50.8358
-20.5986
-19.7457
-0.75031
-2.6275
7.1126
24.8022
60.3949
56.2358
-19.4444
-16.1903
6.08845
5.30581
-1.83984
17.4422
47.2336
24.6027
27.8292
-30.5562
-39.5691
1.45085
1.31606
-9.12182
-20.0055
-36.0699
-2.06044
-7.03442
-26.9739
-31.7089
19.1465
24.5095
26.8156
34.8908
57.4201
14.1975
-28.6103
-38.0548
-33.3942
-20.2033
-0.379742
34.0258
65.0548
-9.06505
-28.5062
-23.9962
-24.0628
-24.544
-25.8863
-10.355
34.298
-31.2277
-21.231
-9.52057
-16.8648
10.2829
12.9569
25.2359
42.9739
-4.82047
-18.8855
-22.4714
-26.7828
23.6433
35.3681
52.1621
56.9839
0.831159
-22.2092
-28.9318
-20.8788
26.0393
27.9062
9.20742
-6.59711
4.21012
18.9176
-43.241
-55.2024
-9.70028
13.3181
5.93586
-15.5444
5.67965
31.0991
46.0154
-9.41867
-3.67889
1.61682
-8.45535
-16.6589
-0.958817
-7.89264
6.49148
27.5487
-8.11081
-16.4032
1.49405
-0.255517
5.39734
4.93441
16.6703
29.0704
-31.7896
-48.4093
-57.8225
-37.7077
-12.7505
-0.693154
20.0192
47.5081
-4.18867
-24.4776
-26.4169
-41.0465
-25.2531
-22.5463
18.8987
76.1136
32.7722
-2.33715
-23.9462
-17.7987
28.6871
31.1881
14.6625
16.6382
37.2314
53.9341
-4.45097
-25.056
16.0669
27.7901
27.0915
20.3381
10.5588
-9.76151
-46.4232
-46.4516
-7.07748
3.00775
6.76463
-2.99971
25.345
17.4341
-21.6589
-22.6126
-11.8577
-27.3931
-9.47983
-30.7616
-12.8966
2.26022
-17.9946
-14.6781
-14.499
-20.3406
-5.93752
-24.5521
30.145
67.9826
26.4093
26.6219
24.2331
20.8683
17.6834
13.0008
34.3813
24.8886
-4.03399
-42.4892
-51.9516
-43.6008
-26.868
-31.5241
-13.1438
8.10581
48.634
28.8557
-58.6162
-54.5645
-17.1119
-22.4401
-27.9124
-26.2869
-8.29152
26.1761
65.2447
0.836652
-10.7865
14.4592
26.7108
22.8648
26.3744
37.6534
67.7919
30.4948
-3.09956
-21.5085
-12.1888
-22.4731
0.693087
34.0151
36.5774
-16.942
0.117766
-15.3208
-52.1643
-23.8351
15.2413
40.0716
1.25346
-22.0447
-21.1585
-29.3861
-47.016
-24.5196
12.8761
77.3158
103.623
53.0158
-30.6072
-72.8215
-62.2471
-18.3769
-8.04171
-8.39727
-28.8396
4.9767
5.82718
-41.4646
-17.8889
-3.9293
-0.436334
8.98368
22.5502
70.5139
3.9597
-61.1885
-56.2772
-23.2903
19.2176
20.415
19.2432
58.0915
20.3228
-35.1808
-26.8407
-1.55779
4.90899
22.9348
38.3963
67.202
45.3923
-0.157007
-16.2366
-39.3361
-14.7688
-3.99587
1.00285
6.70881
32.8426
49.392
5.00623
-9.52193
-8.15396
7.76988
-11.8399
-31.0012
-24.8069
10.25
18.9017
-28.3299
-70.4265
-43.8777
-43.1333
-38.834
-4.32671
8.22303
54.3198
45.997
-28.5543
-33.6704
-17.2096
-14.9671
13.769
33.804
31.0629
37.6089
-11.5482
-20.2903
-19.3224
1.30761
35.3877
34.395
38.4157
60.7034
-0.626842
-19.936
-40.9358
-16.5492
35.7978
17.437
46.0026
0.74171
-51.7071
-39.1604
-27.9285
-18.0812
18.9127
15.9774
15.8707
-15.1422
-9.99654
-12.8715
-29.789
-49.8407
-4.99998
23.1519
21.9323
20.6659
-1.10507
-27.7796
-57.4065
-7.45574
39.3817
11.5517
4.27717
10.3406
45.2475
1.32427
-52.3
-8.16044
20.0312
25.0825
26.4695
20.2287
49.1164
45.2697
-23.794
-37.1031
-18.727
-3.15777
3.01917
-10.5602
-18.4202
-3.0786
28.3708
-23.9124
-77.8484
-26.0048
29.5638
45.5245
14.1673
6.22522
48.5835
18.5012
-43.4
-54.5079
-28.2151
-8.64292
18.3617
18.2817
36.7574
33.4692
-37.4285
-17.9925
-10.5055
0.0604249
3.84851
2.0403
8.84598
23.3262
57.2914
13.4407
-73.0613
-57.8777
-30.9835
-20.5726
2.8915
14.8125
42.6933
48.9153
-34.3198
-31.1909
21.3427
11.0695
-10.2473
5.78094
26.0332
36.9919
-31.0501
-36.9656
-35.9267
3.44744
32.3906
22.9378
28.3296
38.9418
-14.8965
-28.9825
-36.7103
-24.731
10.4278
-0.030939
33.2587
58.2016
1.25621
-32.3788
-19.5675
-16.4911
10.225
-16.8315
-16.6327
26.3166
11.5573
-29.3552
-24.4562
-33.2151
2.01697
8.02343
6.41213
1.45546
31.3327
61.8732
-5.86732
-26.1693
10.2686
14.3515
-1.85825
-15.0405
6.56519
37.6522
58.8693
-36.8839
-43.4338
-11.9013
0.620104
-0.336974
5.2777
-5.55487
-9.49113
6.97306
-35.0903
-51.15
-4.3836
6.23583
5.15806
11.0418
32.5483
47.3344
-4.06445
-6.48696
-22.6245
-1.81492
8.00893
22.8784
61.9859
13.0167
-41.0531
-44.2157
-36.6249
-40.8358
-6.59604
-3.52113
17.0241
32.282
-14.3087
-23.0938
-20.6236
-26.925
11.385
-4.66367
-23.1331
26.7647
72.3492
28.397
-58.6995
-19.9672
28.478
38.5136
40.0098
35.4069
53.6539
34.0609
-11.4624
-10.9682
3.81135
-10.4915
-28.56
-34.7764
-8.82449
-14.4909
-52.1908
-37.4264
-24.2656
9.2439
7.61675
-1.82659
24.151
36.7944
5.19246
-4.9475
-7.46718
-1.43487
1.75603
-16.746
51.1671
60.8887
-26.4005
-56.6929
-45.0529
-26.2711
-9.40481
-20.8833
-27.4352
3.45093
61.4175
21.4969
11.0111
-3.75705
-0.801995
4.81746
-1.21847
-12.1487
8.75264
38.046
-9.19403
-46.3621
6.71648
24.274
8.73796
1.47967
13.2495
14.8075
37.9024
4.18385
-22.8469
5.40686
8.2171
2.78862
0.32222
26.8678
21.8127
-23.7818
-6.032
-26.3996
-34.7805
-1.76298
25.6961
47.4638
5.68352
-38.3281
-12.2412
-3.11395
-36.8843
-44.577
-35.6981
-2.99129
-9.48383
-22.7765
-8.50964
-7.67794
-6.73434
37.5986
32.6923
33.4518
54.825
-13.0565
-26.6024
-33.084
-22.7354
-11.4062
-8.15754
-2.20699
3.6171
61.242
34.1872
-11.0565
-10.7583
8.52181
17.9474
1.31311
6.73301
36.2263
-8.55784
-52.5629
-39.7865
18.4843
15.9109
15.3196
37.1867
68.2231
38.334
-15.9103
-21.6767
-26.5257
-10.7219
-8.25289
-16.4328
-11.5092
5.95976
-14.2917
-40.3301
-34.7979
-1.78402
12.3717
-4.14474
11.424
41.5682
16.3287
-26.3751
-8.43653
0.650764
19.5744
9.40131
-4.90469
10.7855
54.3035
10.2792
-51.8381
-50.6957
-34.0531
-16.0328
-36.4412
-35.1063
-13.3227
36.3757
19.68
13.5997
13.2819
28.9946
6.0357
-2.88329
14.4748
24.4582
-16.9863
-21.347
-22.5822
7.11387
32.6422
17.6294
29.4837
2.73967
-17.0302
-7.11218
-4.93632
-30.8599
-2.59421
6.95082
40.1022
4.9426
-15.5736
-1.25615
1.07576
-16.1544
2.96098
16.4766
30.978
-23.5935
-29.9328
-20.6549
-10.3659
17.9975
44.2204
69.4342
64.8404
-19.4752
-29.8625
-32.6472
-51.2103
-28.952
-22.3321
-10.8635
2.3822
34.7231
8.0795
-48.8679
-50.9789
5.20873
34.6231
25.3307
-0.348208
-1.01703
20.7376
6.10151
-32.6926
-32.6045
7.52666
8.09522
-11.2112
-3.22564
0.459935
14.1452
6.61837
-27.6192
15.0104
47.2764
35.9667
39.3235
39.6493
40.8285
18.4297
-35.62
-45.0939
-38.6829
-20.2074
-5.3508
-2.80475
21.5726
20.3771
-43.6648
-21.127
-10.7707
-18.0757
-11.2284
-1.81837
33.2078
23.2323
-35.0272
-19.4488
-12.651
-15.266
0.656562
-13.6688
-20.9482
25.296
51.0454
-5.76861
-21.6547
-15.5988
41.5684
27.6491
11.9648
38.4402
31.4099
-38.5595
-47.7781
-42.508
4.26251
4.69994
-3.70618
40.5307
64.4689
10.0109
2.17916
-17.4157
-5.95602
12.4095
-6.72759
-3.08648
-15.5286
-34.5239
-14.7943
-15.2959
-7.06794
17.9451
20.587
64.2993
59.4014
46.381
-50.8403
-71.9615
-56.0625
-16.1039
-17.2135
-25.8622
-4.47956
25.8091
-20.8605
-5.44425
35.7124
22.5828
-11.3356
-26.6444
-17.7462
24.8284
57.5668
-25.6708
-58.2155
-35.6751
23.2629
16.881
4.05469
0.824747
24.6267
48.4281
-11.2532
-24.6994
19.8157
42.8231
39.9059
20.3782
29.9825
0.940641
-21.8787
-12.0779
-56.2204
-50.6449
-11.1164
-16.6814
24.1167
9.77099
14.216
16.8917
-1.51862
-9.95898
2.70547
1.64644
17.5933
-15.0707
-66.4957
-37.6609
-28.6951
-6.31257
19.6161
26.5791
39.8919
37.5263
-15.4
-20.1566
-22.553
-20.5636
-14.7523
8.09776
25.3283
38.3822
81.8105
9.84378
-10.4548
-16.2321
18.3144
27.55
15.8098
15.1355
33.089
-67.7954
-93.2193
-62.8064
-3.98191
9.69777
21.7795
47.3746
71.7891
-6.30005
-47.3022
-62.2942
-63.4121
-4.90376
14.603
16.6316
38.6268
57.5401
-12.125
-12.2167
-27.9044
-0.523826
-1.67878
6.83134
30.1673
22.4805
-21.066
-23.5435
-30.9675
5.56525
10.2691
-0.863812
12.4651
48.4862
4.72419
9.30453
-8.17735
-36.7437
-15.1014
-24.9277
-36.9048
16.0594
54.1286
-0.517009
-0.794495
0.883883
25.7869
23.5575
9.72643
53.3994
60.2822
-20.354
-61.0413
-62.3385
-36.0531
-56.4405
-43.2973
-10.7158
56.5462
25.5317
11.6696
10.8494
-7.41941
9.62461
7.41418
13.6885
21.0214
-22.1743
-24.2832
-26.4439
-22.551
23.6937
43.6303
60.7643
74.4293
-16.1076
-55.966
-61.6007
-64.8278
-31.432
-8.92965
12.3688
48.6073
56.2339
-5.06844
-9.58649
-11.8343
-2.52946
-9.75127
-13.544
-11.4096
38.7226
47.1581
-35.0901
-35.9258
9.64073
27.6637
23.5482
15.3739
24.4624
49.1325
12.8
-78.3205
-77.1379
-8.25164
7.57722
18.0442
37.1971
38.5759
52.1684
31.7453
5.13354
-35.4709
-29.5783
-29.6625
-4.1682
2.44187
11.4875
-32.4244
-33.5194
-51.4925
-44.8742
-17.8359
10.6602
50.5151
61.5625
-27.7294
-34.3129
-19.3974
-26.8318
-8.42645
-21.1853
-22.6271
29.5203
3.72312
-23.3092
6.32173
16.3536
45.299
43.0901
19.9849
15.3157
60.6438
52.6469
-31.602
-55.784
-0.478013
27.5211
23.8957
18.8009
35.6928
-16.6227
-58.5855
-58.7432
-27.3406
28.1943
38.9182
-1.60211
3.0242
-5.88953
-0.386836
6.99167
-21.6563
-22.5443
-7.17589
-3.94181
65.2833
20.899
-2.67954
-28.0776
-44.7313
-17.4513
4.01851
8.79367
12.678
-40.6922
-48.4907
-25.0361
-6.49327
1.1875
-2.05745
10.5633
23.9503
34.4124
6.12526
-18.4308
-38.7499
-1.54657
14.5513
16.3429
5.16372
29.3201
80.9783
40.9381
-31.8451
8.98185
25.6434
9.40648
-0.901516
6.39657
11.7797
19.4563
-40.6076
-60.9137
-30.1688
-21.0233
-29.9358
-19.0417
6.15821
26.204
-9.23297
-1.74136
0.435889
7.93341
33.9551
37.7472
13.1247
-11.8474
-32.1325
-24.0998
-11.4017
-7.72433
27.3261
33.4952
68.7177
11.1044
-23.2071
-17.6706
-37.2737
-59.8587
-35.1878
-17.8523
27.9502
58.5913
7.37162
-5.39807
-3.96281
-7.00689
-8.70439
-15.0344
-10.8566
-4.73653
24.3802
-17.2643
-34.6636
9.56293
13.6382
-3.63232
-7.83423
13.357
33.7185
15.2701
-19.7887
-26.7776
18.25
24.7548
5.02219
18.822
51.467
16.6284
-27.6387
-11.5375
-20.6669
-13.2252
-0.0239358
18.6119
27.2746
41.549
23.9897
-24.5203
-22.7029
-13.489
-9.67539
-23.541
-34.2703
-6.88852
7.44932
-39.2806
-41.7737
-20.8189
12.1821
21.683
17.2521
15.9622
28.9787
-17.2535
-59.0353
-31.0362
5.23474
26.786
28.0413
41.6383
20.6659
24.3665
18.7608
-23.8567
-19.6836
16.3438
10.7687
13.6545
10.4334
18.7389
-15.7747
-38.1604
-21.3904
18.9099
47.6662
15.0848
-6.65848
29.1475
14.1916
-46.8552
-46.2708
-44.345
-29.0663
-12.1562
-7.35618
47.0919
5.10508
5.99091
2.67105
-46.5062
-31.3079
15.459
0.219779
18.9585
1.0725
-25.3474
8.11923
-8.81816
-23.0258
-1.62804
-0.234745
41.6765
78.2375
40.5734
15.9283
-23.9378
-11.6747
-2.95121
2.04865
-15.3673
-13.0357
43.1841
32.5987
-53.0972
-46.6855
-19.7911
-10.1728
-6.03386
3.24723
24.3391
33.0076
13.0079
-30.6287
-14.3605
-3.99868
-3.89103
-3.22213
-18.4913
14.7115
63.2905
14.0665
-38.5147
-39.0924
3.47605
34.5201
64.6211
45.94
15.9418
-5.20231
-10.9897
-3.73187
-29.9137
-29.1945
-12.8791
-4.29378
18.9914
-41.817
-41.8345
-40.2169
-37.2695
9.14788
13.8049
16.4106
47.5785
31.7667
7.45481
-30.8345
-31.688
-17.9032
-29.3443
-41.0607
-22.4354
25.2692
78.5751
24.7567
-3.28322
27.6559
19.8015
-7.82085
-19.0367
16.6315
36.2372
-15.1448
-14.1237
-11.6263
-25.3413
-9.59065
5.29397
42.2988
48.0956
16.8368
7.59907
-6.08443
-37.3594
-26.6855
-26.9162
35.1755
32.5176
-14.1831
-30.8506
-26.2346
3.88732
31.9057
17.3066
30.5814
49.034
13.8063
-25.7444
-61.4554
-57.6321
-41.1636
-33.3046
-9.34766
-7.90007
14.487
2.81485
-33.2071
-11.0126
22.5804
20.7197
11.5916
3.88183
-4.00136
9.80464
58.3577
25.3364
26.4028
27.8388
4.69794
-5.6664
11.0889
-5.0749
-30.7067
-16.7381
-28.5874
-11.7713
-3.77095
14.207
38.3844
31.3695
39.6427
40.861
-33.2856
-84.1659
-105.899
-79.0552
-32.2993
6.33233
46.9472
70.5089
28.49
17.9089
27.1709
27.6228
14.6007
-1.81141
34.3962
58.9405
28.7247
-42.0729
-64.9721
-88.3405
-23.3552
27.9679
21.831
14.3628
35.7166
20.7167
-6.33217
-55.1926
-41.6245
-27.0173
-22.2108
-32.1864
-12.7123
15.4995
18.2951
-36.8944
-33.7903
2.57459
13.1562
14.87
31.7593
46.0764
15.8437
-12.0173
-5.38015
20.6278
33.2732
31.0789
19.7152
49.3051
41.0108
-34.8004
-41.9993
-25.6171
-34.3789
-19.8868
-6.17104
15.1944
35.2835
51.3182
11.779
-10.1704
-1.03866
5.30745
-27.4237
-27.6173
-8.40085
49.4755
21.2543
-42.3254
-49.2315
-11.0776
-2.39675
-13.8798
-20.8126
-13.4924
33.9806
25.7507
-27.4099
-35.8924
0.900661
17.3713
-1.25106
-15.0935
-13.3009
26.6699
-16.7413
-38.477
-7.31891
17.2133
31.6193
38.1617
44.484
46.6353
17.7271
-17.9679
-35.4112
-18.1243
4.99383
-11.9591
-10.3616
6.01015
-23.5429
-13.0544
4.77596
-7.11474
-5.31926
-31.9906
3.52748
39.8523
7.20694
22.0711
23.3869
6.43083
6.88192
31.0545
38.1875
53.551
-62.5487
-95.9792
-68.2417
-51.5679
6.10683
31.9399
22.492
30.8151
93.4548
74.0759
-5.86598
-51.7244
-45.5193
-35.7322
-33.7049
-43.2239
-9.67469
39.9222
-13.3928
-81.0926
20.4523
53.5047
62.9593
47.4551
24.0847
22.0277
38.9529
-40.6527
-80.4645
-54.7322
-1.24207
10.2399
28.0481
20.9733
44.9291
12.5581
-36.6303
-73.2239
-56.8994
1.45565
38.4264
74.8557
39.4671
-22.2425
-21.5169
-31.3381
-55.4602
-28.3432
11.0424
38.9227
56.2805
4.70961
-34.8359
-43.1678
-38.7794
22.3126
64.1116
56.4719
43.6912
59.7343
18.327
-88.3
-66.0921
-20.2154
-11.924
-16.832
4.21286
42.0006
47.4006
-6.22189
-45.1124
-18.3328
11.4476
25.7404
7.38538
-3.86867
13.18
-19.0483
-19.0661
-30.1284
-18.2111
25.5508
31.2408
52.5848
67.0349
2.75097
-17.7636
-42.8592
-78.9139
-58.9765
-20.4903
29.7319
28.0677
-18.0262
26.8962
16.7497
-20.5642
-10.5871
0.151149
20.5233
50.754
-15.154
-50.1903
-39.1866
-32.1507
12.9101
11.0221
4.08089
19.5344
91.2278
79.2049
-8.86302
-41.5793
-10.6002
-28.0749
-22.6362
-30.6705
-23.2409
26.0454
-0.485256
-58.6367
16.5093
39.2663
12.3636
-9.24568
5.14667
31.9623
47.9563
-20.5552
-43.7197
-33.237
-1.54718
25.9687
42.2395
44.7515
28.5787
-4.99695
-9.69112
-30.7385
-24.4113
-4.99141
21.9254
60.8841
7.73184
-24.3533
-17.406
-37.8766
-60.3496
-40.6406
-24.7666
31.8387
84.8006
39.8884
0.851112
-58.7772
-76.4719
-31.0452
4.84585
-2.15311
-12.7102
19.2575
19.4701
-18.7123
-12.9138
-0.88381
14.6055
16.6738
25.918
72.6371
48.5532
-19.9152
-53.8777
-28.0104
-13.4885
7.38165
43.358
62.2825
47.7254
-19.6419
-34.5583
-41.1197
-29.9726
-11.5895
24.4096
41.0873
51.6434
-22.9784
-48.2515
-50.134
-42.4538
-22.8187
-15.8286
-4.46026
35.3086
66.7417
-2.09055
-13.3224
-10.6685
10.957
20.1032
17.7577
16.7395
21.4138
3.26902
-15.9188
-27.1392
9.46952
14.2992
-0.0269276
0.702328
8.10578
35.6956
15.8778
-25.4602
-57.954
-29.844
-18.4356
-11.3784
16.096
21.021
-17.2927
-41.8314
-31.6182
-20.6509
-12.914
20.9157
75.5738
108.222
35.9407
-13.8234
-33.9643
-53.2801
-23.0902
-17.1677
-20.2865
20.7285
-8.73082
-12.1555
-6.06667
3.60048
11.7743
14.2873
32.3585
15.3199
-7.8199
-17.9919
-39.9521
-44.356
-0.486499
10.7802
36.3129
64.5691
4.2089
-23.2215
-21.0856
-30.2237
-20.7155
-12.2389
1.69713
20.8773
75.6649
53.7996
-11.6248
-1.45737
11.0447
-1.92533
3.22182
5.35043
37.0665
31.4307
5.84424
-51.9369
-24.3302
-1.88529
1.77914
-1.65654
-9.64992
-27.4939
-9.79075
-20.914
-49.5611
-19.9328
10.0632
-4.91134
-12.9085
-14.8033
7.22449
-20.6983
-34.1847
-5.85007
12.7525
22.8577
49.3983
57.9167
73.026
44.4378
-22.4461
-19.8834
-36.4215
-40.7031
-35.4214
-26.2607
-18.9377
39.9266
38.4992
-22.8526
-13.9239
12.7992
14.5006
0.965946
-12.8712
-24.2764
4.42035
4.13358
-21.1398
-26.1401
11.4993
20.4294
26.7008
34.7042
58.5892
20.8696
-20.5792
-38.0795
-22.7312
26.7428
26.208
37.8708
54.1074
0.85244
-33.3661
-27.2592
-37.792
-36.4482
-31.9147
-17.1386
35.4778
16.6289
-43.8495
-36.4582
-35.4445
-1.69398
19.1327
29.9257
66.5968
47.4551
-34.1449
-31.127
-26.3979
-0.213565
9.22831
3.59611
9.47945
47.0555
44.1905
6.83768
-22.657
-31.8637
-7.99837
-9.29634
-15.7922
-9.72466
2.75372
11.3279
-41.2787
-43.6284
-13.6266
-4.64108
-18.2876
-1.04632
10.443
24.6979
20.1627
-56.2678
-54.4146
-11.446
18.8427
32.2073
54.5186
104.667
46.1366
10.7978
0.372499
-12.4248
23.0343
30.2006
24.2969
23.6592
-26.7587
-45.7946
-39.1737
-29.5042
-11.6912
14.5565
30.7292
74.7679
-4.02572
-35.6238
-21.3602
-51.6284
-35.0034
-27.1306
-23.744
-15.2012
6.97896
-46.4296
-41.0857
-15.3332
33.1864
22.6055
17.3046
32.0956
32.1819
46.7178
-42.2058
-60.9946
2.90394
54.1697
45.2222
7.01028
10.4318
59.1997
18.6697
-59.3559
-57.4002
-19.0093
-13.3115
-29.6113
-9.47104
49.2694
10.4768
-11.6959
-6.59272
-18.6619
6.11474
0.796975
19.8746
57.9249
25.7576
-35.0144
-12.782
-9.22559
7.04353
34.7639
21.5409
33.9162
64.663
36.5328
4.84938
-72.2331
-46.8788
-45.2181
-48.5176
-25.1701
6.46857
14.6341
-16.3161
-85.0731
-39.2707
26.4166
20.2469
-1.6405
4.19622
28.9636
52.3369
9.25961
-15.8092
-20.6202
-18.7846
9.58414
32.5641
40.4711
41.6013
1.89444
-19.2703
-14.3738
-4.57787
14.4093
29.198
22.0318
21.6922
-25.7237
-22.9859
-29.3265
-48.4452
-19.8028
-18.9471
-0.56408
21.8244
-4.46815
-0.241183
-11.0245
-21.2026
-3.19087
23.54
46.8819
50.6191
-12.3857
-61.8751
-36.6987
-18.5681
11.8736
3.6597
-6.07586
5.93292
67.5612
54.1609
-8.77377
-6.79131
30.1608
26.5766
9.84774
-5.72754
6.55207
30.7632
-36.0452
-31.6922
13.4247
17.366
-12.2743
-30.5324
8.27551
41.6807
8.57218
-27.7022
-86.479
-66.0883
-39.4501
-27.9443
-8.19384
10.2139
56.7331
16.6078
-24.0748
-22.3232
3.72213
4.33495
1.87776
-8.94447
8.13201
0.271264
-13.0123
-5.21403
19.5139
22.8578
36.1171
39.3906
86.1029
57.6878
34.3921
-70.867
-66.018
-22.7675
5.93188
8.373
11.0455
-9.25546
25.03
10.0123
3.80095
27.4271
-5.93773
-45.7643
-35.6366
-19.5659
-11.8396
-6.80387
-28.2985
-38.9142
-6.17338
51.8145
30.3364
12.5764
14.6392
24.7435
6.69911
-21.6764
-14.9931
6.54907
0.643567
-10.9403
4.69728
47.1985
15.5274
-38.3854
-29.9708
-18.7286
-17.5979
-5.17291
-4.73268
20.3914
12.0534
-15.677
-10.3606
-27.3456
-8.89165
28.0086
9.3713
17.721
28.6868
2.11431
-50.2278
-46.6225
-23.5349
0.699123
10.3492
8.03153
6.87179
42.4641
16.7369
2.3112
-0.400811
27.7321
30.3387
13.9067
-2.04341
-8.50219
-2.46982
32.7094
-1.72949
-35.468
11.1788
1.36878
5.14841
12.7647
3.54141
-4.13979
-9.5024
-38.2385
-18.4129
-3.28503
-2.01699
7.90658
2.49235
23.8984
34.6563
-5.92215
-27.5032
-48.7472
-26.4192
27.7959
20.4252
14.7827
7.24891
-28.0713
-13.3392
-7.73308
-6.04499
-2.93575
-3.93833
-3.4879
24.8714
5.35534
-27.6937
-12.745
-12.3592
1.28735
-1.55658
-14.3274
-13.9628
24.6662
65.763
-10.4798
-9.75446
16.9648
6.13022
-7.84049
-5.80156
30.4863
48.6704
8.35316
-23.5727
-21.6148
-0.337048
-9.99489
-5.29618
20.9306
4.96527
-4.68349
-0.526568
-29.0759
-65.1183
-38.851
-5.86467
72.0317
62.5409
-4.2081
-0.368439
-10.9889
-19.8742
-0.770383
8.83379
36.7237
24.9257
-31.5431
-35.6013
-21.3684
-4.66094
-6.08344
4.24508
7.03694
13.5679
49.8111
10.9113
-30.7761
-32.2743
-3.40228
-7.51951
-11.2332
17.4864
79.7079
48.638
-36.4828
-52.3895
-16.7402
-13.3776
-16.9328
-12.4869
-15.1214
-7.46882
-14.5766
-8.86882
7.57554
25.2135
23.5934
28.6733
36.8505
50.3364
-11.4627
-31.2835
-55.9507
-49.1934
-2.76088
19.8633
35.6753
59.5396
-10.3477
-10.8586
9.6147
11.6437
3.58396
-13.1956
-28.1143
-16.9798
-59.2509
-52.2932
-26.4008
-8.84043
50.3573
68.716
32.9121
18.5604
41.2772
10.9845
-25.0551
-36.3489
-10.5915
-4.97108
15.4836
6.03343
17.1968
52.6331
16.6442
-26.4538
-5.30235
1.77481
0.590293
-15.8757
-25.0764
-18.9063
-6.85635
-78.9289
-63.0593
-19.2832
0.539309
-4.10428
17.8151
29.859
65.4018
5.32779
-42.7821
-40.3059
0.984023
44.3482
46.0662
31.0471
22.7481
23.3517
19.853
-56.5046
-37.3476
24.095
25.5598
39.835
38.5406
35.5802
49.2866
-1.53576
-100.342
-60.0739
-10.9346
-11.9843
-8.76133
-5.28319
7.15811
63.873
77.3618
-25.1573
-49.7652
-33.6624
-54.8964
-35.5623
-31.7634
-12.9615
28.6562
5.11474
-1.5601
18.9717
48.8432
49.1926
27.8167
24.0738
26.3369
-46.1663
-75.4027
-80.7399
-69.1552
-17.86
10.3363
38.5098
71.9891
31.2726
-4.25529
-7.09198
-10.7539
-1.5639
-8.02118
-8.88052
16.1841
-6.00618
-21.4364
-17.2897
-0.171493
53.118
49.2018
5.44362
-5.79232
14.3623
-2.28408
10.68
-5.70304
11.6753
14.4126
22.5906
27.9365
40.5635
24.1851
-22.9987
-53.3367
-44.888
-12.4824
-12.6396
-21.34
-16.2581
9.21644
4.9465
-27.0657
-11.6536
12.4163
13.6952
11.8448
25.0545
26.006
38.0646
-5.63317
-86.9545
-84.674
-45.7683
-31.0392
-2.81958
20.4625
60.1132
28.5722
2.86175
6.34299
3.72365
13.529
19.4741
14.1695
26.8967
-16.3136
-24.5344
-9.55414
-28.1303
-33.3374
10.1677
37.6099
72.7419
62.844
-7.95455
-26.6605
-48.4927
-36.3785
-15.1958
-8.76639
4.66307
43.9141
22.4443
-5.63526
-20.7939
2.33201
15.9966
8.48302
-18.4469
-1.78564
14.2811
-20.154
-16.5094
-0.667804
29.6374
12.7295
-3.64781
21.3577
28.8719
-17.6277
-30.9406
-29.2568
-13.3972
10.9933
4.33202
22.2543
26.6433
-46.2259
-34.9898
-24.4961
-8.41992
25.132
9.25551
18.5388
14.4617
-22.0318
-15.5926
-19.1924
-15.1949
5.1877
22.9386
71.1029
28.9843
-41.4438
-50.8566
-47.1911
-34.632
35.6102
37.5638
16.5168
33.6084
3.75314
-23.6628
-26.2962
-15.2915
9.96312
3.88974
-3.88133
11.4414
40.286
63.7445
18.7632
-22.6021
13.0124
15.862
3.87769
-12.418
-18.2694
-5.28032
21.8628
-32.4691
-46.8022
-17.7438
-23.526
-12.7749
7.59984
15.904
26.1305
-25.2384
-16.2271
-23.7494
-49.7376
-5.13264
15.2002
18.0263
40.7522
35.0095
58.5534
25.3582
-18.4441
-10.9275
14.0088
27.5883
52.0462
19.6745
-33.2299
-60.3669
-61.6804
-8.54202
-3.26358
-26.0885
-31.6911
4.17261
14.7597
-16.7305
-32.455
-3.7431
-14.9149
-25.6318
-18.7577
8.61198
43.8337
8.3398
-31.9802
3.27997
39.3542
35.0906
30.1331
31.3549
44.5394
6.55564
-1.94898
8.07494
-6.19487
-2.25149
7.84634
33.5426
65.2184
28.8937
-34.4146
-28.2667
-34.8888
-33.0696
-45.9371
-36.4217
-8.24921
37.9588
24.3755
-42.2414
-44.9524
-11.1057
1.79296
-0.0607007
16.9692
34.7638
41.8678
0.250606
-33.6481
-21.6473
-7.42217
-8.87135
-1.81009
18.6582
27.0267
41.2715
53.2637
-46.8265
-58.9915
-15.4763
-19.1329
-7.28552
4.41535
-1.87547
12.9297
-19.6279
-40.6624
-27.0184
-13.7164
15.8393
39.6012
35.7098
38.7061
-9.67581
-22.9948
-24.1489
-15.2597
45.6193
56.1301
58.1077
35.8319
-4.78043
-2.00759
-4.03462
-20.586
-4.85279
-11.0755
-2.92582
-6.96975
-48.2386
-40.3156
-34.0959
-20.95
4.33638
5.09901
15.5983
43.2427
39.411
-16.4611
-49.4458
-23.0722
25.8522
19.5889
7.0338
6.54413
23.0436
56.1349
-18.1825
-57.9892
-14.7225
9.41147
11.8562
0.423593
9.84283
34.8984
43.1622
-30.0336
-57.9614
-13.5565
12.6314
-19.145
-31.0358
-27.0366
-15.7273
11.3236
-17.3687
-28.928
20.9133
47.98
43.9547
26.4988
22.2149
43.095
16.1856
-26.3235
-39.6331
-28.2895
-7.56744
-7.97179
-0.317195
16.3011
-1.46834
1.43648
13.0058
-9.67304
-2.23684
-17.6435
-16.1282
12.1979
52.3979
12.6505
-25.7012
-39.2859
-7.46526
22.4332
13.0678
-1.55621
12.2542
-4.9575
-31.0955
-23.7335
-12.2864
-16.676
-2.60273
9.87151
35.1312
25.421
-0.622253
-11.3981
-25.9139
-2.60468
11.8095
-6.7972
15.8856
17.1768
-26.1722
-15.4756
-7.67736
14.9262
33.6184
31.9421
88.3472
59.9364
-30.2341
-37.3285
-35.7757
-38.1319
-17.3823
-9.38555
13.3281
5.9119
-31.7732
-24.9621
-32.0072
-29.601
-11.8035
1.38366
3.36497
38.5852
24.0685
-17.0891
-26.6867
-5.42959
22.8725
17.2097
15.3047
28.1647
61.2409
29.2752
-32.8114
-39.788
-7.70179
-8.71432
-12.8619
-8.93317
3.46823
10.097
34.415
-11.2855
1.38009
20.248
-13.6225
-29.7674
-17.3482
3.65129
51.0339
20.3411
-21.4029
-23.6427
3.17965
24.7562
18.3975
42.6143
33.018
-24.9383
-23.1649
-33.8494
-60.0887
-39.8867
-15.0229
13.95
11.084
-31.6348
-16.2914
-19.3989
-31.1147
-18.1155
-4.75433
7.32258
21.9008
38.7682
29.7432
11.2213
-0.243554
21.5118
19.8055
18.7779
12.4222
36.2834
17.2433
-25.2289
-13.5094
31.1857
39.2278
20.3609
-5.65964
20.6662
-11.4713
-16.0195
-19.8154
-26.8613
-12.62
-30.7537
-31.5396
5.61901
-24.1355
-24.5455
-16.606
-9.16347
5.74382
10.7923
26.037
64.0423
23.6864
-19.982
-41.732
-47.9964
-13.7756
11.0949
5.25857
3.82035
19.2716
35.058
-1.61739
3.37791
21.8924
5.60991
-16.5477
-28.8494
-22.9681
-1.89349
20.6463
-13.7229
-36.3362
3.67767
16.7581
4.45114
-11.7364
-26.0797
1.14404
46.1945
0.372403
17.7586
44.9902
17.9356
9.33957
26.5311
51.379
31.9334
-31.6168
-37.0984
-68.6246
-51.3278
1.03878
11.4035
34.667
23.1272
0.355532
8.22773
-4.09469
-33.9852
-9.78664
-19.6028
12.3484
-16.5301
-57.012
-34.441
-34.6481
-18.6477
27.7619
26.0502
30.6252
3.00501
-3.46499
11.1654
9.4995
19.0912
41.1604
28.2038
11.2904
34.3228
56.8733
-25.6628
-39.7703
-14.5043
7.69804
-12.8204
-21.2435
-19.305
22.1808
-2.60106
-38.1033
-21.8881
-7.17984
-8.20913
-2.42846
5.92911
46.4482
43.4148
7.12712
-49.8981
-57.9689
-19.4018
-14.0601
-1.64153
27.0024
28.5501
37.8681
-9.72567
-23.5562
6.57121
20.763
27.3621
29.0725
10.8389
3.20731
-26.3243
-38.1894
-38.062
-19.8532
-4.45218
-4.07012
35.3129
65.2516
13.8446
-23.3096
-28.8663
-40.5521
-14.4378
-5.47253
14.4314
32.922
29.4628
-9.84119
0.553572
-16.1994
8.10453
18.9646
19.207
30.1394
9.67825
-53.3509
-45.6595
-22.8346
31.6574
31.7143
16.479
26.1439
2.56345
-2.55222
-4.05496
-25.1023
-29.0995
-5.77758
-11.4125
7.36245
-19.2525
-21.1995
-21.9197
-18.3087
-6.95925
30.1385
43.4642
29.993
0.927895
-43.2113
-21.6031
-21.0436
4.02708
0.588646
6.17384
26.3801
-2.25858
13.5228
8.8313
-3.52947
3.50103
-13.7316
1.43979
49.4692
62.8858
-1.16454
-40.9407
-45.4067
-18.3773
22.347
9.8622
-0.611459
8.87271
47.277
19.6703
-38.9047
-10.4708
-8.27687
-9.7756
-20.1024
-5.3051
8.18225
24.7644
-29.6627
-42.8078
15.968
20.8591
-4.06383
-6.41272
10.555
35.1418
18.8814
9.73794
-25.2044
-30.862
-5.00493
0.242667
1.22437
26.216
27.0262
-8.14283
-7.87869
-21.5426
-23.8727
-19.9545
0.280762
18.677
14.9507
-31.1293
-7.56741
3.00122
-6.36537
-16.9107
-25.7699
-11.4744
23.1866
69.8783
41.1032
-13.5735
-23.9877
0.810887
3.40641
1.63534
5.21381
33.2908
33.9867
-22.2531
-33.5334
-15.5541
-12.5811
-17.2413
1.19977
21.6054
-12.819
-18.6204
-21.9694
-27.3473
-0.0162072
9.05317
20.0521
44.5684
-3.77609
-3.67281
-0.654247
-12.9999
-10.183
4.29114
32.9418
90.1667
53.4957
-27.5311
-45.4782
-29.7708
-6.32549
-11.0176
-18.5711
-26.5935
4.14801
-24.5101
-34.3701
-8.74247
29.2077
20.5346
7.35119
0.944075
24.7625
69.4425
-8.41044
-64.1155
-30.0376
23.5487
35.132
15.2815
13.9748
15.9778
45.1779
-4.45123
-51.2162
-25.0196
-8.8699
-11.8149
-1.91621
3.6603
4.32336
-32.651
-37.4057
-44.5705
-9.23898
16.3637
13.3859
28.2277
14.6309
-4.88613
11.3091
26.5137
7.24852
-5.23845
-1.76985
46.3809
24.5396
-32.1332
-11.0659
-6.42818
-17.0683
-1.17422
3.63314
23.5615
24.3362
-37.6891
-39.3819
-29.8605
-16.4821
-2.03554
8.99643
15.3882
-1.38857
30.3464
25.224
-15.7298
-9.26135
5.60364
-11.6376
-11.5122
12.5201
40.2487
33.2649
-28.4907
-31.9962
-1.13924
14.7451
14.6392
11.9299
37.7355
45.4548
-33.2183
-65.4605
-45.4769
-22.6341
-5.66359
13.738
30.1764
23.784
28.5147
-12.9345
-26.9204
-35.3942
-22.2261
-5.88609
14.8757
32.2794
62.416
-14.0002
-48.6878
-39.9391
8.94134
29.9853
23.5963
34.2518
56.9149
-7.38979
-22.6864
-23.0171
-30.3477
-10.6413
-8.38191
-5.57667
6.43486
22.942
-5.31096
-35.4215
-40.085
13.6336
27.6536
-1.35163
-12.251
22.3505
6.54429
-31.2489
-27.1506
3.19786
12.3906
10.9345
26.0883
58.486
19.0439
-7.96456
-8.62786
-12.0693
4.1453
1.34993
-2.53702
45.3064
-28.4463
-35.4798
-21.8696
-24.5898
-13.327
-2.32384
16.8205
56.3616
-7.72921
-26.5354
-25.216
-29.137
-3.39916
13.5811
24.3884
39.1954
39.0852
-16.9804
-37.2644
-45.2018
-1.60759
9.91405
13.1671
-8.14464
-5.2032
47.2121
11.358
-46.8035
2.5791
16.7826
3.27456
4.7939
25.1572
38.6037
60.9298
30.0703
-60.6767
-50.4797
-60.6801
-57.2243
-40.3328
-34.774
14.6499
74.5901
17.2289
-10.2355
-5.32637
15.1909
25.1221
20.6659
23.891
29.3759
-17.2794
-8.25714
-18.1802
-22.8126
25.5114
38.0797
25.7123
16.0444
-6.0876
-12.2777
-22.9246
-47.9627
-11.2739
-3.4711
5.02448
10.1275
0.313245
11.363
1.21657
-21.6119
-9.66011
-24.2004
-38.115
-3.88581
48.858
-3.21529
-19.7203
-12.9476
9.02635
14.3878
4.9966
-8.73912
37.6117
-1.66641
-39.1269
-25.3308
-3.33804
-2.50324
-10.834
17.8412
48.8413
0.731737
-8.83753
-17.3328
-16.2323
32.1633
36.9443
41.4829
50.9418
14.4878
5.91557
-8.14031
-20.8719
4.09838
12.5052
19.7896
40.3077
-4.71689
-50.6024
-78.3246
-59.7934
-19.3432
-13.2198
-17.9725
-8.27261
45.6196
19.0872
-26.8018
-26.1241
-6.48537
-8.83052
-1.87665
0.289338
15.5044
38.3654
27.0553
-16.2723
6.84919
22.9259
19.2427
11.4555
17.6432
-13.9337
2.43263
-5.03692
-50.7236
-19.8083
-1.69943
3.50653
14.4742
31.7434
64.0907
39.4084
-33.47
-42.2014
-33.4829
-15.0819
-11.6863
5.26468
31.7539
-2.63085
-14.9649
-4.37936
-24.8685
-19.6544
5.78275
18.564
50.5299
7.9624
-3.26929
-10.0573
-33.7897
-33.5683
-8.96662
3.47644
18.4606
-9.18333
6.0085
25.0642
10.2083
13.6268
16.6417
14.9695
23.1933
39.7029
-24.5578
-37.1847
-38.0396
-12.7668
-6.69764
-10.4809
-21.3067
0.774001
9.10245
-24.1264
-23.1175
4.11448
1.39625
-5.54287
-0.878782
53.7042
63.3981
-9.31883
-25.3152
-37.412
3.9525
19.5245
26.5907
24.8893
24.592
30.7338
-21.5317
-25.1836
-9.12638
-3.76811
-5.04877
14.6459
28.1385
43.7158
-26.4016
-50.2306
-54.4225
-5.68516
2.61559
-1.86114
30.3344
45.4743
-0.242524
-44.438
-35.5209
-37.2221
-8.84616
-14.3667
-15.014
1.67172
51.7249
19.2547
-9.10006
-8.33558
30.6262
13.1641
-1.68092
4.13054
-1.18348
1.95057
-14.7961
-10.1295
-3.64541
20.0041
6.10489
-16.4433
17.209
44.3885
21.0984
-1.87164
-21.5567
-9.10118
-10.2605
-21.9747
-4.71396
22.6145
-14.6368
5.51386
-4.36207
-8.27458
0.255958
-25.0857
-5.87577
16.5413
-3.69523
15.0939
-5.08869
-19.6915
12.952
21.8454
2.76842
20.1123
-2.40122
-15.7403
8.99987
-4.57688
7.8175
-8.23849
-10.3347
10.9437
56.1204
24.092
1.20173
-18.3036
-22.8046
-37.2933
-28.6803
-18.8862
33.6528
41.6711
-12.6436
-69.0247
-36.1516
-17.437
-17.3117
-14.6837
7.58264
30.9098
20.6346
-22.8933
-30.8778
5.21379
14.5398
22.5506
38.8532
59.3718
58.0812
-16.0635
-39.2386
-39.7567
-14.218
23.9191
27.8639
42.8439
37.7409
-2.78652
10.7141
11.8477
0.427992
-6.46525
-27.0675
-10.4606
35.5905
-0.778769
-36.7437
-39.7381
-33.3787
-3.008
-17.3286
-24.4599
-17.177
14.0771
-18.3107
-14.1377
-1.24857
24.8279
15.4241
-8.12972
3.72482
4.11781
-31.7132
-18.1033
-19.5748
9.2091
26.1039
15.9043
32.2931
3.09827
-21.9478
-12.2404
-10.8799
-0.337368
39.3637
35.2915
40.4181
-7.7374
-16.4483
-11.2766
-7.70858
6.87054
23.7193
14.6972
37.8418
25.0963
-11.8095
-26.5188
-26.988
0.995503
11.0097
5.03029
-2.32845
-13.431
9.64381
-7.31765
-35.9679
-39.3119
-17.9448
-8.25999
-2.80527
2.79372
8.13145
12.9085
11.2053
-44.5564
-23.0389
-0.173063
-1.47404
10.6588
9.71396
17.2264
43.6599
46.4023
-8.79648
-10.8803
-15.7463
3.2609
-2.24258
-9.82562
9.51132
29.957
-6.71481
-16.214
-29.7461
24.4933
26.3655
3.63623
-3.88845
-3.25432
-25.7831
-13.1469
-19.4135
-16.4843
7.22003
6.49322
28.6789
56.3185
0.496664
1.95979
-14.0744
-22.7075
-2.04484
-12.1532
-6.11805
2.97591
-18.326
-19.1958
-16.8503
-1.74856
16.0295
6.61003
6.57455
6.22165
43.1704
-16.0653
-36.7139
-27.6101
-4.7418
-9.17563
-5.2753
1.56839
35.2662
24.0704
-16.4701
9.41404
25.5956
12.8782
-7.76474
-7.01418
25.9385
-7.65596
-16.4534
-30.0812
-44.1661
9.64227
34.205
30.9645
51.6106
50.5088
45.1472
-10.4791
-28.3118
-31.1271
-35.8194
-32.2442
-14.1839
5.12638
21.5369
-13.3624
-12.39
10.0362
3.60678
-1.27409
-12.1674
0.637022
18.5902
15.8094
-12.1801
-51.0219
-58.311
-25.6837
-14.8083
-9.12631
-4.66328
34.7262
50.5923
6.18709
0.353783
17.3372
6.70622
6.08005
6.41321
43.2266
29.8276
-13.9623
-27.7874
-26.287
-5.49164
18.718
19.8494
57.5922
24.6012
-26.7123
-32.9512
-54.255
-50.3545
-2.57493
16.7582
30.5013
0.249995
-23.9057
5.06429
3.07545
14.8644
37.4112
18.0505
30.599
23.3191
-22.2391
-16.8267
-34.0403
-23.3669
-4.42881
-8.0941
-0.404064
20.0656
14.9285
-31.5465
-41.145
-17.082
10.0726
5.68436
-6.38642
-6.4037
18.8235
32.2009
-34.3909
-29.7394
15.7948
3.15417
-10.6762
4.27006
21.931
28.7129
17.8211
-45.0706
-34.564
-4.91092
22.6452
48.5533
56.6654
55.215
32.3171
-56.7628
-63.0699
-55.8119
-1.9869
15.8161
29.6178
60.8607
60.4145
4.89983
8.33788
-8.1014
-24.5129
-2.21461
-4.58365
24.0565
3.5095
-53.4955
-50.0154
-58.3576
-54.8165
-8.04371
-4.71883
6.27056
51.0284
19.5674
-5.29693
-51.062
-44.5597
-7.33697
-3.29995
10.3194
20.475
48.8007
12.8301
-22.92
-9.50906
15.5087
11.505
5.52591
25.5358
83.4252
7.14141
-27.2238
-45.985
-25.8667
1.13291
12.247
26.6889
78.1181
19.6891
-39.8291
-33.9998
-29.668
4.62681
12.5837
12.1804
33.86
-6.51348
-5.65573
8.72759
-8.89603
6.3562
3.25955
1.93756
41.7878
-5.68313
-42.2089
-55.7951
-62.6221
-28.1079
14.8494
14.9116
0.188607
22.2699
33.0086
-51.2428
-51.7874
-6.72136
8.83776
-5.22128
-13.5182
16.9982
44.4167
57.1118
-16.3071
-26.3715
0.907642
2.3813
-1.16336
13.4346
15.4407
21.8877
69.874
2.34748
-17.0826
21.3152
6.6098
-3.45551
-21.2447
-20.8935
3.06179
-24.946
-36.634
-47.849
-16.018
22.2099
28.6641
36.1877
13.4606
-6.86849
5.91897
-2.55704
-35.2532
-13.9911
-14.3394
22.484
14.6341
-21.753
-10.1794
5.75854
-9.07677
11.3078
2.36617
-13.2907
1.1612
48.6211
25.7113
-5.27461
-9.45288
4.53998
-2.13553
-2.56295
-4.51115
7.35991
51.2568
17.7611
-45.7428
-17.1598
-17.9247
-25.0003
-20.9461
-3.85493
11.8953
-17.5783
-35.9581
-30.7698
-5.02104
0.249498
16.1013
46.085
84.8735
40.7018
-27.6857
-30.9513
-51.6147
-34.7895
16.8476
30.3479
29.6231
54.3277
18.8647
-35.0036
-25.6448
-1.5272
19.458
5.84175
3.43745
0.432555
11.0531
-7.59169
-58.377
-38.7483
0.722292
4.40041
-14.361
-5.10801
19.8341
41.2632
59.4805
-1.98301
-46.5071
-12.1078
-13.7535
4.06891
7.57978
-0.350817
29.4841
21.9315
-9.41758
-2.3482
-9.32765
-22.7162
-14.8722
-10.4102
12.0024
-7.37457
-25.5315
-12.941
-19.7143
-17.5319
15.1458
39.0491
54.4935
-6.46178
-19.6998
-9.95705
3.95063
18.0961
24.832
17.023
34.1373
10.9547
-23.0329
-19.4858
-25.327
-5.86176
6.39466
-17.1864
-2.62025
10.3151
-3.23165
-7.42321
-22.2041
5.22479
5.11705
-10.9067
-29.0684
-24.3966
6.01862
14.9119
-36.0447
-6.58209
19.1717
12.1639
-6.46184
-6.23701
17.2372
57.0549
27.2731
-7.9954
-16.0482
-3.70134
-7.07373
11.1993
32.8503
44.4962
56.5099
41.3725
-57.3935
-60.7481
-26.0468
-6.3888
15.9033
17.1593
22.1032
45.2712
-18.4425
-53.4637
-60.2568
-40.838
-2.4252
-0.285081
2.07039
32.1607
0.217025
4.88861
-21.8865
-39.1502
-2.13304
12.4191
24.08
44.3254
0.104339
-27.926
-31.7418
-6.67774
32.8385
7.41782
-11.5187
-2.79335
25.4654
52.4942
-22.179
-36.4355
-12.5348
-10.3301
-20.1542
-14.3173
19.6839
50.5691
10.1196
-18.2051
1.84689
12.8421
6.40341
-14.5456
6.88759
29.0079
-15.3381
-6.3468
0.0921818
-10.2681
18.701
9.02521
14.9484
31.5495
-4.02303
-15.7791
-15.743
-45.2963
-19.6956
-10.2467
9.97622
27.8576
-9.39928
-16.4564
-3.63584
-1.20167
13.7703
11.5574
15.9053
24.2086
23.793
-11.185
-16.3053
-29.6791
-5.04449
7.45651
1.22449
-17.1015
5.96022
29.759
-22.7863
-49.2042
-12.0803
0.64725
-6.09601
-15.4944
9.19229
15.8059
26.1976
-17.2227
-0.518631
17.6513
13.4959
-0.450939
7.7329
34.9729
67.165
10.2723
-39.6182
-45.5001
-13.2093
1.73885
-1.54119
-7.76531
13.0628
-12.3637
-8.93756
-8.47855
-11.5796
22.4174
37.1602
35.3861
28.1185
-55.2418
-44.024
-36.3077
-44.9777
4.9351
31.9311
11.5444
38.3575
54.6015
16.621
-27.4731
-27.7696
-1.95282
13.4952
-2.73275
-29.222
-20.65
-4.61483
-40.8791
-24.433
23.0392
10.4956
0.368991
0.693983
30.0214
56.9935
-14.4223
-16.1298
-11.9864
12.2147
29.3718
11.9485
32.8774
55.6723
-29.1411
-33.1589
-35.1394
-41.9127
-3.79212
-1.00449
13.1822
49.448
26.6953
-27.6301
-49.5622
-60.3885
-14.487
-11.0988
-4.26559
11.0445
44.8585
22.4231
-24.7668
-35.4353
17.5654
30.337
21.8305
8.51731
33.5866
35.0082
10.4935
-15.1678
-37.4297
-5.14819
4.29888
-2.10704
7.45032
3.28341
11.4079
-8.00952
-33.8836
-24.6188
-8.67072
-8.78941
10.6807
7.61233
19.8733
-11.6344
-22.853
-6.59802
13.1157
-2.10913
11.8148
29.4878
33.6057
-25.703
-21.2801
1.79125
7.23495
-13.335
-31.0381
-9.53955
41.684
18.5441
27.1797
21.0936
-9.29723
-6.57314
-12.9649
-19.2308
18.3639
-30.0032
-13.1645
-6.92263
-8.07343
15.3733
12.7854
-0.548647
-3.05594
10.7968
-13.577
-21.7624
-32.3388
-7.64773
3.96219
-2.8434
-9.98825
15.043
10.0519
-19.5441
-22.6354
20.9136
28.9864
19.267
8.80455
53.9456
53.6455
-11.622
-31.8945
-6.82914
20.742
5.5986
-15.071
-15.1736
-4.74936
12.0313
1.65901
-26.1751
-11.4569
4.61827
-2.32433
4.41252
1.00785
7.35957
-35.7611
-59.8342
-25.1293
37.7686
22.9676
-4.4263
21.9751
51.3369
22.444
-27.2835
-24.6969
-18.2683
2.69445
20.5558
13.83
18.7773
36.7105
5.50346
-34.5036
-62.9051
-31.5116
-12.6343
-17.8509
-16.5644
-3.50566
40.302
-0.48182
-22.3248
-6.28144
19.379
11.3537
3.3959
17.2154
36.3856
-10.9174
-4.7139
-13.8195
8.39276
27.1472
22.6139
48.3675
37.5529
-32.363
-25.1882
-19.2106
-19.1822
0.679792
-10.7852
3.39043
22.2684
-17.5046
-14.5251
-13.3595
-16.6344
12.5673
3.50316
13.575
68.2631
9.877
-27.1866
-32.8413
-24.3384
-5.14061
-39.5725
-43.5414
-11.0874
52.6631
52.0237
-7.35456
-44.8832
-17.7759
-15.2772
-5.48712
20.8705
48.299
44.9562
12.817
-69.2019
-13.8253
15.3981
-5.75202
-10.0622
10.2784
38.3359
70.2601
12.3828
-16.067
-19.77
-5.82618
8.38453
11.9733
23.6232
51.8849
-9.01008
-68.2889
-65.1236
-53.5488
-16.2772
0.800417
9.89946
37.5324
-3.69021
4.10867
1.58813
-22.3358
-16.3629
-24.9777
-13.9539
25.1103
23.0868
0.219055
-4.0327
-28.1885
-14.8241
13.0583
12.0726
22.8977
70.9448
31.6356
5.75847
-39.7903
-7.92412
7.41987
7.46124
2.13964
9.0592
12.989
3.94074
-31.1833
-15.11
12.1042
5.72992
5.89624
16.0481
21.4336
17.3745
-44.312
-64.2389
-16.242
15.3114
17.4774
21.8305
10.0385
10.9907
-38.4975
-27.5528
-11.9354
-3.06648
6.50014
12.6234
33.9235
71.8481
34.5783
-40.9365
-49.5378
-50.2208
-23.1641
-24.8559
-9.44806
-3.92002
27.3917
37.7883
-17.274
-15.9726
9.05104
6.61617
-9.07554
-14.5418
1.98691
53.341
34.4458
-52.3226
-46.9574
9.20732
22.9678
24.6088
27.6907
11.7348
32.9731
4.7124
-39.269
-30.2417
3.94973
-3.60944
9.69267
9.8491
29.7164
13.8572
-24.919
-43.6704
-38.574
-11.0666
-6.16613
2.23175
41.0053
27.8756
-3.68324
12.4614
11.9086
31.9893
25.078
3.65416
55.4375
24.8451
-14.8847
-20.627
-50.6375
-47.2408
-27.2035
-40.4179
-18.3095
-17.1802
-34.0054
-2.64917
-4.78138
8.55877
38.6813
30.4655
18.2429
37.4448
13.2057
-28.7468
-37.1753
-18.3654
6.9427
4.74534
20.2615
52.9568
-14.7647
-47.8253
-49.6056
-17.775
1.96639
-18.5544
-6.41934
55.369
39.8229
-15.8924
-13.864
-17.4293
-2.26634
22.8452
18.5815
30.8259
44.8961
36.8927
-33.7572
-49.979
9.81772
25.776
18.6681
11.1764
38.8709
85.4122
31.4188
-37.4914
-29.3642
-18.4875
-41.5104
-48.6667
-28.1518
-3.38686
14.469
-33.9385
-51.3231
-48.9766
-24.2355
-17.7237
7.46461
18.2113
34.0921
75.8252
31.982
-10.8175
-9.32289
-16.7125
-4.11119
14.5129
24.4274
45.6582
44.1124
-30.8425
-57.5051
-27.0452
-4.34871
14.2167
31.9927
60.0678
21.6867
-0.815169
-15.4745
-48.4151
-41.3285
-47.7286
-39.4739
-9.41085
-29.4559
-26.6232
-19.0588
-28.1617
-14.804
28.4048
32.332
63.5575
45.2601
-22.2883
-16.1037
-26.3103
2.46677
17.0799
20.4601
37.2651
47.8152
-6.39347
13.2174
8.00676
21.6259
24.6981
17.064
17.2955
41.3175
72.7039
14.0856
-50.3927
-28.7298
4.13004
2.21611
-14.711
-12.006
-9.48522
-0.764274
-73.4382
-86.6507
-41.648
-35.489
-27.5305
0.150494
15.5874
29.1565
-16.6935
-54.9436
-46.8387
-7.9099
28.8473
13.5653
15.2017
44.2952
21.0067
8.29145
9.94865
1.46614
31.6949
39.0516
51.6353
76.2623
4.68264
-52.2452
-38.3162
-39.8363
-12.882
7.76009
-1.64739
-4.33142
18.8863
-10.8197
-35.4278
-52.3226
-38.0583
-1.12706
24.1631
39.1652
55.9007
84.5423
54.1302
-33.7325
-3.09054
22.865
8.71334
-8.53855
2.6056
28.5746
20.818
-21.4183
-40.6184
-31.6095
-3.40537
-0.981135
15.8808
32.9086
-15.0458
-67.2876
-77.7944
-84.5442
-53.3886
-18.8827
4.47777
37.7593
14.9311
-33.231
-18.1365
-20.3833
-2.73455
35.3524
44.4825
90.6136
119.417
52.2882
-36.5586
-32.7966
-5.7491
9.79815
4.34628
-9.91812
-2.17613
33.5698
6.21326
-20.7283
-10.4888
0.217383
-18.8757
-28.7442
-34.0918
-21.1406
4.15712
-30.866
-64.3781
-37.0602
7.37015
-5.68559
-4.62537
10.8074
20.9786
36.7242
-1.32788
-13.9304
28.1286
42.5602
43.9272
52.5078
64.1056
49.4926
-14.7483
-18.1508
-46.8562
-42.9329
-22.9349
-10.4712
25.6354
26.0068
-19.7029
8.12378
20.209
17.5768
28.7779
25.3215
29.978
-24.2598
-70.1094
-50.6778
-31.096
-27.9391
-17.7499
-30.3031
-21.8433
35.3663
21.5925
-21.5769
-21.8055
1.88511
41.6509
11.7682
19.7526
40.0428
69.3404
6.69437
-39.8636
-34.9556
-16.2558
-14.7536
-35.2984
-17.5224
58.2399
21.2591
-25.7872
-60.8445
-58.2582
-13.9369
0.0501458
-8.59678
32.0371
3.17031
-65.1767
-74.8617
-65.3326
-20.0413
18.8293
69.8043
95.8682
112.054
75.768
27.5099
14.9418
37.4169
39.0368
13.2515
7.40549
40.358
12.5733
-60.6223
-96.1747
-35.148
27.7997
42.0756
24.2826
37.4053
72.3162
96.749
77.3934
47.1754
44.4022
21.0088
-42.922
-70.2495
-80.2419
-80.1826
-94.2827
-144.117
-140.938
-85.2746
-62.7923
-70.6034
-63.1325
-51.0025
-63.6622
-50.4489
-58.485
-63.0046
-26.4406
16.2316
48.3562
91.887
68.9469
102.6
132.956
128.204
114.238
117.895
160.707
148.821
81.9801
43.1176
-13.6163
-62.4976
-21.2214
-11.5862
-18.9057
-48.5827
-86.2171
-103.424
-103.629
-86.8653
-46.9726
-32.1906
-29.883
14.8488
40.8455
36.1008
-9.48226
-37.6508
-38.2303
-43.7048
-9.22501
42.488
66.2259
50.5846
-3.71527
-6.00217
37.15
57.7323
32.9252
3.63422
5.75833
-13.0756
-68.2918
-107.804
-57.5832
-12.308
-25.2406
-44.7861
-9.88329
23.3717
-37.1916
-62.8717
-43.4001
20.1693
87.1063
153.985
161.613
92.1497
21.5191
26.9806
48.1692
10.2463
52.6497
106.872
148.898
88.0179
-75.3363
-79.2952
-49.2675
-93.9595
-169.612
-160.392
-92.4823
4.31569
-11.5577
-104.639
-143.618
-111.845
-56.7644
-38.7525
-28.0239
34.8208
92.4872
2.23385
-75.2338
-53.4837
71.2519
146.232
141.63
138.071
205.418
120.652
31.9665
-3.49696
-3.03654
4.84931
-14.0416
-25.141
3.95149
-29.5614
-83.7789
-76.8001
-62.4473
-16.7176
-5.93807
1.3144
57.9424
9.51158
-47.9803
-67.5223
-41.255
-29.8665
-69.611
-77.3864
36.1022
78.5275
38.605
17.9784
35.0945
49.0886
71.1629
34.611
-35.7022
2.69711
-4.8998
-113.611
-129.205
-60.2886
7.28164
89.3391
123.821
116.971
126.14
43.1022
-71.229
-18.3566
40.4946
58.3205
5.44653
-78.307
-46.2772
2.27563
-37.6923
-80.0082
-46.3823
11.5041
-3.95026
-14.2186
-30.9082
-7.33696
-49.795
-65.3644
-98.1719
-57.0482
-24.9951
-30.8053
-2.22743
11.7864
-39.2946
36.58
71.3621
30.5575
55.4254
71.5955
72.3741
120.323
144.299
94.1102
53.1753
26.128
7.19665
-6.21133
23.9042
59.4282
44.9448
-84.9941
-112.612
-68.8859
-98.4068
-142.344
-78.5958
22.3936
54.2575
0.0800217
-67.1665
6.11414
46.6565
-24.0535
-58.0717
-71.5406
13.387
60.4645
-1.04662
-57.4432
-43.4868
-30.454
-3.80256
28.761
107.15
119.713
20.6251
-16.9293
15.1014
51.2944
64.65
10.7616
-62.6202
-103.088
-13.0185
-32.6056
-125.292
-76.885
74.543
69.8545
-3.03064
31.9258
69.3493
71.2373
6.33735
-62.2536
-33.7941
-53.211
-94.6195
-98.2047
-79.496
-47.0762
2.04297
74.12
112.51
113.104
152.196
199.39
111.053
39.8767
-15.8658
31.8768
80.5164
1.70278
1.83418
6.83915
-128.413
-180.426
-124.332
-32.4191
18.9141
-64.7079
-53.7015
-27.3216
-37.8608
-28.7359
4.59587
11.9543
65.1457
-29.6453
-61.624
-8.40397
-37.1505
-89.6698
-94.2306
-13.3783
15.1112
-10.8783
-14.8184
-89.9
-16.3818
257.134
354.929
352.848
188.408
42.0191
-29.0941
-73.4763
-129.659
-113.517
-66.7338
-122.142
-152.279
-92.3422
-18.752
-40.9239
16.1133
81.3879
33.9564
15.4209
-10.5734
-47.1422
-17.0426
15.7118
-24.56
-33.1269
4.76526
-20.9905
-94.5617
-80.1534
-5.62434
70.1775
165.292
104.443
21.1751
53.7732
119.358
46.6572
41.857
73.0778
26.7567
-116.838
-211.693
-159.581
-23.9044
48.0371
27.7449
13.2269
1.74388
-13.5264
-9.83023
-102.976
-168.086
-108.511
-0.421222
191.297
222.801
254.892
154.288
91.8796
56.2134
23.5073
-38.3471
-168.765
-177.182
-120.576
-88.7114
-222.361
-198.816
-80.9355
4.24095
65.7656
96.7875
126.214
94.7588
-75.3946
-119.049
-103.91
-0.511677
95.8231
104.15
69.0803
80.4229
114.91
67.9352
33.6631
11.3877
58.7828
126.982
161.111
88.9005
-26.0503
-96.1667
-62.1467
4.17871
36.0845
28.593
27.4351
34.8879
-49.3439
-106.006
-142.639
-208.405
-180.144
-132.088
-125.81
41.0917
123.007
81.0764
23.2536
3.27372
60.3651
25.9625
-37.9848
-88.6434
-71.781
-52.7695
-63.1316
-74.5275
-74.406
-55.0872
11.6915
53.0867
21.8815
97.932
187.877
75.2966
18.232
24.6262
40.9966
18.7155
-19.7432
93.6804
289.709
237.835
99.6066
19.2564
-25.3294
-98.9359
-144.307
-124.693
-33.7238
7.65722
13.1446
12.0312
10.3602
-24.5258
-51.5915
-50.3075
-26.747
-92.6083
-78.5525
-69.5574
-84.3616
-27.6846
-9.96661
-59.943
-1.89189
58.4342
45.0948
79.5688
86.7852
40.4274
9.13293
-50.244
-72.7574
-23.8267
8.58369
-101.003
-131.604
-48.5161
20.7251
87.0155
71.5595
56.9211
108.697
106.749
18.5357
-24.5721
-27.3932
-49.5115
-85.9134
-51.2372
23.3531
49.5175
31.6769
31.9946
51.5087
105.002
138.469
95.6653
-1.0564
-104.075
-195.922
-153.881
-135.918
-84.1607
10.491
70.6609
113.429
139.447
160.529
49.9614
-59.333
-72.3521
-48.5164
-43.7565
-14.1427
56.3364
69.0798
103.131
110.688
10.8979
-15.6378
-55.4956
-127.585
-136.55
-108.45
-58.2475
9.67493
-47.9646
-118.981
-21.1411
48.5834
0.274291
-33.6282
0.961959
55.4628
114.575
39.1936
-17.5319
-19.6563
15.7712
21.6914
34.4281
93.1074
111.814
48.7383
-30.9808
-51.277
-33.647
-62.654
-81.2064
-2.00064
72.844
43.175
18.0755
56.1805
46.1139
26.9958
14.1499
-42.9114
-79.0494
-143.284
-114.105
-29.328
-8.87069
-2.96597
27.297
52.1691
70.731
58.1078
-29.5803
-43.0846
-6.76618
98.867
101.172
19.8178
-13.5556
1.03701
-48.0999
-31.7684
-14.2903
11.0841
8.15911
0.349026
45.2205
59.0506
8.33348
-34.9858
-51.6842
-51.7132
-6.01281
-24.9699
-54.5826
-104.462
-140.09
-73.7533
-68.6016
-19.6454
95.7928
144.019
148.37
125.418
136.171
106.327
-29.5898
-43.7979
-16.6592
-11.0364
-29.9159
-22.1613
55.9412
72.5207
22.6739
-75.9432
-75.4803
-76.3397
-57.1029
-46.5186
-24.8796
-130.046
-129.865
-53.4708
-20.3131
-20.9046
42.995
86.1086
99.1151
79.2
86.2566
71.8431
-3.00917
-27.6277
-20.2628
42.3843
38.7924
17.1215
34.3989
39.4603
12.8274
87.3445
87.347
49.0761
-1.46148
-67.8128
-44.7118
-76.812
-121.971
-88.0544
-65.8381
-46.6021
-50.5794
-69.2955
-24.9927
0.0227035
-8.83623
-0.296376
21.0734
83.0582
81.0966
100.564
93.9101
62.1394
20.7826
-37.6694
-39.1384
-20.3146
15.7923
1.32644
-29.6723
-25.4919
4.42032
-54.1675
-62.2972
-73.3595
-58.9333
-36.8784
-51.5338
-106.26
-5.241
97.0311
-6.83719
-45.2357
-6.82107
36.5299
42.0124
52.8327
42.6347
51.5667
69.1369
38.6783
58.7337
128.662
154.477
125.072
70.1645
23.7725
-25.1158
-69.4148
-98.6089
-139.829
-92.4782
-26.0931
12.132
40.4016
9.20929
-18.9969
-5.87194
-26.5327
-54.4077
-53.9644
-48.1978
-36.4505
-42.3939
-69.9753
-28.7997
13.4262
39.7867
73.2553
53.3042
-31.5367
-15.1928
52.1204
-10.426
-103.116
-154.409
-103.308
-45.789
20.3439
59.5821
80.6692
62.6334
46.3321
19.7939
86.8619
115.938
71.3088
36.1875
8.49736
-3.61791
-27.455
-27.2038
-22.9747
47.4478
123.584
169.84
163.946
60.8767
-36.7437
6.72622
17.6731
-8.18339
-68.7074
-150.789
-149.771
-119.508
-156.618
-152.666
-124.499
-117.646
-35.3821
-1.49468
-28.6544
-43.6538
-15.511
37.5519
-29.9662
13.9668
53.6502
-9.20835
8.50766
81.4619
111.147
124.197
88.6427
14.264
12.6081
31.7342
41.2847
75.408
118.237
119.076
94.0845
55.7935
29.1457
-22.8508
-57.5239
-90.5167
-96.1433
-89.1391
-84.2007
-105.654
-42.9451
46.8592
42.5392
48.9004
110.467
94.5232
18.8901
-72.4498
-91.3491
-52.8945
-52.6417
-64.4354
-52.0143
-45.8789
0.138257
7.80497
13.9098
11.1676
-22.6394
-33.1362
-52.4074
-74.1377
46.5888
96.7601
-47.5029
-123.042
-78.3172
9.40726
107.303
116.978
57.553
31.4433
25.7471
-19.9785
-49.2175
5.86669
63.0574
84.1376
85.7266
63.7423
74.2087
36.3612
-47.184
-43.8169
5.99584
62.9824
80.4678
30.5183
-29.0032
-42.1752
-81.4845
-69.9652
-81.2402
-67.2699
-23.0458
-28.2668
-41.3972
-22.7316
12.8422
-6.32426
-57.3775
-61.4415
-57.0448
-49.9684
-11.6127
-5.17537
19.0168
9.48405
10.0606
52.5409
134.661
113.779
103.12
35.4567
-0.915114
77.9933
93.2556
22.647
-32.4795
-46.8077
-76.1149
-78.7937
-55.7006
-7.56467
-27.404
-43.7248
-48.9825
-35.5225
-28.8945
-45.701
-65.1475
-25.7031
11.6463
69.7824
84.6078
50.3151
42.2846
38.0764
-5.22107
5.77999
19.5502
18.6242
46.1543
15.3973
15.3332
15.9254
3.64642
28.3294
-31.9943
-94.3271
-66.8465
-42.8166
-42.6502
-28.6189
-10.0325
3.22186
-32.7311
-35.1429
21.2376
42.141
63.9786
78.0832
49.6464
10.6161
59.9242
66.4539
-37.3126
-60.8262
-10.2319
26.9402
19.0764
5.15992
13.2602
65.4784
29.6642
-124.883
-155.19
-105.359
-59.9401
25.9167
79.2667
54.7895
14.7339
1.83541
-51.7297
-9.38489
69.7526
33.9939
-1.18956
1.32904
3.46539
2.71789
-26.0518
5.25137
76.1304
77.6188
6.80901
-20.4883
4.9984
-15.2983
-116.167
-92.0333
-58.9108
-45.0506
-9.36398
-11.0121
-3.75302
19.7328
11.6911
19.0955
-4.52852
-17.7821
0.640362
-16.3781
-21.3606
38.6156
91.3481
42.2619
22.0859
13.3438
46.9759
43.4939
41.2789
67.419
75.8796
-17.6406
-36.8376
-40.2543
-33.5511
-25.2555
-7.3281
31.3566
51.6809
-3.24076
-11.8505
-0.544889
20.7177
35.5139
-36.9862
-60.0495
-73.6854
-150.664
-128.272
-97.1645
-79.2582
6.26008
67.0625
95.7848
121.108
34.7903
20.58
19.2503
41.9556
41.3523
-8.53178
3.37993
27.8741
-16.9587
-54.4025
-30.2697
14.8035
54.5169
33.8273
23.6988
16.0948
14.5263
-10.0575
-81.8586
-144.83
-106.974
-96.4579
-26.3514
64.6932
117.86
127.74
91.7052
-5.16454
-34.3558
4.84366
-11.6953
-3.00027
21.963
25.7913
37.1014
42.5316
-17.9111
-32.6233
-10.0511
-12.2139
17.477
40.1689
33.5016
-53.8574
-134.364
-105.406
-70.6178
-28.5998
39.5772
56.9915
54.6445
-10.8523
-5.55285
9.11635
6.23648
22.0596
54.9122
58.2452
75.5025
45.5988
-6.09816
-12.7709
-54.3196
-63.0479
-27.6968
-21.3495
-10.8871
63.745
68.1032
18.2609
6.25581
-1.97992
-39.0919
-65.914
-59.2269
-12.2516
58.6474
25.4188
-49.9661
-19.329
-3.9614
-16.0286
-30.7712
-28.9529
-11.0557
-69.9341
-124.111
-102.82
-21.7851
20.0738
10.4741
49.8458
120.817
141.464
92.8481
85.4013
53.7622
24.7097
33.2467
34.9155
39.6809
35.1446
8.75662
-55.2252
-56.6577
2.72187
70.0876
52.0744
-11.6532
-30.0885
-1.67678
-44.4524
-115.421
-79.109
-9.87287
-29.196
-66.9062
-64.1753
-68.4341
-61.7761
-71.331
-107.47
-52.6583
21.5655
72.2866
72.8171
44.4468
53.9754
77.265
66.1402
91.1262
110.131
101.007
22.2506
-3.50359
45.9035
27.4396
-19.9367
-49.3079
-81.7348
-65.4699
-21.4755
-20.4703
2.54053
-26.6194
-42.798
-27.7756
-53.0997
-62.4224
-31.3769
-41.1771
23.2662
41.5847
-10.5406
-30.9819
-52.3118
-24.9674
15.4793
61.3267
114.053
101.107
96.7196
66.5082
39.1922
32.2576
13.6479
-14.2558
-19.6829
15.5002
-20.2654
-84.6561
-96.535
-84.2257
-40.4267
-24.6079
-46.94
-51.9947
27.9199
69.4485
43.1414
100.337
113.208
40.9216
-12.9088
-40.4361
-24.0043
24.0087
62.7676
-21.1525
-36.1358
-4.11353
-12.2814
-8.35699
-15.4486
-62.0438
-67.9108
-128.19
-157.778
-111.431
-49.8209
17.0692
84.1806
129.611
121.781
38.1556
5.45206
-18.1657
-44.6073
-10.4
18.1524
41.0992
39.8614
8.49376
10.4714
10.8404
14.1668
60.797
69.1744
70.5548
67.3644
24.7715
-58.0059
-72.1823
-30.3339
42.231
44.5193
32.8484
19.5526
19.5585
1.95708
-77.0508
-68.2617
-49.3157
-58.7918
-54.3634
-38.1134
64.4084
21.4658
-53.7886
-42.5557
-55.7144
-75.6296
-58.9195
-43.5828
6.27918
31.2023
-2.93648
-2.22026
14.5093
44.9782
72.6651
33.4579
52.4079
48.9585
-17.667
-10.9549
-29.1396
68.1068
94.3451
85.5598
58.9715
29.7915
65.6256
68.3035
12.046
-63.0954
-118.845
-130.453
-107.747
-83.2279
-45.3318
12.5183
44.8327
1.46447
-1.39301
6.61707
12.3476
-30.3893
-90.1503
-85.6464
-6.8147
16.3423
-4.70974
18.1614
100.66
100.241
59.4173
72.9823
91.089
42.5325
-33.0845
-54.8495
-80.6431
-48.1327
-27.4627
7.08117
41.268
9.87245
-16.7777
8.86458
8.02962
0.952507
11.3449
19.5204
5.91048
-20.6247
-23.7721
-85.2433
-104.239
-42.2571
30.9691
72.6088
75.3739
97.196
96.0491
38.0232
-8.10396
-6.73592
-35.1205
-87.8775
-103.11
-72.8236
-33.1354
10.6079
3.65622
43.3902
-4.4909
-3.95063
33.7585
38.0868
41.6498
23.7265
-19.8237
13.8463
-11.0713
-10.5249
-1.16713
-46.9339
-32.282
3.16641
-64.0254
-42.1215
-12.4635
-33.9915
-20.1012
-9.31737
43.0059
94.9732
42.3772
25.2394
30.1944
25.6672
28.7932
15.364
22.6305
17.7008
-30.3082
8.85877
-34.4376
-63.5347
26.069
48.4405
34.009
37.2834
25.6493
1.26242
-46.497
-46.9305
-39.1814
-44.1529
-61.0124
-64.6153
-13.7043
0.283585
-28.2393
-30.688
18.2086
67.9715
107.357
100.61
123.13
55.729
-56.4122
-47.2832
4.72433
-8.75167
14.1386
21.1954
41.4292
83.3294
47.9765
-79.6259
-109.174
-88.8277
-59.6427
-66.0212
-75.6031
-95.0738
-48.8956
-60.9979
-70.5054
-19.7995
51.0166
5.69097
-18.4249
34.6901
83.5685
15.0775
-4.73622
-29.0069
6.11758
80.34
80.7554
81.2693
117.963
86.5381
21.6351
-12.7173
-28.6028
34.2468
30.1032
-4.85367
-10.8542
5.21803
30.7124
-12.968
-42.0327
-5.46671
-10.0335
-30.3167
-38.4313
-23.8488
3.38951
-69.6736
-89.302
-43.6519
8.66622
15.5603
10.4573
17.2239
24.0044
-26.9295
-55.6862
-28.999
-26.3497
15.1088
39.7647
52.2484
108.505
63.7959
36.5675
-33.1458
-132.218
-98.2415
-31.6779
64.9256
112.1
42.5207
38.8007
60.8398
49.0851
37.0857
-14.7526
-63.7502
-54.3335
-96.8686
-124.049
-81.9671
-69.1494
-40.0413
-3.08368
67.1423
110.604
125.351
71.7431
-56.3751
-108.005
-27.0097
23.9977
-3.80417
-78.9257
-42.1265
45.2924
80.6615
55.7393
29.4181
50.9681
53.6605
39.0945
33.9969
-0.725603
21.2043
13.0866
-8.21304
-16.5908
0.498618
8.84999
-4.85032
-25.1091
-14.9165
-29.9756
-15.0602
-21.9117
-54.9644
-73.597
-62.9171
-23.8954
46.4382
-34.4544
-44.9074
-4.91626
14.8401
28.8171
35.4583
13.7262
42.9673
79.4856
36.2815
-24.9394
-52.4839
10.6381
26.3799
18.3183
23.2953
30.6816
57.6445
-19.6919
-113.349
-85.4077
-98.3694
-121.379
-96.2789
-33.2393
41.7703
39.928
51.4128
48.8052
79.2011
101.397
107.831
82.1182
51.4433
5.05198
-36.7486
-29.3826
-13.2554
12.6125
6.42759
6.09099
59.2985
42.9894
-11.7168
-10.2465
-50.7003
-57.4801
-53.3042
-47.4679
-28.3319
-8.70998
-42.1846
-91.3997
-66.3999
-14.9845
20.7972
21.8204
25.6886
34.3645
60.9999
68.9015
6.17697
13.7911
31.7219
-11.8075
-39.5616
-38.4205
-30.8477
11.8127
2.44198
-71.1369
-42.6102
32.9348
61.3737
74.9867
63.4167
55.6903
40.7196
-16.882
-66.5122
-64.775
-12.9538
55.9506
84.8528
76.3639
46.04
34.3857
17.4678
-52.8305
-83.8084
-53.5035
-32.9966
-25.065
-121.367
-164.944
-126.836
-88.6397
-38.8247
12.0549
38.5602
76.4885
65.3839
33.4511
19.7937
25.7172
51.6013
50.506
31.2299
62.1127
115.002
66.4651
-25.8764
-21.4153
19.578
42.8959
35.3941
14.7938
-5.31163
12.8055
6.81554
-52.593
-37.439
-48.5064
-73.5894
-71.6091
-64.2364
-22.1987
22.5139
-3.32723
-6.69718
41.1087
60.8953
28.4612
32.4288
34.776
20.0445
9.31987
-21.888
-36.9196
-31.0285
-21.1813
-55.7033
-73.8818
-41.0478
-3.68862
-39.0138
-85.7847
-64.5491
-21.5117
10.0503
79.4524
156.147
177.028
119.686
37.3808
24.0714
22.9509
1.12836
-40.5944
-41.3245
-20.2245
5.13801
24.2223
3.31758
-11.2247
-8.42004
-14.7181
-49.5382
-69.0239
-76.5825
-72.6864
-89.3654
-110.539
-64.5979
11.5805
32.9981
-7.11176
-7.83606
56.3465
39.4762
34.8766
49.2433
71.8156
93.8716
56.3746
42.381
61.7041
16.5745
-13.3111
-9.90114
-21.2523
-8.96488
15.0233
28.7643
37.752
-3.92202
-49.0191
-27.9648
-46.4859
-27.8558
-60.566
-93.0747
-41.8171
22.3724
29.7894
75.4603
108.837
145.676
133.85
85.8181
48.3929
11.5166
-12.5056
-127.893
-215.279
-178.224
-111.577
-84.8938
-71.9114
-55.9587
-22.13
22.6131
19.5516
-42.8591
-57.8518
-30.6417
-19.7881
-19.2331
5.10358
15.4673
30.7789
67.2688
24.7447
62.1617
113.471
113.772
127.471
122.97
100.747
110.489
76.1978
27.8103
-22.4729
-36.6405
-11.1493
-23.8802
-48.2593
-26.4805
-54.5254
-55.7959
-60.9265
-86.726
-59.5919
-4.24506
23.0976
51.8387
37.5615
-52.1847
-69.4648
-64.6528
-40.8646
-18.6761
-5.31491
-8.39185
12.98
20.6478
-25.4841
-40.6004
-31.2615
-39.3401
-44.9999
-40.8227
9.32309
45.3953
12.5163
-29.8151
-3.50176
68.7058
101.232
99.7002
150.745
153.985
122.211
89.1755
27.8492
-31.8165
-55.6432
-70.2733
-47.3726
-114.225
-108.563
-88.5168
-90.5356
-95.7927
-45.7551
1.64745
35.393
19.36
-17.4379
-62.218
-68.0354
-63.9539
-65.854
-27.5627
18.4477
70.9205
127.344
72.6868
36.1018
79.0175
79.4098
83.538
84.3393
73.1814
56.5378
50.5773
-12.936
-70.8257
-36.8463
13.0313
8.05159
-11.3266
-30.9714
-42.1062
-22.1885
-64.4019
-75.509
-33.6399
-2.98053
23.171
15.8916
0.530981
16.6266
-16.0774
-38.3003
-42.0533
-9.26844
58.081
49.8491
14.2351
-13.8464
-80.7553
-68.2574
-36.5652
-40.2593
19.6298
50.2504
55.0293
68.8265
60.2726
105.396
69.0201
-29.7909
-77.3043
-61.0377
-36.3964
18.5921
-31.4991
-89.4009
-95.0662
-104.754
-66.5785
-37.4157
-22.1134
20.1295
46.7025
59.3818
19.3109
22.5971
28.4339
8.62105
22.053
43.6931
116.533
113.529
23.4311
-19.5762
17.3288
41.2707
41.6178
47.8451
106.852
68.0931
-0.619102
-34.5733
-54.6364
-68.8736
-32.2923
-69.392
-118.506
-105.544
-13.7298
22.0342
28.6339
21.675
10.0026
-43.3516
-53.8287
-33.8411
-4.33219
-20.054
4.68671
54.8102
68.4662
45.0033
7.72097
-3.8588
42.3697
61.7179
-0.669442
-82.6022
-113.819
-121.444
-95.5251
-56.1869
-31.0017
22.7836
71.0018
35.3672
12.9691
31.8675
24.7261
16.9597
34.5543
75.0853
65.7628
-2.75995
-27.1448
-30.1379
35.4379
59.8282
36.0052
75.9317
53.0822
-29.406
-20.5727
-22.4362
-23.8752
-9.33268
-7.92931
29.496
4.96325
-36.5514
-10.6488
-16.581
-26.1383
-26.7493
-47.3098
-13.3978
-9.7428
-1.90913
1.69624
-5.91391
-0.0559507
25.0071
34.1276
48.8888
56.2255
2.94492
-46.6277
-64.1785
-59.6469
-45.9483
-69.0557
-77.0413
-35.3701
42.0327
48.3498
-2.29705
43.8569
75.3787
73.395
25.8151
6.99281
19.8595
20.1749
-39.4924
-79.5212
-42.9016
-20.8406
-25.9605
-6.94494
28.7073
70.5694
55.4524
-28.0676
-43.0474
-22.4847
11.6927
19.2697
10.9996
7.34694
54.2994
60.5385
59.1602
18.8025
22.5425
57.5526
45.2665
5.80922
-34.786
-76.7327
-41.3897
-35.7901
-46.9073
-15.9377
-41.2745
-41.0074
13.3043
1.27816
-68.8631
-89.4413
-86.3569
-54.6617
-11.8571
16.3238
16.7227
31.2971
16.7801
35.2651
66.2608
92.6009
51.4912
13.4167
24.5776
74.9563
67.6407
69.084
49.4733
23.8714
21.6302
-6.10699
-34.5445
-35.4726
-113.409
-159.374
-130.957
-92.1014
-17.7478
16.2098
39.8781
62.3244
-1.92814
-27.5146
-19.7091
-11.1181
13.9778
6.04602
-27.3719
17.7421
69.8278
38.7458
51.9559
36.3277
76.4747
104.867
36.2135
-39.2344
-12.2182
16.8142
1.83922
-52.2287
-8.63354
4.14982
-13.5074
-23.3762
-29.788
-18.6457
-30.7144
-94.8008
-77.7119
-38.0036
-45.7509
-38.4171
-2.28628
45.1843
92.0714
86.8105
32.6548
20.1422
11.5146
21.4287
11.8619
-15.8959
7.3018
33.4858
-17.0152
-17.3451
-13.5227
19.8277
-13.519
-18.8959
-28.026
-25.7986
-10.2225
29.6687
29.9438
15.8194
-3.06
-16.5583
-6.73263
-12.9672
-30.2103
-6.10573
-3.26323
-2.46486
40.2117
18.8029
8.97508
-12.9994
-52.9856
-62.8068
-44.0157
-21.6141
47.742
80.8289
84.6242
58.2122
60.188
10.2041
-2.83134
7.02881
26.4375
13.0923
-29.6157
-50.7039
-46.7899
-76.778
-75.4501
-33.1693
24.1889
32.2859
14.1726
20.448
17.9078
-68.828
-119.854
-64.4924
-18.6944
31.1852
34.82
60.3321
78.8254
67.2396
-4.12761
-32.3728
-20.8514
2.74867
19.8567
38.7752
53.3195
78.2671
24.638
-9.63645
-61.4977
-51.987
-4.29582
-13.3602
-27.721
-19.1834
-27.6044
-65.296
-71.3466
-5.49775
69.107
76.6157
67.7949
57.1076
42.9241
-10.6184
-34.7134
-17.0454
6.99899
-25.8993
-57.7139
-30.0203
32.5233
35.7101
37.2345
21.7223
8.6872
31.4522
21.6016
-1.44509
16.236
-6.43135
-24.3933
-52.6795
-53.878
-21.0864
0.558532
29.6874
47.7886
-12.4113
-32.761
-59.3528
-79.7982
-52.5779
-36.4881
-11.3135
10.3455
-21.4564
-0.0390537
-3.16985
0.568765
25.917
40.3055
55.253
30.9209
-3.50107
-50.5095
-71.3975
10.3659
77.8111
86.863
85.2068
47.2974
32.1351
36.8461
-15.2422
-37.3297
-1.91086
-13.7391
-23.5807
-23.1764
-14.1984
2.44624
50.8235
-4.78932
9.32744
36.1782
38.4064
-2.43708
-9.90354
12.6132
39.5412
-66.599
-136.681
-111.185
-64.4077
-31.9812
-37.7576
-22.4924
28.9656
-15.5363
15.4347
43.2858
38.5029
95.3108
109.642
101.228
78.1267
-9.53404
-42.4738
-69.3282
-80.1823
-26.8959
3.86323
-7.69125
28.4134
-5.86897
-65.2418
-80.7315
-92.2659
-35.9592
-11.906
8.97056
25.6668
70.274
47.7615
11.8886
-19.1966
-11.4309
8.01299
9.54143
8.03204
59.2797
45.6866
18.827
-4.68963
13.0908
57.122
81.88
87.4102
74.8627
-48.4438
-157.476
-166.515
-110.363
-27.3146
24.6041
42.5979
91.2555
47.1861
13.1548
14.7608
16.9818
19.2799
-11.3758
-20.3823
19.1507
20.5361
-24.2054
-24.8874
-34.4083
-1.6544
31.0185
18.0096
-10.1088
-10.5849
-15.4561
-60.4073
-66.7099
-19.4095
-6.15007
-23.6424
-31.6834
-13.0014
33.089
-0.329831
-81.1906
-44.9174
15.333
45.336
62.0647
64.4425
82.7974
105.916
52.3511
-7.72481
4.2908
17.724
10.611
6.39955
-9.6503
0.0366231
-21.2041
-64.0713
-62.6939
-39.654
3.98125
3.02129
-9.6528
-18.6442
-37.5157
-49.2003
-33.6949
-36.6252
-30.8413
-21.6915
-8.92316
64.4238
57.1954
38.8696
79.3685
80.7895
59.5295
45.2082
8.22779
12.1984
42.146
7.85557
-53.3636
-86.7109
-74.3035
-18.627
-4.4756
-19.6703
-23.0992
7.00115
-17.6116
-54.8958
-32.4872
-6.52479
-5.01056
-14.8443
16.7492
69.789
1.05661
-13.7698
-26.6791
-17.6152
21.236
23.5122
69.7202
130.288
93.4925
17.8545
-44.8278
-27.7484
-4.23125
-14.7066
-30.8015
-25.7853
-1.18427
-35.3338
-31.9355
13.6016
65.3823
54.6072
7.22957
-9.4574
7.54056
26.109
-66.7743
-115.739
-106.184
-67.2079
-17.868
-33.0724
-27.0699
1.18143
47.4775
-3.47751
-24.3844
7.39066
15.1943
-0.7681
17.5815
16.0041
36.3645
100.058
14.033
-32.4215
26.6336
38.6055
61.4497
72.457
69.3677
57.2627
8.33215
-26.3148
-58.1574
-53.1238
-40.6616
-4.20678
18.1304
24.5357
-14.6242
-36.7178
-43.3721
-61.8674
-1.72847
4.13727
16.7106
9.14498
-51.4106
0.634227
19.8965
5.35252
45.0689
49.4592
14.1053
37.5863
-61.5689
-89.5734
-69.3618
-44.6778
12.0239
40.7118
38.0442
30.7167
93.9464
55.7254
-72.5998
-105.348
-60.12
-58.347
-30.3917
-14.1673
2.437
53.44
69.9334
21.1293
44.4511
36.4701
12.776
-13.4433
-9.37346
-0.816844
44.4668
62.8092
-42.9359
-25.1658
24.9165
18.0231
15.876
-6.82344
9.6349
13.4338
-51.9984
-52.9238
-25.9547
-0.698576
3.86292
3.29879
34.4096
37.003
-33.7436
-40.8735
-48.1295
-66.0261
-17.4802
-6.71887
26.4857
63.4084
46.1457
-22.7563
-36.5868
-26.4094
18.9582
18.6838
22.2136
45.8609
63.0894
92.3657
29.0678
-30.1616
-26.4815
-29.1802
-16.2189
-0.943418
18.0993
37.3932
-8.4199
-53.0876
-49.7516
-41.2562
-63.8335
-60.2626
-39.7965
-17.9617
-31.4445
-4.37891
15.49
-9.84862
5.08993
37.0193
52.7688
69.4815
28.9842
1.74796
-20.6127
-22.5874
57.0969
95.0818
110.27
95.2911
26.8137
-20.2868
-42.8444
-67.0417
-47.1527
-30.7401
-17.5364
15.59
17.2239
-65.2768
-53.6726
-67.8953
-50.5418
-38.9439
-27.4612
-23.0067
-17.512
-4.06758
7.45193
8.87437
32.1061
41.3182
35.4879
18.9983
11.0677
15.842
29.5142
25.1973
-10.5783
-14.321
-2.06449
24.1948
35.0899
35.6035
46.8186
68.0972
68.7869
-27.3705
-68.3884
-35.3875
-12.9515
-5.48193
2.11996
-7.09166
-2.45761
-41.1814
-62.792
-61.3685
-40.1193
7.20745
13.3882
16.1975
50.7549
-20.9836
-24.9243
-12.6272
-33.4048
-27.2255
-15.4335
-0.435592
51.7467
85.8611
50.4565
28.5504
13.506
49.5291
45.804
-15.6147
-33.1801
-4.75767
8.36089
-24.7857
-61.2107
-27.71
-23.035
-41.756
-54.1174
-25.898
15.5731
1.974
-6.57244
-6.19113
8.3962
7.86181
0.572992
6.45948
28.9258
-23.205
-2.29223
23.584
40.3923
61.2426
26.6832
6.98785
17.1336
7.16892
-32.7746
-8.30176
-5.28027
20.0136
19.1762
4.07051
23.5943
43.4652
38.2057
-49.9549
-69.0807
-38.9115
-28.9736
-16.6009
-16.319
-10.9097
38.4667
67.9674
3.45051
-52.7173
-1.44915
14.4437
-11.4999
-25.2248
-24.0386
-2.19691
32.0318
-23.3923
-45.0251
-9.75964
-20.3314
-1.77729
4.058
20.6691
10.6512
-40.9652
-18.678
14.0927
46.0188
44.8589
23.0601
32.8057
58.5873
17.8372
-18.2952
-19.5829
-51.3237
-34.8283
9.75303
69.3086
90.4015
42.1327
6.60703
-37.1241
-51.5349
-20.7144
-34.2742
-42.8469
-36.6391
-25.6007
-26.5229
-24.503
-26.9397
7.25381
21.2355
15.8652
31.3287
69.2484
51.4228
-21.5924
-88.2132
-50.1612
-35.7874
-26.3078
9.80385
41.7811
49.9481
8.76062
-37.3939
-32.1554
-12.2814
-2.50186
21.2704
54.3989
93.7236
76.8181
17.1927
4.52562
-8.00324
-4.96347
1.68743
1.2554
3.38988
24.1186
29.502
-29.0636
-68.4234
-41.4413
-2.74295
4.54808
0.170632
-4.40733
13.184
-22.6561
-59.0152
-81.5282
-52.7285
-31.0913
-16.8844
27.6212
73.8464
63.0886
75.803
56.2055
10.9484
4.36853
-26.7421
-39.4166
-13.4477
17.0832
28.9472
-32.2203
-58.7552
-30.7195
-30.712
-26.2416
-9.03492
9.15935
-46.5904
-39.8556
-26.6045
-20.1135
-14.1363
-2.06651
23.2816
59.9259
43.4992
48.0484
38.2438
33.1464
44.348
65.3557
78.7756
73.3535
-3.7164
-27.4006
-16.3946
-17.254
14.0445
0.879614
-2.02089
22.3724
-46.2798
-53.9599
-65.93
-76.2725
-49.2035
-27.1059
6.84319
62.8176
34.7478
-7.7988
-22.1477
-13.3808
26.6406
47.1633
34.2189
12.5387
55.5981
-12.4823
-71.0791
-125.666
-76.8326
-57.8731
-24.3652
0.691596
20.2829
57.7954
70.216
-38.1621
-32.0185
-17.4013
-54.1195
-49.4777
-0.702342
33.7531
81.6907
59.981
14.1347
57.1097
73.6768
102.045
121.731
86.7822
41.2818
11.4895
-29.956
-39.8158
-34.4679
-14.3896
-47.8957
-54.3779
-33.221
-78.1202
-73.0542
-65.5366
-82.4727
-57.6225
-37.0088
-22.5746
11.6111
-5.20172
-26.971
-7.85186
5.6845
16.4079
37.6755
22.858
23.2785
31.3227
16.8808
42.221
30.9957
42.4794
35.425
29.2793
33.6944
69.0502
29.9458
16.8717
-1.12463
-17.2723
-40.1028
-26.5317
28.4951
51.0014
-10.477
-27.713
-57.5363
-31.4578
9.96022
-4.01994
7.98386
42.0914
-42.2375
-89.6373
-75.3039
-69.1267
-17.5731
17.8841
24.8038
81.507
97.7617
23.2342
-49.2928
-61.6639
0.739726
5.32722
-1.97618
-15.8912
0.273195
23.2089
-31.7587
-53.2172
-4.01711
27.1752
-0.641136
-27.5582
-17.6027
17.3068
57.5738
28.2703
-19.5606
1.02877
1.43236
-5.0664
-1.7872
-10.9081
-9.60745
20.7191
3.05727
2.74459
31.1665
39.1647
44.998
33.9591
20.24
38.8432
20.2715
-34.3654
-48.1549
-28.6614
5.39947
7.73306
-1.52847
22.8296
11.4647
-16.6037
-26.2096
-47.2468
-31.79
3.94689
34.5409
42.3176
-22.2859
-17.4271
-8.97376
-8.42685
-4.17269
-28.726
-60.0739
-19.2062
-18.3491
-55.4053
-0.588047
14.9039
32.5764
29.178
2.82301
1.24731
35.8965
57.9398
-11.8546
-58.2767
6.51624
6.58531
-10.3362
-26.7525
-11.3206
35.9171
23.5828
9.76758
56.9981
73.6897
14.5144
-31.1909
-16.6779
44.4355
29.4608
-22.4723
-27.8792
-23.025
19.4869
55.586
66.6288
35.9565
10.014
-13.8433
-77.2964
-89.17
-72.6834
-67.2128
-71.3431
-45.0938
3.4034
6.56424
-38.5734
-53.8272
-21.5334
12.1397
-1.8431
-12.1961
14.2684
57.924
55.2841
-1.15222
11.5112
24.5338
54.8429
49.5113
52.2826
67.2268
96.1155
26.3563
-12.7447
-15.0813
-0.937061
-15.1668
-6.56402
12.5613
31.5495
-19.6835
-35.2316
-52.7952
-49.8522
2.79096
14.919
1.56709
24.2372
-16.5059
-36.4409
-66.3201
-101.227
-62.1666
-24.7302
25.8645
65.5739
37.9425
24.099
26.6794
19.4318
48.3754
62.4379
70.8442
56.3199
-22.1031
-48.2996
-61.4723
-76.169
-64.2832
-69.227
-83.6577
-44.8017
-25.4991
-8.66562
13.0284
20.3199
46.1127
53.7927
42.0796
29.3743
81.9199
-1.49427
-85.2213
-79.865
-20.5128
1.95068
30.3729
69.8119
91.5773
114.182
131.695
21.1465
8.30081
-13.1714
-46.4274
-52.5553
-43.204
-50.8245
-30.5775
-58.149
-96.5847
-32.9299
7.66013
6.66168
34.3563
43.2677
67.3477
19.4861
-11.3933
-1.19757
-9.1995
31.621
59.6226
35.9613
27.9777
-1.23244
-47.7323
-51.1122
-59.5178
-40.1207
-34.1576
-11.1355
5.55854
17.7596
8.91999
-55.8622
-79.8543
-56.5011
-12.3384
12.9137
50.1141
66.507
80.6081
85.9627
25.702
0.410962
6.47952
-2.15721
-20.0761
-14.3686
16.5632
-17.0105
-74.9782
-74.7341
-48.1724
4.46879
16.5014
28.4228
45.8752
26.4079
-23.1122
-20.7335
-29.438
-35.691
-4.45644
16.4258
34.7608
32.0819
-5.01014
1.08979
-14.1662
6.46753
48.0609
51.6623
74.215
89.3666
47.2319
49.9059
25.3668
-3.07485
-19.4362
-37.3752
-54.3027
-67.5825
-53.5203
-63.4359
-79.2616
-69.6537
-20.2929
3.65031
-10.4014
-3.82454
3.11677
28.6768
36.2836
-25.0836
-20.5001
-14.4956
8.59345
25.2864
42.2448
50.6741
54.1404
-9.99836
-51.346
-22.246
13.7598
39.7516
67.7192
50.5898
12.2185
-29.0555
10.4817
-0.854969
-42.9622
-25.8969
6.7858
4.43832
-32.5881
-98.2757
-104.625
-65.253
-10.3495
47.5557
70.8944
66.8244
23.899
-12.9332
-11.3934
36.135
41.6494
42.1876
24.3427
13.9357
29.3831
22.4106
-28.6755
-54.3167
-48.7598
-14.2562
-8.25903
-20.7331
-29.8399
7.39032
29.0134
-11.1087
24.5605
59.2731
71.8782
18.5548
-11.0395
-9.89901
-29.1721
-69.6187
-52.526
-10.0373
5.13471
17.4472
30.2009
70.7377
98.8267
8.23799
-39.9267
-46.796
-65.4395
-58.4496
-56.4246
-58.182
-69.1672
-34.355
-39.3996
-10.6142
4.85791
43.2677
43.7422
30.9743
33.7522
62.8662
59.9161
7.63766
-30.9305
15.8111
38.7739
44.9759
48.2368
41.5667
38.9174
68.0767
27.7499
-55.8398
-52.4664
-25.3934
-13.5483
-15.8537
-38.8249
-36.3269
-1.29955
-43.9826
-39.0809
-11.4843
-7.97132
4.65513
4.56969
-3.99776
6.04031
-14.6382
-17.5946
-32.8689
-19.1546
10.7584
38.1105
43.8134
37.6814
-25.1901
-26.9717
-10.576
-29.5073
-6.00148
27.2351
46.7187
66.8827
31.0041
8.77233
-13.6843
-30.7163
-11.8323
-33.8078
-60.9159
-8.42037
56.3042
53.6355
-1.50922
-22.8098
12.5833
27.0506
29.6842
8.48378
-9.41029
-3.55024
-30.4178
-64.1052
-16.4616
5.73379
8.72313
-5.407
5.91611
36.6821
60.9889
2.21583
-80.4556
-56.4772
-27.0202
-16.75
-1.76902
-12.273
0.256695
33.9182
61.3388
-22.8571
-50.131
-36.5022
-29.5876
-25.6052
-3.09642
53.3196
112.085
43.8148
45.938
61.7688
52.5346
17.7187
10.2651
18.0304
22.909
-55.5601
-74.8796
-55.5437
-39.8841
16.6687
57.5011
44.7537
27.6888
24.7995
-24.3019
-70.8045
-104.004
-77.3176
-83.6473
-70.8486
-34.8522
-18.7395
16.0571
-21.2959
-33.7816
30.3004
49.8497
53.7937
46.0047
33.1077
41.9505
45.6841
18.5456
27.1426
54.7077
47.0085
28.1468
28.8742
10.457
8.02415
-14.793
-15.4507
-31.4848
-23.937
-11.6657
7.88453
34.1576
36.7517
-39.8243
-62.0333
-66.6194
-57.0584
-34.1559
-38.6173
-11.6978
5.18186
-10.1484
9.69213
3.53971
0.103461
38.7476
53.7373
37.755
56.5383
42.9345
5.78426
-17.8701
-32.5917
-27.9828
-31.8241
-31.8324
-17.6073
-2.81333
17.9895
48.6812
-14.3059
-13.1529
7.06436
-7.06581
-23.5229
-25.5945
-36.4893
-26.1103
7.02573
1.00319
-9.41906
-3.17998
-4.89591
34.028
81.8342
91.9137
86.0904
26.8603
-35.0967
-75.9725
-46.6283
-21.0155
-19.7558
-8.51687
25.0454
18.0963
27.7065
38.5
0.0769438
-18.139
-21.6547
-38.693
-0.538199
9.90473
-49.4515
-34.4222
-17.0401
6.68811
20.8776
7.28012
20.8925
54.0448
25.8464
-31.8473
-43.2631
-30.9588
-27.039
-30.3238
-23.2038
11.0528
89.7397
79.7167
5.73342
-8.28281
12.0223
-13.1526
-22.0502
-4.70264
15.1631
14.899
-33.167
-45.2897
-23.369
13.503
-1.66449
1.74752
42.6121
24.6939
-10.2124
-1.91962
-12.7177
0.458237
7.53157
9.2066
56.8607
58.1543
-18.5514
-22.2967
-39.9583
-52.4402
-22.7543
-31.9851
-24.6539
49.759
73.9503
-2.72513
-73.9616
-45.8908
-4.50838
-0.0681091
-21.2754
-32.6874
-6.32654
10.1857
-58.4132
-54.6968
8.93905
35.0741
29.5602
40.7637
87.4663
129.719
114.688
22.3198
-22.1142
-5.63876
-6.84819
-24.7075
-14.8899
15.193
13.3768
-37.5266
-40.9791
-40.1245
-13.3553
-18.3085
-3.98092
28.7873
26.5847
-23.5191
-31.2142
-63.8372
-63.9724
-46.0116
-45.2728
16.2116
13.8314
-5.63277
6.52566
8.82092
6.88158
28.3991
41.1753
76.4259
39.7659
-18.2768
-31.2349
-35.1229
-12.0129
4.89469
-21.7418
-2.82051
56.731
42.8447
14.0758
-17.1734
-2.25495
28.5969
33.5825
10.94
30.7748
48.7537
9.19989
-30.4195
-21.7297
-4.19928
-3.98669
-7.21602
15.1765
41.5538
-25.3822
-80.7394
-99.0062
-66.9893
-29.9019
-1.3001
6.03275
-1.24612
12.4743
-18.6666
-31.7748
-8.85066
3.32581
1.13035
31.2237
59.5332
59.1548
-31.7152
-52.7208
-6.6184
70.7543
81.1003
52.0553
61.8298
61.1712
2.41889
-35.9321
-34.4307
-36.51
-7.17882
-13.4899
-46.3506
-55.305
12.2123
60.9513
8.70059
-34.9622
-14.4123
-14.3531
-31.9269
-32.946
-33.2082
-33.4618
-30.1002
-47.0647
-10.7145
13.3401
15.4669
15.9215
33.9957
60.8515
56.348
33.2942
-6.60033
-28.1716
-0.0176109
17.8673
39.8977
54.8083
21.9489
30.9527
26.1324
2.32075
-0.104898
6.85459
4.75861
16.1845
-31.2888
-39.7648
-51.7229
-52.6679
-28.7179
-14.8146
10.3803
7.9306
-10.4077
-54.4111
-64.9321
-53.5579
-31.08
-15.3317
2.5331
15.0774
33.0886
38.7647
13.6336
3.84963
47.3944
40.1377
34.3361
23.912
23.1304
34.3356
44.3428
28.0248
0.626921
13.1923
13.0052
-10.5631
-23.7486
-31.5465
-8.17583
-23.4937
-74.0822
-57.0699
-25.0543
2.89589
-1.3754
-18.6227
11.4458
-15.439
-22.8699
7.8467
-26.1107
-26.419
16.4022
48.4608
77.5304
16.5051
2.89548
9.46637
2.05907
8.65136
20.8089
13.6879
29.9522
57.2006
34.824
-19.547
-57.4354
-28.5257
-16.3835
-40.5704
-60.9936
-47.7417
9.53557
37.7759
-13.3131
-6.12036
-4.56142
-4.32583
-0.00966083
18.2191
37.9161
16.2591
-38.1949
-45.41
-6.43236
57.6649
75.2346
56.0261
59.5702
31.7811
-23.6228
-35.0589
-53.0277
-48.5499
-23.3522
-1.30071
41.7233
0.954662
-44.0924
-38.2026
-42.5299
-29.3508
7.98486
19.8521
50.6131
43.47
-23.8876
-37.9156
-28.2801
-7.31748
20.7758
24.7795
26.1943
28.8637
60.5184
7.75808
-17.9922
-6.07705
-0.847385
-15.9403
-28.8236
-17.9936
21.1203
15.1922
-37.6245
-87.8115
-48.2745
-16.3378
-10.8498
-0.278636
18.8289
26.0404
62.291
31.9066
-6.03112
22.0409
8.08175
8.60103
16.2253
25.523
63.6849
29.9584
-17.1499
-30.9372
-27.1861
-0.400413
12.2363
18.5842
25.8437
15.8287
-38.7178
-34.3496
-46.3062
-37.0253
-26.9636
-0.477446
9.98318
-4.82661
-10.1681
-6.31545
-16.9063
-0.363738
15.2835
13.7513
53.0172
78.9857
8.10299
-39.642
-45.8279
-30.9504
-2.74883
-3.34207
-9.15637
4.8599
26.2667
8.59729
-43.0049
-23.7993
7.27605
36.093
30.2974
10.5622
17.7929
-0.893012
-36.4733
-19.5566
19.1537
11.8256
-2.12273
1.63229
49.5453
47.4917
-36.2764
-54.6463
-51.5634
-37.2409
-7.0432
8.23781
4.43358
15.0967
44.4143
-13.1528
-39.104
-26.508
-27.1353
-40.3129
-10.8129
23.39
60.9143
28.5002
15.8801
16.3437
40.8952
42.0734
32.9789
40.9844
59.4688
83.1692
21.5215
-56.6596
-84.2887
-45.7728
-45.3672
-43.955
-34.3113
-13.0219
29.4441
-5.07184
-29.8722
-9.67976
-18.6721
-30.0378
-9.35102
24.1296
12.4352
-23.7624
-7.64896
-22.0858
-1.03513
9.73934
-3.3412
32.2678
19.4929
3.76876
17.2816
5.23238
-5.12848
24.7131
19.6778
31.5744
-5.84016
-37.7648
-9.84652
-4.15358
-2.95978
14.7885
6.42247
28.4843
24.2868
8.36932
1.88171
6.92746
26.5737
29.1229
21.4472
9.63125
7.0468
15.4912
-59.2643
-61.8927
-47.7381
-33.5791
-32.3063
-41.0619
-36.8109
16.9731
27.6099
-9.27913
-45.146
-30.292
-18.1794
1.38873
25.6004
26.7932
23.0801
52.1404
7.79916
-47.5047
4.01768
12.4593
41.434
60.7442
45.8187
52.7353
38.2005
6.6682
-15.5455
-26.8377
10.7955
18.8755
14.6838
21.9476
-41.4338
-37.4378
-6.58525
-19.4109
-20.4362
-12.6263
-5.09961
-25.9939
-60.229
-43.5769
-26.3739
-27.5922
-8.07246
-7.66829
-11.7072
15.1961
47.0866
0.821448
6.71064
-0.364799
24.4315
42.6201
38.6294
10.0411
26.3804
24.0388
-18.5523
-10.8558
2.15177
0.694538
15.7816
23.6286
34.0783
-14.3076
-5.72136
-7.9178
-22.0498
-10.4709
-33.0649
-31.8613
9.82585
-41.7724
-51.4845
-50.1928
-47.7079
-10.6436
37.4994
59.5766
76.3726
17.8445
-8.07802
-10.5587
-8.58618
26.5162
24.1351
13.9029
35.6964
23.2621
-27.7101
-33.9975
-35.9893
-15.9326
-17.4102
-10.1103
-0.572686
54.77
85.2572
12.5065
12.5844
34.8637
33.4228
13.4576
-15.3541
-21.2983
-10.7733
-33.2246
-71.1336
-60.9282
-2.56043
3.38658
-6.39673
-12.9305
-34.7303
-17.6837
-0.162842
-68.2511
-61.0856
4.48773
28.1697
46.8339
28.0614
27.0352
51.6112
14.6007
-14.6303
-14.6397
-4.00891
13.926
9.40638
22.0113
36.0893
6.72726
32.6669
27.3972
16.1136
32.3644
14.1715
13.9818
1.09392
-49.7343
-34.1583
-46.1507
-64.7985
-29.8804
-6.14576
8.70877
15.0293
64.9316
52.8293
-19.018
-27.2376
-7.08584
-23.9715
-32.4441
-40.2279
-5.91561
1.28355
-42.6312
-39.0453
4.49283
16.4332
22.0417
22.1675
65.0332
63.7837
-2.3499
-13.6296
-34.0797
-23.1482
9.00575
12.3999
41.2283
58.7104
40.0935
-19.7064
-17.3533
-19.3869
-0.44442
-12.032
-12.9639
-27.8894
-15.0792
2.4327
-43.3413
-31.694
12.011
17.9135
15.2913
11.134
21.6405
23.112
28.8777
-25.9571
-23.6338
4.5246
-10.7077
-19.5105
-19.236
-25.8229
9.36907
46.4245
0.407111
-10.6804
8.80813
-4.8753
-3.8258
-0.34092
14.3448
62.3613
9.85562
-32.9156
-43.4081
-30.5903
-19.1317
4.74363
34.539
77.535
23.9419
-14.903
-26.7049
-44.8718
-24.9796
-33.0321
-22.9848
10.936
-1.01685
8.70756
2.84149
-17.0911
12.1805
24.9694
38.8605
69.4348
5.78153
-8.93302
-12.9478
-34.8078
-15.4913
1.56767
9.49447
23.8069
-1.99635
-38.1826
-24.8281
-26.4579
6.33983
15.8875
2.71898
11.165
61.9417
45.7684
-81.2595
-87.3333
-42.7729
-4.46095
12.6853
6.4715
36.5318
71.4595
17.1061
-23.1822
12.2957
42.0114
40.3564
21.64
20.2655
7.43915
9.68996
-24.8448
-104.399
-92.1974
-4.2439
21.7279
49.5202
37.2026
22.3144
28.4778
-0.973778
-7.43555
7.5298
7.12558
2.91618
-5.2879
2.2883
-3.87029
-60.436
-55.9544
-55.5596
-42.7552
-13.1331
-6.66141
11.8616
31.4996
37.3875
1.67302
-33.3242
-38.3651
-12.1451
-12.278
2.90114
17.6086
45.721
61.1072
-1.92725
-25.7852
19.8327
31.9969
30.6907
22.7217
31.043
60.8338
37.2059
-20.0429
-30.6786
-17.5918
-10.6798
-6.65614
28.6403
51.2037
-8.45504
-32.6024
-35.486
-16.4799
9.42708
8.76138
26.2016
0.431556
-47.6683
-40.3633
-39.6151
-65.8349
-44.9751
-36.1261
-15.893
0.239395
-23.1899
3.89759
5.86216
-10.5804
20.729
32.8365
40.2125
50.2626
31.7383
4.13217
-13.0756
-13.1472
13.0319
21.506
37.0961
40.6415
51.9194
67.16
27.1395
33.3156
22.1126
-14.1633
-46.1133
-64.775
-55.0551
-46.2898
-24.5361
-32.0814
-46.9914
-19.7812
-14.2201
-5.3237
-2.84583
-7.99008
14.0589
14.3983
-23.4647
-19.6451
-6.85643
-1.01214
23.5939
20.6655
44.3715
41.5606
8.72568
13.4154
-12.8016
-34.9698
-16.0118
3.1723
33.5371
47.9514
9.64589
1.41427
-12.4155
-12.6908
17.3784
14.1737
20.7012
33.0825
35.1881
-7.58282
-84.062
-60.0017
-11.6924
5.71801
5.48459
4.08033
34.5822
66.9444
-34.2895
-73.3766
-33.7689
-13.3705
6.12449
19.6697
28.2461
8.26181
-53.1997
-56.3279
-47.6648
-22.2626
40.6889
69.729
81.1859
68.1421
-25.4199
-30.2026
-29.2117
-37.2642
6.60599
24.2859
66.4621
64.5859
-17.6678
-30.6321
-42.9668
-43.9973
-6.08972
-15.609
-13.5308
-11.0792
11.1633
-3.85354
-24.7078
-11.981
27.3327
18.8408
9.13529
-16.3101
-7.2074
22.7777
42.5716
-8.02108
-5.08679
1.51962
1.98548
-1.67613
16.6438
30.3436
48.8061
50.0553
-18.6474
-27.4904
-18.6225
-35.9747
-20.4789
-9.26331
30.2582
2.60373
-8.51191
-30.7291
-75.0188
-49.7912
-2.28917
11.4068
43.3065
5.84453
-1.17108
-10.2743
-21.6961
-12.492
13.2853
17.4066
58.9819
42.4362
2.5968
8.49923
-10.2766
6.36746
19.3511
11.7523
39.7549
11.7806
-25.7375
-35.2632
-47.346
-19.2118
-8.37861
4.18428
10.5364
39.182
28.2839
-62.3662
-69.3118
-42.3655
8.26498
10.2361
-8.91453
-11.4027
26.0746
6.84669
-43.1914
0.832283
37.0257
36.9188
23.8302
41.1212
105.767
106.355
24.1269
-38.1755
-48.8201
-21.685
-32.2574
-40.9841
-29.7207
-1.60398
-20.3921
-37.263
-46.6079
-26.3035
-7.71067
-5.20822
4.46291
37.0678
-3.071
-40.884
-56.4109
-53.1248
-10.0473
12.9423
27.6656
61.9707
45.5428
18.1309
29.1283
20.7482
18.6346
24.7773
20.329
19.5473
40.6559
39.5326
-13.4281
-38.7516
-14.4468
6.32393
-19.9305
-30.017
3.32643
3.01975
-10.7532
12.3135
19.1331
16.1295
4.95235
-6.98605
17.212
-13.8053
-31.4338
-10.2839
-18.4906
-35.0082
-12.5114
-24.1369
2.83103
-9.88933
-27.7353
-35.3726
-31.3181
-23.4971
-10.9408
4.15904
35.5656
10.3641
9.46465
14.2003
10.9267
35.9662
29.0715
6.05778
30.0574
28.9323
-11.9266
-9.63802
-14.5934
-4.34702
6.44025
25.8349
29.9328
44.5378
80.3002
-15.6546
-52.0113
-13.4128
-4.85348
-14.4205
-23.9726
-9.92415
19.7866
48.0234
-16.7382
-43.7752
-50.2208
-28.313
-27.8774
-27.6658
-30.6359
-26.2704
10.7147
31.1383
-14.8089
-0.664587
2.06202
18.2748
21.9455
14.4554
14.6198
39.361
-25.8549
-40.5106
-25.1086
-1.84166
40.7606
23.8909
32.8017
40.9209
1.1486
-8.4412
-33.995
-39.721
-13.5934
14.2689
44.6918
17.4193
4.73201
9.03721
-7.53205
-26.2925
2.21021
-9.01199
1.43187
42.7558
37.1849
-6.11867
-5.69675
-0.675998
11.9363
21.3014
6.4518
-8.20279
-5.49267
-45.2809
-63.1993
-40.4583
-22.7729
-9.37141
1.25098
36.2986
27.9914
-21.1053
-27.9604
-37.0112
-19.6739
-7.67617
-2.30289
53.0863
42.4196
6.92268
3.635
-13.906
-10.3026
21.9544
31.9233
70.2351
16.6867
-9.11202
-22.1133
-34.6027
-16.3252
8.33856
16.0261
15.8564
41.3142
37.7668
-12.9856
-46.2171
-38.4354
-39.4761
-46.8348
-44.4836
-23.9919
40.9816
41.4051
-28.3921
0.112335
27.0098
47.6772
21.7113
27.3628
31.4233
36.311
-7.88123
-46.0467
-44.0076
-25.6211
-28.3352
-12.0547
10.2339
30.9539
-10.5002
-18.0045
-27.5709
-38.4691
-14.9334
-4.05658
-3.82497
-4.87344
-18.8214
4.65492
25.504
28.4779
33.0821
31.7441
81.7995
61.0449
-6.87886
1.73813
15.806
-4.30903
-1.06636
-5.39792
4.23279
12.6346
-29.4658
-56.6617
-36.7227
-16.602
0.841688
-0.131902
0.552206
-15.6736
-3.65853
15.8087
-54.1513
-40.035
-10.4658
-11.5155
-11.508
-3.28488
39.3647
67.6986
24.6265
5.92734
29.89
50.2828
33.1013
16.1427
20.5932
23.2412
-41.0579
-77.0706
-66.9341
-52.32
-31.9622
-15.3121
9.40529
15.0493
10.825
-39.7247
-29.3982
-19.6824
-1.75931
0.210582
16.0227
47.3643
59.0128
-4.80176
-7.0025
-11.183
18.8169
35.2937
30.0477
56.9537
65.5407
8.58166
-2.04657
-16.3089
-31.2155
-3.80744
-0.594666
-10.4881
9.07766
24.8382
-16.2524
-36.2246
-40.6403
-1.49876
-4.41264
-14.7356
-10.4748
13.0786
-12.5293
-44.6726
-37.9613
-4.66192
10.0269
18.6938
21.0489
36.0359
-15.2427
-23.2061
-30.9994
-27.2928
9.39885
7.76394
9.26832
28.244
-8.63545
-3.54624
13.7242
26.5075
48.3538
23.8639
19.6424
26.5364
-32.4934
-49.8452
-33.0739
-12.3377
19.6203
19.3314
32.5176
36.414
13.14
-4.062
-14.5279
-14.0761
-7.14199
-19.1714
-18.4677
-33.6902
-8.51583
15.905
-31.2153
-51.7167
-16.0256
1.94935
3.7676
7.79988
21.2041
13.7643
14.8829
1.14426
-24.8501
-26.915
-16.7192
-6.14209
19.6528
37.5396
65.1008
91.9533
-13.8697
-50.2588
1.43921
33.3977
39.2788
29.5056
9.62085
16.7401
-33.1014
-80.7973
-103.849
-91.0499
-25.8427
9.21609
29.349
63.4156
21.7371
-0.118933
-17.1355
-22.3145
51.1273
95.9848
125.522
137.807
55.7688
-51.8776
-103.438
-94.9615
-55.3938
-30.7386
-40.2381
-38.1299
16.7387
46.7893
-19.5166
-37.9225
-16.4545
-23.5277
-39.9703
-51.4503
-11.9031
-20.6763
-74.6502
-67.2212
-22.7265
28.5233
64.6927
82.4956
152.525
148.911
46.3414
26.7758
7.10682
-13.9863
-4.48706
-16.0904
13.6917
14.2431
-24.5155
-28.1489
-43.1298
-52.2072
-40.9074
-56.4375
-10.0508
39.6182
21.096
-24.6818
-61.8265
-45.4525
10.0177
21.0721
15.6245
14.1581
62.6937
51.1915
-1.59977
-26.3062
2.90756
-4.04494
-6.86384
-2.62084
5.25623
6.02983
15.8393
-8.26764
-8.49197
-9.0651
-27.7162
-24.3461
4.29565
7.13548
24.4069
22.2622
-40.1708
-25.013
-9.52128
-9.35914
-4.5984
-5.14396
26
43.4635
-7.53917
-7.77056
16.9285
58.9863
75.989
41.9316
25.3976
23.7124
-10.7306
-7.72462
-24.1144
-39.2521
-41.7809
-64.8783
-29.5603
-10.4294
-6.48901
-4.71212
-37.0937
-56.3895
-21.1884
-4.74637
25.2016
27.8333
-16.6091
10.1772
15.7495
1.87964
15.9688
-3.70878
-20.8701
9.0235
32.427
3.30168
5.53579
26.0501
35.2152
31.0701
17.2486
27.8856
15.5076
-19.7478
-49.9359
-56.5105
-39.1496
-44.1479
-18.4245
54.8913
43.8728
12.1767
21.6852
12.1552
17.3785
37.6425
22.2268
13.176
22.6298
13.3406
-34.967
-41.5268
-22.0623
-19.0265
-45.7746
-60.9234
-24.4519
-1.39281
-45.7814
-49.3932
3.43032
40.7794
39.9334
33.8751
65.3169
142.064
87.8682
-0.281546
-57.4204
-45.8778
-14.3687
-18.8628
-16.77
-9.53894
16.9878
12.0401
-37.3776
-35.5034
-17.3112
-33.3617
-23.603
-18.3001
1.00282
-3.40442
-59.9696
-81.8354
-40.0907
14.0736
44.5463
37.5111
77.5749
78.1797
15.1717
10.8155
-7.33384
-16.3081
6.02074
4.49079
41.0016
27.5584
-19.3467
-9.5315
-22.0874
-32.248
-17.053
-32.2918
1.20223
32.4062
8.47215
8.06098
-10.1605
-20.2047
16.827
28.07
31.0123
60.6249
56.6261
-2.65989
-35.4807
-32.8834
1.4899
-7.24836
-14.7516
-5.38213
33.3858
25.2852
-47.2328
-54.8961
-24.2031
-18.7042
-13.8574
-4.73578
16.4958
26.3648
35.1685
-19.6122
-2.94936
34.9221
39.3099
26.4644
25.5157
-2.02677
-1.55139
-39.6654
-86.9441
-66.495
-14.7868
-2.53948
5.54892
5.4371
8.82654
-34.6746
-41.0332
-45.5301
-61.0939
-35.0837
-11.9759
8.82912
27.7149
-9.76401
-8.67415
19.9269
42.2185
85.6617
94.1833
58.6656
100.101
85.6841
16.2943
-21.0483
-15.8472
23.8999
20.9858
-7.99131
-34.5936
-12.0768
16.3894
-48.7147
-54.1912
-18.4578
0.0866774
-0.585416
-23.8596
-23.8479
-15.5318
-49.4467
-48.5471
-29.8261
3.11817
19.802
36.7269
70.4178
52.9888
24.198
22.8658
12.7021
-19.2119
-7.21679
-40.2203
-34.7394
-34.7666
-66.7652
-32.6115
-12.5961
-3.93119
8.13756
2.11402
26.8973
65.5441
-4.59513
-81.447
-84.5577
-53.1031
-5.78086
23.1925
38.0807
56.353
90.8783
26.4785
2.14232
-11.0916
9.32836
9.20168
-1.37293
9.55286
53.6249
69.1999
-12.4805
-36.9788
1.2517
15.1205
5.19755
16.6918
9.69473
6.18573
-11.2256
-60.4314
-56.2509
-4.94163
12.4992
33.9139
59.572
58.1374
12.0795
-39.7565
-49.5031
-67.0129
-41.5775
-38.626
-26.0317
14.4476
38.1891
8.18707
-10.0531
-29.0055
-14.3337
3.98737
-3.34699
29.0719
21.2294
-14.7001
-17.1299
-28.7549
-16.923
10.7868
13.0129
17.6704
32.5339
2.43283
-14.0624
-8.06296
-16.7354
11.2558
14.5108
9.99633
34.0076
74.4104
45.0243
37.5393
10.4569
11.033
8.57079
-3.29054
18.4093
15.906
-62.3911
-84.6159
-79.7445
-45.1194
-8.84985
-10.4273
7.88029
11.2909
-8.56179
-44.1793
-50.0932
-58.2227
-29.1932
-24.2174
2.32452
35.9805
55.7892
14.2269
7.08856
25.8379
71.9573
63.5118
66.9498
101.199
117.815
13.6653
-39.6944
-51.6153
-34.9208
-10.6906
-34.4189
-48.4076
-1.67823
23.6908
-28.2404
-47.3972
-44.82
-15.3648
-13.021
-22.2408
-13.9008
12.2622
-12.6422
-48.6081
-26.3747
29.3973
14.0345
-2.87306
11.3635
53.5584
19.9085
6.31346
-12.6794
-33.1139
-0.681271
14.3474
23.2901
57.6444
5.91055
-30.5424
-18.3564
-20.9129
11.1336
48.6076
42.861
52.3958
1.66273
-17.51
-13.5659
-18.9153
-7.98323
-12.1866
-14.7203
20.816
13.1322
-15.6501
-33.7248
-45.7319
-18.3084
12.5587
22.4449
36.3148
50.8187
-41.7095
-69.5779
-34.1297
0.707597
6.83219
-7.39178
-18.6646
0.675787
27.7798
34.4754
-43.2688
-38.0862
-16.0163
-18.1757
-15.6947
9.52631
35.2508
43.1596
41.6867
-5.39538
8.35536
10.2891
1.73002
12.8503
18.3272
31.7963
45.3801
-22.1868
-29.1862
-17.2414
24.6275
42.7335
50.0024
62.9793
32.6077
-30.8146
-42.754
-55.3521
-67.2458
-49.6988
-18.2004
11.7342
-18.5025
-13.2992
3.03151
-7.74532
-26.8377
2.20312
-10.3553
25.3714
14.906
-40.433
-33.646
-14.1662
18.418
78.7819
74.0477
41.986
30.9164
46.4382
-22.9775
-70.1886
-65.6705
-60.7782
-44.8461
-25.443
-3.06657
14.2484
-31.6982
-59.3776
-38.2681
20.147
34.3994
14.1346
45.6355
57.9366
-10.6102
21.6808
49.5882
20.2333
32.8236
19.248
38.7286
41.1018
-18.2199
-9.49449
-19.6459
-8.96976
26.343
7.00503
9.50981
45.8246
2.32457
-47.6095
-60.0134
-49.4893
-4.42624
0.396129
-13.7411
-0.341016
55.8173
15.6217
-67.5704
-59.3478
-19.6834
-23.435
-13.1871
2.62854
32.6067
87.0229
99.6961
59.2543
40.9287
23.3362
-26.451
-50.389
-29.2209
-29.8462
-23.5902
-67.7169
-94.7609
-53.2844
-13.2401
-14.8769
-0.717225
7.64285
34.477
12.1329
-8.92377
-28.4592
-38.0802
-38.4385
-6.86473
52.3247
59.7587
-12.1632
-8.92584
-13.6048
-27.9138
-0.0293282
29.0293
75.6969
103.69
48.151
45.4152
51.5054
21.8153
18.8938
6.80075
-21.4004
28.0189
7.30716
-57.3327
-76.5862
-58.9656
-8.50982
5.96963
-2.04717
-17.1952
26.8166
50.0483
-28.1609
-28.4113
-0.223526
20.5882
12.1077
-5.69499
18.7394
20.5612
-37.9068
-62.3828
-41.8103
-13.4441
-19.9262
-24.5339
29.7473
42.0539
4.09263
-16.8079
-26.5096
-33.6127
-3.13427
23.5758
54.9087
62.4239
88.1674
32.2441
-34.8665
-71.5168
-74.4372
-102.273
-86.9415
-39.7803
21.9514
21.7052
16.0844
18.6727
47.7519
75.2019
82.1466
62.9318
71.8652
22.4347
-69.5087
-94.4839
-102.744
-59.3234
-17.9713
22.0703
50.4574
69.7687
90.2623
-1.46209
-30.7045
-11.3682
-6.53352
1.44239
11.8007
13.188
27.1537
-9.58077
-17.3114
-9.21485
25.2672
16.9482
-14.6244
-4.11703
26.3744
-6.29222
18.9716
14.8734
-7.90083
18.6918
6.03474
13.5871
-31.3903
-75.6945
-69.6888
-40.6523
-32.0726
-16.9755
-22.7994
11.0957
38.2388
-17.7977
-23.4575
-21.0775
-18.9567
8.39985
-11.9759
-25.0893
4.5121
109.713
76.6167
-20.9037
-17.8283
-8.1739
3.7312
10.6883
-0.814449
21.0559
60.3543
16.078
-1.19463
10.3929
28.9254
33.495
25.6993
18.0373
4.99505
6.18455
18.2342
-24.7262
-67.2321
-41.0154
-43.893
-40.3532
-49.5942
-41.0505
7.71552
14.0491
-15.6793
-0.440912
27.5003
73.3627
52.5886
24.2255
18.4778
-3.8858
-57.9543
-49.3066
-48.8479
-35.5084
5.46749
4.30962
34.7541
83.2355
83.6609
56.229
-23.6412
-54.9252
-69.4658
-67.3403
-57.7942
-41.7799
-15.5445
-32.0977
-25.939
-3.89402
29.9478
24.5119
8.7093
28.6761
52.2977
25.1125
2.4189
3.78561
21.1127
10.3124
-7.95473
26.378
65.6213
45.5467
48.8718
49.9661
16.3639
5.60553
-21.2638
-4.89341
7.30238
-46.2654
-46.9414
-56.9636
-39.5444
5.09788
9.45806
12.7137
26.2929
-47.412
-50.1814
-29.651
-32.2097
-7.26775
-8.75826
-17.0307
5.16646
29.9291
-9.82892
-3.39492
12.2428
31.3287
21.9036
10.2603
5.15318
18.5573
40.8297
1.14628
-52.8176
-18.6097
-6.87229
-10.7708
-10.8515
-22.9549
-16.7701
8.7289
9.5493
-13.4757
8.82125
-15.2043
-7.15239
25.1368
50.156
89.5935
80.7227
45.2579
-11.8289
-42.9726
-38.2929
-22.8819
-6.8923
15.8114
-32.8927
-34.4321
-22.9937
-14.8936
-3.70042
19.4796
35.948
58.0092
34.5418
-39.3144
-54.4695
-75.698
-71.2705
-46.98
-23.6077
19.99
11.3962
13.4916
25.8209
8.97278
33.3431
46.681
27.829
4.86318
9.96626
4.79855
-7.72964
-16.1344
-9.69427
28.3437
28.4766
26.7903
50.6794
-0.142984
-25.733
-34.3839
-16.2899
1.41988
11.176
16.5202
29.0112
-11.9486
-26.2936
-16.1433
-21.2546
4.73006
26.8412
22.6715
23.0535
14.7502
-39.815
-59.4549
-81.9072
-50.2961
-29.9576
-20.5612
-1.66593
20.0053
-12.5952
-54.575
-41.6333
5.08895
37.1833
32.8783
37.13
76.0018
74.5392
40.0466
30.32
19.4871
20.6541
-3.11749
-11.8186
8.87375
23.2082
16.6355
-37.1089
-57.4181
-43.9719
-3.68189
15.2162
24.2435
32.4262
31.8696
3.98708
-30.6354
-42.0745
-49.3036
-56.1585
-49.6241
-14.5647
19.4833
-8.96391
12.686
19.7616
10.8707
43.2798
54.2909
67.0492
73.8605
-2.73475
-37.8656
-71.5056
-68.0437
-51.8128
-39.1015
3.45591
26.4839
4.69051
27.0664
42.1467
16.8094
12.5418
2.86984
7.30307
20.7556
-9.80566
-27.7025
-34.2024
-30.8023
4.52434
20.4872
23.2024
27.3394
8.25503
-56.9897
-73.2943
-68.4109
-26.2561
-1.63158
16.4171
65.6402
62.6903
8.42779
-5.58404
-1.61716
27.1729
28.0377
13.3085
5.34795
27.6435
49.6504
14.1333
-8.64249
-14.1444
-0.406226
-13.9607
-14.581
-15.4643
-9.04599
-37.307
-44.9656
-16.0279
11.0993
15.6416
7.19263
33.0064
49.5176
8.5757
-30.597
-16.9431
9.89533
20.0242
-9.5642
-15.5407
24.852
6.80334
-36.8743
-37.467
-46.5936
-27.8029
-31.3513
-22.3167
-9.3117
4.03221
26.5945
-25.4232
-25.5764
7.48364
18.1707
-2.25878
-23.2102
34.6418
43.193
0.990788
-3.69746
22.7127
66.4063
84.8816
92.047
101.026
74.6097
-14.459
-41.7472
-55.4053
-73.5312
-46.5125
-48.8196
-28.5721
6.39103
-27.0589
-29.4975
-37.0331
-25.1567
4.81615
0.850851
24.3306
57.8723
0.848674
-40.2512
-60.4776
-69.089
-26.3685
6.50061
23.4273
64.47
21.4084
13.0943
21.8451
33.0894
57.2565
37.4152
9.58417
-3.17304
29.9526
-29.5691
-89.7038
-98.4111
-65.804
-38.1731
-8.6733
17.12
57.5511
87.6486
38.9416
-39.838
-1.09879
17.9839
11.2253
-16.456
-8.82432
34.1677
22.64
-3.4138
-21.9509
12.3855
32.3144
24.793
21.2761
29.4044
2.85227
-23.1653
-11.155
-24.3389
2.98518
20.3744
20.8402
8.94806
-14.6543
-19.226
-16.4743
-35.0688
-28.928
-14.673
-21.9369
-5.36413
-17.9961
-36.0562
-28.5188
-28.617
-5.74787
27.0048
24.9477
14.3993
22.4704
-15.6424
4.58854
2.82326
7.77025
8.69806
-3.73967
0.271507
10.9438
-14.6506
10.8427
13.2021
12.1875
8.11396
3.86125
25.8653
10.721
-19.2925
3.25066
21.7998
33.0724
68.6871
65.4099
47.245
46.7282
-15.1766
-47.9804
-90.1098
-93.5522
-76.8649
-80.6894
-59.7077
-14.0134
56.0424
57.5286
4.70507
12.9232
50.5746
37.3049
5.35381
-23.1965
-33.6249
-10.656
16.8626
-37.6897
-26.4002
-2.74866
2.40701
11.274
30.9802
36.0346
42.9752
45.4746
-14.2944
-4.75726
4.6111
-13.7382
-26.4576
-37.6998
-6.96995
0.0299843
-60.6096
-75.4079
-51.5353
23.202
55.9928
53.5249
54.3034
50.262
25.7313
36.216
35.5527
25.5215
24.2807
3.36912
3.1797
7.66472
-59.4711
-48.8947
-53.0439
-54.9389
-14.8156
-20.9627
-16.5484
-19.9175
-55.7983
-29.7475
-1.32824
18.8132
40.2686
19.3797
1.73468
11.0862
35.3389
-0.805539
-0.557275
-10.3182
18.0708
11.2022
20.4115
32.256
45.6644
45.8184
-14.6804
-21.0735
10.7127
13.5371
3.26205
-4.56362
19.897
19.9954
-54.3116
-97.9904
-86.7287
-33.9828
-14.5663
-2.05086
23.9493
22.0807
43.2878
54.549
32.763
30.078
11.4572
-4.47512
-5.36636
-5.1561
20.2576
1.87859
0.327189
-3.84965
11.6824
17.1616
2.33541
0.13163
0.675912
-43.5809
-55.8138
-52.0633
-69.3131
-74.3662
-49.0744
-32.4054
12.1535
61.9055
79.7733
27.4188
10.6539
17.001
11.3308
15.1212
49.3709
54.8352
58.2868
23.7607
-18.6105
-8.7653
8.28715
21.5654
0.217618
-8.6526
12.5319
1.58091
-58.7454
-59.598
-34.2518
3.90265
-16.3578
-34.1198
-16.9917
-52.6374
-57.0331
-37.3554
-14.7272
33.1543
42.4406
49.6863
62.9508
15.2755
7.48452
16.0929
7.21169
-20.957
0.387463
0.312983
25.9784
21.2497
11.0949
21.5262
11.3383
14.8624
12.4281
16.6221
43.5125
45.8104
-31.7399
-61.111
-47.9993
-3.87332
12.3574
-2.61436
-26.856
-33.5493
-8.33498
-33.6277
-75.9976
-56.2411
-34.2221
-9.28695
-5.84797
-2.90571
30.6671
38.2994
-63.4142
-62.7325
-3.86915
23.2886
17.816
31.7984
61.0118
62.2473
20.7168
31.6006
38.9573
61.1707
84.8403
81.1283
78.2447
21.4512
-21.4768
-20.6504
-25.0492
-37.529
-21.8304
-46.2905
-15.7396
-30.479
-102.857
-84.2203
-58.5521
-26.8881
11.1034
16.5911
19.5949
42.6698
42.2329
-20.674
-44.2976
-42.3325
-29.5901
-8.53571
3.00193
1.83133
40.4974
47.4957
27.7479
40.2209
59.1674
18.7121
-23.0011
-34.1901
11.8082
6.34662
-32.2808
-46.2186
-53.0521
-12.6346
3.79808
30.1821
69.4833
31.1217
35.4454
35.774
3.70912
-4.72879
-1.82475
11.6555
56.4406
-26.5757
-70.1511
-72.7835
-68.6504
-53.1814
-21.6944
-22.0924
-8.33338
45.9666
48.4546
19.2327
4.92479
41.4383
45.5082
18.3779
1.41013
-1.22279
4.20474
-7.44108
-63.1301
-12.724
19.547
23.6751
11.877
31.7304
67.0224
50.1747
-2.45052
-74.8235
-63.8399
-41.6611
-19.6533
4.2587
-26.7827
-18.7692
-13.6461
-29.3894
-5.50958
9.06991
27.1308
39.6691
33.5777
52.746
-5.12932
-15.9452
-32.9834
-40.5755
-25.5437
0.576797
21.854
60.4464
-9.0398
-28.4789
-22.9076
-7.34973
1.73029
5.95252
35.2248
64.366
38.8214
22.2086
13.1782
-33.6484
-33.0916
-31.8079
-15.2025
9.02438
20.379
3.48881
3.08222
-15.7556
-3.95305
-14.9238
-1.9049
11.5697
37.4315
9.17614
-38.7417
-59.7054
-34.8047
-10.8422
-5.22226
28.7106
91.3697
36.2388
2.14773
-84.373
-60.9222
-4.4085
15.1091
11.1182
27.5712
53.1143
7.57851
-35.9542
-40.8375
-23.4211
-19.7904
-20.4667
-4.15964
30.6752
3.63842
-8.17355
-8.9746
5.9016
1.72933
32.517
36.2694
38.6595
16.0262
-0.74629
-3.58001
-4.27977
39.7521
63.0854
28.1536
8.55726
1.05591
-56.783
-54.3338
-51.5105
-26.2027
-9.36505
-2.42392
12.1983
34.9841
27.1865
2.5354
13.0444
-11.7961
-21.826
-22.854
-29.0888
-2.2679
-14.6946
-47.4352
-5.53119
-0.554814
19.5546
23.8644
22.9304
49.3991
0.634811
-34.7537
-16.2846
-20.9295
-10.2868
-10.4287
6.04349
62.7044
31.8702
-13.903
-45.3949
-76.4226
-53.9122
4.14648
30.0258
64.5084
43.3211
1.61154
-6.21758
-7.23595
7.04052
16.6923
16.8269
19.4677
53.6373
63.7286
-27.4726
-70.0003
-35.2867
0.765495
13.3692
3.72773
-11.1823
-8.17884
15.5868
-25.1764
-16.3567
16.8817
13.5345
-4.28285
4.50706
22.2386
44.5869
47.7761
2.45605
-31.5916
-17.4539
-30.8213
-23.929
-5.47497
6.44915
9.90838
-35.8586
-30.453
-42.4992
-36.4866
-14.4264
-9.02877
4.64935
16.4683
-3.96424
-11.8357
-22.1018
-31.4129
-8.13162
11.0721
54.9266
66.3633
59.0975
24.7055
24.8324
13.4443
26.7975
9.00112
-13.0259
-5.41488
-31.6033
-45.7739
-42.5306
-21.8369
2.83369
4.93068
-0.796436
27.0187
54.7964
64.8278
54.4921
0.541345
-32.6086
-30.8657
-33.5747
6.0119
3.40889
-45.9647
-38.9614
-23.9499
2.97504
7.54235
-11.2794
-13.3684
-26.9053
-35.5273
-17.956
-10.7727
5.52934
13.038
1.95795
36.3917
43.2271
24.428
29.5729
6.85967
27.3713
48.192
11.9832
-17.6099
4.86245
12.3286
-29.1804
-31.1175
-3.11463
35.6833
39.6958
1.1354
-43.8232
-53.1798
-35.4058
-65.7036
-67.5908
-27.8043
-28.5766
-35.5502
-18.0337
14.1667
37.83
75.3689
40.942
30.7309
60.7741
48.3465
52.1131
64.3386
86.5375
76.4216
-27.9746
-44.8539
-47.0906
-33.5009
-20.7134
-29.6282
-18.0257
-7.32936
-53.4337
-41.0422
-28.5622
-37.0089
-20.2041
-10.3261
19.7143
0.750646
-33.2932
-31.6597
-48.4914
-50.7671
-6.77161
-8.0048
18.8846
39.9419
75.9925
37.6304
27.8278
7.30598
25.0045
18.7168
17.1342
49.663
77.12
10.6554
-36.755
-32.339
8.94858
7.5691
-23.8786
-36.4859
16.7253
-13.011
-32.3608
-9.05696
-1.20869
18.6969
-4.5762
-2.05947
30.5163
14.6611
-10.5581
-68.1044
-76.882
-26.6908
13.3296
39.093
33.8766
24.4414
41.9831
8.29422
-8.49147
-12.0974
-36.8096
-42.6977
-31.2305
11.7576
48.4707
15.4848
28.657
56.7973
51.0075
16.8093
-27.0031
-27.7855
-2.16797
-18.5843
-62.6594
-99.0158
-82.2171
-23.8275
14.7817
63.0595
80.8336
88.8061
82.4976
-2.99149
-61.5513
-30.2943
-16.0876
-5.04845
-0.872022
-1.53415
18.2871
39.7075
-52.1248
-54.0046
-31.343
-17.1638
-24.0329
-12.3972
15.0727
21.9162
-4.28127
-10.7246
-14.0531
29.1603
40.8854
36.3406
41.3918
12.2042
-12.7288
44.3647
32.9227
-13.9354
-19.316
-21.9235
2.91889
-3.73901
-23.598
14.4615
33.0309
33.0562
30.1947
17.9193
34.1759
58.1944
-6.98113
-80.9968
-127.938
-110.488
-81.4056
-80.8033
-50.2974
-14.3216
37.1686
89.0521
89.9852
68.5346
59.1381
8.11115
-9.5383
10.0792
22.1432
0.453112
-18.7126
-15.2839
-32.8387
-6.69543
7.75844
27.3118
38.9831
15.7499
10.553
29.7753
-43.9969
-71.0781
-64.0039
-44.7315
-17.3529
1.63557
6.53514
25.4133
-29.3478
-61.6222
-50.9847
-41.283
15.0035
49.8198
66.2532
95.9183
37.1584
37.2425
26.4358
-0.942009
26.8426
7.74548
-2.28006
31.0637
64.7366
-2.03977
-56.4616
-70.2724
-32.8108
-7.42351
-12.0437
-13.4121
10.4225
55.9544
58.6979
-24.8712
-22.5607
-16.9585
-21.6747
4.70679
36.9772
49.5434
36.2815
-48.4028
-86.0217
-65.6226
-51.4476
-52.4897
-19.8733
27.5986
20.5961
-0.295697
20.7311
8.651
3.02285
42.8664
79.9378
90.9314
27.582
-57.0691
-44.0707
-47.3755
-54.4441
-25.5958
-21.7659
29.8383
52.639
-2.71528
-20.8805
-19.484
-1.71263
17.709
9.94605
-11.4048
-21.5655
-25.8731
-57.5728
-53.5406
-0.951758
42.4062
30.1321
8.39289
15.2185
71.5956
58.1248
24.6757
-1.37968
12.5982
23.6595
13.9022
-1.09032
-4.78428
14.7675
37.7624
-22.8376
-54.3493
-15.157
-15.3519
-9.84312
-10.6268
-14.669
33.3303
16.3449
-42.1724
-29.6522
-13.6507
4.58161
22.2928
38.3466
54.3885
1.18663
25.1351
19.4854
-26.1623
-39.9334
-46.865
-31.3405
-28.5553
-57.8655
-36.0161
-12.162
-9.53757
9.94901
25.5501
24.3825
49.5193
26.5601
9.5613
23.6477
6.74467
14.2762
-5.78934
-33.1361
-13.5632
5.10227
-13.9636
-27.4395
-41.8027
-14.6623
-7.94495
2.83757
36.9067
40.0141
13.0559
5.25343
-12.1656
-1.30013
-2.44545
-22.8827
8.19177
-7.58423
-21.6116
-0.710037
13.629
34.0626
53.7605
68.8497
71.1701
79.697
40.4568
-14.7045
-73.7442
-61.8071
-20.1293
-15.9036
-29.4902
-14.7385
-4.84875
-47.795
-70.6091
-33.9355
-24.9591
-27.3895
-19.8254
-1.75477
37.7797
57.0519
-0.794724
10.4406
57.1221
76.6685
39.5543
9.95614
20.5479
31.6759
-43.5759
-56.2385
-54.5987
-30.8953
-23.9601
-1.50076
17.6526
33.2531
-33.1049
-23.8783
-17.7467
-31.8388
-10.049
-13.752
-3.81287
4.89879
-17.902
-0.426509
3.6913
-17.586
13.5644
24.6058
81.8423
92.1622
20.9104
20.4634
26.1853
34.5713
62.6078
37.6814
33.2986
17.1312
-38.008
-50.1932
-71.1216
-65.0936
-41.0758
-34.0869
-33.7518
-26.194
-10.8376
-48.2835
-56.0614
-31.6484
22.7846
46.3304
31.2061
2.53625
26.2714
68.527
11.3663
-26.0241
-17.4721
-8.91347
-13.8533
-18.3437
-7.36923
4.33983
45.1846
41.303
-8.74444
2.67269
0.413145
3.06531
3.08566
-6.82955
10.7827
0.636373
-45.2987
-61.1633
-43.2149
-23.8621
19.1564
23.7436
56.2125
53.3915
28.4991
30.2644
9.43546
14.7796
73.7746
92.2672
79.3043
5.42612
-49.0694
-60.0695
-79.4462
-77.3579
-40.1728
-31.4868
-15.173
39.5548
46.6702
-29.3788
-47.2475
-47.7411
-37.0649
-29.0941
-28.0386
-19.9293
23.6169
-1.0517
-18.8716
14.1322
40.5102
46.6894
36.2679
24.1811
18.1096
-32.6605
-22.3674
-32.2398
0.0748194
59.294
48.9929
69.3764
61.7878
22.4323
10.6576
-11.5835
-44.2968
-40.848
-52.4588
-24.8439
-14.316
-46.7388
-34.3224
-17.0178
-6.35119
16.4581
15.6295
12.0915
4.46771
-10.2867
-12.4073
-23.7832
-12.5995
-4.88187
-15.341
1.33215
30.1988
64.374
37.4373
44.6934
65.7298
67.1063
43.2602
11.8315
-0.850528
29.7989
3.71086
-48.0894
-91.4571
-58.9329
-39.5764
-34.8489
-23.5937
-20.7725
-25.209
-25.8146
-61.9339
-48.6555
-19.9724
-23.3613
-10.8263
25.6373
59.349
76.5056
48.3968
32.4165
42.4423
52.4983
53.3365
35.2659
31.5024
47.7484
-35.2045
-34.349
-18.3986
-12.9595
14.5074
-0.822072
-13.5875
-40.1574
-91.9483
-88.0051
-73.4219
-43.0603
-4.5027
-2.7763
-7.58647
10.6715
62.7464
28.3643
-43.5747
-41.6531
19.5694
29.0444
21.3079
16.4167
37.3623
60.086
7.05342
20.3601
54.813
63.9889
38.0618
3.09072
20.5085
-6.90402
-22.4878
-29.9424
-40.3334
-15.8618
17.2748
14.7038
74.8162
11.3777
-40.7467
-43.4731
-43.9015
-55.5525
-22.9468
-23.1754
-26.3052
-20.3428
-10.97
3.45988
-34.3196
-11.9227
7.65803
4.54334
-12.6318
-3.62628
33.7688
41.791
-18.6735
-29.2931
9.75251
19.8081
22.071
23.7748
37.9015
32.1881
55.7962
24.3207
-22.4901
-33.9758
-3.03115
4.40968
3.81883
-1.33523
14.4312
40.5055
-15.1022
-43.986
-46.4156
-15.2333
-1.08422
-2.43891
3.11745
-4.24736
-22.9809
-25.0549
-9.15781
-14.8414
-12.339
-8.47533
14.1257
31.3856
-13.3312
3.23426
15.5005
11.8012
33.5469
29.7972
42.5228
29.134
-34.5232
-32.711
-23.9096
-18.9909
0.32113
10.8562
25.4
42.2867
19.3031
12.6441
8.13384
-16.0113
-10.0208
-27.5784
-41.5742
-52.0028
-15.7309
-1.93783
-59.4263
-23.1014
23.0365
25.3361
12.0363
9.55416
26.6419
39.9889
-15.5819
-69.2899
-26.3495
7.49852
11.1306
17.2509
35.9914
33.1456
52.5908
70.5272
8.19757
-37.6327
-4.03632
3.58781
12.9442
-7.48872
-16.2574
-6.01512
-36.7995
-25.7629
-11.8709
19.449
26.7593
18.198
9.22265
2.86916
-10.3844
11.8093
-1.89265
-23.9728
-14.1799
-13.0903
3.42404
0.540304
-3.68598
-41.9886
-44.7272
-20.7919
15.5
2.95324
-13.5536
-13.5445
26.1755
6.4142
-51.6941
-29.9769
-3.49578
-9.66755
-7.62166
11.3677
51.8768
64.6479
-4.32455
19.5496
39.1399
47.8123
28.6925
3.45244
27.0799
58.6138
7.98843
18.3162
12.8088
18.0826
20.9216
-24.0725
-28.6704
-38.6512
-88.9417
-85.5511
-80.2663
-67.6915
-16.1966
-9.58181
22.3859
37.2818
4.55256
10.7684
0.877798
-22.3122
6.12063
6.76065
15.8077
13.5026
7.00902
-16.5384
-6.49172
1.74867
11.5939
2.28522
14.3309
52.8361
120.809
39.0863
-15.07
-17.1814
-7.27676
-18.5544
-17.8172
-9.02143
13.5955
23.4291
16.5439
-18.3639
-26.3749
11.1151
19.2518
19.3494
22.8284
3.5794
-10.9422
-60.5713
-81.862
-38.2471
-20.798
-6.18872
5.67765
1.07544
15.196
-17.146
-43.9204
-27.343
-31.6173
-0.188879
26.1938
47.4315
18.7188
25.4044
12.6515
29.3252
20.2616
27.9474
21.5909
-1.2413
-4.22572
31.4974
45.5481
-29.5833
-59.5797
-3.32479
3.96593
-0.642471
-8.81712
29.3424
80.142
13.8307
-39.942
-42.5486
-38.3927
-41.9707
-50.9623
-32.3707
34.7032
44.6799
-4.73446
-39.0933
-46.2181
-9.85939
1.05996
23.7856
65.0333
28.1919
0.241023
-26.5378
-47.3383
-10.1947
20.8675
40.8908
55.2549
-6.49206
-17.8376
-11.9018
-24.1096
-14.7674
8.47579
16.6105
28.7455
11.5427
14.9725
16.2824
-19.9568
-15.9185
0.106031
19.8166
43.8116
24.6773
-12.4196
-40.3103
-34.7262
4.46176
16.1438
9.42758
-9.22224
18.4411
37.4461
-38.1913
-36.3257
-3.13013
-14.0215
-24.92
-34.1216
-4.60626
20.3036
-31.3854
-57.0619
-28.1847
12.6362
25.3442
15.9571
18.5103
12.4438
28.7199
17.0309
-4.47862
6.43928
40.6691
16.9337
4.9326
11.2423
28.4094
5.7528
-38.8015
-45.0473
-5.45882
6.68456
28.288
51.3069
67.6334
45.1981
-15.968
-37.8295
-52.3413
-57.4376
-56.3475
-51.5874
-37.7268
-9.36564
14.7395
-12.9043
-21.6645
9.06661
33.9512
18.8883
5.02314
-11.2275
20.2563
41.4225
-8.75031
-21.5252
5.49405
9.14593
1.87386
5.76785
22.5492
27.9205
9.63834
8.51764
0.867897
9.74025
2.84411
-3.54465
23.4556
25.8684
13.951
16.7393
-22.4722
-47.0554
-30.633
-11.4018
24.0508
10.7111
-5.00877
16.2214
0.959914
-14.0178
1.58636
-15.7206
-6.42418
-4.47033
-39.3435
-20.3288
-12.1763
-11.6614
-12.8828
-28.0996
-16.3041
24.3399
54.5377
17.5239
-12.2286
-5.76384
16.3091
21.9606
29.2042
35.9832
73.5159
42.7925
-65.3181
-67.5027
-40.1595
-37.0307
-24.6302
-13.9749
-5.01718
15.3709
6.89476
-53.7336
-34.5857
-4.80385
7.44713
23.6004
24.9004
23.4457
-4.35565
-16.0102
-14.3443
-2.9054
36.4496
42.7072
54.7949
69.5678
35.6464
-29.6898
-4.71163
-3.62289
1.05382
5.31164
-16.374
13.0317
-2.28389
-21.146
-19.0243
-30.7018
-22.0468
-14.1153
-19.2986
3.18053
71.182
63.389
-3.09597
-35.1186
-31.3369
1.95501
-8.47904
-34.272
-39.0207
-5.48261
-21.1521
-50.4347
-10.5775
15.8077
10.2722
8.29777
17.7874
56.2413
41.7478
2.38288
-11.9009
-11.7564
22.552
20.1125
9.49773
24.1942
-7.44696
-23.8514
-14.2312
-20.452
-14.6475
-1.91556
4.01955
36.0156
16.9197
-31.0666
-59.1083
-49.5804
-29.0846
-7.19264
-19.9014
-9.71193
20.9591
33.0484
2.43985
-7.26525
11.5706
34.32
53.1159
45.6591
38.7855
57.6923
68.3684
28.1701
-21.669
-5.36585
-0.0168311
-48.948
-72.6976
-62.1714
-49.4428
-19.3561
-25.975
-54.7417
-26.5735
-6.06396
26.1309
38.6352
30.4628
43.1154
-33.4853
-60.701
-57.6493
-43.0473
7.35775
40.1309
79.2906
75.6081
49.6099
61.4275
66.9566
42.0458
9.43647
-14.9974
0.198928
4.78031
-52.8325
-58.1184
-58.0382
-56.4189
-9.37847
2.97219
15.9012
29.8921
-8.77815
-13.9038
-20.7521
-15.907
-1.81679
-1.20591
-6.31651
-11.5747
38.1895
-18.3986
-48.1849
-37.4041
9.04134
22.4254
27.5231
36.403
115.509
86.0595
25.4211
-3.48895
10.0424
-15.3424
-51.1598
-66.0521
-39.5069
-14.5426
-79.4411
-79.4476
-64.9357
-1.08044
24.7793
26.0619
37.7189
41.449
41.0233
-12.2047
-35.0498
-18.7445
-12.2768
-16.6661
-4.92732
18.5764
29.6006
11.883
-2.64245
3.11637
46.5422
52.4009
39.0123
60.6707
74.3806
37.1831
-0.950026
-21.0863
-38.5274
-31.6546
-54.5663
-57.9441
-49.3037
-7.52654
2.31805
-13.8067
15.9456
53.8297
63.2636
35.4623
39.7567
60.6305
39.1701
-21.028
-47.7192
-57.5363
-53.5415
-61.4984
-69.9547
-25.4556
-33.1918
-52.8925
-28.2413
-28.3646
-3.03265
10.8427
3.9958
31.1946
7.37927
-18.6489
-11.5955
-29.2577
-23.5196
16.5511
39.4288
75.349
46.191
20.9723
28.4367
17.8418
16.1924
38.4491
34.9198
47.6019
7.82776
-35.0869
-21.6501
-18.7457
-3.33539
-5.87458
-13.6513
-29.224
-16.9441
49.1365
27.2942
-16.8552
30.6772
66.566
59.1602
31.7752
12.8151
11.8106
38.8505
-22.1311
-83.2037
-76.3284
-77.224
-84.3437
-65.149
-34.8476
1.22755
34.7976
-14.017
-76.8895
-44.8881
-19.019
-19.8069
-28.1875
-18.6572
18.8526
7.37493
4.13823
-14.4486
1.50621
76.3665
119.982
120.423
131.163
26.2449
-3.21301
0.624735
-13.6783
-1.58008
1.15042
-0.170528
40.6859
-14.9858
-32.6364
-29.4019
-35.163
-3.90183
19.796
3.26888
-5.63498
22.8884
-2.45971
-61.3146
-68.952
-16.192
-12.1355
-25.9739
-35.1165
-8.41116
16.9129
-17.4965
-30.5373
3.61626
12.398
11.869
23.1036
53.5688
31.6768
7.08906
5.88051
-17.2665
-13.4187
17.2518
12.2947
40.952
26.987
9.75789
4.37633
-12.451
-25.9906
-15.9166
-4.54068
37.172
45.4908
-24.8716
-64.6773
-79.4978
-56.5167
-32.9954
-15.1672
11.8194
52.1557
36.452
-0.300243
19.0391
56.4148
58.0927
22.3463
-4.45147
-2.39719
48.0613
17.7256
-80.2089
-81.7121
-39.5094
-19.5285
-17.8773
-12.032
-4.43616
17.8032
-15.357
-27.6206
0.397227
12.7302
1.57673
2.49176
38.3675
59.9036
-13.1465
-34.2271
-46.7879
-33.6586
32.0079
54.874
81.6868
105.519
62.1344
23.4955
25.2487
9.37255
13.5413
-18.4484
-39.0446
-17.1389
-40.9627
-68.2198
-75.9932
-62.3995
-6.40007
9.86228
-0.622354
32.9558
62.4456
-18.4612
-77.8541
-78.5481
-45.9775
-23.8919
-27.8451
-24.8679
6.54252
63.1415
53.3853
20.1484
21.4579
21.9203
6.17271
-2.22193
20.9963
43.2622
12.5695
-14.794
-8.69086
33.2641
57.8064
31.1742
42.0368
57.982
-6.69455
-85.9122
-73.7087
-68.601
-24.7528
6.40986
36.0881
43.0207
39.7135
7.40306
1.78031
-9.46092
6.47261
2.64501
-18.2667
-24.6624
-6.15828
-48.9495
-65.8092
-62.9731
-14.0077
23.574
10.2743
6.36332
39.9695
16.9953
-22.6982
-22.6282
-16.2474
22.6895
43.9904
37.2027
26.5603
29.3226
21.0007
-16.3975
-20.0797
1.50791
6.69484
-3.51854
3.59975
54.3855
36.6902
-17.6776
-43.9785
-43.099
-18.1577
-6.39954
-4.12574
13.7434
-19.6444
-16.3401
-9.08383
-15.8918
-20.872
-6.16539
2.85318
23.0353
-21.7678
-17.0088
-4.65982
-9.97133
2.00854
37.0336
59.6382
56.5812
2.72191
-8.1377
-8.40189
-7.25533
16.8328
5.55045
15.4292
15.7604
-36.148
-12.3875
-16.3881
-24.6265
1.75056
4.60443
16.0575
31.5517
51.7317
-22.1864
-51.9278
-38.5603
-1.12353
1.82431
-8.59586
-16.5694
1.4029
27.3499
17.5764
-64.4522
-12.5832
14.2924
14.5816
23.9902
42.7717
37.6874
42.8107
-14.5387
-67.3438
-36.5597
-34.2107
-22.907
6.09448
16.4621
25.0856
8.96919
-3.07123
7.98316
1.82896
33.5535
31.8932
20.0633
34.6405
-42.1804
-63.7097
-63.7092
-67.6147
-33.2898
-5.53266
17.8632
42.532
25.42
18.1592
38.2206
41.4641
48.4797
44.9059
16.9592
-1.16682
11.9874
27.805
-22.0313
-70.7167
-36.7159
-27.9164
-25.6503
-18.7084
-12.2074
21.4354
22.6974
-37.0296
-18.2085
-4.42954
-12.7716
-23.7471
-25.7445
21.0634
14.0544
-43.8875
-30.4407
-28.7237
7.86011
21.3358
36.4752
64.628
70.6496
52.8612
41.1389
24.044
37.6623
45.1795
22.386
30.3174
1.49294
-45.2548
-71.3811
-89.0105
-73.1116
-27.1865
-20.2775
-18.3891
31.6135
48.2155
1.96768
-35.8831
-30.3633
-25.4327
-12.8064
-9.57719
-15.1188
-3.92308
34.1297
40.9237
-20.3122
-15.8395
-6.88576
-14.9754
-19.8239
0.0775747
14.8906
35.9576
46.5835
24.7865
68.2992
80.9822
75.7104
94.8219
84.7722
41.1645
10.0216
-65.8868
-110.216
-112.911
-69.8423
-39.4024
-23.9736
-24.2926
-19.4321
-57.0081
-57.1681
-60.4794
-66.7525
-34.781
-9.96008
3.87489
21.0847
-38.0583
-37.6912
-15.967
1.0214
43.4027
59.0968
68.8308
120.118
87.2609
43.9067
-14.6035
3.88884
56.138
57.726
42.1172
18.9048
27.7593
49.7097
-25.191
-56.9441
-37.2314
-38.9916
-32.6816
-17.1315
18.3413
27.0689
-22.846
-35.0889
-22.0759
8.67653
40.1796
17.5595
30.2831
36.8086
-4.07053
-68.307
-91.3554
-88.9322
-37.1854
-20.8508
-8.52278
-9.31628
23.7689
15.1558
-26.4504
-25.0882
-10.4304
-20.3135
-11.3634
4.87226
34.8021
41.5887
10.2676
9.42501
21.5864
30.1045
18.3346
7.57454
41.3891
59.162
67.0761
33.0526
-62.9792
-50.1438
-10.9881
19.5893
55.3641
37.9535
25.8178
23.343
-46.3075
-65.4369
-55.8189
-65.6401
-57.0857
-29.0291
2.33524
19.2437
-33.4075
-40.5711
-24.7511
3.21492
35.1214
25.0077
38.0339
27.8607
-31.5522
-17.6609
-5.41245
-0.624187
38.1454
44.6116
63.9304
12.557
-2.75736
14.2573
6.69785
-14.3737
10.0246
1.8346
7.50776
-14.7671
-8.45483
1.01958
-4.36214
-17.6544
5.54676
12.3312
32.9166
32.5056
2.30682
-40.188
-43.0325
-13.2883
4.51115
-1.52741
-14.0939
-7.27265
16.9534
-24.8181
-45.6722
-26.4227
-10.8341
-10.7857
-12.7892
-16.6834
12.0704
49.279
27.393
-41.5991
-4.99851
21.3333
22.7146
41.522
42.6731
48.7761
37.7696
-12.8564
-21.3327
-15.7927
-24.0511
-12.2651
8.0944
36.8378
-6.08706
-36.8896
-23.147
-44.1142
-39.1841
3.39996
12.8527
46.8852
13.1414
-19.6357
-7.11049
-26.3668
-37.5917
-22.0243
-17.9423
1.28848
24.543
34.1727
-1.19473
-32.3933
-2.21687
22.9174
7.88416
-10.0969
-14.0718
14.5539
45.0538
3.55621
-11.422
3.75892
2.97425
13.6543
32.0227
51.6471
86.7425
56.5203
9.46693
-21.5272
-21.0507
-23.2705
-20.543
-8.92363
2.13542
-33.6918
-29.7322
-32.0093
-47.8799
-38.7947
-18.2593
4.674
-25.3077
-37.782
-19.4977
-14.3058
-33.4564
-8.46578
13.5074
40.2495
67.4334
-15.7991
-5.48424
-3.59638
-8.13873
28.3603
46.4683
50.8663
49.5565
75.9466
56.4257
11.9347
5.66188
7.9252
-17.1073
-41.5773
-55.7368
-47.0834
-14.4996
22.2201
-33.8881
-39.471
-18.1099
-4.50769
-5.05624
-0.25594
-1.98056
14.9325
24.2941
-46.4164
-50.5009
-45.4253
-28.4236
-1.78974
20.709
54.4621
61.3784
7.92983
-6.45327
-20.7558
26.4923
87.8645
73.2405
67.0536
9.11725
-41.4327
-55.0739
-53.5291
-51.3902
-26.5739
-5.98173
22.7782
61.4823
14.8776
-46.5586
-38.557
-31.8677
-9.07933
-21.8068
-32.6801
-19.2806
21.0716
22.029
-39.3169
-17.0874
18.7935
36.1215
28.3547
10.7312
27.6066
49.0473
30.9764
2.17232
1.46387
8.03757
-15.3283
-19.5141
22.1037
30.9762
-0.762813
-3.71733
-6.11703
-7.18688
17.1756
26.5256
53.5469
41.1111
-51.1243
-89.975
-82.0216
-79.5103
-60.5451
-41.8942
-13.6024
17.0798
66.9547
43.5686
-30.6546
-12.9302
20.9937
28.3604
21.4885
11.9748
20.0135
55.4058
30.4252
-35.057
-38.2136
-7.52905
-1.07107
4.37578
0.623554
-13.8992
-8.42535
14.1855
-38.9946
-18.9498
42.2429
29.5404
16.379
22.3928
51.2085
34.993
-32.5368
-53.8396
-45.0552
-12.3579
23.6841
30.1025
57.7502
22.199
-12.6075
-2.24098
1.58745
-4.97349
-1.7446
-3.68368
22.8385
-17.6863
-34.9287
-44.3331
-58.2094
-50.0537
-14.2641
-8.70131
5.88639
-16.8608
-22.0116
-8.33063
-5.66516
19.0214
42.8731
32.5678
70.9636
37.6162
21.9669
10.7364
-6.74859
8.6353
12.9904
0.59865
-20.578
-3.70829
-20.5276
-39.8041
-39.5993
-8.97452
18.0173
21.1646
8.89178
31.1213
36.2873
-4.83361
-55.3883
-19.6468
1.25162
1.95432
-5.95169
2.17872
14.74
37.4863
-4.11268
-58.9665
-16.6926
-4.50183
-6.52736
15.6436
23.849
28.5795
-3.80996
-44.9566
-34.2763
-9.86447
-0.585948
-3.54867
-5.41373
28.7563
17.6517
-22.1719
-15.5293
-20.6221
2.11887
24.8657
31.349
51.6834
77.1
43.26
-20.9348
-30.1583
-18.3244
11.7799
19.3587
26.7536
23.4778
32.6095
9.88046
-43.4234
-33.4928
-21.0902
-35.484
-42.9158
-28.6155
5.97905
-16.7183
-42.5291
-48.0132
-20.4183
17.0643
8.90249
21.4535
22.398
-18.8479
-5.39363
11.0807
5.63743
9.61942
25.3046
45.1668
40.0849
-16.6972
-19.3056
-18.9859
-20.6553
-5.40499
7.15501
40.7543
14.9163
-13.0687
-14.4906
-14.3363
-14.6448
14.2717
40.3085
55.9175
53.3154
-0.0905129
-19.5417
-76.2638
-56.521
-18.5043
-11.3742
-2.2965
5.10008
28.8437
69.8986
0.158705
-30.4146
21.9171
27.175
13.5522
0.299148
-5.4029
-48.161
-58.6682
-57.1787
-60.3607
-39.7836
-5.90826
9.53626
28.9061
34.031
57.7221
64.9367
20.2471
-32.646
-17.1883
24.9992
24.1828
8.47167
10.697
3.40833
-11.4256
9.71912
11.7607
7.36264
45.371
34.5186
37.16
6.59453
-7.5928
-1.88293
-19.3067
-37.1203
-20.4182
-19.2671
12.3217
-22.8821
-71.6489
-62.9864
-49.5981
-32.6719
-17.4127
-25.2333
-33.7521
-3.4561
-5.38849
-29.2821
-16.1061
10.6104
30.8689
38.123
44.2693
71.0952
49.1291
40.6267
14.4149
48.1579
75.213
67.6992
56.5922
20.3593
-51.835
-61.5175
-49.8122
-57.7584
-34.633
-8.37208
24.8712
45.7213
-14.4205
-27.5063
-27.0343
-44.3127
-24.6423
-20.5879
-31.895
-7.53629
58.7061
60.8659
-40.6428
-49.3496
-11.6185
-3.98339
3.6124
4.19486
27.0142
68.7161
42.2741
-20.8689
-31.6653
-18.9217
-13.1919
-16.4542
-3.3076
7.74359
28.0849
40.0496
-28.0835
-36.4587
8.84421
19.2254
39.0076
38.1717
38.0074
28.1422
-26.2095
-52.7334
-56.2262
-24.9679
17.0273
12.7712
26.0222
18.8446
-11.456
-29.0568
-45.0319
-51.2
-26.3397
-11.5102
28.4963
36.0418
-4.85621
2.19258
4.01809
7.97036
27.7462
7.64407
16.0807
28.9855
9.5338
12.9287
-11.2423
-26.0506
-9.01032
2.91998
44.9272
50.0425
-31.3788
-35.2961
-15.6813
-6.8416
23.6705
7.70227
-21.1549
-22.3467
8.16977
-43.4026
-45.6284
-32.4151
-2.92162
-2.72619
8.23516
46.0659
61.5213
1.8742
-48.4981
-41.7509
13.5851
20.9952
16.3064
18.4541
63.2398
57.9784
6.17134
-24.4776
-33.2362
-1.34224
-8.07861
-9.06065
5.32129
31.3928
-19.1144
-34.8626
-27.0281
6.00914
7.97835
0.492773
20.6288
28.3121
-21.184
-21.4156
-36.0073
-42.6201
-15.3896
5.87836
36.5074
71.9684
-7.24049
-64.6847
-50.4172
-34.5586
15.9695
39.8002
46.5274
52.5198
59.6651
5.41214
-11.2923
-16.5859
8.17031
0.65421
-16.4998
-10.3338
12.6377
-38.8494
-49.855
-40.9708
-7.63257
27.7237
25.2642
11.4711
-18.0485
-44.5756
-32.7571
-21.1322
-27.2583
24.8601
84.5873
91.1029
22.7041
-3.29987
-0.24779
0.707776
