58.609
-5.44048
-9.50917
-36.2138
-54.8402
2.04295
-16.0377
-6.87538
86.7861
-2.54406
-74.2327
-74.3814
-58.1035
14.2874
19.016
2.78354
22.617
166.226
98.5953
-82.5867
-64.5327
-36.1081
-52.0975
-45.6267
-34.007
74.4592
48.1849
-42.0189
-158.076
-60.6661
15.8127
22.1227
37.5968
77.6042
112.921
177.078
61.4887
-119.69
-85.7213
-37.3234
-47.3764
18.933
69.7162
103.911
42.3884
-83.464
-77.0972
-55.9713
-18.5738
-10.9051
21.4751
65.6426
35.9771
-76.3603
-62.1899
-78.4057
-13.5688
65.4029
80.5859
125.15
150.301
87.7794
-70.0161
-120.092
-39.788
119.138
94.7885
17.5309
-90.4302
-210.643
-301.227
-314.074
-157.344
53.3645
103.005
76.9036
119.259
196.466
65.3738
49.15
36.6864
27.2886
61.9652
18.035
-11.1229
-17.0889
-40.5529
-47.7171
49.0503
99.1464
143.534
139.234
68.0178
62.0351
-8.66808
-97.016
-97.1904
-114.835
-50.883
-20.4787
0.360019
21.5112
28.9492
-119.674
-144.046
-204.615
-158.052
-94.7131
-51.7592
48.248
164.302
188.755
76.6923
27.2214
19.1448
29.2413
4.9001
-30.2208
-14.5168
1.55398
41.3659
-88.6054
-88.3695
10.792
6.37429
-3.78902
18.1388
53.5102
125.461
172.988
21.1177
-32.9622
9.42184
-1.8811
-23.799
-11.2994
15.9848
84.6081
9.93979
-60.136
-121.53
-64.6348
-6.37627
61.3561
136.257
161.807
19.1817
-61.9206
-86.0516
-143.668
-177.271
-132.604
3.24904
40.28
-108.556
-93.2303
-76.3475
-79.8374
18.5271
85.6126
102.754
149.449
151.446
117.539
112.355
35.0851
24.506
-22.9247
-127.711
-148.826
-19.4927
64.8885
-4.01182
20.4076
102.784
76.472
57.0912
35.6066
45.4394
87.9617
-56.2354
-126.078
-124.861
-82.9017
-89.3406
-51.0189
68.1114
142.324
-15.95
-110.01
-72.9161
-44.9367
-52.9652
-51.3174
9.40607
56.6779
-20.9644
-37.0234
4.04676
-12.3743
33.7687
20.5837
-8.4419
-12.5064
35.6366
23.94
-106.049
-89.2619
78.1532
163.437
145.838
98.9166
84.4159
112.87
77.2934
5.41085
-51.2692
-56.5128
-75.0759
-84.5744
-26.5047
-7.81935
-13.3125
4.625
-137.715
-127.76
4.41105
11.2964
37.9433
62.7426
76.0898
52.5861
-51.5488
-74.266
-69.3065
-61.1453
25.0776
58.9315
122.252
46.775
-46.5517
-44.3145
-57.4063
-95.704
-40.614
16.4618
84.265
35.9911
-33.6797
0.586467
7.28078
22.1308
60.9271
5.85074
43.5182
25.1263
27.4721
-14.7219
-43.0105
-15.8633
40.0438
18.1719
10.1808
14.2472
87.0887
15.8663
-84.9791
-94.929
-52.8207
-62.3658
-54.5741
-27.8916
20.5873
69.8046
81.6061
-2.24841
35.0706
47.567
14.5695
0.525312
16.2305
40.7313
80.5098
-58.904
-161.537
-129.118
-89.3962
-40.8272
33.0202
91.1078
83.7665
80.0138
-22.1325
-81.1342
-53.9606
44.834
68.8381
27.1098
-2.10543
30.2625
-88.8205
-101.346
-61.6652
-54.4237
-15.6153
24.0847
29.193
80.2251
153.973
18.2892
-22.3066
-40.0733
18.4008
54.4322
25.4709
4.63323
58.9959
10.9262
-22.4788
-65.1026
-48.6622
-15.6025
11.8564
1.10681
1.4948
19.8614
104.33
42.9378
-54.1658
-38.7922
-3.95215
-36.7332
-24.8952
3.81712
20.6564
35.652
-22.869
-62.8397
-29.5145
1.7556
23.1228
27.3637
12.3419
31.0039
-2.02229
-35.5801
-72.8278
-31.2578
-13.8445
37.9242
61.6575
61.4424
-56.4184
-57.8331
-33.3995
-57.479
-71.8189
-16.8881
-10.4574
65.4924
94.359
-33.0262
-61.7908
-54.2897
-22.5403
19.604
16.2321
39.9276
71.8044
170.273
96.5876
-2.97723
50.5178
33.0974
-50.3954
-101.282
-74.2562
69.5768
145.152
21.5141
-36.2743
15.5948
-18.1511
-58.6171
-32.1106
-17.2339
11.0147
-75.4007
-85.2535
-84.4665
-52.2798
-20.3328
9.67608
38.1335
83.101
22.973
-0.650814
-41.6942
-88.9018
-44.2108
-14.1419
79.598
162.719
54.3338
8.48564
17.6829
-32.7179
-8.40031
22.527
-3.9025
4.95024
9.70715
-59.686
-56.0871
-42.0256
7.84391
8.17865
-17.9885
-30.5736
55.1038
133.427
-40.7385
-136.615
-48.3089
5.69267
4.90939
-11.0264
0.869642
46.1335
111.256
5.904
-34.1057
31.7817
56.0214
66.0226
75.9184
51.7508
25.4529
-113.572
-179.31
-184.152
-83.7743
9.27491
80.1865
138.674
159.631
79.5137
61.2986
-12.2924
-113.233
-84.8275
-83.2895
-56.6503
21.3849
6.13887
-105.334
-81.9195
-68.9472
43.0582
105.999
86.6839
83.3982
152.359
140.54
-77.3336
-99.822
-23.5587
-14.3895
-12.8783
-7.53502
19.6122
85.4361
84.7213
-97.3361
-99.0417
0.550722
4.51194
-18.0092
-32.9791
-19.7177
-6.3278
-72.8159
-89.7337
-84.021
31.0257
23.7592
3.19191
46.1641
107.22
4.28179
-14.4243
-2.63411
-2.22862
46.9377
13.3082
-17.0864
-22.0179
24.7955
-19.4796
-71.6066
-60.5345
34.9318
49.7888
19.5214
35.3074
56.0388
136.242
60.4917
-64.2531
15.2047
38.4773
-21.6185
-76.2154
-57.8759
18.0541
142.791
19.9284
-105.226
-73.9008
-23.9206
-37.9903
-49.4614
-50.7268
-15.2998
11.4716
-32.0815
-50.8062
3.36839
66.8107
47.8988
27.2634
120.839
129.286
-35.6565
-80.9695
-77.4542
-18.2187
7.57382
3.68501
23.4905
-37.8597
0.280698
10.8374
-14.0488
-10.2447
-34.8155
-79.6653
45.8654
28.4858
15.6252
36.6918
1.21572
-19.051
39.9903
32.7083
58.9709
27.8559
-38.1398
-140.859
-112.667
-25.0639
23.3978
54.8847
59.662
63.881
69.4099
-4.2677
-9.31071
48.826
33.9025
-13.5619
-43.7468
-83.0706
17.4472
30.7044
-132.741
-101.253
-18.6176
80.017
56.0036
45.307
13.6274
33.5364
93.581
-4.60565
-60.7584
-11.4875
-40.3504
-36.6737
-5.55812
22.3201
101.575
50.0214
-87.4429
-118.492
-68.4189
-0.372345
41.9365
72.3033
67.753
29.079
-34.2055
-47.5956
-37.1534
62.2314
70.3887
-18.3996
-28.0893
108.684
26.5035
-115.756
-99.6264
-34.5993
26.4972
27.0393
-4.00544
-0.221777
80.3517
66.7059
-64.8915
-98.9147
-30.7718
-47.1867
-71.9099
-13.4345
55.3117
170.224
84.4536
-116.308
-109.04
-89.2917
-104.087
-33.8488
57.198
155.233
137.971
58.6851
-53.2337
-92.0081
-82.9006
-6.63151
50.1202
118.539
85.8559
7.66048
19.1062
-7.78537
-3.79417
9.07108
61.174
169.774
70.1029
-19.8843
-39.0477
-93.8132
-54.8303
-42.1368
-80.1914
-57.6815
16.3479
68.3616
-18.9915
-58.8813
-36.4974
-44.8229
-93.9325
-72.4471
-24.2495
60.1834
173.578
39.8234
-52.027
-81.9956
-103.259
-113.187
-82.0367
13.7151
133.459
256.589
126.545
-28.5538
-56.4725
-100.329
-100.581
-48.042
31.9201
80.8654
19.0103
-41.7538
-44.4575
26.4101
95.9599
118.714
94.8663
56.1934
-35.3187
-26.2733
18.2455
-28.4843
-23.5185
-19.4375
-56.1033
-100.021
-141.895
-23.4889
70.3712
60.6828
71.1961
71.9126
39.3563
77.7347
105.498
27.1354
27.924
25.4121
19.5839
-53.7904
-122.417
-159.893
-61.3042
-49.3298
-57.0608
14.4272
10.7922
-47.5925
-50.9906
-40.7548
48.496
30.9705
-24.8752
-39.5691
-11.639
60.2361
61.7615
33.0651
53.5749
-30.32
-77.7514
-89.8578
-50.7257
18.1481
42.0845
78.4585
139.045
92.5088
-66.3838
-78.1135
-63.9049
7.23346
52.2047
52.0593
47.6103
18.166
3.16428
-67.4068
-64.6794
23.1285
39.4546
28.0769
6.91839
0.115964
1.6612
78.8052
-13.9027
-32.5914
72.8267
61.747
32.7648
14.5063
-7.16398
4.41957
11.0694
-120.082
-122.479
-96.8529
-86.0719
-36.1655
-42.1588
39.488
59.8411
34.4318
51.7557
-65.5102
-8.94782
39.1128
37.3998
88.8791
70.5883
-13.1936
-18.5294
-47.9158
-53.5647
51.1954
14.2921
37.0391
7.93787
-35.1947
-61.0366
-105.078
-120.018
-40.9446
26.8087
83.4695
72.2903
10.4484
15.8879
2.05396
-10.6399
76.2814
96.9239
28.8917
-0.30831
-54.9058
-103.778
-68.1961
-0.905703
44.9339
37.3636
-28.3971
-73.7785
15.45
97.9925
34.6367
51.7037
60.3961
60.7721
-2.12525
-64.0826
-55.784
8.92289
6.56588
12.6243
57.1655
29.2691
-13.6278
-31.9947
-47.4252
-19.6681
-1.58267
-72.7551
-91.4033
-110.7
-80.9214
-70.1776
-9.21887
52.1926
54.2872
18.1252
79.5597
48.9561
37.053
-17.3591
4.77289
108.296
99.4526
-52.1915
21.1771
32.2009
-72.7355
-64.879
-12.9258
-6.60786
13.0613
164.288
44.5034
-110.644
-155.436
-85.124
-48.7847
-15.6461
4.54616
45.951
162.24
17.8387
-45.4414
6.81868
-26.4529
6.47379
43.0231
115.24
163.217
-21.5701
-132.484
-99.7031
-25.6183
-19.9303
24.0771
88.1538
92.2254
23.4328
32.5806
7.75605
-74.235
-57.2478
-55.8787
-10.7722
18.1725
-68.503
-30.3019
-12.3523
-60.3331
20.2541
56.3267
8.61787
14.9778
-6.03927
12.3834
18.2315
-32.166
-8.86196
1.70002
-5.07746
22.7548
106.732
-20.5147
-137.4
-170.32
-75.2602
-61.0296
-60.8327
-45.5831
32.4131
125.222
90.6816
80.7292
138.673
96.7416
61.2
-2.63412
-13.56
40.032
41.3741
-111.714
-157.946
-24.383
103.937
69.6487
35.5864
51.6257
93.7631
-32.2683
-44.2847
-68.3654
-83.0064
-66.9864
-53.0902
-28.8137
-5.43097
24.9336
71.72
-0.577832
-89.616
-41.408
10.6401
171.246
86.5479
37.3629
-96.4211
-77.4079
-67.4425
-23.5947
36.1678
-12.5799
-15.2784
29.3333
-33.0405
12.2552
100.995
102.861
27.9378
-61.0172
-63.4884
71.3749
-9.37123
-124.063
-107.839
-117.988
-11.7898
49.495
160.767
290.475
71.7499
-14.9106
-88.9898
-204.082
-112.37
-73.9213
-64.5282
12.0695
-11.7513
55.192
98.8496
125.972
135.286
53.4892
42.98
49.9043
-72.118
-188.577
-267.183
-220.346
-46.9262
4.5803
52.7134
146.006
199.663
216.33
92.9767
-116.561
-29.0169
55.1016
52.7647
-10.7475
-26.0933
-33.5677
28.5126
52.6713
83.7768
103.628
23.0873
-115.534
-159.28
-110.663
-27.3193
70.7444
25.6771
-51.7236
-93.1635
-48.5607
-37.2354
-0.305097
82.374
156.141
-12.129
-129.267
-160.66
-145.486
-36.1206
9.55225
12.52
18.8228
-47.2212
-46.4337
72.0756
167.275
167.951
120.726
57.535
83.5118
4.06423
-46.8208
-86.5972
-123.963
-2.94582
87.759
121.612
165.809
39.5945
-75.0859
-34.0674
-51.857
26.386
-14.6896
-155.489
-176.339
-23.2296
8.51275
-61.3533
-69.8315
7.01088
54.2365
27.8258
-14.234
69.9818
152.437
28.1533
-104.546
-38.5718
13.0034
-39.7495
-46.4503
68.1244
200.968
157.161
-54.2738
-117.982
-148.629
-66.8514
40.2465
101.596
68.1771
13.9675
-57.3713
-100.106
-51.7649
88.0034
54.6366
-27.0796
-71.9736
-79.1452
-203.675
-217.112
-211.633
-102.833
97.7437
142.42
242.163
279.232
226.917
154.174
-0.657334
-1.30591
15.7523
26.9252
-51.7635
-118.907
-42.6856
82.7857
55.2415
-11.7973
58.1845
45.3783
8.69471
16.8828
0.171232
19.888
-8.83955
-90.247
-108.886
-118.972
37.1882
79.0481
-0.276255
-90.9632
-237.535
-347.277
-216.947
-75.8043
77.6445
123.252
100.083
166.745
154.051
83.351
92.994
35.6623
-14.7573
-9.93314
-41.9947
50.6468
-2.74475
-130.346
-43.5602
-11.6914
34.8336
105.109
56.2002
72.5887
58.1637
42.3623
-54.5777
-48.0791
-41.3624
-10.9859
26.7259
51.9642
74.1316
103.535
-57.6973
-145.192
-104.375
46.961
78.2131
2.32687
-62.6781
-62.0464
-57.3042
-133.726
-215.755
-124.671
28.1811
72.162
105.841
116.841
103.108
29.8131
-77.8151
-48.1437
72.3763
91.8453
74.7716
29.7957
30.8657
-28.3274
61.538
121.966
75.4358
22.6941
11.1947
-40.1718
-10.286
-6.69431
64.6483
37.8648
-67.0204
-232.476
-301.198
-305.263
-166.289
-78.7937
-36.6116
-42.0162
19.1909
138.353
150.806
159.162
140.451
179.891
176.699
55.8074
4.10189
-3.2505
-47.558
-38.2531
-9.07955
143.284
233.708
139.586
73.9952
16.6752
2.98876
-44.939
-118.449
0.984927
-21.1014
-159.106
-147.558
-164.395
-160.398
-142.405
-137.122
-81.5051
-93.0055
-136.854
-64.2018
-1.73995
74.0715
172.53
173.499
176.894
151.845
17.7133
-61.5054
-108.391
-75.9547
25.9271
21.4514
0.285982
64.962
148.806
86.3418
-1.72028
-33.5244
2.94022
-0.747308
-33.4009
-3.86553
69.2823
111.533
38.1348
-63.1622
-9.77229
-19.2291
-48.677
-105.587
-46.629
77.9073
186.095
70.8984
-39.5847
-60.6506
-150.279
-193.072
-115.555
-19.7949
97.8003
30.8298
-20.2933
-97.3514
-83.8688
-22.3491
44.7866
146.322
136.794
24.3471
-78.6337
-115.846
-118.085
-11.7054
79.7658
186.88
135.471
71.3136
34.7834
-0.141732
-35.9298
10.1669
22.0169
63.0857
77.1155
82.8777
-12.777
-116.968
-124.014
-58.5576
-6.55705
-23.965
-8.83483
52.2905
-65.9708
-192.028
-117.04
6.47895
37.0454
54.2151
39.8367
72.0435
37.2213
-42.7257
-25.6713
22.495
78.3846
62.6254
36.358
104.77
70.1585
-82.966
-167.644
-124.207
-42.1088
16.0243
54.4407
67.099
50.6614
120.71
52.6952
-103.465
-80.8205
-50.1543
-45.9127
-11.0211
17.6806
55.8061
75.2828
-75.3939
-81.1417
-16.3107
-22.6854
-80.7142
-54.4619
-7.46779
36.6894
120.057
74.8519
-134.394
-78.532
39.2539
66.5819
63.361
46.9269
70.5556
96.7613
0.62002
-38.7397
11.414
19.9039
-7.45523
-25.13
23.6477
81.468
-10.9057
-92.9872
-191.707
-145.985
-2.47733
36.4199
108.295
158.408
98.9972
77.279
29.869
-74.4664
-96.1962
-83.7268
-28.2641
38.6209
-26.932
-70.2145
-69.2329
-89.6367
-31.5784
19.1182
141.64
186.444
17.6738
-59.169
-76.0193
-124.678
-92.4268
-1.77427
44.6508
138.427
200.421
11.2972
-54.0751
-48.8482
-3.93792
14.7704
-13.8561
-7.62631
92.4315
82.1416
-42.5228
-197.628
-84.1511
-37.4452
-17.3775
19.8226
77.4214
54.6251
73.1796
61.1765
-87.6249
25.3345
57.8954
28.6245
65.8036
49.5458
33.2671
37.1235
-147.915
-177.468
-148.417
-73.6421
-23.0913
23.1089
121.333
29.1809
-39.6166
-42.428
-44.7734
-45.3718
-0.201078
79.2464
138.409
148.235
-36.552
-66.3678
-64.0394
-56.2409
10.6967
23.7892
45.7617
71.0954
128.292
30.6074
-37.8613
-20.3251
-5.34084
-27.3364
-50.3903
-25.8368
38.7929
-4.11775
-43.3034
-77.2157
-12.6499
8.22107
-10.352
-15.5519
34.3226
-38.413
-19.7229
-15.4053
-53.3816
13.9682
27.1886
81.726
126.228
-5.45309
-83.6681
-88.0138
-89.479
-54.6573
-21.7851
57
181.426
75.6254
18.5175
7.08001
-19.0043
-20.4132
-17.3942
26.8634
134.685
40.1771
-87.9869
-71.5032
-16.3765
52.0804
70.7214
51.0755
33.5606
39.3442
-19.398
-186.758
-196.546
-92.7198
-27.5719
-18.0985
-26.4343
10.5635
132.563
19.2927
-137.392
-83.3094
-19.5943
37.0758
73.1389
118.087
143.24
126.401
112.63
70.5679
1.00127
-1.8771
-46.0395
-50.2379
-64.0455
-82.9904
-25.2458
30.2374
-87.7104
-51.8467
-40.2983
2.815
50.3333
36.1713
14.9991
-24.3254
-64.8931
-19.1311
-18.1644
-7.71775
31.3414
25.5657
28.4885
49.0425
-15.8383
-107.231
-90.4255
-45.0752
45.4543
107.849
91.2805
62.4752
42.3396
41.9193
-64.0719
-37.3212
-11.7651
-18.7506
-47.633
-36.6422
30.7083
60.901
-4.59203
-8.01715
39.9371
59.1292
-16.8316
-84.3241
-69.4331
-6.60208
-25.9176
14.1656
14.4776
-16.6736
10.0919
23.9041
69.6689
110.384
23.4414
-37.976
-25.2405
-34.8069
-21.669
-51.2314
-52.2709
2.8985
48.7346
85.8696
-3.37095
-29.9311
-10.4306
-13.6783
-37.4894
-27.4881
63.3605
73.6238
-106.494
-169.322
-60.5183
34.6621
41.9588
43.9201
72.9505
42.5588
39.5013
-14.8346
-36.9025
-16.1892
64.4799
40.7075
-36.7396
-54.9565
-12.548
-65.3416
-27.4316
8.37838
104.992
160.882
179.052
108.161
49.91
-73.6171
-127.996
-164.717
-181.261
-134.568
-71.261
-9.19587
71.9802
27.2707
71.2076
45.2129
-3.14876
19.9684
-36.5779
-34.5104
31.2705
-48.4831
-42.5075
3.48273
45.5422
101.633
94.2
102.123
73.1835
39.6019
-3.57075
-67.657
-126.501
-74.3713
-61.2653
-3.48228
19.2236
70.0313
48.4306
-57.9645
-31.6527
37.5069
21.1311
-16.2654
-39.0699
18.9393
98.3201
-70.9911
-91.8525
-45.2808
-67.3452
-66.9831
-64.1022
-19.0581
50.7242
187.79
49.468
-23.0244
-0.339761
35.3588
20.9044
15.4505
47.2257
111.97
13.249
-39.7196
-61.8988
27.1944
30.1923
21.8604
15.2056
40.8458
-87.0978
-69.496
-42.9528
-86.9132
-18.474
16.1643
40.6728
104.687
61.928
-1.64771
-87.3748
-130.364
-47.2969
-68.763
-74.5868
-43.5981
-43.3988
22.5222
40.7303
71.5837
93.7971
69.0462
10.0477
-20.6919
69.107
86.8627
-38.1922
-62.398
-20.6719
46.1739
94.9468
87.8103
183.445
137.384
-50.4263
-71.6991
-114.276
-121.129
-93.9777
-153.778
-83.667
-34.4345
-19.8178
47.7883
80.8027
54.6417
7.46801
-120.908
-70.5717
26.0405
44.4178
38.6668
-24.6165
-39.4722
7.02965
12.3409
97.6144
224.264
145.804
-45.1213
-32.5761
-15.8191
-46.2956
-123.974
-145.601
-89.8106
77.6006
123.716
28.0556
-37.8308
-26.3765
-30.8525
-29.0546
-7.41235
60.4451
133.892
4.55769
-109.663
-77.5904
2.34213
11.167
20.1898
49.8563
116.276
97.5067
12.529
-107.28
-132.561
-80.0334
-55.0764
2.67038
45.9934
-71.0222
-54.1223
-13.8556
5.40318
80.5528
75.8264
95.2139
120.521
-18.4838
-44.9769
-53.3107
-72.267
-44.2558
21.0016
95.3712
202.141
168.57
40.5193
-52.3023
-99.2877
-43.656
-42.2169
-58.8217
-99.914
-60.9584
-9.91039
-118.815
-68.4453
3.79318
-6.94498
-10.8693
-26.9249
44.1588
109.76
10.9019
-45.113
-15.5601
57.8759
104.878
81.519
120.637
109.659
-120.235
-135.275
-82.8339
-58.3246
18.3264
14.545
7.95636
53.7218
42.8678
-64.9246
-54.4564
-122.122
-69.1592
-13.6274
11.8051
47.4839
81.7767
56.1267
-44.0604
37.3327
150.976
110.386
34.8423
-62.8115
-69.8294
-52.2748
47.8211
51.655
-12.5811
17.4248
-3.749
15.7268
84.4535
138.333
91.0659
60.0253
-161.425
-324.011
-239.598
-178.579
-77.4985
-1.83559
40.1254
100.152
102.514
37.1121
-4.13689
-33.8682
-7.93369
32.4122
59.273
141.176
26.5975
-69.7123
-38.6168
-5.90313
117.308
167.163
128.51
75.4406
-14.8761
-63.1758
-63.8354
-67.5089
-48.9134
-67.8187
-110.033
-65.5006
-69.1357
0.449362
29.5645
-16.7887
65.1983
62.1106
0.468933
11.47
87.9775
18.8869
-56.4637
-76.1168
-26.6517
11.2392
-31.2258
-73.6066
6.55332
27.7762
-58.6326
-44.9837
21.031
26.2931
24.1509
27.7487
130.279
131.214
-16.5906
-83.3983
-51.4063
56.9819
97.8988
33.3381
15.7211
26.155
96.6771
12.453
-177.077
-160.64
-68.9059
-42.4665
9.38254
27.5026
78.951
17.32
-77.4671
-83.2144
-2.47769
34.5205
52.0852
92.7561
172.392
168.605
-51.9573
-150.47
-256.685
-206.638
-47.4425
42.6736
61.3357
65.9995
79.4115
-77.3594
-62.559
-16.2368
8.45163
36.0511
86.5591
114.268
144.579
60.9136
-72.6468
-65.5809
28.6232
44.0346
68.4309
83.5525
132.321
75.8791
-39.7605
-78.9218
-113.28
-69.7685
-133.46
-124.788
-76.4982
-93.195
-25.5981
19.8919
-16.7163
-0.934319
19.5019
51.5155
115.015
99.1124
65.6547
1.6702
-74.5544
-98.8363
-60.0622
-25.2811
35.9365
24.9906
20.433
47.2463
39.0503
64.8884
58.9782
22.8018
0.334728
84.6028
29.7645
-133.353
-143.442
-105.382
-61.2821
37.6483
70.2882
38.2617
83.2499
24.1945
-125.074
-40.7609
8.8371
53.3628
67.6145
66.7774
43.1177
23.2845
-101.551
-174.993
-90.6282
20.8093
49.287
54.6875
71.7402
127.537
-9.27473
-60.7986
-99.9664
-68.8606
38.6556
60.203
69.1923
9.11039
-81.8137
-88.9177
-73.2741
-72.1632
-5.81571
53.4487
95.7929
173.283
136.495
9.29656
-31.4733
-92.742
-38.2416
-16.7557
-15.2356
-28.6219
41.3521
93.4821
-41.7344
-31.6894
29.7506
37.162
6.94607
-13.0853
29.6208
111.027
43.8814
-106.196
-62.1855
-11.348
-66.9285
-131.428
-127.364
-56.4272
-98.3025
-89.2437
-0.194233
8.62044
98.3059
100.953
101.99
127.315
77.3023
66.1919
34.6057
-37.5053
-80.3611
-0.853352
75.8969
139.552
24.3747
-93.5475
-50.9713
-48.3758
-49.4016
-60.5808
-59.3805
-43.7987
34.6252
-0.460243
49.4675
61.8741
56.9849
7.75582
-19.0223
-70.6614
-69.7408
-5.56569
-16.6934
-82.7617
-40.0981
29.4418
51.9638
54.4981
98.6842
84.6062
84.9574
31.2922
-125.455
-77.1892
-45.8702
5.18944
79.167
91.2332
78.4559
1.86794
-151.649
-160.26
-108.094
-4.77873
101.682
109.702
93.2341
37.0494
-28.514
-50.3137
-78.7811
-80.702
9.28271
70.6481
116.657
28.5849
-114.892
-107.368
-82.1393
-23.1401
80.9893
73.3409
43.4405
94.9326
-45.8004
-102.043
-45.4117
-3.31647
33.856
27.6334
9.86739
24.6587
138.319
24.6415
-172.225
-199.248
-57.5705
29.7319
80.9229
121.433
172.556
176.296
12.0683
-118.363
-77.6704
-77.702
-79.7882
-60.4387
2.66411
89.2728
-32.5324
-80.2484
-126.302
-49.6781
57.808
116.693
101.123
61.5115
103.387
58.0652
-7.08808
-39.7433
-34.5999
-58.2772
1.13669
44.3019
84.0814
100.327
-58.5882
-114.008
-56.2377
-50.4462
-58.8728
-12.1306
44.7954
41.6739
-78.2916
-151.923
-106.323
64.0686
122.734
68.9381
57.4116
30.233
-1.00931
-29.7291
-73.487
-114.067
-33.9023
-21.6648
24.8565
86.2867
122.137
10.4522
-8.00946
5.01651
58.5399
71.4832
28.2107
5.43372
-59.5095
-82.717
-45.8471
-14.2083
23.484
38.9617
17.1238
49.9925
0.866331
-58.1792
-28.2664
-50.9839
-80.7649
2.39049
24.9336
74.0858
36.0757
22.9407
31.0697
4.40278
49.192
11.7548
-25.1932
-24.2689
-10.3162
-125.637
-170.991
-117.279
-12.157
0.868768
-12.1207
10.955
48.568
150.413
115.325
38.6116
109.329
107.978
29.2272
-20.5137
-17.5511
29.2981
40.8103
-27.9111
-90.945
-48.4861
-1.85389
-31.3651
-25.4707
0.496053
9.55102
67.0045
55.2853
-97.7767
-130.527
-108.644
-65.5575
-21.0857
12.7925
54.6166
39.986
-50.697
-29.888
2.17069
40.6097
79.0097
55.6393
88.5084
87.4654
-24.1544
-29.1833
-45.1675
-27.9358
38.2573
18.2644
63.547
89.2433
-14.8153
-124.406
-157.997
-107.402
-55.2679
-30.9666
47.9094
104
161.004
61.9365
-78.1537
-122.625
-52.2684
-17.9654
-11.2277
-35.2973
28.9648
12.4018
28.7921
52.0928
91.2382
108.375
98.2673
92.6297
61.6822
-1.16781
-43.9425
-61.5216
-55.1954
-7.78569
-0.595105
20.8216
19.8154
-47.8045
-80.1917
-148.562
-150.538
-67.7771
-39.2967
35.7307
62.5694
-7.5948
29.5638
11.6437
7.97012
34.4384
8.10404
-38.6411
-62.9578
48.9597
107.911
-39.3893
-46.6032
-16.7437
-0.567353
25.1837
50.6897
56.1455
84.2311
64.5506
-64.5497
12.2948
36.0143
70.6709
85.2766
52.9637
3.92281
4.56501
-12.5961
-146.693
-152.432
-49.9824
-24.4284
8.0797
30.8568
139.282
157.105
-31.5501
-116.306
-195.87
-106.265
-33.6772
-18.2822
23.5949
37.1153
10.301
13.0176
18.0672
38.9682
45.9921
38.1007
102.074
28.6336
-20.949
1.63106
-91.6421
-114.244
-11.5359
-30.062
-3.77354
6.73397
-73.0357
-39.8464
-35.079
0.711153
68.1278
87.4818
57.5387
67.302
39.5649
7.10397
15.1325
61.7217
33.395
-2.52942
-9.45127
35.2016
-11.41
-23.608
-17.7248
37.4188
111.656
72.0711
36.769
68.0228
-77.1013
-173.408
-145.857
-154.038
-130.407
-81.0839
-54.5323
-4.22021
69.5574
80.4576
14.0432
-1.67906
58.2883
49.426
25.1866
45.968
113.832
86.2129
2.54683
-58.5559
-4.08108
29.179
34.4553
9.77301
56.2625
29.0673
-112.769
-144.891
-117.967
-98.9912
-71.7614
-53.9202
27.3234
74.588
107.207
39.9408
71.7621
16.8454
-20.6389
-79.0315
-29.4418
51.662
39.7205
1.41243
65.507
120.551
98.9451
7.18284
-117.494
-94.5766
-86.7552
-75.7236
35.3131
65.2855
22.5652
13.1355
-43.8166
8.65198
-14.6716
3.7354
69.1315
46.0288
-1.48214
-21.4691
-26.6368
14.4637
21.5796
-45.1941
-12.1654
16.7292
44.1256
2.27905
-97.7678
-65.4308
2.93202
-88.5622
-77.5098
4.30396
68.5656
52.1674
45.6164
27.7846
31.9559
69.0408
-26.6492
-95.0973
-44.7932
33.652
48.1217
36.6882
41.9128
42.8603
112.313
71.8156
-57.1639
41.695
21.8844
-28.7063
-22.2787
-43.5796
-1.83877
-35.9777
-125.653
-120.829
-85.0794
-66.1793
-24.7933
17.8375
37.3633
36.8256
-28.6241
-14.463
-8.33487
-15.8893
23.6986
52.9513
111.516
135.273
48.4029
43.1051
-13.2365
-46.9189
-40.221
-40.244
-7.72328
-17.5682
-23.8453
-64.675
-95.1494
-50.6487
63.5106
62.1883
32.6296
53.6878
158.926
42.9381
-55.0784
-67.6198
23.7287
26.4281
6.38863
42.5337
110.075
-36.0915
-102.135
-94.4323
-10.5055
74.8014
42.3262
-17.9794
-74.9863
-163.169
-92.1937
-32.3736
-87.0211
-65.8314
6.88298
59.6889
113.578
74.2681
45.1171
32.4743
-19.1473
65.9006
70.4028
94.6873
137.121
8.19918
-123.197
-96.8793
-44.8619
35.9705
36.6837
-11.4412
10.5548
135.598
116.068
-55.0908
-40.2961
-11.8735
-14.6418
-27.4705
-51.8578
-30.7331
56.9727
-67.692
-224.22
-177.275
-62.4501
-29.0314
3.1565
8.99116
-3.76916
43.1338
105.41
72.9078
28.6779
28.268
-32.8493
-85.2608
-77.95
62.4776
69.3043
-47.1004
-100.514
-35.7696
26.544
77.6084
125.696
158.915
115.272
17.4065
29.0094
22.6915
-1.13787
8.04422
22.9388
109.723
3.60011
-18.8215
-5.38399
-61.311
-74.7096
-35.6679
-58.7044
47.6482
30.5029
-107.322
-75.2662
-85.0157
-20.9469
72.8588
49.3418
11.6016
18.8553
10.4944
-77.2494
-90.1124
-18.134
18.6088
16.3773
4.54627
47.4302
54.2633
-29.9011
-75.2483
-52.0977
21.3462
33.7153
1.13378
45.1518
79.0661
-104.633
-140.804
-111.972
-65.9369
-42.4525
-60.9813
31.5693
117.98
102.736
50.3594
49.7937
56.5662
13.5954
-62.2149
-25.526
137.91
152.363
34.4879
-41.099
-58.9602
81.5027
103.945
25.8645
33.9752
88.6985
20.7075
9.54305
-31.9863
-73.1663
-49.156
-63.8915
-27.2917
61.5795
28.7518
-111.211
-169.289
-200.543
-123.026
-52.8184
-6.0441
82.7616
55.4967
57.6313
49.4573
11.763
17.1525
1.016
29.5414
45.7949
-24.2102
-66.197
-66.6977
-39.7376
-28.4032
29.3009
82.2906
89.0535
23.1624
-2.19601
26.3818
36.6317
-0.536935
-4.90223
70.8028
-43.8655
-89.9848
-28.8745
8.61507
-5.48465
17.2275
13.1282
37.8725
61.1807
13.812
-2.68083
-43.2866
-48.9013
2.16159
12.6278
-28.3577
-1.20472
99.789
68.0707
-40.8061
-9.46923
23.4653
-1.2008
-40.6876
-39.9481
-4.04692
63.5708
77.245
-113.042
-106.326
-17.8323
-3.58503
-0.459976
20.3771
37.6536
24.2227
-79.181
-112.864
-85.587
-37.4071
7.41031
97.8472
123.319
125.037
9.47268
18.9047
-22.2422
-60.8436
-25.4589
-1.60152
20.44
61.7452
14.8197
-25.9997
-36.3164
-89.8449
-75.7731
-38.1116
-1.39991
83.8901
29.8883
23.5105
38.5075
37.1376
59.7619
39.3069
35.9872
50.4467
39.4052
-27.5299
-33.5022
-85.671
-85.524
-76.0153
-30.8802
85.9739
160.041
53.5023
15.7201
-41.8876
-0.319002
-13.0075
-43.907
28.6778
-37.1762
-78.2195
-71.0297
-82.2394
-44.7453
6.062
8.66213
21.4262
-13.0065
-16.9379
-23.7651
-70.9629
-78.4979
2.04654
84.8857
143.075
128.7
81.4248
-62.1289
-95.3477
-36.7111
-20.6632
-34.5576
-27.1408
26.151
95.0719
54.2761
28.309
23.4394
25.3847
-2.7539
-50.7654
-62.0414
-20.6936
-20.9783
-130.311
-70.7449
25.6049
146.824
140.39
139.685
128.612
115.065
75.9222
-78.2021
-103.702
-75.6176
-70.3392
-18.9628
-8.68027
54.3127
42.5444
-79.9568
-82.6766
-113.448
-65.4216
-14.7913
1.04246
73.5005
-28.7892
-101.951
-11.4873
28.9243
47.974
106.738
36.3941
38.4601
-112.485
-201.396
-155.966
-109.837
-16.0442
97.4434
133.934
179.646
236.254
45.7618
-26.642
-60.5539
1.48405
58.9423
3.09241
-43.1373
-47.0965
20.9209
-54.5241
-70.9315
23.7667
87.5054
58.9517
33.8839
56.4259
99.6659
-51.0339
-96.6459
-136.485
-47.3469
-22.9008
14.2183
53.2099
101.11
-39.114
-99.5977
-81.175
-70.2918
-26.1435
-35.7894
-10.8712
27.5332
82.1689
12.2046
-37.5437
-49.8718
39.0853
88.4369
92.147
121.631
94.3803
-32.6038
-101.898
-86.0279
5.77077
53.2733
34.3444
27.5369
71.3464
48.2633
-140.818
-154.836
-153.009
-86.4126
-29.0539
-17.7957
43.9941
76.5823
102.7
34.0075
27.1264
52.6889
66.816
39.2414
26.0933
44.317
27.9572
-98.8476
-86.4178
-69.5522
51.7478
45.9539
-7.75753
16.1459
-7.07239
-35.6907
7.6066
-21.5581
-45.5448
47.5908
82.6405
92.3887
-5.11691
-121.394
-127.639
-82.8793
-77.2708
12.8009
48.9524
77.6277
67.1244
-13.3612
-12.7939
-28.3421
-26.4286
1.13496
13.8924
6.96325
78.7576
39.4949
-33.9842
-16.7696
49.2645
64.0493
13.8479
-6.42317
-43.8398
-13.2873
64.7143
-68.6738
-90.6385
-25.6913
-25.0871
-32.8281
-7.75953
4.25286
34.6069
88.9059
101.154
-23.9106
-50.317
-58.746
-20.7252
41.9238
70.1616
78.0134
112.714
-19.9034
-128.977
-86.3904
-12.615
45.4945
71.9462
74.1731
86.3375
-40.9441
-74.9328
-83.3616
-123.435
-30.1179
-3.82235
26.8182
121.83
135.118
-37.7913
-99.9247
-94.2643
-8.85254
-33.2072
-38.2479
-47.7278
-4.45385
10.0956
-120.241
-178.524
-49.647
20.0831
23.315
14.0272
83.6874
144.782
118.641
18.1479
23.8352
97.3003
71.7705
0.972931
8.96018
48.3882
66.629
16.7551
-7.82228
-14.8768
10.5722
3.59964
2.23956
74.6961
106.025
-74.2636
-95.5903
-86.6962
-74.8494
-76.8065
-86.4619
-4.48798
40.2872
-25.292
-17.9919
-59.5817
-64.4597
-12.1668
-12.2433
12.6026
184.647
148.551
10.8419
-114.938
-178.2
-80.9224
-53.5333
-19.9592
27.3749
99.5951
75.4352
22.4226
4.06812
29.581
27.0178
40.8443
63.5816
91.9105
67.501
-9.88784
-162.54
-103.845
-28.9198
17.233
44.4642
85.5865
146.492
146.045
-2.66418
-75.1925
-65.8968
-69.2813
-68.2394
-45.9233
10.6418
49.5299
-50.336
-55.5737
-81.944
-105.359
-96.6655
-93.9817
-40.6646
39.4538
-4.01531
19.3422
27.0474
13.2626
84.0912
88.7755
88.5526
158.713
185.955
47.4889
-28.2023
-58.0441
-18.4288
-7.70061
-16.1387
-29.4532
-9.14687
56.6833
20.7483
-130.74
-77.6881
-8.78174
14.9174
-3.75948
-19.2859
-27.5321
-53.0541
-93.7283
-27.6752
70.4478
42.8403
-18.0525
31.875
81.1863
-12.4147
-73.5345
-64.4705
-60.8985
-27.9766
42.3277
109.979
146.264
34.1534
-24.7026
-70.3256
-45.761
-9.11086
18.6623
1.91153
-2.61591
2.95083
54.8522
-68.4991
-78.9843
8.23807
51.3348
39.9225
18.764
-1.15
90.375
-36.0729
-93.7074
-22.7761
2.16112
43.8706
43.1721
66.1516
66.1357
79.5613
-31.0626
-120.025
-119.494
-55.2211
-53.3074
-37.0517
-1.28485
64.8891
166.227
51.4617
-52.6447
-4.76627
-35.8152
-27.4129
-14.2818
20.0477
84.0893
34.2008
-19.3493
-72.6611
-22.3371
9.07713
-10.0876
10.1629
18.545
-25.7437
-21.3144
-44.1327
-9.01736
95.1631
65.7534
36.0026
-63.4411
-148.652
-137.799
-42.8975
1.2349
55.4233
69.3132
53.4137
120.328
33.1801
29.8628
19.4487
-28.6978
39.9785
1.33899
-66.3915
-73.6335
-51.8074
-150.279
-76.4731
40.3802
135.87
144.805
106.648
102.302
168.742
-41.7104
-134.164
-119.262
-47.6878
-51.9667
-42.4514
-30.5596
-34.7226
8.93109
6.53624
-116.94
-75.5133
40.3496
72.5619
76.7589
82.7058
101.031
-17.205
-128.165
-95.6343
37.7116
39.3457
-12.7935
-7.50009
58.6545
-23.714
24.0815
41.9096
4.87676
9.52234
19.5044
6.12037
46.4942
17.6713
-67.0101
-37.7578
-31.3299
5.44163
25.7664
-12.8686
-7.41779
66.255
159.688
28.0255
-47.2163
-8.08511
-84.6791
-182.271
-189.079
-60.7772
76.527
5.83729
-10.2287
32.5461
101.049
93.492
56.2941
40.4485
80.2682
20.0821
6.22634
-23.3894
-73.7654
37.9207
57.4377
52.9424
50.9325
-20.8816
-88.1149
-150.733
-146.416
-36.2494
-13.2287
19.033
54.4955
-7.64997
-9.13731
19.3678
21.8568
71.1849
82.7073
-1.73543
-30.5076
-14.4864
-48.7351
-47.804
-80.2278
-26.0178
12.542
-47.4461
-87.9393
13.6502
79.4122
47.3042
25.2676
92.8322
102.461
30.4773
-58.0759
-108.323
-56.3404
38.8973
1.61828
-72.475
-35.9284
1.39701
50.0672
94.7691
96.5965
140.003
72.5199
7.43447
-18.6586
-12.229
-4.99667
-9.21253
-11.0564
76.044
50.387
18.395
-32.4923
-113.099
-104.839
-77.2188
-29.7722
-20.1024
-61.3654
-17.5622
10.8807
6.81646
28.6495
4.0912
-12.2935
68.4661
-50.4691
-55.3157
10.8411
-30.1375
-34.2916
-32.0949
-40.1505
-48.366
87.1553
48.0665
-33.2586
-15.5806
6.7445
15.3101
24.7752
-31.1224
-5.84326
66.334
12.9551
19.7221
83.1556
56.4469
13.4115
22.5023
112.822
190.086
118.199
67.0215
-83.8738
-162.308
-210.145
-181.636
-54.5654
45.6234
-37.1034
-59.7712
-35.5838
-32.7742
-26.8627
-69.4928
-26.7549
43.5922
120.35
111.631
-21.1478
-109.504
-31.1071
-15.987
34.6916
144.876
159.321
126.612
88.795
-73.256
-45.33
-14.0325
-52.6349
-37.0534
-19.601
-5.15897
30.8431
37.8116
-92.8554
-111.115
-30.4366
36.2069
75.9705
57.1791
102.104
123.663
-23.8066
-103.872
-121.852
-61.3627
6.37019
22.3315
36.8786
41.8735
-61.3854
-84.4578
-52.0063
-38.053
2.23497
14.3046
58.9971
87.0477
7.70478
-15.7725
-39.6183
-26.7834
44.1584
45.2989
63.9749
105.616
-12.4145
-75.0488
-81.6341
-82.5251
-37.2992
-40.6193
1.034
18.6293
41.8455
46.6319
-28.4181
-47.1497
-3.9274
21.578
44.1516
49.9571
69.9375
90.9488
-15.9845
-113.141
-24.599
62.9629
37.668
-26.4464
-55.0765
-77.4558
-21.8386
-57.1708
-143.759
-74.092
33.9323
95.2644
117.735
27.1962
-58.7155
-20.4801
-33.943
-6.31438
44.6522
28.5344
-28.8846
-18.407
23.0145
144.35
92.2146
80.5667
-1.1881
-70.6242
-29.8303
-23.2961
28.7241
90.3186
115.214
89.3559
1.05023
-76.9483
-110.898
-102.028
-122.424
-62.1383
28.9578
58.6743
-27.4516
-107.476
-37.9095
11.345
67.6082
118.765
133.755
115.214
97.2869
-79.2063
-140.73
-75.1371
-17.5297
-45.5371
-8.50445
14.8247
46.9587
-39.927
-70.5228
-119.901
-103.381
-59.4144
16.9885
63.6568
116.576
-11.6815
-62.0888
-57.659
-79.2026
-34.2193
23.3437
75.081
214.729
133.154
44.7231
-31.5982
-93.1279
-21.8103
38.9844
30.7031
36.3014
78.227
79.7945
-80.9677
-115.427
-7.22864
55.2939
34.824
26.1677
46.0394
75.0018
45.4078
-66.7115
-72.0621
12.3896
105.313
59.0315
-11.6004
-112.874
-180.895
-137.886
-61.7808
-15.2809
7.09991
-31.2363
20.0612
30.5859
5.77783
-23.8195
10.8193
64.79
-22.4007
-42.7521
28.7973
18.9248
-33.1814
-19.1706
57.7935
127.316
31.4271
-11.2759
-87.5893
-64.0247
13.6763
33.4905
80.1938
41.6476
-12.388
-12.8457
9.41794
-23.2466
-49.4292
-72.485
-26.8996
149.069
191.388
14.7605
-109.785
-215.422
-131.106
-30.6103
2.04843
9.65479
105.444
103.804
-7.41469
26.932
61.9834
60.5107
30.2176
-12.741
46.3384
42.6531
-14.4645
-135.342
-163.476
-51.6748
26.723
90.0025
158.904
67.5518
-56.7724
-25.8806
-43.6305
-22.986
13.8852
28.864
85.9473
54.027
-100.151
-55.9672
-17.6268
-19.811
-9.56649
-73.2613
-59.159
59.3671
-22.5084
-33.2963
-45.5415
-52.6485
8.28229
15.2102
-6.10445
7.51853
62.3511
11.8018
-2.07723
33.9088
100.587
52.9271
-6.25591
-54.6415
8.83737
111.652
-9.17866
-158.599
-56.0006
46.7712
69.3404
25.0988
9.9515
16.6463
-22.2917
-160.789
-100.042
30.0038
36.2254
1.04419
29.5622
66.6925
144.234
45.9204
19.1188
-65.5062
-90.5858
-45.1712
-5.93443
53.685
89.1903
-32.272
-39.7828
-6.57514
-7.90946
19.2912
-13.1235
21.3538
22.0768
-85.6115
-19.6958
39.4444
23.8963
63.8363
9.50037
-81.4402
-6.77056
98.3466
20.3586
-34.4829
-81.6625
-16.5156
-20.9774
-55.8383
-41.3502
33.1798
73.3499
-25.093
-67.3701
-13.5097
-4.98529
-18.1036
-27.4374
27.034
99.9847
89.265
-31.049
-98.9318
-46.803
-31.8796
-30.0763
17.0942
75.9467
77.1168
-41.5311
39.6953
46.9948
35.2578
7.22092
1.85712
-38.6998
-32.8978
13.4582
-25.5709
-76.3008
-52.5903
23.7633
37.1947
78.6498
137.157
216.015
59.9891
-161.587
-195.361
-93.132
-29.3289
-19.3753
25.286
64.753
129.556
158.668
44.0568
-55.0666
-114.489
-138.851
-110.356
-53.3106
-10.6037
42.8351
-30.8191
-110.642
4.07619
102.397
130.604
112.582
28.8985
21.5601
-82.4417
-159.535
-79.5177
-53.4928
-2.50166
48.9696
103.741
184.197
107.857
5.26813
-20.3294
-64.8215
-68.0626
-81.5092
-35.806
37.6796
-38.5042
-33.7308
-28.9158
-75.4934
-26.9632
65.8116
103.381
145.899
72.7549
-43.2185
-42.1778
-64.2137
-29.5612
0.866297
-17.5287
-37.7374
-4.50846
4.31572
-49.3589
-69.7819
-9.81208
24.1753
49.2307
74.6
106.172
182.238
41.6245
-233.144
-146.313
-14.022
24.4224
26.3641
55.9292
50.9755
62.0887
75.2838
-79.7647
-124.25
-59.5091
-48.0603
-1.38507
5.47545
-13.7574
52.2281
49.6294
-62.4616
-28.4267
96.9395
84.2774
57.3592
29.4901
40.7876
19.0681
-40.6668
-62.1389
-65.3398
27.5178
108.775
48.0503
-66.3326
-59.451
-42.0825
-163.807
-187.104
-118.108
-12.1153
26.4375
61.7434
78.504
99.3621
184.596
128.757
-11.1797
-0.728127
10.369
-7.53893
-21.6149
-47.6544
-16.853
-77.3646
-57.1226
-27.981
52.8314
66.2316
66.0072
67.5755
91.6327
-29.2228
-50.2951
-31.8884
-81.2423
-79.7828
-7.25863
43.5489
55.0769
-83.9742
-135.892
-112.305
-52.7941
45.3948
48.6651
55.2088
108.885
51.0081
24.1641
-0.0815836
-45.5265
21.3993
30.6184
39.7571
42.2078
85.3502
26.3988
-120.761
-142.595
-65.4099
-27.8149
-27.6331
1.81026
105.252
224.476
55.928
-90.8584
-78.5533
-75.5849
-57.1975
-47.9796
-16.4329
6.98413
66.7836
37.1981
-46.1781
15.7968
66.8964
25.4055
0.603302
25.2006
67.8452
18.8379
-55.6456
-99.5228
-20.7087
37.8603
54.4559
48.9417
109.388
65.3002
10.0381
37.0667
12.1997
-68.8111
-131.114
-121.428
-80.6692
-61.1685
-76.9361
-31.2575
-36.969
-18.974
9.0768
-45.1669
-6.57892
103.853
142.638
15.1731
-28.8718
5.31228
71.4856
77.5225
44.1572
83.3918
107.326
34.5006
-21.0573
-37.9497
-14.0372
-38.7958
-68.1183
-54.9509
-30.3097
-139.761
-68.482
-65.2215
-65.209
18.9821
24.1255
44.8135
90.6194
-16.8552
-30.015
-32.245
-29.9361
42.5395
67.1558
127.26
173.535
112.363
20.8506
-73.1546
-180.364
-119.276
-86.1555
-72.1851
25.9376
185.98
111.238
11.3063
-30.6619
-12.4289
-32.7522
-50.3025
-33.497
6.20043
90.3878
56.9207
-105.482
-101.873
-41.8042
7.54886
41.7414
56.8554
64.3979
90.3595
15.9835
-57.0353
-10.7139
-13.5311
-60.2537
-68.3196
-3.8917
91.689
-24.8352
-4.07584
-44.1764
-70.4729
6.08707
8.36379
9.17491
30.9671
34.9398
28.9829
1.0604
-41.3516
-16.9323
-2.44924
86.1381
132.044
-60.133
-57.9263
-28.8499
-42.2761
21.6329
43.025
46.6174
31.172
-98.2807
-96.3723
-57.7522
-35.7895
0.175137
16.3474
33.7847
31.1852
53.5762
-16.0966
-69.8332
-55.8696
54.2355
92.0829
66.496
47.1073
102.839
99.6766
-86.2234
-119.471
12.2753
34.801
8.1181
-23.6739
10.9772
24.6444
-175.094
-160.12
-67.902
42.8018
65.538
55.5832
65.7308
55.4774
100.375
37.1024
-72.519
-146.764
-78.1462
-2.96253
32.7432
93.5477
155.031
68.1372
-82.4818
-184.6
-81.6478
-44.6583
-43.6854
7.97824
87.7215
43.4056
-4.25466
11.8184
-12.3273
19.2336
58.8508
112.29
118.377
43.3587
63.0387
-132.787
-202.491
-131.627
-13.0193
90.03
149.377
62.8438
20.3713
-61.3267
-174.954
-97.2218
-5.53407
-1.63305
4.07595
58.0193
110.877
20.0769
6.52039
-11.1166
-34.3468
16.3396
11.705
69.9805
79.3349
-61.0551
-14.3698
8.6928
-29.6348
-17.2757
-11.8507
59.6489
81.098
-29.997
-33.658
-24.1505
-64.3084
-44.7637
-35.3436
-7.68966
42.6476
-26.8315
-95.552
-100.646
-98.0357
-16.8758
27.7201
32.8927
18.7777
98.0187
73.8096
8.71925
52.7587
116.512
76.6198
3.05937
-47.5279
3.94885
98.7914
33.6234
-115.548
-85.1178
-18.83
-29.8501
-21.2217
23.7839
41.0023
97.0262
95.3229
-76.1393
-109.319
-112.785
-92.0683
-21.4888
46.2473
177.663
231.526
48.0268
-106.148
-213.165
-189.757
-112.06
-14.353
148.685
99.8131
-15.1295
-2.56158
-15.9777
-45.6353
10.0767
60.3473
121.335
113.626
38.4877
-4.55086
-71.6966
-122.381
-55.1126
-24.9168
36.041
145.162
157.439
-16.0509
-96.5779
-86.592
-26.9678
-21.1423
-24.4311
17.1924
13.2944
-3.65463
-20.0483
-16.1169
11.0096
-6.174
16.0046
31.0129
-53.8116
-14.8741
40.4547
13.0899
-20.3823
14.5278
6.93159
17.1348
-80.7525
-79.7122
-47.2733
-24.8974
32.0991
43.91
107.031
97.4754
-33.2759
-53.3801
-62.5781
-62.5742
37.147
44.916
24.1212
8.32012
93.8964
49.8111
-137.798
-127.232
-6.35214
-3.97626
-4.61531
-7.88233
48.689
142.02
124.672
32.8881
84.697
38.6816
-53.6955
-94.9112
-62.0911
-51.0113
2.36333
-105.59
-160.632
-53.1695
40.351
76.0398
88.4159
94.4486
82.8855
-14.6124
-13.7364
-27.3296
-54.4016
-7.52031
35.0817
59.5893
85.4666
13.5459
4.07007
-5.82885
-45.6572
7.51977
7.2632
19.4049
51.781
-50.2542
-100.403
-120.283
-123.534
-59.8112
-16.1838
0.928331
62.2405
-53.6678
-63.3995
-26.45
-15.0343
36.1071
70.3771
113.691
99.0945
139.963
-10.3709
-50.7408
-40.2519
-14.2037
17.405
20.3797
74.9143
73.162
-82.4879
-101.632
-57.2628
70.2877
42.1842
19.5876
16.5783
0.498001
-36.3821
-116.335
-114.489
-69.5413
46.8079
65.968
68.5544
57.8227
90.6848
73.0209
-137.731
-132.897
-0.0606088
48.0549
25.7761
41.9257
47.2225
51.0905
-17.6794
15.7128
32.394
96.9239
114.85
42.3642
32.0134
-76.3841
-199.559
-194.384
-183.361
-110.491
46.4596
43.5715
66.436
105.379
49.7666
-15.8618
-21.8276
-98.4537
-40.1311
4.39627
0.285369
82.4951
96.4304
-40.3175
-36.5765
-2.01236
48.5181
58.8083
41.2105
62.9465
106.485
-40.7225
-38.5135
-74.6492
-79.61
-21.2554
16.9774
93.1095
117.86
29.9037
0.23636
-50.0868
-95.1846
-29.635
-27.4153
68.1223
64.0573
-76.0279
-80.1887
-125.991
-121.306
-16.1358
14.0655
30.0079
54.1083
-34.0702
-24.5298
20.4253
57.5207
97.2888
84.1917
41.7891
-0.641271
56.6797
66.0927
-97.9475
-98.6727
10.1439
33.9287
18.8888
13.862
5.87554
4.4886
23.8086
-52.276
-47.1367
-14.0089
-23.8152
-19.7687
28.5029
22.9637
69.0675
122.353
-40.2813
-109.265
-101.727
-88.6024
-47.3444
-49.8787
22.7555
132.6
39.7609
38.7437
-27.8412
-74.8374
-8.04264
-40.9413
2.66459
40.6681
28.2404
116.697
143.38
48.5194
58.6008
28.7558
45.6138
-45.1699
-62.977
-60.1245
-71.1119
-128.501
-69.3524
-68.8178
-74.9025
34.0082
32.8733
35.0814
42.4323
36.949
59.7198
2.27485
-47.8278
-29.0842
-81.2971
-55.1209
2.54946
74.3585
72.9994
37.9936
15.9935
32.4928
-12.3651
-6.99958
21.7203
10.123
56.3606
73.1923
79.297
3.65243
-49.1814
-85.6765
-108.397
-106.627
-30.6818
6.87885
73.6082
58.6599
4.49175
-58.5283
-80.5329
-73.1397
16.0436
17.7156
34.4153
58.2299
89.7438
0.457819
-44.4509
-11.7219
25.0263
21.9397
20.9078
6.43623
31.9982
97.7795
-6.47438
-109.641
-61.9191
-51.7575
-73.3425
-56.1088
13.343
40.5177
62.8768
-11.2205
1.38183
69.307
42.7375
38.6443
49.4283
85.2819
49.0671
-4.81456
-15.76
-92.116
-111.083
-67.7859
-98.6805
9.86251
9.29086
5.45169
3.76995
-37.1404
-40.8116
33.1849
83.8316
114.273
-72.3115
-78.4107
-6.54004
-7.15821
-40.3529
-17.6317
-26.5935
5.47001
-12.1584
59.2624
126.324
56.3562
8.52507
21.6549
42.5259
23.6031
97.4537
56.9431
-0.617738
-33.3974
26.7527
20.5198
-6.21188
-38.5202
-2.20709
-42.6441
-81.6674
-96.3535
-63.029
-30.4071
-15.6041
-15.1135
59.1694
35.388
-111.223
-82.1437
-78.386
-50.1746
-41.9937
-7.14657
71.2528
133.298
133.06
-32.8399
-64.7951
-34.3221
9.2298
13.8838
24.9859
88.527
125.978
3.13121
-100.356
-98.7029
16.935
35.3993
17.9662
39.6572
83.2676
31.9347
3.58089
6.1058
-4.54766
13.3818
-35.0314
-15.8014
5.68496
68.8029
50.5241
-71.9055
-97.944
-27.253
-10.7198
-14.1011
20.9682
44.9325
76.6939
-40.034
-18.6845
-2.17766
-17.7531
-69.1291
-103.836
-12.6092
38.4779
-4.32631
-38.3062
-85.9188
-38.429
-0.377457
-6.77692
72.0802
40.6755
8.63618
32.0931
19.0273
-29.019
-10.4868
-17.9829
41.9651
80.7432
36.2792
112.752
131.74
61.1199
12.1867
-38.261
-20.3067
-32.2345
-127.666
-89.7511
-88.8368
-27.8587
31.9413
31.434
-6.98635
-59.1627
-0.808922
54.0249
-67.9085
-75.5972
-21.5459
1.10735
18.674
27.6343
101.17
145.358
182.325
37.565
-40.7541
-76.2401
-73.1447
-57.9507
-98.0951
-128.5
-44.9525
139.788
112.263
-1.87448
10.6298
-15.055
-28.5419
-51.6076
-26.1258
40.8944
-38.7199
-61.2251
-84.5171
-8.96018
82.9251
72.3901
85.2116
52.5336
-52.8551
-1.2583
-27.9355
-80.3049
-28.2537
-0.262143
99.7706
137.013
58.7827
-23.3576
-26.081
-48.2511
36.6797
33.7436
-56.4151
-49.2076
56.1538
15.6531
-94.2799
-96.6729
-31.4308
-7.42501
-9.01363
-22.5011
46.9622
21.6824
-8.87812
12.9684
65.8097
80.7449
45.9742
33.7437
103.834
-1.09827
-87.9242
-84.8026
-122.582
-105.889
-53.0939
-9.2903
89.57
59.8637
4.77311
-8.23248
-25.7444
17.1242
83.496
85.5602
148.383
24.3993
-168.272
-212.838
-136.3
11.4847
65.1608
49.1053
39.5654
84.4847
3.0371
-98.6164
-93.8101
20.7696
67.2742
65.0534
46.3863
33.9254
63.6422
87.1681
-26.2647
-6.509
58.1701
-12.6966
-136.681
-136.984
-27.7237
59.6601
95.4538
-58.743
-19.9174
29.2233
18.2126
20.7211
12.2792
2.64577
34.3633
-93.9713
-90.6923
-100.434
-44.7159
35.1947
74.5589
108.389
170.616
48.8924
-60.7724
-95.4919
-106.78
-29.0927
7.68265
50.7574
45.9348
-79.7791
-79.0423
-71.8014
-59.9968
42.855
34.7693
67.438
145.117
83.4971
55.5692
-7.42047
-30.2057
12.9195
-3.36677
-23.1383
-26.7276
33.0512
18.2693
-100.107
-96.3922
-21.4649
-10.5781
-12.6931
-7.66616
71.2723
84.5171
-66.6237
-84.4977
-13.4219
31.749
37.8452
30.3383
139.682
95.1222
-54.007
-79.3499
-47.0358
-17.2211
18.938
-9.24973
6.42332
6.97076
50.3553
-14.7799
-65.5453
-84.2526
-78.1016
-67.3342
-2.1177
85.5533
188.528
66.8019
-44.7744
-96.4932
-15.3707
-0.151801
-31.3786
-33.3136
36.9191
78.675
54.9515
-42.3221
-84.1322
-3.25256
5.7237
-24.7629
47.1395
48.4729
52.1339
-71.4258
-102.339
-23.8572
7.68938
48.442
69.5657
90.4376
68.2695
6.82109
-19.0779
-71.8127
-44.7004
4.80202
4.80923
74.6106
84.5973
10.096
-2.71131
-38.2122
-86.3803
-25.897
-15.9139
35.7711
44.6663
-27.3435
-28.5599
-52.5879
-50.7333
-19.1377
-32.423
-45.0813
-21.8334
-61.5822
-65.8805
-60.3034
-20.0758
41.0516
70.4861
82.29
159.42
163.762
78.8565
-68.1327
-88.3509
-48.3381
-23.4334
-24.6593
-6.26236
91.8262
125.822
-76.2077
-98.8541
-16.1911
3.34927
-14.6814
-14.0151
24.483
70.0276
71.9023
-70.283
-57.292
-38.4783
8.62746
7.87349
11.9722
54.847
73.8322
-31.8374
-105.87
-117.394
-13.7741
10.7831
44.788
67.9382
103.085
-26.5821
-16.0212
-14.6713
-27.5967
19.5525
32.5414
37.1775
68.2431
7.4017
5.75731
-25.8931
-94.1702
-86.3301
-83.9335
-78.066
56.9265
51.8815
2.5366
-29.064
-40.0113
32.4373
37.3102
26.8481
34.4215
103.858
24.8067
-2.26181
-27.3106
-2.74254
-14.4518
-35.6155
0.548348
58.6789
0.751609
-10.8683
-39.026
-41.0364
-7.24363
-12.0863
34.4601
102.992
-61.4119
-72.9742
-45.1188
-35.6502
11.9013
22.176
29.6962
49.3815
-30.5472
-31.9223
-32.0331
-16.2992
34.471
22.7052
33.5595
118.092
20.9289
-85.982
-91.563
-70.1904
35.2998
42.9904
22.3198
58.1804
141.969
-6.71655
-73.1019
-44.0636
1.26447
-13.219
-25.7281
-15.5433
19.0047
58.4252
-19.4264
-128.666
-43.5585
12.5166
-12.2722
-7.55511
44.3791
74.369
110.105
-59.1431
-81.9361
24.25
24.9542
8.22554
24.1198
37.6512
63.0799
-21.6434
-67.332
-66.5126
-45.6938
-46.7741
-21.1472
7.80673
50.1908
-53.2957
-11.0069
13.2034
-8.82305
41.9174
40.5067
82.5152
108.477
-36.3012
-56.0273
-43.8786
-64.7938
-25.8834
1.67702
-2.87612
93.9472
115.909
22.8276
-11.4512
-46.0146
-6.47064
-5.79519
-21.2612
-41.4738
41.9913
-15.2
-52.9736
-77.4573
7.0188
34.6105
37.0079
37.6847
130.67
54.4802
-90.8919
-167.195
-174.209
-101.349
-52.4062
-13.7027
116.426
123.789
88.073
-35.0583
-27.0557
21.5317
63.7681
45.5988
68.8081
83.2467
37.972
-58.4485
-87.75
-29.8651
21.4031
-3.72575
-2.22497
96.0406
84.3601
-12.8097
-36.7242
-33.8483
-27.849
15.8721
-11.3237
2.47668
101.303
86.2831
-64.855
-147.36
-131.372
-75.1303
-71.76
-53.398
-15.9097
28.9059
-22.279
-35.8958
1.2806
41.499
23.8878
4.75071
16.9215
80.1599
21.8802
-4.34622
-30.2967
-37.753
46.3265
70.6801
51.5968
131.713
54.6389
-71.2867
-52.3169
-50.3101
-27.5023
6.30589
12.6163
70.2969
37.9742
-11.7682
-8.71206
-31.0667
-17.3052
3.41063
-5.25812
64.1658
70.4278
-48.0171
-45.8349
-77.4272
-65.2622
-4.62992
-11.81
-26.0151
30.5104
96.0447
-9.53114
-66.3942
-29.5528
26.7973
36.8794
37.263
43.0908
100.735
65.0933
-124.06
-81.0051
13.3079
-12.0944
-33.926
-29.7148
34.2216
51.1454
59.7142
-100.75
-146.543
-68.6306
-47.3078
6.48581
27.9779
44.4627
56.3253
-40.4411
-69.122
-36.0832
15.192
30.5297
59.2433
88.9898
36.9546
-9.32355
15.773
11.6542
-14.9544
49.7717
51.6904
103.46
101.822
15.6535
-6.54147
-8.51363
8.71088
83.0553
61.6961
10.6646
-14.8364
-70.051
-160.019
-143.931
-46.6282
-21.9124
-50.233
-85.57
-76.9265
57.4116
-10.1148
-54.9927
-44.6784
-20.6301
-33.5174
1.26975
14.3674
80.8145
46.7052
25.1063
53.1121
54.9143
105.686
43.0166
-1.80451
54.5676
43.6602
-55.8483
-67.3035
-97.2486
-42.9799
5.53529
13.6848
98.8122
6.22401
-43.8209
-44.0631
-39.3177
11.2365
58.8373
62.6441
96.0957
139.775
5.06963
-44.2225
-71.6918
-66.1379
-9.16064
-31.7483
-82.8415
-63.3599
17.8763
-16.0268
-90.0013
-90.5078
-36.3283
-10.7479
5.04268
14.2767
34.9512
85.4817
33.815
-76.2221
-9.297
26.1761
25.3504
42.7862
89.0011
85.5247
99.931
46.9737
-24.2494
-18.9464
17.4553
93.2274
78.5338
51.8656
52.5307
-13.3986
-32.3529
-45.7911
-29.3208
-2.18159
-96.383
-111.426
-32.1139
-183.746
-208.776
-84.9814
-20.9074
25.8127
30.2635
30.7239
97.7869
168.369
-1.11174
-46.2424
-59.9685
-30.9501
-3.51888
9.84144
4.05828
45.5557
162.131
101.326
-144.708
-58.2602
41.3669
24.0146
-8.2589
3.08547
64.7731
39.6632
-103.169
-56.611
71.1285
63.9158
-6.27433
-1.2975
19.932
3.92665
-135.456
-82.6334
-51.3439
0.870812
68.7141
107.112
101.439
60.2474
-20.4636
-43.9199
-45.4152
-56.3299
14.128
5.25567
35.4874
53.6303
96.3644
126.578
-5.6026
-29.5765
20.8579
3.8213
-51.5885
-73.3276
-34.9538
17.4615
-95.7452
-115.523
-32.6203
-16.9382
-29.7257
-26.1188
-20.5477
-36.6397
3.6067
-25.5713
-29.4322
-34.5829
27.0841
32.9776
42.8692
63.5568
52.1735
-1.39557
-51.8186
-77.6628
14.8016
22.6958
22.7052
47.6022
72.5202
12.9467
14.2799
15.2045
28.7624
92.0756
112.719
109.971
95.6539
-55.391
-145.68
-177.372
-121.014
-60.8808
-6.42399
34.3735
83.6511
-61.8577
-83.2898
-81.2111
-33.4592
46.9837
76.9386
74.1385
92.4294
72.2818
-70.6913
-79.347
-28.3758
37.2987
89.5597
111.709
93.4852
110.664
69.2543
-80.3309
-97.8296
-5.31515
0.181383
-21.797
-70.4783
-15.9479
40.149
-72.4038
-203.949
-189.67
-110.256
-82.0439
-39.8543
56.0663
141.496
237.238
80.6333
-23.2965
-23.3416
-29.0832
-64.8998
-28.9228
-12.3786
23.8485
-18.9514
-43.6333
-63.1517
-15.2777
50.2753
88.9573
153.241
177.101
78.8813
62.3814
28.0598
-47.3546
-21.1022
-44.7001
-41.841
77.3759
126.967
-38.2053
-144.032
-124.324
-78.532
-51.9877
-0.385451
56.4441
88.983
38.0217
-129.343
-187.965
-112.62
-32.6365
11.5073
-1.93448
111.341
139.453
15.0132
-14.6674
-59.997
-7.87137
-9.89956
-28.0897
123.954
91.5061
-33.8619
-19.4614
-40.0472
18.917
147.357
116.828
133.117
57.4986
39.0084
-23.3056
-195.804
-302.855
-253.529
-163.107
3.49599
70.9324
54.6947
43.1417
1.03696
27.9598
97.4605
89.8959
122.271
164.345
-9.03649
-40.6842
-78.5274
-42.4353
-16.2092
-3.8001
69.6386
140.906
194.338
33.2567
-126.293
-88.6881
-56.3415
-98.6095
-104.761
-89.7559
-53.5391
28.4362
0.864067
-103.528
-17.3011
67.4076
105.313
76.2331
7.08198
26.563
37.4858
-40.728
-36.7418
-7.37262
-2.8905
5.16944
51.7782
111.669
49.1464
-50.6069
-87.7251
-95.6506
-105.724
-75.6995
45.9142
127.48
73.4124
-48.5121
-39.376
-28.9016
-39.1322
-22.939
9.27884
59.9287
183.668
127.208
-0.239728
-36.4225
-18.3625
11.0195
-30.0272
-76.0568
-99.9134
-34.0982
-68.3341
-80.7219
2.11483
61.577
40.1019
53.1648
89.6303
119.038
-5.20856
-205.935
-231.824
-132.787
-62.4641
-56.5329
3.24657
131.316
30.8014
59.5393
172.286
218.359
230.109
146.98
113.119
161.96
-9.02106
-186.083
-172.85
-167.292
-8.55932
132.617
26.6507
-81.7136
-81.5443
-76.3867
-133.032
-97.2949
-28.4768
12.555
-27.9588
-74.2038
-48.8244
33.7557
-24.7613
-84.1889
-44.0967
63.555
143.776
141.709
81.4914
38.795
48.5006
-36.0601
-144.282
-119.02
1.90232
35.3285
106.131
91.2758
80.8182
-39.3283
-47.5139
-97.7676
-56.9565
26.9151
122.554
163.493
113.437
21.2428
-32.3083
-95.0075
-175.508
-115.336
-7.64411
124.114
87.8983
-41.4654
-46.4642
10.7606
91.7649
111.633
41.1647
-7.15699
-1.91538
-62.7246
-66.2283
-106.865
-102.785
-56.9837
-71.5237
-70.0053
44.7635
87.0228
-65.9069
-154.02
-94.0579
-2.79209
9.97549
28.6292
36.1976
141.951
154.453
-31.6597
-40.7836
35.4984
7.78194
8.93621
23.5701
29.0291
79.2915
145.796
-19.7507
-91.6934
67.972
86.3181
-4.40965
-53.5214
0.339988
78.4374
92.694
0.607631
-24.4442
75.0337
62.5638
45.7305
23.9037
-99.1477
-118.931
-183.081
-193.881
-115.585
-48.1002
58.9331
102.655
54.9366
65.5823
-15.93
-68.6981
-116.415
-167.38
-98.3022
-7.38386
37.9155
54.786
54.691
42.2365
37.6712
54.8045
80.0683
19.6303
-53.3201
-14.4124
63.231
104.158
-72.0769
-97.929
6.57762
-3.74954
32.6544
38.1131
28.9128
20.1465
-62.9614
-35.4934
9.54083
47.9136
69.3018
-21.2268
-27.719
103.996
129.196
44.0529
-16.5928
-44.0188
1.6012
-1.01958
24.6737
69.6853
-23.73
-34.4543
65.3096
-1.8125
-10.3384
-96.9513
-146.217
-12.2172
-90.2793
-139.031
-22.8543
9.9569
41.4918
78.8837
49.474
26.0249
62.4707
-124.358
-167.07
-229.623
-190.799
-112.791
-52.2533
13.3491
85.1362
202.838
399.541
341.249
245.559
172.174
-25.337
-115.975
-133.95
-115.424
-21.6014
60.1165
-75.223
-13.8979
54.4837
76.9249
68.1625
39.1944
-0.362906
21.321
-94.3521
-120.674
-173.231
-166.863
-96.7141
-72.6156
35.009
119.393
41.6764
-17.7604
-67.6234
-116.326
-55.6742
-31.5433
-15.6742
100.096
81.0067
-57.3371
-75.5342
-50.1266
80.0367
117.027
84.791
65.0716
96.9147
74.6206
32.5732
-107.575
-75.6312
-26.8088
-10.39
-39.2871
-0.652382
93.6245
57.5019
5.77188
30.9282
-2.30935
-58.4442
0.67887
91.1433
74.3646
-35.4567
-87.4388
-12.1095
24.1085
63.5615
66.1591
27.0767
50.4746
26.07
-73.0928
-120.675
-178.198
-145.084
-103.1
-10.4114
176.466
188.447
86.6037
-67.3622
-129.9
-67.0002
-0.717762
-11.401
-7.2055
-52.7969
14.6856
91.9421
-33.8536
-102.879
-51.2482
69.8411
152.36
171.8
112.341
64.3264
38.5422
-30.8742
-4.11886
15.4276
26.9544
13.1831
-25.0789
-136.826
-145.06
-96.6837
-111.694
-90.324
-69.7563
-30.743
109.871
172.166
109.305
-73.7502
-180.164
-149.74
-63.0386
-61.1229
-128.022
-14.7586
76.3337
71.6075
122.327
170.981
220.546
217.749
115.662
58.9803
73.8074
3.90322
-33.4105
-129.882
-114.354
-20.4189
30.8267
59.7853
95.8705
33.8404
-125.198
-121.717
-124.515
-94.5181
-56.936
-11.3407
-30.9205
33.2984
80.4399
-31.8536
-37.2697
36.4647
42.8675
-38.742
-122.029
-44.2499
66.089
-14.9694
-126.678
-40.8161
85.1426
91.3808
49.5589
77.6427
140.107
105.283
44.4962
7.3221
-96.8436
-97.1702
-72.5176
-73.0399
-96.2004
-54.5865
49.2782
26.148
25.1021
34.637
89.5684
38.3568
15.7153
5.23075
88.2907
7.26108
-145.348
-87.5302
21.7517
71.7161
62.9424
70.5674
41.469
26.0434
-146.087
-132.256
-106.225
-32.0046
38.9374
82.5767
31.2359
-2.76085
105.105
-11.9899
-104.862
6.30204
128.706
139.597
70.2524
-65.9538
-51.5995
-135.911
-231.36
-143.45
31.2479
76.311
45.6377
14.4151
12.5714
19.8214
155.005
181.962
34.9093
12.7016
-50.0572
-93.921
-45.0391
-202.371
-138.508
42.8852
86.0057
155.348
188.393
116.083
137.07
29.0041
-77.8423
-115.531
-116.313
-73.7438
-87.7564
-57.1105
33.5831
159.821
74.3013
-12.8633
-94.0045
-13.5857
-38.7939
-144.722
-257.322
-189.569
38.9643
159.252
68.2378
5.18123
-8.18654
27.314
62.0443
-2.56586
-44.1615
-1.16703
131.498
138.25
68.6716
52.5107
39.018
82.434
36.1613
30.5829
137.674
30.082
-157.016
-254.398
-202.351
-107.178
-3.90415
83.6527
129.294
10.9301
-63.935
-49.8797
-55.3979
-57.5542
15.8741
66.4177
156.013
62.3322
10.3729
-10.6327
-3.94288
-0.467145
36.5066
101.225
132.034
130.512
27.8924
-192.354
-277.335
-297.383
-171.744
-26.5205
50.3542
70.1602
140.125
119.746
-58.2591
15.8243
-3.2252
22.3159
-16.3712
-54.3246
-13.7451
14.7784
-52.1766
-66.0504
-20.9238
110.79
171.951
201.379
182.518
106.635
-30.3822
-32.1081
-51.3383
-117.511
-54.0953
27.4038
80.3186
33.322
-48.2951
25.394
-7.43362
-81.4949
-32.5923
29.874
36.5969
-82.8285
-154.115
-128.112
-128.541
-102.184
-48.0876
-28.9644
20.7973
148.237
255.43
107.781
-71.2965
-100.256
5.2013
109.373
94.1983
-28.8472
-103.121
-135.325
-60.4592
3.17308
22.7303
-43.0334
-39.3585
45.8664
84.2734
23.2325
-20.2599
-56.3831
-123.878
-28.0776
100.623
208.16
172.434
54.4541
60.0562
81.6905
-60.3653
-109.47
-100.152
8.58833
-50.3431
-74.7869
68.6837
172.273
-10.0527
-84.754
-68.5903
-8.77951
15.9434
35.1534
63.8179
71.866
-1.1288
-34.6407
-85.2952
-149.266
-102.626
27.7875
116.562
109.022
-65.0793
-45.5983
-192.691
-126.374
47.1445
118.407
80.3339
30.8856
113.875
19.3524
-70.0275
-96.7147
-44.8875
-39.1171
34.7712
77.3204
61.4718
-97.9609
-223.666
-142.331
113.876
190.499
201.72
104.3
231.98
212.145
-34.7354
-134.799
-195.24
-94.3502
43.691
36.4634
-8.70741
-21.6863
-58.896
-185.396
-89.3126
21.4813
-2.99564
-36.7403
44.1668
111.095
214.149
25.2626
-318.555
-203.401
62.3899
114.178
6.32311
-3.47673
-33.7727
-67.2681
-79.6962
-84.6464
-31.9806
34.1923
56.1938
67.5937
89.656
94.8366
131.864
51.2778
-27.0068
36.8757
131.446
75.2786
64.3647
49.275
63.5351
-10.4564
-60.3945
-87.6965
10.7607
68.8207
0.787939
51.0755
20.3095
-113.595
-207.533
-231.565
-125.008
-109.466
-299.773
-300.667
107.294
77.3242
143.477
165.002
58.9475
8.29223
-102.447
-76.9438
37.7808
131.215
162.98
132.623
107.594
-59.963
-40.3062
9.30649
82.2445
72.4441
76.9626
102.294
132.399
227.763
58.0675
-63.5786
-76.0607
-209.049
-249.227
-215.059
-152.262
-10.2643
27.9487
114.48
153.385
25.5028
-59.4737
-68.422
-33.7915
27.1351
-15.987
-4.70641
13.5955
-49.5143
-8.13254
79.0999
130.331
132.043
31.7885
72.7839
34.6975
-90.0247
-89.364
-111.609
-92.2219
17.9839
23.9835
-12.2623
47.3007
2.40901
2.52767
-67.0346
-99.7325
-111.521
-43.203
-28.2362
-130.938
-48.7672
82.563
109.764
97.0699
59.6354
8.57024
51.2585
115.775
-51.7001
-166.681
-7.04668
96.9754
60.4071
65.9662
67.7028
67.0339
33.1957
-100.889
-68.8625
55.9168
61.0402
77.0016
89.4415
-75.9432
-121.095
-168.14
-109.307
-103.545
38.8318
149.504
119.118
106.766
116.874
34.1252
41.2203
39.3836
1.75995
-6.1905
-65.9251
-104.667
-235.672
-364.098
-308.243
-131.276
54.557
215.737
173.487
131.213
167.46
116.179
36.7358
-73.014
-43.5881
42.7405
111.373
43.8185
-43.6017
-48.6345
-14.4595
-35.4007
2.41796
93.2472
65.1156
81.3595
24.9582
22.1391
-16.1891
-79.8618
26.8827
-22.8344
-22.584
35.4072
-56.7139
-14.1524
-55.2076
-238.737
-233.445
-160.332
-87.593
60.4661
137.328
209.23
181.19
-1.90924
-37.4541
-19.4754
-23.8925
-5.12073
10.9011
144.019
256.545
226.083
2.38304
-228.347
-221.454
-58.4036
0.387704
-44.9948
-112.411
-81.5369
87.8215
54.8592
-102.082
33.2566
23.1274
14.6306
19.9733
28.398
13.7004
50.581
-50.6313
-26.3662
156.853
165.34
-43.1806
-98.7162
-28.5738
111.971
85.4628
19.5805
-111.902
-109.849
-1.91755
26.7935
103.452
153.962
-33.8234
-150.405
-176.862
-165.584
-84.477
-90.1734
-11.2401
95.6339
59.4991
66.3775
54.507
10.9553
-2.81174
6.64629
82.3591
49.0272
1.9241
-29.3685
0.2054
-35.2271
2.01172
-24.0908
-59.4847
-64.0183
41.8126
-10.2537
-39.1131
-29.8681
52.6608
58.4723
48.3573
27.9476
25.4513
6.29124
-42.3667
38.8461
61.5192
23.6804
-56.3461
-47.9729
-34.749
36.6473
-4.10288
6.33391
-29.8195
45.9093
57.1205
29.8915
58.4675
112.015
143.444
-49.6792
-77.1528
-84.417
-111.541
-133.068
-36.6968
27.8718
-6.50571
-129.808
-60.2189
50.7084
118.956
32.778
8.13371
36.5563
68.8042
43.8171
-49.1295
-75.0174
-136.46
-76.1924
-40.835
19.3944
132.305
-14.2664
-115.18
-49.3111
-50.6436
0.272165
107.43
113.167
167.726
272.012
51.2378
-137.504
-143.471
-41.0067
-1.51126
-110.902
-105.104
61.1524
30.3155
19.3664
12.4514
5.33503
10.7656
6.19321
78.4456
128.869
2.13961
-6.94698
-56.3308
-124.144
9.1069
104.441
21.5105
-77.17
-81.5944
-48.4691
-6.73984
-5.91713
75.4002
82.1308
36.4389
48.946
91.541
-63.2206
-176.794
-132.803
-58.2622
-16.5485
46.5691
15.1828
56.6352
72.533
3.73321
-28.9974
9.46685
29.9676
46.7329
-22.0691
-117.209
-161.676
-80.8713
-18.8997
19.6089
129.033
157.878
114.539
66.5837
-47.2647
-57.8903
-103.941
-128.163
-83.7737
43.4715
69.9156
49.9989
54.8606
53.5126
54.256
108.131
82.0562
-54.2808
-83.67
-69.5787
-3.24535
12.8807
-43.0926
14.317
91.2112
75.0431
23.3607
0.780673
-4.39889
63.4164
94.0397
55.3471
-62.0266
-201.238
-172.535
-65.2093
-4.88402
-9.83377
-15.4043
-70.6564
-87.1127
-127.277
-23.6058
40.7306
77.1448
91.4214
127.003
97.6874
63.8027
-31.8816
-49.7864
-10.2954
21.7417
40.0803
42.0818
41.6718
43.352
-96.9165
-81.3461
-32.5624
-7.74632
-20.7788
-39.2094
-27.0513
53.1275
-14.5406
-37.4348
21.0873
51.6661
29.5199
10.2014
103.268
174.616
88.3606
-68.0369
-160.459
-135.515
-49.2902
-68.4972
-45.089
1.57689
112.249
85.4844
-72.5397
-157.143
-66.1765
20.7164
91.2186
185.705
130.403
23.5051
-0.249422
-141.841
-70.2682
38.8708
66.2281
6.66031
31.6304
51.4106
-4.19442
-29.8139
-91.6201
-19.501
58.982
41.5377
-8.87564
-29.9005
-33.1188
-130.946
-70.6901
20.614
45.9096
113.456
79.0783
57.4865
98.2453
75.786
23.2628
-100.22
-132.765
-184.187
-189.614
-125.756
-23.5504
-105.072
8.28332
109.764
73.0672
55.6983
86.3175
69.696
55.6869
122.259
-5.06366
-73.0057
-50.7962
53.3177
28.7018
-36.1907
-45.9302
84.8914
214.62
94.4869
26.8735
53.5733
6.04392
-48.2193
-91.1513
-71.0836
-5.07669
-36.0282
-166.953
-222.651
-63.7877
71.7699
47.2749
-31.0992
-68.2069
12.4994
-0.721805
-44.4646
-38.3
11.8185
18.778
73.324
104.268
111.925
143.55
70.4457
36.8803
37.8797
40.1528
-7.96483
-49.9789
-154.381
-161.984
-105.817
-39.2231
20.7098
67.447
192.529
135.865
33.2366
-13.1044
-82.7228
-56.8003
-164.377
-221.293
-55.3774
80.0559
208.952
252.697
351.529
297.3
66.6729
-298.023
-321.353
-195.289
-165.706
-170.783
-159.663
-130.507
-12.3947
18.285
53.4173
58.9425
79.275
56.3524
50.7063
15.8808
-37.757
-115.525
-154.28
-143.43
0.0730388
192.224
251.634
181.253
99.4505
43.0861
5.30167
-14.465
1.19084
59.8398
100.456
162.318
191.293
71.4937
-36.234
-85.9275
-95.1318
11.7606
36.9528
-163.382
-223.478
-35.4629
-40.8508
-74.0501
-1.54156
51.016
-10.6205
-74.1631
-113.966
-21.0732
165.892
109.33
27.1083
35.5098
46.1621
-92.2156
-171.89
-159.572
-80.5642
107.117
37.8617
-23.6484
-36.6514
-52.85
-64.6795
-41.9483
40.4384
147.399
79.3047
-4.42449
-133.892
-94.2206
23.8697
77.3659
171.349
287.491
181.82
-6.037
-143.792
-170.705
-27.7951
-5.10653
-5.11646
156.026
155.017
33.278
-93.046
-147.752
-148.612
-30.0164
28.6089
49.8689
42.0165
2.64331
-273.14
-283.431
-88.5282
84.74
131.049
107.872
114.311
106.632
100.675
-57.9522
-31.0426
68.9848
-4.63117
-65.9159
96.7778
155.094
107.044
-31.0091
-72.4564
-93.8642
-21.608
0.774998
11.2758
30.9515
-14.2431
-76.9092
-11.2528
49.1692
30.7798
-7.45494
-77.7499
-126.85
-107.136
-33.8016
-12.3082
-50.9658
-38.5404
86.716
151.267
128.529
181.065
17.6875
-160.211
-187.595
-96.0337
47.695
67.3809
-47.0264
-83.0613
76.4708
64.2231
-11.4769
-101.613
-64.9808
-19.8741
118.895
96.58
-98.3395
-168.853
-8.54724
19.7301
43.249
141.929
129.978
103.726
67.9703
10.4275
56.1053
27.5013
-78.4635
-18.1648
28.2602
64.595
33.2923
36.0076
112.08
40.8412
-72.3733
-157.112
-159.375
-63.0437
27.9137
52.872
-8.23526
-131.796
-111.039
-107.249
-158.942
-91.081
14.6661
82.745
83.4491
-14.2551
-2.05191
-15.9711
-86.0264
-46.0642
68.5341
148.571
117.948
161.677
205.997
67.4828
-9.99847
9.40578
-0.372026
-7.91418
-22.5808
-12.496
9.26777
-114.593
-108.06
48.4732
74.9439
-18.5795
-86.4663
-28.7445
60.1236
-27.4274
-55.3719
-137.749
-148.823
-66.3643
-2.06703
100.103
173.004
81.747
-124.238
-191.725
-118.6
91.1771
130.846
39.1851
41.9894
146.43
4.7736
-94.2626
-145.574
2.63536
99.7598
140.51
103.333
178.145
228.153
49.1058
-168.151
-140.588
-22.7093
-22.7536
-48.2665
-85.6254
-91.2125
10.2194
26.1627
-153.985
-49.7279
108.738
141.384
100.85
-70.0034
-170.259
-143.209
-166.565
-197.652
-120.703
6.66567
114.978
195.82
180.135
135.819
40.8038
18.9725
4.69077
12.6396
55.9984
-43.4827
-110.623
-49.8548
0.479352
128.055
192.682
156.631
113.156
15.7336
63.576
-5.49072
-167.903
-122.443
-76.2037
-71.1345
-29.736
-129.042
-228.227
-118.405
5.55003
67.5275
35.7927
-63.7805
-37.4812
-6.8735
-16.6643
43.9414
100.936
91.7259
40.0743
68.5032
91.6593
-6.73661
-57.3289
-1.39657
119.494
172.969
42.855
-64.6248
-120.454
-126.861
-62.2429
30.5733
56.8945
36.8208
43.9323
78.0688
-20.3845
19.515
55.6794
41.5762
10.7019
20.9175
59.8822
-50.8744
-260.622
-234.574
-90.4887
-84.2312
-10.1813
76.8104
68.5169
-1.46847
-54.0803
35.2722
41.1489
8.01916
53.0804
37.6678
32.5271
84.9336
149.611
30.2242
-24.1302
-92.0294
-97.049
-19.9626
34.4282
10.4119
10.7006
-89.6241
-85.796
46.6316
113.965
51.1898
-30.9935
0.930916
89.6174
1.60495
-83.4778
-71.6343
-81.9319
-58.2788
-83.9479
-12.7093
94.3026
-7.48823
-0.906327
97.1237
121.822
97.6274
95.4479
152.874
200.828
-45.6389
-155.007
-145.616
-160.424
-107.633
-61.332
-44.6411
38.9793
19.5855
-12.6148
-34.0253
-40.04
4.13768
24.3004
13.205
35.8213
14.7487
-94.5137
-116.788
-117.799
63.8578
213.306
149.094
103.869
84.7113
106.189
31.5726
-123.935
-130.004
-40.9684
24.3924
-70.7542
-108.678
-54.6032
22.7033
-31.513
11.6515
142.188
35.9014
-33.8987
24.0314
74.9843
73.3429
-0.601688
0.232116
-103.528
-111.258
-50.414
86.0996
49.8476
-2.43326
-6.58726
-38.7933
-20.4183
-24.8551
-29.2874
-67.4252
13.7516
80.2263
15.4151
-3.84212
-28.2012
-5.99388
89.1417
93.8892
8.81254
-85.9001
-61.2142
-70.708
-48.6897
-40.8768
11.2872
101.117
91.2686
-20.0891
-0.00671375
65.5236
-37.5774
-29.033
33.1422
62.3461
83.5327
36.0921
31.2548
76.7214
-49.5503
-0.405919
-10.7724
-37.3464
-43.5162
-2.0607
69.1416
56.1479
-131.861
-87.3738
-42.9465
-152.07
-156.982
-65.5626
135.427
74.1184
-76.0155
-122.443
-121.836
-104.229
103.424
181.523
99.457
96.4822
151.374
18.1612
-108.755
-127.044
-67.4764
19.6081
32.9837
8.56448
90.3412
124.382
38.6571
-27.0118
-16.1949
25.3966
53.6067
81.2457
84.784
105.485
121.348
28.0737
-163.495
-223.705
-138.8
-48.9672
5.33499
-45.0491
-21.2187
-17.853
77.9128
36.7242
-23.9836
-41.4359
-77.6068
-61.2616
81.7734
0.00579974
-37.6745
-26.0992
-18.8841
-23.7418
11.3168
104.207
70.6467
-47.1095
31.7832
56.8463
12.2176
-43.4247
-52.7206
32.7205
98.0518
114.85
27.9151
74.5664
-19.5958
-30.1772
-34.9557
-69.7026
-87.4724
-22.8216
-19.0578
-93.4685
-35.7273
86.2485
14.0957
-107.733
-54.8729
45.3571
91.3225
-41.9654
-62.1434
-36.9722
44.9428
45.7555
-18.3565
31.2059
158.005
11.1277
-127.561
-114.66
-33.2816
98.6967
166.333
132.474
44.3052
57.2887
14.5814
-84.816
-146.565
-101.534
-89.4747
-37.3588
71.9344
149.798
148.334
17.7815
-97.6767
-25.3693
65.4379
-6.7683
-50.8013
64.894
1.4748
-147.121
-178.689
-163.982
-126.125
1.02334
32.8919
62.9255
69.9561
65.7424
18.0309
1.5022
-10.2304
49.1018
41.544
50.0814
80.6937
96.5006
85.1298
-48.0067
-91.0651
-1.38586
7.73901
-27.6503
55.8176
74.6997
-46.7738
-68.4542
-73.2363
8.35239
75.2593
60.5779
87.4026
30.7864
-21.8994
-66.1719
-46.982
-48.5243
-16.9709
-15.1125
-45.3304
-39.9985
-29.811
-37.2008
-106.9
-76.4426
-12.3192
51.6305
99.7053
63.2851
-83.8053
-82.3009
-7.2779
72.1558
21.753
3.94129
21.2906
91.0743
165.365
29.3425
-120.009
-122.542
-13.8974
-13.3768
-34.0665
42.9861
136.72
219.846
21.9696
-104.27
8.71225
49.2103
-11.4049
-43.3074
-3.24295
1.32216
34.061
47.9798
-177.249
-168.236
-5.7707
78.8826
52.6942
-1.18297
10.6887
5.88585
-22.8566
-98.1904
19.7203
159.897
47.623
-62.8582
-9.675
-13.2938
-51.1922
6.72655
-0.186561
-67.804
-106.531
-76.9608
77.693
42.5144
-78.7159
3.3341
59.7275
25.7112
-67.2702
-90.1344
-32.9785
13.0756
201.475
56.6543
-82.4958
-1.84067
54.4853
54.7714
47.5286
-8.69041
58.718
149.785
22.6777
-15.0768
0.864486
18.7362
2.16625
-31.5784
-47.6021
31.0088
-58.8062
-140.465
-145.982
-51.9514
-13.8283
0.354107
62.2453
109.912
19.3726
-46.6097
14.3993
-51.2903
-28.6223
36.1966
96.9542
112.818
-31.2948
-97.9548
-22.3965
-58.3381
-70.2647
-40.3402
-10.1487
71.5254
174.435
139.104
-45.1458
-127.25
-56.0137
20.1986
-2.38189
-64.7904
-75.7533
12.5556
34.8486
-114.071
-46.6041
69.7751
-1.23454
-66.6518
-16.5764
78.9772
143.602
46.223
19.0501
121.821
255.41
161.365
-26.7733
-134.31
-126.68
-108.952
-74.2751
-101.8
-80.8743
5.11036
54.6926
85.4491
70.8205
-4.72854
63.4326
91.7483
-3.81572
-69.0356
-76.8777
-72.4548
-38.4315
-126.126
-43.4589
-30.9199
7.90781
65.0583
16.9042
40.3385
103.116
51.7974
-40.8601
-149.963
-111.711
-4.54643
31.6886
17.4524
6.3988
62.6829
36.5886
-136.739
-38.4556
131.225
202.065
103.884
-90.0495
-34.464
54.1908
-125.208
-145.892
-81.2002
-7.86943
80.6451
114.377
169.024
128.297
41.0324
-61.5399
-93.1772
-124.701
-63.4195
-69.3794
-21.1885
13.7357
130.596
148.306
73.9726
40.2882
65.5059
20.7083
-52.7465
-109.397
-95.8842
-161.515
-182.994
-154.199
-59.6948
82.2529
139.449
120.143
196.325
85.6825
-15.766
-67.884
-68.675
43.6068
59.6315
-22.6202
-16.4477
-58.6159
-58.8542
-107.379
36.2656
162.207
50.0064
-32.9044
-74.5094
-66.6199
-4.50948
-57.0406
12.9907
107.089
110.03
47.9162
-87.465
-82.8495
-41.7843
-57.842
-10.0122
17.9077
-12.5044
25.6317
-0.84978
-34.3002
94.9266
63.2459
84.2671
67.3409
6.84668
-0.624465
-40.9573
42.4237
123.256
-16.0528
-11.6162
-44.0523
-108.583
-112.927
-126.665
-62.3359
25.147
0.781058
-66.2245
41.5609
61.1656
60.3897
-71.8308
-54.0316
-6.30892
117.214
62.1733
-21.3937
-40.915
20.5374
47.0124
-30.9715
-59.8291
1.88443
171.423
94.6037
-41.7918
4.05011
94.7444
-45.9206
-122.517
12.5131
110.778
159.364
29.1554
-239.186
-245.286
-177.26
-162.206
-43.1229
36.2899
159.314
98.5182
90.7639
65.1652
81.8995
63.1051
1.74791
-31.8659
-16.0822
-29.4955
8.10102
20.9007
-26.2228
37.6519
127.785
118.399
114.86
106.92
-11.5138
-103.21
-129.147
-120.293
-128.034
-164.166
-102.17
55.546
87.8813
-47.5711
-4.18584
67.4487
102.219
62.8724
-35.317
-73.2068
-84.3144
-103.936
-49.5539
-141.398
-116.149
23.3794
36.0418
131.539
59.8941
-41.2092
-29.2791
-26.4135
26.2077
113.562
151.702
146.235
-7.34127
-60.3533
41.5276
87.9805
124.867
169.08
86.523
131.916
215.735
107.866
-25.1273
-134.187
-214.185
-268.523
-198.528
-212.847
-207.327
-51.8026
-124.813
-195.612
-83.1241
43.294
88.5991
84.8582
98.1411
109.997
141.532
130.149
-20.1875
-19.0546
-0.967112
43.6671
118.348
111.053
-6.78689
7.51739
58.1305
-56.1147
-23.6479
39.2245
11.011
-42.0007
-29.6101
50.1277
90.752
-42.5812
-116.63
-206.075
-116.496
-21.7777
25.7323
134.958
86.3412
15.8037
-42.1649
-46.1594
-91.1137
-70.7587
-18.9805
49.8786
58.5283
-21.1648
-39.2964
-62.192
-55.9646
29.4521
65.8232
133.766
171.725
204.68
19.9216
-180.038
-97.0192
-3.15444
34.8348
27.9875
-9.3789
38.1236
55.4753
-149.629
-158.999
-27.1996
-13.5058
2.47984
21.4905
75.4805
73.6936
16.3497
104.201
75.7734
50.9691
-3.88117
-127.613
-118.72
47.3145
-145.066
-214.23
-147.799
-76.3181
57.719
143.116
166.125
164.533
127.437
-40.5123
-40.6435
-59.2997
-37.2162
-90.2576
-67.5525
54.5724
189.908
74.256
7.94209
-39.3809
27.9415
82.1553
86.709
37.4712
36.6433
63.479
-3.92006
-103.919
-115.061
-19.934
-14.3466
-28.7974
-89.8627
-121.982
-118.797
-71.7435
-3.52791
6.03688
-22.3478
-41.2368
54.7741
101.747
-11.6458
-70.9893
-47.4434
-54.5161
8.88202
57.3824
59.1738
134.71
59.3708
18.5236
66.7701
37.7309
-0.437304
-24.3304
-55.7919
69.2629
-33.9422
-27.7047
14.4957
4.39878
12.3063
24.2373
-7.01267
116.132
56.5978
-100.944
-87.8051
-106.462
-23.4805
35.6178
89.4814
101.424
134.384
54.7873
-212.816
-236.121
-68.13
22.1283
96.409
68.9171
-33.292
-27.5271
-114.013
-220.323
-127.113
54.3241
104.137
154.787
164.996
108.05
44.2523
75.8418
49.106
76.1103
102.931
34.6541
-0.947413
-82.9945
-78.5666
-42.5705
-92.154
-106.854
-75.4287
-81.6462
8.0678
88.9714
113.24
49.9361
-78.7792
-95.4614
-103.516
-198.301
-132.569
-50.1808
24.0481
120.853
80.5636
40.8773
11.3023
-19.3779
-4.45164
31.1289
132.783
183.689
191.207
57.5612
-79.7819
-127.96
-55.6742
17.5243
72.5997
21.6749
-67.4925
-47.9017
-115.944
-97.5475
12.3258
21.0475
-12.1169
-69.2534
-54.0094
73.4799
50.8926
-29.6759
35.3112
151.248
87.7304
19.8233
30.5901
-41.1101
-78.8626
-38.8128
-36.5321
-24.1585
43.3127
63.6777
72.0558
82.6828
-40.4757
-7.23477
74.8905
21.1906
-17.8877
-117.416
-223.94
-207.443
-169.517
-74.9026
-12.12
104.24
202.633
215.289
151.278
151.651
95.5985
-59.0646
-116.683
-83.2184
-16.795
-32.146
-70.5713
-105.866
-59.2496
65.5907
57.0421
12.8517
86.3633
119.412
8.13925
-16.0785
-19.1485
-31.5717
23.3326
-132.851
-75.1019
-6.1141
-57.9864
-121.22
-114.279
-15.8914
27.3236
17.2073
57.1818
81.1998
77.0822
19.7364
46.4138
122.952
166.457
96.4794
40.145
-47.293
-133.37
-107.693
-108.002
-48.8475
91.4269
100.62
102.693
-1.41151
-84.0327
-119.605
-168.813
-155.65
-0.857636
177.362
95.8025
5.70387
-29.6925
-0.0316973
16.4309
41.7352
107.713
149.153
-14.9137
-18.9866
-32.9662
-65.5741
-80.3407
-146.971
-122.738
30.0683
39.1373
56.9886
8.18523
-53.3228
28.0092
26.9579
24.0265
22.3477
-8.70757
-10.7125
12.6046
33.2981
134.734
119.167
-22.5008
-115.016
-22.0257
82.5886
-4.20387
-13.0547
50.9445
20.9432
6.65822
-37.2617
-43.2949
0.158569
-54.4311
-45.6385
2.63355
14.4647
-85.3876
-104.897
-46.7816
7.53562
81.1775
-17.1082
-72.4591
-99.9329
-56.3796
-12.5417
53.4939
51.5533
58.1041
5.93705
26.6166
51.9654
80.9478
65.8595
34.126
28.9504
54.5747
12.8994
-22.9689
-65.6344
-91.6759
-7.97602
31.756
96.5574
98.8563
-65.5111
-37.8364
-43.7707
-70.5785
-4.58115
74.9736
103.189
96.1424
-44.1891
-99.3017
-90.2277
-137.057
-83.1842
-26.9587
40.6441
129.248
61.2054
-16.7075
-58.5663
-29.2041
32.929
52.3215
11.4342
-21.3767
18.7291
-11.1849
-111.815
-13.094
95.56
145.257
98.3076
-27.2033
-17.4206
49.1913
-29.0043
-119.372
-107.588
-32.5939
18.7962
20.0713
-56.2988
-61.5107
41.9256
58.2627
-54.1948
-33.4129
40.0101
-14.7274
-33.6028
26.8166
144.212
140.802
10.3099
-58.7584
-50.3223
-48.3985
40.0062
54.3537
97.1348
58.1294
-73.445
-116.667
-108.892
-11.3254
5.27721
-17.6018
-17.0069
19.7414
24.2348
-56.032
-76.1588
28.1307
65.6793
-15.8593
-55.437
-32.2104
43.1388
52.6829
-69.0156
1.20384
127.905
52.2692
-46.7635
-64.0979
30.9297
19.0972
24.0805
46.3079
69.2589
82.4799
87.6304
36.4583
77.8496
1.93946
-9.614
-56.9254
-124.819
-173.534
-127.568
-63.7221
-85.3026
-12.2728
146.24
153.011
69.3286
-47.0281
-188.84
-147.737
-80.8204
-39.2957
24.0317
53.0173
30.9879
57.9521
77.1832
105.881
123.599
6.24612
2.20068
-31.4528
8.13309
48.1835
-9.07499
-21.3669
54.3043
82.0425
46.7793
-20.5459
1.96185
6.77832
-71.6968
-86.7784
-30.3606
90.6276
119.589
51.6635
-130.115
-102.744
-82.4241
-100.953
-37.298
-16.4917
-27.8056
-4.82944
-102.341
-56.6853
42.836
68.9054
51.3538
58.617
75.0186
51.8361
-51.2974
-64.399
-88.773
-52.9999
54.5677
80.4006
118.988
100.682
-65.3152
-53.3828
-40.813
-75.5683
13.6533
66.2975
103.011
210.81
72.5109
-128.559
-43.6061
6.27686
32.7373
-59.6459
-155.54
-155.886
-53.7575
-62.3361
-83.0185
-13.2762
89.7294
89.5124
48.6049
14.7831
100.43
-17.1667
10.1496
99.5398
183.797
196.515
11.3293
-105.684
-56.655
-81.0853
-36.5052
-17.196
-18.3661
3.65798
-7.74475
18.8362
108.71
-12.4647
-81.3027
-112.88
-126.629
-40.161
-38.1941
-151.809
-130.621
10.4095
109.806
153.268
105.85
84.1932
80.381
67.5866
14.7092
12.5134
55.3702
-19.5487
-185.255
-165.291
-128.548
-95.7124
-53.5699
49.0343
142.749
114.254
40.4662
20.0868
18.4726
-31.0564
-59.2802
33.4456
39.8351
47.6199
17.1128
-1.19151
-29.7943
-89.3012
-62.0252
-2.60558
15.8096
66.1074
46.6648
59.2103
-11.0236
-28.9993
25.1
61.5259
36.0211
70.9195
8.50844
-12.0942
-25.6122
-10.6195
-19.2403
-33.1905
11.5682
56.4706
-83.0955
-80.6242
-54.9605
-134.995
-140.439
-111.728
75.2847
299.095
195.503
-10.9058
-58.0253
-47.1013
2.93253
1.52392
-33.2562
-56.771
7.51733
15.1699
-50.5436
-16.8581
73.7064
46.5022
48.3309
101.587
89.3211
77.4095
-4.5057
-253.639
-265.039
-81.0157
5.95464
62.869
115.36
125.626
133.039
45.5417
-127.803
-85.2328
-65.8023
-157.11
-102.005
15.4201
149.792
110.4
14.9529
-29.4085
-48.8914
-1.14862
60.661
98.1007
121.047
48.6228
-8.11863
-14.9686
-84.4484
-57.61
-10.3758
-39.8228
40.9657
116.201
29.3522
-63.1303
-121.252
-137.997
-67.0506
-16.6707
-9.03727
4.95084
47.6749
29.8561
77.1727
109.618
11.7357
-63.977
-50.237
17.7241
96.9531
43.2319
-19.2638
-46.7926
40.8111
47.3586
22.7493
75.7882
-10.44
-7.70903
-6.39233
-41.2766
-58.6703
-49.8848
-19.8183
54.4276
-35.6264
-29.201
-24.8626
-63.6313
-70.9986
-27.0017
-1.90589
39.3003
-47.0721
-59.0087
-33.0815
-57.4145
52.6375
105.393
150.214
240.415
134.408
-36.348
-116.856
-168.086
-104.705
-42.4501
-25.3005
-31.6368
22.2199
164.857
33.9358
-49.9277
43.608
-3.1976
-54.7666
-97.6152
-50.3098
38.1869
131.125
-2.65585
-131.121
-15.8407
46.535
80.0462
143.831
89.5263
67.7636
51.214
-89.5151
-176.932
-128.941
-72.7803
-1.86851
40.9934
19.7666
68.9015
104.913
108.612
12.8854
-23.2394
4.68532
-12.3835
22.4116
75.3046
-90.7481
-83.8292
-110.157
-126.748
-60.5212
-88.0591
-75.8877
-1.36791
-31.0239
-42.806
9.25307
70.5079
94.5054
56.5356
14.5317
46.8026
127.85
89.2019
40.3462
22.5351
57.2935
32.9044
53.5337
88.3594
73.1954
-21.6465
-4.50257
-12.0697
-57.0175
-100.961
-87.8227
-69.632
-86.3413
-118.08
-143.81
-109.633
-28.555
4.76678
-12.7796
77.5954
81.0641
43.9213
3.92019
-63.078
-5.22511
115.141
89.1662
58.1716
100.437
1.10762
2.2679
-42.4121
-36.1255
-27.0347
-7.45466
-4.09095
60.9306
79.1355
-61.3217
-121.767
-28.6427
27.2576
62.8093
83.6953
75.6486
64.4782
15.3884
-128.711
-132.581
-32.0281
-3.53553
7.04459
30.2832
70.02
41.7349
1.38996
-50.2115
-55.902
31.7653
16.6125
12.1313
35.2866
-31.0567
-57.107
-37.1187
-24.9973
21.3057
25.2408
-2.75155
9.35698
-115.062
-103.63
-32.5564
3.1213
-8.92867
1.29345
113.156
167.284
24.8365
1.09023
63.5607
46.7144
25.0088
-51.0702
-47.2151
-28.4246
-68.4198
-95.5006
-56.7754
-37.3491
44.3003
137.454
134.188
-2.70175
6.95651
57.1317
-81.6048
-91.0909
-3.43186
19.3207
38.0469
28.0853
117.685
192.541
-93.2694
-285.504
-172.549
-48.2283
-25.76
7.7667
71.8796
29.4095
-45.5614
-65.9439
36.8327
51.7133
46.8153
23.0641
139.099
139.786
95.0673
-46.4884
-124.16
-163.255
-31.7304
50.2625
23.509
94.7679
127.195
57.9396
47.9565
-43.2982
-177.817
-152.596
-134.051
-72.6785
-28.4333
91.7152
6.08611
15.802
4.30067
14.5537
5.15954
-15.0325
8.865
39.4079
46.906
-76.7689
-107.839
-19.5966
-1.61615
51.8843
127.836
208.905
197.607
59.3667
0.58512
-79.2962
-13.491
9.58801
40.8312
70.8881
50.077
-163.902
-274.752
-260.47
-173.885
-5.56296
66.3957
133.763
118.612
-33.7821
18.8948
51.2607
-9.8256
19.3891
101.027
175.639
160.973
-100.541
-210.504
-224.861
-145.075
16.4568
162.595
208.012
176.084
133.936
-106.201
-208.469
-168.464
-44.7455
-120.803
-101.175
2.29772
98.8911
93.5709
-44.335
-32.7788
74.6899
132.626
125.156
96.4408
113.291
95.4979
-136.959
-202.883
-120.388
-11.1004
27.5926
34.5769
62.1568
39.9632
-107.347
-118.037
-55.6858
14.3303
68.6625
49.058
27.6397
3.7313
-30.9311
-54.762
-63.6492
-32.033
103.248
96.6623
132.387
149.649
-23.2361
-53.0235
-26.9836
-21.6436
8.79946
-66.1102
-162.696
-136.53
-98.4839
-97.2399
23.2227
69.3901
70.1684
86.8084
126.255
150.495
159.382
33.6859
-121.011
-87.6992
4.80753
4.25061
11.8322
26.6108
142.822
121.187
56.0595
3.69086
-95.9794
-171.387
-174.115
-167.813
-85.2238
-23.2812
-37.5027
-4.83279
-57.9057
-116.726
-77.3618
-63.9704
83.9062
115.743
8.92313
3.65017
20.0546
70.3594
121.762
84.9799
130.803
195.879
217.404
109.525
-17.6162
-13.4176
-59.3552
-127.423
-104.769
-47.0001
-19.0931
48.3499
-127.097
-204.945
-66.8234
22.4651
17.9583
-43.0789
-65.6423
-0.956755
10.9452
-72.5608
-22.5857
111.809
180.507
121.38
26.4334
-18.8672
10.2003
-35.6114
-29.3957
-3.43016
25.8649
-53.2543
-80.7945
-7.12081
95.8793
46.2578
-7.56793
-68.0933
-83.8174
20.1068
16.6267
-1.93125
-88.039
-197.34
-101.213
-1.46405
75.8955
195.919
169.682
132.953
122.311
51.9354
95.0142
89.1398
30.4701
12.4346
-70.0505
-115.709
73.9391
42.541
-193.43
-189.462
-159.283
-112.352
-104.462
-95.1934
-38.9686
13.645
-150.688
-179.017
-56.0204
89.8522
105.186
65.7054
67.2044
209.141
308.48
255.727
-5.53591
-109.989
-21.0004
58.2229
115.569
153.627
198.602
194.388
-8.37896
-99.1937
-58.8681
-140.284
-239.776
-211.203
-141.77
-85.243
-142.25
-179.45
-113.827
6.62414
88.411
167.349
168.837
110.857
56.0609
-57.2715
-64.8623
-135.681
-67.4932
-45.0599
-16.4427
38.4605
152.12
60.7576
-37.6638
-63.1516
-27.2353
51.7111
52.817
36.796
-38.7776
-8.44556
85.7259
57.4893
-10.8903
-10.9666
46.7794
133.252
219.959
218.553
-35.2605
-210.952
-294.312
-206.683
-57.2789
-31.5659
-36.4336
63.0938
-5.51202
30.6196
-32.4129
-120.345
-64.7118
-19.9084
98.4861
190.055
146.402
69.8621
-42.2239
-64.4408
83.6313
149.739
157.408
123.402
-37.8233
-160.882
-176.216
-140.436
-81.6196
-47.2599
182.823
314.91
198.459
58.2753
-83.9753
-214.214
-206.012
-173.256
-148.595
-132.945
-38.2594
47.9914
58.4444
32.1156
-31.0429
-3.36506
38.3022
-3.30525
-12.6938
-29.988
-47.7807
-13.6108
-35.6349
25.9854
97.7847
141.014
131.275
107.909
108.695
92.7034
-73.0597
-176.602
-149.2
-102.061
9.97809
97.7383
51.2534
35.4712
-7.28777
19.6288
-7.67878
-53.7888
60.6725
113.506
106.281
98.5159
-44.7436
-179.185
-164.899
-121.394
7.53888
71.7316
86.5749
154.216
116.736
16.256
-105.423
-95.7273
-102.167
-210.367
-186.747
-133.121
-20.7786
30.9893
94.7107
197.771
209.74
167.674
38.7166
-101.105
-76.1305
-62.3742
-134.744
-58.7424
76.742
194.588
166.839
21.3229
99.3045
117.788
-73.7758
-140.499
-242.11
-229.654
-65.8582
63.3174
206.576
118.42
-83.2327
-31.1723
63.5412
122.181
84.31
-62.7031
-117.598
-1.53958
162.154
52.8093
-93.2182
-129.742
15.9888
97.3382
137.1
147.797
60.2859
-175.167
-262.098
-151.294
60.7751
44.7356
-64.6273
-109.555
-70.3003
0.282598
-53.0199
-136.707
-145.871
-20.9602
57.6713
131.374
208.569
205.793
65.947
4.76181
-33.6907
-27.3902
-52.6777
-67.563
0.277126
133.623
159.874
-31.8004
-117.12
-191.397
-188.347
-97.2285
-19.1323
110.244
110.703
154.366
160.885
66.7509
43.2115
9.81616
-33.0765
22.6107
59.3253
11.1163
-41.839
-121.307
-168.409
-47.63
15.2989
85.4299
254.769
105.983
-131.106
-228.226
-18.5948
101.364
94.3911
42.484
28.7558
41.7283
-90.4347
-106.266
-86.9686
-19.5812
12.0114
14.3701
41.0174
191.067
79.1201
-155.282
-374.433
-280.074
-74.3949
39.8065
85.8387
80.7075
87.1284
148.462
131.22
-10.0484
33.8527
7.84365
23.3646
18.8239
20.6089
41.7723
-17.3081
-123.536
-72.2857
-6.16177
56.7731
63.3741
55.1901
49.4253
-7.88195
-139.94
-110.732
-93.4047
-49.9639
20.0697
100.893
101.463
182.429
197.641
-27.8373
-105.441
-59.4032
-39.7083
-36.952
-52.7712
-72.2296
-58.8456
-113.691
-95.2206
-24.1066
91.7908
74.5365
-31.5357
-77.8056
-6.264
92.0799
109.238
23.1721
10.0248
76.4355
103.698
137.387
30.0277
-39.1346
-66.8791
-95.0548
-94.1012
24.835
32.5847
83.8437
43.3817
-46.2267
-39.3735
68.2055
109.679
61.0223
16.7554
-29.5056
-65.1909
-202.226
-286.353
-210.069
-17.7418
89.036
116.888
166.343
245.34
246.36
6.35244
-255.952
-222.428
-127.805
-72.5069
-43.7537
-5.42942
15.0218
28.0473
66.2533
109.425
109.118
62.712
13.334
-91.3286
-116.072
-58.9388
14.5594
53.4766
-47.6625
3.14316
79.338
91.967
117.066
81.7965
11.9078
-17.2392
-101.435
-95.4283
-87.7591
-50.9916
72.638
111.876
35.2309
-3.85928
-38.3309
-15.0479
-28.9553
-90.9887
-43.271
53.6717
128.695
179.222
56.0938
-40.8004
-21.7183
-23.7373
59.0761
58.6123
13.4581
-101.363
-120.033
-202.424
-237.993
-166.307
-90.6737
-100.215
-67.5505
54.9596
210.734
271.346
133.884
-71.3307
-111.239
-19.5229
96.4333
171.61
206.236
180.611
-2.57436
-40.9005
-23.4485
51.2546
97.509
119.203
120.228
57.8872
-44.4491
-144.2
-287.387
-327.612
-215.887
-70.3527
118.48
76.849
-34.5299
-79.6683
-119.527
-81.2175
-21.7922
3.48198
16.9144
78.0623
117.762
51.7985
65.4954
82.8144
58.4346
26.1906
33.0025
36.5579
52.9028
36.2581
-20.4308
46.7685
72.5465
24.3081
-55.8286
-128.977
-40.1374
83.4012
72.8956
-70.9752
-75.3786
-48.9857
-59.7472
-81.0559
-117.968
-60.7121
20.3111
-35.6952
-29.5867
53.8125
71.323
5.9021
-26.4298
41.5665
82.8933
87.7673
91.0676
90.7343
24.3788
-43.6518
-86.1763
-48.8099
-77.75
-54.5
26.1811
59.0417
79.5724
78.5193
91.8473
33.9007
19.0702
53.9493
-68.6051
-128.701
-80.484
-59.7596
-97.3737
-98.0079
-56.7938
91.8309
169.682
-1.69781
4.00068
36.5989
21.0595
-91.0238
-142.842
-34.1695
42.6305
-37.4549
-10.8464
104.078
169.374
117.787
55.9164
55.0073
87.5836
-73.5149
-161.995
-72.9626
-123.866
-51.5703
-4.23174
-45.7967
-93.6904
-46.4125
51.9539
-18.8263
-66.0199
-18.7102
8.10353
31.9798
57.2503
84.8496
120.696
124.607
-4.93551
10.158
104.157
64.2951
4.13414
-42.2176
-43.5752
93.8628
180.231
-69.1349
-141.526
-64.4496
-22.1415
18.8532
2.22474
-38.8121
41.3164
34.1527
-122.491
-67.5614
27.263
45.2118
-107.931
-226.521
-69.5433
14.3518
1.04786
-3.35013
-78.0415
-59.309
-29.429
24.4497
138.296
119.944
23.7588
20.5395
77.743
42.0834
35.5352
32.2174
35.9141
-60.684
39.6126
68.4582
8.97041
19.173
34.096
94.0825
143.438
14.7364
-168.399
-197.92
-170.771
-50.7649
62.6899
58.0358
-21.3173
105.319
148.812
-1.75161
-133.339
-74.0479
34.0192
119.216
98.6587
6.41172
-25.952
-256.252
-377.291
-129.152
105.48
149.967
39.554
-3.9292
22.1203
40.5471
-38.0342
-85.9865
56.8318
83.1169
13.3195
61.8969
91.1404
73.9665
32.9212
-74.7261
-50.3649
2.0109
36.2714
88.6569
57.652
41.9266
67.9328
14.1144
-16.2736
-71.6042
-53.1047
-13.2539
-13.9462
11.46
152.772
166.638
-26.7877
-209.738
-237.988
-118.029
-81.5142
16.156
111.548
135.654
79.4418
44.3887
-144.56
-163.397
-169.28
-154.896
-70.9828
-35.8251
15.0382
112.513
26.1645
1.71465
82.3163
126.149
106.82
129.989
110.449
88.1098
-57.0277
-84.1795
-19.8126
-19.2277
62.2151
164.84
220.548
153.773
-110.204
-216.434
-181.681
-109.465
9.18547
75.9919
143.299
78.0375
-151.332
-223.023
-195.709
-166.237
-98.1645
-65.6104
4.08239
126.188
178.412
130.606
-55.1044
-52.6072
71.5163
127.112
141.575
60.4949
-28.1786
-41.8603
-24.0498
-16.4426
35.3924
23.2905
21.3645
55.4531
68.3562
94.1777
108.836
-37.8038
-226.187
-318.606
-194.314
-34.8007
58.4989
54.154
18.2408
85.1456
81.8269
-61.6574
-57.8613
-22.6128
38.1529
63.6972
97.9976
201.257
187.112
-63.4782
-208.825
-230.069
-157.334
-32.6285
50.6297
111.355
39.0156
47.2746
54.4738
27.4468
21.5515
-0.290698
-37.9147
3.12395
93.0562
2.58128
-83.2002
-114.077
-17.3834
76.6748
104.465
12.063
-71.4021
20.9271
18.5874
-25.6065
47.2804
5.36501
-5.98496
24.103
54.2823
88.5677
-65.1402
-101.315
-110.095
-63.3452
-58.7894
-109.019
-127.076
-112.376
-111.523
138.321
263.891
167.901
54.0954
-6.80626
60.3859
97.1036
69.5477
-40.5182
-161.582
-152.91
-13.0931
16.0218
0.55087
82.1105
203.684
229.037
-21.3779
-176.775
-168.029
-207.576
-82.4756
21.8544
59.9933
71.6755
85.7174
-16.0806
5.0103
41.2704
60.5113
3.03737
110.214
247.373
204.234
89.1047
-281.578
-451.768
-320.776
-156.52
-59.054
25.2288
93.023
123.832
-20.4034
-26.0242
2.6751
68.9255
83.8127
67.9507
134.194
192.733
-2.32944
-133.571
-155.825
-111.78
64.3719
120.225
192.706
196.611
112.062
78.9041
-42.1126
-172.311
-101.778
-23.8954
45.7617
58.4195
3.86283
-111.033
-109.625
-131.343
-104.914
-116.643
-98.1782
-73.7394
10.2003
2.06698
32.9011
69.7073
20.4663
-16.8267
37.2952
82.6047
94.1522
27.1454
-31.7563
-64.8768
-87.8957
33.5741
28.7995
38.1131
242.051
235.89
25.3985
-108.222
-170.857
-61.8377
14.6407
-18.7728
-64.3298
3.768
65.6701
1.48509
31.2105
16.0207
-20.1185
-46.5702
-26.1878
12.8592
68.2642
11.324
-20.6457
63.2478
153.879
112.093
-34.2809
-125.085
-110.312
-185.369
-263.403
-191.797
-129.4
27.1068
141.827
168.41
126.181
106.078
80.8351
71.1235
75.8746
41.1509
-95.5653
-191.213
-132.723
-5.1443
104.221
68.1477
92.1186
139.955
177.426
93.0616
7.03808
42.5432
17.3313
-129.572
-147.481
-96.1713
-87.0929
-97.9347
-78.9776
-5.64843
-9.21849
-48.9352
70.6021
93.8477
1.00028
8.92433
-19.4613
27.0343
69.5986
0.160853
-52.9897
-149.453
-134.372
76.779
256.828
277.805
218.512
-77.7388
-280.055
-236.854
-181.258
-103.114
-133.897
-109.082
-21.5295
57.8751
-44.6432
-72.5175
27.972
144.915
158.528
149.664
155.605
121.759
64.2758
3.16287
-24.7112
119.979
145.721
90.9243
62.5258
28.2113
-27.2038
25.0227
-10.8458
-96.0401
-80.1438
-53.9454
-126.038
-150.492
-105.534
-30.3312
-51.3606
-17.2192
-91.975
-116.172
-81.2569
42.2214
81.2178
42.2459
-132.006
-72.2742
32.5629
46.542
103.472
143.956
180.497
156.815
90.7662
58.5816
-15.7734
-144.556
-186.95
-164.415
-53.0201
27.7568
60.8774
42.6355
8.22174
61.4986
161.942
13.516
-159.151
-64.0171
104.324
110.746
-62.1599
-170.848
-115.071
-73.0952
-43.8652
60.4205
231.382
269.238
83.2736
-110.965
-119.746
-78.7033
-30.9897
-81.9869
-3.01586
128.144
94.5522
0.735526
-75.893
-113.62
-40.5442
26.1273
57.1945
68.6597
68.2093
-7.6727
-19.6324
-44.4997
-2.64834
15.6464
-63.8641
-77.2906
15.9515
69.7163
10.7977
10.2287
33.7275
1.25368
-52.618
-57.364
-40.8929
50.1927
101.525
-43.3639
-102.922
-34.9652
-16.6725
-57.7034
-75.4932
-28.6077
-0.810291
55.1312
80.2805
81.1811
84.8903
33.281
-19.5002
-69.5442
-43.0033
56.0834
36.8348
-12.9099
-68.2364
-20.3468
55.0965
35.9961
41.407
27.3819
34.5306
159.437
162.453
49.15
-77.1252
-38.8421
86.1998
28.3238
-87.0025
-154.515
-233.847
-232.627
-89.4652
95.8575
171.951
20.6343
-166.538
-215.766
-212.16
-94.0546
49.8847
30.5683
17.4188
96.8207
234.857
213.074
145.938
135.815
115.844
20.1982
-22.9518
-13.6891
-2.80145
-149.936
-121.711
-33.8816
5.92665
24.2706
90.6198
121.116
150.016
97.0922
-47.9707
-46.7734
-10.1969
-39.8868
-139.473
-133.088
-26.239
119.598
158.621
-3.91201
-0.038597
-27.8779
-248.878
-292.073
-83.688
29.2132
67.1841
-44.6644
-84.6418
9.84764
106.357
52.9508
1.5686
-35.3019
-69.5352
-6.89833
16.1364
-75.0652
-30.0479
23.3446
2.31754
23.9276
87.3253
226.266
296.446
97.7493
-38.9402
-16.9753
-66.2251
-160.145
-86.4674
144.57
329.012
142.295
-125.25
-254.275
-213.307
-108.271
-73.2548
-18.6847
63.638
30.6766
-0.40975
-42.0679
-29.7545
124.934
122.099
148.211
56.824
-109.211
-126.774
-216.392
-228.968
-20.9619
203.584
304.272
272.879
74.0634
49.7516
41.2744
-70.2059
-43.0257
-73.7316
-138.251
-154.179
-181.313
-166.219
-101.318
-18.6265
122.419
147.297
138.684
80.3026
173.758
95.626
-233.073
-332.216
-219.744
-190.238
-154.756
-61.9764
-1.17785
103.597
245.391
140.19
109.032
218.304
206.908
102.867
97.9219
146.923
157.146
17.7424
-84.8142
-31.1637
100.919
94.4512
65.0848
66.9565
25.5212
-99.2698
-136.827
-141.149
-267.677
-272.351
-297.247
-358.569
-145.868
94.4402
113.865
60.2868
-28.0787
-53.4999
-125.2
-196.421
-117.874
21.0784
168.261
198.246
259.847
261.822
129.923
-26.4804
-95.062
49.4359
163.985
59.1603
-58.9954
8.04523
140.231
183.015
170.93
115.744
66.728
-86.9838
-134.691
-24.8501
14.6573
-34.8024
-110.218
-122.466
-9.55349
16.9755
21.4721
-52.2339
-30.3431
49.7278
-37.1129
-156.861
-173.124
-163.009
-135.438
-20.8909
37.7323
114.836
138.165
60.3335
5.31081
-2.51588
-82.8426
-78.3299
-76.4658
-16.9753
87.1902
89.8913
47.0979
-1.54094
-37.0327
-100.298
18.731
79.3717
30.6722
-16.0681
-21.5885
5.86049
95.1845
69.1903
-84.6585
-111.559
-72.4357
-49.0219
12.0115
122.072
142.73
112.111
74.5317
-113.602
-125.531
-52.5926
-30.8805
5.51427
24.9976
110.251
149.837
78.6071
58.2005
79.6868
73.0334
-14.7472
-45.8138
17.6545
22.1398
-177.354
-187.834
-59.7894
62.2081
153.105
118.25
76.6234
59.1729
-83.8382
-198.152
-175.368
-27.1938
129.086
112.405
22.9865
-124.246
-152.083
-101.609
-246.991
-251.1
-112.077
-4.434
7.42349
17.1876
200.696
316.439
156.285
-9.57988
15.0596
89.0265
35.4251
-42.8428
-20.403
-47.1933
-22.2003
169.735
208.737
84.5389
84.7269
65.5774
150.586
53.1093
-210.324
-235.749
-277.378
-285.876
-125.011
4.08375
54.2065
120.113
140.902
51.7343
18.6476
-2.09709
-1.88989
-33.4464
-16.9724
12.6183
84.0416
-84.6635
-204.351
-163.738
8.63946
66.199
62.9433
42.7662
39.3652
32.4997
-11.4421
-11.7621
72.7014
152.28
134.237
25.1246
-50.652
-6.88521
-121.317
-129.649
-127.717
9.38084
105.44
122.471
165.656
129.113
5.56827
-7.50691
-23.0224
-31.8172
23.2612
19.0842
-0.139556
-31.6196
-87.9586
-31.8736
-18.6211
-101.594
-48.4084
38.5362
101.271
30.3927
-59.1968
-98.0563
-108.912
-96.2818
-3.51142
79.7169
133.591
23.0869
-146.773
-176.038
-130.32
-45.2809
20.3848
51.1691
134.165
158.482
200.616
96.9483
-27.0292
7.51121
-0.805613
-65.7473
-60.1492
-25.4303
33.2018
53.9786
28.9988
-90.4113
13.8437
41.5567
8.02015
16.5023
53.0314
61.3222
114.109
11.716
-91.5154
-80.5077
-96.4742
-105.867
6.37694
-11.6106
-120.782
-183.149
-156.55
-66.0044
-3.88241
120.606
195.625
207.1
170.707
13.6241
-37.7351
-22.5393
-82.1684
-59.0505
-26.6785
1.91548
96.3967
16.6592
-75.3763
-15.7066
51.5828
115.201
130.575
67.6376
45.611
98.9606
56.8654
-147.225
-209.459
-94.2779
52.3713
60.7945
-6.82974
-5.01409
-75.5099
-215.274
-220.002
-86.9498
-4.35638
45.3841
66.6998
90.256
7.17868
33.1056
48.2275
29.6317
8.40259
87.9675
106.521
121.573
-24.3819
-30.7028
-22.6572
-74.8071
-106.849
-13.2586
36.5848
98.7435
-83.7009
-85.4229
-23.9201
0.151753
16.6305
-61.1556
-22.3431
97.6442
23.4733
42.5147
30.7264
14.457
45.9165
30.0792
100.986
142.636
188.577
131.467
-189.503
-323.457
-231.401
-121.013
-30.5033
20.1653
116.111
85.1012
5.97238
-62.665
-14.166
-1.58226
-7.93067
-5.95696
55.3923
133.189
111.445
-5.54753
-69.2463
-112.535
-92.1058
-25.7177
82.7988
70.6564
-4.48743
-130.649
-89.9236
-25.5514
27.9493
15.2249
62.0228
100.177
107.345
55.8174
16.105
-68.926
-195.364
-134.115
-19.9798
118.33
242.685
107.991
12.4252
-67.5692
-82.7274
-8.29781
-0.533224
7.17886
83.5913
136.447
41.6882
-42.2569
-180.457
-210.051
-154.011
-110.115
11.2549
138.22
89.3246
-48.0563
-45.0174
41.1711
131.307
99.8292
47.3188
80.7947
-57.3895
-192.172
-105.703
-140.069
-59.6595
21.7504
80.7478
198.125
185.475
86.3779
-35.3747
-187.116
-231.805
-73.9343
39.0017
126.152
164.432
24.5125
-32.7471
-49.8117
41.3783
108.784
90.7204
98.5083
153.888
66.2338
-102.92
-144.492
-127.731
-78.0254
-13.0899
83.1819
111.006
101.035
-44.6598
-139.954
-154.707
-90.0944
-15.2256
71.617
54.2317
-3.36924
-153.464
-277.637
-168.647
-36.1947
91.0364
100.232
86.8671
111.913
114.525
57.9905
30.5605
-6.13433
-23.7193
-58.2175
-44.105
94.14
76.2801
-82.4572
7.93343
48.7324
20.9489
50.3196
-29.7583
28.2627
114.73
-12.3562
7.18592
3.82791
-44.0523
9.85373
91.211
167.667
155.274
-25.5724
-84.4567
-133.124
-211.067
-243.246
-173.243
-98.54
38.3542
136.851
68.7639
28.296
19.2525
80.5723
33.2711
-20.7614
57.3312
188.551
70.1925
-128.369
-192.183
-73.4272
-60.3707
-53.4878
11.4017
85.5123
114.752
52.6168
53.9208
96.0627
45.9609
-95.5151
-198.414
-158.176
-46.7017
-49.4067
-39.2472
-18.1896
0.195317
35.4645
88.6627
168.665
248.752
100.662
-29.272
-22.0697
-64.3193
-62.129
-96.9585
-88.9825
84.8153
88.8457
58.8273
85.8352
56.8862
71.8565
44.1378
-19.0143
-62.6931
-52.0315
-89.7219
-159.922
-219.991
-151.015
-32.6179
30.8239
42.9901
76.3834
91.9415
41.7778
0.559525
63.4346
92.395
65.9822
54.3751
48.7345
-51.837
-186.885
-116.981
-99.3227
-97.0728
-87.1252
-90.5016
36.3973
136.719
137.066
160.493
108.477
55.2051
8.09361
-90.7722
23.6134
-2.48387
-51.89
-1.46045
47.7901
30.7245
64.9693
65.3285
113.451
158.202
88.6016
28.6366
-31.5293
-95.5051
-183.665
-194.638
-220.677
-134.232
-4.19769
-39.3231
-139.286
-54.4305
33.7064
53.956
67.5183
81.966
108.652
150.816
55.8159
-77.588
33.6479
55.6068
11.3614
-66.1194
-122.75
-101.304
49.1877
-55.5356
-75.678
75.1513
118.434
141.19
121.609
93.634
97.683
-18.5281
-70.3903
-164.671
-148.608
-1.00709
47.7262
69.5777
111.512
-14.7311
-132.304
-143.43
-129.955
-27.1978
30.9045
51.3964
130.104
197.499
59.6855
-88.2519
-192.919
-115.336
-4.39689
59.0084
54.5338
62.7095
85.6473
-57.5481
-120.637
-27.4587
53.152
55.4484
45.8512
36.7424
94.3073
69.3713
-23.4494
-28.2143
4.01471
-6.61128
-47.6079
-4.76473
44.5905
-104.42
-125.568
-64.1503
-49.8469
3.64841
19.5133
50.0437
140.269
-40.9751
-71.2381
-57.2142
-83.424
-62.1551
-9.96507
23.8588
32.6962
123.791
147.107
-7.87043
-96.9872
73.9304
117.676
47.7142
-22.9598
15.7496
102.564
4.40548
-161.061
-46.2975
-69.3638
-52.4377
20.6648
13.7721
29.8509
19.978
58.5534
-107.754
-80.7958
57.4739
74.5863
41.1731
-24.9302
4.98879
82.9738
26.5135
-59.0532
-21.0892
12.7487
4.79236
15.9069
28.1807
54.7912
-72.0653
-99.1802
-94.9769
-71.8864
7.80074
34.4113
89.8467
96.5721
-50.3317
-89.9065
-111.914
-149.237
-109.802
-87.5629
10.1289
86.8064
67.5254
106.889
73.6247
12.4761
103.153
117.875
116.083
104.881
48.8216
-7.16295
-36.8098
-55.0694
27.9054
33.0862
2.83716
-46.026
-16.6819
-120.761
-91.5969
-53.243
-38.5455
-45.9229
-94.855
-48.3541
136.747
61.085
-26.3218
-65.9541
4.41262
132.971
106.65
-7.29968
-0.985236
89.0117
-6.81128
-99.5349
-78.3131
-21.1484
-69.1721
-109.314
-104.767
20.8228
98.2642
57.3132
3.45454
56.2888
65.448
64.8651
45.892
15.484
-65.6468
-59.0151
24.8667
17.5708
103.289
99.3498
6.50282
45.3911
18.0112
-59.426
-87.4491
-100.627
-30.5566
30.2849
-0.783743
-83.7703
-103.189
-63.503
-1.0893
-1.65415
35.1589
39.66
35.9947
-16.3465
10.9496
7.90333
-31.4693
7.34943
23.966
64.5989
65.114
49.7842
70.9463
-52.0451
-69.4545
4.62679
37.7323
36.2033
9.7171
10.5618
25.28
-106.227
-112.97
-59.808
-56.9307
-3.13277
55.1492
98.4665
99.7387
-29.0692
-77.7913
-82.5334
-119.808
-60.2389
10.0773
80.7293
149.059
143.465
28.2905
-14.8898
-20.3881
21.6915
6.86175
-53.1864
-85.2792
38.5886
16.5697
-62.96
-82.9949
-25.5233
75.2796
113.11
48.5865
41.9857
-26.4073
-133.071
-220.641
-151.78
45.2033
185.897
278.822
225.722
166.574
99.0131
-50.1557
-172.328
-230.954
-201.888
-179.178
-116.572
-21.3173
-4.66402
18.4246
44.3996
63.1475
100.035
99.4614
90.3841
156.273
63.3668
-78.5823
-54.349
-55.3183
-36.7222
15.9979
-18.1601
34.0985
102.695
33.2676
-6.54095
-58.4665
-72.3851
-69.416
-74.4641
-40.6863
41.622
118.861
-31.8437
-83.7842
-70.8938
-17.4969
-1.51431
-10.5452
-13.4466
22.395
-26.8495
-24.8341
-24.391
38.9663
86.9671
55.8208
54.3608
50.3181
-40.4459
-43.3084
-52.3656
-22.8727
78.8107
74.6346
64.1208
74.7974
-19.2749
-47.2962
-11.3088
-23.9091
5.51948
17.7106
-11.1124
12.1313
90.4114
-2.02951
-101.177
-86.7971
-36.2666
14.9946
51.1088
-22.6966
-39.9914
-104.741
-154.457
-46.0211
59.3622
80.6454
49.7952
51.186
80.96
124.666
49.8053
-51.5613
-88.7143
-36.013
17.9568
-28.7151
-56.7596
-21.9803
-64.0246
23.1352
85.4206
98.8192
112.3
58.7362
45.77
70.7362
-7.05599
-61.9753
-71.7627
-92.0775
-87.287
-32.8078
-21.0974
21.9338
-46.8427
-37.6076
2.90569
-10.938
24.9036
34.2632
47.173
80.8194
29.9655
-57.9026
-46.9224
-92.0627
-95.8627
-68.5993
-32.3121
23.6033
40.8686
-0.685201
9.53048
-10.8184
41.4142
54.4183
54.8542
66.9443
109.197
77.3837
-7.29109
-38.5643
0.578927
22.0249
4.77568
-4.62514
54.5646
63.7021
-0.0854147
-95.4822
-100.789
-36.0889
-63.2947
-77.6569
-30.5004
26.3516
56.5078
-16.6744
-46.126
-22.9552
-5.95127
2.73323
55.1606
61.189
26.5083
-87.1174
-85.3999
3.56356
94.4385
84.6539
38.0147
8.65708
-1.71054
28.9488
-5.87355
41.9473
17.3137
28.1966
-54.1615
-108.143
1.3698
77.2745
-35.4307
-34.563
-10.9355
85.1475
105.925
-83.1931
-187.293
-15.3613
121.465
-22.0023
-74.3424
-162.438
-126.987
-37.2663
26.2918
119.002
181.203
71.7254
2.06609
-38.2849
52.2944
75.3601
53.8245
53.2334
-21.2181
-44.5805
3.71308
-47.0908
-77.1012
39.7673
67.9231
123.535
-21.8445
-104.915
-113.575
-112.904
-87.1898
16.3433
54.8984
84.8999
7.0965
-26.6062
4.05782
7.88253
41.6864
46.4471
-3.10327
-19.5807
-56.9267
-79.2227
-71.4493
-67.9618
26.9669
49.3718
40.568
26.8292
30.9483
110.967
25.0357
-68.2015
1.73813
79.5729
59.9556
-24.6431
-36.8313
52.4226
136.94
-24.1136
-175.984
-41.4925
-52.6339
-117.975
-64.9137
-58.9733
8.87024
24.7724
-34.1048
43.3944
135.585
107.509
71.3214
1.26835
-6.12968
-29.2538
-31.7789
-5.48438
-27.7096
0.205519
60.5644
68.0249
120.798
111.987
-20.754
-35.0307
-36.3618
-6.85378
59.9416
21.7756
-11.6329
55.5543
-64.1494
-266.936
-196.806
-81.6992
6.16074
1.79393
-32.6021
-26.4905
38.3687
-30.0435
-21.6921
24.5164
122.326
93.1826
-16.859
-30.7795
26.1954
-161.42
-171.295
-122.602
40.0037
241.197
272.452
191.39
87.2792
-64.7165
-80.221
-40.8414
-39.7664
20.8914
55.1445
130.326
119.084
-41.5282
-64.4216
-104.012
-117.241
-39.4205
-26.4272
-62.938
-26.7598
80.2246
44.1267
-15.9528
84.8927
57.2337
-6.64259
5.64178
-86.5386
-133.273
-113.907
-163.391
-153.725
-96.4518
-10.8216
70.7589
131.198
192.554
175.026
124.377
140.398
31.3131
1.35284
23.3728
-26.1877
9.53879
19.5638
41.6893
96.0188
-13.8486
-111.161
-157.376
-158.191
-41.8593
-16.1874
25.1356
49.5542
-38.8095
-25.0006
-23.0084
-62.2678
-8.45594
52.6093
66.9092
60.0543
-61.3188
-118.543
-136.578
-82.0828
26.2466
65.6118
103.547
102.335
-1.48222
-9.44964
-38.631
-68.2528
-9.93388
37.3536
106.761
172.644
45.3796
-36.3395
-39.8787
-39.0071
16.4427
-23.5539
-63.9845
-38.7701
85.193
67.2504
0.293803
-37.1419
30.132
18.9463
5.80812
94.8978
136.973
45.8654
-123.002
-221.138
-93.7336
-25.0937
-56.0192
-114.851
-21.845
94.0239
129.795
15.9621
-103.015
-39.8988
100.856
73.0831
-57.5127
-62.5349
-10.8126
-28.8665
16.6371
71.3391
114.313
53.6419
-32.6435
12.529
115.272
35.8289
64.9342
62.5729
13.3953
-16.8516
-26.1636
-24.2494
-41.9555
-100.038
-71.3415
-62.1425
-130.553
-187.309
-149.5
-50.5598
58.1509
136.861
92.5916
60.8663
-4.93901
23.4844
25.4178
-23.1732
1.58315
3.49499
-39.2332
-26.9419
-44.5467
5.25792
87.1016
120.856
144.836
74.7428
41.2654
5.28199
-20.4696
-31.2162
45.5277
63.3317
85.7556
-55.1069
-115.186
-139.777
-142.248
-79.7647
-5.90036
-4.12019
-6.28077
-102.998
-54.018
16.007
32.8146
80.7557
61.8194
44.0465
105.404
87.415
17.0045
-8.96441
-46.1251
26.17
48.1444
-6.05086
-52.0698
16.6884
55.2675
-41.8495
-85.8098
-18.3456
-53.0522
-156.408
-212.694
-117.925
0.00109869
115.563
88.57
80.5299
121.07
84.4619
43.9191
44.6382
130.358
155.948
-32.8681
-54.4967
-49.6604
16.81
134.487
121.629
18.1577
-15.5141
-214.564
-294.973
-176.41
-76.7123
-27.8225
-21.202
46.9525
103.376
37.5356
33.8006
17.5886
1.35802
65.329
5.95718
-19.1848
7.15459
-57.969
-58.5664
-40.9108
53.4862
177.94
193.934
61.6114
-48.279
-63.4122
-11.6931
-59.1387
-74.5617
1.38154
26.3591
-12.201
-39.1701
30.8577
64.4091
-64.508
-118.324
-177.341
-138.269
-80.7741
-32.5277
126.176
102.783
5.54877
13.9922
27.8648
55.8456
125.406
78.5938
127.215
118.526
-101.806
-142.316
-82.274
-40.0136
26.4557
48.3625
87.8131
134.895
235.095
57.823
-188.387
-139.629
-59.023
-28.073
5.51872
-46.2561
-32.1382
51.259
-64.0739
-130.913
-11.6476
56.7945
45.8274
-22.5611
-16.9321
-7.92518
24.0608
0.597261
-78.667
16.2629
84.7796
48.287
52.3287
19.8036
12.9191
-12.5417
-106.651
-111.539
-30.4926
22.147
56.5037
56.5171
85.4464
27.4433
-71.9615
-76.1954
-101.035
-76.7455
-13.2081
76.7507
179.71
168.314
33.5878
-62.4561
-138.475
-142.211
-82.5222
-38.2933
91.2017
22.207
21.2227
47.5506
6.03865
8.51314
61.3158
71.1818
74.0978
7.08941
-76.2265
-43.778
-24.1193
63.4742
102.871
21.9066
38.648
63.42
-53.9705
-175.862
-143.997
2.39769
83.5326
40.3094
-26.2034
49.5672
35.2637
-49.071
-135.988
-149.468
-77.6484
-9.13826
0.843048
-36.7466
91.0822
93.5194
35.375
19.5678
93.2586
149.328
99.9234
47.8048
17.8641
-24.2942
-100.447
-128.443
-87.3668
-59.3459
-38.022
41.4974
121.778
36.5535
-43.6054
-51.3285
-80.9113
-33.5315
-4.4917
34.2779
127.442
241.711
115.102
-88.2409
-114.635
-101.56
-27.2332
-40.7203
-46.2392
-68.581
-34.0242
-79.3084
-130.044
-73.8717
27.0825
86.1992
108.349
133.975
155.227
49.4048
-22.1149
-68.5617
-14.8659
116.063
82.6619
56.2627
55.9911
-72.7503
-197.636
-101.63
-63.7815
-26.5224
-10.5118
6.81869
72.0895
78.1026
3.68471
17.4939
33.5098
38.2404
-5.19603
-58.3799
-2.4683
19.6813
-58.9539
8.82895
-41.6464
0.777662
53.3834
-20.759
-69.9697
-19.7304
-36.019
-3.00878
-17.5132
-105.738
-76.5111
-23.9938
25.6072
75.8478
126.986
121.545
24.022
26.2668
59.494
32.3995
34.2806
49.2625
77.2109
126.725
71.1344
-57.4754
-50.118
-87.2283
-101.354
-74.9995
-3.34004
72.5894
-1.09129
-129.87
-105.902
-87.0595
-54.1811
-42.949
-18.6803
30.101
-33.7033
-63.574
-28.314
-34.7544
21.6959
90.3483
90.405
118.442
53.912
-86.4921
-89.8546
-108.647
-62.8497
95.561
123.285
75.2658
158.858
32.1838
-25.989
-33.0628
-33.1749
-47.1542
-51.9441
-12.3145
45.5479
96.0397
17.6954
-83.6666
-37.387
70.2886
78.4251
37.0577
51.4779
135.036
57.3072
-54.1969
-102.568
-49.7277
-37.0784
10.9887
107.074
265.465
61.127
-178.405
-239.036
-324.354
-356.116
-304.747
-135.656
87.9537
171.885
-9.87831
36.8539
100.685
129.819
172.461
143.546
156.772
138.078
111.234
6.2341
-142.668
-44.2722
47.1542
35.4775
53.4373
98.3921
140.331
113.348
-58.6219
-165.128
-71.7687
-87.6042
-133.018
-117.609
-68.3426
-34.2247
75.2257
-18.3464
-95.7408
-86.4644
-87.0109
-40.985
5.08676
41.9029
137.798
66.8694
8.08132
-32.3405
-20.0768
27.5661
85.0033
46.7773
81.581
17.6962
-30.4869
-11.0882
-18.8553
39.9617
-0.514024
17.8397
68.279
-76.7187
-68.7044
-36.3274
-73.5343
-11.2735
-5.72864
-16.1415
46.9213
56.6622
7.83998
1.42931
-70.9734
-53.1567
38.7881
53.2462
53.1811
120.559
156.546
41.4844
-139.58
-45.2948
-17.4133
-1.1926
-15.0596
-37.4287
-4.23935
45.8422
-40.8851
-7.29962
29.9804
0.120472
-39.1678
-50.9832
-25.4419
61.0515
-55.3498
-161.096
-103.988
-18.6484
38.7584
63.9754
12.7447
-45.2978
24.4251
141.253
99.8127
20.1386
-14.82
-69.8984
-108.987
-98.0817
58.1245
117.208
61.3316
17.7046
-20.823
-45.9649
-18.5636
62.6838
138.24
189.363
78.9631
-7.1414
-94.6237
-117.342
-99.6018
-90.4268
-45.2275
-19.3478
109.693
85.3381
-15.8637
-20.5871
-12.9187
-36.6209
65.7707
119.319
77.0878
-40.0978
-139.231
-143.185
-132.209
-120.693
-48.0943
-10.7087
32.9445
-33.057
-11.5514
5.95186
13.3249
51.9491
62.1989
114.589
142.749
-35.7845
-16.3184
-0.747064
-30.3258
-5.37432
26.6508
59.5488
43.1502
36.2305
24.3069
-15.7376
-79.228
-1.09948
41.4883
104.659
107.221
-9.26096
-38.5837
14.9581
11.4324
15.5427
-22.3713
-130.752
-156.672
-13.8939
-25.6508
-120.567
-54.9079
10.3827
8.47384
16.6618
14.7044
56.6865
100.387
-77.8085
-137.135
-22.5837
41.6632
-2.82985
-27.7636
61.0291
182.002
188.827
40.1479
-101.839
-86.8069
35.7267
66.6827
44.7117
84.7204
-60.9496
-126.416
-121.15
-122.831
-35.7715
34.237
76.0343
92.5893
7.34225
4.92815
37.3654
-30.9542
-26.3221
3.94382
4.44363
82.9679
97.5764
-22.7416
-36.672
-66.8134
-45.7905
-24.3456
0.278745
2.59759
64.9532
104.811
-54.9142
-129.741
-103.11
-70.9586
7.54588
101.348
165.158
123.626
-43.6035
-135.133
-197.148
-117.248
-45.5919
-5.44517
91.3942
111.562
-9.47588
-0.395701
-9.58657
-3.2216
96.4766
98.703
120.813
101.523
-28.2473
-85.3046
-71.774
-13.2115
87.9972
63.5167
71.3453
92.1018
79.1962
-70.4439
-112.816
-133.434
-120.2
-96.6187
-62.8008
10.4916
127.388
27.4099
-45.2005
-93.8138
-65.4621
-40.1117
-27.7284
-11.3492
69.716
129.503
9.60906
-33.8236
-36.3215
4.46052
-2.74084
-23.3628
31.907
89.9562
124.272
13.12
-35.3717
28.8968
16.9889
-27.9375
-33.8884
-13.2845
50.6832
4.35995
-14.6249
-98.1834
-110.117
-75.1222
-66.6982
9.05035
110.204
17.0954
39.6248
37.9228
1.19109
17.7732
13.2133
96.7889
112.171
24.7179
38.0589
-12.5309
-70.6853
-50.5836
-9.5418
33.8461
141.747
46.167
12.3581
14.128
-81.6642
-79.2327
-94.3522
-190.557
-229.498
-112.481
-106.858
-49.7669
6.05565
96.1389
122.075
135.583
174.14
167.68
127.036
79.7817
-39.8447
-48.9455
-97.0629
-147.015
-71.4661
94.8438
-42.2426
-50.7489
-44.4717
-54.4314
17.3605
76.9655
103.724
20.4301
-33.0828
30.7307
-75.6244
-2.29021
-2.42902
-56.3027
-21.2426
66.1487
64.8537
79.9857
-68.5464
-123.47
-35.653
40.8052
111.122
123.875
93.1926
1.23795
13.7235
61.224
-73.1952
-85.5719
44.2016
10.1826
-50.1598
-44.7713
-31.6192
6.42538
15.2343
-109.607
-79.658
-58.0774
-2.9484
37.6365
13.4858
35.8282
103.748
-64.2671
-95.0219
27.0954
115.742
55.5829
-10.5583
-83.7928
-6.31541
-93.6751
-102.463
-84.3841
-54.4373
36.0036
101.32
127.973
89.5457
-5.94041
-26.3741
-54.8571
-62.7131
10.3621
27.4425
63.9762
123.747
-2.43716
-9.38675
-10.706
-4.85051
55.211
51.5961
31.4501
65.6891
68.0126
-47.2486
-98.6227
-107.62
-82.9629
-60.4843
-50.1648
-22.8374
55.9498
150.535
80.3161
-16.7152
38.6256
-13.3336
-93.4323
-122.02
-61.2951
-38.2616
-15.2794
-27.831
-42.4867
56.2986
91.0083
136.516
201.551
161.945
64.2927
-65.7657
-224.36
-276.803
-230.178
-89.1976
33.1458
116.515
165.452
143.894
87.0686
168.737
-30.4385
-32.5684
1.25381
-29.7929
-7.30537
-34.7328
-91.8559
-132.631
-94.4094
-84.3541
-31.6932
-36.0133
15.5034
65.8972
139.715
225.03
-0.12453
-114.98
-82.9202
-45.7797
-55.3132
-77.6143
9.65179
113.811
128.787
31.0595
65.8257
75.8779
44.4969
5.01643
-2.42337
-30.5983
-7.83361
-26.9105
-74.1473
-79.484
-5.38958
29.595
27.8996
6.52693
78.5637
101.404
-63.4983
-110.795
-111.891
14.1762
37.2466
27.4934
44.3836
48.9492
-91.729
-129.362
-139.017
-94.7677
-45.895
5.16015
101.927
170.112
70.0663
-3.12616
-8.8522
-3.46435
37.6013
17.1172
22.9241
101.151
48.7634
24.8641
-168.16
-199.09
-30.3694
21.8114
33.0127
44.6145
97.073
49.4345
-90.766
-98.5112
-36.2991
19.9768
11.5656
12.8702
154.371
129.317
-2.83578
-36.3689
16.0607
28.3502
87.8836
67.3481
100.969
107.052
31.2088
-141.478
-159.595
-156.666
-92.3038
-12.518
14.5619
-11.67
36.0065
-125.896
-265.885
-116.579
-9.85523
20.4634
-9.24161
-58.6981
21.3485
127.191
90.1596
-65.398
-52.5539
73.1121
105.661
102.094
90.3815
57.0652
120.433
124.857
-15.7516
34.2986
116.3
45.1517
-28.5531
-58.4857
97.8898
156.767
-43.1076
-122.69
-106.695
-68.3155
-40.0168
-12.7831
-28.8943
-85.8531
-154.419
-163.983
-145.365
-81.7601
-22.3976
56.8922
158.041
89.9543
-28.3324
-8.18326
-18.5564
-37.7045
69.5222
46.3798
71.4644
65.3516
-7.33115
66.397
70.7934
46.8914
20.6988
-57.8559
-186.297
-186.52
-147.903
-140.776
-40.2021
55.681
182.238
231.045
189.836
133.077
148.4
30.6881
-149.779
-73.1085
43.0455
36.4669
28.12
11.3794
-10.1708
-27.9587
-95.9267
-139.314
-178.846
-26.6126
-9.87012
0.643024
45.5991
77.7013
92.9094
71.4826
-7.87094
-53.838
-55.5049
-49.1751
-115.837
-98.5471
-26.3459
-5.00916
-0.695327
76.2671
142.409
137.356
164.107
171.393
195.501
-10.8665
-126.08
-158.717
-164.274
-151.084
-41.05
44.3688
80.6698
109.814
12.2131
-114.836
-191.382
-152.828
-84.4581
-64.183
22.2665
82.879
189.704
119.194
-15.2026
28.7126
12.8958
-49.1157
-9.41244
43.3678
116.665
-11.7096
-98.0429
-124.006
-27.1127
-60.7088
-162.081
-63.9692
125.594
192.69
72.2438
69.116
37.7086
6.32496
-1.87536
67.9047
222.101
197.179
12.7572
-128.653
-207.214
-120.788
-27.0822
-3.70527
43.1251
15.6627
50.4044
2.22849
-81.1115
-82.4804
-0.864886
5.09571
89.1246
115.33
-95.5405
-148.301
-200.662
-176.777
-75.1433
22.0385
65.2774
182.975
177.424
-31.9529
-121.072
-24.6798
33.5484
12.7429
-20.176
-2.48187
125.434
81.849
-63.1566
-111.695
11.6823
79.2957
72.2852
58.7363
93.4297
110.7
-30.9875
-76.8169
-100.293
-36.4833
-24.4381
7.22983
40.0802
41.8965
-32.9405
-38.7882
-53.543
-53.2791
-37.6799
25.027
133.717
50.4313
-30.9719
4.40241
19.7109
-21.9617
18.6935
31.3868
52.8739
99.511
2.28664
-83.5638
-133.033
-152.534
-41.1152
-15.716
-17.1917
-1.17031
0.273844
-61.028
-39.65
30.9779
85.7339
59.7711
-48.0496
-25.1567
42.806
-43.2994
-77.523
-30.1871
15.831
51.5871
78.8157
120.983
112.394
37.8388
-32.1671
-12.8773
3.50693
82.1231
99.3314
80.154
106.479
50.1387
-154.648
-207.633
-153.874
-26.4108
-14.4623
-27.028
17.7271
90.3064
52.8199
-74
-139.893
-68.5079
-4.30053
-4.30764
42.8285
65.8739
92.1542
126.334
-70.8344
-224.547
-41.5168
25.658
16.2385
36.3669
46.9411
34.6687
60.767
-13.7483
-23.0977
-2.95502
-16.6322
-18.3324
7.82225
48.3883
129.863
-54.0851
-152.133
-130.018
-28.1559
110.084
205.858
193.817
154.783
30.2532
-39.3537
-68.7526
-115.724
-116.005
-85.202
-26.9001
31.4761
-36.5098
-59.202
-62.073
-86.9375
-19.6427
-16.5833
-14.6039
76.5405
126.908
119.844
10.3701
-81.2986
-83.6604
-56.7213
-24.5148
13.5246
101.155
70.2308
-78.175
-121.701
-43.4196
36.397
34.497
9.99438
44.6627
104.831
-2.962
-32.0654
15.3996
75.6483
115.491
72.951
152.988
270.545
128.082
-182.369
-370.098
-351.322
-198.393
-75.156
9.02539
78.3017
108.318
65.4833
-19.4853
-58.3177
-33.195
-29.5115
35.1345
65.9589
99.6485
67.1053
45.0698
-54.5999
-86.5532
45.2199
137.764
165.36
188.126
154.701
-74.6997
-200.232
-185.283
-139.264
-52.4099
-16.1133
33.3019
41.5195
71.1905
-61.1779
-64.0987
-29.9393
-35.849
-75.0788
-36.2209
1.95741
47.1461
84.0556
-13.9754
-98.3296
-57.982
16.9196
18.6994
23.0991
122.751
152.102
7.54986
0.300856
-31.7988
21.374
36.3415
45.7918
52.1472
37.5482
-90.0608
-95.6965
-118.614
-100.846
-1.57772
-23.974
0.0211746
28.1981
-28.417
23.2147
97.8605
94.2459
121.246
26.3566
-25.6283
13.9313
-33.5286
-144.683
-77.0652
21.8748
52.0152
23.436
-33.6209
-57.5777
97.5524
107.5
67.39
-44.1158
-79.9377
-83.7306
-65.2988
2.39571
101.045
110.402
79.1632
-2.35137
-70.659
-124.559
-138.376
-102.27
26.8925
116.664
168.729
89.8183
-92.4747
-101.232
-48.6026
22.3677
49.4653
35.4379
-11.9146
-137.114
-87.1799
-38.0852
-36.2879
10.2489
82.8813
193.841
169.973
-34.9437
-61.5745
-65.3022
-55.4899
-1.74436
24.015
37.4866
78.3284
37.8343
-25.2384
-51.0647
-68.0475
-28.5789
12.7396
38.6923
23.0678
57.2382
59.0312
-29.9549
-56.0767
32.6678
52.358
-23.0319
-147.053
-146.737
-40.421
-55.102
-77.8325
17.0884
112.542
72.6062
-8.88554
-25.3805
9.28576
-3.29782
36.8357
23.6489
53.2211
78.0071
9.30728
22.1973
35.3551
62.2208
133.457
116.691
20.0252
-81.6808
-175.779
-105
-37.5504
-164.018
-113.183
-35.4708
-10.4617
36.8741
39.6303
83.3459
133.844
189.488
116.946
-33.3404
-59.2842
-38.8369
-52.2762
-34.8911
-4.43083
53.1411
104.973
-65.9125
-225.31
-130.174
-40.2733
14.7262
16.8637
11.376
5.2413
33.3822
11.3745
-69.5576
-41.9302
21.5963
-9.28002
0.36483
24.2845
50.4272
-5.48117
-16.8182
1.69392
92.8746
167.232
132.125
75.8262
77.5979
-104.022
-122.987
-24.2505
-1.01704
-34.4904
-5.46349
-7.68129
42.0593
-29.7701
-64.3773
-53.5787
-89.5121
-93.1234
-41.4973
-35.0484
10.7278
181.035
159.325
34.3762
14.7838
83.5247
72.9202
-43.6037
-104.716
-26.4088
91.7098
42.7407
-40.5931
-27.9164
-51.5914
-110.711
-142.32
-34.9422
88.3012
59.3854
-108.613
-160.129
-82.0769
-11.6192
-14.0051
79.243
139.249
213.144
136.523
9.94307
-35.1182
17.1366
54.7427
-3.57505
-26.6738
2.15873
74.1878
-120.015
-250.595
-167.751
-32.2992
-3.81479
41.6322
105.938
120.879
11.3581
-41.9082
-55.566
7.51089
73.639
62.008
32.3439
91.8507
195.536
64.11
-92.9914
-117.116
-45.4909
-31.9147
-42.985
-10.7273
29.5887
73.215
-45.1561
-102.829
-7.13204
49.9729
-7.5504
-23.4824
-11.3838
-5.81573
-40.8305
-63.5945
-99.8727
-2.42643
42.5243
-46.0324
14.3805
86.8965
12.1148
32.4859
2.9143
-38.4128
7.63757
-24.0596
56.3314
91.6018
15.5424
-0.190229
19.5116
5.88349
-14.4576
-43.5953
-10.3033
76.3815
88.8237
78.8062
34.116
-55.7394
-123.15
-129.646
-83.5558
-59.3526
48.0213
61.6429
-32.5232
-77.9089
-58.6587
-5.15967
68.7416
116.825
109.519
74.7118
68.8428
86.0254
-43.3149
-60.2492
-58.8642
-62.1399
-56.4577
-80.6537
-39.3153
28.6908
97.6902
8.77818
-29.5608
-74.8124
-81.1777
-6.67284
51.8004
-4.81185
-71.4864
-89.337
-61.2347
-29.723
93.1119
103.585
92.5986
128.587
147.684
52.7238
6.4743
-65.776
-97.2748
-5.9005
36.6269
125.169
187.801
-19.765
-81.6016
-73.083
-16.2576
39.6734
-33.9139
-107.376
-30.9599
3.40774
-145.128
-149.478
-125.684
-73.747
-54.5544
-52.8092
-14.7601
98.4934
79.4822
45.0333
50.486
112.933
85.3627
88.7576
79.2133
71.5926
-20.597
-55.4454
-43.0059
-50.9837
36.8589
34.0737
68.7172
108.287
-31.9115
-44.5229
-65.0231
-62.9575
-30.0773
-21.0233
11.695
75.8871
-27.3303
-79.448
-69.1663
-64.7726
-19.9602
-21.8554
-22.6455
77.9846
27.0299
-41.796
13.6235
3.76529
106.952
131.928
-39.8345
-169.821
-89.3721
100.729
88.2463
-21.4686
-28.0201
-74.5715
-191.449
-166.5
-16.9237
74.3753
134.646
19.4615
60.042
144.32
84.8321
29.08
26.4758
-1.16861
80.2993
204.042
158.589
3.48112
19.8846
-9.37699
-135.99
-132.534
-44.3301
45.8748
-24.7526
-59.2608
-90.0896
-75.1328
-26.8812
-27.9312
7.78668
-2.94649
-111.664
-68.0994
-16.7187
-12.1465
-25.7782
-38.9154
22.1827
56.9744
1.53728
82.2222
110.731
46.3411
36.4109
-7.1417
-49.899
-20.4974
-10.8686
-78.5684
-85.0643
-78.1834
-35.1332
-29.0227
0.694123
68.9296
70.8074
-29.9388
-49.3892
14.0402
197.231
188.375
117.633
69.539
-1.91959
-86.1659
-74.281
-110.434
-70.1568
42.6743
50.2385
88.8085
115.4
-80.0648
-116.668
-113.676
-72.1828
18.2225
0.720468
0.67221
61.2527
155.424
91.6889
20.6822
47.757
40.7329
-0.515792
-109.474
-128.601
-18.8972
3.19505
-110.434
-193.731
-51.6441
-50.3267
-43.4975
29.9487
114.477
110.491
130.267
-11.8449
-91.84
-36.4909
-36.1627
-26.3915
-2.45439
45.8666
137.284
135.478
-57.4834
-140.597
-76.4029
29.4463
103.12
140.936
189.658
93.1921
-84.9628
-128.632
-119.906
-14.7785
16.5365
62.6198
96.2382
54.854
-20.5906
-56.831
-65.2082
-70.445
-38.5312
-22.8516
-2.53776
-49.0038
-88.4648
-28.6415
6.44091
2.42593
10.2089
-98.6907
-115.881
-25.7592
2.39268
13.0091
-2.4591
26.3362
59.1329
53.0855
55.5978
63.3616
94.9552
54.8555
-43.878
-2.80832
73.2972
40.8396
-15.6588
-8.58058
76.3161
168.589
45.4394
-42.505
-68.6453
-54.87
-40.4006
10.5239
27.5952
45.1518
46.6852
-134.47
-154.721
-102.121
-26.3995
-10.0322
-0.640229
35.3846
40.9052
-57.7665
-71.3348
-39.7882
60.1949
121.471
112.976
132.693
25.1478
-82.298
-76.2403
-80.9711
-83.809
21.5487
38.6799
74.0068
78.5829
-27.255
-167.903
-228.414
-231.392
-116.228
-45.9162
44.7293
103.254
186.023
165.078
69.6119
102.378
165.482
146.352
50.4054
-7.08012
30.6803
-46.4073
-150.778
-135.827
-10.3233
126.204
111.816
100.478
211.629
107.199
-112.531
-123.65
-142.227
-95.9959
-44.9067
-56.4773
-14.0716
-91.027
-121.141
-105.775
-84.6822
-28.4979
9.50743
15.1325
64.9767
27.2922
14.421
12.362
-63.1246
-33.5338
60.4892
71.1575
77.4324
21.9156
33.9368
-11.2496
-32.761
-13.9726
-10.9768
-17.6942
-24.497
64.8475
177.806
66.9615
-82.7841
-73.6637
-43.6282
11.0429
36.1565
85.4153
121.604
94.307
-52.7647
-175.301
-99.4075
-26.0148
-28.8988
-13.5682
22.8616
65.9812
67.0455
-29.8737
-80.3849
-34.1229
24.1567
75.9596
74.6646
117.411
45.3514
-24.829
42.91
-51.2435
-124.556
-82.9902
-95.0945
-51.6495
-122.035
-75.7844
12.4849
44.0441
29.1301
26.5754
16.8363
109.814
115.135
35.5629
-60.6801
-60.237
22.1885
23.2504
-35.7934
-14.0941
40.5489
207.986
110.108
-18.0501
17.1721
38.6342
-30.1097
-73.7357
-84.4125
-30.3383
-94.7689
-141.916
-130.167
-21.7088
50.6951
-33.0785
2.76108
95.661
-43.5705
-46.5134
-0.454445
-27.3495
33.1083
115.949
168.436
207.46
56.2159
-69.0824
-84.6984
-105.7
-68.5954
-49.2939
-42.6471
-25.6797
35.711
-4.73064
-73.5577
-65.6316
44.9659
94.2711
115.3
112.013
145.658
163.728
-12.4024
-62.8082
-128.861
-79.5242
-86.5564
-77.0187
-15.68
10.2592
45.9668
75.7028
-63.4825
-105.913
-113.842
-147.903
-49.7983
31.9304
95.8828
181.68
65.4917
-6.10503
38.1901
-11.5766
11.4719
-16.4878
-26.726
28.7394
-22.6827
-16.9629
-49.2944
-67.7407
48.059
46.4603
88.8742
70.6857
-16.6744
-55.5056
-66.4861
-56.8677
29.1785
24.9937
124.834
111.108
77.1365
51.4584
-11.751
-163.768
-182.113
-127.657
-67.929
50.0813
32.6257
24.6452
-51.7146
5.55785
67.4152
78.1407
46.1964
2.18381
89.9671
99.9998
-110.556
-187.774
-106.167
-25.8981
28.2963
63.2012
147.072
180.325
-53.8691
-190.589
-130.639
-83.6133
81.5338
158.422
109.232
15.0448
27.2524
34.9493
-97.4951
-134.591
-51.7412
23.732
36.3109
41.0404
101.922
77.1277
-26.6938
-64.6319
41.2269
16.9784
-55.8683
-73.6653
-44.9855
-61.097
-104.672
-73.8974
-30.758
-8.63922
88.0838
138.824
109.813
73.5609
74.952
-36.4576
-206.687
-106.582
-18.7941
-59.5639
-26.0264
2.20096
96.2554
176.934
35.7899
-34.6147
33.3376
90.0813
64.0051
27.1002
6.21675
31.4158
-17.5201
-51.5101
-68.2098
-25.3799
32.4464
0.762417
-7.81979
-2.96147
-49.1007
-76.9784
-56.0734
-81.0804
10.8774
103.017
123.328
141.621
26.3926
-209.938
-173.28
-130.429
-57.2865
23.8304
76.5136
165.997
209.356
50.2354
-93.7399
-210.472
-189.791
-127.064
-34.1925
16.2754
73.8103
122.265
90.6445
69.9734
63.972
111.719
59.9427
-49.6108
-61.3836
49.4587
62.2842
-6.20712
-66.5666
-1.32906
69.8965
51.0002
28.2692
-4.91432
-2.26283
19.8533
-71.6457
-97.082
-63.9999
-58.8789
-10.2289
117.414
146.549
56.3515
-46.1816
-62.1021
-74.4974
-108.57
-96.1608
-65.0589
-1.70349
-43.2093
-69.0228
-48.5955
-41.3529
-41.9759
38.4702
40.4291
74.7879
56.3364
27.2916
57.4404
34.1794
72.1402
111.212
48.926
6.74227
85.7679
6.31305
-46.4697
-28.9165
36.9272
48.7286
-6.10113
-6.43879
133.845
12.3802
-136.429
-173.14
-185.457
-94.4044
-22.7176
8.96723
98.54
85.6076
-24.7682
-30.3934
-72.5237
-11.5867
18.8195
2.44413
58.8581
53.6743
28.6468
55.4386
-34.7388
-2.5734
30.6855
15.7954
83.0629
90.6741
-30.8788
-78.7962
-2.30771
8.46188
-34.3316
-58.4533
-64.9203
-48.9154
-33.2328
-34.7568
-22.7988
27.0301
67.7715
77.36
89.4738
95.2132
26.1286
-39.7523
-56.6821
-193.788
-167.249
-59.7456
-21.2011
31.3743
83.3699
63.4506
95.2733
86.2119
26.1836
18.2425
-2.00636
-28.348
-17.6872
-21.2766
-36.3846
-53.7898
32.502
83.4044
80.7482
131.673
132.26
102.928
29.9591
-84.2978
-67.4523
-48.9922
-113.705
-98.3972
-83.9844
-18.27
4.88803
-121.782
-115.581
-118.218
-136.876
-48.6062
39.0267
133.718
177.315
67.0117
68.0967
57.9312
19.279
30.0724
13.2874
-8.67113
1.64611
21.3383
-5.58391
-131.156
-87.3116
34.6757
36.7358
23.0712
2.13427
47.0815
73.9365
-29.4174
-76.3795
0.239862
31.9051
42.8284
47.0711
100.858
158.014
49.1442
7.39587
42.0382
6.39104
-25.1862
-152.507
-189.243
-170.116
-89.204
-109.437
-153.916
-62.5688
89.6848
118.126
123.603
64.4461
35.7689
-19.1556
-42.959
-44.908
74.3645
51.6578
-34.2727
-7.15738
114.837
183.633
72.3852
45.9106
-17.6437
-61.0882
-11.3633
-4.83936
-96.9587
-70.3496
80.5949
-63.2054
-152.122
-100.533
-43.4917
-22.7061
-4.21518
-20.0664
24.9621
114.952
-15.6232
-19.3134
65.2288
50.1167
28.8484
66.6508
94.3273
56.391
-38.0451
-54.5391
-60.9725
33.9826
68.4977
57.5011
58.7477
1.33778
-63.1008
-52.7074
-53.247
-80.284
-50.8505
-53.8459
33.9874
59.7529
-75.427
-44.9904
-53.5212
-44.515
26.6444
24.3963
37.7852
92.3266
96.6491
-51.023
-104.87
-94.3969
-18.8864
-3.33
0.867635
3.08917
96.1746
90.5815
-11.2036
-49.6513
10.8282
45.1796
22.1098
7.83408
39.4486
39.7274
72.6383
86.9963
12.208
45.7719
-21.7429
-107.376
-85.4812
-19.7228
56.4564
59.9341
-30.6869
14.4938
140.415
-29.498
-193.767
-233.064
-239.451
-116.185
-43.8029
24.2249
9.28345
17.022
90.1543
167.474
259.482
225.301
86.2008
28.8605
10.401
-18.8332
-44.4716
-96.1179
-135.88
-2.64648
95.2524
14.0293
4.51833
8.08431
-26.5971
-100.781
-144.423
-99.3548
-20.9104
-28.6054
5.09769
34.9174
75.5806
28.1394
-44.103
-15.2418
16.4635
-73.5748
-53.82
-24.4694
30.1795
116.077
121.856
117.883
118.939
11.2557
-7.15804
-16.4583
-37.8685
-3.78577
-10.0828
22.3768
55.4126
-81.1383
-101.079
-119.722
-126.388
-49.3236
-24.5326
71.107
26.2414
-63.7124
-81.0288
4.16593
48.7288
104.816
118.609
115.539
94.7931
-16.3721
-45.978
-9.31291
-21.4137
49.1427
47.3787
-9.42549
-23.409
-35.6538
-52.2887
-25.5517
-1.66906
39.9823
42.2941
79.8534
125.469
-20.2277
-68.6679
-147.656
-204.987
-110.435
-68.3228
-33.7375
17.7425
62.5427
-47.161
-18.0106
15.5732
71.2595
67.5463
30.6496
26.0975
97.9185
63.5115
25.348
-28.6116
24.7904
39.9699
5.52549
10.3033
78.2626
-54.2125
-122.054
-154.664
-91.0993
37.3718
43.2265
31.2995
110.93
97.897
22.3724
41.9866
35.9499
27.4965
5.36555
-65.4586
-45.4925
73.0551
40.8953
-36.1933
-92.4711
-27.8954
25.8358
18.0202
-81.9402
-46.2072
-67.3418
-97.5403
34.5967
40.1407
39.9011
-43.6382
-191.628
-122.595
-94.242
-53.7508
54.205
37.7344
79.8393
109.765
98.8403
144.835
28.0908
9.35902
53.7706
111.678
76.0305
-21.1547
-88.6025
10.6411
12.8442
5.60657
87.0513
63.2209
44.3781
-2.35079
-53.4704
-72.2365
-97.2557
-137.257
-102.054
-84.29
-15.697
13.2328
13.9075
1.42258
71.6173
165.755
-37.48
-88.4945
-26.8688
38.3474
98.2538
75.7487
30.1337
5.13934
-19.3862
-29.7617
-142.513
-169.891
-96.4624
-58.4036
-8.92542
35.51
82.6672
107.753
44.0085
-54.6749
-11.5004
33.0087
130.902
146.133
81.309
42.4394
-29.3837
-56.4729
-48.4652
-74.4224
-16.3598
14.8863
-0.79532
83.7842
14.3765
-62.7786
-106.31
-130.39
-114.413
-18.7092
81.0417
146.427
66.9804
-21.949
-1.20675
-20.5454
26.2238
5.29949
-31.6585
-2.42541
152.262
217.779
35.8863
-106.286
-125.841
-75.5329
-67.8929
-49.483
44.656
26.1731
-14.9566
-69.2817
-50.0579
3.45918
-6.00048
2.05446
79.2094
-30.8126
-6.05679
-26.0825
-78.4763
-58.622
-6.03026
12.1621
46.3212
-30.433
-15.8345
14.867
9.49394
50.692
95.5137
131.862
40.8944
17.4614
-35.6009
-59.0799
-42.1484
49.0901
45.6951
21.5437
9.359
53.9078
-42.5641
-31.5185
14.672
59.0872
0.99614
-102.185
-127.717
-10.804
106.286
-22.2687
-28.6103
12.7455
32.5067
-22.4114
-80.157
-19.6027
36.8868
38.6544
-51.0988
-88.7546
-42.0512
-74.7176
-42.3475
48.9144
117.054
129.559
124.447
47.3356
-34.095
13.4403
63.6438
115.87
261.261
87.3647
-112.911
-257.132
-441.198
-413.014
-214.87
-5.45552
173.342
101.542
57.948
60.2274
60.0623
121.69
125.098
92.7267
109.706
106.973
-13.2728
-116.781
-156.794
0.243581
155.311
189.42
209.353
192.152
71.0498
-119.907
-175.814
-138.045
-132.522
-105.543
-97.1202
-9.51584
18.344
-126.918
-142.191
-144.619
-50.5212
15.9915
8.62294
67.7644
143.433
22.7642
-23.524
-8.04832
-3.62788
18.6349
35.048
40.6729
36.107
56.68
-17.8513
-56.8997
-22.7748
76.1435
56.3592
28.592
63.1724
107.173
-4.56555
-66.0432
-70.9088
44.3622
