-209.175
-223.445
-213.677
-101.546
134.921
433.599
429.996
229.298
90.1022
-28.8415
-192.053
-275.089
-246.714
-122.67
39.6002
174.471
238.021
237.541
158.151
43.6239
-43.6154
-73.6567
-154.791
-212.341
-135.508
-116.619
-151.984
-169.221
-123.497
11.5694
73.829
113.663
251.33
451.719
413.092
124.451
-143.156
-205.204
-225.486
-145.696
-37.5521
6.14428
86.4734
133.892
22.9718
-107.53
-105.798
-24.3777
20.1763
-8.57637
-15.7689
0.880434
-98.2758
-252.747
-241.132
-59.5508
115.937
169.531
135.01
48.0099
-23.7691
-47.0694
-32.8101
27.2114
26.5448
31.1787
108.31
225.579
221.57
142.487
-49.0412
-236.211
-243.662
-77.6786
73.9153
86.588
37.8918
9.82392
24.0442
15.4532
31.9708
31.9428
-7.25013
-79.9129
-55.491
-28.023
-66.2115
-101.12
-80.2039
-49.659
42.1653
112.411
43.0403
-82.5374
-134.826
-60.3473
38.9695
80.6565
115.101
103.35
70.5821
84.0611
114.47
136.002
38.7692
-118.067
-128.486
-154.972
-183.606
-203.013
-93.3287
22.8521
76.4613
192.303
316.286
214.9
39.8015
-59.595
-120.831
-157.724
-182.267
-153.969
-78.7369
-52.9572
-39.8961
19.9079
54.0725
67.1553
71.5538
76.815
81.8093
40.0234
-10.1347
-80.5102
-142.011
-64.2991
22.7184
89.2108
152.768
143.92
136.865
105.786
44.168
26.7622
22.2941
5.05174
-21.5646
-35.7177
-34.1488
-43.4306
-82.1005
-82.768
-37.2099
-69.6968
-114.902
-94.65
-56.6278
-91.0804
-164.196
-123.855
126.198
334.394
251.697
54.4429
-76.5115
-134.886
-84.6809
6.775
3.20009
-56.8418
-106.04
38.0618
142.415
129.39
126.145
105.682
38.9798
-42.5228
-24.0991
-47.1955
-243.909
-367.135
-315.421
-128.027
38.9605
137.104
185.844
211.385
220.087
257.029
254.504
128.2
-11.7588
-96.6287
-160.136
-145.545
-60.8844
31.1873
73.0569
97.7248
83.1178
30.9677
43.1049
22.3556
-25.1986
-88.5281
-157.11
-184.626
-98.4737
-31.9613
-37.1785
-66.653
-55.9572
-62.7116
-61.2365
-28.3991
13.0721
57.7799
73.8064
65.2275
42.8833
9.30854
-12.4347
30.7805
46.6266
34.7966
14.8711
9.52304
-10.2884
-14.6731
13.6962
6.5272
-13.2355
-23.6406
-93.7928
-132.283
-9.72354
185.627
310.407
177.86
111.771
21.1816
-24.1123
12.4788
113.887
111.984
18.0342
-123.705
-275.47
-229.82
-151.918
-160.804
-181.523
-179.461
-105.175
-21.4206
-28.3141
-106.676
-60.6218
105.552
117.266
203.665
295.518
253.299
153.571
95.7049
49.7405
8.35224
-13.7361
-74.6822
-23.3694
52.9369
111.862
102.918
62.0829
36.8163
-7.39183
-52.8083
-150.815
-213.923
-193.653
-82.6673
16.9661
-47.6171
-192.572
-201.497
-102.793
8.54619
90.4596
85.948
33.5488
24.3728
25.0023
76.1939
141.853
131.157
89.6867
-13.6297
-95.1778
-55.1125
-36.5206
-82.8176
-124.523
-76.9215
1.04556
129.609
223.284
205.299
163.031
137.646
76.4303
-22.8136
-110.208
-151.747
-106.901
-34.4464
-28.8481
-32.9041
-78.8535
-21.9016
34.798
29.4708
22.8754
27.8328
7.20882
-70.0886
-119.326
-97.6613
-66.0505
-64.2721
-22.2289
-10.3568
-105.517
-103.202
34.3783
260.66
276.798
116.42
26.4724
30.4686
93.1467
35.7999
-80.3112
-121.592
-95.6786
-83.8766
-63.5715
4.92368
70.988
133.152
106.893
11.0634
-11.7814
-14.8122
-95.0304
-191.466
-183.294
-100.312
4.55995
27.7952
27.8727
103.112
177.268
262.605
258.85
156.191
-28.5925
-130.782
-170.767
-208.092
-179.344
-41.7349
113.45
190.401
138.57
-90.8302
-201.364
-100.188
-21.1998
-41.7772
-80.4317
-110.78
-108.129
-76.8526
-40.6346
38.0463
144.933
111.984
74.6822
150.666
316.506
309.507
101.097
-34.3221
-132.248
-146.06
-67.8444
-6.47256
-12.6163
-71.598
-75.1363
-33.7546
-96.3258
-191.597
-219.414
-143.963
-91.2513
-9.43132
76.4228
64.6188
-55.6634
27.1293
274.266
263.108
100.742
-0.162374
-2.33324
13.2282
17.448
60.1815
59.1914
28.5724
33.6577
1.37041
-9.0594
-37.0258
-12.7565
4.69057
-45.7378
-79.1881
-118.274
-196.889
-177.681
-90.5254
34.8509
129.537
121.874
124.871
151.784
105.17
23.8676
-17.7527
8.85396
29.1904
35.4912
25.0338
-10.2113
-25.5971
-37.4131
-80.2806
-72.8992
-98.9875
-111.521
-52.1496
-31.4554
-46.4766
-145.029
-169.172
3.82687
235.338
303.379
123.725
-57.0169
-94.3793
-64.9678
-61.7479
-82.0938
-72.7703
-26.3594
15.3169
38.2616
167.142
248.633
257.953
243.335
68.6565
-89.8136
-148.751
-212.688
-239.298
-199.98
-94.7591
-21.624
3.01005
55.9691
68.6568
84.3222
129.759
129.905
101.232
18.3508
-67.0986
-123.131
-137.974
-117.631
-28.447
99.5959
81.453
-19.6005
-95.7957
-70.6051
81.5383
198.618
135.627
25.7571
-29.5273
-53.8303
-60.5374
-63.671
-62.9388
-23.2755
-44.0502
-33.9797
-24.0671
-29.2876
-17.7876
33.7605
123.225
135.848
90.5126
-8.46294
-79.7609
-95.6987
-47.7181
14.8746
76.5917
169.886
179.699
78.617
12.8411
-38.732
-49.842
-113.989
-189.928
-223.445
-144.035
-149.093
-228.238
-137.35
69.8438
301.193
264.189
185.211
191.203
83.6826
-58.2986
-137.983
-182.335
-178.455
-112.585
-59.9074
-27.5713
84.3525
184.634
230.337
161.587
152.67
184.4
71.3352
-126.945
-215.235
-95.8878
14.3752
31.3644
-52.7524
-127.545
-229.576
-145.523
41.2497
84.4632
76.1487
125.745
129.791
105.425
92.0911
81.1174
69.8687
27.27
-52.0068
-132.628
-228.625
-310.747
-315.505
-229.793
-66.6638
71.7403
159.499
131.225
31.7105
-32.1178
0.202844
88.3072
93.3376
74.9231
98.8295
350.301
381.149
172.569
45.3721
-27.7291
-13.1094
-4.24513
-33.7079
-59.3133
-97.879
-178.19
-141.417
-104.895
-144.49
-127.591
-15.2653
54.8042
-6.92403
-131.231
-215.589
-288.126
-197.033
-12.165
80.4091
97.3887
33.3175
59.1153
118.616
125.25
160.077
219.411
166.46
114.26
195.447
174.93
-14.0464
-182.601
-199.982
-114.174
-18.9624
-18.91
-37.2168
-16.5295
-13.5025
64.9858
100.856
59.4847
-1.91353
-49.2091
-47.13
-42.2353
-59.1843
-82.6434
-83.8042
-74.2179
43.7816
141.327
146.955
78.3699
-22.9513
-93.8728
-58.6072
12.8799
69.5042
-4.68742
-36.4622
-22.266
0.524885
-20.622
-45.9003
-44.2423
-46.4359
26.8555
193.67
359.084
122.319
-254.246
-406.889
-265.405
-102.98
9.40725
132.881
156.253
8.34725
-116.88
-186.158
-203.076
-184.507
-66.443
97.5869
211.395
257.198
193.526
89.8801
-1.72219
28.3622
105.596
170.971
156.78
129.906
80.3129
-2.61765
-86.4785
-127.725
-100.51
-92.5002
-44.1706
34.671
78.6087
52.4462
24.6836
11.0266
-57.2024
-166.198
-241.21
-172.71
-29.533
6.91963
-20.9406
-5.48428
23.3412
86.1247
166.125
316.455
263.909
156.348
18.9232
-112.352
-167.12
-261.992
-342.223
-347.796
-271.797
-139.706
26.195
248.416
347.181
224.384
61.3762
-8.34653
-35.1129
-102.248
-155.986
-250.608
-264.528
-235.877
-2.70351
235.876
287.858
287.223
349.999
330.828
245.801
144.589
31.7882
-107.541
-175.259
-147.503
-103.541
-92.5636
-73.4507
-43.1185
1.18776
76.3768
180.485
234.362
112.057
-26.4605
-90.5339
-55.0176
-40.3174
-32.3494
-13.2056
-24.0479
-206.131
-436.23
-472.972
-203.302
163.83
162.775
-28.8154
-92.1724
-8.72121
68.8992
101.64
105.221
78.8283
33.7853
-65.7129
-118.448
-78.2853
23.0166
143.308
225.371
380.445
388.458
197.634
18.4266
-112.868
-94.9163
-5.30563
-17.6359
-75.2542
-128.918
-152.95
-109.023
-105.96
-180.917
-113.084
-71.7998
-33.7455
52.4365
47.4618
-39.287
-83.8639
3.75383
55.7319
30.72
-60.2651
-26.2465
109.733
151.742
196.842
264.092
209.866
108.938
71.0645
63.5388
-19.7473
-69.3522
-129.194
-210.183
-262.811
-329.599
-307.485
-120.446
185.386
347.307
201.39
32.8209
-31.0872
45.0242
77.6993
73.7378
-32.6342
-128.517
-110.04
-73.7007
-37.7901
-4.105
-13.9369
19.8657
93.517
143.394
101.252
-19.9952
-130.689
-235.322
-217.179
-91.2368
-58.0128
-130.247
-182.573
-133.078
80.6823
235.993
249.797
293.406
387.057
362.999
189.63
37.7754
-97.3764
-117.002
-40.7925
23.3351
-24.7758
-54.9824
-16.6195
-74.8136
-197.402
-272.123
-178.404
-88.8384
-35.4704
30.8189
29.5939
26.6501
-19.7601
-53.5011
19.4054
50.1744
91.4892
119.441
64.0091
14.8317
35.6346
51.5998
21.2301
-62.7899
-157.972
-147.175
24.5209
329.027
353.117
114.119
-78.0324
-187.351
-186.846
-139.687
-114.838
-170.775
-190.602
-113.207
-16.4011
58.2826
147.636
192.84
147.295
32.5346
13.4115
74.5924
-10.2715
-179.535
-143.842
1.228
119.493
116.112
38.4609
89.8306
139.044
118.02
43.1086
-24.3156
-51.4986
-31.2015
-56.4205
-95.3691
-26.1151
30.0865
84.2661
149.937
16.902
-190.596
-291.172
-249.06
-222.677
-140.299
31.1021
79.6737
101.065
133.532
152.554
106.525
25.9121
-26.2041
-67.147
-15.7819
116.885
273.173
355.482
215.372
-2.40098
-125.489
-195.104
-267.539
-221.071
-135.049
-57.2394
19.6731
42.892
124.898
111.73
13.062
14.5131
14.5841
29.8222
20.3645
-80.3029
-138.47
-154.595
-168.961
-172.369
-78.4755
171.481
402.272
313.652
137.81
-10.3591
-99.8474
-119.521
-202.442
-208.011
-74.3069
52.1533
63.4904
-71.4449
-136.141
-50.7232
35.2401
27.1749
16.6641
76.33
149.996
132.621
29.4864
42.0966
34.37
10.8816
4.41206
18.6095
103.411
139.149
66.0454
-3.82238
-76.2869
-139.771
-159.633
-174.085
-112.406
37.0302
193.591
307.505
180.824
13.727
-41.9815
-50.1762
-94.663
-117.556
-86.3448
-69.5147
-116.722
-112.9
-80.1194
-57.1448
111.015
233.785
196.692
112.563
25.8147
-62.5348
-116.711
-163.535
-118.876
-46.2401
94.6283
100.646
-102.675
-206.429
-214.356
-157.682
-53.484
74.915
139.241
125.846
-35.4561
-122.841
-61.1171
34.8187
145.917
208.621
135.771
57.1468
24.1926
-6.57585
-74.6038
-62.8605
114.477
147.614
102.691
43.6778
-6.73025
-36.0281
-37.8062
-86.2116
-160.297
-82.2554
-9.14104
31.7576
104.76
101.505
166.808
252.555
197.296
68.4582
14.4696
36.7478
92.811
57.8792
-69.2212
-180.395
-249.425
-267.385
-281.868
-230.662
-108.611
-93.092
-123.294
-51.8774
143.712
198.907
22.6825
-72.0759
-43.0275
1.02413
-81.3572
-81.8375
-40.6687
-16.953
6.39898
28.3758
73.5079
90.1748
96.2362
67.4421
36.5671
75.5544
120.612
97.4585
-27.4664
-96.8682
8.97658
53.4378
62.8373
55.1829
-11.0932
-112.08
-115.377
35.7314
188.46
145.037
71.2991
9.9274
14.3061
29.2461
71.8554
148.919
142.927
-17.4824
-189.224
-228.371
-192.348
-126.784
-84.7676
-16.3783
135.516
196.743
83.4538
-41.7985
-76.3863
49.071
72.5571
31.5188
-43.0802
-90.3545
-123.309
-154.443
-166.556
-125.546
-111.869
-101.491
-99.4163
-93.7021
-42.3291
-13.6035
-50.1157
-19.0708
84.2729
118.105
94.9362
47.2598
31.2619
64.4951
93.2097
128.961
220.245
288.887
260.719
204.358
83.5382
-18.0969
-67.3299
48.0325
96.696
-10.3278
-109.402
-141.862
-102.763
-83.3757
-122.097
-141.693
-159.447
-147.584
-131.109
-124.553
-90.4186
-110.948
-124.57
22.874
272.457
435.993
330.946
31.3948
-156.315
-220.655
-246.016
-167.503
-39.5989
14.0909
40.4252
46.0077
58.521
120.299
210.953
218.766
171.537
158.432
156.664
46.6231
-171.798
-281.906
-174.698
-116.917
-129.156
-84.2332
-50.7318
-40.354
-79.0469
-152.038
-72.0301
72.1811
270.894
248.105
144.261
89.7416
-60.7047
-154.936
-149.087
-116.558
-34.6587
1.89091
25.6548
62.1901
78.4203
84.4502
90.8189
53.8266
12.6708
-13.3225
-51.2076
-51.8224
-83.5012
-96.44
-60.9627
-35.6967
-9.41948
11.2099
7.26917
-39.5826
-3.80087
106.98
134.29
81.2808
34.6714
111.681
205.55
102.932
-25.5132
-25.1793
2.01868
-38.9903
-68.926
-15.8705
47.3064
18.7006
-12.5331
-95.1493
-100.978
-57.1859
-112.608
-256.689
-381.63
-312.854
14.8344
391.617
364.731
157.001
-23.6873
-16.3941
27.5943
1.60867
-5.67744
-0.822773
-6.13745
-37.4101
-45.2987
-25.2793
-55.3971
-73.9896
-48.705
6.40053
87.799
99.3986
12.5349
-168.604
-186.474
-16.0276
160.074
202.901
126.724
79.6836
32.3926
24.3963
42.028
43.3845
29.3054
99.3233
232.125
253.299
59.227
-141.991
-154.243
-111.772
-127.28
-178.079
-113.322
-45.1882
-30.3078
-69.6328
-110.221
-97.592
-47.8569
-65.8353
-107.467
-66.4497
12.3025
53.448
22.7564
6.69007
95.4562
211.949
212.285
138.491
-4.80127
-118.393
-142.889
-100.441
-20.9329
-14.5245
-48.7555
-6.11317
134.186
336.96
238.489
37.4602
-18.9108
-98.7379
-199.977
-186.815
-17.7308
100.925
122.941
140.941
87.6923
-101.143
-241.191
-278.478
-215.789
-60.8785
53.2975
108.443
5.90033
-199.002
-216.401
-27.3605
139.305
199.044
217.658
227.421
221.603
177.854
52.933
-36.3209
-72.434
2.11178
67.0185
92.0275
76.4042
5.98997
-9.57611
-25.5229
-71.1203
-85.2485
-16.8368
-26.154
-161.004
-225.4
-203.683
-190.489
-208.27
-162.83
-2.26179
102.786
124.6
110.177
107.85
78.8144
0.759763
-37.8851
-51.4141
12.8433
181.222
274.717
74.4156
-72.7675
-51.4975
-9.63014
62.919
149.897
53.5763
-105.4
-225.105
-283.983
-116.714
53.733
96.1314
63.8883
91.3536
92.5485
139.94
151.898
15.7698
-107.761
-28.2836
75.3185
84.0133
57.4709
-73.1404
-254.565
-195.241
4.20152
126.766
103.659
-32.1674
-124.867
-87.3222
32.8304
114.436
156.914
102.373
5.30182
-74.9864
-160.595
-166.404
-145.116
-144.218
-150.683
-134.816
-35.8696
165.875
372.517
291.542
153.319
65.2414
14.6607
36.0213
38.1408
-33.6064
-47.1248
-22.4987
-48.3281
-61.8464
-58.6315
-89.83
-201.681
-240.952
-162.833
-48.2721
135.416
191.938
47.9414
33.1823
102.029
132.51
110.826
86.6926
43.7198
-6.28459
12.2796
-29.3908
-91.2912
-101.722
-57.7004
11.239
102.88
162.113
170.877
137.31
9.31746
-142.056
-177.014
-159.66
-171.12
-227.463
-237.213
-116.915
1.9766
-12.9282
-60.7813
-32.7589
47.1849
75.9369
29.4726
66.6567
175.813
246.535
251.943
199.316
107.268
-4.57479
-63.9023
-5.03377
80.4749
79.478
46.9442
-35.4268
-35.6548
4.87768
-30.791
-70.1489
-111.671
-139.947
-192.576
-222.337
-149.104
54.6574
346.746
291.148
-2.22114
-212.668
-284.416
-181.086
-6.97442
65.5363
71.9795
70.3148
36.7914
23.1437
15.318
-2.06777
-22.1854
-52.3781
18.4212
111.104
99.8397
-19.057
-167.621
-112.925
48.5396
135.118
86.1926
-45.5873
-71.1575
-37.6233
-39.902
-93.9736
-88.3824
-12.2773
-15.2622
25.1827
131.226
211.366
217.004
202.755
149.921
-7.47311
-154.516
-136.624
-85.8323
-62.2917
-58.7646
-90.364
-143.393
-8.59876
178.394
239.18
238.639
266.948
264.405
38.8624
-258.94
-341.263
-149.383
128.847
116.652
22.3158
-36.4929
-145.598
-234.786
-240.609
-278.515
-252.308
-194.265
-141.269
-66.4533
22.4941
29.9371
33.607
70.7751
156.46
253.573
239.515
82.1513
-114.548
-173.624
-136.406
-25.3097
109.823
182.579
209.713
220.444
190.169
154.188
110.428
89.2698
60.6384
-23.397
-147.312
-175.614
-178.08
-178.202
-61.9324
100.473
244.909
233.913
147.352
81.307
60.5315
9.79235
-130.947
-145.902
-96.697
-125.868
-141.061
-170.42
-196.356
-165.439
-102.153
-64.4415
-29.1169
11.8199
21.4095
-47.5055
-170.144
-119.08
20.5179
31.025
-9.70313
26.3819
192.418
349.277
369.22
283.244
156.749
63.6578
61.517
44.099
-45.189
-122.056
-117.466
-85.269
-104.075
-146.062
-172.867
-77.1977
-76.8004
-130.191
-121.783
-49.534
-2.34358
2.64491
26.0296
66.8096
74.7212
55.8302
10.2914
-6.70377
89.678
126.771
87.6872
38.9051
-80.4129
-88.2569
133.625
297.471
162.542
7.11974
40.9805
102.579
81.2329
-18.7379
-54.8648
5.99384
-60.6472
-171.182
-197.662
-201.093
-188.319
-149.406
-63.2936
8.6033
28.1946
2.66589
-120.492
-142.143
27.3617
31.1394
-63.3166
-40.8472
54.692
146.256
177.933
146.154
96.8036
100.221
96.1583
128.173
77.3953
40.0184
20.7342
-2.01934
-7.93867
-2.49004
-18.6446
-80.9247
-80.6177
-70.0542
-105.979
-110.265
-143.778
-154.251
-137.546
-116.333
-50.5903
35.6955
78.0573
132.285
239.972
208.196
101.116
-37.0677
-106.942
-17.5106
174.074
132.821
-26.92
27.8099
126.776
126.05
38.8896
-49.5628
-89.1784
-148.065
-194.724
-167.687
-98.5572
-112.701
-173.036
-117.539
-13.3428
141.551
280.306
270.084
63.6779
-118.836
-108.948
-87.4154
-79.1422
-83.5532
-80.5982
-63.075
22.5633
130.25
204.967
215.555
203.064
187.28
82.0362
-42.8104
-70.7994
-70.6579
-94.79
-204.031
-285.614
-171.585
-76.6886
-7.90286
23.1046
16.4366
52.1218
56.4145
27.8527
50.1729
78.5817
57.3119
1.49248
-59.0319
-41.5725
10.0106
-10.3054
48.6784
126.231
138.446
102.792
85.5604
87.35
56.684
18.6691
-71.2468
-159.532
-165.813
-79.1943
75.7337
106.461
-4.7572
-91.748
-94.47
-110.418
-59.0395
6.64579
-26.7757
0.2445
35.6504
8.87573
24.791
114.447
48.2728
-36.2823
-55.6581
-40.6006
3.27211
-44.1843
-115.576
-93.7115
-104.888
-66.9141
69.0955
192.898
194.899
137.862
20.3673
-127.663
-186.847
-143.165
-90.3589
-81.9677
19.7154
115.223
168.112
185.691
177.271
128.627
47.0191
-8.6166
41.3411
37.1353
-74.3581
-96.3855
24.7532
211.09
152.04
-42.9103
-112
-50.7636
-1.24286
-8.69063
-27.7498
-55.0711
-49.3118
-65.0373
-106.039
-185.898
-234.556
-133.401
-30.7471
-0.0858788
-50.0805
-38.1434
-95.28
-237.682
-181.4
-24.5154
116.84
197.828
203.127
172.896
194.2
240.653
258.308
239.704
277.628
259.229
59.087
-161.49
-190.025
-141.758
-122.26
-182.927
-175.238
-107.439
-2.36955
114.222
92.1119
-16.97
-137.104
-276.394
-334.943
-251.527
-140.145
1.54273
30.9249
67.2295
167.861
247.749
226.339
169.086
145.848
131.7
103.782
69.1105
64.8263
80.2442
87.2288
7.90296
-62.3253
-60.7674
-106.089
-192.295
-298.129
-307.633
-132.35
80.9995
96.7992
-53.1514
-122.959
-34.184
82.4706
148.688
144.315
120.755
132.322
90.3772
-9.00778
-80.7847
-66.2246
8.63151
112.221
108.222
32.6354
-82.1827
-224.301
-317.509
-213.718
61.4691
264.136
211.125
151.178
101.381
10.7784
-46.0042
-68.2968
-93.5358
-85.8232
-17.6587
-31.7613
-52.1361
-30.8652
11.3818
67.332
129.159
158.073
125.124
9.44463
-71.8621
-109.259
-121.683
-101.128
-142.369
-170.336
-82.5343
-91.2468
-98.9666
-26.0273
47.6448
106.552
144.88
101.76
97.9789
136.343
129.983
48.3657
16.8998
63.0697
83.9613
-10.3899
-120.849
-113.374
83.9667
334.829
251.583
30.3772
-6.60217
-54.5011
-154.832
-217.607
-218.151
-256.455
-261.589
-171.921
-28.1091
71.3302
124.023
213.29
251.915
156.052
81.4446
-7.75962
-144.403
-249.891
-215.789
-53.1831
53.8688
35.2871
-16.9018
-25.8162
11.3689
124.308
148.276
98.9446
69.2485
47.3733
-40.9913
-148.979
-203.22
-117.766
44.9649
121.341
110.888
59.6268
-23.3161
-112.863
-141.353
-24.8918
129.667
236.87
237.777
156.061
72.8327
-42.8871
-198.12
-295.78
-280.481
-187.762
38.8548
230.01
197.707
50.6449
-56.1412
-43.1697
127.42
349.43
271.966
44.0209
-41.1375
-85.5327
-128.284
-168.207
-157.779
-97.1172
-45.3986
7.94443
49.0198
63.2946
73.65
48.9289
-21.8738
-91.9989
-143.628
-239.828
-252.388
-244.618
-197.839
-68.8738
-19.5506
51.101
116.992
163.753
163.004
141.223
146.026
122.439
105.139
49.9792
-63.9037
-68.6734
43.4329
136.24
164.387
156.133
121.955
38.0272
26.0823
30.4579
-25.3534
-117.84
-169.481
-106.299
-33.6576
-99.5438
-114.848
-49.7278
-10.6715
35.5992
50.8327
31.7894
23.4994
43.8794
56.334
21.3699
-24.4641
-21.5074
-19.6508
12.4149
39.4956
13.7635
11.3686
-9.85742
-79.0629
-123.887
-143.79
-75.2957
84.2822
204.794
120.246
116.44
44.7328
-113.903
-180.894
-170.662
-178.469
-228.052
-184.326
-36.1416
109.264
172.148
104.094
61.1924
85.6737
131.768
101.918
4.72912
-97.6178
-179.668
-176.051
-175.896
-95.4068
153.867
283.499
267.023
278.035
300.348
209.499
55.2419
-53.1234
-60.4005
-49.6173
-22.5994
4.31903
32.2785
74.7685
45.6166
-24.5738
-144.088
-185.374
-185.57
-180.875
-211.943
-158.764
-93.9919
-78.5901
-74.9935
-45.1739
-40.7401
-12.8341
43.2681
142.332
213.899
264.347
214.668
27.8761
-82.0217
-87.5169
-38.8604
-12.4739
-117.569
-216.857
-168.63
9.79675
172.374
50.1795
-27.1918
0.785447
71.2013
118.485
103.282
99.7049
10.2668
-67.1123
15.0329
116.412
126.854
61.0492
2.63771
-91.4491
-170.941
-142.2
-67.4168
-112.215
-156.063
-13.9049
109.561
163.086
114.043
44.6514
2.47935
-31.1673
-51.8588
-38.5114
-34.8185
11.5166
37.577
12.3361
1.00435
24.9793
140.108
282.118
240.403
106.108
-33.6465
-114.521
-86.9577
-89.8596
-135.356
-163.918
-165.233
-102.236
-45.3476
-31.6759
16.2835
-2.5668
-86.6575
-67.7053
52.765
3.58508
-77.7799
-48.9403
122.199
253.158
71.2718
-85.9601
-171.202
-116.769
-8.41895
14.1658
8.51673
-61.1008
-120.792
-133.682
-65.7665
59.1721
194.558
212.087
121.716
151.34
169.738
93.2832
-31.6532
-126.062
-8.7536
123.783
128.865
88.3913
88.5878
58.5432
33.9379
24.4616
-2.70372
-55.0246
-81.5904
-60.5137
-28.5373
-70.6184
-104.422
-85.9507
-87.2504
-132.112
-176.866
-163.427
-70.7007
20.6965
89.9162
83.1069
33.728
27.512
46.2004
35.0869
35.599
-36.411
-159.131
-182.382
-116.66
-40.3178
34.8598
209.831
369.344
308.087
133.002
1.31858
-50.1296
-111.653
-160.59
-218.892
-254.286
-230.802
-84.2169
175.236
161.005
130.923
150.089
114.047
-7.10811
-43.3327
-72.5547
-99.4962
-67.609
10.2924
87.049
133.134
172.011
155.699
81.9092
3.06431
-13.19
24.5442
-8.26091
-109.796
-41.9081
46.4555
61.4543
53.6416
63.8495
-8.48403
-63.7504
-99.0909
-160.861
-153.64
-126.776
-133.268
-131.065
-66.5515
-8.8133
45.1079
68.4266
66.2575
37.9004
16.5823
29.8466
109.207
91.2479
-1.69794
-82.352
-78.0264
-69.7452
-82.3388
-37.838
61.9335
114.334
116.401
32.5656
-25.8269
-28.2289
-9.23573
-13.7775
-35.1337
-48.8012
-20.0519
28.8942
-34.2939
-81.171
13.1285
231.421
386.069
201.372
-47.5784
-124.277
-150.833
-175.529
-168.314
8.76877
100.005
38.5866
60.2831
83.1872
68.7814
16.7117
-23.9602
-41.3705
-17.5239
20.8496
4.12705
-99.7963
-133.708
2.93116
109.734
16.7713
-46.8281
-10.6574
9.68203
-35.8113
-81.2053
-107.501
-54.8538
70.375
179.977
213.622
54.0009
-108.078
-117.183
-34.4694
-9.92604
-13.4146
-65.4777
-88.1283
-106.152
-132.863
-154.24
-110.426
-31.262
46.6821
112.383
174.212
183.551
109.569
35.4696
3.3374
38.7641
109.304
104.011
44.4004
18.8513
-17.7779
-118.199
-146.952
-168.238
-144.219
-6.99937
165.299
273.741
141.288
56.3751
104.166
49.3324
-10.6341
-4.33443
-40.2751
-93.0544
-105.064
-99.1431
-102.232
-124.26
-81.4456
22.0873
120.973
206.227
204.213
139.072
-10.3022
-185.337
-214.198
-196.245
-217.748
-179.107
-89.0148
-124.431
-122.275
-38.3144
0.133001
21.0781
91.4459
166.378
209.332
239.988
269.395
323.346
295.247
85.9333
-154.331
-213.886
-175.706
-161.822
-95.2812
-22.5066
22.1963
22.3085
-77.6626
-137.742
-35.7305
48.9538
66.6396
27.5147
-84.6526
-120.874
-23.1597
79.5287
107.521
20.4173
22.881
98.5512
146.363
127.268
106.898
27.9341
-60.2324
-47.5406
41.3888
94.0114
18.4737
-75.273
-160.242
-252.534
-305.22
-307.74
-298.458
-276.603
-78.4429
236.467
422.636
365.563
236.463
181.688
113.924
55.4752
65.8818
96.222
34.0236
-137.015
-153.415
-90.9247
-111.495
-144.443
-114.656
-4.84316
58.3758
47.0025
23.0901
17.4965
-33.5897
-42.861
1.18086
33.099
36.7617
39.8946
-4.33222
-73.1387
-52.9324
24.9376
39.0311
24.2156
45.6229
140.024
193.424
130.373
62.6683
27.9765
-18.2093
-128.898
-199.705
-194.829
-220.008
-236.489
-189.373
-111.672
63.5436
280.204
219.075
131.991
126.837
69.4601
16.2573
29.3833
59.3768
49.9308
15.0652
-17.6939
-104.957
-148.015
-155.345
-142.052
-73.8244
-5.23464
50.5004
69.4368
-17.6856
-102.653
-24.7136
83.7248
85.1776
78.4558
82.5402
69.3161
53.8664
25.2457
35.9569
96.3033
84.6107
-5.32831
-69.9736
-25.9671
98.2279
105.359
18.3058
-54.5552
-156.429
-265.196
-200.681
-77.0999
-8.61212
74.5536
125.016
80.2118
64.7795
147.656
148.246
-2.83857
-121.469
-206.078
-172.143
-30.6679
-75.1327
-91.3116
3.85957
35.9182
-4.71251
-55.8072
-3.03454
145.181
256.783
126.042
-1.2707
7.40414
12.0951
-74.4539
-150.402
-158.548
-66.5959
130.107
207.706
161.919
153.028
123.795
32.6622
-30.8158
-58.0506
-71.5026
-99.9135
-158.735
-222.306
-104.527
100.465
156.344
33.0573
-65.7215
-123.462
-148.375
-59.6052
10.9115
29.8085
-30.9705
-58.8744
4.50296
31.0049
37.8066
100.349
162.764
132.616
77.6214
75.823
148.002
48.8696
-113.748
-165.602
-176.742
-127.66
-25.0115
11.613
32.1675
29.9557
21.5526
100.844
143.742
93.1947
60.2897
44.6335
40.0559
-1.49663
-101.179
-180.415
-223.369
-181.351
-134.456
-73.7619
65.7465
254.295
412.639
276.314
90.3494
-15.9399
-50.4669
-156.585
-238.212
-166.896
-113.727
-180.356
-216.491
-140.734
-30.5325
44.847
138.001
250.183
326.951
269.057
112.305
-81.8338
-289.7
-292.15
-208.296
-128.337
-46.5153
70.4699
151.848
181.425
210.122
219.321
202.548
140.012
24.2908
-31.0633
-109.701
-176.217
-159.865
-81.6892
-36.8935
-66.6566
-51.3995
-2.59171
16.5832
0.878613
29.106
195.562
251.716
43.4467
-56.4999
-61.4605
-86.6472
-50.5675
-13.2789
-24.0996
-47.4262
-65.8941
-103.15
-145.639
-149.305
-82.2682
29.297
135.691
181.215
226.848
129.911
-74.8757
-175.567
-135.53
-120.698
-67.8019
3.73876
36.0116
53.0745
-22.8916
-117.208
-149.612
-60.4717
194.572
345.986
441.466
460.627
328.213
166.957
-41.2791
-312.915
-444.486
-424.034
-317.637
-225.974
-94.9443
-1.33083
-30.481
-26.3384
54.927
91.691
130.323
178.347
150.758
103.606
0.690486
-118.982
-71.533
-5.79945
30.4983
140.97
141.689
74.5782
47.3998
53.6408
12.4986
-84.88
-182.067
-200.662
-124.215
83.4698
171.278
-32.5314
-137.445
-118.164
-127.379
-127.684
-116.683
-62.4992
49.7027
172.984
257.194
217.586
122.481
28.0886
-6.28947
9.57885
47.9043
7.64785
-45.8596
-73.5533
-91.6084
-50.0177
-28.1019
-32.6894
-17.6269
4.02406
-9.65716
-64.6279
-88.3179
-25.1916
43.9375
118.99
244.562
254.245
107.226
17.4783
23.2964
4.49386
-100.099
-226.14
-229.586
-118.465
-26.9717
-22.6673
5.95027
29.3443
11.6693
23.1939
16.535
-59.8582
-130.784
-142.623
-130.156
-52.8167
53.7757
122.395
141.109
113.899
43.2253
9.90353
59.0806
223.289
234.756
65.8706
-76.8553
-117.651
-88.8795
-71.3542
-55.4273
-24.8773
14.4343
-0.199776
-80.0466
-190.242
-146.374
-6.26642
102.782
162.366
157.923
87.8513
13.688
-52.1457
-155.212
-109.613
-59.9982
-86.1225
-70.3606
6.55035
74.6127
150.043
261.249
339.782
236.072
58.6281
-53.9056
-124.25
-195.708
-152.765
-2.75747
73.3541
21.1744
-48.2435
-31.5696
-50.0122
-122.287
-127.054
-119.897
-82.2599
-60.2629
-91.0818
-155.81
-133.832
-30.4129
107.449
144.786
95.6911
65.9531
45.0017
41.7026
30.651
-1.23334
-14.5684
-65.789
11.1092
184.872
342.192
391.731
208.743
-58.3189
-171.805
-152.839
-140.659
-105.967
-64.3583
-62.0307
-59.497
-8.44119
19.4568
-14.9321
-46.1083
-58.9578
-85.2416
-65.842
-37.0363
-28.6646
-54.4336
-66.3832
17.261
140.567
153.396
89.1142
-29.6018
-82.8821
78.7995
168.736
136.085
19.4318
-9.77241
68.3256
80.7621
72.2595
38.8477
-4.80253
-69.9688
-150.82
-188.722
-178.787
-164.83
-123.244
-63.1614
-76.298
-36.1205
67.7561
30.1053
10.8106
10.8531
51.6858
58.9783
-10.6179
-23.8495
-26.0193
-1.44109
17.6454
-34.8964
-11.2468
187.678
406.941
322.288
128.494
10.9172
4.13449
-17.0086
-61.3181
-82.2239
-80.2025
-115.752
-153.793
-148.397
-101.896
-45.6857
12.9909
71.1361
131.998
159.472
39.1348
-196.125
-320.945
-238.477
-83.9705
50.0702
90.0611
104.427
92.0395
137.118
211.668
201.444
216.055
215.656
104.364
-79.9656
-186.883
-250.77
-262.337
-208.691
-127.305
-119.687
-219.313
-156.774
4.03275
42.5447
42.1573
39.6416
59.6209
-34.8808
-122.183
-15.7169
81.4398
108.963
86.3418
94.3344
81.8341
66.7655
117.602
289.938
383.867
338.858
189.671
38.9088
-34.1079
-61.7362
-73.8887
-53.8158
-67.6306
-99.1264
-146.705
-212.724
-273.274
-361.914
-334.273
-113.889
115.105
111.877
75.1773
98.0804
129.182
73.8609
-49.0925
-88.057
-109.448
-68.6044
-23.2489
42.2382
73.6173
63.5949
41.0021
48.8332
77.7821
100.453
84.8982
-0.701227
-14.9275
40.5478
18.5594
-66.8818
-43.415
35.0512
41.1883
-50.5666
-114.805
-33.3259
6.46582
-69.7007
-59.2831
-13.3232
26.695
36.4723
22.0614
80.5129
148.08
119.932
54.0908
1.84902
4.22888
10.7837
-36.0591
-99.8551
-30.6917
60.7002
40.5066
-107.84
-189.345
-112.789
-54.8628
-105.487
-69.9187
-40.45
35.0837
127.49
166.511
159.772
84.2114
90.1315
77.2869
-34.4956
-123.315
-134.011
-147.264
-99.7486
13.0617
82.2492
115.824
105.548
78.1175
99.0635
62.6501
29.6644
-65.4801
-179.295
-182.733
-121.609
-56.2268
47.5884
208.48
295.941
169.786
-17.1055
-106.23
-171.33
-100.046
-69.0925
-96.6409
-88.7959
-66.8999
-37.2039
-21.7027
11.4562
60.877
60.5357
11.2328
-22.6194
-29.8463
-45.4185
-100.899
-94.3129
11.3612
187.121
328.563
333.606
205.552
109.329
18.7468
-84.1229
-160.631
-225.204
-349.567
-334.142
-85.8911
245.403
318.651
122.356
54.2302
75.9936
-20.0161
-130.426
-148.662
-157.909
-147.035
-49.5225
-5.2036
14.1969
64.0176
62.8771
74.8643
162.063
220.704
153.557
31.6124
-161.988
-230.762
-105.85
-79.391
-126.787
-133.489
-139.102
-114.432
-84.5082
95.0544
290.721
355.387
386.397
327.817
164.678
33.5351
-32.8736
-0.858366
-20.1604
-137.275
-207.861
-182.186
-169.627
-242.153
-275.085
-179.357
-29.3324
78.4533
110.103
52.4918
-8.88836
-44.1305
-109.738
-115.962
30.0087
134.34
158.697
128.061
101.893
99.2342
74.11
17.0771
25.486
92.1654
141.954
108.274
15.9451
-70.0108
-94.5882
-105.611
-95.6523
-94.5792
-119.21
-115.195
-79.1377
34.64
95.6654
68.8651
51.6953
-4.88909
-37.5655
-36.4276
-28.8388
-11.4349
-37.3923
-63.2373
-27.155
79.2399
251.272
283.508
60.7197
-94.8264
-151.931
-166.539
-191.433
-228.138
-67.6091
149.552
257.451
238.094
127.588
59.3575
31.9016
-16.1185
-77.3391
-114.492
-174.924
-217.103
-221.417
-230.886
-92.4603
42.1737
132.409
195.691
153.362
153.397
174.833
140.065
106.446
108.187
83.3159
30.749
-17.0856
-63.8227
-72.3944
-31.0622
19.6196
26.3462
-46.9083
-81.3659
-50.7034
-4.58579
16.8649
-17.3845
-28.711
-93.4144
-235.474
-301.481
-234.237
-108.957
22.958
91.5715
102.733
40.1989
-60.0594
-81.9216
98.5532
349.618
221.983
81.2156
37.9277
-35.9571
-86.8918
-40.2622
46.689
6.92999
-18.3976
-26.6136
-81.3964
-135.2
-93.9179
49.8247
131.709
167.14
226.872
279.964
122.876
-100.182
-33.4736
13.7642
-51.6915
-34.5223
-27.1264
-82.2796
-95.2153
-87.6605
-126.792
-139.745
-143.944
-113.887
-54.5202
-22.8234
23.136
113.26
158.619
57.544
-28.0809
-51.1606
-10.2208
51.352
100.402
108.68
113.695
111.134
72.4427
69.2824
19.783
-10.5643
-47.6851
-83.6176
-117.706
-154.191
-157.013
-131.933
-79.7741
0.914526
73.5715
36.2513
-17.4232
-48.9428
-123.545
-183.333
-109.338
110.685
351.414
312.243
136.548
8.89907
-36.3942
-11.5538
-44.4147
-174.502
-158.903
-14.922
22.0471
40.0672
25.3731
-13.5096
6.8298
29.4683
115.711
177.549
132.059
71.4787
-63.7921
-135.422
-88.1907
-63.7532
-52.3027
-68.5702
-129.398
-37.8079
107.446
129.122
137.148
49.5809
25.8533
80.8905
39.626
-44.0558
-85.2164
-99.0023
-70.9643
-73.4661
-46.6006
80.909
147.521
97.1016
31.4261
17.2574
69.7401
75.1254
-39.4037
-117.952
-129.336
-84.6507
-43.2901
-45.6938
-54.7532
-35.445
-93.6664
-133.719
-89.3874
-156.409
-231.346
-222.055
-141.009
35.1141
264.633
441.022
467.365
243.337
-11.8645
-116.516
-28.5144
104.855
132.588
75.6257
-9.59054
-23.4657
46.0967
72.337
24.7728
-45.7535
-140.078
-209.101
-168.862
-43.2584
-8.79687
-127.658
-237.896
-107.222
115.507
261.515
233.461
145.78
83.1205
10.1068
-40.109
-56.2879
-66.4104
-98.3445
-96.3263
-6.58811
115.52
238.217
234.755
114.337
-4.98445
-78.8518
-102.047
-89.5904
-106.836
-228.65
-279.264
-276.175
-279.978
-208.778
3.07197
150.432
174.686
188.788
110.077
69.4962
120.245
170.698
186.305
120.752
14.9017
-24.7863
-52.9055
-105.468
-60.8183
136.753
175.167
8.15938
-36.3777
-4.6209
8.8335
-4.90474
-34.4165
-52.9002
-21.8324
-11.1573
-52.3467
-115.372
-164.416
-136.058
-76.3631
-69.8063
24.9486
128.357
111.786
13.9891
-19.0747
45.5294
63.0566
47.6757
28.1391
10.9325
52.5678
28.271
-28.0524
-105.204
-114.59
-21.8027
44.4289
36.2755
49.8785
79.1776
117.225
151.118
33.4656
-147.881
-237.493
-185.035
-123.808
-86.3891
-53.1979
56.5695
177.526
227.664
104.966
90.3942
76.9451
46.4047
-2.26871
-38.0493
36.7007
159.379
164.251
-10.0499
-129.696
-89.6499
-53.1692
-38.4013
-85.5145
-130.403
-151.318
-184.001
-205.425
-161.512
-36.9731
14.0124
22.0137
-30.7371
-30.9961
36.2008
27.4923
-50.5584
-90.597
34.7337
209.401
263.416
240.85
193.078
161.051
118.951
74.9555
16.9643
-16.88
4.87915
39.8913
39.2243
-37.2464
-116.965
-95.2603
-75.4781
-53.7928
-21.3958
2.16981
-21.0272
-43.7173
-62.0059
-48.9248
-22.0461
-28.4113
-48.1959
-107.956
-179.853
-188.42
-75.8337
23.0458
1.40985
-35.0908
-49.1246
-49.7501
4.33917
67.3931
147.842
313.115
445.368
466.119
263.67
15.8973
-99.3294
-128.574
-125.968
-86.2915
-42.1566
-49.3414
-122.049
-157.227
-160.909
-105.543
-62.5832
-57.0725
-19.2626
-21.7341
-63.6909
-171.082
-236.113
-213.531
-136.741
-118.409
-169.474
-25.4631
241.188
376.416
384.636
350.824
302.454
215.682
158.392
124.457
83.1899
25.4856
-78.5459
-161.784
-177.687
-163.795
-179.648
-164.027
-77.3935
44.3058
76.8342
40.7745
32.7778
17.5272
48.7742
144.37
177.443
69.5874
-55.9943
-120.048
-79.696
-60.1807
-123.269
-170.439
-174.176
-134.289
-100.971
-127.802
-91.2914
90.5932
325.47
416.699
189.34
8.24044
-97.4004
-204.261
-255.459
-181.025
-96.2353
-36.6551
11.1141
18.0271
88.049
215.603
223.29
133.449
5.31182
-74.1946
-88.7982
-181.753
-267.163
-237.712
-58.7219
87.0173
135.874
154.009
130.077
99.2982
156.717
254.183
224.805
93.7403
26.3202
39.2939
-24.63
-90.1546
-37.9648
36.207
69.8787
128.962
74.023
-92.8251
-177.305
-181.044
-182.747
-163.833
-70.8664
67.5725
40.7789
-110.275
-155.779
-55.0854
7.2748
-21.8612
-115.507
-162.656
-91.0743
-21.4636
-15.795
-27.2288
55.7684
127.786
107.3
63.5303
89.2209
97.8382
56.4039
14.166
-17.7449
-24.9696
16.8708
158.071
275.265
64.8397
-58.8677
-47.3098
-37.5839
4.7528
38.2005
5.21916
-31.7385
-59.9146
-58.0682
-35.1676
7.02628
24.163
50.9857
-2.83421
-44.1925
-27.8758
-54.8525
-95.5036
-114.991
-23.5277
18.7584
-5.44837
-6.96634
-0.469118
14.3251
38.5856
64.9329
63.5989
29.5567
-33.3124
-62.9612
-47.6698
-46.2262
7.57289
158.115
240.664
135.218
11.2132
17.0287
52.9964
62.7606
37.2716
-36.8763
-67.0088
-140.831
-225.167
-258.929
-251.567
-134.373
-19.5552
-25.772
-37.3829
-71.5782
-130.687
-103.147
64.1566
341.674
265.468
30.2462
-25.7902
70.0336
131.597
172.059
192.123
218.559
190.102
113.611
21.6976
-94.8936
-207.975
-229.467
-192.753
-80.6949
57.0039
46.6184
-76.0465
-155.796
-79.9075
-3.27829
7.05504
42.7827
87.9552
70.5691
-12.4336
-103.584
-162.51
-133.629
-81.9478
-32.1359
88.8899
217.363
306.772
241.264
95.0928
17.7297
-47.6958
-118.054
-82.075
-89.7282
-123.726
-123.218
-127.329
-128.241
-40.0848
196.123
401.003
243.152
55.6616
-35.149
-70.5627
-95.146
-211.623
-292.186
-250.782
-177.568
-66.5038
4.88327
11.4425
69.4295
129.272
110.811
108.54
150.016
79.0483
-57.0674
-87.7831
29.5588
122.068
82.7791
25.3746
66.2763
144.995
148.79
61.9168
-47.0817
-106.635
-128.02
-81.7718
8.75282
102.434
207.606
190.232
59.4603
-57.0132
-129.642
-207.815
-196.856
-156.059
-149.046
-127.042
-34.9596
161.158
239.859
195.063
83.8467
-36.065
-51.3045
-31.6304
-88.6645
-249.711
-423.722
-404.84
-195.471
-41.7421
32.7842
130.299
236.584
272.118
254.124
228.471
134.862
-53.7003
-125.704
-36.8778
68.967
124.331
112.276
43.7915
-4.43681
32.4098
63.6487
117.91
87.445
114.963
144.602
44.8745
-37.5865
-40.7044
-21.1915
-74.6951
-200.221
-271.485
-190.022
-101.248
-75.3178
23.5976
127.905
102.436
-9.55205
-32.5367
-13.4303
-88.2687
-248.779
-266.363
-9.87701
280.116
256.959
-55.9714
-237.057
-258.044
-238.072
-98.3191
94.0801
220.182
219.421
127.98
21.2389
29.5098
119.539
137.556
116.106
76.1926
93.6119
24.8621
-163.277
-260.999
-163.66
80.8814
293.166
420.836
421.726
232.309
-23.6918
-151.615
-175.008
-203.233
-217.068
-241.932
-245.562
-192.969
-109.603
-102.243
-97.5906
25.9673
83.017
13.4441
1.24195
96.8045
82.0604
-65.1964
-51.4865
148.313
295.911
206.926
164.25
212.315
154.104
17.3372
-99.24
-171.831
-185.918
-145.137
-135.595
-139.184
-91.4975
-90.3108
-123.448
-62.7848
22.073
33.6262
-8.50197
-125.013
-174.635
-61.3618
-27.8473
-98.5877
-90.0598
52.0402
179.625
258.4
314.384
310.233
270.447
162.337
41.0277
14.3182
6.15999
-38.4702
-71.9281
-38.4403
-15.5419
-47.8259
-19.2251
-23.0205
-34.3561
-73.6348
-53.5891
-13.0489
10.7258
-17.6216
-42.2005
0.276153
87.7655
64.0937
-63.8608
-130.45
-127.439
-135.311
-95.0232
-71.761
-91.6449
-138.086
-188.91
-188.563
-97.4762
87.9605
249.241
332.089
140.529
-44.5456
17.1363
118.474
249.572
308.56
202.999
-15.4884
-177.172
-203.135
-138.101
-25.4074
59.7607
92.0586
66.6401
18.3735
5.73537
31.2014
-66.9649
-139.715
-182.623
-180.322
-128.628
-79.6202
-91.7816
-72.7015
-11.0841
107.207
225.794
234.266
149.964
38.2292
-60.5542
-88.5149
-49.7137
20.8792
57.4139
-0.863108
-53.275
-78.4225
27.8286
111.813
71.9271
137.518
178.97
-41.4751
-210.835
-214.761
-94.3901
48.0038
92.0209
89.0242
90.8493
126.722
85.4654
-65.8535
-159.797
-137.498
-146.761
-165.496
-90.0192
-28.3655
-58.5523
-126.023
-135.984
29.111
201.711
305.049
274.304
113.286
10.2474
15.8104
13.0969
-26.2068
-67.7128
-38.2575
-26.0438
-90.3999
-22.2467
51.6248
66.2331
61.0792
43.3172
-25.4378
-137.564
-123.531
0.691657
44.327
-6.34151
-56.1278
-47.009
-15.1353
13.7425
-3.66639
13.7927
50.0585
82.3205
109.214
71.9626
-7.11702
-123.753
-168.913
-27.6069
146.716
218.973
59.3464
-141.511
-205.893
-246.302
-190.997
-96.5327
-15.9547
72.8134
218.297
323.083
300.231
154.651
11.0584
-53.8874
-85.0122
-68.3304
-46.6264
-113.301
-204.37
-178.568
0.0249732
111.661
118.633
142.713
221.161
214.642
101.809
-36.6675
-160.674
-233.576
-211.498
-106.413
-24.5271
-26.7133
2.84072
90.8365
57.2145
-32.8597
-72.1222
-109.539
-117.077
-46.8358
14.1937
35.1374
14.1373
12.3524
34.2012
-6.36536
-116.63
-74.9463
111.866
313.451
198.001
65.7573
13.3939
23.8789
103.796
123.494
95.7175
-11.9359
-191.446
-255.144
-176.205
-72.8313
-147.592
-155.331
-19.3633
77.6044
134.754
140.494
185.715
153.328
75.7407
26.0967
37.8005
36.0443
6.95351
-40.4347
-70.8103
-25.5789
25.4828
-25.2441
-98.0937
-118.416
-69.8199
-33.4249
-26.0001
22.237
94.3699
62.7653
-102.584
-246.959
-187.454
-68.5684
12.1117
82.8092
129.714
95.7525
35.5974
0.00311776
28.0008
60.5135
41.3192
13.9214
56.1446
19.1784
-47.9331
-48.8746
-61.5938
-52.2349
-40.4996
28.8169
151.519
95.9864
-18.3342
-65.6682
-68.1322
38.3437
114.008
4.30673
14.7263
59.3914
102.224
28.3548
-90.3577
-150.839
-151.255
-69.6381
13.0683
7.99142
-20.9103
-50.5133
-55.3203
20.118
106.646
85.7989
-19.6874
-39.9516
-18.1045
46.1358
99.1391
56.4899
11.9833
105.205
221.235
184.786
88.1225
40.4267
-32.0066
-128.77
-189.288
-231.259
-205.982
-142.506
-108.694
-52.5652
13.7888
-6.96999
-55.6061
-1.55491
14.8519
49.3297
67.3554
68.0329
35.511
42.3633
47.8306
-11.9156
-44.188
-35.2588
2.57608
54.9157
59.4065
67.2663
67.3968
47.9621
52.2187
10.2911
-23.1671
-7.1464
4.04939
29.149
17.5061
-17.3026
-49.7984
-32.6979
-24.2862
-59.5974
-63.3944
-37.3011
-5.69579
39.076
75.6026
93.0847
11.919
-104.642
-65.2167
-10.4327
-16.5372
1.82642
12.4744
0.911612
-14.0802
-30.2586
15.284
56.5075
55.0792
83.6332
70.8424
30.6564
-6.8374
-62.2825
-148.621
-216.248
-202.476
-170.27
-113.899
23.223
217.876
245.314
91.0509
-13.3727
-12.4462
62.0672
143.735
182.252
217.437
237.24
148.629
-53.8795
-184.763
-167.202
-87.6567
-48.1874
-2.69084
55.9286
5.40782
-130.395
-267.83
-287.854
-161.604
-46.5027
83.046
103.401
40.1693
-61.7691
-129.245
-111.862
17.6552
173.028
189.425
84.8569
11.9642
21.1364
32.9087
78.1439
137.318
134.803
98.3575
32.5214
-0.212601
13.7846
-40.2709
-98.5737
-157.029
-166.659
-118.186
-116.32
-63.7377
11.8191
44.1367
107.474
130.423
97.9503
94.3343
89.7685
41.6019
10.2345
32.5873
90.4478
87.3208
21.5596
-78.1581
-144.884
-147.786
-93.9548
-90.8134
-119.307
-144.852
-154.108
-78.6757
-26.6263
-6.77955
-8.40655
-31.1235
55.7911
312.898
539.007
308.781
12.6781
-87.7826
-120.603
-112.969
-61.0736
-20.2438
0.822199
27.6088
45.4777
29.5747
9.66284
-60.1343
-135.615
-194.478
-194.61
-127.094
-89.4667
-175.165
-313.717
-203.873
0.585328
105.653
157.356
225.148
291.574
246.501
171.6
119.539
72.0364
33.2739
42.4703
91.5662
127.328
168.644
206.072
172.752
36.1592
-137.8
-235.357
-205.965
-130.244
-83.2886
-59.728
-88.1037
-145.485
-106.524
-98.125
-177.525
-145.591
-65.4798
-35.0897
49.0001
193.606
255.381
208.81
57.1014
-67.3772
-115.575
-95.1466
-34.4235
-33.6082
-89.4788
-86.4491
34.8384
216.463
210.493
63.6482
12.9241
-89.9012
-110.048
-64.8244
-102.4
-49.7898
92.7042
65.8735
19.7992
40.4599
46.0292
27.8006
28.9406
54.8916
79.7138
62.3013
-17.0308
-122.755
-79.3308
65.2797
78.1583
24.6275
-44.7518
-65.3729
-32.2187
-91.6602
-182.952
-110.224
-43.675
-32.2383
17.3452
95.7982
60.6319
24.3705
55.7341
102.87
95.5548
32.121
-18.4049
-17.8328
36.4271
103.064
129.535
109.235
24.5099
-64.7469
-102.959
-61.7388
3.92531
-60.5083
-173.669
-200.595
-61.4979
156.199
127.222
-19.4735
17.0372
68.5562
15.1882
-51.7943
-69.3942
-69.6226
-97.6915
-97.6014
-41.9615
-4.59644
21.7129
52.0537
69.8389
111.969
115.389
48.6504
-34.8678
-133.786
-101.747
-34.2429
-26.9735
-51.7248
-67.0445
-2.52795
71.3315
96.6052
82.4468
61.1846
65.5273
82.9059
26.4236
-44.0414
-3.12503
118.324
196.515
174.716
72.9788
-10.375
9.97342
-45.2337
-172.573
-248.216
-246.949
-133.08
-66.2477
-76.7684
-74.5066
-21.4513
104.886
285.2
293.555
89.7949
-44.0436
-96.5672
-114.672
-147.874
-182.942
-229.319
-228.41
-132.651
20.1067
250.426
454.137
440.147
342.976
264.527
211.496
24.6162
-206.156
-346.057
-372.692
-264.881
-170.34
-120.285
-33.4344
0.171707
2.05874
-22.8539
3.24835
65.8925
25.3131
-78.9932
-121.155
-104.143
-19.0738
121.933
123.316
127.245
150.579
17.8246
-43.1621
-34.0764
-78.0439
-63.9601
42.471
143.93
195.464
199.986
212.848
158.34
53.4936
-23.5514
-17.0539
-20.1193
-114.492
-221.506
-254.387
-226.582
-235.832
-125.138
25.3535
113.698
94.8187
25.5924
13.7089
138.712
222.659
151.363
-32.3263
-77.5028
-0.173828
86.7622
25.2093
-165.109
-258.926
-180.885
-57.8889
60.9636
151.263
141.483
127.446
144.679
168.101
106.896
-37.3018
-143.562
-151.654
-79.7986
-42.0129
-53.5508
-114.773
-198.538
-198.069
-61.3933
101.765
139.467
145.027
184.925
148.228
59.9907
-59.1733
-149.36
-170.922
-161.934
-120.275
31.4656
236.247
278.817
150.543
78.5738
-5.17193
-91.577
-114.112
-80.4537
-49.2738
-44.1842
-35.1933
-29.5565
-12.3314
-7.06977
41.4452
88.4837
130.048
152.807
107.194
-25.3549
-173.918
-184.559
-173.894
-198.033
-60.0756
30.066
33.7125
93.7621
118.462
140.101
78.1285
-50.043
-72.5473
-11.2135
46.7106
58.3826
70.7147
112.301
97.1064
2.53549
-74.5982
-91.5262
-18.5334
46.9059
33.3128
41.0008
43.1019
16.325
0.230513
-66.7087
-87.0273
-47.5597
-30.118
-56.0587
-99.8813
-95.7419
-59.131
-15.7281
-5.41363
-19.2469
-39.8197
-37.7865
39.2294
77.9148
60.4165
71.5441
66.2613
13.1883
-14.5458
-1.46765
0.462593
3.04207
-7.9678
-14.1627
2.98757
28.0867
6.10785
-22.1641
-22.4154
10.926
39.1828
70.1377
111.774
142.214
118.719
-13.8148
-96.426
-123.685
-98.4822
-81.7007
-58.7505
-64.5127
-63.9931
57.1201
143.516
112.018
54.4578
6.30037
-9.89313
-56.0727
-71.6332
-45.7579
-111.129
-179.965
-177.452
-92.4966
-18.2088
2.3195
5.68639
32.8325
36.6613
50.9061
117.622
158.885
216.221
152.483
58.2775
47.1388
31.936
46.398
45.6635
-33.4624
-63.427
-68.2539
-28.7479
25.5821
80.2253
91.5621
-3.55622
-43.0172
-2.08435
11.1372
-26.3484
-131.211
-181.263
-124.261
-84.3755
-76.5248
-20.4931
-5.07519
-70.5848
-137.781
-87.0956
26.7585
62.9017
33.3634
-10.2799
36.0969
96.1772
109.604
94.4814
45.1622
-6.93871
-74.5834
-88.8182
-82.8499
6.42514
99.9667
105.749
32.452
35.8576
129.877
146.656
93.3735
1.65319
-12.0998
-16.4069
-12.5724
-10.9885
-36.3921
-40.492
-29.1629
-13.0856
-13.6656
-57.1356
-79.5261
-61.4023
-42.2807
-32.334
-36.9892
-45.811
-60.4599
-42.3485
1.00961
19.4285
24.1816
43.1784
35.9909
76.9513
26.0837
4.49692
50.3167
63.4857
73.1613
28.6842
25.7559
58.5338
30.8067
-4.83131
-2.79955
-2.08005
12.2448
30.3455
6.92268
-22.5374
-47.66
-49.3564
-71.8529
-80.2227
-34.8685
-19.2543
-8.01455
-13.4403
-52.3901
-65.0753
-29.5437
-14.4672
-21.9338
-20.8158
-23.5646
-30.0207
9.18787
77.2043
69.8318
43.2817
52.695
38.5536
17.4904
45.23
89.4223
29.1723
-61.2152
-48.025
2.58728
-14.9446
-33.4162
-30.7119
-7.33145
-27.1105
-35.7927
7.83459
29.6203
-23.4874
-29.8442
-20.7118
-26.1017
-26.6575
-39.9647
-43.3313
-40.1747
-23.3876
21.3895
61.5954
68.9705
90.3366
84.7654
25.0878
14.6048
39.8768
36.4216
13.732
-35.9832
-57.8503
-16.0939
36.114
46.7761
46.6335
35.5922
-30.5297
-46.5576
-7.52773
-2.87961
-13.3041
-9.39844
-40.2485
-29.9838
15.3692
0.265387
-9.28089
16.5292
3.68594
-7.21651
17.3359
-7.24452
-21.3462
3.56097
0.564553
-12.7012
-16.3892
-41.1005
51.0036
8.15145
-76.2143
-89.2149
-54.7384
-64.5563
-8.73969
33.6036
72.3319
130.209
134.15
19.242
-39.5821
16.3712
57.6784
50.9721
-65.3095
-69.6587
-32.9952
-38.0438
-37.6128
-7.95991
-39.8022
-57.9743
-19.6571
-0.584782
72.2917
99.1433
46.3648
16.1627
12.5365
60.1343
39.5118
-42.7723
-71.6894
-73.3363
-65.1312
-29.947
31.0362
39.8308
-3.29187
-47.1804
-31.2519
0.951038
10.9974
17.0591
-49.3419
-52.3856
-31.2829
42.4814
143.137
213.405
111.97
18.3219
-36.7701
-49.5173
-85.2397
-88.5343
-71.8289
-41.4929
-10.1892
22.328
57.5078
70.54
18.432
-29.8782
-34.0578
-17.3382
4.17984
-38.6268
-103.275
-92.6176
14.8495
95.0654
38.7567
-7.20009
0.824542
-17.692
-25.5695
41.3223
31.0745
7.45707
8.24132
-10.713
0.134391
17.1134
10.8795
9.92536
19.0125
-5.91829
-37.9805
-52.0191
2.78989
97.5326
137.814
125.868
68.1501
27.7544
46.6834
-24.8538
-82.7927
-74.5467
-46.045
-42.4059
-74.9518
-59.6829
17.0236
84.6452
21.9843
-71.5254
-112.265
-132.396
-133.179
-169.624
-132.076
-32.4103
128.184
174.817
77.8199
30.4694
19.9183
-23.3967
-25.8457
-0.537338
-5.47913
-7.14244
55.7686
-44.9265
-94.9606
34.1062
120.8
143.655
154.188
128.551
85.1104
13.0289
-37.8674
-34.5288
-1.6635
-4.36899
-59.2177
-14.3597
38.5638
72.6739
182.731
230.171
146.609
78.1719
-17.8829
-132.421
-198.477
-235.126
-201.848
-169.276
-132.316
-141.909
-195.377
-140.726
-16.1699
30.778
90.0682
106.874
38.2438
-34.0115
-74.1835
-48.7491
-18.8691
27.2845
101.077
149.752
136.06
127.321
78.2746
62.0487
87.7869
50.1279
18.6703
15.9164
-0.458994
-9.50376
12.9383
2.42461
-36.8951
-56.856
-110.478
-171.678
-113.508
87.5157
164.603
64.0193
-15.2023
-28.6039
32.2028
46.0067
42.6716
-52.2943
-53.4176
-39.8022
-59.4153
-46.4207
-42.3629
-40.8791
-21.2353
2.15209
40.4793
76.2629
38.1397
-58.4814
-67.462
-42.2179
-10.0476
34.6699
0.681422
-11.639
24.9045
75.2337
27.3798
4.34073
-0.709895
10.658
60.734
114.951
83.4454
35.2493
29.1489
12.6849
-57.2631
-114.849
-127.932
-55.7402
-0.297784
-8.48855
-54.3643
-83.5875
-106.451
-40.2124
62.874
128.934
144.006
118.153
59.9915
-45.9286
-126.035
-133.921
-115.762
-40.38
112.851
193.965
115.943
14.2966
2.73115
-10.2604
-21.7565
-14.3056
15.9221
46.9288
60.4805
2.15926
-38.4781
-12.3965
-43.9774
-100.295
-88.8183
-55.1068
-53.1615
-77.7208
-138.032
-176.212
-32.3356
109.143
224.775
334.638
294.738
92.3173
-132.173
-166.14
-138.474
-99.8684
-3.41777
-9.17566
-83.3146
-40.0415
7.26537
15.9568
-8.15164
-37.6871
-57.0852
-67.0423
-44.8343
2.08171
17.0386
42.5566
86.4661
137.728
236.177
233.06
109.13
22.5256
-18.6672
-27.9542
13.9084
13.3205
-43.6458
-85.5131
-93.0305
-15.4836
57.373
80.9768
39.9785
-45.3289
-118.762
-184.644
-213.065
-197.565
-143.161
-92.7097
-37.2839
39.7676
65.13
73.8386
96.6988
8.673
35.3478
102.331
181.423
253.981
131.858
-76.6256
-109.427
-105.678
-97.4637
-117.036
-86.7757
-27.7161
-15.6948
29.8176
96.2825
63.2955
0.860614
-32.2645
-12.4214
95.4623
129.538
113.699
31.9916
-91.2001
-106.257
-44.3035
-0.773826
38.3288
24.3431
31.9684
33.5923
36.4715
24.9092
36.7677
-26.746
-93.0932
-109.967
-54.4756
35.4714
25.649
6.09262
-13.0802
-22.553
-86.8187
-58.7344
-39.7807
-72.57
-35.0033
15.6427
65.2993
126.267
93.6812
49.9391
22.3552
64.1817
95.9281
6.26472
-77.1225
-104.021
-114.496
-161.4
-122.101
-83.0463
-48.9759
-0.109108
106.409
104.437
60.7704
141.139
236.746
222.708
193.363
80.4035
-29.0278
-34.6776
-55.8657
-104.754
-133.389
-121.443
-66.9721
-16.6528
-35.9476
-61.0239
-87.1343
-101.817
-86.7133
-52.7734
3.52642
19.8471
-77.9768
-173.75
-114.319
-9.52815
76.8683
117.576
95.3233
103.919
125.391
132.028
132.301
146.038
144.58
145.625
77.4641
-7.29833
-36.0342
12.6056
-8.33594
-143.141
-200.766
-186.478
-148.341
-87.4397
-69.1886
-109.217
-80.8341
-25.7959
-9.08257
-21.0367
-1.88356
89.3105
149.611
67.8491
27.7068
72.412
93.583
95.4095
50.8331
80.5487
144.836
105.118
22.8691
-90.295
-185.391
-157.491
-75.2516
-7.20017
-21.4246
-85.2673
-90.8666
-89.9623
-92.8769
-3.34727
91.7121
97.3972
65.4559
18.2596
-6.75229
-23.3975
-46.1527
0.798727
85.61
205.98
202.834
101.237
50.519
12.5771
44.7318
63.7086
16.3427
-40.0665
-68.794
-94.2217
-99.0896
-128.606
-143.266
-134.651
-100.251
-92.4567
-64.4886
-2.16404
24.5964
16.9877
93.0911
116.659
61.2813
-14.2133
-69.5936
-112.329
-128.202
-78.2436
52.4336
122.32
84.5291
53.6613
74.7687
101.706
82.7111
99.7576
62.9506
-34.1057
-46.6409
-67.122
-102.546
-91.0056
-39.1905
78.9512
139.305
81.9529
24.2079
24.2231
-39.6412
-60.1909
-46.1436
-17.8288
-15.1938
-26.4921
-38.8329
-83.4254
-119.841
-116.427
-117.42
-67.8578
19.6014
77.1329
51.2148
47.9691
90.9066
158.895
182.607
121.676
49.662
29.0048
19.8075
-45.9597
-121.324
-79.0991
-7.20819
2.36625
87.2807
192.493
146.941
76.6922
-23.6501
-78.279
-96.2905
-127.49
-126.364
-45.8444
-9.57085
-2.66625
-70.5225
-161.322
-130.595
-66.2996
38.9532
78.1164
35.1933
78.0516
98.0099
73.7334
24.986
-51.9164
-121.913
-147.605
-82.1443
-54.8097
-49.8614
-52.1294
-46.0981
30.2426
104.572
147.003
139.253
129.438
86.075
47.742
-14.5983
-85.6136
-50.3182
72.6947
41.71
-3.69327
4.56352
-19.785
-68.2446
-57.3253
-22.5831
-7.41124
50.1852
55.2981
68.7685
42.2966
-51.9143
-20.0481
38.3506
-4.71711
30.166
70.3302
-25.4934
-160.788
-162.379
-75.147
-7.05731
128.18
285.493
206.872
75.4832
37.1719
-23.8779
-106.951
-161.322
-132.502
-87.572
-123.095
-164.877
-134.953
-31.8215
43.796
83.9227
79.4383
105.43
118.292
79.0548
-25.6712
-122.279
-104.338
-66.6519
-41.1992
-27.4411
-8.85552
20.2203
67.5489
110.618
107.385
131.494
127.149
59.7872
-9.95842
-60.6084
-46.0156
-1.71607
-32.7492
-8.98022
-15.5316
-59.7545
-36.879
18.8661
7.08984
10.5811
-7.93787
-37.4628
-93.3723
-89.8965
-4.69583
130.436
133.362
66.5705
29.6087
39.7885
-23.3892
-24.4588
93.4433
72.4075
-43.8653
-147.486
-187.752
-201.417
-154.842
-76.2396
21.1713
92.3566
86.3724
87.6307
68.5802
-25.2453
-34.4807
-31.3
-83.3029
-38.1402
74.2569
-2.95248
-93.5305
7.1351
175.878
275.174
311.586
271.788
171.47
50.0669
-107.981
-234.348
-277.1
-358.245
-297.873
-165.83
-36.1282
80.2944
142.596
74.2527
-29.7869
22.4454
39.1424
35.0718
86.6719
133.124
139.535
116.088
7.11715
-26.4077
12.8833
64.4278
87.4932
112.012
11.4982
-110.832
-159.385
-168.58
-148.159
-127.775
-90.5257
-14.2267
38.5714
39.5333
43.2375
36.8351
-7.13388
-73.1979
-59.3335
-34.1425
9.66669
36.2557
117.281
168.174
138.131
15.7711
-90.3235
-103.128
-42.4187
-5.63368
3.16501
22.1481
53.0679
55.2589
-3.09862
-31.1737
-39.5439
-49.4696
-9.62383
3.80194
-26.5141
-36.4458
-9.7948
16.8167
28.5865
67.898
14
-45.5894
-57.4638
-65.6734
-53.9756
28.7298
100.31
98.836
110.883
77.1996
12.0518
-31.7647
-56.0044
-30.225
10.248
2.28987
0.0346961
8.16518
-7.65007
-18.8436
34.197
62.6056
-20.0264
-37.4866
-15.1724
-72.2297
-119.244
-145.841
-132.243
-89.8865
-44.8026
31.6981
76.961
93.3003
150.005
231.348
117.268
44.9609
24.9617
-52.3205
-91.5599
-48.4974
3.68438
5.48393
44.4963
0.0908523
-76.7259
-60.355
-113.903
-174.554
-132.547
-66.8229
30.1037
141.691
147.34
74.5574
147.069
195.478
133.34
35.3825
-39.1047
-110.293
-125.112
-105.483
-90.3122
-62.0333
-0.180036
67.9018
87.9524
100.128
81.73
-24.373
-72.7328
-97.0641
-107.219
-67.2694
-78.3257
-120.267
-42.6982
80.6795
146.291
151.088
130.236
70.51
-16.8623
-51.7868
-55.7835
-65.48
-55.0096
-46.0159
-12.0585
56.0881
64.7271
9.83478
-42.3406
-75.9919
-74.9356
-42.8059
-4.61943
82.6677
132.885
94.6353
105.204
110.75
112.346
81.4931
-53.1968
-225.482
-257.659
-199.044
-126.929
-29.6482
119.436
135.254
40.7829
-3.87059
44.6779
31.9153
0.123022
-46.3836
-79.7376
-60.6984
-51.4416
-25.8638
-32.2612
11.9236
86.2781
117.547
134.457
158.458
203.083
201.294
42.7624
-94.077
-127.424
-146.972
-160.853
-124.047
-102.225
-89.2965
-54.5757
7.68883
57.4722
54.634
45.9639
12.4367
-28.2144
27.171
77.5173
81.5277
54.5579
-48.9492
-155.695
-103.966
-16.8395
45.3088
67.8433
58.829
47.7077
37.9512
-5.69569
-44.6369
-72.7278
-50.4032
-3.63246
19.0056
11.0001
19.7957
53.7951
60.3891
13.5561
39.2515
76.137
31.7427
-21.8894
-43.9439
-80.0476
-83.4684
-57.7368
0.933595
19.891
12.7031
-13.1473
-49.6452
-51.2946
19.8084
124.948
79.4456
-10.2549
-25.7156
-68.1039
-126.793
-137.647
-39.6283
56.6236
139.61
223.814
230.694
102.9
-48.7197
-54.6345
-42.9153
-29.0277
22.1871
6.50143
-52.1592
-77.531
-89.2585
-113.379
-170.252
-123.927
-12.3246
67.3896
126.967
130.913
23.1324
-61.7698
-81.4472
-15.7367
51.4622
44.8837
26.0325
-20.3465
-72.087
-70.3949
-55.3782
-57.924
-15.0055
43.5815
98.1559
110.911
108.129
134.359
99.6238
80.2924
76.5432
46.6801
21.9172
-17.1017
-36.3576
-37.146
-28.829
-37.8565
-68.4054
-73.4716
-73.8933
-62.5779
-12.7587
26.9054
-16.4529
-45.3677
-73.1326
-92.0861
-108.085
-98.0913
-49.25
-21.9075
29.7971
80.5763
44.6814
7.0691
-60.1517
-134.738
-90.5889
57.0176
209.364
310.536
291.317
100.213
-19.5138
-35.1808
-14.745
7.15164
-11.5942
-40.7932
-73.3058
-76.948
-76.1199
-22.8546
57.1829
59.6836
33.4996
49.8719
25.2525
-45.0527
-79.91
-68.8597
-91.9448
-73.571
-6.13397
0.00288418
-16.2529
1.12106
51.2409
-2.79621
-32.9277
-3.30741
25.1191
-25.9083
-43.0895
-5.21196
14.0105
48.9459
63.2398
33.0409
-42.2375
-126.859
-127.973
17.5307
111.093
111.982
70.7093
-28.3518
-82.6115
-77.554
-62.7621
-56.4307
10.6323
89.5262
143.827
130.758
35.9466
27.0893
137.773
219.416
192.937
99.136
20.7022
-30.9592
-67.505
-127.534
-148.222
-121.019
-125.831
-87.2386
-56.7764
-60.2774
-130.658
-137.254
-141.42
-117.117
-13.0295
23.7041
-61.6952
-127.482
-52.1985
85.3574
148.506
185.051
138.366
107.705
140.34
185.856
171.859
110.243
13.1759
-79.6841
-96.5646
-80.8287
-87.9757
-94.6413
-79.483
-68.9165
-55.7949
-67.4082
-68.8076
-47.1101
-6.76708
-9.34627
29.32
48.0927
22.8721
14.8537
48.2341
97.0318
180.057
190.211
104.697
34.1493
-18.3824
-69.552
-57.4818
-55.2214
-65.0723
-75.4433
-132.307
-79.2011
5.23987
-30.2631
-23.097
23.7141
39.9817
43.6022
51.3189
15.9963
-46.6747
-45.6595
-3.53589
51.1147
106.982
103.735
88.155
94.6775
83.5052
48.8796
2.56104
-87.3208
-160.945
-153.563
-108.787
-43.628
-8.72414
-36.1225
-74.412
-61.4007
-65.8965
-59.0732
-44.5001
-21.0441
13.7702
36.1182
32.3785
-35.8397
-68.6645
-30.9296
45.4285
34.9036
17.0225
32.277
54.7939
113.189
237.569
242.753
207.045
100.463
-19.0623
-35.3292
0.187698
-65.4072
-109.88
-37.3009
7.46732
30.5699
39.7147
14.7062
-63.7053
-92.5084
-61.4964
-31.5351
-57.1642
-156.227
-286.907
-265.571
-111.827
-11.459
67.883
70.0989
31.2457
36.9845
44.3505
32.7249
13.3354
14.7018
47.1335
74.4443
119.939
147.775
146.329
168.39
189.385
160.092
63.3056
-2.99413
-68.8478
-57.4626
-38.5653
-95.9019
-129.741
-166.232
-155.324
-133.611
-48.7174
80.61
115.614
87.0776
80.8973
-0.564767
-50.4301
-88.0776
-193.737
-217.266
-125.632
-46.7758
0.460501
50.0631
59.6408
87.4591
89.288
95.2047
70.2042
61.6436
67.3932
55.6639
21.1492
-7.78869
-57.2692
-44.2253
5.06949
26.3678
24.1903
-26.3297
-56.6642
-55.6599
-62.7337
-56.1901
-24.0985
10.2515
68.4715
122.951
115.066
121.529
140.141
44.4072
-2.82078
30.7026
23.1201
4.48056
-85.1491
-179.224
-176.021
-174.67
-90.8171
8.35068
12.7145
0.202666
-0.608993
-30.9908
-3.67495
57.2225
70.1764
45.8379
-13.5052
-65.2758
-68.9241
-6.15767
42.37
54.4782
66.5493
72.4814
88.9087
151.34
92.2382
-11.4691
-49.4375
-73.6469
-46.7302
88.6407
77.849
-71.1816
-120.424
-100.09
-104.168
-54.056
-20.3579
-19.0879
-9.0655
-24.6955
-6.33029
-5.49657
-11.3168
13.3036
19.9397
-4.60754
-27.7743
-7.36986
30.3638
42.0677
76.3001
74.7031
71.6608
64.8384
50.4852
34.8196
13.1864
-7.18656
7.96263
26.8312
25.3931
27.2835
25.1387
-16.6965
-27.7178
-22.4191
-33.5512
-42.6037
-65.0341
-99.4592
-101.436
-87.426
-136.357
-159.213
-79.3454
48.4354
81.5851
56.5905
41.5918
38.9845
7.96733
49.8975
64.0654
65.8262
60.4276
40.4019
41.0044
46.8262
36.5941
29.8592
-1.35085
17.5236
60.9613
73.3079
55.2454
59.0313
54.3428
-54.3505
-128.956
-124.753
-112.41
-85.669
-52.8599
-56.8524
-56.8662
-39.0232
-58.1559
-23.3851
-20.6806
-31.7967
-22.3786
39.6899
90.3402
97.8102
41.9603
-32.3173
-63.1699
-39.6439
1.13956
58.3478
108.685
117.04
96.8397
92.3898
84.8283
72.4031
113.859
104.127
43.426
-67.681
-108.851
-140.304
-93.0916
-20.4746
-26.1758
-57.5224
-57.9589
-36.6435
-43.6301
-65.4786
-92.0811
-138.98
-157.653
-133.661
-92.8342
26.2693
97.8972
79.1021
44.2568
35.9894
60.6383
82.5722
65.7903
48.4498
64.2545
68.0955
12.6862
-4.41803
20.6752
63.9969
147.21
207.194
144.06
84.7518
37.2344
-33.588
-107.421
-119.346
-83.7836
-59.2858
-73.6793
-56.3737
-57.1465
-64.7005
-81.5917
-103.846
-64.5962
-10.8107
31.4344
80.252
39.1526
-74.1863
-128.231
-141.491
-129.499
-104.202
-57.3852
42.4731
134.672
142.6
90.6506
128.962
166.141
53.7283
-4.63392
-5.28221
35.0507
44.3471
7.54421
-16.896
-9.41107
-8.8376
40.183
84.5164
116.424
136.109
140.969
32.1701
-88.1058
-65.2707
3.39314
-53.1464
-111.849
-104.021
-77.9254
-62.9323
-88.5734
-99.8635
-127.864
-205.751
-204.82
-96.4982
6.6041
88.6218
89.8844
18.1901
-18.9663
-14.735
54.8257
134.836
195.553
153.358
96.4505
123.21
100.954
82.4711
142.724
173.447
96.7468
8.46817
-71.055
-136.352
-171.051
-187.045
-148.336
-113.798
-132.348
-100.761
-16.5202
28.302
8.83171
18.009
-22.0863
-24.4117
-32.1142
-54.7188
-65.576
-71.2184
-41.9584
14.2591
98.1489
155.496
158.706
156.374
113.403
58.2362
71.3507
90.0358
41.7923
-6.88888
-43.1626
-94.8647
-85.2563
-48.7775
3.54412
25.4103
14.6737
-44.2647
-70.9314
-37.2232
-79.4594
-124.88
-68.9313
-3.06522
40.887
56.6362
6.55456
-18.0427
9.5789
16.37
58.5878
139.237
137.211
57.0431
10.9346
-43.2872
-130.282
-124.099
17.2967
84.5174
70.4177
52.9932
-28.1182
-90.0857
-110.27
-81.7456
-60.2883
-52.5147
-18.7392
1.09635
-37.6236
-56.0997
-17.6653
11.6954
25.9383
65.1243
81.3751
79.1896
29.256
-27.4075
5.11451
68.8751
95.8426
83.5952
82.0113
50.955
-4.83599
-20.6389
-64.2997
-117.637
-111.96
-45.2587
54.9466
53.9723
2.38793
-24.1709
-46.8933
-37.4943
-20.0351
-56.042
-55.4654
-21.8501
71.9129
126.666
53.9054
75.8804
103.381
60.8852
42.3831
27.4353
8.82792
-8.90133
-58.5504
-77.0945
-97.8031
-95.1422
-55.1983
-32.5547
-61.7836
-41.5719
-7.29564
9.81288
-17.4219
-46.1074
-6.54534
8.39027
3.59949
1.59123
-32.5766
-25.993
12.5871
1.56411
-17.1167
20.2014
97.3606
140.028
146.189
119.131
102.454
74.81
36.7169
14.7427
6.93216
-44.3532
-121.259
-139.428
-109.05
-109.519
-84.7682
10.5691
-35.9796
-84.7282
-85.3528
-80.7833
-22.394
41.6271
68.5342
62.9948
134.626
173.788
150.76
114.255
-12.3759
-92.2923
-137.053
-130.864
-70.5017
-6.65425
63.752
39.7681
37.4201
68.1037
83.1662
130.998
118.06
6.37437
-113.673
-134.686
-139.729
-121.347
-107.956
-101.053
-51.436
26.5181
175.476
176.538
87.4739
29.8167
-23.1679
-85.0652
-97.7251
-102.922
-83.1414
-75.7327
-81.1128
-19.5008
87.3144
151.713
115.028
24.0079
-9.37421
-42.892
14.2073
122.279
192.83
168.664
99.4046
57.3265
10.7645
-24.8296
6.10199
2.2383
-64.1033
-110.546
-119.814
-127.505
-101.802
-41.7404
-29.2694
-42.5572
-32.6618
-24.0155
-41.8263
-44.7219
-55.8245
-79.2667
-67.8171
3.62488
23.379
28.7496
58.4883
51.7246
34.7474
49.4849
36.8335
11.4919
-0.24961
-15.112
14.8468
76.8325
114.881
166.321
146.12
44.7263
-57.5155
-92.3675
-77.934
-47.4248
-43.7657
-30.1852
-61.2523
-66.5474
-21.1495
-41.7657
24.3125
145.403
121.271
66.2246
70.9494
18.1311
-77.3277
-152.229
-185.527
-189.962
-138.976
6.56577
143.986
167.575
113.467
58.3419
39.0172
27.2601
-13.2656
-36.0565
-38.8272
-58.8171
-32.2246
-12.7454
-36.6289
-1.83111
47.0534
70.0552
107.262
99.2407
29.7013
-30.2484
-54.6144
-47.7197
21.4373
57.1897
-22.7342
-93.7568
-106.355
-86.5985
-55.6333
-36.6125
-23.096
-11.3485
-8.64062
-28.2205
12.4383
49.0724
101.67
148.594
140.257
47.9604
-10.8175
-86.01
-42.7283
-16.0704
-69.8151
-77.6527
9.04747
83.7754
43.9351
-25.9574
-21.4745
-41.0391
-94.6067
-49.9025
-4.94728
15.4426
23.8869
22.9422
48.3556
83.6682
21.5055
1.04737
-29.5206
-58.9127
5.4292
79.1213
60.7101
28.1497
28.7565
40.4869
47.8367
81.4639
59.4261
-2.24765
-78.4625
-125.654
-126.835
-81.6973
-81.4081
-98.0761
-49.0349
-13.5168
-1.24005
34.1185
51.4647
35.0342
24.7337
-2.96292
9.41307
59.9325
35.9363
-4.56042
15.1486
37.6911
50.6034
37.9086
1.28289
-31.8721
-51.4175
-53.7334
-23.5858
44.4288
54.6586
22.8745
93.8412
115.255
57.1777
0.615074
-62.1777
-86.4802
-43.1044
-50.2387
-106.56
-103.113
-69.8583
-50.0652
-70.1654
-88.7063
-33.9255
38.9703
45.8014
24.4147
36.2293
65.2414
54.566
43.1647
66.8751
98.952
117.48
83.2201
16.8669
0.0168549
52.9533
59.4451
55.1269
43.1835
47.4883
9.39169
-80.2407
-109.239
-124
-171.625
-177.281
-116.511
-54.3609
-24.0581
-14.0869
14.6394
26.3425
78.9618
76.6441
-16.465
-32.4967
23.7572
39.6166
11.8522
-6.47613
-4.97483
8.13602
1.24771
25.6316
35.7107
19.9068
38.3608
63.484
9.34599
-12.6097
13.6332
-0.00931657
-68.7301
-70.4573
-21.152
-15.8345
9.03096
22.4954
15.988
17.7537
41.1473
84.4962
90.3556
57.0353
29.3684
19.0815
-36.4144
-94.6767
-0.302749
41.0704
-30.9912
-31.8835
-19.464
50.8529
123.696
55.3244
-72.3815
-138.087
-123.12
-84.6831
-64.2311
-52.4303
-36.0451
-5.84214
17.1085
48.429
39.7857
16.2612
4.65262
-18.6641
-38.2827
-51.3436
-29.2969
-42.8226
-27.2349
43.8865
55.1015
60.5432
80.2191
59.4358
67.2913
81.7652
29.6828
7.29294
15.7493
-40.8681
-78.2013
-79.3308
-54.823
37.0827
140.004
156.882
49.5641
-45.2421
-96.1253
-110.627
-78.7684
-36.2264
30.6067
56.083
16.8515
-4.3864
32.5724
31.3502
19.9591
39.7955
10.9926
-51.8453
-153.438
-220.949
-182.914
-66.3794
55.0194
111.396
130.85
100.756
54.3904
23.4313
-5.23783
2.16145
28.2266
45.2756
59.7687
29.5098
2.90709
26.0244
51.9095
52.1536
60.0227
56.2729
-25.0288
-95.7231
-108.615
-124.738
-172.069
-94.6123
-19.7562
-27.8075
-21.6271
-0.310422
8.69621
28.6324
31.6776
15.8529
78.2528
89.521
59.675
74.0762
87.8441
73.4241
106.526
75.0851
-7.97168
-77.0723
-90.5061
-84.2736
-77.0655
-87.9236
-82.5431
-70.9313
-87.93
-96.7871
-82.3929
-30.5114
-4.59775
-19.3183
20.2774
81.4261
107.788
82.5741
29.0485
29.3626
83.3529
155.195
161.314
99.8752
84.5179
93.3648
13.8958
-64.2799
-70.3469
-57.1379
-60.3114
-82.9244
-103.521
-88.9601
-60.2736
-36.6297
-36.3394
-17.0491
-53.0837
-116.643
-88.9839
-33.2789
31.5178
87.6107
65.2921
33.4402
151.337
213.387
143.597
16.8998
-91.8233
-79.934
-41.8595
5.73609
-15.3144
-110.888
-150.419
-116.245
-30.8637
18.3054
70.445
110.205
87.7973
9.24716
-75.637
-63.2295
-60.5071
-45.8469
13.068
63.4829
71.206
73.2058
58.4955
1.32342
-14.3936
-12.8134
8.45738
7.97441
28.8833
97.5412
80.1715
11.5889
-38.8178
-81.8975
-41.7323
21.3688
4.91185
-47.2568
-78.7608
-48.1972
26.2213
34.3342
4.85676
-2.12684
12.0239
31.8841
25.4321
20.3829
-0.778551
-78.7072
-139.097
-112.642
-38.8276
23.1232
126.242
150.568
23.4279
13.0365
81.701
111.401
94.2819
14.2949
-64.4607
-49.7903
-50.3582
-90.1747
-104.847
-110.86
-91.0629
-59.4397
-30.3357
-19.8697
-5.01097
55.2934
47.9052
-4.3142
11.7697
-3.53279
-41.8401
-44.3731
36.3771
135.515
131.117
24.4487
2.36973
43.7146
50.0434
29.7728
-23.5331
-31.6671
17.9185
31.5891
-15.7441
-27.189
-30.1775
-25.5191
-6.91898
-7.11736
-49.1529
-22.1371
10.1584
35.6904
89.8909
123.052
50.8666
-25.4235
-64.4782
-46.52
-9.45304
28.1435
16.0206
-53.9932
-84.3466
-28.6577
-16.1556
-49.4271
5.18789
57.6639
66.5273
0.308983
-89.734
-114.167
-107.934
-99.4865
-74.4512
-25.2724
38.9424
126.971
208.922
173.134
48.4087
-21.1669
-67.4654
-144.601
-165.995
-82.1883
1.0865
49.5467
65.0292
28.6715
-4.86801
-3.19339
10.5846
41.4131
70.837
92.0978
93.6481
38.7961
-30.8791
-28.2643
-16.6535
-1.30488
97.1404
169.541
209.491
208.624
32.47
-95.7242
-84.0224
-95.5865
-111.761
-121.281
-148.747
-143.816
-106.81
-140.56
-167.504
-145.093
-101.252
-36.6183
57.1966
89.3341
88.6153
78.7282
73.6159
38.2003
70.4419
81.6403
22.115
-14.6753
44.5715
72.3364
36.8776
-22.3554
-24.0766
33.234
136.565
186.12
164.886
98.7342
4.92692
-57.6905
-101.188
-126.267
-130.219
-123.903
-86.6215
-73.7102
-71.5525
-32.8376
-69.828
-47.3029
39.2288
90.0745
157.365
178.668
22.0636
-110.317
-147.996
-114.156
-51.0045
0.429767
17.2625
19.7783
-9.45447
-60.1943
-66.6986
-32.7953
36.9718
100.831
160.98
116.563
39.5526
3.35902
-8.29449
2.07924
42.7413
76.1173
67.5536
39.9148
60.4048
62.7878
8.95341
-62.1034
-103.975
-119.877
-117.487
-74.4736
-40.0407
-31.9533
-66.1105
-75.0293
-21.8007
36.2774
83.9423
104.747
55.7745
-39.4245
-74.1559
-63.3316
-54.0884
-27.1515
-28.9336
12.7075
98.6411
160.62
163.127
104.134
1.28612
-0.34961
7.40844
-7.85837
-9.84906
-2.9701
-59.3121
-119.559
-78.9758
-46.6906
-81.985
-67.9293
-13.1157
36.1918
63.0118
34.3813
-8.34405
9.2951
42.3125
62.7611
68.1398
18.4943
-7.72051
13.5112
-38.0136
-107.521
-114.366
-48.7062
15.8477
57.593
73.7813
39.5627
3.85842
-24.0538
8.24559
60.5737
45.7128
-2.72868
-41.0936
-63.4815
-19.4455
18.8606
4.27548
-25.026
3.24119
37.8453
24.4028
-30.158
-29.2269
15.3687
5.315
24.7687
47.7442
6.73931
25.2048
61.4302
26.633
-1.33588
-31.2481
-44.9072
-14.7855
-25.9314
-14.74
-19.5157
-39.3977
-42.4815
-41.9988
-42.8805
-23.8083
-16.867
40.5385
30.5539
-6.69258
13.0272
40.0057
9.45324
46.1348
24.5307
-28.98
-46.2289
-79.4412
-74.7503
-46.0203
-48.2595
10.405
74.1968
114.093
146.998
110.012
80.1604
79.0676
24.6063
-15.785
-6.76707
-30.8391
-38.6227
-21.0522
35.1354
41.1962
27.6525
4.72944
-21.6317
-60.0979
-101.463
-144.741
-94.081
-34.7791
-20.5272
20.1412
24.2744
-46.9336
-51.5608
-61.664
-49.6734
-26.4401
-26.1691
-43.2186
-14.6309
19.2497
33.4097
67.812
110.749
135.531
145.67
123.047
45.5504
-19.9623
-48.8081
-80.4882
-87.787
-45.0556
-2.3539
12.3743
1.76821
-35.6141
-32.6228
-30.352
5.08449
100.378
120.179
67.0832
17.1833
5.80218
41.0256
10.7351
17.6631
-5.23764
-55.647
-34.3847
24.3951
13.4964
-30.3089
-49.9008
-70.6243
-38.9075
35.7333
62.8454
-5.21851
-84.2481
-98.0511
-62.716
-55.1413
-60.3123
-46.1255
9.92796
3.05315
33.1841
56.5372
-26.7958
-87.377
-64.4321
5.24379
52.8445
98.0296
115.282
85.9252
55.3402
6.69628
-40.3105
-93.4913
-45.3986
137.688
193.953
113.275
61.3732
6.7566
-89.7143
-121.71
-83.4264
-66.2922
-54.8532
-55.6481
-19.1751
18.784
20.1378
14.0571
14.7625
57.3815
89.642
87.702
63.1177
-43.3622
-109.269
-82.0053
-24.0382
-0.559091
40.8752
147.547
136.972
16.7032
-22.4534
-63.1268
-108.469
-131.305
-115.534
-116.585
-88.6106
-17.7836
-6.68036
-12.9712
1.66949
-23.5389
-16.9667
4.18775
-0.351977
16.0834
34.9563
33.0031
40.9405
67.8969
88.2997
113.886
102.097
68.6203
32.8382
-0.91945
-31.2706
-47.4685
-33.3173
14.2256
62.0366
58.2581
-18.5646
-18.3536
19.2685
8.1178
-18.6919
-55.8529
-39.2905
-13.9201
-9.57917
8.21178
-5.50263
-15.7088
-9.02613
-21.7299
-12.1657
-6.30961
-17.9964
-11.1575
-57.6527
-57.9208
-39.1546
-36.2893
-51.9806
-88.2843
-47.817
63.8042
97.8819
68.5624
39.2615
0.183413
6.93142
31.5368
30.3721
-2.75778
-21.5402
-48.1143
-40.1836
-1.19667
24.2919
78.2526
119.435
103.66
81.8958
90.1967
33.8457
-102.433
-165.938
-143.91
-106.001
-29.6501
54.7061
79.0978
18.9931
46.6632
102.871
71.6106
28.2903
7.87255
-32.1332
-90.6937
-81.3899
-39.1581
-46.7713
-96.503
-64.2173
10.613
53.5379
124.36
158.491
28.4193
-70.0299
-116.216
-104.187
-79.4065
-75.5375
-18.1747
44.5431
56.0556
11.2259
12.5593
56.7999
75.8435
60.032
46.853
23.6348
-25.4111
-16.555
11.6262
-3.90689
8.75045
-44.7718
-64.3467
8.18107
60.6695
62.537
54.5229
16.2635
-18.7095
16.0555
-12.0883
-42.7947
-37.9128
-39.6013
-21.6196
-2.14906
1.56566
20.6285
54.2055
35.2464
-11.3238
-12.1202
13.5315
-14.4014
-69.6762
-96.7057
-118.756
-62.4481
-12.42
-2.14563
21.9815
14.609
-27.9141
23.4884
69.6625
34.7461
14.8103
-12.6653
-36.6716
27.6231
96.7381
101.956
39.0281
-6.02643
10.2134
43.2598
67.0332
57.1867
17.6399
-36.2066
-73.1695
-74.0509
-74.0089
-78.5114
-41.8703
23.4675
24.4575
44.3883
73.6716
56.0979
16.0794
-14.5329
-12.4421
-10.7411
-36.3379
-53.7827
-40.6431
-20.7274
-0.667643
-38.8921
-55.2149
-5.64767
43.9475
46.8643
29.5993
26.695
-7.48148
-41.481
-39.4002
-26.1331
-32.1026
-28.1271
1.3117
10.0294
-3.72776
2.84475
5.49519
30.7353
126.378
177.786
112.58
23.4342
-25.7594
-23.9914
-28.3765
-75.6797
-73.0012
-54.6742
-64.2419
-96.1606
-63.4144
-38.0589
-17.9891
42.4497
84.9116
107.218
129.357
76.272
-60.9422
-105.51
-77.4183
-54.3312
-20.8707
35.5549
103.451
112.644
27.3601
-52.8733
-106.34
-120.616
-86.4772
-7.60146
30.9609
29.5097
60.1401
30.6396
16.6599
44.0104
48.6715
34.2789
33.1119
45.4036
2.60502
-79.1457
-47.2347
33.3661
127.071
137.555
37.6421
2.23374
-15.1839
-51.4768
-76.6405
-89.1207
-90.9881
-111.967
-163.046
-165.078
-85.5073
27.1235
107.316
98.9767
94.4323
86.3444
19.4817
-36.6767
-83.4171
-83.4255
-43.3382
-22.6242
34.0497
93.8632
129.349
116.889
79.7356
50.6839
38.1845
7.71509
2.93966
14.6016
-2.1459
-16.4754
-29.1165
-78.8962
-133.376
-134.254
-57.4631
29.9963
91.1172
54.2709
39.8189
62.9039
40.4288
29.4583
0.407281
-25.0636
-22.7603
-7.72573
-40.6687
-76.2569
-73.2116
-45.6548
-44.7111
-17.0243
58.7782
76.5577
85.0275
119.534
60.4515
20.554
7.08232
-28.9477
-41.7163
-59.1942
-62.8137
-36.136
-18.473
-20.0437
-18.6596
-18.5019
-77.743
-82.3131
10.9577
68.0046
48.7279
28.5111
-37.7206
-72.8757
-19.9478
36.3292
41.3246
25.5173
31.0288
27.3676
9.51996
19.2451
20.4892
5.27218
33.0855
57.3287
66.5613
63.7963
10.9863
-14.8831
-30.1612
-20.9791
11.2982
-53.4611
-100.034
-58.9783
-10.6891
19.8576
66.6826
28.6022
-32.8506
-44.5362
-39.9597
-24.5206
-5.05734
-7.73924
-1.22637
16.7593
45.2213
33.6242
-13.9658
-26.0801
20.6786
30.8732
1.94821
3.45414
1.40995
-14.3252
-47.8652
-45.04
5.05547
27.133
7.75465
-17.6251
-25.6272
-7.42665
10.8579
-2.18349
-37.6176
2.79641
91.1889
82.0024
-2.82692
-24.9079
10.2452
-0.426037
-17.2724
-24.7874
-27.0386
10.4964
23.1101
9.18157
40.4073
79.7757
77.2914
17.809
16.0788
19.1579
-19.1511
-55.6745
-102.264
-79.2556
-18.9593
20.8291
-32.4654
-52.7115
-45.1597
-13.4722
9.58191
27.0319
29.6772
44.9337
50.1222
6.23834
-65.9727
-110.309
-95.6087
-83.2645
-47.1278
-31.1128
-44.5009
1.55733
60.0809
74.0377
120.746
154.507
148.628
79.6575
8.29045
-6.41806
34.6328
55.9603
53.2384
16.1244
21.7853
30.6799
-12.3739
-24.6081
-13.164
-17.0298
-29.3318
-97.8815
-149.974
-124.705
-86.9339
-63.7388
-56.8504
-38.6543
24.7167
52.8843
30.2369
-14.3172
-62.2217
-76.8281
-55.2713
-7.86358
42.6561
111.541
154.139
179.502
215.652
175.697
36.2114
-46.1898
-55.892
-78.4099
-92.1243
-66.728
-47.5238
-26.8672
-48.8631
-68.969
-69.6914
-23.4357
-3.28736
-7.43348
-2.89156
-30.2972
-41.8124
-28.5127
-57.9161
-70.8022
-6.61912
48.7883
55.5112
54.4593
57.8377
65.2711
54.9417
40.4297
50.7115
79.7212
91.7588
77.0381
50.3903
25.8809
-18.916
-37.7216
-47.7278
-50.2311
-20.4195
-27.2821
-44.9895
-44.0709
-28.9224
-22.2447
-32.9376
-67.3458
-76.4671
-46.3045
-6.14594
3.98773
18.8507
-30.2268
-62.0895
31.1468
142.876
170.619
135.22
47.4207
-42.4719
-65.0267
-70.2967
-73.0367
-45.6328
-24.0265
-19.6888
22.8312
29.9687
9.59862
-56.4222
-106.54
-53.0098
65.8462
75.7886
-9.96863
-67.3373
-77.851
-58.9888
-12.9391
6.17849
47.1278
100.655
122.603
115.531
47.0732
37.1706
46.9432
-3.88644
-51.9062
2.43309
63.4258
35.4124
20.4909
7.56244
-45.0649
-62.6411
-30.9199
42.3373
8.37887
-42.784
-39.9232
-2.70612
1.07665
-9.5968
-25.1647
-53.4998
-50.6368
-17.8438
-13.597
-36.6799
-55.7792
-86.0142
-79.3306
-38.7233
29.735
88.6749
100.261
63.3856
33.6857
61.8213
43.7661
-0.186924
-4.7667
-3.24105
-19.787
-61.8623
-72.8754
-36.5814
4.79153
-4.43907
14.5552
37.2323
44.3737
28.9888
32.8355
-1.60156
-27.4939
-18.0725
14.4295
35.6577
55.9071
52.5248
-1.94205
-110.664
-117.987
-52.2688
2.91916
75.4054
142.834
92.1183
32.8919
-9.02154
-49.0237
-21.2702
0.136797
-44.5029
-62.2515
-61.3133
-38.5173
-7.98458
13.6324
-1.49335
-6.59956
68.8273
154.999
118.33
17.4481
-69.4864
-117.536
-64.8085
-36.8116
-47.9943
-31.114
12.6331
11.0397
11.9464
15.2072
-44.7293
-8.71144
66.1637
73.5136
33.2046
-1.49401
-62.9262
-113.285
-77.8699
-29.3188
20.3529
103.47
119.585
53.2199
46.6734
30.1463
-29.026
-41.6941
-60.6817
-68.3463
-82.9327
-67.8388
-32.4817
12.8788
85.7081
94.9059
15.5727
-11.6733
7.40145
33.2179
18.3795
-38.2292
-56.712
-10.6085
25.927
77.2686
108.476
91.547
51.7702
-19.2141
-43.6472
-52.4763
-59.0391
-69.8249
-96.0999
-64.1526
74.4288
90.2027
32.2612
1.23518
-27.1096
-62.3097
-45.5062
-16.8114
-10.4242
-45.2824
-61.7088
-61.7743
-9.50841
36.976
94.4605
115.795
39.8394
27.6586
35.6239
16.1893
4.86158
2.81407
-7.70122
-38.6898
-77.8074
-70.2733
-19.3224
-4.50544
56.4031
117.598
68.8724
33.4919
18.6656
-2.20382
-28.326
-56.9892
-51.7011
-56.43
-58.1233
-47.4187
-53.1929
-36.4236
33.8511
69.0141
8.73326
-35.3739
-1.9047
88.5168
79.8847
37.8561
16.7271
-6.46476
-23.8445
-112.794
-149.788
-147.717
-50.6644
99.206
133.792
74.6501
82.0361
86.1278
60.9666
61.4585
77.5969
41.9825
-0.223454
-22.2945
-45.8892
-64.7226
-73.099
-59.6262
-43.4752
26.7757
48.3503
15.293
-36.7335
-96.2208
-64.7577
43.7357
99.1671
66.7737
14.0719
-62.8831
-54.3856
-38.9289
-63.5909
-67.1713
-64.8643
-79.3692
-58.4677
6.56464
100.267
115.903
106.322
103.423
26.8039
-74.6859
-55.9574
-29.7233
-15.3804
53.1399
7.74454
-25.771
-9.01963
7.61097
-6.28343
-27.2726
-13.8318
37.3629
119.983
120.206
33.5215
9.97504
-5.34007
-15.9282
-3.12265
13.7203
-1.53275
-35.6911
-85.0104
-109.695
-74.7714
-49.9123
-25.5369
5.40734
39.6106
28.682
-15.8506
-99.3113
-74.3662
21.9161
89.3856
136.875
140.889
70.4894
61.2622
-23.9566
-104.511
-114.074
-77.3256
-8.17332
59.4958
87.148
66.9105
35.8701
23.699
-9.7203
-29.9149
-29.2922
-79.175
-110.79
-97.1502
-82.7779
-54.9849
42.5955
101.103
111.235
64.8385
32.2079
9.7263
-23.4407
-40.2278
-45.5338
-34.3049
-33.6667
-21.0038
8.91421
64.7587
57.978
28.276
2.1262
12.6299
16.5723
10.0388
-21.1033
-47.7221
-25.1823
-10.2842
54.1815
115.298
27.3551
-12.5473
-2.41189
-8.633
23.592
32.5633
21.0219
-20.8829
-23.1905
-18.5182
-20.8927
-29.3826
-44.5277
-56.3269
-72.8936
-88.5404
-63.4591
-54.6694
-70.5607
-91.3067
-23.2129
88.7509
148.106
175.016
124.276
52.6512
13.6542
-0.486243
23.9785
43.7608
29.3403
-20.3472
-40.5425
-21.6563
-19.4932
-31.7961
-21.7601
23.0174
30.7013
16.1293
-22.3566
-107.683
-122.481
-65.5324
-58.4872
-51.0632
54.621
84.8913
74.6999
123.355
39.0131
-21.1496
-40.0472
-25.0793
24.7272
-9.27799
-49.5251
-8.55102
5.64636
-2.17024
25.6677
60.5868
54.2462
-40.0236
-25.8188
22.3322
-41.5637
-121.816
-122.79
-108.982
-12.5243
92.345
82.9989
54.8154
69.4104
87.408
68.314
43.1204
5.27384
-32.9897
-25.6498
-17.6354
-16.922
-25.9028
-12.0162
40.7737
50.4735
71.2024
81.7742
28.6144
-3.63143
-47.8172
-39.0132
-47.5682
-64.4477
-6.24458
-17.6731
-107.308
-101.32
-49.9831
-10.4163
53.2372
15.9229
-20.2059
10.6274
5.73262
-37.2933
-21.7969
-7.20627
-23.3369
15.6851
70.1865
126.989
127.695
65.4729
10.3943
9.88522
17.7864
-34.7733
-80.8442
-95.4452
-127.416
-105.843
-2.53264
59.834
28.6011
-1.88977
-6.98848
11.0105
61.2012
59.0403
27.4434
-39.8897
-37.4403
-9.553
15.6851
47.2794
28.5348
38.4549
73.0354
53.4737
10.02
-10.0446
-27.162
-52.532
-43.0857
41.4483
94.3068
22.2998
-73.086
-134.252
-158.738
-93.1024
45.5318
114.355
56.409
25.0332
11.5097
-9.76795
-2.14529
45.4546
50.1551
49.1978
14.6744
-32.0653
-52.8022
-69.247
-60.8698
2.33648
44.9771
70.8438
55.54
-38.1287
-148.398
-196.234
-138.213
-43.0944
95.7566
156.445
98.9546
48.1648
30.8507
9.78817
13.6294
10.0529
10.6727
9.88599
-9.002
-19.0832
-8.62731
10.0233
14.9235
38.7976
43.2629
43.1036
2.73656
-48.0661
-70.4451
-22.1763
-4.84935
16.1026
68.1775
139.502
71.8021
-33.4983
-77.9079
-104.6
-127.666
-100.976
-24.0617
9.85793
66.8448
86.9314
28.2591
5.49294
10.444
-4.94505
3.81611
-10.3292
-33.0708
-71.2691
-106.13
-117.669
-51.4708
43.2979
93.7929
66.133
71.0172
72.2827
30.5313
13.9654
-6.92909
-51.3543
-40.4649
15.0808
52.6814
60.8513
42.6906
20.819
26.1867
-1.54201
-44.7267
-78.8533
-46.2543
-2.76837
-18.4176
1.1572
12.7523
-4.63884
-23.8502
-42.8329
-38.8468
19.7274
64.3215
53.8729
39.6633
21.8875
-19.3703
-66.1641
-60.0964
-10.5441
60.861
167.099
143.945
50.3223
-44.0692
-100.995
-113.203
-70.3915
-12.7425
15.2873
53.4793
74.2989
-9.039
-82.2022
-100.927
-58.5851
-21.0369
-1.9078
-19.8469
-22.7424
-36.3821
-115.457
-107.115
-44.8878
40.1242
110.399
119.256
92.4289
94.3496
117.866
52.1495
1.7404
56.0412
46.3216
3.90026
-31.6495
-35.7615
-4.6425
9.52506
3.15052
-4.40753
-14.8161
-28.1008
-44.793
-38.7649
-56.9191
-47.9862
-51.4007
-72.9835
-27.1176
47.9895
76.2876
115.115
82.472
7.66998
-23.6905
-35.4624
-52.8171
-44.6651
-27.055
1.66122
-18.728
-63.8097
-37.0384
11.7633
50.9031
50.5883
51.4002
26.3939
-47.0693
-77.5629
-80.1044
-74.5551
-37.1117
-3.17831
8.53928
40.7623
105.663
154.841
110.091
78.1881
55.3416
15.7456
-18.0701
-43.4436
-19.758
19.6078
25.0001
-10.0569
-60.9125
-74.6349
-32.8892
-38.2733
-49.1341
-25.0414
-41.8349
-58.302
-81.1268
-52.927
27.6109
92.1118
73.4937
78.5432
71.4992
63.6033
14.2759
-20.5239
-14.795
-4.43424
-17.7925
-66.4053
-116.935
-116.408
-44.1624
61.9461
114.134
147.485
111.952
18.7941
-18.9394
-50.7877
-29.0508
-23.4514
-26.372
-52.5576
-54.6225
-39.2234
-32.3949
-2.81449
41.7667
39.3794
48.0347
43.5402
27.7704
-11.073
-52.9544
-78.2693
-52.7447
-13.2654
6.26929
11.3346
9.71689
54.3553
81.701
61.7097
44.4167
39.4014
44.1098
51.2576
22.2944
-74.0919
-149.217
-146.352
-75.8723
38.2648
142.961
130.762
108.117
58.5373
0.851049
-57.9748
-54.8099
-83.7485
-121.067
-120.699
-81.2306
-64.8394
-73.9967
-76.7733
-58.7685
24.0855
89.4556
110.829
105.765
46.8193
-10.24
-1.84462
7.28755
48.201
74.7308
64.9666
22.9877
19.9611
17.5669
17.185
-5.69798
-21.729
-16.5643
-0.805017
20.1387
74.7891
62.0164
20.8382
6.26378
-31.5324
-26.022
-26.2747
-54.7834
-79.5926
-72.0811
-76.4612
-64.2101
-41.1144
-48.5833
-63.186
-1.80804
43.5984
76.9184
186.869
137.82
-4.52315
-3.33984
-17.7302
-48.8703
-21.1416
-4.02007
-30.9724
-63.3099
-69.7461
-75.8814
-53.8023
-5.62522
33.3897
59.6135
78.5485
55.7792
51.9703
48.3651
-54.8376
-96.5932
-15.6513
46.5358
67.468
40.3
12.6788
-54.4241
-98.2445
-80.5259
-39.3679
6.2393
-4.30797
17.9622
69.6263
117.53
118.994
63.1664
-11.5238
-32.8304
-57.8637
-51.5582
-12.985
-12.4112
2.08618
8.58728
22.3246
68.3546
55.643
20.4052
8.02383
-26.0898
-60.9991
-44.8767
12.6304
31.0202
29.1961
-46.6961
-124.362
-89.6045
-17.3813
56.605
95.6221
59.13
-19.3183
-65.9504
-105.075
-129.316
-49.5807
43.4417
75.5467
71.9061
105.387
49.6491
-28.9056
-55.4318
-52.5283
-18.336
-10.1613
-80.0501
-138.766
-86.2711
10.9485
127.868
188.47
139.437
91.2609
68.8007
23.4566
-22.2961
-34.337
-40.9422
-29.3873
-17.7268
-44.1767
-53.189
-7.16318
55.5068
113.385
75.2861
29.6507
9.24062
-42.2878
-109.447
-122.41
-68.9752
-29.6607
2.10596
26.0364
33.2605
1.72808
-37.28
-40.9202
-14.6888
-11.6624
49.3324
137.355
95.5055
63.6699
52.1288
0.398345
-51.3138
-83.1533
-95.109
-82.5762
-62.0452
-33.6998
-6.51753
-0.475905
-6.3567
-0.892248
25.7494
46.7223
36.1668
21.3658
-19.9394
-85.8516
-73.4275
-72.5644
-39.52
44.3869
78.3424
93.5684
135.526
119.767
32.1471
-22.9937
-9.6454
23.9787
52.3681
77.3785
41.4644
-34.0704
-54.4044
-87.0252
-108.049
-72.7129
7.42592
62.4417
52.6263
0.593093
-70.6139
-129.96
-143.938
-88.8491
-2.63975
87.5946
135.879
95.0543
32.6794
-30.5405
-20.693
6.35039
12.9026
33.0504
17.4566
5.01709
-7.04009
-9.8796
11.6108
41.2869
52.9334
20.3301
-29.308
-58.4245
-65.908
-58.8239
-15.0811
20.2454
-15.2371
-17.928
-1.6916
17.2019
21.8839
52.5664
43.5233
-8.07621
-30.0138
-46.0811
-44.5928
-7.44894
3.86079
3.80978
50.0769
65.9359
23.2966
27.441
0.192048
-56.8765
-32.6379
-6.95993
-1.47687
24.5027
19.8467
2.2628
-4.89596
-14.4298
-19.9383
62.5939
68.2176
-15.0468
-25.6733
12.0513
-16.0682
-51.0822
-13.0267
-34.745
-97.0472
-34.7149
18.8526
36.992
39.9472
-0.31162
-13.704
-14.7353
9.83103
32.7108
16.8849
-37.6793
-37.5189
5.95312
33.084
48.2156
52.4057
69.0176
47.3649
1.97175
-32.7847
-58.8843
-64.0861
-59.4418
-37.4317
19.5657
52.0585
64.9604
65.9107
10.1202
-43.3294
-64.604
-45.4772
-17.4351
2.68199
-28.6246
-37.2308
1.19177
73.4326
60.2346
27.2375
22.901
9.95702
-1.49342
-3.10084
-54.376
-117.087
-105.742
-48.9435
37.4916
234.273
278
71.9115
-39.2961
-63.853
-76.9857
-86.1089
-64.4716
-50.2058
-23.4323
28.0895
3.62794
-10.3487
-9.86587
-21.7517
-56.4412
-53.8469
-70.971
-50.4907
-17.1418
-27.6164
-25.3737
63.134
107.673
125.927
120.511
38.3473
-24.7432
-38.3162
-18.5827
-0.628665
15.823
-0.907438
-23.1576
-25.4461
16.1097
49.8224
70.8593
39.8834
10.1145
-63.6466
-71.8155
12.8722
51.8523
-12.7223
-42.5441
9.25572
48.3269
112.688
122.65
-13.1367
-76.7053
-123.649
-144.27
-107.428
-23.2002
32.772
43.2982
-14.9633
-49.8971
-69.8967
-78.8467
-53.8022
-16.8934
61.8107
105.91
90.0058
5.97975
-105.778
-124.286
-65.2842
-2.52936
122.672
177.916
156.489
115.173
61.4586
19.4514
45.5564
28.3282
-29.3024
-40.7592
-33.6491
-30.8362
2.49367
-4.07698
-40.9832
-23.7371
-8.18527
-10.3023
-15.1
-30.3355
-46.5008
-59.4998
-48.7184
-14.2405
-37.8475
-46.8675
-24.7537
34.9233
94.4009
50.5211
-30.3915
-62.0096
-83.5444
-54.6112
-4.76225
10.3487
36.541
72.3814
89.8696
64.0004
21.8486
6.45135
13.8648
20.3609
66.4329
59.4355
7.17887
-30.4532
-68.8838
-69.8491
-27.3491
-9.82637
-14.0601
-25.0556
-16.7966
-21.3816
-45.4379
-37.2523
24.0848
98.0266
74.5497
65.4373
16.1184
-24.3922
-10.6434
-1.60817
-28.9713
-42.7396
-9.55066
10.4164
-17.3238
-49.6352
-39.2776
-17.1372
-20.1869
12.6419
35.4153
27.7889
2.67733
-11.2465
25.7218
5.92277
-36.5534
-54.3666
-38.6114
57.6466
102.266
23.2137
20.0799
75.67
103.328
68.0752
-31.1871
-67.9369
-8.11536
-7.00801
-36.1572
-49.9678
-30.3515
-57.2805
-65.7376
-38.8036
-0.291415
-2.98884
-18.1926
-41.367
-19.0043
16.1822
7.86605
-11.7088
-10.4057
28.5745
68.8196
84.8376
31.6525
22.0156
31.9931
6.77274
-1.21441
5.18139
10.0363
-0.462081
2.26451
4.5518
-4.32352
-48.668
-71.0425
-35.2078
-20.5452
-41.1171
-55.7128
-25.7048
29.1366
69.1468
76.6709
81.0813
71.038
-8.19227
-70.5235
-60.8276
-47.3883
-13.9659
0.586903
-6.47518
-16.776
-22.6788
-41.3456
-36.7059
8.86167
45.3765
87.1537
107.106
50.8379
6.52188
-18.1533
-16.6704
35.6674
63.5073
41.6483
27.6026
-14.1863
-58.7828
-62.1027
-51.2169
-28.7883
4.96286
9.73653
-10.1207
-36.9307
-69.6718
-71.0846
-73.7837
-9.57881
25.098
8.44726
3.60335
11.0862
-3.87174
-11.4592
-16.7067
10.396
27.9903
36.4064
55.944
69.8488
23.9322
-14.1823
-10.2762
32.8825
111.405
90.0339
25.5357
-53.3085
-92.327
-44.5814
-52.7753
-95.6479
-61.7972
1.96526
46.5722
116.081
185.394
99.2705
-20.5425
-90.7235
-54.288
-10.8932
-10.5248
-34.7617
-63.0371
-66.4564
-63.1985
-22.532
-2.56279
-4.08885
34.1209
39.8307
25.7019
34.1575
63.3541
9.30368
-59.3206
-19.4243
-3.51727
-2.94215
-24.8317
-38.8631
-0.739553
5.26147
-34.168
-35.7274
-11.612
1.32218
-6.97494
-4.23658
-2.33712
5.5491
1.49409
6.99479
2.2572
17.2229
37.8069
64.6988
59.3583
45.5092
62.4087
81.8379
56.9022
14.8456
-8.4741
-38.3369
-93.3486
-120.982
-70.5914
33.9978
73.0912
46.7081
68.5354
82.8661
-18.0563
-61.2143
-74.2599
-80.6355
-48.9502
-19.6948
-32.1227
-40.2386
-46.2433
-46.7611
-39.8561
15.2419
78.5259
89.6647
68.7902
14.3304
-16.7226
0.909294
-4.85555
-40.4818
-50.9522
-63.1372
-52.2492
-14.7286
28.6041
68.8763
54.3306
53.6264
62.6048
64.7157
48.5039
24.7384
24.08
-6.34625
-31.8844
-44.2463
-40.2646
-34.3823
13.4074
-5.4928
-66.7779
-89.8541
-72.2204
-27.9493
12.8035
17.6265
36.5384
45.4731
33.0291
1.21629
25.4704
51.0587
0.435173
-12.8543
-4.42449
-26.0948
-36.8254
-35.1784
-16.0789
-10.0333
87.4578
173.685
173.678
7.01173
-100.324
-88.0762
-42.9182
-19.2615
-15.4172
-40.4438
-53.4367
-59.6174
-23.6452
39.1547
33.1357
10.8172
6.73541
19.0856
-0.994218
1.86252
-22.641
-56.2658
-70.4866
32.5643
114.738
64.2917
2.48121
-35.2751
-35.5898
-18.0199
-17.2463
-0.614945
27.1785
13.1093
-7.63104
-5.31294
-21.1891
23.0107
14.4707
-6.71229
20.5798
59.4695
59.8489
13.6175
-3.78708
-4.22531
-41.5436
-54.2766
-53.5273
-36.0954
-49.9794
-57.2741
-50.2037
-54.714
4.9321
77.5065
97.283
64.4536
47.1705
55.6481
60.6739
-4.37946
-33.661
-33.8014
-52.6606
-53.0055
-16.0903
28.7481
23.5758
8.91729
32.8585
22.754
-1.43411
-11.4616
-27.6912
-28.8714
-1.7874
30.9728
18.651
1.39745
4.75412
-17.6272
-33.5817
-12.1713
-2.24519
1.86567
-25.9155
-55.8062
-45.5459
-12.8523
13.3046
48.113
89.4077
83.5532
59.0329
-25.8579
-71.1552
-100.555
-67.7256
9.9393
52.1198
4.80058
-34.6242
-9.6516
31.4517
51.1081
41.8016
-14.265
-30.052
8.34653
-15.9535
-72.1281
-66.9733
6.25025
97.3474
191.387
181.923
121.315
17.8788
-95.6699
-153.54
-106.778
-64.3899
-56.524
-62.7301
-44.7484
-12.2131
42.7922
54.299
6.33516
10.7344
50.4479
41.3675
20.4051
-24.4916
-65.1865
-99.9906
-95.1806
-29.9898
37.3523
42.923
56.5523
87.3545
90.2376
43.4103
-30.6763
-47.8391
-34.6442
-54.8492
-53.1149
44.3659
79.9397
36.3125
7.6903
-23.9116
-62.6695
-31.423
-7.50813
-5.40468
-14.6082
-18.3479
8.10471
12.9896
-19.6846
-64.4474
-38.7229
56.3911
82.7912
126.449
171.271
38.7506
-47.1973
-65.4338
-61.5013
-45.9102
-33.8381
-10.7622
29.6603
1.27802
-7.50454
6.31964
-7.38627
-27.0987
-27.3298
9.29668
43.5682
38.6284
9.98512
-15.6261
-74.2398
-56.6923
-25.8117
7.32499
9.64506
23.0807
29.0281
14.7002
-35.994
-40.4639
-40.4411
-41.1178
3.08182
83.3921
62.0866
26.2404
30.9274
-8.13365
-23.1966
-11.3559
19.3635
45.845
33.151
-0.24027
-24.9481
-37.2618
-59.0422
-61.6036
-19.6721
18.4194
13.0906
34.6221
14.4883
-23.219
-2.28775
0.101712
-20.5733
-8.56546
-9.70736
29.5665
106.113
76.911
26.6408
7.67552
-5.71922
0.0796917
19.814
-15.5307
-42.8533
-53.0577
-49.2266
-46.5442
-20.7693
-10.4574
2.06435
16.8986
14.259
11.4723
13.5693
-22.9417
-61.4269
-43.5805
33.891
39.8444
7.32411
-18.5729
-29.2453
-3.51512
11.4549
33.7859
35.7141
10.6275
-19.4867
-51.6602
-29.6508
51.0039
61.5965
31.753
25.5941
2.73667
-36.352
-31.254
-19.6479
27.5557
44.6604
55.7746
71.4919
42.9182
1.71229
-16.0599
-11.3996
-32.1256
-43.8183
-68.8983
-59.1914
-47.708
-21.5113
26.0661
67.5234
7.0676
-38.321
-23.9873
25.3079
9.67965
-55.5989
-96.2729
-38.8056
33.4328
44.655
53.4351
38.443
18.909
-0.909319
13.0003
11.6627
-25.9423
-19.8054
-26.3697
-6.4516
2.18676
9.32656
37.0151
39.6354
29.1673
100.965
78.4707
-57.5168
-104.215
-93.4418
-102.28
-68.8795
-5.5594
32.2104
67.5641
90.4447
62.0811
40.0691
2.11387
-34.311
17.6956
46.7481
17.434
-60.5128
-61.0112
-40.4626
-15.8592
9.20567
-3.79031
6.07585
61.5028
60.815
-29.9408
-13.1368
3.27616
-7.79451
-10.3253
-14.3067
-22.1775
-37.6852
-40.6627
-39.6461
-3.83764
83.9541
77.7337
3.79365
15.8845
18.2165
19.4141
40.7676
-2.12107
-80.2322
-73.436
-34.461
16.3931
17.1264
-3.4527
-27.0931
-37.1671
-40.4996
-24.0591
-3.38608
-9.64833
-66.7126
-57.0085
1.24392
20.5744
67.4607
94.2458
74.2998
81.9151
119.804
101.797
39.4393
-38.3516
-68.2889
-40.3925
-24.5154
-15.1032
-8.93037
-9.40096
-64.0399
-76.5493
-48.1876
-8.69573
36.6185
68.7868
25.9554
-1.49028
-3.1017
-60.8547
-57.1764
-0.112571
0.78002
-12.8932
-22.1822
-12.2145
32.1423
60.4761
40.8066
25.1987
22.8651
10.5394
5.27882
-42.3511
-69.9628
-72.1235
-51.6691
-1.4459
72.862
62.5083
57.1905
92.6404
42.0324
0.576594
8.5443
19.3558
-10.5164
-10.1281
-3.53371
-36.5658
-55.3416
-62.2517
-93.8175
-78.644
-30.9937
-8.46979
31.1578
38.7063
0.534098
11.9453
29.5101
44.1697
31.1722
24.0231
13.6909
-16.168
-30.8864
-26.166
1.22778
53.4203
66.1636
41.4861
14.2907
10.6206
-26.2813
-70.5839
-35.6958
18.9501
-18.8905
-26.001
-36.4696
-54.7172
-22.636
-2.07663
8.79206
32.1155
26.9763
20.1927
15.077
12.1278
17.2665
24.8933
42.4685
62.7353
42.1437
33.5789
-1.09391
-58.4034
-75.3699
-54.0717
-33.5471
-12.1332
11.8758
15.5938
32.361
16.4844
-25.9916
-49.837
-47.94
-37.5866
-10.4804
10.7064
-6.04472
6.99135
39.8625
37.8937
17.487
-2.58743
-7.24863
6.89104
22.8245
-9.36925
-11.0831
10.1599
6.10643
4.20355
25.0444
25.228
27.7461
29.7663
17.1593
0.302417
-12.6808
-23.0495
-20.2923
-18.6564
-46.3216
-118.301
-85.2891
-16.3342
-6.72047
10.3014
62.2386
98.6473
120.043
128.295
143.285
100.91
-30.2444
-133.851
-175.767
-197.946
-190.927
-133.068
-12.7468
78.2225
135.318
250.168
283.216
111.249
-62.5445
-116.899
-88.3508
-37.6796
10.0021
66.3391
82.5616
88.9501
91.4863
12.7211
-63.3961
-136.004
-226.947
-247.574
-263.781
-190.5
5.61615
108.15
75.2321
133.424
265.656
207.434
5.651
-143.55
-190.015
-153.736
-126.087
-159.309
-188.463
-110.656
-72.7795
-15.2774
168.359
316.728
319.208
187.121
12.5614
-99.9335
-99.2827
57.6875
192.679
253.309
243.885
320.138
383.636
258.759
112.259
-11.7952
-33.1547
-48.3905
-95.9561
-149.222
-223.072
-277.269
-185.351
-151.284
-175.165
-192.702
-291.786
-398.301
-452.357
-375.087
-154.516
32.0018
103.029
111.483
108.708
133.667
123.791
47.0219
32.105
92.3881
171.079
202.383
156.585
70.4859
24.007
118.764
242.878
248.711
235.407
316.628
387.369
189.915
-50.2333
-117.176
-150.988
-214.872
-223.544
-151.303
-59.3017
-31.8164
-72.9098
-99.7889
-104.488
-66.7064
-45.2461
-62.0373
-93.9897
-151.381
-232.355
-321.143
-344.642
-222.027
-135.594
-93.1714
35.585
177.556
230.632
231.509
197.203
207.531
283.208
309.896
275.387
170.647
33.1871
-59.1274
-47.6173
-32.0839
-14.0623
-1.40568
-69.2767
-111.074
-141.144
-131.933
-117.362
-83.678
-12.5465
36.7701
79.6529
182.66
187.079
34.9941
-117.438
-102.158
-19.565
50.4246
53.1971
35.7606
22.6434
11.2146
0.506954
-23.1469
-31.1114
-63.9919
-87.3767
-15.9054
7.28195
-6.59274
-7.60904
-60.4344
-121.141
-122.716
-93.5715
-53.1099
-38.0863
-86.9316
-92.6139
-8.54763
100.173
168.159
122.032
37.9935
8.98891
25.0752
-1.70139
-47.8007
-51.0511
-35.5559
32.7538
69.8396
72.0039
95.2465
82.2494
75.5411
82.6354
50.4304
29.5169
22.8025
-39.6325
-75.4425
-58.9265
-46.572
-14.5956
28.495
66.1778
57.2696
18.1468
22.3003
4.06386
-37.9195
-62.7144
-82.2836
-44.3453
-7.78073
-7.90156
19.7958
40.3675
56.9257
47.1513
-7.80373
-51.0886
-95.0035
-95.0762
-50.5435
-58.6976
-56.8268
19.045
79.7243
42.6219
-35.493
-75.233
-69.0755
-50.8343
-21.0474
-11.2089
7.06246
89.5121
143.63
147.476
138.475
165.183
141.469
-3.83558
-93.0167
-105.246
-89.3355
-42.9284
-36.9082
-24.5352
-22.5072
-31.4937
-29.9367
-29.4442
-4.20955
35.0655
-10.5311
-106.426
-182.337
-185.507
-146.491
-103.201
-19.3976
94.8289
149.11
164.926
121.278
70.2547
38.3867
15.419
57.7699
95.6638
123.372
121.113
66.9551
19.3306
-44.1195
-73.9301
-51.2823
-43.836
-19.0049
9.33979
-33.763
-65.2104
-64.4081
-15.5893
32.012
42.0415
65.1989
80.3221
26.3405
-26.5293
-66.2737
-90.277
-82.8715
-69.0863
-2.4134
57.7319
48.8623
17.8535
-23.6616
-73.4559
-80.1276
-37.3942
-26.1174
-21.494
-9.87046
-14.5028
8.14324
70.4457
107.422
64.0196
21.6057
-3.74646
-67.4931
-96.6779
-113.179
-50.5722
80.0951
186.105
129.669
33.7454
7.091
-35.4965
-16.374
38.6393
65.5527
85.3099
100.67
73.5798
-22.5113
-85.8974
-118.135
-106.421
-23.0322
47.3682
95.9859
86.9027
12.9488
-34.5717
-51.6574
-82.296
-78.74
-54.6068
-107.727
-153.403
-151.585
-101.396
-66.8411
-44.8745
29.211
104.834
75.7821
42.2043
11.7426
-16.1847
-24.7539
-40.6211
-8.2913
74.048
122.144
142.022
145.773
143.985
104.813
28.4439
-22.4952
-55.6659
-51.7188
-32.7775
-22.0001
15.4118
76.1403
111.086
111.7
58.0752
0.34596
-11.9104
-48.8516
-114.503
-121.836
-85.0415
-81.0714
-117.43
-97.4617
-35.5688
9.02566
35.1799
6.37031
-9.87266
10.3434
11.9042
-44.7844
-86.4314
-9.34055
104.577
124.879
83.8716
10.4972
-58.6605
-92.4098
-84.1562
-20.7714
43.7472
59.7985
56.0351
43.813
-9.49441
-38.5268
-29.6252
6.7028
48.3731
83.2507
73.1752
-0.281728
-42.7893
-44.5689
-79.1736
-81.3755
-57.0696
-2.22958
22.2627
29.8277
32.0336
66.2589
91.3961
60.0072
43.8596
32.7383
25.2965
-14.6425
-46.7648
-20.7955
6.3522
-45.9286
-84.6499
-85.9511
-41.1633
-16.3099
15.097
58.5956
124.067
128.794
25.5446
-88.7042
-161.616
-179.893
-117.505
6.32113
65.3924
56.8406
64.6891
84.9815
78.997
83.0062
91.8743
47.0772
-49.0762
-106.144
-132.802
-114.441
-60.5921
-34.9045
41.8061
129.443
160.689
121.716
26.7846
-109.507
-168.422
-153.605
-128.492
-31.6439
97.4738
148.691
115.149
74.5651
58.1804
62.492
64.1909
17.6797
-65.6284
-73.1165
-65.0908
-81.0757
-73.878
10.9071
57.8363
52.4456
34.9531
29.7513
32.7321
-49.1541
-151.833
-221.45
-239.072
-155.128
-23.5961
138.403
274.573
319.296
248.851
157.977
94.512
-12.1892
-115.001
-137.874
-116.607
-86.0995
-67.9129
-47.9753
-41.634
-46.0226
-20.1369
32.6455
77.7426
97.1165
63.0512
13.7594
-103.932
-222.166
-228.576
-140.955
21.4603
189.237
280.934
247.923
124.623
37.6703
-45.3387
-83.5457
-101.212
-78.0669
-58.8308
-38.8706
-12.0164
-0.0946059
28.0983
63.5026
75.6486
58.6449
62.736
36.7273
-56.2613
-135.397
-138.892
-72.7433
11.7206
58.9176
19.9466
-36.5003
-13.3468
5.18987
1.54388
25.8409
23.7946
53.144
94.5791
63.1076
-37.5175
-80.4618
-34.3535
-14.0492
-5.58035
-13.6431
-53.2917
-55.4952
-46.798
-48.0465
4.25454
72.6743
106.214
112.796
55.2306
7.09127
-22.8555
-47.6349
-68.6804
-53.524
84.7734
190.311
91.9115
-31.6383
-79.9534
-81.9578
-65.5023
-83.8427
-81.084
-23.7792
1.17994
9.61791
51.398
108.276
95.6494
17.9613
-6.1292
-39.5597
-101.316
-178.02
-214.223
-169.456
-58.8829
64.8589
99.6234
116.565
129.718
135.435
130.002
118.143
158.094
166.593
96.5656
21.6919
13.0989
10.3375
-63.9176
-104.22
-96.0212
-71.9007
-65.3202
-35.446
10.5655
-31.3566
-129.083
-192.368
-233.693
-167.643
-57.1933
-5.02367
65.8014
163.111
198.193
140.858
47.427
-13.8635
-22.8084
-10.8173
25.074
47.4878
3.63951
-83.1955
-141.833
-117.154
3.34276
120.58
209.431
225.591
178.192
50.6898
-121.072
-226.592
-271.442
-239.826
-108.24
72.0752
200.448
195.727
83.2692
41.0334
36.4521
24.2444
9.09854
2.59015
0.497213
-28.0001
-48.4652
-106.831
-97.7461
-14.129
39.7219
27.6489
25.32
56.3783
55.0143
39.0204
58.801
49.9742
35.9929
-9.54768
21.3415
84.4518
60.445
-22.4418
-69.208
-78.8894
-93.0659
-90.8268
-91.8965
-30.8035
-40.5372
-97.3102
-96.9282
-104.15
-123.937
-167.519
-137.589
-0.296049
86.0285
65.8441
32.2976
26.4754
80.5326
173.25
237.443
252.401
228.408
129.957
15.5282
-67.5271
-34.3394
29.3091
18.973
-1.19251
43.2948
69.4128
-4.11935
-91.5035
-101.377
-67.4777
-89.5284
-127.322
-117.633
-101.36
-80.9136
-41.1387
42.8597
103.38
90.6048
17.6945
-9.18562
-11.0116
-13.1112
-28.2215
-67.9334
-54.0013
-33.2874
-22.8684
-13.1206
-23.7651
10.1677
54.574
27.7796
4.16556
32.4132
94.8797
71.0277
5.38095
7.44497
58.4782
16.8003
-32.7119
-21.2299
14.7736
18.9765
7.26685
44.3514
74.4131
53.1134
61.2176
35.4653
-25.5784
-57.3101
-90.9281
-73.3343
-59.0248
-75.1686
-76.5455
-67.3854
-93.6265
-80.5205
-60.8179
-56.0304
-33.8292
35.8452
70.6975
52.94
19.8881
0.0587748
10.9402
55.6051
77.2711
114.452
179.195
156.39
46.861
15.7882
4.3598
-31.0091
-36.7443
-6.75111
-7.20529
-12.4986
-12.5764
-17.3938
-12.8352
-57.8534
-78.0021
-0.628875
48.5493
54.1258
74.6265
111.13
91.9861
-17.0802
-99.3109
-106.55
-86.4629
-68.5481
-87.9048
-115.547
-106.883
-104.703
-100.308
-54.5588
5.06715
50.7749
83.3344
58.9234
28.856
7.47888
-21.3339
-90.4399
-114.918
-16.33
12.3391
-8.72851
20.4737
79.0468
139.286
195.958
215.869
179.785
139.825
74.8476
7.90925
2.30961
-39.1302
-120.55
-167.207
-150.68
-84.6688
-32.4963
-30.9268
-63.67
-36.6235
-13.5243
-9.7925
-16.5279
-9.1214
47.4411
140.229
189.793
129.987
79.1448
124.783
44.4255
15.9743
15.2286
-0.1808
-42.7303
-131.702
-158.714
-128.695
-91.9561
-69.596
-22.6575
34.5254
36.6242
-33.5325
-65.5276
-78.5594
-101.145
-124.486
-135.064
-87.7961
2.54564
34.5731
19.3139
43.9363
140.871
150.845
75.1939
48.9094
25.8945
-30.2872
-16.4837
22.9036
42.4973
80.8913
93.6916
121.349
93.271
-19.9577
-93.7131
-93.4249
-69.2789
0.761751
81.3841
133.849
23.5169
-58.7781
-0.984145
-13.6644
-48.0004
-37.1853
-54.7289
-87.2116
-96.6984
-69.0556
5.03742
70.3162
151.191
183.861
130.181
44.8383
-25.7702
-91.931
-135.727
-156.023
-147.589
-58.9792
16.7243
41.4417
3.46342
-28.9134
-12.7532
-22.2195
-16.8381
2.43694
5.38222
-6.70404
-49.8441
-58.1022
14.379
75.7393
102.546
154.561
173.994
116.029
79.3371
70.547
27.0371
-29.1606
-74.7803
-69.3204
-95.9625
-111.494
-76.2458
-34.9966
-28.8438
-54.3822
-100.562
-100.353
-70.7668
-31.7059
16.5712
71.2929
114.235
67.5254
22.438
73.42
174.789
176.978
122.861
65.2992
6.64828
-58.3526
-103.709
-169.25
-197.184
-142.935
-35.431
56.1696
70.5903
67.2611
49.3263
-25.7701
-85.018
-131.707
-138.999
-127.288
-125.228
-25.5573
94.1896
122.207
134.038
130.245
104.808
109.897
125.152
98.6385
24.6955
-28.3324
-32.9897
-23.8003
-10.8211
20.9392
32.6723
95.9747
127.374
-24.0883
-164.578
-178.437
-137.674
-89.8571
-92.7107
-58.1491
-22.3451
-8.08613
8.2616
59.3031
95.5642
42.2861
-5.49688
-17.1287
-16.8274
3.01315
-25.7418
-59.4377
-83.8958
-53.3004
33.0311
79.9309
95.4982
117.944
129.59
91.4394
27.4503
-5.95814
6.68527
-20.3752
-55.807
-28.9586
-2.21362
-6.69797
-7.25763
-45.191
-57.9844
-43.837
-3.35044
56.1853
47.4275
25.9512
21.5518
13.8302
3.33751
-26.4395
-67.0677
-93.1168
-125.038
-114.548
-31.3948
83.8207
95.829
27.8909
-10.7822
-37.1583
-63.0812
-49.7099
-24.345
-10.1803
-40.8039
-57.9374
-24.2816
39.091
91.2705
128.122
128.739
61.0312
11.2855
-8.69501
-5.84209
-11.5363
42.8602
176.723
268.623
229.712
139.046
66.2086
-35.3059
-90.212
-83.5327
-91.6447
-117.837
-193.067
-238.658
-216.675
-151.077
-88.7489
-74.1708
-42.5878
2.93779
26.4962
51.898
31.8307
-47.469
-105.874
-117.762
-81.0972
15.2179
84.2735
91.4031
54.0906
62.9544
109.189
133.542
149.098
117.59
90.9606
86.4898
74.2647
50.4105
37.711
18.0519
-8.62724
10.5007
82.2208
89.583
-3.76025
-96.5651
-159.041
-157.208
-110.81
-97.3212
-94.462
-93.2145
-51.5213
40.2445
100.523
118.921
138.289
110.969
-7.15008
-109.811
-161.479
-153.477
-131.932
-95.8557
-17.9917
71.6775
90.5083
95.4992
148.222
138.441
79.1494
24.1717
-26.425
-101.022
-124.14
-120.354
-141.955
-145.991
-22.4521
52.9464
57.8837
61.8799
51.6491
59.2856
51.0739
32.5403
39.9674
27.237
8.25908
-16.1394
-36.7015
19.5781
113.542
140.035
93.4324
33.689
0.360656
-5.31242
-45.4182
-51.8761
-49.9684
-134.554
-152.839
-113.161
-68.2391
-16.2769
51.2416
104.169
80.464
76.8354
95.9841
63.7986
-7.64756
-28.9293
-14.5161
-7.42479
-17.9284
-23.0976
-10.4042
0.333968
-24.4339
-49.0908
-13.8119
45.341
58.29
24.4317
7.78543
-5.48717
-57.3428
-65.1142
-49.0929
-54.5839
-71.1317
-41.9408
-0.0345168
37.9974
12.0879
-49.0183
-78.5546
-21.5615
53.0685
128.742
224.679
181.782
59.8558
-11.3033
-84.224
-149.081
-147.848
-107.214
-38.7318
-1.32572
27.8462
93.6425
104.714
40.3025
15.8915
31.7411
17.5944
-23.9862
-26.3851
-14.6239
-69.9838
-76.1909
-30.6772
9.97186
34.1845
24.4887
31.8513
21.317
-15.3027
-23.5715
-26.0902
-42.3111
7.22491
102.295
116.398
79.626
37.5144
1.43554
-26.0432
-59.8512
-81.4837
-74.2839
-39.6179
-13.8431
-19.9713
-27.168
-22.1069
-27.7242
3.46474
68.6603
151.856
163.806
116.343
26.3157
-65.5592
-108.459
-109.62
-99.2863
-89.3689
-62.4967
-31.1999
5.46692
8.34172
-0.0096224
44.356
79.102
52.4183
22.8391
19.9397
10.3164
-58.7731
-127.505
-145.667
-96.6841
-5.12064
69.2733
96.9884
89.6378
102.064
108.978
57.0569
37.3067
45.5607
38.0001
-15.1384
-53.6496
-21.7404
-11.0136
-30.5929
-42.8414
-53.2396
-85.0204
-105.477
-68.8536
8.19133
58.3546
72.3878
105.026
106.344
107.848
127.964
76.3561
-85.8737
-183.702
-157.694
-133.748
-86.31
7.15996
41.3285
19.7325
-16.4773
2.11546
43.8381
24.5904
-20.2879
-40.795
-31.9328
-46.9545
-64.1537
-70.3917
-58.3347
14.0318
166.185
279.883
208.446
144.672
95.244
1.19267
-76.8922
-110.466
-123.017
-44.0486
58.4245
59.2744
21.9639
-8.55867
-33.5705
-36.9275
-38.5901
-65.7898
-74.399
-65.4862
-80.885
-112.452
-72.6386
-14.8571
13.1511
0.863708
-38.9187
-4.1993
101.007
100.581
25.9262
19.9197
36.2655
-1.4844
-17.2741
-4.97976
41.6737
54.1173
50.7621
34.257
24.4427
14.5784
32.8804
23.5551
-4.66518
-8.64503
-6.05622
-25.4188
-69.4681
-85.0319
-55.4881
-22.6104
40.8193
102.312
154.502
151.771
36.9851
-86.8924
-121.982
-131.635
-90.9528
-51.2846
-25.8118
-20.9539
-29.902
-6.35692
41.5392
55.0152
35.3508
7.67153
-20.3636
-36.0557
-53.6184
-34.8976
-20.5668
-31.8043
-16.5104
36.1729
39.2811
16.364
22.4602
54.7691
52.3587
22.5577
11.3718
50.7678
72.7916
44.5162
-1.18124
-43.3975
-59.9252
-30.9257
4.74345
67.0119
56.773
-20.3817
-4.91392
89.128
116.861
93.4615
49.5396
-34.5304
-117.182
-110.563
-75.2779
-64.3342
-47.8771
-41.5679
-27.4691
-31.7604
-47.7971
-49.0361
-69.2918
-92.1224
-72.723
-15.8762
26.7327
11.4732
-20.8023
-33.3803
-10.2895
19.9505
51.53
71.2503
83.127
77.9549
43.345
53.1296
67.035
88.8414
111.357
81.3597
14.2661
-47.4162
-49.1205
-17.8663
2.36011
-14.7369
-37.6399
-26.8504
-10.5107
-29.8612
-25.0605
-4.34256
-7.81561
-1.86289
5.87344
7.67881
-1.22502
6.10412
17.1311
7.67489
5.43658
-14.0183
-29.7997
-59.9142
-106.186
-130.836
-85.3358
27.6628
104.107
144.934
177.101
165.706
71.5057
-31.8356
-64.5029
-104.856
-125.048
-103.511
-103.71
-77.5071
-11.0093
41.5788
25.8619
30.0295
13.5654
13.7615
-6.81754
-65.0706
-46.9607
5.85847
-2.23477
-24.0597
16.0995
40.3615
49.0863
52.3829
36.8734
39.8248
37.5
37.2735
45.5297
22.6408
7.19833
-23.6063
9.28757
41.5905
45.7632
91.6825
90.6047
19.0288
-7.19532
-33.5737
-55.0857
-63.6079
-63.4345
-48.1537
-12.1058
-13.5004
-6.27932
-10.1563
-4.87715
-43.6693
-60.1034
-30.7984
-22.4545
-7.20403
9.28942
-25.9095
-85.7052
-95.3015
-78.9473
-47.9801
-30.6623
-9.14465
28.0347
83.1287
97.2759
74.5316
56.7968
30.9572
6.11932
68.4305
96.1842
79.6362
112.288
116.66
54.2821
-44.3527
-106.076
-108.466
-81.9058
-25.7811
-2.36912
-29.1972
-40.2593
-43.9109
-20.8369
22.0003
15.5346
-30.8096
-102.938
-105.154
-9.94263
46.3965
35.5185
47.3378
34.0775
30.0723
52.7068
33.3213
4.08119
-7.85234
13.7807
57.0887
69.1552
42.7121
17.977
4.65669
-22.4217
-20.9889
19.7714
9.57324
-49.6236
-65.6013
-64.4151
-64.4718
-24.0556
-19.4467
-22.4699
19.6073
27.7127
15.7506
9.02593
3.70073
-27.3049
-37.2956
-50.271
-59.0343
-23.8699
13.3343
21.8222
35.9067
80.3901
109.888
45.0748
-26.5607
-43.3196
3.15897
25.9291
9.22255
1.47825
-2.28701
18.8624
44.4599
43.2331
23.7928
11.9299
-31.0688
-50.3115
-61.1771
-47.3895
-20.9773
-43.9777
-69.4767
-65.0234
-34.5748
41.8434
18.9589
-28.6228
-31.3204
-6.81988
36.0858
45.9588
53.3839
76.339
46.4345
23.7045
28.2361
35.7099
65.5648
98.8467
69.3582
19.617
-5.72844
-30.5339
-62.3486
-84.2559
-51.9548
-26.1178
-13.4586
-3.83041
-5.04709
-23.24
-50.6464
-53.5247
-32.9488
-10.0321
17.9836
24.6398
14.8316
-7.8808
-32.7776
-31.1526
-24.7399
-3.05121
1.41023
-24.5836
-28.9305
-8.45794
-15.0022
-32.3281
-56.9378
-9.9254
82.0695
93.2467
109.68
132.653
103.594
9.83276
-20.8595
-40.1882
-57.0139
-51.9365
-35.4752
-12.2017
6.88816
10.5073
40.2292
56.5336
25.6433
-0.714251
15.0725
-5.95119
-42.0345
-17.8728
-37.4802
-63.5127
-60.6678
-9.7161
1.5953
-22.3305
0.579593
14.1001
-16.2627
-21.4917
-13.4843
24.2377
88.2028
101.257
76.3096
31.8615
-20.6513
-34.3345
-43.1431
-19.3115
50.9383
19.0317
-15.4553
-19.2482
-37.3839
-19.6234
3.8689
8.38082
8.00105
-45.5114
-73.5543
-69.2179
-104.198
-91.1953
-16.8042
52.4409
80.983
62.1621
16.7042
-10.1754
-44.8205
-45.2238
-7.59609
18.1081
38.3498
73.9165
88.3932
79.1116
66.2284
62.6309
37.1286
5.60917
-2.78064
2.20933
10.7423
0.462591
-20.2093
-48.9162
-67.8235
-98.1307
-74.5995
30.3908
128.839
127.459
63.4489
16.6023
-8.84614
-67.5377
-98.5869
-62.1075
-15.2417
-16.6299
-50.8114
-75.7331
-74.3527
-80.2034
-34.2717
19.1367
25.1513
-2.46936
-23.6435
-43.7322
-67.8116
-1.67581
54.4779
52.8861
39.6649
45.5218
70.031
97.6172
114.175
106.735
76.3381
58.7743
29.8227
-15.924
-59.4212
-81.2364
-68.7829
-36.3212
-46.2546
-71.2299
-70.627
-55.7097
-9.67494
-1.99692
-30.0284
-20.1387
-29.4081
-38.2188
-6.51778
51.1908
112.508
58.1282
8.12909
41.736
51.8677
47.7674
47.9167
50.4422
43.2829
15.7867
-10.7174
-9.6477
-10.7644
-29.649
-6.0302
5.12308
18.5028
6.0942
-50.6515
-129.78
-159.883
-134.56
-72.7689
6.84961
77.891
118.644
110.484
118.369
134.609
87.2498
-7.68447
-95.7747
-134.774
-109.09
-95.8166
-59.857
-38.278
-28.0539
2.86749
51.4194
45.4941
41.7542
36.174
-3.97296
-6.57086
-2.67352
-1.97065
-10.711
-54.4033
-37.2761
-15.4148
-1.31958
1.97342
0.452209
-10.5485
-56.2763
-65.2562
-1.92242
61.7413
74.8171
86.4454
157.842
256.751
215.41
93.6166
15.5114
-40.4504
-92.0178
-77.4059
-37.2896
-8.01452
-26.3729
-60.637
-68.7929
-53.8072
-49.4054
-42.2866
-41.7514
-43.7598
-36.4427
-6.81591
-14.7875
-83.8965
-45.008
-11.3449
-25.559
-36.1655
-79.1755
-87.1681
-71.2147
-26.4087
4.29765
72.1206
147.846
179.838
208.767
192.189
100.674
3.27395
-81.4711
-125.815
-152.6
-175.398
-156.699
-65.2434
58.9909
143.057
183.45
168.766
135.722
83.987
36.0909
-10.0047
-48.0698
-72.517
-101.478
-100.758
-76.3561
-60.8439
-48.495
-40.2561
-7.16075
24.1794
24.4806
16.1903
-20.228
-41.021
-17.8673
1.48017
19.5943
49.5371
57.3755
29.9918
-1.37483
-23.5872
-21.7666
10.8282
82.1727
89.2447
53.1136
29.1495
4.64651
-10.6853
-25.5306
-78.2086
-146.483
-138.867
-42.509
-13.5136
-29.3336
-37.6892
-16.3972
43.1913
97.3994
132.515
154.953
118.933
70.519
30.0726
22.3522
-7.55849
-47.2487
-63.8397
-70.2041
-71.3931
-52.2824
-47.4583
-96.1747
-110.561
-79.8152
-20.2028
30.6838
43.8854
60.3275
43.2452
-10.8227
-9.19373
-33.2399
-30.8441
32.6384
70.6138
30.8049
11.7573
10.9881
-12.6654
6.42857
43.8118
39.2919
52.5705
60.9248
38.8291
17.0665
2.39265
-15.724
-21.8978
1.5689
26.0322
6.04028
-66.1002
-110.81
-72.3651
-7.33993
6.06082
45.4219
99.2054
92.239
81.1471
59.8579
25.1014
-14.4013
-67.7328
-102.072
-90.7403
-77.6661
-71.043
-59.6022
-98.2056
-108.853
-53.4832
-21.5003
-11.596
0.476284
46.9517
77.3612
98.0157
101.281
70.044
27.9487
7.24217
20.027
19.896
51.8293
65.9312
25.889
8.36431
-14.4277
-46.5925
-26.3484
48.8627
78.7103
52.8569
6.47949
-19.0273
-60.8713
-91.0166
-92.0712
-77.9067
-50.629
-9.39245
4.36696
16.9255
20.4515
3.74151
-22.9244
-40.4199
-24.1934
29.2346
57.3681
55.0452
34.6241
9.70242
18.3633
18.4663
-6.08567
-16.1051
-7.55716
-23.06
-40.3615
-37.0298
-30.4526
-42.2315
-35.6853
-9.61786
14.9317
51.5969
94.4934
94.0377
21.5615
-15.31
-16.2556
-4.54698
15.6661
-18.6503
-61.6651
-24.8281
58.9605
73.5502
39.6959
-5.06548
-19.1988
-7.89036
-34.2272
-29.0669
-9.60563
-25.0636
-40.5728
-29.5081
4.51222
6.76379
0.749468
2.68872
-24.4652
-16.8054
38.2025
49.9727
14.6846
12.2016
27.5201
2.87464
-25.6525
-5.81637
13.9699
11.1079
11.9903
-7.67927
0.216522
19.3821
11.1636
-10.8389
-19.3828
-12.615
21.9137
-7.4704
-53.8679
-70.7075
-96.4113
-88.8219
-49.7358
11.6643
39.2244
59.4927
64.3058
26.2951
11.8438
7.45246
5.97379
6.55383
18.2766
34.9543
38.1297
-12.2282
-36.1514
2.61684
41.5071
43.4248
32.4944
21.5769
38.0669
31.3945
13.4587
-26.5558
-21.5013
-25.8559
-52.3917
-36.1609
-22.4284
0.349361
83.1573
102.834
22.805
-9.50794
-21.1386
-21.5096
-37.1797
-70.84
-95.0884
-139.354
-116.264
-9.5806
58.8913
62.1528
54.86
69.1984
73.6593
61.6865
59.3878
7.62669
-59.2458
-91.5479
-62.1792
-42.071
-45.3435
-46.3974
-16.8696
-9.39405
-4.61741
9.67015
26.1915
16.9741
12.4252
31.7042
41.0053
47.7361
33.2492
20.0281
-4.69021
-13.3889
-29.4886
-26.3524
13.3346
59.2877
69.337
85.2924
117.292
118.514
82.5019
77.7162
25.3312
-47.8331
-95.8999
-149.878
-157.724
-131.635
-113.018
-81.7134
-48.1442
-6.56755
5.21832
25.8676
35.4994
4.35522
6.84889
-8.36928
-48.1144
-13.0272
70.7027
52.1202
25.0277
11.8132
-3.59316
36.0943
37.8879
21.4063
50.7577
42.2341
-17.4558
-81.2054
-73.6055
-43.6592
-6.03387
25.4647
31.9848
38.3979
75.0624
35.0932
-33.2626
-24.5424
-27.7094
-38.3608
-30.9516
27.4676
58.8305
30.5606
-15.4666
-7.44848
-2.26056
-4.98696
-10.3251
-1.47659
34.215
63.9988
107.783
104.081
-7.08292
-61.2885
-71.3765
-64.9035
-60.4653
-59.703
-31.6243
-10.5718
-19.1162
-22.9946
-10.2563
-10.8106
-15.9665
7.33223
31.7709
17.6719
-3.33968
-7.15539
-35.0816
-53.2745
-33.1182
-25.8581
-46.0545
-13.341
38.1306
108.486
125.821
78.0722
53.059
40.2333
19.6309
-2.63131
-35.2575
-39.0488
-29.6757
-24.9922
39.2698
75.9175
3.85343
-25.9766
-11.8115
-10.869
0.793248
12.2261
-1.89424
-50.9767
-74.1865
-56.9245
-39.4708
-29.9957
-6.55817
6.84986
14.3714
11.7309
33.4603
93.4597
41.3646
-70.1664
-68.3843
-46.1927
-40.768
-12.1638
18.831
24.9202
30.2539
47.6338
46.3025
20.0138
1.47654
-4.20351
7.23187
12.1394
11.467
28.2266
18.5471
-23.8155
-32.8709
30.8286
51.3168
34.7285
17.8017
-5.87274
-12.2059
-26.192
-54.8833
-64.2488
-44.9916
-18.1616
17.8659
38.816
43.9871
35.4799
20.5019
-7.05666
-55.9535
-87.8146
-97.4555
-96.5705
-76.4215
-52.9192
-35.379
10.2502
44.1151
65.4433
85.7405
75.8084
63.0444
35.7411
1.09532
15.2222
15.9739
16.6655
57.9665
78.3314
60.757
50.2848
12.0343
-5.80731
13.8027
26.6205
33.6896
1.71808
-37.3258
-54.8622
-55.916
-62.7937
-52.3524
-39.7141
-41.6878
-44.8297
-44.9583
-42.7145
-37.0323
-38.8607
-13.3564
-2.89225
21.5046
25.8157
10.6594
-9.14213
-37.946
-52.5314
-23.5071
4.51568
44.1142
124.618
103.141
47.004
31.3782
23.8674
-0.0163519
-21.8938
-27.0272
-13.1438
1.19037
10.0005
34.0609
56.644
26.5148
-10.9805
-9.38803
-4.74029
-9.01623
-17.3471
-31.8712
-56.7489
-43.2748
-21.1091
-33.5536
-52.4431
-33.9575
-1.19799
17.8737
24.124
27.0443
28.2318
28.8348
13.3156
45.9018
48.5101
23.2374
15.0474
9.59284
10.2371
-6.4766
-63.8985
-110.85
-104.515
-12.4278
81.3118
93.7215
79.8371
77.2098
42.3691
-8.08479
-30.7069
-43.8471
-61.8282
-74.9323
-51.5588
-7.41385
-1.93738
-8.63409
-4.13632
-22.5856
-27.1573
2.5701
36.9788
42.71
0.130733
-24.5369
-24.0402
-13.906
7.90233
31.2162
23.6779
-0.789289
11.5972
30.548
27.972
27.3376
49.0253
26.6515
-5.94829
-4.94535
13.4452
42.8768
63.473
16.6691
-36.4153
-37.9429
-32.6232
-40.8881
-33.7748
-34.6303
-53.5649
-44.5737
-42.4918
-55.3685
-34.4368
-11.5332
-9.77503
12.2744
32.5923
49.5076
48.0942
25.2785
9.0991
-1.66107
3.35195
-1.01827
-7.22278
11.9636
41.885
49.8115
-1.05483
-7.86587
5.34395
29.3508
52.2223
33.2371
-24.9961
-50.8679
-52.3877
-55.1597
-54.0621
-27.9561
-11.87
21.1702
51.0539
76.568
70.0098
34.5686
43.8106
41.7698
10.6603
-25.0061
-27.119
-43.4
-45.8178
-26.3417
-29.2963
-33.7641
-24.8532
-25.3762
-27.0517
-6.31249
-6.16776
-51.482
-90.2478
-53.6293
-11.815
1.69834
9.55801
36.9293
71.3485
67.8606
53.6075
18.051
-40.9335
-25.6866
39.9332
52.2601
49.9864
28.7805
22.1949
50.8523
70.4943
84.6658
55.9247
-35.2886
-81.4274
-60.6876
-7.8191
-7.97468
-38.5801
-59.5624
-63.4245
-32.3268
-9.0612
1.87033
4.69774
-29.9063
-51.8845
-36.6705
-11.984
-9.30081
-13.9151
11.4005
52.6038
36.9745
38.1313
39.5234
8.05478
-24.5686
-35.2633
-25.4546
23.756
58.3995
83.1477
68.0417
29.2015
25.6579
3.08466
-25.1609
-16.1416
-59.57
-98.8546
-101.929
-87.1968
-18.3289
81.6399
134.186
77.3241
28.9152
-7.01008
-20.9366
-44.5262
-44.1788
-25.9526
-26.9651
-36.4053
-19.5165
12.4065
32.6816
39.6131
62.2152
39.4451
21.0114
31.6973
9.34498
-75.3591
-121.389
-80.6536
-59.924
-36.1087
5.80735
22.1221
31.7438
28.0133
30.2084
45.0398
25.4421
17.4795
24.2022
24.6083
18.9711
17.6795
11.868
16.3565
12.5665
13.154
-1.49092
-3.35979
17.2325
52.0719
61.8365
38.145
-10.8722
-25.588
-40.1679
-60.9108
-73.4701
-94.7822
-96.9896
-44.7356
26.1867
55.1085
18.7469
-16.4525
4.56192
0.465245
-7.81394
9.49595
52.4928
21.3296
-28.8301
-33.5343
-15.5391
-14.4127
-12.9908
-25.9751
-20.5024
17.5735
51.2277
31.3252
4.5862
19.0721
13.4617
3.73237
4.12012
-2.65665
0.965996
14.566
20.793
64.8004
94.7086
75.767
31.2926
-36.7453
-55.6331
-14.1883
-7.85401
-59.6288
-115.408
-137.593
-131.591
-97.8567
11.9271
126.311
94.4845
89.0959
87.9388
43.2799
-13.1862
-50.9997
-74.4046
-62.4356
-33.6305
12.2665
34.809
40.1844
73.5169
104.827
121.315
123.354
77.7415
20.3764
-31.0121
-105.384
-102.424
-94.0515
-90.965
-67.2829
-34.1568
-31.6683
-33.1431
-24.6168
-13.7962
-4.39806
7.65433
27.2579
18.6772
-7.38549
-9.02835
-12.9249
-9.72043
-14.0522
-30.2408
-20.2775
33.7012
37.5405
32.8792
54.5221
63.3838
58.6285
44.646
25.8418
22.7178
3.87139
-15.3742
-42.5852
-51.0493
-37.136
-24.4174
-9.82734
14.9747
0.837963
-44.0169
-91.3818
-41.1148
68.1378
101.561
93.0385
97.9908
94.4191
55.1313
81.2391
41.4367
-19.1125
-54.6759
-74.4449
-69.0319
-46.852
-34.3059
-73.7269
-94.9874
-72.7337
-45.2045
-16.346
-26.613
-62.8094
-70.9273
-59.1143
-86.3261
-83.7927
-21.4556
-9.22411
37.0573
105.594
138.386
148.534
97.8968
86.0451
83.0014
78.8255
59.6084
41.6336
47.1913
56.9027
33.0049
-3.28404
-31.8792
-73.1171
-92.0469
-78.8625
-65.8553
-70.4933
-73.8288
-70.601
-54.4413
-39.1563
7.63863
33.328
59.4939
75.7554
60.1579
60.5763
26.2277
3.28285
-5.8151
-12.4875
-29.3288
-5.99826
9.94882
-24.2282
-57.6268
-74.0634
-41.639
24.0899
50.558
30.0705
1.43413
-35.699
-72.5441
-52.3489
13.2195
46.8981
65.0829
69.7023
23.6622
-31.3325
-48.5486
-36.648
17.0768
120.436
161.168
81.9802
24.2734
-15.0395
-50.2962
-86.1016
-73.7544
-59.8343
-52.6764
-56.605
-79.4357
-83.3237
-26.2464
44.477
74.6874
68.164
71.3832
40.3469
-19.1966
-78.2799
-76.3407
-8.73644
3.79879
-19.4177
-0.228195
15.0874
11.3449
9.86426
15.7273
44.8497
75.901
83.661
67.3959
26.5978
10.1122
11.4926
5.70503
-7.9196
-12.903
-28.1563
-29.5813
-48.4969
-56.3229
-20.7752
-9.87754
-0.517306
-0.945549
-8.68416
2.10909
12.2867
51.48
52.3711
-10.319
-55.8596
-71.1902
-79.5632
-40.4863
5.23866
28.8526
35.2642
45.0839
57.8393
66.365
26.8879
-3.16136
-5.49974
5.82018
5.79265
-11.7205
-51.9966
-98.8009
-96.4222
-71.2396
-50.5723
-26.3345
1.56648
0.110561
-6.73598
-5.05851
14.6756
36.2915
78.0873
107.343
85.6474
79.7261
76.6886
54.688
47.8438
33.8617
-10.5377
-38.1896
-45.4548
-43.3681
-62.7091
-71.0127
-53.7904
8.29647
103.556
75.2313
-7.35359
-59.6802
-81.6333
-83.0072
-57.6987
-44.2994
-27.8352
-10.8797
24.2819
17.0128
17.0022
12.7991
10.9463
33.6091
51.3572
38.215
41.7617
19.1209
-49.0724
-39.252
2.61456
-3.76447
-14.0675
-11.505
16.7149
13.6023
19.1107
29.8587
-5.79485
-21.8963
-6.65227
7.32862
26.8614
21.6905
22.2281
33.6487
34.1131
8.12146
-43.7882
-67.7732
-69.5201
-73.7542
-79.5604
-64.9167
-13.2722
33.8727
51.241
58.0061
65.8882
67.8299
72.5076
45.4604
5.1131
-3.29225
-16.8807
-6.07239
-4.21615
-23.1649
-22.8169
8.43194
41.0016
50.7532
22.9597
5.07312
-28.9299
-68.1398
-89.1124
-87.7901
-63.6619
-34.3045
-37.2489
-39.0722
-22.4481
-4.86826
9.99377
24.6446
41.4576
51.9313
57.2266
39.6061
8.41903
-3.71322
19.7296
31.8021
16.5503
36.1853
45.682
42.5331
30.7651
20.2033
23.0879
27.086
13.2565
-19.9889
-32.2242
-41.8245
-41.5108
-40.1029
-41.8982
-27.4852
-10.364
-16.1396
-30.9699
-57.9808
-54.9842
-43.1153
-11.7772
23.3966
20.4656
5.35411
-22.5505
-23.4404
73.9933
164.918
146.512
74.8308
-32.5654
-92.3194
-80.826
-70.9876
-60.675
-6.11661
42.7056
45.9495
49.2932
47.9951
8.16924
-32.8688
-55.5721
-44.6204
-1.8083
33.4065
-16.4556
-86.1867
-113.376
-102.142
-22.6063
47.9695
61.4128
50.3496
65.8587
85.4242
78.9076
85.8366
144.609
89.2699
10.3539
-23.2402
-7.42919
3.38075
-25.9878
-62.3043
-86.7675
-80.8483
-63.5185
-42.5203
-20.9321
7.16194
8.34589
-2.02504
12.382
-3.45555
-34.3415
-48.5392
-106.613
-106.04
-35.2737
1.49421
-3.64936
32.417
85.4093
91.1148
56.2093
7.5465
-21.8718
-4.52924
20.9324
8.48117
4.23026
35.1215
30.9185
19.7306
30.5797
47.8232
29.47
25.8354
9.92368
-5.96635
-4.55014
-12.9674
-19.215
-20.2788
3.48511
42.9819
41.0451
38.9384
3.75153
-24.4875
-27.5029
-31.4146
-44.5313
-38.2181
-54.2384
-66.5938
-58.8877
-31.2953
-6.60708
21.2177
46.7966
25.6675
-17.2384
-36.6638
-53.5687
-45.1809
16.7
40.8812
27.5925
29.233
7.90555
-11.0354
-25.3918
-21.6225
0.775943
5.69616
23.2097
52.8009
58.826
57.3222
68.3933
69.4049
22.2147
-10.293
-22.8358
-28.5626
-32.5221
-39.7709
-37.0682
-21.9445
-13.2346
-13.3372
-14.3037
-5.06019
21.8613
59.4735
33.5761
-16.1449
-46.6694
-57.2389
-72.9765
-84.812
-40.3009
-9.61084
33.8144
33.0543
19.9258
35.256
50.4209
51.1234
42.6008
25.7033
19.5953
16.7989
29.2684
1.04643
-45.1931
-38.1554
44.1615
73.8627
39.8637
-1.35917
-21.222
-25.5539
-16.7308
-1.31394
5.99449
-4.95613
-13.5655
-23.3302
-24.993
-69.1764
-81.2297
-62.3133
-48.7299
-33.3732
17.6513
49.9812
21.8121
-16.3723
-26.7514
-2.13553
48.4215
73.5741
47.8628
36.0777
34.8401
0.421552
-16.3946
-8.89211
10.2941
28.5873
17.1117
-0.586047
-26.2478
-43.9912
-16.6582
-27.839
-64.5301
-72.0618
-55.7702
-16.7339
10.7703
13.4175
-3.04812
-16.3152
-11.6151
31.1367
83.3728
129.908
137.706
133.597
110.033
39.6772
8.99936
8.80152
4.89588
-24.4065
-55.7915
-61.0966
-58.2476
-67.8477
-86.3876
-95.2627
-94.8135
-64.5898
-19.1774
8.37715
10.8663
-19.0126
-39.7494
-27.3651
-36.6157
-24.9603
-18.5134
0.725302
29.9094
98.9047
78.4137
17.9097
10.453
13.496
32.2842
79.7454
121.441
117.271
56.4732
-19.2013
-86.9401
-122.507
-114.729
-111.135
-63.9115
11.6029
49.7678
59.5244
37.0999
-4.75869
11.7229
57.7698
93.1798
124.98
74.5255
-24.1817
-63.8767
-78.556
-83.3085
-72.4055
-52.0466
-31.983
-15.5593
1.63993
6.05265
3.29952
0.0478393
-0.836588
8.12383
7.54532
16.1376
10.6115
-11.3599
-21.5406
-5.05468
29.8593
30.5619
13.1215
4.20499
-3.38844
0.211481
23.2811
29.9146
46.1388
58.3211
38.743
24.95
-28.5121
-68.1672
-74.4483
-67.3653
-49.6805
-37.0681
-29.9216
12.6048
42.4941
35.6717
18.4619
27.1232
50.607
63.2634
10.2201
-27.0482
-11.3224
-42.8879
-111.784
-115.379
-80.788
-58.0801
-34.2722
30.8702
91.6228
119.747
90.0727
50.896
33.6156
34.1902
30.8147
27.1798
29.8458
7.65133
-12.7081
-40.3398
-56.9429
-35.3722
-11.5394
-10.4905
2.32021
14.7693
14.6223
-16.0781
-24.2653
-24.9229
-26.8516
-17.0307
24.6317
102.611
101.856
20.0842
-12.7903
-23.2858
-24.676
-19.0106
-33.4312
-27.4816
-11.4592
-11.7453
-12.2179
-25.7829
-29.8866
-28.016
-35.9223
-29.1135
-10.2052
4.28219
-7.90222
-58.9499
-55.3355
-16.5969
-23.5353
-3.75156
43.4097
73.8235
55.6406
52.456
64.8471
48.0108
21.4087
23.2886
47.0768
65.5693
46.118
38.0597
13.9835
-39.8993
-62.7078
-91.5586
-78.6948
-33.383
-12.3311
9.29212
24.9592
46.067
72.3165
61.3161
28.0586
-1.94935
4.61341
-23.0248
-63.4816
-87.4823
-106.533
-133.287
-123.974
-51.747
32.2778
82.8588
109.099
104.467
71.4505
-1.77309
-49.7699
-65.2636
-42.8689
-13.38
-10.2053
9.71692
16.7134
31.7715
60.0531
41.0704
19.2821
28.6993
46.6388
30.362
45.0837
36.6334
-9.13581
-15.6834
-8.74645
5.86831
22.8673
4.97077
-27.8556
-47.2294
-8.01232
24.4244
-7.9622
-56.2031
-81.3839
-26.1865
48.1792
42.0197
-10.4179
-51.152
-106.434
-133.564
-135.797
-120.037
-41.4793
38.6387
75.5486
78.5903
74.8395
69.6877
57.8404
27.286
46.5077
87.5764
105.654
94.1764
68.6315
23.2427
21.8498
34.7842
-15.8603
-27.371
-13.7268
-18.5773
-42.8337
-84.8394
-125.664
-92.824
-33.5255
-0.0859366
10.7701
40.1015
33.0354
13.3264
-15.3152
-43.0885
-46.9607
-12.2445
-2.05019
-44.6632
-54.8278
-22.614
20.5717
45.4343
47.2904
44.844
54.8921
44.4652
28.0576
1.12319
-14.0077
-23.4929
-18.6482
-4.42311
-9.29542
-9.35068
-22.4212
-27.611
-18.7954
10.418
30.9313
16.4072
-2.65991
-0.633829
-12.3926
-4.69379
31.8725
45.9438
38.0745
28.0173
-8.41106
-54.335
-55.9118
-24.1358
37.8431
104.28
105.762
40.1195
16.7323
24.2978
-7.95198
-51.7229
-47.9135
-28.7521
-28.2284
-40.0303
-63.1342
-65.7304
-73.5775
-64.2141
-33.6046
4.68373
26.9619
11.7672
-14.337
-10.7252
22.4431
85.3562
77.7931
51.7656
46.5072
20.7351
-6.66308
-26.0572
-49.3288
-40.6848
-39.5654
-30.1178
-26.8492
-30.8702
0.024983
40.0665
62.2061
73.8438
69.8298
18.3476
-45.3347
-58.9051
-40.2301
-21.3273
25.2947
77.4413
93.4183
50.0363
12.6385
4.22391
-4.1118
-44.605
-61.2621
-28.769
-16.0498
-22.1266
-16.5347
-39.3317
-69.4796
-63.6676
25.8543
56.7498
30.7405
13.9749
-20.9609
-19.8869
-21.6394
-12.6979
8.66911
10.0167
6.90689
31.2176
41.0212
46.7604
34.3571
8.72434
-25.0144
-36.5446
-23.3067
-17.0834
-54.1239
-56.753
-27.6148
-8.23165
0.343074
12.7192
30.1192
40.6462
35.8968
25.9523
27.7077
61.4227
121.109
94.5099
27.5823
5.38739
14.9584
30.0453
-21.1715
-62.749
-90.8956
-109.38
-99.0879
-73.6216
-36.6292
-1.32831
-2.79153
-1.63127
23.3039
18.2849
-18.695
-62.1536
-68.2222
-25.4868
2.51015
16.6205
14.1015
15.417
69.0126
85.0427
73.6346
122.461
163.199
60.7087
-13.793
-51.9628
-60.0267
-49.663
-34.77
-5.406
25.9443
21.2049
-45.0984
-85.1016
-77.5248
-79.7786
-75.5345
-62.4777
-47.0294
-17.3837
1.37972
-1.9859
-24.5469
21.109
57.9174
61.748
72.4235
66.1214
75.396
80.8264
54.1326
39.0834
7.04954
-38.4886
-40.128
-19.5315
6.49579
31.1047
29.2127
-32.961
-74.0191
-83.9982
-66.2734
-11.8985
49.6935
83.2498
46.3766
25.7436
-6.6994
-28.6367
-13.4565
-19.3505
12.6189
53.7406
20.3213
-22.4991
-41.0192
-32.9491
-8.29285
17.7013
46.0033
32.8009
-30.3959
-99.0343
-144.956
-115.326
2.1075
55.6042
39.9732
22.3519
15.0511
-1.2645
-5.3075
5.74268
44.1371
67.0087
62.0922
23.8083
-8.35228
-9.05129
-9.92154
1.45445
34.1026
71.1828
70.6757
13.4872
-37.2487
-58.265
-56.1657
-62.9108
-96.6715
-126.7
-114.498
-81.2007
-32.6331
48.849
142.044
112.975
64.7989
45.7116
48.5341
33.5879
31.9835
33.3828
38.021
33.5455
1.71762
-6.42556
-8.12511
0.247345
16.3153
27.2584
36.9985
35.0622
31.5252
-2.7024
-88.0299
-89.6566
-67.5296
-88.4922
-93.7209
-54.7501
-18.5386
15.3811
15.3747
-2.37721
-14.4062
-34.7185
-26.2341
10.1897
73.5463
75.2419
43.3927
31.7105
20.0724
-19.5267
-43.2488
-16.9987
13.2706
29.5227
41.711
5.19696
-32.1026
-45.2712
-35.4448
-12.2412
18.5443
44.9759
22.4356
-11.039
-44.6624
-35.0534
-23.8585
-8.7837
-4.16115
3.94887
18.8288
29.868
21.1698
17.7333
36.6969
57.6819
67.6077
54.2686
38.8285
6.22887
-33.4484
-40.8941
-9.04848
16.715
-2.61123
-33.6749
-44.2902
-52.5723
-36.3643
-2.16315
37.7653
50.8923
33.4529
42.1134
58.9845
57.5905
9.20118
-65.2312
-119.292
-124.517
-112.272
-83.3572
-13.4309
6.946
-33.8221
-10.301
10.6956
38.5367
51.0453
11.4659
-8.84694
14.5181
-7.96147
-26.7057
-22.6504
-25.3636
0.6105
41.7645
38.8423
17.2177
55.5101
90.1267
50.0867
6.58693
18.9995
51.3747
97.8018
131.806
102.744
56.9555
-10.0537
-101.033
-120.874
-98.6919
-94.1912
-77.4342
-79.1261
-74.4088
0.189524
68.4765
50.1863
28.8746
32.7627
32.4738
63.3628
59.3927
17.1618
-94.6596
-165.096
-149.177
-91.847
-34.2074
20.4152
32.033
38.6699
44.6704
30.868
20.9422
5.18462
4.55238
-3.04533
-14.6712
38.0767
106.447
61.7449
20.816
-5.39737
-6.26164
15.5365
0.285935
-1.16802
2.54131
