135.64
-23.2626
-23.1467
-79.202
-100.516
38.355
231.741
261.386
95.6561
-12.5565
28.0329
-52.2743
-152.139
-77.9664
37.016
72.856
142.071
137.301
30.0827
-94.9133
-153.05
-116.174
-21.5856
80.2661
78.6062
-66.0089
-243.089
-223.715
-138.896
-39.7832
64.0325
140.545
195.615
266.595
288.492
207.752
39.0004
3.64991
-6.36394
-124.082
-171.577
-121.712
-137.548
-160.87
-104.031
15.6624
65.8835
155.903
147.88
-64.9379
-208.424
-148.948
-21.3551
-47.1918
-129.759
-118.747
-70.9966
56.2157
144.914
211.254
93.7965
-29.8382
13.8191
162.793
189.984
103.393
-22.6037
-173.336
-128.94
11.7127
-43.0946
-107.489
-17.3948
-13.5344
-52.4129
76.666
151.365
43.5999
-45.3116
-34.0506
66.3207
62.4362
-31.5372
-131.139
-198.503
-109.464
18.7576
140.523
276.223
382.637
370.58
139.941
-132.662
-188.53
-153.467
-250.19
-266.815
-104.64
99.3412
74.1913
11.6626
17.7837
-25.6897
-91.1509
-82.3728
-124.434
-5.67191
79.7335
-31.1495
-110.288
-45.5586
47.7259
32.3056
-36.6388
-32.7257
24.8071
27.0836
-111.194
-284.93
-188.634
124.986
415.188
505.177
297.156
92.3809
-47.6107
-184.403
-174.436
-57.1188
13.6536
33.2943
12.4349
-0.768971
22.9028
52.2096
56.7529
25.956
30.3086
18.9736
40.7663
-150.719
-345.334
-223.385
53.6815
247.188
281.044
185.304
-25.0141
-196.332
-326.162
-212.741
-20.3064
47.1731
117.518
221.974
149.76
23.5832
-14.1687
-29.065
-84.0264
-109.39
-96.3005
-94.3853
-81.2546
-121.089
-119.033
-106.737
-52.9033
71.7024
192.092
103.36
20.0321
96.637
136.37
131.745
83.0061
-26.9439
-87.2203
-54.3888
51.881
142.782
28.0136
-156.273
-160.905
13.6611
206.648
223.359
264.967
187.525
78.6809
46.0721
-3.21753
-194.062
-350.12
-381.709
-254.527
-54.5932
78.7877
234.712
189.83
-16.9085
-62.0762
-5.44319
-30.7932
-133.457
-189.468
-163.589
-219.612
-118.083
29.3797
-26.1257
-65.6552
82.8113
189.356
153.244
181.055
273.725
102.944
-135.254
-209.484
-129.647
49.7771
245.583
299.292
205.228
36.5283
-72.9366
-142.996
-151.198
-97.8043
-46.8336
125.32
180.115
287.142
292.215
120.978
-11.4791
-79.2832
-205.021
-206.871
-170.638
-187.056
-250.104
-256.691
-152.177
-64.6316
-20.931
11.6483
43.1102
1.60021
-53.7391
-52.8024
-21.8164
-5.65916
2.53303
-99.0924
-128.141
105.935
391.5
445.662
319.334
176.991
91.7868
29.4193
-135.93
-245.105
-224.111
-184.579
-108.366
195.68
548.952
434.665
142.144
-68.6321
-146.442
-124.537
-122.08
-267.699
-384.17
-381.964
-314.88
-139.954
27.0198
113.872
134.043
102.944
137.914
159.109
70.7595
-50.2656
-139.121
-89.4419
-5.20234
-84.1081
-28.139
76.3141
65.8129
123.679
185.935
181.37
317.232
373.689
172.054
-60.7367
-107.783
-35.196
-59.9807
-76.2232
-113.344
-246.358
-243.764
-66.0337
-54.2771
71.0147
82.1434
77.8042
-45.8571
-231.068
-272.303
7.53363
184.774
-58.3603
-103.47
-52.0518
-5.91658
63.425
32.5519
7.04849
92.9583
220.055
77.5673
-144.559
-86.1586
-47.9186
-89.4605
-117.721
-44.3688
13.497
42.9169
69.4633
168.025
201.048
119.918
22.491
-20.2301
-38.3668
4.55534
77.9971
154.158
59.4548
4.85137
27.4699
110.18
135.847
-41.1507
-72.6516
122.962
141.711
-50.7551
-230.611
-403.139
-338.194
-190.087
-0.970217
35.4631
-41.1978
-32.7652
-2.87051
-66.4418
-93.583
-133.666
-162.835
-90.4904
-28.0883
119.252
187.778
257.257
375.134
341.117
221.704
2.12074
-113.773
4.90666
70.4056
2.50683
-137.104
-132.734
-5.76883
145.683
152.294
71.9624
-58.8186
-183.751
-229.559
-193.618
-129.315
-54.835
-53.641
20.8525
23.5392
-3.82175
149.015
65.0368
-86.0327
-20.0733
77.0947
150.778
113.174
-48.5052
-85.5418
-46.3887
82.9685
79.0425
-27.9449
-98.6789
-186.526
-245.15
-145.41
6.76669
121.652
274.729
227.697
69.8776
32.9717
67.1489
43.0151
-83.3439
-36.6273
-57.7885
-105.253
-78.2504
-58.2026
135.172
255.957
84.4033
111.767
101.369
-20.3402
-129.463
-195.614
-175.377
-121.281
-52.8493
-101.163
-97.5639
25.3413
126.791
41.7837
-53.6701
-65.4292
10.948
119.985
167.08
171.871
186.69
30.0965
-129.978
-213.645
-165.278
-180.086
-164.279
-54.94
14.1533
51.4318
106.645
210.457
127.948
-36.7919
-14.553
6.88173
-71.4994
-148.669
-110.244
30.7391
120.064
187.317
295.381
258.92
27.5211
-59.9928
-2.74428
-28.4885
-98.9481
-19.5653
-131.97
-222.872
-104.302
-15.3611
64.6689
123.37
70.8899
-52.1229
-202.513
-285.673
-171.086
-14.515
38.9438
53.0444
84.8386
138.248
178.108
122.708
122.343
118.457
128.541
53.036
-27.9976
-14.5816
24.8022
-28.4038
-28.9543
69.9866
58.2665
-102.269
-236.936
-258.456
-213.513
-124.574
9.57087
50.36
-51.3054
-63.6368
-26.3525
-46.0087
8.54813
94.6429
117.496
174.449
187.243
80.269
-52.1291
-54.7125
37.0981
195.412
247.562
92.1427
-74.3157
-89.5722
-92.518
-156.737
-73.7863
-43.6987
-108.355
-27.9387
52.7975
66.9981
47.6739
-82.9297
-205.225
-163.982
25.8031
63.3373
-31.7354
-56.8057
29.8462
148.645
117.088
-17.4538
-55.9043
50.9645
59.0011
62.3567
136.174
113.185
31.9115
65.101
51.7155
-4.71468
-19.521
80.7045
29.0606
-136.464
-226.118
-204.878
12.8122
180.85
163.247
85.3068
14.4374
-80.2798
-180.404
-204.701
-151.743
-124.539
-89.7913
-137.798
-148.317
-90.0083
14.8758
65.3387
191.377
268.012
232.382
117.651
-53.9493
-189.184
-143.901
55.1367
182.913
161.6
31.3595
29.2037
71.3952
55.7451
21.6135
9.67973
31.0021
44.9381
-15.2211
-64.6729
-90.4702
-74.6409
27.9428
59.024
7.27271
4.62463
-25.7565
-54.6762
-76.4063
-102.061
-65.0932
-30.6917
-12.1473
-18.2479
-73.6066
-91.4448
77.6426
160.84
106.095
126.961
156.558
98.0723
-29.4327
-82.2125
-53.7359
-73.9372
-133.812
-175.332
-211.185
-169.8
-32.3203
21.4291
14.5426
43.8226
145.864
191.014
68.3845
-47.6216
-63.2324
-20.1627
-9.79881
33.87
55.2125
33.1061
-19.9255
-22.9776
26.525
137.151
291.803
278.262
69.5111
-25.932
-42.5107
-56.9876
-87.8233
-72.5497
-152.1
-118.184
-14.9899
-67.2523
-89.4902
-61.9034
-36.668
-24.0614
-48.965
-67.3921
-43.7537
-26.5398
-32.2265
-34.3488
60.4083
83.6637
50.8588
59.2952
61.6886
53.8183
147.781
129.396
-2.88857
-108.007
-102.687
-37.2348
-13.0956
0.111234
108.053
158.722
34.4989
-50.9742
-39.6576
29.0509
89.623
125.341
112.422
19.3842
-22.8746
-69.6383
-118.674
-131.183
-107.969
-75.6208
-33.0451
-26.17
-62.1169
-141.758
-202.609
-143.283
15.7345
6.81402
-113.047
-92.2082
-18.6089
37.962
70.0307
134.279
140.984
146.547
90.551
26.8366
28.1219
69.2969
48.3362
87.4392
153.614
183.39
159.321
54.5345
21.0508
50.5058
46.5577
14.9047
-38.6753
-124.829
-164.61
-117.805
-74.4273
-57.7619
-18.8851
32.2618
13.6067
-6.60025
-60.9956
-93.603
-122.084
-134.495
-127.802
-76.6932
-1.75746
-19.1506
-44.3178
-13.7147
67.9427
62.2318
-29.2927
-84.3421
-63.3178
-25.592
63.0441
160.203
144.075
65.6671
2.64017
-19.0845
14.4871
86.0324
151.614
131.982
109.603
115.169
83.9809
-28.5853
-144.175
-144.994
-91.2102
-38.9603
80.1587
160.385
10.6747
-86.2632
-45.9619
-81.4984
-36.6501
4.36242
-8.07949
-40.6766
-91.7273
-135.619
-150.429
-91.3798
-34.9362
-10.2144
54.1792
45.2458
23.846
47.7657
-15.6984
13.0996
198.684
204.473
77.9627
69.0054
1.12134
-96.9199
-79.2054
1.14668
38.8819
34.861
41.2752
11.3476
-18.2507
7.29619
-23.6578
1.99514
88.8293
114.496
50.9353
-79.3067
-228.984
-274.346
-171.765
-109.551
-41.1912
48.6997
39.3543
41.1521
46.8708
20.3827
-12.7851
52.3599
131.23
94.1464
-2.15474
-1.96877
7.81491
-58.2592
-37.9247
29.2302
67.6364
21.1348
-56.2282
-49.1733
89.9745
169.623
109.35
-108.143
-225.577
-65.5797
19.848
1.16845
77.6287
177.705
212.218
176.967
64.7817
-42.6139
-143.298
-255.129
-243.024
-99.9619
47.761
88.4813
24.4767
33.3102
53.8484
24.8736
59.1212
93.4918
7.31566
-100.867
-194.968
-246.921
-204.26
-140.268
-21.4518
45.2568
38.7804
63.1991
26.5111
-2.70265
63.4021
192.642
214.029
31.7371
-69.9378
22.1596
117.346
44.4299
-13.7349
-19.1271
-5.22757
-15.242
42.7967
165.725
212.422
124.294
35.5199
-57.7084
-50.0087
-32.7231
-117.162
-198.879
-240.393
-240.87
-135.305
6.01605
61.9415
79.1777
182.479
242.064
90.4844
-72.9766
-142.136
-170.806
-133.414
-49.985
15.2803
92.8998
80.1715
-1.42418
-55.0466
-36.3197
24.0874
90.3803
87.1973
25.8821
-23.9174
-45.5381
-119.229
-109.229
-6.37908
112.827
194.608
119.118
-26.2383
1.82506
31.7067
-37.3247
-81.0681
-11.5383
88.2717
92.6267
27.4314
4.59665
11.2378
35.2028
23.0243
-116.439
-154.736
-87.8069
-18.0288
79.5584
66.4112
0.200799
-35.9899
-69.2341
-83.984
-55.3953
-24.5408
7.79613
80.7231
104.474
31.9666
-34.9952
-63.5324
-73.9184
-107.597
-17.3665
67.5164
108.784
151.07
79.181
1.26992
-33.3377
-13.0418
9.11664
62.7991
64.1072
-19.1287
-76.6297
-26.3396
-27.3037
-52.3785
-29.5143
-16.7669
-15.5117
23.0213
96.7847
85.6734
1.65916
-75.0866
-128.542
-128.627
-82.2944
-23.5441
26.2069
6.36894
-51.0801
-45.2741
28.963
28.9756
44.8311
156.539
203.045
139.543
66.8181
-5.67265
-73.5319
-100.919
-75.254
-25.1523
-44.2107
-38.3965
-7.91262
24.0872
36.9322
113.416
175.826
169.458
60.5799
-66.3898
-121.257
-150.878
-172.228
-162.594
-128.379
-53.57
-24.4639
-22.3709
-25.7792
-6.09631
89.1808
125.396
56.297
-99.2575
-139.973
-43.1898
73.4957
95.3131
96.91
109.613
112.607
66.4497
58.4791
95.4679
49.7931
-33.8993
-27.3391
7.91886
-51.9901
-114.07
-35.7671
43.9035
3.10505
22.4641
20.7699
-94.6766
-144.028
-67.5952
-30.8418
-43.7426
-4.39246
57.5855
47.0817
15.6029
27.5665
29.9647
15.8245
23.2693
0.350686
-23.3903
-38.6422
-77.1324
-53.7139
-4.72925
24.0419
5.6239
-41.3371
2.22147
53.6154
104.192
129.834
91.3106
72.0885
66.2209
37.0762
-22.5483
-89.7382
-105.755
-71.2851
-26.9459
0.895356
-62.4104
-106.009
-16.1582
75.3996
186.159
119.134
-34.5303
-69.5351
-85.7275
-123.666
-104.97
-74.9768
-21.5254
6.10343
-0.619088
-16.5661
8.35392
-1.37752
-50.4961
-47.0244
41.6312
133.935
86.4609
10.4051
-12.0869
75.3356
96.8447
70.7239
84.1331
24.3382
-5.62398
-8.99943
-44.2799
-23.2385
27.5222
45.5533
45.0422
74.1128
70.4363
-90.2675
-153.875
-80.8341
-16.41
-38.4835
-84.6776
-29.1133
58.2429
95.4333
11.979
-93.6344
-152.732
-165.242
-84.104
25.717
49.7457
7.59689
-18.6672
-33.134
-22.8141
73.1504
181.325
273.117
171.36
2.03478
-116.001
-136.903
-38.5426
-26.6651
-47.5899
20.7367
32.2215
-34.2588
-33.0522
27.3274
70.8653
81.9142
48.7237
23.6287
6.04576
3.39647
-65.9835
-107.209
-38.9406
42.6979
54.2511
9.77446
-36.6707
-52.665
-63.2827
-100.934
-81.491
8.15131
57.3165
42.6295
75.0727
274.987
272.748
130.375
125.1
57.3723
-83.6991
-202.457
-240.495
-243.592
-251.612
-218.756
-150.703
-31.8738
97.4629
132.074
68.7926
40.3024
33.3785
38.6999
1.90052
-87.3864
-90.8059
-36.677
-14.8107
27.8729
119.327
80.0848
35.0646
80.3612
127.741
144.808
96.1987
19.985
-40.6505
-18.2971
48.9517
98.8605
67.7982
-66.5567
-117.214
-76.3439
-44.3829
24.7449
69.0316
89.1801
73.1037
13.5036
-55.3571
-91.5639
-103.228
-91.4499
-20.9614
-37.3774
-85.0803
-100.964
-63.6209
-54.635
-45.7633
38.0643
79.8236
-49.9233
-114.503
-64.3655
-28.3819
-19.8885
52.6673
230.052
267.662
223.243
59.8929
-106.781
-128.888
-69.5137
0.891056
83.9389
122.078
81.9236
22.3763
-7.51749
-15.1133
-44.197
-67.6329
-99.3155
-112.577
-75.9788
-131.921
-169.695
-78.8204
-45.0818
48.6895
158.419
173.657
197.195
179.947
113.884
-17.4759
-86.9185
-76.7528
-99.4288
-142.618
-104.181
-45.5779
32.1798
67.0106
50.1989
38.0789
45.8943
27.7676
10.4166
28.8386
-4.62618
-88.4636
-127.995
-116.473
-69.8048
17.6323
71.2307
96.8708
98.3572
82.1367
74.1008
105.663
44.768
-23.7117
-29.197
-9.43559
-36.1911
-43.898
10.7749
1.31876
-16.8863
-34.0084
-15.6784
22.6878
36.5984
49.2595
17.3196
-67.0522
-112.016
-58.5246
6.13547
-14.8915
-62.957
-101.774
-92.7163
-53.9226
-42.0494
-38.4885
76.5628
214.077
224.034
142.572
11.5385
-61.972
-120.683
-142.041
-122.127
-49.6145
53.8581
73.1678
46.9932
51.4782
63.4917
31.939
35.1388
39.7413
34.8155
9.62554
-38.2326
-17.9559
92.9557
124.908
-29.483
-141.411
-146.793
-109.164
-24.8296
9.59021
-20.8088
-9.78815
4.59039
43.169
43.7065
56.9112
52.768
-8.81247
-75.307
-83.1297
-70.2687
-84.5944
-123.433
-32.9288
137.632
133.529
55.7346
28.1376
18.4322
28.5165
45.2423
16.8479
43.32
102.631
147.302
133.971
36.6614
-57.1155
-93.4669
-83.0833
-88.3116
-120.196
-172.644
-198.971
-92.7381
82.0509
165.228
155.612
162.739
163.65
9.5392
-107.728
-151.545
-176.846
-52.9976
60.7295
-0.713744
-21.4347
30.5336
68.6125
-1.00147
-42.4243
-8.25622
-10.7227
-69.9491
-83.4277
-89.2908
-96.1633
-52.4865
-54.7368
41.4578
202.774
277.48
215.834
36.1831
-116.342
-83.5894
-30.9257
-19.5097
-23.0475
-10.8034
17.8222
48.0784
50.1919
43.617
56.5635
50.944
45.02
-6.13355
-58.9751
-89.6777
-145.504
-156.245
-20.7437
69.1299
49.0055
-14.0272
8.70241
44.6296
27.167
-2.89979
51.1533
66.7689
86.2128
138.795
45.5964
-36.5244
-55.4143
-83.8265
-119.544
-86.842
-53.2851
5.21865
8.01205
-45.3029
5.68144
36.3276
-34.481
-51.3586
-4.70179
26.7014
10.6972
4.90059
-69.6124
-138.8
-108.205
-4.68769
74.1773
84.7492
134.371
118.572
55.2469
-38.5693
-112.118
-76.7725
-52.0347
-10.053
54.873
75.1858
70.56
103.811
94.0762
20.4698
-12.8737
-32.7612
-18.5589
-0.416329
0.38442
-2.30399
20.5623
75.0695
118.715
61.4641
-35.56
-91.6467
-104.955
-36.0247
36.9267
53.6331
83.4544
42.5219
-74.5082
-113.631
-102.567
-37.6971
8.49115
-41.6213
-52.8369
-35.4212
-100.944
-124.442
-89.5928
-84.0982
-68.1714
-7.08664
149.12
210.13
69.3987
-11.064
-18.3266
-32.4062
-13.8018
32.1949
84.4374
63.5363
32.3907
36.1954
42.3799
19.2448
30.9443
32.1825
-4.92745
-51.3406
-13.3064
14.1543
-50.5281
10.7346
154.291
87.6085
30.4144
69.2299
65.0737
-31.8715
-75.1175
-68.1018
-81.6047
-69.9042
-62.9658
-74.7389
-28.3263
17.3411
22.7134
43.9303
-33.7808
-88.1527
-108.149
-160.182
-133.329
-5.40354
76.7343
64.063
37.7555
37.4036
15.0812
-8.95707
0.294952
14.9994
16.9755
65.893
155.633
171.022
36.6364
-34.2366
28.3731
4.20524
-9.41046
72.9623
89.2507
127.318
51.3258
-70.392
-110.121
-79.0757
-56.3354
-49.2861
-56.1625
-69.9212
-64.8875
-88.8049
-160.757
-172.226
-21.9877
93.7754
71.8164
41.6021
62.3171
29.5858
4.03945
14.3603
-5.94984
-46.0049
-30.0496
69.0927
110.824
85.5878
80.364
39.1732
-9.02159
-2.50402
-13.8746
-24.9554
-10.5108
49.4171
99.439
111.829
19.7667
-82.5119
-126.7
-167.696
-114.542
-41.1279
-18.0568
-14.2252
86.9223
163.376
49.9384
-20.7864
9.24143
16.9761
12.4198
51.1753
47.2197
18.6217
-42.8426
-91.9116
-82.4881
-87.1739
-105.169
-113.667
-97.1328
-39.5366
13.726
5.37159
-1.64326
-12.751
29.9896
98.5489
90.4424
100.628
84.1276
-16.5906
-26.4221
24.3509
37.8665
78.5029
80.9504
25.3071
47.6692
23.768
26.5661
68.6173
89.3083
92.6637
35.8636
-106.984
-81.2952
-14.8744
-14.6796
-79.9726
-130.473
-154.002
-138.995
-110.426
-81.8504
-60.8276
-21.8378
35.1772
26.2433
31.0833
10.4602
28.9724
14.3793
-66.9461
-120.671
-37.1135
6.68446
111.278
237.677
195.856
130.508
106.429
59.8013
-6.85489
-1.13586
18.7646
9.76501
-38.5983
-54.5101
-72.0375
-114.393
-139.564
-143.238
-78.9175
16.7436
92.1166
138.773
61.0985
-67.1489
-42.478
50.1619
68.3621
45.8957
52.0381
77.9632
36.3213
-83.1878
-84.0295
-60.7225
-86.8427
-127.185
-123.556
61.2043
258.16
224.276
43.497
-30.7177
-3.91397
-36.5552
-49.4527
-92.1926
-104.111
-30.312
-5.0841
-85.5436
-138.296
-86.408
-57.0156
-13.5644
98.0637
176.446
192.995
136.451
-43.8078
-168.997
-110.288
-48.5821
-64.9607
9.59421
99.2706
85.7909
38.1967
-11.3465
36.6036
106.195
119.648
146.884
127.186
-2.09917
-74.7985
-63.2511
3.91891
28.5135
51.2743
37.2096
-9.25914
-88.4754
-125.299
-184.642
-244.059
-177.022
-19.5438
58.7229
-64.6185
-134.09
-20.7643
122.669
148.219
92.69
-13.8687
-18.4427
16.0984
43.5051
40.5497
94.0586
141.897
82.2239
-0.264004
8.39019
12.5342
1.76994
-9.39947
-73.2124
-90.8188
-2.43223
40.7242
-91.3166
-148.091
-27.5041
88.7578
88.8517
-29.8719
-64.8426
-12.697
27.3964
59.2127
61.0286
69.1948
81.2851
-5.06856
-111.543
-129.967
-98.149
-3.03361
59.7575
50.9482
90.141
139.303
132.842
98.3177
44.6405
16.8754
-47.8127
-151.655
-200.545
-124.223
-12.5164
-22.1663
-38.3739
18.2972
56.1117
42.6151
1.97847
-12.5781
-24.2784
-93.5282
-123.276
-76.4085
-19.9001
-16.5021
8.79812
3.1734
-31.4363
-8.37166
25.8593
6.67594
20.294
101.506
119.163
113.817
97.5836
-15.3587
-49.08
44.3222
134.486
174.837
194.222
103.561
9.48183
-56.0814
-170.243
-196.671
-169.818
-136.513
-77.9329
2.56312
134.161
160.58
38.8415
-6.97942
21.7548
48.9766
53.2674
-36.9877
-119.116
-167.815
-216.021
-177.475
-146.507
-4.44365
177.572
162.081
103.055
20.4955
-20.3778
-85.3486
-165.517
-178.188
-97.6804
-7.22096
63.3896
143.95
209.709
166.164
60.416
42.7965
74.8833
81.126
92.7317
66.3362
24.6047
37.7523
60.7688
17.9595
-74.5492
-56.8668
-76.9058
-131.802
-120.646
-71.0499
-64.5641
-49.1185
8.47312
103.5
164.361
125.401
95.5443
69.3709
13.0044
-70.0973
-159.739
-139.277
-153.548
-108.891
-32.6571
-25.5971
-42.7058
-21.3138
-10.4196
8.5427
49.7187
77.5192
11.7326
-56.6739
-95.7725
-81.7222
-99.1775
-110.076
-11.0036
113.071
151.562
115.062
149.424
188.581
175.582
125.596
53.0132
9.357
-6.8594
-31.7042
-25.6094
-44.2055
-55.0674
-38.6233
-21.2271
-2.66223
-23.8034
-47.9626
-59.2847
-78.0972
-65.0417
21.9387
75.7075
21.6979
-17.6431
2.67823
44.1938
-0.366112
-71.7446
-80.0461
-73.7654
-112.22
-65.229
7.76911
51.9248
109.699
168.808
127.405
-59.3369
-248.953
-162.834
1.6445
70.1046
113.951
54.5946
7.45724
13.0622
23.9913
24.5583
-8.90791
3.28295
136.462
164.323
60.0886
-76.3635
-156.617
-136.91
-142.223
-114.506
82.9891
154.385
50.4365
-74.2666
-105.494
-42.1977
7.03193
63.4296
112.454
131.385
90.4655
-23.5916
-108.815
-151.46
-131.602
-45.7414
78.3139
196.57
200.735
144.945
105.294
19.0506
-70.3325
-113.413
-86.3538
-75.0105
-53.9904
-65.0685
-70.2421
-7.79065
-6.23024
-19.1431
-33.3586
21.2998
-13.1734
-64.6603
-25.6943
-58.4175
-41.5267
49.4317
31.9135
-18.459
-16.2055
-13.0274
1.46402
33.3551
45.3447
68.4169
72.5003
91.7433
150.965
146.902
80.8678
-25.5402
-79.4694
-85.6278
-118.631
-137.99
-50.4839
27.1438
2.49845
-2.98457
43.849
105.044
82.8888
34.4401
-50.0614
-114.564
-73.5012
-32.749
38.9201
139.338
141.152
33.4798
-46.8778
-76.0291
-88.3814
-93.8884
-88.0879
-94.8264
-103.77
-98.7812
38.5365
136.785
63.9265
-52.5223
-27.675
29.6306
59.0993
4.97035
-120.064
-152.667
-63.8836
63.3536
130.382
119.633
86.3877
49.5065
22.8509
9.48113
26.1883
111.456
80.188
-91.0175
-8.45829
202.712
160.374
66.2952
-2.42474
-94.2734
-72.8444
5.79693
-14.1701
-29.3243
50.2117
2.61445
-125.292
-128.074
-53.0865
-49.1419
-78.6007
-122.157
-137.9
-45.6371
-14.1341
2.11051
56.2655
-1.90251
-95.0723
8.30291
77.7988
-25.3429
-76.515
-53.8858
-26.8975
42.6154
53.5891
37.8271
46.0518
108.781
134.606
63.9268
-10.6177
37.1153
56.0901
75.5071
89.2794
82.9378
85.6521
11.7447
-40.2499
-27.7422
-13.065
-55.0984
-132.77
-118.949
-18.9111
76.7923
78.8009
98.3384
148.543
92.1134
-52.3778
-168.71
-155.825
-131.739
-172.565
-130.225
20.5929
204.595
231.724
113.19
-46.9256
-150.115
-127.004
-116.603
-106.21
-75.1408
-52.7409
3.88036
-47.4154
-74.4524
34.7716
66.2315
33.0738
30.8196
1.97384
-27.7998
-12.5421
-6.21889
7.18098
28.7897
60.291
157.377
218.278
235.681
180.276
74.213
-25.4136
-76.9596
5.04915
94.5577
113.744
41.1547
-71.5584
-139.22
-99.2388
-55.7694
-122.74
-176.622
-137.121
-84.2378
-7.16839
66.506
50.3055
-23.4772
-74.4162
-84.2468
-34.3191
-37.956
-31.683
27.7311
5.28956
22.1279
23.2514
0.776967
12.3345
16.5169
-4.83117
-12.2227
22.2576
132.194
237.1
105.697
-25.4612
-36.2311
20.1491
34.9682
13.4259
-17.3325
-72.6705
-94.6861
-51.6241
-63.0512
-72.7835
-27.0875
64.3246
96.6761
94.2315
75.3168
2.69331
-67.7479
-117.113
-96.9916
-76.7714
-119.887
-83.7973
23.2052
101.306
172.53
290.474
288.463
96.4681
-51.7968
-35.8096
-62.5068
-127.165
-115.129
-70.8485
-155.997
-173.015
-83.4233
0.416094
37.688
29.9877
91.4328
80.0996
-15.4828
-75.2537
-75.7185
-70.2302
-102.018
-104.964
18.6846
95.699
35.1116
-45.5139
16.4317
173.577
236.861
120.852
25.6982
-22.0328
4.94451
43.937
49.6599
3.79596
-24.7011
22.2487
1.06453
-47.1571
-41.5342
3.86489
39.2465
96.2487
167.113
105.602
-5.45617
-138.728
-177.206
-159.595
-134.855
-83.9255
-67.9309
-34.8494
-12.5656
1.2818
-8.43549
-43.6719
-68.7084
-97.6999
-110.145
-64.714
10.7145
14.3154
3.61203
52.9856
126.125
184.464
150.488
136.936
93.5585
58.4356
-14.3577
-38.1917
72.6899
161.895
102.228
-10.5836
-49.8087
-82.3045
-79.2771
-80.916
-134.83
-113.858
-8.38321
66.7507
2.94515
-57.9519
-46.4797
7.13175
29.0666
7.91607
124.197
178.289
22.7809
-197.449
-211.097
-94.4358
21.6276
116.788
162.539
190.725
180.076
63.3857
-51.2336
-131.004
-167.047
-168.91
-139.293
-139.254
-118.527
-104.61
-96.6363
-50.3986
23.2471
109.855
149.293
122.91
55.2594
11.5033
-18.3776
-26.1833
38.7268
70.2791
47.0223
98.6552
82.7225
-45.5371
-49.0938
41.6373
63.4101
48.8058
56.9923
76.8448
77.974
46.9878
66.9679
109.803
60.262
-57.4969
-84.2164
-55.6881
-112.049
-119.568
-106.431
-127.025
-59.3304
52.6394
45.311
-25.1062
-37.4672
-9.35054
-62.1306
-142.082
-156.323
-95.13
-67.3899
-124.033
-89.8919
56.7271
155.488
245.447
219.319
122.486
62.9585
-17.4085
-93.3428
-76.6669
2.11436
25.9256
26.1991
58.7905
45.1212
9.33865
46.7077
147.937
175.417
76.1749
-45.717
-91.6395
-123.575
-199.668
-182.123
-112.478
-46.6532
35.8191
103.594
102.699
86.3763
51.1444
-17.7353
-106.982
-80.0437
50.9585
61.3993
-19.3493
-80.4274
60.5671
280.137
207.683
26.7502
-53.8545
-61.5995
-93.5657
-158.681
-145.947
-108.008
-73.5833
-57.7067
-5.64709
67.3704
64.4133
9.82037
-23.4585
-0.995168
31.1342
28.3201
-13.2386
-108.767
-103.408
-65.2835
-105.716
-40.4822
49.2123
59.7102
101.546
217.359
333.504
305.981
177.828
123.681
39.1946
-54.4244
-109.908
-143.423
-191.268
-189.725
-186.72
-213.343
-211.359
-81.6937
124
207.345
151.814
136.723
98.5795
-42.341
-174.779
-164.504
-112.355
-106.407
-30.1632
70.5709
54.4052
42.0036
83.3374
106.705
103.62
78.2366
47.942
27.2754
-26.7737
-120.69
-93.0762
-53.2639
-62.8458
-41.2538
9.98557
68.7975
166.008
127.088
60.1512
32.0869
-4.60682
-44.0007
-62.0627
3.3434
28.6442
11.4242
60.6038
77.5857
37.7611
20.8427
42.6438
26.9794
-63.775
-105.543
-142.477
-235.722
-259.146
-180.205
-67.4703
54.0888
90.4367
37.9235
27.4581
-36.7318
-21.0727
74.1279
92.6906
69.1435
24.4054
-47.12
-75.0557
-34.6384
63.9447
146.575
190.302
184.309
91.0384
58.1593
55.503
-28.7088
-116.974
-81.6245
-34.2528
12.559
34.5881
-17.1784
-82.9534
-80.6868
-33.4944
-31.7736
-56.102
13.5849
135.624
153.072
32.3357
-33.6174
10.5408
-17.0478
-11.5421
-27.6861
-76.7407
-47.8196
21.6577
-58.7224
-96.2769
-43.4405
-1.97229
19.5363
-16.9919
-11.3391
6.65769
-47.4299
-106.448
-136.265
-71.6355
-22.453
-76.7476
-28.2173
11.2488
27.0052
151.018
280.418
272.584
130.141
25.9887
-25.9603
-25.0644
-46.0574
19.5454
109.814
168.926
73.8286
-15.9858
-44.5674
-86.8457
-122.915
-83.2735
-61.3637
-50.6779
-44.5922
-43.3214
-102.164
-162.194
-65.2267
45.0793
112.153
37.6742
-86.545
-114.413
-63.8482
-16.5797
34.04
53.4654
97.2028
84.3975
48.9175
52.5329
77.5149
77.0039
196.798
258.418
90.6249
-136.282
-224.993
-218.582
-170.46
-84.8452
15.3191
153.831
151.989
35.1314
64.9495
42.1327
-53.9804
-103.597
-129.839
-79.1348
17.7348
18.2654
-161.384
-220.538
-89.3129
48.6945
134.189
123.771
8.54112
-46.6649
22.9125
34.8517
11.6147
30.9492
34.8484
54.167
62.5876
89.6853
100.653
57.6939
-35.3298
-122.14
-102.09
-70.1053
-52.8074
7.16198
130.922
218.898
238.072
215.41
71.2007
-87.863
-173.839
-244.664
-251.864
-212.704
-189.934
-142.746
6.41847
157.114
226.421
252.575
158.981
8.15921
-76.7582
-99.6992
-133.072
-154.714
-134.848
-119.181
-86.5102
-36.2309
77.899
222.915
226.776
149.407
83.7051
42.2739
51.0149
25.9607
-52.189
-105.775
-66.2335
20.2013
59.5125
42.3528
-49.3006
-128.94
-110.485
-32.7055
74.2231
65.9044
33.8951
10.6915
-55.8906
-111.598
-53.5985
8.37898
17.6823
-40.5429
-57.1721
-12.6278
75.7796
117.933
82.4973
128.38
188.477
130.135
37.7671
-37.7342
-134.76
-199.146
-159.576
-105.137
-51.5633
107.009
143.413
82.7217
-0.364332
-88.3114
-174.92
-162.345
-92.1179
-31.1274
-24.5756
-98.2938
-72.793
124.149
212.324
114.935
73.2304
126.229
91.0378
-20.1608
-63.806
-62.4813
7.55359
73.9477
78.4104
78.1913
72.4813
-22.9523
-92.0823
-56.307
-12.2009
-14.3172
-27.4688
-57.5995
-94.2584
-14.6857
43.5016
27.1062
2.66992
3.76688
30.7109
30.4318
-39.6561
-85.3907
-94.1821
-112.904
-60.1251
43.268
65.0916
55.3343
164.368
145.986
45.9889
-40.4398
-60.7106
-22.183
-28.4348
-73.6977
-88.421
-43.5817
-43.0947
-49.6617
38.776
94.919
119.624
162.517
82.8778
-52.0191
-49.1887
-10.8578
-28.847
-30.8081
-39.7359
15.2676
80.6058
88.3718
52.3887
-26.5337
-62.0859
-29.4522
1.71176
-41.2255
-96.2817
-98.9046
-129.315
-128.672
-67.8633
-14.1713
-1.72693
-3.38691
1.47299
60.4044
124.431
67.856
27.2292
38.0712
56.1868
87.4161
44.7635
-21.0513
20.3803
106.729
16.664
-75.1804
-45.1508
-13.906
43.168
105.248
103.747
56.5567
0.037702
-4.67885
-15.6281
-96.2496
-135.972
-137.65
-160.171
-135.877
6.55981
102.82
51.3607
-16.34
1.87275
130.854
205.215
124.968
32.2088
-3.90034
-30.3987
-72.4635
-142.229
-143.386
-115.635
-102.888
-97.5503
-30.4266
25.8842
51.0352
37.3256
0.962236
9.949
33.1652
55.3184
-10.5994
-26.2648
35.335
43.1626
16.9496
-18.8271
-24.9392
4.95474
77.4431
119.336
156.073
187.39
124.154
79.0876
78.2211
-5.95502
-84.29
-101.237
-112.479
-98.997
-93.0015
-119.528
-112.114
-29.4863
48.4252
22.3836
-43.657
-28.9672
46.9374
24.5783
-30.973
-42.0095
-59.8779
-37.3682
-2.88721
32.6035
35.3397
33.8453
44.107
26.9578
-9.98915
-60.9225
-26.8153
28.5704
18.5592
4.72934
4.76143
-56.9425
-67.1509
-9.12384
12.5298
23.3306
17.2021
0.194296
13.0638
72.7723
136.528
161.947
128.662
-14.5829
-93.0654
-84.5004
-38.3616
-9.08252
-29.6034
-20.5954
10.8785
82.9053
10.1399
-68.9013
-46.2661
-68.8518
-73.8751
-23.0228
6.54452
-4.41031
-28.489
-48.0385
-23.6683
151.907
186.536
112.173
44.8395
-33.6445
-94.06
-68.6253
-30.4416
-48.0294
-27.8432
10.6982
-21.8713
-56.291
62.4802
138.093
72.9147
-24.6204
-47.6732
-60.2032
-100.425
-92.9123
-6.8119
38.9324
-13.9002
-107.611
-148.16
-115.079
-26.5327
94.6587
179.639
202.869
195.85
141.428
6.2435
-95.1696
-113.979
-81.4694
-30.9134
-4.75334
-20.9147
-90.1237
-105.393
-25.6752
52.2118
113.064
184.831
163.172
82.5534
18.384
-69.4487
-54.4738
-29.6631
-60.1598
-42.7509
0.804132
-51.2386
-66.971
0.918828
37.7314
20.9989
-9.3056
-29.5448
-25.264
-21.8714
-1.15303
11.852
-16.2745
-4.57145
-20.0742
-28.0268
-53.829
-95.8767
-67.6345
-62.1917
-45.4135
69.8773
177.844
157.778
105.616
46.8142
57.0963
178.267
226.046
96.5947
-24.6586
-110.126
-128.311
-78.6376
-42.9063
-107.576
-187.796
-159.26
-88.2354
-56.3045
-48.5897
-20.2154
-39.101
-15.9068
45.6188
115.559
51.2829
-89.529
-161.264
-84.5888
13.6121
116.903
233.54
233.307
191.024
91.6669
30.7537
32.339
-4.99669
-30.1425
-24.3314
-20.3238
-30.8644
-70.758
-101.132
-82.5475
0.68956
49.0031
10.9755
-7.20923
-16.7597
2.95229
-21.2161
-91.7134
-180.497
-130.666
-23.1423
52.7088
116.304
101.641
66.9151
15.6604
-13.2404
-18.753
-31.8095
-4.67713
8.42971
9.74036
63.4823
83.7769
2.32186
-53.6058
86.0461
224.694
159.325
48.8629
-51.8691
-110.264
-61.1067
-6.07831
-72.4179
-130.113
-101.612
-122.888
-132.541
-73.9604
-17.8326
-18.8188
-22.3388
1.62497
45.8304
76.0595
-8.17762
-133.633
-96.9046
10.6472
92.6677
79.424
37.5097
99.8761
174.865
109.396
-3.013
13.0867
94.8258
86.1378
100.216
119.395
55.4776
-10.6958
-12.4175
-39.1066
-141.946
-225.254
-193.97
-139.917
-63.9932
27.1779
45.0844
13.6346
16.5852
133.576
195.59
124.828
48.1349
-11.1184
-94.317
-154.979
-134.471
-115.682
-86.8489
-50.7368
-4.18512
36.7555
60.6038
62.2175
27.3043
-11.8999
-1.52535
-23.1721
-58.7634
-48.551
-34.049
-9.79925
37.6397
69.6584
63.696
44.6951
72.639
79.7678
45.8558
9.24254
7.32225
66.863
91.1087
76.3897
56.2555
20.0451
-15.208
-53.4521
-89.4569
-130.974
-114.689
-61.7577
-48.5312
-89.926
-121.84
-115.742
-101.533
16.1855
206.098
213.513
101.436
23.0353
50.9852
77.3263
114.072
115.973
5.26025
-67.6206
-85.1014
-58.4141
-51.0603
-107.372
-127.465
-97.5033
-17.3476
8.92882
-27.6147
-93.5345
-155.953
-71.8593
-7.28373
51.2049
122.245
175.209
132.412
70.8789
46.7816
-13.2281
23.47
37.9829
-33.6882
-23.2858
1.29647
20.6897
46.6402
78.9698
55.6537
28.8389
9.98506
45.5102
40.1498
-23.6555
-75.8549
-115.796
-136.1
-94.5174
-53.615
-7.14764
20.5897
27.4437
31.1914
46.2641
66.7131
54.581
-13.2647
-77.1519
-77.4805
-15.2889
20.2346
-31.3181
-55.6938
-86.8525
-89.5513
-24.1095
45.3865
12.6286
19.2244
101.391
85.1703
57.7351
60.0589
25.2685
22.4293
17.9771
-5.41149
8.20913
51.1805
22.3346
-54.4051
-89.2629
-44.3996
-13.4388
-44.181
-78.5759
-30.9213
13.1843
38.2463
42.2883
53.0172
41.012
33.8944
20.4011
-27.6803
-31.8899
5.04061
52.2695
29.461
-12.7032
-5.46531
38.2606
-1.32905
-89.8534
-65.1217
33.9453
21.7022
4.48129
-27.2598
-52.5731
3.49996
115.879
124.624
33.3366
-41.6394
-88.5586
-104.231
-58.9634
-30.2014
-26.2247
44.4798
59.3177
17.5975
23.1324
-22.8501
-88.6142
-101.431
-80.5463
-27.972
2.77689
17.2098
32.9703
101.558
94.1922
12.3933
-25.6731
-23.7741
-38.3613
12.4821
44.091
42.6685
73.7329
103.475
89.5889
47.5359
13.3554
30.3702
16.2994
-48.1046
-65.854
-119.596
-127.755
-55.1047
4.34188
-9.17465
25.161
88.9789
103.16
71.8677
12.3898
-99.8623
-179.046
-128.597
-55.9827
-16.7327
-11.7108
-9.14928
24.4854
72.5473
62.2426
33.7308
-27.3161
-75.6463
-1.55972
98.8615
88.1511
39.3773
65.1522
61.6592
20.3846
-26.5416
-21.0916
-26.7303
-22.9322
-21.1299
-53.2856
-69.6923
19.0195
181.713
205.531
104.165
19.438
-70.5172
-126.965
-114.317
-111.223
-132.672
-154.186
-129.827
-105.467
-30.1694
-26.4017
-0.610497
95.6482
166.944
180.056
155.526
87.4927
-17.3559
-129.36
-158.01
-110.862
-4.59707
24.3366
38.2918
65.7291
128.56
154.506
101.577
70.3938
81.8683
57.305
-0.20639
-70.5676
-76.9871
-40.0493
-107.847
-172.617
-147.514
-58.8831
51.4571
43.2458
-43.6438
-62.7195
-17.683
35.6275
23.1806
-2.93646
41.1683
55.5576
2.37948
-31.1431
-29.5252
28.3652
148.46
139.606
147.916
97.24
-35.3653
-78.5876
-28.1374
-26.2125
-69.7397
-90.5736
-124.536
-27.0361
23.075
-23.7435
-91.9237
-39.4581
51.2249
114.737
175.614
87.4035
-60.2022
-99.721
-110.57
-86.9089
-67.973
9.25133
28.1859
-3.63152
-21.3979
-34.9302
7.02795
-26.8122
-44.9441
-58.2598
-51.3223
12.5809
56.6679
58.4566
132.093
286.317
237.304
102.204
31.5533
-19.1723
-108.221
-150.415
-133.234
-80.7343
-12.3602
72.9039
129.066
112.151
1.67507
-42.7357
-44.3119
-44.8727
-127.772
-153.236
-98.4873
-136.594
-192.88
-112.287
-66.8418
13.6391
144.462
135.692
79.4644
122.939
130.492
35.2083
-63.9237
-57.5186
47.0729
135.052
196.368
176.466
125.013
35.7831
-135.536
-117.259
0.672937
-36.549
-69.3376
-29.7964
48.9358
91.8782
81.9989
18.685
-103.566
-92.7296
-31.0161
-64.1617
-60.1012
1.43798
-65.1933
-154.556
-162.394
-76.5471
29.4309
-47.3003
-116.182
-78.7955
-12.8803
16.0814
9.87368
-11.7002
-0.0201116
49.7906
134.876
118.988
37.8579
39.9815
134.015
132.206
65.7356
48.8878
50.2407
31.3532
6.39543
-1.57384
3.0042
70.9929
98.6339
7.7181
-25.2754
-11.127
2.33884
-5.36446
-25.2588
-53.692
-19.7223
43.7582
-22.9969
-151.872
-45.2518
-13.6356
-102.524
-84.9225
-55.6505
-20.0181
66.7233
54.969
-3.30609
-47.2345
-78.446
-28.3715
47.6243
-2.17868
2.14027
47.9579
-6.70054
-104.277
-142.51
-95.874
-88.5141
-32.4859
78.2919
68.0574
47.0431
140.042
144.648
126.631
119.851
74.3075
13.3434
-72.9807
-154.678
-77.5381
-13.9332
-54.5696
75.1535
174.065
131.357
97.9296
99.5876
82.6526
41.2014
7.40585
-93.0177
-194.292
-139.893
-99.4195
-101.102
-52.4584
-43.1539
0.128135
3.75559
-93.4718
-34.5857
97.138
34.9317
-31.8628
-31.031
29.806
72.7255
67.8314
55.3773
4.77539
-5.23708
-44.6867
-129.417
-94.1888
-27.7792
-1.55912
51.0997
98.9945
92.6671
67.9124
-3.14898
-14.8151
7.39745
3.37094
31.8772
12.2332
13.0622
-23.2624
-31.2657
-3.35364
-18.5657
18.5895
79.1041
104.122
84.198
64.1428
-8.50305
-137.001
-158.144
-97.1456
-71.9
-77.1684
-12.7844
176.47
244.476
28.7257
-153.714
-102.17
41.4246
70.3208
51.3705
15.9176
-157.452
-262.726
-143.269
29.7635
121.338
117.763
31.4494
-1.03018
35.4519
43.4631
-36.0495
-197.823
-202.449
-70.1043
34.9224
165.719
112.542
22.7995
84.1223
68.5836
21.1706
0.328276
18.1395
46.5818
35.883
59.0809
126.512
99.6589
44.2166
24.8992
-11.2182
-67.8275
-95.8338
-35.5507
-34.4553
-69.4522
-69.5211
-85.0278
-94.4915
-27.5669
51.1349
79.2566
45.9811
-79.4878
-97.7943
-6.86796
-16.1506
-1.58559
-0.524974
-35.344
-8.20649
97.8048
93.039
50.0224
9.16952
-53.0249
46.3016
190.141
74.594
-94.4437
-135.148
-103.962
-82.3792
-39.2984
63.0674
30.6763
-15.3148
36.3543
150.294
186.21
29.1733
-57.4679
-118.395
-140.381
-67.075
-63.3799
-105.708
-62.4309
43.0754
123.532
151.918
65.9243
-31.7544
-71.2266
-116.202
-111.218
-29.8473
26.6141
-5.68239
-29.5156
10.5293
-11.3252
39.0859
131.828
178.199
105.312
-13.0271
-31.6624
-1.30684
-30.0613
-27.5955
31.5912
38.8057
57.9101
9.71548
-73.8792
-16.1158
-1.68762
-53.8019
-23.3138
73.4231
60.5802
32.1255
46.091
-10.2313
-51.1121
-82.1272
-122.01
-72.1315
12.0576
-6.29695
-87.5965
-27.8074
100.375
102.804
-10.4713
-43.3678
-5.6308
-3.18151
-55.342
-90.2754
-57.661
8.6572
46.7679
-20.5977
-27.1095
63.983
121.683
126.476
64.5455
35.8218
60.0339
16.1684
-66.4137
-52.4236
36.7129
23.7535
-30.5474
-61.4591
-71.9775
-45.6879
29.8928
41.0178
-23.662
-3.98938
35.4955
-58.2769
-163.358
-108.805
8.759
55.6214
58.658
-9.64254
-66.2273
-66.6718
41.9951
79.9749
41.0703
40.5608
63.7873
90.2831
65.1558
-8.79248
6.17019
48.2628
-5.68937
19.3385
64.0886
-41.4476
-125.877
-57.7652
30.478
51.1636
19.3771
14.0078
-14.4371
-43.3549
-14.9919
-49.7856
10.5788
42.2052
-16.2438
-42.7419
-19.8692
26.3905
76.8696
77.2989
-8.57707
-120.392
-163.957
-144.111
-25.7502
32.7102
-8.83029
12.4014
18.6481
60.2188
68.4542
63.3084
90.7375
156.139
135.24
44.7121
-73.9421
-162.594
-216.299
-177.14
-96.704
-32.9234
76.5817
147.138
96.4798
84.3269
106.89
55.5719
-2.22558
-21.587
-78.5178
-90.9985
-75.643
-55.146
-14.0622
-17.9776
-108.453
-131.437
12.4024
111.453
148.433
176.6
178.604
111.795
3.19663
-16.3661
-10.5528
11.6808
2.34232
-38.2517
30.3195
57.402
-39.4015
-162.674
-177.098
-90.6879
20.5383
28.4506
-26.6203
-18.7219
49.5232
60.1824
-36.4073
-104.145
-98.5434
-94.993
-32.5474
8.4773
44.1973
39.688
19.1552
51.2883
40.2923
-20.1226
13.9076
70.3136
64.1281
73.3291
85.9007
11.0702
-64.2925
-70.275
-15.2535
-4.57155
2.08777
105.193
153.284
86.0973
48.3715
-2.23358
-105.746
-117.311
-62.8752
-18.1534
-19.4002
23.9749
70.3514
28.5975
-25.4882
-57.3604
-90.8441
-84.2647
-83.4126
-68.5857
-50.4725
-81.3746
-28.69
44.0941
117.321
165.812
60.4913
-33.2864
-23.3773
2.92421
-30.8752
-56.5386
-68.0837
-35.3654
20.287
33.0007
75.7695
27.6312
30.4298
119.819
110.899
25.5481
-34.5626
-59.9841
-74.9575
-40.6415
-13.7063
-21.8166
42.9364
69.343
71.233
68.2857
34.722
16.7595
70.4012
86.7427
31.3725
47.0857
-2.57409
-99.4624
-162.408
-236.04
-289.098
-205.207
-66.2672
15.6281
121.425
158.991
99.5131
51.1528
-7.45705
-66.573
-45.7364
-10.8354
-24.0198
17.6756
21.497
12.1129
31.3335
31.5725
37.0095
100.06
147.769
88.84
10.843
-37.5363
-39.2474
-31.5687
-40.7729
-28.5132
1.54867
67.6306
53.3542
-13.2013
-61.3496
-70.9039
-20.9765
23.9222
76.2813
172.032
160.125
67.6045
-52.3458
-104.501
-106.018
-167.746
-185.265
-121.816
69.234
210.995
163.136
-40.3676
-167.919
-83.7708
-35.5597
30.0157
128.031
129.352
-43.4685
-180.663
-155.913
-111.749
-72.7577
-36.4627
-22.5079
47.9315
92.6128
75.1634
-61.2875
-137.847
-76.0786
-13.3202
78.4086
100.905
77.0136
39.7302
39.0696
78.2371
47.9632
-22.7644
35.358
130.531
169.898
116.812
54.2709
28.7842
91.149
131.953
58.1058
-36.8548
-91.8307
-69.8561
-39.4847
-60.1658
-83.1793
-134.465
-189.029
-146.258
-53.3193
26.7614
53.0216
56.0498
61.7087
40.4577
-4.29946
-66.8142
-66.5341
28.252
52.3765
-25.5812
-64.3866
-65.1828
-71.8951
-65.1461
-16.5821
48.8482
-12.7207
-95.1006
5.79191
64.9619
21.2827
-19.5303
-10.6096
94.7831
143.685
104.302
-4.39308
-111.466
-134.622
-69.0289
-14.6793
29.8886
66.7238
98.9882
107.551
107.978
97.2034
44.5486
-10.249
4.7031
94.3433
43.4832
-90.0728
-44.4562
-21.8026
-29.7275
-81.8828
-140.838
-100.738
10.1286
66.3752
90.3354
48.1018
-6.58223
35.0803
48.9201
33.8676
47.4389
53.3401
28.6288
-56.166
-117.418
-81.644
-132.342
-159.67
-125.944
-42.7859
-9.81207
38.5283
115.123
92.2792
12.2067
32.9205
60.4546
5.46409
-81.4039
-82.896
-74.0063
-65.3556
-23.2235
40.5756
142.386
178.003
102.287
66.5928
77.9782
71.095
19.1111
-15.8804
-48.0162
-40.9237
-66.7526
-145.9
-142.606
-90.8076
-23.0566
16.2358
14.5079
14.9733
57.6715
42.9983
10.3821
-2.74574
-9.31778
9.43914
25.9099
20.0819
46.174
55.6057
-14.0136
-57.4763
-1.14384
87.0578
144.446
156.004
55.7134
-37.4853
-67.7844
-56.434
-106.777
-97.1959
-45.2109
-16.1529
2.39587
24.1179
-1.01143
-36.2071
-42.9884
-46.4219
10.0803
-3.25687
-27.1136
-21.9418
-4.08325
-28.6002
-54.9858
-33.8812
-9.02385
53.6882
114.462
26.4525
-47.4592
-83.1688
-56.9366
-14.1825
2.06378
31.6274
55.8659
65.7512
43.834
-0.562778
7.45228
111.878
122.838
21.7146
-39.3216
-16.5087
19.1266
-21.602
-52.5355
-9.32931
30.7499
58.5562
37.5206
3.66045
13.0302
-4.3311
-16.4643
-44.7535
-75.2335
-14.9646
17.8889
-44.0643
-115.116
-83.9705
31.907
72.6006
50.3099
38.5032
-9.15654
-25.392
4.16642
16.5814
4.39301
-26.7298
-46.2535
-27.8813
-43.1312
-36.9648
30.7639
100.719
105.725
40.1797
-93.0329
-123.4
-62.7706
-42.7499
19.5904
73.4571
36.9752
36.2638
37.1251
-24.9446
-49.6697
-2.64021
116.161
143.701
62.6256
25.5432
8.30761
-113.991
-173.645
-110.569
-10.4962
-7.87634
-39.9672
-2.95236
50.1003
13.0489
-19.6374
-12.004
17.2869
45.2203
29.3927
18.7184
5.52434
-18.2988
-8.31905
-24.4845
-12.6953
101.99
112.277
53.9313
20.0068
-6.36826
-17.9337
-8.25503
21.4431
50.0527
45.3811
-6.9844
-28.3382
-43.9624
-60.2994
-78.982
-86.0671
-44.3466
14.5069
5.84135
-53.7913
-87.614
-39.3112
-7.51849
28.5863
66.7905
62.7229
31.9615
-30.3337
-75.0956
-63.0334
-45.9081
-8.82812
75.3334
119.761
97.3296
57.9973
100.005
109.385
39.9444
-83.7622
-131.586
-113.465
-116.98
-82.2775
13.9623
74.8851
63.0379
37.3211
77.9828
104.933
58.1074
-18.3087
-26.3248
42.7879
37.5962
-18.8394
-95.2163
-114.107
-95.1325
-39.1691
55.325
30.3115
-13.3585
0.331011
21.1293
54.1192
5.33921
-144.638
-182.368
-111.204
42.886
145.958
116.101
17.5658
8.40678
-31.2632
-118.595
-36.8356
112.753
113.605
34.1157
34.0445
31.8987
-18.2817
-56.327
-58.1253
-15.5954
55.545
47.7743
40.6197
39.6874
-16.1619
-92.6992
-45.2279
15.2508
29.8521
40.4918
-16.1647
-38.0193
-14.6111
0.853658
20.6626
59.0763
124.877
176.691
68.2244
-22.5495
-26.5234
-22.306
-87.25
-145.5
-159.496
-178.643
-80.2164
29.7763
26.9391
-2.78931
-39.411
-34.5884
5.30714
49.8298
81.3067
41.19
-23.0508
-0.248387
26.1223
20.4449
29.6208
-5.91095
16.0349
-1.90775
-6.82734
145.039
140.781
-9.14252
-74.3635
-60.5775
-41.1358
-93.9089
-81.2675
-13.7157
83.0511
180.281
146.966
9.6296
-9.75188
-57.1534
-88.8558
-29.9503
51.4319
100.488
70.9212
-14.7601
-112.845
-116.733
-44.5817
46.9732
63.5818
27.8124
12.9485
-10.1474
-121.353
-186.151
-142.617
-111.696
-104.721
-0.410599
72.6213
83.9936
55.6248
9.72862
10.7079
25.0105
26.0684
45.9744
49.2301
26.268
19.878
66.5022
121.343
138.046
82.2503
59.2788
29.588
8.28229
18.0878
-3.82568
-26.1156
-39.1354
-76.0987
-118.912
-44.6077
-25.749
-49.7923
-77.6957
-21.7655
90.6496
95.6575
26.3383
-45.9704
-112.975
-93.8336
-87.9858
-49.8039
-29.5636
-48.3
-65.9462
-66.3179
-12.763
-19.3408
38.5575
123.447
147.546
189.002
157.956
23.8272
-84.1733
-63.6682
6.48152
30.8991
31.1993
24.9135
2.94806
-15.1078
-66.8999
-81.8806
-38.11
23.5532
40.0051
11.9437
-47.3273
-51.4069
48.8728
44.6161
20.4586
85.5827
75.5157
99.3524
21.694
-93.6749
-90.7892
-70.7761
-32.8079
-34.8684
-2.82363
31.9265
41.487
-5.07907
-91.7859
-86.3927
-43.7937
-81.5277
-99.3973
-24.4175
86.7925
82.3538
17.0132
3.39852
110.031
141.431
31.4899
-8.37069
20.5512
-33.2761
-59.4053
-14.3954
31.1508
71.4323
71.555
63.0154
101.619
36.7456
-83.6495
-139.08
-144.342
-184.148
-108.283
-74.3074
-85.1097
-74.3395
-25.3392
62.8447
71.7744
121.734
165.701
112.751
66.3453
62.6223
29.8958
-40.7556
-64.9772
16.3647
39.4443
-20.5152
-51.037
6.45922
34.7809
42.381
-22.626
-77.8545
-87.3695
-50.4293
84.9072
164.704
54.2131
65.051
176.497
50.7899
-94.9604
-86.8369
-89.7626
-149.919
-134.741
-57.0902
-4.32814
65.2911
53.0655
-105.508
-104.953
32.6092
81.9222
27.952
-41.7566
-27.371
-14.7445
-87.9238
-162.947
-38.6947
118.699
187.071
135.812
41.4183
19.4655
-31.351
-108.489
-104.286
-28.0967
59.7347
6.61557
-12.839
127.863
186.603
227.141
178.383
120.52
56.4737
-77.0526
-140.454
-181.764
-223.327
-139.205
-14.8775
-67.4221
-63.2821
18.8702
52.1718
39.8471
43.3185
34.6942
-4.59131
-63.4181
-78.7873
-141.898
-176.021
-51.5808
25.1611
-8.05011
-14.0366
-23.9008
-4.96114
42.9885
86.8422
187.654
264.86
262.299
124.673
18.1348
48.0399
105.03
111.607
112.266
43.896
-90.6495
-191.15
-247.645
-245.113
-142.917
-76.9049
44.6424
115.081
3.22872
-87.531
-104.793
-114.424
-92.0664
-51.3953
-59.2526
-33.7324
-9.9061
10.8491
-9.0598
-14.3825
13.6602
60.7503
88.0068
100.739
117.119
94.1501
84.1644
149.751
206.394
42.8035
8.45384
87.3106
2.16686
-45.0951
-40.4193
-65.0802
-63.3889
-43.1783
-103.992
-197.877
-139.825
-28.8557
45.3145
111.184
88.1285
104.499
52.9235
-76.2616
-134.179
-24.0963
-4.84233
-126.398
-62.0129
72.0529
95.7845
45.4438
-24.4522
-61.1161
-45.0678
-0.244165
-62.2475
-43.9492
-20.1915
-2.14656
4.61023
-49.4674
-20.0545
32.4529
43.11
33.2544
18.459
34.807
29.1263
-9.69907
0.657237
17.9588
67.3521
80.6986
71.0776
179.228
246.412
164.802
91.2766
7.05312
-58.257
-89.6953
-137.918
-134.77
-129.485
-123.934
-98.1358
-76.9378
-62.8329
-75.0467
-62.5451
52.7046
164.228
113.108
53.9134
6.44051
11.2269
-50.899
-202.266
-261.449
-142.286
8.64702
94.6571
107.822
106.906
113.102
99.9714
96.8745
123.494
61.8379
-81.4326
-208.211
-198.453
-117.962
-67.8159
-66.3863
-43.6167
33.3892
122.083
179.579
131.436
57.5097
11.5148
-9.75026
56.2669
70.4894
32.4104
-22.0656
-96.1114
-68.3855
57.7156
138.014
51.808
-39.1078
-39.869
-93.7514
-54.8424
72.3437
170.433
210.401
169.643
67.8277
-95.2724
-177.509
-215.126
-188.164
-133.233
-89.0722
-59.8564
-3.54135
51.8505
-14.723
-72.3721
-30.7682
41.2111
71.5365
-4.12833
-96.424
-100.773
-48.5146
-15.8878
56.7028
186.203
249.414
207.059
136.19
102.615
5.17395
-96.268
-166.47
-140.886
-47.2242
24.9404
6.15983
-67.1653
-56.5672
-92.2905
-159.018
-142.776
-83.1564
92.3065
203.57
264.422
315.163
154.214
-23.0338
-157.51
-151.095
-36.3413
87.9461
72.7643
0.846923
26.8962
-36.5054
-144.724
-101.08
-26.923
-20.2277
-60.3647
-80.4942
-117.958
-162.681
-153.997
-131.577
-28.9511
101.683
202.324
291.661
297.941
184.163
23.8658
-9.04726
19.5423
-36.2892
-25.5292
32.1717
15.0115
-19.3976
11.0934
-47.1919
-147.633
-148.754
-130.674
-148.007
-94.283
-3.86488
29.6195
10.8389
2.67615
72.4927
231.016
268.666
137.199
84.6395
19.304
-67.9493
-84.8164
-69.619
-80.1787
-3.09344
42.4628
21.2055
55.1986
11.3696
-3.47451
-55.4073
-132.579
-149.744
-127.183
-137.313
-216.294
-183.965
-41.8355
77.8217
119.238
84.9705
98.4439
187.216
184.53
91.1808
16.9499
-4.89542
-32.8833
-35.9934
-18.7759
42.8766
72.7367
8.751
-59.084
-56.9936
9.11021
5.04208
-59.3787
-35.343
-16.4322
-14.9806
52.4761
152.693
240.986
112.101
-18.0463
-49.5004
-39.2307
71.654
48.2249
-94.8409
-109.715
-76.0223
-91.6914
-115.786
-59.8837
-60.7215
-53.088
-5.55906
15.84
46.9742
8.84127
-114.617
-186.458
-50.4038
117.325
97.3038
59.0406
-58.6115
-58.6195
8.12445
56.4638
76.9816
79.6628
46.9292
-16.5639
58.7444
33.5829
-44.0374
19.2871
85.8052
95.6743
74.5335
15.43
-52.3935
-66.7457
-54.7547
-81.0928
-74.335
-47.7944
-6.87434
9.33026
72.5127
182.804
202.499
86.2093
-66.8297
-102.134
-84.7625
-58.2052
-67.6733
-72.3183
-33.7527
-73.8681
-31.8206
87.8499
159.511
141.904
64.6975
-39.845
-101.975
-76.6032
-81.4053
-115.194
-94.2218
21.4323
49.0519
3.73135
-16.2579
-43.2171
-68.5881
-93.0533
-94.8364
-40.4056
64.9268
75.64
53.3415
-9.29116
-1.46485
84.8375
127.661
104.476
126.174
79.0688
9.67149
-31.1548
-22.4593
20.3818
32.3867
34.1505
22.8595
20.3839
17.8745
2.91623
-31.0388
-86.0439
-107.796
-108.535
-136.021
-99.2866
-59.5773
-24.6685
16.6364
66.1599
107.849
204.554
246.041
62.4276
-25.0896
-5.5721
-23.9429
-63.9623
-64.9562
-56.6974
-97.1573
-106.404
-85.2962
-63.3701
-18.8581
-8.39149
0.964437
9.9226
-30.0405
-19.6756
16.5157
25.2074
14.1863
26.6895
68.6765
53.7511
37.4424
29.1679
-13.4051
26.036
86.3756
76.9322
35.6371
56.1519
18.821
-59.8506
-34.2357
-43.4868
-49.8216
-60.8323
-62.3857
-75.8124
-107.056
-37.0539
54.7232
33.2808
7.03935
46.2337
71.5468
54.4831
-27.6532
-83.9909
-45.3963
22.5821
122.03
162.541
140.297
105.789
67.4932
20.9338
-33.5531
-132.332
-161.314
-118.846
-108.993
-88.812
-17.4234
47.8037
74.2445
84.0094
-15.7633
-144.495
-102.002
-117.849
-111.66
7.04063
110.075
137.539
91.6052
39.0782
-29.4269
-41.8865
12.7481
29.4265
24.5274
64.2009
68.538
9.36446
-7.63623
-35.415
-20.1777
18.0037
28.9113
60.7051
154.427
171.068
-49.8568
-96.5152
-33.4341
-67.6883
-94.006
-113.536
-123.989
-77.7485
-31.8942
19.3265
99.3882
135.723
89.7837
10.805
-9.42737
14.807
-8.17304
-9.74364
-75.2974
-165.659
-110.392
-71.6545
-72.5547
-30.4277
40.623
125.528
187.343
167.26
78.7252
-2.30116
-51.2068
-87.5077
-74.074
8.95102
66.8927
47.6203
36.5102
14.8746
-26.4504
-34.86
7.14994
0.80178
-27.5974
-18.0983
21.8525
27.9174
-23.5057
-15.9544
32.9087
49.5443
-22.9018
-100.979
-72.6227
-34.1841
-14.0067
54.9099
52.7569
19.3336
0.508798
-18.8402
-2.89338
5.36691
3.85863
-0.0135177
2.12405
-7.40035
-6.89218
-2.12994
-12.7685
-26.3415
-7.31485
28.2138
21.6763
11.0496
36.636
10.1401
-21.7089
-10.0674
10.267
-15.5932
-32.9133
-11.3567
29.1014
0.195032
-50.1993
-47.62
-5.4234
47.5165
35.3709
0.815028
-53.7838
-99.8154
29.3217
182.677
162.265
30.9896
-70.6404
-68.0939
-73.3918
-63.4252
-44.2185
-45.784
-36.9633
37.3634
75.3049
39.5666
19.602
14.5372
-11.3948
-35.5886
0.347533
13.683
-80.3282
-118.338
-36.4127
47.1812
161.442
259.08
249.998
155.987
60.4104
-75.0842
-173.664
-68.1759
59.8164
69.017
66.174
-87.4174
-216.229
-158.169
-68.8942
-53.0363
-109.572
-201.687
-201.397
-110.846
-43.9029
-66.3676
9.07526
79.1928
28.518
42.8361
37.5826
-78.9685
-133.803
42.7771
126.599
183.643
267.959
148.615
109.971
138.958
162.692
131.059
78.8377
127.924
128.154
20.9253
-105.999
-114.39
1.19192
8.72959
-43.6094
-108.102
-141.04
-142.74
-133.257
-116.041
-71.9149
45.7686
47.8456
9.89535
-8.40376
38.9133
8.97835
-78.0158
-143.068
-132.752
-98.6999
-70.4629
-31.6095
-31.7108
-27.0038
-19.673
-37.4788
-115.884
-118.911
186.947
335.269
268.194
147.311
63.2551
81.9738
17.8781
-38.7588
-33.568
55.8872
103.808
57.2085
16.8828
-59.5045
-55.2456
45.0905
31.8838
-17.4121
-14.2845
-84.3036
-246.239
-294.807
-215.045
-61.9471
110.633
131.202
112.075
130.632
119.083
26.0767
-33.8851
-41.6778
-75.1056
-95.084
-40.3334
31.7655
98.4624
137.846
79.5621
91.4552
70.9442
32.6911
-42.329
-145.063
-179.526
-93.9471
-26.1178
-10.0302
-6.38845
-18.45
-26.8748
9.62369
100.692
206.071
198.371
95.383
49.5658
-11.4376
-30.732
-69.2149
-208.288
-259.535
-208.626
-89.5075
-80.9284
-145.531
28.3079
230.049
285.045
220.4
113.547
35.8038
33.3686
141.163
79.9307
-80.2655
-207.675
-147.026
-43.1186
20.4315
61.8177
41.1634
-37.8818
-39.6175
-1.80026
29.6694
-57.2146
-178.63
-174.34
-107.969
-160.887
-193.587
-112.464
-42.5
4.30224
50.452
131.815
196.704
330.261
415.466
266.423
172.642
221.944
207.756
183.404
56.1705
-121.295
-266.062
-313.125
-339.922
-249.574
-170.813
-139.335
-161.358
-116.575
-46.097
-50.4177
-158.133
-211.836
-232.806
91.0324
444.369
476.96
331.276
248.251
130.207
181.17
295.574
165.475
174.285
125.962
-132.196
-250.705
-154.886
-41.0708
-277.775
-296.181
-69.0108
-222.094
-419.501
-403.596
-342.675
34.042
417.859
460.877
154.131
-203.081
-184.263
6.27211
-31.1959
-174.217
3.65229
100.325
-33.2603
-53.867
275.5
348.365
217.965
312.141
149.828
-261.656
-271.578
-101.151
-207.374
-310.451
-113.988
-20.5034
-120.745
-63.7457
18.8071
167.528
399.083
332.132
359.579
536.606
466.858
99.884
61.0247
-27.5858
-226.795
-190.632
-150.276
-281.341
-159.925
-50.3163
-16.7561
269.717
439.224
49.0311
-376.109
-467.237
-448.581
-248.628
-56.2888
-87.2255
-235.489
-12.1767
-216.239
-441.622
-135.56
335.361
685.81
550.048
81.0141
-252.763
-66.0955
-88.4721
-206.125
-254.601
-173.151
14.3941
160.753
246.783
-41.5518
-271.964
-75.9814
-75.6881
-61.5492
316.295
725.926
789.759
207.305
-40.9741
-131.112
-144.719
-240.354
-297.157
-367.066
-111.81
315.412
391.798
350.532
201.843
111.344
173.127
113.966
-27.0085
-140.749
-259.884
-261.935
-408.809
-358.376
-462.667
-581.969
-356.649
-84.7881
393.249
822.309
526.762
60.4185
191.529
56.6666
-124.237
-139.167
-233.49
-337.773
-190.365
164.322
358.36
287.496
97.0211
-208.468
-382.712
-155.127
-37.8195
-11.4497
-164.419
-435.129
-132.998
246.67
251.896
236.162
21.6246
-16.8283
157.118
340.517
276.899
191.798
-75.2334
-206.067
-150.667
-58.4523
65.9839
424.556
413.232
97.147
-230.082
-110.148
163.157
141.542
-50.6972
-169.943
-231.438
-248.392
-461.417
-538.115
-132.779
266.395
435.967
333.238
61.1334
100.835
34.4215
-408.23
-431.17
-95.4379
89.8945
170.158
444.203
245.214
-469.542
-486.317
26.2633
277.725
112.096
-253.736
-437.68
-274.38
77.4436
414.934
548.854
403.156
270.64
303.801
149.281
-51.1994
-177.579
-338.778
-594.643
-402.212
-45.8621
-184.169
-411.801
-455.258
-174.554
487.731
853.871
547.757
255.675
196.64
138.037
50.1874
-10.7358
-130.153
-165.2
-40.4706
54.6347
-61.161
-329.344
-399.515
-162.826
130.004
98.8958
29.7573
405.493
579.365
351.454
-311.564
-584.512
-562.149
-250.305
-83.9748
11.8555
45.991
42.6276
-9.91287
16.3355
240.494
308.795
296.012
214.565
62.9048
111.591
298.225
167.761
-236.074
-426.961
-143.574
-12.8805
-144.914
-352.742
-425.285
-272.232
84.2471
430.84
527.736
455.301
105.936
-242.058
-334.554
-261.681
-211.863
-52.3097
57.3013
-36.7989
-106.656
-128.725
-89.2912
1.11566
11.611
9.39411
165.68
290.118
144.286
71.5677
82.6482
-100.685
-195.291
5.36904
170.471
297.686
225.952
105.909
-63.477
-219.649
-119.743
-14.0129
-143.667
-191.378
50.9947
293.644
206.923
42.4756
-41.4845
-210.884
-357.142
-189.421
163.618
207.584
72.3515
88.5164
40.4202
-30.7403
9.74937
37.7025
158.654
129.098
-4.255
-170.026
-247.067
-297.516
-254.512
-239.585
-205.331
-179.473
3.57516
145.63
62.3471
201.623
263.681
110.363
133.697
309.805
198.639
93.3585
63.846
-118.085
-2.42582
63.9005
-52.8248
-167.113
-201.971
-93.6761
-59.3819
235.686
345.033
141.287
-54.6148
-127.511
-285.337
-339.856
-139.881
-68.333
-42.0032
108.167
148.625
280.498
194.952
49.9998
-113.639
-134.96
10.9642
66.2023
33.2439
-24.9215
-132.823
-141.962
-126.056
-222.296
53.0837
229.313
146.303
308.525
138.85
-175.421
-263.666
-327.581
-149.8
98.2478
331.053
239.338
-129
-77.7502
160.419
-38.5151
-229.122
-65.646
56.1499
124.149
53.9594
22.279
-36.6176
-189.552
-45.353
121.516
131.237
77.1192
117.093
97.7934
-142.648
-314.084
-227.856
-27.4296
111.071
144.182
249.229
128.295
-0.256971
-27.1102
-30.981
-53.4478
-49.815
-220.438
-343.432
-99.9705
139.744
213.227
213.937
95.1739
-43.2811
17.4832
55.0972
37.7197
-1.64745
89.58
90.5735
-69.0048
-111.157
-83.0983
25.6035
192.22
231.687
91.2701
68.9979
-56.174
-193.748
-143.617
-144.652
-204.831
-210.868
-91.4357
31.3512
-89.7915
-176.205
-96.8394
15.5688
105.578
124.714
146.174
67.3483
-63.7673
47.8209
153.777
98.8347
12.9939
-83.1066
-55.9631
-36.8629
13.652
-22.5192
-39.4877
243.484
348.869
305.199
210.448
-18.0752
-181.973
-187.809
-185.646
-224.392
-180.985
-186.201
51.4724
268.136
78.7261
-93.068
31.8083
57.0655
-46.5338
107.116
204.193
-43.0835
-207.6
-182.679
-201.544
-180.583
-34.0827
66.4231
-10.7208
93.6527
215.383
167.125
49.0343
-112.565
-92.0664
-132.011
-271.291
-150.439
67.3191
200.145
162.251
118.923
113.898
60.4101
-28.9256
-41.5395
-97.3611
-57.5756
139.378
140.999
144.343
-32.948
-247.238
-62.5771
127.618
121.544
109.003
135.187
247.805
157.122
-15.1201
-72.8321
-238.234
-328.676
-181.57
-23.0565
109.411
65.8022
-24.3961
-105.567
-267.022
-152.896
-36.6326
-152.666
-269.186
-126.318
243.728
326.334
179.061
40.3079
-1.6838
-45.7571
100.624
245.507
200.358
166.937
151.668
77.7244
-60.9847
-120.497
-27.4471
10.9738
6.04837
-76.8029
-97.4806
-119.858
-351.72
-406.882
-314.597
-150.746
32.5103
122.717
196.221
178.579
4.87258
-152.826
-12.3855
141.107
180.221
148.574
146.77
307.514
72.5737
-52.4973
132.296
256.608
133.726
-40.5214
-158.868
-216.099
-52.9648
262.144
121.459
-283.314
-436.428
-232.681
-111.681
-55.7012
12.8077
202.875
186.907
31.6632
126.98
234.189
113.522
-18.6229
-118.415
-115.464
-42.0308
-28.2559
-151.351
-313.417
-280.518
-30.9914
129.529
32.9365
34.8261
201.607
159.239
-104.149
-346.081
-330.957
-185.827
-95.9235
137.359
235.409
219.557
127.575
54.5664
-25.7567
-24.5204
-49.2909
38.2711
197.562
466.592
470.45
298.395
267.771
154.96
-24.6207
-32.3294
-177.109
-316.071
-318.121
-414.553
-383.527
-223.381
7.88873
175.58
270.979
216.91
205.959
112.234
-151.117
-238.137
-199.819
-322.211
-519.971
-537.853
-229.14
81.8149
241.771
282.611
292.232
331.709
249.187
163.981
101.587
-18.3238
-19.4256
18.8196
-54.7625
-32.8237
25.5047
-95.7152
-131.254
91.1627
308.168
311.885
184.524
113.224
-26.9423
45.3402
121.344
-125.641
-325.113
-315.747
-220.369
-123.565
-104.445
-14.1705
19.1846
-69.1412
6.06446
137.275
27.9461
-42.178
-130.298
-112.651
-53.9778
-9.38061
70.6929
16.4134
-45.3875
30.2801
167.392
142.994
54.0454
-44.8207
-7.28491
-23.1417
-74.0383
-62.6708
-27.0002
121.753
254.746
122.018
248.17
383.033
326.385
77.2926
-207.129
-305.114
-294.552
-216.168
-163.071
-84.9889
-90.1239
-115.377
-122.085
-90.4478
-19.7031
106.398
164.37
30.1117
-92.3788
-40.9226
-161.224
-196.56
-87.1032
-42.0935
55.9065
218.083
192.655
126.755
54.4423
34.4174
101.747
98.2003
-44.4349
-82.5251
99.8186
166.047
94.7111
26.0169
-34.475
27.0466
154.043
171.428
46.066
4.98786
78.3934
18.1795
-11.2113
-103.586
-195.034
-209.612
-179.751
-80.2269
-43.8345
-143.784
-256.066
-209.812
-77.8301
-62.6941
-28.3368
-37.3956
-33.2267
131.185
10.9974
-138.043
78.5219
123.157
62.2388
104.597
233.782
242.058
102.246
8.24547
11.0619
82.9675
69.124
-8.08203
-15.6999
-39.303
35.8871
175.742
217.583
151.077
40.2984
-6.45184
-194.128
-339.383
-329.684
-205.114
-62.5252
10.1743
-4.12043
62.6509
185.278
154.69
48.0378
25.9429
48.1283
32.5355
10.2631
-57.7752
-266.729
-484.756
-223.34
162.456
164.152
149.714
183.197
152.871
47.3149
-76.7407
-78.9771
-45.0178
8.02456
34.4872
74.7889
82.7909
-2.91386
-1.98214
-5.49687
-55.0107
-98.1375
-55.1378
25.0052
-244.151
-337.363
-79.2371
115.97
250.689
361.819
430.267
319.581
23.6093
-127.819
-206.215
-147.241
-48.56
-55.1555
-29.1179
18.73
-49.5061
-165.903
-124.509
-110.193
-9.35268
148.617
159.686
55.4902
-8.32149
-24.0344
-53.8937
-84.3148
-25.9686
54.5782
66.8771
-79.3362
-110.574
25.0091
57.3187
65.7791
17.3735
74.4268
78.3272
21.4396
31.8935
35.5654
-76.0684
-30.8375
33.6951
-105.526
-51.7024
1.13954
-47.9531
-85.4861
63.2413
148.987
13.979
-74.3327
-68.2458
35.131
38.9584
15.9391
61.2223
109.383
120.314
0.172301
-129.624
-82.1082
-74.0591
-211.382
-282.407
-108.103
-1.49711
58.5304
117.065
183.291
232.833
148.822
16.7387
-208.494
-219.428
-78.5717
148.691
220.54
123.902
67.9054
-4.61909
-124.393
-162.614
-26.911
39.987
113.681
210.774
118.823
13.4164
114.275
185.676
56.3878
-169.852
-96.1179
-106.065
-271.748
-381.711
-272.346
-61.5241
49.1841
130.982
154.884
111.534
-32.5559
-60.3905
-30.4802
-23.1911
47.2694
52.2825
-97.0077
-98.6641
30.9292
165.41
209.407
187.125
110.794
-0.135568
-112.513
-142.038
-119.959
-36.1962
-15.0626
-37.5683
217.05
352.634
255.359
10.107
-218.195
-244.679
-117.066
-136.508
-79.3945
-7.75489
-141.405
-166.157
-66.3339
21.9476
4.8563
66.6569
91.1215
105.004
124.985
261.085
230.338
61.5214
-63.5665
5.32105
100.728
107.856
-9.96302
-203.802
-270.617
-202.586
-172.387
-77.2874
108.74
147.674
-0.624828
-87.881
32.5255
27.9007
26.6245
-72.0849
-273.617
-218.335
-40.027
140.205
188.733
97.1206
-53.146
-11.9499
30.3938
70.7956
95.543
128.889
109.393
11.8453
-5.10603
12.2857
119.009
262.652
195.801
46.5889
38.853
-73.3156
-253.497
-332.038
-229.4
-105.55
-13.7484
-107.233
-46.2412
150.949
213.828
-10.1635
-278.627
-248.853
-6.31449
154.73
176.861
185.444
116.936
-130.041
-269.353
-65.5368
168.446
274.256
176.494
139.654
102.765
42.5951
-39.7218
-92.4059
-172.979
-105.089
-0.750184
-6.20425
0.367739
-77.8117
-237.91
-314.762
-300.002
-144.856
115.166
269.785
282.278
128.828
40.2572
-1.31679
44.2041
140.467
186.579
109.116
61.7853
49.0333
-9.91408
-93.6259
-75.4081
-76.5983
-82.8519
-75.226
-73.014
41.8545
126.921
15.8901
-103.84
-84.7558
-86.4461
-192.537
-177.761
-41.0101
-15.5367
23.6238
122.573
137.643
128.465
77.5312
54.5236
122.959
46.9875
18.7807
10.0364
83.9512
106.982
36.4585
-96.5084
-147.017
-148.21
-154.564
-109.668
-105.978
-165.655
-188.683
55.9324
435.351
666.547
360.27
-156.278
-283.873
-192.252
-178.676
-131.721
-13.8951
45.8362
3.17672
-40.4879
-105.349
-106.643
-38.4147
-39.5187
97.4241
279.427
256.544
65.5631
-150.8
-298.216
-80.3312
60.8354
-37.1129
-59.9375
-11.8909
87.8945
75.6934
-23.0163
11.6571
101.919
81.5255
50.9437
99.9321
142.386
27.1459
-264.498
-311.945
-102.31
-83.1008
-143.643
71.974
431.329
503.59
372.64
156.177
-18.8173
-150.681
-228.523
-271.457
-159.312
-11.2323
-70.7069
-103.437
-149.021
-166.459
-44.3347
27.9618
-77.9366
-82.7746
-7.70674
-5.46678
-88.2331
-93.1681
-66.0279
15.1964
154.552
167.911
237.514
219.313
65.4502
-81.317
11.86
58.8777
51.314
80.8892
67.3025
-3.3769
-109.31
-107.173
-160.502
-201.137
-27.4143
191.086
242.965
150.943
121.057
162.635
38.6539
-79.8012
-136.158
-87.221
-15.717
64.5305
49.2558
-0.768168
-57.9914
-224.704
-254.617
-3.52847
168.185
144.17
15.372
-220.162
-282.435
-174.924
-104.846
-160.903
-101.458
82.1835
151.448
260.96
330.573
192.872
59.8004
-25.5711
8.76015
91.8572
120.459
-28.9383
-124.145
-139.698
-220.162
-144.38
48.9958
143.255
95.9009
40.5494
-63.4809
-307.844
-390.027
-246.179
-80.8615
122.998
249.45
411.947
487.186
342.266
202.27
157.292
63.2237
-56.2054
-43.1186
-72.6539
-220.075
-229.712
-116.174
-93.675
-110.662
-103.18
-86.5041
-24.9603
-37.6397
-142.665
-108.688
-104.052
-151.607
-110.999
18.8701
-12.7336
-5.61057
105.733
194.152
263.784
243.626
135.383
9.3892
-62.5819
-65.7795
15.0893
177.674
170.675
56.2122
20.4022
-33.0108
-106.99
-129.759
1.37669
56.7467
1.22401
-83.1746
-89.5348
72.9189
73.9614
-81.425
-174.719
-231.645
-159.268
-83.1007
11.2516
103.736
124.043
43.6082
41.3629
166.973
126.883
-18.759
8.04043
-45.5795
-87.8112
35.9449
78.4375
-82.5955
-183.824
-72.4364
105.574
200.815
276.516
193.294
54.2197
23.0654
-118.451
-187.601
-184.194
-171.383
-128.977
-61.172
-55.2716
-78.9687
-54.7791
-22.4363
3.10033
-60.498
-61.0985
34.9718
22.9177
-69.9534
-137.123
-58.1061
156.646
334.74
377.655
384.494
344.894
158.717
-4.01727
-130.721
-147.354
-136.265
-130.394
-104.807
-101.418
-81.4135
-48.681
35.5755
97.7517
23.6167
-151.637
-111.929
-167.456
-269.245
-265.733
-111.535
61.0832
78.3072
89.5388
187.953
202.323
157.595
320.788
340.904
127.649
76.3053
53.2912
-111.133
-278.102
-291.536
-234.9
-130.168
-0.668965
-18.7218
-156.486
-182.644
-183.334
-134.161
-17.4486
82.0014
84.3664
127.847
33.8036
-30.6006
172.652
292.093
174.676
70.5702
58.9269
74.0012
168.061
197.043
134.917
-4.16422
-31.8334
-31.1038
-97.3936
-86.2288
-59.8066
-107.189
-94.06
-82.5928
-140.219
-110.256
-109.545
-138.871
-38.2364
79.325
185.479
178.739
59.055
-4.78034
97.3493
32.4152
-91.9457
-162.552
-123.151
-52.0468
-42.2532
-15.5736
-47.6878
-52.7656
-77.2998
-133.614
-130.259
-84.3335
-6.14415
-12.8946
-126.526
-10.3538
311.686
276.695
106.395
162.245
251.36
195.855
171.582
153.344
-66.9006
-88.4007
38.8324
9.91026
-63.6416
-93.5321
-83.0492
-90.0264
-56.2874
27.9537
95.9566
55.5885
-109.773
-104.887
-91.6155
-167.679
-191.023
-130.516
-74.7769
-29.8402
84.677
70.5101
51.168
98.7155
97.3339
85.5883
48.2391
-37.6502
-93.8093
-95.6372
-72.5665
-33.6677
49.6335
68.8344
-2.78695
104.815
227.822
140.868
14.6734
-7.53896
-1.6918
-20.1643
-178.526
-214.643
-37.2669
54.2545
33.4468
-16.1867
-76.8011
-25.1463
55.816
27.5537
-16.3052
-62.6696
-50.8574
-35.6159
27.0737
75.6863
26.4965
-34.1882
31.4584
55.3091
63.3268
40.2488
-59.4781
-45.8958
-4.6379
36.2128
115.573
112.6
78.5096
89.5662
78.4681
-16.0947
-98.3327
-160.048
-108.394
4.80488
44.7768
17.5087
-14.6823
41.6585
24.7873
18.6509
8.31128
-112.926
-106.12
-96.9458
-121.899
-96.7561
20.6192
94.006
38.1631
-93.0126
-134.55
14.8102
37.0971
41.0375
80.545
51.0033
112.56
57.8754
6.39223
23.1289
160.742
208.79
99.2801
16.4334
-22.6246
-180.309
-310.249
-252.742
-162.552
12.8984
168.812
156.206
4.95189
-122.871
-35.7428
26.1943
8.62883
36.4429
129.261
104.281
14.7073
29.6738
52.6287
112.401
100.457
65.8145
-14.3453
-76.6211
-63.9186
12.0498
13.1987
-51.3743
-15.8762
-76.0243
-171.916
-115.313
-108.373
-117.676
-128.759
-56.642
-40.675
-82.0118
-8.48997
111.204
199.668
295.489
306.276
191.98
121.515
3.47218
-103.199
-94.6362
-46.9449
28.7924
-1.22423
-95.081
-126.193
-157.571
-57.0123
-41.0235
-87.7045
-41.806
-1.20708
28.5229
2.51323
-67.814
-89.0255
-52.408
-41.7575
11.9532
79.713
121.161
34.0206
-76.1206
-54.1859
-38.0167
165.647
291.605
221.765
117.21
101.171
131.787
28.5746
-102.278
-160.321
-63.2028
90.499
110.349
58.9955
26.2715
-58.7121
-189.353
-154.875
25.8378
36.5539
-148.73
-258.339
-228.632
-234.25
-207.867
-113.289
47.3706
152.997
84.7743
78.6942
74.9553
13.1993
-55.2666
-38.1644
70.6147
195.795
183.956
183.997
181.568
107.617
126.84
-17.1135
-97.4458
22.0187
180.812
176.858
25.4258
-62.6682
-118.486
-222.188
-204.486
-121.984
-66.8348
-10.0984
4.94101
-87.1557
-136.321
-0.0465146
33.2414
20.1486
57.7005
58.438
92.0934
104.759
-34.5544
-211.326
-247.507
-190.551
-43.2118
129.505
180.932
98.1621
38.398
-17.9307
-81.1633
-16.0412
58.0924
-25.8752
-47.7885
35.6189
109.514
99.8639
40.2348
-27.9006
37.5673
110.056
69.9474
85.7429
132.055
173.265
55.8157
-101.03
-127.608
-36.4894
15.4264
-26.0965
-120.708
-124.763
-0.521527
-14.3096
-52.2069
71.9949
96.4061
9.44627
-50.1261
-79.3097
-78.5823
-69.7055
-79.9479
-167.719
-170.346
-25.625
40.3504
-21.346
-50.2497
-49.8754
172.241
139.179
-15.2271
-77.8876
-31.3711
37.2553
42.78
143.751
228.248
160.822
133.917
76.5427
-55.4031
-74.9683
-40.0874
-50.977
-57.0963
24.7415
44.568
-42.2827
-143.003
-78.1954
-40.5087
-25.3654
18.9373
14.4561
5.45346
-126.739
-198.405
-102.647
89.8067
211.563
189.697
117.858
132.221
205.147
171.832
25.7527
-77.3782
-72.5153
-70.9207
-102.37
-118.191
-107.182
-106.047
-163.006
-168.02
-127.69
-36.4698
103.774
81.9178
-33.8614
11.0819
108.054
88.3692
-30.3424
-46.3222
-69.8895
17.9717
127.962
158.31
137.383
111.067
55.7163
-20.9534
-75.1249
-28.0129
106.456
130.374
44.4073
-107.462
-240.739
-179.233
-110.528
-92.6961
-115.542
-100.077
93.5378
104.073
73.8227
92.9563
171.639
140.782
90.7666
42.5142
-57.5356
-157.7
-176.996
-214.895
-203.815
-132.025
-27.8715
86.1123
194.995
137.256
128.846
223.063
122.426
50.7922
-4.87808
-97.0896
-220.153
-208.115
-6.393
129.466
148.261
112.87
27.1952
-36.2241
-60.1897
46.0439
177.07
84.5804
-21.1895
-31.2497
23.0365
10.9929
-57.0521
-106.455
-58.8952
-38.4609
-27.4426
-20.0517
-92.2076
-90.4951
-12.911
-26.7306
-29.301
33.1652
-6.43845
-101.588
-141.897
-97.757
-100.341
-93.5588
-53.7023
-91.372
53.1059
244.482
264.08
248.655
225.351
144.242
53.0088
-9.57878
-39.447
22.209
24.6204
-35.0171
-70.9164
-96.5159
-28.9667
-1.51332
-18.9284
-29.1694
-60.7783
-33.2028
-55.0707
-104.772
-107.76
-89.9076
-36.3879
34.7135
85.1884
92.9207
136.359
165.483
154.918
-40.2642
-220.922
-148.618
-27.9696
187.643
212.986
-81.8883
-100.669
20.5653
58.147
-7.80411
31.9859
63.3515
-53.9126
-119.605
-132.882
-96.3308
-52.6046
-60.2295
-47.9087
85.1503
252.843
199.991
116.999
-96.9725
-205.251
-130.293
-215.307
-255.125
-203.684
-92.6897
76.6412
145.852
156.37
256.828
342.865
292.817
121.054
32.9937
65.2398
-30.1607
-125.447
-124.977
-161.22
-96.0838
82.8235
141.698
35.6104
-48.4335
-86.2097
-73.1707
-122.994
-157.572
-104.297
-132.094
-138.254
-125.804
-97.9479
-62.0202
-39.1423
114.787
264.156
299.707
186.503
39.6312
-0.650303
87.2762
148.97
170.011
92.52
72.4377
28.064
-55.5925
-129.036
-162.586
-177.019
-186.345
-106.2
83.1244
108.853
32.0872
58.8902
16.0739
-16.788
-0.965507
-27.3139
-61.2093
-138.379
-160.849
47.6164
55.1859
-165.673
-160.81
-77.9016
-15.1018
-12.4594
60.5853
183.055
115.663
15.196
23.9934
-16.6303
-5.66803
17.1353
-27.0166
50.6642
240.984
218.146
70.1667
-36.5597
-113.796
-80.832
-72.2995
-7.39844
42.8074
121.272
119.468
12.6251
-9.97248
50.9159
63.2997
15.6888
-90.4947
-149.338
-126.256
-174.07
-111.291
66.9143
50.6444
-33.2606
24.5569
187.52
179.233
63.1703
-34.8067
-107.979
-141.394
-95.4626
-82.1778
-96.5503
-125.16
-164.383
-157.674
-120.028
-44.8324
44.0848
145.599
148.772
158.067
130.693
54.5074
-43.0718
-12.7243
65.2352
56.1522
20.3864
56.3817
152.164
103.369
78.0153
51.975
45.2909
69.2685
38.6724
-10.6251
-59.7003
-191.017
-171.606
-15.1378
1.51394
-21.4142
-2.24828
12.6395
74.9295
46.5751
-25.3638
-8.30288
-14.7854
-149.173
-281.538
-149.699
-44.001
-25.485
-1.25404
55.7201
31.1462
56.6624
151.205
132.865
64.8517
-18.5203
-51.1544
-44.2112
-130.863
-77.2799
59.7346
88.2706
64.2628
103.504
130.994
118.471
126.379
131.495
167.356
83.4038
-41.0246
-149.553
-196.575
-204.122
-177.768
-152.037
-52.0679
22.8964
35.5283
-19.665
-90.1673
-77.4215
-101.478
-44.6467
55.7103
50.3857
16.5142
65.4523
124.484
134.234
90.7936
91.5075
84.887
32.2236
-39.1595
-88.9046
-120.454
-13.7373
26.579
75.3865
81.2092
45.8699
-64.8982
-96.0414
-16.0189
-10.6131
49.2522
116.615
26.1396
-88.1425
-114.965
-112.015
-84.4547
-129.645
-71.5265
119.338
133.509
46.1254
35.0847
11.6698
-34.0715
-73.5079
-88.4391
-61.6058
2.60004
68.1864
52.6263
12.3124
8.70169
7.77824
30.791
54.2628
19.8937
86.9979
173.45
147.495
-30.5135
-179.241
-130.433
-55.0333
61.4549
126.386
165.631
143.779
24.0864
-59.8207
-106.254
-207.432
-208.203
-108.638
-52.1396
-63.2935
18.1291
83.3777
25.4488
27.8016
122.2
89.7658
28.8657
-1.72341
-58.3941
-141.459
-36.5712
118.567
89.1008
17.8195
-59.0222
-140.773
-183.526
-116.84
-23.621
9.17559
105.939
330.706
262.343
-56.9294
-71.3729
5.90633
16.8032
-15.784
-5.04656
38.6843
-13.0615
-86.738
-155.021
-142.317
-49.9789
22.3207
54.6231
82.4119
117.904
142.281
91.2204
-125.978
-183.651
-21.4684
33.0007
15.334
5.33969
21.4626
-4.96333
0.762148
10.3934
-22.9425
3.9241
3.86636
4.63692
0.171525
-13.1977
-55.9963
-84.1587
43.5839
42.3454
-102.869
-117.52
33.5001
191.288
215.643
140.527
23.9373
-13.6591
3.65465
-33.5432
-76.0078
-48.6374
17.2295
84.6926
79.5441
43.479
16.2591
-28.2332
-100.213
-121.702
-56.8244
-34.5349
-66.3183
-150.371
-180.234
-176.253
-101.003
-65.1655
-23.459
65.0116
132.39
165.257
164.681
104.043
46.5544
64.706
81.8139
69.5562
18.3425
-1.91345
0.478314
-10.0364
-56.2176
-82.0144
-28.3173
39.2133
105.619
130.234
51.6547
-90.4118
-116.647
-58.3862
-32.0395
-46.3505
-7.31806
21.5477
13.0636
68.2425
131.487
39.0439
-137.772
-141.487
-58.0165
-91.8715
-68.6922
19.3851
18.5597
-11.2343
15.2323
18.7234
-16.9929
-54.2379
-8.75689
76.9084
186.663
202.847
142.587
12.7385
-143.244
-163.735
-68.6362
-19.5945
5.6261
25.5909
3.86699
-22.23
-6.14956
32.9645
-15.7004
50.9489
190.496
79.2015
-121.831
-189.48
-71.1865
49.7042
47.5521
54.5979
-2.53701
-50.6733
29.7189
60.5213
-8.68499
-9.54864
-43.2141
-106.911
-109.012
-82.1109
-3.39758
16.832
-16.2182
11.4662
44.4141
9.18476
-135.225
-185.189
-83.2731
23.7465
119.402
164.084
93.4325
20.9454
57.1187
118.143
150.171
196.366
183.707
140.738
39.6709
-64.1898
-102.008
-92.1969
-77.8211
-49.5652
-43.1071
-64.5214
-95.4764
-74.7256
-56.2904
-62.2237
-1.9492
77.3349
46.0537
-60.5627
-139.142
-129.294
-96.7969
-127.043
-128.137
-3.13126
123.199
206.632
125.043
37.4826
-69.0598
-115.483
-85.9666
-20.6778
120.227
252.028
213.285
158.041
171.449
119.573
29.5106
-45.7751
-121.133
-85.8522
8.17663
58.2758
-29.2863
-76.543
-130.363
-152.493
-91.4812
-28.9428
21.835
-57.7995
-162.441
-193.292
-156.634
-86.4152
-42.9364
29.7112
114.912
159.285
160.464
78.7269
8.55518
-58.3269
-75.6685
12.9087
157.531
86.0405
-24.9645
126.603
240.828
144.685
41.3793
-54.16
-19.1236
27.913
30.5167
-25.7015
-2.53057
-68.589
-152.835
-69.0007
7.57088
-8.16786
-80.34
-117.214
-17.1867
108.991
154.682
30.7239
-55.9213
-69.5062
-132.705
-148.835
-116.691
-68.9035
-73.3885
-33.2324
2.80497
8.78239
72.9227
152.616
139.469
8.0548
14.3595
71.924
49.2675
22.4068
106.86
93.4812
-129.463
-81.8704
87.9159
93.2945
-3.82956
-88.8716
-48.0762
-18.8173
3.43363
57.0405
100.627
9.7892
-65.4681
-112.139
-148.246
-141.203
-50.8221
67.7929
-29.5944
-203.004
-111.412
-22.6236
110.603
238.268
290.396
203.415
66.8029
43.0272
16.9913
-146.335
-279.506
-165.697
-81.7733
-0.234971
42.0771
83.1597
73.7676
61.8741
136.739
188.397
90.7498
-80.6235
-168.156
-164.522
-55.8971
16.6385
12.2919
49.1652
35.6718
132.792
155.045
12.0076
-46.2595
-51.5855
-69.2569
-158.901
-192.46
-126.224
-12.9478
-1.76707
84.5273
209.078
116.172
62.9394
-6.79638
-54.5831
-49.2886
-83.727
-105.05
-86.0202
-58.4894
47.8194
166.111
183.225
194.835
99.135
-24.6108
-85.7906
-171.957
-174.208
-175.394
-173.494
-95.4615
-66.1349
-64.5172
0.237659
26.621
51.2831
96.8863
180.037
205.837
63.8555
57.0488
38.2643
-1.45091
40.4675
91.2972
68.9643
44.3718
122.945
93.4464
-37.3597
-101.644
40.4481
42.6382
-40.1383
4.46681
27.8455
-35.1507
-147.634
-155.284
-101.416
-143.974
-90.2559
-79.5655
-90.958
-68.1356
-52.6221
-18.6377
-14.0805
44.4331
86.9282
89.4956
25.641
35.0219
43.487
9.80503
13.095
61.2117
102.265
49.5619
23.0831
11.4696
38.1144
63.6985
65.1342
61.9835
-18.9446
-41.281
-20.5898
-5.21095
30.8192
2.80539
-88.3061
-91.8721
-53.4413
-146.61
-166.872
-116.275
-48.3343
65.0008
103.967
4.63831
-81.5522
-60.4289
28.2844
74.8089
139.709
174.235
124.649
64.4615
-15.0321
-58.2072
-40.5842
-5.33646
45.1381
107.845
47.2714
-1.46808
3.0517
16.4346
-2.98182
-33.3729
-8.67412
4.50581
-38.3667
-75.7099
-101.629
-104.503
-26.5748
-10.5536
-5.64528
82.1961
44.3873
13.0704
-25.9542
-25.8444
28.2329
4.3866
-95.1767
-85.4584
-23.2599
9.00079
17.6735
89.9999
158.624
69.7943
-76.4223
-90.2601
-86.1936
-56.6886
-61.3657
-82.174
-94.4249
-22.5054
147.825
286.995
146.287
-131.377
-98.8331
-35.6244
-2.97893
57.9462
49.3841
-15.0358
-100.953
-29.183
133.547
134.138
55.8527
57.6212
68.7459
21.0357
-1.9699
-30.9135
-83.9428
-149.926
-118.033
9.75039
28.3563
39.7806
7.0116
-40.9351
-31.9748
-27.8627
-18.8264
24.1128
31.2504
-38.3429
-53.881
3.95556
89.0497
72.7848
85.766
75.0258
9.29791
-39.2904
-56.0514
-17.5703
-44.2468
-90.2723
-41.0984
52.35
40.8117
13.6238
16.7704
-45.9373
-45.3422
29.5399
60.747
72.6076
-26.1044
-135.71
-232.271
-155.363
35.2367
46.2185
48.5827
44.8892
82.1088
124.107
58.0064
-83.6084
-53.5956
40.3414
66.1953
138.446
106.948
27.8501
-7.25924
-45.188
62.8996
78.7112
81.032
-43.3532
-216.328
-185.494
-93.7482
32.6774
45.006
-116.016
-71.1376
104.559
202.01
215.864
138.662
-23.3585
-101.895
-126.629
-122.925
-133.092
-149.162
-79.5628
1.80369
-2.14354
-73.0434
-65.7023
16.8968
86.5519
75.8078
77.1006
185.407
180.397
11.4795
-96.0518
-124.144
-62.2776
16.1273
40.9386
3.74992
-2.15204
36.88
54.9404
0.342212
-12.6687
154.685
255.522
132.04
-102.484
-58.5364
78.3998
-45.7574
-152.207
-146.946
-174.361
-111.949
-80.9334
-153.668
-74.8644
36.9795
-6.07623
-83.125
62.1172
152.5
105.768
28.7804
-17.8683
19.2933
186.535
194.903
110.823
-26.4352
-60.6123
-60.3982
-81.8358
-96.1801
-88.6561
-28.7956
-21.6684
-110.234
-110.62
-24.2712
0.52455
44.2061
165.278
206.603
123.685
63.4634
27.2721
-39.1178
-19.2181
17.7178
-5.17351
-22.4766
-54.4969
-50.7086
-6.68498
44.1614
16.7166
42.27
83.0401
-116.733
-186.538
-38.2946
12.6111
-14.416
12.1364
46.4567
20.542
-84.8172
-112.471
-60.3764
-21.5491
-37.7656
-39.3431
-29.7364
-69.1166
-29.2448
14.8926
82.9291
162.173
339.015
296.809
117.9
-12.9374
-137.102
-130.587
-54.5852
-7.8569
5.72837
-39.7016
-212.71
-237.649
12.5659
89.0266
48.4477
82.3722
119.875
64.1927
7.36643
-6.77308
73.6348
74.0663
-30.1298
-60.2129
-50.9613
-86.003
-117.503
-141.261
-101.664
-71.2166
-11.3018
-10.3215
-47.4805
82.2941
147.273
221.102
229.953
69.0444
-23.9928
-65.8975
-115.577
-159.886
-87.983
-17.5689
-3.7756
25.4515
17.3134
1.9234
-9.87854
1.23521
103.697
221.329
183.903
30.9334
-94.2316
-185.836
-161.396
67.3014
173.714
111.307
30.792
21.1947
-12.81
-30.0538
-13.8452
-62.2112
-99.6257
-88.3974
-31.863
-30.1976
-179.217
-187.511
-68.1358
18.4224
8.3523
-57.8895
-94.5608
-125.249
-93.9014
84.0727
228.207
275.56
203.729
133.111
31.6497
-1.76878
49.7322
57.7303
12.8351
-38.5443
-34.4929
7.17606
80.029
91.4981
137.103
72.1927
-37.8283
-39.6109
-99.8439
-188.984
-282.264
-255.956
-94.1053
6.6283
48.9826
12.8517
-44.593
-54.0763
-1.7931
84.4765
167.034
92.1809
-24.6
-39.1892
3.35971
72.3463
96.1115
97.3057
79.317
-10.586
-74.9363
-118.466
-132.181
-64.48
71.7025
164.374
202.931
113.979
12.419
-52.2315
-23.5388
-39.8046
-104.413
-96.0321
-8.72141
32.5654
-51.9472
-155.714
-60.4414
-14.41
-0.60553
8.11689
-6.63295
-11.4185
-32.7038
-13.4304
4.96961
61.7331
79.7007
75.8805
72.756
94.2022
87.4134
72.0633
-43.3862
-84.9314
-24.2983
64.6919
6.33359
-112.316
-51.4195
-6.69899
-22.9048
-18.9225
-45.6799
-97.3481
26.1895
-25.5829
-70.5327
65.5778
66.7267
35.4242
60.1491
-0.630585
-3.49122
41.3877
52.0112
19.1044
-52.3307
-1.71609
-27.3158
-73.2756
6.1689
25.2945
19.1666
20.1144
-53.6142
-12.8303
7.05538
-69.8686
-53.1577
-77.4707
-116.178
-31.9485
98.255
181.664
159.555
115.489
105.126
73.6308
40.706
32.0184
0.324583
-162.444
-190.514
-133.872
-180.854
-113.597
54.257
79.0563
56.3301
105.875
103.302
76.7801
43.4816
17.1305
-30.9183
-79.6108
-116.092
-81.6378
-71.6193
-48.4562
-54.2026
24.5913
81.1995
113.219
188.015
195.239
83.5084
-15.5222
-62.3816
-86.7518
-90.0022
-49.8355
-82.5553
-141.509
-88.984
-36.5745
7.14556
56.2617
156.104
110.813
-85.4129
-64.6061
-10.2402
-24.1575
-26.894
-38.0213
-136.003
-129.251
86.8152
123.708
98.5782
14.3604
78.1343
71.0179
48.4656
42.8079
72.057
123.67
55.2095
9.26741
39.6942
81.7379
103.399
133.378
-3.45188
-125.603
-81.1772
-72.8847
-174.648
-204.21
-181.558
-119.308
-124.247
-99.0603
-59.3402
-13.3901
-5.00437
-40.5942
-26.6641
23.1761
84.133
37.306
-21.9731
-72.202
-55.9482
41.94
86.0504
122.27
194.349
226.456
175.157
142.79
-18.9652
-26.4659
39.8878
56.0449
125.211
109.733
67.8216
51.5989
-27.3665
-170.291
-176.883
-96.9495
-102.722
-104.21
-93.1084
-29.6406
-26.5808
-64.5933
-129.481
-54.4662
-39.0549
-103.012
-59.6809
-36.7024
-46.9078
-5.22204
64.677
84.2781
92.443
118.103
78.779
23.509
43.486
45.1314
65.1865
50.8593
-2.16627
-0.0559351
47.5864
-2.74471
26.8532
67.5151
31.5341
12.525
27.799
88.1817
-42.4025
-237.016
-235.702
-114.369
-38.9459
5.67312
78.4797
169.008
131.277
79.6522
130.659
126.388
25.5678
-69.1615
-67.873
-30.2072
-35.181
-28.1897
-9.58986
-135.521
-189.604
-93.0268
34.8331
95.1765
94.5393
81.0803
15.1127
-94.9259
-123.832
-145.695
-196.141
-151.308
-53.3637
-11.9889
15.6992
20.5598
30.5625
50.0447
28.0869
56.7999
114.063
135.5
111.294
52.6286
29.9478
1.52762
27.4815
84.5789
110.81
31.4995
-0.743215
16.6421
36.355
47.7883
45.0957
-30.2112
-58.4522
7.10278
82.5441
83.8076
47.7012
66.6177
53.1218
-27.6542
-92.828
-105.615
-130.377
-152.631
-138.969
-97.2008
-46.0049
-37.9476
-50.6434
-45.7032
-21.5444
136.531
118.896
-24.5302
-97.9749
-249.07
-214.063
-127.162
-128.102
-107.564
57.9989
242.012
328.092
320.01
341.995
291.675
93.4733
-34.1966
-79.9696
-160.221
-147.976
-77.2095
-35.9696
-44.576
-102.68
-51.359
-22.2439
30.4173
51.9276
29.6887
-58.06
-131.972
-90.4925
-31.9141
-48.4832
-108.532
-117.496
-11.4418
103.713
177.954
166.854
41.3657
-50.4971
10.4346
99.9059
208.498
219.22
147.501
126.805
80.4306
-2.40195
-103.883
-199.517
-217.842
-182.026
-37.6811
50.8196
10.3396
-28.7598
-62.6865
-32.6443
-42.4848
-2.85848
-7.05438
-73.5456
-35.4892
47.2499
33.3938
29.3235
3.26002
13.9798
54.9314
-78.7865
-198.039
-60.9244
60.1168
75.1532
112.856
161.607
143.137
13.7547
-73.7688
-101.265
-99.3462
-67.3727
-47.8328
-186.639
-191.86
-92.9005
89.8535
162.23
134.338
182.609
229.046
125.873
99.0944
119.826
34.2069
-108.357
-124.944
-150.461
-87.0128
28.9927
124.165
87.3226
-6.5722
42.7905
82.6152
-37.5278
-130.856
-175.919
-232.034
-156.265
-78.5667
-92.6476
-136.554
-57.3739
16.351
73.8896
154.335
184.442
157.479
67.8206
-118.701
-108.711
73.3179
150.637
131.83
191.973
223.322
230.651
155.624
40.1895
-103.879
-230.659
-176.57
-108.917
-180.384
-184.459
-140.392
-111.64
-120.035
-80.5027
52.1253
78.1854
54.0716
126.746
113.089
42.7856
-55.3732
-173.508
-155.566
-32.8361
111.581
157.784
74.1812
1.19987
58.3217
47.0675
-28.9098
-44.9528
-16.3866
53.3231
117.873
120.894
31.1251
-44.0829
-57.246
-65.4246
-39.0977
-5.87016
9.47333
-51.7953
-81.4106
-34.3276
14.6684
59.3398
121.53
179.015
116.374
107.16
-2.48903
-67.0566
-58.0972
-15.2515
-20.4334
-144.645
-229.06
-202.317
-105.661
-14.9267
41.9314
14.5482
12.0466
76.1283
82.091
33.7542
-24.9876
-54.7961
-10.6582
32.8063
103.119
124.081
124.561
31.1695
-148.485
-133.098
-30.9897
10.8973
-31.5827
0.116423
40.1207
64.9269
143.658
194.166
112.454
-85.8396
-66.3451
23.7966
18.5853
-77.8701
-110.178
-138.579
-119.893
-66.7914
15.4384
95.4763
111.132
33.0774
-63.5351
-143.829
-16.8328
100.77
8.05813
-59.6797
-47.1938
55.9048
66.3431
21.2902
12.1875
64.2265
40.5243
-16.143
-92.696
-35.7227
37.4688
-47.4822
-63.8032
16.955
64.9388
81.0485
-22.0105
-49.9828
-34.741
-35.4335
52.3909
110.774
-2.72809
-47.1867
-31.8689
-29.6742
16.1422
28.4289
23.1217
1.36952
-21.7909
7.99268
114.313
61.5077
0.198006
52.061
4.87869
-21.3872
-41.0113
-58.8479
-45.433
-50.9415
-7.95536
-18.6151
-85.3907
-73.5983
8.35714
82.8625
89.934
18.3033
-0.160868
39.1218
-36.1479
-30.0596
12.8805
-17.1557
-9.70277
-6.26043
12.2844
-20.7855
-59.8353
-26.4398
-60.9051
-98.6048
-38.8376
40.0818
71.1095
106.211
79.0233
35.174
20.2883
22.2013
-19.6854
-4.69507
45.5972
19.5127
-23.3231
-14.8798
-19.2622
-51.3558
-83.1202
-67.8676
7.72515
19.9936
-104.556
-101.572
146.253
218.817
181.443
105.191
-2.87517
-45.4372
-8.03545
-2.29009
-41.792
-0.202207
-46.9481
-106.033
-96.1815
-38.6833
38.2219
50.233
27.6458
35.416
64.1778
57.1367
-105.252
-198.427
-127.856
-0.613205
40.5208
10.8923
24.1768
73.2373
42.9184
29.091
21.9991
-3.18795
12.5988
7.21461
-38.9246
-46.1245
-64.8989
-104.283
33.7387
147.117
83.9947
40.5307
13.3746
-12.7782
48.3059
73.3591
-73.1046
-194.199
-113.718
-108.784
-55.5067
32.9286
132.56
149.168
101.794
40.1319
49.2123
47.2193
15.4609
15.4226
30.5163
-74.6058
-140.827
-126.109
-106.381
-20.8147
51.1926
45.6354
2.37579
-10.9621
70.057
120.905
38.9213
-11.6005
-8.56682
36.4514
67.0073
60.8464
-67.1153
-274.964
-215.419
0.605089
40.4071
69.5353
151.279
180.898
103.883
-23.0569
-29.0753
-37.3523
-74.9915
-35.4418
-105.091
-169.544
-63.4346
-43.2481
-75.2899
-32.3262
82.0321
180.75
87.7021
4.49934
56.3977
74.593
27.816
-47.2276
-56.7826
105.635
230.998
138.959
-32.9181
-78.1069
-28.349
-27.8753
-140.991
-189.348
-94.5657
68.2388
166.716
130.669
59.2055
8.83227
-67.8312
-148.609
-181.852
-152.964
-9.80869
19.3732
-30.8305
-22.5897
25.1965
-4.94077
-28.5192
17.8335
35.2264
27.2425
5.27854
-8.14362
7.25155
71.1634
110.667
68.6045
45.4014
-10.6293
-88.114
-34.6713
166.517
225.091
24.7806
-19.7399
30.0057
-4.71735
-110.775
-76.5413
8.5883
-12.6419
-58.4701
-46.4018
7.81753
-3.23761
-20.369
39.6039
38.1715
27.3616
4.93783
-102.292
-177.644
-188.826
-96.1915
0.262018
27.2662
20.2104
145.204
221.044
135.219
65.2216
33.2403
-45.2417
-86.6282
-76.4215
-97.222
-102.275
-90.7238
7.89569
141.157
134.571
98.7007
109.229
11.899
-81.9302
-57.5916
-51.2281
-66.671
-161.214
-163.136
39.357
182.144
133.591
92.6978
85.6387
-78.738
-165.484
-75.3955
53.0915
61.5147
-62.3954
-144.393
-114.478
20.9714
85.924
116.44
131.881
76.541
46.3257
49.0166
-15.1603
-61.8078
-28.9341
-36.4154
-54.5171
40.2073
108.211
57.6994
-29.9042
-63.0665
0.46912
-9.56348
-53.2442
-53.3439
-37.8895
-53.5493
-26.4463
58.6742
66.4187
-49.3488
-4.57376
54.531
93.6801
116.246
118.746
93.5123
0.622123
-88.4594
-195.005
-200.567
-74.9867
-37.5613
-44.5289
-18.154
35.514
36.0249
-23.5674
-52.1911
-15.4093
40.8066
27.8591
-2.66747
-59.9425
-87.4961
-108.911
-114.737
-4.90304
139.473
243.032
242.563
193.029
70.7686
4.27189
-12.901
-61.473
-25.5087
-4.82813
1.01714
72.358
82.4664
11.9363
-14.3033
-25.0362
-74.5862
-84.437
5.06272
23.4243
-87.0714
-241.493
-262.467
-84.9617
35.5926
87.6684
96.8697
10.2315
-66.0957
-29.6411
67.7693
100.468
107.728
85.3704
84.837
121.795
60.3172
-26.7193
-44.4235
-90.5348
-123.457
-38.4969
40.6749
31.4567
2.03291
-104.31
8.46328
122.777
60.9065
-10.4644
-35.507
-61.3811
-57.1787
-122.541
-153.961
-116.985
-43.8298
10.2151
75.2287
105.531
114.237
126.82
80.6697
-40.6226
-26.8224
163.569
82.7183
-74.7768
-56.5469
-52.6546
-27.9741
-0.603753
20.2854
49.22
-31.3646
-121.578
-130.683
-100.377
-80.6789
35.2131
166.111
219.987
128.504
24.1415
66.0538
67.3778
55.557
120.726
153.386
70.111
-71.4043
-154.475
-180.291
-188.07
-172.254
-125.769
-64.0931
-27.4931
-31.6491
-45.9969
-8.59809
5.60841
-2.93761
-2.22904
-4.99648
-71.6752
-141.569
-98.3574
-29.5431
92.6045
180.974
245.018
197.284
119.921
50.4465
47.2941
31.7165
-12.7351
56.1177
64.0318
-85.7067
-215.315
-115.203
29.5754
41.2495
36.6603
46.4936
69.7499
-8.72988
-28.4252
-48.4208
-62.9699
39.2539
24.6577
-102.143
-155.268
32.9757
140.423
-21.9495
-116.833
-13.7357
48.3109
46.9126
37.2728
3.68312
0.297024
-9.71746
-9.57699
39.8038
-22.6815
-53.5105
-5.39192
36.7908
-60.9503
-81.1026
-1.09422
-72.3552
-78.3307
40.3021
110.172
117.085
84.8504
42.6156
6.64412
12.1155
28.3529
38.1808
-12.7731
-64.2308
-80.4885
-92.8771
-61.1506
-16.2017
82.2297
174.308
147.973
111.699
73.2598
-22.1593
-104.678
-119.737
-119.163
-109.827
-108.288
-85.8496
-40.3623
-11.3508
-10.4198
-28.8128
-77.2483
-69.9454
-17.8107
109.446
137.674
125.026
96.523
34.0964
0.146545
28.9519
33.022
4.59212
20.7386
34.3273
62.1509
26.9186
-45.1177
-5.45582
41.5154
9.94055
42.0883
56.1644
-38.811
-181.464
-125.15
-22.2351
34.3323
-5.85973
-70.3463
-24.7545
30.2515
53.5384
70.1144
60.1637
-24.4905
-119.1
-69.7848
-39.8086
-63.3963
-30.7782
-0.790681
8.55247
83.5916
11.8153
-118.85
-37.7834
1.69976
88.6922
188.175
52.407
-52.2175
-9.87487
19.2142
8.14163
-18.3855
55.1893
45.0571
-19.7112
-37.439
62.4311
170.873
131.396
-33.8553
-66.6588
29.4719
47.3899
0.0514751
-85.5285
-127.021
-65.5032
-0.117623
11.3521
-5.03225
-29.2029
-34.0449
-91.6125
-135.855
-102.003
-27.1755
8.5303
63.3376
57.6514
-2.16406
-45.94
-50.4552
5.47924
35.407
-24.1593
-58.3508
50.4183
91.4015
42.4809
18.221
39.646
33.6137
74.7796
105.844
76.7562
-34.4485
-152.232
-114.728
-13.586
46.9999
107.448
204.735
128.516
87.2988
105.311
30.6964
-78.6082
-118.107
-131.643
-114.789
-86.9969
-38.4185
-99.6163
-57.8773
6.9692
-1.80926
6.28209
-55.6998
-78.2783
3.43157
31.1592
65.1172
106.339
102.444
60.5667
-10.2039
-96.5205
-201.639
-163.21
-58.7327
16.8764
64.5016
68.9742
43.2716
38.9293
57.9023
105.536
115.403
74.0966
13.7571
16.1958
-12.5732
-83.9418
-145.056
-58.8309
100.943
108.622
167.862
190.08
77.5671
-15.6282
-47.8395
-42.2663
-146.512
-185.768
-54.7345
-40.2816
-100.03
-122.998
-114.085
-87.5474
-47.6157
-12.9176
14.018
19.5549
17.9635
73.8727
98.8855
57.905
84.6331
89.7131
20.6594
-10.2497
-29.9927
55.5265
122.852
61.7966
2.626
7.09704
29.8156
59.5955
28.7021
-74.4986
-96.4598
-105.542
-85.9288
-59.2061
-19.1551
60.0583
91.3075
38.1127
-34.817
-7.49522
30.9896
9.69366
24.0599
81.3694
38.0004
-12.1674
-13.1552
-80.9442
-150.834
-156.131
-116.791
-23.0571
47.4249
2.26587
-116.848
-104.285
-6.9909
53.6044
49.9092
37.8264
156.352
146.81
39.336
31.568
30.0991
18.8481
9.83762
90.9466
88.2335
119.659
217.18
180.733
-24.4205
-54.9529
-9.7559
-90.3886
-181.644
-147.408
-51.2972
-45.579
-110.833
-99.3061
-135.402
-198.173
-151.412
-124.635
-79.7007
17.1281
113.267
141.126
100.563
65.455
100.379
78.7182
9.66653
22.021
19.9919
37.8272
82.2099
88.5932
57.1171
57.3957
-6.63044
-51.5266
-9.53828
-8.68377
-62.2147
-68.966
-46.8858
-36.8265
-8.97564
107.381
123.432
68.9797
71.5344
91.5192
19.6664
-136.936
-162.077
-54.5309
18.1513
13.7928
36.5254
-17.6005
-90.0677
-105.047
-50.6238
-3.63672
-86.1069
-112.485
-101.247
-183.772
-119.305
23.9791
92.5693
114.917
136.331
168.024
147.103
119.981
129.508
89.9339
57.7004
32.5872
37.0064
89.6372
16.6025
-146.505
-182.052
-31.2357
44.0395
-17.0513
-48.3802
-25.0221
-76.0036
-215.126
-175.49
-87.9913
-35.2775
15.9556
50.8548
-4.17703
-6.75085
105.236
135.624
137.394
172.014
95.1662
45.241
-43.648
-113.434
-42.0299
93.8098
155.351
136.794
74.5089
-113.403
-181.466
-140.523
-96.3551
-91.3109
-84.1682
-59.0424
-1.76581
67.6757
96.2725
64.9266
20.43
-33.4513
-113.564
-188.769
-150.633
-68.1986
35.2703
168.231
144.009
186.233
186.978
137.289
46.9578
-17.9439
-43.0967
-109.399
-115.743
-32.7907
-14.593
-110.751
-40.2145
77.6024
145.355
127.732
18.1407
-98.6978
-145.37
-173.894
-174.843
-140.309
-42.1691
66.6084
118.198
61.6493
-0.743021
109.313
137.963
72.0402
101.826
106.897
15.0822
-19.7859
-10.4313
-2.48137
1.45376
-63.784
-209.688
-191.095
4.357
107.749
99.2607
29.1281
1.33649
81.8084
115.926
54.7737
23.2379
-23.6722
-45.1987
40.6589
54.1215
-0.899617
-77.0345
-73.0473
-31.8929
-39.5036
-38.117
-86.9346
-96.0817
-70.1319
-68.369
2.67649
-4.5302
-99.9253
-105.821
-29.4505
10.0493
-87.4263
-101.551
2.33644
61.9451
111.088
128.437
148.938
135.024
88.3889
67.2178
112.823
168.059
164.355
134.793
33.8265
-50.1527
-69.3177
-37.3918
28.9143
50.4619
-132.12
-197.573
-184.458
-182.999
-76.1768
56.2787
40.2856
0.418478
47.5449
59.4229
-31.782
-97.4802
-130.629
-200.061
-227.039
-70.1039
50.1407
59.2079
1.80398
153.072
522.498
382.922
35.8215
-30.5181
34.6842
-20.4213
-76.3507
-61.1977
-76.1258
-79.5202
-41.8954
-37.0734
-46.8516
-18.9162
12.8578
-28.4302
-39.6669
11.7175
24.7004
-78.6897
-164.215
-120.848
7.52081
59.6103
39.3612
-21.377
-54.2685
23.8637
73.8554
71.3322
93.9563
78.1797
48.6769
36.0012
16.2519
-29.9672
-85.7611
-71.8788
19.9533
66.3451
7.23045
17.856
89.5866
45.7187
-9.11895
55.4109
112.314
15.008
-70.5855
-54.4535
-52.9602
-101.005
-89.3146
-13.4475
56.3427
64.9345
55.3006
34.4001
0.378555
-115.433
-155.11
-79.1592
-52.7741
-15.6739
-15.9899
-75.1997
-89.9197
-70.6764
17.3216
107.311
170.274
154.569
102.658
41.3763
23.0882
35.1645
40.2188
37.4024
-34.5464
-49.0605
12.5852
-25.2509
-70.5004
-49.5847
21.7492
-9.46799
-85.7081
-48.4839
-46.9972
-82.8093
-110.187
-34.4767
77.812
131.832
133.741
105.548
103.135
61.6559
21.4887
-26.9917
-63.162
-44.3874
3.50401
42.3166
16.6798
51.4923
73.161
-8.29842
-31.8161
-6.25997
-51.0067
-168.866
-225.477
-119.213
-51.3728
-54.4614
-36.2004
-34.54
-15.7367
25.1356
69.2273
96.0628
61.0291
34.888
-27.829
-14.2103
71.7037
109.31
58.5751
5.71943
33.9767
117.463
156.371
124.222
119.041
143.122
90.5833
6.30556
-90.2292
-191
-205.465
-100.645
37.5055
-8.1163
-103.169
-75.9466
-102.402
-187.455
-174.024
-123.718
-61.4375
4.01694
75.873
91.6328
12.282
-76.2147
-49.2093
95.3151
226.831
161.019
-35.5924
-108.108
-145.41
-73.0747
74.2445
128.809
125.512
82.2439
72.4912
149.592
169.03
162.027
125.695
86.2825
24.1613
-117.521
-283.886
-419.036
-320.804
9.20365
191.936
125.686
184.126
126.104
-26.5143
-34.9149
68.0086
94.1278
-37.1888
-199.649
-159.762
-28.9445
-47.2624
-90.7048
-77.1673
-29.1077
45.7628
53.5088
7.58526
4.76451
37.3915
42.356
-58.1826
-54.7487
-23.3798
-59.9383
-20.422
116.538
177.503
143.469
-46.6507
-186.263
-111.293
-90.5896
-127.604
-40.2671
83.3389
171.465
177
32.0854
-9.74123
128.391
177.43
152.737
258.604
137.059
-88.0979
-175.929
-133.111
-144.01
-177.64
-228.686
-206.288
-45.7083
313.041
396.563
195.178
-1.37143
-150.746
-182.449
-129.306
-138.847
-163.971
-66.7801
-47.9142
-79.4024
-119.528
-90.6167
-20.5758
64.7952
195.601
298.915
211.908
78.7348
-98.6171
-109.77
81.8737
135.366
9.09082
-29.1107
-29.7954
-75.4918
-132.196
-183.384
-238.283
-165.953
29.8073
162.464
235.565
331.242
270.87
-27.2879
-250.128
-171.726
-249.638
-187.828
-59.5748
143.157
451.117
497.611
362.916
213.176
-16.8984
-176.206
-235.05
-233.319
-91.1603
83.6247
102.353
-26.8442
-198.362
-199.86
-156.876
-196.027
-115.264
-53.4487
14.4202
33.0846
-69.6084
-73.6448
-7.65282
-114.307
-85.5113
17.2166
89.4887
183.083
153.223
-15.0242
-97.0738
-45.2955
75.0071
221.541
281.605
135.268
-44.8578
-60.3233
-83.0823
-35.9879
-49.5328
-124.176
-111.254
-43.8724
-32.8876
41.5429
206.408
234.251
86.4545
119.198
261.564
254.912
240.759
163.596
-102.051
-84.6456
46.4947
-84.2261
-299.519
-496.968
-457.555
-213.779
-128.419
-38.5612
115.143
125.363
-179.348
-318.596
-118.086
-37.2695
-131.815
-195.044
-138.043
-120.924
24.756
41.1921
54.5274
186.355
374.322
531.679
681.022
643.75
439.189
212.097
34.958
-40.9379
-6.89827
-2.32982
-104.358
-277.562
-343.835
-300.863
-324.749
-291.471
-136.881
62.7226
198.225
-113.41
-425.493
-318.803
-224.475
-76.8257
95.6637
198.446
254.515
153.474
-14.0603
-58.9998
-173.734
-153.687
0.592978
216.173
421.647
496.452
397.121
129.175
-66.5987
33.9453
14.4766
-162.661
-294.804
-367.822
-315.713
-254.474
-207.55
-90.3177
104.168
108.054
142.644
286.043
276.05
181.965
155.429
-45.4072
-292.248
-303.724
-226.258
-103.882
214.732
449.67
522.232
250.766
82.4144
45.1573
-122.182
-328.429
-337.269
-92.6319
-5.18159
-39.5278
-91.4489
-187.074
-296.897
-268.772
-114.677
53.6255
52.6184
87.4817
198.371
236.484
90.647
5.62431
15.4929
-11.6835
-11.8393
146.523
324.106
243.411
-14.5146
-264.104
-329.658
-294.51
-183.917
-48.795
128.226
196.297
29.4734
65.2114
-10.0289
-192.499
-167.803
-89.1303
-43.6767
37.1469
68.8222
169.275
211.845
93.4139
24.897
195.435
291.607
208.107
-43.0403
-253.511
-260.127
-143.275
200.463
435.912
556.029
509.12
226.551
-112.269
-235.597
-322.764
-425.236
-340.277
-354.912
-381.023
-211.911
-102.997
-49.9102
-88.9815
-105.97
68.6235
201.148
15.2145
-117.815
-217.319
-358.582
-423.7
-294.161
-76.4188
-47.639
221.691
575.688
685.054
601.091
533.725
479.04
401.911
177.904
-38.0258
-14.289
45.9356
-75.4232
-115.294
-80.4488
-176.225
-271.516
-296.136
-268.692
-73.5907
34.1144
-124.534
-208.161
-345.981
-366.317
-190.526
-69.6291
-150.156
-89.352
68.0181
115.867
74.5036
-12.0859
17.8817
290.559
366.306
256.287
327.225
397.284
149.671
-70.016
-64.3865
-33.7986
-93.0498
-123.854
-186.042
-144.693
-40.0268
30.2659
35.4069
23.4486
95.261
164.348
96.773
-173.581
-203.188
-12.8488
24.5994
-107.677
-158.489
-112.991
5.358
110.918
157.207
163.921
88.6016
-62.6977
-123.235
-125.13
-38.7422
120.009
155.099
107.535
64.8428
-139.105
-298.61
-243.868
-149.904
-13.157
154.353
185.428
83.9867
37.2409
32.8667
-11.8218
50.9525
56.8154
-38.9167
-86.5893
-69.9874
-26.5544
-130.92
-138.989
18.4464
126.827
11.2654
-259.777
-366.618
-288.585
1.19391
337.606
510.294
553.616
442.512
222.935
28.5942
-30.4146
-97.015
-77.6458
-11.0851
150.82
200.948
-92.3506
-270.808
-228.5
-65.0177
12.1969
49.4207
58.4567
-61.3073
-162.069
-317.102
-448.739
-416.514
-258.901
-87.2424
72.7704
179.025
111.347
72.1824
-4.32016
49.8745
152.65
84.6333
79.95
146.815
147.645
123.876
121.9
77.3216
-10.5517
-75.0905
-103.881
-45.7726
83.2608
82.611
-28.636
-28.317
52.2069
81.8486
39.9395
21.1944
146.871
276.896
223.529
14.0689
-148.784
-214.12
-290.699
-313.986
-197.536
-30.5627
145.885
168.598
210.946
248.729
148.176
-45.4339
-119.081
-119.094
-223.717
-381.615
-318.765
-190.192
-199.612
-153.789
93.3588
287.312
475.739
403.393
88.6291
-140.68
-299.916
-320.747
-255.062
31.3489
368.372
447.39
330.608
88.1134
-186.061
-128.057
49.5533
100.758
3.99601
-171.479
-216.421
-163.362
-179.211
-257.843
-125.226
145.961
258.883
212.641
128.79
21.8676
2.57091
-69.7107
-40.6386
56.9569
87.5424
92.9648
94.4196
2.57637
37.1335
205.439
229.08
63.7703
-44.7929
-12.5041
-83.0678
-170.064
-196.191
-85.8093
96.6646
33.833
-193.722
-174.84
-168.837
-106.756
44.3402
185.275
180.923
152.032
15.0472
-56.5976
-192.524
-227.333
-115.692
49.8588
55.2831
-152.622
-184.368
-42.8231
-75.7025
-42.0567
213.229
273.763
198.041
111.665
-0.00764304
-93.6486
-71.4195
-4.61164
28.22
-0.479864
-5.36783
-64.9112
-126.178
-61.0615
115.817
302.112
345.85
289.002
131.896
-138.126
-290.024
-251.226
-163.586
-136.653
-82.1385
11.7233
83.4311
10.441
125.645
272.963
262.712
107.479
-107.079
-99.7707
-13.3027
-51.1962
-118.764
-228.812
-201.761
-18.269
25.3489
55.3341
84.5231
150.601
206.336
105.332
-64.5584
-136.298
-205.828
-224.705
-153.823
19.3335
41.4755
-50.7614
-111.53
-72.1176
-29.6684
-19.1559
5.83614
-26.888
-96.9647
52.0379
131.832
181.042
135.459
80.2234
36.2988
1.74225
1.86028
-30.2986
-14.5886
-28.0985
-26.3276
108.309
229.102
192.486
98.2885
96.4372
127.404
120.575
44.369
-87.8974
-158.278
-167.444
-38.8048
111.38
138.631
30.1637
-105.371
-146.301
-89.8749
-51.0011
-49.0381
-126.33
-187.844
-83.4242
45.4674
2.52962
-109.702
-272.264
-321.009
-255.3
-37.4643
92.484
186.555
210.655
246.593
167.336
83.0255
110.338
82.1256
0.97618
-22.9471
-11.1358
-25.1329
-51.1027
-113.918
-90.9676
-33.4928
53.5922
76.3023
20.0115
-50.1993
-70.7683
-46.3926
-44.4084
10.1111
146.134
279.503
277.265
119.769
122.353
177.027
24.4559
-169.717
-193.874
-72.6978
-35.9499
32.8749
116.519
156.934
184.702
158.625
-7.21775
-199.101
-260.542
-330.843
-419.008
-381.26
-201.753
137.71
247.138
201.221
90.818
44.9729
76.4566
49.8495
-65.6331
-222.68
-267.465
-213.542
-88.7321
-11.6177
-35.8299
3.80063
25.2082
-2.39163
-17.8042
52.5337
162.63
187.009
184.375
129.355
149.083
177.949
137.905
109.7
92.6252
49.6656
57.6596
52.6185
-52.1054
-110.372
114.614
225.356
-9.57143
-93.7716
164.56
181.332
-83.4488
-314.085
-424.626
-368.462
-196.38
-93.5737
-137.221
-67.0481
86.6375
89.8586
92.5447
232.806
196.864
34.445
-128.822
-272.345
-201.245
-78.9265
29.8149
101.43
52.643
-5.66921
49.5143
126.772
84.8346
-8.2594
2.84277
-24.2242
-120.373
-79.8379
-1.43494
19.1154
17.8888
-40.8982
-115.711
-62.1696
175.466
270.589
236.688
185.719
89.1369
-1.55874
-26.4667
-75.3478
-62.4077
47.5046
145.877
148.096
149.881
98.9929
77.7372
-76.284
-309.723
-438.029
-340.512
-191.637
-73.5067
59.0349
298.512
289.693
166.728
-129.609
-212.454
-108.792
-9.94241
-34.7445
-42.0783
-1.03741
-55.9917
-124.302
-258.811
-240.397
-38.9797
149.929
152.995
45.2536
18.3468
72.5263
-23.6638
56.8322
263.621
320.798
241.238
121.826
-7.89995
-40.1267
-90.9713
-111.265
-39.8161
-38.0886
-125.896
-40.7158
73.7657
141.115
194.421
256.866
126.425
-100.326
-271.182
-250.983
-241.787
-111.336
29.6299
85.2042
60.9516
61.272
-0.964795
-78.9302
-90.8348
10.4459
82.6451
42.0859
39.6182
101.425
38.7631
-122.015
-220.344
-207.884
-173.701
-116.604
-5.80299
200.215
180.246
4.9827
-31.4528
-41.2347
-22.2951
-45.3788
6.04743
65.7096
94.1761
98.7286
95.434
16.3143
32.0597
267.236
481.985
442.508
130.124
-119.89
-340.052
-418.185
-300.041
-214.049
-159.823
42.458
143.275
104.499
41.2357
0.315111
-22.4606
-55.3273
-116.145
-59.4536
4.60928
-39.8545
-143.581
-326.201
-293.853
-93.9322
100.939
177.049
104.745
172.872
241.038
141.676
49.5645
33.1422
91.6425
201.313
267.841
14.2839
-141.253
-106.526
-62.5438
-14.0306
-91.2593
-70.4011
19.0151
-41.1153
-69.3899
-30.8563
9.99278
20.3595
30.028
24.5063
13.9078
8.62448
20.1649
140.679
232.607
207.77
137.339
-15.2551
-188.79
-290.758
-228.897
-109.225
-104.775
-50.0336
61.2209
23.0181
-8.0117
2.83859
-48.9099
-123.126
-125.727
-36.8859
-66.9182
-172.544
-178.035
-41.1537
70.0964
146.602
195.256
151.763
65.1188
22.7355
58.2761
109.733
158.821
140
31.1576
-11.0518
6.04087
58.1317
92.9077
65.7012
-10.7649
-118.575
-176.807
-54.2328
7.48767
51.5809
-0.95117
-64.7722
68.3027
143.016
139.345
22.7768
-67.3765
18.6033
36.3951
4.58007
-20.2834
-117.463
-170.296
-143.41
-50.2796
-40.2318
-97.2819
-87.6989
-36.8667
16.5552
68.2727
75.114
26.6048
-59.1197
-155.478
-180.414
-139.011
-47.2648
82.7451
70.5932
24.7716
46.1103
91.1997
25.6124
-95.5056
23.6691
131.387
85.9871
112.451
137.031
182.273
196.938
203.283
149.557
-18.2119
-50.7883
-111.251
-203.047
-210.597
-186.974
-137.744
-32.642
84.5561
147.885
174.2
30.7171
-52.2621
77.8372
177.492
58.7091
-63.3142
-43.3204
-135.659
-167.169
-53.0336
-69.2133
-105.371
-85.6199
-17.7672
-17.4721
-70.9222
-98.9402
-81.9684
35.7647
151.855
166.236
135.236
35.7612
-138.358
-128.828
-86.2532
-144.265
-91.951
53.5953
103.37
33.4901
-19.3697
4.93442
111.965
198.896
191.228
155.477
109.331
-40.5518
-175.535
-145.447
12.5491
97.0602
147.682
161.43
90.308
-46.0458
-59.612
-67.8969
-75.9283
-23.3277
40.9755
-44.1505
-193.812
-192.708
-44.0763
165.958
152.48
44.4041
80.4271
90.9114
-37.2168
-157.243
-211.779
-193.971
-100.618
-37.0495
-67.8689
-139.208
-135.274
-63.666
36.3687
129.576
120.329
148.134
219.159
219.023
165.731
108.413
-71.3463
-245.679
-196.117
-12.8669
30.9232
23.0362
65.2251
141.704
204.006
234.013
284.968
205.171
-14.3325
-59.6759
-76.142
-167.835
-248.331
-351.415
-445.71
-351.582
-160.221
11.1365
170.877
168.141
54.7537
5.30143
15.653
35.9265
-18.4708
-33.8343
-61.6386
14.2197
115.338
97.3133
75.6702
85.2414
119.359
95.8016
109.676
127.083
109.503
124.962
70.3812
-42.9631
-115.619
-176.355
-144.965
-85.8653
-57.1662
42.8941
87.4081
-25.3677
-53.6279
-38.1703
-33.5126
5.49931
54.2065
75.5771
104.41
39.8992
0.0405724
-35.7898
-67.4093
-63.6751
-64.0291
-94.4243
-118.523
-201.201
-253.849
-196.78
-31.5658
76.7648
123.087
207.053
307.782
282.865
64.2942
-67.5253
-71.5368
-21.4892
50.9128
116.009
68.2642
-120.791
-124.219
-99.9983
-184.546
-131.339
-39.1193
53.3944
193.903
355.215
292.856
48.7384
-89.3898
-114.284
-22.3662
17.4102
-40.7914
-81.2494
-102.761
-125.082
-166.768
-94.9084
51.3052
193.364
75.6978
18.8186
97.2023
37.0132
-129.97
-184.296
-88.5022
-21.2729
-15.3879
12.3786
-5.75376
-45.7405
25.205
105.897
93.3972
25.5139
-26.1109
28.8409
94.761
105.097
123.371
30.4034
-76.4583
-96.3806
-61.3943
-64.2763
-122.699
-85.2541
-69.6267
-111.229
-68.8525
77.3344
189.951
150.133
73.8913
78.8536
111.593
175.237
221.14
177.557
164.187
80.8999
-32.7556
-134.576
-209.414
-288.182
-308.013
-295.739
-259.749
-218.674
-182.141
-151.529
-125.867
36.0444
211.828
219.742
142.683
66.2544
-86.6501
-202.116
-80.8173
49.6611
101.474
137.375
216.112
301.521
280.943
264.798
212.029
117.486
30.8205
-80.0487
-105.124
-72.6777
-125.356
-91.9422
24.0574
122.731
142.702
66.6316
-55.7027
-111.362
-90.1157
-33.4166
-13.9808
-96.7593
-72.1933
-85.9976
-205.642
-218.567
-145.669
-78.596
80.6455
153.514
28.4506
-139.017
-169.449
-220.196
-251.37
-114.043
45.8602
152.984
219.986
230.278
127.265
39.51
49.0317
59.7173
-15.4466
75.2001
145.186
75.1399
-46.6972
-40.6303
106.878
149.018
74.6367
49.0719
52.1535
20.4249
38.1013
40.4307
-66.1697
-138.745
-91.8128
-51.8199
-108.492
-125.603
62.7273
123.156
58.4059
124.311
101.224
-86.0159
-195.62
-160.352
-94.9834
-111.736
-144.436
-56.2842
23.3039
-17.1955
-35.1644
54.0957
87.2783
106.616
139.256
96.0166
56.4487
-8.04156
-27.0915
-48.788
-143.117
-157.026
-62.0751
-16.6733
42.1762
128.96
201.831
189.062
22.2304
-89.1508
-53.0976
-33.4171
-70.523
-61.718
43.7191
106.099
-6.17233
35.1795
192.14
158.173
6.71265
-113.32
-154.374
-163.661
-148.346
-137.639
-131.913
-33.1512
121.764
206.325
102.483
2.22901
-105.591
-123.388
-134.492
-51.0232
182.138
229.585
80.89
10.3308
36.9553
-9.21423
-109.86
-114.654
-76.3818
-31.543
73.1446
124.059
86.0448
89.2837
122.26
150.594
192.977
74.4682
37.2964
71.3331
73.5877
-122.094
-333.078
-332.974
-251.122
-149.122
-65.0682
-22.9721
-39.7146
-64.6895
-95.2557
-149.381
-126.843
36.5573
137.506
23.3832
-25.6545
61.3771
66.1683
55.8077
36.8157
94.1773
194.246
169.039
157.125
159.328
154.774
198.46
147.208
61.3563
20.6021
-81.2391
-95.551
-60.185
-49.4486
-9.32061
-56.9767
-122.463
-195.029
-261.483
-315.194
-259.74
-83.02
120.96
176.897
188.301
236.499
227.531
188.082
2.60397
-169.885
-218.826
-192.198
-142.341
-168.692
-105.452
63.5048
179.277
101.75
-5.52978
11.4763
66.1275
41.5892
-20.4726
23.9789
5.85721
-66.5926
-136.484
-131.205
35.2686
162.211
198.203
154.385
75.3203
47.3369
-57.111
-106.704
-92.1307
-1.54555
75.1865
104.585
165.798
161.217
140.125
133.18
110.886
24.4839
-77.8819
-188.421
-241.711
-256.037
-238.438
-185.017
-118.603
-75.2402
-10.8347
83.372
108.543
51.1646
-2.32861
6.59698
-6.2585
-30.9898
-144.877
-262.143
-148.959
-31.4615
131.209
153.981
49.5896
99.7612
140.699
159.014
162.497
197.942
171.673
35.9608
-54.2819
-51.1308
2.01407
34.3038
73.0498
113.63
100.229
71.7735
-1.81891
-31.0703
-156.455
-117.536
10.9127
-19.3431
-127.405
-187.455
-187.566
-211.609
-189.547
-16.5516
143.471
130.316
10.7647
-14.5237
-7.05283
-12.3461
-16.5956
-59.5785
-63.7522
-54.9505
6.70701
59.0704
104.164
172.755
248.102
175.915
28.1469
-84.2429
-63.425
-30.7556
-87.5942
-70.0271
20.9723
-3.40886
-103.03
-182.706
-80.8781
86.3787
97.5667
63.8851
12.672
-2.09405
-3.79549
23.0077
37.601
19.2339
-10.223
8.79136
-29.2817
-98.5577
12.5224
198.258
258.747
235.511
137.887
-5.37701
-145.829
-229.817
-220.35
-154.992
-129.63
-63.692
57.4954
71.1253
68.8904
111.997
108.163
130.265
83.753
-86.3736
-174.94
-196.621
-158.624
-31.3986
49.5777
77.994
33.1479
-43.1547
-76.393
-43.8668
3.11593
-15.7576
24.1946
112.966
118.455
-48.6122
-30.6439
173.301
198.643
-30.422
-109.019
-130.635
-155.166
-198.345
-176.788
-103.614
-3.58022
124.752
201.954
157.287
146.68
179.556
108.922
-4.24343
-58.6394
-39.8895
-51.7225
-86.055
-32.9499
147.065
185.924
132.407
24.3791
-106.212
-130.331
-81.1927
25.5049
167.442
194.114
47.4146
-167.006
-157.337
-69.9437
-118.818
-72.5679
46.7487
27.9098
-90.238
-161.932
-156.075
-149.857
-73.8784
-5.2272
-27.9099
-31.905
13.2899
1.29849
-68.0357
-97.549
-34.5792
56.572
36.7468
45.7164
142.784
157.817
160.448
121.822
19.8821
109.111
286.509
287.026
260.229
248.7
207.921
123.33
25.2921
-75.8296
-209.664
-318.451
-316.172
-207.142
-147.817
-226.501
-272.954
-207.998
-175.679
-127.971
-29.2639
-31.9923
-62.2133
-33.5728
-57.3264
-53.8247
32.3268
76.2311
64.7903
74.4708
126.169
210.253
253.011
249.947
181.273
146.929
144.523
131.179
149.227
18.9857
-167.187
-172.18
-120.437
-26.1391
17.0569
0.288277
-63.716
-101.747
-67.9999
22.4202
135.539
157.381
99.2013
48.2155
-2.07653
-46.6889
-135.33
-218.371
-244.398
-129.431
-10.1235
-43.9157
-79.9757
-116.952
-118.428
-77.0114
7.59351
75.8815
102.582
-14.8557
-184.443
-113.345
30.8142
170.643
193.333
144.375
187.006
167.415
-79.674
-106.864
53.3686
96.1165
57.2116
1.05685
-32.0204
-43.293
8.35826
96.113
123.186
97.2547
79.97
86.6021
141.172
115.751
115.586
33.6208
-182.543
-222.115
-59.5481
-95.015
-255.596
-253.285
-135.867
-25.7186
2.65871
-25.1696
-1.88051
-21.825
-39.6273
85.0977
170.529
5.98716
-112.19
-180.422
-289.411
-263.356
-50.966
56.7499
117.468
155.726
153.824
124.501
86.3027
54.0271
68.3764
58.681
43.1119
11.3916
-86.1054
-81.587
-5.27561
155.076
211.625
118.794
143.601
204.705
181.388
98.259
42.1648
92.4293
88.1827
8.98309
-128.12
-200.076
-94.1865
133.323
30.7082
-116.351
-101.411
-171.115
-258.424
-318.379
-365.366
-311.272
-194.657
-88.3703
-17.3396
59.862
67.814
16.9393
40.7189
70.4905
173.316
188.392
64.6288
-65.5445
-114.121
-32.1436
95.5369
119.546
100.188
59.2509
43.0935
99.865
168.349
117.473
34.3548
-11.3609
163.363
375.199
334.653
177.665
-8.18809
-142.57
-192.931
-241.185
-214.202
-218.309
-138.569
55.6626
83.0234
3.18404
-16.7521
-7.90615
-105.489
-155.289
-77.6054
37.3116
-32.1902
-347.091
-298.97
-82.954
37.1807
92.5313
71.5509
27.8487
49.4835
85.4747
85.9619
31.392
13.0286
49.4823
63.6717
51.2489
122.86
200.94
145.401
8.09536
-88.594
-4.60584
-8.07674
-55.6867
-50.9275
-73.2336
-41.3638
43.684
137.182
173.726
86.8963
7.39543
-9.44833
34.2473
47.1718
-22.2968
-96.6594
-160.095
-193.201
-167.479
-28.6418
65.1525
68.6442
121.381
183.713
125.226
0.979438
-121.926
-167.685
-26.6542
7.0665
-82.762
-88.6396
-269.308
-253.13
-68.746
10.3563
80.7264
113.59
71.4672
-10.0347
-42.857
-34.0097
-54.4881
-89.0983
-40.8151
44.8961
97.9853
117.493
46.7779
35.5438
112.826
139.886
235.322
230.505
186.714
134.378
98.6909
94.7413
118.263
90.9522
-37.5786
-73.1272
-125.387
-220.97
-176.516
-101.064
-92.5541
-115.661
-167.45
-186.518
-167.255
-31.7168
146.866
176.815
49.8048
-67.1933
-106.765
-94.6705
-54.643
-102.437
-52.0572
-55.542
-46.5967
78.4642
133.847
131.977
114.901
109.194
106.504
27.6072
-130.722
-208.408
-169.372
-94.3169
15.7046
143.845
136.314
65.8021
31.7311
46.81
-0.449488
-18.3715
133.125
151.753
-13.525
-147.059
-67.0183
72.3575
158.579
198.51
155.978
66.2288
-11.8002
-103.473
-127.756
-147.335
-153.412
-79.6586
-27.8719
-34.6168
-7.02128
53.9607
8.80204
-100.17
-72.5366
-32.603
-35.6296
-37.2882
-4.85214
68.8075
61.9947
76.7084
112.409
138.492
24.7591
-29.094
3.68378
44.5526
24.8596
-23.6744
-55.6774
-95.5663
-109.768
-91.2591
-66.907
37.081
119.503
86.7225
-54.8595
-111.776
-7.44048
-12.8068
-88.2514
-108.454
-33.2558
-6.55767
-89.4343
-151.665
-117.889
26.396
139.889
282.915
272.979
178.565
109.198
47.7251
33.2584
28.5458
-49.749
-89.4133
-79.0427
-91.7786
-38.4293
26.4409
83.1975
88.5971
62.7115
31.6577
59.055
47.8296
11.7483
-43.0719
-119.076
-54.3347
2.28317
-40.0955
-138.211
-163.402
-143.696
-156.147
-44.194
170.942
158.367
-38.8296
-56.3493
25.3701
114.805
93.4715
-34.4575
-93.5773
-38.7043
34.2695
56.5036
24.3593
35.3909
-27.8169
-168.827
-131.73
-19.6218
63.8582
123.469
48.3177
-18.2132
40.5204
12.2203
-107.313
-129.662
-20.1837
48.9222
27.0421
74.9102
142.088
155.625
149.31
146.034
143.632
182.131
109.72
50.7308
24.6566
-48.8356
-115.18
-125.699
-247.21
-261.946
-166.095
-111.673
-117.631
-140.392
-90.86
-103.937
-171.422
-152.378
-74.3875
-57.196
50.1003
173.29
172.791
170.715
112.933
20.3897
29.9005
54.6158
131.807
144.371
111.297
109.51
91.8889
157.058
328.871
282.772
-27.4072
-101.589
28.6834
75.3961
14.8887
-30.7783
-38.8757
-165.492
-245.633
-210.826
-257.938
-265.874
-165.265
-128.027
-52.6338
49.6384
38.2074
-99.7573
-166.132
-130.042
-32.3091
-5.93141
-67.3579
-54.1412
7.327
34.7499
51.1775
111.677
135.345
112.032
131.924
158.249
177.239
175.86
130.311
61.287
49.8238
50.7887
-22.9989
-43.0994
0.941283
27.6038
31.6308
19.8769
-62.396
-127.337
-178.18
-77.9502
36.3253
69.9837
166.358
256.082
296.605
141.461
-86.0365
-166.834
-63.2784
161.281
158.097
79.8446
82.4248
-110.123
-381.131
-397.56
-353.347
-304.885
-237.945
-235.16
-223.285
-120.62
-88.13
-59.7725
-42.8736
21.9886
94.9477
136.112
80.5972
-36.4175
-24.2639
28.464
63.8836
195.213
315.976
303.433
329.872
290.867
232.97
119.315
75.7581
76.6383
15.4817
-23.2481
-43.2029
-28.2658
34.8429
31.4197
-22.5499
-83.4163
-136.675
-144.112
-126.313
-60.3169
12.5717
4.26849
-14.6195
37.1827
52.1845
3.44369
-37.6905
-50.7947
-50.0406
-124.05
-151.798
-110.836
-85.4908
-91.0627
-106.287
-77.85
-37.6632
-20.2338
-50.4562
-60.8091
-60.5081
-59.5761
-76.0975
-122.43
-122.848
-0.388484
102.211
226.607
428.227
483.462
391.568
223.895
135.911
167.053
248.308
124.932
-49.5374
-127.478
-200.501
-206.032
-251.793
-244.065
-177.638
-126.629
-88.3147
-42.3709
-144.974
-352.649
-364.364
-277.434
-178.903
-19.5672
96.8887
67.3379
-63.7259
-9.45442
114.368
175.455
264.596
315.578
297.593
253.231
315.511
257.085
31.6824
-0.558595
144.074
231.723
62.1698
71.3206
142.923
-20.4641
-229.375
-240.439
-171.653
-151.976
-117.335
-94.7786
-117.17
-146.982
-86.6385
-9.52537
-42.852
-41.2348
56.4401
39.9845
-64.042
-107.507
-130.683
-119.792
-42.5354
104.731
144.979
98.1408
-14.2085
-73.0992
-63.4202
-22.7515
-6.12028
1.02521
116.623
186.109
22.3917
-88.8692
-79.8644
-117.92
-82.5936
-3.03663
8.98291
-24.5282
-53.0962
70.2377
132.372
15.1859
16.2743
72.447
56.876
74.1856
109.338
129.627
130.298
10.6205
-16.1789
1.74236
11.3781
81.4959
143.26
135.289
91.292
-100.797
-268.794
-324.251
-242.565
-107.146
-44.8385
-24.0974
-44.2632
-67.8291
-27.7643
-31.464
-78.2181
-10.18
121.403
224.238
244.303
200.368
15.395
-119.764
-34.4173
45.6385
9.75236
38.3223
140.191
88.8621
-53.1801
-163.178
-140.1
-92.5225
-37.4856
29.9171
136.092
194.868
107.259
-52.9668
-120.648
-173.079
-30.4561
29.1006
-188.608
-161.049
-23.6269
-63.8172
-214.902
-180.938
-5.29542
124.278
158.092
124.296
94.2729
53.4738
-20.6741
-72.7518
-48.0465
79.9189
113.092
91.7897
66.8277
87.1065
165.761
113.724
65.9031
65.6522
111.007
158.968
111.714
34.4926
-54.5341
-129.572
-167.978
-168.043
-180.745
-262.665
-243.911
-147.517
-100.483
-17.2409
72.1955
144.269
301.243
281.269
91.0017
-45.6179
-124.62
-140.627
-85.6984
-5.95192
68.1595
49.1961
-13.8311
-31.1381
-73.8096
-25.6196
53.2926
32.986
35.763
2.00476
-55.6141
-159.282
-247.302
-194.708
-95.6206
-41.6475
-6.4215
-22.8502
92.1376
109.235
121.721
135.522
181.24
235.133
219.113
150.907
71.3641
53.0223
103.652
134.619
112.306
72.4742
-23.3497
-157.303
-174.418
-168.041
-151.993
-87.9935
-98.4799
-78.9431
-51.5811
-4.92789
33.6051
-14.411
-110.431
-87.8441
2.37957
-32.0889
-111.143
-152.628
-108.711
37.7712
98.8134
-49.8961
-71.0379
45.6076
157.617
108.32
33.2933
82.1105
111.858
189.86
184.154
38.2638
-65.681
-42.5314
-75.576
-159.742
-149.751
-86.2345
-20.488
57.5762
180.982
287.781
251.102
244.593
123.166
5.65353
-81.2276
-160.093
-236.83
-319.648
-329.557
-232.201
-121.487
-85.2125
-41.8622
77.5795
145.161
129.805
109.983
16.7404
-155.332
-119.428
-35.8508
-72.8954
-10.6475
97.123
81.1034
106.618
168.218
175.358
120.02
30.5781
-11.6707
-21.3664
41.9738
196.035
237.416
134.501
-42.2688
-119.149
-97.9605
-45.0247
-5.28005
36.7525
76.9945
85.5421
40.292
-16.696
-91.3176
-189.824
-250.332
-193.463
-167.545
-192.742
-184.249
-112.176
-67.219
35.2794
149.29
144.56
89.5829
54.7514
-19.3605
-77.0094
-110.182
-95.1789
17.3766
69.6841
93.0869
145.958
197.873
143.261
145.787
160.518
105.956
-31.4821
-116.587
-130.487
-162.877
-146.285
-57.7179
25.5868
131.839
110.183
43.0444
-34.9724
-16.288
98.3224
120.139
125.823
153.427
131.915
-52.9643
-187.172
-93.5828
-56.2204
-42.1759
-102.394
-165.171
-135.509
-76.1439
-29.5109
-23.3888
-6.81349
53.3538
19.2449
15.0348
-46.5661
-152.585
-150.286
-101.461
13.9429
243.293
328.251
78.2548
-37.5415
9.77562
49.1892
38.0032
34.3015
69.748
-41.371
-109.753
-7.42488
80.4865
109.249
21.5499
-73.1559
-53.4561
-46.6515
-123.632
-200.733
-135.036
5.6871
154.942
154.065
37.4571
22.3066
41.2257
-17.4424
-8.84847
85.6506
16.8224
-81.4818
-123.989
-76.6578
-57.4933
-83.8011
-21.1588
69.3636
125.824
151.882
110.817
62.667
36.7621
27.7228
4.83305
-10.507
7.00984
-0.625868
-82.6103
-117.773
-43.5909
-64.2068
-119.981
-33.0225
155.211
339.742
237.128
5.61788
-99.1033
-70.6877
-40.8579
-125.343
-189.188
-126.122
-59.9247
-50.8254
-38.223
-51.4196
-85.2883
-55.6292
23.2852
125.953
219.138
147.462
-44.4593
-154.555
-136.596
-26.7622
57.6891
33.9151
-54.7841
-80.8845
-36.6515
-28.6125
-9.55272
53.5687
119.043
213.851
283.043
302.364
193.224
-0.4905
-105.603
-125.013
-71.605
-93.5997
-175.308
-258.493
-232.495
-96.7465
49.7621
172.727
292.17
276.106
216.59
57.2363
-295.563
-120.288
-33.064
-22.1656
-73.3708
-115.698
-142.037
-182.64
-168.995
-78.5218
-44.513
30.4352
158.189
129.247
69.66
99.9855
139.431
201.771
197.007
130.598
-7.41331
-151.115
-203.655
-160.495
-51.8786
118.285
186.226
96.919
-9.98753
-118.716
-167.141
-99.3149
-58.0245
-95.3022
-97.6421
-88.717
-118.459
-87.5959
-0.168842
26.7129
66.4118
110.308
112.831
48.6443
12.4951
-17.2722
-10.3551
101.623
138.702
99.709
35.4545
-18.1488
-32.5487
-57.1918
8.06128
103.688
185.677
222.387
180.508
53.6834
-58.8758
-36.4689
53.7797
40.5378
11.4037
-29.578
-150.436
-177.391
-224.805
-167.917
-80.7898
-29.9714
-57.0103
-92.1576
-83.2337
-145.997
-225.877
-244.696
-175.19
-40.3338
65.9818
114.859
96.8175
102.106
155.775
157.509
152.249
144.202
185.277
160.415
120.516
55.7742
-46.4451
-86.9093
-41.4774
34.0244
52.5769
66.5767
55.5513
-4.72948
-32.1479
-70.9989
-147.249
-123.36
-72.5505
-8.09768
49.1835
84.5966
108.183
101.014
-8.75565
-51.872
-23.9827
25.7542
92.1826
11.1218
-144.547
-237.843
-162.726
-21.3659
62.3276
76.5719
46.3459
-0.521189
-85.6841
-144.514
-121.238
-46.066
9.71356
-4.63077
22.0561
111.169
224.889
173.895
-11.0078
-89.6425
-21.6369
28.8949
-9.06279
-37.325
-43.9377
20.1842
99.4727
112.86
56.9052
-34.0436
-84.393
-155.291
-147.592
-90.017
60.0201
162.22
193.868
172.523
119.012
76.5099
63.5377
13.0834
-79.9827
-115.237
-105.053
-163.383
-113.945
-32.5997
-9.21131
124.284
132.209
-68.3803
-209.391
-144.291
-124.414
-149.442
-184.997
-101.047
11.0704
82.9957
156.853
236.234
231.033
186.913
82.3107
-18.26
-117.82
-132.737
-63.1159
-40.5631
57.4007
235.715
262.548
104.622
8.90616
-19.2631
-53.845
-69.9381
-54.4311
-93.7153
-182.701
-175.322
-126.474
-17.7119
123.505
105.942
31.1512
90.0613
164.939
139.801
31.2132
-41.6689
-77.9066
-78.8823
-77.8982
-84.1551
-51.8152
-44.4252
-109.251
-70.2362
19.7662
6.57116
-14.0443
0.295353
1.21868
41.4149
36.4471
-45.78
-96.1987
-10.3188
90.9443
71.4266
35.9489
35.9809
53.7321
37.7123
-0.858145
0.261929
26.1176
32.3222
29.6725
23.4713
33.0073
8.01088
-31.1925
-36.3926
6.07879
26.8815
-18.9448
-136.317
-133.657
0.46825
65.9817
108.116
113.198
81.7135
41.7999
21.1641
-92.5611
-200.04
-107.299
-11.1163
65.0681
57.3335
26.4076
18.4976
3.3856
-5.83303
72.6871
118.285
13.9531
-11.6716
17.4576
-43.9835
-127.358
-132.632
-106.576
-62.0594
48.7977
65.0899
31.6101
34.6238
-53.5716
-77.2839
-90.1296
-76.9267
-26.0122
-35.2007
1.5853
66.8965
144.305
96.5825
-97.3225
-134.563
43.0519
99.3514
116.4
143.778
184.966
94.0988
-101.821
-130.947
-63.3268
-15.0672
-16.9047
3.66319
-5.41538
-39.2957
17.2619
91.1554
87.9213
49.912
108.966
173.966
86.1587
-44.1723
-106.418
-144.965
-155.401
34.1123
105.16
-32.2588
-61.4284
0.738377
82.8218
12.9258
-43.9167
11.9954
-111.436
-242.909
-265.064
-241.829
-101.183
18.4499
9.01204
5.14078
22.7191
16.1536
8.90671
70.5551
123.391
77.4195
71.086
116.525
123.448
85.4771
-2.60654
-24.5369
18.8075
-9.84249
-26.5248
54.2229
83.3371
-14.1891
-40.3914
112.61
233.059
175.256
25.2382
-62.9556
-65.8834
-20.6432
-57.338
-197.479
-214.233
-110.245
-15.6509
8.90041
42.3412
141.254
200.38
133.642
47.2081
-74.4712
-101.439
-84.3097
-102.099
-48.3285
-38.1993
-108.956
-110.725
-84.2996
-75.0953
-77.9961
-97.7167
-16.1601
85.6468
116.552
66.5968
-35.152
-87.7051
-53.4182
-6.81561
60.9189
90.9245
82.8539
55.2369
32.4478
82.7825
67.1055
16.2056
53.5644
116.727
137.425
40.8447
84.8096
152.547
103.793
-28.7933
-127.343
-199.572
-165.944
-96.2796
-83.8973
-25.7689
22.5821
34.2148
1.58026
-36.4775
0.413798
89.7076
126.629
52.5545
-22.7777
11.0758
-71.6875
-259.052
-303.009
-109.883
32.4434
95.9906
101.685
83.3576
83.9205
18.9055
-168.945
-212.982
-95.3173
39.5762
108.86
146.635
183.754
191.437
60.0267
-41.0934
-26.3916
49.9691
122.894
167.379
162.413
78.3182
-32.1218
-110.008
-121.621
-138.325
-106.738
-81.8899
-104.206
-114.948
-71.5159
-86.3629
-160.288
-173.513
-55.6568
76.7031
122.754
137.947
112.009
2.51738
-2.08353
67.7012
82.6225
90.5132
104.777
54.6088
44.196
46.581
25.8158
17.5133
-15.7436
-83.1379
-79.5194
-104.208
-99.6893
-24.6158
48.0096
65.0679
13.33
-62.2768
-104.399
-83.9349
0.526065
87.2589
89.424
83.4403
97.0287
41.1599
-51.2958
-74.5991
-30.2594
-3.06151
-30.6147
-28.9815
25.6705
38.5016
10.9266
86.1852
167.22
126.302
-5.89794
-86.2572
-115.957
-119.109
-122.329
-101.622
-30.3945
38.3949
59.2972
-36.6998
-78.4417
-39.1085
-9.09276
24.417
18.8678
3.1228
-49.334
-115.834
-130.837
-106
-19.9167
57.9709
72.3499
93.1012
110.644
87.6014
76.871
101.497
165.334
151.169
61.0202
120.386
260.425
171.891
-38.9637
-126.333
-129.525
-156.672
-182.47
-162.927
-147.581
-132.455
-68.4134
-43.8098
-23.725
25.8429
-14.2657
-69.6514
-64.8523
31.856
93.0014
56.678
-7.42422
0.769213
107.31
153.484
76.1925
-22.7089
-111.598
-100.758
-12.7205
42.1721
107.163
58.8794
16.9326
82.8858
203.488
266.113
196.36
82.4529
-18.9602
-121.579
-186.261
-160.202
-159.377
-214.417
-268.158
-233.902
-116.764
-69.8607
-40.0125
-43.958
-84.8985
22.1755
116.831
47.3934
-11.771
11.9998
61.258
101.439
115.456
91.7961
61.2311
84.8682
96.8944
33.6884
34.3985
101.066
121.743
119.238
73.4289
20.4894
5.74005
-22.9406
-64.8654
-47.3922
-20.7099
-76.1312
-91.6862
-9.7631
68.1463
74.8931
79.5322
101.144
120.1
30.252
-139.259
-165.926
-111.138
-90.6656
-124.829
-149.085
-101.231
-58.9869
-54.437
-70.6314
-103.758
-97.646
-53.2743
26.7848
33.4828
-3.24786
-38.3801
-25.4084
13.7218
100.783
257.086
245.444
164.192
164.527
221.034
78.4673
-155.811
-61.5228
-21.0184
-25.4326
-11.2966
-37.1925
-103.446
-148.379
-76.3646
32.8449
36.432
-40.5858
-85.2251
-17.4062
58.3714
74.673
62.022
56.5106
22.9712
49.3537
105.291
18.8673
-53.5427
-101.969
-155.945
-86.5786
87.3047
125.622
135.448
98.3263
-10.3187
-38.2599
-19.6124
-74.0207
-130.777
-92.3707
-68.2699
-116.707
-145.718
-12.5951
79.9253
33.7882
57.2489
60.7337
38.0444
-9.04084
-15.3986
-76.4626
-117.12
-58.9009
77.6333
175.6
122.061
36.2232
7.49081
-62.2429
-95.5678
-63.3474
-67.2428
-84.4307
-62.7773
-26.471
70.833
147.601
147.729
133.304
88.6812
66.8535
2.23055
-47.7156
-68.9061
-71.5438
-8.05921
79.1546
80.4873
68.7123
45.8283
44.2043
70.138
58.0891
4.42639
-73.0759
-47.8319
-21.7965
-85.116
-142.254
-142.529
-100.61
-48.7945
0.205728
42.6209
-55.3521
-135.606
-81.0614
1.02846
98.8859
150.625
84.0423
32.0501
7.523
23.9969
105.674
9.24656
-79.8236
34.8117
51.404
-45.3339
-114.792
-93.8625
-85.0988
-67.8861
14.1146
84.303
43.7051
64.6852
63.6728
44.336
32.4359
8.00394
7.6844
-41.9444
-114.401
-132.035
-83.9512
-23.7012
112.195
118.541
68.3975
83.7001
58.515
-69.2241
-76.25
22.6363
74.6068
-30.9603
-131.633
-89.3528
61.7308
141.423
178.833
162.171
62.5761
45.5318
101.804
-10.0218
-176.353
-208.998
-140.125
-102.505
-64.4541
-38.6161
-67.8883
-106.87
-67.2291
36.0315
104.826
92.5918
1.27952
-90.2554
-91.1944
-5.52558
51.037
51.8053
61.6767
115.816
205.758
203.631
85.5389
-9.30973
-82.8168
-96.1919
-68.8953
-50.9152
-26.0929
-0.607648
64.4241
66.9805
-12.0636
-61.3143
-83.1579
-56.2307
-12.0217
-49.6255
-142.165
-131.178
-89.9221
-64.4552
87.5726
164.424
136.253
124.641
122.994
51.9765
-31.0334
-47.2468
-57.647
-67.1834
-25.241
28.9292
10.0488
-46.5538
-56.5562
-21.3452
-11.0715
-18.6974
21.236
63.2804
17.1201
-13.9266
122.241
235.22
-67.2722
-284.819
-129.446
19.8214
66.5371
39.926
32.8327
31.6071
10.4611
-10.4444
-10.1909
15.6432
43.6816
44.9195
-12.1533
-21.1452
43.3568
97.5914
67.198
-14.2319
37.0201
82.2538
-36.9769
-98.9681
-110.998
-136.414
-100.391
-47.8163
-23.0593
36.5041
59.7104
50.2399
28.1695
-29.7084
-40.6284
-18.4622
-90.5671
-175.988
-187.38
-136.365
13.1787
141.601
163.804
126.729
102.334
64.4112
41.5109
19.2002
30.4235
36.1225
-19.6068
-30.0991
-0.562367
59.4902
107.003
38.6093
-107.884
-98.7814
-10.3623
31.5041
143.906
186.366
95.48
-10.0662
-84.5914
-69.663
-70.0487
-35.3534
-54.4563
-77.6642
-18.3757
-37.6002
-55.3974
-55.1843
-67.8283
36.3942
168.294
150.557
31.3736
-78.8187
-81.6912
-80.9151
-96.7345
-70.3985
-18.6756
29.763
33.6175
5.71936
11.5164
-8.79061
-74.4103
-58.4222
-54.5887
-29.8949
14.1115
112.353
198.933
65.1177
-101.32
-86.2678
-21.5358
59.4063
124.416
101.124
5.84096
-67.7351
-69.4201
2.74468
60.7534
55.4056
73.0304
165.361
194.799
61.9656
-49.7221
-185.063
-207.207
-135.588
-35.2851
68.1848
1.75908
-189.928
-154.259
-99.507
-54.9275
36.2257
95.4381
103.782
121.941
73.6105
52.0855
46.9147
33.7913
14.2547
-75.3905
-117.309
-123.813
-61.1653
6.6506
43.5252
217.996
255.854
119.88
76.3851
55.5344
-41.8858
-118.794
-205.847
-195.534
-31.4257
69.8392
33.3035
-39.1051
-25.2584
34.6968
29.8334
-47.5327
-32.4519
23.8719
-80.5378
-318.075
-220.863
29.8447
193.945
201.393
147.538
239.603
261.05
104.534
-49.8582
-110.525
-114.118
-65.7348
-66.2498
-70.3264
-93.1739
-88.0024
-99.6787
-127.464
-87.9451
16.0204
51.9625
5.07895
-23.5836
2.13872
60.2343
39.6761
56.9176
25.3594
-53.0016
-94.8738
-39.3978
117.962
198.646
177.67
212.185
228.256
144.106
49.3098
-28.5845
-78.23
-117.11
-135.971
-140.31
-111.752
-55.8214
-8.53519
44.6606
77.5449
57.3281
8.92507
-75.8388
-134.108
-88.4759
-24.8776
3.56627
23.0697
13.1388
33.8746
100.301
64.7187
12.5907
-84.2252
-188.587
-189.496
-157.409
-158.604
-115.836
18.449
159.697
184.713
108.339
3.75009
-66.297
-83.6575
-126.709
-63.6166
123.35
226.068
209.959
199.088
195.706
182.78
178.925
160.772
-6.2384
-192.849
-220.452
-241.84
-227.448
-99.4707
134.301
203.017
174.46
9.49123
-108.897
-176.724
-180.869
-132.009
-148.621
-212.975
-113.763
-6.18292
5.09872
4.95825
106.116
208.23
174.175
149.136
103.646
27.838
-48.0782
-82.1497
-52.8757
25.3477
87.7878
109.762
53.5122
-10.9623
4.76068
28.6532
-20.5982
-28.0745
6.70154
-40.493
-22.3669
69.1638
53.7259
0.0896547
0.122638
-24.7009
-115.889
-127.986
-122.418
-80.7868
-14.6299
13.2734
-16.2553
-74.5447
12.4047
174.249
229.103
143.722
21.3389
-90.5038
-141.95
-164.358
