25.2844
8.51341
-19.6839
-25.7797
-20.618
-8.0805
5.42379
2.40549
-5.67183
2.26817
7.35351
-2.02298
-0.770225
12.4434
22.9462
28.3917
11.1623
-5.44524
8.85736
32.1661
9.96016
-24.8992
-30.6772
-13.1998
22.8602
81.8853
65.2746
24.0741
-18.9197
-36.6492
-32.1347
-33.2976
-24.0668
-13.23
-6.81681
4.44884
4.31194
6.33714
4.70987
-0.934966
9.85684
28.3488
32.5683
19.3489
-14.6647
-43.1829
-31.6728
-23.4072
-4.60917
3.70427
-3.69793
-14.5502
-35.0591
-41.6319
-25.0833
36.25
52.263
18.7383
22.7599
36.6382
30.5737
15.3992
-23.8313
-58.4976
-65.4507
-74.1917
-47.0143
-11.8719
20.8306
35.0821
26.9805
19.0625
16.5801
16.167
11.3659
-15.6803
-12.3942
0.425718
-12.1686
-16.2331
-2.72568
19.2813
68.3161
72.1583
7.56549
-26.7447
-22.1835
-13.8787
6.31037
59.1998
106.339
87.7912
36.4614
-0.439834
-28.8373
-70.1154
-85.1085
-62.3062
-44.7335
-24.9089
-12.0058
-12.5991
-21.2171
-24.6492
6.00937
31.289
32.3846
19.5039
-7.73765
-32.96
-46.8
-30.5558
-7.25195
11.2391
24.5142
30.0718
32.3888
30.5342
18.4387
0.9562
1.3785
7.14037
-3.56715
-4.96427
5.65982
-5.82691
-19.0328
-16.0797
-13.0329
-23.0556
7.20804
36.2214
35.3484
5.36443
-14.4135
4.14755
10.2807
-2.14739
-10.6463
-17.5561
-20.3913
-27.5119
-33.5294
-16.0918
7.87305
15.0673
21.99
20.809
19.0621
12.8302
-20.5656
-28.9451
-6.00673
16.0064
31.0098
18.9446
12.3234
13.7198
17.7884
13.4132
10.0745
0.980485
-0.00506242
8.49236
7.94376
8.61692
3.38532
-2.29201
-8.78902
-12.985
-20.2532
-33.9067
-27.0608
-16.6136
-15.7464
-19.5656
-8.97002
11.4426
10.0797
-6.58786
-25.7986
-35.4633
-37.8328
-27.4813
-6.56334
3.89261
8.42402
10.3918
2.38784
3.02581
7.00882
18.7243
32.3404
32.3066
31.9672
32.8646
22.8648
16.6772
14.0968
13.1352
9.09959
0.717562
2.98384
-6.63991
-11.318
-2.56444
-1.76347
-5.51658
5.89325
20.8689
23.1716
3.57955
-38.4226
-68.7625
-64.4055
-47.3045
-15.8534
47.8168
100.803
72.3201
20.154
-18.5899
-40.9663
-14.8541
5.22852
8.50485
-35.6371
-56.0697
-6.76062
-11.1999
-43.6896
-92.3944
-90.0301
15.5885
87.7947
96.6846
57.261
3.26037
-31.7177
-27.855
-2.18496
29.1023
44.0023
34.4777
18.0001
-7.92628
7.24729
20.1803
-9.37284
-11.4324
6.63823
53.1929
80.9908
36.6621
-5.15586
-23.1693
-33.9409
-57.8301
-73.0652
-59.8298
-38.632
-22.1401
-14.5213
-18.0329
-13.8452
-7.06938
7.65686
19.409
8.76482
7.54483
20.02
33.3661
22.549
-9.53532
-28.3415
-23.7914
-2.9214
18.5941
12.9675
-0.633013
1.77532
-8.93941
-5.55237
20.98
66.8234
65.7855
45.2901
15.9869
-18.3367
-23.558
-26.0852
0.42286
33.9091
45.9046
17.885
-9.14198
-20.7828
-42.6025
-62.2189
-43.5981
-19.1576
-0.420427
0.26412
-13.5728
-40.9851
-43.5205
-15.8829
7.42775
15.7752
16.0141
17.2935
8.48487
3.28596
0.834645
1.21826
1.86449
-3.85567
-6.84618
-5.27593
6.67152
41.0849
45.541
35.1252
15.9902
7.61165
1.9307
-9.81095
-28.0651
-28.8972
-3.98752
8.7582
3.54183
2.16275
-1.50071
0.88947
-5.10313
-13.8184
-4.92065
14.3567
10.6365
-10.7037
-16.2315
-18.0975
-7.46276
-8.6901
-5.40574
5.63788
21.1234
21.2915
5.37285
0.925627
-7.03758
-14.3323
-14.0698
-7.03396
15.5623
34.7292
37.0555
28.5139
14.6359
-20.0402
-32.7975
-23.4024
-14.3831
-20.7739
-24.6135
-26.2997
-26.2035
-10.7975
9.07028
20.0238
48.7127
73.9607
31.8762
-4.51237
-13.5928
-25.8819
-42.6116
-20.9194
-4.2282
0.776793
11.5635
12.3755
-11.5493
-14.4176
-2.95478
10.0191
8.42328
6.14977
1.08105
5.07907
-6.39161
-12.6846
14.3574
29.9412
21.9715
12.501
5.76385
-14.3131
-15.8038
12.4057
11.9516
-18.2967
-41.0466
-53.7757
-11.2512
58.1268
50.7567
13.55
-5.39722
-13.4276
-23.3965
-30.5911
-21.3683
-12.2272
-5.23362
-20.4414
-26.4093
-17.4165
3.62374
54.2368
80.9511
88.5966
41.5069
-14.9611
-52.0152
-66.9061
-42.7396
-18.2421
-2.25983
-1.07811
0.819991
-2.61404
7.80776
13.702
9.5929
4.73786
-5.22415
-14.6297
-16.3969
-34.0124
-34.6178
-14.5284
26.4286
58.1469
51.0994
17.4964
4.94058
-8.34261
-12.2156
8.48296
19.6857
25.3272
15.2652
-16.1832
-22.2296
-14.8964
23.02
71.3378
77.186
31.6378
-22.7681
-46.1076
-39.6837
-19.3425
-23.5934
-37.2949
-31.6866
-7.64373
-7.08562
-22.9686
-23.3083
-22.8683
-16.0112
3.01278
15.8941
32.7554
28.9262
8.89623
-10.1075
-30.3964
-25.5076
-27.5874
-19.2076
5.62038
1.50223
-5.23664
16.2077
32.1521
14.671
27.3905
59.2233
40.0921
18.0986
15.8134
7.84829
5.46037
-8.67634
-27.2832
-35.2785
-43.6121
-50.4841
-36.7531
-7.39098
28.9934
56.1288
51.2866
37.2784
22.6148
22.0759
-4.36494
-32.5411
-32.1457
-19.0764
-17.0532
-28.1133
-30.646
-16.4804
-2.55383
-12.4704
-26.8845
-5.5758
29.2863
26.7076
7.3498
-12.1841
-35.354
-35.469
-4.36375
53.8264
40.3074
-8.12737
-12.1586
-13.9692
2.30208
22.2731
49.0186
65.1472
86.513
79.868
62.3919
31.6154
-8.96416
-38.9442
-72.0899
-95.0331
-63.39
-27.1814
-38.2128
-60.9465
-40.5747
-5.49966
6.21705
16.3234
10.7557
6.48243
-0.753889
-16.8024
-36.6973
-28.1492
-16.3956
-13.6227
-7.79741
8.85963
36.6256
72.292
70.4704
55.523
40.5052
2.38346
-11.2155
-7.56929
-3.25312
0.413832
0.932225
1.72778
2.60643
-9.63072
-22.4363
-22.4129
-15.3164
-3.84334
-7.28889
-3.24784
17.7922
19.2938
8.34308
-7.02173
-20.2283
-13.8687
-5.38291
-4.13078
21.6415
40.7081
30.902
23.4206
23.4224
-6.13115
-46.1688
-63.4047
-56.5403
-23.8168
-21.4313
-45.6996
-64.5085
-29.712
31.5943
77.9755
95.4443
59.2023
33.9203
21.3306
21.8616
0.675059
-34.5003
-38.1701
-22.7999
42.7861
76.8757
44.7128
7.55959
-37.261
-62.9302
-58.2882
-40.6827
-21.7842
-3.86683
-21.1544
-19.7897
-18.955
-21.5868
-8.98477
-4.84447
7.3933
27.5313
26.2061
18.6862
7.42001
18.8376
48.5894
42.5785
20.9406
5.57274
-31.659
-38.4282
-24.193
-20.3447
-12.0516
-10.1776
7.81885
18.2398
19.5702
18.7011
17.0909
19.0223
12.4064
1.20562
-26.2503
-51.1704
-38.1351
-2.77707
20.7715
42.9803
95.1782
72.6385
12.5231
-22.494
-23.8262
-36.019
-28.3577
-6.99846
-12.1604
-32.1648
-42.6135
-27.7655
-16.3832
-12.7835
-8.75658
-2.15234
-25.2032
-32.8215
-12.2109
6.48271
4.79917
-7.0248
-0.215026
37.4342
45.68
28.6287
23.3776
22.0768
15.982
15.9331
18.9592
15.5068
14.3307
8.87344
-6.55414
-3.97737
-1.84043
-13.2265
-53.2298
-88.9332
-37.9861
44.1011
43.4772
19.3286
31.4948
6.41924
-4.39093
-17.2402
-6.84157
18.4178
13.4511
-1.66188
-25.0277
-35.08
-20.6573
-10.2555
4.26269
25.4884
43.1144
40.5522
11.3024
-5.42968
-0.528879
-26.4569
-48.2338
-15.714
-3.65451
-14.1015
-6.09705
-9.09061
7.81451
32.7771
50.658
50.026
8.10543
-52.2288
-52.0638
-32.4398
-0.0198852
29.085
-6.46933
-39.497
-16.9914
-18.3302
-31.1695
-12.1693
10.6891
19.9827
53.0317
90.4475
55.8717
-3.69281
-34.5002
-21.109
17.7425
40.717
30.0758
-7.46804
-18.1138
-14.1746
-17.0385
-20.8964
-11.9853
-1.60194
-12.9428
-15.9105
-11.3678
6.13134
-10.5233
-34.0815
-15.5688
5.45097
13.7369
1.51429
-18.6715
-19.0251
-5.95136
12.8862
12.2836
5.25677
28.6723
55.977
42.0736
-9.34712
-35.9177
-29.2945
13.1124
54.5063
12.1692
-42.5525
-42.972
-24.0046
-2.91753
41.948
89.6638
57.1499
0.495374
-22.2188
-27.3357
-28.4323
-32.3299
-31.1031
-25.5043
-13.0769
-0.0529752
3.5685
-22.1694
-36.2469
-7.07103
22.2189
32.4476
38.8895
15.1637
-36.2421
-89.4521
-95.6461
-45.6055
6.56892
39.0061
85.451
83.8385
46.462
28.1055
32.331
37.1713
33.6117
14.5583
-11.3488
-34.4509
-45.0334
-36.5017
-26.1259
-14.1627
-7.49632
10.7938
51.0795
52.4277
36.2716
12.3836
-18.5891
-28.5881
-38.5248
-34.4821
-22.7838
-22.0745
-15.501
-18.3675
-23.9071
-9.43524
6.13223
13.2734
31.4161
45.7063
16.1731
-18.77
-14.1566
-12.7672
-20.8473
-7.60643
28.0452
41.0503
29.6547
15.5275
-11.925
-29.3121
-32.9727
-31.9009
-20.9506
0.155345
16.9196
30.4337
9.68703
-0.800241
-11.9414
-58.6034
-69.1328
1.17863
67.8788
29.5431
-43.0098
-46.0111
-0.429054
26.5601
38.5193
36.2137
26.769
16.257
1.51703
45.2834
75.0705
25.285
-6.04288
-13.3314
9.7451
36.7156
9.49351
-28.6065
-45.2977
-26.0068
-11.6002
-11.9443
-24.5
-27.921
-15.8791
4.97767
13.1773
5.76647
3.04055
-31.5387
-69.3876
-64.8197
-34.9913
-19.2483
-11.9879
26.0979
85.4483
104.794
52.2099
18.285
6.09083
-19.5214
-46.6148
-45.6947
-24.1828
-6.43375
12.659
15.8548
16.3161
6.64781
-1.85387
8.93079
11.3977
4.80864
-1.72815
-10.2596
-29.2909
-49.7759
-36.0349
0.783934
28.6573
38.0255
39.9251
24.1893
17.1014
10.3577
-5.62503
-25.9028
-35.3135
-13.754
12.4938
24.6064
15.7388
8.8386
15.8399
16.811
8.63906
2.12958
8.49672
-3.20304
-22.137
-33.9451
-24.5139
-0.54657
-5.96578
-32.1916
-15.6644
5.57361
-11.4035
-50.983
-58.5604
-25.8347
62.1539
84.6536
63.1342
26.2434
2.46149
-10.3008
-12.3985
5.06672
40.1034
63.8557
29.8648
-26.049
-42.2935
-34.0929
-45.8184
-24.8442
25.7292
67.2706
91.403
51.7979
-34.8076
-84.2297
-90.4981
-52.2823
-48.4903
-49.4961
-22.1772
-15.0208
-27.2414
-31.6712
-14.7411
6.62635
31.3242
49.2199
44.0442
38.2726
32.2417
18.0618
-1.55561
9.96349
19.4052
32.4461
32.9309
23.1176
37.045
34.532
7.82271
-7.34109
-17.155
-31.7109
-39.3436
-27.7512
-20.2324
-4.34393
17.7504
12.2096
6.43934
-4.10779
-10.6479
11.2327
-11.5047
-52.654
-32.8661
-20.8247
-8.80402
11.5162
32.7418
-4.14149
-60.1762
-70.1987
-0.979982
51.4196
56.3218
55.0025
60.6236
34.9158
3.53159
-11.7699
-21.0641
-25.6446
-10.3044
15.7456
5.49803
1.03155
-2.61402
-18.5542
-32.5713
-10.7167
15.757
22.2703
-5.51661
-27.4213
-25.0401
-30.9133
-43.264
-28.5507
-12.7699
-4.43232
4.26617
7.82365
20.8252
40.8434
39.526
33.6133
30.4874
25.0994
15.8895
15.994
16.4172
19.2936
0.557843
-24.9168
-21.2947
-9.83385
-4.45408
3.05863
0.0241593
-4.17043
-12.959
-17.6522
-12.6796
-3.95501
-5.51126
2.53697
3.37784
3.40407
-5.31793
-13.5702
-6.19841
-5.1677
-14.0932
-15.9022
-8.63273
-9.5569
-0.263538
1.40902
-7.78153
-11.273
13.8709
25.4091
6.59137
-8.41184
4.65839
18.4472
21.1074
-7.62615
-37.4021
-33.8218
-14.4639
8.64014
54.7974
95.0164
69.2058
29.0275
-0.526336
-4.08366
-5.67662
-11.6248
-25.8068
-19.9678
-5.98275
-1.35864
-18.8222
-34.287
-43.1273
-36.0623
-29.988
17.7324
45.9588
-2.14895
-59.6462
-94.7511
-66.1818
6.88134
54.4145
79.9816
81.3943
48.8826
7.70062
-8.15314
-10.167
-3.58509
6.68838
17.0677
16.9072
25.0728
15.1644
-42.2284
-64.4598
-34.4397
-7.9731
4.74124
4.21556
-24.6807
-32.8562
-35.3707
-14.8245
20.7971
55.9536
55.5437
50.6527
43.4991
29.2039
9.14506
3.52141
-4.47395
-4.60206
-17.4715
-25.6917
-10.5608
-21.6067
-36.1828
-25.7981
-19.6479
-6.74402
32.7555
65.9757
35.231
0.241177
-15.0148
-29.1557
-35.7528
-21.1426
6.81577
-6.32036
-54.0872
-42.2657
12.9408
15.9547
5.1689
4.65492
3.67666
8.99424
11.6065
-4.12292
-17.1188
-24.018
1.57765
25.2014
31.9947
36.7271
13.4023
-42.7151
-30.2348
9.454
50.0132
53.1078
34.7101
14.2849
9.14703
20.0893
17.1416
4.90806
4.26768
-18.1266
-35.5815
-47.6201
-41.0926
-34.5632
-30.6281
-10.4639
20.141
46.6254
25.8703
2.49482
-2.42653
-15.1637
-36.2785
-42.5777
-73.3362
-65.5496
-2.59409
54.8747
83.4809
83.9135
40.4202
0.293359
-24.4681
-16.8562
-3.56037
-5.25914
-4.55827
-1.45725
-12.4498
-3.46532
8.4881
5.27352
-7.06034
-10.7506
23.4615
34.8449
-5.07795
-46.408
-57.1173
-41.376
-15.9786
3.01406
32.0947
34.8472
24.565
19.1525
1.69253
14.0445
15.165
-1.1732
-17.4772
5.77384
43.2278
57.1997
45.1648
15.3207
-1.85987
-25.9294
-56.208
-74.443
-41.3224
14.416
21.9857
8.24391
-1.76024
-7.01302
-5.46501
-9.24811
-15.4562
-3.99189
6.3064
4.52042
4.56082
11.4886
7.77544
-0.411175
-8.61616
-19.514
-28.9036
-22.5693
-27.1666
-23.7882
-8.52387
-3.29982
-4.15804
36.8097
84.032
53.4495
1.96683
-29.1709
-2.93528
21.506
28.3359
22.7606
9.87973
-6.35389
-18.8863
-10.9108
12.7105
17.3613
15.425
-14.6199
-29.5854
-26.8412
-32.6941
-50.171
-24.8964
19.3087
28.3088
-13.0112
-54.0608
-43.6888
-6.65233
52.4565
77.2791
36.3207
2.85346
0.958825
27.5359
14.0248
-8.31676
-6.51735
1.47515
9.78109
15.2097
17.3979
-8.19599
-18.8225
-2.38676
30.1755
31.9337
2.94549
-31.7242
-65.3448
-66.2743
-25.2737
14.3254
20.1856
-19.7844
-34.5085
-31.1755
-39.3851
-25.7961
22.1517
81.6869
63.783
20.278
0.692721
3.98561
23.0818
32.5186
27.2877
6.64358
-17.3502
-28.0937
-35.6775
-41.2272
-55.342
-49.3017
-7.73361
36.2187
60.7912
50.0528
20.178
-11.7305
-27.3736
-32.5996
-13.9537
5.67561
24.7028
16.6539
-4.94396
1.76944
11.4008
29.6226
43.999
30.0369
2.69791
-25.3642
-29.1281
-4.04636
10.8962
-1.57203
-16.0216
-34.0416
-19.585
-4.67522
4.72984
-6.48402
-13.5204
-13.1291
-6.06117
33.6312
35.1419
0.241623
-28.1352
-10.1613
22.1074
24.9412
13.4935
18.4226
10.0886
-5.85959
-29.9445
-38.9436
-27.2393
-0.644246
8.07556
5.91489
-4.21089
-7.5327
-6.04355
-22.5965
-14.8128
-8.29992
-7.8282
-8.0261
-5.26632
25.5059
38.5528
-1.27904
-24.7746
-7.91246
-1.85368
6.49459
17.475
27.7884
28.656
31.9448
24.9559
18.6941
24.5533
19.9099
-10.4212
-34.6916
-14.8098
11.2433
15.9464
-11.9983
-49.25
-41.0099
-11.6652
-3.49354
8.86621
19.8978
18.5717
12.2014
6.01822
-4.62257
-2.04606
3.4383
-0.974689
-18.2487
-14.3076
4.41779
2.36716
-13.4209
-11.9611
-3.10208
9.32515
-2.85254
-12.6659
-10.3865
-9.08477
-14.9545
-16.1034
-17.9488
-2.8118
4.79606
32.2191
40.6826
-2.66643
-24.6742
-4.73945
-3.77078
-5.62829
-0.184629
-0.78593
9.36789
17.8456
44.9577
53.0265
29.5088
7.39388
2.19167
-2.10638
-9.65452
-13.9733
-4.38778
-20.4416
-18.9684
-1.7232
0.429825
-18.241
-32.3266
-48.7344
-35.0389
-5.10783
10.1664
17.9536
4.66794
-21.7866
-21.6345
1.36545
30.0227
75.136
87.7798
35.6672
-8.43696
-48.4727
-51.0796
-14.3327
20.2842
24.1913
23.5155
17.9802
-23.2622
-57.7581
-45.1319
-17.8752
12.6722
76.0358
81.5358
41.7501
7.38164
-31.1434
-42.8991
-31.7321
-19.682
1.28524
0.700311
-10.971
-20.2463
-24.7452
-19.0564
-8.41745
4.92434
6.95595
12.7112
14.7742
-20.9528
-54.0894
-67.4151
-27.7335
10.7723
31.3856
45.9692
47.9769
38.703
21.409
-6.81201
-29.0232
-20.27
-1.86765
3.07931
23.25
63.5382
58.6597
9.64467
-39.6547
-26.168
-1.74953
28.3824
33.2094
9.95223
-28.2221
-58.2287
-38.0255
-9.0472
6.05525
16.6261
36.423
-13.462
-32.2254
-10.8772
7.34561
2.68801
-6.31982
-11.0703
25.759
64.866
37.9845
-3.74432
-20.9243
-23.0161
-26.2235
-15.9289
-18.4163
-44.6251
-51.1383
-23.2781
3.90851
12.633
10.106
-6.29889
-15.2813
-12.8429
35.5776
79.4899
70.4916
32.7918
0.925216
-5.507
-7.66081
-11.7128
-29.7748
-39.4852
-28.8373
-29.5473
-24.4473
-16.3727
5.6033
33.8243
41.3417
32.6642
35.533
39.0768
7.40607
-28.6673
-48.0527
-57.1729
-24.1344
8.17276
25.6732
34.4735
33.3908
-0.590289
-23.316
-35.2907
-19.4687
14.033
37.5009
32.9184
3.96374
-35.3469
-43.6893
37.1999
58.6345
-7.87621
-31.5733
-18.5006
4.48777
12.1735
13.1524
2.95039
-10.0145
0.541796
9.73871
10.8121
5.47176
-12.8574
-17.3857
-12.3268
-8.47156
9.89296
1.56645
-30.556
-9.33001
31.4487
25.272
-1.39044
-27.772
-45.5535
-45.4962
-11.9502
47.6126
53.4508
32.5199
6.24388
-14.6534
-24.0189
-45.3268
-54.8986
-29.4494
15.5551
55.9748
16.9381
-43.2332
-34.0993
2.98904
52.3048
65.4663
53.2209
30.9299
5.53311
-22.0371
-32.8436
-42.9839
-37.8168
-16.7465
8.03446
27.1588
43.5592
49.4143
33.5836
1.55666
-15.6243
-9.52115
10.0856
3.02731
-43.4463
-71.2812
-47.6522
-8.80593
16.5987
1.15767
-17.6141
-11.108
1.35229
12.9552
26.4665
63.8808
79.2384
32.5721
9.26849
5.29233
4.51253
-8.90793
-24.2011
-23.3409
-14.117
-16.9989
-31.7553
-34.4958
-4.32875
0.156156
-4.59266
-10.2608
-7.1241
-10.5027
-29.3292
-51.2636
-45.6573
-0.401811
17.8883
21.1012
22.971
26.9881
35.2927
31.8167
26.204
29.9328
27.971
15.5664
-21.9315
-31.1779
-17.5344
-24.4709
-15.0882
3.06939
12.8541
5.74797
-6.47317
-22.887
-21.2554
-3.42493
28.2065
87.2151
82.4683
20.1699
-35.1149
-64.0609
-47.8734
-26.7831
-1.10725
23.5545
29.4604
18.1677
-7.29916
-12.0011
-8.2268
-16.1439
-10.0139
2.6986
-1.44561
0.58865
-0.751561
-29.5485
-37.0151
-8.26915
28.9869
53.8284
30.8598
-8.87355
-24.5556
-19.7821
-28.4621
-35.5087
-21.9292
-17.2794
-8.8684
17.9817
70.8305
82.4293
43.9485
18.2444
-1.60473
-27.768
-35.0871
-23.4392
-3.00324
15.4623
8.44798
-6.20391
-37.2246
-42.6109
-20.4424
18.8529
27.7606
22.1903
9.60531
-7.75033
-41.8075
-39.59
-15.4567
-0.936806
-1.01512
4.7683
16.5589
28.2584
32.4411
27.0375
11.3061
3.47676
-4.34178
21.8227
43.4548
32.5581
8.52985
-11.4378
-11.9187
-15.6969
-22.1896
-22.6144
-18.8383
-20.5495
-35.4529
-44.0366
-21.38
5.34261
6.96565
7.2685
17.2637
32.9698
46.3338
13.6635
-7.72542
-10.414
-6.12994
-16.2081
-17.9474
-24.4822
-41.7346
-46.6918
-38.6168
-34.2022
47.0438
120.969
110.971
64.421
19.5852
-10.8923
-24.9776
-21.4217
-16.0362
-21.9448
-28.3401
-20.5873
-5.39601
-4.95649
-17.5987
-4.55234
6.03814
13.4571
5.9413
-0.488477
-30.2689
-51.4198
-3.84082
50.636
25.0797
-12.3417
-39.6697
-18.2128
8.43446
10.709
19.4144
17.0351
14.6554
18.0314
5.29789
-9.23757
-1.94636
8.81797
15.4216
25.2237
14.2692
-12.4089
-48.6107
-66.4427
-37.7184
31.9456
76.0765
53.2898
16.3215
-9.96435
-16.0134
-12.2004
-13.4263
0.0997847
3.7901
-26.2869
-48.1775
-48.9591
-12.3612
29.8098
45.0713
20.7107
2.3694
-0.208942
8.68741
8.26383
11.3778
6.74936
-10.9739
-32.1365
-39.2989
-20.8465
-6.70868
2.12656
6.90219
25.7974
35.583
29.4365
18.5466
10.7363
-10.9582
-3.73609
1.06817
-10.7617
-8.36805
-12.1085
-14.7099
-9.74178
-3.22903
-0.1453
2.10458
-3.69203
-7.90526
13.7622
31.5992
40.5973
45.2312
26.6615
-2.38748
-12.1542
-24.7685
-35.0864
-51.9664
-59.5093
-36.2063
-14.7368
-4.6563
2.19661
13.0393
21.7245
20.9543
12.1784
-2.24934
-26.8131
-22.8462
-8.05203
9.06594
31.5358
45.3357
32.5729
24.719
29.4015
29.6295
-8.49091
-43.5842
-42.2883
-36.9139
-10.085
54.721
98.6365
66.2633
11.4615
-10.119
-13.9639
-22.8987
-27.2359
-24.0351
-24.07
-35.1085
-45.1948
-44.6913
-31.0957
-44.4555
-45.1209
-12.3646
8.94037
28.6471
62.2216
40.4505
-8.08356
-27.9941
-17.511
7.03734
15.7411
14.1002
6.44061
-2.28511
12.5722
17.6576
19.8963
19.9703
20.0902
38.8434
69.293
56.8373
23.4008
-9.13102
-52.9154
-67.6332
-47.7228
-4.05454
29.8038
17.1601
-19.3034
-52.0666
-50.5184
-34.7938
-16.0357
28.1972
68.4304
54.7519
14.5556
-4.18908
-10.7473
-12.8219
-17.4346
-15.9972
-23.577
-37.3164
-36.0231
-25.2986
-21.7767
-27.1068
-7.49335
31.7171
43.7824
31.0171
12.1278
-7.24339
-30.4948
-21.0909
11.3307
34.152
47.2854
41.3671
18.7405
-2.30315
1.0833
15.5993
18.5026
12.4916
4.04674
-0.669861
-7.54935
-12.9759
5.81041
24.7335
8.01006
-37.2288
-48.5627
-35.435
-18.8252
-1.61653
16.5477
13.6621
8.25307
5.50791
-7.59004
-7.93487
-6.24306
-10.603
-12.9178
0.25752
7.41136
12.4968
-1.35177
-19.5681
-19.7836
-7.82086
-2.28946
9.26852
6.11063
9.65605
11.6738
2.6801
1.60969
12.4108
-0.667765
-9.21454
-7.58673
0.789093
0.0822738
17.0542
42.1402
20.0951
-5.18454
-15.4944
-22.4249
-1.20333
22.7223
25.5095
20.3348
9.97505
3.20924
3.25328
-8.58775
-39.8253
-36.843
-26.5064
-30.4955
-42.6962
-33.9143
-17.1017
5.83341
15.1005
-3.31418
-10.3206
5.57019
13.7071
5.53384
8.27659
16.4944
26.9597
23.4131
22.8623
32.3483
50.1122
40.0159
19.8084
16.7776
17.8156
0.860338
-23.0228
-41.7487
-18.875
9.10837
7.56718
7.54884
-3.83516
-27.8237
-38.1263
-49.8298
-53.183
-27.48
-7.47711
5.1159
9.53284
0.850761
-8.61711
-13.8056
28.4143
59.3478
39.5478
8.94115
-14.762
-24.9126
-43.1444
-48.9048
-7.20023
25.2255
20.7133
61.1344
82.7292
45.6632
9.82116
-14.9272
-25.7813
-25.7426
-23.2002
-19.0091
-38.342
-35.0894
-2.8443
-2.26233
5.80437
13.4209
20.1618
21.6547
-2.65121
-9.11978
-3.23515
-28.6411
-53.434
-45.5792
-6.25946
24.7167
34.1797
31.7732
30.3845
32.8081
11.25
-27.4407
-35.6821
-8.12927
5.70034
5.42713
19.4362
33.7712
21.8531
-1.25528
0.659162
4.40211
17.2288
26.959
14.1643
12.3094
24.2119
12.4125
-21.1406
-38.4079
-36.9771
-33.5568
-35.3229
-44.2381
9.11116
55.5799
35.3092
14.0106
-11.6727
-23.9064
-28.6987
-33.7308
-23.6419
2.60793
2.86475
-19.0902
-15.081
-5.29723
9.43662
14.2669
15.3936
26.9534
15.9751
-2.89355
-24.9596
-33.6511
-14.6184
1.43991
16.998
28.7081
28.7669
20.0474
18.131
7.66735
4.35191
-2.19743
-13.7381
-6.5469
3.73414
11.3075
14.8666
8.86416
-17.086
-22.7235
-28.9894
-7.28995
51.3023
51.9806
12.7944
-17.9527
-25.5269
-13.7609
8.582
22.574
15.206
-10.168
-10.8018
-5.49623
-3.92088
-5.75885
-21.1712
-23.2879
-6.46107
-11.5075
-29.0737
-35.6606
-49.7002
-26.5466
38.1431
83.7089
52.6312
8.8054
-29.3773
-32.5817
-18.5454
8.7033
10.3399
4.55957
11.3328
14.5378
18.322
6.6026
4.83211
13.8279
5.62803
-10.3011
-13.9808
-40.9918
-63.525
-46.002
12.2057
48.0866
46.1009
28.4919
23.4201
27.6439
25.3073
13.6173
3.62978
-1.40969
-4.51311
-19.2061
-52.8119
-32.8269
9.584
26.6152
9.93898
11.7633
13.4229
-11.3888
-39.9492
-56.6445
-32.0878
8.05712
21.7348
9.44078
-3.90369
-2.35005
3.36246
6.59029
12.8315
36.1037
44.469
6.10044
-28.3803
-38.2898
-37.4316
-12.8176
41.6841
65.7897
69.2122
53.9506
-5.94779
-57.5419
-45.2841
-28.5308
-18.6384
-10.5579
-12.2925
-25.2593
-29.9862
-27.0331
-9.10742
8.79327
13.2797
11.7538
13.6115
12.6316
-19.6217
-42.7054
-35.783
-8.13762
24.3635
39.9746
34.1251
31.2741
32.0134
28.323
10.2618
11.4243
4.79336
-6.67428
-8.37145
0.661052
12.1463
14.6077
9.10847
-7.99629
-26.8339
-38.9268
-18.5458
4.34484
15.1674
14.6824
6.55777
-6.21954
-7.39131
-8.89016
-20.2532
-29.1489
-23.3579
-7.94944
24.3965
55.176
53.1293
18.2857
-26.5882
-49.0132
-43.2784
-51.4511
-48.333
3.35158
58.0134
78.9404
47.7092
19.2321
-1.7229
-9.03346
-14.1178
-10.8011
-6.951
-9.4972
-25.0674
-48.9468
-58.4825
-38.5793
-4.85408
12.3936
9.40591
20.8901
18.3422
5.72194
-7.88422
-12.9871
18.2676
43.9224
35.3609
12.4741
4.27308
3.08734
18.8726
23.5871
19.6134
11.5558
2.7934
-6.76243
-8.06814
3.56798
14.847
20.918
17.1882
-0.391629
-16.366
-25.3113
-33.7719
-31.3628
-22.4703
-11.299
-0.873675
8.39015
4.78951
0.144246
-4.91768
-18.0675
-16.8572
-5.20644
6.99621
7.32241
1.3034
-0.400439
-6.45523
-17.4046
-3.82879
8.94862
-0.878533
-17.7508
-14.399
-16.4009
-15.9364
6.73739
45.2184
40.0604
1.80981
19.8516
33.2739
22.9105
11.8509
3.34913
7.6297
6.16751
7.39937
0.435333
-15.6882
-28.6562
-24.6427
-13.4922
-9.63513
-1.0243
22.4371
13.2927
-18.7452
-25.5115
-15.6478
-31.9319
-49.6233
-48.7275
-25.2508
4.72865
16.8055
23.513
26.9447
23.7668
14.6409
5.34602
20.2081
40.3013
35.3776
17.0991
8.08163
-2.4385
5.47641
36.5132
43.9122
25.7042
7.62472
5.29778
6.10175
-9.18588
-24.4742
-45.2381
-55.8191
-53.6689
-56.6511
-37.9232
-26.8109
-14.6778
20.3946
75.7474
67.0648
29.6261
-9.34662
-37.8505
-31.9975
-30.317
-32.0752
-21.027
-17.4333
-4.94853
9.51588
39.8816
46.8198
40.6434
32.3392
18.7939
-0.00578049
-13.7969
-16.767
-27.7317
-24.3364
-8.94358
-2.7705
-24.2942
-52.0443
-26.2053
7.03804
33.3416
78.4563
66.5435
34.0241
4.23987
-22.718
-17.3724
-12.7768
0.904661
40.9534
37.7104
11.2021
-9.69003
-14.09
-12.0856
-8.36262
-6.17587
-12.5046
-35.4755
-27.8352
-19.6815
-36.0283
-31.4379
-8.01595
9.43058
16.0508
16.5878
8.86243
-19.4156
-38.1669
-26.9863
-13.4275
0.239425
30.3417
95.422
89.1693
56.3127
49.754
28.8037
0.885948
-22.6882
-49.973
-51.5839
-38.9257
-36.8928
-23.0268
-16.677
-12.3343
10.0887
9.59737
8.49851
6.18159
7.2277
-8.38516
-47.0838
-68.0985
-47.654
-9.40634
10.7075
13.4212
16.6234
18.2889
26.1208
24.3817
24.4185
27.1303
36.9867
49.0638
45.1294
25.4897
3.72239
-23.8874
-25.7599
-11.0409
-9.83073
0.29934
2.62583
-5.34916
-1.72312
-1.24038
-5.36119
-3.30767
-7.07949
1.84782
10.4471
3.465
-12.7064
-18.4072
-26.454
-19.0413
20.3634
18.8161
-14.9659
-36.9529
-48.5784
-33.3835
-0.982225
49.8526
61.2223
29.6082
-0.30674
-7.62697
-10.8243
-18.346
-19.1515
-12.8272
-7.7518
1.96534
11.7143
-1.23987
-25.1885
-13.0853
3.62922
6.86441
7.43726
2.91954
-5.49812
-29.7575
-32.5295
-0.895823
41.9336
51.6947
42.531
21.8443
-7.00342
-7.57264
10.7805
33.1276
71.9233
70.4178
10.4992
-46.3587
-51.6155
-17.7866
-7.35138
-27.8539
-57.6917
-57.1435
-17.1736
3.41222
-17.1406
-21.9842
-7.67481
2.27815
2.21659
-1.19562
-6.54242
-6.99784
-0.766454
55.3008
107.953
100.265
56.1101
6.2487
-15.0428
-10.2567
-6.4094
-42.6686
-67.9978
-55.4076
-47.3402
-52.2115
-64.9354
-25.186
44.814
60.8674
52.6057
29.913
-0.368142
-27.2499
-31.1676
-8.66793
8.8752
2.38287
-27.8405
-29.239
12.602
43.8129
33.0202
5.32217
4.00957
14.6165
26.6613
15.0138
-1.19688
-4.74029
-12.6639
-9.04299
-3.61726
-8.73702
-7.42974
-0.235054
3.08151
8.47651
5.86448
5.376
-10.0413
-18.0251
-13.8798
4.72408
21.9492
38.614
58.4059
40.9595
17.3657
-10.6989
-44.057
-53.2604
-51.9606
-36.022
-11.0695
12.6786
45.4367
14.8189
-21.9213
-30.0596
-35.5414
-18.2095
7.66923
0.0273964
-13.908
-26.0981
-33.6358
-30.719
-17.4145
16.0887
51.9207
54.066
24.3084
-11.0674
-16.7869
-20.1541
-23.9508
36.1323
62.9042
62.8914
81.2663
53.7183
20.4987
-6.49567
-21.1625
-22.5485
-20.6349
-17.3862
-16.6606
-33.1013
-35.2361
-24.2014
-10.6392
4.63248
1.25595
8.50359
1.06386
-20.6011
-9.40479
1.81429
-4.81409
-3.27812
-15.1387
-15.4443
-2.99452
3.33743
1.93409
1.19744
1.78894
-6.54659
-11.2305
-7.34033
0.487407
15.3825
36.405
69.6942
40.7403
-9.40597
-23.9303
-8.76534
17.0793
31.8949
13.6359
-0.364337
-15.6058
-24.9368
-23.0701
-16.1757
-37.2815
-42.761
-25.711
-3.48495
3.70653
-3.63488
-6.238
-18.474
-7.57521
17.3468
26.2842
20.5927
6.21923
3.28749
26.9337
29.8579
7.14493
-6.77136
-22.0521
-28.1066
-11.0639
7.34003
22.1917
16.4467
7.03001
9.59091
-6.22134
-13.6222
31.6725
47.7105
38.7575
15.8151
-7.83938
-22.3187
-25.5802
-21.8341
-9.45175
-9.20464
-1.50843
0.0300974
-5.92431
-6.67928
-16.9523
-18.9186
-4.47812
23.2624
48.9165
21.3472
-30.3334
-45.6239
-37.821
-17.284
3.23564
2.85042
-10.6122
-13.0454
-11.9203
-5.09309
7.63567
8.78664
9.47818
4.07683
-11.5535
-31.2235
-34.0614
-8.01492
61.8767
125.897
77.3122
18.2044
-11.7268
-21.1251
-16.1519
-23.884
-43.5126
-62.9537
-51.1379
-13.0941
10.7881
18.809
29.5402
42.0152
43.9332
50.5797
54.6086
25.1193
-42.24
-76.4186
-52.317
-36.2375
-35.1919
-43.8998
-28.7545
7.33681
63.2669
116.16
69.7207
13.3547
23.9575
17.806
4.72434
-21.265
-41.8916
-32.9118
-23.3673
-22.0811
-23.7912
-32.9346
-22.5264
-1.20845
17.063
22.2224
-8.78242
-33.2628
-41.7687
-37.0908
-7.25109
13.9158
9.97935
3.4486
10.3401
18.3736
19.2292
2.09785
-31.5914
-24.8816
-9.36877
5.47919
29.6027
58.2153
72.8985
71.9076
50.145
30.1527
10.6395
-14.038
-15.29
-15.541
-33.8534
-34.2825
-36.444
-27.9542
-7.00981
7.87025
17.6763
10.2474
-10.7562
-28.8081
-34.5677
-44.5616
-35.146
-17.9767
-0.611329
19.1165
45.5971
51.7156
31.2463
2.27672
-5.25233
13.4155
-1.56974
-26.5946
-39.3766
-22.4739
7.60666
5.34657
-4.4461
2.64597
5.8456
8.6758
3.68768
-2.93512
-6.10178
-13.2206
-28.0899
-5.28689
26.5544
34.4779
27.3583
15.3634
21.1579
27.6323
14.3092
-27.0078
-38.4599
-2.90333
20.8983
26.1954
17.773
-1.07265
-22.4411
-50.5226
-47.4485
-13.6502
-4.66078
-21.6649
-19.5888
0.982537
0.790769
-4.17647
10.1255
29.8022
36.1156
43.4804
46.6535
35.8289
18.4852
-5.57319
-5.67158
-6.15756
-19.1291
-12.5701
-8.06842
-30.5015
-40.6706
13.7652
57.0296
28.4095
-3.29221
-27.7294
-26.8477
-13.8936
-3.44284
3.85551
1.99877
-27.0985
-46.1728
-56.9855
-39.8997
-0.0444246
21.5068
11.4535
-7.59777
7.0559
17.1216
-23.0824
-52.3131
-44.9218
-13.1167
53.5808
66.3591
56.6951
47.8293
40.5351
27.1
11.8431
1.94592
14.1601
0.193499
5.55199
55.984
61.7054
23.6377
-21.0861
-29.8314
3.99161
0.195923
-41.5892
-58.4646
-57.3018
-33.1921
-13.8704
-9.47801
-11.1567
-22.3925
-22.7647
-5.06414
15.4574
15.2445
-11.0937
-24.4712
-15.0749
4.16526
14.8893
38.7778
23.9425
0.419997
13.4195
15.5369
-1.27126
-14.0965
-17.624
-7.23702
0.409595
5.76671
-0.555271
-14.2211
-10.5469
5.37566
22.7226
16.9145
13.0786
26.2053
29.9893
1.75441
-37.8835
-33.3461
-1.86659
16.1967
10.1833
8.0221
17.4638
11.8389
-0.317759
-11.9983
-11.127
-24.7328
-22.442
-1.37017
-2.56798
-20.1115
-25.204
34.0385
70.0808
41.3064
8.37618
13.8177
-0.594183
-30.6317
-31.4373
-23.1256
-19.7182
-15.5648
-9.42197
4.26481
9.02147
24.5956
21.6954
0.773108
-10.4505
-4.65285
8.04278
-13.098
-40.6443
-39.3679
-49.6457
-59.9732
-30.747
35.5617
91.9801
58.4186
10.7235
-23.8246
-21.089
20.3768
44.8821
53.7457
45.474
24.2775
0.457838
-22.0401
-36.4071
-58.8917
-57.9695
-16.5649
33.0014
47.0721
38.6853
5.7529
-46.4022
-44.8551
-13.8174
8.08386
5.33257
-17.7561
-16.0262
-3.42844
3.43629
21.5678
70.3838
102.499
62.6374
15.1349
-19.9989
-38.9224
-47.2848
-51.0585
-42.213
-35.8315
-38.5607
-32.1691
-25.5265
5.60094
31.4818
18.5684
11.547
16.1769
6.94815
-1.98042
-22.3435
-29.2292
-10.918
5.20007
11.5109
12.4908
6.55
6.16932
12.776
23.5524
29.7313
22.4385
13.8012
8.77203
3.92359
12.4986
7.29717
1.31286
6.55245
6.58521
-13.2805
-25.4956
4.21899
19.0793
-0.76429
-37.6035
-63.5699
-58.929
-10.8604
17.5001
2.28262
-13.2099
-26.9269
-17.0918
50.4398
88.9112
68.9893
34.5394
1.24682
-16.1832
-21.066
-20.4377
-25.0377
-22.8658
3.42222
19.5683
15.5126
-6.79047
-28.381
-40.5759
-27.4652
-11.9746
14.8473
22.9352
-20.4773
-59.3199
-52.9514
-9.84702
26.5998
32.5237
30.6334
25.1185
10.8692
2.2806
23.3273
60.1606
63.0655
35.3129
-13.0632
-50.839
-37.9975
21.0557
28.5866
15.7509
-9.19631
-13.6804
-8.28337
-13.7716
-9.77372
-6.2049
-13.7425
-9.34779
-1.31873
-1.18449
-7.95847
-27.8286
-23.9274
-3.43038
-0.0689725
3.11595
5.97641
-9.53997
-2.74952
-1.8904
-6.62064
1.63562
12.3229
8.37902
3.06554
2.07477
-4.94219
-4.03403
3.78701
12.4485
20.2269
8.82432
13.8716
22.9069
20.7677
24.1831
-3.43011
-41.8037
-44.6143
-46.8806
-49.0545
-10.5989
55.8738
66.1975
37.9664
20.6283
18.7863
-1.38048
-12.108
-11.7436
-13.7609
-10.6365
-10.7627
-27.6708
-29.9862
-44.2214
-21.0376
22.5359
35.9791
47.83
47.6916
6.53217
-32.4828
-7.7951
5.54827
3.89437
3.72602
0.41675
-25.2057
-54.8932
-40.0725
-8.44684
3.91314
7.57777
6.84203
16.2708
19.5366
13.4694
9.64767
8.31705
-10.0933
-32.0789
-45.7807
-20.8493
6.42819
20.5061
58.2607
59.1784
42.3912
34.1041
11.2825
-11.7554
-13.8569
34.0649
44.167
11.6743
-19.5771
-47.1562
-44.1434
-34.5444
-19.3116
-2.8099
-2.84005
-31.0122
-31.8294
-22.2814
-39.6894
-23.7948
15.1481
31.8181
31.5836
22.3424
12.4327
-6.35176
-20.806
-35.3422
-14.407
11.8521
-2.47556
-5.29266
16.1615
25.4163
26.6246
10.8
0.903494
4.57659
10.5081
30.5526
42.1527
39.6863
29.2734
1.68426
-19.3625
-34.6382
-30.1987
-3.74677
-1.86804
3.08947
20.3191
8.50341
-15.4993
-22.3605
-44.9832
-37.9732
21.2567
29.713
6.83804
-31.4392
-53.6322
-39.5965
-18.2924
-1.45478
9.78798
-9.52689
-16.7967
0.139271
15.069
13.8118
28.7573
68.8777
60.6749
29.3098
23.4204
10.1509
-17.1184
-16.8058
-19.2788
-15.9888
2.45002
2.01015
-4.48838
-5.62543
2.60726
6.71174
4.45535
-9.30856
-12.6834
-12.1187
-29.2893
-58.5743
-52.7659
-10.4254
18.6175
19.7526
17.6486
26.4928
34.5496
24.9982
20.458
12.0283
-0.198885
-4.40289
-7.06127
-1.95337
2.28902
7.28251
-1.49106
-9.90509
-17.4819
-27.1501
-10.4448
6.53571
25.0295
50.4983
48.3697
30.0075
7.39656
-18.3879
-40.5054
-61.7816
-57.8375
-22.2045
-7.52444
-10.0825
-2.61882
2.94721
4.46983
8.10832
12.0847
21.6836
17.9475
9.52254
1.70724
-12.556
-23.5637
-22.5143
-17.3637
-10.4332
1.46825
12.7126
16.2377
27.3788
69.6247
55.8995
19.1761
-1.35574
-25.3543
-3.47529
35.2896
35.1533
16.914
-10.0131
-59.8056
-62.5095
-47.1129
-25.1822
0.722283
7.22683
14.2203
13.6342
-0.239071
-17.189
-49.6591
-45.0968
-24.7319
-2.2127
23.6725
28.0082
5.32328
2.82717
9.06912
12.5537
22.9043
10.9116
-12.8002
-15.7405
5.29553
20.5588
24.352
30.7017
37.2899
21.2688
-1.64786
-1.61637
4.68277
2.42853
-5.4478
-19.0212
-25.6237
-18.0155
-5.38644
2.46659
18.0277
17.1619
12.5849
8.12826
1.46785
-2.22655
-11.0963
-13.0226
-9.33339
-16.7965
-34.372
-32.0077
-22.7866
-16.7266
-4.82842
-1.14321
-0.65701
-2.27729
-13.2849
-13.3543
-3.5109
19.7545
47.1234
56.3861
31.3565
12.5742
-8.31735
-25.9713
-27.0894
-20.1645
-2.42873
23.055
68.2253
61.8672
16.9788
-19.0951
-42.0316
-41.4266
-7.75443
4.2149
-3.97689
-21.794
-30.8499
2.65643
11.7654
-10.7207
-19.2591
-5.55497
7.46896
11.0184
6.33599
-7.6407
-27.6476
-24.0276
-10.375
6.78688
17.8597
22.4571
16.6058
11.4175
17.5439
21.7146
15.1738
-7.99907
-8.88915
10.076
23.0148
26.0194
23.6065
16.6821
5.36171
-5.01968
-25.5746
-33.505
-23.3323
-15.4742
-6.29338
-7.3917
-12.7699
-9.13689
-3.74348
0.0636895
1.76025
-8.6729
-6.85658
6.3302
18.0486
14.0316
2.125
-4.51086
-5.55527
-8.48209
-11.5907
-12.0736
-2.50566
0.945518
2.5666
5.31412
6.16489
2.40153
3.1442
10.09
14.9378
-3.25336
-5.41017
-2.42284
0.55746
4.15794
-3.51253
-5.11235
-0.891068
-3.65625
-8.40982
-5.12794
-2.35788
0.750839
-0.176749
1.18704
12.9768
12.1029
3.58258
1.09823
2.78534
15.2806
18.5443
8.76151
-0.204227
0.892888
-2.02523
-7.44452
-7.62449
-4.26815
-1.20652
-4.25851
-5.45967
-8.58855
-6.2173
-7.6367
-20.4054
-13.6351
-2.32048
4.81297
9.50811
10.5906
8.30999
7.13911
5.0941
-1.52473
-0.149897
8.90533
6.10086
-0.399964
-3.24494
-0.19654
0.860358
-6.83695
-6.77082
-3.93877
0.584226
1.8596
-0.756694
-4.16082
-5.39111
-14.0235
-9.77538
-2.02117
5.16438
9.86202
7.64661
4.18475
4.9845
2.00928
1.5945
-1.99394
-8.26184
-1.96897
4.15255
6.48316
11.8073
7.26746
-2.79767
-5.27686
-5.77314
-0.7922
0.182011
3.32202
4.41294
8.92681
3.1131
-5.16256
-3.09667
0.0265175
-1.24949
-2.1073
-0.174909
3.48587
0.683908
-5.44148
-4.37872
-3.46432
1.39719
3.66665
-0.0480271
0.643703
-6.39353
-6.65725
-4.78884
-4.84098
-5.3058
-0.250476
4.90877
3.25326
-1.21819
-1.54861
-6.42091
1.56191
10.2535
13.0806
6.01081
-0.719551
4.63013
7.84739
-2.05498
1.159
6.35148
4.30526
-0.85082
-4.49809
-3.62735
-0.607857
-4.52038
-5.43307
-10.7855
-7.2487
-3.6732
-7.61006
-11.3327
-11.3062
-3.77659
1.79884
-4.87391
-3.70191
3.49864
3.65485
10.5398
15.6996
13.5669
11.5152
3.85008
3.51373
2.33694
2.28567
7.85888
4.51016
4.36058
-0.229283
-4.23588
-4.31899
-0.13423
3.34697
6.09344
-0.86973
0.816758
-1.66819
-8.41473
-6.91549
-6.5116
-3.56013
3.36446
3.47876
5.53683
2.98368
-4.96911
-14.3577
-16.6583
-12.3308
-6.20863
-1.6672
-4.14997
3.58709
3.75345
4.56726
5.73795
5.40532
7.32177
4.0318
-2.54521
-3.5258
0.129902
1.74766
-10.342
-11.9281
-4.6767
-4.99867
-5.37965
-1.62232
6.32863
7.5709
13.2103
5.83103
5.72745
5.54573
-10.2127
-13.211
-4.13241
0.229209
9.35856
21.8453
55.19
57.408
30.0892
4.10605
-12.1161
-19.1703
-19.6023
-33.4651
-28.2497
-22.7182
-17.9875
-13.96
-12.18
-2.11612
7.95162
3.453
4.20675
4.2974
-2.62116
-8.84794
-30.4584
-35.373
-14.6607
-2.50662
6.52743
13.7399
11.8893
21.218
26.6632
26.5456
16.0067
14.5777
14.2837
8.10444
3.2062
-10.3729
-27.9925
-22.49
-5.8425
8.24488
2.53774
-7.02365
4.36667
12.6317
7.58157
5.34484
8.33324
11.2627
4.87747
-14.7126
-15.6421
-10.5071
-10.56
-11.5313
-8.05763
6.38985
15.7596
9.60678
0.775073
-2.76247
10.5206
23.4533
18.7993
13.1533
0.525301
-16.0025
-20.1216
-25.3831
-28.4393
-14.922
-9.05426
-6.93121
-2.46272
2.51221
2.61834
8.45636
18.5085
21.6151
18.9112
5.00427
-16.3488
-26.4931
-23.4188
-18.8769
-16.7259
-7.1486
-4.5489
-4.21581
0.396827
5.99669
11.9155
17.6358
11.349
-1.75869
5.14949
8.62785
13.6531
29.1031
42.9496
74.8909
59.8925
14.0258
-12.1673
-20.3544
-18.4312
-18.8322
-19.0684
-18.2986
-21.7353
-20.3032
-22.1414
-21.0099
-17.8353
-11.7465
-0.757908
2.18485
-1.25665
-7.9095
-25.1895
-50.676
-47.7331
-21.5143
0.0335585
11.4942
22.0497
24.7224
21.0474
16.5486
17.43
16.0403
14.7757
11.9614
14.755
21.8217
15.6131
10.6245
14.0106
11.1984
-1.39335
-12.3733
-12.5369
-9.49251
-3.6326
2.92566
7.85826
7.22926
1.2198
-1.50282
3.01078
7.09916
4.83555
-3.22809
-4.86865
-6.2144
-6.45502
-4.30086
-2.32487
-3.05934
-1.48345
-9.91623
-16.2673
-15.8247
-14.8529
-15.1056
-16.8441
-13.5948
-1.38173
2.19606
-5.89509
1.69376
8.65871
16.3663
13.3711
-1.53654
-11.9661
-16.9923
-19.5549
-4.59995
33.4011
51.4685
47.3802
23.518
-1.59981
-14.5537
-29.9203
-35.8973
-27.6042
-5.19631
14.6504
8.5959
4.40648
5.79107
5.87463
17.2929
23.1577
26.3895
23.3455
12.0081
-13.2533
-28.1706
-23.6422
-11.1875
-3.15013
2.26326
11.2645
14.6274
4.08518
-8.58216
-9.58265
-5.15156
-12.8717
-15.0489
-14.1012
-12.6514
-2.68972
1.73246
0.55417
2.26013
-5.64887
-12.8645
-9.23949
-4.23299
7.15759
13.8929
17.0191
14.9805
5.4455
-0.35032
-7.35841
-19.5533
-13.0333
0.769615
1.43533
-13.1905
-14.0716
-3.95057
8.04343
14.8006
20.8355
83.803
101.653
54.8127
17.1051
-7.50255
-23.5387
-33.6119
-34.8472
-42.1833
-45.5127
-30.9662
-23.181
-20.2237
-13.9823
-5.83259
0.681122
-1.64173
0.122763
-0.381307
-8.05054
-46.8336
-55.292
-26.9906
-0.16675
4.50997
13.8189
24.8162
28.8096
30.2035
32.0675
33.9344
31.3783
20.1033
15.8304
25.337
30.1357
29.5836
23.5757
13.2348
2.10037
-26.1037
-56.4135
-62.1448
-31.913
2.63644
9.28383
17.2538
31.9716
36.0846
26.0034
2.75061
-18.9214
-24.2182
-21.4137
-18.9893
-17.6792
-15.4533
-19.1853
-17.5277
-9.79855
-11.486
-3.72218
7.44355
0.54321
-6.50389
-11.4898
-12.212
-16.4351
-16.0048
-5.77981
15.3325
26.7959
30.1359
17.8671
4.85244
3.58093
2.04505
7.7818
8.97768
7.83385
8.41624
6.7842
0.463834
-2.86934
-4.7958
-0.728245
-4.34437
-13.6219
-16.1659
-8.2033
-9.9774
-9.84534
3.90729
25.047
49.5881
52.4073
20.5559
5.78581
4.85313
3.29628
-7.64827
-7.83559
1.59247
4.49966
1.9541
0.741401
-6.93835
-13.5649
-18.2203
-26.9001
-13.8831
-11.6616
-19.1583
-22.7279
-33.0756
-37.211
-14.5864
-8.05875
-3.5643
3.46287
0.344596
2.97574
3.60158
-1.18464
0.605349
-1.42824
4.82048
10.5153
14.6559
32.9534
32.3753
24.7557
27.4395
9.66745
-1.91062
-1.28067
6.61883
13.0746
8.23881
5.07173
2.32354
4.04908
-4.4891
-21.7727
-12.6347
21.7409
-1.28338
-30.8937
-38.3057
-36.6939
-14.1788
5.46108
6.4241
17.7174
30.9684
31.3808
42.5347
45.8748
12.356
-4.58941
-5.39954
-24.8383
-33.2936
-23.9061
-21.8625
-32.8571
-14.0532
19.4167
15.4762
-12.4462
-25.1003
-29.851
-41.8371
-16.7043
1.54202
-30.7795
-40.5254
-26.028
1.57954
15.8889
19.6321
37.2921
49.8541
41.5944
34.4165
24.9179
15.1197
0.742414
-7.60496
-6.43815
-3.02415
8.23769
15.7954
15.3887
7.94479
27.2165
28.5284
27.3128
32.3603
24.5827
6.00164
-10.605
-6.93478
3.3982
-12.8417
-29.4487
-36.9689
-47.558
-43.7086
-41.6139
-39.6932
-23.002
-2.22952
9.37795
10.8344
-10.1243
-16.0033
-18.6446
-11.416
3.71052
16.6422
28.0339
29.3397
21.1972
4.68441
-7.3981
-13.2383
-5.44554
-0.422265
0.841923
3.6296
3.17818
7.94859
4.43333
2.14379
19.5886
21.1765
7.04462
22.4493
14.7255
-23.5515
-38.7674
-48.7746
-42.8335
-27.0673
-20.1516
0.274232
29.3113
40.8775
44.7173
51.0155
63.0494
56.3908
35.5643
-7.61646
-0.960085
62.8264
27.7623
-50.0471
-67.0713
-42.1304
-27.3126
-13.5062
-10.1849
-9.1382
-1.49608
-12.8379
-39.3038
-59.9943
-70.138
-45.8908
-23.4978
12.0383
10.0219
16.6224
31.7782
-3.1593
10.8616
39.4531
44.6791
28.8165
18.4918
12.3812
-8.57442
-6.17725
7.59786
19.8623
25.2867
32.9379
62.4961
54.4094
4.91056
-56.9327
-66.409
-50.5672
-47.8844
-63.5446
-46.6332
-2.14888
0.840394
3.83312
15.6648
54.6075
106.281
45.6062
21.2923
21.6759
3.94894
-17.4874
-39.9769
-55.7735
-48.5668
-39.9946
-26.639
-22.9334
-20.7496
-13.7652
-16.8853
-5.08199
16.8714
17.2316
32.5291
107.204
72.2206
19.7173
15.8037
10.0303
-8.18578
-14.7636
-29.4394
-39.4106
-32.2736
-21.2946
-22.149
-4.51787
54.5475
120.679
85.9147
40.0482
2.27801
-14.0269
-39.5502
-102.884
-112.395
-56.8776
-46.8211
-37.8857
7.63062
41.1532
66.7239
39.9767
5.87929
-31.8267
-43.9954
-47.8104
-60.8908
-110.546
-114.253
-74.5606
65.0078
92.2379
66.9404
45.4928
46.558
85.987
92.3846
79.7811
62.0369
59.4088
90.1069
27.5724
-15.9336
-22.0321
-8.55781
-6.68707
-39.7147
-46.4006
10.7864
29.1
-7.7766
0.795962
-1.91048
-44.7633
-68.9996
-67.462
-69.6347
-90.7671
-99.5986
-90.6527
-102.217
-40.8187
57.6562
73.9638
65.1527
72.4647
69.1951
35.7797
36.4191
17.0106
-26.8521
-39.8857
-13.233
-23.6817
-26.0561
14.9502
43.0545
52.3711
71.8932
100.49
23.9467
-14.3523
-12.4719
64.2045
4.04465
-38.2694
-55.1987
-29.3075
34.225
61.3107
37.3339
21.2484
-19.8953
-37.5692
-69.3414
-90.8937
-93.8067
-93.9769
-120.861
-86.8243
28.9335
64.4281
48.8071
37.463
111.124
146.946
121.488
76.2045
53.3069
2.09944
-91.0174
-110.892
-33.4543
4.48714
-67.1578
-107.149
-39.4196
73.2327
37.5398
-28.0189
-80.4861
-54.1039
-40.0174
-30.4766
12.552
-26.7868
-11.1677
13.4067
24.5238
30.0539
96.7256
143.73
111.542
62.0366
92.5151
113.04
43.7374
-56.2654
-91.8114
-144.482
-89.1307
23.0077
43.9829
-2.40663
27.5327
124.794
-66.8719
-169.88
-181.568
-149.83
-91.5141
-33.7902
30.9782
168.097
280.628
131.584
1.95459
32.0545
102.508
32.7496
-52.1756
-67.3711
46.7299
-66.9347
-199.005
-210.233
-53.7476
45.827
56.8246
60.7801
50.3423
-22.4715
-131.191
-201.118
-244.692
-180.797
-87.4834
-32.2923
105.031
221.13
267.918
188.719
162.39
85.2546
13.6533
-11.4474
-14.4912
-8.22872
-19.7363
-0.534194
13.4531
58.0826
91.241
241.95
282.933
35.9238
-21.4839
3.33916
80.7859
123.475
26.8801
-202.084
-431.803
-272.309
-118.128
-129.878
-135.303
-51.0151
44.0649
54.3356
20.1751
0.109207
-11.696
-131.319
-170.31
-0.59328
36.4486
20.3346
-78.9735
-134.995
-122.047
-33.1452
167.578
304.292
103.679
27.6974
99.9175
86.9076
-11.1162
-11.5846
19.7034
29.3253
59.6991
116.249
160.416
162.791
183.831
60.7761
-54.9679
-60.5216
-25.7134
-1.50073
-62.1272
-92.8255
77.4545
82.5023
-40.9762
-89.6737
-116.166
-184.334
-215.093
-145.569
-62.3156
-84.8057
-91.4134
55.858
26.6771
-66.7388
-72.199
49.8051
28.4675
-33.8627
-98.5569
1.98088
186.881
237.913
109.167
59.8837
102.897
96.0523
12.3443
-91.3131
-103.098
-94.603
-40.5392
4.90828
31.153
32.1464
5.44322
-40.4539
-17.503
27.1784
38.4456
-3.70711
-55.0112
31.6938
91.9499
19.8844
-23.2604
2.27097
121.626
147.104
80.1923
2.47588
-73.6903
-194.208
-289.467
-117.995
0.0782581
133.984
271.365
218.95
211.27
132.267
-175.1
-75.4334
83.4589
-72.0982
-171.516
-135.612
-143.235
-164.475
-179.095
-148.519
-139.016
-94.6064
119.83
177.795
85.9449
-110.067
-205.153
-86.2821
-21.506
11.9714
119.997
37.7544
-4.20255
139.664
203.992
160.173
111.341
86.8034
36.9383
-6.48342
36.3612
216.825
238.118
140.934
58.4715
-31.0964
-93.0051
-71.8978
-122.373
-154.667
-45.3914
-28.2263
-50.6405
-39.0453
-62.5492
-116.562
-185.795
-155.64
82.0787
261.138
266.865
-43.7568
-171.378
-234.727
-152.29
-29.7628
9.23851
-6.49152
-3.57806
26.4591
-0.0067316
-82.6101
-86.2791
11.1409
85.8392
110.064
158.052
192.38
85.8158
-13.0271
-43.2785
26.5772
8.23332
50.5209
106.315
84.1302
-95.5117
-168.064
-156.127
-162.526
-138.528
34.3897
354.911
230.738
47.3677
-15.0024
20.9246
32.301
-24.4878
-92.0904
-119.636
-95.1082
-96.3628
-89.4763
-118.467
-99.8964
126.365
190.855
128.189
43.3506
-27.6246
-196.496
-373.315
-155.845
19.7693
94.5711
106.901
11.8606
-97.8045
-122.592
-11.9934
147.996
400.896
444.429
132.52
92.957
-17.5593
11.8846
27.7725
-41.1913
-48.0377
-13.0463
-75.0431
-229.173
-212.879
-93.1336
86.9841
353.855
249.684
-22.1576
-113.585
-159.332
-281.728
-240.438
-9.27577
2.45186
31.4164
-12.5759
-27.0911
5.36311
31.9948
-17.2731
-23.9364
-1.49923
-30.3232
-31.4744
-79.7812
-130.231
15.8372
124.538
100.385
189.474
24.6103
-127.561
-62.9652
7.09062
96.0684
114.694
257.463
284.028
159.705
9.76503
-36.3736
-11.3981
-40.5236
-79.4008
-99.9921
-195.544
-242.174
-32.7405
-99.9988
-236.168
-110.481
107.608
274.795
62.4782
-143.812
-137.509
-135.648
-172.188
-128.179
34.2828
311.204
506.698
415.38
257.842
24.6579
-35.799
86.05
40.4495
13.5013
-50.5993
-132.269
-256.622
-297.016
-142.994
-104.133
-139.537
-185.876
-139.434
-75.2257
15.6133
92.5222
-62.9912
-18.9579
20.2129
30.2352
112.571
140.978
85.1404
93.8116
204.667
67.312
-103.045
-194.727
-139.192
-71.8681
-22.1258
41.8223
249.037
351.431
485.671
229.404
-76.196
-129.917
-51.1382
12.0664
-102.853
-66.7264
-12.1718
-33.9719
-146.933
-135.477
-51.6917
-5.65533
-47.3865
-71.2459
102.322
68.9035
-112.369
-159.512
-313.071
-308.06
-115.088
32.1383
-24.272
-47.985
-35.2821
-118.235
-32.7961
154.552
214.47
301.251
453.022
346.876
209.976
122.183
6.84287
-66.126
-160.797
-82.6332
-40.0793
-77.7449
-98.3128
-32.1648
-131.074
-102.529
-89.7121
-120.073
-101.932
-82.6721
-84.2048
30.4079
197.968
149.681
101.677
131.219
73.9825
-1.33581
31.8716
-21.006
-77.1866
-81.6846
7.86853
-1.60292
-33.1639
-184.864
-194.809
71.5037
221.273
407.891
385.086
281.216
-27.069
-242.556
-225.334
-164.712
-178.432
-163.686
-115.877
-106.148
-123.139
-67.621
-11.5335
-33.4104
80.7237
224.646
230.657
37.3273
-115.245
-252.949
-267.074
-295.99
-209.325
-68.5182
10.0664
137.54
117.71
232.51
269.195
226.114
171.089
88.3455
56.2233
-5.8671
52.3471
211.774
198.121
132.694
-9.37228
-34.6779
200.307
186.743
-63.7777
-210.713
-254.633
-176.698
-72.9994
-155.148
-129.617
-18.4996
-67.1843
-71.056
-64.7609
-49.986
-38.2657
-51.8317
14.5763
-49.5452
-116.826
-147.358
-184.285
-243.257
-92.7786
24.9749
122.933
182.401
238.511
382.822
333.148
169.557
158.562
77.8325
39.7567
14.7031
-34.844
-71.5262
-44.8679
-59.3036
-31.472
-51.5647
-99.6914
-42.9054
-38.0561
27.4985
-17.1663
-275.184
-354.757
-227.509
-51.7486
1.53344
7.04087
152.134
245.461
122.088
59.7874
-23.5031
-128.18
-188.597
-27.8318
339.884
149.608
-61.654
205.296
269.369
165.095
99.8523
38.296
-142.429
-219.666
-138.359
90.7682
65.012
-77.3079
-7.08615
18.8655
51.6667
109.924
150.013
51.4365
-227.085
-208.082
-90.3933
-211.792
-139.519
-21.7617
-11.5505
-104.429
-93.4321
-51.3955
-94.3365
-376.876
-187.893
69.3428
126.532
30.2657
-106.108
58.479
595.145
606.711
242.834
86.6473
152.81
66.691
-2.82962
-49.1113
-29.676
14.9589
-35.5394
-92.4482
-88.4669
-7.1407
-92.7502
-188.143
-168.46
-57.5045
34.1099
-40.1855
-257.447
-185.108
-36.306
-62.5376
-52.658
-10.4097
54.4489
105.712
181.696
215.878
118.921
-19.2714
-121.257
-96.9331
2.70288
1.87488
102.468
218.609
306.592
278.667
119.73
-126.71
-318.056
-224.947
-78.1261
33.6304
112.117
40.8362
-61.669
17.695
109.12
122.485
38.4764
-115.48
-356.193
-401.65
-447.99
-342.759
-40.4044
458.194
749.847
300.01
-39.6418
-26.3389
-22.0082
-94.8719
-94.6959
-63.9552
-66.5229
-106.831
-8.80756
70.0184
-88.0576
-162.005
17.2265
98.341
163.904
287.199
220.91
-27.227
-356.113
-136.514
185.724
222.224
107.538
-25.6791
-143.998
-131.273
-104.583
-83.3349
-79.3966
-54.6698
135.477
228.453
148.604
121.451
83.391
-53.4907
-180.406
-340.323
-345.324
-98.6905
43.0201
71.5679
75.7176
78.509
118.146
111.266
68.1506
18.6453
-65.5511
-22.5023
173.726
194.473
152.491
86.2577
-60.6488
-197.084
-193.322
-170.927
-40.7402
16.1989
-8.71393
9.85746
13.7242
-2.31276
-61.5291
-53.7783
10.8303
31.6879
-18.8547
-15.5407
44.8725
73.1065
71.076
56.6405
124.143
132.291
64.905
-23.9347
-91.2617
-52.1547
-69.2748
-117.417
-115.371
-88.0914
17.0256
188.41
140.985
2.71373
-61.7415
-159.875
-247.633
-178.825
-85.1905
15.9422
84.8431
107.142
78.4567
80.8895
20.1872
0.461192
73.8766
85.8456
93.8814
93.1533
18.9403
-99.6884
-85.3589
13.1879
42.3189
94.8474
136.762
68.1666
20.1944
-10.5717
-74.5835
-54.2746
-13.9579
-88.5951
-98.1652
-16.593
69.95
69.6084
27.081
8.57315
-20.7488
-48.8771
-28.4844
-92.0314
-110.474
-80.5272
-109.331
-6.34246
107.843
58.2653
-1.29905
-55.4938
-92.3414
-71.9842
-18.1468
10.8644
6.14864
78.1945
105.767
60.4868
24.7014
35.7545
10.98
20.2037
86.4419
35.6018
82.7189
104
-41.1124
-69.7206
-24.2223
-9.70479
-29.8042
-37.241
-40.4328
-38.677
-44.8651
-36.8071
2.58484
85.6429
21.2762
-36.9602
-2.26224
46.4188
37.2755
2.93181
-50.1575
-49.1513
-46.8909
12.7609
48.001
43.9708
56.1072
111.174
171.528
75.7473
-82.8781
-180.659
-254.929
-259.497
-147.452
-5.10189
57.2964
48.4361
29.2769
106.464
100.233
58.588
52.7453
55.2312
49.6194
49.1633
29.6912
-17.018
-75.5614
-30.8099
-3.14104
-44.8893
-57.2035
-46.1894
-46.8238
-81.6089
120.908
223.687
221.541
114.305
30.0778
-37.2666
-87.4448
-87.4697
-78.9053
-69.592
-46.0639
-36.3199
-54.9106
-52.424
-16.0613
8.86448
-58.6801
-58.9398
-28.5143
-11.0703
-88.0037
-96.3183
10.3226
1.68299
50.9347
125.658
129.376
98.5582
72.9175
55.0526
25.9049
-0.17554
-22.6048
-37.7755
-19.1317
24.2368
71.2911
40.4714
36.0449
35.9963
19.652
-54.1581
-63.343
103.624
53.1153
-85.7447
-139.462
-106.795
-57.0635
-32.9588
-19.8219
-3.20547
-1.57975
-2.6329
7.7253
14.4032
33.6386
27.9484
60.4813
56.32
-1.88355
20.1856
-78.1089
-218.678
-177.529
-138.797
-101.089
29.3775
96.7793
135.45
140.322
106.794
75.2404
59.5614
84.4007
92.3489
113.86
101.191
44.3455
-23.3921
-81.9002
-85.2349
-70.71
-29.2946
29.9436
21.8346
-7.25929
-133.423
-197.709
-66.6162
132.947
204.427
81.562
40.3077
-64.4557
-134.322
-98.8531
-64.9448
-38.6089
0.931787
58.1987
93.7929
64.5803
-6.5145
-52.0495
27.1095
40.3396
-20.1412
-18.0793
-76.4482
-179.738
-233.062
-155.467
-61.0025
-37.9569
13.511
120.939
178.251
134.611
69.7572
0.242425
-25.3508
45.5848
81.4228
68.2473
94.6201
126.958
103.839
47.5797
-22.0034
-69.9209
-67.322
-35.7348
-11.1486
86.3512
113.572
25.0676
-64.3013
-94.4213
-99.7437
-66.3341
-12.9005
-6.61801
48.6383
94.1482
55.9404
-85.9708
-113.566
-57.6019
-14.4456
-5.33279
-5.58391
3.46362
-25.9915
-49.6374
-47.9183
-19.2036
-36.1343
-7.74396
28.7772
20.9308
-21.7399
-31.5664
-6.28877
-25.9684
-31.5294
44.0789
146.691
213.975
131.776
-42.6117
-113.663
-106.486
-188.811
-198.207
-189.269
108.139
259.92
158.006
152.818
152.391
144.873
44.4623
-72.0097
-66.5727
-24.8644
-4.88859
-63.6136
-157.573
-145.426
-53.2559
28.0694
90.3155
129.487
155.425
162.977
-32.2264
-172.12
-190.858
-126.308
-66.5188
-75.1194
-51.2871
-37.0031
-42.5516
-12.2443
31.3715
38.6342
52.1584
75.303
88.2541
81.581
121.24
181.706
158.4
59.7322
-99.9086
-90.3593
-43.3511
-82.7583
-121.185
-100.141
-84.1223
-66.0401
-64.2497
-39.3144
0.743092
40.3359
75.3147
44.1505
39.2298
81.2324
-16.0722
-57.7807
-7.07644
75.1277
112.134
124.752
56.4091
13.7995
16.856
-17.1145
-43.4383
-30.1896
4.5564
-10.8109
-30.8981
-29.0949
-47.0097
-58.6995
-70.0087
-114.09
-104.439
-39.1165
-2.44918
4.82402
-13.5215
-9.12276
72.4033
77.2742
22.9638
-20.8617
-0.792026
25.5709
7.8408
31.2789
70.6752
58.9255
-9.42671
-22.0894
28.6121
40.531
52.4549
52.5421
9.96575
-18.5076
7.50509
-23.4198
-24.1067
-73.0556
-111.321
-27.3609
13.7506
21.2011
22.761
2.99811
2.92082
-4.46038
17.2632
48.6815
54.7645
23.5145
9.92613
2.25828
25.8244
-26.2868
-113.933
-162.496
-138.178
-40.3563
30.5055
62.53
219.702
207.762
30.8525
-44.2861
-107.863
-92.0041
-31.7179
-25.389
-35.5653
-3.52567
43.2429
33.7112
-8.04224
10.6425
23.4283
62.2944
73.9072
29.2555
1.87176
-34.4313
-137.007
-128.422
-49.385
23.8726
74.6549
34.0927
-30.6584
-35.294
-3.3412
67.3586
-7.57987
-44.8555
-6.93236
34.7154
20.5037
41.7058
63.6197
62.0711
41.1989
-2.21909
-61.2089
-84.7628
-18.918
6.94834
-8.54124
6.62386
31.3997
37.0809
25.2879
0.734872
54.0464
94.0877
37.8154
-32.9598
-46.7832
-92.5736
-108.766
-38.1197
2.09814
0.72051
-7.04663
-13.6119
-9.04154
-21.7277
-4.08434
15.5711
28.7049
20.1418
-24.4928
-47.6469
-41.536
-50.9977
-31.3461
-5.4039
25.7269
76.2282
84.5151
39.9058
54.841
65.6013
-2.7257
-44.3092
-44.7166
-41.8063
4.28326
50.0685
92.3394
132.869
4.46883
-61.9562
-68.6647
-75.5356
-48.8886
-20.8351
-18.7586
6.03457
40.2544
3.99392
-25.5197
-21.5376
3.8552
18.2038
40.462
50.7221
35.5666
11.4377
-108.69
-160.223
-40.7264
7.57075
19.3135
58.9537
44.0729
49.8344
49.0028
27.9229
10.7611
19.1913
25.1357
18.1555
23.1685
-47.6771
-120.982
-132.394
-126.062
-117.784
-17.0132
135.216
256.449
113.985
-0.0768836
-21.1237
-49.7767
-42.9476
-2.79777
35.7937
58.3561
41.3762
-15.1203
-38.798
-37.2366
-0.762326
24.7839
17.5244
24.5893
33.1231
2.56433
-112.574
-179.558
-82.2694
-5.06324
5.902
39.8908
55.8469
60.8839
75.0424
46.4689
-31.1435
-26.8832
-3.25067
14.6816
21.8593
1.66207
1.22361
16.3948
41.6569
50.4377
-4.19234
-39.6753
-25.6348
-20.9785
-15.3928
-5.3703
-19.1226
-24.8415
-27.9127
-22.2566
25.7763
24.5328
-2.27433
-10.9111
13.5982
43.011
31.8482
-2.63892
-21.1011
7.50255
-23.4081
-82.8243
-49.8626
21.7402
44.2249
60.0052
57.6012
12.5618
-59.7724
-84.838
-42.6852
7.66322
-1.74202
8.50252
14.856
0.207153
-14.3755
5.65094
14.8305
13.7039
40.8197
55.346
45.4409
12.9844
0.0716957
-9.66373
8.66022
47.638
33.7821
13.003
0.135054
-23.0944
-29.6496
-49.0344
-42.7789
-17.12
8.49262
13.5642
-32.238
-88.3723
-76.9266
-48.2872
5.96158
7.77673
-26.1954
16.4159
67.3077
120.025
129.687
32.2862
-21.1997
-70.5226
-101.184
-35.8832
0.529977
-4.14677
-24.3736
-31.3758
29.9505
35.6011
52.5559
95.1425
75.4111
13.1367
11.9693
17.89
-20.2592
-101.597
-128.257
-84.7926
-49.7094
2.53633
40.9412
36.4506
23.0565
18.335
18.7748
23.3274
-3.28383
22.0888
42.756
3.1425
-37.4026
9.16503
36.4341
-13.1997
-27.5575
-31.1739
-23.8829
28.7723
59.107
64.0056
60.0668
7.49149
-51.4392
-69.7338
-74.8105
-57.9354
-5.81341
3.71987
-23.8454
19.7278
47.4018
39.5365
6.57242
-28.8166
-25.7939
7.73473
80.6131
37.316
-9.9173
24.0433
37.8384
4.30914
-31.7914
-8.38879
22.9341
-15.3531
-47.7343
-53.4066
-21.778
-23.4696
-22.5674
11.2054
34.4463
34.2327
-16.1439
-66.4058
-85.9171
-21.7663
26.542
-75.145
-60.6022
-1.5893
50.8371
52.8816
52.8019
63.2458
42.0739
45.7944
47.5557
41.8013
39.1978
-8.02676
-60.7385
-54.5572
-18.1128
-6.11784
-36.3916
6.98809
-4.55765
36.259
76.4248
72.9841
36.8131
-11.0838
-36.8335
-28.0518
-3.22607
23.3033
53.8931
13.6977
-50.0978
-44.4926
-14.0053
-18.6447
-38.9602
-32.2672
-29.8328
-26.0908
-9.27259
-19.0073
-4.83149
-19.6349
-30.5602
40.4212
60.7726
-1.66927
-18.1359
-28.0801
-12.3924
12.9772
14.5604
-22.7145
-58.7739
-87.9082
-72.2012
8.21092
0.254626
-93.5432
-29.4368
152.558
207.092
153.01
161.856
85.8156
16.0126
51.5831
23.0365
-35.3868
-104.231
-135.829
-95.6015
-10.2371
26.3432
22.1396
42.204
17.1451
18.8684
41.2858
-4.40081
-69.8039
-110.297
-85.9521
-95.2081
-84.6443
-44.4642
-29.8741
-24.6801
-14.2576
-18.6404
19.9999
-11.3812
-70.7169
20.7873
171.108
174.445
205.725
188.316
98.798
30.4226
-43.6906
-96.4117
-90.1806
-64.9404
-42.9419
-34.8601
-44.5108
-36.4872
-25.9179
-21.47
-79.1277
6.54131
114.451
79.2584
21.3473
-21.3184
-123.629
-82.7252
15.7234
11.5216
2.86096
-3.28735
15.5593
19.5863
4.4055
-6.26993
1.5156
5.62755
6.2174
41.9493
63.4012
10.6353
-27.9136
-27.4151
-1.55526
40.3688
42.6521
-4.83103
-22.0561
-42.3856
-41.1387
-34.248
8.08338
57.406
-6.44017
-16.6722
16.1031
38.5759
45.0859
9.95634
1.41931
30.6284
-53.4814
-80.0261
-57.7825
-17.8674
21.6589
26.447
21.4812
33.8301
8.4928
-13.4872
-40.7208
-55.52
3.01841
26.7077
21.4276
31.3127
-0.173408
4.80994
3.51787
-28.8319
-6.13153
-11.8115
-35.9083
-61.428
-80.8045
-80.2098
-39.4207
55.4391
105.771
149.491
171.026
55.0821
2.96674
1.42391
12.3057
1.98538
4.98367
6.68392
2.31079
-32.1134
-36.1045
-30.8494
-24.5388
-5.59621
0.911924
5.1456
-10.503
-90.6278
-139.368
-59.3578
-68.7088
-97.1123
-62.8092
-1.25846
31.5401
44.7468
80.6668
50.6487
72.2422
85.5752
69.1124
56.1918
60.6855
58.0061
22.4335
2.02547
10.8261
24.422
24.4961
-50.0742
-46.9561
-8.39722
-21.3756
-39.2252
-62.2292
-57.3942
-27.3782
26.6744
-28.5115
-68.6377
-18.09
4.12946
-18.3728
-44.5152
-15.4784
20.9424
30.5347
44.3591
58.2115
29.9854
7.14975
66.0079
99.0719
26.3186
-26.0768
-37.82
-72.1238
-119.546
-79.5076
-4.29638
6.44801
8.72454
1.98257
1.98711
25.3316
68.3236
117.899
94.311
22.6883
-36.6591
-71.6216
-66.3992
21.2317
38.0096
-14.1913
-32.2218
-36.7346
-24.3307
6.09312
18.7976
-0.831115
-29.3025
26.5188
63.7072
26.0251
7.54662
-4.43695
1.69271
-8.32986
-9.6976
-6.83081
-17.6474
-93.9013
-109.382
-76.763
-19.9876
65.8848
111.411
105.146
85.1797
50.0997
36.8851
-11.9378
-15.3008
2.01823
-42.3877
-110.954
-130.022
-110.592
-101.68
-63.4445
-19.6206
41.8685
111.118
129.033
86.2517
25.5667
-20.4863
-15.3044
-2.27093
32.3771
58.6013
38.7495
10.3831
16.3953
35.7666
36.3425
34.5993
43.2704
36.6158
14.8173
20.725
-8.71723
-67.3128
-104.526
-90.9873
-74.8878
-51.0174
-5.1353
41.9235
75.8195
20.6287
-72.6346
-63.1912
-19.7397
6.233
-33.324
-59.8221
-15.819
14.6129
16.1088
4.74297
-5.42685
21.8921
21.762
17.1502
0.81419
-30.3735
-28.328
9.92295
107.408
66.8016
8.95819
-11.867
-21.3055
7.00046
58.5925
76.2294
42.5466
14.7586
-5.93466
-13.314
-25.2385
-31.9884
-38.7755
-38.3849
53.5041
85.726
-12.7458
-128.332
-182.534
-88.9337
10.6171
25.4262
13.8017
-16.3069
-1.88278
36.518
46.6495
36.2225
43.5604
42.373
50.7686
38.4817
28.3635
11.8849
-35.6883
-32.9879
2.41003
21.3583
-16.1339
11.6224
39.2825
24.7419
17.0017
-8.00287
25.5691
-18.5717
-107.539
-116.283
-74.2285
-30.5871
-15.2753
-10.6101
0.727299
-2.06395
-15.5844
-4.13109
41.3342
63.0908
38.7052
11.8327
19.2397
19.5083
10.8012
7.21519
-21.3311
16.2946
33.4546
16.8664
-4.14413
-13.6869
-32.8356
18.9908
114.613
83.015
34.0482
2.32133
-26.6989
-33.2481
-43.0648
-39.5224
-22.2011
-20.3798
-38.694
-37.9854
-50.4928
-60.8043
-16.253
39.3261
39.6931
46.2313
34.0571
-29.2602
-92.9999
-116.283
-87.268
-62.7621
-63.3023
0.259542
74.9961
112.1
94.1782
61.3813
44.053
46.8308
78.8123
76.988
72.5123
60.9844
41.6008
10.3661
-1.759
-9.56161
-37.7873
-32.8352
-28.0665
-22.0423
-18.0033
-43.2981
-70.7988
-86.9439
-52.2449
-14.8756
-0.829314
-25.2151
-51.3744
-41.4965
-44.5524
-22.0927
2.37376
-4.25054
-4.84358
6.98603
12.5817
52.9083
87.4056
121.758
137.382
109.835
62.4536
-12.9326
-68.7993
-91.4121
-80.8593
-59.744
-48.8094
-25.3712
1.86248
-12.5231
-16.844
-2.58316
11.7921
0.809076
17.749
27.6232
16.4721
-1.55049
-8.28324
-21.6689
-17.2085
12.0873
18.4675
34.3682
32.4905
24.345
15.5928
32.127
40.4669
-15.5133
-47.0636
-29.0232
-21.3569
-16.8627
-7.30625
2.60985
-0.954037
-14.9008
-5.38496
-2.02738
-13.5715
-12.9687
9.67335
22.6377
-2.03056
-48.5273
-41.7215
-20.6898
11.1608
47.3548
48.7253
12.5912
27.9483
78.8205
73.5342
37.8548
-14.5901
-43.8727
-53.1925
-48.2946
-82.0558
-105.306
-80.0202
-19.2072
36.3788
75.8045
63.0953
25.009
11.4461
27.237
49.925
9.24715
-51.5504
-74.9648
-59.1348
-18.4607
24.9778
62.4792
69.5313
35.7374
26.3708
27.9003
-6.93801
-54.7965
-82.5771
-43.9639
27.8099
75.2939
87.4798
29.7636
-21.3615
9.49102
20.1703
5.87036
-8.8037
-34.2563
-43.0567
-63.6013
-80.3918
-83.167
-43.0669
6.33533
58.0285
90.4425
72.1872
43.6212
-9.96353
-49.0164
-51.8776
-23.5128
-5.3221
-6.40448
9.21931
1.48512
-39.2246
-61.3837
-39.8175
1.77605
46.023
85.7113
74.357
77.3223
74.3076
21.9671
3.49554
-15.862
-32.102
-23.8483
-8.67277
-15.1473
-20.0595
-27.5893
-44.356
-44.6459
-19.7041
2.68857
9.73675
0.367732
-4.61477
0.24281
4.85292
-3.23247
-11.8424
11.7115
47.786
83.0101
66.5971
20.3305
-7.22069
-3.46644
-10.1882
-25.9193
-61.2101
-26.0656
25.3442
-1.60852
-45.5909
-74.1076
-95.612
-58.0175
-10.6274
20.0978
38.5699
78.5291
100.33
32.8149
4.52171
2.45803
6.52777
7.00522
0.0833962
-14.6156
-11.432
-37.2654
-49.4625
7.36885
55.9245
92.9934
74.3919
-1.98811
-10.8895
-26.5451
-38.2427
-50.4124
-60.9519
-37.4408
-16.9235
-19.9379
-35.7727
-33.4866
-9.13245
22.828
46.3102
40.3302
36.8777
35.0617
17.8596
-6.19087
0.225682
40.375
33.9833
-3.30648
-34.3436
-43.5072
-30.6686
2.77451
3.73012
-3.1555
-7.44749
-0.694447
8.10353
8.67177
6.92353
5.32008
6.31551
-10.6631
-18.0468
-5.36906
6.03954
9.3105
4.4381
13.1856
15.6438
-8.41226
-29.7681
-42.0164
-4.63392
10.4444
19.454
3.31881
-26.9031
-13.745
14.5506
33.0936
38.825
36.9817
36.4172
15.999
-9.1877
-17.1738
-27.8109
-15.6988
-2.99603
9.28045
17.1136
22.1179
-4.69482
-33.8768
-56.8478
-39.5199
-14.0966
-9.24682
2.09911
11.3493
1.41721
-9.21436
-4.84326
-20.06
-12.0533
7.7958
6.52174
14.1192
23.814
27.6101
29.4885
25.6608
5.00767
-1.92802
-4.18995
-4.81281
4.69243
12.9351
9.07572
-32.8878
-54.8731
-45.3901
-42.081
-10.8629
8.56319
27.0804
104.863
102.098
40.1345
-1.39716
-21.052
-38.6784
-36.4542
-34.7798
-28.4268
-12.6136
11.8608
16.7886
7.43367
7.04348
1.96416
-1.05455
-9.86529
-16.197
-21.169
-29.6393
-63.2976
-64.5041
-36.0659
20.5117
79.1361
109.562
62.9589
16.487
28.3813
25.0624
-3.12546
-6.95687
-3.32153
-4.78314
-21.8159
-28.4354
-8.75596
8.44042
10.5379
-1.76546
-21.2801
-23.8299
-18.0287
-32.2057
-44.6507
-40.8952
-4.18245
25.3061
29.1971
17.2405
6.8114
-11.7557
-20.5609
18.6969
19.6202
-4.34463
-23.7038
-13.2383
51.6575
69.1293
-5.38582
-36.0064
-22.1142
-4.57465
29.0209
26.0678
28.9446
36.8916
15.5409
3.59664
6.73059
6.51292
-3.40528
-29.0029
-33.8816
-19.5512
-20.9771
-49.8005
-87.2898
-71.1191
-10.6186
21.8897
37.7098
28.1515
-3.54988
6.79969
11.8703
-8.94544
-15.3277
-13.9292
41.7272
72.5968
64.0688
42.4043
54.6184
53.8383
19.4487
-4.39907
-20.6214
-20.0875
-16.5481
-12.0266
-18.5706
-6.72047
-10.3463
-30.5788
-28.5902
-8.50492
3.59603
11.1587
-29.8068
-51.3245
-48.3452
-69.6439
-110.028
-155.457
-116.659
64.2841
151.891
127.568
125.701
68.6301
26.8843
28.7976
45.5412
24.182
7.12268
-0.403664
-2.80797
-4.96742
-13.391
-18.0711
-14.9866
-1.15701
8.28908
32.8501
26.3978
-34.8717
-66.5369
-53.1612
-35.5472
2.81594
27.2368
7.14317
-25.8734
-34.9981
-62.422
-58.9297
-31.2466
-1.90153
29.2807
40.8276
48.9557
49.8997
58.7065
65.2042
52.0684
3.37441
-23.5648
-35.0023
-38.4257
-26.2257
-16.4412
-14.4659
-19.3191
-1.30616
51.2154
60.1319
18.5406
6.1497
-15.4981
-32.8883
-18.3746
5.96328
8.28837
23.4497
23.1067
-26.1335
-61.3939
-57.7126
-9.92075
9.6306
3.37395
8.07197
-2.31137
30.9986
33.9175
-9.15867
-19.6749
-21.5645
-12.5141
-5.61301
-15.198
-23.5675
-15.6694
10.9025
-14.6345
-41.223
-1.11971
45.0404
47.146
32.5295
7.49187
-3.33513
5.83688
-8.99355
-11.8257
25.4658
55.9148
50.866
41.6485
10.2633
-20.1709
-21.0223
-5.28754
3.33266
31.0519
64.49
29.6132
-19.5361
-45.6811
-40.7458
-46.2241
-82.4762
-79.9858
-44.6835
-12.2254
21.3301
17.4689
4.35973
-23.8465
-40.4701
-16.0911
23.6591
57.968
55.0753
48.4153
23.7912
-7.34325
-48.9382
-66.6995
-53.8193
-33.0745
9.10576
55.5797
91.8181
110.091
105.367
42.2781
-0.631557
-16.9048
1.90359
-6.24453
-29.4651
-44.005
-77.709
-71.7026
-37.4644
-14.0508
4.05953
6.86579
-7.25966
-4.75351
5.46363
16.0642
-40.7688
-83.0254
-83.5793
-48.1806
-19.0869
27.9816
118.267
132.051
123.235
86.7025
23.4908
-5.60491
-26.5159
-22.5813
-5.52683
1.18633
0.492031
11.1342
2.34761
-19.7532
-22.327
-26.3353
-42.3304
-39.7073
-44.1487
-35.5225
-33.1229
1.19211
-4.94667
-6.51834
12.3041
-4.66634
-45.0903
-59.7471
-63.8614
-36.3402
2.02055
73.1068
177.381
153.01
85.7644
56.3363
33.0014
27.0454
34.2898
4.52075
-45.785
-75.3782
-84.7697
-79.5426
-62.7052
-33.0134
11.7777
39.2067
49.7439
55.2698
55.7726
-18.6438
-105.523
-109.53
-73.5543
-32.1869
-8.28326
-9.59565
-9.46905
-0.848258
8.93767
13.2267
33.1893
36.0563
69.5954
77.676
45.6567
25.3107
1.54662
-10.8034
-24.5207
-29.1391
-30.4563
-23.5377
3.31168
39.2606
25.6268
19.6072
31.8992
20.2012
-12.6689
-25.6923
-31.8748
-35.347
-38.9822
-25.0483
-14.7731
4.79987
12.1756
5.18079
6.18143
15.6755
3.18193
11.099
18.1433
-39.6328
-53.3285
-26.5478
-2.80605
28.9195
26.2394
31.6685
63.1376
66.9971
2.69197
-14.0461
18.3149
24.7844
16.5832
-14.1522
-37.5226
-66.5251
-41.4657
-20.8665
-24.7819
-13.5518
24.3103
39.7779
34.1314
17.749
-0.0284165
-49.4703
-106.679
-99.2514
-42.6627
-24.186
-14.7598
7.92732
60.1532
79.4469
67.7344
77.277
62.2452
52.5187
42.3975
24.082
-14.3159
-71.7808
-68.4193
-48.7358
-14.1472
28.2955
32.2526
52.497
71.2246
87.091
63.2994
-21.1614
-64.7829
-65.8575
-51.2057
-36.5053
-48.6076
-48.89
-23.7853
-14.1977
-7.26979
8.94186
2.50239
-15.3487
-33.803
-25.0614
-13.1953
-30.826
-50.3052
-43.9457
-21.0872
17.3699
27.9163
32.2266
21.4171
34.6716
60.5194
74.7827
51.3405
44.7092
41.1764
41.2071
46.4857
35.6947
29.1755
27.1685
-10.4401
-64.5474
-107.055
-118.786
-92.8447
-34.531
0.363704
31.4016
68.3253
56.5376
15.8883
-23.576
22.8493
38.441
17.4829
-11.9779
-45.9946
-7.92506
70.0358
75.1414
38.0602
5.00197
10.801
-12.0032
-30.4357
-34.9038
-42.7031
-54.4424
-45.6746
-46.3468
-48.0166
-42.5081
-65.6432
-58.4422
-22.7536
6.29881
8.79514
-4.82205
-32.9849
-18.8094
23.0122
56.9424
68.5065
65.6824
52.2337
34.6808
22.638
25.4981
25.6804
18.1613
11.5554
5.05481
16.9259
18.0727
7.73648
18.036
50.1753
44.532
2.9978
-32.2166
1.14263
-19.2186
-83.0012
-110.683
-114.165
-78.3337
-13.8101
54.5114
65.1928
56.7635
70.8056
62.4301
78.2691
83.1886
25.0283
-21.2311
-41.9646
-138.873
-159.377
-93.8171
-94.2674
-55.3455
29.1339
68.3314
115.278
123.569
74.4256
38.4849
-27.5655
-52.1989
-55.4868
-44.7463
-56.8008
-47.6748
-4.16942
14.7049
10.2446
44.3903
43.0281
16.1822
22.9351
32.6895
22.3414
23.5474
13.3762
-24.274
-37.6861
-73.8062
-32.3814
6.93094
-22.9404
-20.0201
27.6278
39.0417
14.7407
-20.4426
-29.4131
-4.55865
29.9182
38.2402
42.2267
54.9879
69.8692
42.1633
0.490261
-9.59392
-12.7285
-23.2815
-26.5901
-20.659
11.5327
37.7686
-31.7841
-65.8681
-35.3585
7.08038
14.6869
40.0706
-6.30537
-37.956
30.5771
19.9758
-5.33633
-27.4459
-75.2366
-94.8939
-61.1459
-39.1197
-30.7701
-22.6973
-4.37467
9.20461
18.8632
18.79
50.6049
58.1156
29.8502
22.6643
58.4196
88.2403
62.5449
20.5596
-51.863
-58.8008
-4.12303
17.9414
11.8299
-10.3269
-0.906647
5.24941
-0.210662
-5.74745
-2.81342
3.92807
4.54609
9.94408
12.339
0.185351
-9.52155
-29.2048
-66.3264
-49.3481
-5.17903
23.3488
46.8289
29.1787
-14.9812
-36.3429
-31.901
-11.1033
10.4054
16.2803
19.4262
29.3867
44.6404
25.3418
16.6523
8.0355
-14.8097
-61.1253
-88.6614
-65.3217
-20.4429
5.15659
12.2568
22.892
22.8534
63.7254
59.3922
-5.43178
-14.9893
-10.7015
10.7692
38.9511
25.4047
10.7983
-14.3382
-41.563
-41.2243
-47.5334
-23.1999
-3.45634
5.51923
-6.29909
-26.2121
-14.072
9.84682
22.1318
38.0183
55.8487
75.8518
43.1709
1.56614
-31.1797
-63.1001
-70.7499
-35.8844
-9.69263
3.47718
46.3294
57.7351
32.3314
21.2878
37.4253
13.1485
2.4898
18.5987
0.662938
-25.8534
-30.1778
-56.0122
-44.3568
-32.6351
-28.7001
-25.8725
8.91637
11.3298
6.66609
9.80258
-9.04604
-37.1469
-39.8958
-39.8807
-20.4649
20.712
56.5783
109.115
123.694
47.4086
8.86199
-12.0677
-75.4176
-105.314
-56.3462
-5.64109
-3.4123
-10.6597
16.3806
45.6919
33.5304
26.924
19.3275
-0.849116
-9.35765
-14.3889
-24.8318
-34.7386
-18.8706
54.9521
72.4866
1.8819
2.70151
36.2687
12.4558
23.5905
-1.74147
-21.2583
-33.9456
-36.1808
-30.2588
-14.9918
6.44112
1.1706
21.6716
39.8659
16.6434
-26.3479
-48.609
-41.4302
-51.5039
-32.0061
4.60742
11.1362
-6.89531
-25.3313
11.2599
36.4416
49.7397
17.1936
16.4533
0.086582
-19.9301
-28.6946
-43.024
-34.4544
-9.20069
11.8459
14.8771
-0.0227989
-11.9541
15.7548
37.862
43.1779
39.9414
29.2864
64.7207
80.6983
7.72293
-13.11
-26.4697
-24.9186
-24.0373
-18.6474
17.222
21.1125
18.7086
-32.8633
-67.2081
-63.7607
-41.4141
5.48367
21.648
21.8649
9.63431
-24.8847
-51.4523
-59.1777
-23.9611
-1.2883
32.9065
73.2255
31.288
12.0949
-4.6955
-14.6922
5.89638
47.1327
12.6172
-25.3741
-19.0103
-5.40237
0.787874
5.72595
6.21046
-1.24545
-2.89588
7.60648
-4.72126
-15.9221
-15.7336
-14.3583
-3.97848
-5.33382
10.1427
7.2356
-28.1473
-26.3274
19.1811
58.1435
58.827
31.0596
11.9489
15.9943
4.00692
-12.2746
-22.1818
-32.7993
-34.8248
-11.9698
2.4251
2.9085
-14.8996
-33.0184
6.39405
43.2207
36.4762
36.7443
23.3746
12.9498
-13.7958
-27.6362
-22.0528
-29.0583
-23.3979
-14.39
-16.6706
-18.0211
-1.36965
-3.13288
-19.4373
-31.9498
8.12713
47.2038
14.2535
-23.0195
-18.9628
12.5515
43.1527
31.7179
2.57425
-34.0718
-33.1075
-25.6283
-7.49635
3.64723
28.2361
41.2756
59.3707
118.364
61.9216
2.5975
-3.62392
-4.40152
-25.276
-39.3677
-38.0589
-59.0097
-73.4538
-70.6564
-55.1522
-19.4308
13.03
21.6549
19.4806
16.6965
-4.33806
-14.0544
-1.56158
-14.1513
9.78388
17.3565
20.8415
26.9999
27.0439
21.2081
10.056
-1.53775
-0.417589
8.30093
31.2608
45.6672
48.9857
97.2866
114.437
59.6878
-39.3548
-94.6111
-80.7565
-109.414
-107.474
-77.1228
-56.895
-14.8056
9.98296
10.2562
13.7723
17.5564
26.1004
31.4039
33.999
26.2129
-8.59361
-61.546
-81.0666
-53.5091
0.108435
38.4262
53.3312
57.0847
56.8632
42.1618
36.3703
15.3495
-26.0546
-34.97
-25.5018
0.705666
19.2558
32.1872
67.1995
74.9174
15.1261
-30.5711
-69.5688
-31.8083
3.42613
-24.1053
-54.815
-46.1125
-18.7018
-4.89272
0.67822
-0.384383
11.3696
21.8644
20.8992
12.1991
4.50835
-15.1242
-51.947
-68.057
-42.6342
-14.4036
5.15583
12.882
19.5976
34.1415
95.2164
73.3278
30.4663
17.7071
2.76331
-3.7854
0.540391
1.15956
6.5432
4.84382
-9.7346
-14.8195
-20.5526
-26.2447
-12.6145
-12.2157
-1.81406
-15.6144
-21.6932
-0.862629
-30.3418
-35.6934
-10.448
1.87244
4.84437
-0.212012
13.4279
10.8485
0.859531
9.4583
10.2679
14.7708
9.11829
12.5179
15.1156
8.74128
22.839
34.7841
26.2724
2.78839
-23.5398
-18.1299
-17.9443
-22.7693
-13.3266
-12.8417
-14.9866
-8.01217
-2.67689
5.34492
22.775
28.0449
16.4871
0.832053
-4.3522
-16.1011
-33.8117
-30.4343
-16.2368
-2.92306
7.38211
25.6098
40.4237
26.4035
-12.6765
4.29952
-21.6869
-54.0558
-15.5455
20.5325
18.291
38.6934
46.4473
11.4319
-1.8241
-4.68143
-9.42056
-28.1338
-31.9177
-22.8306
-21.0689
-27.3709
-25.3284
-2.91682
15.3949
10.1653
31.9959
54.728
41.0973
8.67339
-16.3489
-37.1951
-38.9579
-34.1038
-10.971
25.4429
29.8703
10.8778
24.7554
12.112
-22.3799
-11.9261
22.1748
28.8732
19.1032
-8.5347
-7.92335
13.9361
5.974
-18.158
-8.98038
0.614915
11.4743
17.4596
-5.66117
-45.8718
-44.7877
-7.76518
-2.13583
-28.3356
-34.6327
-1.65599
0.775231
8.88618
28.4121
28.8229
29.3396
19.8833
14.0231
19.7829
-0.720628
-17.8391
-14.355
1.09599
19.4328
25.2946
8.37199
-10.5119
-23.7443
-7.73458
17.7847
8.67209
0.638369
-4.58134
10.3488
-9.71065
-27.2748
-16.58
-51.2812
-56.4594
-17.4973
-2.83051
4.61445
10.0773
13.0461
20.6528
14.4341
3.41877
-4.35963
7.72794
13.4879
5.62527
0.608121
9.25717
-5.41005
-5.21535
-8.93092
-3.47535
39.6321
59.8946
46.8551
31.644
15.6372
14.5995
13.5898
-21.0046
-12.0479
-17.0993
-23.7654
-1.60025
33.383
6.58646
-51.6308
-70.4332
-58.8365
-39.5176
-14.3194
10.0749
17.649
6.90325
2.56461
-15.1801
-12.0094
-12.9299
-17.1753
-6.02766
-12.1458
-12.8689
-7.3087
-12.4429
-25.785
39.8201
73.6454
75.4964
72.5114
42.2457
13.3159
-9.78407
-16.0903
-9.9239
-8.87028
-12.8921
-16.7081
-12.6972
-2.02087
14.8551
8.52681
5.81565
1.51656
-2.80766
-1.18572
-19.4068
-12.8442
-4.81557
-28.9458
-30.3001
-18.6047
-17.5619
-6.36751
2.8057
10.8862
26.6515
48.788
28.4896
-28.8047
-35.0609
-27.8689
-12.7482
23.9619
30.117
31.63
12.5622
-14.2146
-19.0253
6.74325
31.5864
16.4261
0.72871
-5.39656
-16.177
-12.1367
-13.0997
-29.4803
-23.0231
4.13792
13.1495
23.2839
14.5686
-5.44979
-10.4702
-10.8185
-24.2623
-39.6439
1.31955
33.1603
17.5057
2.11718
-9.66516
-19.8273
4.56607
16.1414
-4.49711
3.75518
31.529
28.6803
16.8169
4.4515
7.16616
3.34197
-4.65121
-26.3281
-20.4592
5.97643
-20.907
-49.5808
-33.9504
2.34493
30.5459
43.207
58.2646
78.3746
80.2967
37.4107
-65.6559
-80.2537
-36.1043
16.0146
3.84244
-42.2891
-52.317
-49.5091
-28.9485
-5.76772
-0.173816
4.83302
17.3027
23.246
16.1548
13.7865
-12.3064
-37.725
-36.2549
-18.2536
25.3376
40.635
22.8006
-2.22428
-4.27573
10.8051
15.0694
18.2996
18.0617
13.7628
11.8183
12.2762
6.84421
6.73206
14.1625
8.03638
-2.75752
-22.527
-24.0281
-9.84483
4.95908
23.2504
22.0789
-10.1513
-17.7314
-10.7685
-7.57273
-11.1387
-24.6266
-27.3573
-18.45
-7.90768
17.8272
24.989
-7.78693
-17.6694
0.714011
3.30541
-8.05051
-7.48135
1.07982
20.1501
21.2019
18.1917
11.7058
1.58333
-5.44611
-10.7527
-1.44025
5.59565
-2.43764
-12.6341
-9.64962
0.370992
7.09933
8.708
-0.606693
-4.35739
-4.12953
-3.67863
0.191383
-5.32596
-2.81796
-6.51477
-0.983365
3.83809
-0.292111
-10.9136
5.93523
47.315
22.0517
-1.2861
-16.1569
-16.1714
3.6186
10.82
2.55758
-0.00614546
4.63417
5.55911
10.4109
-3.75913
-10.9244
-5.56626
-9.32471
-10.6966
-7.87063
-0.741778
-17.3096
-41.1098
-20.5295
-3.32716
0.00369287
1.28681
9.33029
15.6294
14.5764
37.9897
61.2254
19.5315
-6.62597
-17.4978
-20.6565
1.24721
10.6706
15.1553
5.30441
-8.64987
-10.5464
-18.9308
-17.9179
-2.42454
7.04538
-2.85223
-11.1309
-11.1946
-2.43191
-10.3572
-27.161
-12.6621
8.83505
15.6378
-1.74049
-25.9063
-26.6916
-17.2985
-3.14421
25.6253
49.1061
45.1968
16.4348
48.7116
62.8542
13.6896
-5.32627
-7.9998
-12.6986
-18.4242
-17.8656
-19.6058
-18.5812
-17.3058
-8.49459
0.734945
0.649457
-2.39874
-7.23092
-12.0906
-19.0245
-20.2213
-18.9824
-50.2921
-53.4957
-19.3178
-4.59264
-1.148
28.1564
53.1195
39.8177
35.0909
62.2452
35.7891
3.58306
2.18099
0.92854
-4.26402
2.93894
13.7961
16.4485
10.0183
5.96358
0.362929
-1.09573
-2.22383
-2.30864
-16.4446
-28.373
-37.9082
-41.7177
-37.0757
-38.22
-24.037
-1.9394
-5.27539
-18.6918
-23.047
-5.30776
21.2648
6.26822
-12.5485
18.9012
49.1267
47.7442
44.6606
33.7805
24.6604
12.9981
0.252585
10.4068
23.6107
40.2049
29.853
0.244429
-12.6758
-12.0467
-17.956
-15.5647
-36.3303
-25.2886
-4.24716
-11.3686
-33.4854
-64.7619
-35.1722
-9.88552
-2.01085
18.307
22.6583
15.1309
-8.90519
-30.0715
-10.1717
11.4486
15.657
29.9477
29.4244
-2.37172
-21.1202
-19.2016
-5.91651
-16.0196
-45.7717
-49.5571
-8.39101
38.2327
12.7055
-5.37967
26.0271
52.3624
57.7872
33.0114
16.3738
18.3099
20.8936
7.22014
4.70305
7.23317
-3.47499
-24.7964
-29.6504
-23.033
-0.0649932
24.9607
18.5241
10.1226
21.2054
2.69923
-5.05453
20.0945
9.8091
-29.3025
-44.1768
-41.6868
-29.9557
-37.8975
-45.0721
-43.5468
-30.2085
-12.7943
7.24061
28.6028
52.6117
53.6495
28.3243
23.5606
41.5662
25.8958
-5.74147
-33.7625
-57.3597
-54.843
-17.501
-4.85732
-7.73383
-1.05325
18.1648
25.6529
12.4577
5.85373
8.12382
20.2
24.837
18.3199
3.00458
-20.4942
-17.5976
2.83077
5.8716
-6.16322
1.95913
17.2593
27.245
28.7375
4.62865
-16.3078
-24.7378
19.1026
32.7456
7.14719
-4.72309
-16.5232
-29.905
-28.6113
-23.9611
-20.4609
-7.99736
4.81213
0.683984
-16.0892
-13.1457
-4.48029
-16.9705
-22.1757
-12.9934
14.3264
26.6358
7.60974
16.2419
27.1403
19.0767
13.4466
30.0839
47.1706
10.8265
-20.571
-25.3533
-29.0865
-27.5959
-17.6141
-0.0218882
15.8128
3.23461
-3.82395
6.32425
9.2754
3.89992
-23.854
-42.5188
-30.7364
-17.9106
-11.5298
-7.23373
5.32939
31.6083
44.7602
42.3084
36.6453
40.3243
27.5995
8.56612
-33.173
-43.9165
-27.3122
-1.51429
8.3662
8.57321
8.76679
1.5001
-4.59937
-6.26075
-10.548
-15.4291
-17.8339
-15.0303
-11.2547
-8.59469
-3.48792
11.1395
12.3448
-8.5942
-9.39655
-1.53353
9.19483
29.2623
19.7817
-8.10529
7.44696
40.2572
33.1675
31.4771
25.8242
-3.61538
-23.4188
-30.5492
-38.4055
-33.747
-24.8907
-31.5641
-21.7788
3.43519
38.131
39.9194
-1.04163
-34.4091
-32.5825
-21.0338
-26.3885
-16.2791
6.94356
-4.99413
11.9402
22.5158
15.8293
21.6657
28.8076
13.3139
-7.3771
-15.4475
-3.03044
14.1292
12.0509
4.56246
24.9291
36.2316
18.4381
12.4104
6.29002
-15.1122
-26.4908
-9.90351
-23.0319
-23.9378
1.48442
8.52955
-7.79049
-7.56465
4.53546
14.755
4.17726
6.48841
7.3692
3.89364
13.1806
23.701
11.2847
-0.261262
-19.5326
-35.2793
-36.8285
-35.0784
-24.4306
-14.0304
-22.2589
-19.2898
1.77117
23.7997
26.9907
24.613
15.2516
8.26515
7.33461
-14.0282
-25.4709
-25.2635
7.4166
30.253
32.6408
3.88892
-5.43146
8.62573
8.73567
3.56998
3.35453
-0.105763
4.28513
7.05784
10.1439
5.80296
21.2042
20.0072
-1.34512
5.18306
-5.32688
-24.8913
-26.2383
-29.879
-10.927
3.99192
-16.5783
-1.39667
24.3977
16.2525
-26.3491
-44.9084
9.58033
34.9262
48.7762
37.3608
3.79503
-17.9893
-18.2129
-3.96609
1.04972
-10.2369
-17.7396
-16.4181
-25.5079
-24.427
-9.08942
-21.8543
-31.0843
-16.6663
3.81045
18.907
-2.43643
-5.78814
-6.61297
11.5715
42.8767
48.8246
31.4488
10.0233
1.0614
1.77639
11.3212
16.2482
2.95453
1.9938
13.3422
-1.42999
0.777543
10.023
19.1592
19.2697
-4.81237
-26.369
-38.1988
-42.5391
-24.1624
-10.4073
-4.59304
7.0366
8.69631
13.3402
18.7499
20.0818
1.29358
-21.5733
-29.2289
-23.5932
-12.5306
0.747822
14.6754
9.28495
-7.8657
-8.82704
-9.46251
-6.47028
-1.98104
5.72249
23.2269
34.5598
30.1871
8.04129
-9.92459
-19.0074
-10.0325
1.49559
0.922375
-6.86237
-7.4723
-1.56901
8.31518
20.1581
20.9602
-11.9342
-25.9236
-17.259
-3.71043
-6.49609
-11.7488
-10.031
15.9117
21.1442
16.1828
35.6298
44.4916
19.2334
2.0265
-2.28341
-13.2885
-32.0888
-31.8297
-24.388
-22.25
-6.46785
-7.02737
-13.4664
-16.7543
-11.0424
2.87348
18.9362
13.259
6.44685
-1.53171
-7.2951
-8.68249
-2.06902
-3.5502
-5.35979
-15.3421
-7.10455
26.7274
40.198
34.8864
25.2981
15.7088
8.2128
5.75492
6.72477
14.7134
20.9831
5.07614
-7.5634
-13.1593
-25.0984
-34.6468
-27.0725
-8.38862
-7.92413
-8.95708
-10.8534
-17.1931
-14.5129
11.275
37.6796
29.0625
12.1176
-13.4958
-26.8457
-33.4231
-26.6347
-12.7685
-3.08769
0.816248
-4.22498
-2.57258
1.87799
16.9278
29.0178
43.0686
22.9311
-0.103964
-3.21065
-19.7593
-30.9863
2.29193
32.8944
21.165
11.1996
24.1499
15.4059
-4.12593
-10.0266
-11.3349
-15.1603
-13.7979
-0.820682
-7.05935
-15.8607
-11.8177
-10.8092
-6.07907
0.889106
-1.69604
5.87122
15.6017
15.4263
23.2261
14.4203
-4.2077
-6.97168
-3.86696
-6.83893
-11.1868
-14.4688
-6.9339
-4.86376
-7.33889
-2.82672
-11.0527
-7.54885
-9.43188
-20.3876
-20.1621
-18.001
-12.8421
6.40746
34.6593
67.7107
85.023
57.4185
-5.37726
-21.5408
-12.8676
0.409823
-4.55145
-12.3836
-15.8702
-12.0802
-1.99723
-1.44201
-17.0797
-31.7851
-31.6351
-27.0535
-23.6469
-16.9238
-4.1452
-2.7339
-17.0428
8.26994
37.968
26.8486
25.0033
18.6798
6.39049
-0.959594
-11.869
-11.2774
4.39954
13.6167
21.9444
38.7788
58.2524
72.0195
40.4638
-2.56915
-18.798
-19.3964
-32.3668
-50.9661
-42.4313
-16.0961
-14.5883
-27.1746
-22.0358
-7.70222
-11.7578
-22.7961
-31.0449
-26.8266
-15.1131
5.94076
30.275
54.255
55.6816
8.11496
-34.8368
-21.9211
-1.80725
-10.7703
-8.2033
-6.98589
5.60389
22.5233
25.6085
20.7436
35.2217
42.6001
24.8268
13.2194
-5.13924
-17.8752
-43.9251
-70.3383
-53.1359
-7.53215
32.1553
17.0205
-6.0126
-5.01964
7.08075
31.4892
53.3233
25.9199
-2.57162
-15.3087
-14.2135
-5.52683
2.78404
-2.78738
0.70067
0.989505
-12.3286
-16.6471
-8.05353
5.38067
5.62694
-5.42709
-10.2131
-13.7094
-11.1166
-17.59
-17.285
5.63489
21.7417
10.9255
-7.40269
-27.8521
-28.5701
-3.58448
11.7201
9.7824
53.5806
70.7856
23.7392
-23.3278
-16.6687
8.30995
14.4312
10.726
0.58873
-3.44303
5.80362
1.17584
-20.6132
-13.1542
-11.9238
-13.2194
-7.05468
-8.5144
-10.004
-4.00034
-31.7065
-42.2863
-14.3019
13.2669
14.2764
12.1633
18.6584
25.4586
26.1326
15.9523
-18.0752
-28.1365
-16.469
-10.5033
-6.14573
-3.04577
6.43199
45.6516
51.2411
20.6127
-12.7875
-14.8274
18.1063
50.8359
27.0311
-11.9751
-23.5196
-17.5644
-14.1316
-20.6973
-21.1406
-7.55218
-11.5625
-9.00921
10.0476
9.40696
4.57141
-28.1046
-46.0167
-41.1557
-40.6545
-18.2143
0.502038
-3.12631
21.9702
35.1355
24.6294
11.9543
12.4713
6.18303
8.81413
14.7366
25.6503
17.7905
0.244581
4.29246
10.1827
21.73
12.4515
15.8776
22.4759
6.04945
-16.6156
-14.9965
-20.0969
-12.9132
-10.1839
-5.64975
-2.63557
-16.3345
-14.0679
15.9159
14.1571
-1.41795
-12.1624
-11.5912
-22.214
-25.5682
-6.52049
18.9546
24.1007
8.66447
-5.69844
-15.947
-25.939
-26.7406
-4.80706
4.02027
4.38791
11.3461
18.9311
18.9831
5.72287
-5.7982
2.58164
2.45468
-1.70252
-0.0922433
-0.442216
-0.42529
-5.04228
-9.12804
2.99848
9.64261
19.4991
38.8768
32.8449
2.6396
-9.97969
-13.315
-10.1875
-15.1442
-13.6454
-17.6405
-24.0846
1.09058
22.0547
-4.53451
-30.857
-33.8456
-17.5348
11.5975
26.9749
22.2529
13.2779
5.22082
45.5827
80.9636
55.4059
14.0299
-37.102
-43.9584
-5.13443
1.21357
-12.9173
-30.7767
-38.3709
-26.1402
-23.3304
-16.9968
-8.57561
-3.29488
1.23858
0.103411
-1.44605
-2.31886
-27.93
-47.7107
-26.8093
10.3646
34.8087
22.922
-1.89488
10.4086
27.0445
18.4221
-0.853924
-0.648913
22.3536
27.9206
19.6916
18.1536
3.88194
-2.49827
-2.39588
7.73316
14.0216
5.79177
9.55521
20.945
20.1455
7.78757
0.618261
-12.5212
-20.6208
-14.1511
-20.3761
-38.6262
-47.1255
-36.7982
-9.38651
-8.95617
-0.294217
40.2644
63.2744
35.9033
-1.55963
-18.9109
-28.9983
-30.1333
-30.7086
-30.6105
-28.9699
-22.8509
6.51804
19.335
16.9735
48.6463
79.3946
63.686
37.8908
-6.41332
-46.3803
-61.8422
-66.8838
-46.9857
-9.69871
11.6341
38.9028
42.0052
6.47231
22.4989
66.7421
52.1244
-6.13946
-33.4914
-37.5167
-44.2785
-37.42
-20.0054
-2.21353
0.859639
5.3714
8.07733
15.8817
18.2987
-1.12956
-18.3624
-23.1005
-19.838
-8.00885
-12.3447
-24.5745
-9.20386
2.49115
-10.9811
-9.1753
12.6395
27.6053
45.8874
37.1549
24.5943
22.335
21.1792
11.665
-0.485913
2.66722
11.6661
18.9462
4.00764
-4.4736
-5.70338
-20.0014
-13.4332
-0.683198
-0.996571
-6.76927
-3.56922
-15.8367
-31.01
-35.5084
-20.0981
-6.11667
-7.78139
-9.87956
-2.23282
-2.40416
-9.34358
-23.4902
-5.38641
29.8798
39.0583
17.7703
-12.772
-17.2131
19.0231
51.3509
18.2349
-6.72542
-11.5723
0.627018
1.35575
-4.80019
-6.13975
-6.58905
-2.28365
8.19754
22.8715
26.1508
27.1068
18.0296
-0.620947
-7.38728
-13.98
-13.4609
-11.4527
-30.5683
-42.7355
-54.0643
-82.4202
-55.1127
8.88498
89.2062
105.299
69.4487
10.5147
-51.9992
-68.4595
-38.7751
-15.8012
-2.64269
7.31846
47.9822
73.5232
48.4427
12.0599
3.78269
13.8464
25.5174
24.1799
2.55691
-37.0274
-85.023
-85.9701
-43.4172
3.74595
32.2309
42.984
24.6002
10.6349
12.6394
-11.6914
-47.0325
-39.7471
-17.2534
5.14415
30.9566
31.8946
16.7934
14.6929
0.861096
-0.331792
1.24825
4.55473
-1.03889
-6.49336
1.58898
1.01148
-10.2078
-14.6663
-19.1155
-21.4755
-19.6458
3.82204
10.842
-0.922291
-4.81066
25.4312
52.6362
38.1399
8.71939
-4.38777
-4.98341
11.7698
2.97248
-0.310986
5.95298
-3.13779
-19.4492
-29.6248
-30.7776
-11.7422
1.66681
4.7559
12.9807
6.85764
-17.4659
-23.6621
-14.7476
8.69477
10.8956
2.82584
-16.4697
-29.6149
-7.36207
20.829
36.3682
28.3585
24.5426
21.9216
7.0063
3.53175
2.11553
-15.033
-22.7123
-27.5209
-25.0041
-33.064
-26.9592
-19.7077
-0.50898
22.2311
39.2374
32.3058
60.2277
38.0934
-11.4039
-28.5947
-32.7772
-21.2556
-0.656155
27.1341
32.4247
8.24486
-0.663821
-4.58474
-9.01676
-11.8372
-22.3134
-19.9223
-13.8574
-12.1426
-11.6882
-2.19369
-14.1649
1.28184
29.1293
38.7736
41.0901
27.422
-8.5176
-30.8623
-26.1996
-0.396907
-6.23043
-13.1274
7.55238
20.7328
-0.653188
8.51906
25.9368
-15.3326
-40.7323
-29.9744
-45.3518
-44.1098
-12.6968
5.98175
10.9532
9.74334
16.7365
13.1822
15.8484
19.1538
39.7025
44.8367
13.73
-12.7206
-10.6371
-1.03596
15.4084
40.1183
50.4479
41.0973
17.9945
4.0768
-5.45191
-16.4379
-30.14
-29.967
-29.4048
-30.1006
-43.6543
-48.2791
-47.9232
-40.6077
-23.0399
-9.30344
10.954
-0.0121955
-19.5583
-0.0753928
3.45664
-13.566
-2.98287
27.8981
39.2118
40.6403
52.2777
48.3791
35.6416
15.899
10.5427
3.55729
-10.6688
-11.6327
-7.73134
-7.33934
7.03674
14.2121
2.92405
-11.0347
-10.3397
-4.78975
2.82032
-6.69769
-13.1284
-11.313
-13.8525
-12.5117
-1.24272
2.04675
-6.73953
-18.8791
-22.5331
-25.8192
-18.619
-13.6732
1.0502
24.6646
22.3631
17.5064
31.5466
39.0834
22.7228
19.8429
21.8392
3.87626
-21.4298
-27.0535
-29.6503
-32.3024
-22.3314
-8.48309
1.43933
18.7312
16.0276
7.40161
-1.41782
-28.5633
-17.8033
0.535352
-3.33536
-12.7127
-7.06983
-9.63651
-12.4801
0.336144
19.5591
42.5388
42.5887
14.8008
-14.3701
-7.40681
15.886
28.853
15.9189
-4.61972
-13.4094
-2.31914
10.6813
50.1123
51.1277
-0.92619
-26.3496
-34.764
-33.5723
-24.2251
-27.0321
-33.487
-24.5689
0.743876
25.5708
5.04447
-24.015
-23.2558
-9.83224
1.48455
-19.4888
-32.6802
-39.5237
-73.9307
-64.2014
-2.1638
52.6191
72.7417
72.1575
67.9631
81.5509
54.8879
21.4309
15.5527
13.5364
18.9332
14.811
1.13015
5.49915
9.20453
-13.2622
-24.0014
-25.3607
-22.7409
-29.7908
-35.3265
-32.7518
-25.5358
-11.4287
-3.34546
-20.9825
-31.6019
-33.3344
-28.7281
-15.0029
-6.48542
10.4051
21.1949
23.8863
13.5524
32.6919
39.8292
26.8049
14.8501
-2.28369
-5.44552
3.3803
12.2465
9.04022
-4.53943
-17.6171
-12.2657
2.65808
-3.13082
-3.55176
4.54948
8.79284
-0.487828
-24.7129
-32.6663
-19.2071
-3.58272
6.03277
11.8461
35.0973
42.9202
10.2518
-16.3871
-20.8806
-10.1809
5.95908
19.7538
35.0235
53.2577
39.9968
-0.323116
-25.997
-41.8007
-51.3939
-32.2092
-20.9573
-20.4317
-13.8494
-4.3365
-8.10084
-1.59811
18.7193
26.4228
13.6217
-3.14055
-7.56971
12.0667
17.826
-14.7208
-18.3573
-21.123
-52.3081
-43.6514
-9.40159
33.3552
56.8475
36.2548
29.8011
39.4762
23.8655
-2.90347
-9.29227
-6.55409
2.93129
26.0467
18.9844
-4.65881
-23.1668
-28.7798
-27.6996
-11.4179
17.296
20.4869
18.5343
-12.1966
-41.299
-28.8006
-16.9096
-5.20991
16.2907
28.9643
20.8556
3.33007
-7.96844
-10.2727
-1.47329
-8.68172
-21.9387
-10.4504
4.64402
17.0813
12.9629
4.51333
6.73649
27.2862
37.275
12.3319
-9.13785
-17.9355
-33.1426
-49.7791
-38.1683
-13.8725
2.78612
15.7688
22.9409
9.31177
12.8353
16.0379
-2.51736
-4.16572
5.58117
-0.596191
-13.7116
-28.045
-31.421
-5.77888
-0.70005
-8.75409
3.65269
17.5028
19.9271
16.1107
29.5047
24.7305
12.0525
25.8219
45.4843
30.6879
11.5256
-2.97567
-9.43926
-10.9716
-16.4658
-36.4338
-44.9537
-23.7735
-10.1086
-11.2208
-4.06209
4.10048
5.8517
2.35805
-14.2182
-22.8286
-20.493
-15.719
-13.5353
-5.70799
5.48597
5.1733
2.13748
4.87126
-6.65424
-8.86708
-1.33008
18.0184
45.5573
63.4245
46.2955
22.8878
3.91068
5.32927
8.71471
4.08705
0.030272
-9.17138
-11.4178
-8.86585
-16.3277
-18.4818
-11.1514
-11.7935
-11.1117
-1.36963
1.5323
-10.1311
-28.238
-32.1253
-18.6828
-8.24953
-2.82517
35.7014
38.0719
0.423206
-11.7
-17.3815
-15.8082
-12.6135
-4.32344
11.8051
23.9117
22.6165
19.6595
10.7339
12.1813
11.3545
-0.83798
-15.7583
-14.3024
-5.19652
-9.49115
-28.0669
-19.6419
21.0935
34.0914
11.2116
-2.36965
0.906724
6.20645
1.0324
-1.83046
-4.60226
-5.47883
-9.8969
-18.7612
-11.0961
-0.152682
-3.20458
-9.61877
-4.70266
6.69766
0.453477
14.7094
36.7152
22.2111
11.0623
0.300119
-7.09788
-4.40686
6.47638
-1.61558
-7.14803
17.1518
29.4072
13.8155
-11.3326
-27.3388
-34.4353
-34.8994
-25.7482
-5.66367
0.90536
-11.7151
-17.4156
13.8546
17.0868
7.05447
10.8298
20.226
18.7424
12.4059
-1.76413
-17.7975
-10.2514
-11.8816
-16.147
-10.3222
15.014
20.6244
2.80355
-5.83302
-4.48459
0.211277
6.84983
6.97303
13.3099
20.825
21.9393
22.5981
6.36955
-12.0102
-16.7334
-19.3144
-23.4431
-13.4812
-6.09459
-9.81944
-14.9083
-10.6564
-0.349256
3.57004
5.43169
4.1527
-4.85886
-9.40632
4.09861
15.7034
19.4898
1.36852
-6.52372
12.5405
31.922
12.4821
-9.65597
-1.12056
10.144
10.9776
7.95545
9.79679
5.65559
-8.83201
-16.2129
-23.2045
-17.9171
-12.0141
-11.7062
-19.1339
-22.9202
-14.8623
-2.54548
-2.8059
4.14368
12.1946
13.8776
11.1323
-4.24276
-0.87941
5.80135
3.63594
11.2147
17.3807
4.94753
1.28467
-2.84402
-2.10053
-14.4594
-10.1503
-6.34395
-18.5428
-9.43269
10.9518
11.3862
22.1157
16.8301
3.54361
12.6789
15.6574
6.86777
2.15344
-9.37716
3.90203
38.5099
26.0176
6.35888
-8.78137
-13.4227
-25.4231
-38.9591
-18.1069
-1.67237
-4.72764
3.1253
-0.24754
-3.5458
18.7253
-6.39447
-22.2664
-14.4833
2.95788
14.2748
2.72737
-8.64661
-12.5864
-7.14065
-0.620528
9.4818
13.1004
21.8607
10.4558
-14.5638
-21.6566
-27.6135
-28.933
-20.2857
-26.5522
-3.71615
15.9346
10.9485
2.91767
4.02487
4.65521
1.69662
14.5433
21.5388
24.8903
24.626
20.9818
21.6878
25.0652
33.8616
36.4136
17.1501
-9.92265
-31.5048
-23.4049
-2.46572
-0.463244
-10.4369
-16.301
-16.5299
-13.7196
-20.4126
-12.4682
-4.1761
-1.05347
5.77072
8.85428
8.34677
-5.21566
-7.81976
-12.7096
-14.639
-6.20026
-0.318135
-12.8215
-18.7013
-19.6219
-11.2746
-11.0191
-3.77984
3.66375
8.35943
13.3725
21.4934
23.6993
15.9613
8.52084
2.51858
-0.516125
-0.545724
3.89586
8.56713
15.4831
26.5934
11.0041
17.6837
4.31514
-19.9937
-17.2777
-24.3732
-23.4952
13.8282
38.6548
25.5085
14.5997
18.7564
-5.07315
-19.1215
-14.2528
-20.7048
-21.923
-20.2527
-31.3096
-44.1733
-34.1956
-28.0885
-5.88331
11.884
25.5521
51.8044
57.4651
15.1552
-18.1741
-12.2544
-5.77195
-5.79634
6.23
1.00021
-17.825
-26.3858
-29.7653
-11.2328
15.9715
38.1805
65.9981
74.0458
66.9746
46.4057
-5.99087
-51.8413
-53.3914
-33.9782
-17.9479
-23.0391
-15.6028
-0.195657
8.91363
17.2363
9.64879
8.15347
7.43254
-9.15762
-22.9942
-38.0512
-63.2807
-75.1978
-56.4258
-26.8316
14.9619
35.3106
33.4048
39.4927
20.9142
4.14083
11.7053
21.0927
26.0886
36.651
40.9983
34.8865
26.7874
8.64089
-5.37837
0.539709
-22.3281
-44.0144
-24.0528
-10.9157
-12.8709
2.27724
-1.54584
-16.1105
-0.0467684
32.1282
44.9745
34.767
6.26198
-4.9876
-12.2246
-19.5623
-17.4258
-18.0019
-18.6085
-19.89
-14.0511
0.343354
15.4318
4.59593
-4.09174
-0.98501
-7.36192
-17.146
-20.2757
-16.1503
-13.8272
-15.9651
-10.9662
-13.6236
-11.2355
-0.571941
18.2777
29.074
31.2097
35.4036
30.6558
24.1017
8.40337
3.85241
13.4874
6.52219
-1.34696
-0.369033
-4.20713
-12.6435
-17.0085
-19.0893
-10.4028
0.895851
5.04271
4.1166
-0.987017
-10.9973
-12.1315
8.31549
31.9676
-8.48189
-53.8923
-47.0551
-43.8024
-22.3228
8.56113
26.6308
30.8106
11.4289
30.5977
65.8464
77.2132
64.7704
56.2446
20.9158
-6.66636
-21.7316
-36.4612
-51.5082
-67.9559
-49.5513
-28.3453
-17.0254
-1.45632
-3.62384
-13.3522
-17.5889
-9.58111
3.72463
-19.4528
-32.6069
-32.2157
-30.6468
-28.8531
-5.44532
10.6525
28.2646
35.8833
27.2224
15.5065
24.5041
35.1823
37.1075
40.9873
46.425
46.4565
19.6245
9.0322
26.0931
17.7446
-14.5837
-42.8614
-34.5724
-12.058
-13.2968
-13.9037
-3.3863
4.05183
-3.3584
-1.44309
1.61884
1.09909
3.87064
-5.30826
-21.0623
-34.3632
-33.5206
-27.9563
-26.7156
-17.5858
-2.78927
3.48355
-5.27187
-15.2196
-9.64023
7.70198
10.569
-1.29128
-0.903457
29.7246
22.0613
-5.83361
-0.446767
20.2822
20.4149
18.9377
30.2231
44.1514
52.8633
26.8787
-9.42202
-39.6805
-49.0529
-27.2541
-3.84577
3.65687
-0.768089
-11.2304
-13.5451
-24.8701
-15.1538
12.173
18.3996
15.7568
8.88249
-4.52946
-12.4354
-16.8896
-12.9063
3.08914
8.10749
20.1363
29.3824
9.83134
-3.26771
-9.60233
8.60899
34.5653
13.1204
-11.7471
-11.1596
-14.8358
-22.6687
-29.3516
-27.2747
-18.4563
-7.98909
-14.1299
-25.8856
-7.72971
14.6244
20.3468
21.868
24.4421
9.43637
-1.68468
-6.21356
-4.35954
19.6379
11.0198
-5.78222
0.0220246
8.2804
2.08849
-10.889
-7.05921
33.8973
58.3429
28.9467
-14.309
-11.7609
12.1827
7.0777
-3.29076
-3.48945
-13.2632
-8.34778
-2.11826
-26.4557
-29.4461
-21.9087
-15.0249
-11.345
-1.77711
7.86006
-7.60391
-36.2733
-45.4779
-26.029
-2.32448
5.67904
19.0856
28.6402
21.8097
18.2613
18.6573
6.8556
-0.914088
12.4841
21.9125
19.7778
9.92463
0.369655
-2.67988
1.25477
10.3829
5.15298
6.13674
12.7491
10.3104
-2.2049
-1.89506
-6.15483
-6.65537
-11.9555
-5.37003
7.08306
-1.10833
-22.5526
-22.7473
-16.7786
-10.2221
-1.97617
-2.08475
5.33017
11.5321
2.56844
10.1646
-2.79384
-13.9098
-5.848
-3.43287
-1.63272
8.63956
12.4103
-8.88566
-34.0165
-32.8832
-8.32259
2.64762
4.722
4.02263
9.70155
25.7637
34.4908
14.6755
10.4614
1.31244
11.4742
25.58
33.0212
23.8159
-0.222733
-21.2543
-23.3393
-20.7057
-26.3976
-30.5577
-30.7493
-27.2133
-18.7251
-13.8128
-0.00330438
0.961233
-5.81402
0.755239
11.7755
23.3989
40.2643
37.2285
24.9312
19.2839
11.7203
5.68557
-8.82059
-9.24137
0.599238
10.8958
17.4502
11.1149
6.24327
-7.25253
-21.5599
-47.6199
-58.2816
-25.7254
-11.9333
-26.0645
-3.77348
43.0648
42.5809
11.934
5.49534
10.6415
8.39362
6.99832
12.7124
7.98109
-2.68292
-9.2863
-20.0646
-7.50176
-7.07938
-9.00624
-1.69897
-3.38372
-6.83913
-10.377
-24.2555
-28.4105
7.89618
14.9601
10.1885
18.193
25.9134
22.9656
5.57305
-0.80101
-5.15099
-8.66072
-9.69131
1.67902
3.43432
-5.42991
-10.9627
-17.909
-12.1371
7.56975
-6.34608
-25.3577
-28.3523
-5.51671
5.43667
14.3409
34.3218
34.8875
31.2186
26.3559
28.9472
36.0749
38.0838
7.61639
-12.4945
4.94959
10.2465
2.85265
-17.5489
-25.6964
-25.0588
-27.4713
-29.9772
-16.6949
-7.52482
-8.17677
-22.6315
-37.8454
-31.8888
-21.7248
-13.2657
-13.6573
-15.6546
-13.4878
-15.8238
-6.0833
12.0622
29.7765
46.7619
55.3635
57.4457
44.006
2.77476
-17.6599
-10.5853
16.8736
18.4698
14.8088
-5.33296
-19.6608
-23.3718
-17.9814
-13.2689
-5.93893
12.5082
19.9451
42.2499
56.3356
8.86236
-43.2745
-73.7085
-67.6179
-15.0204
15.5654
9.87063
-9.88063
-15.5982
-9.00251
8.74818
25.4222
23.8253
21.4138
11.1
-0.650745
0.439988
-12.0335
-28.5706
-31.8331
-13.5266
3.43852
22.5281
25.3538
27.5977
25.8306
17.2063
5.21825
7.99728
13.7984
12.1068
0.483678
-8.91917
-14.6038
-7.59911
-13.7973
-22.6124
-15.3261
-26.2412
-41.0311
-30.1875
-10.8484
11.4209
17.8634
15.7064
21.7398
31.8716
11.1982
-9.99581
-19.5042
-15.5698
-10.9539
-6.06415
-1.22284
-3.20447
-1.37909
2.91573
6.15042
8.4625
8.34805
9.03638
10.9836
19.2866
31.96
6.48946
-16.7136
-22.1238
-6.19483
16.4508
19.9612
8.70264
6.18551
33.2283
11.8235
-28.3857
-30.2382
-27.4453
-27.2465
-9.80361
20.5421
36.9824
27.3004
12.8252
4.08468
1.25872
-4.04913
-10.7005
-30.0328
-35.9799
-22.5806
-14.1141
-19.1416
-37.5542
-23.3825
1.21888
8.40868
15.787
17.8586
7.19846
1.78524
10.0318
8.04257
0.156383
-1.32511
6.49719
9.39415
4.70705
3.42209
19.987
17.8659
-3.22135
-7.81829
-2.70434
9.39816
28.5781
31.4294
15.6063
21.6435
33.457
3.14058
-28.9283
-29.7817
-26.7609
-26.083
-21.9363
-12.3244
5.29725
18.916
-2.1733
-14.8411
-7.93901
0.18162
-0.388843
-8.34537
-17.3853
-19.0821
-14.7949
-15.623
-17.1884
8.78785
22.8719
9.23914
10.6248
11.261
2.32041
3.08298
-0.350824
-3.06807
8.78639
24.6436
34.6253
29.1657
11.879
7.2636
-2.60134
-22.7063
-23.7309
-20.8023
-22.6205
-14.249
-20.7175
-15.2513
-7.74392
4.01087
19.4859
28.1697
38.9141
34.526
2.90461
-34.2848
-28.5014
-13.0219
0.694224
3.39128
-7.14936
-2.10181
4.87176
-0.398458
16.7189
31.1998
16.63
12.8603
7.40323
-17.7001
-25.6242
-30.4032
-38.2591
-33.47
-10.4702
11.0838
26.1837
40.7475
34.1326
24.165
8.30032
2.47244
-2.89003
-7.61839
-29.5494
-39.2917
-12.2446
5.86009
2.95428
9.07927
6.88884
6.59201
-3.08728
-13.4774
17.2283
34.8479
-0.0919882
-21.3139
-18.0291
-0.133331
12.4764
1.07386
-6.02537
-8.95281
-19.4553
-44.7741
-46.9469
-30.6847
-4.48262
16.1972
31.035
49.8471
62.4194
42.6309
21.7887
18.5006
8.14806
-13.7102
-10.7728
-17.5852
-20.5597
-24.7309
-19.4559
-7.25605
5.57867
17.1641
27.0394
25.9364
15.7192
2.35705
-11.5062
-23.1482
-21.0031
-11.3087
-17.5329
-25.6675
-18.0265
-10.8137
-14.0209
-14.0181
1.33716
17.8174
17.5825
14.2902
14.7972
7.0952
7.43098
8.15073
-5.6661
-15.1731
-12.0942
-0.712936
16.3182
27.7548
10.0436
-0.736055
16.6279
26.9934
30.1585
20.6899
-5.79716
-13.3975
-15.2469
-18.8019
-31.3267
-22.7013
-10.1762
-15.3652
-8.23517
4.26261
-1.70675
-8.96469
-24.6958
-34.2368
-12.6209
-7.38032
-9.98331
-5.24666
6.64749
32.37
43.4409
30.6971
18.1937
15.4875
14.4573
30.8013
32.1028
9.94737
-21.6571
-33.7588
-27.7947
-19.7721
-0.131649
13.7504
8.10832
7.69661
0.917609
-12.1483
-13.8037
-23.1614
-20.5455
-14.8412
-8.93051
1.74232
12.48
0.479346
-8.73266
-3.15755
9.52315
26.9024
31.4239
19.5077
11.1115
3.85246
1.83672
0.949867
7.36097
25.4708
14.8775
-6.98704
-21.9157
-26.2601
-19.8483
-17.1596
-18.631
-8.7633
5.64906
0.912069
-4.03828
-6.33214
19.4546
21.3399
3.74611
-6.97771
-2.61602
-1.53867
-14.1404
-21.0685
-36.658
-46.0915
-25.9222
-0.914004
11.1321
18.6749
23.4843
9.72884
10.5827
22.7095
25.1126
21.534
14.8603
12.1482
15.4078
32.9033
12.7727
-7.61108
-4.00767
-5.07883
-1.85622
3.9874
2.96224
-2.64816
-22.4101
-22.4598
-8.42188
-21.7583
-26.1994
-24.2251
-4.02407
14.0253
14.7137
16.7484
10.4416
-24.7671
-32.7116
-22.5305
-24.3706
-10.9961
20.7877
56.9877
62.3962
12.1931
-10.7566
17.7855
28.0326
11.3109
-6.12567
-4.98491
-12.7782
-23.5216
-28.0502
-21.4227
-11.7054
0.36173
14.0419
19.6507
7.93567
-1.59545
-14.7861
-34.3642
-35.4541
-11.6175
0.502495
-15.49
-17.9959
-2.99459
13.0121
29.4505
30.2636
23.6832
9.98627
6.22985
14.1857
14.634
5.03651
-1.71501
11.8075
19.9
17.9587
15.7984
6.91683
-5.9961
-13.4474
-40.4043
-62.0296
-26.838
-10.501
-17.4359
-4.97592
19.6847
26.2984
14.5782
12.5083
16.8977
8.0316
7.96255
-0.199173
-16.5107
-16.692
-13.3367
-13.4389
-0.211207
8.82852
9.55311
13.6035
3.18408
6.61289
5.92774
0.857618
-14.9866
-15.666
2.08099
-1.68289
-4.81997
-4.84413
0.520785
14.0363
7.53485
-15.1989
-24.3148
-10.5131
11.2547
15.6655
12.2166
24.884
40.7452
10.8652
-3.62671
-13.4895
-17.1205
-16.2589
-17.241
-0.488422
11.5033
3.96124
0.987857
-1.22268
1.29248
1.87454
6.81438
6.10829
-1.64684
-11.1634
-7.30572
-20.0389
-35.5043
-23.7608
-4.21752
16.9023
21.3104
10.9049
12.445
19.3019
11.9726
-3.62237
-13.9162
-6.86248
3.18827
9.67516
-3.02159
-11.3405
-6.33082
0.763565
-0.178245
5.02343
1.71165
4.35791
0.163456
-11.5796
-13.6281
-4.88705
-0.0655238
-10.3739
-2.24393
16.0616
21.1073
7.87615
-3.67946
4.60382
1.05892
2.91753
22.105
17.1533
3.63358
-3.36079
-12.092
-13.1879
-7.40697
7.52998
14.4848
17.9947
19.6277
16.4405
3.53011
-5.33301
-5.24898
-5.76378
-12.372
-29.1007
-26.8335
-29.8261
-41.6083
-27.1352
-8.90347
2.63201
9.00743
22.1269
28.1566
2.77396
-19.0586
2.20835
5.13653
-9.23348
-3.08815
5.78161
13.4464
15.6677
21.3669
24.7802
9.11997
2.07347
-1.269
2.14167
11.4282
8.41757
-3.50102
-26.3045
-29.4167
-17.3564
-5.60417
-15.9554
-23.8873
-21.3101
1.3823
24.6492
29.5385
16.7877
3.60349
5.64836
16.0411
16.5232
15.9544
10.5022
-10.197
-0.50227
13.2906
14.1143
3.655
-0.665974
0.967133
-1.75345
3.3741
7.61009
-0.557612
-8.35826
-19.4877
-23.8575
-8.60738
4.08655
-8.63643
-11.3167
-8.70184
-24.7016
-23.319
-27.3842
-25.5879
-14.0344
13.2482
28.8251
34.6224
11.2664
6.63891
37.5826
24.6606
1.91079
-5.57471
-3.21686
-4.24324
-16.4173
-9.824
-1.69024
-11.803
-13.7377
-21.4044
-6.90793
10.0855
8.844
0.394772
-11.475
-8.42279
16.7136
15.6873
-0.341979
10.588
6.88209
5.05107
9.45036
3.77634
6.41586
7.02466
0.468342
5.0491
2.82878
5.97533
0.188325
-4.67268
3.64779
1.3958
5.268
1.4772
-4.7683
-2.45124
-7.64571
-9.31532
-2.76749
-4.21758
-11.6981
-19.3697
-14.2858
-0.909556
-8.95209
-19.226
-7.30045
2.42324
3.5565
1.35908
-6.14882
-2.74873
6.13533
5.86489
9.30757
19.8652
18.8572
23.1377
48.4355
58.7771
42.4709
26.1644
4.85845
-13.6902
-21.8963
-26.7178
-31.3189
-32.8716
-32.9202
-26.8574
-24.2752
-28.8937
-29.6214
-20.9283
-6.31399
-7.35855
-7.22645
-2.12246
-3.74278
-13.7153
-13.7358
-10.191
-1.86546
9.23724
17.4378
19.0687
16.9807
25.5547
37.285
43.5963
58.6294
53.5547
28.4152
5.09134
-9.95014
-9.54785
-16.8433
-27.9201
-27.5903
-36.6447
-27.438
-11.3423
5.1461
13.4656
27.9445
21.6973
18.9759
21.837
-10.3546
-26.2802
-32.6535
-30.4028
-27.2211
-23.4007
-12.6639
-10.1127
2.44962
14.3708
10.3411
13.0311
16.6784
-1.41752
-4.25392
3.29798
-3.93986
-4.19468
-4.62562
-9.16392
5.16996
12.3771
0.436818
7.53479
13.7592
17.2762
7.2081
1.73031
6.97919
8.3604
5.36316
-3.68617
-0.678404
15.858
15.7119
15.724
-3.10532
-12.0967
-15.5544
-15.8447
-23.7082
-26.9701
-12.8816
-1.08792
11.7064
5.49469
3.29884
4.70124
-6.32091
-3.65226
-1.80297
1.02955
1.88053
-8.44778
-16.5135
-23.229
-26.7711
-14.6593
-2.51158
0.814117
13.6197
26.9799
34.7979
20.2317
1.33859
7.69535
27.139
3.24784
3.39507
3.99035
-7.44255
-4.08164
-0.0432204
-3.1678
-3.50646
-8.47977
-3.10694
8.01437
14.8374
-1.35365
-9.81373
-6.81518
-25.7091
-30.8407
-20.5049
-6.04159
-1.08168
20.9529
34.0551
30.333
15.4055
5.25617
3.76868
0.746548
-12.9252
-4.17429
17.3309
10.71
-3.72429
8.55876
9.9958
-0.901106
-3.03926
-4.13194
-5.29112
-13.7688
-20.7976
-6.69641
-5.50661
-3.989
3.37519
-11.9924
-21.0333
-22.6721
-20.7155
-22.8227
-19.114
-10.741
-5.35046
-5.43066
15.4577
33.4292
28.5307
19.9626
15.0846
18.5897
15.0797
4.5599
-5.09726
-5.36398
4.76387
19.4983
7.64019
-3.2917
4.23293
8.82522
5.36615
2.40586
-0.90267
-10.787
-26.811
-43.2554
-15.3356
16.822
11.2883
5.41353
10.2548
21.0228
17.7358
7.58307
4.83619
0.591109
3.73365
5.80956
1.23753
-5.89776
-23.2621
-33.1277
-28.1528
-26.4457
-31.6886
-16.4555
-7.1431
-0.614511
1.26797
8.97004
14.3379
7.96421
9.67417
12.5507
11.8858
23.5353
39.2139
34.236
13.899
-2.45721
-1.26801
-4.81962
-6.40276
-1.66183
7.78254
13.1282
-11.6721
-29.6191
-13.9145
-0.37938
8.38604
-1.35843
-14.6583
-22.0351
-18.3004
-6.43683
12.5954
12.2512
-2.69668
-6.80853
5.59009
15.0951
5.62675
-5.31514
-9.16189
-13.6796
-8.44881
-5.13923
4.89906
2.43762
-12.27
-12.0424
-5.02267
6.96448
13.316
0.748507
-13.7991
-4.11517
17.8924
29.4585
13.5378
11.2361
34.3728
22.0882
-1.78497
-6.58712
-9.79871
-14.1524
-10.7462
-15.3824
-10.2822
-0.582727
5.03203
2.62586
-3.36644
-8.0836
-13.2241
-20.6584
-9.38457
-1.77909
7.83607
9.97872
11.0288
17.7354
8.87483
-0.885234
15.4866
13.805
4.15767
-12.6877
-18.4885
-8.27517
5.4787
3.52623
6.70403
-0.0301617
-11.3196
-7.71094
-4.96767
6.03492
12.8048
-8.26706
-36.6848
-35.2453
-19.4203
-6.24651
0.349708
6.28272
21.1943
21.43
35.4062
44.3168
23.629
4.73383
-6.94493
-0.00323023
5.79956
7.93849
-7.29564
-23.3225
-26.4678
-10.0406
-2.77642
-11.037
-6.17673
-1.00077
-2.46114
-11.4857
-20.7885
-21.3349
-23.1512
-18.1135
0.355152
42.9775
52.169
28.3382
0.138396
-7.96196
-15.1541
-18.7025
-1.47663
26.8883
48.4223
42.4234
12.3853
3.1854
-7.96377
-14.8033
-15.0124
-16.4337
-20.1111
-19.2121
-18.4501
-16.0529
6.18016
14.8649
9.7774
4.73388
13.86
2.33341
-29.5926
-34.4909
-44.4589
-37.1894
-9.56947
-1.8252
13.5083
30.4432
28.4239
28.4257
31.211
26.4622
21.6815
4.75406
-12.7163
-10.5886
5.33564
17.9476
6.98328
5.4095
8.47167
-5.27102
-14.6437
-13.9068
-10.4886
-14.4209
-18.0037
-20.9895
-14.2399
-0.494235
1.554
7.11424
12.9854
-2.61791
-7.01534
7.00284
9.49738
8.17183
10.0345
12.1834
16.7228
5.27302
15.6563
12.8223
-19.179
-37.4437
-39.4134
-32.5412
-17.4886
-7.56117
-9.72878
-0.0951893
29.8939
34.6142
28.4891
21.0248
1.54629
8.73804
4.58188
-7.73748
-8.34564
-12.4896
-23.5261
-20.304
-1.90237
7.52156
12.7782
18.102
13.2
10.6675
13.0388
10.2385
3.24687
-11.0446
-34.9373
-25.0847
14.1527
2.62164
-19.146
-20.8867
-14.7067
-11.6547
-4.21547
13.0959
22.7616
16.7822
12.0794
8.44322
16.2958
12.3987
0.819084
-6.99761
-22.3723
-6.53519
20.9705
22.5021
6.44934
2.48297
5.1356
17.6636
2.33205
-0.44694
-3.71426
-14.4615
-22.088
-17.2156
-6.66424
-2.75722
6.27743
7.47689
-4.03947
-22.4588
-23.7317
-22.288
-12.4002
-8.81158
-17.6921
-12.8995
0.857066
14.8704
29.738
39.142
43.2065
22.7137
-0.783156
-10.9296
-25.3436
-17.8214
-21.3183
-17.8654
-9.01317
4.61555
21.3772
35.7544
38.3796
52.2758
52.7441
22.5267
-6.89562
-25.8088
-27.4389
-35.2743
-51.4194
-44.7676
-23.8288
-16.5393
-7.22017
-9.29139
-6.45995
0.36898
18.4451
18.2748
-5.56697
-4.40636
1.1586
-11.8815
-28.1742
-9.40492
22.6847
32.9279
19.6046
6.00924
-2.02131
-4.97047
8.78155
24.5796
31.5825
27.1377
22.4637
12.0094
8.02175
8.47459
6.0133
0.0199962
-5.56806
-13.0065
-17.0876
-25.1246
-32.6812
-35.1241
-14.1517
14.663
24.7168
30.4049
20.31
-12.0974
-12.3693
-7.49133
-12.5258
-13.9759
-21.0152
-27.9027
-20.1475
-15.1915
-5.72881
-1.93806
-1.28505
8.72132
13.6891
16.5513
9.5724
-2.74512
2.61665
2.28026
-10.7916
3.69621
25.0062
22.3993
12.027
4.39302
-0.155353
2.5313
10.6515
34.0106
18.3991
-4.40558
-6.0854
-0.940121
-12.8349
-23.8351
-21.9587
-22.0805
-28.2485
-25.5716
-13.6792
-13.3918
-7.63362
6.41658
18.5739
36.7594
43.6682
23.5222
-9.46998
-27.6334
-8.43527
10.0132
-3.47141
-3.04964
15.6126
18.1827
10.5399
1.38045
-4.15589
0.430146
-7.32526
-3.99375
-3.26644
-4.30459
-11.3222
-12.8113
-8.78659
10.1555
14.0863
-9.47282
-11.406
-2.79957
10.6773
11.7742
6.0984
3.56554
9.77732
19.6911
11.6735
10.8674
12.3347
-0.431724
-24.3602
-36.9117
-31.0294
-19.5344
-26.8977
-27.3371
-3.29299
21.7276
23.6475
16.4382
12.4764
12.4748
15.0161
25.4923
15.8845
-0.111069
4.28768
-2.56641
-21.3872
-21.5395
-18.8885
-10.3123
-3.14585
-3.86731
-11.3824
-13.0405
-7.2982
1.46582
6.81248
9.52343
5.3654
-5.564
-5.54444
-9.58144
2.82157
15.6071
17.9526
13.0804
30.5496
36.2397
13.8308
1.73639
-2.77823
0.466723
-0.353441
0.207897
4.86594
-7.71917
-24.4438
-24.7537
-10.6811
-3.36478
-11.6057
-21.4337
-18.4621
-7.81009
-6.50649
4.89172
0.246116
-6.59511
1.12836
4.21368
5.64997
9.96606
8.53163
3.31784
-4.89861
2.60836
16.0294
25.0792
29.6296
24.9314
20.6702
15.1251
-4.97411
-26.162
-36.7769
-41.0466
-24.9967
-11.7328
-14.1064
2.7789
13.4707
10.3043
17.6355
31.3586
47.3894
30.8856
11.4197
-10.5724
-20.5925
-25.1641
-19.1363
-15.2933
-9.78903
-6.73347
-2.19943
-15.7298
-28.0626
-23.8889
-9.58761
-4.84053
-9.11844
-8.39835
1.44269
-1.16818
-11.0087
-2.0262
7.58883
14.5845
14.4535
16.8818
15.0717
7.22194
12.9734
33.0587
26.8954
22.2047
18.6018
18.2241
27.1728
17.0059
2.70922
15.8414
-2.77924
-24.294
-24.2322
-26.8294
-30.0645
-31.6925
-22.1306
-8.82817
2.10295
11.5537
25.025
15.6128
-9.41013
-14.6345
-2.99359
-0.449116
-20.4596
-35.2936
-36.4722
-39.5838
-23.8266
-4.40105
11.458
25.5604
40.7301
57.8203
42.8393
16.9037
4.75084
7.37454
-10.6144
-33.7823
-13.7927
-8.66709
-22.6646
-26.2737
-18.4149
-1.59627
9.57426
17.0627
28.055
19.2682
16.499
20.2292
1.76719
-11.5556
0.685817
13.6469
8.18464
-18.2584
-17.6926
2.58193
6.91698
4.37889
3.0889
-1.40961
2.02669
3.96329
9.61928
4.23094
-4.96959
-4.69211
-11.1703
-20.0367
-13.4641
-6.72044
-17.3713
-24.9024
-13.333
1.38439
-4.73867
6.74256
25.1218
16.5656
12.5424
0.283535
-6.06035
5.05506
4.21313
-3.74104
-6.0893
0.404594
13.2012
26.0204
19.061
14.711
14.6763
14.0958
4.86699
-8.81087
-12.3256
-10.4343
-1.76264
4.31323
-6.49349
-13.158
-11.6798
-14.6056
-28.343
-27.7867
-19.9663
-25.5732
-29.7228
-21.7302
7.96119
20.8537
27.3625
27.4178
20.5526
18.3611
15.2158
3.36712
-19.25
-18.867
-11.1756
-3.05974
11.417
19.3632
28.0413
25.8354
37.5262
51.6825
25.3087
-7.07068
-11.2294
-13.4669
-19.9668
-21.4584
-20.2254
-17.144
-14.5616
-22.1798
-18.8087
-13.0864
-3.60588
-1.97975
-8.10527
-4.23242
-0.422229
-1.76457
-13.7539
-31.1061
-19.616
15.4642
31.3219
25.833
21.8162
9.90923
6.4994
8.92244
19.9038
25.9271
10.9033
-0.15978
-4.6522
-11.0089
-12.4321
-18.5628
-17.51
-8.34028
-4.07026
4.86627
7.33326
8.54434
0.612719
-8.01308
-6.69683
-4.49951
-5.07521
-4.1445
-7.93352
4.22578
16.4218
28.5608
50.2609
38.9744
-14.3239
-26.0561
-16.5584
-21.9987
-31.1781
-35.496
-26.2167
-14.764
-8.14371
-0.149986
5.04132
10.4983
21.462
31.9974
39.7104
19.4406
4.50587
2.98805
-9.13465
-20.1528
-11.6372
-5.25971
0.960211
6.66967
14.0645
6.48205
1.57965
-3.7088
-6.4612
-3.23714
7.03302
12.2883
0.69046
-13.2645
-27.8182
-28.5762
-23.1286
-20.2135
-18.9679
-12.1793
8.63616
20.3258
17.747
21.2408
7.2063
7.66173
14.4337
15.0899
13.9678
13.2517
16.8136
13.8649
13.153
8.93159
-4.00727
-3.18047
-8.77242
-9.28606
-8.80592
-13.3773
-16.0529
-15.5618
-11.2544
-17.6539
-13.4962
-6.53571
-2.97823
5.47519
2.75513
2.55774
2.41775
-0.12502
-4.0866
-3.79173
7.53069
38.4875
30.4667
-11.411
-27.396
-22.464
-11.89
-5.46052
-2.94515
8.28017
25.3648
22.2273
4.01821
-7.59999
-5.87443
-0.224136
-2.10861
-3.15811
-1.1077
2.8898
-4.32842
-21.7754
-11.2764
8.29893
16.3105
41.2926
45.4552
12.2496
-5.51706
-15.1454
-17.0347
-5.3927
-3.423
-13.7313
-12.7046
-4.92831
6.05676
3.72881
-9.80813
-6.21888
-7.73545
-22.2874
-6.87266
7.99669
5.18704
-10.0592
-27.6219
-17.6154
-6.84143
-9.18875
-6.93177
18.7672
46.1073
32.489
3.65262
-4.12425
0.209784
4.99708
11.3826
13.442
14.0089
1.99662
-8.68442
-1.42789
11.5918
16.0815
1.39168
-11.3074
-15.2879
4.83565
10.2856
-6.73292
-18.8367
-18.6112
-2.71252
16.9091
21.2899
14.2303
8.82469
-11.5727
-14.495
-13.6797
-11.9807
-12.1761
-27.4078
-30.2451
-14.5983
-8.70647
-3.86086
-8.10115
-3.31481
-0.0820574
1.15741
3.49336
2.36741
14.5565
26.6165
29.4961
47.0861
43.5995
12.8731
2.54008
1.47605
-8.91556
-21.569
-21.7346
-11.7983
-3.85387
-0.990085
-11.4888
-17.0775
-5.85083
-8.57006
0.893399
17.8687
-2.98631
-15.8485
-11.0101
-21.5131
-8.71824
7.45951
6.07482
2.05237
12.8694
28.7251
26.3144
16.5823
8.16182
6.77622
8.44949
12.7678
-1.96955
-15.4272
-14.852
-4.8835
9.08367
-4.65281
-17.184
-23.1046
-11.0177
0.135603
5.87777
-0.555084
-10.6004
-10.8994
-9.48818
-2.85472
-8.62428
-14.0266
-15.4267
-8.18997
5.2738
23.6723
29.3554
26.0075
21.5622
18.1278
17.0582
19.1003
30.2342
13.7744
-11.2134
-28.0302
-30.8283
-24.7269
-22.7084
-17.6547
-17.2874
-23.9914
-14.3583
-5.73106
0.13804
13.6363
14.971
7.22493
7.77204
40.6948
61.7492
35.5073
3.5879
-10.5926
-14.49
-10.421
-12.701
-23.0872
-27.4519
-27.3297
-11.7732
15.6166
22.9082
10.4516
-10.3803
-25.6023
-37.5482
-33.9917
-14.3133
-11.9061
-12.824
-2.65789
-10.9439
-3.87529
10.6521
31.6851
50.649
41.3916
26.6959
19.7252
19.0006
19.8688
15.0303
17.9655
24.8773
14.1463
-0.498768
-15.2691
-23.4328
-28.1965
-27.7787
-22.9427
-15.3186
-2.1402
6.55476
1.03391
-20.1538
-23.3456
-17.4276
-13.0089
-4.84335
11.8948
22.6001
16.2054
1.97545
-3.52204
2.07204
28.551
37.635
8.1183
-14.3186
-15.0368
-16.6645
-12.1549
-11.9224
-9.56676
-5.87057
-4.72848
2.03072
6.3805
3.90958
-7.05064
-10.6613
0.740844
7.55056
4.29529
7.57791
-9.52693
-48.0005
-43.9776
-22.9248
5.13156
36.9301
50.2094
46.6977
32.693
17.2245
-4.9169
-7.22575
-4.30379
-2.14581
-8.78952
-12.6499
-12.6816
-3.52953
6.29406
10.9987
2.11657
10.0275
18.7321
19.0803
2.23374
-15.253
-26.2529
-27.149
-21.864
-14.2463
10.0769
35.7515
44.9032
29.8486
14.0371
6.71252
-10.9383
-22.0813
-21.5369
-21.2797
-19.4613
-19.0326
-13.7017
-1.25722
-3.62151
-14.8411
-15.6042
-11.6543
-1.42555
5.85619
0.914576
-5.28889
-14.2979
-8.92994
-0.726239
8.91543
27.0525
58.4994
29.4523
1.7269
8.44441
18.8144
33.2264
31.9646
2.07466
-32.0084
-40.4125
-26.0116
-11.8506
2.95891
-1.54878
-24.3432
-29.1116
-18.8823
-4.85237
1.91316
-7.17297
2.42271
32.025
26.3255
10.3442
1.51043
-10.1738
-17.2137
-9.95411
4.83255
26.1194
24.885
16.6906
7.4956
3.84496
-1.65521
-3.15941
-4.3614
-11.8075
-13.8906
-24.4144
-33.1659
-29.29
-7.19152
6.96965
9.22586
14.8059
17.2655
19.8274
19.7027
11.1152
3.87328
-0.421249
-0.0404968
10.7595
18.7281
-0.351898
-9.32845
-8.51576
-14.2503
-14.9072
-20.1912
-17.4474
-5.30084
2.60361
14.5237
33.1505
21.334
11.0272
3.07972
-6.92902
-10.3061
-16.341
-10.594
-9.5346
-10.7756
-14.1961
-16.2769
-9.02208
-8.15064
-0.875146
13.5104
18.5852
8.04018
24.4387
33.0615
1.41307
-3.65741
16.6393
18.9158
4.77951
-7.2303
-13.7855
-24.3815
-23.7711
-18.0103
-13.94
-11.1335
-9.2404
-3.89784
8.35622
18.679
10.6087
2.15622
-9.28516
-12.9257
-10.2012
-9.82993
-10.1176
-2.54131
9.85599
11.5854
9.3143
13.4596
16.6366
27.8256
24.6485
9.45037
-7.17088
-3.25014
-7.93048
-24.5206
-14.3409
2.5223
4.79508
-0.378045
6.14373
15.0883
8.62638
15.8941
19.4442
5.41025
-0.76164
-11.1426
-17.095
-22.8857
-9.27712
17.2493
30.9388
16.9686
-12.2717
-35.0879
-32.3524
-19.0702
-14.968
-13.0334
-19.8883
-27.8907
-14.664
-5.92008
3.47814
14.3874
27.1895
33.7431
22.4285
15.2803
5.5346
-6.17728
-15.1343
-8.49865
0.0228327
5.19879
5.34834
11.9068
9.98998
5.74061
18.9272
37.0052
17.6945
-9.96439
-16.0962
-6.60548
-1.99144
12.1145
0.494387
-23.4834
-24.6386
-25.8564
-26.0231
-18.7347
-5.9588
-0.0566002
-8.86333
-15.3681
3.09086
6.83106
-4.36438
2.22373
21.0827
13.3342
7.06362
12.759
12.111
8.83528
15.3835
18.1439
7.44727
3.90124
6.92213
14.0419
12.6836
3.99092
3.94198
3.03666
-13.1501
-18.0305
-14.9753
-12.4608
-7.13315
-1.05641
2.66812
-1.16923
-13.8925
-20.2067
-11.0924
-12.5961
-16.8826
-27.4883
-23.4171
0.198025
20.6923
17.2942
4.64069
-1.9419
1.70511
26.6446
29.7194
16.1872
11.9145
13.9741
2.85477
-3.31951
-7.43563
-8.24666
13.6429
18.1156
-5.7855
-0.533401
7.44298
-10.2977
-15.4247
-14.9966
-5.90146
0.257693
-1.65691
-9.63977
-15.3734
-15.8571
-15.1244
-8.59003
-0.958974
-4.46561
-1.22013
-2.612
-6.93833
2.66325
16.8734
13.5724
9.35768
21.0749
11.4963
-4.38767
-0.567462
3.08675
-0.960709
-1.70121
19.4117
32.3586
26.5285
8.32006
0.866194
2.6188
6.23201
-9.6548
-32.597
-30.0014
-25.8587
-24.8311
-17.5773
-22.7973
-12.9248
23.6494
40.4346
24.7213
0.415458
-15.8317
-11.6797
-0.635707
15.1272
18.2268
14.1806
8.77073
-3.00548
-0.318334
3.64626
-6.53174
-2.60201
-2.58698
-13.3378
-21.503
-10.1232
-6.76751
-21.139
-15.1981
2.41152
19.343
20.7496
2.60943
-10.2599
22.9107
16.7233
-3.98197
0.448674
15.6121
27.8438
8.53884
-2.89414
-0.21475
-3.03508
-20.7733
-31.6728
-29.7397
-2.82349
18.6488
16.2214
10.9599
-0.0319939
-12.5198
-10.4294
-15.8186
-3.67881
14.5038
-0.456629
-11.2237
-17.5954
-16.3915
-1.89584
-7.16044
-21.0606
-7.77631
4.12263
13.5624
26.431
13.6781
11.5391
13.2811
21.4961
35.7874
33.339
17.1599
-4.04675
-13.3939
-6.84315
0.0984841
1.10663
15.1835
16.4928
3.31218
-4.90144
-12.5813
-16.1193
-19.0525
-22.1088
-15.937
-16.9682
-23.424
-24.7342
-14.9794
-0.780587
-3.25527
-1.10802
3.21014
2.18399
7.4774
7.64186
1.08978
-3.78094
0.18653
4.10907
13.4665
23.3205
19.6537
-4.35479
2.09003
39.8044
27.0607
-8.92282
-11.5462
6.63105
13.7462
-4.24502
-4.36493
-3.19906
-11.8783
-23.2403
-23.2686
-15.5787
-11.278
-11.8596
-9.01855
-3.98739
-11.6318
-13.2308
-11.3709
-21.0535
-4.11616
20.5948
16.9895
0.398299
10.5413
37.8035
41.8214
28.1529
-7.26141
-18.135
-9.39084
0.510966
10.5524
15.0656
7.3204
0.806532
1.21118
6.97891
4.44341
-5.973
-1.37407
8.82754
7.31561
7.7917
4.55339
-10.0173
-26.2801
-37.5669
-18.4311
-4.59537
-5.73661
-10.1956
-10.7735
-6.17678
0.831559
8.20418
18.5724
20.3502
16.1367
4.80287
-10.5999
-13.7837
-1.99366
-1.36545
-4.11271
0.898296
-3.11555
-7.95193
-0.71196
10.8636
9.01022
4.79616
3.32203
-1.15667
0.817602
-2.02032
-11.1278
3.19073
19.1174
8.83509
11.0513
19.7071
5.80121
-7.63568
-15.8001
-23.9159
-21.5151
-15.3588
-0.434513
0.627165
1.37689
6.76911
9.96931
-7.33333
-15.0863
-6.87607
-8.88149
-6.85186
-7.07021
-2.96155
3.01925
4.17616
14.2983
16.6136
11.8494
1.78715
4.34632
6.96781
5.34211
17.2774
20.2076
15.9659
9.51522
6.79032
7.44043
2.8464
-3.38818
-16.0538
-24.7675
-15.4436
-6.84356
-4.13078
1.03584
3.40416
-1.18076
2.1281
11.2607
17.8612
9.9378
-7.27403
-16.5047
-18.1072
-23.3855
-17.5449
-10.2452
-13.7708
-16.8063
-15.0784
-12.5752
-3.03546
3.3196
1.47113
1.67096
7.34894
8.96971
10.2186
16.8213
28.9233
29.0248
19.2765
18.9347
10.8363
-1.20797
-0.446247
-5.10623
-11.4358
-9.43203
-3.58473
2.01229
-2.73912
-7.54566
-13.6688
1.03666
7.44266
-1.12863
5.35055
9.14017
10.8047
19.8091
19.0566
-7.11463
-20.7972
-24.3581
-31.3973
-31.0902
-15.0494
-0.022834
1.15714
7.74592
-3.73783
-13.4125
7.42873
23.5669
9.26953
0.854036
1.78985
3.17619
-11.5594
-27.0054
-24.5591
-15.0082
-10.1292
11.0629
22.164
18.3794
13.8034
8.92163
12.2694
17.5481
29.3639
39.6481
37.3085
10.8629
-9.69908
-2.99292
-6.34313
-12.1074
-13.3622
-27.7989
-27.8778
-1.05956
1.15091
-0.133902
-2.86619
-4.75187
0.594936
5.49918
2.38999
-5.08046
-5.16705
-14.9946
-22.4104
-27.5644
-10.2442
5.54577
4.61408
-1.68345
1.94901
10.3464
5.82566
15.0022
24.4518
16.1565
3.78454
-4.02765
-5.02156
2.69835
-0.621033
-20.872
3.72877
16.6125
-3.73994
-8.99837
19.0397
30.5776
25.2271
-0.249398
-13.0749
-12.5266
-7.13217
-20.865
-27.5501
-22.3814
-3.75668
-1.79754
-21.6364
-20.2567
-17.6931
-6.96726
-9.32347
-7.0393
4.84902
12.6225
-1.62992
-5.88628
-3.90421
10.3819
23.7918
29.9371
46.1751
53.8883
45.211
29.0431
6.99655
-13.604
-5.77901
4.13327
-2.43195
-8.17677
-15.4614
-16.7197
-17.8871
-8.21576
7.26347
8.3864
3.84227
2.25532
-4.68277
-8.23584
-25.6172
-37.8806
-34.2519
-22.4477
-15.546
-7.2965
1.42172
3.39927
6.4891
11.7418
0.906509
-1.97145
5.57814
0.813425
2.87007
12.6123
13.7247
8.93397
-0.352017
-13.6518
-22.1166
-11.1074
11.4836
18.2689
14.8054
43.8095
31.8543
2.09425
-4.21547
13.6515
27.5636
9.94313
-11.3711
-28.0467
-28.1585
-21.9398
-10.9301
1.01274
11.9825
14.151
20.7905
7.74928
-21.7498
-39.792
-34.0698
-35.4579
-15.0678
-4.1585
-4.24979
-5.85608
-7.44313
-0.628143
16.3197
29.8957
23.8585
9.07704
7.32468
8.61424
12.6158
17.2657
24.3649
17.7505
8.78941
5.2611
6.30928
-4.44345
-17.4804
-9.07587
-1.57881
-4.15624
-13.272
-10.5747
-5.82917
0.0110727
-0.331663
5.82804
8.51813
2.92629
1.104
-6.28731
-18.5206
-6.956
6.7059
2.87924
-2.59135
-5.53657
-13.9218
-22.0211
-13.7248
-17.7556
-12.4251
-5.95355
-16.9845
-12.6559
5.06098
15.9117
27.1553
27.9932
30.6426
46.3439
39.1691
30.747
29.072
13.7351
-7.47366
-17.4042
-19.9593
-27.9671
-30.7759
-17.507
-16.3046
-14.9462
-10.2027
-12.4088
-8.39462
-6.13285
-13.2795
-16.3163
-12.1819
-10.7406
-8.59866
-12.5254
-13.5446
-0.95145
6.12509
-2.30563
3.24764
14.5584
24.8724
32.9263
30.5971
20.4822
26.9017
37.999
33.2328
24.4309
29.5647
13.9573
-20.3824
-40.4571
-33.1894
-20.21
-11.4774
-12.5966
-11.1536
-3.94841
-1.51088
12.2794
8.15075
0.421532
3.8071
6.15184
1.03892
-12.8419
-15.2909
-13.1431
-19.4086
-2.17203
14.1226
-7.26973
-22.1485
-27.4827
-21.8021
-5.67473
5.0487
3.33944
-0.805913
-4.62212
5.16787
41.3521
37.8387
14.3573
-2.27338
-14.9025
-21.4935
-0.612664
11.9573
3.42708
-3.11955
7.61054
17.6836
37.1417
24.5731
-7.11984
-27.4812
-29.0215
-20.1627
-6.41436
3.24532
6.28619
16.1037
6.82854
-17.0778
-14.8002
-8.98289
-15.7802
-17.3375
-6.15851
10.4305
11.5705
13.7175
16.314
21.3778
33.3046
29.9914
9.12369
-7.53562
-18.6882
-16.3797
-25.5536
-35.0701
-19.4458
-2.59121
14.0551
22.8824
16.7917
12.4419
11.0465
-7.1688
-11.7223
-6.81196
-14.6348
-17.2653
-13.6762
1.29639
19.6404
29.9403
24.1938
7.10028
-13.2809
-15.7061
-9.99438
1.65621
-2.26997
-6.51467
-7.39042
-9.1726
-5.65461
-1.225
12.5256
14.3773
31.7332
20.4984
-7.62119
-17.4248
-19.1958
-21.081
-12.1506
-7.09316
-13.0263
-8.63972
2.43308
0.942575
6.7071
6.30003
4.23125
10.9659
8.37366
5.39255
3.12197
-18.9483
-36.3091
-21.3628
1.30685
11.4026
19.7899
42.708
35.17
3.47377
-6.42474
1.30663
8.02221
12.7385
24.6725
28.1753
2.71346
-14.3876
-17.4384
-21.4633
-7.80186
-10.1365
-24.5529
-14.9124
2.89559
-5.21257
-28.3873
-33.7694
-18.5037
9.72995
19.4745
18.6209
21.2518
28.3271
5.04622
-11.7149
3.13002
4.58808
-7.89639
-9.22565
-14.3909
-8.60031
0.937439
5.84661
4.88439
12.2883
13.2763
-4.86223
-6.79847
-1.84744
2.49794
-0.378891
-9.50396
-9.88288
-6.76786
-0.633678
9.59587
20.2109
30.2528
30.8626
12.6392
-1.60192
15.422
16.9118
-34.6629
-29.9375
-19.6532
-7.8222
1.06605
-7.28273
-13.4756
-13.6581
-27.6656
-30.1619
-16.3969
3.42154
15.4299
5.90018
-6.75262
-0.175068
27.8153
36.277
39.906
43.0274
14.2326
3.397
2.67906
-18.26
-12.0668
6.95104
2.18873
3.04557
-6.35986
-15.4721
-15.5716
-20.1839
-24.1066
-24.6901
-29.3373
-28.7907
-29.4409
-25.6486
-13.1372
-6.01906
5.37256
11.6095
16.4824
29.899
36.5757
40.5645
37.3351
30.8606
54.2104
39.9784
11.8594
-3.48855
-12.6753
-11.4418
-15.5715
-24.5834
-27.9715
-28.0325
-15.0677
3.40223
17.793
30.0182
18.5288
12.9935
-5.53078
-25.8345
-29.5618
-21.0049
-26.7024
-23.3719
-22.2092
-13.3892
0.106915
-1.24129
3.16657
12.7718
3.94488
0.5456
0.189195
-4.61263
-3.83327
-15.6324
-14.4776
0.302389
6.14346
8.12878
22.1071
34.8971
10.7549
1.8525
15.0929
17.6483
14.4235
17.2261
9.83717
22.1382
27.7794
13.6599
0.973206
-16.5655
-29.631
-28.1023
-12.695
-6.09692
1.57829
6.98989
0.667382
-9.02765
-24.3921
-22.7975
-12.2882
-4.57241
-0.796065
2.57998
4.64604
-7.37666
-7.5459
-6.2652
0.865134
17.1614
18.0007
36.9124
29.6214
-9.60888
-25.1372
-30.2512
-19.714
-15.5833
-22.3649
-12.9223
-7.00447
1.19224
5.53221
-5.20156
0.104732
6.01782
16.8632
38.3752
43.3109
21.0527
3.95683
-15.1925
-13.1683
2.92051
7.73575
6.2985
-0.907693
2.36461
9.91727
-6.37546
-15.4486
-10.0572
-1.83834
7.74463
3.68001
-1.9135
-8.16992
-21.7595
-20.4263
-11.5162
-0.463758
-2.53086
-8.25684
1.17858
18.4983
25.155
6.15033
-2.66155
10.5853
21.2698
13.0678
1.66381
-4.6577
-14.5243
-17.0494
-5.4239
-4.66058
5.99402
9.44917
2.91233
-0.91968
-0.264212
9.85345
30.4237
18.016
-8.40455
-9.00171
-8.66294
-11.7747
-12.0314
-12.7518
-5.49557
-3.97169
-7.15944
-23.0242
-28.1806
-21.5548
-15.4574
-9.9265
-2.53852
-5.72225
4.77317
12.3169
10.0414
21.7543
30.4888
16.079
14.8165
7.59645
0.898214
13.7394
5.20802
-0.735831
3.57993
10.3335
3.49608
-1.39359
1.84282
22.4836
28.7035
0.167164
-11.4027
-19.0664
-21.9056
-22.8448
-19.0353
-13.7969
-7.83102
-5.77178
2.587
8.88521
20.6884
20.5475
4.12267
-6.65081
-5.6022
-7.33155
-18.099
-27.5298
-23.8154
11.4764
18.9701
5.71631
-4.21942
-10.4492
-5.55143
-0.830593
-6.28335
-3.39147
1.67157
-7.61963
-11.8998
-5.08178
7.97215
12.9157
17.8036
36.9273
41.189
29.2396
16.7896
-3.5352
-10.6897
-3.68113
3.32457
11.4452
12.306
10.5684
9.50505
4.72409
-8.8772
-17.7063
-21.0998
-35.2421
-39.9017
-29.4969
-24.9949
-27.7571
-23.4998
-25.2067
-5.20983
6.87017
6.41022
13.1633
20.995
28.1282
34.9844
23.0214
10.547
-0.7343
-1.51619
3.94383
-1.50145
10.6343
19.7443
6.50828
-1.24972
4.09692
-6.7067
-18.5661
-22.8938
2.72861
37.6616
15.8734
-5.72698
-16.0214
-22.109
-10.9726
2.846
6.93784
6.67976
3.47787
3.37349
8.5571
7.86487
1.58231
-10.5128
-22.3859
-17.6888
-3.75408
-7.37092
-20.7436
-20.8085
-0.389085
12.0088
12.5033
6.60064
8.20761
9.76809
4.60557
5.05964
2.66228
-1.49737
-2.46886
-7.75707
-0.00717236
-7.72017
-19.4451
-9.24934
2.76111
11.9665
16.2072
6.97617
11.3566
19.544
27.1398
17.3062
3.67074
-4.34981
-1.59643
1.60236
8.10567
5.67822
-6.71488
-16.7895
-13.9803
1.38342
15.9215
8.41616
-5.24418
-22.1406
-35.0829
-40.2289
-31.3717
-25.7171
-10.064
8.12217
19.4854
16.5012
15.4866
10.8596
4.87629
1.61743
-7.77111
-12.3953
2.08107
5.52406
0.57688
-3.08397
0.116744
6.08604
11.0573
16.6209
16.4009
8.96062
2.015
12.9592
15.423
30.7096
45.9326
27.8907
-4.93059
-19.4461
-21.5994
-16.9227
-23.4318
-28.682
-28.4907
-21.22
-14.4333
-9.91453
2.68729
6.80276
-9.72456
-14.3723
-13.9416
-10.0125
-3.06669
-4.27389
0.677144
25.7784
27.4477
14.8519
3.25111
5.27699
-8.26369
-14.09
-5.29959
-7.66581
-4.15847
13.7129
7.2952
14.4593
30.1123
32.2313
25.7462
20.2307
7.33856
-8.13138
-20.2484
-34.9628
-20.8506
-8.69803
-3.46193
-4.77711
-2.9952
0.753882
5.56268
1.74347
-1.0723
-2.22587
-1.37427
-9.02927
-7.10383
-2.94414
0.0186405
-2.89374
-2.97363
7.02957
-5.49732
-18.2999
-14.802
-4.60596
7.84118
11.1756
8.98746
-0.0484073
-4.88378
-0.837583
21.1369
29.0193
25.1567
14.3213
14.0785
2.80267
-8.63733
0.967748
14.1299
-9.68867
-27.2064
-23.7303
-8.77984
-11.5636
-13.651
-15.0309
-6.74517
-3.90351
0.0817004
7.04473
-2.43836
-9.16896
1.14881
5.86092
3.25902
9.82471
17.9386
19.0917
8.85823
1.40959
3.61121
-0.182931
-7.73815
-5.0253
-4.59125
-2.4053
5.71993
12.3351
4.35862
-13.6901
-15.9822
-3.43366
-2.17237
4.57111
15.3162
3.4358
-8.91586
-6.85908
-6.71109
-2.07531
-6.96393
-9.6573
5.69264
18.9903
9.53026
-6.3961
-13.3238
-6.36383
2.11726
15.1453
22.0948
21.1061
5.72955
-18.3205
-26.9066
-18.7325
1.04944
2.00607
-4.74235
0.176124
10.1097
4.72506
-12.9956
-10.7617
3.084
13.1633
11.8399
10.2619
12.6083
-6.35557
-33.3614
-29.4594
4.82111
8.17734
22.5141
39.0005
31.8857
10.0426
10.6674
7.30626
-10.8494
-5.84673
-6.15141
-15.6832
-12.7197
-13.8011
-18.2409
-26.138
-26.6526
-4.8587
2.71736
-3.73205
-7.62932
0.303157
-13.7357
-20.9567
-20.5073
-12.2965
-13.9453
-3.89481
15.07
24.0544
39.5897
41.9297
33.413
31.8355
21.6685
19.2958
7.39119
15.0937
13.9728
5.2441
-3.20947
-4.46084
-10.6657
-11.5978
-8.93268
-4.84814
-3.36318
-7.81487
-5.3224
-12.2482
-19.2422
-19.1938
-12.7028
-5.51692
-7.2709
-14.8151
-12.5609
-23.3995
-10.233
3.50349
-6.0933
-4.4143
7.19099
6.70103
9.60061
9.63642
