19.9178
48.5984
39.9994
-34.7616
-23.6446
18.8932
35.4905
45.7607
10.0207
-22.3258
-10.998
4.31448
25.3707
19.3426
14.2746
14.1173
-6.56155
-25.6881
-20.3431
26.4042
54.267
27.3261
-19.1653
-39.723
-14.5124
26.5852
-1.31346
-66.8776
-122.634
-59.5809
44.0378
190.641
203.228
78.3479
-31.3885
-66.0933
-57.2759
-33.6171
-34.9042
-51.737
-65.2824
-65.514
-60.4314
-70.383
-89.8798
-55.6997
46.9353
114.976
112.431
56.5058
-9.8006
-84.4158
-112.572
-50.6848
9.84993
52.6775
56.2522
31.5179
30.9825
30.932
35.1139
51.4097
31.1011
51.9249
26.5558
-24.9513
-74.9258
-67.8924
26.1682
78.1589
89.2172
66.64
21.6371
-9.6429
-12.7403
-27.1202
-22.7291
-15.8659
-12.6904
-20.3528
-41.2207
-35.0475
-13.5085
-23.0468
-10.9212
-10.395
-6.15475
3.56847
-38.4032
-42.4683
-45.1637
-69.2128
-53.0831
-24.5486
-26.7499
-30.1085
-14.808
57.9754
153.525
145.269
65.6844
-3.8191
-53.202
-56.2452
-17.969
66.7859
168.412
103.672
18.6332
-47.9082
-109.919
-150.325
-118.746
-37.8038
126.72
168.17
88.5645
-6.20157
-74.9324
-83.1213
-48.2554
-37.1784
-47.2441
-42.5984
-7.66181
9.44372
22.5573
54.9002
47.8039
16.97
-6.64079
-4.32174
-13.4252
-44.953
-92.2846
-41.061
70.4937
86.5276
30.7685
-3.38286
-10.3392
10.3156
56.9302
51.2869
9.92845
-68.2274
-144.186
-106.589
-19.3104
98.2224
108.6
63.2838
39.5558
29.7158
-5.64166
-40.2583
-80.8829
-64.3531
-40.4688
-10.3731
39.2356
60.0756
76.3036
68.2176
29.9812
-9.90421
-39.3881
-16.5909
-5.25214
-59.3967
-39.018
-1.84577
7.43591
2.39174
-20.0519
-2.71567
-5.66365
-13.7102
-0.0315205
13.3909
7.74891
-11.9051
-22.3871
8.38273
9.95339
13.9641
8.64541
0.664202
4.48124
-12.6714
-10.7516
20.9866
19.8163
19.5051
16.3576
-4.13019
-3.0243
-9.63944
-11.1205
4.04411
-9.06569
-18.8823
-8.59257
-0.995763
16.5843
17.5341
-20.5322
-31.3933
-19.9168
25.4752
43.0546
16.9986
5.83443
-10.2715
-30.2043
-23.4303
13.9498
0.692044
-1.36301
0.116258
38.9509
60.6989
16.1282
-49.5404
-65.1529
6.28681
49.4896
42.9877
49.9242
-4.46891
-40.7972
-43.7678
-50.1494
-1.71498
14.8567
-5.65808
-26.6784
-13.8487
-2.02732
-8.73341
-53.3633
-40.7768
-14.975
23.9085
98.294
74.1563
19.6375
-12.6568
-72.8998
-75.518
-56.0803
3.45904
108.011
102.071
53.1401
20.6595
-8.82703
-13.2298
-16.9326
-53.3073
-49.158
-26.8782
39.7383
93.7808
34.8589
-71.388
-59.8862
-12.6962
26.791
27.4073
14.9166
-12.1899
-51.3175
-62.1028
-26.7005
4.00701
5.99767
10.7824
-4.94093
5.94259
24.8761
3.74862
21.7636
18.8518
-24.0467
-5.75887
26.0649
33.6817
9.74639
-39.4643
-34.3208
-17.4921
-10.9026
70.9996
100.182
36.9106
8.76925
-9.85134
-19.3222
4.90271
11.5487
-3.08682
-40.8147
-65.1504
-48.3501
-27.7
-25.9617
-34.2324
8.80477
53.0563
45.9546
16.1818
-17.949
-65.7186
-60.2197
4.60585
10.1994
22.5146
76.758
81.4446
37.4879
-4.58003
-43.546
-77.6514
-86.137
-19.9784
42.9491
103.525
108.095
57.8574
12.934
-2.15312
-5.50178
-46.596
-60.9795
-46.4616
-34.5144
-21.52
-40.3078
-40.3659
-15.3441
-8.48627
2.30223
36.2905
41.7166
2.19482
-30.4486
-39.009
-6.94656
6.19776
40.2153
61.2295
34.2614
13.5193
9.55227
-1.84958
4.55575
-17.6248
-51.5778
-40.188
24.6879
77.6359
66.4322
24.8989
11.2412
14.3879
21.7818
-24.2355
-69.3375
-35.4143
-17.7148
-21.626
-17.4938
-8.95725
-10.2027
-18.611
-20.4811
8.42148
24.1095
8.61328
-3.05149
-5.67547
-6.13237
-1.78443
-0.188571
1.13178
16.0708
1.48248
-17.9577
-21.2705
-17.5061
-9.89301
16.2567
4.87071
2.69168
48.4234
58.3231
26.9515
9.02505
6.79221
-11.0581
-32.4086
-25.9383
11.0764
10.4861
-2.96259
-11.0549
27.4341
25.698
-3.77017
-5.78194
-13.8658
-16.4314
6.15256
-0.101194
-41.5043
-51.9491
-39.8716
-2.59931
62.1998
62.3982
37.0186
-0.0288256
-27.0289
-7.09412
4.49411
-17.2034
-55.4827
-60.3011
-2.84871
37.8108
35.8842
11.9915
-8.77086
-23.5969
-48.8137
-27.4942
53.9301
93.9253
37.7766
-25.2771
-34.8827
-17.8118
-6.76136
6.99226
43.6574
24.3473
6.31605
2.43801
-16.3057
-37.9404
-55.749
-60.4325
-7.39776
84.8943
88.2845
48.6887
-7.6548
-46.2658
-53.9653
-35.2779
-43.1573
-51.5098
-32.2282
16.0072
90.2127
91.4672
37.6431
22.0529
9.8397
-6.0095
2.8299
18.4828
-0.0769816
-35.4103
-23.9577
0.918924
-13.4124
-34.0985
-30.5232
-27.1023
1.52218
51.634
32.4806
11.3918
-43.2255
-54.3511
-23.9486
-24.7269
-22.303
27.2171
29.7126
28.2915
9.46683
-23.0649
-40.4062
-30.652
5.81436
74.0908
80.3199
48.2812
25.017
2.28475
-4.8647
-32.2223
-71.9041
-40.8278
-14.8763
11.0508
22.1905
7.92523
-14.2425
-52.3714
-46.836
-7.24453
71.4036
104.435
55.2004
-2.09556
3.30251
39.391
13.2495
-18.5942
-24.4171
-40.998
-42.2107
-27.926
-18.7212
-15.7925
-13.8378
-19.0616
0.000296192
12.8283
32.847
24.2996
-18.4263
-36.1661
-25.232
-39.7281
-60.8752
-60.0385
-4.01943
55.1674
58.5403
35.6039
7.01893
1.8065
50.0758
66.8825
67.6782
44.1358
18.525
19.8571
8.58802
-18.6951
-45.8887
-57.1443
-46.8849
-14.453
0.583794
-1.01592
41.0686
26.7816
-15.4163
-17.9571
-6.89404
1.92769
-16.6542
-42.4046
-35.8754
-13.6861
4.59569
6.86408
-5.78102
1.08233
24.5949
33.8532
-0.689878
-49.9508
-80.9738
-53.9203
-41.604
41.3683
137.335
126.291
48.584
-8.62365
-30.5904
-21.7971
-14.1674
-11.7962
5.75757
29.7778
12.2312
-10.8092
-20.5063
-37.7185
-46.3215
-41.7442
-12.8173
55.0999
65.0842
-17.7028
-73.6276
-44.6764
0.178527
25.0839
20.289
12.2249
0.801641
5.02884
18.5785
15.3137
17.2701
11.0165
-9.37503
-24.7553
2.73192
30.0668
22.677
8.75667
29.6209
-1.405
-53.6163
-69.6983
-23.4206
15.1369
79.461
62.3673
-2.67485
-40.0519
-49.0129
-47.9004
-16.0931
-16.3032
-8.26607
26.8962
88.3074
105.455
51.1504
-44.519
-75.7103
-45.9503
-15.5241
1.27499
-3.51655
-21.5464
-51.9665
-36.8541
-3.46912
0.0652077
25.9955
29.9468
13.104
13.6046
18.1881
12.8251
-13.6031
-32.6719
-21.6783
11.2905
15.9448
-4.35029
-11.3347
4.9889
22.7363
54.8357
41.7893
-0.0252483
10.172
10.1591
-26.1544
-26.2237
-12.5862
15.1004
37.9909
5.29441
-19.1791
-26.7263
-6.02999
-3.73227
-22.8011
-18.8136
-6.92919
-19.0434
-11.928
-24.1664
-10.7459
23.9296
14.0978
20.0573
13.164
-18.2573
-14.8856
-21.0542
-6.85918
69.0465
90.9148
31.4142
-8.61234
-34.7581
-25.2972
-28.4706
-32.3017
-23.8304
-18.9249
15.2952
27.5903
38.9834
20.9856
4.7699
-2.77346
5.71288
-3.4969
-20.6485
-67.1515
-115
-109.117
-3.1782
136.704
142.427
52.4672
6.90299
5.93903
14.2372
-0.550887
-39.6078
-32.4943
-29.126
-11.9143
-6.05967
-0.731115
-0.96439
-13.0176
-14.0916
13.5729
47.9219
9.91034
19.0789
0.156398
-50.1509
-49.2047
14.7847
49.6798
45.4651
36.315
14.3362
-37.8005
-41.978
10.8279
27.1133
7.19167
34.5009
21.8188
9.17409
-4.4397
-31.7621
-26.3197
-50.6707
-92.9362
-48.2175
-4.30179
-29.7039
-33.2205
-7.69878
38.1593
62.6181
32.5034
2.85692
-14.7715
12.7989
14.8057
2.86173
11.7876
23.3774
22.7896
10.7013
13.676
36.981
11.6378
-0.547802
1.65917
15.6957
22.6618
3.82783
-33.5381
-39.0472
-22.7309
-7.45798
-34.6089
-46.3868
-20.6771
-5.70957
42.8601
74.4927
53.8817
38.4883
13.2912
-33.3449
-44.5918
-60.6375
-50.6525
-26.0063
1.35949
44.3208
47.2676
13.2092
-8.36129
-14.4914
-46.5677
-56.775
-15.3759
32.6325
38.5312
-30.7601
-54.0217
-7.12332
69.7659
91.0538
26.7435
-11.5463
-21.8477
-12.6982
4.02022
54.0485
37.747
-22.8466
-37.1389
-39.8354
-1.69869
21.2194
8.70073
-12.0172
-20.4792
-8.66622
8.61568
-14.0619
-41.3825
-41.141
-9.13114
33.9666
43.1337
27.1811
-7.13303
-65.2877
-55.085
1.30922
43.3304
54.0679
55.144
46.8378
26.7036
-15.7842
-15.7003
2.19809
3.019
-10.9096
-32.0883
-54.0614
-5.37181
17.9662
1.59736
49.5831
73.2977
-2.07507
-51.362
-45.5164
-0.552805
35.7558
17.1652
-14.942
10.5279
-0.861013
-30.3936
-19.3324
-7.11633
-3.84622
-17.3308
-29.5545
-15.4357
4.86044
10.8289
-14.3985
-50.4823
-48.6064
-15.3894
-8.88121
31.8426
55.0738
40.3465
20.6051
1.1089
5.89357
33.0537
48.6574
16.014
20.8987
42.0871
26.6856
-5.86686
-16.8057
-10.1667
-27.3356
-38.7149
-19.1484
-2.9582
1.78354
-37.3464
-46.6104
0.878743
19.4929
-1.2121
-1.06477
-30.2705
-28.7505
21.1411
0.387207
-17.0811
-10.6661
0.776757
20.6052
38.1148
5.37336
-22.0337
4.20738
-2.40741
6.30435
23.8373
45.9624
51.4194
33.568
11.6182
28.1524
-16.7326
-64.5149
-73.1924
-56.3457
-44.3178
10.6536
107.817
88.9507
-35.2717
-50.9616
11.0584
49.7638
67.5885
47.7154
-9.55181
-38.3542
-42.108
-45.0271
-50.9948
-30.5044
8.96599
7.8812
-4.71512
38.6665
25.6332
-55.3913
-118.178
-96.9455
1.7679
8.80462
4.18483
-18.4191
-21.9004
22.1654
54.2541
66.2275
25.2611
7.82799
3.90875
-33.975
-45.1953
22.0804
71.1685
26.2022
2.10645
39.9739
58.4548
33.005
0.846606
5.38311
17.6466
17.7513
3.00927
-26.4968
-41.7859
-56.1478
-35.099
-13.5649
6.22748
40.6963
44.0584
23.6624
6.45349
-2.7602
-4.47951
-14.1872
-49.7562
-10.1667
18.2417
29.8733
11.3534
-2.55362
-7.65675
-16.3699
-35.0172
-44.9789
-30.2276
-11.9522
12.5168
10.9117
25.4281
17.7266
-4.42925
-28.2465
-29.3962
7.71727
-4.71589
-6.84913
38.0734
30.3943
-5.53265
-23.6704
-36.7749
-11.9206
-7.30311
-9.81695
0.350653
30.607
36.2104
-27.4344
-83.9127
-37.4418
21.9821
92.7085
152.725
82.2416
20.8307
-22.7501
-43.4537
-28.585
-24.2777
-18.9791
-18.9635
-43.5621
-31.2406
-26.6866
3.65289
22.303
2.4557
6.38238
31.5599
23.3365
-7.61623
-34.5496
-76.3949
-53.046
1.29978
29.6602
19.1815
16.0712
19.6307
19.9572
24.5201
20.0217
3.10547
5.09433
12.1638
22.8828
33.5185
48.0117
41.6684
10.8202
-23.9695
-67.2418
-77.0418
-51.9258
-21.0617
37.9657
60.2869
19.5308
5.26971
3.74975
29.4881
24.102
2.13597
-14.8973
-44.6706
-63.6092
-58.1535
-62.4467
-35.6972
-20.6316
-27.0988
34.4318
85.7349
71.6723
47.0705
-26.6169
-37.5208
-18.6817
-6.36147
-3.16151
-25.756
-22.2142
8.53612
17.0936
2.09933
14.8519
30.5115
30.5847
24.1316
11.1068
11.5746
-1.14292
-18.5723
-18.3073
0.394646
11.4132
-3.87532
-0.590057
-9.62408
-10.7018
1.83871
10.402
49.9598
49.2783
19.7713
-12.5927
-30.9021
-32.7925
-26.6766
-15.4332
50.8317
57.6756
-29.0415
-68.7378
-74.9074
-50.4132
14.5968
45.2566
52.3944
41.3639
-3.45088
-22.2207
-30.4663
9.84715
28.4265
-17.0358
-28.6884
12.5027
3.73379
-5.95453
-26.2052
-25.0572
14.1455
22.2412
3.23323
-30.9957
-41.0887
-26.7545
-10.6613
-1.60016
18.6183
32.6676
19.4876
-12.7158
-19.4746
31.3371
37.9007
17.5875
13.1939
20.3998
37.9683
24.2737
0.195053
-16.2577
19.1908
17.3741
-9.33793
-19.0924
-16.0271
-12.7036
-15.888
-21.4769
-2.05269
-3.11676
5.10082
-3.93221
-27.9399
-60.9829
-85.9939
-30.6784
40.6778
51.0425
100.587
101.289
48.9964
45.8675
-9.67563
-56.6419
-65.9993
-72.9216
-32.3439
7.34662
14.4967
3.49537
-55.6318
-78.1009
-23.4512
118.503
200.934
101.376
-42.9624
-86.1545
-88.0535
-56.7957
-62.126
-78.7073
-28.3983
1.56151
14.5402
42.3104
39.5677
14.8127
-18.179
-8.64554
48.3188
52.1279
39.5031
-16.2071
-36.5404
-10.5005
-24.4819
-28.069
11.6831
25.5101
38.1837
55.5366
45.8983
32.3772
18.4475
0.831279
-21.4682
-18.4428
-26.41
-19.8143
-8.72158
7.14076
-17.3536
-57.2534
-23.6368
93.6971
138.574
52.8161
-5.69214
-35.1172
-48.0811
-49.8272
-57.5722
-62.7176
-52.2827
-4.7974
-10.684
-34.4832
-33.2889
-14.3847
28.3554
49.0033
19.8349
4.11266
0.787782
-47.0798
-64.8183
-18.327
-11.7297
-4.13906
0.543421
32.509
29.8933
43.4709
44.6866
24.2587
33.0137
40.8292
61.0769
64.135
17.4428
-0.879087
17.0777
18.6296
-25.3818
-90.3116
-112.169
-44.3313
-27.6085
9.7736
95.2112
103.632
39.7724
-7.36388
-24.0987
-30.8602
-30.3899
-20.0647
-6.99557
-2.71735
-24.1719
-44.9153
-39.8556
-39.6364
4.21178
76.7707
62.8618
-0.910089
-39.1799
-37.3463
-33.1082
-51.7238
-54.5211
-11.8094
35.8399
66.4235
62.0226
22.7253
-4.83393
-10.5372
0.403466
-9.26249
2.33426
38.7729
-9.6015
-52.5269
-20.9209
24.2347
46.8256
2.82984
-53.3296
-27.8787
26.0798
60.3355
31.5065
-32.8431
-29.9881
34.8169
54.8741
6.68975
4.17492
44.384
54.5693
23.9984
-29.627
-92.6189
-78.8407
-40.3381
-30.7408
64.5286
117.233
61.3641
23.4739
-24.8403
-49.2133
-56.6311
-48.6529
-48.5431
-64.7293
-54.2921
-54.8572
-49.1154
-24.3232
24.9839
60.5063
63.8423
38.6006
39.7651
65.5066
28.7626
-31.9752
-53.1598
-56.0005
-8.40333
29.0908
32.0165
18.0679
11.6197
19.4883
29.7231
26.7754
37.0387
26.5492
-7.96693
-8.95722
0.20395
13.0261
-6.97574
-38.5965
-34.0748
-34.917
-34.9315
-13.7092
-9.75961
1.31258
12.3611
6.29872
47.1305
60.7162
49.0614
57.5927
24.5924
-22.0511
-77.2142
-99.7493
-63.2901
17.1543
64.5089
12.8457
-59.9763
-53.6659
-14.2151
46.5632
37.3529
-21.4303
-48.9234
-35.4699
-53.2076
-37.8484
-6.72616
33.0918
39.3031
16.8234
94.1195
115.526
31.3257
-34.902
-52.9005
-8.69158
-0.893387
-25.9914
-32.0157
-17.3386
-9.22288
9.62812
-5.58882
-13.8684
-2.9675
29.8801
69.3398
41.6057
-7.4178
7.60312
-17.3819
-21.6029
19.4293
-6.03252
-55.3431
-19.033
-0.479852
3.47047
11.3167
25.2656
16.0839
39.2766
89.5414
51.8414
1.50683
-38.6792
-69.3628
-66.0053
-37.2716
-18.4889
-27.7795
-13.3198
22.6872
24.0736
15.1902
4.8023
7.07771
5.32586
-8.03324
-50.2498
-25.3551
-21.595
-10.7109
37.8155
58.2771
15.8694
-25.8429
-41.3806
-21.0124
24.6208
8.9446
-1.7107
-7.48334
9.22436
21.8436
17.7319
16.4853
-5.75021
-2.14649
-0.317014
-23.4393
-29.6752
-25.6328
-6.58932
15.6299
43.3742
58.0295
65.8359
12.5351
-52.1002
-14.5373
42.2459
59.6827
52.5166
9.30287
-38.2367
-40.5773
-27.9667
-28.9194
-32.1568
-34.8769
-31.9408
-21.1067
-28.3805
-24.9694
-26.6639
-41.9845
-33.9744
4.94223
35.1092
30.4313
-10.3508
-25.0693
-9.76526
16.5929
38.8291
43.6442
47.7083
27.0224
-8.1896
12.9083
53.7508
55.7488
40.2505
3.09313
-14.4023
-11.1319
-17.8936
10.7826
5.58136
-35.8352
-53.627
-56.6149
-18.1033
40.8442
3.24644
-13.8539
0.204602
61.8453
83.8021
41.2887
6.25277
-14.4165
-29.9355
-61.3156
-80.4559
-74.1251
-65.3277
-16.527
33.1543
24.5739
5.34943
-2.60024
-30.2096
9.48526
95.5242
58.5132
5.09938
-33.8757
-37.6585
-34.6004
-37.4833
-41.3346
-14.167
7.65477
-5.61877
-3.72512
38.4753
41.7858
76.6659
68.5655
44.0464
27.7094
11.8558
-30.5845
-61.7396
-37.2554
-5.56724
-11.8597
-3.77785
2.78289
-8.42604
-1.30588
12.6829
15.5653
26.2381
25.6787
-13.5751
-27.0666
-25.6251
-4.35225
-4.65718
-7.03504
-8.95342
-25.8683
-17.1937
-36.7398
-35.9451
33.3727
79.2387
110.863
71.3251
14.0141
-35.3829
-100.658
-93.2611
-18.4357
67.3192
124.982
36.821
-18.3627
-21.1144
-39.3006
-52.4937
-39.1195
-42.8858
-6.88582
11.7554
-14.2439
-35.5307
-69.1293
-40.4247
7.15581
25.9948
70.1016
89.3946
37.2247
-24.4062
-75.1513
-24.204
20.4764
26.2248
35.7246
37.0743
6.51936
5.57644
22.7267
13.1007
-9.78735
-22.8581
-30.8388
-39.5659
-15.2526
54.9633
130.443
80.3195
-24.8716
-62.0346
-72.3542
-29.3504
18.0625
10.5501
-8.69346
14.4635
15.2547
-12.9417
-35.7442
-26.3294
0.859976
-1.03542
8.0103
15.5209
2.61352
-26.3795
-57.5141
-23.1626
27.5196
26.09
-1.16115
-43.8473
-66.782
-48.3916
-29.2743
13.1413
64.3187
69.5267
57.1861
52.2902
12.2635
-7.91826
-12.74
2.85414
15.5115
-8.18561
-25.1525
-15.1484
-0.754427
-9.63235
-17.8428
-20.8388
33.8805
76.7812
61.1275
21.6286
-14.3506
-39.1363
-48.1165
-46.4711
-31.7822
37.4276
74.5829
17.2287
-14.7328
-17.9075
-23.6549
-28.9661
-20.384
15.8205
33.6995
8.56759
-23.3072
-30.5616
-30.5249
-62.9171
-75.9385
-12.5279
53.062
73.9834
48.6123
2.64687
-24.7371
-23.0998
-33.0269
-3.18824
60.2901
78.0375
45.6339
13.3247
-8.86695
-12.2883
-24.9777
-33.0755
-12.879
26.5913
20.6635
-3.88535
-18.0597
-18.5994
-19.6889
-40.5048
-45.8603
-17.3243
46.8428
53.6179
-11.2929
-50.3346
-26.8009
5.34478
42.0135
57.8529
55.1025
33.1593
14.207
-13.9647
-27.665
-60.8753
-105.302
-112.681
-20.479
72.8921
126.365
126.882
86.9915
61.115
28.45
8.44946
-3.73332
-41.9188
-95.639
-161.353
-167.602
-107.166
32.3513
176.358
169.243
80.174
36.9365
15.9208
-34.9374
-81.0745
-101.004
-93.2962
-83.2356
-63.3498
-42.4556
-24.9851
1.71691
9.38446
37.4675
84.5794
78.0006
76.3672
22.9039
-72.4159
-81.1877
-10.6273
71.7519
89.3777
31.1091
-57.0595
-75.7908
27.8386
144.179
147.841
74.9998
31.8221
-7.24172
-20.8109
-35.3274
-11.9068
0.936894
-26.8923
-52.2318
-78.9162
-77.3364
-68.7102
-67.6338
-44.9596
61.2499
168.544
121.481
-10.9257
-102.826
-119.564
-82.6286
-69.5384
-33.3406
17.143
45.3555
61.5867
60.2318
28.8641
-5.19558
-28.2128
7.61345
45.2168
45.3572
28.3282
-23.7887
-59.8867
-39.3023
-10.5121
-36.7135
-39.5686
9.60305
38.0736
36.0352
21.7423
4.96298
-14.0394
-11.1282
0.612812
45.2712
89.0834
105.146
66.5167
5.5047
-30.0095
-45.385
-58.3814
-41.6744
-32.9236
-17.578
-27.2761
-29.9897
-3.17159
1.64288
-13.4049
8.35141
7.47001
8.6507
12.6876
-29.0648
-65.7669
-88.8587
-55.737
5.93991
47.7191
83.1343
74.7671
3.78243
-19.509
-6.10758
44.8324
121.263
84.7676
24.4142
-7.50961
-35.6862
-35.7509
-30.7876
-25.083
-39.5186
-49.0439
-38.8231
2.9696
23.1216
10.2621
-38.5323
-54.7912
-25.0327
-3.80477
16.206
14.4883
-37.5378
-32.0579
7.63435
29.2738
27.5902
17.6934
11.0492
52.6602
56.4573
48.2631
29.745
13.4011
5.08189
-11.3519
-35.3867
-8.06021
6.03879
8.69962
-12.0567
-39.699
-64.1748
-55.917
-47.9417
8.74307
77.1109
91.2076
44.6854
-11.0829
-36.789
-45.4882
-41.1467
-3.58258
46.4101
31.7687
13.9197
7.16293
4.85591
-11.5628
-39.5446
-55.1989
-51.4084
11.229
82.0813
65.938
-5.20508
-41.53
-39.8197
-44.4009
-27.2027
26.5093
48.7186
19.6123
-38.6929
-27.543
1.64656
-4.67674
12.3504
23.3808
17.3196
12.3837
11.6842
-8.27197
-33.9944
-53.4636
-8.30392
29.8132
16.5746
5.80576
38.1559
34.0417
51.3331
42.1663
-0.746411
-12.8694
-15.9275
-35.5345
-27.1359
-6.14976
25.9875
20.8338
-3.31853
-12.4953
11.7795
-4.56219
-65.6809
-76.3296
-27.5892
45.6159
77.0821
38.1578
-41.406
-70.8471
-4.087
36.0384
33.5763
5.91117
-18.0639
-25.678
-27.4118
-19.1619
0.300346
34.1902
-7.93626
-12.2164
5.02835
35.5041
48.1091
-3.77458
-33.2533
-7.32041
7.41442
16.1579
-10.7723
-9.8713
8.77534
18.4062
22.0912
30.3676
7.44569
4.27649
10.2961
-14.8037
-5.10466
-12.8456
-18.5889
-22.5214
-33.8125
-23.7202
-24.3062
-9.70593
33.7754
14.3306
-18.1185
-13.7433
6.03864
6.24983
9.72313
5.30908
2.43828
8.94361
17.1473
3.80618
9.58709
22.76
26.7683
5.4141
6.80543
16.6263
10.0346
-24.3377
-23.4706
-12.923
-3.05807
-16.3088
-35.8336
-17.2107
-7.68043
-12.0702
11.3941
4.51913
-6.62394
-39.3985
-62.9058
-43.8861
42.6842
127.683
124.472
69.0603
29.1097
-10.5935
-49.271
-49.424
-49.7068
-48.0694
-27.7506
-3.40161
59.6528
52.586
-1.99257
-31.7289
-33.8474
-0.0636268
6.49781
-2.288
-3.59838
-38.1847
-47.5371
-43.979
-33.2698
-1.80945
12.2017
16.1519
13.9306
35.4557
25.5109
18.7595
-12.4701
-12.9862
4.68603
21.1194
7.81758
39.1851
35.9873
30.904
-17.8105
-57.2635
-51.6747
-24.9799
16.7726
95.9997
104.617
57.4439
21.2603
12.3454
21.905
-6.95529
-52.3236
-43.5139
-46.299
-40.0358
-19.7444
-20.6826
-6.20481
-9.30595
-55.6946
-45.9182
-32.4385
-6.43821
5.13767
-18.8985
-2.87802
11.1491
1.73246
-12.0175
-17.8
14.9706
14.1878
4.15726
10.7017
22.9751
51.2334
32.4984
-5.12831
36.0708
60.756
21.7838
10.4208
12.3114
0.712137
-35.5206
-48.8984
-18.922
29.9845
12.2342
-26.046
-40.2888
-34.857
-14.7441
18.9064
34.0074
37.9816
26.6322
23.5051
-2.74745
-21.5441
-25.8978
-13.6597
-22.0755
2.9662
17.6458
-9.93581
-2.63959
-6.03733
-39.146
-32.4897
-28.0522
23.0383
56.1009
25.6707
38.7398
30.6406
-11.7262
-14.6022
-32.5439
-28.1333
-10.5389
2.55838
-1.24461
-22.5691
-23.8151
12.2661
12.0842
-8.21865
-2.18283
21.0487
38.5975
6.06247
-16.1867
-12.0952
-33.0531
-50.2954
-42.2938
-12.677
18.2235
35.7252
30.7505
46.8472
56.8414
51.8931
26.2581
3.72143
-2.35751
-3.66909
-0.130367
-14.8703
-22.8356
-6.89005
-12.7529
-0.065689
-10.1488
-17.5719
-1.42852
-0.0149272
-9.34088
-16.1968
-22.4894
-22.9326
0.324125
-15.1419
-18.5364
-33.8884
-42.8352
-30.1969
-7.71732
23.3351
53.9723
123.655
118.469
37.4858
-6.77696
-23.001
-13.7174
-1.88483
-0.595474
-23.6166
-0.861946
-28.2905
-56.2053
-83.0594
-65.1996
-0.173792
22.8385
30.1781
77.0171
92.7161
36.9491
-57.4974
-77.4424
-40.2017
-18.323
-16.0368
4.24527
15.6531
16.2697
22.6261
8.5829
3.01866
5.89367
15.8019
27.192
10.8748
6.41728
16.5873
-9.19702
-38.4693
-41.7993
-54.2283
-30.6505
5.10075
38.5511
37.0817
13.0129
-0.172402
6.98666
16.5866
1.78251
15.7243
32.281
38.6349
20.3004
-3.73948
-3.97892
-9.61283
-38.0516
-59.2078
-25.5744
4.25035
38.5865
28.5424
-27.7999
-54.0621
-45.9511
-11.8068
64.5621
77.1957
39.4288
6.86051
-16.2159
-29.8052
-50.7083
-65.7861
-11.0227
41.1792
41.5361
22.5229
-1.03325
-17.9718
-50.5126
-47.7092
-32.5546
34.2427
56.7001
19.229
-38.7569
-48.4392
-11.85
-1.28554
9.32152
47.0239
31.5052
8.25362
-13.809
20.3159
49.552
26.766
2.38255
-20.7456
-0.627941
13.5277
12.0687
-3.09028
-5.20647
8.02318
-1.30318
-9.58487
-5.18841
-4.055
-23.9387
-31.9066
-1.81781
32.1156
36.7968
-31.6634
-43.0617
-4.80887
-1.99092
5.6328
-17.5273
-23.6571
4.18075
-5.89575
12.5398
25.8594
-4.43354
-9.56614
-4.05834
6.60201
10.1875
-6.73547
13.6054
16.5619
-5.42903
-7.49948
-7.53572
-6.14584
5.95846
5.62303
7.59864
4.40329
-6.14408
-8.62243
-29.1541
-63.3997
-55.8848
-48.24
23.9841
150.043
152.646
76.5429
37.8533
4.88449
-27.2564
-37.1381
-46.0831
-47.036
-13.7461
5.18557
-18.5686
-28.3352
-23.9012
-14.2081
-0.714946
24.2343
1.97168
10.033
-19.4582
-89.0694
-90.4681
-39.0357
-13.2056
11.3148
22.8454
43.71
30.875
27.2764
14.4148
10.848
19.3853
18.203
8.07776
35.0447
30.0606
19.3866
29.9112
43.8115
39.8937
-8.68318
-43.9443
-16.4227
-6.7269
-7.07845
-16.55
-47.7303
-85.3128
-88.9787
-56.807
50.779
160.619
149.474
56.4179
-0.149558
-19.9907
-33.6793
-38.1738
-60.535
-61.1301
-30.423
3.89859
4.13681
-24.0789
-36.6042
-26.9589
-11.0633
60.3465
67.4386
8.69096
-59.2267
-82.7491
-22.2818
22.7886
-3.2895
-1.52799
20.3846
22.4134
24.021
11.2399
2.70788
22.8656
11.7371
22.8514
28.3143
23.7265
13.3466
-1.18185
14.2476
32.9762
-7.9961
-64.0738
-52.7291
-14.7569
9.27965
18.3648
17.5868
12.5873
5.78949
-7.55738
-28.4578
-28.3615
-5.90154
7.23134
23.064
30.5257
20.2543
9.24293
-4.12432
-10.8763
22.3356
-3.41518
-55.3783
-50.0814
-21.2849
-3.77737
-11.1558
-36.9488
-30.5735
9.37651
49.5621
91.0914
82.8319
24.1178
-17.3816
-43.8883
-26.5987
-6.36144
-31.108
-35.0224
-51.4437
-15.9367
25.1481
45.9762
82.6657
67.3445
9.62285
9.60662
0.521998
-27.9827
-51.1343
-76.2308
-40.8588
-6.29734
-2.12918
-4.52996
-2.09389
-0.606594
31.2146
27.9566
17.6702
30.9676
-6.41113
-29.4119
-50.1112
-46.3112
1.73207
41.9593
34.1626
47.6876
33.3738
-18.4259
-56.6628
-7.08944
49.7248
46.9705
22.2852
6.37738
-10.9395
-15.8186
-25.8965
-35.3541
-10.0736
40.878
17.2085
-5.03087
-8.58152
-8.40568
-22.0403
-46.2883
-40.5945
7.87355
60.4906
44.3247
-16.9732
-5.57084
-1.95163
-5.37345
-6.70492
8.98839
24.3256
-8.27557
-43.7443
-36.9038
-15.0702
-11.4126
-7.70966
-7.35884
15.3359
27.733
47.809
24.8464
-14.8967
-12.5729
-6.76054
-6.26978
2.13977
6.31315
14.7103
17.9324
-7.11753
-2.0147
22.0348
-3.39822
-11.9985
12.4555
31.1339
20.0213
3.44866
-25.5744
-30.6869
-32.3911
-9.43525
14.683
-6.13836
-56.3147
-65.2432
-22.707
113.661
158.524
92.609
15.846
-28.4418
-47.3907
-63.5082
-64.0528
-48.0189
-29.7587
-6.03774
-6.23576
-19.007
-8.1439
-17.2145
-28.1762
12.8187
50.6775
51.8632
30.6137
-47.7052
-75.4041
-37.6039
-10.431
0.787811
-0.850584
52.822
67.77
39.186
23.1395
26.0783
29.8316
17.3067
1.90856
-4.69164
12.11
9.81696
6.2398
9.25782
-2.4452
-26.5286
-26.9911
-14.8055
-24.2781
-21.2967
-5.9871
-9.52282
0.795782
-4.81332
-10.03
-6.41546
-4.44075
13.4928
4.08591
-7.45402
-25.3286
-13.4274
22.5661
10.1351
-67.2583
-68.9729
-5.68824
79.0364
132.913
88.325
46.3448
-8.83773
-68.5205
-53.5015
-32.575
-30.8427
-9.12139
9.9124
20.9699
-5.98559
-32.8309
-22.5413
7.93514
14.7839
34.7368
16.9858
-23.2538
-58.5883
-77.3065
-43.9162
5.3617
18.0938
33.3955
37.0242
38.9588
32.8571
18.3012
-16.5838
12.4404
39.6531
39.9479
27.6698
-7.96768
-7.91913
4.47315
1.35978
16.6119
-13.3785
-20.1325
-12.5156
-10.4524
-4.83474
-11.0814
-15.8006
-8.49719
-18.0864
-22.6748
-20.1947
-25.2277
-4.51861
3.52751
16.5148
52.2624
49.0707
36.0609
-10.7364
-59.8776
-52.3285
-5.46213
35.2844
21.7638
21.7498
19.1066
1.63673
-23.8297
-21.8346
-17.8479
-11.8373
-13.7401
-15.7727
-4.55976
-12.1038
-37.2308
-14.1774
50.2724
66.8406
27.9302
5.73538
-22.7472
-21.6067
-14.5106
-21.7181
-8.4112
1.49272
6.08214
10.9116
3.30169
24.6163
28.5665
21.2955
6.01853
-5.52416
-21.9797
-38.042
-47.6057
22.4353
57.6446
50.6545
17.2203
-17.9973
-26.7599
-19.611
-16.0494
-15.79
18.29
17.089
24.1537
5.05064
12.9165
34.8275
21.9272
-2.15538
-28.1341
-26.6424
-33.7269
-65.417
-46.4885
-6.08743
9.41297
-14.7095
-42.2876
-7.98543
54.8715
86.6713
45.3279
4.87203
-8.82039
14.9872
16.4002
-8.7799
-21.4738
-16.748
-7.14167
1.87972
5.01081
-10.7235
-37.1263
-36.8267
-0.497401
16.7477
27.4295
11.6441
-19.2095
-29.4041
-15.1391
2.42758
8.04769
15.945
-5.42212
-11.374
4.87533
19.3753
25.1438
15.5812
-5.32075
12.4906
23.0258
27.0407
20.5083
12.879
11.3787
0.0321786
-39.2395
-64.9594
-21.583
7.27919
55.5953
63.5489
17.45
-27.6469
-53.5539
-40.9914
-1.67891
-3.35732
4.5181
-0.560469
8.08397
1.57242
-28.5124
-20.7465
11.8985
1.82779
19.4379
40.3247
0.523689
-11.0883
-43.928
-65.6125
-26.5274
1.02512
12.6781
5.62465
-3.62405
19.8005
28.2987
19.6091
14.5909
-5.70879
1.07902
8.34625
3.9996
6.05305
-0.853865
-14.082
15.1465
16.8193
5.62313
-14.289
-14.9556
-23.0324
-21.4456
9.53154
36.8515
107.045
95.9783
33.9171
-13.6727
-29.05
-30.8786
-36.4952
-60.3984
-66.7926
-23.0831
-11.447
-17.7239
17.6675
20.4857
-2.80015
-4.42531
-1.27959
16.2799
19.3387
-12.0943
-52.1593
-39.5019
-19.1162
-22.4065
-32.8267
-16.7733
29.191
95.2821
88.2757
24.202
19.8397
6.36093
-40.1561
-24.6283
2.0335
3.38785
16.3353
19.7141
0.00738928
-15.8913
-45.271
-34.8835
9.77753
25.4036
35.2026
22.2593
-4.3851
-27.8376
-12.3788
-9.43796
7.90607
1.85056
0.985222
-26.568
-34.0087
-29.7301
-21.7108
-8.20386
37.6136
91.9936
54.8776
5.26116
27.0973
64.6462
45.1966
-0.0248844
-7.44575
-36.636
-49.737
-45.2863
-56.8883
-47.0196
-42.7025
-44.4428
-17.0643
-5.29418
41.959
74.4608
20.2484
-34.5493
-35.3723
-4.79064
-3.30573
20.4018
5.86952
-5.46131
-28.5404
-56.0514
-46.6878
-26.743
22.1864
87.2655
65.348
37.0438
30.5099
73.7402
79.0097
34.3042
-11.0168
-30.226
-25.7953
-0.898781
-7.28868
2.58621
-5.19475
-17.7583
-31.0187
-41.2745
-3.7223
28.1655
-2.32742
-42.2576
-39.1241
-22.7295
-31.8198
-74.1523
-63.4589
-6.10732
32.3218
51.4877
39.9727
22.3869
2.57106
-4.3818
5.1037
24.1253
33.4475
42.8184
31.6987
10.6322
15.1683
2.02187
-17.2317
-13.9407
5.03535
1.34202
-22.157
-23.7498
-12.9382
-11.6005
3.83062
-0.115768
-14.2667
3.33732
-20.2579
-29.6219
-16.4101
-4.33774
13.6358
31.0666
45.1755
33.7881
35.2357
11.3581
-25.5556
-47.4245
-37.1296
-14.7536
-23.9719
5.33377
44.538
32.0095
9.23718
-37.7621
-24.165
18.5042
14.0303
41.9865
42.8843
-39.9523
-79.9597
-48.2851
25.4359
89.6473
48.8833
8.93207
3.75233
-14.7641
-12.3679
-22.2699
-43.6742
-31.8812
-29.489
-9.58952
22.4356
-13.9098
-23.1462
-18.4158
-12.6431
32.7881
41.1436
1.96244
-41.8769
-43.213
-12.4819
28.8576
44.2923
38.7594
25.0598
26.197
11.6389
2.96158
36.2467
24.8564
-3.55882
-5.62518
0.994876
-10.7501
-17.6222
-15.0065
-15.1337
-5.5645
0.894353
-22.0855
-10.004
10.8492
-0.600397
-25.4886
-62.4282
-64.5232
11.9691
99.175
98.2679
28.977
-15.6229
-6.60948
25.2802
15.4335
-11.9811
-33.0089
-23.7683
-19.3024
-10.0224
-9.50038
-35.1859
-25.0028
-2.80046
9.71282
25.5247
2.34594
-37.9869
-54.2109
-40.6274
7.02762
41.7251
18.0033
-1.56986
0.0710173
5.99931
13.6009
3.82889
-7.07241
7.37552
15.7457
29.2504
24.7144
11.5411
19.4803
31.8319
15.0507
9.97437
-12.4072
-21.984
-1.07299
-7.72904
-7.80331
-13.2463
-22.646
23.2045
30.0963
9.52309
4.49054
-11.1775
-16.5687
-9.78836
-18.1386
-6.53674
1.32226
6.15865
11.0495
-8.11457
-20.8213
-31.5346
-43.2484
-27.5833
-0.131619
-5.68755
22.7257
35.0977
10.4648
1.05679
13.8209
15.146
20.0824
27.7598
1.44728
-15.6649
0.651353
7.15299
10.7065
26.6408
-3.49072
-28.9379
-9.47303
-24.9439
-29.8652
-14.1548
17.6798
8.31775
-9.98569
-24.0138
16.495
17.9974
-14.0417
-18.1067
4.21921
-14.431
-52.4943
-29.591
22.9695
15.1297
9.96317
21.5814
50.8626
65.1848
41.9998
12.899
-9.46798
-33.2479
-1.56066
8.71319
-36.0085
-48.1386
-32.5156
-12.1791
50.9309
65.4889
33.1992
15.523
-13.5178
-27.0154
5.12645
10.0296
-33.0212
-32.4172
-24.5866
-6.54446
-4.8319
-6.71413
-1.83374
11.3411
3.81965
0.921441
14.3332
-0.71968
-28.8676
-30.2495
-0.402658
5.94125
-17.6494
-15.4229
-3.31889
-6.53742
-10.6577
-18.2193
9.35857
25.1333
27.0275
78.9666
105.633
55.7762
15.5461
-2.89463
-16.3564
-19.1013
-46.309
-61.6713
-48.1427
-30.5608
-7.07044
28.7185
35.1035
11.4176
0.920965
-7.51149
-31.1368
4.58222
-2.4768
-44.0807
-55.8968
-24.6087
-1.43758
12.4948
8.75709
-6.5044
23.8789
37.7126
37.7611
29.9829
21.3325
-4.66417
-20.131
-18.4715
-17.5997
17.9353
36.6194
-9.62096
-28.3467
-33.8577
-10.3413
44.9906
40.9411
36.4474
25.9073
16.6475
-5.2422
-14.5927
-14.134
-20.9907
-24.002
-20.0249
-26.1973
-13.2371
-3.75856
-2.87437
8.58407
28.7377
31.9447
11.9603
-13.3494
-31.5458
-26.4809
-23.993
-16.6448
-19.4219
-9.79953
15.7523
25.7245
11.4642
9.65546
-5.83579
-10.6138
2.76463
13.515
2.16608
20.0756
3.13938
-1.66374
-3.77406
5.0578
8.34055
1.94602
-19.4718
-21.6189
35.9012
44.346
24.924
1.82239
-3.55021
-9.03299
-39.5005
-71.3087
-51.6229
5.63669
82.6471
109.333
56.6601
-1.96912
-33.9886
-71.3616
-97.1559
-49.1729
45.3071
75.4612
28.4443
-16.623
-22.3352
-11.1152
-11.2869
-11.5982
-0.460769
7.81047
7.87906
7.31648
-5.11467
-30.3261
-44.2318
-24.853
5.91915
44.7813
49.5247
28.4255
-15.2928
-28.7371
-20.113
-4.50154
-8.82321
-3.18187
19.4091
32.9599
30.4099
56.2218
59.6212
4.90664
-59.0267
-93.6112
-50.2366
-8.70061
-10.9012
-8.48678
37.7654
84.6989
74.564
-4.56983
-17.7423
-8.93058
-4.7954
4.10683
5.73455
-15.6416
-30.5041
-48.8559
-37.796
4.69104
22.9444
16.3823
3.37341
-1.71233
5.33155
-9.42504
-18.1042
-38.3543
-58.1565
-22.8387
-13.1868
8.34145
45.4119
15.9375
-9.50971
11.1036
14.5411
34.8297
63.1781
54.6113
10.9464
-15.0843
-17.8456
-16.2508
19.2553
38.1746
25.7235
-9.54376
-28.3799
-15.3334
-8.74996
-16.6576
-36.8784
-14.7804
20.3191
3.73013
1.87594
-3.961
-29.2019
-41.8647
-21.3347
-6.73501
30.0088
27.543
6.27126
-1.72939
-7.70672
-6.98612
-14.8323
-12.2328
14.4234
16.1504
7.59526
7.38452
15.1448
8.83653
-2.4265
-6.46075
15.8413
3.53772
-0.867019
13.3183
-1.12666
-10.0585
-26.923
-43.6982
-45.0984
26.2497
89.9193
93.937
33.5215
-11.6298
-18.4508
-21.2881
-48.1206
-54.6132
-5.1216
11.6164
-14.1993
-12.74
-11.0615
-16.5867
-13.3455
-17.3895
8.42637
32.8711
28.504
-21.0881
-48.4847
-46.6874
-17.7743
4.74329
64.0596
76.7503
45.5858
31.7157
13.6392
1.92029
-34.2558
-39.2934
-9.92434
-6.76503
5.72868
21.1486
-6.70229
-26.4556
-17.3155
-19.5566
-9.46336
36.0513
61.1847
52.6975
-5.84054
-20.5466
16.191
15.2977
-26.2792
-28.498
-0.111271
1.1121
-11.7947
-14.462
-12.5038
9.62131
15.92
-12.5398
-55.727
-51.6732
-13.5364
31.9625
44.1625
35.526
10.8265
-19.8371
-49.9246
-51.1896
-13.9645
12.4203
8.65939
23.4082
32.2664
15.1989
-5.08703
-26.9775
-4.23248
30.5346
39.8704
24.026
-6.14406
-47.1564
-63.8297
-63.4946
1.77413
65.4041
84.2774
83.7425
48.408
-4.21813
-34.0426
-29.4463
-25.7014
-46.2474
-16.8343
11.4699
20.0139
53.0408
70.4284
41.3863
13.0287
-20.6462
-41.8086
-35.1185
-40.3091
-49.5567
-58.1073
-63.5519
-41.555
-3.91688
19.0082
16.7381
8.38738
38.1338
34.7963
6.13818
-0.0432123
-8.79328
-7.17289
13.5792
20.3748
9.1456
-6.89956
-24.2415
-19.0894
-3.17536
-3.88113
20.3779
52.2484
49.2229
35.8054
7.83718
-31.4148
-33.0412
-19.8818
-3.27825
5.60777
15.266
43.45
25.4858
-27.2138
-38.3232
6.15808
16.1954
-8.11233
-26.7857
-14.224
-7.68243
-21.0167
-35.1413
-5.34781
21.6675
19.6682
12.2043
-7.49308
-8.72345
-4.84672
-24.6892
-33.5389
2.5247
7.47897
6.90397
29.6037
36.777
2.69008
-22.4377
-8.79935
38.8467
40.5221
19.307
-22.5096
-27.0857
-17.7976
-8.70342
33.2108
54.0499
31.3193
31.3018
-2.88796
-15.2935
9.65211
-8.38885
-53.9249
-23.1241
-17.5856
8.41159
-23.0921
-62.9764
-9.93789
27.4242
-0.462731
-20.2347
-16.8553
-7.91253
-24.2972
-25.2526
-24.5833
-29.1204
-23.4398
-15.8995
1.64442
23.2357
24.0753
-2.06487
3.79028
2.93888
32.8777
59.2407
43.6357
31.8104
49.97
34.3322
31.9916
35.0989
36.4001
34.4072
-1.85933
-30.1819
12.3553
16.7282
4.93949
-4.80369
-13.4919
-16.8852
-14.9138
-46.2299
-41.976
-27.1259
-48.452
-45.6553
-24.1846
-4.5107
1.33564
-16.266
-7.41121
-19.7695
-4.46847
3.87681
-2.71186
4.09755
-0.16831
-12.2931
20.2391
29.7378
39.422
19.7623
-8.53935
-26.0283
-30.8948
-17.7836
21.3458
38.4684
16.7299
16.8973
-2.75858
-6.58932
-4.47411
-17.2514
-40.5982
-12.8255
27.7884
35.0286
3.02408
-0.848766
18.3618
50.7666
32.3589
44.6416
37.7997
-0.5008
-32.1112
-44.0366
-41.8161
-36.5575
-47.2898
10.7273
24.2517
17.7055
21.7181
-14.2062
-49.8636
-34.5363
-35.7148
21.063
57.1993
30.3453
29.9229
4.4285
-14.1733
-17.9439
-50.6401
-40.535
-4.66931
11.8761
29.1404
7.23182
20.9816
27.2464
-14.5204
-49.5869
-14.7153
60.5674
78.3409
25.8499
-10.7791
-26.3338
-34.8672
-54.2521
-61.2402
-24.7332
25.6085
34.483
27.1889
21.6376
10.9055
-5.94484
-18.4051
-26.1773
4.16791
44.0769
28.7186
-2.29906
-9.13053
-19.7664
-29.656
-45.5111
-37.8138
-16.1896
8.64607
56.8978
107.474
78.8187
27.1123
-13.2886
-21.5441
-5.33534
-23.6775
-5.80043
3.21085
-6.58396
-14.4165
-60.3662
-41.0079
3.78486
-0.193473
-7.00495
-11.9394
-6.22258
11.1886
-6.40458
-50.1831
-19.22
7.53011
20.8082
24.1688
-6.35424
-5.16906
9.80254
10.1287
49.6062
51.0661
38.1313
-1.8524
-41.8199
-29.1499
16.3499
28.4493
29.5299
9.05463
-10.724
-23.8523
-33.2012
-23.6953
-15.9327
-30.9068
-13.2878
29.94
48.8961
37.0358
-19.3878
-28.3257
-8.13494
11.4537
-5.79084
-27.6525
-11.8055
-5.20737
12.0102
26.9615
-5.63539
-17.1756
13.9241
36.2383
44.452
6.45953
-23.2604
-36.4636
-41.6424
-34.2873
-9.78252
15.7176
30.3712
34.1957
14.7871
3.04153
-14.3239
-17.9082
-33.9816
-33.3977
-14.9318
13.6155
23.3331
13.2196
-15.2402
-16.4129
-8.96056
59.3638
104.663
61.5275
-17.0899
-44.1015
-46.1744
-48.3158
-21.4312
-15.1024
-0.688965
21.4817
9.71622
8.67522
10.6925
-3.42258
-28.9859
-42.3491
-8.01782
47.0122
35.273
-13.9157
-41.5407
-5.36957
34.3303
8.32767
-4.32632
-18.6606
-24.0498
-6.58956
32.4138
89.5756
84.2865
25.5953
-21.9667
-42.6926
-30.0973
-13.8883
0.494612
-2.80657
-0.559893
-9.49239
-29.3448
-51.732
-53.568
-27.2719
7.37871
43.7548
54.177
56.8411
40.6354
-6.24586
-42.8309
-38.1096
-24.6694
-5.26646
-13.2673
-11.9531
-13.3753
-12.3064
32.9219
31.8192
-10.0867
-2.14434
18.9265
21.1423
-9.08951
-25.4743
-24.8564
-42.9213
-66.9787
-31.669
6.20553
43.4563
107.055
118.885
64.3413
8.48368
-24.4491
3.33313
-16.8313
-35.7505
-15.6951
-1.90092
4.36596
2.68831
-16.4864
-47.6361
-22.4092
20.1451
31.3689
2.7886
-15.4464
-32.8861
-55.7803
-59.9854
-37.89
20.2776
48.0912
17.7072
1.01162
-3.83624
5.30537
11.764
0.476367
18.9316
41.2104
36.5607
13.1646
-0.134078
-0.99251
-0.0600743
1.97873
3.76321
6.83355
-5.84629
3.6256
-10.3604
-7.20522
-5.87085
-37.6363
-8.34944
11.6393
15.0904
15.335
-3.03764
-15.5029
-13.3477
-26.7951
2.66227
10.6509
-6.03511
-6.21253
-6.75496
-18.046
-17.6557
-5.25796
-1.07436
12.9308
16.2012
21.8108
1.54137
-7.73478
-3.3082
1.03392
15.6664
13.2641
32.2135
45.136
-3.47131
-10.8156
-11.3914
-7.36782
-2.14207
-20.1215
-56.3401
-50.5294
-3.60755
4.13809
32.6574
57.4667
29.6385
13.1668
-5.43317
-1.40257
4.3673
3.52101
-2.55154
-6.01705
-0.98148
-8.57939
-24.8765
2.39655
24.2689
2.58791
11.1731
8.22833
-10.4724
-24.5571
-56.5321
-54.6811
-14.4516
2.42975
8.4464
9.28631
-3.99871
14.2285
18.7595
8.88354
0.620385
-10.9049
17.0586
26.1873
16.3005
13.0331
15.9112
-8.44061
-15.0375
7.86147
21.1337
41.6573
29.4316
1.60091
-17.7906
-17.1937
-19.5611
-42.401
-8.55885
20.9399
8.76752
2.17051
-22.3706
-35.9201
-20.6035
-5.63001
4.96728
29.0941
22.9362
9.87589
5.19799
-12.4275
-24.4088
-17.8039
-2.35549
-3.99676
21.4898
18.3763
-5.35599
-10.2556
-2.21928
3.33587
-2.92422
-22.3291
-40.889
19.362
51.4316
26.4047
-5.06232
-21.6433
-16.4733
-12.5064
-2.12329
9.46922
8.84113
36.7838
32.7196
17.9332
7.37945
5.92481
6.44411
-0.0209747
-14.8606
0.819865
-0.140878
-26.0411
-43.0666
-38.0879
-16.0201
-15.6525
-10.8305
31.0448
18.0053
4.19767
9.50308
0.201441
-22.3045
-43.8097
-36.7741
-0.215087
27.6414
44.5149
44.5324
19.9353
9.73325
-17.2455
-17.6366
13.7173
21.6759
40.2977
41.6327
-10.6275
-24.2306
-20.067
-38.4884
-25.6073
4.2302
34.4459
23.5327
-11.0231
-23.1626
-21.0754
-7.85905
-10.0438
-15.7289
6.94646
11.1154
-3.09198
3.22623
-1.68923
0.938922
6.79089
-9.29287
-2.15469
30.623
4.70353
-17.0735
-15.8047
-17.0895
-14.1232
2.23475
23.2169
19.669
19.4519
8.25342
5.06838
-12.2153
-2.61158
22.6606
0.257225
-39.4246
-8.62733
15.7983
7.37629
0.40522
0.544634
-3.57868
2.79936
-3.84977
9.83325
-3.07312
-23.0527
-19.3585
-10.5785
11.7413
16.2851
6.1385
-18.0799
-11.618
-7.0585
12.3468
11.7677
25.5855
16.0852
5.40062
-5.44948
3.89294
18.6922
20.5038
2.74381
-4.95202
-11.1755
-7.81523
-26.0035
-16.3985
-19.7887
-9.42613
2.98753
-1.17323
14.9202
9.08668
-28.997
-15.7149
2.5055
6.53898
10.6318
1.38036
-3.10654
-4.09443
-17.3232
3.92114
19.8358
12.287
7.46525
-2.628
-9.03009
-1.0584
-6.0303
-15.1535
2.24749
27.2345
32.6345
16.2299
7.42319
-0.742384
-7.16369
-21.7699
0.879224
18.3131
15.4977
-1.58751
-14.0491
-4.60401
1.70181
-11.6552
-32.2809
-20.2758
16.1243
29.6088
15.3123
1.23977
-12.6374
-32.761
-29.391
-13.6063
8.76099
29.1494
3.46175
-4.7732
-13.0539
-14.1861
-3.81714
35.6411
64.7579
35.6456
20.6946
3.65356
-14.6109
-30.0299
-39.9379
-59.1266
-15.8907
11.6292
19.5175
15.3195
-5.75537
-17.9109
-17.4906
-31.4086
-13.7132
8.56133
8.79044
13.076
17.2813
16.9832
17.6756
11.5138
-11.1413
-12.2284
13.4657
21.8053
-0.876801
-7.6754
-6.66784
-2.91604
-1.62374
-17.5294
-1.28429
21.4906
41.2907
55.8753
32.9299
-9.79368
-43.3776
-57.0243
1.83107
22.7638
19.3562
-3.49787
-24.8038
-26.4235
-30.1432
-62.5208
-24.0744
21.7906
55.6833
70.8694
41.8644
12.6472
-10.1188
-45.0702
-52.1335
-32.4302
-9.75834
11.9187
-0.338313
-5.00503
0.640602
7.10357
-5.91273
-8.14486
-4.58712
10.8341
2.11682
1.56644
7.32672
44.635
65.1365
17.1138
-21.4328
5.20866
13.9009
-5.57516
-22.9901
-14.1235
-21.7007
-24.9051
-38.6734
-24.8211
11.6625
10.2417
12.1813
28.3958
14.5115
-10.4867
-37.1293
-31.0347
-18.7497
15.8441
37.7171
14.3767
-10.7434
-0.254447
30.0355
64.8213
15.8046
-23.2202
-0.741311
-0.78851
-11.7761
-16.2276
-24.0945
0.718842
11.4282
3.80628
5.63549
-10.9003
-18.1374
-7.15976
-29.5701
-39.8868
20.8745
21.3359
5.1476
-11.3187
4.2033
22.8933
19.4931
7.16691
-2.21372
34.2235
40.6198
13.1888
-1.72462
-4.13971
-8.71603
-21.7712
-40.3286
-28.4345
11.3517
5.87973
-12.2967
-8.30959
-15.0505
-21.8482
-23.1587
-9.90369
29.4628
23.9438
9.94033
-2.35779
-6.99331
-2.89495
-8.70082
-16.5532
-21.8336
20.8513
34.6981
38.0072
22.3688
7.9764
-7.20185
-22.7136
-32.3896
-7.10587
22.7819
32.4452
-8.95349
-13.925
-8.09274
-25.5595
-27.0127
51.0718
78.8265
34.7481
-7.35904
-42.2161
3.69317
39.1749
5.51495
-23.1946
-19.7402
-20.2885
-16.0085
-23.3822
-21.5632
-16.0261
-15.58
-11.8873
4.4543
1.23737
3.16793
-25.0524
-28.0673
4.93327
14.1358
2.77194
-22.3436
-39.2668
-9.27461
13.5011
12.0682
31.3286
45.8364
77.1609
68.9436
27.0011
8.24853
3.5442
-7.11479
-9.65512
-20.4953
-16.4891
-12.5701
-14.6185
5.67432
11.7163
-2.86593
-16.4096
-31.579
-9.11186
-2.95044
-13.743
-17.0871
-35.5221
-28.2579
-18.7693
-9.83081
-10.6582
4.25553
31.1885
35.6649
7.53254
-9.5343
6.44601
17.2873
15.7523
-1.36982
-18.7695
-2.42825
16.6224
39.4225
46.6398
36.9174
27.6154
15.6297
-4.1173
-28.6458
8.99459
-9.99173
-23.0382
-6.7099
-11.0437
-16.5911
-17.619
-32.6096
-22.2536
-19.9939
-14.9453
-4.96403
-12.6718
-19.2945
-13.1535
-14.2495
-6.04297
-9.99378
4.48583
28.7292
21.8724
23.192
1.99284
-9.1556
12.5132
10.5366
-12.8075
-17.7339
-15.5956
10.0715
40.7816
41.6131
62.1727
137.285
97.5065
21.1825
-41.524
-64.9195
-57.8472
-47.7393
-68.6037
-17.7018
32.9567
13.0043
-38.1661
-47.0448
-17.879
1.43724
-9.89528
-3.2979
-11.2635
-9.54897
-27.5127
-80.019
-64.1509
-26.7954
0.829167
40.7763
47.0477
46.5752
43.0077
7.15558
-8.72521
-10.968
18.214
50.0734
71.5493
62.1565
29.8386
3.60515
0.131729
12.7747
22.9195
2.73403
-7.11187
-15.2101
-16.7157
-25.1223
-17.8902
-18.5907
-18.7332
-30.6394
-42.8848
15.919
13.6951
-5.48509
-19.2094
-11.1548
-2.08658
-9.22484
-19.2765
-22.2992
-9.63514
-36.1712
-45.9648
-17.4199
2.44416
18.6272
28.8457
53.8933
64.0122
47.569
28.7982
6.97498
-0.0738877
1.49732
-11.7374
8.50389
1.49915
-3.66562
1.68844
-8.37987
-20.7013
2.29835
1.60923
25.1306
3.46512
-10.2633
-8.82478
-15.3042
-43.688
-54.3191
-34.8656
4.5184
21.2266
4.5172
-1.54812
-0.902236
13.1971
20.6028
21.3138
14.1058
-6.99473
-4.93057
1.86729
-2.48927
9.70083
7.58417
4.18134
-20.2902
-8.10136
28.6126
17.8978
-15.6985
-21.4697
-4.90661
27.1543
45.2448
31.2832
23.4999
10.2791
1.4629
-14.5617
-31.8794
-25.103
-22.965
-19.8227
-37.2886
-20.5573
-2.34545
5.12464
0.0517111
11.4484
-3.70866
-21.6597
-31.1498
-14.5231
-11.5786
-2.26052
18.1473
36.4068
45.3097
28.3181
-3.41415
14.208
1.4394
-5.46852
8.32442
5.57439
6.61856
10.8695
0.5571
-8.21609
10.7454
22.3702
17.5429
-7.09967
-23.7817
-19.272
-20.4045
-40.5813
-35.9255
-9.82838
4.51758
18.2871
17.6239
17.8794
16.9626
-10.1075
-4.64538
-7.20727
0.619697
15.6828
0.211392
-7.6792
-5.87779
-12.3719
4.69438
1.24985
-0.123801
13.0367
-2.59413
-31.4716
-38.496
-17.1156
39.1452
56.0324
58.256
53.3527
14.1607
-8.0175
-25.6286
-33.2267
-14.6916
3.82175
1.4916
-2.37897
-16.8406
-15.3004
-17.7936
-14.5246
-22.2006
-6.2973
32.5156
3.89267
-21.3248
-26.1728
-29.1565
-19.8246
-15.7234
-20.8758
18.9822
46.2195
23.0364
12.5044
19.9787
7.01234
4.07702
25.9428
13.7707
10.6053
30.6729
31.1998
13.4879
-4.80445
-23.9801
-26.0712
-33.6257
-13.0883
-5.25707
12.4141
3.5744
-3.63326
-6.0226
-21.3385
-27.8003
-3.24581
18.4058
1.52586
-1.58628
-7.5527
-4.35927
3.1479
-21.2272
-8.77891
12.8088
7.21551
27.0971
35.5426
39.6247
30.401
2.81771
-30.4208
-28.3996
4.49957
1.12312
-9.91293
-22.85
-20.564
-8.13262
-14.9668
-34.8763
16.4123
31.7675
13.0071
-9.42197
-2.59789
0.446646
-26.955
-30.2149
-1.41195
9.42795
14.9329
3.40059
-10.5708
5.85422
1.48327
8.86974
21.9473
7.64355
7.80283
22.4276
8.04294
24.9638
19.0008
-8.52797
-29.0425
-13.1801
-7.46844
-0.663153
-0.904106
3.97483
19.257
22.3711
4.73905
15.1386
8.28319
-13.8229
-22.5852
-13.6078
-0.659394
9.18694
-7.42878
-34.8643
-23.4342
0.272832
-12.598
-21.9614
-1.26882
4.70144
0.48291
-4.51215
-15.3476
5.86839
18.5095
6.57537
12.4723
10.2066
8.29977
2.62093
-1.13732
22.7511
3.78012
6.40552
9.309
6.41153
20.162
-4.21309
-12.4371
1.29034
-5.55157
-13.3951
-8.26585
-11.0953
-15.6996
-36.5679
-16.035
14.595
9.11573
8.45813
11.0059
8.10948
13.9574
7.19486
-14.9347
8.08715
23.7355
12.8797
-6.8941
-24.784
-18.0619
-5.02744
8.16403
-8.81166
-8.80837
32.7701
14.2613
-5.66131
-3.19294
5.06452
7.62252
-14.251
-25.5989
2.81035
8.5369
-5.34647
-10.14
-3.59184
-0.475789
-15.3265
-13.3054
20.3537
27.9175
21.4937
10.8855
-10.9088
-11.761
-14.0306
-8.82374
10.9001
26.7119
11.7662
0.846385
-11.6213
-7.11514
-16.8443
-21.4273
-19.6628
15.7677
28.0031
43.3798
22.7841
8.70342
-9.23789
-34.2917
-42.6596
-33.3403
9.472
17.9461
11.0465
-0.0235683
4.78443
3.49668
-5.06353
-11.3551
-8.29855
22.0744
22.8294
-3.7197
-12.4728
-28.3139
-36.2093
-37.9942
-8.31519
34.8387
44.0082
32.9092
-1.02432
-4.74608
-13.3718
-25.4112
15.1205
18.6153
14.2285
16.184
9.85915
-0.855448
-7.29523
-16.9645
7.85921
-1.4906
-7.69903
-2.39163
11.0732
6.16622
-13.986
-11.0816
11.9666
5.24206
-0.529755
6.11357
-8.02354
-3.22325
-10.5853
-11.6257
12.915
3.86085
12.1445
6.85325
-17.0026
-14.8588
-1.14032
-13.2176
-32.6096
14.8167
39.1502
17.6949
-23.2362
-16.4135
-4.20569
1.06573
-1.05778
-10.3923
-23.8276
12.4903
28.9627
18.7243
1.00428
-14.8613
-7.95564
6.40514
-0.515086
9.86176
35.9175
3.5509
-12.6566
-1.48424
4.35894
5.41892
0.719567
-18.145
5.4825
8.51398
13.8753
1.54396
-24.2682
-14.8076
-13.3629
-16.422
21.9162
22.3733
18.6081
16.1783
-5.7704
-26.2499
-35.2854
-21.9774
9.62522
5.63926
3.47405
7.53368
3.99925
7.02599
7.64087
-4.88045
-23.6842
-2.03505
4.39573
14.9464
-7.63361
-17.3132
-21.7161
-27.0196
-11.9256
15.1218
26.3069
27.6816
11.6338
9.40839
2.58844
-10.9501
-5.15569
32.7758
47.8097
40.5195
31.5033
11.7858
12.9324
2.3885
-5.61168
-14.7467
-24.8679
-21.0358
-47.2463
-120.031
-153.767
-131.11
-80.0945
-4.39495
51.4099
85.3759
63.0202
40.1809
32.1887
37.7433
44.4456
32.4686
55.9653
62.0202
48.2521
35.6267
33.2053
35.7565
38.6174
55.7443
62.7058
45.4145
40.1926
-9.50266
-45.8964
-56.3655
-68.3172
-79.3746
-81.3541
-84.0094
-83.1113
-46.6538
-42.3359
-31.5907
-40.6164
-34.0906
-26.2301
-30.7013
-23.119
23.3664
57.6898
47.1503
10.4272
1.88771
2.96482
-1.76686
-9.92415
24.43
24.4518
26.0164
28.4039
17.1784
9.78527
4.59249
2.04459
21.87
17.6796
25.4164
34.7181
25.4373
31.9065
26.1341
-12.1547
6.27433
23.6477
29.9759
17.6081
-2.59053
-3.15187
-10.2828
-18.9231
-42.6658
-37.9867
-4.66353
-2.5619
-14.0799
-15.1129
-12.296
-9.49049
-25.6005
-22.0931
-0.690033
-2.19099
-14.7512
-23.1455
-12.5271
10.1999
-9.46771
-5.40986
33.0294
36.186
34.9491
31.3824
10.6974
4.27315
-11.9224
-31.9176
-61.1092
-41.0441
-42.1451
-46.2649
-60.6466
-35.4533
-11.9989
-0.710094
-6.20203
35.6624
50.807
54.3013
42.1753
44.6721
45.0468
35.521
7.52049
17.1044
40.3638
62.7491
58.9101
37.2914
37.4223
32.798
28.9306
13.9429
-15.1837
-16.9023
-24.0308
-50.6638
-54.938
-53.59
-62.1791
-68.2969
-61.3031
-48.02
-39.1733
-35.1348
-35.0355
-31.4929
-11.6556
-11.3915
4.6097
26.0921
35.9096
37.1668
30.8148
15.5577
12.4259
-2.04915
-5.11882
15.2152
4.90627
12.414
10.868
3.36265
8.71304
4.31127
-1.39294
17.7517
25.1923
25.0087
17.9394
9.03777
9.1899
2.21237
-10.7391
-3.93099
24.5848
27.9756
20.6779
-0.0300641
-5.57453
-8.86048
-11.2507
-29.1876
-25.9634
8.44426
10.7247
-11.9236
-14.5903
-13.4977
-9.89408
-12.9516
-17.7129
-14.1936
11.8655
4.66993
-10.3729
-14.9088
-9.58205
-10.986
-14.2161
-18.303
5.23908
15.498
17.0014
1.87752
3.59546
4.18447
3.17038
19.9278
39.1535
22.5877
11.6124
9.83486
-2.13618
-4.64589
-19.4593
-4.67302
6.04699
1.06728
2.23739
5.74887
-11.5119
-7.98532
-18.5457
-26.2533
-7.69795
4.38449
5.65184
-2.03101
-15.1585
-9.72381
0.479419
7.51784
-7.61685
11.6777
19.9555
7.98673
7.72114
7.85861
2.47695
-2.18337
-19.11
6.80111
4.0447
-9.49312
-15.3958
-9.99286
3.5079
-12.7351
-31.2952
8.00895
18.8568
15.6708
27.7266
16.3172
7.83555
0.144014
-4.09144
24.4588
19.7689
15.0897
21.1572
3.57601
3.09725
7.41053
-17.3176
-27.101
-9.83778
-10.7268
-9.73337
-38.5172
-38.4969
-24.7038
-17.0872
-26.1325
-27.4805
11.7582
24.0944
-0.340932
1.32246
8.06946
8.79506
2.19278
0.150557
17.6519
30.6434
28.1756
14.5532
15.4786
21.0084
18.4611
2.36444
-10.3567
11.8507
11.7042
16.1279
-10.327
-18.9118
-15.7683
-16.3545
-19.2864
14.8874
15.9589
12.712
-2.32603
-10.4154
-21.4843
-26.3503
-9.45107
39.6907
24.4139
0.437866
-16.4352
-50.2638
-52.8618
-37.3302
-32.4062
-5.97408
-9.20801
6.52425
23.3098
8.61701
7.36402
11.0719
0.692992
-3.6519
22.5076
33.7396
30.8323
7.87186
21.9342
44.0741
48.5948
22.7084
-1.62807
15.7131
14.6024
24.7189
43.7905
-2.24646
-61.0975
-115.405
-121.586
-73.9663
-39.4249
-6.4087
-4.09645
-3.4608
-2.20415
-15.1577
1.8601
31.3464
61.4248
74.905
80.831
51.3391
19.2888
-20.7864
-41.5005
-46.8824
6.80167
82.4663
101.975
57.4667
8.46797
-26.7647
-63.592
-99.5735
-81.3953
-14.6414
14.2208
15.082
-8.60153
-15.2433
-5.10827
-38.2608
-86.3685
-102.259
-49.8609
29.7362
78.2552
69.0639
41.1755
41.5275
58.7436
63.6071
52.8786
55.6304
45.4214
-13.2421
-44.1621
-60.9407
-43.1782
-20.405
-37.2414
-18.7257
5.14616
-2.44283
11.1263
46.7823
56.1044
21.4813
-38.0147
-32.5532
-37.857
-35.0471
24.6407
58.5981
21.3289
-39.2076
-61.3653
-65.9003
-87.2543
-80.9693
-24.9165
10.4568
29.8805
23.4834
-22.5941
-57.5557
-74.0866
-59.3317
17.6806
56.3228
69.234
71.2241
51.5794
25.0697
47.8493
97.6547
101.195
89.2306
84.0725
61.7738
41.8805
34.9228
58.5302
97.7793
93.2176
37.3935
-57.1201
-118.352
-129.343
-138.961
-155.191
-202.286
-225.393
-160.638
-87.3561
-23.5082
33.7628
92.8469
126.067
102.444
32.8489
17.7222
13.6867
-4.73202
-44.4481
-20.2467
88.5321
140.039
140.913
155.81
122.224
84.2142
4.72415
-82.9971
-131.901
-168.162
-154.143
-127.566
-88.3577
-108.504
-97.2859
-51.8099
36.3293
123.615
221.988
222.742
118.332
65.3782
-53.4299
-127.449
-115.411
-32.0638
44.7729
63.897
41.2148
81.5059
113.065
41.8864
-57.8109
-66.2745
-61.2534
-77.4172
-118.371
-105.399
-125.823
-70.5878
-9.37088
-30.195
-24.6905
2.5238
103.08
174.47
217.368
210.716
153.358
76.6544
-14.6935
-63.6927
-77.9314
-49.8383
-25.4059
-71.0989
-112.887
-136.428
-155.911
-164.465
-137.64
-59.0787
71.7154
98.9298
47.5607
-6.51586
-29.3158
-43.2444
-48.9488
-35.0586
-12.4621
33.7251
90.3223
69.0756
79.505
123.019
141.735
90.3086
71.4603
38.184
45.1915
99.3208
72.7151
8.75883
-20.0097
-26.0627
-47.6522
-49.5021
-46.066
-33.4374
33.5547
41.4446
1.59177
-5.74704
-24.6244
-32.8884
-33.5243
-36.3281
-25.6143
-18.7994
-37.8808
-76.0991
-77.6202
-62.2179
-76.8479
-94.3897
-113.535
-115.129
-62.1504
-29.2545
-10.4178
67.6723
100.909
108.204
100.419
16.3995
13.4987
83.6148
185.914
193.154
136.648
91.4209
59.6592
7.89287
-67.3616
-143.46
-148.301
-96.2303
-27.7008
4.31129
9.8531
-30.4931
-79.0733
-64.9933
-29.9731
-13.1627
-47.7418
-100
-83.8853
-59.1273
-52.3146
-21.2681
8.1101
47.0161
87.2855
70.0021
28.2482
29.1628
27.4005
76.1687
82.4083
95.2957
205.722
245.053
125.486
36.9668
31.9973
15.3755
-96.6378
-145.548
-123.235
-95.8418
-92.3798
-115.11
-117.112
-30.0408
44.9311
47.1372
17.4764
-24.3651
-35.6065
-45.0878
-113.623
-130.458
-55.9428
32.8643
63.4672
57.9459
14.5472
-20.2711
-37.8664
-19.544
61.0453
91.9786
76.6807
64.5087
70.2242
65.7093
14.9406
-7.27004
-24.5643
5.08292
34.6187
-41.7738
-55.4499
13.8798
-11.3271
-1.52664
43.9855
51.2175
23.0307
-10.9184
-66.9665
-77.4073
-38.2937
25.9006
29.0472
-17.07
-7.26965
-12.2401
-39.7011
-106.171
-75.9715
2.69514
74.4598
98.2181
31.4707
-3.39001
-3.33973
16.7269
33.2137
19.0681
-9.03254
-0.525847
-15.5327
-79.3936
-33.9764
30.2168
45.5129
9.8096
-24.9998
-15.1643
-24.2183
-5.86342
0.300339
-18.303
23.0715
33.081
24.6197
7.49883
8.51233
-13.6002
-28.3524
22.5612
72.1852
63.3574
46.6294
55.4367
20.5531
33.5566
29.0278
-40.3484
-78.9903
-85.2577
-82.8659
-79.9616
-1.20003
107.559
150.132
136.441
84.0323
21.2722
-75.0697
-190.597
-231.077
-155.235
-170.312
-182.237
-92.4703
-36.708
9.8981
62.4844
75.6449
103.933
114.706
117.39
101.552
4.38063
-67.2091
-43.885
33.5351
104.437
138.058
159.183
165.256
117.027
53.3133
-22.266
-34.9694
-10.7384
-55.0576
-84.9144
-64.4585
-26.1915
-14.3871
-34.8917
-48.5673
-15.7924
-32.522
-99.7669
-134.434
-70.6903
2.91986
14.829
24.0307
81.3057
165.494
148.251
53.4453
-39.4621
-43.4976
-39.3632
-94.3653
-130.747
-136.729
-118.506
-158.5
-144.263
-74.5734
-34.2204
-43.7875
-38.6128
53.5984
175.147
196.591
178.193
200.174
234.739
146.306
63.5527
27.4972
52.9338
133.308
131.114
75.037
25.5052
-86.6496
-202.211
-233.202
-248.452
-208.838
-137.685
-140.294
-168.535
-121.496
-70.8813
-26.6374
14.4979
88.0313
144.751
117.365
66.1271
24.06
27.572
69.4008
119.875
240.627
287.606
219.651
157.393
107.713
34.7096
-10.8856
-70.138
-112.729
-144.446
-196.433
-184.809
-121.412
-117.384
-86.2359
-58.7946
-84.0765
-94.004
-123.234
-137.809
-98.7097
-46.4329
20.2318
54.9652
24.5986
46.8755
119.121
183.522
156.61
76.055
-7.8488
-17.5014
88.399
196.106
155.385
65.9992
-23.9187
-53.844
-24.5806
-19.7979
-79.7948
-31.7591
-25.7206
-48.7648
-12.7255
-55.5041
-92.1704
-52.3627
-2.09097
4.67152
31.8041
22.3933
-137.381
-253.723
-220.527
-121.209
94.7666
293.583
235.398
130.522
170.805
161.795
102.803
130.746
159.576
59.8162
-23.0666
-123.209
-169.192
-128.707
-191.607
-193.959
-36.0703
-40.7573
-77.1558
-18.2654
25.4674
21.928
35.1728
-20.6277
-141.455
-211.75
-177.506
-82.1891
34.1708
145.932
185.594
127.904
98.8846
64.1003
90.9784
82.3231
43.4326
41.2268
61.607
44.5924
21.2724
-5.04243
0.0650445
1.1603
16.5053
18.8637
25.9775
22.3492
-44.0729
-64.695
-32.7753
-30.6289
-44.2531
-77.8763
-94.3815
-41.4065
-9.6616
103.126
141.079
84.7707
-35.6265
-120.736
-117.334
-30.6676
44.1391
40.6413
17.5056
-32.1162
-100.894
-110.324
-57.4711
57.7232
78.6367
94.4603
185.919
118.795
8.81219
4.3037
51.2719
9.73058
-138.202
-243.021
-224.111
-184.182
-153.156
-139.093
-64.6948
31.4561
70.9501
75.0312
50.2431
75.5724
151.217
192.652
139.637
140.363
125.96
76.8718
34.0185
-11.3491
-1.7174
-50.0635
-114.902
-78.8763
44.6194
87.5229
37.3408
16.0649
46.0963
42.5308
0.751791
7.73837
52.9416
10.6502
-67.2029
-102.344
-107.881
-160.403
-179.295
-60.5562
73.4422
135.91
142.406
115.684
21.7384
-79.5574
-138.062
-125.844
-103.075
-33.9007
-23.5723
-59.3228
-87.7825
-68.7061
-37.1713
-9.37526
0.675002
1.03697
-39.0137
-26.0416
17.112
43.612
83.4952
144.126
171.412
201.319
205.039
147.768
109.292
19.3608
-63.6578
-75.3803
-71.1892
-102.832
-89.5736
-39.3304
-9.87031
-3.46949
46.6764
35.7791
-7.32564
-11.2838
-27.3323
-35.6357
-47.8759
-122.038
-106.094
-77.6082
-89.9959
-78.9583
14.7346
54.8045
77.6256
94.4176
88.3699
48.1099
26.4619
53.4772
93.5956
99.089
112.078
87.3297
11.1359
-137.27
-219.825
-147.22
-17.2292
-4.03431
0.783188
-13.3298
0.145526
7.49012
-70.5225
-67.5866
-7.04131
45.7516
73.4459
17.6957
-18.3398
-44.4589
-104.293
-64.2838
11.8029
91.6777
117.842
160.415
180.554
187.004
171.595
140.071
35.4158
-34.5514
-91.0957
-138.952
-241.749
-275.848
-204.491
-206.171
-237.43
-185.461
-43.5671
10.4967
57.7723
92.6911
131.6
142.327
71.64
50.5392
54.6983
62.1755
68.6675
58.2279
77.6639
94.0211
107.398
111.346
73.5082
60.1013
86.779
86.0688
66.954
24.4398
-24.2417
-47.2656
-64.0498
-63.2843
-82.5956
-103.133
-108.79
-109.267
-100.677
-115.28
-120.669
-89.2093
7.20264
6.9657
-44.4702
-10.3475
4.56376
-9.62125
-33.0256
13.654
69.8634
104.815
100.667
8.84218
-44.119
-55.9689
-53.8053
-43.4818
-54.7538
-1.48828
70.4071
98.3967
94.7736
139.055
136.275
112.629
168.582
231.574
125.739
-41.5557
-141.388
-190.917
-245.065
-282.414
-205.268
-82.0089
-35.4306
-0.759224
46.8532
21.5586
16.2765
6.77254
4.1861
3.27876
13.5232
35.5373
20.6567
5.85003
22.3665
58.6853
57.4203
50.4604
96.9499
182.656
152.034
70.6338
67.4974
13.0083
-105.269
-105.361
-36.7807
49.5573
117.095
59.6759
9.17511
-50.3022
-146.227
-247.221
-239.75
-149.695
-47.4764
17.674
52.3607
65.8852
31.3785
-28.1985
-70.1803
-75.881
0.0100312
84.7781
77.3411
36.2364
-50.9686
-80.3777
-86.5779
-90.6951
-59.5032
10.3528
69.1467
87.2515
91.4076
87.166
75.477
76.2599
86.4248
119.499
78.2554
50.6521
74.1502
42.9124
-15.9914
-55.3926
-73.3558
-55.0932
-29.8987
-8.10837
-16.9538
-1.55328
11.765
-3.48334
47.1528
53.0274
1.99655
-28.4172
-57.8392
-106.476
-115.943
-71.7526
-69.9639
-101.62
-46.5319
49.4457
62.6596
61.1599
104.213
77.9068
-5.78866
-52.1846
-29.6005
14.0445
9.2612
5.92132
-17.5106
-59.2078
-54.4163
4.37048
11.3678
-18.1962
-49.5794
-20.9101
5.42674
-6.4411
99.1899
169.562
120.078
67.1796
34.2976
22.9309
7.48196
-75.224
-121.116
-125.652
-116.069
-68.9714
32.5822
82.1763
78.7481
81.2417
64.8055
-32.3162
-90.2923
-100.688
-102.382
-107.041
-65.0203
28.1804
93.2285
93.2313
71.3591
71.7413
30.0937
-1.19475
70.2626
113.605
25.9643
-47.3358
-29.4534
-6.52981
-16.8258
8.58881
52.7384
17.8932
-74.939
-91.4517
-68.4851
-43.821
-15.1426
-4.22225
24.4498
43.372
31.42
33.6845
20.4916
-5.6243
-16.6533
-21.7396
-19.9525
-3.76955
34.0381
55.7909
46.1966
69.7289
12.7602
-35.6871
-14.051
-9.18066
-18.2972
-41.0278
-105.427
-124.956
-91.9558
-36.6904
9.89651
5.36465
-5.07596
18.1117
50.7784
31.0882
10.2848
16.9999
-41.6647
-99.6924
-78.3869
-3.95712
28.7632
7.98976
39.5961
64.8088
102.606
98.3733
124.471
130.573
107.979
76.4875
54.1113
38.5212
96.3527
85.6286
-16.0608
-72.6346
-111.764
-191.777
-257.591
-262.978
-171.014
-33.2794
-7.19537
-45.4021
-10.7688
13.3894
5.54506
7.32473
-17.8213
-7.43506
30.4092
39.3293
2.31757
37.74
141.971
180.85
151.219
141.148
145.988
98.736
4.09551
-56.8093
-54.4681
-9.15965
1.3285
13.0086
-6.62925
-57.5007
-75.9412
-59.7987
-47.4692
-11.3076
-12.2197
-40.2377
-64.7275
-65.2897
-35.5346
-0.27456
52.7195
68.0019
-7.86142
-47.3827
-76.1853
-114.995
-118.661
-91.891
-35.0059
5.39051
43.89
106.323
149.883
118.288
64.7043
24.6731
-3.1898
-39.9421
-136.251
-101.733
4.76071
23.5933
7.31447
-14.0739
14.9895
79.9045
100.393
102.315
78.6949
63.3625
22.0885
-21.082
-40.7008
-115.796
-175.659
-78.1528
-0.484096
21.6334
107.297
147.421
182.03
115.339
15.3161
10.8656
59.3407
28.1972
-47.2045
-66.4676
-85.2742
-141.342
-159.788
-163.902
-149.564
-90.7436
-22.2954
-18.3181
38.322
47.9989
63.1449
43.1012
-0.103781
17.6031
76.363
110.882
74.8213
51.396
34.9678
-5.48179
-100.174
-154.002
-129.401
-37.4706
71.888
94.9131
67.3355
39.1842
26.8621
15.0672
-29.1815
-19.3399
-25.3233
2.04255
66.2268
64.6613
-19.4491
-31.4413
-45.8101
-35.1576
26.8896
106.787
120.812
67.0077
-16.9652
-38.1807
1.84595
44.8506
14.7719
8.63418
3.04935
-41.2119
-91.9516
-111.37
-110.345
-76.1482
-30.3752
9.07546
58.9357
40.3231
-9.93446
-35.5311
-28.0711
-4.50632
-6.69753
21.5599
37.1823
-10.6927
-38.0837
-33.3916
6.60109
17.8343
21.4089
62.8237
57
14.7788
34.1328
28.5067
-17.3053
-27.2757
-27.2297
9.89368
58.6529
1.41236
-42.0166
-36.4509
-11.3815
45.5791
59.396
56.9671
56.3959
4.30907
-49.5499
-78.0323
-47.2786
-28.484
-8.84897
-6.97999
-65.1439
-54.5817
44.8004
84.0793
-26.6978
-42.4274
79.9184
123.384
59.9288
-46.7812
-132.797
-130.001
-134.081
-72.7375
43.7118
131.338
65.177
8.11359
14.5917
8.23422
14.125
18.7554
0.11202
-27.9045
32.0941
44.657
-39.1384
-45.9604
31.9494
78.6862
82.3036
52.199
5.95051
-19.6966
-18.5185
2.94207
11.9393
18.3906
-6.09032
-26.8359
-26.5426
-47.2377
-63.9691
-61.0246
-28.3668
41.0025
63.9812
33.6748
-42.7366
-71.2416
-23.8623
-7.09959
37.2556
56.0746
-13.12
-87.4543
-76.527
-42.298
-18.7591
14.4018
74.723
101.465
61.7748
36.1929
24.5788
3.1782
-20.1888
-74.2635
-107.216
-102.694
-17.9012
33.6353
41.6808
25.7685
63.3618
106.825
73.8955
-9.22953
-91.886
-60.5312
7.71781
33.344
59.7354
86.1065
110.039
34.3582
-91.0125
-124.204
-33.4282
20.1013
92.5527
163.182
110.75
29.9831
-66.6866
-161.834
-160.71
-145.801
-104.386
-60.9428
-25.6668
23.4774
49.2945
76.4194
25.4516
-27.9018
-17.9676
4.31246
-7.35447
14.7529
-44.082
-66.9173
13.0495
56.8753
93.9324
34.5282
14.0186
38.5917
58.6925
51.2136
-7.23611
-19.1904
3.12631
-48.6915
-93.155
-67.105
36.6602
121.688
120.959
48.2826
-5.33726
-55.1768
-89.1942
-101.692
-91.7167
-41.3192
-45.109
-44.2457
52.3849
120.683
133.084
117.86
120.108
47.8844
1.91097
-4.30367
-31.1588
-35.7336
-32.4351
-31.3666
-52.9754
-74.9609
-43.8907
-28.964
-46.7584
-30.9935
28.3908
-13.6611
-110.651
-151.414
-118.143
-45.4861
76.3489
197.536
178.631
72.8412
-3.84816
-20.3528
-17.6003
9.3792
27.8656
2.58617
-105.719
-135.032
-49.1213
53.1149
105.602
147.007
226.2
168.563
43.1449
-31.9227
-153.58
-185.715
-74.8801
114.003
83.1597
-66.7014
-182.235
-173.137
-114.471
-50.7687
34.865
118.141
86.0437
40.5982
-34.7643
21.9689
86.2183
132.762
202.597
107.901
-110.184
-223.721
-246.522
-227.494
-84.3676
143.799
230.348
141.115
104.221
51.3785
-23.9422
-13.9103
4.96132
-102.197
-161.675
-171.267
-165.945
-141.312
-54.1507
114.788
279.526
253.54
177.789
190.545
77.7409
-115.616
-149.697
-71.2751
-13.0555
46.7866
-23.0552
-120.855
-121.609
-51.0087
45.9354
127.002
125.217
59.9534
4.91553
-71.833
-117.726
9.20762
33.2839
-63.5702
-65.4089
-9.89713
74.6258
45.9856
-36.1946
-71.0352
15.7088
49.6296
16.4198
-0.803056
-22.6553
-49.3255
-87.7338
-110.375
-164.962
-165.638
-126.282
-90.7157
26.9681
79.5396
127.713
158.707
158.248
153.014
118.593
86.4773
65.4411
74.6088
92.8417
99.5691
103.733
40.3552
26.7769
16.442
-13.6329
-60.9431
-48.0826
-76.7495
-115.458
-130.821
-73.3469
-34.2604
-74.2192
-40.5526
23.1047
16.747
-4.20914
-0.962475
-16.1539
-49.9394
-81.3585
-95.4926
-161.659
-137.666
-75.8412
4.09684
130.494
183.574
185.659
174.308
140.274
35.7798
-40.049
-95.052
-165.473
-163.652
-103.467
2.54242
45.191
11.7747
1.74553
55.422
88.2521
76.7898
107.014
92.865
35.4109
-13.3157
-47.4039
-56.2144
-72.5194
-68.5307
-49.8756
-15.6364
22.1262
78.5111
156.995
79.0873
-11.3959
-18.0242
-29.5654
-44.3148
-76.2942
50.9467
93.6726
-9.10157
-87.1854
-119.575
-75.2891
-0.0787322
-46.8918
-14.0157
92.878
119.175
110.403
152.944
57.4623
-8.6502
-7.93576
0.316871
-27.9917
-50.3056
-39.2949
-23.0158
-36.1004
-95.5303
-105.515
-118.703
-109.379
-144.262
-68.7622
-40.4693
-30.1045
3.31175
55.9665
55.9412
31.3083
31.8785
30.4446
94.6917
158.867
131.285
113.542
41.3462
-80.0319
-96.0921
-95.7184
-43.6076
-31.7114
-4.52346
48.4304
132.852
139.64
122.539
43.8332
-66.4879
-42.7673
2.80035
-2.96253
-20.6043
1.51538
43.6574
-1.15293
-53.0111
-10.5226
50.3957
40.8035
9.64859
-32.5416
-27.1264
-52.3586
-118.17
-117.854
-24.4977
78.5254
24.0988
-37.2856
-83.6422
-20.918
29.8373
-22.213
-69.8311
-58.6265
-121.81
-149.368
-87.9667
-7.72145
117.944
296.25
250.482
170.724
72.7815
-41.5558
-91.6235
-103.251
-33.1044
22.8023
-21.0206
-77.7014
-105.232
-51.9287
-2.32623
23.8708
107.014
173.862
110.791
54.0202
-41.2073
-122.323
-85.1729
-35.4544
13.2318
79.2464
53.2026
6.20322
-60.8609
-104.76
-68.4119
-81.5305
-63.976
6.17968
20.5138
78.3612
115.295
68.1865
97.3219
62.7457
20.809
-44.0453
-76.541
-113.441
-167.152
-205.167
-79.9521
89.7774
197.934
408.562
373.677
208.557
39.3605
-123.45
-184.678
-170.064
-145.648
-158.571
-142.176
-79.294
-47.5636
-50.3927
-41.2824
4.20879
62.149
82.6905
16.0597
-97.0861
-110.724
-244.658
-227.559
-30.376
153.357
297.762
356.616
309.628
106.964
17.3383
-10.4442
-0.317127
-39.2501
-149.052
-158.466
-109.837
-27.2063
40.4396
23.3595
38.1125
14.0763
71.6988
181.021
147.308
15.8325
-88.7299
-125.843
-165.464
-74.9134
-23.6711
-65.3251
-75.8726
34.3574
138.613
61.4336
-52.1932
-87.0046
-70.5034
-73.3004
-195.759
-134.532
70.9559
121.726
172.451
360.675
311.406
5.73474
-175.715
-187.483
-110.268
-60.2869
-33.5678
-86.545
-70.1078
28.0944
136.86
161.49
121.521
140.369
79.9884
-70.9906
-275.609
-238.908
-191.258
-220.05
-113.863
140.388
275.558
204.216
95.5131
88.8828
53.6063
36.907
30.7926
28.4754
-25.3959
10.6496
31.3941
-59.3406
-25.6445
12.9112
-2.68035
-37.1477
-58.1769
-111.818
-146.197
-104.805
-47.2977
-6.67262
17.9031
65.3385
96.03
72.9615
69.6965
95.5766
65.7664
-47.992
-108.117
-105.861
24.3148
103.904
63.9328
0.998442
-34.9627
-53.7353
-55.4042
-77.7818
-66.1672
-56.5255
-24.5695
8.31746
17.7939
24.9665
13.7778
27.8245
38.1002
27.8827
66.5519
136.456
133.47
-23.4564
-158.569
-186.107
-95.4802
40.3877
244.859
282.586
136.775
39.8823
19.4225
-3.2177
-44.9795
-78.8634
-103.411
-144.921
-146.793
-103.141
-3.43576
-6.56197
-160.3
-118.4
31.7732
81.1958
-9.45931
-63.357
-103.355
-105.185
-64.8225
44.3867
106.017
67.0882
67.9027
72.0031
67.8952
80.2646
123.533
156.776
82.8611
12.5538
10.1023
56.0296
64.5336
40.3252
14.0702
-35.1118
-114.366
-103.464
-75.0049
-93.2975
-109.857
-55.6029
-28.9692
-37.6104
7.09956
88.6072
112.899
131.736
25.486
-75.1778
-22.4171
42.7385
82.1907
147.726
121.417
2.5308
-130.802
-183.736
-167.084
-130.032
-73.3773
-5.00534
-2.42294
81.1337
95.9953
-5.12852
-130.489
-214.764
-148.564
-31.435
6.66937
-25.4485
-52.7174
-23.5793
19.0656
98.501
228.025
282.42
233.918
110.799
17.4897
-35.6087
-20.857
-5.06155
16.0657
-0.833012
19.0983
-10.6385
-79.7697
-86.98
-18.4338
109.324
215.975
152.956
120.574
51.3029
-115.73
-206.212
-200.352
-158.76
-91.6506
-68.2971
-84.8406
-73.9773
-13.0818
4.8219
-13.5002
-0.70235
3.56507
-9.44361
-20.6736
-41.9217
-27.1682
-34.6463
-20.0245
-22.1951
32.7864
137.025
167.006
131.388
73.7604
-24.8199
-71.5805
-101.481
-124.697
-55.1484
93.5907
228.708
139.594
48.5132
-26.3172
-69.9421
-92.7762
-31.0432
129.826
281.721
166.66
-44.5685
-96.6721
-92.1053
-123.878
-88.9068
0.257957
61.7539
9.68895
-49.6462
-69.8338
-140.572
-101.495
-31.7689
46.8831
114.707
34.6264
-100.793
-202.433
-216.268
-105.964
-6.96612
48.4535
96.6167
104.625
72.5983
36.8341
15.469
74.4871
153.462
179.178
151.663
134
24.002
-76.4564
-106.683
-107.149
-32.3792
-65.5163
-108.353
-10.4593
98.284
53.1182
31.8934
38.2073
21.2217
4.99056
-19.6955
-57.4108
-196.524
-236.889
-79.6519
105.304
197.535
273.679
203.876
2.77206
-133.718
-164.632
-124.565
-117.182
-111.482
-32.8441
69.3403
69.2878
40.6814
-0.492791
-42.4662
12.7528
38.5572
2.90397
-46.8861
-91.0426
-56.7951
-77.9709
-99.5668
-5.55917
106.755
177.844
139.854
48.6052
11.4207
9.2829
6.09741
26.8772
44.1379
59.2231
106.457
56.8879
77.5875
84.1534
-2.47385
-50.4514
-89.9366
-138.739
-86.09
-18.4675
-3.88853
7.82925
-32.2313
-35.514
-84.882
-95.0478
-43.4135
21.1924
67.3701
57.8557
18.7527
-32.8292
-95.7003
-87.8354
-21.1483
-35.0993
-30.4086
-14.8007
13.9404
118.233
203.382
117.847
39.014
14.1469
15.1549
31.4594
-40.5673
-107.042
-102.788
9.47119
81.9737
51.7204
7.53845
-12.2455
-47.1513
15.6635
64.2722
20.5697
-47.0044
-71.2331
-123.307
-104.758
-60.6788
-17.3049
-16.8548
-45.521
25.4909
97.1346
77.5278
-9.42881
-82.4663
-104.876
-16.8515
35.0307
67.6726
75.3082
100.462
132.536
91.9004
21.0009
-11.0928
-9.57417
18.3162
26.6806
99.5299
142.808
39.8697
-41.8707
-69.1735
-72.0853
-59.0467
-37.5805
-31.3318
-10.2318
-11.671
-46.034
-68.0713
-40.0743
-14.5699
-34.7146
-29.0568
-15.3413
-27.2025
-53.4672
-86.3521
-104.433
-67.2524
3.48758
31.911
29.532
28.0155
54.9143
51.4593
46.5513
0.791819
41.0433
86.8377
153.194
190.252
131.188
47.343
4.72205
-27.6586
-53.6814
-94.0568
-75.6206
-65.2967
-95.7385
-74.8283
-45.8054
-34.0883
-9.87392
6.53585
-51.8544
-72.6263
-64.718
-65.2927
-78.0966
-126.712
-110.674
-53.7477
41.5625
136.119
197.39
246.855
206.014
99.5357
56.491
57.8824
91.4417
82.9829
25.7805
1.28743
-24.6652
-10.8839
-42.737
-87.3942
-94.8656
-14.552
35.7795
12.6722
-41.8703
-99.8842
-121.622
-96.5619
-45.2913
0.124197
-28.9623
-39.4453
-27.534
-20.7586
13.4319
36.7593
44.6303
23.4632
-10.9333
2.03943
35.1469
-59.3956
-75.6971
-24.2876
-1.72465
-5.34481
-50.4341
-91.9159
-35.1664
42.3251
94.3721
133.816
185.118
109.902
49.0032
58.1693
73.6581
3.50782
16.8669
10.3888
-68.7342
-57.8209
-23.26
-46.9114
-82.2561
-54.0148
50.2311
63.3501
28.239
6.15085
-29.7067
-73.9651
-145.783
-107.01
-31.2449
-3.04252
34.272
83.2665
36.7756
-2.03721
-7.10708
-22.7461
-27.0534
-21.6201
22.0358
55.6301
36.7593
36.9395
4.63234
-44.0112
9.27567
72.3081
36.8704
7.15775
-69.1749
-100.976
-91.284
-24.381
29.3508
7.9617
29.3685
54.1143
39.9936
37.3517
26.7511
-24.5706
-29.3444
40.6875
88.849
150.464
216.601
46.2
-95.2602
-86.4094
-46.9722
-71.9349
-106.78
-26.9526
33.6756
21.7958
6.97135
-4.17432
-51.4374
-63.148
-91.6382
-80.6446
-17.2918
5.26563
-71.7426
-139.291
-200.657
-152.545
-110.482
-18.2357
159.366
233.217
295.461
259.013
193.064
83.1212
-19.7452
-22.4345
3.39382
-0.966049
2.41828
8.89483
-37.9274
-93.4811
-91.9712
1.09512
6.29811
-18.0943
60.9837
53.9804
-39.8469
-71.1079
-98.2598
-152.859
-227.526
-148.891
-13.3542
42.5304
81.7892
123.425
110.188
82.5679
21.2779
-1.49931
42.0635
59.8308
58.0235
71.3766
63.1488
35.5697
-19.0622
-43.3392
13.917
-11.4326
-52.6655
-22.3928
-15.7162
3.42195
37.677
83.4766
49.9899
-16.8001
-49.3669
-43.0064
-61.5492
-132.663
-165.523
-65.0305
9.12028
-4.22077
-17.6892
2.52499
-46.5698
-44.3036
21.9405
37.656
43.1073
30.604
-31.4839
-66.7117
-4.36529
76.8122
116.813
157.073
126.833
31.7794
40.4582
29.095
-0.140644
-1.20118
9.89939
-10.1932
-26.1864
8.13206
57.2141
39.7313
-54.1304
-80.8621
-50.1267
-68.5054
-74.7219
-79.2513
-40.1347
-34.4874
-83.7885
-52.3474
-43.6601
21.6552
106.644
136.588
89.4133
4.60641
-19.9528
-25.5436
-84.0334
-54.172
19.2503
71.2375
123.076
83.211
55.8935
10.358
-34.8374
-68.62
-35.9038
-30.9551
-60.1108
-82.7234
-133.927
-160.551
-80.3097
13.0442
64.5129
179.234
235.319
96.0341
4.48361
-26.6942
-39.1777
-28.3292
-39.9371
-2.5809
62.5992
58.4332
80.4835
68.8971
77.3954
1.63606
-92.9737
-108.682
-89.6893
-5.7188
85.1576
25.586
-64.5675
-39.995
-25.2099
-33.2231
-12.4157
22.26
5.01722
8.09575
-32.701
-77.8284
-98.6492
-47.2316
-5.15227
24.1446
65.0488
172.675
137.823
-3.06491
-93.852
-123.588
-67.3489
-3.34676
8.01946
-11.4494
-5.13498
18.0925
51.0604
56.2652
72.4425
83.7102
87.8237
28.9881
-19.4233
-4.76682
-27.492
-81.7253
-61.5381
-2.45011
-61.5886
-129.909
-78.1374
3.70181
67.8137
101.734
74.2852
37.3243
9.92584
-68.2279
-79.1957
-29.3842
4.98126
28.5374
13.0386
-22.6307
-23.5242
-36.0297
3.66471
49.5476
93.8674
87.9149
57.1224
64.2619
93.1196
122.251
115.02
50.1411
-93.8381
-129.985
-148.431
-170.087
-176.576
-167.889
-87.0166
40.8922
82.4845
36.5236
-13.567
0.65358
5.50139
38.9724
32.0582
5.07276
-26.9702
-28.1889
-11.7122
-7.92087
33.1006
63.5437
61.7732
39.8928
12.2841
39.6791
32.2987
15.8519
42.4143
27.0011
1.48389
-34.1106
-60.8748
-41.2458
-16.9429
44.9757
37.064
-53.0503
-122.376
-58.9978
98.2344
122.006
45.4706
20.0406
-20.5585
-7.37143
39.1513
71.8755
85.2893
104.527
12.7352
-51.2304
-104.697
-129.199
-96.0729
-101.885
-114.499
-96.4114
-27.1377
19.9574
25.6308
49.8237
69.8494
54.3571
101.501
92.7003
21.9433
-31.1443
-88.4949
-104.371
-19.7729
66.1637
40.1429
-37.8464
-46.4143
-28.199
6.98508
47.1661
38.8393
-37.4242
-79.4608
-52.8801
16.6098
78.4224
112.711
114.204
89.5543
7.45924
-28.6891
-62.024
-101.558
-109.279
-66.6774
-45.6975
-13.029
66.3829
111.063
151.788
127.292
173.204
119.471
-21.302
-165.538
-206.386
-171.867
-105.183
-31.8851
-1.77392
-3.87143
20.9738
13.1253
-24.1804
32.5184
89.2498
82.1417
-9.30264
-53.9305
-72.2847
-91.7598
-122.146
-108.566
-30.3761
65.9854
85.6519
99.0685
119.912
141.075
159.181
126.239
39.8386
13.3825
-24.8648
-64.4852
-58.1346
-57.2034
-51.474
-39.3631
-45.5892
-44.5688
-52.3494
-44.6913
-31.7655
29.0112
48.2186
-10.8015
-55.2197
-0.127251
-19.325
-66.1413
-37.9854
79.511
102.414
52.769
24.4751
11.1646
0.398269
-6.39286
27.4454
35.3236
-11.647
-6.44607
9.47452
-6.98046
-19.481
4.1715
-27.2271
-137.166
-150.121
-53.9507
21.2178
22.1399
59.235
88.3367
56.6128
-0.928037
18.6254
72.6359
18.2801
-12.7238
-5.7312
0.843696
16.486
-11.9464
-29.4912
-28.6558
-41.511
-74.5345
-38.2497
58.5921
66.8123
88.4602
121.033
89.2199
81.7988
42.0873
-22.0706
-153.155
-190.484
-122.409
-41.3554
19.088
58.6039
51.8603
29.0203
12.9803
-4.17873
10.8262
1.28278
-107.269
-173.589
-223.203
-158.585
4.89968
154.808
224.866
210.442
224.778
151.881
33.1571
8.50429
5.32037
-28.5264
-99.4013
-109.848
-85.1816
-41.3679
-33.817
31.7678
72.7746
69.6742
48.9679
-21.0394
-78.6059
-126.167
-149.212
-132.021
-158.933
-111.623
2.8826
100.494
83.882
76.749
142.9
185.73
150.122
61.6795
-5.50625
-79.6358
-60.9234
0.88351
35.9843
53.9787
33.6105
31.8416
2.17212
-54.9761
-54.6894
-41.1648
-42.3018
-64.2817
-74.5956
-65.2716
-35.5469
-33.7417
-26.5914
27.2534
56.4492
53.1611
66.4546
94.3376
57.5822
13.0666
-25.807
-130.113
-151.177
-107.661
-35.1373
38.6962
118.38
163.441
148.687
138.688
65.9624
-21.7751
-45.4222
11.1646
-10.8313
-82.2239
-103.954
-111.734
-83.5893
-36.7194
39.5512
113.118
58.5166
-0.139192
-11.3334
-41.6098
-103.597
-184.36
-168.906
-120.625
-49.015
95.5258
247.989
220.472
109.12
32.2183
-41.6192
-20.2845
-9.41258
-17.5432
19.4576
56.2498
19.9135
-15.6754
-28.0252
-36.9828
11.0189
63.587
100.6
94.6104
82.2825
7.69057
-150.431
-220.092
-108.075
-20.8987
34.6
68.4869
28.1544
-48.6705
-120.044
-147.147
-27.5074
47.163
95.9144
111.427
51.5936
5.39997
-14.1178
-26.7429
11.9616
1.53276
-12.3633
28.75
44.0977
35.2518
-1.68099
-71.292
-51.5816
-27.0638
-19.3934
5.36357
67.6953
153.022
175.157
96.7846
-12.6879
-102.585
-111.919
-112.779
-130.774
-86.9903
-15.5256
20.2656
16.0917
-4.67083
-27.682
3.45468
16.5236
59.1375
64.4645
79.2424
108.521
26.3439
-66.3614
-79.7597
-67.4619
-13.813
36.3446
40.7282
36.0544
31.8516
-60.1983
-51.8436
7.72631
82.0315
106.05
41.8919
5.04482
-33.5068
-70.6208
-82.7512
-96.464
-59.0075
-54.6366
-21.4699
13.5208
-18.5982
-45.7613
22.3606
82.6321
60.6671
91.0033
71.9166
-7.20631
-63.313
-75.5558
-73.5007
-36.9124
9.31926
46.8305
110.136
91.092
16.8751
-17.7257
-22.8374
-51.9001
-50.5851
6.38368
-7.68052
-11.7379
-14.4475
100.754
154.949
89.509
21.1563
11.1564
-29.8237
-77.3534
-105.361
-99.9007
-126.414
-57.2482
51.3488
36.1591
59.2335
67.5065
52.5977
3.14518
-40.1393
-90.9778
-95.5586
-122.078
-94.3082
21.0131
54.3326
31.5258
69.0159
94.0838
79.2583
80.659
63.5643
54.2677
7.80291
-14.9238
-113.397
-122.989
-83.2162
-41.7353
51.7292
196.379
218.273
142.934
-7.59189
-113.125
-95.6384
-31.0499
-14.1818
-42.4187
-27.6817
-44.7198
-84.8097
-112.567
-85.3505
-16.7793
62.9736
84.312
107.212
48.8704
-48.8521
-123.778
-123.062
-104.385
-27.4042
43.1428
66.4462
44.2403
54.1605
72.3018
59.1977
51.0097
-19.0345
-83.9983
-49.3147
1.86343
60.8697
131.542
152.23
189.249
155.556
59.061
3.5635
-72.9442
-169.787
-188.09
-147.552
-102.797
-71.9727
4.51252
-5.25397
-41.5398
-32.391
-27.494
1.52336
32.6249
25.457
94.3401
77.403
-9.24971
-37.9934
-64.3794
-51.0405
-0.179047
17.8662
24.3012
37.9979
41.5551
15.0079
-25.8911
2.39457
3.98314
-4.93835
-1.42852
-8.56405
2.27666
47.2834
84.0883
110.776
77.4782
-20.4933
-76.93
-59.1903
-18.9105
-19.1304
3.5801
14.739
40.1665
9.4298
-33.2457
-35.2778
-9.09117
9.7518
-0.477729
29.2752
10.0031
-35.136
-122.97
-195.126
-100.458
22.712
81.1509
63.7375
73.2513
142.008
96.1978
74.9313
24.9491
-1.33255
-0.518111
-68.3588
-103.733
-21.4764
5.87192
-1.90678
-47.2946
-102.237
-111.053
-75.3707
-31.9709
21.5984
63.8652
67.0205
4.3763
-58.8214
-44.2991
5.26867
43.3547
101.405
85.9711
75.8515
76.686
18.8606
-2.71885
-26.5559
18.3383
74.934
39.5721
17.4281
-23.3414
-29.8037
10.7576
47.1844
6.20196
-9.68031
-20.9998
-62.0187
-94.5514
-114.62
-88.3206
-32.9027
27.2783
87.4575
144.752
85.9225
-4.03608
-40.5661
-54.511
-55.4611
-66.9041
-79.1975
-91.4306
-77.5503
-2.35043
33.1803
46.4551
54.4343
62.9408
52.0527
33.4592
42.4816
-16.7125
-119.873
-106.836
-56.2839
18.2731
46.1605
62.2038
82.8344
43.4243
43.7613
35.1151
14.2209
-39.7421
-77.7031
-18.717
43.3235
85.1863
123.311
76.3017
-29.222
-47.7738
9.31956
25.622
29.6922
-36.2461
-40.849
-28.6303
-45.0605
-46.6306
-59.9493
-56.1495
-44.0236
-2.28091
-6.25947
-52.5734
-86.1021
-87.7784
-64.8123
-17.1767
71.1704
137.417
125.056
83.9066
49.236
55.7703
39.8759
-9.90849
-19.5187
12.1824
7.99893
-10.1636
-71.5601
-78.9771
-29.7778
10.9959
1.89017
22.1764
44.2519
17.6075
-6.48951
-32.2287
-0.881125
2.01318
-36.2719
-14.3797
6.33291
25.7261
28.1208
39.2085
22.392
0.893118
4.50427
-0.792426
14.3665
18.3242
11.0731
-28.6596
-79.1861
-71.9037
-71.7205
-90.3412
-107.227
-73.5255
34.9536
70.4025
76.6522
131.152
71.3786
14.6918
-4.60379
26.7562
89.6336
92.0346
93.9803
40.7296
-31.7211
-78.8403
-121.138
-120.767
-88.6333
-15.4479
34.8901
18.4381
52.2825
81.9503
39.3417
-39.2691
-41.9504
-31.1571
9.35638
-29.3009
-75.5468
-74.3085
-63.708
1.22547
31.4207
69.9005
121.588
103.583
49.2562
-2.60543
-39.8023
-7.51274
-26.492
-40.7033
-50.5432
-65.4193
-26.6589
-24.5537
-45.0725
-18.4966
42.0941
82.9008
65.7383
10.5854
13.5447
11.6555
-0.777531
4.22679
13.1373
26.4092
17.8366
-22.8675
-53.6658
-37.1409
2.80385
15.8145
6.69078
6.2135
15.5557
21.7347
-20.4676
-25.1333
12.8219
46.4389
42.8088
24.8236
22.6285
39.7817
26.6699
-6.11308
-47.5582
-118.805
-182.44
-164.472
-64.9381
50.6508
175.075
151.761
38.553
-27.2565
-15.5067
41.534
92.9167
57.3006
-9.24484
-72.6125
-95.0742
-80.8104
-31.7405
1.77163
51.3835
117.956
125.32
40.2764
-67.8998
-78.1181
-67.6414
-37.0433
-20.0244
27.8126
4.75517
-116.308
-156.054
-92.0703
-37.2359
2.0305
22.9632
76.1197
113.503
71.172
93.876
114.491
75.9953
8.08681
-3.42844
-31.3986
-79.7894
-60.5804
-1.18818
-24.8743
-51.5447
-70.6919
-73.1548
-19.5609
66.6343
126.231
178.896
142.994
39.3593
-1.26476
-15.4844
5.0319
-9.16844
-42.4362
-67.3564
-57.0038
-65.9174
-65.4261
-49.2452
-29.7878
-6.68371
41.1185
31.8318
6.08282
32.1409
35.2528
60.8986
6.31751
-36.3435
-20.8355
-49.9137
-130.95
-182.416
-70.6273
24.3593
-16.1796
-28.9601
25.3511
74.4017
95.2324
76.5872
83.7556
89.9118
32.2842
-38.3017
-47.4482
-70.1944
-47.7039
34.9486
68.9722
33.6897
47.2852
110.115
93.0684
43.4503
5.78768
-22.5766
-47.8535
-34.9897
-7.22425
28.5953
18.9548
-36.1789
-84.5264
-96.1855
-110.55
-123.298
-0.119334
89.1088
23.7393
-6.73741
-93.5544
-38.5522
57.186
48.7489
41.3454
34.8114
37.1714
27.8665
9.51143
32.6973
9.94695
-53.4969
-31.9021
-29.8984
-13.897
-34.3441
-82.3352
-66.5355
-36.3526
-37.2215
29.0903
33.0596
44.9635
84.8518
73.3616
55.6252
51.581
18.9631
-5.47771
-76.745
-70.3964
4.97179
69.2956
110.228
115.75
66.1257
-27.5293
-108.575
-63.5347
-3.08262
16.4167
21.893
-24.1905
-54.2299
-40.2956
-19.7144
-21.9858
15.5135
56.5696
51.1984
102.896
112.454
-6.4829
-92.5958
-143.481
-156.845
-122.743
-64.6881
10.3392
51.1462
88.3113
133.102
91.7434
19.344
-32.6433
-104.27
-118.333
-106.875
-85.5264
-6.68649
-9.37786
-14.4732
65.9929
69.8813
37.6676
50.2295
74.3889
47.1088
-28.4994
-67.5315
-50.5315
-49.8043
5.07387
213.396
248.693
200.397
47.1239
-43.7263
-51.2685
-32.913
0.712822
-6.03412
-82.6782
-82.2286
-96.0977
-135.103
-64.9384
24.9999
50.3777
38.8958
-11.4376
-55.829
-72.6133
-35.8937
-0.637109
2.09854
47.5177
56.1158
24.535
-14.0309
-43.2555
-64.8453
-36.1513
-36.6186
-34.8369
5.47451
95.9061
133.332
57.8177
-1.23801
-27.633
-18.9654
-5.29829
21.4899
13.5284
-13.0914
-11.1699
14.6183
13.7393
10.5469
-6.32281
-0.185507
46.9676
32.3334
-18.7446
-40.9742
-92.8849
-122.964
-43.3316
66.3857
90.8064
48.0595
27.411
-40.2587
-91.3414
-70.2214
32.5597
120.18
99.0204
63.916
30.1636
2.39052
-14.0437
-47.9789
-55.1968
-13.587
32.658
32.2265
43.6632
43.8707
-11.2164
-89.86
-72.4871
-30.1227
-25.0055
-57.0539
-74.6032
-49.7086
-17.2165
-2.67736
29.3379
61.8724
83.3143
71.7359
83.2242
18.064
-84.3859
-108.209
-54.4265
4.05039
47.3004
82.246
99.012
32.4279
-43.3016
-57.9974
-53.5328
-29.6314
26.3541
101.577
158.677
121.171
-2.58241
-48.8067
-64.7878
-77.2416
-63.2407
-65.5774
-83.0819
-46.1005
-17.2473
14.3188
-20.4902
-43.2106
-37.2556
-30.9598
-13.8591
16.9407
-16.078
-30.4491
-35.9656
-24.1351
19.3112
28.0824
6.68639
37.7255
29.8037
42.9162
104.111
186.991
132.315
74.0831
64.5917
102.937
68.4194
-25.5163
-72.3848
-102.621
-89.1141
-100.698
-157.783
-163.63
-73.2739
34.4421
83.0369
76.3356
110.975
71.2584
-35.686
-162.439
-133.928
-41.0834
-23.4782
0.358803
56.3406
131.457
114.805
15.9727
-30.2736
-29.3887
-9.20816
-16.5675
-42.4736
-37.9175
44.0909
140.293
98.3193
11.0131
0.0357708
-12.6108
-46.8182
-72.5495
-82.3427
-88.4349
-70.5463
-44.5378
-19.2086
10.8682
34.8947
41.783
52.0915
60.4109
45.2152
-0.52385
-8.19768
-49.5348
-50.6616
-4.08477
-19.9921
-90.1006
-75.1062
1.27485
82.8512
67.561
57.71
68.0635
-7.99925
-60.7438
-23.0507
27.8625
73.6037
216.076
385.963
213.144
-23.9501
-133.207
-173.459
-128.292
-93.6748
-115.089
-81.1219
-28.2361
-37.7888
-70.9287
-25.7398
23.2237
42.0135
54.6538
-18.0637
-74.3533
-143.29
-210.148
-258.88
-108.061
51.4663
180.59
192.09
171.452
158.923
124.48
74.2038
-6.08558
-57.1973
-17.4939
3.55439
0.99831
61.1788
60.0114
28.9165
-20.4857
-16.8913
-19.0363
-59.1017
-58.6549
-52.0719
-92.0174
-74.7741
-32.9364
28.6935
70.0762
62.2184
42.8291
-0.476652
5.06146
23.9458
-18.2363
-37.0604
-15.9919
27.1705
48.6276
64.4634
26.8316
-27.1646
0.451282
-27.9642
-90.0823
-125.106
-88.2229
-18.8697
47.5791
66.0005
76.9524
80.0352
48.4854
-7.79799
27.4919
38.8079
-42.0112
-71.0512
-37.1295
17.2538
28.6145
15.2541
10.6049
24.9725
-9.55456
-22.2002
17.3642
-16.2861
-69.5305
-38.0634
-2.48317
18.9189
-3.25835
-16.2827
0.608252
-16.6793
22.8721
79.6294
96.2456
43.4377
-0.469875
-79.839
-109.493
-118.002
-79.8978
-19.7887
-27.7086
-26.1811
24.3537
42.2685
29.8078
69.625
59.6698
24.972
-13.5248
-21.7435
-20.4592
-15.1267
-11.2963
-12.5873
64.6058
160.146
160.997
98.1887
37.6494
-1.72912
-47.5805
-75.0794
-49.8482
-52.0728
-22.3752
14.5059
-14.9534
-48.3509
-52.5815
-14.7445
21.8254
-6.20675
-24.0698
0.381627
-45.6997
-114.243
-96.145
-55.7313
20.408
35.5181
18.6931
13.4891
9.03481
10.3187
-31.1163
-73.4718
-37.0788
85.8444
112.01
119.481
154.753
119.349
11.9762
-29.8213
-33.3621
-10.2502
25.0159
-3.55796
-56.6023
-39.0012
12.4838
30.0129
-36.9122
-8.7467
106.181
56.7705
-32.646
-127.441
-135.68
-111.677
-119.862
-96.4975
-10.2541
2.48313
-7.41374
13.4012
-4.48257
32.4164
74.02
70.8245
74.3046
57.853
59.7862
34.2199
-51.5378
-58.0585
-10.0814
25.5789
78.3646
55.3584
11.4569
35.4534
30.16
7.82831
18.6588
57.9544
64.943
44.3672
3.71243
-21.0798
-40.3473
-46.4685
-51.4554
-83.7067
-102.975
-91.2416
-64.6274
1.73573
-10.8228
-84.7815
-109.283
-112.137
-77.2319
14.9602
139.615
197.126
213.825
114.118
-24.2569
-63.5832
-26.6645
-19.4795
-35.6636
13.0619
17.7577
-16.275
-17.4922
-48.0358
-64.7268
-49.3214
-28.5206
51.2144
85.6761
55.3803
28.3796
-7.96942
-39.1677
26.7822
84.482
129.059
55.6861
-15.4268
-5.4728
-34.4947
-60.5537
-27.9432
3.42811
-25.2569
-19.3608
41.8948
50.0004
13.5212
-26.9077
-52.6296
-95.1714
-142.234
-192.224
-145.466
-25.2599
15.1156
70.1314
140.083
130.573
92.3383
31.038
2.95675
35.5052
44.0666
7.19803
5.99794
82.3904
130.59
52.1346
-50.7741
-81.6063
-75.8678
-62.7877
-39.5116
-16.3709
7.7521
1.52414
-11.5055
-28.9883
-28.5247
-6.12269
26.2516
24.6443
-9.48504
-11.6276
3.66445
-30.8244
-80.4964
-59.7191
-23.7966
-36.8776
-20.107
78.6226
149.255
78.062
20.8058
-26.9782
-58.6824
-35.5632
-8.09521
47.5639
65.8813
38.8782
6.74241
-8.09666
-7.19278
-4.01001
-21.5503
8.74882
72.9375
89.667
19.0398
-24.7792
-56.8952
-80.4815
-80.0108
-53.1606
-14.1125
16.8288
20.7002
6.14153
-38.5756
-41.4511
-11.0201
-0.188868
6.76014
31.9028
70.6096
56.5797
3.77681
-71.5423
-106.716
-140.567
-89.3348
39.8655
65.7788
72.3514
94.5732
59.0492
16.3037
4.834
41.834
47.2278
70.8206
76.6542
47.5357
6.25868
-64.3668
-88.472
-53.3598
-7.62806
44.7114
49.5399
-13.1594
-44.2155
-44.6313
-70.0294
-78.9074
-45.3862
-17.9957
-26.4021
-12.925
28.34
7.83629
-0.230231
60.1539
69.6496
36.794
34.6573
13.6422
-20.3775
-26.4856
-2.82058
-19.5746
-41.6122
-8.29375
41.0867
21.8242
65.6176
94.1842
32.4366
-40.1956
-114.427
-110.707
-73.2021
-15.7602
49.0598
127.391
111.616
56.8932
-3.71464
-62.8522
-102.161
-89.9152
-19.741
38.21
56.3061
57.6773
-26.9296
-93.8598
-50.9941
3.12033
67.829
120.257
87.5447
-54.422
-112.879
-174.797
-195.265
-136.944
-37.4708
55.1514
95.601
118.672
103.509
44.4366
-10.9482
-20.1454
30.0439
78.941
106.201
183.413
165.036
30.4753
-20.7606
-19.0521
-54.0925
-51.5887
9.41751
61.9636
17.4955
-23.0386
-51.1119
-81.9942
-97.643
-88.4698
-65.1932
-18.0395
-31.3134
-19.2743
5.74073
-20.1695
-19.4071
13.9338
10.4594
-43.4663
-64.3202
-45.7231
-31.7425
-35.9993
8.72637
81.7027
92.4654
67.8407
32.9884
-1.78022
0.040691
-13.022
-3.18975
10.7265
19.0934
-58.4697
-129.83
-87.7175
-3.66031
56.7184
116.01
275.27
259.458
67.117
-29.7523
-74.0583
-50.0056
-34.0046
-42.2507
-65.9451
-58.0458
-49.6557
-60.7307
-90.9517
-65.9764
-10.1524
37.5221
47.9479
35.837
40.2321
-4.55128
-133.852
-136.26
-8.74628
60.3136
75.9506
58.6207
19.2473
19.022
55.3805
42.3766
19.8452
57.4982
66.2138
26.7428
-9.17925
-33.9812
-52.9102
-76.1813
-73.3739
-58.5101
-34.4278
66.397
106.96
64.7849
5.5312
-27.1787
10.591
20.0922
8.28468
-22.0208
-36.5218
-36.9172
-26.8433
-66.5617
-93.937
-55.0631
5.57923
58.15
63.273
55.6091
10.1189
-55.2842
-46.0845
32.2005
57.4558
20.8887
-15.5019
-21.5831
-6.08932
4.90846
13.8349
5.22417
-23.5092
-35.0321
23.896
38.5233
22.447
-4.23877
-20.7427
-12.0985
-35.2759
-70.4838
-30.0283
5.54455
13.6542
54.3794
99.1959
108.044
67.0156
-9.29619
-39.7938
-10.6819
16.2974
110.098
96.9736
15.7886
-14.5161
-75.2336
-123.38
-61.3422
6.8409
7.71691
-69.8835
-129.837
-116.885
-94.3727
-43.1767
42.3419
39.045
62.3631
77.8929
37.7701
27.3809
14.4361
12.7823
38.2659
-14.7407
-9.60025
39.7334
-8.16552
-9.96825
50.9398
30.9894
-10.7945
-1.57772
-41.4262
-111.897
-121.443
-45.4858
45.5525
94.9363
102.191
122.594
63.7739
-7.91159
-26.5088
2.15659
17.9333
14.9137
-3.10011
-22.6922
-47.7212
-36.1276
-8.00717
9.75434
37.3029
67.6013
43.2888
-17.1469
-73.3247
-81.0177
-76.5875
-80.1018
-83.935
-69.8495
-54.6471
-49.6607
-18.5404
67.5485
142.815
159.397
132.187
117.258
39.4159
-52.1612
-69.2669
-43.4235
-67.8788
-61.7503
8.89476
16.7463
-47.2148
-79.4507
-78.8418
-47.5014
81.1604
106.79
38.5705
-14.6202
-62.4227
-96.4939
-84.8978
-34.6084
13.4497
117.465
160.782
122.205
86.0804
66.1951
36.5355
0.192231
-8.25355
3.13287
0.696684
13.5119
-20.1127
-27.054
-5.14543
-9.62187
9.31665
-0.868406
-50.375
-84.3269
-97.0569
-139.016
-111.78
-67.7862
-14.7482
42.8554
33.5616
38.9502
56.8491
29.3631
32.0062
33.9463
5.69543
36.6481
29.7033
1.81556
-44.7833
-59.6993
-78.151
-52.1767
10.4379
66.5995
81.0268
55.5752
32.5328
-7.26545
-24.6074
28.1745
80.0037
30.9523
-48.9827
-11.0455
32.8275
26.9597
44.3643
46.3238
-4.23845
-110.312
-67.1129
-36.1384
15.9977
104.038
197.219
138.432
-30.6032
-74.6802
-81.4134
-153.016
-160.19
-103.22
-62.6385
-70.8861
-101.457
-69.7031
-27.0579
-26.7096
-3.43631
80.469
87.2634
92.4307
80.1421
23.0753
-87.1388
-99.1884
39.9489
135.353
140.815
111.133
76.2077
51.6062
42.2922
11.4741
-24.5782
-15.2467
-4.04356
-7.08994
14.7658
39.3061
30.1326
-16.0248
-56.1957
-111.581
-102.629
-22.9163
14.9361
-9.46357
-54.9414
-53.1914
-19.6597
16.7809
107.412
130.383
85.3213
-25.0232
-64.0576
-53.5688
-50.4278
-45.5122
-41.8472
-20.1555
4.16621
22.141
14.1736
-43.3101
-96.2803
-106.946
-47.7935
33.4254
39.228
53.0595
61.2838
15.9198
-25.5398
-36.9654
-37.0262
19.8992
51.5813
91.9131
125.817
154.741
151.896
39.3871
-69.3371
-58.9469
-13.6985
-34.678
-55.0494
-81.5721
-56.0896
-37.1957
-57.0723
-55.3381
-56.7914
-27.101
0.542009
26.8058
35.6863
79.5553
111.512
9.39369
-50.7518
-57.5243
-37.6481
-11.5572
-8.94718
-21.1776
-37.3595
-31.8892
2.72012
12.2148
7.69184
57.0249
168.907
194.031
133.668
63.0288
18.6489
-79.2978
-162.239
-143.942
-107.318
-58.3591
-21.7687
1.21111
22.6795
35.9197
53.9928
32.0766
-1.48609
-1.53072
6.02375
-11.3101
-44.0578
-27.5339
1.37614
-29.4019
-30.7921
-9.79449
-0.391353
42.3662
38.2167
6.08077
26.6718
20.4545
-36.8467
-53.2303
-26.1934
20.1249
34.6014
-20.6113
-59.754
-23.9688
4.21639
10.9234
6.17515
35.756
44.4828
30.3067
-7.40009
-15.8543
35.8451
75.0755
55.5634
0.133006
-10.4791
3.71983
-12.264
-30.1619
9.91673
43.4674
72.5466
36.5219
-9.18682
-42.2144
-44.1207
-60.0548
-50.4825
-54.3963
-42.9796
-34.8036
-46.1434
-45.6743
-49.1663
-33.3495
-6.09015
34.6014
18.6926
4.4595
-18.2509
12.2568
71.4111
76.0701
50.9718
29.331
36.4521
35.0507
15.524
2.14776
-6.34283
-25.7183
-42.7715
-1.37814
-6.11105
24.8891
40.7745
30.5371
86.4774
80.1157
25.3489
-12.0493
-73.144
-109.811
-103.455
-108.881
-108.674
-57.2604
-24.2039
52.8182
97.6342
98.7122
59.2521
-2.7063
-13.6732
5.21444
38.6486
9.95395
-52.6715
-62.5004
-58.8735
0.525098
8.48898
1.29959
35.1349
84.9311
152.123
96.4148
5.58505
-5.14582
-15.04
-67.8563
-53.2835
-25.4681
-78.6133
-103.362
-101.898
-74.0238
-30.4315
22.8902
60.5115
63.7284
94.0183
76.8764
-8.89163
-40.1694
-33.6613
0.340645
44.8087
1.69675
-74.1194
-62.6108
-24.9267
12.602
92.5334
183.514
137.491
42.7705
-2.15232
-35.7085
-70.8698
-111.773
-131.046
-73.2639
7.48404
50.2481
63.8314
23.9866
-22.1653
-23.7142
16.9636
52.8401
16.7014
-9.7675
-8.49421
-32.8603
-6.41086
-26.1049
-31.8067
-32.4486
-12.2426
15.8147
48.8702
92.5753
117.791
52.9892
-28.1967
-15.4993
-22.7188
-90.0045
-77.3118
-56.4781
-55.5713
-67.4988
-13.9678
-46.5144
-5.68034
110.971
116.49
89.2092
35.3805
-36.2964
-102.806
-128.989
-92.0853
-24.4341
6.72852
-0.477713
62.8997
137.895
170.789
102.845
43.0012
22.9015
-30.9794
-102.172
-149.433
-108.838
-24.4523
26.8983
136.093
173.791
139.629
70.7529
-12.7563
-49.4374
-72.0324
-53.249
-33.1557
-50.8879
-69.5435
-83.076
-47.65
31.5441
20.3442
18.8517
-9.71903
-43.8409
-48.1362
-60.4481
-117.556
-79.8293
23.5418
51.4558
7.56028
-37.1555
-29.2903
7.02239
-1.85517
5.7142
28.0475
97.1653
132.081
81.5263
63.207
49.9084
23.2656
21.0485
19.522
38.7365
41.5837
46.7757
73.8838
154.667
177.192
32.824
-135.866
-232.66
-213.513
-172.365
-104.835
17.5899
106.62
117.897
-12.4776
-52.6416
-9.4855
-0.119391
-40.0455
-84.7034
-53.1394
-2.59828
-11.1334
-80.3549
-120.385
-65.5137
-13.8635
12.3095
46.9313
55.4582
-10.4589
-93.6925
-120.937
-54.8181
79.0652
163.624
212.232
167.035
91.2078
57.031
23.7104
-29.1939
-29.5748
5.23088
12.2073
46.5714
91.6281
82.9476
16.1544
-10.3668
10.2178
16.455
-21.1114
-54.5457
-37.2285
-63.0471
-93.6086
-88.0736
-91.7124
-77.6931
-88.8979
-97.4524
-56.2793
11.9258
71.0326
50.5625
73.6131
69.8228
52.7966
49.669
58.8441
64.4951
0.742804
-31.8315
-38.9698
-57.8558
-52.7493
-66.665
-27.3337
91.7199
129.896
133.55
70.348
26.2732
-65.5331
-226.197
-265.731
-157.914
-24.3275
36.7427
39.0592
-2.87631
-19.1396
-33.2055
-12.5618
58.814
67.8316
111.149
120.791
67.3762
63.8322
37.7298
-11.8394
-61.5613
-69.3709
77.4664
128.822
50.2516
4.73008
44.3225
143.253
156.507
122.521
-22.9482
-131.663
-174.9
-158.484
-86.0491
-11.4254
-56.0182
-152.332
-197.44
-194.139
-124.423
18.1914
139.245
206.394
231.895
123.413
-49.6393
-129.487
-95.474
-63.6906
-26.6242
-13.3303
-3.37934
-31.1652
-96.5359
-64.2388
92.2211
152.029
184.291
191.523
109.91
6.00211
-23.9065
-22.1718
-19.0101
-32.1971
-6.31864
-51.5913
-96.9482
-99.5565
-28.6485
62.5014
79.2745
83.1765
77.5372
21.1141
-87.0406
-110.372
-101.018
-45.1899
22.127
64.9491
59.6916
4.32793
-46.6504
-57.6352
-28.5606
-3.7528
59.1606
130.763
86.6543
23.8392
9.37052
13.1079
22.7599
-2.96375
-1.79731
21.9219
19.6055
-19.8511
-82.3919
-101.987
-100.026
-95.3368
-11.6689
69.5929
71.7175
13.0629
-50.6638
-93.7619
-101.669
-129.623
-96.1383
-53.063
-18.6811
1.6716
7.63677
38.2
63.645
75.7097
88.3785
94.4556
73.1505
46.7594
-32.195
-42.019
36.884
145.177
149.168
93.6542
120.312
138.426
87.9105
2.81747
-75.0152
-81.6575
-73.6413
-99.35
-92.3128
-23.4277
43.8794
-19.5577
-56.728
-95.8228
-135.539
-111.749
-114.835
-134.609
-87.103
38.191
96.271
67.8185
19.9207
-19.9203
-5.83787
27.1577
30.6265
33.7239
8.51981
-33.0207
-46.4564
38.5722
60.418
95.6088
135.157
117.743
69.8735
40.0174
4.82885
-56.3369
-114.263
-74.938
-34.8122
2.7575
42.7443
53.6948
39.2438
54.0988
35.5638
-6.89747
-56.9699
-92.2767
-84.6601
-73.598
-23.6214
12.5956
14.446
0.567622
12.2195
-1.55104
-3.58057
37.4834
39.8826
43.8074
46.4823
38.7437
-6.02434
-60.4014
-45.5001
-30.7983
-32.4406
1.09239
55.0847
87.7897
33.2977
-24.7391
-44.628
-46.553
-57.2887
-58.077
-43.5475
-29.9504
15.9297
41.1656
67.9152
46.9409
22.0725
-89.6762
-163.291
-124.643
-48.4248
24.1102
119.825
93.5727
64.7091
42.8727
77.4197
112.44
40.1722
-34.855
-32.4868
-31.5765
-38.8207
-32.7855
-29.448
-22.1459
-1.84435
83.8056
104.848
65.9559
51.0118
25.4741
-16.4793
-24.3126
-26.049
-61.1029
-134.513
-138.834
-72.0916
-8.95619
-1.83702
-2.96177
31.4326
51.2356
32.8106
55.1796
62.0715
49.5562
41.6117
6.62043
-37.7585
-24.954
-3.31314
11.3818
-0.847319
-0.90482
2.19036
-30.4289
-38.8656
-41.8105
-31.6081
4.91553
14.1888
8.71176
3.49476
-17.5555
-30.5141
-14.9523
-8.96796
13.2347
22.7394
23.8642
-9.37672
-100.797
-121.426
-77.7905
-21.0435
38.7991
167.814
262.502
240.555
81.5551
-52.5447
-158.063
-193.469
-163.74
-100.943
-27.3247
135.704
293.881
258.507
115.485
-16.2558
-38.4702
-28.8025
-42.6692
-54.1431
-70.4788
-140.904
-159.482
-130.549
-69.1378
-33.4451
-4.53064
23.9002
-8.6184
-29.6736
-10.3675
-36.9738
-102.564
-99.0997
-50.3924
43.2524
119.275
145.467
141.62
133.374
64.6286
-23.3606
-45.7202
-31.5182
35.006
50.3213
73.4497
101.341
108.528
127.381
83.8233
4.59479
-74.9398
-84.0547
-67.3422
-67.6509
-52.8217
-29.4255
-19.6857
-40.0416
-43.8568
-28.01
-40.7371
-37.9557
-15.7843
47.3593
30.5324
-38.763
-64.0629
-85.7017
-77.5017
-73.7171
-74.8154
1.67225
83.5394
47.4455
27.1129
40.5337
14.1889
25.8895
45.7626
-17.7611
-18.2864
36.4721
68.872
83.0216
143.028
140.404
37.8502
-47.6994
-82.0383
-104.087
-123.167
-102.205
-17.5422
108.409
111.814
55.3138
26.4374
-17.6417
-73.9217
-102.426
-95.9763
-52.8234
-68.2715
-77.8436
-24.9937
37.0662
27.7668
13.1237
41.6135
108.245
117.745
81.1669
31.8832
-12.4291
-27.7284
-39.7025
-32.0942
-30.4527
-7.34138
71.907
79.2645
19.6447
14.4449
4.78281
-61.2381
-36.1567
26.978
45.0394
23.3184
-18.107
-27.5688
-63.1845
-100.465
-90.0119
-74.6191
-44.8115
-3.55945
20.822
40.5478
63.8694
38.7185
36.5
29.8508
17.1902
2.83327
-33.7892
-1.8401
27.2515
36.062
14.1927
-1.55236
1.63698
-1.58102
-14.5879
-15.24
-13.2308
-2.95173
-10.6473
-6.88549
-2.20137
8.53668
-1.91826
-12.739
17.7949
41.9557
-27.3173
-30.9662
0.582655
50.2962
50.5918
20.786
-1.28185
-87.8341
-141.771
-109.81
-29.0338
83.5733
210.481
205.806
71.2887
10.7279
-24.7743
-73.9712
-100.984
-82.2542
-61.4071
-64.4783
-28.068
-18.8192
-81.0518
-93.9415
-10.2239
213.528
195.631
99.6526
60.5336
-38.4141
-147.873
-144.463
-55.9812
-34.2841
-23.7779
0.139785
5.48741
6.38555
49.2253
75.3678
53.9353
9.14999
48.7164
77.0681
27.7675
-71.1942
-37.2872
17.9142
-24.9051
-68.0529
-45.2807
7.28515
24.9359
44.9932
68.3004
80.2983
44.1279
-13.2885
-4.50299
-19.1881
-56.6729
-63.33
-32.2592
10.7647
-1.47525
-36.6758
1.85795
19.2894
31.1936
39.2016
8.65955
-42.4646
-31.1219
-34.1724
-26.7548
4.52531
12.968
14.5578
-6.57335
-1.44216
3.73422
12.6718
19.368
-4.57117
-10.6331
0.571281
-20.6894
-13.0757
4.4258
15.1438
23.0056
36.4425
-0.608393
-11.8146
-27.8725
-33.6794
-8.34504
1.93187
12.9666
10.6678
-0.4287
-5.2328
-20.9826
-50.1582
-48.4184
-39.5967
-11.4936
26.2569
86.7149
134.99
142.456
72.9247
24.3785
-4.2082
-57.8104
-93.3387
-107.404
-53.2505
-36.667
-24.615
-19.3676
-53.85
-41.0746
43.5942
88.904
76.7441
47.7206
35.0303
-8.72775
-37.7182
-44.1495
-24.1939
-9.76113
7.52489
17.4162
37.9501
43.5549
18.0864
0.285925
-17.8601
-15.4038
17.0119
15.7213
17.999
7.60369
-16.4192
-36.5069
-57.3573
-56.5572
-32.774
5.09143
42.5752
44.4606
23.7976
22.6757
3.40624
18.0822
19.1325
4.29226
27.8417
13.1175
-27.9939
-88.0088
-153.687
-141.81
-74.5343
-22.8283
46.6318
66.2149
59.1608
26.3426
-19.9805
-31.2434
-33.5337
-40.6633
-27.9779
17.1496
114.569
146.054
199.941
175.591
114.686
99.0969
113.581
26.756
-36.945
-44.6101
-79.8131
-103.923
-122.692
-132.728
-115.857
-108.259
-108.943
-94.6155
-89.1199
-71.8452
-91.093
-53.2698
31.5058
125.91
163.696
179.856
122.13
35.0626
-1.84643
-6.29987
-2.71891
-11.9793
-55.2388
-73.8752
-38.3993
14.9024
66.0243
104.609
151.114
79.4855
-40.9243
-61.9726
-107.385
-100.899
-82.3419
-87.2461
-65.0588
22.5435
28.9506
-28.1768
-33.8415
19.2123
81.8812
85.2434
62.9974
56.4755
52.2254
36.2506
-39.8973
-40.0219
22.1802
-4.76766
-46.9178
-54.5339
-8.85285
49.0977
108.688
109.98
65.6589
59.9868
15.2326
-52.2528
-87.972
-85.0824
-65.1233
-52.6133
-35.726
-30.639
-24.5452
-15.5421
-14.0304
-6.87637
-19.1976
-39.4375
-84.5034
-81.2512
-73.7839
3.72704
61.1271
74.2867
90.1933
50.8414
10.351
21.4522
37.5351
93.193
142.348
115.099
53.1392
-17.2029
-83.0223
-122.4
-141.628
-82.3013
1.74093
37.3423
44.6752
1.35244
-53.3767
-53.0318
-66.1629
-23.1707
68.6106
128.631
69.6605
-30.2745
-89.713
-100.542
-102.733
-67.8756
4.85601
46.9442
66.5944
71.3228
111.062
73.658
9.55244
-14.478
31.4226
62.7525
67.9589
43.3744
-6.48938
-69.2857
-100.357
-70.8758
-15.4693
10.5483
53.6047
79.5065
102.227
108.177
-2.93803
-98.6398
-86.837
-37.9498
-22.7938
-44.8567
-45.9617
-63.7421
-83.6591
-67.9467
-51.7391
-6.3279
76.2146
72.4623
6.90958
-14.0201
-9.45067
21.7382
15.5176
-9.5656
-18.5453
17.4404
-5.4869
-37.4955
-17.6335
20.2451
73.3627
64.1927
46.2983
60.0801
49.4924
16.3598
-9.49687
-24.8028
-68.7116
-85.9371
-49.3466
0.772747
-15.0516
-12.3958
19.6916
9.67017
-1.65692
-7.35079
1.79518
57.8166
40.692
26.2344
6.90817
-22.6622
-7.22925
-1.93239
24.0309
58.6237
95.4198
79.8783
40.284
-23.1214
-69.8081
-83.2476
-46.2433
-29.9669
-43.0547
-23.1697
-22.4382
-67.8021
-69.4254
-26.5303
10.1114
10.8907
-14.7022
11.7107
7.42141
-1.49569
-4.65711
16.7523
19.6685
6.75922
7.01692
36.4505
23.6491
3.81189
-5.55463
-7.25555
11.8746
41.1663
27.7406
27.3223
28.0246
47.1305
51.5478
4.61123
-42.6548
-55.0537
-38.988
24.6559
26.7496
6.23263
-0.404583
-4.78913
24.3929
15.853
-10.1354
20.8012
-7.26077
-72.048
-96.2823
-101.836
-71.7145
-26.4348
-5.43166
-20.5098
14.2874
62.1611
57.3938
39.5548
43.2769
41.2322
38.432
12.9651
-18.7471
2.20518
28.294
11.0124
0.101947
-1.83627
9.63552
25.0962
20.7469
-7.36801
35.3129
53.4775
7.90561
-30.0912
-42.5854
-73.8106
-101.143
-102.151
-39.0262
-17.6181
-1.44808
-9.26358
-20.9401
-26.8047
-15.8241
32.8884
69.2435
30.1736
9.33487
14.2219
0.819163
11.2656
26.316
13.1521
36.6735
65.7392
89.6019
102.008
68.353
5.46674
-9.46447
-14.4835
-42.8469
-74.1674
-66.6577
-109.219
-159.529
-105.205
-8.99959
46.3726
83.8709
162.814
200.207
111.206
29.951
-19.4203
-33.0849
-28.6022
-79.216
-87.7662
-71.2783
-91.7196
-94.7567
-108.883
-80.3756
-17.9657
9.52927
41.5308
93.9321
89.8802
34.8252
-32.9387
-77.5793
-55.9162
-49.6234
-48.4608
-56.6774
12.5366
136.43
178.652
110.311
75.5208
86.71
102.57
68.187
40.1718
82.096
56.8291
-22.1274
-94.4229
-162.118
-206.668
-154.719
-50.3852
8.39341
55.9482
50.9859
-24.9157
-63.8468
-49.0148
-16.806
7.21358
44.7046
76.2727
70.3254
66.9688
36.4218
-9.00504
-52.4657
-57.2063
15.9781
72.5951
36.4377
-9.77566
-26.293
-34.9059
0.0489374
-4.35741
-3.69395
48.4213
65.735
14.897
-32.6338
-59.2976
-65.0965
-78.1994
-34.3346
-8.89289
-15.1784
-14.2745
-32.1293
-52.8361
-43.3945
-33.5676
-10.6052
39.5033
52.9615
55.5904
25.2385
-6.45422
3.12886
41.306
46.9056
16.2948
36.0766
47.1033
12.8907
18.3589
35.047
43.9547
37.7239
22.2318
26.5594
17.3447
-14.464
-116.441
-137.051
-110.899
-63.3196
-25.924
41.8108
88.4949
126.529
130.89
122.841
83.0422
71.8729
13.5106
-55.8515
-54.5552
-39.6108
-138.053
-227.29
-147.133
-43.7801
28.8839
36.36
29.9248
13.6292
-37.6346
-77.5462
-59.3092
-36.3486
-23.4646
-39.7353
-40.3602
-34.0033
-18.7347
18.3048
88.892
111.645
153.499
194.548
179.537
67.0969
15.4105
0.644972
-32.8391
-52.8918
-50.2062
-48.5863
-42.5832
-59.0603
-22.9236
0.415189
8.02312
-1.93183
14.5856
30.397
-14.2994
-10.6867
45.298
35.8811
-2.97583
-6.80899
0.637888
11.7533
-18.8394
-64.591
-38.7466
-9.86385
10.2731
49.2945
83.2558
13.8141
-57.4599
-89.9842
-66.2449
-51.7417
20.5777
-0.64753
-55.0258
-79.3824
-81.4672
-17.1989
49.1204
70.7475
94.2662
70.3672
19.162
-24.2501
-24.4055
-39.5757
-69.0999
-10.9913
51.3829
59.29
66.7529
78.6569
26.8449
6.64691
1.33353
-4.40492
8.68434
5.60107
13.8636
19.9862
34.6446
39.7833
-3.82109
-92.7245
-134.511
-97.1776
-47.9105
-8.07194
5.15107
24.3354
9.43241
-14.9778
-12.142
-6.66293
22.4092
57.0895
36.6054
13.0875
-26.5291
-52.0556
-28.5569
-2.96743
21.6969
70.2063
73.886
42.8341
27.8107
20.0717
57.4348
44.3795
8.71775
-4.85139
-40.4905
-55.7244
-36.482
-13.2552
-9.2191
15.2418
11.5631
66.7157
34.4742
-21.6859
-43.667
-60.0473
-72.909
-56.792
-79.9044
-58.4541
-41.6158
-0.739092
41.4224
39.9163
14.0974
7.15201
-11.249
-12.2725
-4.73675
-2.45252
3.65852
-1.86366
-12.2028
16.7406
29.1809
66.4308
102.676
119.631
106.957
12.3624
-70.628
-114.891
-116.658
-66.2517
-34.3362
12.142
26.9844
6.61491
4.08608
-1.06854
-32.0528
-9.39046
90.1264
86.1117
57.6096
18.1875
-18.053
-71.8216
-77.8124
-29.7684
49.014
84.1231
39.0843
0.299489
3.15722
0.815909
8.13031
3.30409
2.00593
4.65592
11.2548
-25.8323
-69.9553
-42.0328
-18.2205
-9.14842
15.6959
-16.7811
-39.5412
-31.2183
-26.9351
-14.7451
16.7961
28.1286
37.3433
1.85932
-16.2421
-39.4118
-71.4554
-41.427
-12.3242
12.9233
12.0127
-1.30658
31.1556
68.2541
52.6017
52.2508
47.042
10.822
22.2598
10.6457
3.89156
3.9978
-8.54377
-7.46534
8.34297
42.6287
53.1679
36.0903
39.6375
1.53881
-18.8064
-20.3545
-23.9862
-27.9281
-61.1236
-95.8056
-91.8509
-36.4075
-33.9387
-11.0862
11.796
10.3669
9.143
9.75182
-0.717813
-10.4877
-24.7296
-30.9683
-3.38703
21.4339
3.61436
-0.577623
-1.83857
11.3049
47.0975
54.612
54.6901
37.1677
30.7807
40.9229
6.38518
-21.535
-39.8854
-30.8254
21.4328
43.4483
19.8778
-13.9918
-25.5842
-36.9545
1.76816
49.3006
69.0353
25.9347
-15.7833
-1.70375
-22.4712
-39.7563
-53.4009
-51.97
-0.235533
0.890683
-33.409
-58.6608
-92.1039
-71.7536
-1.49515
85.4359
119.432
124.907
59.4328
-31.7055
-84.9902
-89.4516
-57.9386
-24.3491
-51.6031
-45.283
-36.0717
-25.8551
19.074
96.5545
168.958
162.75
60.856
-8.24425
-4.63113
-10.8264
15.1884
36.2894
-16.9894
-44.5786
-37.5577
-29.7589
-34.0073
-32.7268
29.4965
52.1693
49.0277
61.8531
-5.0862
-89.9742
-133.481
-109.745
-21.4525
42.4127
39.9664
-14.1055
-74.4827
-66.829
-19.4383
15.7818
17.0104
32.2477
50.8074
51.3197
45.9673
15.5076
8.52039
-12.6363
-37.6748
-9.50945
46.696
49.9271
36.872
-4.4623
-0.791267
6.4711
-41.5378
-69.1169
-25.2842
-3.36198
14.0802
42.8651
94.1808
114.831
89.0699
88.6511
11.989
-84.7924
-104.318
-96.6208
-114.693
-87.5208
-0.244636
44.0015
16.4632
-27.8698
-28.1112
-20.7635
-16.7805
17.5368
30.6123
9.74443
-46.304
-91.5847
-85.1728
-66.748
-32.5794
23.47
134.648
184.001
173.808
89.7672
-15.2262
-58.9222
-60.2645
-30.4355
11.9431
33.7528
101.362
93.8866
18.8564
-19.2007
-49.8455
-38.2978
-31.884
-39.7862
-36.1176
-51.7133
-120.403
-172.592
-152.688
5.93575
120.526
184.676
201.61
132.979
26.8775
-74.1394
-120.835
-127.512
-127.319
-61.0904
-4.26838
6.95855
9.24689
5.52006
18.5358
42.6865
39.0507
48.7678
71.3429
36.8718
-11.6289
-26.293
-18.0762
28.695
50.6297
38.7274
0.641808
14.414
38.006
16.4882
-17.5887
-20.269
2.28603
-1.50402
-20.2106
4.64942
20.0982
23.9677
63.6398
1.57702
-59.1581
-77.275
-101.244
-55.8246
-7.44924
-1.71738
10.3846
-25.5058
20.1425
34.6251
-14.4353
-11.9741
-10.3354
-5.1523
2.14137
10.4001
18.7301
-17.6013
-87.696
-28.1536
56.3036
58.6005
21.9707
-21.2353
-15.2583
43.662
46.4699
33.4233
25.0679
10.3534
15.8877
-33.3414
-16.1158
41.9091
34.9043
-23.4465
-67.26
-20.5857
21.4988
2.17877
-37.2423
-61.945
-49.4544
-52.5142
-49.7018
-11.6151
49.412
124.833
131.495
99.8797
76.5573
32.5704
-26.061
-67.8174
-57.7408
-6.91348
22.8923
15.3045
-16.9339
-36.5855
-30.0967
-14.6212
-26.741
-13.8768
-18.5907
-57.4393
-119.345
-140.235
-93.6812
-32.7736
-5.63506
36.7933
71.1837
70.7909
83.6322
69.6974
62.056
59.498
46.1912
23.7786
43.046
68.8762
61.7224
0.636417
-43.6444
-52.4733
-73.5256
-62.4878
-40.092
27.1236
117.237
168.539
225.943
154.36
-22.2174
-141.042
-169.063
-137.069
-123.397
-112.971
-93.1142
-48.7391
-32.8713
-48.0866
3.94181
19.9848
21.602
-2.88114
-37.3443
-65.2249
-65.0426
-55.2412
-66.6915
-45.0154
21.7164
71.9629
111.069
144.567
181.858
129.831
29.611
20.1068
36.3089
47.0205
29.2574
4.73142
6.45803
9.84347
-22.0262
-57.3715
-63.0861
-51.5751
-86.9183
-72.2023
-0.0228818
56.0762
53.3992
4.78671
-47.7219
-52.6071
12.4887
4.08544
32.9433
60.8408
51.5312
35.5113
26.2659
9.54698
-11.2949
-4.22847
-41.1458
-52.5644
-56.5594
-56.5949
-40.5068
6.01799
42.8787
-1.19179
-40.0357
-30.9883
-38.4966
-47.207
-48.3524
-43.8763
-6.87595
32.5155
43.1572
74.5796
127.951
94.4553
19.1701
-45.893
-52.3546
-6.7435
2.96592
-28.1779
-12.4906
-8.10991
-4.90689
23.4958
58.5463
30.8631
37.1546
75.9169
45.8178
16.1669
-19.7433
-63.2418
-100.482
-123.108
-75.6466
-23.0502
-4.38192
7.77752
40.9725
38.485
34.9969
81.4044
45.6315
51.6647
16.93
-55.2022
-95.8679
-70.6428
-27.0487
-50.4289
-47.8804
17.9563
28.6936
19.8974
-3.85028
-28.5634
-15.2828
5.56615
44.0885
99.0302
83.9814
47.9315
56.0827
6.95548
-27.5377
26.7487
61.3125
8.94866
-25.5455
4.70373
13.1199
-9.29561
-10.9122
7.06029
14.6774
-14.7518
-44.9984
-36.9473
-63.3179
-124.389
-162.097
-147.85
-87.9652
-39.7295
-31.9012
42.1198
130.992
140.894
99.9121
78.3815
118.741
86.6232
29.5695
17.9545
39.5078
41.3216
3.25748
-49.361
-51.8065
-64.496
-100.749
-55.8084
-24.5294
-11.4851
2.56062
-26.0579
-82.6515
-88.2569
-56.2775
6.65666
25.9504
37.7877
69.882
36.298
-11.306
-2.18236
23.8621
63.5113
77.4419
85.8313
94.1825
53.8153
31.98
25.0853
36.3462
31.5431
-77.9725
-110.295
-89.2695
-99.5488
-97.4407
-93.7661
-74.5805
-17.8183
22.3002
64.2678
80.7488
45.203
16.9605
-12.8744
-6.63576
-2.78333
-30.0562
-13.1717
37.1199
35.2409
87.4554
108.832
104.12
46.2891
-28.2675
-35.7335
-27.3161
-38.1682
-45.4843
-57.0707
-60.5935
-27.0786
50.364
113.321
64.5194
-20.3456
-60.9894
-62.7284
-80.4817
-84.3259
-74.7241
-58.5772
-63.8252
-40.7127
24.7915
29.476
12.8966
2.86757
20.8337
21.2107
49.0102
66.1161
58.2707
40.4441
-1.93964
-5.70244
-11.1723
-33.6119
-4.39271
-1.28223
23.4996
58.5586
61.0757
31.4855
-4.82249
-12.284
20.3941
53.8419
50.8957
65.8143
48.5601
-23.0532
-101.018
-149.853
-113.869
-79.9141
-3.89769
73.3544
65.1924
79.3143
71.6046
39.393
1.45209
-29.064
-60.7515
-34.5189
-25.8677
-36.6678
-44.7884
-29.8648
-11.7254
6.69881
-10.1594
-19.1324
41.5484
57.9385
16.406
-57.1132
-87.2219
-111.054
-86.5611
-21.5998
59.2166
128.038
106.096
52.0998
2.66605
-30.7869
-49.5521
-75.6418
-78.1124
-45.1393
58.8535
142.03
163.425
134.515
78.5225
79.0998
52.8281
-10.7059
-16.0268
-26.4453
-67.3733
-49.81
0.060537
-37.1856
-64.6645
-75.3659
-37.0075
-17.9888
-18.6899
-49.513
-116.004
-121.894
-86.7871
-28.1902
77.8438
62.2334
12.8161
21.6056
15.5258
-4.1232
-6.8933
-11.9063
-4.77112
41.2198
77.348
93.5108
79.1755
49.7324
35.3522
24.2425
-12.7992
-31.2574
-4.15416
38.4788
18.1864
10.9106
18.2822
-17.5481
-81.4632
-72.9452
5.00903
11.5594
60.5971
111.394
65.2716
-5.61127
-50.2734
-55.6536
-28.5415
-39.3645
-48.4438
-61.1972
-90.6488
-98.4245
-76.5513
-39.6778
24.8922
76.8239
86.3586
64.002
8.31058
-26.0867
-74.0586
-113.466
-53.0368
40.4389
75.5859
61.8789
9.62584
-1.28195
21.8641
18.0002
19.2022
23.6349
43.6919
52.1762
95.2586
95.8185
52.4799
31.0627
23.5401
-21.1535
-51.8819
-44.2033
-22.6798
-43.0501
-51.4501
-37.169
-34.591
-13.6423
-1.32069
-18.4083
1.60477
-10.4906
-34.9779
-46.3056
-64.898
-35.1634
3.18775
0.845044
-10.3935
18.2288
20.1221
2.40809
28.3297
58.6619
7.18083
-22.0621
8.02113
31.6158
19.8067
-4.3392
-50.5961
-22.4954
3.80022
-3.73424
10.8636
61.2868
78.0571
78.078
26.2958
11.5755
44.3087
39.9838
-38.9735
-63.6905
-3.00771
-2.83199
-12.0252
-0.769313
-29.75
-50.8887
-74.0941
-72.9662
-37.9697
69.9188
91.6474
45.7204
37.2114
-36.7983
-104.605
-133.775
-94.2576
-17.1759
28.8974
42.3433
77.883
123.705
61.5246
-3.83296
-1.0581
46.0519
56.423
21.549
-20.2995
-70.6051
-103.27
-144.15
-140.166
-79.1797
24.8889
93.9324
142.048
145.223
44.529
-15.649
-47.3639
-79.7542
-28.2501
29.6197
51.1605
64.7296
69.1654
39.7194
34.0761
10.8113
-53.0919
-46.6361
-35.0619
-2.63495
24.4516
25.6083
-21.037
-46.6646
-1.67822
47.4412
64.733
65.6372
27.971
-49.6956
-114.544
-134.917
-112.725
-74.8969
-74.8661
-46.2013
1.08928
36.7648
69.6952
80.371
49.751
56.9345
28.0625
-13.3566
4.94018
-19.753
-33.7378
-6.71346
26.455
92.4768
103.66
100.426
91.7948
42.5046
-35.3373
-111.646
-104.635
-75.3105
12.4395
72.1658
60.6447
29.5682
-29.2455
0.119317
66.5875
-34.0285
-102.292
-81.1533
-54.305
-42.9143
-29.1445
-27.4696
-8.40059
0.753766
4.4064
22.9507
20.7185
16.9078
-27.7966
-57.4478
11.0146
12.328
-26.2641
-73.9699
-110.916
-3.44062
45.9157
34.5327
27.4333
-2.49318
47.5227
68.2285
30.9906
56.1523
82.5456
91.96
71.5883
56.5233
22.5425
-18.1029
-70.3784
-43.3883
7.99009
10.9933
-12.865
-20.4374
-30.4762
-50.3163
-60.3691
-63.604
-20.7553
51.8944
83.0769
88.0708
82.696
52.8369
23.4875
-4.04025
-43.4629
-72.6346
-44.5614
-29.7104
-14.6878
-23.3353
-33.2199
-16.9941
-11.267
-26.7226
0.365175
4.24456
-18.2443
-52.6497
-76.8642
-81.4736
-49.9444
-19.4719
56.8298
76.0808
52.3795
42.8772
2.35942
-87.1846
-104.948
-27.9082
42.4964
48.3817
44.1873
52.9329
37.6188
38.0703
21.8396
30.5118
81.9357
82.0099
82.27
57.3903
1.241
-108.23
-207.95
-148.764
-49.9248
78.5297
142.123
132.094
99.5093
30.218
-12.9915
-38.5966
-53.142
-25.6473
13.4908
60.925
24.5512
-42.8246
-98.6297
-118.844
-118.883
-46.5779
55.8557
53.1275
82.1572
67.7915
-26.5558
-37.4449
-27.7282
-5.53269
32.5564
14.0503
-31.3172
-41.6873
-52.2495
-85.4812
-56.6757
-9.04289
6.6951
-3.78481
21.3531
45.7346
73.5352
58.9175
-22.5846
-64.8526
-2.63471
-0.342576
-18.3881
-14.2805
-5.22339
48.3529
78.1247
72.4821
46.3483
2.97868
-20.573
20.5052
67.5516
70.9311
65.5794
61.4319
19.3223
-11.4793
-30.4746
-57.5049
-55.2553
-57.8522
-50.9361
-49.2403
-66.3026
-49.3886
-37.4577
-57.8256
-10.5624
34.0089
23.9854
-4.73555
1.72038
12.4707
-11.3542
-13.2717
20.9183
81.7712
109.372
84.4327
44.108
30.7108
-1.84098
-19.112
-10.434
-52.0133
-42.5301
11.99
-42.6307
-124.569
-120.598
-96.2098
-82.5549
-11.6179
55.6998
96.4818
105.762
77.2117
9.20305
2.41845
5.80623
-77.3012
-106.778
-49.5741
-40.5618
-1.68122
44.2148
53.3444
79.5775
113.372
76.5765
33.6806
44.6319
36.4585
3.45064
-27.8021
-41.0851
-67.4173
-65.1768
-31.3001
48.6756
104.088
93.8552
51.1256
21.5448
-18.9768
-73.2155
-85.3826
-57.5908
-87.8024
-53.6659
15.0501
17.4541
10.5171
-26.7529
-37.5514
0.488369
41.735
51.9966
26.6919
-25.8062
-21.8857
-2.5107
-12.4013
33.2163
95.4781
40.8379
-15.9404
-54.1689
-23.3949
-8.88148
-28.9275
-64.7802
-45.514
-17.2955
-8.37011
-50.242
-72.1651
-40.3319
-7.6778
-10.5518
22.1609
35.7305
69.0676
71.453
45.3036
50.5213
35.9792
17.1321
20.1803
48.8935
70.4359
113.774
68.2876
15.6148
14.214
-5.52347
-44.5579
-44.0454
-4.84983
-17.6222
-56.8855
-60.4125
-43.66
-46.0559
-64.0237
-18.1326
18.5076
-3.29507
-10.4037
-8.85532
-29.3338
-76.8098
-53.7256
-21.346
-26.9913
-6.66072
23.3323
32.503
23.011
25.287
8.22367
-50.7846
-95.8943
-77.3423
4.4807
53.2675
111.854
141.518
109.846
60.541
36.4019
13.0782
5.48309
42.9904
75.8658
88.1181
16.4077
-28.6771
-52.3638
-77.2336
-69.0522
-43.0615
-1.7482
20.9252
-23.5803
-25.8659
-47.9401
-95.3493
-75.9117
-68.8789
-63.3998
-26.0416
-5.38486
-1.03625
-8.45784
-31.9666
10.0215
-4.02234
0.449795
44.1142
72.6029
154.044
168.135
100.874
26.909
-3.08512
5.34056
54.1257
47.7389
1.17615
-38.3973
-47.0464
-49.0646
-85.4807
-72.5662
-14.8991
-4.49077
3.14199
-18.5723
-44.4757
-80.9832
-123.19
-104.231
-30.8908
43.4281
27.8475
-4.19323
4.02887
28.9037
62.4215
64.9513
48.7441
55.0669
38.0734
9.63496
7.97163
31.5342
26.8934
-7.88285
11.3353
42.3069
26.5202
26.83
30.9946
-16.759
-5.45726
19.8782
11.8496
0.640962
-52.93
-72.2592
-57.2942
-23.3224
16.384
18.0344
-31.252
-50.7304
-34.0552
-12.0494
3.24096
32.6599
44.0581
4.0117
-28.6297
-29.575
-40.1266
-41.3662
-22.0711
-17.8231
8.19222
11.9859
-29.446
-90.6554
-90.0752
-6.65702
70.5999
140.944
161.251
126.957
47.6616
-30.887
-38.4895
23.9023
3.82855
-7.13917
-7.28179
-12.4598
2.21833
-2.7271
18.6932
52.8033
20.0353
-21.1945
-49.8944
-94.2453
-92.462
-106.664
-134.575
-49.4816
71.7481
82.4586
64.0882
107.889
90.7396
66.8135
44.1915
-19.8213
-55.8544
-33.8837
-30.7825
-20.6496
25.4789
40.9898
24.9521
-30.1109
-74.0238
-49.2295
3.79938
30.6123
11.9055
-21.3369
-39.1303
-88.4197
-51.1433
-11.9482
-15.3605
27.592
12.1018
9.3131
51.9245
51.565
50.0254
37.6497
44.6731
93.1642
82.9522
40.0511
5.37796
-29.1753
-31.1997
-37.46
-50.8787
-33.6493
13.664
5.98137
-29.8178
-52.5392
-63.9399
-63.333
-74.6497
-56.6252
-52.2953
-77.1911
-42.4466
2.62319
33.1618
72.459
100.846
110.537
113.718
102.496
74.1917
-0.278338
-49.4513
-60.407
-55.4145
-56.0306
-3.5948
42.5086
50.1059
38.4865
35.6488
48.2441
24.9183
-49.7445
-64.6354
-56.3276
-49.8601
-56.0924
-80.543
-57.7612
-15.8609
-3.64517
2.86623
39.5321
53.7467
59.1013
70.8404
39.0088
4.33499
-22.7537
-44.5481
-53.7363
-44.5155
-14.2384
41.3685
94.5184
80.7043
22.4995
-23.4551
-26.3901
-10.1365
-34.3291
-66.5267
-50.8784
14.0208
22.6498
0.466169
-1.62666
-6.48547
11.6886
-4.16094
-27.7114
-6.47908
48.2164
110.747
104.246
78.2021
30.2356
-11.7491
-36.5706
8.83724
27.6778
-11.143
-66.4168
-106.746
-117.512
-98.0529
-89.9188
-67.0182
-62.0075
-14.7055
43.3656
39.4761
24.631
14.0069
-47.7523
-88.4655
-72.4631
-18.0305
58.1751
61.4647
112.075
269.431
217.318
69.7073
9.1963
-21.5374
-14.1638
13.1646
36.2551
64.3525
57.3304
-3.56571
-78.7813
-121.678
-126.524
-99.9738
-77.1594
-69.1223
-16.2022
-7.59405
-21.5834
-99.2603
-50.2958
42.8831
56.568
7.16386
-28.8098
-18.9157
23.6369
23.9919
67.9843
140.235
135.041
34.2464
-30.3079
-19.1526
28.7076
47.8572
22.5032
3.0747
-50.5213
-99.5252
-89.4279
-61.9788
10.0452
34.474
27.0174
4.28508
-32.1239
-42.4365
-53.947
-49.5379
22.781
70.3293
83.9758
45.772
-7.7825
-38.7502
-55.6843
-48.6856
1.15791
25.8066
9.92177
-18.9215
-26.6159
18.0653
22.0673
-11.1821
-4.14415
60.3581
74.5142
21.8235
-46.9282
-48.2059
-21.2246
-11.2198
-39.949
-29.4279
23.1871
-1.6213
2.02954
54.6433
97.768
80.4593
9.45279
7.42496
42.3212
19.9803
-48.3068
-77.2893
-52.4276
-36.1713
-31.3017
7.54222
-46.1201
-49.8481
30.1292
76.5089
39.0434
35.1229
23.2723
-15.3759
-25.2758
11.6744
6.33455
-26.92
-25.0641
11.6409
17.6814
-1.33718
-6.48696
-5.33036
-22.8908
-64.6898
-15.0019
12.6095
10.6353
17.5813
-14.167
-19.7535
-22.8855
-25.5892
-2.27664
23.9022
35.5042
60.8969
34.6274
-1.81035
27.46
30.6271
-25.6988
-40.3781
-16.318
-16.0283
-30.6444
-26.257
-41.0806
-8.62167
46.8514
36.2726
13.9515
-7.52151
-36.7787
-41.2852
-32.7166
-49.0928
-55.2257
-42.1259
-18.9746
13.0246
47.3587
75.1702
104.587
112.881
78.7907
59.611
59.1893
16.8445
-10.1872
5.6395
-9.13533
23.4832
32.1808
33.7366
21.7833
-33.9101
-67.8255
-46.4107
-32.5892
-60.5132
-52.913
-29.9955
-26.747
-37.473
-23.1174
-15.6736
-35.2289
-119.364
-169.938
-86.5293
22.1397
39.622
43.3667
49.0416
39.146
34.0863
54.5058
81.329
54.6865
46.8203
36.9377
6.48492
-15.3652
-20.983
-5.45092
39.5651
52.9002
78.9368
102.093
62.16
9.011
-23.7243
-48.9637
-112.275
-97.4077
-38.0805
-65.2631
-72.7177
-60.2257
-28.153
56.8623
115.865
101.497
70.9944
84.8877
7.50755
-27.2025
-33.6846
-52.6545
-85.7638
-105.158
-134.56
-87.6319
-12.428
22.4208
32.2624
52.476
53.5478
52.0961
25.8741
15.6909
-3.63887
-12.243
-18.7123
-36.1796
-16.2274
7.20795
11.1289
31.2039
49.9936
75.374
108.657
81.3441
43.2378
43.9434
17.6943
10.7315
-10.1761
-17.1458
-23.4511
-76.2592
-90.9561
-76.2992
-75.9557
-64.1878
-80.1208
-45.0537
0.979205
34.352
58.6301
28.4052
-2.08237
-0.546138
12.4781
-49.3164
-43.0984
18.2412
56.8499
48.124
30.1417
15.0934
-13.4604
21.1141
54.5626
47.1501
108.86
41.9655
-77.391
-90.5824
-62.6148
-14.2711
21.8106
1.54325
-5.21496
9.70228
-14.2286
-37.9313
-32.7508
-6.76405
36.3915
44.702
12.5944
-37.1619
-58.4995
-50.9136
-73.0473
-50.8596
30.1552
58.5836
31.8899
10.8339
-13.2891
-14.0581
6.69556
31.5312
63.8682
75.8394
65.5515
11.1705
-52.921
-54.5453
-14.0444
-11.5914
13.6333
56.3992
85.6254
126.071
118.854
66.9508
29.3911
-37.5832
-88.0739
-80.7135
-73.2538
-95.1873
-116.724
-134.133
-122.943
-56.4518
-22.0575
-31.2671
15.5709
46.2305
47.6693
20.3756
1.79607
-12.9183
-14.873
-6.27153
5.79456
46.4797
94.4627
119.151
116.081
110.108
72.2449
43.4015
-0.15872
-73.7795
-97.8417
-97.3184
-62.6045
-13.3795
-8.10393
10.8975
28.7695
24.9301
21.3422
13.0416
7.6857
0.428489
-28.9134
-53.7745
-52.4485
-18.6582
10.2914
13.7232
2.30882
77.1971
127.431
20.6846
-72.2759
-64.8072
-27.2185
-58.278
-55.085
-19.8475
4.49899
2.11436
-15.4254
-29.5078
-11.5133
21.9842
20.3442
19.0015
-3.34755
5.90511
39.713
7.49659
-0.54052
102.726
157.642
53.1326
-55.1431
-48.5798
-22.8236
-25.8231
-19.0929
-10.3137
-30.9014
-32.8154
-45.6069
-44.0665
-5.78235
36.654
34.0034
6.13063
-7.44287
-3.23729
-25.7889
-56.3391
-82.4296
-54.1806
-14.6471
23.63
29.2276
64.8411
63.0942
41.0528
35.1788
23.0479
2.45043
-44.5188
-49.3766
-25.4448
45.7758
88.9631
101.872
69.2677
-2.83143
-33.9095
1.98446
50.6675
93.6018
36.0054
-47.0314
-87.7275
-92.2451
-122.381
-78.6262
-4.17638
30.5158
34.6427
-1.7333
-42.3812
-69.0913
-73.6373
-42.0787
-62.2939
-61.9992
-10.6575
11.3284
25.5663
53.34
93.0242
65.72
36.7592
76.0509
98.9644
78.5195
15.9438
-30.1199
-32.7329
-15.856
-18.019
0.00730645
0.898982
-16.2629
3.05098
42.8899
39.5847
0.00423286
-36.8416
-81.5649
-77.5033
-21.8498
1.96665
-21.402
-17.3794
-18.0431
-6.08184
11.1866
39.019
22.8882
14.2637
-8.49195
-8.92772
-8.24914
0.571087
10.2012
25.4183
38.3049
58.2987
15.9726
-41.6662
-33.7367
-33.001
-40.099
-7.55509
-8.52677
5.07971
43.8437
51.6817
20.8768
-6.96057
-4.91514
16.0875
2.51697
13.2405
33.5851
50.5387
10.6139
-53.4125
-72.7794
-95.7424
-64.2057
-34.5532
-8.50667
-2.67971
-6.48641
0.825817
51.0739
57.0291
27.8222
37.2549
25.0141
-35.3485
-53.4433
16.144
99.5957
71.926
8.93971
11.1538
54.8128
42.7564
12.6416
-23.7778
-57.9806
-89.0306
-100.706
-90.6305
-111.661
-77.6415
51.1894
111.462
76.58
11.8217
-27.9784
-50.8185
-78.3903
-77.2395
-2.40475
36.964
33.7817
45.6111
31.3712
37.2699
71.5025
81.9261
124.96
93.698
51.6161
13.3914
-31.5652
-74.8222
-111.31
-106.729
-86.5225
-42.6186
-8.18437
5.64903
16.3352
28.2578
52.305
64.5431
26.8105
4.46526
21.4388
17.5777
-7.46949
-0.988024
-31.9345
-55.4497
-52.5336
-63.6125
-3.61635
42.019
33.2712
-7.29853
-6.84087
16.0702
-11.2927
-0.111047
63.7689
45.5372
32.1352
20.8357
-30.2158
-34.9704
-51.6321
-68.2547
-6.54863
6.34771
-22.2599
-11.1943
15.0981
43.2393
54.984
0.757762
-40.1143
-56.1269
-54.0964
-25.0028
-5.57006
18.5727
13.2517
-6.46884
-13.9797
32.2015
53.0856
39.1184
28.672
26.7317
20.57
8.54476
-18.9504
-55.6754
-59.85
-8.92833
49.4505
52.4233
46.4686
5.99892
-50.8717
-37.949
-1.9186
21.1253
60.0048
47.7002
38.382
36.1449
-30.9911
-56.9561
-54.3018
-44.6171
6.99921
64.4012
100.218
43.4082
-46.6487
-67.2001
-88.6948
-96.5526
-78.5492
-41.338
-1.43991
32.9319
46.585
31.4088
6.78788
-16.0286
14.5818
13.4759
-6.28201
22.4655
-2.50147
-27.3021
-9.33981
69.5395
57.7798
39.8199
84.6146
46.8209
13.892
14.6051
-2.58185
-28.2811
-55.4865
-53.9015
-14.1492
-37.9734
-78.6967
-45.0578
-19.1634
-56.996
-81.2798
-45.2704
17.6837
14.6338
2.15753
11.2766
45.6909
40.6868
-18.1749
-28.0842
29.056
61.836
93.8857
109.667
71.9395
64.0015
57.017
5.63418
-16.7607
10.907
1.33913
-14.6526
-52.7355
-77.5467
-61.2574
-33.7428
-69.6492
-31.5421
24.2896
9.84127
-30.9771
-44.8863
-52.6588
-37.4118
-19.6533
-32.082
-9.5657
41.5389
29.0889
-0.501055
24.1565
70.2273
92.0578
113.605
117.956
76.0674
27.3075
-28.2469
-59.4776
-62.4455
-64.0116
-78.0173
-95.5926
-45.1368
-35.4427
-10.7379
12.7457
32.2503
63.9711
59.6941
91.599
81.1023
-16.4819
-86.694
-127.096
-126.961
-93.8862
-58.0677
-18.806
-5.51572
20.8964
75.6131
97.1159
58.5828
36.8149
24.0894
2.53693
10.7616
53.7268
75.8543
55.9368
38.9487
17.2141
-71.8473
-130.242
-142.29
-77.4767
43.2574
100.268
104.762
41.3326
-7.36107
-29.2769
-48.9192
-22.1846
42.05
32.9693
-25.4619
-54.1139
-37.8501
5.14816
-25.7486
-32.6446
72.649
109.921
113.305
58.6236
1.58899
-20.1234
-54.4887
-73.5932
-72.6888
-35.167
-26.8232
-10.5045
-5.35044
-1.39773
3.13754
-6.94861
-51.3669
-98.2409
-91.4936
-41.2596
-9.63277
42.1445
67.9957
40.2932
1.36733
-15.5001
39.9588
54.1774
50.3171
23.7347
18.6713
-2.03647
-24.435
-6.30068
27.9841
84.5335
98.5975
97.3228
47.4831
3.83892
-5.3787
9.57303
-1.41504
8.35748
-17.1033
-57.1428
-71.4467
-61.591
-49.7871
-55.0876
-80.0347
-46.4974
-26.3592
-39.015
-95.1573
-94.1929
-43.7204
-15.9501
54.0747
128.817
98.2906
38.9519
17.8444
21.8382
31.576
30.4477
10.5265
39.6802
40.5853
17.3842
14.5166
-7.43844
1.72945
28.5108
11.9741
-31.7135
-23.6143
2.24682
23.5134
54.7828
67.3191
10.4054
-64.9026
-103.239
-123.587
-73.406
19.5105
61.4011
8.23784
-22.4864
-23.0842
-19.7084
-18.611
-27.0663
7.07408
45.3739
29.8359
12.6873
-2.895
-60.4599
-83.0274
-62.9608
-34.7197
19.6531
55.3483
45.05
7.01332
-1.30276
79.3708
144.252
119.099
78.6505
37.9951
22.1633
16.9664
-42.3601
-64.4526
-86.1164
-122.683
-107.985
-72.2716
-25.0101
36.1991
87.9038
91.7929
40.8239
-21.7656
-73.2918
-54.8511
-31.3378
-2.37775
12.1259
54.3898
67.9778
36.5805
0.566726
14.3075
30.7503
1.93286
-71.5931
-102.771
-47.4588
-11.0973
-32.7538
-8.08218
53.3625
64.0388
52.821
17.5345
-29.2304
-55.9468
-56.5293
-53.8414
-37.1862
4.45942
35.7215
24.4759
47.5811
93.4258
154.045
141.029
98.9488
53.0555
-4.57442
-42.1238
-65.4895
-58.0714
-67.9216
-87.4654
-70.8601
-42.1975
-38.8791
-42.5784
-38.144
-20.0965
2.79563
-31.2713
-77.1134
-56.1677
-35.5546
-31.5079
-11.3559
30.7955
57.1476
67.7867
33.463
-37.6989
-54.1352
18.127
95.9402
177.599
123.085
71.7695
85.5715
79.824
-33.2359
-66.8693
-5.14998
-6.40054
-49.6089
-48.4006
-19.8907
-9.2463
-32.4228
-58.5243
-34.7389
-8.39628
22.8997
10.3985
-46.9141
-109.663
-73.2196
-9.92679
-3.58961
-11.7653
86.178
170.41
64.1802
-23.128
-57.0746
-61.8896
-68.5342
-59.0575
-26.6506
-3.55834
4.6757
46.6452
77.1309
42.0014
42.6426
56.9328
92.7872
46.0607
-17.2523
-41.8711
-59.3333
-127.63
-131.386
-67.9626
30.2941
65.4173
34.6461
7.46591
19.5062
21.7147
-4.09365
23.3461
48.4424
59.4033
49.971
36.8995
10.4362
3.48587
-13.828
-10.8232
9.57965
27.8399
12.1555
-25.3664
-45.597
-20.1441
-5.82247
-14.5615
-40.5194
-12.3963
-4.69349
-27.4143
-30.42
-35.3961
-54.1419
-73.8689
-105.377
-58.5098
36.5775
56.4399
49.1581
39.5238
40.1656
40.8592
6.21107
-39.1271
-14.8577
78.088
129.504
55.9511
11.0961
-2.16322
-9.91664
-21.6589
-55.591
-56.8442
18.0432
47.3236
37.4505
-12.0769
-39.9273
-24.3627
-8.4504
26.3199
71.196
69.5394
30.6351
-40.7608
-90.6923
-65.3984
-54.7934
-54.2033
-54.1361
-40.8602
24.0368
55.4339
54.0051
27.9803
-13.7751
19.2001
3.41285
13.2737
-0.49475
-4.62565
19.9993
2.48011
-21.601
-8.35642
6.12911
9.06119
50.5578
59.9953
2.08133
-53.8193
-98.7198
-54.3098
-5.00491
5.36316
12.0223
17.3879
32.0736
-9.38136
28.7725
43.0401
5.88965
24.1237
36.2388
5.64408
-22.9757
-19.7641
-24.0004
-44.9916
-50.1415
-30.1104
41.6067
46.5989
