-5.5941
-2.19985
-2.32598
-1.52014
3.93172
3.10563
-4.33945
-3.46259
1.27612
1.72761
-2.36965
0.555274
3.04729
-0.666775
-9.11042
-14.4009
-17.1528
-10.5613
0.288275
1.04828
-0.0620135
1.74112
13.5208
13.134
7.82339
1.1286
-6.08636
-11.5212
-12.0765
-15.7784
-10.5959
-2.17392
2.19604
10.1219
14.9509
9.95735
6.82472
0.993731
-9.53763
-10.212
-3.3774
5.60993
12.9735
7.26215
-0.324222
-1.33533
0.468835
-4.13567
-3.7084
6.59674
3.99868
-4.6144
-4.41314
-4.03604
-4.3497
-1.80225
3.32196
4.10019
5.16712
4.68245
0.704789
-3.72562
-8.96678
-6.99968
-3.5629
0.668986
3.53113
8.5405
6.43435
-1.14448
-0.455402
0.798566
-0.92487
-2.88468
-4.03992
1.97387
2.57039
-2.9468
-7.26362
-6.36508
-3.62467
-3.87182
-3.59899
6.83914
10.2849
12.0469
14.9287
9.27042
2.27818
-3.56113
-12.3291
-12.6099
-4.67808
-1.53713
2.30851
2.2817
-0.3395
-3.70232
-7.31318
-3.45159
1.09545
4.99385
5.73155
-7.14617
-11.8853
3.89001
18.4288
18.0213
8.35508
-5.30791
-13.389
-6.5324
-0.724799
3.20426
3.15749
2.0697
2.78369
3.80582
7.37491
2.54752
-2.70442
-6.26839
-7.63004
-1.6768
-1.83504
-11.7552
-18.4739
-15.9487
-4.83436
9.72312
18.2482
13.1078
3.17811
1.2759
-0.882054
-3.8804
-5.58099
-5.44197
-3.21715
1.10942
9.01192
10.5698
4.4601
3.38965
5.71143
3.56374
-1.46066
-0.735364
-1.12829
-2.2412
-3.75332
-2.96407
-1.49044
1.16853
1.98549
-5.84053
-3.37627
1.7274
2.53645
3.67545
-4.04788
-15.5181
-14.753
-7.39128
0.709325
4.72319
6.55995
8.42737
10.1418
14.0185
14.0787
7.39157
-0.989561
-5.07962
-0.317401
5.12502
3.27007
-0.109538
-4.31174
-5.51825
-5.44532
-1.23514
-0.256419
-3.13689
-5.94488
-10.1216
-12.4206
-7.51071
-7.83754
-5.84205
1.71663
-0.551727
-10.8242
-15.0506
-11.562
3.50594
18.8148
18.5122
8.53359
0.863252
-2.31925
3.44167
10.7046
15.1729
14.1196
12.6073
10.7749
7.11032
2.37844
0.454468
-5.22207
-4.86246
1.95261
7.69212
-7.32554
-13.9636
-11.2502
-10.5709
-7.95201
-6.59866
-1.22726
7.30252
4.27563
-3.02823
-3.72036
0.87523
0.528995
-3.90825
-2.59739
4.92516
8.71953
-4.97163
-8.18259
-16.3858
-18.2745
-18.9352
-17.7341
-1.3104
12.8413
17.9979
20.813
13.5922
8.21928
11.7086
9.36456
14.6334
24.5069
24.357
17.3069
-5.50469
-24.3152
-16.2724
1.88267
9.24203
-14.0163
-34.8883
-31.3711
-15.6718
-9.04345
14.8773
19.3088
-1.90451
-88.5879
-142.406
55.5389
88.3253
0.30331
78.2285
143.577
80.1569
171.729
235.851
-2.85524
-289.625
-409.404
-232.556
-57.624
-10.2971
87.2692
128.34
-13.6757
-79.8186
-62.6951
-52.5219
-53.4671
-13.6971
32.3184
-53.3573
3.92078
166.926
140.053
110.792
232.82
383.923
360.335
185.159
57.6308
38.927
-57.3581
-219.875
-241.278
-236.998
-151.602
-74.6956
-133.664
-139.759
-98.6622
-70.4535
-112.426
-145.245
-162.014
-168.704
-109.38
-33.7928
91.0738
157.394
110.39
19.8572
-9.59387
43.1597
112.268
140.831
163.415
221.899
160.963
85.0883
67.7572
31.0405
-31.385
-58.7677
-56.7149
-44.6927
-13.5228
-0.16851
15.0308
-16.2819
-38.2305
-33.6074
-27.7533
-1.7488
62.8518
101.07
61.9881
-18.6503
-134.979
-161.523
-55.2547
17.1862
16.6132
4.8062
2.4812
-24.4811
-65.1764
-120.083
-80.4081
-38.2927
-24.5244
-14.6344
-9.28149
16.6494
37.5652
43.0956
46.0186
42.7215
63.834
81.481
32.2659
6.70707
4.18891
-0.810321
-22.6345
-29.5963
-1.4758
49.0708
44.8592
11.4321
1.35796
9.05579
19.0032
19.8155
4.47402
-9.33669
-22.0693
-18.4811
-2.53818
8.33604
-12.7283
-26.747
-22.7792
-15.9186
-23.7839
-30.1642
-20.2137
5.87027
10.0066
-2.42159
-3.83062
-1.83878
3.96405
12.7452
24.5004
29.1391
18.711
-17.5737
-21.3155
-4.62384
-3.09738
7.02859
-8.01134
-46.9376
-29.5315
24.5503
46.4153
31.2185
-42.201
-75.1033
17.1782
135.434
163.632
37.2874
-161.493
-245.314
-109.814
-16.2305
43.8014
60.3601
67.7933
59.2609
72.052
205.36
280.564
277.958
-147.746
-526.99
-329.022
-86.3588
97.1984
88.7344
-24.8041
-261.969
-247.44
66.6143
221.327
245.588
200.865
-56.5871
-76.5225
107.651
167.089
-2.03923
-172.301
-146.726
127.127
428.693
258.356
49.8729
-149.582
-417.677
-216.838
228.735
721.185
517.721
-321.413
-885.624
-396.093
80.6022
41.1866
-68.8387
100.622
-320.889
-778.347
-734.346
-206.434
72.7526
138.291
187.313
355.712
502.091
330.766
-41.6092
-244.206
-24.5449
397.856
300.703
-548.546
-873.344
-194.444
532.177
758.196
910.296
913.184
670.953
390.55
236.908
153.634
48.611
-136.559
4.77076
465.112
486.581
-606.176
-1376.48
-840.045
7.30011
132.696
83.0572
-378.823
-718.236
-868.674
-499.181
280.328
643.044
167.97
-742.341
-1077.18
-909.326
-450.47
-67.2778
119.679
140.718
599.166
744.647
415.056
176.405
21.2731
284.122
715.716
689.28
527.988
-174.2
-989.081
-503.731
0.0817313
128.25
215.669
494.389
847.994
876.771
102.816
200.385
95.5969
-297.609
-234.939
-679.798
-605.497
-280.586
-74.3285
-120.485
-423.855
-342.805
106.33
-384.675
-267.185
628.578
884.331
164.491
-314.312
-487.903
-660.938
-704.014
86.5107
774.3
581.734
330.992
458.981
276.525
109.555
-253.883
-710.909
-119.946
578.261
874.529
629.662
194.091
-269.997
-302.296
-67.3411
-20.6908
-262.25
-386.125
-471.914
-254.243
448.76
646.088
155.406
-151.491
-240.359
-74.541
468.713
181.125
-932.685
-1147.36
-1173.16
-727.01
-280.129
-269.433
-340.189
-168.63
591.027
945.462
775.67
527.877
-18.8783
-138.971
75.4076
229.019
113.525
-52.3539
-102.96
359.646
973.922
763.666
653.531
752.912
930.675
497.687
-31.146
-652.902
-1215.81
-1061.02
-753.322
-593.065
-492.648
-324.33
-41.1416
373.791
511.066
462.019
75.0403
-513.33
-408.731
-32.2401
-123.345
-674.558
-595.128
360.053
361.097
-6.77497
-84.4436
-159.952
-215.58
-209.182
-122.238
254.227
576.823
624.061
491.298
158.756
277.951
512.667
261.586
-192.574
-346.403
-296.992
-96.0256
250.888
354.143
168.754
432.651
365.083
197.107
282.62
29.9685
-192.044
4.7143
-134.443
-373.008
-556.571
-1001
-1173.77
-459.807
-30.6561
303.253
385.83
78.5481
-331.117
-390.533
26.6482
40.8066
-176.979
-34.4008
476.548
342.15
-19.5515
91.7544
-97.129
-145.194
18.0652
338.365
349.121
301.735
349.49
183.901
-117.189
-308.956
-605.737
-614.546
89.4645
985.061
1308.89
722.933
-344.248
-675.57
63.6471
196.168
-348.59
-545.237
159.153
354.609
584.659
444.662
-232.057
-445.577
-253.006
-218.926
10.3952
71.1673
-476.621
-583.619
-208.865
-135.305
-314.685
-126.027
177.106
-118.24
-244.307
-314.812
-550.98
-305.649
81.2426
-81.4516
339.3
586.854
340.087
537.876
839.177
761.083
1173.13
345.034
-961.362
-892.21
-385.694
62.7927
65.6774
-12.7568
189.994
374.244
388.112
318.826
314.905
-326.283
-862.384
-767.753
-208.597
55.4119
-26.5832
-442.883
-720.261
-405.485
-30.6139
137.295
627.419
645.425
264.847
-3.90635
-211.997
-161.408
55.67
260.283
32.0906
-207.073
-112.505
622.046
695.515
214.657
-357.253
-226.489
-109.71
42.3077
-122.981
-323.428
-638.887
51.9654
590.255
505.848
16.1469
-189.664
-117.917
-278.897
-624.788
-539.367
-119.963
-396.538
239.857
621.812
859.693
567.055
184.885
-102.997
176.983
451.406
25.6041
-424.092
-373.641
-225.042
97.6503
-140.53
-116.731
27.6928
-11.7153
477.581
560.548
238.485
-655.4
-952.223
-873.38
-209.212
-197.286
-482.443
-124.675
426.824
767.21
560.617
232.331
27.5027
28.8063
176.945
566.224
533.254
-116.469
-743.469
-637.471
-763.875
-620.643
230.913
1214.99
825.858
321.455
555.942
257.74
-153.977
-166.108
-570.358
-817.648
-486.385
244.734
703.222
-30.7039
-890.879
-222.945
270.508
-32.5731
197.396
544.146
567.5
13.2577
-345.117
-668.792
-502.154
-10.6375
-200.265
-251.565
256.05
358.57
112.999
-34.3923
-87.7686
56.3689
416.457
11.3123
81.1705
266.27
481.333
272.419
-342.917
-709.333
-408.846
158.251
-323.228
-310.663
526.501
65.2142
-463.648
-142.229
-82.1633
24.9203
292.343
271.497
428.656
163.072
-269.64
-43.0122
103.493
-214.036
-461.815
-105.598
627.297
864.353
331.335
-251.954
86.1848
189.229
-246.65
-400.223
-40.8021
324.712
-12.5496
-295.643
-369.32
-223.545
187.225
190.999
117.656
401.871
24.3261
-592.652
-959.812
-609.69
68.145
322.286
-19.1236
276.404
516.011
301.044
59.9074
-220.579
-620.213
-325.929
146.322
282.139
519.711
195.624
-301.3
-498.05
-36.6381
250.969
351.583
410.926
543.395
690.167
-153.997
-254.998
42.7935
-113.251
-632.277
-601.362
-2.51421
-72.142
-358.923
209.399
774.869
560.917
152.43
-284.824
-577.959
-316.538
-160.372
-273.845
-212.911
-218.037
116.441
38.4183
123.36
203.921
267.774
-57.5828
-317.163
-262.252
58.2448
407.926
328.409
153.427
-82.5031
-54.4509
58.3035
-6.96636
-159.549
-276.717
-356.249
-549.952
-514.837
309.665
966.184
994.534
821.868
720.033
693.624
-43.4548
-569.1
-573.888
-555.325
-159.739
-160.258
-352.703
139.74
251.554
27.6938
-588.133
-137.898
166.892
-36.9514
-629.991
-1032.91
-451.42
106.022
378.099
343.77
428.814
416.156
293.016
-152.595
-482.025
-9.62633
634.144
429.888
-178.437
-58.5846
426.212
-80.7413
-160.241
403.427
428.061
22.141
-674.827
-735.377
-382.934
-232.36
568.824
403.188
-73.9883
-207.872
-158.446
-14.7926
34.2932
-38.2262
6.84446
9.22004
254.899
516.885
325.715
-564.243
-521.099
56.6347
338.811
456.621
410.364
225.462
-686.216
-544.252
-118.528
120.768
-268.124
-609.172
-22.3662
414.451
348.665
546.329
459.251
157.957
-224.544
-298.51
-413.285
-252.646
-109.374
2.00067
134.977
-46.9274
-527.512
-157.528
525.202
411.746
424.206
282.76
46.0245
-217.882
-354.438
-463.419
-341.788
-347.099
-62.0031
684.148
498.255
278.266
241.343
-144.437
-402.543
-392.141
-250.998
60.2405
130.203
823.267
1010.45
397.039
-763.55
-972.356
-613.335
121.308
459.496
52.3738
-552.231
-736.988
4.97478
465.387
392.476
503.918
205.487
1.31161
147.495
174.947
-200.151
-535.901
-1091.66
-951.361
256.614
871.976
743.876
-41.4892
-426.529
-91.6942
319.582
133.278
17.9625
-65.5033
-146.943
-142.796
204.414
546.943
234.477
-137.894
35.9366
-71.2161
146.144
411.799
384.685
145.186
161.065
-111.567
-656.018
-458.502
28.6765
212.07
249.625
41.5415
-32.2238
-238.281
-397.983
-525.222
-217.957
244.219
485.311
368.902
-330.644
-616.784
-538.452
-307.529
0.322816
249.122
241.516
109.611
-61.9868
-180.388
-84.9096
-6.79607
-43.9735
151.556
345.453
321.366
34.01
-103.482
-105.978
-167.289
339.341
728.47
371.557
173.062
183.006
47.5124
123.011
145.534
-12.6883
-358.705
-506.21
-338.149
-111.943
56.0099
-94.6287
-252.197
134.455
510.81
211.397
-473.717
-249.133
-213.938
-121.821
62.0795
-291.717
-457.031
-151.788
75.4161
356.174
293.337
3.73695
148.914
211.829
20.1815
-319.851
-309.973
71.3443
344.239
158.757
-56.8111
-28.4065
-103.346
132.436
109.617
58.9513
388.284
541.669
-2.04866
-274.871
30.3272
116.802
-141.839
-131.719
-649.262
-398.925
-58.7459
-203.453
-312.082
-6.44139
520.353
611.28
448.806
-71.613
-181.651
19.977
43.8711
53.4636
160.784
70.9705
-108.593
-301.689
-270.627
-178.315
156.831
297.365
471.493
132.172
-485.688
-354.305
-194.878
-191.779
100.387
159.403
-163.666
25.8508
79.3928
-444.508
-334.011
364.698
409.357
-115.342
-358.674
-255.56
211.355
520.813
191.968
32.178
79.8042
66.0807
205.247
533.481
375.362
-298.389
-423.806
-581.17
-600.76
53.7631
494.409
157.884
63.4059
425.153
302.655
-63.0563
-64.8077
-81.1651
84.8872
307.546
28.3651
-308.656
-497.727
-899.84
-730.365
34.7582
286.553
250.754
287.823
264.641
151.939
-4.52485
-120.497
-80.2901
107.02
23.0721
-306.312
-240.949
1.37535
132.801
323.399
369.245
157.912
-145.577
-172.552
69.3118
260.482
321.987
422.579
196.994
-480.048
-335.851
-199.27
-263.523
-66.9359
35.1449
250.32
112.13
-324.549
-499.584
-253.341
-29.506
156.949
383.372
464.164
382.852
45.3571
-273.817
-242.765
-83.1361
204.78
-40.0346
-5.23177
330.895
182.387
347.065
-227.892
-830.648
-401.875
-393.9
-214.243
238.63
487.413
283.876
-143.091
-234.266
-209.03
-120.532
87.4918
16.4981
52.6569
143.204
93.7461
27.2734
280.992
302.107
366.15
528.212
402.625
330.144
-79.0105
-518.697
-556.702
-206.863
-12.3987
-54.0408
-287.732
-505.906
-443.697
-134.581
-7.25624
-55.819
-19.9283
257.481
413.7
254.326
-44.9179
-154.241
-420.049
-215.337
174.365
376.796
313.367
191.32
-33.6554
24.4147
170.716
64.714
0.800083
89.5293
172.9
49.0243
77.3816
160.92
142.624
-223.182
-473.594
-562.576
-478.5
-220.919
182.856
214.165
-89.8941
-157.003
142.749
190.407
96.1974
251.622
99.6292
-99.5923
-102.119
-116.195
-470.427
-582.884
-288.369
259.268
1041.48
1323.35
745.648
-29.9737
-501.143
-62.4875
276.461
195.559
-88.8509
-443.647
-676.418
-532.442
-330.38
-12.4755
298.918
383.067
248.575
72.6342
-375.295
-871.053
-617.45
-46.9354
258.773
413.047
359.212
-150.539
-232.228
32.3762
293.009
374.92
544.333
-239.562
-689.304
-636.667
-367.178
132.901
726.758
687.274
623.147
735.624
399.507
-258.073
-550.704
-431.28
-93.6406
-267.499
-152.108
-10.4079
-102.616
19.9387
-143.618
120.916
397.14
252.126
-146.165
-479.746
-539.778
-225.064
-675.824
-589.591
-35.387
259.75
485.972
538.852
265.363
333.776
416.61
-493.277
-396.195
54.5482
214.404
303.778
399.553
739.953
512.67
73.7007
-86.5279
-70.8786
-68.473
-358.571
-216.646
64.5328
1.532
-288.136
-297.35
-112.466
-210.216
-106.61
-202.864
-373.044
-216.991
149.191
294.097
69.8057
215.717
305.766
-178.426
-521.565
-291.809
-42.6237
-266.328
-350.484
47.4975
380.188
419.955
239.793
63.4921
257.337
233.793
13.8006
-108.495
609.86
610.617
-505.852
-822.788
-550.612
-496.113
-181.481
347.321
539.116
511.695
385.879
-3.00889
-211.191
-138.22
29.3891
89.1303
333.534
307.026
357.543
459.837
-595.249
-1151.12
-268.825
214.65
231.238
387.606
200.124
38.3019
67.7438
-131.062
-513.611
-212.844
15.9961
-362.951
-390.046
-60.3473
378.165
-155.809
-401.725
-319.063
45.5801
215.284
51.6301
-83.4036
223.419
561.337
128.149
-156.812
-124.366
-30.6601
274.721
270.467
139.075
109.789
-71.742
-88.822
103.235
331.614
68.1937
59.4885
180.825
-99.9215
-160.229
106.267
-185.182
-336.464
76.1336
91.1952
-551.202
-471.496
-160.212
-58.8588
111.811
248.761
253.324
41.9633
-349.656
34.8676
417.168
209.91
-12.7906
93.1744
202.258
382.937
666.39
-348.958
-1300.65
-737.389
22.3062
30.879
114.389
381.543
397.065
290.731
-128.219
-189.209
-272.531
-133.017
-3.68712
1.59968
-188.34
34.4535
341.698
77.7127
-272.755
167.239
615.585
722.626
577.093
145.555
-548.284
-678.024
-565.987
-158.733
299.58
114.767
-23.32
-133.832
-266.223
-491.599
-292.028
554.986
428.617
-270.947
-370.292
255.208
413.444
-111.77
-286.604
119.862
661.344
50.0662
-946.078
-1039.71
-335.581
384.507
647.1
812.359
319.148
12.7983
187.05
-205.449
-446.991
-152.116
-64.1868
62.2764
180.777
104.811
113.957
-12.6648
-197.856
12.414
613.672
564.476
108.864
-172.168
-255.614
-429.219
-229.349
222.712
119.908
-270.353
-292.45
-180.867
-208.663
-193.454
126.221
173.845
-239.621
-532.49
7.03784
651.661
717.434
372.419
183.83
5.80028
-444.897
-534.417
-35.7721
133.576
173.061
103.356
-135.116
-319.643
-10.8555
260.916
-257.884
-263.376
206.902
468.052
319.904
25.0179
-124.127
-251.732
-479.849
-470.014
347.135
163.09
-287.6
-119.131
144.58
56.0027
121.966
279.421
109.569
-6.23
282.069
-108.988
-287.703
132.553
5.89238
-36.9945
210.688
211.664
-155.038
20.0099
-91.338
159.408
361.259
145.648
-154.682
-134.988
86.5343
153.004
7.43693
-375.103
-547.414
-160.686
175.08
149.785
80.2511
-302.314
-447.138
-117.162
-57.882
-122.927
-58.6581
-45.9604
304.659
355.837
97.4703
-67.9246
-63.0005
-48.6325
303.097
900.462
988.376
-581.862
-565.643
52.7392
-376.504
-422.978
-218.927
-53.3718
144.387
-138.706
-236.239
178.434
275.067
164.061
-26.3003
38.2645
-45.9622
-74.9418
-116.802
-214.847
-77.6602
353.617
315.842
35.9211
61.8819
232.126
311.727
116.603
-151.7
-28.2687
-47.0682
-218.988
-447.847
-362.858
-23.1876
191.449
348.568
271.765
-60.2816
-349.148
-323.831
327.808
-31.5099
-516.875
150.938
97.1225
-203.322
-85.5652
440.367
549.249
194.414
-185.696
-165.61
-89.7883
-58.6285
-133.064
-180.635
-129.89
-85.8823
-286.464
-245.195
346.984
791.013
617.212
-109.781
-162.88
-222.406
-444.857
-439.815
-263.513
50.0058
214.754
240.154
411.072
468.127
249.243
-24.3091
-78.0403
16.5299
-168.018
-165.847
133.66
4.3911
-445.718
-430.329
-119.635
286.631
121.448
-40.0585
32.6273
-116.519
244.178
406.109
-451.904
-325.021
-235.674
-85.8845
98.941
205.961
216.273
-196.579
-618.263
-185.331
273.883
320.044
100.121
105.064
422.889
201.808
-132.211
293.553
268.633
197.388
325.42
-88.6572
-34.3995
100.076
35.4696
-374.075
-385.175
87.6538
157.81
-637.91
-861.23
-420.288
51.1288
114.061
261.375
399.191
636.445
500.199
-463
-841.482
-200.873
146.745
179.29
107.379
0.861889
2.29457
73.2267
-14.4046
17.7563
294.891
404.249
206.289
-3.74031
-82.3773
-157.234
86.9579
-392.599
-680.782
-288.881
-114.289
-81.7509
-23.7889
117.643
239.268
229.269
260.6
342.552
304.255
-73.6775
-355.386
91.4982
352.915
271.332
75.8559
15.8345
-174.381
-226.058
-213.367
90.909
113.695
117.788
44.2163
-159.553
-385.515
-240.151
90.4006
187.935
-179.332
-266.613
420.391
148.656
-183.185
-84.6213
134.889
-205.215
-349.525
75.3924
-63.6497
-272.309
-354.773
-173.969
-45.0671
244.67
433.395
371.082
123.433
37.5017
420.326
471.432
171.186
423.703
248.041
-511.177
-700.722
-367.297
27.4115
-288.656
-163.587
72.4356
166.999
76.1058
175.389
151.165
133.834
-59.4413
-149.248
-185.467
-242.664
70.414
-35.813
-112.123
247.795
140.583
-343.708
52.8884
129.972
167.987
161.515
167.655
103.515
-73.0191
-209.246
-235.079
-145.627
-77.7635
-186.972
-265.871
-221.602
-26.495
215.805
266.469
301.26
522.581
590.23
-228.2
-279.188
30.8243
-75.5485
-230.891
-95.5857
-182.694
-159.537
78.0907
70.7881
-94.6912
71.8363
-54.3074
-194.535
84.3071
21.7658
-269.717
-350.669
63.8092
397.49
655.001
459.185
-25.8008
-22.2702
197.528
174.823
116.592
-176.988
-298.563
-240.545
-185.056
-64.2085
112.34
18.2156
-128.953
-264.539
-566.943
-468.441
-255.137
91.5653
421.854
388.633
106.318
128.444
129.917
44.8687
259.05
504.924
-84.3998
-524.427
-287.112
-255.342
-43.5131
438.571
611.23
266.469
-111.244
-114.338
-111.285
-322.426
-495.463
-376.718
202.165
478.915
409.183
126.949
-386.945
-560.807
-183.326
179.174
257.045
532.703
435.904
-46.0647
-296.104
-155.94
134.904
-59.2289
-291.107
64.4665
100.017
-38.2706
-134.025
-260.482
-266.646
-114.106
120.103
234.816
193.255
132.859
3.92627
-236.753
-395.832
75.9629
185.938
-60.8923
62.7354
360.357
215.147
59.1587
272.417
159.745
-184.858
-540.086
-310.165
145.441
43.9763
-28.9112
-215.745
-279.435
-61.1597
56.8631
220.529
29.8414
-169.146
86.2085
134.61
-47.5496
179.006
216.516
107.841
200.825
364.919
345.612
92.7736
-41.4063
-78.6571
-325.674
-200.116
46.6897
-12.7423
-144.496
-172.454
-83.5817
-274.626
-281.993
60.0971
125.567
97.2355
-139.376
-339.293
-347.325
-209.975
24.2779
187.067
184.181
334.616
322.296
136.374
115.762
84.8082
-52.987
-58.5911
-124.719
-64.3504
116.949
103.578
51.1686
140.424
106.504
-71.1749
-327.187
-347.245
-139.132
213.891
450.079
232.431
-154.808
-142.159
-54.8455
219.741
-88.2402
-30.3926
123.772
-335.56
-250.274
-115.828
-15.6629
167.43
431.216
219.264
-168.972
-40.0398
72.6151
-168.051
-542.527
-558.364
-189.141
227.457
136.328
69.8735
454.028
366.264
136.801
351.101
197.089
8.0653
-79.3454
-288.353
-496.896
-93.1137
402.114
337.55
46.6633
-149.5
-282.33
-130.774
194.843
212.421
69.9354
-192.2
-207.672
-167.471
-230.226
-61.9136
20.8356
100.054
130.352
-272.22
-615.977
-250.355
198.939
338.257
438.024
170.608
-238.955
-182.151
114.749
133.419
246.358
407.282
271.578
-113.367
-279.316
-74.7378
-21.1614
-51.8634
-27.8594
297.986
171.54
-466.667
-88.5385
405.847
76.1706
-290.841
-364.315
-63.4617
-110.465
-160.619
-128.987
-207.524
-115.625
185.759
424.514
285.106
203.395
167.738
-79.5926
-157.016
91.2353
251.661
-28.4081
-458.218
-359.438
442.112
629.74
135.214
90.3463
68.1457
-172.897
-163.26
99.9183
163.744
-206.518
-265.08
-354.708
-441.208
-223.658
-48.0984
31.8791
95.3845
-26.3378
-151.354
-238.839
-423.061
-29.164
510.207
601.984
391.184
150.044
-98.8505
-260.444
-187.472
15.8609
27.1519
108.976
164.94
-42.6162
-247.135
26.5576
214.437
142.355
333.123
285.723
44.2494
-54.8298
-153.173
-265.944
-208.726
-40.43
86.9173
215.63
242.089
107.539
-255.06
-359.618
-296.111
-188.478
-27.2962
-83.4477
222.816
368.998
-307.793
-240.913
105.136
54.6565
14.065
-67.8746
88.0956
241.862
170.364
-97.7158
-451.898
-299.338
210.574
386.91
279.718
241.281
234.252
137.836
-153.029
-350.041
-166.783
20.9029
5.11693
107.65
69.2338
99.3725
-44.906
-335.21
-441.418
-182.945
110.203
134.644
-37.7175
-122.357
26.94
240.945
326.813
254.02
18.4699
-109.279
-31.6236
-91.3445
-166.304
-18.5189
119.78
20.8331
-169.613
-97.4478
-81.8527
-177.552
22.6684
155.902
285.58
280.801
-324.689
-451.003
-11.4839
143.971
128.908
426.331
-190.456
-554.218
-94.2437
284.631
17.1939
54.6776
163.644
189.72
87.3177
300.071
287.09
77.918
-121.556
-134.11
132.614
113.906
-79.586
-142.048
-188.548
-328.043
-140.391
142.32
-52.3425
-138.451
61.4522
-9.48733
13.8481
-119.591
-266.375
-399.827
-268.379
-46.1916
17.6849
83.6302
309.124
275.324
-35.1852
-92.5455
37.2989
50.2826
436.663
480.729
193.08
-99.8023
-126.509
-99.1737
-63.0694
133.612
291.231
38.8925
-175.657
-204.304
-129.655
-114.961
-75.0171
78.4665
88.1824
53.7717
-54.1177
-132.794
48.9302
298.91
333.426
-419.67
-785.289
-344.385
23.4811
198.008
136.06
-171.518
-108.879
50.6985
231.267
420.172
295.864
11.7905
121.436
78.7082
37.5573
395.994
-55.3257
-431.236
-368.475
91.9958
300.747
72.2005
-86.272
-76.7157
-199.573
-9.7451
60.2744
-134.117
-376.184
-342.692
-106.934
11.4568
-58.2891
15.6392
34.8184
-282.067
-89.7445
-1.65351
40.8156
319.934
478.271
248.16
160.722
-81.0993
18.0039
150.869
161.951
307.731
346.769
17.7231
-138.77
-51.559
-74.5793
-100.873
-104.471
-196.731
23.8378
148.464
-51.5795
-290.989
-147.651
330.486
233.607
-70.868
-349.634
-386.248
-129.033
-172.075
-214.065
-42.5981
163.672
132.592
18.9326
50.9932
150.08
18.8062
24.0008
29.0613
31.1266
-115.144
-187.415
-312.577
-292.314
-3.01401
488.491
574.851
321.205
223.513
-188.807
-315.482
49.8282
253.088
242.795
116.488
41.2125
-23.8458
-236.538
-453.304
-27.252
286.524
-68.8554
-247.832
-116.592
-41.6437
-28.1422
121.755
-51.1064
-169.545
120.335
-38.9759
-353.742
-78.9725
122.199
161.408
94.186
33.2872
178.658
324.279
178.256
-16.3764
-118.505
-124.887
-106.244
-176.599
-120.775
11.6773
86.3872
93.6433
161.703
337.977
368.935
-22.908
-541.884
-397.762
-226.216
-175.934
-92.8604
117.986
162.407
301.011
55.4535
-322.933
-250.522
43.8126
161.988
38.5036
57.3101
183.266
311.62
451.235
100.051
-267.097
-51.0439
-102.551
-58.2738
87.9632
89.4278
-155.127
-279.315
-222.812
107.993
242.081
205.218
20.7034
-47.6979
33.3155
-215.434
-601.108
-267.672
-16.9125
-74.8955
-309.2
-278.16
8.90552
412.215
421.6
247.664
131.608
41.8556
68.1686
252.048
275.775
59.2591
1.00488
-12.1351
-54.9921
7.63047
95.3206
-188.031
-308.301
-110.117
136.523
52.5977
35.7173
-110.504
-108.371
258.358
129.923
-316.357
150.704
386.876
-283.478
-602.908
-372.282
-101.854
9.36829
99.2758
143.589
105.781
252.568
197.703
13.7949
174.93
-3.28277
-227.264
-120.542
-80.9408
-95.9342
-148.627
-289.306
12.709
293.593
299.856
348.336
175.884
-34.6873
-60.4998
159.392
281.731
-41.7439
-326.563
-148.279
-74.3183
225.37
379.217
-139.478
-621.812
-567.925
-149.246
163.259
110.889
281.773
341.034
104.823
-12.1827
-74.3145
-132.257
-248.851
-294.673
-176.102
104.868
398.865
395.02
-129.111
-394.13
-54.4913
230.971
472.68
459.496
-74.235
-363.151
-300.065
-188.006
-100.398
40.4637
-6.22414
-37.6025
-18.8747
-39.5281
-25.0719
21.9824
-61.5872
-226.914
-123.957
64.335
222.292
244.106
142.759
57.0112
214.31
457.11
308.179
-20.8475
-635.307
-616.729
-237.431
3.42583
-7.36487
-2.67643
-36.5973
80.3649
451.535
563.339
11.682
-2.13116
-107.766
-338.241
-167.902
16.575
-151.447
-539.686
-172.921
444.082
455.759
32.4421
80.5623
147.467
265.347
207.33
-20.8657
-147.43
-257.915
-196.327
93.1275
-84.7946
-107.548
26.5827
34.3526
-3.73699
-131.232
-154.944
-172.074
-281.756
-43.7134
147.837
157.503
234.564
328.601
151.097
-288.649
-184.123
-197.283
-235.609
-41.2674
41.7394
138.417
198.912
-61.9884
-121.329
77.6788
223.525
230.073
169.41
196.969
129.579
-2.97945
-19.8678
-125.326
-369.628
-15.6616
5.87836
-28.0908
-62.4065
48.4931
19.3061
-43.5506
-68.206
117.446
98.2157
-21.1713
7.65992
21.355
-56.1658
-57.7801
-234.385
-205.903
-177.138
-120.548
250.129
411.324
257.236
33.0994
89.4809
194.256
-54.266
-243.836
30.8296
119.255
-473.079
-516.021
-240.806
-75.7279
84.1818
161.793
480.718
645.049
269.664
-234.784
-305.221
-212.991
-67.272
-83.1302
-170.518
-135.227
-129.298
-74.1563
173.637
372.97
341.791
355.457
203.255
-107.206
-212.355
-29.1684
-29.6604
-221.784
-167.013
-75.7596
-127.793
60.45
230.596
87.9434
-30.3151
-61.8786
213.057
297.276
-370.408
-558.372
-97.204
-46.5901
-88.2998
43.9138
52.5416
83.4705
121.961
8.04038
-1.70957
88.0655
171.718
162.228
-189.05
-353.953
-70.3941
96.3442
169.308
246.646
120.142
43.6692
243.156
117.021
-79.5954
-104.697
-132.594
-145.037
-131.496
-93.9838
-4.60009
144.697
142.866
-96.9703
-138.245
268.036
581
269.114
-582.853
-710.308
-373.551
-143.339
-51.8512
-38.0902
112.32
97.2754
49.3815
155.633
277.656
51.9649
-72.1091
5.72118
39.3104
75.3912
214.748
181.326
4.03988
-88.242
-13.8996
-106.736
81.7236
80.7552
79.3784
15.7399
-266.82
-281.871
97.3252
245.716
124.488
32.6223
24.362
-11.4335
-227.484
-248.708
-127.971
11.3029
29.1984
63.7073
246.111
-17.0511
-429.494
-183.738
32.5867
170.677
281.798
248.992
162.765
-289.6
-651.183
-297.267
214.631
61.872
15.6024
109.513
84.6173
49.5589
-126.411
-50.7466
208.79
317.446
363.637
381.042
347.829
-24.6931
-433.394
-559.761
-312.852
-2.77293
68.6648
-80.8712
58.6886
220.709
281.155
168.164
-66.9763
-234.423
-280.825
-231.687
136.087
418.221
127.474
-340.538
-340.135
-304.156
-0.90386
395.234
309.351
254.775
307.944
94.5185
-363.99
-333.8
-40.5229
4.76741
-42.9554
-35.0419
-44.1976
-86.6264
-166.523
-112.217
193.907
295.938
-157.147
-310.757
11.0005
168.713
86.0843
-4.15212
-76.4149
9.81524
-41.2672
46.0343
79.3832
31.7844
76.8029
105.832
4.05963
-45.337
-74.2816
-65.8898
41.7087
26.3215
129.817
322.782
201.274
22.2843
-128.642
-138.798
-194.076
-207.557
-33.246
184.278
205.494
154.855
4.2152
-102.601
-121.523
-106.918
-81.6629
-131.164
-230.344
-159.338
24.3696
184.954
141.539
4.00188
-197.208
-126.017
109.346
229.472
297.756
53.8356
-517.581
-310.152
154.02
171.16
193.609
33.1253
-66.9755
102.84
-95.3139
-387.886
-97.9511
258.118
349.825
526.236
249.738
23.8805
-61.5764
-162.371
-313.412
-312.258
9.57951
-10.1381
-254.28
-25.5593
476.782
350.273
-46.3186
-488.098
-298.99
-105.797
-37.0055
12.0317
-181.867
-299.768
193.277
362.975
204.494
101.348
71.0748
49.9177
195.696
152.817
49.2909
-241.246
-493.214
-223.737
43.2574
249.139
368.425
348.517
93.8471
-164.1
-73.0937
-21.2531
-104.927
-17.4681
200.319
161.106
-204.217
-243.154
-224.597
-260.223
-131.643
10.3909
-270.949
-165.818
225.997
152.478
243.798
503.396
365.679
266.816
4.91731
-291.508
-297.246
-223.682
16.3212
172.098
-188.42
-178.85
-35.5263
-330.881
-482.918
-18.0112
444.43
411.652
168.928
175.881
75.3974
-38.755
-98.2915
-165.96
-182.022
-76.304
-132.902
-174.325
-184.925
-176.432
137.547
303.952
348.94
457.001
464.303
36.9494
-100.079
77.0431
128.65
-126.002
-413.615
-295.547
-152.582
-124.134
15.8125
138.626
206.04
-24.8367
-202.064
-99.7937
112.707
96.1613
-14.6788
113.376
81.2496
2.47084
27.9934
-87.9742
52.4652
88.0507
-154.981
-393.972
-232.48
19.3081
64.7767
-40.079
219.949
412.596
-149.589
-391.607
7.76303
-38.1087
-172.933
-144.537
-14.2297
209.665
378.326
387.307
-75.1721
-263.436
-156.283
196.78
301.21
355.006
268.98
-421.307
-708.062
-418.287
139.347
426.992
341.986
345.205
165.629
6.19567
33.7576
-59.0967
-359.25
-442.07
-361.722
-73.6714
295.135
221.185
10.4272
-188.384
-220.641
129.556
250.966
283.757
0.0867147
-360.548
-475.739
-137.135
222.37
285.852
127.328
1.47718
3.30982
-92.7424
-85.477
91.2658
159.25
114.972
53.2731
-200.212
-351.511
32.2838
103.23
-40.8841
42.1499
224.422
275.823
-79.6073
-340.836
-232.744
231.429
462.408
269.965
-183.139
-345.663
-229.121
-7.40259
-15.1907
-232.942
-214.674
144.409
376.259
330.385
221.432
182.321
252.384
326.922
66.7086
-602.669
-619.644
-357.237
-213.108
-291.215
-152.177
382.134
486.897
252.845
206.661
269.46
211.41
37.6454
-499.988
-794.878
-570.093
-193.868
-99.1954
-122.148
151.972
642.738
576.092
273.649
5.87924
-86.4492
87.3079
-126.835
21.6285
222.299
11.3976
-182.931
-18.8123
251.126
195.135
58.4394
31.6509
-41.7608
-122.919
-99.0847
-158.223
-66.3377
-113.656
-320.068
-260.147
48.9198
133.53
-94.2554
-126.205
-67.744
-81.6957
-47.2877
148.467
119.33
152.2
171.041
67.137
76.1459
38.4031
-123.831
-67.9228
65.0027
92.6101
18.2622
-62.2522
46.4346
198.718
191.585
-306.437
-255.981
-1.44573
133.777
-24.0438
-220.616
-79.3549
153.812
117.3
211.962
288.264
3.1005
-450.144
-243.664
71.0654
445.523
378.583
-340.291
-281.424
34.9431
193.823
14.114
-131.003
-101.8
-50.6951
35.7576
191.292
210.695
-97.0797
-392.864
-554.326
-261.381
304.085
339.782
117.56
-83.5563
172.937
439.77
-114.146
-369.067
106.58
231.263
46.2821
-21.9746
-89.8247
-143.575
-194.077
-227.845
-96.2197
57.3607
208.21
265.329
199.605
74.115
-153.342
-269.141
-254.598
-104.715
-63.3069
17.4694
-29.0116
36.6911
202.296
118.962
-19.5024
49.4383
76.3725
204.465
261.165
5.81578
-158.973
178.089
3.66071
-520.839
-207.093
-131.074
-204.602
80.2124
257.992
279.592
444.99
254.517
-225.954
-576.095
-183.527
-2.83209
-60.9413
-193.625
-43.3181
346.111
464.35
95.4525
93.0949
347.794
382.961
385.951
147.897
77.1813
-182.985
-494.478
-835.225
-690.24
-248.494
118.459
10.0949
-75.5831
24.9611
17.9416
-104.981
-118.187
-74.0965
-102.907
-4.84751
114.972
1.45058
-62.9462
11.7893
72.9819
366.108
285.031
63.3052
35.1352
58.3998
132.089
99.9015
112.751
190.539
242.909
14.128
-65.4471
190.419
310.24
152.476
-138.005
-193.711
-237.253
-520.733
-724.181
-282.738
165.973
239.936
98.8185
-27.0127
59.0705
240.404
258.718
113.711
-176.824
-170.836
71.7695
138.364
-311.001
-423.32
-111.252
-2.84821
9.15181
73.1842
180.588
392.051
477.533
91.0608
-372.302
-464.579
-279.782
-112.355
47.9943
209.739
295.446
255.926
118.778
-98.5692
-143.481
-78.6222
23.1803
14.8204
10.2351
142.166
70.5999
-429.556
-610.976
-28.1274
574.292
768.475
462.523
-109.699
-108.513
15.9995
-76.4463
-109.889
-210.848
-539.093
-322.007
139.303
89.1054
-8.54392
-51.4384
-21.9753
-69.9053
-67.6309
135.97
156.228
-21.4121
-18.1244
27.3377
62.7972
79.136
152.913
249.98
-187.575
-551.99
-95.0262
51.7023
-325.949
-241.467
-60.2122
211.032
382.725
640.231
820.825
481.358
-342.341
-532.345
-347.426
-175.884
17.1322
-97.275
-216.544
-125.646
130.753
223.094
125.161
192.931
262.156
438.073
457.538
-109.47
-633.531
-674.322
-357.147
-277.568
-51.2154
197.905
97.3492
-55.6225
-66.7107
-69.2156
-91.9653
-4.93463
121.462
109.509
-135.556
-300.131
-14.2851
189.153
258.477
420.037
406.705
32.0674
-285.577
-152.891
249.479
154.995
-88.6345
60.1174
104.126
-84.6476
-301.757
-311.141
-49.3955
175.954
245.491
238.249
50.0841
-243.194
-416.348
-309.156
-41.5135
44.8211
-30.185
103.591
124.95
166.412
283.476
164.499
-124.285
-189.484
-170.389
-436.002
-263.386
164.841
284.752
293.478
310.309
276.735
155.467
132.08
166.486
44.3465
-384.082
-379.49
-152.691
-222.928
-12.2273
41.7745
90.5274
177.628
-55.4243
25.9547
140.598
404.184
173.699
-485.564
-619.461
-519.085
-325.856
-207.203
54.1232
410.461
302.097
-60.9153
162.457
231.499
-12.1642
-107.096
35.5259
114.258
319.366
394.777
196.212
-230.297
-227.454
114.9
148.786
66.7166
13.7887
32.9073
-174.416
-439.891
-40.044
338.551
111.384
-96.9887
-190.155
-130.013
-46.5832
-124.801
-349.494
-107.725
157.835
351.163
139.518
103.053
179.699
62.3934
-240.958
-250.549
-244.75
-134.771
-20.6693
103.244
20.4484
30.5988
92.9943
6.96916
-54.7528
-8.40519
208.405
205.154
10.7558
-286.367
-144.263
196.885
191.307
-55.1792
-21.5843
236.519
359.696
326.572
100.272
-116.803
-240.971
-260.498
-189.436
50.4691
191.039
102.907
-155.129
-277.251
-264.86
-298.72
-184.082
-77.3106
63.2806
-57.6691
-197.291
-100.922
25.45
127.477
239.839
221.582
175.686
135.186
148.073
10.1712
-112.478
-35.8558
252.167
289.324
104.041
48.9831
54.8289
-103.956
-40.2877
283.235
205.638
-156.728
-361.861
-317.092
-62.483
-145.882
-611.075
-178.714
86.2308
32.4869
7.60214
91.9872
72.8672
25.8159
133.826
153.812
156.139
143.781
-25.5666
15.0819
218.904
117.517
18.1508
-55.9958
-75.7923
-13.6933
229.414
76.8624
-109.263
-80.1995
-115.039
-213.209
-114.023
-185.922
-275.85
-461.007
-386.798
65.6294
300.734
300.25
428.296
404.605
411.197
422.574
246.481
35.6939
-105.907
-207.073
-191.529
-107.337
-123.65
-399.501
-356.862
-328.122
-146.118
162.056
379.347
164.413
-429.547
-549.882
-240.416
-12.7709
185.125
264.165
-20.703
-329.039
39.0571
389.003
251.726
-103.137
-51.0324
496.426
481.679
390.845
187.297
-12.5332
-152.666
-29.5769
352.903
458.438
24.8244
-491.629
-588.272
-482.386
-355.703
-35.9386
68.5112
76.4051
31.2322
119.863
40.4797
-173.785
-83.3618
284.044
403.01
288.429
30.2504
-244.213
-331.021
-295.59
-182.816
4.35641
-23.7166
-130.138
-27.7594
135.762
145.922
-26.0297
-1.9746
74.4679
97.1885
58.2986
-8.991
-94.9141
-141.276
-135.876
-37.1236
-60.6296
-116.71
-21.4946
95.5499
26.7688
-50.9981
112.55
254.472
274.909
286.943
77.2804
-69.1438
-152.339
112.409
271.856
353.469
289.041
-238.711
-489.329
-162.363
153.113
203.453
-143.441
-255.524
-371.355
-320.369
-310.696
-242.322
-83.7828
-64.1768
30.9282
171.464
225.634
146.557
188.642
194.884
91.4449
245.672
323.796
-71.0161
-366.827
-305.795
31.434
160.526
337.442
330.573
158.016
67.161
-16.8438
-132.188
-219.736
-154.6
87.2444
-56.8381
-335.139
-376.61
-289.818
-121.423
-79.4309
98.7406
212.247
7.30303
-47.9429
194.058
152.154
62.3934
109.28
140.513
23.552
-114.698
-78.7373
-33.6867
-68.3417
3.45497
23.3238
-22.9064
-2.19294
89.6457
165.233
25.5939
-105.076
-30.5138
270.007
349.511
269.617
-257.467
-514.277
-418.31
-280.275
-95.9985
211.301
453.91
366.844
209.63
193.219
-117.984
-624.684
-343.226
74.9546
145.025
26.7606
-223.39
-241.59
-184.397
27.325
314.806
295.252
236.78
199.088
246.046
91.1497
-137.169
-266.918
-277.638
-162.222
80.9355
192.325
-125.572
-68.3454
86.2056
53.4991
74.7985
-255.095
-452.193
-21.4458
361.398
328.747
222.123
148.62
66.9332
-103.988
-168.697
-137.868
-85.2327
-100.781
-23.6778
236.037
150.04
-292.556
-412.571
-194.157
111.856
191.757
120.439
-118.81
-108.354
10.8507
-7.29559
-18.2761
-29.0411
5.65212
-76.5252
-31.1744
218.433
573.645
538.731
92.4033
61.1158
-312.181
-436.899
-162.129
26.1941
156.177
161.004
117.431
62.7595
60.4328
11.4299
17.1644
5.33202
-130.563
-267.981
-78.4333
-125.12
-360.319
-413.452
-28.3506
160.327
219.163
44.3285
51.2669
69.9972
-84.5464
-111.22
-18.9445
-32.4349
-31.6855
1.1148
18.4224
1.67957
30.5917
114.277
210.537
485.405
267.808
-364.897
-357.042
-194.503
91.7962
214.077
19.5054
36.6925
383.573
428.514
180.043
-61.5196
-199.222
-269.415
-123.661
-50.0284
95.8252
138.186
-223.036
-593.509
-565.717
-109.006
129.816
189.029
374.225
399.374
162.151
-54.211
-239.451
-345.508
-257.075
-63.6982
8.58371
181.159
214.162
102.47
-59.9903
-71.5241
-54.5562
82.9257
395.811
599.16
621.693
-313.119
-926.449
-756.607
-251.115
71.1378
210.819
158.39
-208.03
-149.425
123.977
78.5861
-54.747
64.6528
294.031
415.966
390.073
18.5229
-424.434
-378.353
-223.502
235.888
710.453
595.294
185.066
166.098
71.2321
-151.258
-164.431
-75.3527
-144.43
-265.079
-308.94
-155.772
-62.2913
-580.558
-690.065
-474.598
-280.416
56.1104
201.409
486.133
606.611
443.284
196.736
-73.9841
-202.657
-101.232
111.154
77.9656
18.3062
20.6073
24.7168
-68.3127
-163.181
125.158
241.379
187.974
161.271
4.7965
-207.237
-185.944
-190.44
-162.962
-78.631
-85.0241
-84.386
34.471
283.234
381.06
221.406
-120.231
-136.225
-138.253
12.9893
410.687
218.254
-276.959
-182.333
-148.59
-328.598
-272.839
-75.1171
194.036
436.016
563.527
176.002
-379.009
-185.057
-197.134
-108.31
-205.963
-165.206
-34.9883
-33.2586
-98.632
60.1985
328.685
303.089
226.195
181.749
-14.5784
-194.425
-102.461
-100.707
-274.228
-130.909
277.434
36.1085
-145.275
-142.589
139.62
161.424
138.614
114.961
36.545
51.8597
35.7777
-74.1319
-45.7536
-28.9371
-20.0137
-26.7076
-168.139
-268.22
-183.67
80.4696
-49.1456
-81.1386
157.184
248.403
201.377
116.718
34.1984
-64.9124
-102.278
-70.9429
18.5387
3.78142
-103.146
-45.9327
87.1349
104.893
83.0407
114.586
99.4306
-227.555
-353.707
-251.216
-164.806
-172.062
-130.827
195.446
380.425
264.311
139.232
95.863
125.181
109.351
23.4464
-12.6574
16.755
-7.92731
-41.9392
-76.6326
-176.875
-67.4779
185.591
137.981
-6.10827
-26.7812
89.8148
-50.0813
-202.405
-205.028
-148.702
-87.3304
-43.6678
3.85676
35.5362
54.4989
97.7261
154.44
-18.0944
-389.25
-307.64
3.64288
175.063
176.149
69.1548
-8.67212
40.9516
21.9973
81.8055
166.876
173.94
144.306
62.2525
-52.6413
110.208
119.235
113.715
-77.1023
-169.264
-229.694
-367.174
-298.694
-408.208
-624.706
-221.323
598.753
1081.94
664.443
168.557
-129.441
-294.076
-260.289
-34.2366
172.61
78.6348
4.93232
-148.779
-138.535
26.888
107.708
33.027
65.5467
132.317
186.054
-50.834
-385.378
-468.726
-313.786
-184.395
-54.7258
142.012
242.865
16.4426
-130.168
-0.80678
68.602
-24.0076
-71.9693
33.7697
195.257
206.104
68.8537
86.9401
259.706
330.567
132.807
-131.447
-110.772
-56.1817
-121.012
-168.254
-146.517
39.2037
119.573
53.4785
90.9748
57.0419
-240.006
-392.067
-13.7107
207.617
170.012
211.498
172.195
-7.37723
-215.322
-176.955
-21.4841
-24.7106
140.057
541.125
390.331
-455.776
-848.65
-751.472
-686.045
-282.207
151.607
376.156
321.062
301.036
264.692
254.057
239.105
107.084
60.6076
-15.3434
-15.3565
170.778
168.935
17.7193
-0.913371
427.847
437.88
-199.605
-268.818
-444.158
-227.06
-2.45985
124.545
154.396
-71.5736
-186.428
-78.4387
49.0506
80.4313
80.0018
-113.068
-292.55
-274.751
-363.57
-406.816
-200.216
136.582
494.983
447.386
387.005
278.836
99.2075
-94.8426
-114.365
-31.3222
-104.762
-207.694
-304.167
-330.543
-243.601
-42.6982
54.9382
87.5526
260.683
438.785
153.524
-212.687
-244.552
-30.8112
118.007
128.637
75.9916
6.17917
5.38065
81.6979
150.108
146.54
183.796
129.973
-55.8073
-34.3279
83.7597
60.1837
-142.731
-155.136
127.485
328.518
-81.636
-316.769
-201.241
-194.431
-352
-127.948
288.132
259.115
78.7321
280.681
379.027
38.7385
-395.774
-509.365
-399.832
-211.542
-153.829
64.5713
380.796
49.7407
-211.606
-112.604
10.718
88.0031
187.291
-4.13928
-264.028
-157.994
-42.6154
-24.5346
125.885
449.843
809.943
458.821
239.098
-31.8879
-318.587
-535.973
-169.675
48.2016
208.329
55.1483
-103.445
-146.518
-85.359
-31.6442
-119.203
-131.192
23.957
27.3561
-162.911
-432.711
-445.671
-33.815
26.1112
-11.184
41.7916
42.5962
-122.298
184.336
681.028
778.073
540.358
322.734
89.1002
-80.6357
-10.3583
-87.4171
-364.643
-346.431
-40.6502
184.893
-114.582
-578.403
-345.809
35.6877
318.036
231.503
-136.296
-295.759
-278.738
-182.083
-53.9366
51.9255
142.703
204.595
90.9477
-40.7011
90.5111
204.978
-158.335
-120.899
56.3814
101.385
31.8988
84.6093
59.6184
18.2541
-27.4934
-24.1152
-40.3045
-95.0961
-85.6183
-33.1724
-31.755
-86.8221
-13.5234
189.042
234.132
44.0199
-11.0921
-51.111
52.3947
264.778
99.7479
-154.511
-175.199
-21.5022
-138.382
-92.3395
58.3614
102.241
90.1241
37.4171
-34.494
-130.78
-186.404
-33.6471
132.597
147.714
257.47
-197.475
-241.588
41.4617
88.2522
27.0767
-22.401
-46.9554
42.4393
130.614
39.0341
-77.9183
-96.1314
-174.866
-131.622
-7.14041
-62.3144
-102.343
52.4519
117.217
62.515
75.8308
-225.912
-147.461
59.83
189.411
155.744
-123.434
-216.65
-43.4691
284.497
316.458
-4.06882
193.074
426.896
135.34
155.608
143.69
-465.15
-560.454
-622.577
-301.027
548.727
558.513
52.8846
-163.811
-83.5016
128.745
110.572
-82.1877
-235.694
-314.814
-165.454
-47.4075
-132.499
-53.0828
50.8399
122.027
282.931
195.077
201.109
253.708
3.71684
-52.6887
5.57577
-124.113
-240.145
-118.376
102.674
280.243
175.266
99.3078
95.2606
-335.111
-671.94
-124.953
28.662
-143.214
11.78
144.641
53.5257
36.767
0.327352
2.2771
179.985
404.954
282.287
-224.807
-282.453
-330.4
-258.35
-21.3176
141.291
104.503
274.537
14.5394
-135.799
55.4901
218.566
105.987
113.16
179.781
197.632
-60.7756
-359.255
-327.419
57.0377
639.028
366.003
-353.822
-385.452
-287.052
-282.401
-190.432
24.0847
136.049
72.1786
-92.8648
-152.266
-150.741
-22.3025
84.3379
29.9071
63.6288
200.265
157.968
33.2648
5.13403
94.5879
206.19
208.72
190.505
-240.326
-176.654
410.888
429.885
206.34
117.09
32.1587
-181.953
-450.727
-550.63
-295.178
-95.441
-58.1995
-120.418
-194.881
-255.479
-129.228
221.772
355.186
271.464
133.72
-217.527
-408.513
-255.986
-138.974
-255.289
-118.52
214.142
514.828
468.862
89.6421
10.7337
42.2148
25.8807
-4.98433
44.7446
234.464
401.416
166.256
-45.9298
115.751
246.145
-42.7721
-135.059
-8.5714
12.5754
-524.803
-529.518
-2.27923
393.444
238.153
-41.3945
-27.8002
-390.465
-315.123
-100.664
-260.845
-265.468
-151.488
-53.823
144.466
296.974
185.411
66.3449
15.672
-8.16147
244.705
353.79
25.2436
-347.217
-263.039
-97.4194
-42.8902
273.495
341.469
217.455
348.593
-22.7952
-378.1
-400.293
-214.882
-0.729416
-32.1552
-231.894
-229.29
88.8873
409.036
374.285
197.25
138.3
141.675
140.868
78.721
88.7694
-55.7028
-192.74
-259.516
-88.2825
93.072
76.8654
-22.6245
-83.2578
-74.6386
44.3186
49.0141
5.19406
-40.77
-342.235
-561.09
-453.417
-176.8
104.557
234.742
324.054
319.535
9.81282
-446.533
-179.291
105.86
286.578
372.971
253.67
102.578
-2.19318
-153.56
-220.651
-3.56499
207.911
341.006
343.657
39.96
-130.101
0.123135
57.9705
-244.579
-328.053
-18.9004
-182.792
-128.371
21.646
31.4358
76.7629
68.8046
205.586
352.307
82.7034
-320.729
-411.659
-345.965
-299.683
-172.711
156.768
208.443
-16.7241
-140.491
92.5145
130.101
-161.297
-316.084
10.0122
326.002
481.701
589.797
277.552
-63.8253
54.1876
60.0691
34.8653
194.572
163.122
-175.956
-427.478
-480.222
-388.779
-141.214
-131.369
-81.6373
259.256
356.746
105.303
-19.0185
-15.6574
-4.98452
194.223
93.2993
-100.003
-159.973
-524.381
-572.719
-200.956
243.082
250.398
139.658
253.685
235.017
147.879
276.581
335.276
223.127
-90.9078
-367.357
-526.772
-527.035
-278.919
153.324
343.754
344.817
376.228
228.547
51.3536
-15.0231
-86.0546
-140.619
-172.539
-88.2315
45.0172
108.869
130.379
-11.967
-169.661
-87.3268
-105.282
-168.514
50.2754
263.79
-94.3961
-516.778
-166.628
145.163
162.658
94.6277
19.0686
-59.985
-82.6631
-35.3106
-13.9932
-2.82387
59.1114
220.848
251.891
-162.97
-70.1608
463.024
93.8132
-447.251
-313.281
-175.576
-212.953
-39.2363
332.49
445.362
350.813
271.404
208.718
211.218
93.8909
-142.097
-200.934
-204.829
-205.043
-74.2666
-156.457
-405.997
-307.246
-68.4154
141.57
400.471
285.516
98.7007
-48.4309
-291.024
-544.428
-272.785
101.123
162.354
-3.28333
-9.59884
-151.346
-233.042
70.6829
306.532
393.714
56.101
-236.28
-26.5671
121.099
272.043
326.217
-3.44631
-242.161
-23.8036
307.27
218.132
22.6382
-45.6902
16.6307
46.4323
202.868
237.315
64.2165
-284.621
-434.52
-354.545
-131.351
-146.713
-175.116
-109.325
-17.3875
85.6709
100.171
232.026
380.384
119.111
-263.191
-54.4269
-138.311
-372.255
-216.469
-213.797
-171.503
92.2748
176.533
233.776
245.91
179.043
198.009
175.891
84.7301
74.1438
37.0975
-200.147
-321.587
-185.916
-62.3304
-139.97
87.2272
322.962
208.303
118.115
23.5969
94.2264
94.7136
8.26466
-42.0062
-68.2368
-12.0822
15.1915
37.3981
-15.9807
-158.096
-174.63
-124.865
-54.4321
-57.5464
-156.276
-53.1979
48.4992
29.1452
45.3792
22.0054
8.75769
-30.3336
-19.328
-13.7358
11.8145
-20.2719
-58.9816
-21.449
11.8148
6.80936
46.1841
41.4651
42.6494
127.484
109.938
84.0804
54.4649
3.34255
-18.1446
-37.2244
-9.99826
41.4572
68.6486
65.0551
16.8553
-32.1801
-50.0153
-87.3128
-99.52
-55.158
-4.90947
5.29927
-6.94656
18.9111
29.9778
15.5401
-55.914
-76.3013
-0.379829
67.9585
91.2798
107.666
60.3048
3.06668
-34.4597
-56.3677
-61.2782
-77.8371
-85.8463
-64.1281
-33.2423
-22.3626
-17.8817
2.70089
10.7528
23.8465
60.5871
54.8362
4.45001
-45.5183
-54.8907
-39.375
4.39624
33.2803
38.0283
33.5443
28.7219
15.6544
11.7263
24.6883
34.03
32.7602
25.864
22.7649
10.7357
-0.908132
1.4413
-0.179947
-15.0195
-21.3437
-6.79918
5.20796
15.4763
16.3962
-3.86565
-22.3062
-22.757
-23.3254
-25.4331
-23.3695
-13.6009
-9.0197
-9.74853
-7.35934
5.17789
19.557
29.1906
16.8477
-8.69043
-29.1098
-33.9985
-33.6719
-25.5179
-17.317
-16.7495
-21.9053
-25.3788
-24.7476
-16.1973
-0.192574
15.8352
28.4388
37.8769
43.613
42.1926
43.1806
55.2035
58.6942
46.8157
27.4788
15.5297
3.32615
1.38793
-0.244688
-2.50183
0.578426
3.62033
2.20071
-3.88827
-15.2581
-23.7263
-32.9283
-36.9887
-32.2716
-36.5151
-53.5576
-62.9415
-45.7103
-16.3369
8.02722
12.0118
16.836
10.4176
0.978762
0.788564
8.45392
11.0618
6.84054
9.76294
9.88245
8.91
8.05751
8.94282
8.44117
10.2714
15.1085
22.3466
14.225
-1.28114
-12.5594
-17.7642
-16.0021
-3.04616
10.0502
13.3637
12.2997
9.10362
5.42479
3.23245
-1.13821
-4.24255
-10.369
-10.7033
-10.3444
-7.83173
0.102534
2.17202
0.194655
-3.53017
-5.69699
-1.73617
-5.34344
-3.09235
-0.303783
-3.83845
-5.59125
-5.97346
-9.41776
-6.40727
1.6206
9.2472
18.5376
20.0702
15.386
10.0134
10.9753
12.7374
12.3577
3.11289
-2.52064
-2.95055
2.5555
8.34935
10.6005
11.8539
4.87317
0.101186
-0.51138
-2.45524
-3.57477
-4.11043
-7.51827
-13.4385
-14.0753
-18.433
-15.0901
-8.37348
-9.58512
-0.43511
26.4401
35.4224
28.3243
11.4922
-2.76324
-10.3795
-10.6425
-15.7769
-20.5065
-25.3755
-33.1309
-35.5444
-36.4111
-38.3238
-32.293
-29.1814
-30.3239
-31.4092
-29.5363
-24.5832
-19.1284
-10.0474
3.63632
14.0194
17.6008
26.322
34.6724
38.1108
39.5926
40.3619
35.5533
33.7236
39.5579
53.169
58.4936
63.2353
68.3993
75.3545
75.8137
66.2458
44.1457
20.2007
-7.16942
-28.8008
-25.7287
-19.5579
-11.8602
-3.02722
17.1361
43.0917
78.6993
101.91
100.203
77.3732
40.6626
-5.61275
-63.3361
-121.952
-172.226
-214.578
-248.518
-256.701
-254.283
-249.432
-240.258
-217.52
-164.52
-108.251
-74.5702
-63.928
-57.2107
-51.2107
-38.8235
-23.0985
13.2385
66.2537
119.612
165.227
197.783
228.911
259.553
273.665
285.01
300.216
306.819
301.712
265.455
207.584
145.907
86.3536
47.799
20.4914
15.3349
10.4282
-14.5425
-39.8359
-60.264
-65.9952
-66.8725
-93.4023
-125.676
-135.084
-123.487
-109.001
-116.985
-122.791
-120.648
-121.858
-111.621
-92.2531
-105.135
-135.611
-165.132
-145.985
-108.298
-75.9692
-50.0692
-44.1076
-38.0667
-16.9976
4.29932
22.3357
38.9417
56.1078
54.5744
29.2354
19.1996
41.4494
54.4619
69.4089
86.1116
89.4776
94.7116
90.507
87.8677
85.8257
90.1863
81.4667
32.0408
-26.2044
-66.9339
-46.4521
-14.769
-3.68368
12.5499
48.1547
69.4394
45.6976
-13.5676
-69.112
-96.2067
-92.9871
-73.1653
-55.1949
-47.2665
-43.6155
-58.078
-39.8107
37.9383
128.999
181.414
175.588
118.433
10.847
-66.6539
-89.4853
-57.5894
-29.2973
-20.5706
-11.4749
48.6993
91.2239
78.4197
14.8822
-87.7195
-121.183
-127.696
-163.034
-138.089
-103.555
-72.7693
-167.147
-316.709
-282.305
-179.239
-96.6429
-9.06033
109.283
161.662
165.737
187.634
223.465
224.476
214.144
288.731
350.303
391.712
460.295
432.405
337.036
257.018
206.944
164.635
82.3606
4.03322
-76.7213
-164.192
-211.941
-253.962
-272.014
-286.222
-303.443
-344.076
-365.843
-358.552
-349.738
-331.567
-323.813
-315.155
-381.986
-408.817
-253.084
-58.526
69.5552
72.4663
65.1422
68.5182
45.2477
30.3027
32.712
76.1561
103.277
91.3888
189.497
256.406
290.02
369.787
391.422
354.888
347.961
247.518
101.372
35.8903
-79.1606
-149.333
-150.703
-79.7953
42.6278
162.564
209.71
125.066
33.3318
22.7232
-48.976
-127.56
-216.627
-232.231
-133.525
10.5842
48.202
-88.4069
-258.325
-246.645
-63.7724
175.607
258.207
122.209
-27.7314
47.8669
207.042
293.913
238.626
210.416
144.039
-47.6072
-244.948
-298.629
-350.318
-431.822
-369.772
-68.7659
197.341
163.048
4.62433
-75.5624
-34.4069
-140.879
-256.91
-284.001
-199.368
-132.545
25.9604
-17.8425
-113.498
-62.0499
184.989
368.006
394.128
368.554
211.19
49.5566
-8.74022
-93.19
5.29834
113.229
49.9489
91.6662
30.0633
-125.342
-204.294
-202.017
-166.085
-109.266
-80.1053
12.2431
30.9576
13.5119
109.676
163.064
225.17
323.373
329.836
320.052
204.011
52.5204
-36.5804
-110.774
-252.576
-277.199
-72.8319
-6.28442
-85.0323
-40.6058
182.482
307.658
113.431
-157.077
-254.194
-272.336
-321.506
-287.973
-67.1105
-8.38796
-98.7593
4.64545
183.215
185.257
41.9975
-263.552
-593.533
-566.073
-385.252
-256.568
-125.003
29.4791
183.312
300.81
177.527
119.498
254.902
392.832
374.551
384.929
309.092
126.23
-85.3031
-168.646
122.511
517.956
590.297
456.483
377.1
289.136
120.636
-82.6828
-253.948
-468.358
-369.877
-163.83
-88.3098
-211.655
-363.271
-335.019
-166.267
-164.272
-185.076
-146.619
33.5671
112.727
88.4038
79.1007
5.30485
-88.2144
-61.909
42.8538
102.13
11.3078
-430.122
-892.226
-886.31
-633.59
-443.788
-152.237
138.928
478.571
779.822
1006.53
946.071
589.33
289.31
87.8102
-91.6495
-75.5649
-137.931
-125.959
32.818
126.345
260.741
517.486
633.056
482.102
282.913
-26.937
-306.602
-343.615
-328.115
-414.449
-445.048
-328.687
-407.163
-507.99
-312.289
-141.199
-103.727
-277.999
-310.962
-159.69
34.9586
142.31
77.5991
7.17315
91.6648
265.898
334.036
118.719
-17.4473
133.592
178.401
235.888
236.125
215.199
161.785
99.2763
89.1116
132.144
38.2744
-206.824
-306.481
-269.774
-194.777
-163.548
-94.2569
19.7921
260.074
478.996
314.93
-63.9059
-330.591
-420.032
-139.308
100.294
104.815
38.235
7.3933
90.344
173.618
248.609
205.74
16.4864
-202.527
-94.1703
55.0409
53.0077
-2.33054
-179.029
-327.96
-371.463
-499.766
-450.104
-223.79
-0.178541
112.845
232.343
252.829
88.0692
116.348
464.306
589.105
391.1
214.997
173.413
-77.4558
-249.369
-499.934
-532.706
-424.716
-98.8953
230.037
335.463
255.149
241.114
329.569
116.992
-133.725
-284.726
-348.78
-330.228
-261.632
16.9856
275.907
216.044
78.315
-32.9216
-97.1272
-73.6859
133.782
212.927
283.887
428.04
193.335
-413.823
-871.711
-716.83
-380.461
15.0503
337.35
324.864
182.883
113.622
154.527
171.339
338.696
294.222
158.726
76.4828
90.1307
-72.7756
-177.178
-324.791
-336.896
-81.6467
165.433
223.489
195.698
122.843
-33.9277
-10.7805
110.674
44.4392
-216.91
-414.048
-623.033
-385.032
-14.5892
42.4157
-63.7854
-121.54
-21.0472
225.707
250.983
126.455
33.4863
18.9003
145.7
271.952
243.305
63.2237
-132.585
-383.34
-508.721
-347.226
33.5119
284.325
351.897
316.919
175.262
206.927
195.247
38.6962
81.5263
192.221
184.073
103.471
28.0604
-24.5245
-49.31
-273.819
-352.678
-119.919
262.846
490.083
329.485
-204.258
-595.194
-722.564
-598.828
-437.327
-386.711
-177.551
197.997
243.618
137.371
221.184
292.864
226.023
34.6825
-134.307
-124.448
104.024
328.459
212.105
161.123
180.11
42.2171
62.7434
159.786
173.535
114.456
-8.73642
-315.746
-344.073
-142.579
-73.2277
-29.64
-178.739
-207.686
-33.0141
91.9915
102.029
-8.17906
-85.9324
8.99836
136.293
249.986
217.31
60.4952
-149.243
-144.814
-101.423
71.2256
198.415
116.659
-70.7387
-198.655
120.011
265.012
197.924
40.055
-163.288
-196.235
-256.819
-362.692
-295.653
-66.2107
100.943
202.439
322.52
232.639
-75.6781
-311.025
-332.608
-147.233
109.364
281.471
112.654
36.9128
178.696
305.51
191.371
-96.5113
-280.546
-322.095
-209.698
-40.9184
-7.96917
-37.0245
-117.155
24.7832
158.009
297.208
374.615
210.329
14.4383
-155.343
-163.749
-104.638
-218.157
-225.428
1.22261
162.142
86.7976
28.9083
108.554
50.2767
-22.2769
-51.4162
151.324
230.695
173.512
-51.7941
-225.289
-206.455
-66.5981
67.0631
60.1911
49.352
129.017
178.542
39.0731
-164.196
-128.411
-114.514
-32.1396
36.8054
-9.23696
-36.0001
-290.432
-449.461
-277.27
40.2129
223.055
189.838
92.018
-60.2097
-251.265
-329.557
-71.6084
129.064
126.748
229.779
428.519
419.806
156.003
7.08128
-34.873
-15.8677
208.116
264.35
37.9829
-116.496
-111.657
-155.621
-148.413
-29.1655
14.2845
-17.8779
-231.416
-294.994
84.6624
392.691
210.748
12.4688
-161.687
-315.046
-280.045
-155.493
-80.6465
-28.0723
99.849
115.845
38.4498
97.0376
-37.2796
-82.9737
125.811
202.628
186.733
44.0801
-205.377
-416.265
-230.447
73.5538
238.375
313.073
219.406
47.1528
-97.622
-151.398
-104.913
33.9692
87.3895
47.9877
-74.7859
-131.25
-7.51559
129.704
113.567
-79.6548
-267.702
-146.805
69.8229
97.797
79.3799
133.536
217.649
191.312
219.466
-40.6749
-209.432
-121.664
-27.8913
-34.7952
-62.4931
8.22037
68.7343
55.0346
52.5012
8.72284
-4.61417
-67.2771
-200.137
-246.639
-196.48
-225.453
-264.024
-141.611
-47.0364
210.835
279.195
83.8739
57.215
100.33
174.372
66.4379
-108.843
-92.3788
76.125
261.278
291.134
162.688
-38.3855
-115.849
-17.2578
145.686
82.6448
-0.539198
-86.4898
-140.717
-91.1947
-157.191
-260.481
-125.354
129.179
204.531
-32.6988
-246.464
-331.028
-206.219
-18.047
96.5422
261.445
339.085
280.154
113.848
-106.222
-27.4847
124.533
85.2474
44.2433
28.5766
53.1044
-38.2585
-69.6104
-125.663
-34.7198
8.01544
0.158231
73.1236
58.9529
-97.9557
-183.548
-164.342
-210.797
-205.692
18.0097
24.6746
-55.6018
40.5151
49.6036
53.8741
-40.1905
5.91524
32.4497
-13.6772
-37.9657
-24.367
3.48796
47.5154
241.397
440.981
259.273
-100.923
-274.96
-165.869
1.23498
49.4601
115.43
121.922
-4.92068
-131.807
-95.5034
2.13251
39.6669
-25.9609
-126.565
-74.1439
-11.4815
19.0885
-80.6159
-158.762
-59.4535
67.5438
150.743
151.947
169.969
174.618
11.8766
-8.25261
60.3644
154.417
188.498
-45.0293
-289.362
-266.344
-126.878
14.4392
89.0588
-25.816
-94.6135
-101.558
6.53847
152.465
51.0951
-103.704
-36.2344
25.0244
-48.4572
-82.5668
-52.5209
-63.5939
-130.077
-28.8926
143.661
11.5418
-117.451
-155.833
-111.92
46.4938
118.53
106.704
79.261
21.6063
14.5126
124.897
167.772
86.682
27.1233
-56.1237
-36.7614
38.5996
77.6348
90.1916
89.2458
218.041
199.435
-41.3087
-107.101
-24.0386
-66.8427
-178.288
-83.2213
40.0915
113.425
-49.0162
-162.152
-39.1869
52.9274
-0.297667
-100.592
-149.322
-15.9217
-2.23983
-27.5469
69.0294
70.2627
8.90832
-121.402
-318.594
-333.767
-175.665
-129.05
-13.5693
124.841
165.698
122.728
61.2673
22.3684
56.7016
171.824
231.995
199.51
186.658
173.901
27.4572
-8.99933
10.3264
2.38559
-3.09938
21.6904
-3.96784
-72.4756
-159.971
-100.905
83.6088
87.7199
-133.908
-144.071
-38.7169
-25.317
-43.66
-73.5005
-163.169
-270.046
-161.305
76.7473
365.094
401.495
192.817
75.6891
76.6729
100.608
-71.7776
-202.957
-160.771
-0.697781
-40.9461
-88.6103
-135.13
-158.925
-277.325
-229.226
18.6328
108.205
101.754
90.8988
5.59226
34.7061
107.966
62.554
44.3687
12.6626
68.6961
92.678
74.3823
-0.814997
67.1683
93.4143
86.1284
62.6953
35.8513
16.1023
39.4953
87.0782
80.6128
-31.8162
-202.881
-358.349
-321.078
-71.9996
87.5671
112.384
89.9867
41.798
-8.58366
-29.4051
-66.4994
-67.4141
-7.64392
106.032
215.754
119.9
-35.1781
-141.34
-161.429
-44.117
127.423
159.954
113.651
-42.8125
-134.366
-183.242
-109.367
-21.9695
-17.3158
-13.0875
30.8338
36.2807
58.8594
33.1136
45.196
38.9637
50.8499
50.7944
-45.7553
-157.606
-124.323
52.7427
151.614
201.605
290.908
217.823
48.1429
-139.974
-266.481
-332.264
-264.365
-108.765
-51.2948
-19.7116
133.403
193.649
142.754
95.0655
19.1121
-29.4264
-78.4729
-15.6073
15.8926
-92.2923
-278.441
-168.504
59.7754
237.925
270.951
163.179
176.859
157.952
94.9669
-53.2328
-203.799
-189.986
-196.824
-124.883
16.3534
159.558
125.573
5.69035
-9.71756
-32.1692
-92.0137
-93.1363
-105.771
-105.601
-2.93893
75.0933
21.1297
-104.276
-80.6074
108.549
125.069
-11.9871
-76.7203
-84.3483
24.9106
107.937
103.869
82.1425
83.6955
49.3771
98.9823
60.869
-30.5961
-55.3961
-49.4393
-69.6117
-73.5914
13.1587
36.34
15.3873
57.5802
117.344
93.3211
-32.4393
-196.686
-360.795
-232.381
-14.8742
75.5145
67.0211
63.0978
58.0704
27.0281
58.0788
98.7586
146.601
166.401
42.4193
-98.1082
-172.349
-138.49
-92.4317
20.8441
143.031
178.218
121.561
7.86699
-34.0095
-62.0418
-3.67317
-39.3069
-77.9549
-21.7933
-71.6244
-106.713
-80.735
-42.7716
2.84836
57.2958
129.302
57.2926
-6.92263
-17.7565
-43.6252
-29.3433
77.123
111.92
-68.147
-135.313
-139.054
-167.625
-104.885
107.19
207.978
218.636
215.878
152.784
104.343
-28.6501
-225.017
-240.58
-124.749
-28.1315
72.7052
126.982
38.9014
-20.3853
25.7933
-39.7069
-50.269
100.815
118.931
-12.4464
-62.8666
-132.495
-114.005
-96.6528
-117.01
27.5911
152.813
128.766
39.3336
-31.957
-68.4268
-111.444
-75.9414
-10.0577
59.8805
131.825
177.531
46.4063
6.19651
76.2593
98.6745
-41.1268
-155.033
-159.281
-67.7875
-36.9235
-117.363
-16.0257
143.862
166.688
91.4152
51.9318
9.70835
-42.457
-52.8123
-58.8098
-34.1747
20.1408
37.5328
-16.8011
-88.4076
29.5665
70.9844
74.5081
64.946
-39.8618
-104.119
-141.433
-104.264
-72.8163
71.0242
212.345
208.299
64.3331
-125.153
-134.579
-123.709
-90.0479
-62.1468
-91.4535
-98.1305
-72.7763
13.9772
20.4401
46.6424
134.027
277.778
310.699
204.786
46.3955
-194.637
-248.008
-79.789
84.6845
53.5122
-22.3975
-12.2106
22.0079
-59.9632
-127.173
-25.0675
19.4677
-84.9933
-28.3209
125.785
181.382
119.009
-38.6221
-162.187
-240.944
-93.5911
16.2772
39.5475
59.8003
43.74
52.3898
78.1914
66.6314
103.784
108.042
13.2024
-76.6146
-50.0624
-101.7
-179.357
-173.311
-73.7188
17.3001
37.3061
67.3886
71.6789
18.8947
-70.2141
-75.9705
70.3668
229.078
181.778
37.1609
-31.287
-144.093
-274.066
-123.419
211.328
402.591
244.584
-17.362
-268.37
-252.67
-216.747
-99.2888
57.7738
127.283
123.376
77.2287
7.70081
-86.124
-140.509
-131.337
-77.5927
74.2339
160.546
154.983
94.7495
30.5339
50.6616
108.821
96.9826
11.3566
-38.3433
24.7416
18.0672
-78.3142
-158.576
-181.948
-184.992
-132.822
-77.0374
-6.90544
63.6839
96.3129
188.266
120.65
2.32824
-25.6234
-109.791
-90.5164
19.2071
-87.1737
-129.923
42.5355
196.188
158.815
59.0318
-51.9856
-253.591
-294.107
-8.40603
179.674
203.953
162.667
104.395
32.7588
-139.82
-222.262
-58.0594
76.1236
136.452
256.987
251.963
38.226
-172.526
-185.594
-73.8517
45.0267
243.043
168.926
-5.80641
-16.4295
-55.2728
-97.2982
-127.702
-122.372
-10.3932
-29.6299
-104.709
-96.393
-134.336
-161.992
-87.3847
0.0826647
-78.084
-142.28
-87.9153
62.691
169.858
273.795
283.007
144.821
0.18501
-86.5362
-141.538
-18.9475
16.8769
16.304
64.9456
63.6622
37.7257
26.1046
31.054
56.2211
96.7961
95.9922
56.1121
-49.5577
-13.4687
-40.4755
-143.574
-182.891
-106.493
-22.3332
45.542
-0.802024
-50.8415
-18.1036
27.8905
63.3031
71.8074
49.0328
-0.895504
-58.424
-36.9507
-48.8142
-34.3717
6.78227
41.0711
135.218
137.265
61.1498
-66.0796
-127.482
-91.2752
8.2997
130.568
54.2323
-21.1086
-53.4293
14.6078
45.3415
-4.25587
-145.081
-240.31
-244.922
-113.308
25.957
-33.4181
-37.8421
-79.7545
2.38446
189.269
290.912
243.23
127.525
39.7901
22.4075
2.13417
44.7755
55.953
-6.51836
-39.0782
-12.7694
15.1143
48.5244
50.2753
68.5579
95.853
-16.4853
-73.7017
-108.279
-116.028
-80.2382
-131.496
-213.627
-227.744
-97.4074
63.0963
79.8362
67.9401
74.1078
106.157
116.744
60.88
88.6652
42.3026
-45.1999
-94.6881
-120.717
-98.2873
-38.4342
15.2216
102.145
273.481
220.232
-34.1318
-227.451
-333.488
-255.256
-114.976
36.9231
46.6246
-25.9082
107.394
218.575
223.202
132.056
109.168
156.685
144.603
52.1804
-60.8736
-228.463
-340.134
-222.036
-12.9186
168.664
213.828
57.4774
-39.2386
-0.9606
96.0839
182.709
82.1788
-60.8452
-151.919
-181.266
-154.944
-54.5345
35.3704
100.012
109.391
-65.6803
-243.472
-301.288
-168.524
-7.87083
66.0883
187.597
239.584
31.3241
-48.2527
-3.16059
-24.6715
44.9875
11.5578
-31.2358
-6.99406
-5.5659
-72.2556
-206.196
-138.619
130.489
285.87
310.351
273.882
173.164
40.1386
-38.8641
-169.099
-123.346
-53.9418
-46.3668
47.0874
13.3633
-22.3763
-31.0624
-19.4625
-37.515
-35.639
47.2754
51.8787
-13.6583
-54.8737
24.1838
7.39363
-0.561135
13.2023
-95.1827
-109.283
-35.2679
-102.886
-111.147
-18.0167
15.3703
-66.5678
-91.2658
-103.888
-83.6881
25.8328
41.9714
86.3401
232.805
291.847
85.1205
-113.101
-197.483
-185.955
-162.617
-54.5453
147.964
297.638
253.575
176.009
130.989
88.0541
71.1222
48.8424
-44.8743
-43.1182
-41.5744
-170.824
-221.153
-120.283
-76.034
-12.9368
39.2325
100.078
111.387
46.3791
-103.354
-110.774
-19.711
-3.38491
-23.1606
-39.4266
-63.4146
0.107566
73.0245
62.1444
-1.06609
-58.3775
-30.9376
-3.20779
18.1263
24.7655
5.52822
7.80151
-15.7715
-32.0478
-51.0992
-109.455
-77.4551
20.8245
112.957
168.28
108.632
59.4088
31.1513
-5.34326
-27.9089
22.3866
88.3379
21.7766
-138.072
-205.244
-115.046
-67.5973
-83.5664
-90.0813
-26.0642
143.356
171.366
97.3515
76.1199
89.1727
116.956
89.737
21.8646
30.4231
53.7658
16.2359
-62.2898
-130.239
-145.186
-75.5371
-61.9837
-35.576
24.9193
42.8588
-62.8669
-123.738
-20.9001
60.6197
67.6893
25.0677
-3.21978
33.7329
16.8543
-65.1094
-36.1388
12.1425
13.8659
37.4589
88.523
51.0922
-35.1695
-88.6489
-124.349
-89.3895
93.221
179.908
119.097
-21.5477
-119.804
-74.1361
-66.3057
-89.264
-110.008
-6.11673
72.4194
73.2224
84.6335
60.2098
44.0878
37.4781
68.348
77.5773
116.812
112.88
-26.7293
-67.4742
-33.7728
-37.4356
7.81648
28.6547
18.4273
-7.30378
-11.7003
-72.7341
-85.6097
-59.3628
-70.3894
-63.4214
-84.4167
-78.7448
-31.3105
5.36784
31.8133
-34.4155
-54.9069
-89.5419
-19.4769
178.246
143.6
-9.48676
-128.703
-120.32
-50.809
103.798
224.666
144.007
81.7064
-2.6233
-167.25
-207.84
-149.209
5.84039
155.077
281.768
313.033
196.195
-59.3245
-279.736
-233.833
-51.6866
148.829
197.474
162.242
65.3423
-3.63591
-13.2289
-75.1133
-112.099
-10.3992
79.0683
54.2286
-50.7905
-146.124
-171.736
-151.355
-133.959
-149.559
-63.2377
37.1742
58.8748
36.2841
-21.0193
-47.6799
-19.0301
-3.14899
1.03562
-55.6252
-9.74843
88.7936
97.3781
152.675
146.345
51.7651
6.03623
-54.9075
-83.2986
14.5005
83.9542
37.2706
-29.3907
-85.2891
-69.3599
34.8082
30.9719
80.1346
144.507
137.805
42.9778
48.3628
49.3096
-124.779
-321.133
-215.426
-24.5401
95.3535
112.354
85.824
32.0946
22.9143
33.0933
18.4175
-30.9124
-55.9854
-87.4366
-125.369
-60.5468
42.1879
89.1052
39.7106
62.832
120.782
168.584
85.0795
-131.259
-295.795
-152.008
-124.2
-101.642
-1.42584
121.48
225.555
151.229
-44.1101
-136.76
-145.897
-211.82
-87.4995
68.4361
125.91
57.9314
23.9202
65.2656
112.162
199.754
270.518
81.7131
-91.7387
-174.912
-102.528
-122.216
-176.508
-68.5704
33.4783
106.216
94.4875
50.2141
4.63424
-23.4675
11.8009
18.3624
10.1184
32.4048
-27.0742
-71.7541
-28.1121
18.7474
65.4364
81.5608
28.2574
54.1795
117.552
57.0605
14.3298
-38.747
-131.21
-143.643
-131.192
-93.0066
-77.7185
-15.9561
11.0134
-36.6649
-45.7412
3.78574
73.7904
43.1722
6.01942
-21.6495
-124.181
-185.622
-106.315
86.5318
165.308
104.175
69.052
95.5335
99.5074
147.889
267.229
216.641
-5.47745
-115.841
-143.385
-112.349
-116.213
-74.5477
-49.5906
-14.1552
-8.19436
-45.8608
75.394
85.2016
80.6117
-22.1819
-136.455
-169.314
-195.914
-142.33
-61.8715
18.2877
135.744
147.342
89.9976
-0.394864
1.59777
32.4251
42.7918
107.144
144.564
122.092
-51.7294
-88.1562
-36.7414
65.9957
102.69
66.7815
1.185
-77.8213
-140.751
-160.264
-147.597
-64.1474
24.1768
65.9599
67.9211
42.7244
67.6036
-22.404
-53.2993
-31.8664
-52.5854
-59.6091
-75.2818
-34.6096
27.5444
31.4412
59.0243
21.9342
-15.1261
71.9875
97.0079
31.0214
81.3647
58.3667
-41.1134
-138.429
-96.4777
-24.0546
55.3281
99.6252
36.1672
-29.2212
-45.0242
-33.8046
24.3445
67.4143
27.7821
-6.72794
-55.2162
-68.7166
-14.2661
39.6626
43.8109
65.5893
-28.5137
-80.9951
-63.4453
30.3297
134.386
133.102
54.0516
-73.9803
-204.819
-189.72
-70.3223
25.1139
122.12
104.583
45.3577
19.6963
18.6278
-21.6866
-87.8798
-74.1867
-58.9472
-25.1364
-22.4097
11.9838
97.9425
148.418
127.633
15.5749
20.9967
122.741
-27.4656
-313.778
-262.87
-109.255
60.7937
80.5551
35.2596
37.526
68.69
12.2165
60.8996
113.219
91.0911
54.2736
-54.9902
-139.917
-115.664
-8.70704
94.4064
106.883
45.9042
78.9711
72.2223
90.0261
-10.1135
-79.7786
-58.2403
-34.2214
-107.09
-162.4
-134.34
-10.6556
30.2643
13.3088
11.8934
29.8473
1.42632
-18.4948
-77.7937
-167.781
-41.6584
97.6722
66.6531
-41.8712
-79.5013
-33.2031
60.0409
82.1133
99.8512
196.985
229.125
91.6584
-14.5985
-77.8716
-139.027
-130.196
-10.6479
106.569
98.8562
110.397
106.866
-21.7905
-120.371
-12.3917
22.1536
-25.7626
-53.7086
-61.4265
-71.1502
-116.198
-136.114
-83.8505
31.8755
103.205
41.7812
29.4164
47.0218
-24.6178
-61.1503
-59.2168
-104.673
6.59701
123.839
165.722
119.191
5.13582
-150.818
-94.2819
36.4436
89.6724
48.0357
-26.7869
-113.048
-136.05
-60.4325
35.8633
88.2586
100.156
122.749
107.59
54.2527
20.7456
-57.3223
-143.453
-108.456
-73.3317
-129.469
-62.9331
98.0291
117.597
111.105
143.915
82.8967
-35.8674
-168.226
-177.529
-81.637
-18.9569
10.5826
0.747676
28.3039
100.945
112.591
50.2018
16.3347
-16.9469
101.696
58.4648
-95.2549
-113.799
-69.6652
49.0462
130.317
173.039
204.588
81.1481
-111.713
-156.023
-125.392
-100.688
-89.8064
-68.598
-50.3234
-95.9489
-138.761
-48.4318
126.178
187.448
88.7798
18.1127
-25.5187
-155.079
-203.381
-175.571
-71.8603
121.599
145.639
83.8474
85.8847
93.8583
111.975
112.804
110.11
105.066
86.3303
-3.2772
-188.449
-241.36
-172.419
-159.923
-35.0275
102.579
76.8901
77.4723
108.853
21.646
-0.409276
41.8973
82.3877
90.6214
68.6596
15.8404
-67.5454
-104.421
-76.2781
19.1721
56.0182
26.4638
-27.8137
6.97883
9.7161
-4.39377
48.568
19.0305
-76.9549
-121.687
-148.982
-89.1423
-34.7219
-23.7254
-67.3274
-119.326
-56.5593
80.1602
116.691
54.9218
-7.42511
-25.1576
25.8629
40.2424
46.2999
77.2135
99.3476
174.67
244.062
134.851
10.2106
-153.916
-354.966
-286.834
-195.677
-105.439
-18.7628
49.9257
108.743
115.878
150.288
158.813
128.763
110.596
66.2261
71.8082
58.8981
-34.7831
-194.213
-184.365
-81.456
10.5835
88.6205
113.259
176.445
136.421
-20.9535
-113.62
-58.8057
-8.65155
-55.5579
-114.935
-76.931
-27.4463
-100.643
-184.824
-192.731
-183.536
-120.966
-18.1273
73.752
163.758
191.992
22.6465
-25.8806
25.0659
173.297
152.884
-23.7019
-93.6741
20.3338
127.931
101.047
37.7422
-2.89435
-43.0313
-9.00323
33.9075
140.037
160.289
153.183
-21.7623
-189.806
-230.376
-243.841
-120.619
-78.0247
-56.7846
51.5118
65.3936
82.8782
77.4172
15.663
-28.3247
-38.6492
27.5012
250.327
234.825
-35.0846
-215.618
-290.126
-186.608
136.544
272.678
182.063
77.6554
48.1906
30.6662
-56.6705
-64.0039
-142.194
-230.617
-225.415
-222.412
-101.55
5.5504
-9.8892
49.5675
134.676
163.773
155.909
163.619
94.2535
54.7109
45.9864
-59.6481
-192.503
-158.881
-7.04947
68.7568
60.9385
75.037
134.878
155.758
88.4008
-5.79263
-143.882
-89.3089
-14.6364
22.148
2.49988
-47.099
-176.046
-295.187
-145.597
102.982
192.988
203.753
157.024
36.1186
-61.6152
-125.898
-104.931
22.8971
89.5446
-16.7922
-93.5085
-41.2297
18.0998
-56.3607
-97.108
-99.651
40.2734
177.088
187.611
84.1733
11.0937
-91.9468
-83.6472
-10.0436
48.6141
94.8466
57.2684
7.36384
11.835
41.4056
-38.6823
-150.583
-95.0682
7.12308
71.0224
109.68
44.8994
78.9078
72.0932
54.0576
-50.1385
-98.8424
-73.4718
-52.2013
-138.345
-204.597
-117.062
-49.9347
-88.9866
-108.757
6.72861
43.6768
68.4439
152.675
146.975
79.969
6.0995
-58.5883
-53.6805
-38.0375
109.111
211.343
108.276
9.65554
108.616
118.049
13.1109
30.1225
103.066
94.8487
43.3881
-117.603
-286.062
-238.693
-71.7261
79.8858
89.3306
18.1852
-35.4828
-73.1525
-93.2237
-72.691
-56.8684
-40.6218
-55.7408
-53.5098
-40.1134
-11.4764
-19.914
1.73747
54.4971
149.674
174.587
32.2902
-67.2827
-33.6053
14.3322
18.0588
-12.8812
-20.7203
-41.0141
-120.924
-138.847
-2.86189
77.0892
150.993
185.75
58.6313
-43.7833
-28.225
28.4132
90.6304
127.363
108.573
-0.888693
-79.9098
-44.2504
-23.2626
-18.237
-23.3386
-33.1725
-23.3549
-3.44957
-16.5216
78.2281
109.037
49.3621
-55.1604
-126.388
-157.031
-145.302
-76.3903
-29.4203
-1.34594
57.3549
51.5575
-6.95098
-2.88176
-25.865
-47.9717
-43.1142
-14.4149
-17.8976
-12.8815
-12.831
19.3129
15.3538
41.553
143.133
331.455
287.034
47.9792
-96.448
-168.223
-181.86
-166.825
-158.442
-107.149
-75.2137
-47.5648
60.9855
132.219
221.357
186.13
26.3998
-15.4164
4.37269
9.93013
-39.3987
-184.719
-160.462
-14.4975
138.174
191.55
154.279
35.6385
16.7756
23.5778
39.2663
25.0236
-16.0723
-80.755
-158.269
-137.948
-79.711
-57.27
-72.6758
-52.9143
-11.2993
21.2033
-0.17814
1.16134
-30.4869
-22.1336
11.0228
62.7351
39.9232
-23.9034
-38.8495
-6.78549
20.4856
-28.1502
-60.984
55.7568
217.885
140.435
64.7782
80.2266
70.5451
3.22799
-39.6341
-25.8135
-39.5528
40.3677
84.0408
8.52952
-52.0764
-89.7392
-158.15
-190.918
-158.794
-33.5338
111.92
72.3184
-58.251
-45.4856
39.5424
54.4845
73.7101
67.9311
43.7243
-3.80241
-27.0916
-59.4687
-112.454
-36.8956
66.0038
127.92
166.607
145.182
70.7343
13.8987
-41.0054
-75.5346
-123.271
-125.323
-157.895
-169.876
-35.3362
27.1039
19.6049
77.0236
105.005
73.3369
25.4724
8.86247
58.9386
99.1473
101.622
54.2052
-13.4164
-39.685
-91.2816
-126.485
-81.4978
-31.0398
-3.54418
29.0021
-28.7557
-12.9607
32.9855
15.8843
-25.0707
33.5268
127.484
124.514
-18.1645
-160.717
-190.086
-174.12
-111.929
112.844
150.182
90.3183
18.6908
14.688
15.0955
-20.8264
-56.394
41.6185
52.3447
13.7012
-9.73305
-73.6542
-80.6496
-27.3206
51.7194
129.509
136.088
124.741
123.925
-3.18232
-51.4332
-1.47939
6.04333
30.2735
109.294
70.0822
-2.20237
-152.643
-311.173
-335.372
-164.696
-40.0968
-11.461
51.3757
67.5562
105.188
166.275
144.827
62.9261
-27.6402
-74.8014
-91.1174
-33.6943
27.8844
69.3801
104.94
85.2677
8.9059
-7.50671
-46.667
-91.6738
-93.779
2.91774
36.0241
43.9896
-21.9569
-153.956
-218.231
-102.473
-6.12384
67.4603
125.859
124.785
96.4096
126.059
87.0282
9.74235
-18.8713
-10.7185
-24.2644
1.79617
78.6148
52.2582
-40.8257
-42.463
-35.0951
6.55933
68.2535
29.3666
17.0026
-0.0634055
-43.0042
-65.1623
-76.5702
-111.379
-95.0272
-93.8
-10.4702
66.9503
143.244
89.6226
-53.5161
-68.8445
18.7817
33.8052
37.6339
30.1937
52.1697
7.81259
-31.5058
46.9999
-13.6537
-42.3024
-61.4182
-125.54
-76.604
33.766
39.1297
49.8976
35.49
-15.4091
50.6843
-22.8945
-205.771
-187.714
-0.210812
170.131
246.071
235.303
149.221
-9.0081
-82.9474
-89.8786
-161.323
-138.556
-65.6093
0.00568325
14.2497
13.7861
28.035
45.3286
27.3561
89.687
159.992
88.6071
-38.339
-110.004
-128.927
-68.1116
4.94357
30.0798
69.6256
16.9387
-8.30178
-20.9869
58.0291
146.835
62.2072
-20.5903
-94.4963
-175.138
-182.813
-67.308
17.418
15.8582
-3.07849
19.9788
15.6219
-27.1247
-54.8356
-37.5425
12.359
119.229
198.47
139.298
24.8381
-53.3569
-68.6448
-12.8489
50.0575
91.1935
66.2269
-53.2563
-85.8179
39.2123
26.5773
-91.9432
-81.8611
-29.4673
-69.536
-150.91
-134.995
-70.3862
3.74969
41.3937
58.7985
50.7731
71.816
77.0069
88.7688
88.8265
56.7289
31.7097
-1.18637
-67.4741
-49.2763
23.576
71.6747
95.5276
69.8407
-4.2303
-45.5628
-30.4509
-1.47999
60.8399
-11.0387
-149.827
-195.959
-124.513
-0.298382
59.046
55.5373
41.0229
28.7778
-2.6141
-17.8027
-5.57971
-14.9857
-45.3824
-8.25457
70.7766
86.4705
35.4524
-60.3152
-149.12
-103.177
7.6566
87.8167
66.8045
24.1971
14.6628
12.1767
-10.8113
3.91512
33.8446
55.4242
43.5115
17.8347
-28.6217
-22.946
62.909
63.1097
71.7529
20.2772
4.32674
-102.232
-193.116
-47.6219
10.5482
-46.224
-60.4515
-31.8436
42.5743
59.2708
10.7679
-1.39714
24.5097
-11.722
15.1068
19.2913
-45.8454
-4.89283
26.6534
47.3096
-24.182
-92.6835
-34.8973
50.6252
130.897
80.7781
56.5122
49.6475
-0.380592
-37.7386
-83.6821
-82.8679
-48.7113
-25.1389
-33.542
-34.6326
-11.6659
8.08777
15.4978
74.5572
106.576
160.93
120.04
-51.3421
-110.805
-9.64929
9.98703
-65.2699
-74.4716
-85.0907
-61.0406
-8.39752
25.7724
59.9857
18.9607
2.91628
-0.411433
-50.5538
-169.858
-180.906
-75.9028
28.7739
120.933
196.544
211.654
95.7339
-31.5037
-67.4199
-89.5185
-97.824
24.3842
55.0596
-21.5862
-73.1722
-10.2721
36.1061
102.621
134.296
142.108
72.7203
29.8427
39.5213
63.4176
-6.72161
-203.785
-218.454
-60.1648
27.3892
17.1495
-4.69121
-19.8234
66.0479
67.8535
-24.6079
-142.031
-194.885
-38.2142
162.711
135.913
-43.5183
-85.9917
-39.598
-63.0978
-86.9708
2.23461
62.4568
97.56
90.1699
-9.36312
-30.8016
-67.1333
-154.499
-111.393
32.4711
174.692
213.349
89.2097
-76.5621
-34.5003
108.454
126.633
47.2447
31.4546
68.3656
80.9376
15.1982
-139.713
-214.345
-132.933
-48.0901
-15.7534
14.795
-22.3556
-89.765
-75.1411
50.9973
12.9622
-69.9206
-86.9219
-97.2433
-39.3963
172.556
213.007
119.64
37.6836
-17.0697
-6.8441
9.33285
66.7162
111.407
94.8549
13.9983
6.95059
62.2665
34.8816
-54.5405
-35.812
-80.0688
-124.674
-58.1378
-47.9719
-136.056
-143.338
-75.5597
-34.8137
2.11985
26.1808
101.31
124.205
73.2307
-23.4197
-0.516194
36.084
-48.9047
-97.2211
-34.7809
-1.73119
128.096
137.702
42.7071
27.3288
-24.1201
-140.243
-155.465
-16.3625
149.147
158.194
85.6829
-5.47626
-22.5499
57.3475
-42.1392
-163.12
-167.886
-40.5596
8.72562
-19.071
-68.3966
-15.6117
76.7974
72.5637
-0.280168
14.0454
43.8616
71.211
52.2184
38.2545
32.274
4.75574
-68.0797
-83.5216
51.0576
78.2646
29.1497
1.40605
5.06782
8.87944
-12.9088
-8.72851
20.6107
54.77
60.8302
3.89038
-34.4762
-75.8965
-100.751
-107.387
-91.6621
-40.8866
25.4923
-10.6155
-31.7094
29.053
102.763
66.207
-6.87159
-34.2914
-3.9966
4.90677
-32.8399
-72.8313
-0.151053
92.4055
100.224
11.9713
-85.7895
-135.641
-143.543
-57.2324
63.3276
133.45
104.241
58.9746
75.6393
97.5898
93.8883
87.9645
11.5034
-33.9272
-14.1444
-89.3803
-226.611
-288.538
-188.709
-21.6829
119.551
195.587
214.638
164.303
11.6639
-103.283
-134.472
-76.642
27.654
73.6819
30.1113
-71.3763
14.3133
128.503
155.429
105.68
33.1164
-52.1568
-71.7417
-89.2204
-60.3793
-5.43589
-63.956
-172.625
-58.3218
67.1261
100.141
82.5909
35.8608
-66.8534
-115.781
-53.0572
-54.9679
-69.0633
-74.1788
-24.8843
57.9105
109.336
111.401
118.014
123.849
101.623
-9.8071
-143.411
-243.046
-143.655
37.5071
204.313
249.01
169.959
-28.8018
-176.29
-172.929
-158.59
-120.207
-76.1287
-44.9335
69.3209
109.698
20.1136
-50.7402
-2.85325
122.876
214.062
233.139
142.258
-11.6996
-138.455
-232.416
-177.662
-3.91161
163.837
188.303
132.958
28.3469
-104.528
-81.5266
-85.4913
-194.722
-148.512
-23.3601
30.8106
59.4295
109.608
80.3283
18.9175
32.0077
31.5067
-2.0317
-67.7632
-99.6942
-103.872
-80.2772
-22.6384
1.26731
65.7759
33.6662
-3.78395
40.934
40.9679
-42.058
-104.517
-89.6011
2.07117
95.1322
98.5602
77.3241
1.30103
-51.6459
-0.518961
94.688
103.939
67.5774
5.81021
-1.36004
38.7828
69.8931
75.1398
-18.769
-147.498
-124.573
-95.8983
-58.7749
-31.7796
28.6564
49.3753
-42.0918
-153.101
-60.6686
166.023
174.32
62.2235
-36.1484
-81.3665
-39.5581
12.15
19.7417
20.9802
35.673
15.6334
-17.4553
-18.6867
-13.21
13.5902
-48.4381
-37.1793
-9.36534
72.6655
119.694
0.683943
-107.157
-128.909
-107.228
-41.5572
17.8674
66.9015
72.8377
20.6392
-5.03762
-12.9618
-19.0034
91.8606
28.8326
-8.27163
-10.1802
-24.342
-30.0335
8.90983
79.1396
130.828
84.9903
-13.8726
-70.789
-75.3091
-76.7667
-42.867
-6.82086
-10.7315
6.44183
46.3197
32.3147
-61.003
-89.7183
-18.9756
44.3515
144.109
161.876
53.989
-33.3636
-103.83
-175.798
-137.541
-100.593
-22.6689
75.4906
110.257
20.6872
-17.9368
33.0736
57.0899
1.63417
0.448512
73.025
77.716
80.3015
40.5913
-35.82
-99.0106
-89.9275
12.2473
93.8784
57.8993
21.2139
-35.9501
-74.3972
-38.6954
28.0108
11.2628
-105.843
-165.632
-105.384
-51.3095
23.5465
48.7234
58.586
55.6629
34.2851
52.3792
60.9648
1.01395
-20.7813
48.0354
67.9661
37.1805
-33.1183
-127.489
-112.547
-32.9728
89.0103
126.382
78.7471
62.5398
24.438
-16.3462
-21.2349
-82.6427
-94.7771
-24.4683
-34.9194
-30.4426
9.26617
67.4219
100.173
127.763
66.6038
-43.9284
-142.582
-265.17
-246.037
-27.1707
113.752
129.492
102.443
132.754
41.6144
-67.8164
-30.9742
-9.8019
-10.9057
-0.533214
-32.9046
-105.213
-37.8077
40.4409
90.5599
95.2928
10.0487
97.9148
169.773
123.738
4.2069
-147.13
-189.891
-147.239
-17.4288
121.524
110.687
14.5512
18.4731
2.81077
-11.9901
16.3006
-26.704
-97.2143
-136.791
-78.7337
80.4652
109.398
-22.9308
-99.0124
-14.5108
53.3532
47.4805
-42.5784
-181.781
-149.091
-58.956
25.2537
39.8524
65.8696
166.068
204.46
147.065
33.1984
32.198
21.9445
-57.8055
-135.188
-66.37
-64.8494
-102.803
-54.3983
22.0317
73.0214
69.8684
41.7712
28.7144
9.1185
-4.70932
14.747
1.93129
-39.7672
-58.5794
-31.9243
5.63909
54.5898
75.7552
61.7478
50.7524
41.937
-23.281
-79.4288
-0.610601
7.90936
-26.1893
-48.8494
-86.616
-149.317
-99.3534
-16.624
56.0184
32.9794
-10.8111
16.1813
-6.88548
-18.3713
9.07038
25.6766
24.1627
56.3146
116.643
87.3754
-25.6778
40.5142
99.0593
53.2507
51.2847
95.9811
74.0463
48.2289
-106.55
-196.453
-151.24
-119.046
-53.4177
-55.7678
-54.5956
-29.4245
-40.1242
-29.5043
10.5328
110.928
141.536
90.8236
19.4573
-94.7696
-191.153
-196.087
-103.76
17.5789
94.408
128.92
120.031
85.2846
101.05
144.593
128.405
39.6934
-48.8983
-107.066
-55.6818
3.71589
18.871
-26.0002
-17.2802
58.4427
117.075
100.74
17.3523
-82.1194
-117.839
-130.938
-109.26
-59.2698
-79.6212
-90.1423
-28.1567
50.7803
104.697
112.475
16.3579
-56.4527
-20.5284
-13.0342
-40.2925
24.8538
44.4273
-12.7665
14.0875
8.62453
-1.71586
-27.6454
7.32583
79.7902
76.5158
-13.5104
-63.2846
-27.1139
34.8236
29.7346
20.0753
35.5347
12.541
-11.9098
-8.00584
-31.982
-39.332
-66.6774
-95.2539
-114.652
-123.192
9.43071
125.764
192.844
158.588
69.1913
5.26494
-65.5114
-159.541
-85.5296
43.364
46.9275
-2.48209
-27.6416
19.0774
35.5129
51.7119
105.479
100.79
64.7187
32.2054
15.0878
-52.2322
-132.159
-127.174
-7.9241
83.5326
111.556
46.3782
-60.9488
-168.799
-128.543
-65.4923
-28.2492
-32.2919
-37.9151
-25.857
41.614
65.5986
35.0253
40.8636
19.7136
-14.9042
-10.422
12.6027
38.3014
7.5792
-33.4806
25.1262
62.147
42.7876
-45.0542
-49.3356
49.2008
56.1267
28.8898
-24.5343
-82.0489
-106.151
5.39148
76.1394
51.8299
60.0215
36.5915
-45.9161
-97.7212
-37.7036
-56.8564
-153.069
-109.486
5.10218
57.0817
51.6272
23.5991
90.8628
130.228
115.744
104.587
94.6442
86.0765
59.3255
69.5951
43.4407
-46.7763
-93.8958
-103.974
-116.715
-48.0699
40.4374
27.5359
2.2161
-22.6224
-55.352
-51.8018
-74.6247
-86.1112
-59.2886
-14.7119
13.7021
-42.3271
-64.1191
-82.3326
-132.086
-137.172
-95.2564
6.65337
89.3751
154.579
194.106
180.071
116.909
133.505
99.8562
-38.6225
-117.116
-102.477
-27.5789
-21.516
-78.5696
-32.1314
85.5154
181.28
180.668
198.392
169.855
-6.08487
-182.839
-283.312
-216.026
-82.9236
-54.1397
-65.9499
-41.3914
-2.69281
58.6284
90.7834
109.803
85.3652
21.4069
-53.6033
-64.7243
-103.896
-107.775
-68.1598
-18.5229
73.3244
196.801
304.223
169.654
-38.255
-109.537
-66.7122
-24.5337
-1.74184
-51.3691
-21.7437
0.882875
-3.10852
15.3233
-25.3549
-86.3863
-149.117
-113.948
-60.5324
-24.6652
-6.46859
-1.76574
-0.417114
46.1483
33.1895
-5.59775
-12.3718
31.449
97.9374
106.104
83.9471
120.691
48.8733
-16.8791
-93.1365
-142.284
-45.8904
81.3038
68.53
26.4793
31.827
46.0443
57.4602
62.4318
18.8815
-22.7252
-49.7979
-87.2786
-107.52
-8.1407
26.6639
-94.9708
-171.105
-42.5813
92.0762
85.3438
34.867
-23.012
-12.5745
40.3598
37.9474
-21.8618
-55.5191
-29.1718
18.5936
58.7097
68.6996
63.1377
31.5052
-108.821
-191.801
-64.0944
80.5088
95.2492
70.8431
29.5239
-94.1136
-139.887
-35.0497
74.856
85.1916
27.9719
10.0167
61.719
56.4629
44.1387
40.5227
-55.399
-104.31
-14.3879
13.8397
-62.1116
-58.4624
-43.9598
5.02474
72.2661
150.123
125.244
41.4254
-9.05565
-25.2437
-22.4201
-29.9308
-54.3401
-76.6892
-117.717
-132.531
-45.3888
96.415
214.32
208.354
-34.8903
-153.681
-74.0402
-61.8208
-22.1423
22.0716
-1.38275
-74.0635
-80.3996
-27.538
34.8063
41.4256
20.9242
53.7818
97.6864
50.7498
-15.7387
-106.395
-123.249
-12.917
107.584
152.988
143.481
103.322
47.5905
-17.1772
-68.4097
-87.4258
-101.989
-79.2883
-65.255
-49.1863
-46.2088
-44.3351
-28.9705
4.56459
48.9919
89.4223
64.4279
13.3207
41.8352
109.782
47.7758
-17.3105
-3.57146
15.1845
-35.947
-98.3363
-150.453
-108.763
-29.9568
74.6407
80.7596
50.556
104.618
112.569
71.1966
-23.9323
-107.131
-93.9229
-50.9333
-43.4803
-58.9613
-14.751
34.7641
85.27
152.963
143.28
65.0883
-36.5136
-149.595
-174.758
-118.032
-10.2305
13.0847
-12.3804
-17.1123
-0.981036
43.6234
-41.1498
6.7344
59.157
12.9657
6.02653
-9.40408
-43.2234
-1.83044
90.3802
130.748
95.4478
41.3721
-67.894
-107.766
-37.6995
32.8514
72.8472
188.038
163.965
-84.2262
-161.068
-92.561
-75.4599
-93.9549
-83.6489
-62.2795
-50.642
-38.3524
-16.974
12.6685
90.0597
147.218
123.321
11.7118
-70.5451
-76.8921
-3.10293
-4.61616
6.74945
72.4618
77.3999
7.45849
-14.1611
21.4835
38.8918
-3.03818
-27.2044
-38.6907
-39.1287
-42.5199
-82.4188
-51.1912
32.4014
62.9281
50.0031
15.1027
-62.5267
-72.5768
-41.2562
-18.2346
-25.6053
-108.694
-102.836
-10.1234
77.7707
123.874
90.3034
50.9531
133.168
211.719
179.877
83.9012
-7.18928
-60.1087
-124.039
-77.8771
-13.9672
-16.6236
-39.7993
-41.5425
-25.4453
3.21899
21.1433
12.5234
-35.4932
-9.43732
-11.6646
-30.9762
-82.3203
-108.696
-114.268
-94.8519
-33.0237
57.6277
72.4687
-0.444894
-47.0384
-69.3436
-32.5023
43.4989
100.634
149.927
148.15
38.6995
-75.4202
-63.2113
-7.93766
7.32671
-19.7072
-72.9559
-44.118
20.0665
88.1665
160.45
161.096
24.5043
-72.6982
-66.0451
-20.4234
-8.78155
-4.17342
-11.0952
-31.7463
-9.42412
32.7792
-24.9294
-40.8821
39.1829
94.4905
107.731
30.7238
-74.1613
-148.894
-181.38
-129.175
3.33117
55.3086
28.007
-11.2986
47.7129
103.652
67.5064
-6.98771
-14.1262
22.4798
13.0419
-4.56863
-31.4061
-71.4339
-63.2668
-11.5618
55.3817
79.6649
84.7823
28.7554
-46.7739
-42.0574
25.0384
91.5957
27.0676
-77.7214
-107.478
-122.107
-119.829
-150.243
-105.237
11.0877
77.1435
20.3495
-1.8949
125.407
232.413
181.083
92.24
124.397
110.677
-46.4478
-105.343
-100.183
-85.5227
-75.5016
-25.4229
22.1853
45.3077
55.9288
30.8807
-13.4419
-40.0686
4.90067
15.3555
-65.8119
-143.64
-112.002
-6.93798
-16.2172
-74.6988
-21.1514
-54.3995
-8.05834
173.436
181.603
-115.212
-108.893
19.8518
33.398
36.9722
22.8816
9.25839
9.06222
38.2209
35.0488
29.8973
17.8248
-19.436
-28.4968
16.3141
69.547
80.3656
-0.455853
-106.204
-71.6843
126.395
178.997
60.4782
-10.8932
-57.0762
-63.7135
-53.0526
-52.4821
-38.7714
-12.0655
-59.1604
-88.3126
-8.30608
44.7177
14.0457
-12.5741
-29.8032
-44.3208
-61.4163
-32.8688
49.9166
37.5901
15.5496
47.1371
48.442
19.3461
4.3499
23.3175
-5.86663
-28.4987
-35.3103
-71.6474
19.7239
173.058
190.836
156.367
67.4047
-65.2681
-251.013
-193.271
-247.328
-291.147
-117.96
-45.8011
-56.091
67.1842
156.437
133.314
146.288
159.534
168.568
185.997
84.7974
-4.05634
4.07755
6.71864
-52.6109
-110.792
12.524
28.3238
94.411
79.5124
-34.083
45.1926
192.519
110.313
-5.76044
-86.0393
-142.058
-152.335
-128.162
-120.159
-169.14
-214.93
-167.405
-109.843
-22.812
60.0343
82.4338
50.5488
62.7322
85.2462
64.5644
29.9432
0.371999
-11.5932
20.1552
38.156
-29.3933
-27.6577
12.2997
48.2836
20.3303
-28.8673
-15.2807
23.1844
67.5557
106.886
93.0372
54.5139
48.8405
43.6899
37.0974
10.7341
-38.8059
-53.1635
-74.7331
-50.2913
11.7011
-4.97459
-28.1265
-36.0139
-41.9783
-38.6328
-21.6551
17.3715
39.9017
31.7328
-3.16828
-25.9151
-24.2564
-4.64365
-5.30124
-25.0809
-24.2974
-23.5223
-11.9616
23.3288
94.0582
41.9724
3.27593
163.539
318.131
183.729
29.1974
20.4695
-172.037
-264.053
-38.4238
-226.819
-669.026
-793.665
-550.778
-336.717
-185.637
80.9884
546.436
706.958
665.976
564.647
449.005
440.969
267.852
44.5644
-68.3734
-217.449
-152.289
-27.9038
-95.0124
24.2124
353.853
506.963
413.517
204.575
-13.194
-264.466
-653.632
-765.565
-626.624
-433.401
-296.158
-385.956
-454.472
-301.817
-108.598
-2.28681
140.173
214.474
157.3
207.775
298.249
315.819
249.217
238.649
244.089
204.229
95.1955
32.7558
-35.8113
-54.9086
-37.8221
-69.2458
-34.1087
40.9667
48.6118
67.598
106.198
103.834
98.6105
104.618
49.6165
-23.7258
-114.636
-138.306
-92.0726
-63.784
-17.1382
6.04169
-24.0458
-48.539
-46.3444
-95.676
-85.7725
-20.9479
1.36872
12.6816
-4.5958
-30.0216
-49.2489
-28.4615
19.5236
12.2583
-15.9003
-57.6501
-75.0757
-30.4283
63.6893
84.0019
23.9256
2.14612
-21.2701
-104.419
-203.116
-83.7076
82.0883
111.213
101.54
97.868
89.6253
58.6554
98.9589
211.889
233.595
138.814
-169.324
-235.793
-99.6033
-1.35445
70.9554
25.1786
-82.0197
-74.3136
90.6126
182.339
-320.735
-630.491
-469.203
-227.969
-18.9263
108.206
220.784
245.27
238.349
300.047
360.549
225.897
17.7401
-77.108
-89.2175
-57.1192
-3.7895
62.6757
67.7628
-10.6492
156.422
238.131
89.045
-21.8355
-31.2391
58.2132
40.275
-49.7848
-235.391
-414.315
-254.557
-75.8769
-42.2845
-68.7397
-92.1043
-79.2712
-22.7875
-3.29515
-25.7517
-78.3413
36.0338
145.758
91.8903
15.2136
18.8389
-8.34483
-103.843
-194.434
-96.221
134.044
192.919
99.2554
33.4664
71.1289
76.9462
26.4319
17.4009
26.7142
16.4977
10.9903
67.6716
102.048
103.829
76.3159
-20.3288
-76.9135
-87.2752
-77.8654
-12.1008
44.5997
13.7062
2.95566
-6.07186
-28.9407
-44.748
-17.0351
12.6617
26.9295
17.4753
1.56296
12.4288
30.4154
35.2918
14.3601
-56.1715
-102.728
-83.9584
-47.5774
-26.7228
-57.2954
-51.1247
-48.962
-65.4203
-31.3542
-20.0503
5.94198
48.3876
40.9707
106.755
171.477
93.7759
2.93726
48.5746
29.9225
-18.4492
-87.5653
-69.1807
-12.7726
-53.6714
6.88871
42.9832
26.7012
-20.3743
4.95126
80.0713
49.0545
-42.9613
-39.7297
-85.63
-110.864
9.93965
86.4498
19.4301
-6.01719
-1.29367
-8.58176
-19.2329
-33.7056
-25.8166
-52.2172
-2.96279
78.1553
145.402
64.1645
-31.3481
5.35991
50.1419
17.8255
-8.51387
-44.7301
-76.7766
-47.9484
-16.7688
-6.26019
8.6534
29.5755
52.9282
48.217
22.2276
-60.5892
-125.763
-94.8809
-37.0855
-16.0449
3.11212
57.4401
41.6275
1.9184
1.11915
55.7221
103.363
14.4171
-17.9546
26.2387
5.75484
-4.34165
-19.9353
-21.7443
28.3233
73.5808
72.116
14.4692
-40.4473
-53.1393
-41.4874
-65.5177
-18.2742
43.3401
28.6185
-57.484
-102.792
-44.6027
-62.7726
-25.5783
35.8257
30.94
54.7066
85.0604
92.7326
33.4568
-21.2516
2.4705
134.733
245.57
178.63
-150.277
-498.806
-430.461
-201.218
-62.7316
151.846
281.799
232.505
279.806
327.294
240.838
-208.293
-483.106
-390.628
-393.316
-559.319
-583.322
-264.012
196.784
498.616
542.79
991.617
1186.42
843.768
482.001
195.295
-767.359
-731.899
-571.26
-964.35
-1124.77
-553.3
123.562
543.61
790.967
1000.36
874.076
368.702
-351.169
-985.132
-1147.9
-731.755
-41.6255
406.236
406.326
-375.861
-224.511
231.945
545.509
842.819
712.725
552.233
-237.221
-681.063
-546.83
-465.493
-547.262
-672.164
-280.497
213.929
565.916
285.348
-156.992
-246.168
-37.9606
476.869
803.311
504.936
143.219
93.7833
263.176
214.734
330.292
267.429
9.74385
-150.478
106.147
310.823
52.5872
-139.684
-507.294
-826.939
-808.058
-969.497
-1156.16
-1012.94
-391.786
234.82
627.789
818.934
366.295
131.288
378.277
704.552
741.801
269.842
-462.12
-847.865
-530.078
-168.835
859.803
1457.97
982.729
582.045
103.439
-426.055
-671.608
-1042.11
-1344.59
-1022.55
-647.112
-671.23
-243.552
163.921
350.098
630.1
837.21
948.642
845.355
712.536
455.621
-30.9494
-412.276
-389.77
-29.4052
514.869
630.615
391.369
211.311
47.8465
309.252
444.057
92.6312
-637.52
-1189.37
-1199.28
-819.487
-577.616
-487.172
-238.655
-166.564
-43.7961
30.309
35.4134
109.219
147.49
-33.9135
-72.9519
119.102
161.602
402.626
874.714
515.015
1.41032
-327.489
-623.219
-251.741
286.673
167.508
-164.846
8.04155
-168.832
137.21
712.092
708.325
115.472
160.679
462.756
166.355
-72.9263
-370.337
-696
-624.648
-220.122
422.259
1014.6
575.796
-197.552
-342.693
-585.71
-845.815
-548.295
-336.123
-507.647
-353.351
204.503
275.323
101.893
304.108
211.54
181.376
148.116
254.559
317.448
278.066
263.071
289.885
358.87
292.999
313.752
140.009
76.3638
-98.7698
-355.513
-436.5
-280.267
-226.789
-213.83
-26.0251
-251.418
-110.962
-408.49
-908.564
-1197.97
-856.164
-294.1
203.82
460.65
521.036
551.302
556.666
289.729
12.2252
326.326
735.035
762.384
678.898
924.015
802.379
240.379
-653.917
-1251.34
-767.161
116.272
113.526
-367.175
-334.313
-205.795
117.495
366.677
76.4655
-157.367
-364.979
-615.211
-473.15
-176.851
-319.419
-609.558
-518.162
46.5443
584.032
951.673
755.112
387.309
85.8664
436.182
336.812
237.416
426.497
561.102
315.409
-829.548
-841.88
-583.105
-745.183
-684.833
-476.752
-193.612
-52.9916
93.0704
129.428
287.97
318.179
451.865
535.996
468.419
543.488
260.129
-341.131
-415.109
-375.936
210.589
175.871
50.4489
21.2318
-188.991
-85.6949
-21.3001
20.4242
-26.1308
-31.3833
176.461
409.236
32.9653
-309.532
-247.564
-203.397
40.4806
145.056
-228.133
-306.502
-80.8236
16.2274
6.75851
15.1503
182.55
126.305
-230.512
-666.527
-188.375
431.017
525.953
398.727
-196.327
-352.779
-305.542
-393.831
-395.722
-314.74
-40.6057
412.263
621.763
702.233
453.008
137.673
-39.6944
-121.965
47.0754
425.937
410.671
-141.649
-464.32
-555.673
-246.333
86.8547
-126.086
-204.085
246.966
461.524
324.097
153.134
369.574
-124.119
-366.171
-145.574
-26.9185
348.93
346.407
-387.174
-869.752
-588.993
-213.786
35.9571
397.627
482.995
162.853
-175.91
-187.763
-54.9366
108.989
-222.029
-910.244
-668.489
-433.564
-276.159
474.497
727.088
314.821
61.4034
-116.327
216.554
463.334
814.239
411.007
-195.48
-41.4237
97.6676
-186.134
-231.097
-348.2
-10.9485
632.032
613.243
213.34
242.807
-8.81496
-266.832
-225.071
-58.8468
-14.8338
-186.173
-73.88
-152.053
-75.6429
162.488
-28.5573
-245.527
-604.033
-755.981
-483.576
-125.943
61.8383
275.035
564.312
410.93
56.8042
-127.308
-243.312
-137.118
66.8266
30.6119
-88.7831
-258.878
-31.4891
131.991
136.839
262.878
540.65
297.035
-292.847
-634.363
-384.399
-119.236
415.843
953.456
413.161
-176.604
33.2836
142.314
146.397
163.571
4.51742
-44.5557
248.384
612.91
-13.4671
-541.953
-699.108
-492.17
-114.472
240.113
91.8588
-138.065
-179.347
-472.277
-486.842
-20.5145
200.762
-186.41
-28.4422
160.784
-10.8651
-350.896
-579.639
-647.17
198.23
888.399
933.27
166.745
-226.426
-30.4986
95.4367
367.14
484.977
314.352
243.696
-21.062
-275.322
-97.484
-89.1987
-103.334
89.3648
225.326
88.2438
-25.6622
-122.136
-219.98
-202.637
132.295
300.176
-9.21838
-97.3907
-0.632303
-80.3789
-291.179
-326.618
-17.896
208.189
45.5976
-393.744
-175.269
-159.593
-364.939
-222.899
-179.385
-102.514
65.9462
159.334
299.949
267.942
-24.6114
85.9815
367.11
164.373
74.75
492.337
325.906
-189.878
-147.892
-180.246
-459.48
-160.291
240.377
234.969
248.126
246.945
-33.6701
-197.002
-119.671
63.873
142.462
62.2678
-98.2309
-294.237
-179.469
83.1322
-313.406
-370.327
-92.3697
303.764
207.738
8.9259
-217.106
-530.619
365.728
960.186
427.651
-609.685
-652.64
-211.602
61.3126
174.605
-60.0432
23.0005
-106.209
-545.129
-150.426
-7.16113
-24.7549
75.5684
191.212
591.305
1279.98
1490.46
545.978
-1016.1
-1035.79
-177.398
-157.285
117.835
373.265
186.899
-257.913
-645.237
-461.486
-293.261
173.738
386.731
342.027
271.554
177.5
-155.221
-491.266
-658.582
-811.101
-388.003
115.371
360.187
491.783
145.294
-86.2273
-94.1051
-2.05137
195.969
268.739
302.117
120.337
181.965
94.8724
-225.434
-408.932
-461.09
-472.344
-110.203
-37.3712
-30.8943
51.2589
285.924
542.009
601.266
266.471
31.1229
-1.08178
118.486
27.5535
-164.795
-202.468
-208.364
-17.2988
226.771
309.982
287.824
85.6171
-263.202
-255.014
285.685
734.871
388.506
-357.141
-697.694
-667.068
-680.091
-135.771
372.493
340.892
-137.44
-661.423
-512.779
-100.667
111.287
194.288
169.753
190.252
329.737
103.133
-204.048
-487.078
-91.0563
519.434
334.288
62.1315
56.6662
199.398
182.919
163.577
288.093
257.876
190.03
110.624
65.1913
-31.2479
-139.89
-453.504
-879.015
-627.917
225.195
374.708
-127.164
-437.284
-414.287
27.05
269.613
160.436
61.4524
-114.29
-449.311
-201.391
22.333
205.874
430.168
575.59
402.861
277.468
339.317
263.392
70.9748
-83.5545
-144.295
-22.358
23.6783
-350.922
-245.069
-286.323
-259.221
202.887
439.595
87.9646
-327.287
-561.95
-429.314
-48.7255
54.1126
25.8673
228.928
272.068
53.8557
-111.826
-56.3508
16.9851
36.409
251.125
178.793
53.1109
-125.105
-240.343
45.6795
231.909
175.58
195.586
-42.6962
-126.049
-43.9253
-14.2329
39.739
-67.924
-342.916
-338.678
-75.7977
153.267
289.54
-10.7946
-335.318
-127.792
14.0655
20.9845
65.0778
76.227
312.419
590.406
419.092
-431.017
-687.741
-349.764
-160.629
214.42
586.778
504.684
-148.296
-535.089
-579.569
-346.785
379.735
607.705
71.7074
-200.892
-26.9922
366.488
560.702
204.42
-381.167
-328.882
-154
-18.5121
57.6849
-134.589
-461.324
-374.775
202.639
494.421
467.594
393.737
92.2403
-57.3219
175.357
261.299
54.307
-448.466
-1110.82
-952.195
-43.4756
683.538
588.736
-86.0694
-314.375
-401.246
-229.009
-152.308
-271.882
-96.9467
197.782
532.47
278.183
-146.438
-12.7425
336.302
526.822
367.982
-150.975
101.126
435.82
35.8091
-652.33
-454.569
95.6128
307.862
225.299
215.728
312.837
139.647
-13.3362
-87.459
-72.5682
-85.9754
-236.465
-394.672
-332.174
-24.6754
479.482
132.679
-403.449
-501.436
-20.8967
253.909
126.654
93.674
24.2919
14.6783
-13.5936
-275.302
-498.975
-546.666
-257.872
270.423
776.247
673.44
-57.7751
-411.399
-336.014
-276.274
-95.0313
-5.42244
215.637
297.661
157.566
168.859
36.7485
233.571
237.655
-173.57
-202.235
-111.44
32.9102
-62.3815
-173.382
143.859
442.735
509.342
433.07
272.215
-162.127
-579.091
-339.525
-10.3507
22.7546
39.7192
34.3736
-181.98
-165.719
124.557
289.454
345.377
-193.074
-713.412
-813.524
-434.767
235.342
37.1538
-493.638
-329.378
-123.673
273.33
372.378
324.322
354.189
300.407
289.445
281.914
261.859
266.758
229.181
94.0193
-56.4401
-122.016
-52.2858
-248.731
-259.122
200.24
476.797
-119.843
-210.259
-116.785
-201.818
-359.92
-462.571
-344.24
-85.7509
96.4555
295.027
296.354
-357.361
-420.898
5.24982
449.246
338.375
-53.3317
-85.1405
-94.7945
-22.0086
187.125
209.666
12.7454
4.47024
48.8424
5.90863
-210.782
-286.063
-187.259
-49.5817
244.764
649.156
429.275
203.885
124.134
-218.254
-430.964
-503.938
-192.099
253.307
325.697
114.707
22.7227
-19.7172
-33.9296
-56.9908
-83.4357
-16.146
-46.6284
-329.317
-485.904
-36.0795
587.933
456.272
-294.595
-158.427
68.0314
-88.6948
-127.489
-85.7814
-103.211
17.6249
138.105
20.5399
77.5932
188.877
230.643
271.328
69.6808
-120.588
107.662
42.3294
-366.747
-436.568
-557.312
-669.212
-188.34
430.601
472.883
238.872
249.691
393.373
584.727
654.423
640.097
327.871
-624.556
-854.4
-654.331
-335.844
-277.666
-203.221
-73.4819
34.3304
256.19
334.043
77.5435
-209.618
-68.0187
49.5675
6.31949
42.3884
89.538
-167.208
-322.066
-200.542
266.539
223.127
70.3774
123.43
53.8436
-53.3331
-23.9918
199.083
522.267
235.957
-73.8836
-200.893
-170.814
-94.9662
-87.6253
-206.636
-375.323
-258.068
-203.592
-84.5816
340.278
356.817
202.28
178.748
186.944
-199.599
-272.899
-264.596
-82.6823
386.928
497.072
563.991
107.361
-238.648
-235.587
-265.762
-227.056
-14.4386
110.248
119.215
4.44538
-96.8181
-399.999
-489.618
-396.22
-98.4107
-32.9049
-6.12502
153.052
164.5
-16.8369
-139.6
128.13
253.308
215.415
322.204
192.265
316.272
323.039
276.186
228.989
-22.7345
-216.446
-68.4881
15.114
-86.4628
-386.353
-300.436
-91.5556
57.5318
142.808
20.4862
-131.532
0.0733178
-201.333
-454.271
-294.115
-73.7145
110.961
-7.17111
103.766
135.311
174.879
114.926
-67.7786
34.2573
213.17
235.224
124.204
-27.893
-86.654
-83.0808
-55.6313
-182.547
-52.6277
223.349
356.872
104.125
-479.755
-628.791
-405.051
89.0169
566.632
238.251
-77.1876
54.5677
192.181
32.1389
-65.653
22.6312
-91.6718
-164.703
-57.2979
181.156
375.275
384.889
225.206
-187.022
-438.229
-356.596
-302.185
-101.154
-131.629
-197.814
330.432
845.58
395.276
1.3267
-413.74
-245.565
172.242
324.984
218.395
-314.973
-450.204
-382.632
-355.837
-242.147
-29.7349
260.139
470.526
348.317
295.229
191.841
-195.741
-523.019
-170.811
124.847
235.829
6.81407
-310.067
-351.856
53.8696
520.216
395.061
-99.654
-220.849
-19.5751
219.623
157.666
-137.457
-208.349
-71.7285
64.2686
-47.6745
-278.082
-151.844
-129.369
-170.379
-73.8731
308.153
343.842
-124.331
-188.753
-33.1976
75.8903
69.2775
117.946
160.404
-57.2647
-170.938
16.9843
69.8829
136.05
247.476
303.232
194.167
39.9669
38.57
-5.41028
-201.858
-218.479
-268.72
-513.988
-521.613
-52.5859
465.026
718.434
463.228
-149.334
-177.466
2.00956
262.311
167.367
-149.244
32.4423
-40.0638
-693.42
-654.305
-329.885
7.07572
35.3311
217.27
751.44
678.174
-41.9905
-319.63
-480.121
-410.619
86.944
386.24
193.796
-1.13332
47.2298
121.065
-196.145
-215.051
269.526
461.456
235.164
-86.9282
-300.29
-419.885
-170.807
-26.8887
111.62
124.287
125.622
85.5977
-21.8561
-238.314
-323.203
-301.747
-71.8329
170.645
144.814
-66.9678
-180.917
103.331
359.209
278.682
292.136
270.204
-101.876
-135.353
46.5003
-87.6063
-241.874
-91.1109
216.285
218.981
-0.459938
-227.616
-184.354
-137.032
-152.538
-46.8025
573.209
611.027
62.5848
-23.1649
6.62412
-456.347
-659.854
-378.769
-169.167
-61.2159
26.9608
93.3212
-55.2137
-110.447
6.60697
101.671
218.997
324.388
362.993
420.321
248.683
-255.346
-365.954
-421.895
-318.561
260.75
309.605
-144.59
-79.4339
-61.9289
-75.7552
53.654
252.836
246.433
207.623
149.482
-74.3564
-212.011
-241.245
-230.479
-75.1727
176.188
222.856
77.8743
-27.0992
51.454
333.896
287.208
-152.226
-250.853
-230.588
-205.135
-182.87
-64.7904
102.77
286.065
61.8576
-421.674
-406.469
161.911
177.645
-231.448
-318.358
11.8998
185.557
224.894
72.0846
145.882
210.608
112.582
22.4702
17.3457
90.908
8.93992
-103.87
-195.063
-176.406
-79.4213
45.5531
-23.8023
-60.2791
531.07
674.315
418.605
-140.314
-497.203
-474.007
-251.262
-132.336
-182.05
-367.837
-307.633
12.5924
104.191
3.25573
13.6865
86.6643
295.243
279.451
281.419
443.864
570.148
192.532
-508.521
-454.735
-150.632
-65.3416
-78.4722
-51.2479
-17.2416
85.3619
81.1662
-8.44248
35.1789
119.453
203.897
257.484
223.397
-287.033
-779.209
-699.598
-252.368
219.514
255.533
-97.162
-69.7546
51.7011
191.396
276.92
358.955
384.923
116.522
-153.314
-165.284
-82.849
-267.825
-275.012
-59.0163
284.361
349.928
149.267
-308.607
-386.42
59.679
510.883
460.179
208.338
-20.815
-169.318
-311.8
-172.297
-20.1221
-127.92
-206.881
-147.429
63.6044
108.701
-102.385
-153.971
-151.86
-232.636
-181.708
24.9654
261.307
471.313
116.489
-34.5296
288.867
135.685
-456.8
-295.141
65.4551
126.461
-53.399
-120.44
-68.5404
-0.277663
112.403
276.237
302.523
138.464
-40.3205
13.5253
-113.562
-113.168
157.283
17.7549
-434.244
-406.786
268.804
368.133
396.066
423.496
242.589
25.6768
-167.314
-151.196
-39.6241
-292.962
-285.803
91.2244
263.443
201.68
-556.758
-1007.83
-796.356
-460.293
26.9184
306.457
378.798
224.867
40.0272
107.869
223.555
191.176
173.012
207.691
252.705
281.032
141.536
-146.19
-385.164
-457.487
182.041
537.991
289.024
224.276
121.729
125.536
128.111
16.9966
-144.05
-256.675
-265.629
-164.175
-101.612
-75.7419
-144.933
-161.04
-127.32
-11.7683
-116.564
-445.152
-113.776
287.212
176.782
19.026
1.48246
111.294
206.033
165.69
41.5812
77.3033
136.487
6.37142
-2.65555
-95.4905
-519.069
-525.354
-141.1
93.6733
279.131
573.22
535.453
198.85
113.595
63.4536
-40.304
-74.6443
-227.77
-589.133
-632.315
-192.048
140.987
299.197
276.674
300.482
372.394
65.4578
-289.784
-263.288
-163.458
-107.108
-75.7719
-70.4414
86.122
301.91
235.068
-142.458
-301.882
62.8894
326.272
48.2825
-222.043
-88.088
103.238
114.969
100.072
-187.899
-406.947
-86.2455
227.548
275.261
102.301
28.3777
28.8506
-54.5171
-65.6592
97.2829
199.221
209.814
39.3954
-201.425
-141.256
-147.222
-382.66
-497.373
-81.9552
448.891
560.92
257.645
-136.203
-359.621
-282.827
-36.4185
73.5407
35.4952
-104.477
-77.9555
-0.94827
-4.25439
49.6863
104.754
155.665
68.1308
68.1852
99.143
66.331
315.679
575.127
127.735
-410.962
-371.281
-386.256
-405.932
-24.2977
244.044
312.795
302.923
230.489
-120.317
-389.59
-434.421
-152.955
89.3277
110.874
75.533
-4.93801
-47.4003
-125.841
-110.286
80.5701
115.279
137.726
106.327
0.277088
-87.5152
5.54915
161.689
40.1498
-209.918
-179.517
162.88
253.45
101.643
-3.71002
-81.3457
-197.876
-161.598
8.11498
204.492
132.804
-39.6535
-1.1703
-106.27
-175.409
-91.5259
-97.8895
-152.306
9.4317
345.006
519.418
150.167
-162.417
-262.096
-161.101
-76.0468
78.5339
178.426
70.9156
-61.5862
-3.60827
-28.9882
-61.5593
118.202
179.615
197.502
207.032
122.595
-339.582
-376.125
-288.213
-320.662
-248.102
-100.566
33.2738
171.721
169.653
42.9554
1.22546
3.49278
96.3649
128.081
91.7555
176.652
197.561
135.333
-13.8277
-179.648
-59.9576
-16.9034
45.8773
372.684
264.51
-226.852
-376.031
-312.087
-120.129
15.3028
91.3827
147.704
160.758
194.955
59.7093
-258.862
-355.878
-186.267
-17.2511
14.4421
52.2965
131.547
8.7816
-134.581
-163.824
175.135
246.851
-132.619
-450.152
-255.193
34.4651
304.551
394.725
373.571
213.806
-42.203
23.7372
-74.3202
-230.046
-181.604
50.9005
151.675
157.877
142.537
101.811
-27.8209
-170.995
46.8128
169.713
13.423
-231.203
-489.809
-451.029
-246.382
55.5843
315.799
298.52
-151.861
-267.333
-194.927
-81.6272
38.2017
78.3163
155.743
302.069
354.738
189.658
108.051
290.171
343.966
350.486
4.14086
-708.512
-770.046
-375.101
-155.128
-210.077
-0.13655
219.927
388.987
352.998
266.488
171.59
-4.47439
-43.3405
13.2497
170.124
177.985
-134.5
-592.469
-407.875
-55.3013
418.202
538.022
383.954
-46.7337
-622.25
-395.483
-186.23
-162.852
-262.473
-340.612
-206.972
-21.7653
-38.299
-125.777
-107.776
119.857
360.792
538.509
328.609
198.084
142.785
69.8305
-34.4498
84.7557
300.349
221.891
168.368
137.054
42.4511
-188.031
-210.319
-87.3871
-81.0155
-51.2808
-18.5223
-62.8178
-108.99
-174.988
-377.755
-339.113
-201.356
-164.359
-96.2872
131.429
291.29
309.816
393.163
314.537
-98.9305
-174.012
-287.071
-260.073
-201.312
-108.527
32.4749
69.4907
102.505
280.42
220.79
-84.6046
-151.542
49.5218
138.556
214.057
513.868
506.222
-35.0389
-757.162
-449.828
-53.3633
271.559
210.947
16.3656
-113.471
-155.393
-154.633
-117.822
-99.2056
73.4211
263.606
212.112
-27.4649
-278.293
-426.326
-504.374
-395.82
48.5366
666.515
675.42
51.8969
-133.38
-108.688
-50.0867
-101.018
10.2847
284.626
486.264
296.2
-116.76
-314.343
-361.087
23.0886
405.882
189.569
-316.604
-321.193
-342.405
-358.229
-105.961
374.474
342.837
80.6742
80.1016
222.019
145.935
-72.6712
-286.235
-349.306
-151.902
31.5295
169.49
210.904
453
209.735
-91.0932
-482.545
-440.628
-44.7932
321.307
346.443
105.009
-101.324
-83.7282
62.7177
-332.72
-366.745
-138.585
202.857
129.896
-31.5692
-73.1696
-124.537
-95.4312
271.271
156.171
253.654
322.867
246.14
-41.0451
-434.6
-461.03
-63.0096
32.3881
-102.638
43.7052
80.737
-60.5823
-13.0937
265.935
247.726
173.595
-78.9845
-403.576
-262.594
311.411
477.967
275.51
52.335
-168.817
-47.202
52.5539
-62.7513
-137.496
-128.273
34.153
133.512
56.7234
-251.545
-203.788
158.568
328.874
-55.3427
-424.354
-429.353
-376.66
-351.632
-33.1538
90.9324
187.008
302.304
346.838
280.163
74.6294
-146.395
-62.9973
-92.5119
-106.285
2.5285
1.86144
18.3571
58.3967
184.757
213.146
75.7236
73.4322
-66.2829
-230.218
-30.8247
155.712
179.404
157.708
153.814
144.93
67.2091
-97.3335
-125.356
-140.95
-171.013
-270.542
-110.149
5.82808
148.406
181.638
131.758
-161.75
-521.829
-252.916
82.8445
-146.156
-465.791
-35.4006
149.01
124.746
233.576
270.909
17.3588
9.90753
153.887
309.321
179.362
96.2369
-104.771
-247.574
-68.0851
200.042
486.394
275.316
-198.281
-218.176
55.9319
-90.6319
-187.735
-78.0971
9.9782
-51.9701
-53.0079
-68.6977
-108.263
-122.911
34.299
-57.6858
-292.093
-292.205
-222.58
-180.449
-11.1345
39.5215
89.1719
310.418
533.617
416.821
221.408
34.7495
179.413
171.378
-148.497
-252.595
-206.345
-143.893
-191.052
-191.569
-48.3551
58
35.6918
150.158
229.793
126.731
-1.14593
-100.007
-270.469
-278.084
138.115
556.899
574.939
64.6207
-249.571
-245.274
-447.02
-429.391
-446.833
-226.292
137.815
345.384
367.145
313.362
304.08
147.007
-49.3105
-104.939
-18.716
2.97575
-136.598
-258.669
-361.715
-121.804
245.923
310.489
279.279
147.199
114.849
113.761
184.404
67.7917
-406.297
-506.915
-273.587
-148.809
-82.5054
38.615
132.938
-28.3867
-183.595
-197.462
-45.837
296.877
328.465
8.94414
-95.5662
-183.992
-125.423
-12.9725
2.23366
14.1522
211.907
109.016
-159.506
118.447
447.274
424.879
304.373
208.197
-51.5222
-195.753
-275.774
-278.438
-190.76
-38.17
119.561
196.938
153.667
32.0302
-164.913
-272.854
-139.756
43.5028
176.199
33.435
-185.42
-292.833
-286.709
-100.131
154.146
517.048
2.18873
-853.802
-711.747
-339.475
33.9917
436.784
516.839
260.137
362.748
304.622
34.833
134.735
293.779
116.46
-12.798
0.751337
73.8857
-56.3819
-154.592
-344.227
-207.166
215.357
214.198
161.678
201.509
204.355
121.386
-118.755
-242.401
-84.3051
66.1738
76.8537
-404.001
-676.087
-509.971
-308.873
-215.88
-202.429
-145.658
22.5341
304.005
563.124
497.35
362.704
189.598
-91.8596
-127.401
60.3543
-108.48
-277.007
-60.9421
6.51358
179.043
427.251
297.003
53.496
-14.0402
89.3986
128.42
-39.3634
-127.089
-80.3241
-168.716
-225.399
-273.723
-429.564
-411.686
103.045
339.401
333.869
166.782
-79.7525
-73.1524
37.7459
152.858
244.267
285.048
102.524
-88.5534
-174.148
-100.618
-241.88
54.9662
366.944
440.653
-43.0901
-1121.99
-1223.86
-455.268
21.2133
283.703
450.293
400.17
261.879
172.412
129.078
30.3215
107.366
324.392
297.528
22.5824
-38.1929
-55.305
-162.827
-208.334
119.929
660.338
495.7
16.7431
-313.203
-420.896
-309.809
-98.0536
2.07811
-6.53037
-123.126
-362.182
-401.147
-155.79
11.881
94.6122
115.953
-23.8551
-110.58
-48.2876
51.3219
260.84
394.601
246.878
-180.403
-245.425
-75.3208
11.9967
15.9093
64.4815
118.131
164.378
128.83
-61.9985
-213.885
-112.214
94.0449
183.162
161.86
37.6268
172.963
287.234
-93.3117
-420.537
-90.2725
115.437
-12.607
-147.55
-111.025
-214.802
-243.687
-31.8904
91.3525
-2.824
-21.715
13.5838
77.9582
95.9956
103.472
69.2742
-39.9273
27.7689
411.906
871.887
679.655
-685.972
-965.777
-579.215
-426.633
-0.0862973
305.487
151.545
48.053
101.97
147.984
-58.5166
-165.739
19.2183
-18.6457
-295.152
-223.982
42.8837
23.3732
-129.747
18.9346
667.063
602.65
233.595
46.1135
-165.181
-195.146
-137.091
-77.0607
-31.2777
-45.8772
91.4697
185.742
-44.3862
-252.128
-168.75
-40.7701
45.4809
16.5412
-29.4177
65.7968
254.107
324.599
238.251
105.236
-92.6353
-210.806
-223.171
-256.748
-280.092
-241.561
-207.949
87.3222
275.609
-1.60961
-326.995
-229.245
-237.255
-129.082
11.322
106.17
269.79
278.753
184.052
133.753
88.4705
53.7906
112.136
116.105
29.6756
34.3609
72.1491
-106.083
9.10269
334.163
452.217
217.652
35.7859
-169.043
-305.348
-157.888
-21.9068
-257.449
-375.221
-260.648
-87.9721
56.0937
187.102
226.161
113.925
-275.753
-363.832
-191.093
-220.252
-59.0982
282.293
213.404
-63.6241
54.8858
95.2901
-116.836
-230.209
13.1375
132.061
155.06
158.349
194.611
169.13
-0.77597
-62.6327
125.68
188.448
90.1853
37.7038
140.019
100.757
-22.5416
141.911
2.71812
-328.739
-294.142
-77.2123
67.355
266.344
377.833
-90.4395
-581.058
-582.717
-283.513
-55.1652
43.6762
92.3918
70.711
-111.824
-261.342
-109.203
20.0924
134.537
200.272
196.417
127.297
128.512
37.7298
-70.3202
-143.896
83.2658
206.904
51.529
-57.2693
-28.8481
61.7222
230.741
325.116
167.595
-47.2974
-170.031
-60.1931
-40.5683
-64.2262
80.9079
147.11
283.101
-103.991
-622.605
-382.448
150.7
353.383
-421.464
-496.228
-237.905
72.2574
173.562
-12.7045
82.989
255.599
475.633
371.661
152.513
-72.1954
-178.393
-210.854
-268.152
-59.612
139.355
-19.6147
-231.157
-206.885
160.744
163.768
442.415
506.168
176.802
-123.634
-220.503
-175.265
-288.619
-224.947
-170.629
-183.363
-92.2784
-65.027
-126.083
-79.1175
75.3585
42.5381
-47.5257
3.01983
306.745
335.712
54.176
-94.2244
-49.0626
76.0849
93.4242
16.7936
-85.8016
-143.733
-85.3588
46.7971
115.863
12.921
0.320951
216.037
344.727
208.523
113.135
16.1724
26.4998
-8.20942
-220.493
-363.199
-243.08
-212.456
-122.502
318.885
451.152
135.252
-139.717
-383.877
-336.162
-122.207
-40.1677
-13.9273
146.801
240.574
316.986
12.0201
-371.869
-533.688
-332.11
157.209
235.869
94.2444
-40.1718
-261.705
-178.566
388.105
533.848
338.724
247.018
30.3528
-17.9781
-45.1529
-58.0659
-106.962
-242.948
-161.216
162.73
355.067
325.351
174.392
-145.941
-463.387
-202.162
-71.0929
-138.191
-244.576
-193.686
-37.9352
-124.401
113.696
378.326
280.263
48.3527
-50.324
-52.8977
-60.321
49.895
62.8864
-26.966
-138.62
-3.64775
217.591
74.8314
-90.5819
-153.882
-86.0661
48.2818
62.1459
-191.621
-135.016
-106.702
134.597
166.905
-267.099
-219.472
17.3133
116.359
187.006
18.4407
-295.264
-212.894
167.67
379.808
430.142
461.627
256.773
-15.7286
-15.2268
170.644
50.7837
-197.535
-370.196
-346.809
22.7036
138.532
24.503
-119.937
-136.853
-104.441
-51.157
100.242
232.938
105.992
-226.889
-512.558
-660.443
-188.28
82.0756
98.8918
-132.624
-225.739
-62.2868
94.1152
285.836
258.138
250.394
310.448
336.257
329.382
249.537
90.5141
4.51973
-27.7974
38.7044
56.6917
39.4947
-88.167
-61.5583
84.0027
299.075
145.446
-147.953
-201.248
-329.515
-460.742
-352.943
-117.074
-109.433
-88.3951
-25.4314
128.764
241.635
-20.665
-238.393
-65.3935
204.869
303.335
91.8853
-336.892
-827.237
-377.837
41.6934
171.261
263.049
302.082
347.36
271.569
196.365
132.173
106.046
2.34021
-131.874
-78.6167
41.1575
49.5275
15.3621
-137.363
-59.6113
118.131
440.67
415.04
113.757
-191.104
-199.861
-163.319
-80.1781
-70.6491
-133.411
-228.958
-204.001
-180.452
-246.782
-232.731
-88.7768
-63.7878
3.84385
25.1022
73.2518
263.478
362.327
240.437
235.32
199.395
96.9048
-50.1843
-51.0845
-35.2944
-105.694
-278.975
-53.9448
18.416
-58.0765
-37.4198
-53.456
-42.6561
-158.674
-280.931
-113.038
96.6937
150.057
66.5364
25.0986
61.7397
123.331
200.915
47.7249
21.217
179.307
211.283
-15.1412
42.1268
141.202
88.9706
66.2868
83.2609
92.4875
-46.5778
-129.753
-275.258
-404.76
-425.888
-329.308
-217.198
-120.941
58.8574
158.877
167.626
212.021
363.195
503.63
204.343
-262.125
-380.056
-488.876
-334.198
-82.6549
181.836
261.713
243.681
181.082
91.4286
36.8841
112.475
116.307
-44.8367
-144.625
-142.318
-198.355
-132.956
-237.651
-235.338
204.336
572.259
588.785
136.145
-9.93408
-292.183
-337.459
-150.963
15.1808
148.957
452.145
547.082
125.179
-238.762
-227.279
-109.829
-45.6595
-254.545
-403.433
-376.64
-397.956
-180.429
-82.6074
3.99585
31.7196
305.255
416.295
373.146
196.976
-22.3041
-254.631
-430.668
-230.413
24.6482
46.4868
57.0121
131.126
132.859
-26.223
207.02
524.394
150.415
65.5713
151.667
40.1274
135.417
40.0323
-210.59
-273.3
-274.485
-226.141
-210.633
-144.426
-14.7306
97.8837
50.1874
-3.54631
78.537
179.998
71.0596
-89.2183
-59.8305
21.001
145.456
280.001
189.931
-270.998
-343.784
-119.883
-8.73753
-70.162
-62.3895
-10.0352
67.2775
36.7649
-9.08763
3.2386
94.4047
136.116
30.2075
-54.0809
-29.2504
-0.833919
-14.2387
-83.8566
-122.073
59.9876
87.1049
120.529
153.449
-35.2033
-72.7518
0.559409
23.8392
39.0184
-12.9219
-182.895
-127.858
50.9239
192.69
320.457
401.087
116.823
-382.319
-409.971
-251.892
-68.789
59.562
58.0267
9.67375
30.269
-28.8018
64.6307
293.077
326.718
-88.5655
-682.898
-612.312
-205.229
-94.7391
-82.8497
3.58647
193.652
307.595
324.185
287.382
251.176
234.457
-35.3924
-157.808
-36.8477
70.5905
34.2606
-129.295
-192.362
171.161
630.113
253.112
-342.389
-250.923
-144.441
-188.835
-145.865
-3.09183
79.5608
86.065
236.493
403.297
388.805
-76.4777
-397.908
-391.663
-241.626
-117.105
-183.928
-294.066
-235.012
38.7583
181.094
90.2973
47.0728
65.0459
75.7862
78.9518
-103.947
-246.296
-248.31
-244.864
-72.1946
276.078
458.875
430.133
281.135
37.2371
-50.7513
27.2326
79.0224
35.8299
-45.5034
-90.6017
22.3829
-43.5464
-163.003
8.11037
97.2565
58.35
-27.2498
-101.727
-92.3919
25.018
58.9363
-100.089
-303.26
-178.501
110.938
320.361
272.183
-6.28201
-239.31
-44.3859
-31.9309
-43.5622
64.5176
18.8937
-96.1091
-167.571
-85.7135
-20.335
52.3453
223.788
257.458
138.873
76.1654
-19.6122
-97.107
-6.7823
93.9176
33.3983
20.6343
-38.3118
-370.619
-306.058
-92.2814
129.818
208.625
51.5936
-101.092
-99.1675
-69.4307
-111.293
-88.5174
51.0885
62.8318
11.3262
15.0007
-9.13713
43.1094
201.536
307.322
257.075
316.85
247.3
-250.782
-509.748
-294.684
-52.0425
49.5353
-0.225291
-78.1955
-82.0024
-49.308
23.2751
95.7183
41.2216
-26.8437
-106.652
-84.5818
108.398
261.819
160.854
121.603
55.424
138.844
46.6664
-171.97
-126.102
-72.7589
37.215
62.3337
25.3527
101.475
-165.958
-378.023
-314.853
-210.167
-107.824
-36.7727
33.3288
83.8392
-155.468
-341.425
48.0538
343.349
430.189
400.677
220.715
143.622
118.214
68.0776
-20.6584
-152.44
-4.09171
176.648
153.542
-41.3808
-228.27
-287.951
-120.814
38.1939
142.064
258.376
-190.651
-317.982
-257.373
-177.86
-1.12331
22.863
-57.1569
-76.6046
19.8429
65.0592
129.351
176.136
137.648
166.971
124.746
33.9705
-83.8215
-200.178
-230.759
-82.0721
149.541
47.6375
-114.28
-74.735
-114.972
-160.537
-46.0178
269.706
359.604
308.594
-86.8587
-245.27
-86.9909
-4.62465
48.1894
98.8531
64.1123
45.1561
89.6867
112.408
52.7774
-47.9578
-107.509
-34.8511
36.4251
25.0486
-15.7626
-154.449
-237.419
-197.813
12.3053
32.1287
92.776
246.239
196.761
-26.3958
-166.557
-199.728
-131.865
-105.987
-76.0525
144.799
235.369
10.5033
-24.1747
87.3022
1.05701
53.8086
81.0062
-98.1382
-132.461
16.899
2.30533
-60.1313
-69.9611
-103.876
138.957
168.513
-37.6959
-191.598
-247.027
-112.025
93.4414
142.214
125.128
90.5875
191.26
146.385
181.645
-11.8661
-212.479
-167.677
-154.407
-52.326
14.8066
283.678
381.873
346.291
-278.649
-383.726
-151.944
-15.502
77.4251
102.948
15.7394
-56.4007
-152.775
-250.642
-84.9948
210.456
111.725
-317.434
-127.986
-10.7531
154.12
182.547
-69.0247
-310.771
123.29
335.954
218.688
136.328
105.694
48.3691
-5.77887
-67.6565
-95.3753
-118.437
-240.562
-114.613
300.798
440.204
-6.01829
-260.821
-251.856
-269.954
-301.881
-104.155
182.005
239.216
178.603
126.884
113.504
25.9243
-0.5851
43.6374
-133.58
-272.2
-171.766
-107.185
-38.4953
93.5882
23.158
57.4228
27.5802
46.6769
121.4
123.904
86.1799
-22.3376
-95.869
-120.256
-65.2758
81.299
128.838
86.8422
36.1456
-11.7581
-224.429
-203.406
47.0736
166.54
213.618
91.1015
79.6871
204.973
-64.314
-132.594
143.706
108.164
-50.7222
-171.431
-277.552
-226.43
-83.5043
95.0396
274.597
264.857
9.84378
-160.078
-549.516
-462.687
-30.1136
118.664
45.6736
35.3418
291.844
402.395
-105.204
-219.275
82.9872
206.907
156.065
74.8156
-333.113
-389.745
-126.432
20.339
-116.224
59.0362
473.919
401.495
4.41074
-32.105
108.6
30.9243
-116.64
-130.031
43.9738
115.798
23.3753
-95.3688
-117.404
-77.7118
156.137
124.396
-72.7065
-83.0119
96.6535
12.613
-0.428371
47.454
49.7994
-79.3655
-205.892
-28.2174
125.34
-9.20998
-89.6786
-135.808
-173.084
-135.409
-124.096
-117.602
-56.3732
-37.6698
4.46107
81.9242
218.513
167.279
-32.1564
-40.509
82.6744
115.394
79.303
49.7275
115.757
79.5344
52.7014
-58.1076
-87.6874
-37.0233
27.3633
-7.92734
3.64096
0.696144
-2.00662
12.7012
-45.3415
-148.629
-191.029
-71.0447
103.655
341.332
375.409
96.3737
-483.779
-469.001
-98.4816
260.301
361.314
177.747
-298.581
-199.572
-28.1823
6.2107
-12.7331
-2.92113
129.183
229.7
331.891
235.663
-43.5062
-262.8
-360.425
-295.481
100.33
76.0627
-89.0077
-42.0043
-147.682
-73.5962
225.576
190.427
28.1013
-16.2486
27.3869
25.3817
28.7597
-30.8899
-93.4338
-160.535
-145.893
-92.7439
9.75396
99.6012
121.702
143.804
89.1775
-43.1206
-38.02
69.9855
186.03
136.091
73.0199
-50.2823
-182.829
-118.422
-64.0327
-60.0941
-34.0256
12.7575
58.8535
18.6794
-12.0757
-49.2063
-55.1751
-13.4234
29.0497
-17.3644
135.579
345.123
401.431
-231.615
-787.345
-428.309
-35.889
101.548
153.095
202.027
198.187
141.646
217.289
148.218
-55.0191
-314.041
-158.868
11.3149
79.4244
50.9481
-74.7238
-246.711
-327.145
-43.2113
357.423
382.534
423.897
379.225
135.421
-534.744
-561.036
-99.6249
-11.1548
-139.71
-68.7768
107.512
154.347
14.5876
-180.989
-55.3727
-9.68858
0.570744
-13.1815
148.406
253.042
124.272
-64.611
-170.872
-79.3418
295.403
318.392
-34.9083
-222.929
-84.189
104.693
131.988
-178.946
-317.839
-11.8056
60.3104
72.0249
168.658
294.619
417.192
282.674
-212.444
-634.43
-719.176
-433.62
-159.052
-98.3998
25.4597
128.476
111.919
42.5986
-11.5324
83.176
335.261
313.94
226.325
119.59
-114.033
-207.492
-149.366
-16.3154
158.487
255.815
267.21
162.878
192.958
175.609
36.8688
-69.5415
-134.695
-232.21
-124.208
80.8554
61.4237
-159.413
-337.869
-333.151
-240.895
-185.568
-106.824
-17.9227
113.42
197.205
195.364
141.758
46.2455
-199.522
-155.893
34.1989
100.782
94.9872
139.486
-36.9002
-32.1613
-63.4605
-49.2165
21.9205
57.8548
36.7404
-10.5745
-29.6851
126.59
328.349
359.594
-117.046
-321.533
-2.27015
78.9497
-49.1501
-185.012
-194.421
-195.785
-236.476
-157.385
89.4903
210.951
215.367
246.142
375.444
403.089
170.806
-115.602
-460.246
-625.008
-297.16
-106.752
-110.937
-62.736
152.089
329.587
330.704
197.093
324.975
282.218
113.638
-3.80141
-99.0696
-154.542
-229.041
-322.261
-199.35
-128.16
-37.7741
55.1034
98.454
152.6
153.683
62.4666
-116.956
-169.158
-158.219
-134.879
-93.0021
-67.4774
115.991
211.843
-7.21533
-181.163
-260.202
-235.195
-220.943
-220.512
17.2078
223.857
333.63
338.843
337.071
346.195
162.548
1.13054
4.08172
67.8549
-24.5047
-86.0998
-83.7017
-71.8583
-41.0335
-258
-129.627
9.42654
169.589
332.242
370.745
259.556
163.227
-286.313
-602.958
-402.651
-143.626
99.1983
75.1211
-107.771
-118.692
-95.8023
-128.441
-98.4054
72.0957
281.745
237.682
161.924
184.368
240.516
-257.876
-551.748
-607.163
-184.177
292.544
219.685
99.2016
53.7618
153.23
253.698
236.331
133.946
-72.8027
-122.506
17.9475
124.018
24.6659
-73.3496
-91.2329
-126.672
114.133
398.428
334.296
140.216
-408.886
-476.998
-325.577
-143.634
-81.4785
-27.1776
-106.829
-134.864
-60.8935
-103.978
-172.793
-45.1406
106.651
200.993
174.146
155.511
185.886
31.1393
37.1279
186.344
272.328
137.979
183.242
118.225
-81.8716
-277.297
-123.149
-31.6924
157.533
271.823
190.113
-52.3938
-224.291
-210.461
-181.884
-188.975
-26.2447
71.2065
170.515
-180.696
-386.328
-79.0236
78.5418
70.4266
79.357
84.6175
-29.4238
-51.3725
-148.861
-282.567
-223.691
118.545
286.08
276.546
265.993
-179.128
-410.483
-295.227
-120.173
223.808
472.677
272.547
46.0824
-91.6402
-92.1941
46.7677
239.288
259.075
65.7082
7.129
83.2513
-18.7374
-81.2675
-113.251
-194.867
-27.1892
112.235
173.898
90.8464
-132.523
-99.8712
-47.7004
-168.524
-171.293
-94.0262
-37.028
-54.7729
-13.7746
86.7365
138.207
-21.1822
-186.651
-193.965
-240.668
-205.554
48.7264
63.2272
-60.7892
4.41617
264.564
222.58
4.34451
103.932
235.992
176.321
104.804
15.9681
-27.5925
52.4182
168.218
270.303
-84.7858
-153.489
43.021
-75.2861
-454.944
-555.812
-205.469
5.5851
428.245
618.971
128.145
-216.112
10.1927
194.478
174.015
-183.15
-335.926
-328.179
-265.277
-202.421
63.9763
163.187
97.2668
235.108
266.313
203.587
82.1241
-76.5388
-276.437
-339.657
-28.4854
92.2785
-87.6466
-22.9985
158.27
171.936
-111.781
-218.723
-31.1955
81.4197
191.195
149.493
14.9318
-97.1597
-16.674
114.414
70.8072
-4.56299
-63.7073
-80.1081
42.1128
157.065
101.006
-61.4391
-294.664
-127.05
103.604
75.1673
-63.3593
-90.4247
11.4213
-29.3588
-7.96659
87.0522
315.758
252.35
-108.221
-208.191
-241.878
-155.596
-62.9787
-78.2813
-109.779
-55.8909
117.442
139.116
33.888
162.463
170.481
53.9345
2.54488
102.133
44.4469
-122.133
-221.648
-67.7052
60.5419
48.031
36.8856
51.522
26.4446
0.719683
-58.9671
-101.142
-64.5205
56.2376
270.58
201.67
-61.4303
-136.564
70.8612
-266.417
-418.965
-184.85
-16.5072
38.2617
155.953
214.057
191.347
226.572
191.769
59.3967
12.5075
-11.639
-244.537
-333.847
-148.723
80.4795
170.471
0.773006
-370.185
-237.272
173.409
213.852
73.074
73.8911
-138.39
-241.977
-106.938
107.77
201.4
255.228
194.77
53.95
64.6904
139.874
228.952
122.746
-279.51
-391.217
-79.9784
-19.6662
6.92787
134.084
194.032
41.2421
105.933
229.252
117.835
-280.585
-491.326
-658.77
-562.667
-340.365
-93.6473
151.208
155.368
131.628
248.839
331.962
311.496
366.403
127.344
-57.4462
16.5687
-18.6245
-16.4775
17.8163
18.0901
114.597
187.18
377.779
494.201
262.672
-408.361
-711.698
-531.221
-420.405
-231.465
-29.7953
91.3898
181.052
171.813
120.551
58.3456
27.4327
-2.95195
-75.1075
-89.0836
-12.8878
-16.76
-98.7307
-222.427
-112.644
256.196
383.876
227.31
130.284
156.979
213.819
56.5053
-130.696
-292.664
-391.236
-381.182
-151.848
125.496
134.907
-128.536
-302.631
-93.2786
116.943
173.589
319.236
563.935
487.235
-125.926
-320.636
-132.361
-169.392
-157.768
-113.21
-4.5022
146.671
190.531
69.646
-90.2477
-8.29374
124.977
-22.3721
-59.1072
-128.86
-96.8766
-82.4682
-102.802
-103.223
98.3154
233.181
-21.2583
-249.196
-79.756
205.584
227.76
153.123
108.033
53.4318
-11.2085
-148.733
-161.006
41.8129
-13.0692
-57.2949
-55.3052
-87.5239
-101.379
-96.3186
-20.9369
-47.5884
64.1263
274.404
212.505
9.9504
-41.804
-15.7441
-30.8793
-2.9407
75.5115
167.196
172.19
-239.896
-305.272
-36.213
143.27
8.16913
-270.77
-195.5
-9.86908
-9.50163
30.2056
113.97
39.0626
62.2314
125.181
74.2254
-30.3105
-63.2444
-137.24
-39.2639
142.956
326.184
138.369
52.0043
-45.2156
-140.903
-124.091
26.1732
123.214
-48.5096
-221.54
112.538
116.551
15.3579
-109.754
24.7108
285.525
213.096
-405.058
-783.637
-670.32
-188.374
118.157
-22.5621
-81.3905
200.298
583.926
595.684
468.013
403.569
321.328
-23.64
-194.847
-207.533
-131.5
-166.253
-220.15
-178.196
101.622
206.072
126.48
69.2218
34.3898
77.9659
-105.963
-303.624
-358.684
-346.023
-352.308
-215.077
-27.9826
-31.753
17.2269
-14.6935
-35.6248
91.8066
185.029
197.293
360.249
367.448
263.586
139.983
93.8221
104.378
140.206
39.6726
80.7362
85.727
-404.927
-495.58
-221.52
-30.4506
28.177
72.1844
98.1357
-7.14906
-132.772
-164.2
-72.4479
-191.041
-216.787
-15.4312
113.51
77.0075
88.2699
128.581
-52.5469
-142.044
249.474
320.137
141.658
40.8538
101.358
153.442
136.357
33.6856
-121.748
-207.991
-193.163
2.78852
134.504
49.7818
-7.8461
1.70115
-48.5666
-74.9611
-83.4222
-104.224
-114.079
-57.2389
-11.3967
-17.3114
-36.7497
-197.42
-275.324
-1.00115
240.226
-73.2233
-138.64
-34.101
14.4476
43.3702
54.2232
129.044
178.194
219.024
272.13
251.126
110.57
-5.52741
14.3581
-49.1228
-367.157
-177.264
-127.471
-441.45
-347.952
12.5435
317.011
423.215
429.133
480.299
473.354
267.868
-187.835
-516.923
-496.573
-365.279
-128.127
-30.3654
-130.84
-70.1158
