97.7791
21.7444
-56.967
-43.07
-38.2148
-5.06944
18.7837
18.5124
40.436
63.1914
-22.3565
-38.952
-31.1221
-2.3637
5.09209
1.96044
-5.55897
12.296
89.8902
-33.4054
-101.194
-12.6418
44.7749
35.0667
21.0115
21.1111
51.66
89.4705
42.4106
-95.3337
-53.9234
-35.0385
-34.5538
-15.8982
-9.05431
27.0995
85.132
-31.9086
-127.286
-47.747
-26.9159
8.47178
31.7326
37.915
73.6929
3.11494
-17.1188
-27.6999
-30.9361
23.4309
48.0743
61.5946
110.386
-9.08139
-73.0647
-68.6037
-86.8823
-29.4851
3.1183
20.434
65.5146
102.031
-18.8359
-44.9407
-50.85
-5.81994
5.84999
-8.73363
-12.8595
59.7099
60.7351
-56.6294
-82.541
-5.26811
26.5161
1.32972
-16.9246
54.7976
30.4718
-27.1307
-46.712
-48.3205
22.9481
37.6965
16.0533
71.8012
47.6349
-37.6055
-29.7283
-39.3047
-24.5023
17.2102
-9.17703
76.6961
73.713
-68.857
-72.8527
-71.899
-39.3656
10.0459
3.891
-2.92788
68.6612
115.571
-8.83069
-73.6922
-52.5968
10.9528
17.8859
6.1507
9.62849
64.556
90.1337
-31.9001
-111.252
-33.8851
-22.4646
-24.4562
-6.45039
14.8521
5.92065
50.8618
41.9325
-62.1875
8.37258
24.2327
22.886
28.75
23.2867
38.146
20.3442
-50.9441
-79.5193
-37.2433
13.915
38.2563
23.2999
49.011
36.0681
-47.0253
-54.541
-63.0831
-44.3303
2.39504
29.7058
69.0696
35.8796
-27.4974
-39.0212
-53.333
-21.6289
3.00888
-16.1293
25.1176
69.5181
-17.0754
-23.6525
-39.9653
-29.524
31.8273
32.4109
58.3843
78.7569
-17.5171
-11.4167
-27.2421
-17.2878
19.9352
24.6318
23.4717
83.5256
-29.1234
-62.5794
-64.4071
-58.4385
11.5696
8.71641
-0.0822717
41.5874
23.298
-25.7873
-47.1774
-55.7189
20.3947
27.1483
10.7811
40.3828
90.2227
15.7879
-37.2858
-69.2507
-7.07978
2.88808
-8.68356
-13.3874
49.7199
0.965678
-39.2161
-51.238
-1.69869
27.7894
9.22164
3.03598
71.5661
2.11724
-43.0258
-39.4075
-33.4174
23.8454
29.8446
10.0895
112.259
24.599
-71.5246
-58.1269
-49.7366
-15.4256
4.74046
-7.00884
22.0328
60.7303
-12.1367
-22.3598
-34.9178
6.74363
23.8937
26.728
19.6425
44.5844
12.987
-51.124
-75.3006
-21.7824
28.0417
23.0847
29.1289
71.2458
-19.3079
-47.0708
-32.5441
-43.5623
2.10768
12.4554
40.9866
72.1407
-21.57
-22.5876
-17.9759
-13.8568
2.83552
20.2831
42.659
61.6159
-48.3091
-57.2047
-45.1743
-42.4618
10.5414
4.66158
1.56332
52.7476
60.5097
-48.1284
-77.6559
-50.3614
33.0675
27.5907
16.1347
13.568
13.7323
58.8497
29.3584
-49.0104
20.0454
17.8408
-6.54875
-29.4547
-14.6216
-20.3842
12.8866
-20.6524
-61.2774
12.35
9.60649
14.0863
34.4258
14.8072
78.2299
58.4129
-76.4818
-75.6798
-80.2828
-33.6617
7.7103
12.7752
61.0321
24.37
-43.0012
-26.6047
-22.1246
-31.3222
2.70819
38.9494
104.314
122.086
13.0104
-45.6402
-62.6011
-31.4855
42.9584
16.3124
-7.55514
72.3292
75.2083
-76.8782
-96.7281
-53.4787
8.23314
8.89116
5.50795
9.39085
68.3608
-26.3724
-62.2015
-74.0008
-24.3679
30.6157
29.1676
62.6602
125.748
-4.61301
-34.3939
-71.8213
-60.0186
16.9182
5.71444
29.5128
28.3328
-31.2749
-30.2983
-31.2475
-43.763
19.6129
-1.19126
33.485
92.8458
-15.4096
-40.6035
-42.8576
-72.5827
-12.8132
-1.53139
-10.9111
35.2664
120.175
11.5658
-45.2593
-30.983
-4.26983
-5.16899
-4.72051
-8.20824
48.0375
114.822
83.8839
-41.8969
-35.7085
-17.7211
-19.0426
-15.0719
7.75904
4.06223
4.89909
40.4361
-85.5239
-52.4902
-29.522
-23.4255
-18.9227
-4.94716
37.3981
88.3422
-15.5849
-57.5751
-64.9576
4.79529
73.3604
50.5625
83.866
97.022
-5.2991
-40.9728
-44.4634
-77.424
-22.0613
6.3337
36.9399
43.9011
-14.6797
-21.7169
-31.3961
-59.1258
3.72992
-10.9388
26.6317
93.9312
-32.1091
-75.4458
-84.0225
-62.4731
21.6028
49.6828
45.7269
37.52
70.7939
33.5257
-69.0278
-65.9986
-8.63519
-2.67515
-6.76009
-7.3671
57.3273
52.4375
-44.5626
-43.7497
54.3407
73.4626
41.4609
4.82729
25.2742
74.794
-6.24973
-52.4526
-67.3148
-56.6377
-25.1436
-14.249
10.0877
58.0499
-5.01896
-109.428
-69.0123
-38.5856
13.0271
15.0714
36.992
77.0507
64.8543
5.06597
-10.0452
-37.6361
-10.2855
-8.3887
-12.8672
39.1971
68.9791
-22.9881
-32.5251
-63.0325
-39.7598
25.5409
25.5674
49.6851
85.4586
45.2064
11.1265
-51.9478
-67.1469
-42.487
-15.3829
-24.1527
-18.5037
36.5394
21.1408
-18.3072
-13.1702
9.20135
-11.4713
-17.7583
-14.7112
46.7314
40.7945
-37.6863
-25.3418
11.0064
27.5048
18.9242
62.5768
128.705
-11.7686
-94.8347
-75.7924
-67.7466
-31.0823
-32.8986
-45.2056
37.9085
40.3224
-40.7728
12.4996
18.8092
14.5865
18.2512
6.44076
57.6895
100.699
-6.51114
-30.66
-55.7036
9.61839
50.0737
34.2471
-3.68672
24.3655
40.4283
-1.90024
-95.1906
-69.7312
-26.6922
-15.2783
-17.3549
-21.5946
-5.58468
43.3672
-24.6325
-55.7792
27.3981
13.9621
3.09617
28.1089
45.8505
49.1062
31.4908
-65.2786
-56.3147
0.901513
31.9483
-8.04675
7.64592
55.2763
38.2656
-38.9939
-50.8068
-57.0629
-18.7557
6.99669
54.5652
78.1292
24.005
-41.0942
-15.229
-31.5275
-39.5212
-5.24024
-0.409055
14.7352
44.6636
17.7177
-13.705
-41.109
-48.2469
16.9191
42.7532
42.8876
112.856
7.67264
15.9951
-57.5386
-35.271
4.69864
-16.3563
-27.6603
-29.9381
3.52925
-8.28924
-51.8945
-57.9715
-27.5577
21.4271
23.2596
15.492
58.8692
26.199
-30.7427
-67.3183
-6.64261
1.61774
29.9988
48.5699
105.574
58.8252
-40.6867
-34.103
-40.3091
-46.1753
-16.8001
-19.5309
18.7371
46.6529
-7.0852
-21.951
-35.0994
4.63075
43.5768
4.94043
22.3368
20.2586
80.2275
26.0327
-68.369
-28.8377
0.426896
-3.52762
5.72783
1.88398
18.8744
49.2565
-33.7997
-17.1836
-110.625
-95.0868
-61.0309
-39.0745
-13.0716
19.1187
68.874
104.688
-12.9879
-39.1626
-6.45309
5.57957
39.0226
39.4698
46.2091
84.0931
-10.533
-60.8337
-25.7335
-39.4236
49.4325
62.6217
86.8971
115.412
-31.5628
-63.9819
-80.5244
-72.6496
-0.346823
36.7771
75.5112
59.93
-38.7577
-59.8442
-78.1419
-93.6672
-42.787
-37.0507
8.79411
49.8569
-14.7725
-14.9344
-22.5793
-27.9355
22.7405
14.3864
17.8254
63.0971
64.3375
-0.21913
-31.85
-31.9384
28.4265
8.31309
-28.2409
-25.0165
17.7835
-14.619
-3.47047
-28.4131
45.2585
27.8195
22.4539
48.1526
110.449
37.9825
-26.1615
-70.7856
-53.3882
7.83986
-5.29104
-5.88422
28.0291
89.8227
19.3781
-82.6676
-71.3988
-20.7912
-26.2201
-50.4538
-24.8612
21.903
95.1439
-54.4044
-77.1289
-10.8708
29.7811
20.4294
10.9046
34.4573
46.4531
97.7489
17.7049
-109.815
-62.5324
-20.5137
-32.6217
-9.51381
0.616202
-7.45493
63.5631
22.3218
-60.9886
13.8516
42.2813
54.832
22.1206
-2.93675
101.077
48.5209
-103.785
-135.806
-83.8128
-17.6333
19.7357
47.7104
94.2514
36.0313
-50.9973
-32.1367
-23.6725
-20.8112
-15.1174
13.4956
37.545
4.54851
-3.13005
6.59467
-48.6109
-9.26894
64.5406
67.1862
127.818
55.6462
-62.5549
-47.6405
-50.0136
-21.7836
5.57777
-6.99295
14.2367
35.2444
76.4485
-9.31824
-78.7277
-44.9806
-9.67812
-9.81981
-32.6873
-15.9498
7.4417
54.1033
63.8615
-51.6908
-21.8387
-18.5334
-34.6242
-20.7254
-3.8961
-9.80653
31.6256
-35.3839
-105.552
-26.3861
1.42344
33.3621
52.8012
32.9674
45.9773
66.6316
26.0641
-38.2242
-95.9666
-15.1418
13.4395
7.00646
28.2592
19.0814
-19.6825
-15.1015
-33.1907
4.46624
31.996
63.887
116.557
72.6596
44.9179
-48.3111
-60.6318
-33.4224
2.24324
-10.2256
-23.7425
-1.06706
65.4188
-6.96065
-120.706
-83.2987
-32.6416
-36.4589
-33.5041
3.50852
7.8795
52.293
-17.6885
-4.1141
30.0756
69.9411
25.6798
8.01339
15.6552
25.6693
-44.3606
-32.3046
-33.8016
4.23846
48.25
36.7872
81.8547
67.1634
-57.9738
-50.0031
-12.3161
-15.919
12.8924
24.6053
47.616
84.3914
-22.9306
-38.9667
-40.3314
-44.6578
-9.58649
-19.8452
-30.9478
24.409
28.8763
-81.0497
-114.254
-83.5069
4.14376
33.6306
30.5371
40.9019
95.2253
133.015
35.5337
-98.8254
-31.3974
-23.8029
-9.00343
-9.84582
-2.99777
10.2134
53.681
-65.4107
-52.0573
0.942498
-13.5501
-5.77924
41.7343
48.7648
83.5215
38.377
-68.8567
-72.1758
-34.882
33.9288
77.4952
109.018
156.497
46.9759
-48.0834
-73.4393
-127.878
-125.492
-95.8773
-23.9248
44.1456
36.4602
-55.6918
-50.8398
-44.0495
10.5816
79.7543
81.0424
70.7231
131.091
63.019
-60.743
-103.993
-82.7784
-47.0847
-38.7006
-29.8943
64.6218
109.357
91.1156
-64.1387
-106.064
-31.489
3.58735
8.52338
8.55938
13.4617
42.4292
-5.3207
-45.5659
2.10119
58.7672
23.526
31.9523
31.907
41.4175
-51.4268
-61.7322
-80.4273
-54.7149
10.0246
41.124
88.3595
92.8468
35.1496
-47.5907
-19.8659
-21.4541
-26.8376
-30.1526
-8.00223
6.89082
20.009
31.7347
-33.5791
-47.063
-10.9519
-29.7067
-43.5542
-23.4863
16.5019
112.824
28.3002
-98.8559
-70.0612
9.1275
26.2636
24.5237
23.2447
-16.1339
58.066
59.1084
-70.6873
-105.761
-30.5659
-14.4961
30.7856
32.124
18.6555
43.4498
-10.1309
-42.1545
13.6227
63.0851
31.3204
61.5194
61.2001
83.2975
45.5344
26.9424
-14.7953
-12.2163
4.94669
-15.9916
36.0886
61.1766
-36.0124
-126.763
-106.252
-88.9343
-23.5966
-48.5937
-14.2497
66.5171
-11.0735
-13.6411
-28.0044
-52.3275
-4.57022
22.9538
-5.66705
20.8275
83.8374
-35.0456
-55.0094
-81.6106
-22.0657
38.3024
38.0718
28.3137
33.0862
39.682
22.3171
-70.4204
-1.19971
40.1426
21.6777
-12.7146
10.7102
111.874
89.3535
-60.5523
-81.3178
-1.11496
-0.776996
-27.5207
-16.518
12.5283
27.9838
38.8882
-36.6774
-65.9925
-58.0264
-6.46305
39.9565
51.9899
77.5057
54.2479
1.95629
-32.9692
-49.8269
1.44616
-2.32461
12.159
60.5828
-10.7392
-31.5708
-19.7208
-42.2403
-58.1494
-8.60938
-0.153136
35.1088
70.1952
-10.2534
-82.4802
-64.8248
-28.6853
6.34276
-19.495
7.42801
59.6367
101.283
28.8317
-26.2709
3.23739
34.9389
46.1945
12.5102
7.182
16.8524
-72.032
-75.1151
-57.8311
-12.1002
12.2609
-9.40186
14.8588
74.5896
-2.30351
-3.68971
9.39735
-45.4948
14.0656
34.9546
53.7727
67.9075
-81.7029
-82.9733
-59.0064
-31.4973
6.72183
0.694098
42.3508
82.6157
-22.4184
-18.2258
-15.6791
-5.266
35.8999
37.5279
23.0284
30.3231
35.8668
-61.638
-65.2498
-70.8887
10.384
39.0424
20.7707
-8.1551
37.6988
75.4332
-35.6307
-93.2048
-21.0107
-1.46041
2.24128
12.3041
20.9922
41.1117
72.1156
-37.4666
-66.1402
5.44877
-15.8447
-37.9179
-6.55646
6.24971
49.1166
-29.0018
-49.4375
-63.9949
0.321569
39.7163
78.5468
91.0991
113.174
-18.2742
-41.9671
-49.2729
-47.3044
23.8961
47.4999
73.3828
-6.80068
-77.4735
-63.3366
-50.2821
-41.6383
1.41399
10.8066
11.8289
101.789
6.14569
-33.2628
-48.8062
-85.4273
-17.9704
27.3903
32.1568
14.2859
86.0273
23.6881
-64.5903
20.3936
39.7177
14.5766
-15.057
-39.9965
27.3825
-13.1279
-69.7581
-66.8497
-11.6598
8.90221
32.8519
54.8844
124.415
77.3229
-50.8267
-45.7689
-57.3023
-47.7064
-12.029
-15.8091
61.4248
70.5075
49.3586
-58.7572
-81.2102
-47.0176
-38.9006
-59.7146
-24.4607
33.1284
104.207
100.632
-15.2309
-48.2319
4.97738
13.4348
7.77947
10.1605
31.5202
27.9758
29.8384
7.13552
-65.6906
-37.8557
-35.069
-1.53028
1.40886
0.10545
39.3089
76.5429
-50.4886
-72.8107
-10.3752
22.1956
25.296
8.36834
47.635
127.09
-6.24114
-93.3159
-127.081
-78.9691
-30.1475
7.37201
56.2046
52.7576
-58.2916
-31.0508
-10.2698
-22.6949
5.84773
21.5446
69.2146
58.7516
-10.5955
-8.5619
-12.906
-30.0655
29.6555
42.7166
50.4749
36.646
-30.9958
-80.9929
-83.5927
-61.0968
31.1061
38.0358
47.0894
41.9633
88.5984
32.172
-31.6567
-38.2207
5.44693
26.6612
27.236
-9.09587
8.19821
55.0492
-35.3447
-87.9597
-53.5001
16.739
29.4738
12.6365
43.1227
54.6113
-38.3883
-87.1153
-105.073
-48.3383
-1.35585
21.5278
17.0027
6.66754
37.9842
-34.1585
-42.9867
-35.6216
-6.96284
29.3095
38.8274
36.22
84.2131
-0.196604
-26.2208
-48.2199
-29.8181
-3.34755
19.5578
34.4534
91.7851
55.4797
3.53263
-10.738
-47.9507
-43.0572
-18.2751
-6.97792
-12.6568
32.0322
92.4595
-17.5085
-86.1395
-24.3012
-2.54797
-21.8818
-7.57213
38.1071
75.3622
-16.7422
-84.5499
-23.4758
34.8754
27.8859
33.1127
62.1789
143.061
26.0061
-66.4248
-82.3444
-76.7653
-2.82284
-3.95987
-23.1924
-28.6133
-69.1518
-21.391
-9.86906
-19.8003
25.3884
25.9302
36.5433
68.428
-17.8351
-41.6741
-29.4311
-53.2317
2.16128
52.1438
79.4814
89.3815
40.5959
-73.9207
-61.9936
-60.8125
-17.3893
-4.72069
-11.6052
-15.4071
64.873
87.0252
-20.558
-20.6523
24.0578
54.7542
34.5311
-24.3483
-17.7721
34.4986
8.26712
-105.405
-113.39
-43.0349
22.3854
33.7529
32.6888
55.8387
87.49
-21.547
-39.2927
-38.0836
9.42845
9.60654
18.1676
58.5321
48.4502
-63.5684
-38.409
-54.616
-69.1447
-24.7337
45.7454
119.801
18.3992
-54.8221
-36.477
-27.3939
-37.8573
24.5456
19.5567
87.3954
144.836
44.4
-65.4784
-87.7539
-73.3241
-9.52276
-13.1258
-26.9939
-10.6795
56.6192
41.3415
-69.8982
-31.7659
0.84979
12.241
-5.97613
-36.1348
26.7419
35.5992
-47.8047
-39.2063
27.2114
85.3111
11.1318
16.7193
84.7009
101.857
-40.0408
-74.5995
-70.8826
-51.9946
-1.76238
-1.55699
38.7903
44.2292
-28.9662
-13.3838
-20.3788
-58.9302
-38.837
-27.1211
22.6281
83.8143
42.8302
-5.96774
-26.6248
-12.3226
52.2004
33.8476
-1.27
15.0429
128.844
10.3253
-124.969
-136.246
-61.526
-21.8895
5.9907
-6.70164
16.5539
80.9715
8.16625
-16.7622
31.9145
29.1636
-2.9796
-15.0849
-0.712896
27.1218
48.8711
-39.671
-89.6264
-17.7712
62.2523
85.8469
60.6879
-13.0116
12.9779
-37.6641
-15.9241
-57.4622
-36.0598
1.68497
23.4145
67.9834
16.6264
-25.3489
-20.7328
-41.5748
-65.4897
-12.6964
-11.6101
38.3402
-31.138
-55.4689
2.0857
13.4551
0.668366
64.8821
48.5108
17.5126
40.6174
47.3295
-83.3783
-68.1426
-18.9835
18.0013
37.893
35.0629
44.7419
109.06
-38.4517
-126.444
-71.9572
-51.9603
-29.6107
-25.5609
-14.8737
59.3509
55.7252
8.28621
27.703
17.5914
58.5212
54.4707
50.4474
78.0369
67.864
-47.4755
-117.567
-122.055
-45.7483
-9.89685
0.100237
20.8239
91.267
81.0357
-49.8915
-67.3008
-43.4431
-16.9637
-22.9259
-11.5591
53.1613
38.7049
-41.7409
-58.68
-51.3522
-5.83655
-11.1083
-22.7537
54.5775
124.662
14.7693
-49.7766
-42.9024
-18.73
9.91187
-3.56125
26.8574
22.3796
61.713
43.1724
-31.8551
-30.1456
13.7957
11.1323
-20.8595
-15.5149
31.6002
31.4542
-53.4612
-62.5189
21.6305
36.6679
-14.3137
-15.312
77.5366
76.1742
-41.5294
-25.7583
-54.16
-33.8665
22.7184
40.9279
111.218
71.2
-69.783
-72.7492
-70.4548
-74.0705
-25.3096
-29.4065
42.0043
77.2419
-40.113
-49.7177
-52.6372
-35.7407
36.8994
38.1979
13.7188
74.7601
106.676
24.8984
-126.805
-90.8376
-26.9156
6.14868
13.337
-6.1595
69.7307
78.1282
-10.1438
-83.6342
-23.5919
5.0951
24.979
22.9062
19.262
25.2856
76.3343
-8.89792
-27.6291
4.19206
30.0484
19.0015
41.8108
35.5154
54.7236
-16.152
-103.341
-93.1286
-44.141
-10.4691
23.9992
41.0961
84.3373
-21.7099
-59.5635
-33.6921
-63.0881
-67.3337
-8.29215
12.5526
70.2425
25.0499
7.06661
0.940284
-23.0211
-13.8924
-2.76778
-32.5853
3.92636
66.7795
-1.76645
-79.145
-77.6503
10.4263
68.1503
67.2595
43.2252
55.5623
24.7659
-41.1869
-44.4565
-19.3133
9.43457
6.86232
-14.8158
41.2266
20.2637
-33.6791
-52.0354
-59.7868
9.89804
32.0283
20.066
63.5503
19.9105
-16.304
-10.8903
-6.59219
4.07708
46.8208
23.7466
101.679
48.4074
-82.8244
-84.9046
-76.155
-22.642
12.5607
-62.2346
-89.9272
32.151
-5.32235
-46.1397
-16.7566
43.0589
80.7417
56.6557
23.5673
18.2357
86.2359
44.593
-72.7204
-39.8607
11.201
8.99692
-10.6864
-34.1759
10.9005
123.114
17.2415
-100.033
-62.4961
-48.6566
-43.7351
-11.2269
-11.24
1.51565
53.0117
0.982986
-30.9523
-21.8892
-1.37325
25.5427
50.7822
32.1319
30.0821
-29.5692
-48.4631
-67.1594
-3.9658
43.7453
67.2226
118.253
136.882
-27.5654
-85.4821
-56.7874
-23.2738
9.82408
1.24939
-5.20717
39.1023
-23.8851
-76.6487
-49.3076
-50.7529
-12.0742
15.107
6.73073
10.3013
80.3069
54.8216
-76.3147
-81.1606
-9.0883
16.7273
19.8303
15.6732
39.5052
62.2108
28.364
-49.3913
-9.89326
33.4171
28.0821
10.0222
1.645
17.312
-90.102
-68.7525
-62.8312
-29.4584
30.1798
31.5475
77.8893
148.169
67.9303
-35.4416
-57.7129
-53.5764
-27.6707
-0.97542
1.67704
1.16442
30.3532
24.1273
-33.278
-94.7767
-46.6336
-30.9689
-22.1156
5.55205
26.0657
68.1092
16.86
-110.478
-52.5842
3.89288
44.5007
52.1273
50.0277
46.9447
88.7332
103.95
-70.1283
-79.6174
-24.8498
-21.1798
7.9672
-0.0697369
5.99295
24.2593
-51.9025
-70.6171
-17.4743
44.4175
42.6072
33.2665
81.2417
59.9927
-31.0367
-33.6542
-48.0414
-55.1422
2.22747
-19.473
24.4008
11.0184
-18.5193
-29.0533
-50.5044
-41.5172
12.0337
41.2247
135.278
72.8611
-41.4485
-44.0619
-75.4701
-58.9917
19.8239
37.0845
66.6527
15.4894
-67.5545
-44.4337
-40.6704
-10.4949
28.1434
33.0659
2.76213
13.7694
54.7494
-60.3412
-92.8129
-22.5317
55.6543
45.6385
28.6325
66.5998
85.1677
22.8087
-54.636
-67.4702
12.9853
16.4788
11.59
2.92294
-13.4954
32.1169
49.7052
-116.153
-138.122
-39.74
-27.8443
35.3758
74.693
68.9403
73.803
-22.9039
-61.798
-30.6866
1.24878
6.4186
19.519
35.2856
48.2654
-20.1883
-23.3265
-47.0805
-49.2156
30.5047
30.5062
58.7921
62.811
-39.0826
-36.6633
-47.9265
-52.5208
19.8578
48.9786
21.7599
14.0545
13.9709
-32.5905
-49.7829
-66.3306
-0.0528131
6.22745
-19.6715
18.0972
63.1171
28.0268
-29.0048
-42.9156
13.94
13.0386
34.0509
68.8686
53.7846
-65.0323
-44.1451
-16.9191
-28.6795
3.14136
-4.9589
32.7462
32.2024
-27.486
-22.9855
-46.8266
-41.0922
-6.66074
52.975
108.091
89.735
-61.1756
-41.4222
-39.5518
-25.7213
28.0549
13.4071
76.4238
94.2802
-59.4301
-76.4774
-77.5888
-20.8869
26.011
-1.2458
-32.0408
24.3631
109.761
2.50976
-117.701
-52.721
46.2029
37.8943
17.1926
22.8774
72.4948
125.534
-8.04846
-149.733
-25.58
8.33384
-14.3812
-32.4748
-28.1518
-11.4077
37.1127
5.48245
-115.077
-43.8727
4.83392
19.1955
43.9761
41.1868
67.2502
0.989945
-10.7508
-53.9085
-37.2693
24.9872
57.1892
54.648
107.003
-15.6147
-79.612
-64.852
-76.4305
-51.1303
-9.75915
39.019
67.3464
0.606396
27.4214
28.9241
-4.71016
8.96713
-0.671605
-29.3106
-9.80052
48.7575
-0.557862
-28.815
-50.8283
5.7522
22.9039
4.38318
13.0333
76.6405
-39.1934
-48.9786
-27.1432
12.131
13.1032
-4.24236
28.5508
63.0179
-30.6102
-52.4017
-22.9489
-41.8442
-4.05481
4.67745
-9.75005
52.0109
-17.7032
-38.1547
-44.5554
-30.9705
56.5935
56.9116
33.8076
61.6066
77.7703
6.96507
-67.5885
-42.3075
28.5544
25.4461
3.23105
-5.89402
63.6154
98.8516
-100.781
-125.976
-47.1746
-31.0741
-28.9152
-30.1944
5.78172
25.9353
116.52
67.7801
-99.7553
-95.0494
-52.6963
-13.5841
27.6161
24.2118
46.6993
90.3821
-20.1352
-66.1803
14.1489
29.8165
40.3931
33.5311
42.132
55.1957
-24.7717
-77.422
-103.064
-60.9308
10.3149
31.1173
68.2224
88.81
26.177
4.057
-9.37349
-36.5586
-6.47586
-19.3262
1.36944
11.2073
-57.1103
-38.8588
-47.8613
-47.0861
17.7081
35.2523
67.3195
61.6161
-19.1512
-34.466
-25.3606
-36.2611
22.1311
28.1418
10.1145
0.821617
47.7025
67.3974
-25.8692
-93.598
-14.4442
-11.3205
-29.5248
-32.7539
-5.09123
55.3512
33.8257
-90.0945
11.244
64.3203
49.5933
46.5741
61.7475
23.865
44.176
-12.767
-92.2366
-105.919
-43.919
-7.72967
35.9915
26.1902
32.5757
8.25364
-52.1893
-56.5365
-79.0783
4.27336
60.6684
73.8933
85.5245
33.4457
-57.2392
-16.4907
-34.3373
-31.856
-7.57363
-6.14144
113.87
87.2048
-19.8688
-83.0199
-87.8239
-75.6232
-26.1146
-13.3811
-22.475
26.5679
93.9429
59.204
-11.5672
-9.51673
45.8666
16.9971
2.26135
16.5952
61.4367
-9.00514
-85.6171
-61.2679
-7.48161
20.9432
1.96278
7.29149
65.1219
69.6284
-60.1868
-43.0909
-45.6476
-28.9402
-2.66994
0.60009
72.4096
17.4249
-23.1678
-4.9231
-43.2918
-27.6153
-18.3214
30.3796
84.8656
-7.00417
-58.238
-38.7068
-42.3186
-30.5147
58.8493
108.076
146.169
-4.69406
-72.7213
-66.8968
-43.5996
-19.5991
7.59133
17.1768
25.7221
93.1888
-9.19923
-126.75
-101.49
-12.9056
17.7323
23.2861
16.5665
3.66394
86.2171
65.6482
-81.5533
-0.326857
30.3511
31.7074
6.65356
-5.91533
37.1463
39.9002
-66.34
-107.348
-67.1885
9.5361
11.8743
33.0457
62.7353
77.7593
7.15547
-25.5015
-45.3478
-42.8237
-1.56132
24.5367
37.0497
60.6162
-10.8588
-26.8
-51.1017
-52.1108
1.22256
0.0400542
31.1955
92.2515
19.2285
-27.6603
-88.2749
-86.5724
-41.132
-26.9946
-26.9374
-21.2348
59.9691
93.7002
13.0405
-2.43105
42.0445
44.9578
21.2903
8.98775
40.8329
42.5466
-29.3605
-68.0251
-53.8543
-18.8597
2.63812
15.4067
139.736
37.1341
-66.8006
-94.3853
-86.6131
-41.2099
16.1358
18.9676
66.82
103.544
-9.05043
-35.1733
-40.9905
-35.8696
-3.09981
-2.1079
4.62808
0.0539646
59.2418
28.5241
-119.905
-51.5093
25.9807
41.62
36.8269
22.5391
27.1374
69.8878
58.8168
-40.9785
-50.4608
-34.7795
-40.6393
-29.9678
-11.175
-14.9925
49.7473
61.7774
-74.3501
-88.5262
-38.6284
-2.71322
30.697
29.9606
48.793
75.0204
-21.7512
-34.9674
-29.7733
5.56847
57.0888
50.3783
61.2013
54.7117
-56.4407
-50.3232
-55.9343
-62.8591
-25.6399
-6.85174
69.5549
67.1309
-9.39124
-20.9937
-37.4509
-35.3963
20.7645
4.78163
53.5431
18.6537
-11.951
-1.79068
-41.0339
-58.1272
8.82206
15.6348
22.6751
37.4058
-5.18478
-35.0546
-50.1902
-41.0632
19.1083
39.1686
32.6107
45.2266
90.6463
-28.5332
-56.9709
-23.5834
4.95242
3.91477
6.87344
28.5485
117.334
-24.3268
-124.253
-112.389
-47.1499
-25.1492
-15.0867
12.7265
77.5152
141.844
31.7367
-71.9151
-63.7531
4.16952
6.37733
34.0312
39.8888
60.7217
59.4737
-70.3658
-108.146
-36.5039
13.1735
9.09193
14.3116
59.5601
105.236
-14.9932
-101.714
-107.61
-20.09
27.1682
19.1558
35.123
12.7411
44.4888
47.8668
-24.5809
-52.1709
-11.0261
-30.2792
11.2845
21.2573
42.0331
116.454
-23.1263
-142.791
-85.4401
-30.6736
-28.9383
10.3221
60.6489
121.242
9.23733
-18.8913
-13.7388
1.91749
27.6231
-7.13481
-0.75425
28.5055
-26.227
-18.1664
-47.8359
-100.341
-43.085
17.1339
83.6147
88.2315
12.33
13.2026
-1.90253
-46.2681
26.0752
44.8221
75.2588
-25.3953
-40.336
-20.6657
-5.19709
-32.6719
-22.2907
-10.0471
46.7929
-15.9266
50.6545
-73.0758
-82.5128
-28.4434
-1.34072
11.0609
22.6563
33.668
147.791
79.7408
-101.901
-99.6235
-34.6454
-29.6692
-28.7647
-31.9586
5.91423
59.7876
7.06544
-27.5815
-2.00237
75.1911
40.9399
19.2288
25.8618
79.2741
18.5812
-49.1618
-73.7114
-20.8727
40.2999
60.3534
43.0574
72.5458
35.1203
-60.4179
-75.6308
-85.6795
-86.9451
-37.5347
-38.799
26.1875
73.8625
-2.9317
-12.4347
-53.1223
-17.6846
-9.50747
-19.8523
13.0387
77.4884
145.209
21.1236
-116.095
-70.4614
8.09563
9.71392
-13.1031
13.0542
79.8705
3.23059
-45.7578
-47.553
1.36457
10.7921
20.2112
21.5505
56.4334
22.8416
-42.9857
-31.9246
-63.1372
-17.1541
26.898
37.3219
92.1449
23.7796
-20.4863
-25.3738
-36.2
-40.2188
1.68078
2.13455
63.0881
41.6109
-25.5863
-4.54642
-7.69643
-13.6625
9.15035
-3.46565
1.93268
79.3086
12.9413
-38.1966
-47.1544
9.57772
15.7337
-40.095
-81.134
-32.3691
50.5134
6.02333
-64.1683
-31.4086
6.10162
8.50391
7.77694
11.5403
38.4152
100.722
44.754
-81.8963
-17.6323
-4.02135
-22.5121
-18.5722
-0.590668
59.0805
-14.4167
-80.3789
-66.2678
-15.4481
30.699
34.7562
38.9011
68.7008
-10.8589
12.4807
39.1067
0.635184
-14.2811
29.1502
61.0792
49.3201
-46.7395
-30.142
-8.78178
-40.262
-15.6941
3.92461
26.2851
42.2683
-19.2146
-33.6163
-25.33
-33.3014
10.6744
3.92576
10.2995
45.2941
91.8056
-16.0974
-107.303
-96.7461
-28.9474
-22.5542
-30.2842
-14.7853
86.3796
92.2588
-82.261
-96.6383
-3.45444
29.8811
23.5593
9.90212
39.552
118.727
-10.1036
-83.1039
-80.9643
11.7615
48.7281
39.3692
40.2856
26.4601
62.2259
58.8314
-83.5618
-74.6382
18.714
16.1197
19.8407
23.2573
57.0215
108.295
-43.5571
-106.988
-28.4328
-16.0416
-50.043
-26.7234
28.5741
95.6731
28.4446
-104.669
-107.572
-74.9603
-39.7015
-26.5384
12.2074
5.98323
50.2557
109.522
-7.77901
-66.1544
31.6059
32.7069
36.0849
23.3684
6.28334
89.3171
55.9019
-138.284
-87.4484
22.0005
33.6301
15.0533
19.8647
18.5605
29.419
-9.70242
-41.215
-52.2883
4.41454
11.227
24.2982
43.7723
24.2822
-7.08834
-15.8031
-34.087
-25.5049
30.8013
46.4913
121.026
33.0883
-109.681
-75.1128
-82.4386
-75.7362
-50.4968
-29.5393
41.4275
108.293
-30.0995
-17.8089
-34.7063
0.567414
53.7198
61.1726
26.6614
41.2677
34.2564
-33.5217
-67.0316
-48.9477
17.4435
25.9915
18.1503
38.1099
112.517
48.5628
-106.374
-108.89
1.6818
25.4622
-0.466714
-5.62467
11.5672
25.3008
-26.381
-51.2214
-23.5576
27.7207
-8.28818
10.1245
75.7649
41.5712
-52.3912
-75.3367
-84.0178
-32.1458
20.3665
29.0951
102.61
93.0185
-34.0702
-14.8298
8.49003
-7.03357
4.82169
-0.187762
27.1081
83.6968
-55.0814
-79.7331
-65.4048
-45.0911
1.97533
23.906
12.053
28.1689
80.4306
-62.641
-82.1831
-56.7147
22.1068
31.7914
36.2603
66.9165
137.001
-0.748481
-73.9751
-103.949
-13.4552
4.7366
-10.054
27.6824
84.7222
-37.3809
-54.468
-69.4654
-40.7127
35.3242
37.4335
53.5923
107.857
30.5591
-2.42774
-21.008
-53.1918
5.90923
-0.458279
11.97
106.139
-14.9488
-108.431
-104.981
-81.2565
4.1165
14.1677
9.29374
7.83938
69.9438
56.4602
-3.67871
-35.5504
-14.4702
20.2474
2.9318
-24.2779
19.7447
67.4346
56.0308
-82.6146
-62.345
1.72962
-5.39255
-21.8631
-8.21972
7.57034
53.947
27.5604
-50.7083
-44.7035
2.72788
16.8108
37.074
37.0378
80.3014
0.447372
-36.4084
-83.6619
-82.7593
-19.7741
29.3569
70.8609
102.471
-21.4147
-18.8656
-12.9665
-36.9496
-28.4169
21.8593
59.026
60.1282
-18.8685
-14.706
-8.42242
-45.1673
-27.9235
0.715036
10.6277
30.1935
-4.88889
-32.4936
-31.0859
-47.7292
-0.663804
-7.14722
-2.24838
6.72586
60.2684
23.7556
-16.7129
-14.6657
8.34819
23.4088
23.0613
31.0525
89.4984
2.41336
-66.7846
-82.4837
-43.7931
-1.99768
-11.3408
-15.6591
46.6343
24.1214
-47.0688
-64.9498
-48.8811
3.94523
29.8198
32.7057
46.0362
101.875
118
4.47607
-51.9983
-15.9727
1.88827
-4.16489
-5.38502
52.1488
102.192
-67.41
-161.519
-83.9177
-13.7643
-17.351
-14.1323
-0.708939
35.8517
85.2425
47.1488
-83.8823
-78.4772
5.02684
-7.56015
19.6185
33.908
17.2652
52.781
-33.8684
-69.5741
9.02302
40.3833
11.0939
28.9052
65.2937
79.3629
-33.9919
-44.4379
-56.3909
-21.6444
21.7532
5.95885
34.9292
31.1664
6.36744
3.29869
-21.1024
-48.2491
-23.7414
-33.9545
22.578
-9.15243
-37.9813
-15.3956
-24.3194
-38.7161
18.7941
37.2127
110.6
0.440212
-30.7235
-24.2076
-30.3477
-15.689
18.5803
23.6346
68.3174
56.0196
-37.9788
-26.7238
-27.5191
-9.14617
-18.27
-3.34616
13.6255
66.6811
42.7293
-57.4625
-104.506
-15.2216
45.8862
39.1346
33.0225
32.3384
80.7011
104.865
-86.241
-148.46
-76.5412
-64.5171
-33.8142
9.3526
45.8402
82.599
-27.0389
-70.2538
-0.604195
46.8085
6.7298
11.3118
53.4408
83.1989
-20.2569
-10.6782
-24.3199
-61.3488
-2.56954
23.2753
63.7239
113.232
-40.9815
-71.0811
-51.21
-43.8203
-13.0262
-43.5438
-7.28033
72.8804
47.6933
-12.1327
-9.52361
-9.49914
45.1837
20.6166
22.9903
-0.325898
80.6277
-16.4081
-84.5644
-113.035
-18.5351
11.6532
8.47176
10.1656
120.188
46.2831
-55.2325
-67.9258
-45.4536
16.505
1.14327
-27.9937
31.2622
-15.3822
-43.7397
-25.9048
-49.1667
16.4103
47.9824
25.2276
111.211
23.3391
-30.4658
-40.8062
-84.8599
-40.1168
36.8195
48.4823
115.154
121.884
-27.0052
-84.6763
-72.4358
-31.8164
0.085475
-0.30305
-1.739
41.1307
85.1439
-9.04859
-59.4955
-7.8088
22.1362
17.5494
-4.19903
17.8558
48.705
84.605
-13.034
-125.664
-37.8355
10.8352
18.7823
14.4062
16.6042
13.8462
45.288
-37.6142
-76.1234
-37.2197
-46.1004
-25.4956
-15.7396
34.4535
-1.23319
-118.725
-76.5704
-80.2159
-43.1269
31.5211
63.5622
124.444
91.267
-16.1242
-11.6782
-11.2246
-58.9703
-25.022
-11.1237
36.1122
40.3816
13.9489
24.2473
3.58641
-7.73788
36.1798
31.47
51.6223
132.357
78.2949
-57.8801
-78.9311
-36.9184
17.7546
-3.56156
-6.3784
-10.5414
44.2915
-27.036
-50.3402
-48.7716
-23.8054
-23.7836
-13.1943
45.5406
155.928
81.8869
-60.3762
-75.4159
-0.171041
70.7856
31.7426
36.6464
124.731
68.0056
-65.991
-72.092
-72.2628
-31.3563
-20.2785
-19.9519
-8.01135
24.7034
-27.4534
-72.3252
-74.7423
-31.8815
-2.1753
-26.3598
32.8189
154.865
72.2271
-102.15
-130.791
-70.1932
9.81061
0.492957
2.50025
26.6129
61.2612
31.6767
-99.4462
-112.77
-99.6939
-82.7932
-58.6457
-14.1546
42.271
116.052
20.5786
-16.6173
34.2182
144.443
129.525
81.0559
49.4173
23.2307
-54.1899
-46.1547
-66.2295
-56.6631
2.74273
-37.3056
20.9432
92.7111
-11.2752
14.3772
18.5523
-32.7476
15.5872
12.0414
76.1064
50.7516
-30.5182
6.49101
30.0307
10.1634
25.3296
13.5966
74.2298
-6.78581
-60.3766
-50.3518
-31.7862
-31.4077
22.2794
20.4615
32.1239
58.1541
-2.37217
-112.744
-111.425
-59.4878
-29.7368
-38.4312
-13.8934
7.70325
98.569
57.6349
-99.1125
-57.0086
2.69268
-21.0379
-39.8106
-22.6667
18.4105
41.7703
71.1948
-11.9495
-27.5058
21.9828
12.7925
30.362
30.9821
43.7251
137.627
75.2439
-96.0898
-102.363
-64.4834
-26.8401
14.206
24.6309
65.228
50.1673
-46.3133
-43.6579
-62.1447
-40.7898
24.8713
44.7106
63.4544
105.861
41.2744
-38.6495
-104.723
-119.051
-48.9098
-14.6665
17.3598
84.9723
100.34
-16.3349
-59.9886
-50.1429
4.91312
13.9431
-5.87066
-23.1429
53.1736
63.3296
-28.8323
-97.3404
-45.3761
21.0964
39.0582
61.6809
127.109
45.2796
-10.692
-45.0781
-60.9858
-69.6571
-74.029
-2.00264
126.162
10.8356
-21.0947
55.2633
53.9485
-7.65141
-10.0189
11.6925
60.1073
-42.1971
-83.0694
-63.5307
-65.7316
-26.2407
-7.76715
7.89038
72.0635
66.7914
-9.41079
-68.3726
-102.578
-29.9395
1.01788
-4.17171
6.21523
131.621
155.708
26.3046
-116.551
-74.7877
-77.7955
-116.246
-103.782
-51.4571
40.2502
149.011
145.339
128.821
94.8187
52.1663
1.06766
13.5735
11.9142
-1.74414
25.4914
-89.4044
-84.5811
2.67913
56.7651
49.689
26.2955
47.0086
96.8241
12.5014
-146.334
-188.682
-187.739
-110.021
-38.2034
18.2097
77.0855
-15.9688
-31.8435
-28.3975
-33.956
7.51724
29.6502
79.8704
123.064
76.3313
48.8179
21.5754
-33.3295
5.6063
53.8761
-6.15826
-40.6447
44.7106
62.0216
-52.5115
-73.3938
35.2073
31.8305
-42.1215
-96.0588
-46.8095
16.1763
-41.4524
-32.5378
10.6479
52.6731
63.1376
20.4309
19.9422
32.7221
-43.8712
-32.7864
-73.927
-110.679
-24.5017
-13.4007
32.1347
147.351
104.694
43.6794
12.2929
8.18921
77.8619
53.5948
2.84845
-15.1553
-5.36181
-64.2916
-113.433
-74.5839
7.88446
18.5999
-24.1982
-3.43854
73.0103
54.5674
-87.578
-148.974
-72.3377
10.3893
25.0231
0.639358
10.6742
79.7075
35.3629
-4.36931
-101.257
-52.8918
3.96518
22.1669
33.014
17.7303
70.0264
37.8416
-44.7073
-66.1713
26.8244
48.8269
72.4401
73.0457
116.441
58.075
-10.25
-40.1227
-11.304
8.20596
24.9715
8.30041
58.3142
-20.0283
-94.0202
-78.2295
-84.7614
-54.5418
-25.0374
-27.8847
39.5252
-23.8795
-12.664
-11.1193
-63.3189
-21.7565
20.2694
-3.79436
28.5163
72.4782
35.1822
-3.51666
-52.0725
-57.1412
-17.7246
-19.5074
-22.229
25.4861
84.8863
44.0622
-14.6778
-7.19114
18.7232
24.9634
19.1752
14.5905
31.3893
61.0918
68.4009
-79.0003
-55.0833
-17.7761
-11.334
15.8465
32.115
21.0282
12.6172
-29.538
-98.6265
-30.3284
7.04295
45.0847
74.2718
64.8897
60.0209
27.6766
-77.5621
-85.4172
-83.6273
1.81588
14.2842
-0.714505
-7.75557
-113.429
-139.182
-92.5204
31.3307
107.265
123.748
119.111
210.737
102.629
-43.6265
-63.8356
-86.6158
-78.886
-18.1353
-22.1334
-8.45618
89.5873
14.8381
-87.1606
-55.744
35.1735
43.7476
-11.5957
-75.7308
-76.5832
-83.5573
-95.0294
-110.291
-19.9186
48.9614
59.0378
68.2521
108.592
61.1041
31.2144
13.9524
-7.72119
42.6076
81.8853
57.6165
116.918
43.447
-16.3263
-35.4683
-57.2158
-15.3399
-17.8068
-38.1759
15.0876
-27.391
-39.3838
-29.2538
-35.8595
28.6643
29.2796
9.05298
33.214
40.9726
-32.4737
-60.5011
-65.8906
-12.949
-1.15912
-20.783
-60.7211
-23.821
42.5396
12.2061
-87.1555
-50.7663
16.263
47.1914
49.3917
48.3214
36.6382
44.467
-17.1683
-50.8208
-71.4339
-87.1281
-92.0169
-20.7607
48.8886
76.9434
137.077
13.8316
-48.2631
-38.3004
48.7856
95.701
107.27
117.349
119.041
-1.13694
-29.3613
-67.1621
-65.3259
-27.8648
42.4465
74.9964
62.4074
-67.4698
-77.5506
-94.9262
-123.582
-43.5828
-27.3815
2.65247
52.203
-24.2852
-57.2367
-77.3953
-95.2226
-9.92878
27.038
17.9959
57.2316
84.9739
1.52453
-38.795
-36.0155
36.4735
42.8646
23.3546
12.2024
114.981
41.3668
-92.3119
-67.4329
1.61873
12.5004
5.94896
4.52939
71.0811
58.146
-7.37107
-34.3432
-24.7096
30.9
30.9029
17.2653
45.8088
30.8132
23.3341
-62.2003
-89.4189
-40.3415
14.2699
-19.9848
-8.26913
19.4853
79.6317
26.2656
-90.5876
-63.7219
-27.249
-20.7372
-10.7259
24.7653
25.0224
44.0528
27.503
-54.3495
-76.9353
-33.495
-21.9583
1.32656
35.9321
44.6621
92.425
84.887
-75.5649
-52.8669
22.2016
32.5377
20.0674
6.0772
25.3351
36.6904
-28.4708
-76.6147
-98.3539
-83.1762
-73.0041
-20.3928
74.5855
162.705
136.595
95.356
-8.04677
-85.9238
-80.0513
-81.018
-8.29918
33.0618
43.3279
95.5279
87.4551
30.7952
-10.125
-65.7792
3.24154
65.8513
-13.4757
-108.866
-134.693
-144.164
-102.592
-58.9273
-15.1823
36.7622
129.92
89.4697
-19.2177
3.52787
34.0392
-19.7322
-52.5234
-41.8129
27.8296
101.169
-32.4037
-28.8786
29.3037
70.2563
46.0437
25.3436
71.7428
148.635
77.254
-58.0849
-85.9434
-48.0884
-17.5744
-20.767
-14.2911
-9.09671
29.9968
-34.3616
-49.8799
-68.2646
-7.70926
2.87954
23.572
51.1074
11.6482
-62.6931
-77.5286
-107.456
-40.9506
61.4961
87.1381
114.054
135.109
48.584
-71.112
-95.4755
-93.2803
-49.9494
-30.5045
-27.0684
31.0702
107.066
38.3389
-17.4111
-22.4894
-4.74668
-24.2896
-20.6776
-8.19923
51.115
90.1271
-23.0397
-17.1913
-15.5877
32.1622
30.6192
-3.10613
26.2795
60.4513
-23.2496
-71.4787
-90.8783
-45.8867
-26.5855
-44.1131
10.8545
63.2563
-32.6166
-14.3367
-5.8902
-37.026
13.9463
38.0055
96.2572
96.9558
6.28949
5.72158
9.5968
-0.261727
28.6349
26.5238
72.9516
25.6288
-66.7703
-151.892
-154.609
-144.263
-10.3668
71.8485
113.989
167.542
211.678
41.7296
-164.989
-180.313
-91.1407
-22.1721
43.0665
89.948
121.718
63.6622
-124.555
-107.475
-43.7184
27.0292
57.7534
26.7734
11.1131
-14.6931
-29.2083
-111.76
-168.948
-34.4064
84.2251
104.243
83.5384
69.88
47.3589
-79.5711
-113.072
-69.8468
-2.0905
37.0444
60.9939
103.105
95.0927
14.277
-3.13425
-32.7363
-42.234
-20.2853
14.0195
77.093
122.001
105.984
-40.3608
-73.9131
-101.617
-64.2146
-44.1499
-31.6905
16.7631
76.1477
-36.2402
-67.9195
-50.6687
-3.14981
15.8593
14.5802
7.12333
51.467
18.5322
-71.2642
-52.2828
-17.1197
26.7733
9.06594
-14.2765
67.9824
58.9427
-7.51707
-18.993
-55.0012
9.63955
16.3579
14.981
31.8509
-44.0903
-61.575
-32.7849
-23.6439
2.30361
37.864
55.3067
101.61
89.1077
21.972
-2.46605
-84.3075
-80.2326
-16.966
-9.56498
-29.1261
8.30388
-38.6833
-93.6355
-32.8619
81.8959
148.853
112.473
27.4323
32.598
79.9743
-44.999
-84.8016
-59.9133
-36.3853
-22.3635
-9.70766
-15.035
-8.23203
6.2651
-63.2194
-62.0915
-33.8727
21.5467
-21.9522
-25.4517
12.0886
59.8923
51.5354
36.1617
-16.6081
30.8299
47.0882
58.3118
83.7294
68.8933
-59.7853
-64.7793
-62.5724
-62.6075
-17.1402
-6.14653
44.8963
41.4662
15.4924
29.0197
-6.57178
-51.4038
-84.4857
-73.5143
45.0421
56.0017
-66.995
-56.9977
-34.4587
-29.9236
41.8418
43.4206
37.0808
55.8301
-12.3121
-18.7824
-12.9639
23.6681
31.0145
8.3891
-10.7634
9.62599
76.1955
17.6984
-58.4976
-4.09922
70.1535
44.5932
19.873
23.9554
45.8272
62.1315
-38.7725
-136.084
-50.8684
-39.35
-69.2002
-51.5303
-24.1293
22.9296
48.93
-31.6823
-59.5442
-7.55235
-1.85236
25.8008
58.0147
29.6011
23.6172
-63.5101
-67.1983
-43.0456
40.9877
89.1398
59.9157
39.3276
57.2921
51.9472
-84.1126
-137.167
-72.5351
39.2426
123.645
111.672
34.536
56.4437
42.7576
-14.6626
-87.8073
-82.1592
-65.4626
-54.2353
-38.7808
-56.2512
-21.4077
4.67647
-75.4102
-51.4555
39.1729
59.7419
42.6209
36.3457
31.7686
56.1611
-4.12031
-43.4377
-22.6579
28.0761
65.9784
71.2047
54.5679
59.0186
-0.048526
-60.2221
-43.4813
-44.045
-19.0654
-3.02457
48.4705
82.3177
-63.3048
-61.6897
-49.8337
-52.7422
0.421028
-14.4358
6.48685
61.3035
119.206
58.605
-57.1993
-77.9929
-48.3258
2.8088
-7.66694
-13.555
8.57584
47.8825
105.504
-47.1221
-119.994
-83.6012
-60.9254
-33.5559
7.82692
38.021
86.3955
121.956
-23.9572
-43.7685
-6.56315
-43.0201
-18.0945
14.4988
5.19828
24.1069
52.2908
-36.2894
-64.4513
-4.31988
93.7442
59.1679
42.4622
53.8488
66.3964
-7.39116
-27.9444
-77.7249
-30.6468
20.9934
-16.7737
-10.3979
29.8879
-37.3981
-10.2088
3.93329
-20.9549
-21.9663
-26.4435
-40.892
-6.04363
14.6075
-58.8157
2.0775
70.2263
148.941
89.7322
-15.1114
-21.2793
54.9965
-3.68689
-143.704
-149.207
-48.1198
-26.497
-43.3613
-58.2126
17.1299
20.4454
-6.46783
44.6852
42.334
72.8208
22.3576
-26.6887
-7.75346
35.7797
-30.515
-20.1553
-30.1662
30.4666
85.1607
64.884
81.1482
120.82
-24.1707
-54.3391
-56.4108
-53.1419
4.43955
22.6321
25.4478
59.1804
-14.886
-57.2662
-66.5102
-64.8632
-8.23973
10.4614
17.3314
64.6936
95.4524
-73.6881
-109.24
-122.911
-9.14417
84.4587
74.0113
-24.3905
10.3307
126.476
15.8409
-60.2465
-66.466
-59.5438
-43.0101
-18.2965
12.1271
16.6367
44.3227
16.8139
-62.1186
14.6797
24.5577
7.86674
-4.26547
-46.7892
-10.9424
24.3655
-21.3885
-61.6447
-1.24479
44.1207
87.7645
91.7556
91.2082
-1.23002
-6.23377
-13.9341
-47.3748
-43.2722
17.7038
70.0596
82.5275
-34.3011
-86.0044
-77.3959
-69.3892
-3.79106
63.3915
46.0711
4.20809
22.8461
4.45625
-53.824
-61.9366
5.97022
24.6567
19.7941
-3.8737
-22.2212
24.6878
-34.2089
-76.2921
-18.9979
32.4807
21.1227
3.61515
45.9607
60.6428
-76.704
-60.2983
-29.3573
7.96731
39.0196
30.2157
46.6421
98.8547
75.2705
-50.9974
-56.1258
-60.6657
-39.5789
-27.7399
4.36736
6.31162
-10.332
26.2871
-24.9044
-67.4103
0.359244
46.7409
52.7804
50.7767
90.4651
90.1491
2.83206
-69.27
-146.593
-50.793
31.3803
104.726
74.4525
-15.3983
-47.7804
-12.6149
-78.2852
-109.203
-52.9114
-3.65228
44.4427
47.6297
26.1036
-18.0182
-94.5802
-98.8914
-4.11094
88.8032
235.181
263.995
116.624
-52.5256
-126.51
-114.481
-43.5376
-39.6232
-13.4232
-31.1176
-26.1088
8.56593
-11.1097
-38.7161
-33.6311
2.97771
30.5064
1.05791
-5.69263
6.42314
-84.7474
-120.637
-77.9919
-35.5462
54.3535
144.61
178.578
151.129
50.6409
-21.5972
-102.186
-107.381
-55.482
-9.99998
4.7964
24.3586
54.6801
137.954
35.4359
-47.5363
-30.3235
-8.5282
-16.8774
-12.0383
1.32637
-0.119087
-6.47842
-67.9097
-53.0386
-17.2416
27.1256
-2.50136
8.67565
26.685
66.6664
143.467
46.0874
-99.544
-56.8335
-34.6834
-42.0858
-30.0275
-12.0708
30.8034
91.362
-74.292
-112.616
-40.7719
30.8816
40.5546
50.5024
8.21282
12.9274
-52.6414
-63.2807
-65.4759
3.99638
36.8844
47.2178
57.902
106.071
98.5704
-12.4631
-57.237
-91.3706
-55.9662
-40.504
-11.1766
21.5963
91.1836
184.212
45.487
-86.6039
-57.605
-42.7673
-84.5075
-96.9306
-54.7539
59.9755
87.2099
30.1512
63.1701
93.9605
36.4393
-25.208
4.16287
-6.61896
-49.215
-83.0495
-91.9603
-85.4128
9.26899
58.6861
40.1397
50.6675
44.3848
4.8935
7.73553
-20.2798
-40.0073
-60.8203
-92.7652
2.08712
35.0405
-18.7568
4.71496
-6.67796
2.8331
25.7242
-12.5925
-19.6717
67.3679
94.3787
51.2345
13.478
-11.9035
-6.15638
38.7288
36.2794
18.4256
76.8777
88.6304
-33.5352
-122.778
-75.891
-71.405
-72.0661
-95.1223
-92.4565
-50.769
0.119489
-23.4434
-0.0403624
67.2103
61.9151
71.9532
105.771
74.9498
50.5902
-19.7708
-62.3132
-40.7203
33.1324
118.036
117.392
61.2037
63.9409
-21.4964
-90.9214
-106.409
-118.581
-96.7205
-59.3761
-12.7921
33.035
-7.2045
-2.55027
-14.7629
1.89584
45.7153
2.49514
-40.4333
-55.5939
-2.64809
-16.1426
-36.8757
-17.4441
37.5602
68.5146
37.7956
19.9658
71.3092
100.422
-31.5567
-63.8896
-11.0104
12.9139
16.7544
1.12706
44.4957
81.5534
-34.7326
-35.8104
-88.8171
-108.681
-74.924
-81.1634
-23.0694
57.3913
39.6324
98.6047
134.857
137.113
155.405
86.3294
99.6257
47.4839
-110.919
-149.92
-131.305
-137.473
-43.6991
-10.643
-3.75016
35.0466
77.5854
-4.8315
-141.589
-117.061
-106.51
-115.574
-127.839
-103.43
-28.0414
-33.843
-8.56198
-53.4015
124.866
326.368
405.004
252.527
27.2125
-81.6855
-42.0051
-8.53521
-43.3869
53.3476
183.634
113.304
40.7673
21.2581
31.9943
-92.7272
-225.107
-338.788
-277.613
-33.1098
65.3278
105.545
128.949
-56.377
-166.874
-58.3711
74.5709
150.381
121.793
68.5718
-1.56326
-107.955
-103.617
-113.119
-142.474
-83.131
38.1009
163.383
197.394
50.2896
-12.5924
-90.3613
-216.368
-114.072
105.489
147.837
116.638
138.789
76.4419
-49.4595
-46.1257
-16.1924
-2.16158
-23.2637
-18.0849
66.4208
119.47
56.5874
-5.81211
24.9063
7.58222
-57.1853
-65.8985
57.4765
124.047
-26.4461
-153.597
-217.705
-142.69
-66.7579
-18.8778
26.3379
79.065
70.0778
-20.714
-36.7502
9.79976
93.4251
78.2129
66.0789
81.4781
38.4059
-107.377
-99.3512
-62.118
9.82833
-11.5382
-39.6939
-4.12468
38.2361
-17.3837
-48.8294
-45.3962
-14.413
24.2025
9.88599
29.8185
79.3035
107.205
57.7261
-57.7519
-66.5935
15.4214
27.7507
23.6857
29.9695
22.0643
52.3035
-25.0427
-43.3199
1.19501
-2.70103
-62.2783
-61.6518
26.0118
57.3062
-19.9416
-6.92857
-70.0694
-100.17
-37.7676
19.005
108.347
79.0589
-21.436
4.49757
-15.1922
-72.843
-50.2915
-5.49035
133.812
204.539
70.0007
-15.462
-119.152
-167.152
-112.507
-47.5266
94.1139
216.706
106.529
-20.3869
-74.4651
-81.8363
-10.5469
-8.88477
-31.6161
-30.5606
40.3506
-36.3814
-118.92
-97.0684
-6.2131
23.8203
48.9414
43.6331
96.4827
98.2872
-10.6794
-39.5196
-85.4856
-35.5764
-73.1541
-28.7982
40.7302
71.8149
140.942
212.749
36.0071
-17.9735
-52.9046
-75.911
-45.7655
-14.4989
42.5022
52.2052
-30.2888
-45.5726
-49.1359
-70.4462
-20.0805
-5.00684
105.595
101.328
-32.2703
-49.1263
-110.908
-170.873
-92.1939
-9.38344
44.2284
51.9518
15.3032
9.38383
21.0819
34.735
94.3302
24.9883
-48.4304
-23.1777
48.4497
29.3715
32.5081
45.8972
67.3135
39.8865
-36.6752
-93.5435
-20.3827
-69.9715
-57.2022
5.75129
141.358
103.419
10.2081
24.656
-7.96095
-63.3662
-5.17368
-2.3984
-6.57455
-36.3639
-79.4572
-30.9668
20.1613
21.4798
42.3949
25.6818
-52.0023
-18.0958
-8.2284
14.4213
5.64408
-110.873
-148.815
-208.238
-151.431
-36.4292
69.9004
170.055
245.626
284.364
222.865
46.0448
-68.7625
-74.2431
-73.0611
-55.6242
-21.5838
14.923
11.3935
7.37401
-95.586
-108.637
-23.4031
31.5008
72.295
80.1217
45.2302
9.78345
-16.6134
-123.386
-78.4657
-4.95068
35.668
26.2418
0.211637
37.3959
92.7561
-51.3619
-104.975
-116.937
-83.0876
-1.33663
33.8243
65.7883
107.037
47.4111
21.9691
5.21504
-26.7758
30.4277
11.7424
-16.4129
-36.7321
-58.4084
-15.4697
0.199572
-8.94164
55.0451
58.7938
38.0493
9.32857
1.48589
-45.0514
-10.4313
5.09148
80.2823
70.5785
-18.539
-45.4817
37.0339
61.1014
-66.0546
-54.4819
-15.4177
-38.013
-68.9712
-80.97
-3.85046
23.3167
-86.6376
-69.5977
6.28271
66.8167
24.7391
5.86318
38.7595
71.1495
134.053
-41.5941
-167.113
-165.847
-25.7515
44.0363
99.9422
127.696
116.03
43.6574
-15.9683
-16.7346
-36.9307
-63.6137
-22.2352
29.3802
73.693
55.0385
-61.1475
-81.0288
-104.24
-4.09282
62.5747
89.2076
189.58
190.685
23.52
-125.547
-151.135
-98.3683
-69.5323
-61.2083
-27.4141
-21.8142
-38.3843
-95.204
-86.1924
-2.05063
122.074
148.23
85.1769
74.5953
63.8925
-10.4474
-20.4392
-60.3138
-24.1043
32.0427
37.1995
69.7159
71.1869
-108.757
-167.181
-85.844
-10.5801
44.5587
-12.1786
-67.844
-90.0787
-131.032
-37.7919
59.445
131.707
176.158
95.947
33.3771
60.4892
34.0653
-46.2571
-38.7448
-31.7309
-66.8867
-23.7197
38.8582
83.1418
67.6616
7.04233
-35.8684
-76.3028
-71.1615
-10.1564
8.35981
10.4051
-7.70351
28.0745
-8.85783
-14.27
12.3613
20.9885
-5.1355
-21.7045
-14.3765
18.2977
-32.2967
-28.7661
6.74582
20.4648
15.3943
-5.23843
63.0408
40.4022
-37.61
-59.1363
-115.468
-80.2506
17.692
63.0204
125.512
110.436
-12.5379
-33.0158
-60.4302
-33.1257
38.9383
22.4916
45.8879
114.305
-8.08234
-97.987
-97.827
-26.3502
13.2079
-3.73187
-4.94363
23.2105
58.3303
-20.5007
-69.6716
-52.9723
-11.7826
-28.5535
-22.9668
-0.935629
47.8892
67.0876
-95.8713
-123.263
35.5021
138.259
132.55
125.764
102.94
71.5664
47.9746
-96.8303
-114.264
-72.7648
-100.25
-57.7253
31.6153
120.887
128.337
43.7744
-27.025
-94.7329
-72.2355
-62.4426
-29.4695
-32.7345
-54.7703
-110.283
-79.1418
-42.9217
-44.2591
-1.39889
15.3714
63.5947
86.9655
31.4049
49.9383
37.1964
20.5692
35.7899
63.6805
96.9349
187.134
94.0951
-39.271
-114.201
-130.843
-81.378
-34.5009
-21.4365
-45.4027
18.0492
21.3143
31.478
67.3647
122.406
32.2149
-84.858
-100.844
1.9973
-57.6491
-50.6929
-33.6893
-11.5839
43.6612
28.2041
21.9413
76.6904
0.658564
-37.7053
-13.1984
-20.9305
-34.7849
-48.2775
-69.2145
-70.2865
29.1159
82.9072
28.9139
-1.3511
55.5393
54.6471
27.1607
26.7366
80.8249
21.8048
-45.3845
-76.7393
-28.6406
19.7232
29.9147
-1.74012
8.44695
14.709
-62.9983
-76.1464
-57.9204
-7.22153
31.7956
4.05026
17.6796
41.5598
83.4782
4.30705
-33.021
-8.06854
-3.58536
-31.7742
-13.5835
20.5626
72.7744
-7.27398
-34.8223
-39.2968
-45.7744
-66.6599
-57.6837
3.79462
83.3297
11.7567
-11.4708
8.09118
-19.3582
16.0692
33.9229
46.8799
75.7976
2.72578
-18.5983
-17.8663
-39.0879
-8.79944
-19.4973
-16.637
56.4272
26.7176
8.58881
31.8707
36.0678
56.3134
63.3722
23.837
42.7413
-3.1883
-142.57
-125.423
-107.039
-61.2206
-33.7861
-15.9084
-12.651
57.5694
105.509
-51.2737
-98.1025
-44.2104
-37.1701
-40.8988
-0.441393
94.8131
187.258
180.773
37.1895
-6.13778
41.195
12.4201
-14.0228
-11.9655
9.70469
81.1703
-49.6941
-158.206
-163.81
-51.9303
-5.57981
47.3325
67.4496
85.1259
-20.6182
-80.1069
-106.836
-96.9099
-38.6603
15.8784
80.8251
86.0337
-4.13264
-8.34687
-10.4167
-35.2368
29.5688
60.8369
28.2059
123.009
120.994
69.9079
-65.1573
-78.2545
-43.8854
-41.0204
-50.8683
-34.7097
4.54339
46.0364
-7.01476
-29.0179
12.8889
14.6051
-6.59157
-40.8332
9.32209
34.8894
-57.363
-60.1457
-41.0031
9.88072
81.9284
70.6763
150.99
37.0065
-50.1665
-54.904
-44.0827
-44.5047
-0.650963
-7.63931
36.8727
30.9155
-44.4572
-45.0613
-43.6415
-43.0425
0.607878
-2.42497
-0.359587
61.3313
75.1076
-47.2993
-84.9215
-18.9176
24.7913
28.719
27.7702
17.7414
78.0689
51.8377
-45.4947
-54.7219
-9.99385
-9.62261
-9.34108
-8.2285
20.3802
89.7976
-12.1579
-55.1982
-54.2187
15.6188
-1.35281
8.22388
22.5765
30.0444
39.5432
57.5929
-25.5996
-47.5547
-15.5928
-12.5094
-9.19148
-13.2198
-8.73579
24.851
-39.5867
-87.3475
-28.8398
-2.55054
34.174
52.4583
53.6618
74.001
31.7243
-18.8552
-12.0916
-38.5285
-11.6805
0.856875
8.74769
40.681
75.5968
-41.3698
-74.7037
-83.965
-45.7533
-47.3232
-20.9792
-9.29501
24.6961
58.2118
28.4982
-21.1994
-3.30369
26.7111
26.8152
6.81872
13.848
73.4079
78.679
-87.0317
-104.057
-20.1727
-5.61054
-13.5472
-0.701704
45.6278
89.7612
-21.2251
-8.76503
1.1065
6.16746
26.4135
34.0324
45.4983
74.6737
11.8904
-56.9441
-81.0295
-66.6933
23.3904
-3.61078
9.01478
12.8307
48.7297
15.112
-141.181
-114.34
-2.23956
11.8842
-3.42587
-15.2286
-7.42497
34.2944
23.9374
-67.874
-22.2123
46.2637
23.3143
6.14372
5.37438
8.27241
90.1374
121.58
7.11878
-50.429
7.36986
-17.6594
-5.55483
-22.5166
1.97805
72.0589
16.453
-28.9171
-21.9904
12.9042
22.4226
5.21603
13.6185
26.0933
-58.5564
-63.3847
-90.1907
-86.7668
-43.1001
3.80444
69.535
37.0656
-9.17962
-10.938
-6.48252
7.65754
70.592
105.986
105.229
57.4832
-34.6089
-46.6051
-64.6445
-64.7292
12.8844
6.58444
-5.50815
30.7063
-100.986
-107.641
-65.63
-34.0693
17.4829
48.8625
32.7141
11.8937
77.3924
18.5567
-61.4896
-22.7308
12.9459
49.9822
46.0536
15.5764
31.2586
74.7753
16.7243
-159.295
-66.8424
-8.21129
14.5179
31.4332
45.648
56.8189
85.1835
18.0084
-50.7882
-38.4343
-6.03662
22.9641
10.0917
-27.5278
3.34994
-11.9676
-26.8224
-57.374
-55.1749
-0.649469
33.0688
41.5804
105.058
1.11099
-29.8777
-14.2251
-35.3585
-20.6354
-12.2029
1.38783
103.198
85.8436
-42.3516
-69.4954
-76.9309
-64.4734
-41.4821
-41.9341
-37.1508
32.4086
112.757
-22.7156
-99.6335
-24.0841
11.3956
12.2694
6.39773
51.1483
104.409
-5.65533
-32.9587
20.5446
103.099
87.1237
27.027
41.4276
86.9074
-79.1471
-91.0355
-56.8549
-72.1285
-42.1097
-30.8384
39.3013
71.2379
-41.5654
-29.4607
8.13913
32.506
67.4431
8.68451
-29.706
19.061
-83.9043
-111.787
-98.4084
-39.576
75.5943
89.897
52.621
67.8402
93.6289
46.4769
9.58357
-54.237
-27.9748
-87.6991
-166.748
-169.017
-29.5845
-9.8635
1.83542
28.0695
103.925
109.424
80.0376
-5.54133
-18.5375
13.748
64.2846
-0.744675
-42.2548
-3.89061
-9.35924
2.98208
73.7489
111.428
198.804
145.495
-24.8009
-60.6982
-70.7215
-90.2985
-79.3768
-37.7555
28.356
2.57857
-48.622
-65.8983
-80.2648
-56.0924
22.016
20.7312
12.1908
-22.7816
-37.049
-30.6032
-65.9777
-75.7456
0.60902
67.5627
129.282
118.961
22.0145
-32.0094
-85.6289
-52.4727
22.109
40.2362
11.1654
-16.5504
0.973552
-96.906
-65.4515
-40.6459
-16.4735
3.59379
14.0892
47.7967
61.9474
18.5648
24.4603
36.5752
122.823
159.756
100.58
71.6005
-43.9298
-99.4447
-97.8019
-95.0856
-96.026
-33.3054
-4.52395
60.2781
71.0235
-82.7825
-86.0105
-56.5964
-4.33526
80.3417
79.4586
42.2741
35.1586
114.278
20.3753
-103.06
-13.1882
-47.2838
-70.8337
-53.4835
-24.2398
70.0478
91.7594
36.9011
-29.0787
-42.6045
-61.6556
-31.275
-25.9431
-19.4211
15.4353
72.5793
-31.7893
-102.116
-57.9131
21.1483
34.3104
62.1751
86.2216
89.2266
0.610029
-70.7725
-75.7974
-49.5425
18.3754
151.251
192.872
162.915
4.91917
-80.8675
-75.1751
-85.2316
-32.793
-22.7223
-13.6791
-5.88504
-81.0555
-64.9231
-52.1731
-69.7842
-15.2921
22.7478
38.343
71.2164
1.99715
-32.8608
-43.9554
-16.0764
42.7103
61.7576
69.812
83.3377
82.5969
-78.494
-159.296
-127.203
-73.1194
-40.5659
20.1438
83.5105
144.083
82.8064
-31.0454
-87.5363
-13.3766
52.6456
18.928
-57.1213
56.9592
72.8959
-46.6322
-94.1336
-60.474
81.1409
148.774
74.357
34.2924
13.5636
16.5939
-41.7086
-123.852
-63.9385
6.45445
4.22774
42.6982
65.4636
111.634
10.3171
-103.007
-96.4607
-75.0922
-52.7804
23.858
50.0288
60.1223
116.283
67.9557
17.7235
-34.1639
-48.664
-87.6966
-117.943
-94.626
-15.135
91.1535
-19.0168
-150.231
-85.0865
7.11249
39.7774
57.509
42.6403
31.2724
-18.7997
-37.3365
-18.5797
67.3527
68.9187
21.9212
30.3365
45.5394
-53.5334
-18.7341
11.7963
-18.7879
23.8915
78.2242
143.589
104.038
-11.9673
-53.2342
-14.0934
3.44879
41.2334
2.2951
-26.6831
-26.7425
-84.9986
-62.6775
-77.4602
-95.8253
-36.2804
19.4739
-5.18138
11.33
27.2455
35.0608
67.745
40.1122
3.1084
-16.6277
-13.7213
67.7958
46.541
-25.9186
-162.811
-135.947
-40.5913
25.39
43.8815
45.6593
106.899
92.8448
-52.7993
-103.392
-17.2765
20.7499
14.4419
26.2767
59.8636
88.9926
102.74
-18.7696
-74.066
-29.0525
40.0437
-24.8728
-87.453
-61.4333
36.2641
-9.24096
-79.3916
-61.2764
61.5083
79.2672
22.0929
9.86802
12.7388
-109.278
-125.447
-126.948
-105.145
-67.2898
32.7385
79.7379
150.929
133.165
117.582
83.9863
54.557
126.391
127.756
19.708
-81.2582
-106.187
-73.3256
-165.972
-115.483
99.0355
170.074
133.117
72.7143
19.3211
-12.549
-100.84
-125.019
-73.9429
-21.2236
-29.4222
-52.1846
-19.1682
-21.1533
-90.1994
-70.6208
-19.5516
24.219
104.331
39.5943
-7.56875
5.76445
36.4871
14.5559
-19.0994
-55.7897
-33.7315
-24.2016
15.8431
47.5191
-25.7807
-88.9293
-66.196
6.45592
92.3638
105.174
94.6993
71.1262
93.6101
-27.6437
-108.605
-69.431
2.12159
55.6159
66.3312
65.2824
113.806
152.022
46.4962
-89.0977
-102.635
-106.884
-112.134
-106.295
-70.5837
-13.3983
3.20015
45.6047
37.7037
91.9896
75.7422
-30.3587
-80.0287
-76.137
-64.7811
-9.44948
-31.8445
-55.2566
-23.4394
34.4771
61.0692
35.3661
51.3554
19.4828
-30.092
-23.5383
-24.648
-19.0736
14.5193
44.2195
143.415
139.451
115.641
80.6772
7.82064
-17.4025
-66.5413
-194.254
-84.8624
-41.8349
-50.3164
-26.8727
-57.6801
-24.214
24.8854
26.4746
63.0877
84.3058
17.3497
-47.1065
-89.9373
-33.3085
20.1588
-46.2122
-53.8718
-7.54319
3.43188
63.7139
22.0362
27.6517
73.2225
75.0379
18.4467
9.62426
31.4132
-43.9745
-61.4509
-35.5178
-21.2012
-16.1414
-19.0225
10.736
68.4563
116.926
31.9714
-10.2635
30.0267
61.1493
49.2878
29.3892
39.2285
60.3355
-125.302
-232.819
-194.068
-125.755
-85.8704
-49.452
9.88296
88.1917
68.3863
35.5448
35.1336
74.1242
87.3941
43.6807
59.1075
92.0054
52.8282
-127.04
-176.864
-157.551
9.10281
44.6291
54.8249
92.035
102.549
115.805
-31.7151
-78.452
-49.6668
5.07732
20.5118
18.3812
21.6245
21.4667
-40.7641
-116.436
-108.014
13.0715
40.6775
23.6083
57.6924
115.856
23.8113
25.8271
-38.9011
-107.824
-45.4195
6.14494
64.2909
28.7376
-32.9451
13.6893
-37.1462
-101.227
-79.4642
-81.1891
-20.9627
62.3085
-32.397
-10.6827
4.99392
1.91647
67.4858
74.6446
77.0573
101.707
19.6523
-17.4299
-26.1791
-26.7352
35.5272
17.8563
59.7081
63.7297
56.3817
52.7543
43.0618
-48.9482
-28.9907
-74.445
-66.2937
-119.669
-108.536
-64.0879
-61.7315
-82.8692
65.2775
113.137
65.0747
73.2233
40.1657
9.16234
-3.93843
-39.3922
-91.265
-150.014
-161.784
-40.4808
74.1528
185.672
85.9723
73.3405
109.131
65.4593
-18.3208
-31.2045
31.0299
83.4901
10.2598
-46.7542
-64.6323
-64.7011
-33.6963
23.585
65.0939
79.792
32.4969
-68.9911
-78.9387
-73.299
-40.8007
-76.2344
-110.765
-73.8062
43.3834
-12.3529
-62.7356
-74.6565
-33.2722
16.2073
37.0715
111.777
206.279
129.343
126.553
100.41
20.2729
-83.701
-153.971
-55.0141
16.9035
-15.5027
-3.40479
-13.0236
-38.8356
17.105
14.4474
45.4516
144.636
16.461
-87.9072
-71.2727
-57.0421
-9.79873
-14.5
-15.0152
11.8973
122.983
91.0671
-91.1523
-94.3833
-44.4441
-22.3108
7.02596
-4.80376
17.9706
100.547
81.3938
-110.249
-56.1069
6.88235
-20.505
-60.4472
-39.5906
-19.1802
36.5919
71.3418
-28.9486
-0.333159
23.3912
37.3089
70.4594
-11.1114
-69.1431
-76.2395
-88.2843
-52.2601
-26.7452
72.1413
110.354
100.885
163.941
81.4176
-49.4773
-43.2283
-95.1429
-79.7668
21.6765
71.7956
88.8434
-52.6318
-71.6202
-45.6782
7.24479
20.0284
37.7358
19.7197
4.96459
-7.60028
13.9094
14.1213
-80.0098
-25.5658
46.1656
57.518
46.1784
-13.4811
-72.9599
-142.715
-101.95
1.69727
40.3223
28.8737
-45.5408
-53.07
-28.9273
-28.1083
43.1911
123.221
73.3438
48.9495
19.8397
70.8609
-9.77466
-129.652
-121.746
-49.4379
41.2628
119.453
67.5792
31.4364
47.774
120.417
68.9932
-20.0451
-30.5696
-59.0718
-147.983
-218.108
-138.91
57.133
106.861
25.9082
0.0693092
87.7082
52.0944
-33.5189
-11.2418
52.1773
40.6202
-19.6463
-65.9393
-108.418
-32.9331
85.6361
128.446
96.6717
89.8596
116.378
56.1866
-45.5501
-121.034
-138.384
-33.3541
0.584661
-25.6564
24.8856
-10.7686
-165.98
-90.1308
-25.2404
-44.9033
-75.8613
-34.0639
55.6276
94.5559
63.9812
8.27784
37.3461
67.7544
17.4925
8.01256
40.9395
-3.93421
-25.0841
42.1092
53.3506
5.77675
25.6101
6.38186
34.0538
-59.3027
-62.062
-19.3756
-64.8715
-79.9603
-26.6303
37.3389
88.6018
47.5154
38.5756
38.2181
5.7109
59.0164
13.7284
-48.8374
-5.21451
5.91479
-11.9626
-127.145
-103.777
7.94032
67.7256
81.2708
0.488
4.79648
81.7072
11.205
-155.577
-191.852
-76.1308
25.6511
74.0958
125.093
131.17
21.0307
-86.2472
-56.0202
12.0671
17.7281
-9.67759
-18.9061
-43.0051
-8.98093
7.04244
5.99576
1.01499
28.0593
81.8719
79.2646
36.1433
107.953
18.1643
-155.02
-160.228
-8.76291
100.376
90.3447
8.9822
4.26657
36.0442
-85.7432
-107.223
-89.1101
-62.1861
-38.698
-33.2615
1.82353
83.0946
162.45
-3.22985
-72.5992
-43.4535
-26.8653
32.0119
55.5525
30.8314
42.2418
-32.6878
-42.5564
-4.84557
116.068
105.047
-15.2303
-16.1545
15.9668
-61.0931
-71.6978
-57.2411
-58.3728
2.50519
-15.0341
76.4454
151.684
37.0833
-39.5125
-85.6998
-61.5508
30.404
45.5343
17.1412
-10.8594
-13.9292
37.395
31.5543
-8.22005
-19.9292
-15.389
-22.293
2.91128
29.8564
-82.7649
-93.6502
-104.695
-21.2007
3.52945
3.17193
8.27556
51.8414
78.7703
-3.10913
-29.7317
13.4459
38.3019
-8.79353
-46.8025
12.2376
56.2355
77.2415
-60.1418
-76.6619
50.2146
122.986
103.542
72.8266
75.0218
32.121
-130.727
-175.32
-137.82
-59.9775
27.2771
86.5518
153.778
153.019
-22.4132
-86.7198
-56.0698
-40.4948
1.03054
-8.15195
48.2273
66.681
-75.7478
-65.213
-76.2605
-106.081
-18.3149
17.5327
26.269
39.1061
101.728
-37.3974
-89.5264
-94.3424
-46.9062
-18.5775
-23.2093
-7.48975
44.7114
135.664
71.0652
77.8847
204.647
119.158
37.8439
9.65166
-30.6564
-65.8479
-195.427
-186.392
-102.11
-24.4148
-46.2991
-52.593
65.0984
192.208
113.687
40.2534
48.7617
18.6088
-18.4726
-73.2538
-64.0034
-48.1248
21.3217
120.209
29.8555
0.0860611
29.5774
-8.96279
-118.12
-103.269
-4.35118
45.5623
-38.5899
-109.206
-20.1309
27.8772
7.84087
-8.03906
28.1676
68.8718
81.7474
38.7378
15.6027
-47.6511
-1.85562
-6.31366
40.9594
25.4782
10.5725
-34.1433
-84.1987
-20.5333
72.5418
103.617
36.6952
0.599711
14.9436
-23.1489
-109.157
-114.709
-81.7437
8.11472
8.56522
-58.681
26.4172
49.1165
34.2324
39.9374
39.1198
3.52381
-53.7941
-50.4756
49.7605
33.9946
-6.0128
9.00036
6.60084
9.04703
30.8216
27.1103
79.044
35.9157
-11.8364
-31.8937
-62.2604
-55.504
-30.5715
-18.5432
-54.8696
-17.7828
48.8833
-60.2691
-18.6832
53.9327
67.1557
75.393
66.9284
56.2616
107.077
59.1161
-145.245
-166.38
-92.3071
-61.6351
-43.3149
-27.427
0.0262112
72.7064
124.674
40.2539
-109.525
-5.99407
-0.615811
-42.099
-0.766772
-7.20901
30.1617
84.3578
-38.7336
-37.4911
57.4051
71.1104
5.66469
-45.5386
15.0908
118.441
53.3525
-8.4723
-66.6813
-6.55136
72.2016
71.1575
-8.96542
9.31258
-47.0343
-123.968
-115.809
-125.693
-51.2617
-38.3476
-7.21226
60.377
158.983
122.226
3.20328
-142.695
-113.29
-63.5362
-5.21497
38.9667
25.0559
34.4738
23.567
-76.1472
-5.96515
84.9198
77.1625
45.2922
52.916
81.8361
13.8678
-21.443
23.6295
66.0315
55.9784
-9.36663
-35.6622
-30.092
-21.5274
-151.002
-88.8387
-60.6439
-63.6729
16.9175
43.5564
84.5203
19.1639
-35.4454
-8.95591
-19.8174
37.543
53.9825
-12.9669
2.74055
53.6736
-38.8309
-30.5361
4.58988
-22.2088
9.57105
-30.2616
-21.1357
7.15159
51.2685
73.3428
-20.0016
-30.7158
5.51172
-1.1774
-4.19437
-13.529
-36.9783
-19.8817
20.8578
-29.835
48.1358
44.8742
-2.01571
-37.4295
-32.4584
-49.5896
-1.56508
-59.1928
-44.2054
6.4128
59.6642
96.2266
82.7416
85.9127
118.811
90.8145
-29.8887
-104.223
-127.587
-82.7714
-22.5245
-10.3246
68.7464
2.33262
-65.3661
-32.8111
-43.8188
13.5556
67.0519
35.7194
21.4228
51.8194
1.86785
-35.6393
-27.9667
-16.6204
2.27683
2.11869
-9.93124
-33.1411
22.0059
48.9301
-127.823
-152.074
-27.8622
66.0879
124.551
82.1359
1.56038
58.1776
34.7696
-52.1651
-16.3629
-3.00885
-56.8354
-29.9133
2.00476
23.823
17.7916
-4.88058
-11.0139
-16.2344
29.4258
42.2022
48.2601
81.6823
43.9771
-6.50327
-50.9185
-79.1839
-63.316
-26.7469
-13.5874
17.547
83.8285
202.848
151.807
-95.5091
-175.721
-159.542
-127.949
-89.4886
-56.239
-20.6255
34.2218
81.1467
12.416
26.1191
73.33
12.867
-24.0795
14.3614
45.8304
63.8101
40.1634
-94.0598
-58.4042
72.2776
80.3048
82.2136
24.5406
13.8107
102.511
83.5046
-30.5477
-173.67
-162.61
-112.824
-95.7935
-36.3327
89.6189
64.3522
43.1949
2.95962
-81.6792
-78.8046
-52.191
48.6686
166.994
137.196
88.7118
43.1251
-31.5588
-57.0919
-47.1094
-11.3698
9.89417
-34.6444
-44.8645
-30.4433
-21.515
-14.1843
3.17031
5.6898
28.3336
82.2883
46.0671
5.52773
-83.5751
-56.7479
-20.92
-43.2158
-22.4466
46.2945
50.8741
-70.3551
-68.752
-45.2322
-15.4865
-42.7917
-0.578586
169.437
228.86
97.2312
-74.1362
-94.1141
-62.7471
-13.3951
4.10198
-10.5401
-14.5469
29.7082
-60.9547
-61.3492
-23.0958
16.6986
48.4165
49.5749
101.757
120.922
-14.7175
-70.9732
-107.842
-14.386
89.0078
57.8761
63.465
90.8757
-47.7083
-105.001
-61.3921
-70.4753
-55.605
-84.0394
-84.1042
27.6925
82.7008
-20.0469
-7.27125
-45.5516
-14.5555
45.3187
34.6788
24.909
122.278
25.1569
-46.157
-41.5349
43.068
64.2248
36.36
31.1352
113.593
31.0796
-135.215
-113.208
-92.8732
10.652
-29.6629
-60.9088
14.3288
-50.8095
-52.9854
71.4808
98.0721
66.0602
21.0321
63.8519
41.1086
-34.0304
-75.4236
-70.7497
-71.0289
-11.1374
84.3413
31.1659
69.8391
81.7489
14.7892
16.859
-30.965
-60.6797
-76.0395
-72.1312
-66.4772
40.1066
30.5845
-114.574
-83.5806
-11.5471
57.3746
90.156
105.965
82.5525
99.9329
119.635
-68.7233
-128.622
-78.6612
-15.26
5.02983
14.0495
42.6065
83.6022
7.12726
-35.1383
-49.304
-94.1181
-62.7277
-23.6859
-13.612
-1.25608
-47.6427
-53.8159
10.9858
-0.969306
27.4668
47.4518
76.5972
118.424
42.708
26.1894
7.44184
-80.2493
-57.5067
33.6936
122.779
129.491
45.4888
-62.2877
-79.1678
-57.6307
-52.327
1.74097
-27.846
-102.089
-72.4159
-0.118979
-59.0033
22.6662
92.2608
66.2979
36.6043
-0.516922
16.0606
88.3807
11.2874
-143.409
-107.081
8.48435
60.0922
-19.4673
-26.8845
31.5883
10.0459
-82.2033
-32.9724
10.5757
16.5839
-2.81305
37.2994
105.282
42.2614
-28.415
-38.2658
-37.6729
63.1946
194.53
115.032
33.7798
-7.23779
-129.173
-155.19
-118.615
-14.8286
76.6479
21.3098
-22.366
-8.01699
-44.8375
-136.664
-92.4498
20.0062
103.83
89.928
29.9687
-4.00038
93.3378
112.842
-70.1826
-125.391
-39.5914
16.6633
57.7348
13.0191
-21.6058
5.90264
50.9476
-13.1197
-21.6411
19.755
17.3196
10.9848
-32.7537
-28.2033
8.41751
-20.8755
4.26173
19.9377
43.6483
18.5945
5.71583
17.9727
-38.8879
-118.3
-77.8027
7.16842
71.4734
79.0456
22.436
96.1995
-8.25838
-82.7656
-75.6901
-33.7445
-12.5812
7.40094
0.818288
79.7959
61.5575
-91.7578
-104.214
-58.7597
4.96732
52.3888
27.6728
19.9955
22.4113
22.2792
-9.0621
-19.916
25.3711
40.5199
22.9054
-27.0088
-46.8881
18.5358
-39.7758
-54.8073
15.9283
100.042
86.5809
9.12282
10.5522
39.7878
-28.1337
-28.1562
-77.4542
-17.9253
21.4678
-0.103225
1.117
17.4113
75.1771
105.62
8.8972
-32.7335
-74.0836
-96.6238
-58.7942
4.22046
50.5793
93.0728
-41.8746
-81.2941
-26.2528
-85.416
-92.0901
-55.2136
44.7957
74.9945
41.6178
-44.4466
-38.8977
36.6933
129.44
49.6661
25.3688
51.5702
84.784
69.1896
-34.0828
-102.53
-85.5982
-69.3782
18.5091
-16.4455
-18.2077
13.8306
-49.6154
-41.5947
-18.7373
30.735
35.0531
-5.85995
-12.9696
35.6913
30.8549
45.9928
24.9749
11.2143
39.7739
42.1152
77.0376
48.2896
-111.296
-85.128
-39.969
-67.9681
-38.7043
-46.2598
15.6155
90.3488
27.8599
70.3416
45.5924
17.214
33.6949
0.28528
-26.7937
26.4192
24.1087
-131.202
-118.86
-79.6096
-9.56958
-27.7778
-42.0622
-5.04354
121.056
68.269
-10.9984
-19.5052
32.8847
44.7318
36.6409
-26.1311
-58.2853
-46.312
59.9643
-33.5775
-96.3981
17.0361
46.3557
-8.58364
-9.08164
16.2457
84.0279
51.9228
-26.2752
51.9858
69.8809
89.0747
37.7283
-34.9162
-0.310485
43.7741
-74.7935
-85.5846
-116.377
-102.146
-67.794
-15.9004
83.7571
115.247
95.9838
7.43134
-67.0831
-82.15
-63.375
-16.1945
59.3157
67.6603
84.0627
-40.3595
-90.4138
-54.4199
-7.02402
-21.0362
-48.6902
-4.8528
75.7699
131.97
4.10032
-118.27
-97.6575
20.1539
102.919
119.605
68.2443
62.3618
26.1425
-92.7641
-101.844
-53.5952
-48.9662
-23.4716
17.7959
90.5041
100.466
23.9204
29.0087
-50.9278
-65.3818
38.5724
11.1948
10.5617
-55.6212
-129.837
-131.011
-119.875
-43.8202
30.3871
34.9816
91.5989
150.118
104.705
34.6009
6.07755
21.656
18.8755
-13.2934
-13.9753
-0.938214
40.7516
-3.5289
-105.534
-101.584
-67.3048
18.2381
96.4969
129.92
105.81
100.272
7.73714
-110.978
-120.532
-45.3337
-38.1381
-58.4432
-41.4407
-58.2482
-19.2592
53.0037
-32.1357
-8.23424
50.1786
31.2462
18.1386
16.1723
-18.3219
-33.7316
-31.8542
-49.2461
-8.48855
75.9306
146.819
127.157
50.6548
-34.0325
-60.6776
37.4589
47.2104
-50.3125
-51.19
-22.429
54.5342
118.177
6.24944
-119.379
-82.941
-78.2388
-33.9864
-35.3017
-34.7372
-23.6534
39.6764
38.848
-26.939
-0.157089
12.3462
-36.9023
-58.4849
-29.5147
-12.4264
37.5228
-12.3006
-14.1625
99.5108
115.727
14.5707
-28.6422
18.6834
88.8726
82.5944
-49.1683
-63.1932
-3.18937
78.6108
67.0291
58.6445
22.1066
-33.6533
-97.7485
-70.4615
-59.4804
-69.4136
-48.8417
8.28211
25.6931
5.58813
22.141
-36.0329
-61.6051
-23.3123
58.5899
93.732
51.527
-4.01901
37.89
57.6056
-64.091
-31.041
6.83737
9.51364
-44.9969
-92.984
-102.623
-65.6345
18.6456
10.7261
43.9755
97.3834
15.6858
1.75154
73.007
29.4172
48.974
21.5824
-69.8207
-90.6069
-28.867
-72.4966
-41.6691
-8.47354
105.978
169.38
46.5379
26.5889
24.708
24.0686
-58.4213
-45.3621
38.1011
-6.98433
-44.2421
-64.6606
-75.3517
-47.2699
-33.0897
7.16843
132.404
135.474
63.2086
-29.1315
-82.3446
-130.845
-62.7573
-35.083
45.0454
19.24
3.58638
-39.3895
-32.9891
20.9016
12.3195
53.2342
84.131
95.9229
121.153
-78.2875
-127.701
-129.428
-77.0245
44.6743
2.13057
-27.0401
91.9241
36.0712
-97.7759
-37.5588
17.0487
57.8825
46.5787
45.8337
62.4189
40.0072
2.47988
-10.1678
76.1574
142.195
-1.72413
-72.4694
-100.215
-74.8735
-36.5095
-43.905
-117.686
-101.889
-65.7132
-2.09193
97.1485
135.622
135.873
36.9306
-36.4382
-38.9275
-49.2842
-23.0393
-43.2586
-42.1533
11.8243
83.6596
47.9376
-80.3438
-95.7758
-26.0958
29.222
71.3289
107.17
129.178
93.7798
-43.7422
-166.027
-99.4032
12.8456
36.461
6.62914
-6.35088
14.7925
-4.013
-64.5054
-54.5248
15.2854
63.3066
48.4185
17.5091
33.2288
-48.5915
-84.5061
-28.1223
12.9656
82.8201
93.2989
89.722
57.4305
-92.0633
-91.5886
-80.3899
-103.74
-42.4637
74.9398
74.0187
61.5396
-10.5666
-16.5405
-40.0013
-36.5651
78.7074
63.0065
8.71023
11.192
31.5701
-36.5008
-120.551
-63.7072
26.7369
16.9332
-11.7695
35.38
75.0812
89.529
-9.20139
-162.32
-84.4212
-30.7663
-7.76624
-47.2796
-38.9083
-28.1062
0.343806
23.41
21.8348
77.3835
137.562
110.277
136.568
93.6633
24.4528
-26.4482
-113.318
-140.339
-109.25
-24.2714
-20.3909
-18.3216
63.3824
220.148
154.77
15.2174
-91.7584
-180.317
-121.551
-53.9987
-23.6152
3.16295
-32.8908
-6.97835
23.5776
-15.0106
6.64323
22.9828
11.7815
40.0377
97.3732
52.1327
-112.826
-178.815
-107.102
11.1391
105.61
87.8002
110.82
105.666
-34.6532
-59.9533
-24.5511
4.34322
18.0737
28.0423
35.4541
31.4011
-42.3386
-5.71624
7.40616
-39.2895
-25.4459
-14.4115
80.6549
94.3823
-64.4285
-33.0032
-29.3082
-42.4782
33.013
29.4365
104.532
98.9935
-48.9464
-102.535
-113.674
-130.879
-49.5887
-6.96833
-1.62419
61.9041
202.94
102.634
-106.361
-128.038
-66.6743
-52.0771
-55.1597
-12.1282
2.81218
20.2669
83.9644
-39.1166
-4.92814
56.8865
150.76
170.705
125.669
12.9647
-37.5562
-94.7576
-165.203
-137.54
-60.6942
-19.8839
86.8049
90.4141
71.7938
-29.576
4.21223
-9.6786
-64.1577
1.93498
83.7048
113.711
45.1536
-113.701
-113.674
-31.4753
-4.79873
15.0967
-5.16352
44.651
82.9098
-32.4587
-66.3028
-50.5509
-21.9452
79.6954
42.5332
-12.4129
14.9355
1.33925
-43.592
-58.8684
-97.0008
-45.0809
19.895
29.8209
48.84
114.813
53.5488
-90.5968
-85.8162
34.864
47.7433
6.46217
-3.81263
43.1633
120.837
-16.2941
-82.0171
-26.862
-11.2214
21.2671
19.4798
62.5292
65.2204
-7.88725
-10.1725
-57.3924
-72.3961
-52.2228
-16.0335
-31.7245
-31.7138
23.9276
-17.6298
-41.9042
-69.0282
16.9488
20.1621
79.0008
110.196
125.853
18.1418
-54.9184
-25.642
-6.64662
-50.3604
-46.9816
5.04927
65.7281
60.8502
-5.85221
8.82129
-58.8529
-68.9125
-30.4602
18.5162
128.355
138.457
100.668
-84.2888
-227.674
-207.677
-110.295
-31.029
34.8278
14.0363
33.2293
-7.13721
-4.39492
85.8261
157.004
68.6214
34.1231
67.5749
62.7421
-47.0266
-113.32
-135.799
-42.5228
80.674
93.7726
235.955
128.247
-83.9237
-136.289
-86.993
-76.1932
-30.7818
-27.8351
-0.104943
-108.593
-112.279
-49.0282
-29.5437
-31.8429
76.8115
127.97
166.071
113.428
70.4928
46.6893
-68.6303
-113.081
-60.9927
-27.4435
-24.4637
37.3365
66.3453
-25.973
-91.8229
-59.2251
-16.4791
-1.30263
-11.8693
37.1744
118.484
145.819
5.34016
-78.9339
-61.1082
-19.2242
1.07776
21.2156
23.4652
42.8235
131.502
8.2055
-100.884
-57.4338
-69.8377
-49.5658
-8.43031
-4.89305
44.4365
93.8294
-19.7792
-139.907
-115.251
-26.5869
19.4261
40.6212
149.799
93.2164
19.684
-19.8666
-70.8841
-58.8288
-38.5112
-44.6284
11.6301
-1.87513
45.2114
56.7275
29.5462
14.015
49.546
73.1412
61.3407
18.7816
55.2602
-47.8738
-144.958
-80.6382
-12.7143
-31.4814
-59.1816
-18.7522
52.4246
-4.44117
-90.6286
-4.01324
28.2551
60.5045
70.683
60.8952
55.8804
-64.4472
-64.1052
-13.1318
-31.1155
18.2067
29.1213
39.6666
79.9733
-11.6606
-49.8159
-50.3957
-41.8452
-5.37463
20.5096
67.7456
96.2587
-8.65233
-44.7716
-107.563
-127.771
2.6883
122.404
82.8053
-18.5772
7.04132
50.2147
-27.0406
-96.1502
-37.9915
-19.2301
-21.1546
-9.56365
21.0481
25.5613
75.0919
-2.5333
-18.6772
14.6459
35.4315
14.4408
-2.15031
-32.7065
-3.45084
72.7605
48.2956
-70.6391
-11.0187
41.336
44.3428
13.0567
3.15976
52.874
-9.94774
-127.423
-159.45
-123.92
-11.1384
20.458
24.5207
76.8208
77.4082
38.8696
7.43777
-18.9577
-0.186272
32.7763
11.6213
5.44396
13.6385
-63.9094
-60.0986
-68.7615
-41.3052
76.6051
94.9312
69.5434
113.185
44.7964
-66.561
-101.916
-97.5364
-74.3553
-25.6101
27.5477
48.296
87.4257
83.3863
-43.676
-67.1816
-16.4589
-7.52588
-26.0823
-6.84644
38.8676
1.92131
26.5344
5.50133
-56.8567
-28.8579
11.2833
81.3896
184.285
123.838
13.6264
-92.83
-129.069
-125.942
-50.9585
-45.0906
-45.2201
-2.39002
46.0175
39.2738
42.4832
30.5796
-30.8499
-60.7011
-5.90733
81.4498
85.5652
-21.3745
-84.3314
-26.8333
35.6354
-3.99933
-6.22294
61.5446
109.079
86.1399
-28.7615
-73.451
-130.89
-162.764
-152.996
-42.1125
52.8909
163.702
51.62
6.03491
16.6281
88.3618
111.512
52.5958
-4.66786
52.0886
-51.1221
-72.816
-53.0385
-32.634
42.6162
33.3545
33.3752
37.5956
-26.2296
-52.0351
-45.6512
-77.4867
12.2942
40.964
-11.5638
-3.76112
-86.8208
-16.2975
28.9522
-19.122
6.93717
-4.17105
38.2854
59.5772
-39.48
-12.1147
-20.5146
-7.10641
32.3102
21.8526
-4.97253
39.0347
44.6761
59.1201
-8.51537
-42.444
-43.3242
-83.0158
-60.4723
5.87888
193.467
192.053
-93.4155
-182.834
-58.7425
-47.9644
-29.6368
-15.2887
-3.46557
66.4336
99.1029
-29.668
-27.3616
-4.59198
45.9353
39.5823
26.4584
48.5943
98.8794
28.3621
-63.7812
-115.922
-29.5435
2.60084
13.6852
20.5096
36.9079
-38.003
-6.31479
-44.3852
-116.347
-54.3758
-25.7984
-20.1378
30.5718
-2.2294
79.6802
73.0816
16.4175
45.7828
12.6879
-1.24998
111.034
74.0385
-46.8261
-77.6852
-97.5278
-49.2746
-45.6591
-37.3109
-5.5774
106.73
121.914
10.9014
-14.8406
-31.8978
-30.4597
-1.90422
-15.0568
-15.8725
-64.6033
-69.7853
-57.2571
-7.05863
83.1524
106.379
107.191
173.721
8.98146
-120.784
-115.361
-137.729
-99.3459
-15.5446
15.0791
78.5261
-17.8036
20.8542
81.5537
24.3576
34.1172
36.1523
38.3151
58.8346
55.4413
-73.5522
-130.59
-125.289
-27.19
81.8617
54.401
11.6427
38.0252
97.0029
2.5485
-36.3836
-6.29443
-50.5047
-87.9707
-38.7163
32.8332
77.7105
91.5405
-66.2948
-110.036
-25.2055
-18.242
-34.8058
-16.6746
-8.20338
46.4917
166.522
17.5453
-102.934
-44.1883
25.2636
61.3519
43.0709
27.7353
61.5689
-38.5964
-81.0185
-127.378
-55.6775
2.46121
33.2596
90.2183
43.6045
8.1773
37.8581
0.142296
-92.3102
-17.9345
18.5169
50.9388
-2.56992
-12.7692
7.42571
14.6821
-25.6142
8.82064
-3.91042
37.6513
91.1675
-4.9597
-57.5567
-76.6132
-47.8734
-34.4375
-31.7265
-10.7156
24.5656
104.502
53.2327
17.793
-22.1715
-55.9339
-12.8098
38.8794
51.8619
12.5025
-33.2409
-76.8343
-96.8406
-10.9226
85.535
102.264
72.1737
20.3418
-51.8952
-100.955
-109.462
-44.633
47.3799
33.8356
57.553
86.9906
64.602
-62.4335
-93.9429
-17.4971
31.4584
6.53589
-5.65293
16.751
-14.4453
-90.64
-67.962
-3.11565
62.9626
74.6484
34.1411
30.5625
66.2288
-9.44837
-61.3864
-39.8951
-21.1522
21.6839
10.7695
16.9087
18.3693
48.2798
3.41526
9.45904
-0.0840156
-21.0902
-45.0123
-72.2866
-37.4591
18.0632
-51.7181
-26.2031
-22.6174
73.309
133.517
105.484
52.215
48.6415
-87.7931
-76.5833
-15.4086
-10.4771
3.23463
-15.6967
-42.8389
-38.321
-65.7449
-16.6639
15.9513
10.977
42.4484
-12.6497
9.62271
60.7151
-29.4024
-21.5183
25.1803
75.7825
31.293
-10.3342
-22.092
-26.9635
50.7463
19.7292
-84.3716
-91.1558
-121.729
-138.198
-80.9302
8.80382
91.7884
70.6653
-62.0269
-90.1124
89.6631
180.499
176.505
86.2502
110.054
112.649
68.8863
-58.3931
-99.1064
-97.7463
-38.4273
4.51397
54.0908
64.3953
61.0906
-29.272
-133.461
-81.0163
6.82154
30.0771
-5.35539
-68.6893
-64.5008
-82.8697
-64.6357
-46.2784
13.0717
38.8167
25.6438
59.8862
30.0632
-80.7019
-20.5598
36.3591
22.0185
0.203025
24.6279
58.5475
172.867
73.3254
-83.0077
-191.577
-138.348
-30.1996
29.6592
44.4665
1.15795
37.8614
4.51064
-68.4165
-0.842193
75.3095
48.1874
23.0668
-4.16407
37.5384
17.7552
-61.4159
-97.0434
-3.45987
133.593
167.441
42.5483
65.0736
93.0538
-61.6545
-105.912
-97.6124
-32.9585
13.067
50.1084
126.441
50.7229
-82.0425
-114.145
-155.56
-125.909
-62.8469
-35.6302
39.0154
94.5915
-5.45539
-10.8839
-22.1754
-39.6491
45.5549
65.3225
27.577
50.0496
126.293
13.7497
-143.236
-92.6732
-24.6818
1.09063
9.43519
26.0548
81.2567
76.4175
-69.0629
-116.394
-29.9167
40.9338
60.7377
36.717
41.9078
87.0994
16.6007
-0.969233
-53.231
-80.0022
-41.77
-39.8445
-26.7478
54.437
123.996
139.588
67.2762
-13.9507
-7.0634
-53.8491
-21.3229
21.9839
-62.7872
-26.3281
-4.39834
-63.769
-71.8671
-91.2757
-88.4754
3.97447
14.8495
36.8017
59.6264
-24.092
-55.656
-56.4765
-37.8212
75.4872
125.821
106.435
-7.11012
-34.0867
27.1186
16.446
3.33698
0.819706
45.4653
-17.9986
-115.831
-70.2677
31.7622
93.7092
54.9437
7.43729
31.2849
-19.1324
-23.4808
-57.1161
-30.966
-12.1157
33.4288
20.1515
57.3266
93.3988
0.763561
-80.3879
-65.7564
-18.8118
1.09481
-17.0551
-0.50972
-2.71825
50.4662
11.8729
-71.6217
-76.3205
-34.1442
-27.562
-34.1719
-30.8004
65.8742
181.375
124.391
24.5075
-26.0677
-64.9603
-91.5076
-59.2836
-6.61406
13.9863
111.397
16.2215
-90.2938
-39.3795
-25.2604
1.2572
19.7062
20.9
83.0213
128.044
5.96019
-76.9534
-70.8518
-44.5042
-10.0733
36.6199
32.7311
45.7234
-5.5333
-27.7672
-69.8766
-83.6291
-59.7748
13.4603
146.713
165.872
-30.6102
-69.954
-52.2664
-69.1366
-3.73899
-8.42585
53.2383
16.8531
3.05751
35.3432
20.8866
-19.8832
-2.82532
7.5813
26.6792
-44.5526
-31.5287
-38.0615
-69.9252
-42.5693
66.1426
62.5305
76.1069
105.348
20.6669
-131.462
-146.456
-85.9416
2.19941
78.7483
96.4757
145.793
158.744
38.3527
-154.668
-105.241
-80.3774
-80.1636
-85.0873
-90.711
12.1351
89.3256
67.2404
22.4513
38.7186
98.4074
86.127
52.8888
25.2328
14.1391
-63.8123
-105.041
-103.741
-54.6221
27.7556
34.6425
30.5554
-26.5145
-51.3614
-10.3038
2.79017
-29.6429
-14.1325
56.9755
106.317
75.9806
38.7483
4.60852
-36.0421
-74.972
-45.2686
-69.3288
-54.449
25.0677
133.433
104.533
-86.609
-38.4196
27.5986
-20.5387
-42.737
-42.65
-22.4702
14.9202
-77.3899
-60.1684
-15.3968
42.6868
72.2741
59.3137
60.8674
111.496
70.6951
-15.1613
-100.231
-57.8609
34.4538
26.5553
58.2589
41.9597
-76.6853
-70.1651
-62.6261
-86.2068
-5.05923
59.9707
76.2413
66.5642
10.2795
-22.1897
-13.7715
-52.8549
-23.5759
7.10564
62.8159
-3.51916
-80.7962
-117.362
-95.749
-3.24399
125.848
119.229
57.665
11.9221
36.6071
-8.78719
-43.2624
-6.77335
-24.0674
0.807106
-8.22957
-42.4726
-4.47838
63.7345
-24.1386
-68.1649
11.7544
46.6465
17.1611
-50.993
-65.8727
-52.7282
43.2096
53.2701
1.07771
36.46
53.3806
67.1164
53.6197
10.1096
8.77605
-42.0807
-76.7253
-116.569
-85.3968
-3.27689
26.0645
48.4748
104.5
50.4103
21.4901
-17.6136
-60.0962
-51.8888
47.8975
116.236
103.628
-21.7725
-40.4549
-18.5345
-21.5373
-12.3199
-42.8804
-92.8159
-48.1384
48.9057
-47.6946
-143.453
-97.5089
29.3571
78.7447
88.4165
0.243706
23.9625
15.2747
-54.4772
-53.0348
59.0734
110.872
74.3185
23.0988
-11.1827
15.3677
-30.4084
-43.6954
-34.9853
42.7697
65.7276
7.75137
-7.51678
76.7831
-22.6715
-74.0371
-51.2465
-30.7506
-25.905
-25.0428
-1.36896
34.3917
74.8435
-39.8023
-50.1955
-33.3573
28.5791
47.8563
-11.009
-27.4886
1.03429
-113.625
-96.645
-43.5978
91.8085
128.422
100.891
73.234
76.0028
58.1737
-48.706
-60.1118
-39.4815
14.465
0.484291
-22.0011
29.7197
52.9784
-98.1137
-92.2147
-61.4235
46.5022
58.2089
-3.5244
16.2515
31.7475
-67.0451
-55.6171
-42.8889
-56.644
-14.0053
-24.4479
1.73546
72.7705
11.1812
12.0816
-23.0091
-42.0197
74.5336
123.269
111.362
80.1093
-92.5155
-137.099
-95.7845
-23.5745
76.2988
46.5197
39.678
108.591
41.4787
-7.09681
-31.3219
-32.7511
8.18552
-4.57861
-41.7229
-29.6445
35.0114
-40.32
-87.912
-42.3268
37.4547
-4.87985
-20.5001
-37.5459
12.8014
108.017
11.594
-132.121
-31.8966
4.37203
-10.7163
3.15911
13.4761
8.51723
66.3437
23.9262
18.5015
85.2487
22.9358
-37.5067
-2.01899
22.4438
47.5841
-5.56529
-58.5177
-75.7224
-22.5552
23.6872
61.3832
58.658
62.9374
33.4699
-38.1975
-68.7522
-111.955
-81.6258
-35.4123
8.17499
75.7984
95.7976
-10.1639
-77.3181
-55.8082
-18.5804
14.7162
-0.019912
-1.66734
89.62
151.411
13.7565
-97.9735
-63.0293
4.99891
29.4849
17.4636
6.21393
47.5087
-26.9678
-123.836
-115.033
-20.7578
32.4939
-11.1944
1.05964
94.7528
78.5368
-1.44094
-12.6802
-42.5983
3.00551
51.9409
62.0512
97.3744
51.7305
-51.149
-106.132
-135.538
-71.4983
62.7464
121.331
114.243
-4.00002
-63.933
23.6482
-2.83132
-39.9605
-1.59208
-23.9614
-13.386
73.1865
42.6354
-35.8194
-82.225
-100.466
-40.8649
-4.66424
14.5698
15.5157
11.4983
-65.7783
-71.2511
19.4427
76.1576
51.4661
2.36771
7.90817
54.3542
74.0792
1.53801
-65.8338
-34.3802
35.8657
52.1271
59.5407
63.3245
43.4491
-15.8665
-61.768
-97.0612
-82.343
-37.8756
-20.9763
6.08503
51.2438
62.7633
-12.9953
0.0282001
-24.1499
-33.0116
-13.6953
6.15645
81.379
67.2575
-44.376
-50.3194
-59.3859
-47.4249
-18.5273
-17.5017
32.0389
84.4339
51.5317
25.5398
-19.715
-17.6565
18.3483
1.88272
2.90662
73.3909
43.8276
-50.8948
-88.8011
-73.552
24.8553
47.3391
36.2303
57.8089
2.15018
-76.1815
-102.043
-56.2283
-3.4553
25.3975
9.42713
31.5232
37.3642
-13.1371
-3.15429
-1.62854
30.1132
35.6647
20.6904
32.7979
61.8563
-53.6133
-60.9416
-70.4192
-35.2712
19.5106
16.8548
-6.83596
43.5518
10.7963
-42.6663
-43.32
0.593512
36.3475
28.2451
5.13373
37.9353
81.0839
26.5042
22.6505
-2.13198
-41.7985
-70.6448
-56.4783
-23.1118
24.3713
29.0832
-70.2825
-85.1583
-15.982
42.1389
44.8843
59.2422
105.254
72.2461
-45.3823
-63.8939
-58.8445
-19.2096
-43.7698
-48.741
38.4218
100.334
6.07001
4.69821
-31.9021
-64.0815
-4.24337
17.6518
77.2419
62.8604
-15.8999
-25.5428
-66.7226
-60.4708
1.13715
76.9402
138.806
12.4863
-127.638
-98.9747
-37.2893
-22.4648
47.7796
54.6597
50.3322
113.473
2.76345
-106.586
-94.6599
-59.0956
-17.6803
8.90295
23.1215
69.7075
162.911
39.9878
-114.138
-58.8753
-0.271104
2.16927
-3.57127
-38.0158
53.7377
112.267
10.1909
-104.339
-44.4618
-4.11742
-9.48757
5.73272
31.2132
24.1209
22.5135
25.2641
-72.3108
-56.1071
-21.8387
20.8567
58.968
49.5224
68.9715
59.2855
-108.466
-112.135
-74.8012
-91.8561
-15.9035
48.8535
101.763
75.7645
-11.4835
-17.1707
-21.0768
-33.9501
-6.77015
19.3533
67.4909
143.017
119.801
40.2082
-7.89545
-85.1376
-85.7691
-105.766
-64.7821
-8.95581
48.386
-13.1643
-86.1965
-62.7667
-13.5597
7.46142
41.8821
63.2045
107.451
100.45
-7.996
-75.9139
-66.2786
-47.5341
-52.0672
-20.7425
76.762
21.4433
-27.7881
-20.6142
-9.57881
44.2621
67.381
57.44
94.985
23.015
-35.1678
-62.3432
-78.1454
-39.0846
-5.65648
-6.60821
21.083
8.80135
-20.4038
6.42717
-1.36002
-15.3589
-18.5919
-21.6182
45.2517
66.7519
-44.2205
-53.1958
-78.0985
-50.9367
25.1813
78.3708
132.758
159.755
111.575
-38.5018
-100.683
-71.1692
-49.738
-46.9513
-51.5115
-24.3582
37.0792
113.056
-20.8476
-105.514
-41.0275
-30.312
-23.1397
41.85
56.8731
108.23
-0.712713
-90.3479
-86.4613
-26.3554
-1.71839
-2.97914
31.7463
79.0613
13.6572
-10.1134
-29.0308
-76.6935
-14.1128
25.8866
90.6198
218.415
58.398
-67.4097
-78.7919
-108.183
-45.6673
1.00728
20.3183
74.7085
154.08
57.6617
-111.908
-150.522
-79.5656
-2.35044
18.6945
18.0288
46.0766
42.946
-71.6724
-109.03
12.795
64.7277
14.1421
-10.1632
49.964
160.447
57.8182
-80.3706
-130.898
-89.4605
17.8357
38.0226
73.7179
105.43
-33.2641
-85.4587
-67.1299
-57.9609
-9.27478
-16.3907
26.4889
107.928
61.315
-41.171
-58.1637
-110.517
-72.7886
9.34153
57.1164
213.254
235.691
-0.779544
-114.051
-137.325
-54.9268
-48.9742
-47.3708
-18.9628
41.2011
36.8069
-7.28053
-31.6502
-2.69303
24.0969
22.2996
29.9987
90.6256
136.173
51.7163
-124.27
-143.496
-77.2456
-35.1809
-26.2431
33.7907
95.2526
56.7294
-30.058
-50.2125
-51.2407
-16.9896
-3.66508
64.3272
133.712
-3.84227
-41.9657
-3.01666
-0.104586
-7.52839
-29.4882
-21.1581
70.6108
-7.99556
-4.06725
-5.83143
-65.9266
-94.4113
-6.21948
79.8981
98.9859
20.0213
3.80558
-39.8603
-70.9962
-4.75418
7.91807
3.65417
28.3471
-31.4737
-21.0991
-21.5782
-26.5925
32.0497
16.5283
18.6174
7.69525
51.5878
-14.0278
-76.4569
-66.873
9.41499
26.5341
33.2253
73.132
95.3211
64.3328
0.12827
-70.7817
-36.7134
-20.3584
-19.1561
-16.5653
-7.3852
18.7014
16.6832
-72.6102
-18.7287
52.9561
-6.37984
-26.7192
11.4257
85.1751
29.5373
-65.7396
-37.2462
5.20962
15.0465
1.59463
34.6594
66.0821
-28.5751
-105.512
-91.4949
-92.1076
-41.1989
76.3221
52.3445
61.0183
51.2749
-25.1632
-16.8879
24.5779
52.6915
28.9087
2.84315
-13.3452
-21.8472
21.1579
-1.57329
-59.2853
-3.9567
50.5244
63.8391
28.7578
-13.7682
0.233834
-9.48504
-86.593
-78.9748
-5.82018
19.0783
-11.0725
4.12708
24.8821
10.301
-29.3933
16.5209
11.1357
-8.54851
-16.0147
13.0228
67.692
19.5316
-33.8233
-41.2958
-59.0229
-57.455
-11.5973
26.7461
105.658
73.5665
-54.6362
-39.9511
23.5721
52.5698
70.1805
53.1843
25.1408
63.827
31.2097
-59.468
-129.677
-102.523
-56.3731
-28.6105
-48.0419
-65.3795
18.3207
73.3509
19.6167
31.4317
45.9439
3.86828
-16.9176
-15.524
16.203
57.8389
16.4684
-62.987
-54.5236
-15.3338
12.6261
23.9457
56.7747
114.447
69.7921
-31.8195
-70.8926
-120.009
-90.9436
-26.3945
35.9422
98.3439
59.7858
-21.1646
-39.3483
-56.6892
-16.3817
76.2475
91.1613
160.334
129.273
-58.3433
-113.598
-133.581
-95.1811
-25.3242
6.57878
33.1799
56.7413
-40.3772
-35.9214
-35.6402
-21.5232
9.28266
12.4943
14.2091
47.375
62.2804
-20.4801
-73.9117
-82.5979
26.2657
34.1495
-9.59284
39.2283
63.8715
-6.35536
-44.6539
-56.439
-5.26437
13.6835
30.319
54.7624
56.3119
10.2289
22.553
-18.6416
-51.1276
-19.8812
-33.7162
3.56037
86.3423
-12.9951
-41.1433
-32.8488
-44.61
-13.0986
-24.7994
9.17566
111.364
111.238
-9.33598
-56.3626
-28.1867
19.0813
30.172
13.733
-12.0009
49.9436
-0.623701
-91.1392
-100.638
-39.2886
-26.5254
-31.9557
2.59137
51.8302
101.655
50.8059
-83.833
-72.4429
20.562
36.2185
35.8548
40.0826
51.6641
33.4981
-48.52
-58.1493
-20.9754
-4.61125
-30.0189
1.05663
33.5064
-2.35179
-25.0688
1.79696
-23.2486
3.00942
52.791
45.3061
52.836
-14.6234
-46.0451
-7.07454
-5.27591
-42.1752
-19.732
14.0431
117.574
139.213
-22.7439
-47.7103
-68.5659
-79.1777
-50.6912
-21.2454
6.33874
59.4537
-30.9522
-55.8689
-45.7303
-9.20588
27.2088
26.0022
0.495346
14.3381
114.619
24.4398
-85.023
-111.551
-15.7658
41.337
49.2222
23.5025
80.5161
65.9352
-21.2479
-104.584
-38.0677
0.286541
38.7009
58.917
44.8481
76.1651
72.171
-37.3855
-112.985
-86.1007
-71.189
-30.3404
30.3556
34.1045
58.1948
-15.5192
-98.9492
-59.5064
13.2676
35.0393
62.0573
79.7789
109.113
29.9469
-89.0138
-97.3415
-73.9752
-14.8731
17.9184
22.8528
28.3633
81.8349
70.134
-41.1356
-102.82
-44.3519
-8.78332
-19.9864
-44.2641
-1.01948
89.4093
17.9809
-70.2722
-17.4366
68.2436
49.9002
30.8184
31.7905
85.7471
67.9727
14.3342
-70.63
-83.2893
-34.9949
-25.6605
28.3037
36.4742
-65.0387
-47.4085
-48.3082
-49.6489
-8.31388
14.8793
90.5572
140.988
-2.75307
-49.6206
-60.4955
-66.6503
-31.9996
-6.35414
87.6509
155.218
22.5208
-124.358
-150.442
-120.134
-13.1522
20.826
42.3769
76.9218
113.313
-26.8615
-60.822
-18.9209
66.1459
59.0108
63.1101
46.1541
40.3079
72.8177
16.2906
-146.782
-82.1208
-14.5949
-30.9551
-58.6264
-18.1346
22.1043
73.3476
10.5822
-64.6119
17.1603
19.4151
23.9288
88.2048
94.3965
72.8945
23.7812
-146.223
-166.179
-166.092
-89.2594
9.33233
61.5485
108.58
102.681
-9.87045
-52.3612
-86.6701
-20.3771
49.3706
69.3475
71.5494
78.3441
-66.295
-71.1233
-34.2057
-6.61335
76.7618
49.4001
36.1406
65.4157
53.63
49.7919
-62.4791
-97.4569
-35.64
-18.3534
-12.1305
-29.1142
5.83005
57.5411
-73.4967
-130.437
-60.718
-2.73585
23.4819
41.4932
105.684
101.071
-16.791
-64.5501
-58.0106
-34.8262
9.72366
7.71596
98.8571
90.3994
-70.2576
-68.5355
-48.0165
-19.9366
45.883
24.6191
78.7506
98.2091
-10.3111
-91.0442
-76.4658
-82.7829
-5.60501
32.6155
36.566
28.6307
46.5405
116.042
-25.4031
-29.6977
29.2038
-9.31721
-35.9842
-34.8767
19.9787
45.728
39.4241
-69.8127
-65.5191
-20.5115
-41.6751
-50.5226
6.95825
50.2658
135.673
6.74548
-90.3234
-125.035
-55.4138
-18.1386
12.6319
47.7411
81.5897
22.1002
8.56134
-19.2557
-37.4781
24.8224
96.6339
96.0039
123.874
29.9255
-35.1112
-80.7284
-143.448
-60.706
-5.85653
-17.8837
35.0151
-26.7115
-25.1401
2.38417
-14.1088
-9.73844
-2.23075
39.6011
67.8913
120.725
55.7714
-53.0075
-98.038
-60.3122
-13.4801
15.3377
-28.5302
-41.8615
63.4549
116.541
61.1497
-51.2676
-132.962
-130.017
-101.618
-25.302
53.9611
98.053
18.1664
6.02062
60.1843
89.3509
65.0514
36.3437
9.44043
-4.90887
-0.236055
-49.3641
-78.6232
-96.2569
-18.5459
68.9465
76.9071
70.7732
117.847
98.3609
-66.3481
-103.947
-35.8915
-58.3094
-60.8063
-49.4334
-6.31567
49.5331
-10.0478
-91.2057
-77.1782
-8.13864
-13.588
15.9879
27.8208
53.0794
124.48
107.653
-92.5856
-85.7044
-0.241944
2.39671
19.9167
21.6163
17.4117
39.5938
-32.5551
-112.882
-45.7233
12.9882
42.7458
103.282
83.3658
55.3308
-65.7786
-109.305
-68.1653
-33.0644
21.4188
31.3914
60.6783
81.7323
39.8081
19.449
18.5909
-28.2136
-21.7049
0.399576
4.47994
50.0391
-45.0058
-81.2791
-65.7258
-78.1483
-18.7987
38.2605
40.9568
64.1096
48.3013
7.95552
-8.73817
-40.4231
-18.5833
-10.5085
-16.9291
-22.6599
39.5348
-5.82218
-20.2983
-26.1764
2.02125
7.88
7.43676
-39.6321
-35.2349
71.2128
8.20533
-27.3702
6.79744
-9.43639
-5.02626
20.2855
39.836
53.1991
153.356
64.5348
-82.2657
-47.2767
-54.765
-90.4898
-57.9833
-4.47629
67.0253
75.2614
-89.5009
-97.9418
-74.3698
-28.6444
30.9238
138.231
182.147
70.2416
-71.204
-60.4535
-75.0976
-22.7059
50.78
49.1859
77.2475
52.3994
-1.72904
-55.6988
-113.944
-106.818
12.7845
7.83912
-32.4067
33.1829
-7.33311
-66.0306
-65.584
-3.93582
87.3513
83.4404
42.7136
62.1515
62.7688
-36.2317
-50.5936
-17.1154
25.7999
19.8137
-19.359
9.29051
41.1686
-25.134
-20.2531
-66.9061
-44.8299
-22.0885
-0.953124
19.4504
91.7953
53.8442
14.5729
-28.1572
-27.8769
14.2489
-5.91639
-12.4154
4.5221
-52.2151
-47.918
-88.539
-64.3202
15.1987
39.161
82.3309
106.379
45.1434
-56.3125
-74.0342
-81.5958
-28.1528
15.5011
50.6522
96.3419
113.569
53.5006
-115.09
-108.514
-1.99648
12.5649
-1.62551
7.6083
9.79035
60.9372
77.2891
-3.84638
-32.1481
-7.76834
3.63965
18.665
33.3017
17.0289
-16.5677
-39.9358
-77.6058
-60.6154
41.9412
65.675
35.6767
-49.746
-55.3143
-56.7155
-67.834
-49.0229
-82.7903
-21.3104
49.4254
75.0847
102.9
73.3302
6.06434
-19.2264
-16.4257
40.9539
94.792
57.1875
69.8889
4.42608
-98.4817
-49.3805
-36.5238
-46.7431
-15.8456
-33.6781
-45.8218
-17.9205
69.3218
42.2996
-25.1426
-21.1687
7.42776
-17.1722
-11.0029
-40.9224
-2.8307
18.633
-18.1212
-31.5176
39.5439
62.5178
45.0288
47.8712
110.164
94.4985
-86.3816
-75.5187
-73.4466
-14.8048
13.3965
3.89885
5.74411
57.3621
-7.74931
-56.683
-64.4023
-59.1913
-37.8583
-23.9236
15.4735
49.684
45.2842
-103.174
-99.7463
-33.6534
74.4716
67.8089
40.2122
72.8171
121.669
94.8209
15.1771
-40.9285
-43.3021
-47.8388
-53.1977
-20.8292
42.0944
143.831
97.2254
-122.806
-177.441
-96.7133
-77.0682
-21.9296
67.4896
89.5504
100.593
-13.8972
-52.0017
3.56261
69.779
19.1607
-53.9923
-16.3308
36.518
-17.6191
-46.3984
-91.9925
-56.9704
33.3003
50.8061
112.244
93.6843
-11.2071
-37.9558
-23.7877
-50.8505
-8.59537
-37.8584
-28.5023
-14.9763
-0.174994
97.8145
94.0448
22.7937
0.651199
-33.9831
-53.3087
12.6052
49.3332
-4.70132
-98.6118
-89.9362
-41.3265
-1.46398
17.0751
-3.4821
40.2828
52.8333
-16.1446
-72.8288
2.87231
60.7671
59.4492
16.7117
15.0805
90.5553
36.3518
-112.524
-92.974
-40.1165
11.5225
41.0738
40.6907
2.13928
10.7867
54.2895
-9.52349
-60.7132
-39.3862
31.6362
80.3859
75.4419
11.5353
-5.34492
-25.8129
-97.0274
-88.2469
-17.9047
4.25637
16.5909
18.2258
33.7141
-1.58164
-41.5066
-34.3046
-44.8332
-2.43049
41.5965
61.5959
66.304
81.1955
-44.0306
-63.3442
20.5574
36.2691
-29.8361
-86.4373
-58.1658
-7.32278
74.1896
83.0569
-80.8863
-50.9719
1.2788
0.652985
-1.635
33.5279
82.99
76.9551
-34.8475
-89.7755
-23.4938
-2.11143
-31.5208
-15.8821
53.4034
62.2095
-7.84069
-14.9109
-25.999
-19.2566
38.2645
26.0856
45.574
60.0194
-72.3342
-63.3699
-44.4481
-30.335
14.2294
-4.62072
30.2387
23.3554
-15.1284
5.4524
28.9306
29.7688
51.1271
30.4792
-26.106
-35.1476
20.9038
-34.4452
-89.207
-72.4653
24.8955
39.0364
5.57962
-16.6503
61.5595
168.528
30.2059
-71.2193
-35.0874
-69.3972
-93.2279
-49.8709
16.3264
20.0123
87.8078
83.9347
-100.291
-44.4768
-30.3109
-35.5044
0.136216
38.7394
53.7651
71.3237
-12.2993
-41.1914
37.8769
79.8476
26.8574
-42.2049
-25.098
19.8751
-60.014
-69.8047
-92.1132
-92.7847
1.82281
46.2677
109.733
41.4985
29.1685
33.4126
31.8346
-3.98177
5.78591
-38.0199
-13.2349
94.8965
28.8929
-7.16652
-15.3096
-39.3879
-9.45872
-13.1768
-76.5226
-68.8503
66.1574
-9.55565
-26.4393
63.2439
94.4528
68.4408
-4.44307
-74.5894
-58.7847
-171.546
-132.828
-85.0915
88.0739
240.996
262.773
128.392
23.0336
-65.6981
-59.8996
-75.2947
-106.63
-69.1252
-109.243
-88.2506
-76.8956
-48.2625
-68.9421
-37.1253
71.4186
198.507
188.071
115.464
56.518
-7.27196
-86.5965
-169.773
-117.478
-3.39714
35.3716
34.425
30.5835
73.0306
71.2431
78.7093
73.2215
44.8934
98.1154
74.7719
-25.8464
-111.192
-196.592
-181.31
-48.7671
-76.2532
-91.1357
53.5124
88.4423
5.89844
-67.1346
-54.2714
26.9791
53.0753
-5.98622
-19.8681
-1.65135
33.6957
52.7947
67.7332
104.614
12.618
-119.412
-167.482
-111.027
68.8579
385.228
674.619
687.704
204.569
-147.555
-254.469
-328.126
-335.561
-251.451
-198.278
-206.946
-272.677
-400.195
-271.696
-71.3238
124.476
260.25
249.48
122.989
-4.73598
-224.464
-479.542
-455.987
-88.0544
254.105
381.663
335.582
332.219
298.121
65.6857
27.294
119.576
256.132
333.775
364.234
309.691
130.187
-164.702
-206.407
-249.923
-253.09
-201.674
-121.791
-29.1237
-186.938
-311.778
-217.515
-160.32
-91.6688
107.653
192.123
128.045
46.4744
-117.824
-214.794
-209.94
-15.6968
167.076
154.923
122.075
35.0796
-7.54539
-11.2365
25.2901
24.1508
33.8035
-49.7131
-94.7953
-110.511
-79.2731
-38.2415
62.8136
163.748
66.9968
0.297993
30.6424
62.3819
95.1104
75.1451
73.8326
92.5637
-60.9558
-108.444
-54.5493
55.7005
93.1956
88.8613
126.294
149.584
86.2262
-68.5638
-99.587
-81.6823
-26.2739
-56.3759
-29.5065
38.468
24.4729
-16.7529
-93.2156
-225.295
-250.499
-205.812
-87.8817
36.3586
1.84656
5.26796
40.4935
35.8561
71.0437
136.692
123.678
117.787
73.6566
-85.1275
-100.58
-75.8943
-14.742
4.21185
44.5512
90.6008
181.729
129.937
-4.26016
-166.122
-154.529
-118.335
-53.9683
34.6067
141.679
207.49
155.077
-48.3458
-51.1079
3.44924
-34.7636
-109.305
-120.894
-78.2681
67.7616
110.451
100.297
26.1566
-0.526041
55.7157
62.6025
28.951
-35.7329
-159.335
-203.844
-172.51
-130.393
-7.50355
27.7839
102.025
81.7625
10.7552
14.9296
11.7377
-49.1992
-63.4185
-42.5271
23.7782
121.799
53.5317
-84.7014
-117.117
-41.6212
54.9724
107.849
130.019
116.341
108.952
66.1346
63.0198
41.8176
16.7443
24.6104
13.4882
-36.856
-17.8649
-78.0487
-114.895
-106.983
-37.1934
42.6581
48.6452
56.804
55.4989
-132.145
-195.971
-157.07
-64.7838
-0.0925566
5.56828
63.0868
148.661
25.2403
-15.0174
-14.3152
-47.4061
4.83602
-0.346356
-18.0256
58.5316
66.9193
15.8584
-24.2911
-43.7706
25.604
53.2967
82.9127
70.4557
53.0089
-41.4151
-231.405
-98.9807
149.97
200.85
84.7802
-14.2801
-20.6838
55.4148
-1.79325
-162.218
-135.996
-71.8064
-21.7243
41.2968
74.3573
46.4238
-35.4252
-57.1287
-96.5069
-22.7366
108.059
65.3249
-31.1612
-70.541
4.64306
-31.4384
-56.5543
-57.52
6.40277
126.693
173.946
158.389
74.5298
-66.5384
-102.52
-72.8791
-73.5263
-139.4
-105.419
19.1544
226.292
265.384
215.623
1.01116
-131.303
-137.604
-139.468
-121.73
-13.6035
-15.2491
-86.4489
-117.057
-165.744
-86.3415
22.0793
118.608
213.476
338.833
259.198
-56.8877
-176.294
-167.304
-147.157
-55.1529
44.3147
126.68
206.955
161.516
-23.3001
-44.3702
-35.7005
-33.7755
-23.2892
-13.4362
-1.39581
24.2625
-60.4824
-197.462
-114.982
-8.98922
-59.5603
-119.147
-102.275
48.7328
243.4
200.83
28.3968
-55.7463
-72.8564
-40.3554
10.4536
26.9762
85.5692
56.8199
-48.284
-91.0619
-24.3856
85.8896
95.1384
96.1487
85.0515
147.369
47.5708
-120.184
-170.017
-137.783
-56.8267
-15.0552
30.7305
31.9584
47.2195
-80.5244
-151.108
-100.365
-44.5782
-14.5562
7.32994
51.1137
143.181
126.691
59.2238
19.5642
34.2048
82.9148
-11.9266
-51.0734
2.69745
-27.1788
-98.4544
-32.8895
-1.71284
42.1396
47.2287
43.7187
62.0244
26.9884
-82.4734
-83.0134
-91.9942
-31.8552
32.4025
-3.65151
39.4619
9.83076
-37.8666
-19.1772
-40.5274
-54.1589
-38.4182
-68.1564
-74.1631
96.7335
208.289
113.362
70.5047
42.3796
40.0985
19.6302
-14.3984
-28.4013
-43.6002
-143.252
-171.739
-126.761
-19.8933
99.6794
136.219
42.3378
18.2487
19.9904
38.656
-52.8674
-92.3681
-33.5557
-29.3643
-14.1349
19.946
39.8869
54.636
15.6681
63.2884
109.547
95.5504
66.751
8.83588
-14.4438
-68.7373
-86.7926
-12.905
25.2911
-28.287
-52.1194
-59.1863
-8.51989
9.67192
-105.98
-74.8586
-50.9596
-43.4719
34.7022
71.5981
96.9693
111.516
167.608
-5.7816
-128.429
-98.3932
-32.3175
-29.4052
-22.762
-0.767561
52.9554
89.721
-82.0564
-116.694
5.18879
48.1419
83.6503
86.0122
54.8426
4.46777
-55.5937
-59.1398
-88.8361
11.9279
33.1525
-15.6591
32.5084
41.5685
-72.5925
-50.4002
-19.1635
-0.794969
109.916
40.8546
83.0117
87.2887
-17.1344
-21.6197
-9.81611
-13.2414
-5.36853
-29.6967
-6.85874
85.8696
-44.3163
-76.1246
-64.3696
-61.4205
-29.7622
-41.9379
-47.8605
-68.3546
16.0282
35.9501
-12.1289
5.51456
36.5023
5.69403
-1.39155
26.6634
81.9325
131.629
35.5045
-5.84934
26.9688
-3.35626
-47.7172
-80.3135
-71.3597
-30.6244
61.6217
48.0274
27.2968
39.6247
-4.68593
-60.2151
-66.1684
-21.0452
106.01
124.464
70.8285
-35.4188
-43.3028
-42.8961
-17.9705
42.9743
64.0172
6.74291
-9.47412
-21.0657
-90.8235
-112.642
-93.7619
-39.2376
76.7158
-40.3799
-56.7457
2.86769
-16.3097
-22.0161
-5.03145
17.9987
32.9739
90.4464
-3.51344
-75.5205
-75.3949
-3.6489
101.622
125.552
100.214
73.888
85.4618
-25.3174
-81.4945
-0.90325
18.6692
-23.4407
-59.7638
-24.2238
39.9156
-1.29859
-30.1083
-82.0803
-33.7272
14.1719
59.4472
114.298
159.618
90.6423
-125.239
-171.437
-169.822
-83.7227
-52.1936
12.5135
51.1449
68.8285
82.3708
18.214
-40.7016
-10.4547
-2.63718
-8.57268
38.8185
71.8824
122.067
1.50847
-213.743
-216.36
-87.6553
-15.0853
23.1865
70.4975
86.1756
136.368
166.971
21.3026
-26.2436
-10.1929
-32.7623
-47.5614
-41.1935
-24.8791
80.4656
63.9294
-47.1178
-3.984
41.9427
35.0111
46.0054
9.82211
25.919
-68.1606
-220.189
-241.068
-181.843
-22.3765
129.714
281.95
329.445
166.044
25.328
-34.6719
-81.9692
-87.1706
-71.6487
-51.8474
43.2918
-25.9869
-80.2624
-73.1944
-67.6
-32.5855
57.6301
128.648
171.507
68.9915
-191.422
-253.387
-226.201
-43.1351
84.9473
111.513
27.2832
45.1034
50.3311
-75.8546
-59.6459
2.00755
47.7225
35.6377
-2.05679
37.9557
137.575
30.4258
-94.3493
-33.6219
36.122
37.0528
57.1522
120.118
119.302
123.951
69.5456
-108.02
-107.607
-23.1519
-18.6509
-23.6081
-45.9258
-29.183
-42.8601
-74.0253
-65.3444
13.0716
38.1685
34.0108
33.1772
9.80605
-1.93751
-73.7857
-70.3694
-56.4771
-58.0241
40.1318
65.9902
73.413
60.162
-36.6924
-111.781
-79.3718
-30.591
19.0043
12.1042
-9.91269
34.6768
127.126
129.536
-21.4082
-88.4602
-72.6572
-68.9758
-32.152
-6.22909
15.0568
46.6046
106.378
62.0392
54.3551
63.7591
1.77475
-23.9181
-34.3028
1.4673
67.2489
100.867
26.7511
-0.538483
-15.5132
-71.1815
-158.965
-177.309
-76.6482
-42.8074
16.6701
41.2885
-7.21552
-4.03641
50.6371
76.2482
81.9688
3.27772
42.2727
63.7523
34.9185
-4.72707
-36.8647
-79.6923
49.9219
57.9819
-64.8942
-80.6317
-72.3789
-10.5474
23.5778
3.48051
-7.36994
27.8825
51.4
3.18408
-11.4256
12.8492
5.86386
-33.7899
-130.743
-130.453
-23.456
-10.9614
71.1164
185.737
252.939
135.339
24.9685
32.0844
10.3826
-144.51
-150.429
-107.117
-50.9309
14.7304
14.6769
54.7893
62.3069
-45.1262
-73.4513
-80.2035
-66.6036
-32.3747
-68.6372
-74.5716
-15.0848
83.6923
33.7849
-23.8976
-10.9049
97.5481
110.263
64.1781
13.245
39.7654
149.298
158.984
-39.3769
-62.4034
-42.788
-31.7299
-16.3318
-26.7469
-47.0402
-2.96628
-32.3078
-102.736
-78.5332
-62.3635
-6.28184
36.2473
30.1452
82.4684
104.463
-15.1057
-59.6523
-40.334
50.8091
115.029
68.1488
31.2367
-44.395
-60.7932
-69.7714
-111.074
-77.3452
-17.9718
67.9851
91.4413
8.2601
-1.97328
23.9641
37.8548
10.6832
21.4139
-36.553
-73.4894
-113.074
-42.4206
45.3362
92.9234
101.875
37.1906
-2.58193
-8.59883
42.5077
15.3633
-109.689
-132.843
-56.2301
-72.5779
-122.133
-100.523
-6.54178
182.205
258.416
247.974
127.047
15.7624
-66.8624
-155.816
-135.308
10.8375
91.6797
18.6642
-7.95201
57.5367
46.5834
-55.8906
-81.1052
-32.3461
15.4036
42.9109
-57.857
-187.453
-230.2
-172.065
-25.9751
76.8872
147.382
209.662
105.93
-41.3203
-68.2656
-38.8869
-68.914
-55.0839
58.6887
156.401
161.811
94.3533
79.7725
22.2299
-19.7829
-41.4354
-56.9361
-62.1123
21.1088
62.98
-9.18319
-21.354
2.34042
-29.2504
-93.8757
-70.4373
0.0693391
34.5861
-50.3629
-54.0057
-32.2005
13.6308
21.9018
6.14949
43.9394
98.3172
15.8598
-8.20041
-10.6091
-14.7337
10.526
-19.8232
-23.1286
11.5195
-63.8841
-64.4476
-54.5741
-50.0983
61.1659
67.1525
74.0026
142.424
-20.525
-109.993
-68.928
-67.0188
-12.359
-28.6743
-85.955
9.41379
87.8332
51.5067
118.669
148.362
91.2403
3.59295
-32.8753
-48.3232
-10.1701
25.3138
-16.9882
-101.827
-23.622
17.9477
2.91862
-8.11216
46.2405
75.7522
60.0095
6.33683
-122.435
-211.371
-159.562
-118.785
-40.2999
-2.34379
-13.906
-32.0161
56.556
21.0529
8.95046
144.764
215.245
174.111
121.887
80.8362
31.8765
-67.0211
-72.5858
-72.3572
3.15516
56.9276
4.89877
2.22239
101.725
12.1986
-68.9045
-164.212
-217.683
-130.482
-35.6621
-12.3892
72.154
12.9486
-81.8841
-39.3937
4.99471
78.1552
64.1683
17.1426
27.7797
104.547
127.448
-5.51654
-71.4195
0.17571
-6.90658
9.19038
19.1999
14.542
54.9196
-94.0215
-122.994
-12.9473
69.3832
63.8536
19.2482
35.3213
86.3437
-49.0198
-44.1645
-37.3782
-79.2577
-61.3034
-42.4821
1.41976
78.8677
80.111
46.2154
2.09612
-4.47942
34.7335
-19.9898
13.1914
38.9514
-18.1596
-129.199
-107.335
-34.2131
89.1126
82.305
-17.0808
-50.0785
15.0255
48.9765
-58.6861
-90.9224
-65.2145
-48.4478
-52.8517
-42.7171
54.5233
126.632
167.574
8.45258
-48.5729
53.725
74.8424
27.7142
-10.713
-15.5755
8.81918
-6.0988
-113.141
-135.077
-25.1809
58.9133
110.314
120.331
169.696
140.251
-88.0044
-187.19
-164.217
-52.7613
29.3515
61.1904
61.1078
56.3677
-20.2533
-30.4494
-42.1245
-39.8928
13.3477
17.051
20.81
3.74074
-89.8423
-140.402
-144.862
-131.72
12.727
127.038
200.154
223.377
117.077
38.7814
-28.6025
-59.8898
-46.0485
-66.4289
-50.721
-29.5753
27.5112
-24.2731
-88.7602
-126.669
-73.9999
15.1543
38.1198
24.3951
148.62
127.199
-70.7891
-73.6934
2.69319
55.2432
74.3075
26.843
104.312
102.435
-63.2609
-140.255
-95.1376
-57.3397
21.8085
60.4753
42.324
51.5929
95.996
10.7603
-65.8261
-160.74
-134.091
-76.8558
-15.2261
-4.91529
35.2265
-20.8771
-52.299
29.9612
195.657
236.791
98.2421
34.0046
26.9516
23.7235
-55.4985
-101.706
-143.555
-139.606
-107.561
-38.3287
13.3314
65.5251
108.61
29.4621
18.173
65.6759
39.3916
-47.778
-89.6417
-52.2803
-18.7748
-19.1404
-11.6225
-41.591
11.0813
38.7344
27.3547
87.6614
116.924
-7.04652
0.873488
-13.3143
-30.6599
28.7074
42.877
64.7919
-0.741887
-66.5983
-69.3093
-90.5207
-64.876
-18.9164
-7.0335
21.5026
-8.53197
-29.8276
-7.73721
-12.6895
-17.9951
53.7508
70.7076
98.5505
56.8234
32.9443
-84.7565
-94.4179
-23.4339
41.4575
53.7929
56.8417
66.066
97.774
-35.5545
-125.707
-80.9257
-49.7341
-35.705
-39.3933
-44.4818
27.7698
136.15
-6.1975
-41.1724
26.4545
69.7517
-1.95174
-60.8121
-41.6274
-14.6034
-31.2536
-135.987
-107.074
40.2109
122.993
120.831
107.875
116.257
-20.1593
-65.5118
-11.7994
-18.7046
37.4034
40.1594
7.64728
56.3834
11.9326
-17.7056
-30.6948
-66.7339
-48.4729
7.54839
-16.965
-38.7748
-84.0374
-152.757
-88.5989
15.1269
146.002
140.343
43.8932
-31.3235
-1.68771
22.4545
-40.362
-18.834
35.6258
51.9788
56.1847
31.9602
10.423
34.3037
-39.9474
-44.0258
-35.9351
18.3253
-36.591
-100.871
-32.6619
74.0138
1.48093
-86.1903
-63.3887
-43.7735
-12.3585
4.7637
84.8289
103.226
-11.9304
-10.2456
17.8485
29.8231
70.0802
60.7644
32.3815
104.557
31.6817
-95.9996
-117.591
-120.159
-16.7348
78.2114
52.327
24.7113
82.2957
1.24352
-44.6815
-35.4904
18.1616
-15.6527
-50.019
-54.4867
-44.0725
-1.2179
-21.8851
-145.33
-91.4554
-8.55837
-14.9735
-0.140689
42.8031
44.481
51.0528
-47.4761
-42.6822
81.7318
157.45
176.01
201.248
128.855
99.2501
17.3141
-123.284
-139.908
-109.589
-60.6605
-25.7588
4.21193
25.5879
-37.139
-58.6563
-50.1643
-41.4626
16.0912
10.9705
-27.499
-6.36973
-36.6152
-127.378
-75.3055
-53.9154
-25.1297
29.1987
18.7324
49.9039
144.949
74.7134
-4.5093
-17.6678
-0.48416
8.95895
7.75512
30.5526
108.478
126.701
18.0701
-43.5148
-76.9576
-18.0025
0.0789529
-21.668
-18.6366
25.2946
-6.12542
-13.8957
-56.7514
-30.8512
28.8265
-7.25791
16.0292
35.6178
43.0341
54.5385
16.9278
-32.4527
-8.02941
-2.14211
-4.95872
34.6998
46.6887
-49.1321
-91.226
-69.743
-31.2542
-15.4686
-44.2214
-13.0988
147.434
76.7298
-71.4717
-134.838
-172.491
-123.027
-37.9065
45.7064
155.526
159.702
71.7077
-14.6419
-53.448
-3.79206
-0.290747
-4.80808
30.6215
43.7068
97.8931
77.2884
-114.037
-102.415
0.367736
75.7559
125.891
97.8517
31.7088
7.6418
-113.58
-127.789
-47.6717
76.636
139.383
92.2753
41.0117
15.7899
-136.918
-133.785
-115.91
-90.9236
-42.4669
-8.0016
56.6985
68.4612
-32.1818
-48.3952
-11.8369
0.565079
38.5842
16.7294
24.8493
29.3863
-93.8071
-100.825
-31.5839
-6.1447
60.5326
19.5332
-25.2833
-5.7972
101.145
71.9572
-10.5992
11.345
62.2578
45.5179
6.46835
-0.14083
51.1435
102.156
38.6629
-76.2543
-89.5035
-26.2473
-12.2092
-28.5099
15.3719
13.9581
6.80281
24.7305
-61.171
-30.7738
8.4269
-15.1829
0.149566
30.6238
43.671
37.3547
-16.0964
-30.569
-22.0742
12.7138
57.7331
29.4498
44.384
14.0193
-169.671
-234.397
-177.978
-100.829
31.1561
119.469
172.356
180.725
-0.782159
-105.386
-43.5486
-12.3059
38.3905
8.83994
-15.1244
-3.44645
83.5518
119.074
-12.6275
-21.9962
36.1356
55.216
36.7829
-26.2391
-68.3088
-39.4191
-118.24
-154.25
26.2818
149.282
140.169
100.47
33.0611
62.8757
48.7614
-52.2329
-109.774
-123.391
-36.6445
-31.9623
34.6971
80.9385
-19.8144
-69.9624
-81.9054
-93.1086
-41.1087
12.5469
92.4441
153.849
4.4076
-112.78
-64.6928
-71.4445
-76.8845
-32.1999
14.0763
68.3325
109.372
-22.5026
1.10008
19.9111
49.7755
42.3446
33.1135
12.4248
13.0807
85.7288
76.9276
-94.7551
-55.6437
-11.2766
7.73034
26.5146
42.0756
60.6283
76.9559
-23.4148
-98.7698
-53.2713
-2.48502
33.0362
38.649
-40.8819
-83.6819
-17.1036
-19.7417
-121.184
-105.509
-20.0725
1.41617
14.1934
43.2412
91.6636
61.9516
47.7568
41.9786
56.5055
79.8562
82.3747
-5.0147
-68.4954
-180.964
-128.193
-49.312
-40.8132
-30.3082
-4.87943
-25.6036
23.3743
131.12
210.622
90.7798
7.42111
-18.7713
-15.8045
-45.8065
-67.815
-87.4932
-16.355
0.724741
-12.7099
64.6889
55.1547
-4.76043
-45.4326
-31.1843
67.1169
60.3545
24.343
-97.6498
-136.184
-46.2204
19.5793
153.154
220.139
57.9726
-30.8384
-57.7554
-85.5083
-74.7597
-70.3501
-16.0472
-10.1867
-47.4606
-47.0175
-1.46875
26.422
43.9048
50.5945
51.7339
25.0169
69.3383
-18.7369
-141.938
-165.319
-75.2823
-20.7799
17.564
8.4979
28.954
93.0063
131.627
41.359
35.55
40.3611
32.0071
-15.8854
-76.3594
-43.6634
70.5541
55.7749
-32.1848
-15.3631
16.3797
-17.5659
-0.774137
1.37391
49.8866
26.9881
-34.9465
-38.76
-49.8907
13.5157
42.4086
63.2301
132.235
62.0646
-21.1259
-57.9794
-159.29
-178.417
-115.729
-57.8726
14.0636
35.325
-1.513
-18.255
-32.5147
19.8407
57.7211
39.9795
47.3202
9.40007
13.9295
12.114
-51.7745
3.42077
60.1895
75.6259
139.487
62.2638
9.65129
-12.0199
-24.8114
-47.9425
-20.7272
-21.2203
-12.3011
46.3926
-38.145
-52.5158
-71.94
-41.5359
-30.1426
-30.2241
-39.2745
30.7127
85.859
-17.4546
-62.0337
20.7356
59.7031
33.9517
-3.31485
-5.04574
79.8605
49.919
-64.8225
-97.6874
-34.816
-42.4392
-49.5835
-3.23292
48.9963
80.3064
6.17902
-24.9059
-21.0245
46.1031
18.5661
-69.5248
-14.6377
107.659
105.486
82.5477
48.9472
41.6881
23.3732
-23.5379
27.7288
27.2479
-76.6307
-113.4
-111.364
-125.232
-101.29
-76.4776
-2.96603
90.2975
84.095
110.189
73.6471
-4.53682
-19.0044
-72.4448
-88.3019
-16.1961
1.54718
-33.4761
-38.2175
-11.4749
29.8461
40.5887
33.3293
82.8952
-4.83403
-6.1507
-6.0787
-11.5306
14.9049
52.641
109.768
119.748
-0.474753
-44.8469
-99.3232
-126.162
-73.1558
-12.993
49.0793
46.1061
-19.9172
-17.4678
-22.4628
-31.8751
35.0117
34.7885
54.9273
12.6485
-11.4939
22.108
-50.1587
-67.1467
40.8009
71.3499
77.2167
62.3318
76.3963
-28.1925
-115.295
-92.201
-16.9344
-20.9554
-27.5791
1.42233
64.5209
99.2464
-0.601395
-154.396
-120.968
-77.4269
-26.7458
0.52583
39.9991
72.6614
120.258
-6.47242
-52.63
-18.8964
-46.5019
-62.1239
10.1881
23.0874
21.6803
-6.33649
21.7014
24.846
118.017
222.679
205.713
195.117
111.639
-136.319
-208.057
-193.281
-136.007
-10.6801
54.0611
75.4388
100.91
32.6241
-145.645
-231.417
-167.595
-90.9022
-57.8087
-102.526
-134.746
-36.8706
31.0994
-45.7648
1.23635
126.512
179.452
181.379
125.951
111.681
50.626
-18.5009
-16.6466
-9.12411
49.1045
80.6802
44.477
79.2318
0.756609
4.3015
35.8941
14.2987
-9.03535
12.6682
8.76712
55.45
16.2236
-97.7359
-129.685
-138.466
-131.933
-74.6526
-55.9969
-10.7242
79.7087
85.3097
-44.1402
-108.867
-65.9164
-34.1759
-13.1519
-6.0628
-2.78552
76.2572
78.6554
-35.9296
-37.1254
2.57503
7.52609
13.5842
2.88537
32.4108
50.7955
75.7843
-16.0948
6.28586
63.3208
60.9771
27.7209
-35.6854
-8.80842
17.7521
-76.8893
-58.7331
-31.4137
32.3958
47.6867
60.3498
113.199
51.3734
-0.985976
-17.7358
-66.0084
-95.871
-41.5145
-4.41512
40.8825
-16.0435
10.3795
48.8695
22.3173
-38.7612
-10.9977
-27.0092
22.0366
-14.6169
16.4613
17.0211
-47.855
-45.7646
-51.1074
-44.3248
12.0986
36.7233
12.2317
-77.7468
-58.0527
-23.9767
-22.1643
-24.493
-26.6248
42.8894
138.363
53.1135
23.964
70.578
-14.5856
-93.8118
-92.2579
47.0361
181.57
132.396
-22.3951
-59.6903
-38.0215
-8.41475
-68.394
-26.9964
77.03
160.002
47.6797
-51.7813
-110.791
-91.8159
-100.579
-41.5631
51.8668
123.539
82.9568
-15.8213
-96.4217
-89.7046
-17.2112
26.9105
67.9184
169.779
26.7992
-110.495
-148.801
-151.037
-61.7324
-6.28202
63.2987
173.389
74.4673
-20.8196
-13.6316
-7.92751
7.91852
10.6821
-37.1362
-18.992
44.5347
32.7093
-26.347
-72.0787
-16.4826
40.3872
28.9289
-0.568978
74.0493
28.2183
-10.2913
-36.5431
-19.2482
50.5472
53.3103
32.8036
48.3325
-22.9909
-52.0785
-51.7085
-74.6615
-66.2437
-23.8894
-20.166
32.0562
-28.9506
-39.5989
-43.3973
-28.8885
19.2714
44.3122
64.3598
115.263
50.3734
-3.86228
-34.5084
-53.776
-24.6438
-42.4353
-15.6922
40.8166
66.758
-10.5945
-3.19449
-8.34671
27.5093
13.9163
-5.73815
-0.397652
40.817
49.0814
-60.2107
-89.4134
-54.5571
-14.6892
24.5306
61.5017
158.611
205.831
109.745
-66.1691
-154.036
-129.343
-122.571
-75.0043
-35.3316
11.5731
48.0199
-60.6124
-60.1029
-36.1698
7.1393
16.6034
74.7264
139
127.113
-34.5249
-66.691
-87.6373
-70.5091
-50.5282
-44.9164
97.3103
121.659
-6.75711
-65.439
-64.4192
-67.1755
45.0745
78.82
100.037
140.158
89.5836
29.9634
-41.2604
-58.3849
-16.8536
-26.2026
-45.0581
-3.49037
43.7832
-57.9127
-83.8376
-98.6429
-35.7488
13.2043
26.8752
47.0316
65.7938
-2.95562
-1.55865
-37.5974
-39.6608
-3.12948
11.1379
39.8078
86.5383
-24.0388
-50.1887
-64.5864
-69.6968
10.6591
24.483
58.286
88.9403
-23.8755
-21.672
-34.2477
-14.7683
18.4355
7.95807
-16.2817
-3.10196
87.2406
32.3876
-50.6456
-52.9315
24.4115
28.0842
15.7054
12.0524
27.3714
53.2643
32.6425
-84.8957
-36.9296
-1.52999
-25.7271
-56.0521
-33.404
-12.5344
29.6289
68.3921
-41.722
-30.6348
-11.9124
-43.8256
-25.4038
-12.7018
39.647
83.0049
55.8047
21.275
-55.2799
-11.7002
55.3414
32.1157
51.1674
61.5958
-28.8002
-41.7207
-31.3613
-32.0808
-5.64548
25.7706
76.1962
22.7701
-24.8841
-12.541
-55.6938
-104.931
-98.7811
-109.164
-46.4931
79.2995
14.2317
28.6101
40.1764
46.457
70.5424
4.05338
-14.0765
28.1971
89.8195
-1.09206
-55.621
-49.4061
26.6172
36.3529
34.4768
32.0067
88.5268
33.8352
-36.3542
-83.6954
-41.272
-47.6149
-75.0819
-67.7646
21.562
35.6381
-30.0972
-75.9676
-73.1908
-6.49315
9.77126
58.3991
104.729
139.275
84.3174
3.52616
-91.0758
-137.59
-112.924
-71.6323
-21.1733
37.4215
60.8587
10.1038
4.62768
33.0019
65.6405
49.6464
50.9072
152.933
193.492
54.1929
-106.899
-222.643
-179.21
-80.0841
38.2905
137.236
191.379
133.101
-44.0767
-135.588
-115.167
-23.953
21.4223
68.2506
38.9935
-17.4559
-36.1808
-74.926
-80.7569
-80.812
-68.9933
-28.9896
0.649262
59.149
41.3799
-25.4678
-91.8824
-112.925
3.12658
77.61
134.765
250.859
152.824
-31.4503
-25.4866
-17.2046
-47.8655
-48.3607
-30.8735
65.3859
54.7752
-45.6219
-89.8059
-103.704
-63.9034
9.67034
87.1493
167.32
99.9755
-66.3131
-148.785
-200.087
-132.702
-8.15125
47.2332
83.8448
114.06
61.3657
-3.65563
-13.1401
24.0472
59.5618
52.0365
-6.98131
-81.8414
-33.7571
-44.5103
-113.756
-45.1876
58.2156
63.6484
30.0162
31.9011
37.5122
18.0395
27.8421
-43.2667
-7.52291
44.1108
26.7927
23.1775
44.1816
50.4332
63.8994
21.0824
-56.0083
-103.397
-128.909
-110.309
-40.5772
-12.6428
18.5223
-6.49799
15.2293
25.0537
31.1076
74.8783
85.7307
54.5012
38.3544
-34.8469
-38.3738
-49.7221
-77.4339
-76.1173
-60.6076
-11.5768
81.3312
109.66
59.7011
6.81208
-51.2805
-32.8661
-13.3812
3.25209
-4.29315
37.8727
23.6588
0.355823
1.8363
22.9467
25.3731
1.08224
3.7285
94.2093
74.9809
-40.4822
-92.5567
-103.392
-69.813
-67.0001
-59.7957
62.207
63.1322
-49.7151
-47.9112
-51.8494
-6.61626
40.0905
31.5618
95.1625
117.972
-26.6798
-52.3031
-65.1799
-32.2933
7.25538
0.592057
-1.26137
26.3945
92.1772
20.9569
-41.6461
-9.33603
18.9138
-51.3102
-69.5789
-31.0729
101.049
132.115
127.119
25.5096
11.7541
39.1489
-4.58773
-74.2868
-67.4728
-21.1756
32.1903
-31.8312
-83.3012
-70.336
-51.4923
-59.7106
4.02913
74.9096
54.8786
-48.5156
-56.8377
-57.1545
-71.9917
-35.2951
7.69424
31.0191
33.1423
-20.7239
-20.8181
-28.8393
-26.5217
55.5676
118.375
189.638
105.475
-53.2137
-29.925
-12.4236
19.7663
65.2004
8.26404
4.1401
-2.22932
-60.3577
-17.4738
-0.567899
9.33254
56.2196
46.6783
14.3557
-22.3706
-102.09
-186.686
-141.996
-52.8314
55.9402
93.834
75.7613
99.3452
77.3607
-22.3846
-23.838
-30.6226
11.8928
9.31245
-33.8586
-3.97978
-9.78619
-65.0374
-59.4116
-60.4226
-11.3701
41.1528
1.02038
42.1763
124.759
33.6628
-28.8461
-42.0312
-12.2348
32.1436
2.36754
-12.0801
40.167
-28.4086
-48.0015
-54.5576
-5.84554
35.049
4.25964
-9.45779
53.6368
49.2092
-28.0295
-40.0848
-28.8564
40.6664
74.096
7.32775
-8.57151
64.2856
6.61202
-34.8744
-61.9166
-11.0744
-11.9129
-48.6507
-41.2731
1.89775
63.7283
55.222
-57.9525
-55.2642
-39.5972
-20.8003
-9.84002
20.6734
96.4509
83.3937
-9.04299
-39.0516
0.826254
28.3848
42.4845
33.2942
53.729
-39.3028
-47.5121
21.9775
52.847
33.4867
11.7114
-29.2907
-3.69141
-56.2474
-148.983
-127.591
-100.681
-39.874
54.7966
78.3939
98.3516
71.458
-0.97526
1.25166
-17.9585
-10.0855
-0.907434
-33.0298
-56.8463
-7.82038
19.8167
-15.9441
-44.0909
-27.3768
29.1005
61.0285
70.9321
56.8783
90.9784
17.9481
-64.0141
-59.7342
11.1419
44.2456
43.2013
59.0805
62.6283
52.2171
-104.477
-130.015
-83.5835
-2.13354
-1.2466
12.8902
100.129
86.0383
-30.4728
-17.4907
17.2774
20.8571
18.6707
-2.99397
4.43996
-27.3325
-140.201
-139.702
-113.203
-64.3548
45.8936
81.2715
47.7092
70.4546
35.7084
-7.61573
-22.8014
-33.5703
10.2001
-1.46428
-51.6582
-34.0493
89.155
120.785
-5.33734
-26.872
8.94119
32.4485
16.6274
-33.4945
-29.5672
-11.6934
-35.329
-20.3118
22.1454
55.5601
18.3953
0.110452
30.6395
39.2384
-7.64307
-1.97086
-35.953
-71.0639
2.76954
27.7447
111.398
157.667
41.6973
-70.1713
-122.852
-125.385
-51.8004
-22.3801
2.0789
42.0847
-73.6144
-58.9607
15.9763
52.7971
70.5129
67.3112
36.7733
12.4818
45.13
-1.07718
-121.401
-151.111
-70.8445
18.6324
32.6299
-35.671
-12.036
44.5979
72.0301
96.5441
90.6948
41.3982
8.34127
14.9699
4.94731
-19.7489
19.2119
-3.37385
-85.9797
-69.6795
-45.9848
-63.3845
-54.2694
-30.838
52.3806
54.7224
22.2748
-5.29719
-38.394
-56.3755
22.2483
74.4197
123.886
28.6954
-72.9649
-35.6359
-31.8831
-16.1648
32.8007
36.094
93.3484
18.0936
-20.0343
3.34546
-13.052
-43.4161
-75.1224
-65.1178
-11.9136
80.6888
112.228
-14.8645
-73.7614
-66.6138
16.4274
44.2484
26.6703
0.167723
30.5906
74.6661
13.3928
-38.4258
-36.3621
-51.3603
-69.0327
-41.9182
-10.8115
37.4362
30.1282
-26.147
-10.8323
39.8741
29.0334
25.0148
31.3
27.4511
41.3143
-6.92998
-27.3769
-45.8113
-34.4791
17.419
19.4256
-2.30371
3.14462
62.9887
-59.106
-86.0605
-63.5964
-42.5646
3.51654
50.3397
41.3016
76.1334
-73.979
-95.524
-50.481
9.62156
33.5482
-0.916135
-19.7123
16.6497
94.7509
155.007
19.6201
2.29726
71.9447
14.8906
-63.5382
-126.298
-88.7807
5.6961
62.7335
-9.61166
72.4179
58.0282
25.546
32.5781
39.8126
75.6451
104.603
-61.5996
-151.876
-154.622
-69.2018
-63.7975
-29.8709
11.3865
66.2859
9.59459
-38.6876
-77.9515
-85.9754
-26.1736
62.2957
92.8837
79.9042
7.97483
27.0065
-0.881983
-27.195
67.7722
68.8121
14.0146
84.4646
-22.3548
-166.873
-157.898
-90.0398
2.13893
73.7786
130.804
102.499
115.457
125.49
51.8087
-5.82188
-22.3596
-68.4686
-97.5258
-124.17
-88.6651
-32.1205
-82.3865
-119.053
-44.5151
68.8378
85.383
67.6888
70.2915
38.3904
30.9426
16.3239
-72.4604
-108.098
-52.9332
-8.83348
35.086
30.239
37.1592
90.421
78.2549
-54.84
-20.4625
-15.3154
-5.32774
47.2982
60.1294
70.4348
5.96499
-34.9631
-53.3338
-18.4285
35.1415
32.1176
-16.0633
-10.4102
-7.61768
-41.9985
-19.5067
-35.5299
-20.4208
12.1652
8.51962
-15.8245
15.4474
28.5856
-9.78252
-52.1963
-23.1971
-16.0161
-39.1517
-43.0881
-8.26426
87.0289
151.418
64.2564
9.26864
-9.54413
-51.2316
-49.6689
4.60345
77.3784
12.7269
-38.3141
-63.7647
-73.359
-50.8036
-32.3177
20.1328
77.063
-32.8717
-35.2747
-41.4881
-42.9029
-29.9719
10.8271
68.4476
86.6512
75.1908
44.9386
-9.33282
-63.0331
-23.4917
33.3858
70.1848
6.64845
2.65598
-58.6049
-48.387
-42.241
18.2929
10.7125
36.5442
34.5532
74.2559
134.453
-23.5689
-82.5873
-64.8647
-86.484
-72.6802
-40.4578
3.17618
36.9865
29.2273
-18.144
-8.72054
43.7414
37.1572
28.114
26.7489
9.1257
24.1167
-57.0549
-90.5758
-52.7792
37.9116
69.6701
77.5836
82.3349
107.591
-58.4707
-68.484
-47.7939
-82.7442
-54.7888
-38.5147
-4.60454
10.4076
-29.7698
11.2075
50.5296
13.2588
-31.9155
-58.7857
-41.8467
62.3563
115.606
64.5502
-116.056
-143.634
-52.4626
-20.4645
16.1409
80.4585
204.315
177.186
46.5121
-44.1051
-53.1101
-35.449
-33.5954
-0.566583
55.9489
53.7923
80.6893
-33.8993
-72.1079
-87.6168
-75.8208
-92.5514
-28.5543
29.0687
63.068
-12.717
-68.5472
-85.7502
-23.9763
5.14759
33.6014
28.6266
72.5562
8.64206
-6.34894
-70.1313
-69.4939
2.40746
21.8289
77.6515
123.434
136.624
93.4844
-5.68277
-60.872
-69.8552
-77.223
-71.8614
-48.812
-33.7899
60.1207
96.507
-39.042
-23.914
9.16316
43.8581
10.9681
10.947
21.2613
57.1599
-4.51463
-47.3103
-49.2127
-38.9223
-41.2721
-40.9386
-44.1851
23.4278
11.3982
-4.77441
-2.17627
7.94059
68.9251
62.2755
17.048
41.0528
-40.8887
-37.7235
-53.698
-25.4688
51.8412
42.2756
79.5717
93.5885
-36.1151
-91.5116
-62.2529
-59.627
7.99225
15.7947
-16.839
-17.0524
-67.3084
-42.6406
-7.57972
26.625
50.6262
30.078
22.6089
73.9507
93.6769
-5.97948
-15.6016
-14.387
14.4181
0.0140831
-34.1461
-77.4308
-27.151
-11.3891
-144.324
-97.2761
82.2187
139.677
127.515
111.995
86.0876
95.6879
1.68447
-137.598
-127.521
-65.0642
-87.1037
-90.6726
-41.7696
-1.41453
21.8265
6.01596
-61.6518
-9.59108
113.373
108.459
69.3047
25.6032
51.5831
27.9843
-70.6717
-67.2771
-34.8144
-10.0801
4.76509
36.5334
34.0032
-43.7135
-39.7283
-13.0986
-25.9921
1.14878
30.4038
17.3832
53.6262
74.2268
4.13027
-90.9717
-92.3403
-56.5622
38.9082
23.3775
18.8494
66.6981
105.858
13.4523
-69.4542
-51.3206
-30.3292
-4.44585
23.0919
35.1065
44.6952
-54.413
-28.2407
-15.5825
-0.360505
31.1086
25.4395
66.9761
99.9714
-41.3742
-75.8025
-90.1957
-123.097
-58.3152
-0.611466
50.4456
84.5301
9.0473
-26.1001
-3.35989
34.5043
52.0331
20.2204
-7.51222
51.6786
1.32083
-43.7593
-91.1177
-123.995
-8.62109
61.2044
46.9086
0.872799
-34.7541
-67.3563
-34.8372
37.754
156.707
159.863
44.4335
30.7524
46.1436
-26.681
-84.1774
-101.954
-22.0451
-13.4114
-15.1547
18.8414
51.4472
76.5104
5.31611
-33.379
6.038
32.7814
-11.3766
-64.0543
-60.7033
-41.8712
-131.93
-122.827
-83.8986
-11.2273
18.3965
19.186
73.4107
124.268
73.3108
22.5801
51.7931
-38.5523
-46.5522
-20.8217
20.2595
90.0685
80.8508
89.1084
19.5596
-42.1394
6.72573
-7.06674
-9.51805
27.531
71.0419
-70.6689
-154.888
-120.044
-38.9996
55.7715
85.5199
100.401
100.3
49.3106
-51.6472
-71.4964
-51.968
-69.1618
-86.3652
-123.006
-77.0018
-46.7004
-63.318
-26.9785
-7.81936
78.9712
121.641
82.4716
99.2956
37.3658
7.46307
-2.51613
7.15663
41.4944
52.1966
58.2661
118.248
-24.9589
-90.2882
-119.408
-86.5811
-22.8812
30.6042
16.5491
-14.7672
29.4069
90.5977
23.0091
-18.5587
12.9525
15.0436
-10.1354
-11.8938
-2.83603
18.4926
37.4105
-101.104
-125.18
-71.3617
-4.39688
14.9393
-1.16417
5.11582
18.5777
46.4793
-20.1063
0.898065
40.5604
10.6768
15.4738
20.9048
62.1374
67.7407
-24.787
-65.6694
-127.838
-121.663
-36.6747
12.579
67.5902
22.9682
-9.33958
-21.4216
-21.4257
4.87026
80.5537
134.799
170.268
60.6292
-33.9915
-23.5193
-50.5744
-51.6287
9.90704
24.9992
77.2743
-2.35377
-14.7217
-48.4626
-116.048
-103.904
-46.7836
-36.3755
-32.0703
12.3082
24.2389
6.36226
47.3261
58.4469
51.0034
40.2398
11.2806
7.00244
29.9251
-36.8793
-89.5673
-37.4148
-15.5633
2.83815
30.0267
59.4865
111.758
15.8206
-46.427
-62.412
-51.0256
-60.9105
-96.0494
-32.3147
42.9689
110.3
9.74878
-64.0247
-52.6922
21.6187
24.533
23.6852
51.2762
124.233
4.69948
-51.0433
-70.9903
18.7868
41.9509
14.0657
11.775
41.2345
-19.7545
-16.2044
13.0386
-30.7417
6.33356
32.779
32.2004
3.54696
15.8455
23.3943
-57.0356
-112.215
-24.637
0.833234
-36.2467
-19.2788
-10.4633
58.5825
50.2846
-72.2041
-37.9369
-8.84893
22.4149
48.9317
57.1826
66.1549
13.2673
-78.4166
-90.7657
-65.8986
-12.3453
-12.2664
23.3962
96.7017
54.2334
29.9899
27.3267
-22.2448
-36.0938
24.7683
45.6041
114.752
41.7388
-120.109
-98.2107
-77.0305
-31.7555
13.9152
7.10044
66.1151
79.8126
-45.0937
-70.4076
-68.8555
-31.7831
12.2196
18.8529
31.1131
50.2247
83.7276
-27.7686
-164.024
-74.1729
60.0184
98.1408
65.0817
62.9328
39.3564
31.2021
47.3714
-2.56333
-59.972
-51.4143
-58.7054
-40.561
-7.13658
-9.66504
30.2106
23.7316
-59.9036
-19.3788
27.1503
16.5854
20.7787
17.2231
29.7928
29.1764
-35.9479
-53.1366
-74.4398
-36.1214
31.6365
23.0973
10.6751
-22.3579
-3.95978
24.7402
-4.50989
-5.12346
22.426
58.6658
115.05
26.0662
12.9375
-52.6911
-57.374
-40.3665
4.16041
-1.97586
-34.9285
-22.9861
80.279
-19.9185
-54.8609
-37.1745
-15.4455
-14.2738
-17.7194
-4.23025
58.9414
22.6418
-23.0479
5.65328
-0.364544
23.1495
-16.9196
37.2148
160.12
16.1181
-95.0859
-75.5013
-61.7023
8.26887
15.6892
20.8832
49.409
-8.29233
-29.9136
-3.86778
-0.741633
48.1374
56.2426
45.1656
24.8456
16.4977
-32.5541
-67.079
-99.0629
-18.8461
3.01181
-58.6268
-32.7108
103.195
5.87319
-59.4154
-57.1014
-49.3816
-37.2333
-12.6812
16.3755
56.3967
100.031
171.938
16.8164
-6.4196
5.75822
-25.4638
-54.8828
-21.256
-2.30857
40.7548
74.7446
-51.0801
-22.0002
-35.1231
-63.0086
-4.60327
67.6022
105.495
109.056
-29.7883
-108.453
-151.07
-44.2121
17.8419
43.5606
70.8549
61.7769
-46.5637
-34.2725
-32.7922
-70.1773
-55.4063
-24.3015
38.8192
65.1448
1.17799
-6.20607
-29.2193
-46.199
1.11385
-5.53524
43.8384
147.482
102.421
-33.123
-107.482
-108.61
-20.0205
16.8203
21.7035
8.15693
15.8346
53.3934
-2.91315
-13.6412
13.3151
7.2573
-2.48421
-14.022
47.5433
96.3561
-19.0106
-37.1512
-12.8246
21.9711
13.1604
-7.96148
43.2128
89.055
36.1994
-103.111
-79.0884
-65.6232
-41.6071
-24.0113
-19.7664
-2.46737
59.184
-15.5838
-36.7537
-49.1337
-29.9474
-20.0209
34.77
115.745
143.638
17.3549
-79.7292
-133.477
-97.5683
15.3697
42.6405
85.1326
139.296
23.6487
-44.5548
-63.4878
-69.9683
2.99204
25.4614
-19.9395
-15.2559
32.409
-10.4514
-54.4447
-58.3772
-10.3633
18.7708
52.1938
125.974
188.275
-10.6812
-123.713
-147.776
-36.4624
36.6502
33.7316
47.8528
113.631
-22.2765
-98.4821
-31.4336
-29.7022
5.38323
21.2454
47.6109
104.176
11.5132
-34.4493
-92.723
-127.044
-19.805
2.89993
5.45907
74.4206
-14.8209
-29.7595
-52.7471
-79.1281
8.89729
81.8715
102.094
119.403
83.7287
-0.393643
-40.5332
-44.5293
4.62976
-8.7082
-40.7678
-40.5438
3.48492
40.368
-79.5261
-100.518
-6.97502
15.8342
2.28779
-13.3311
33.6741
70.2156
82.2446
-3.44651
-45.1159
2.63392
21.9846
16.924
11.2705
-7.60315
41.8221
29.548
-78.817
-107.412
-40.2371
-16.0219
18.2243
11.1907
48.8883
18.1399
-9.02118
12.898
-4.98142
-13.8943
18.9443
43.0784
84.0014
38.9342
-26.6412
-63.2211
-68.7461
-50.2644
5.47116
25.3241
102.24
5.77816
-52.3826
-85.856
-66.6125
-18.6216
26.9134
18.0023
5.15532
33.768
22.6601
-49.4139
-70.5466
-1.91242
103.466
185.847
93.5695
10.7884
-54.9183
-148.815
-135.231
11.3502
68.2036
47.3153
22.1252
41.9765
9.38341
-15.3909
-19.4517
-43.6293
-9.98808
42.925
26.5875
48.9554
-22.3074
-141.477
-106.783
-53.3708
34.1053
79.7643
41.0638
26.6958
5.57346
-120.727
-139.077
-64.3679
66.6232
143.176
143.32
102.898
80.4223
68.9461
-9.42709
-87.4492
-71.5776
-25.5441
-36.4677
-46.8282
-39.4752
-9.86406
33.5958
-40.7671
-54.665
57.9215
77.406
19.9974
-0.272578
-29.6396
-37.6767
48.4461
18.3951
-61.9558
-35.5541
-3.10024
-2.07603
9.83571
8.61112
51.7138
20.8141
-6.9735
-51.2743
-33.9723
-2.56462
32.2179
71.6987
56.544
-27.9669
-25.8058
-14.049
-12.8792
26.9483
50.5679
22.2709
-56.9861
-75.782
-37.8498
-14.0164
-13.1765
24.6718
36.4467
35.5514
70.8615
1.76243
-68.055
-64.852
-55.9544
-4.98582
-6.66223
-1.53961
10.3195
54.4552
17.3394
16.5118
56.1008
38.8427
3.26173
-3.15811
-16.7022
10.0265
-47.5909
-80.6315
-66.7967
16.3123
64.3078
60.9238
95.6837
129.139
36.0433
-88.507
-115.353
-97.4505
-25.6597
-15.3635
-19.5858
6.96992
71.0703
24.9735
-9.35448
-34.4198
-3.30883
-24.8657
-57.0419
-15.3999
46.8164
-4.75192
-32.4108
-46.1387
3.78698
63.614
67.0514
58.3478
84.8954
85.9841
-1.71977
-41.0656
-69.969
-56.1375
-55.9338
-28.4654
6.68025
33.2483
35.0244
-29.8769
-31.1743
7.76903
-17.1402
-20.7948
7.27318
48.9422
32.1817
-3.90249
9.03133
-19.7436
36.6638
43.0647
29.2467
72.7093
-40.8978
-76.1903
-63.9062
-63.4926
-63.1425
-10.8957
4.19412
66.2436
43.3372
-11.3335
-8.49951
-15.6154
-5.08443
20.6796
16.4591
47.0983
33.3352
-15.1175
-36.979
-78.6232
-6.92105
41.943
26.4989
45.7257
62.7664
29.3903
-67.553
-86.7374
-27.7677
38.9246
51.5458
15.516
-26.286
3.53118
-45.7588
-78.9318
-7.20753
22.1969
-4.67386
-19.0627
34.7377
77.2464
144.007
-8.64312
-141.81
-70.4683
8.23056
20.7029
0.400657
-16.7379
11.104
91.5378
42.832
-1.00782
11.7231
-9.02169
-5.84415
-6.53895
7.3609
18.5462
-57.863
-60.0231
-83.1353
-33.1675
11.1965
23.6925
51.5794
47.5759
-25.9165
-4.51487
-8.55789
-18.5852
35.1256
37.0163
47.2318
80.6895
54.9585
-8.28457
-79.4845
-88.9012
-46.9511
-50.6237
-63.6064
-26.7225
36.4136
78.5225
-60.6316
-47.5073
15.2194
28.618
25.3146
1.17947
59.4143
81.0327
-11.8741
-30.6079
-8.32101
13.0017
21.6152
-3.44112
18.4176
39.7541
-29.9135
-29.0603
-45.564
-58.3322
8.5826
9.21291
52.1298
52.3388
-0.810125
-11.0526
-22.205
-14.3221
68.6641
52.1757
67.9353
31.6962
-77.229
-103.903
-63.565
-68.81
-24.3428
0.0468054
2.23441
0.153689
74.5668
62.4167
-47.8871
-44.7801
2.19306
15.8358
8.77586
-17.3698
23.1283
88.1168
5.44511
-34.079
13.3674
23.3578
-14.4756
-22.9105
0.342879
-2.50543
14.1662
-34.0655
-80.5594
-61.883
17.5055
31.0198
40.4329
34.8114
80.4711
-10.5684
-26.8398
-68.8023
-31.6138
19.476
33.208
68.2749
51.9236
-10.3207
-24.0633
-37.1343
-57.6289
-16.8359
-1.32431
33.1244
36.9381
-5.48148
-12.3045
-43.0421
-80.8513
11.9262
57.6039
58.8127
109.836
49.5022
23.6375
-39.9537
-68.1017
-43.4686
-23.3141
-53.771
