6.86531
7.84292
6.43736
-3.86642
0.16869
1.24551
-2.18068
-4.29635
8.49426
7.4706
2.13725
1.58296
3.397
2.54294
4.81699
-5.72493
-10.2383
12.4524
5.17302
-1.27086
-7.58887
-9.31264
-7.82118
-14.0352
-18.358
-20.1875
2.77468
4.05161
-3.49921
0.727909
1.11023
-2.71911
-11.5193
-2.55678
7.09816
5.95916
10.7344
1.1218
-6.84487
-4.16171
-9.19184
3.9093
5.39641
2.30308
6.96955
10.7577
3.85799
1.68623
-9.44131
14.2472
15.4399
12.8804
15.2164
8.28233
1.2369
-1.39476
-9.09953
-0.0641534
-2.51692
-5.1248
-1.94298
-7.35707
-6.68833
-4.42478
-2.85508
-7.54871
-12.7978
10.5742
9.80924
-6.24817
-11.0253
-6.27312
-4.40377
-11.0597
-17.1557
7.85654
12.7792
-0.151292
-4.54582
-2.92513
0.191885
-5.66485
-6.44558
7.70572
15.3593
16.4648
10.5711
-0.504504
3.62996
-0.353936
-2.96006
-7.72336
10.1068
12.3875
11.4077
-2.39437
0.625513
-4.13797
-15.3948
-17.9047
7.74134
9.64005
6.94955
-1.13862
-4.1484
-1.11506
-5.67479
-21.4863
-9.33598
8.50313
8.5385
11.3438
0.22065
1.74307
0.962029
-4.5783
-3.92486
-15.4761
8.14266
14.4475
-1.08182
-4.04187
-0.0465786
-3.91379
-7.02387
-11.0011
8.45945
13.6691
7.3224
-5.55777
-2.34179
0.79712
-11.0064
-4.98599
5.22338
0.4047
6.29176
13.1741
4.67138
2.74296
-9.40292
-3.02945
6.31296
4.74276
8.20011
14.7043
2.28446
-1.58961
-15.0451
-9.44521
10.9908
7.25829
3.09404
-1.96151
-8.11736
-7.23088
-10.651
-18.2816
-10.1376
-0.902125
-2.9377
-9.86711
-13.8084
-7.21693
-6.18428
-4.75301
-8.78
-3.01194
24.4867
22.1188
8.03131
6.57922
6.25338
4.21516
3.59294
0.670534
-4.40892
9.02708
8.57503
2.91966
3.92697
1.92692
0.478735
-1.33643
-4.09219
-4.82308
7.29901
14.0863
5.34059
-1.82784
-5.86382
-2.6335
-2.11071
-9.94961
0.057882
-0.732072
1.12703
-0.28435
-5.4238
-5.34016
-9.09099
-12.6354
2.24132
3.13056
5.24053
5.54315
-0.315517
-2.55664
-7.12016
-21.0348
-6.65054
20.0217
15.5002
13.2291
3.51783
3.30802
6.13749
0.957388
-1.90377
22.2539
21.0438
6.07838
-9.02844
-16.7144
-22.9549
-34.2044
-36.3808
-9.22479
-9.85974
8.69278
13.5093
-5.88952
-12.3533
-6.39276
-7.12997
49.0219
67.3055
17.8744
-19.8068
-34.8924
-12.4871
-10.5029
-34.3775
-5.91624
32
45.8282
62.7734
69.5685
37.5312
-7.30738
-92.956
-135.192
-61.5341
4.3509
-8.45673
-31.0837
17.4093
67.6775
68.1166
39.7204
15.6317
13.7364
13.5276
-33.8442
-71.8319
-42.651
-46.9378
-71.1589
-16.6817
26.6002
75.9017
102.703
62.2538
32.1288
52.9158
50.2832
3.15146
-16.9087
-38.8779
-55.6243
-35.6456
-42.852
-48.6213
-14.3353
42.1067
73.4568
94.4416
80.2128
33.6626
-34.3594
-71.4712
-92.5782
-132.877
-166.85
-150.615
-73.6855
15.9184
89.616
127.952
108.43
58.1953
18.0328
-55.4118
-177.655
-252.853
-197.413
-43.4481
129.638
234.524
320.084
270.72
139.046
83.7543
72.9969
47.6812
-18.2071
-66.2702
-68.9699
-75.2653
-39.1049
-12.7625
24.864
46.8053
75.0597
89.3214
13.9617
-114.309
-180.946
-203.559
-187.396
-116.398
-6.69279
42.8156
43.1442
57.7678
16.9209
-46.9269
-75.0778
-46.7761
-59.6839
-70.789
-79.1721
-34.498
44.906
96.6663
131.968
165.477
150.412
108.519
46.4495
-5.15227
-53.89
-68.6956
-65.1595
-76.0281
-32.3007
67.3597
87.2817
55.4293
33.0907
2.68065
-10.0438
22.4609
66.4214
28.8835
-3.78674
-14.9501
-35.6036
-38.2754
-25.3648
50.2176
65.8876
-4.90717
-42.423
-22.6033
-48.2728
-95.8198
-93.0366
-36.6366
-6.59082
22.8248
13.8662
30.3997
74.0039
25.3122
-27.3428
-65.2733
-62.7675
-59.1129
-138.45
-168.025
-200.99
-179.915
-56.9912
3.73824
18.9645
88.2543
224.091
241.698
225.22
170.822
140.696
46.7443
-15.6013
34.4302
70.8722
55.2731
-7.64559
-64.7317
-17.6726
-6.28657
59.6588
187.232
180.268
60.2737
-7.56569
-121.701
-307.86
-382.755
-302.435
-150.769
24.6505
99.4998
111.825
78.535
-39.0221
-16.3059
30.0492
18.8882
36.1856
83.3542
110.872
59.8157
4.02467
25.2047
15.1892
-23.3581
-35.9479
17.0507
15.446
-44.6773
-93.1652
-29.7736
56.1284
39.267
31.3739
17.3615
31.73
-65.2278
-208.494
-191.48
-122.679
-38.8977
7.6753
47.9505
175.181
262.04
133.304
-37.2414
-45.0338
34.29
-67.1278
-114.639
-142.687
-54.3744
75.3745
60.8116
8.6691
78.4628
139.564
127.032
79.0356
-3.36243
-153.333
-237.259
-213.649
-175.19
41.2948
209.09
243.393
169.267
128.261
56.0759
-19.862
16.6339
51.0456
-36.2783
-143.562
-130.694
-46.7036
-46.0636
-7.61057
3.82286
44.6145
82.3542
-38.4932
-72.6111
-79.7547
-66.2285
-81.6651
-127.708
-100.252
-6.61778
25.8945
-38.9459
-43.9102
45.0241
103.475
129.213
141.326
103.439
-5.24437
-45.5237
-28.2887
14.2186
104.272
235.761
245.771
156.548
19.9969
19.1365
28.8902
22.3208
-41.9215
-95.7965
-173.346
-253.407
-359.293
-336.566
-173.79
-46.4007
55.7679
206.351
230.506
41.6039
-59.4998
-175.088
-174.667
-93.6825
58.9717
79.8566
31.029
18.9907
54.4591
80.0485
104.451
138.173
228.874
234.086
147.444
79.6515
54.7139
-12.6952
-30.9197
36.0364
52.7564
24.3118
-24.0891
-90.3342
-219.455
-304.922
-241.03
-161.456
-86.5377
61.339
233.353
177.766
42.0738
9.74005
37.4533
18.8832
-61.4548
-105.649
-125.473
-108.868
-99.951
-108.836
-80.5947
16.3618
91.8598
126.578
127.042
74.4065
66.7591
50.6914
-30.7467
-30.3308
15.8326
-66.4363
-182.686
-106.933
141.85
350.315
354.309
187.865
-155.124
-401.163
-324.869
-295.646
-305.13
-56.1846
155.775
137.976
156.188
156.35
92.9289
91.865
96.7194
106.162
190.668
148.445
-27.4133
-173.318
-134.531
-12.5858
151.311
269.371
182.982
112.617
114.727
5.13947
-94.1877
-92.9326
-133.978
-226.129
-276.493
-234.309
-150.19
-48.0062
-18.1781
10.7764
-15.716
-82.0863
-105.497
-45.5182
56.197
104.802
71.9277
70.5624
77.6108
18.3206
-67.5301
-80.882
-135.664
-112
-8.62406
11.1563
52.675
106.808
101.741
77.4621
63.5926
122.502
143.673
142.984
85.7999
15.0609
-27.8261
-49.3614
-119.493
-162.762
-99.2052
9.46881
190.246
210.189
176.298
202.535
128.052
52.5722
-36.06
-79.9456
-23.4376
-94.9718
-167.789
-219.587
-228.161
-221.255
-197.018
-147.225
151.973
328.673
210.874
13.6706
-168.639
-178.051
-132.344
-80.2471
4.60634
34.2178
-37.7399
-56.357
-79.1861
-109.759
-39.4656
36.3274
97.2422
186.431
219.049
208.736
34.2659
-95.0324
-50.5945
29.6458
4.43691
-48.525
-28.7996
-15.4405
-30.5702
19.9218
111.689
130.463
117.188
208.881
208.536
75.5867
9.47949
-36.1984
-72.8827
-151.682
-142.504
-78.5728
-43.0634
-54.7077
-8.62622
23.072
-80.3935
-149.264
-120.244
-84.0466
-39.7314
-20.1421
-10.6169
-62.8215
-102.323
-32.6744
31.5201
64.3942
105.917
134.436
84.6648
36.7752
20.7097
57.7505
88.1873
54.448
45.7228
14.5751
-57.4904
-84.1217
-25.1584
-27.8411
-70.3614
72.7637
119.267
46.8805
39.805
-1.31972
-65.9006
-57.5479
-66.084
-70.1603
-33.745
-18.9164
-16.7722
-29.5573
-7.10805
23.6264
17.0014
-9.25311
-38.6062
-51.439
-67.4256
-65.0198
33.4329
150.335
196.764
217.882
209.156
106.572
-77.636
-214.418
-470.164
-399.104
-193.122
-13.6856
91.5902
188.692
255.926
188.692
131.946
131.285
159.56
58.641
-3.41022
18.0105
-15.2742
-81.3534
-106.695
-35.7135
40.3486
67.1438
234.924
226.636
-63.0036
-240.831
-238.371
-232.719
-202.345
-125.627
-40.5943
18.9322
19.354
73.4212
117.684
69.3199
126.648
114.173
18.2677
-98.8168
-161.492
-110.889
-36.1149
-169.1
-135.832
-30.9781
21.6118
62.3469
104.664
85.2194
20.5551
-16.1914
25.4558
10.5896
-66.1027
-74.6574
-82.086
-2.40491
113.473
171.266
195.395
186.813
197.953
241.844
245.419
233.386
140.703
51.3887
-94.0608
-208.125
-279.231
-393.076
-428.252
-345.121
-193.799
-30.1763
22.4704
58.4427
19.7046
8.12633
23.8023
45.3535
62.0683
108.575
132.171
167.505
190.005
169.148
138.827
35.8627
-72.7798
-120.878
-115.082
-6.93784
-120.757
-218.369
-76.0884
138.389
236.081
339.211
210.378
-87.201
-170.331
-179.496
-138.501
-173.506
-214.774
-163.62
-25.8031
122.179
102.696
110.144
222.317
70.4665
-118.454
-178.846
-290.369
-454.88
-339.841
-132.358
91.0937
248.251
380.222
458.418
277.871
136.783
74.6971
-23.7338
-100.836
33.6535
279.692
267.738
56.967
-134.97
-166.08
-124.723
-115.384
-104.415
-60.5751
-80.5122
-92.9355
-27.868
-73.4205
-114.014
-55.4996
-35.3002
18.1471
26.7392
73.439
46.6443
-8.84219
60.6427
117.949
115.275
123.289
109.066
85.5899
35.2914
-75.1154
-169.226
-129.477
-31.6007
-16.9474
-97.7187
-36.208
34.8138
-1.14217
-6.46829
-26.089
-53.7422
-67.3596
-52.9909
8.21554
107.395
213.354
126.066
84.2852
138.243
63.4664
20.3303
-83.5548
-245.4
-233.051
-177.973
-187.031
-120.661
-72.3216
-48.7341
39.2612
161.358
239.497
235.181
183.403
-46.6923
-143.922
-91.5099
-169.653
-156.042
-30.104
-95.4812
69.5742
356.117
167.413
-16.8552
82.186
214.373
376.326
393.488
194.376
-155.495
-427.123
-478.828
-521.695
-267.792
45.0663
234.393
299.994
244.839
56.8441
-95.697
-158.874
-171.249
-157.441
-2.5227
56.3003
-24.7276
-146.862
-146.05
-89.7106
11.7159
116.613
179.854
235.458
214.596
131.829
33.9897
-16.6726
-50.6759
-0.988187
85.615
10.9106
-41.0622
-1.85045
-41.6927
-65.3861
-61.7655
-46.3448
-26.218
-41.6333
-12.539
23.1803
-12.6281
48.2507
52.4862
-98.4469
-166.098
-88.6018
-119.313
-14.9859
63.5962
72.403
104.764
243.833
180.374
-8.11925
-123.547
-170.706
-177.055
-102.119
-31.5301
-8.67265
46.5139
121.984
167.782
162.687
73.721
-35.12
-55.4597
-46.2487
-34.7872
4.59605
-64.8575
-133.298
-59.3263
-79.8869
-82.119
57.7822
79.981
34.1873
96.049
118.082
51.7236
20.8876
38.3037
95.3368
45.3169
-27.6116
-58.8668
-86.977
-11.8717
18.6665
43.4691
66.494
125.343
198.156
83.5758
-79.3943
-287.651
-339.438
-391.28
-389.235
-159.438
167.577
207.247
47.0005
121.268
203.509
176.732
96.5699
13.8183
11.2322
156.752
121.039
-38.2311
-40.1821
60.4544
55.0661
127.287
8.65452
-95.2345
-19.8573
-72.3844
-225.951
-189.731
-85.8946
-47.3373
8.62442
75.921
95.3694
120.158
1.50681
-165.16
-109.511
-21.0315
3.19691
88.4775
-0.505815
-25.9394
125.856
210.404
224.282
152.323
-59.4131
-180.048
-171.607
-155.696
-80.779
4.83049
-15.6038
-72.5274
-28.7036
1.40591
-36.5365
-36.1545
-2.48161
-100.341
-41.0532
16.8818
85.8892
154.997
39.214
-41.5004
-1.04081
12.4341
99.3536
163.681
113.762
50.3817
1.1534
-6.27332
48.7946
-8.70949
-73.1217
-45.3797
-51.6276
-105.872
-42.5536
52.1061
76.3274
22.9024
13.9484
39.0475
17.888
-22.3844
-22.994
-26.4682
-60.0764
-50.0043
29.6546
94.7916
44.8956
-8.73204
-54.1651
-73.8078
-11.7024
78.8579
23.569
-14.6473
-45.6089
-65.4365
-65.5338
-51.1832
-82.3792
-58.7873
-1.28757
12.4242
26.3195
38.5322
14.3609
-53.7365
-71.1336
-61.9188
-59.349
-129.984
-112.111
3.21358
128.357
279.184
282.957
169.286
35.4991
2.53488
-45.3732
-35.4445
97.4193
158.344
171.725
232.48
81.1187
-156.532
-266.888
-318.831
-269.955
-75.0067
-110.354
-224.776
-158.137
-127.785
-53.494
-0.227809
131.674
196.022
247.682
245.922
130.177
75.4551
19.3282
-101.273
-92.3219
68.3501
149.551
208.943
244.082
184.272
158.54
33.6568
-136.375
-259.932
-271.341
-163.152
-123.172
-77.3131
-7.95294
-40.0178
-113.675
-110.732
-105.016
-131.13
-100.453
-60.5786
-1.60534
42.2309
83.8322
10.813
-24.2825
85.3192
140.305
123.559
94.4029
113.686
166.386
73.413
-72.1477
-105.076
-177.616
-157.823
-110.661
-28.375
141.104
125.225
102.8
79.1634
84.1865
117.882
82.6295
35.5424
94.0555
88.3974
-42.2412
-64.9908
-79.5326
-67.7374
-73.1216
-105.527
-59.3211
-63.7066
-91.2462
-64.8143
-72.9256
3.22876
58.0929
32.902
-21.329
-19.3948
-5.2448
48.9114
9.2647
-10.344
55.7767
42.186
11.9878
9.29204
25.8254
34.3119
49.6534
24.0667
18.2818
3.7748
-28.8029
-43.4581
-46.6044
-13.0041
57.6744
28.0759
-51.194
-43.9096
-73.8001
-123.486
-99.7086
-111.626
-94.0178
40.2722
126.179
134.487
104.396
73.5928
90.2527
-39.5045
-199.39
-108.8
108.741
239.576
220.888
119.112
-66.922
-163.871
-197.415
-60.2075
79.6578
176.687
227.738
56.0498
-82.375
-45.8551
-17.4683
-44.5391
-52.8179
22.3322
98.0764
51.669
-66.4777
-143.029
-192.619
-183.773
-19.2556
67.2748
49.3596
-50.3957
-91.7915
-154.534
-199.159
-90.731
58.3074
91.8193
27.9629
19.3298
21.265
47.4112
96.9235
102.039
47.3037
1.71174
-9.42926
38.4209
103.594
106.905
132.478
138.328
95.1784
92.1771
70.207
-29.1583
-128.135
-121.091
51.4663
104.712
56.0449
0.567266
-147.681
-224.186
-225.253
-247.722
-186.282
-71.9888
30.298
63.4893
31.2269
43.1511
59.1752
70.1493
60.3905
86.9106
101.869
62.5551
-14.1267
-25.8157
-20.1832
-15.4108
35.9855
77.3647
125.949
149.036
194.731
306.99
122.192
-178.386
-191.741
-196.389
-192.112
-141.724
-128.151
-124.318
-86.2379
-62.113
-52.2795
-23.4513
-15.2584
2.66894
64.4797
86.7912
53.9228
45.6654
-2.2498
-97.059
-42.3362
102.439
136.536
137.008
93.5563
-100.396
-188.056
-128.464
2.05558
45.9877
21.9303
2.25441
-10.6761
-53.1345
-72.7668
-9.86197
66.7876
145.774
205.591
45.7059
-73.5755
-40.1431
14.8517
44.7158
48.2592
154.397
61.2696
-69.4828
-137.407
-71.6788
50.8175
193.869
263.088
154.75
131.685
28.1661
-139.475
-225.17
-322.941
-225.218
-137.344
-83.3885
-91.4515
-68.4613
-15.7618
-2.62068
55.375
113.986
92.6159
79.0746
48.1553
-43.3397
-111.861
-73.2726
-73.6378
-33.0484
-8.09187
6.80378
18.3238
119.97
76.9207
18.1431
28.4951
22.8943
15.9189
19.0385
0.047773
-65.0114
-143.723
-79.936
57.5945
198.527
356.596
354.806
175.046
-64.6276
-181.187
-124.079
-59.5678
-113.15
-37.2671
-7.20466
-46.3989
-58.0095
-122.801
-192.656
-152.142
-119.32
-37.0242
51.5255
72.3866
62.0392
13.3546
50.0574
102.71
108.1
105.373
64.7652
29.5274
59.3656
47.6379
66.3921
60.2791
-10.0391
2.77881
38.8334
54.0054
46.1998
-6.52371
-35.5462
-180.851
-294.436
-324.416
-277.847
-149.796
-27.9157
59.1047
142.638
103.543
27.2298
21.6535
121.575
330.319
290.49
128.523
-76.322
-170.632
-170.259
-76.9984
-85.4851
85.1863
115.587
21.9976
-22.7402
-58.8901
-88.1875
-71.9589
-2.94195
61.0535
68.2724
31.0238
-141.377
-309.952
-185.091
-41.4761
182.977
340.636
415.99
249.714
121.061
10.474
-50.4973
-14.9599
-58.0231
-77.1203
-69.7718
-95.5951
-145.401
-141.716
-104.035
-5.30675
104.179
113.458
97.6812
133.82
-0.629362
-150.589
-266.871
-212.545
-56.9258
14.8575
52.4182
60.4533
53.6654
13.4388
-65.2805
-96.2553
-75.3954
-59.6832
5.39775
135.354
290.4
184.87
0.0106972
-91.3366
-50.2834
-61.1919
3.86181
57.4233
26.0506
1.93249
71.4521
-9.79679
-41.7978
58.4087
140.983
120.433
58.271
62.9899
-13.7489
-142.517
-298.5
-324.153
-336.254
-278.463
-134.304
10.9142
134.298
202.201
249.78
238.391
141.932
142.485
134.688
40.7526
18.246
121.156
119.532
50.4633
-5.16775
-31.4816
-32.617
30.324
219.417
125.728
-97.9943
-220.867
-220.999
-226.942
-211.121
-162.271
-82.6153
-49.5943
-80.1851
-111.984
-93.2495
19.4066
94.615
25.4653
31.192
17.9352
-14.278
21.7204
24.3067
65.0067
182.941
272.547
183.713
150.733
36.5275
-51.566
-74.8642
-19.6826
23.8327
61.3226
120.243
-42.4957
-140.875
-97.081
-89.7644
-83.7744
-71.9418
-57.2574
-62.3688
36.8755
151.676
102.63
-24.747
-76.1484
-63.3921
-135.56
-191.642
-179.545
-82.7722
-35.9498
56.1017
30.3782
-36.8788
35.5717
73.3374
19.3242
21.2916
127.507
263.015
318.527
125.4
-44.2116
-4.39345
-119.078
-144.047
-24.9695
87.9921
188.964
96.0175
63.3154
41.8335
-187.667
-163.628
32.9013
157.549
286.925
304.886
189
-37.0016
-296.318
-448.646
-395.334
-298.562
-186.404
-58.8847
80.4166
108.114
54.9726
70.2117
63.4417
-28.1642
75.466
91.391
-6.67529
-20.9583
-103.232
-204.253
-252.398
-227.285
-87.4121
94.3189
264.43
334.36
264.655
184.375
65.5767
-14.8047
-99.5628
-106.036
-99.9242
-117.59
-11.8042
62.8057
30.7812
-108.652
-126.894
-2.46294
89.3892
87.9716
238.633
361.603
251.293
143.763
144.488
-89.6458
-300.249
-298.677
-166.069
-124.01
-27.2934
-20.094
4.72044
-7.68583
32.6735
168.129
111.223
137.678
50.9279
-80.2902
-300.956
-296.432
-213.322
-216.736
-215.081
-33.342
162.88
162.08
145.16
227.906
217.542
160.51
123.676
144.758
18.9073
-113.114
-7.6232
-45.4355
-57.7594
66.2643
52.9448
-53.2495
30.4544
-5.94524
-9.22631
56.0632
-122.651
-208.54
-221.554
-257.694
-214.944
-114.641
40.9623
151.785
268.964
262.691
160.375
49.0866
-82.7809
-209.553
-160.763
-64.4775
-81.476
-87.0035
4.62713
104.038
214.857
211.307
153.101
160.517
119.99
96.2769
107.866
38.1785
-114.536
-122.977
-95.3733
-120.919
-70.124
-72.5152
-108.061
-151.993
-201.531
-221.308
-113.491
0.292587
192.838
273.437
234.883
172.321
89.8041
3.31118
-113.127
-170.288
-108.74
-104.127
-135.088
-78.7367
-40.3426
138.529
391.363
585.346
438.918
179.632
-212.26
-349.095
-331.275
-232.168
-162.723
-86.0225
-82.9323
-54.8861
-11.4716
-25.6476
-42.6384
-10.948
22.8584
41.248
97.823
79.2879
10.5691
-52.1085
-14.0621
69.2555
142.665
85.3657
2.71072
-35.3567
-53.3336
-28.6552
85.8873
165.73
133.508
79.6416
-79.1652
-179.072
-153.039
-93.4861
-4.10141
22.7591
-44.5156
-189.409
-209.511
-198.842
-212.098
-113.387
108.136
190.627
357.069
316.604
118.183
13.1748
3.85376
-60.3352
102.993
138.904
119.117
81.1195
-81.7251
-138.226
-98.2054
-91.2801
-16.4179
147.93
248.286
177.449
32.8592
-104.216
-219.824
-206.287
-116.808
-37.148
-34.977
-36.1767
-81.7237
-78.1698
-79.0035
-51.7689
-1.29948
7.7607
16.5393
71.125
67.455
60.7122
98.4498
78.5901
17.732
8.32665
-26.7317
-46.2808
-55.5457
-83.8427
-106.77
-64.9309
-16.2064
44.9453
46.6736
21.5927
56.1317
55.232
6.80297
7.37234
18.5288
45.7508
118.343
139.683
-54.3432
-89.3874
-49.1502
-7.48456
146.761
236.778
74.6667
-34.5339
47.7173
27.0824
-333.816
-554.727
-490.05
-286.424
136.761
424.163
287.457
250.427
237.786
80.3289
58.4748
-8.6106
-138.357
-69.6652
-2.49273
-106.275
-45.5292
52.724
-28.1721
-23.8522
171.757
284.997
258.623
179.305
-50.4943
-281.143
-255.989
-209.708
-167.919
-70.1072
16.9209
83.7715
-6.45575
-96.7458
-147.887
-59.0785
-2.86541
-4.34415
-21.8568
-76.2586
2.53057
91.001
124.343
117.258
82.9092
45.8875
34.4165
2.90181
-89.722
-189.418
-141.369
-55.3684
78.9361
143.51
213.756
220.514
124.048
60.1705
-18.5848
1.34986
98.5543
99.6241
84.4545
-4.4625
-118.435
-135.199
-76.4439
-85.0405
-27.3188
80.6782
75.671
-1.8832
-163.887
-333.186
-335.665
-335.863
-68.7346
251.857
204.164
-11.125
-29.3744
-16.7588
37.2616
110.52
85.2282
32.1908
58.6361
43.8008
16.9007
30.9906
111.304
261.556
326.657
218.671
-74.1358
-276.23
-306.134
-392.664
-324.609
18.6675
108.168
95.8781
152.321
36.0796
-4.31751
30.5119
-147.22
-138.849
23.615
72.7892
39.0033
98.9158
168.627
194.271
307.281
358.403
85.1456
-169.248
-126.456
-57.7312
-3.03006
101.246
31.4744
-60.7821
-179.336
-202.451
-94.0379
-106.858
-189.965
-169.573
-130.823
-183.986
-147.223
-16.3557
-10.9939
-4.99725
48.0038
78.3621
93.9191
32.9522
19.6343
-9.08778
-17.2677
-110.291
-153.828
13.0877
209.576
226.017
254.725
201.447
31.8003
-48.0898
15.5976
64.639
41.5342
40.0305
151.322
102.408
-84.5553
-134.857
-59.8892
-6.31388
-52.0548
35.1301
44.1128
4.85447
127.506
190.574
139.531
39.4718
4.49507
-32.8584
-104.808
-176.135
-228.486
-202.985
-190.306
-121.873
17.8447
108.71
-19.9248
-150.078
-117.477
20.8527
143.248
107.5
-58.1651
-126.266
-152.489
-105.278
-15.098
-1.92646
14.2098
20.1497
32.2138
44.4573
65.8543
170.946
297.845
295.083
198.835
56.0722
-101.162
-242.803
-339.594
-350.282
-197.098
30.4931
104.861
34.5439
140.939
248.877
192.517
229.61
202.243
53.5407
-2.37304
49.1681
-38.2139
-101.599
-100.419
-156.967
-136.305
-34.3808
96.5882
275.194
332.143
76.968
-71.499
-137.045
-253.608
-258.819
-109.416
-149.812
-281.015
-213.919
-181.927
-122.892
-13.0363
-30.7014
9.05392
147.876
211.832
282.656
283.868
110.062
-45.1852
-17.0533
-6.33374
55.8664
80.2439
2.17506
-96.7347
-89.8335
27.0177
87.9058
139.619
153.83
73.8743
39.1237
91.5718
120.96
90.9367
22.0438
-45.4007
-97.9814
-138.679
-129.863
-85.5374
-57.5659
-233.822
-329.936
-328.007
-195.234
19.7882
111.348
106.256
-16.3694
-116.721
-13.3434
6.7164
48.0014
135.986
136.216
131.959
94.8548
49.1469
40.4113
76.2795
104.813
153.62
266.225
363.67
163.268
-19.7265
-197.066
-178.807
28.2265
99.8479
9.36725
-50.8942
-212.171
-294.547
-268.943
-301.59
-214.235
-162.382
-157.824
-7.05467
76.1993
115.648
108.288
164.436
272.989
160.3
11.5584
-170.519
-211.568
33.488
210.268
169.743
48.6849
-28.8869
14.9899
94.393
62.6939
79.2293
161.135
37.4974
12.7747
17.5263
-67.392
-141.912
-160.631
-106.43
80.9275
203.897
57.286
-106.8
-238.834
-303.437
-104.423
97.6582
68.7856
135.583
166.096
124.222
27.5021
-91.0234
-166.192
-54.7111
24.1954
-11.138
-19.0411
43.3489
50.262
-98.1545
-237.77
-261.901
-218.295
-41.2573
125.236
169.143
169.299
74.8052
104.093
90.0642
55.6616
23.4026
-8.75428
-54.9695
-14.0463
-6.42565
63.5697
114.733
85.5734
68.5402
133.46
53.38
-16.7839
-36.8141
-98.0008
-48.2741
15.2435
78.7234
95.6913
20.837
-128.792
-125.337
-12.0347
47.9866
-6.91637
-183.1
-299.34
-234.451
-152.179
16.3248
353.317
435.719
330.894
195.755
31.543
14.3414
-113.41
-360.036
-537.773
-581.395
-346.787
-128.567
-8.37199
158.16
408.942
419.785
237.863
175.756
120.979
95.6333
-27.6443
-68.5948
-18.9924
18.5023
72.2867
-12.3989
20.9301
128.786
133.757
160.769
143.574
73.5468
-11.2251
-118.881
-259.822
-217.305
-144.506
-164.567
-99.5456
-71.831
-129.682
-108.31
-74.4949
-43.5006
5.49277
-14.7148
25.1792
98.589
123.048
171.347
115.341
43.9996
38.4521
34.3076
27.7852
7.5762
17.7603
-0.0187473
-35.3676
-126.456
-330.242
-385.189
-165.974
47.4607
197.99
305.783
230.943
188.592
267.855
192.346
41.3283
39.1479
24.5769
-183.894
-319.319
-210.659
-40.9967
27.5239
19.3202
68.9947
173.094
209.066
87.0127
28.9252
-44.6251
-173.508
-120.988
-61.2049
-90.5759
-19.2876
83.5807
46.7892
-20.7341
9.86687
-20.3712
-11.6169
-15.0032
-41.7304
-20.0227
5.72324
18.545
25.811
4.96603
-60.317
-91.0404
-65.8912
-55.166
-40.3294
-27.3394
-27.4649
-8.99914
-12.5271
-17.1139
30.4612
64.0115
83.3168
114.231
141.092
190.962
119.958
-19.1904
-131.28
-293.219
-279.88
-107.511
-129.584
-67.7819
256.567
299.243
39.3093
-77.7423
-138.801
-249.572
-149.86
69.7949
231.211
199.321
75.341
107.224
128.319
150.512
192.791
251.364
200.468
107.205
132.991
102.421
-148.116
-289.667
-283.534
-315.589
-160.75
-16.7294
-17.2015
-71.4116
-111.79
-111.797
-84.8198
-124.858
-89.1046
-13.1838
30.3669
69.221
62.2024
28.9084
-4.26658
-36.6206
-84.5842
-43.4345
99.1767
266.323
276.482
275.567
180.931
-29.7467
-111.791
-117.874
-185.687
-208.126
-84.6614
-25.3767
19.5482
58.5371
33.5967
-1.51149
-20.6801
-63.675
-25.3418
17.7071
97.8635
164.286
143.4
102.006
2.09507
-93.9098
-180.611
-88.593
-32.0647
20.3713
29.8924
5.11571
60.2184
57.5926
9.65177
-8.44772
6.69291
64.0665
64.4877
25.4678
-48.3305
-102.03
-218.199
-194.664
-4.52228
192.409
135.077
65.2403
123.101
53.0904
-2.74715
-106.977
-268.723
-257.243
-190.979
-144.493
-56.2703
44.4331
82.6987
120.809
154.997
145.933
190.93
151.77
94.5924
64.1374
49.5154
-62.7038
-176.901
-247.877
-110.511
59.9573
125.447
151.078
215.071
217.101
118.645
-14.8174
-82.5789
-97.9092
-67.9162
-90.9841
-121.296
-63.1276
83.2546
112.587
66.716
-75.2481
-208.157
-139.04
-153.367
-119.887
-29.52
10.9585
-5.47364
10.0227
77.716
90.5278
64.5599
18.8796
48.5568
112.275
81.0681
-56.1373
-198.494
-289.535
-303.008
-216.279
119.143
208.37
198.632
250.495
207.723
68.0084
33.6724
88.5119
103.792
81.8115
2.11068
-66.3145
-105.424
-108.79
-71.0571
28.8628
98.2529
173.001
187.833
75.9452
-69.3348
-41.4357
-220.753
-253.428
-169.846
-65.9054
-46.6733
-76.456
-42.4148
-72.8109
-74.8401
-21.0944
4.81486
-7.94787
21.6536
71.1993
46.5626
8.28996
57.4173
177.708
179.801
118.012
136.59
100.2
47.2991
-1.61449
-49.9081
-73.3543
-135.511
-88.8162
48.3789
181.917
279.186
99.5444
-140.047
-322.023
-397.911
-267.924
-64.806
126.667
157.034
150.497
68.0259
-46.4596
-111.802
-102.631
-79.4191
-39.3841
-46.4813
-46.3592
-45.685
-57.8706
-36.2151
65.2128
224.574
352.904
297.903
103.912
88.1503
145.34
34.5727
-163.72
-265.577
-234.498
-159.19
-264.368
-105.395
15.6123
42.6118
176.583
221.878
77.0813
-56.7481
-3.77369
49.4671
24.8411
30.4923
29.5316
-30.7451
-103.643
-61.1788
23.2573
126.832
127.799
95.9695
170.648
81.3493
-36.5709
-82.9084
-136.264
-172.955
-134.643
-121.296
-104.883
-95.5565
-55.5701
-24.8451
-63.8482
-63.6188
-86.2469
-79.1653
105.774
279.398
197.485
94.4684
101.574
56.6994
-2.47096
1.92195
16.4475
-5.02574
-2.62918
-26.1679
-41.6743
-20.3768
-5.18416
31.9076
45.0071
-36.6494
-30.7323
132.013
184.452
30.3153
-59.4953
-84.2459
-128.124
-91.3292
-239.153
-325.538
-217.454
-51.563
-43.7049
73.9109
250.492
238.073
174.861
189.114
192.153
65.1372
-28.4638
-79.1243
-142.356
-49.7586
96.1699
122.236
105.706
11.8477
24.7116
23.2805
-82.7115
-143.475
-31.4347
-51.2961
-145.194
-136.076
-86.4156
-82.3205
-37.8493
47.4674
59.6871
-15.3954
-70.1079
-56.4372
-44.7479
9.57291
100.448
144.04
207.061
238.227
177.291
63.8005
-67.6483
-70.2528
-42.9142
-7.88205
80.4543
-17.6719
-224.028
-362.843
-395.972
-277.307
-91.0009
50.6531
198.64
426.832
453.337
306.833
69.7825
-107.231
-144.295
-5.7339
-63.5428
-122.377
-32.0208
-36.3744
-155.449
-159.248
-164.59
65.1265
305.888
310.333
183.994
87.9079
53.7855
-91.0899
-185.839
-177.113
-60.4262
51.7484
75.7547
-32.1901
-0.690146
2.37089
-92.9988
-114.184
-97.6254
-33.3374
103.835
94.7747
14.2641
-55.8164
-83.0686
-98.1538
-128.599
-149.809
-123.701
-64.7645
27.9112
92.4937
102.116
83.0625
111.874
103.991
52.7849
23.0628
17.6549
55.6949
131.315
136.367
132.135
177.077
154.742
62.9438
-84.8954
-260.385
-277.341
-167.67
-81.3688
-82.3389
7.08191
117.568
199.056
206.246
124.128
-24.1174
-122.221
-192.229
-179.777
-88.9946
-40.0545
-15.1821
-8.53709
17.5222
-7.22206
-26.5333
31.117
5.63312
15.4152
109.207
106.882
31.6783
14.4202
-44.9475
-62.1772
-39.9944
2.44103
140.497
182.916
20.2631
-57.6031
-262.276
-372.291
-277.787
-115.843
80.4514
164.555
171.78
179.326
151.097
80.1575
23.0486
-17.3086
-10.3378
-10.5477
40.8843
88.829
63.7396
53.0352
56.107
2.25481
27.95
59.6425
33.0077
13.5534
2.95022
-56.1112
-77.4531
-85.8622
-90.3901
-101.301
-118.345
-129.335
-108.423
-65.0008
-16.0211
5.29836
-7.68366
-8.13333
6.60468
-2.75806
15.1231
41.9649
61.5337
64.1168
76.0951
32.7042
0.748469
14.4308
-10.1203
47.6852
123.689
140.71
169.207
111.415
-66.584
-109.852
-215.041
-314.788
-152.3
-50.1789
41.813
64.011
42.9449
87.2908
94.3044
90.8696
88.9905
76.1177
81.3619
26.5742
-21.8113
-26.1196
-69.2846
-30.6916
71.4395
74.8528
89.0619
136.331
41.2534
-60.8403
-125.095
-143.07
-118.397
-20.4368
21.3673
15.4604
6.4358
-42.6624
-135.521
-98.0241
-133.654
-218.63
-176.512
-108.65
-29.9295
33.7815
123.645
144.693
105.568
57.7189
72.1972
120.378
82.7049
6.06032
-33.6543
38.1765
108.51
75.4636
53.4281
-15.0056
-42.1708
9.94676
36.3514
-7.78397
-12.837
-5.37238
9.12444
125.967
191.395
203.592
165.315
-44.6694
-205.64
-272.767
-289.218
-244.217
-134.707
25.0488
86.469
-7.7179
-27.1519
-15.6254
-46.76
1.50868
57.3289
102.11
66.6589
-8.14555
-31.6121
-2.72984
-22.2876
127.36
262.492
191.158
144.285
43.4049
-118.729
-244.609
-148.937
31.2769
50.3293
60.7029
-5.37652
-79.9388
-77.4036
-72.9657
-65.3888
-103.02
-123.417
-98.9228
-12.4761
41.5024
36.0551
12.5324
-11.626
-19.6693
-52.7892
-50.8364
-7.798
87.9957
165.092
85.8516
-23.5779
54.1165
129.571
81.0974
39.8858
62.093
45.4052
20.5649
-28.7998
-57.7763
-34.2446
1.73558
22.4168
58.2586
89.8998
81.5618
22.586
-57.0064
-132.002
-106.921
14.9102
65.8592
70.5818
-14.4764
-96.0617
-75.7246
-95.2461
-113.263
-76.8315
28.4555
52.7573
53.0227
18.8888
-25.5378
-9.33971
-27.176
-94.0398
-79.9467
-2.30542
-3.81615
51.5935
22.782
-60.3165
22.1905
119.911
69.7351
40.4699
110.721
153.696
46.3172
-65.119
-144.065
-204.268
-186.937
-115.814
-14.6879
119.946
149.278
113.756
127.05
13.5035
-134.142
-155.274
-44.601
35.5195
51.7398
89.3928
75.4722
-0.188694
-28.0536
20.3732
100.878
156.81
162.087
107.316
30.3969
-39.0097
-16.6279
-0.0594002
-64.6527
-73.7312
-70.2849
-73.9288
-157.574
-176.25
-161.351
-83.7059
-12.4808
24.0986
0.18203
23.3624
38.8728
105.248
131.168
92.4021
33.4863
-50.9252
-211.023
-212.103
-97.195
10.3521
139.019
155.205
98.4911
81.8434
90.6866
37.6901
-28.9637
8.24378
36.2334
47.792
50.4614
-73.4279
-220.157
-227.376
-153.159
-18.1719
138.522
150.343
98.2067
109.753
147.424
153.159
131.804
69.6191
49.4225
-59.7924
-186.107
-287.616
-169.774
-71.1502
89.8166
266.666
202.348
22.9667
21.8875
-93.4564
-208.518
-188.105
-12.0928
121.738
111.847
48.2896
-86.6889
-225.816
-330.966
-383.591
-303.036
-214.214
-122.195
205.439
300.329
64.5185
85.5668
219.124
305.285
401.306
400.887
282.394
147.379
-1.46054
-117.059
-134.162
-55.3816
39.8478
84.5737
137.374
133.402
100.748
-22.3009
-273.375
-371.893
-222.214
-112.856
-67.6607
-118.306
-147.127
-150.296
-125.956
-121.228
-114.777
-86.7602
-39.3587
13.8065
53.9206
87.7262
123.889
124.44
98.9343
71.0447
4.64558
-29.1362
25.8651
67.1338
65.2895
39.3968
33.2316
29.0165
28.6796
28.3462
0.12931
-71.721
-58.8619
8.53619
72.9313
169.904
255.736
188.598
126.539
45.9215
-75.3768
-153.865
-173.526
-102.713
-73.4853
52.2633
116.154
92.8091
71.3615
-136.078
-366.887
-326.525
-230.379
-101.149
-29.6019
6.94468
-3.82726
-27.8365
61.471
173.137
238.505
196.214
69.6024
2.09342
53.2866
-17.6493
-3.69109
3.89872
29.5633
134.703
198.376
90.6818
-2.88966
-104.266
-111.657
-25.9956
3.54152
-52.1115
-111.769
-136.916
-147.888
-110.803
-44.735
5.1039
9.26301
-3.29335
-75.7499
-116.555
-125.12
-7.48787
220.588
392.806
297.623
142.247
80.9875
-102.313
-127.804
-20.5036
-31.5461
-43.8777
-35.6751
-28.0327
3.34379
-11.1737
-54.5166
-72.3191
-68.9964
-44.7347
1.29527
6.70823
-25.8695
-50.3834
-20.1441
24.5014
48.8891
70.1786
23.9033
34.1654
50.9615
-10.1587
-39.2318
-16.2483
-97.8144
-171.944
-149.183
-50.478
112.815
290.962
250.886
83.2066
-76.2789
-178.009
-184.416
-72.3181
93.5402
204.901
215.829
120.685
7.16998
-39.8089
-28.7775
-40.1644
33.9405
87.1591
47.8962
-15.2028
-105.014
-217.722
-216.952
-70.423
62.4444
96.5322
79.8676
-24.8794
-117.804
-85.8465
-8.75336
130.347
451.783
397.068
-31.4199
-339.861
-550.494
-513.46
-368.288
-245.822
-75.0257
65.4784
186.992
255.593
253.026
227.844
279.96
283.538
171.565
47.0773
-27.7631
-56.569
-152.121
-113.526
56.8819
199.281
325.303
297.294
209.678
96.9995
-40.6485
-118.132
-150.493
-206.59
-227.396
-174.759
-174.319
-153.715
-124.872
-192.675
-209.626
-172.699
-199.332
-172.378
-10.0062
102.304
179.607
137.992
124.436
129.778
51.9628
-14.408
-1.65655
25.7041
60.2909
80.1083
101.442
90.7487
39.1912
67.0671
52.5021
-67.3469
-135.706
-50.0594
80.1262
208.259
159.532
52.6793
-49.9781
-92.5221
-147.239
-123.068
-29.8051
-13.7061
39.9038
66.6383
47.1258
17.2278
-15.4348
-10.2666
9.98682
55.163
44.1612
-4.02194
-46.2561
-92.1996
-38.3006
50.3316
59.695
32.2456
60.7877
49.8762
8.70393
7.63565
-91.8054
-160.12
-127.138
-98.825
-61.5416
-41.2959
-12.8319
74.1965
32.6383
-3.10682
-31.7722
-53.5303
-24.6675
36.4282
85.5942
97.0212
87.6038
76.4623
5.49058
33.7371
41.8507
59.2687
81.1529
-82.2521
-297.727
-378.382
-239.341
15.7458
144.497
113.28
65.9134
81.5539
111.62
105.42
63.3242
35.4775
143.478
211.459
142.175
160.743
146.807
-11.1309
-54.6166
63.9693
64.7618
-17.3384
-140.131
-453.837
-726.17
-660.573
-410.043
-138.839
115.436
285.187
260.787
190.548
173.308
140.167
154.975
103.586
105.497
130.715
85.7115
101.467
177.887
207.521
170.397
188.183
271.999
243.056
125
-29.7557
-191.76
-302.057
-264.11
-200.302
-239.829
-293.585
-268.111
-250.682
-201.761
-132.362
-175.578
-170.855
-25.6981
60.9433
55.9476
96.5206
169.566
199.183
177.248
111.503
38.9003
2.16332
53.8472
84.1676
109.233
116.175
58.289
-41.2002
-141.349
-149.53
-16.3114
98.4135
59.8698
45.3757
25.4744
59.3655
52.997
81.7752
209.689
209.97
239.078
202.293
-52.9251
-241.779
-395.142
-453.612
-418.848
-292.999
-54.719
136.412
117.671
69.1486
109.709
141.086
135.653
97.7239
114.065
135.154
-8.7825
-98.4713
-174.217
-184.707
-35.2866
71.1636
106.702
172.755
174.352
93.8628
6.11733
-46.0926
-39.3791
-30.4978
-47.6337
-88.1514
-75.0077
-86.0407
-60.4234
-85.8076
-162.369
-122.26
-79.2535
-58.1412
-6.42928
107.672
224.519
193.855
116.911
66.9987
71.1493
54.8985
17.3871
20.866
-11.7405
-34.5405
-32.9175
0.488846
76.4432
44.5472
-10.3657
-29.9287
-82.6243
-141.301
-114.342
-73.6351
-42.8875
-20.3229
-25.6104
-85.5072
-180.361
-22.3064
176.222
270.388
336.776
85.5418
-105.83
-171.07
-145.28
-202.146
-173.223
-120.846
-6.73591
104.922
186.128
139.481
59.509
15.9341
44.207
161.467
196.197
81.5036
-27.4955
-103.737
-275.86
-191.894
33.5388
152.608
188.843
111.374
18.3897
-58.9496
-73.3358
-128.491
-158.992
-30.3249
76.4692
123.79
131.554
86.8364
49.1198
-59.6751
-113.142
-125.633
-61.8162
45.917
15.6821
-36.9474
-107.42
-23.692
64.5571
94.2001
69.898
59.526
28.2777
-65.0432
-120.752
-111.09
-76.4115
-50.2901
-3.29636
18.829
-19.4848
-78.1867
-50.4747
9.1276
2.26967
-7.39138
38.2879
178.189
212.327
114.269
-13.504
-66.4202
-112.173
-98.7606
-64.7266
-56.8467
19.4011
101.223
162.078
129.574
-27.7549
-85.8595
-156.783
-196.963
-21.4491
79.621
10.8448
-26.1847
110.805
217.915
56.7258
-10.567
46.0847
48.207
33.8044
53.7887
5.04015
-58.8459
-118.646
-133.543
-29.2603
46.7833
148.565
172.408
2.56116
-106.983
-84.7166
-67.791
-89.329
-37.3471
72.7764
58.1169
80.7023
47.5231
-31.0206
-104.505
-102.334
-45.107
-27.1602
-46.9007
-22.3558
-24.338
-19.1191
31.5868
28.3864
13.8116
14.5598
-16.2246
-91.1491
-138.45
-40.667
123.55
161.635
111.322
69.772
13.271
-84.8187
-163.693
-183.374
-72.6083
85.3437
211.999
215.188
106.533
20.7963
-94.2667
-221.651
-220.831
-140.099
-59.6537
101.992
279.988
229.481
135.984
145.135
86.9025
7.80459
-5.4101
81.3197
81.2147
-19.3412
-102.291
-141.682
-78.5704
-42.2464
-51.2475
-57.0004
-24.8545
13.3845
-22.0833
-145.124
-244.922
-241.72
-82.3236
6.24738
67.6177
61.8822
79.3625
21.0614
50.7301
56.9334
4.44181
13.4759
48.293
68.4732
126.169
152.005
109.686
28.6073
17.0826
92.2697
60.3315
17.1054
-59.8762
-187.681
-180.768
-144.443
-181.875
-107.782
-62.6249
-84.5182
-36.8573
85.7481
147.302
119.342
125.028
153.516
150.124
90.2019
25.8045
-1.93843
-37.9381
-68.8386
-92.3206
-15.6957
81.9567
143.385
106.914
95.398
80.5328
22.5287
19.6393
-84.0887
-265.254
-270.87
-161.344
3.59408
56.1621
-85.7699
-117.374
-79.8617
-76.2852
-34.3511
0.759738
23.6185
18.9702
27.4006
81.5458
38.205
-41.2876
-47.8723
-7.33275
55.7811
208.832
340.294
242.245
3.64138
-174.946
-273.281
-397.101
-353.671
-222.896
-29.316
148.143
281.792
365.383
279.58
127.568
-67.2209
-145.378
-30.3622
51.2391
40.613
34.266
48.8701
160.94
316.302
301.735
173.687
65.1306
50.2529
-55.9229
-191.194
-188.761
-260.4
-306.677
-185.779
-99.5343
8.58352
53.2027
-4.1585
-113.631
-137.412
-140.704
-188.489
-199.114
-226.431
-175.116
44.8289
225.467
182.028
231.929
243.848
90.124
25.4719
-21.5224
-11.8348
68.6763
89.6186
81.9929
78.8681
107.652
123.882
73.2518
8.24935
-127.786
-227.39
-178
-133.111
-46.388
3.63596
-28.4719
-14.0597
29.9121
34.4325
60.458
89.8445
93.6969
89.401
97.9985
53.4002
-23.4959
-36.1516
0.657554
5.11572
13.7095
49.5647
62.3799
79.5496
26.6422
-22.7329
-13.6996
-15.5078
-0.120914
-17.8207
-95.7493
-137.328
-126.679
-112.863
-66.7684
-55.4245
-79.6763
-88.6174
-10.0399
22.5307
70.5561
66.6698
63.1571
75.2097
73.463
0.0559666
-61.7126
-90.8759
-142.165
-135.88
-40.538
-47.985
32.391
145.823
172.005
74.4471
43.8879
91.4634
105.77
50.4877
-37.4316
-61.2503
-19.1773
41.4034
106.031
108.764
63.3981
14.3114
42.2315
44.7951
-0.523764
30.9268
21.141
18.2583
-65.2377
-81.0753
-97.0621
-145.908
-188.078
-109.117
7.95778
5.81493
-77.2281
-116.794
-157.296
-133.985
-68.2832
57.4731
76.4247
-25.3149
-34.7097
106.768
154.797
59.9253
41.3719
73.8865
70.2081
62.6591
45.2833
24.6408
18.5068
42.7198
47.7425
63.7562
87.9515
147.055
214.457
137.429
155.255
139.433
-33.3974
-283.875
-441.137
-482.365
-359.154
-146.766
-11.8718
89.4191
97.0638
9.5867
30.2027
50.5224
97.7702
141.423
128.327
77.3271
20.0488
-15.9072
-91.5593
-47.716
78.2273
176.784
128.607
129.051
104.257
27.9993
-45.6171
-150.314
-207.745
-173.904
-159.273
-82.7979
60.1176
96.625
110.647
-33.2449
-172.487
-45.3872
90.6694
178.512
52.6289
-86.4183
-47.658
-37.8419
-54.1036
-22.5426
23.6163
20.1586
3.39512
60.4835
55.7825
10.6368
-51.2933
-89.0076
-81.2963
-3.06966
78.9487
7.63592
-82.0076
-116.953
-44.3746
55.8127
136.813
181.034
186.806
226.284
211.081
95.6118
61.5338
-10.1789
-165.62
-206.907
-196.8
-176.233
-151.141
-121.788
-76.5279
-72.5631
-51.4887
3.96342
143.464
147.147
52.6068
25.6451
-10.236
-69.1992
-121.976
-66.5742
32.7891
142.827
184.272
132.762
39.5144
0.727287
-3.50501
23.6345
22.3153
23.0479
1.11145
-34.6795
-68.3026
-39.9744
-3.79412
15.6796
13.6036
-33.0814
-31.2494
-6.84978
-25.2877
-53.7828
-14.9517
25.5399
34.9635
49.7111
36.4074
37.5247
42.0336
-64.5701
-78.049
-73.0161
-67.6758
-17.8675
-3.47086
20.7628
56.3854
26.6973
-19.5214
-53.2655
-116.096
-132.085
-104.859
-64.1969
-31.0476
19.2424
57.5391
66.5195
71.5002
117.252
135.91
117.245
79.7441
57.5515
72.554
34.7962
-20.5939
-22.1633
8.97146
31.9366
33.7062
-14.2966
-41.0617
-56.7405
-46.6147
-37.6691
-0.520575
12.9476
-4.30205
-7.54175
-31.5025
-24.3488
-2.55424
13.6518
32.2338
29.6165
49.3829
63.4467
-6.24071
-71.9475
-134.53
-168.89
-163.819
-96.3512
-48.6439
-72.8305
-112.302
-92.1076
-24.9843
6.12431
30.4741
109.386
115.538
134.325
148.952
171.959
37.9068
-137.718
-132.774
54.5328
94.9009
27.7731
148.662
130.513
23.9839
91.9771
174.688
155.056
-21.9607
-54.4188
-38.2671
-50.3793
-24.1576
-18.2695
-13.4073
-43.1997
-20.6931
3.23967
-87.1439
-226.227
-149.789
-104.94
-110.846
-36.5772
28.0236
25.6985
1.74666
2.57957
124.413
145.154
65.1138
-23.6392
-75.6859
-120.601
-150.351
-169.195
-115.125
2.45957
120.946
157.622
154.458
229.977
199.504
136.256
86.5628
16.2727
-0.863997
-50.3751
-93.7105
-133.768
-100.496
-70.4398
-119.019
-33.9662
-9.49707
-65.967
-41.5772
-40.3547
-53.355
-14.0157
48.9937
102.324
127.175
216.192
312.707
175.218
43.9246
-66.7302
-282.987
-360.458
-328.043
-209.576
-49.2203
-51.5937
-23.4583
116.808
142.729
154.498
160.785
116.979
94.7522
80.992
37.9283
-59.8526
-130.337
-75.1644
-64.8806
-34.7764
76.3285
157.851
177.302
69.415
1.17809
4.23955
-53.4013
-99.4326
-103.174
-80.2559
15.0133
137.514
136.12
57.5596
-60.7569
-249.992
-404.794
-326.839
-91.0657
222.86
313.65
130.31
-209.285
-267.158
-123.986
-21.9085
190.588
288.171
149.253
213.182
142.862
-0.504389
-45.5711
-31.0247
-8.54304
38.1923
85.4661
52.5704
-50.1507
-148.525
-86.5286
20.9939
169.71
202.708
133.469
21.172
-102.618
-158.834
-105.962
-138.249
-94.4934
-87.0966
-106.977
-78.4075
-30.9272
28.118
72.2287
50.8784
-17.9349
-79.4884
-72.8019
-2.42418
52.217
51.0348
17.3892
10.7664
-9.2323
-12.1828
40.6974
23.5559
-7.36165
-5.327
34.1798
39.6537
38.2121
69.5472
113.644
147.785
135.902
37.3344
-87.1335
-151.124
-146.906
-23.0367
-25.547
-149.394
-113.179
68.2713
201.405
134.81
28.8822
26.344
72.8297
128.609
-5.22305
-237.444
-319.602
-276.147
-280.007
-79.1747
198.885
192.05
109.782
29.998
-30.8768
81.8013
115.497
-49.1358
-134.91
-102.717
4.58733
105.531
181.333
226.094
156.595
120.158
137.065
145.386
104.272
-40.2707
-197.333
-165.559
-23.8114
-41.5656
-68.0586
-29.0581
-47.69
-77.2418
-75.8562
-56.7688
-52.8774
-103.874
-184.077
-241.956
-160.791
0.457537
66.4654
26.4037
37.6009
33.3512
42.876
100.978
112.998
111.713
130.342
88.3323
39.8201
24.058
39.0874
59.4683
89.7522
85.5313
13.7037
-75.193
-75.5262
-75.148
-85.2219
-39.7692
47.4103
41.3732
12.4521
14.0342
-91.6451
-68.7444
-19.8931
7.41335
85.5137
32.6574
-9.66411
39.3455
33.0584
-23.0436
-29.491
-43.102
5.77133
76.7162
78.8093
27.6398
-17.7693
-23.0284
-39.5502
-27.2605
28.8071
-2.52046
-2.85741
5.08952
-60.4779
-75.8084
-73.3345
-115.73
-134.564
-61.0717
-6.82909
2.84282
61.5554
30.5624
19.2643
-19.8053
-57.4031
-45.2608
-36.0626
-9.24991
49.993
153.054
193.676
143.831
34.1655
65.1416
67.233
20.7466
-13.8211
-57.8769
-74.1048
-53.1378
-55.6992
-22.7521
35.9886
122.533
133.7
62.5415
-22.9094
-84.7529
61.9957
122.938
-11.4081
-146.687
-230.64
-293.772
-312.971
-198.599
-69.957
56.9534
142.836
116.892
90.2001
92.0376
19.2629
-28.284
-13.0908
52.2616
167.901
201.605
79.9744
-18.025
12.1387
79.8804
115.391
198.724
243.891
101.729
27.7688
-46.673
-135.688
-127.029
-101.51
-96.2017
-111.641
-146.681
-145.914
-121.159
-106.406
-65.7596
-61.2832
-95.2595
-71.7785
-42.5604
-18.9274
-0.0615086
35.1481
69.2399
54.4632
10.3755
-8.62473
4.50037
18.8421
23.4239
41.7069
84.1939
96.3938
85.4212
87.7097
86.615
49.196
-6.3708
-50.0754
-52.5344
25.2624
70.5511
62.1523
87.3147
61.3862
0.778765
-29.5067
-35.2066
-37.9643
-27.8597
-23.6536
-38.2985
-46.4457
-60.9176
-63.5888
-40.6378
-26.2607
-10.1349
16.0126
29.0957
30.7762
-6.51746
-33.0878
-15.4902
6.85304
5.58713
-3.20017
9.70051
17.3706
19.2874
16.2577
2.61979
13.7319
15.161
3.34621
-14.1749
-24.533
-21.9694
-20.6138
-28.9765
-48.7543
-61.396
-65.4719
-44.18
-36.2219
-21.6693
38.3384
103.462
66.8096
10.006
8.69222
22.3929
-4.65068
-13.7311
-14.9681
-3.33773
24.4138
56.1399
90.5607
110.822
98.2148
78.3095
62.9796
21.5621
-26.86
-47.5375
-73.5873
-118.309
-114.7
-75.8602
-56.2538
-47.7854
-35.4156
-11.9008
12.012
-2.05134
-18.3559
-36.4877
-42.0136
-31.7637
-4.68667
11.7192
22.5446
38.7843
60.7387
89.6692
92.2382
82.9384
89.3255
85.3905
78.9249
81.7962
62.8781
28.2287
-4.63738
-21.4791
-47.9713
-111.785
-134.573
-123.65
-114.599
-106.51
-105.236
-154.156
-188.708
-150.926
-147.349
-82.6367
27.2852
132.179
184.166
233.378
288.365
328.545
356.954
343.266
291.059
225.762
47.1743
-135.596
-212.265
-200.326
-206.809
-269.804
-284.769
-264.024
-188.669
-105.553
-79.5682
-92.4859
-29.1685
74.8239
94.4718
9.65325
-31.4982
-64.16
-138.903
-174.242
-108.249
-3.67422
28.3708
0.701655
46.6432
198.485
303.232
310.807
321.09
294.859
221.392
149.197
21.1891
-76.989
-141.647
-191.466
-229.54
-228.055
-178.23
-93.0842
-14.3263
3.15495
19.6016
97.8866
199.369
180.07
53.8579
-94.5548
-203.697
-324.73
-342.116
-230.875
-132.588
-93.2045
5.44211
124.075
144.541
177.786
216.535
255.164
251.946
250.17
259.644
224.735
135.828
32.9773
37.5074
63.3381
9.93146
-61.0055
-69.9976
-107.514
-150.849
-199.602
-242.878
-169.672
-129.38
-211.43
-268.513
-226.381
-122.059
-29.7511
-19.1713
-70.3757
-52.275
68.9387
190.741
238.077
198.675
128.827
49.6529
-17.8871
-24.954
26.9978
30.0171
-22.6701
-27.9756
29.9977
105.112
84.9515
16.714
-36.8557
16.1021
125.902
135.785
96.0864
11.894
-74.8436
-83.1051
-13.6163
23.2087
27.4384
13.3749
46.4612
113.925
122.056
70.842
-1.33445
-104.568
-185.625
-92.2534
-5.77381
-38.9705
-99.1034
-135.246
-166.877
-180.781
-123.375
-55.2736
20.3509
92.1525
103.257
55.4282
-30.5571
-16.9844
-48.6924
-40.2432
3.08599
-3.0973
39.1823
68.509
122.883
89.2532
26.2739
-50.7681
-14.3069
9.0964
-9.49614
-16.3518
-29.4158
58.1887
154.635
172.901
83.4433
-70.4173
-99.4764
-65.7619
-41.713
-8.19631
-21.8721
-9.63383
0.379941
-15.3943
-29.2553
4.16659
26.1274
-6.01442
-19.8502
-9.8351
10.6292
-20.4273
-117.054
-95.9354
-111.888
-153.625
-182.179
-176.991
31.846
315.186
353.905
231.301
176.28
190.366
156.526
78.3872
-56.2137
-89.1526
1.95923
71.6373
77.6444
81.476
-9.69817
-148.113
-167.256
-125.185
-62.2607
-65.8814
-122.203
-81.8811
-84.4527
-87.8195
-96.4562
-96.552
-63.8848
8.84954
139.712
286.143
246.157
132.307
33.1839
-101.758
-89.8193
-34.9926
-1.48825
-0.768928
-25.331
-32.4642
-64.9401
-146.872
-206.384
-238.881
-158.57
35.0024
106.582
167.807
181.3
35.2614
-33.1905
24.1586
40.828
4.71179
12.5689
-40.4985
-69.0497
-63.1868
-9.53771
22.2862
-14.5497
82.7214
323.863
422.629
248.71
-24.5667
-137.912
-209.433
-205.504
-57.8729
129.093
154.582
106.213
26.1037
-64.8756
-56.7551
-40.149
-64.6086
-91.7429
-94.7453
-28.6738
18.8912
1.86387
-108.636
-143.814
-120.57
-76.0057
-45.4443
-30.497
-10.9325
-21.8509
-26.6364
2.83968
2.94093
28.646
74.7335
86.2609
113.571
117.906
139.279
101.813
-5.12603
-16.9123
17.5069
32.9475
21.3476
97.4371
-30.9174
-191.67
-249.72
-263.023
-223.78
-78.899
195.078
394.411
415.794
287.028
176.522
78.4668
-49.4426
-119.04
-170.205
-246.479
-188.479
-90.7383
-41.4555
-23.1852
88.4925
123.934
96.2778
42.9181
-10.0458
-75.8527
-178.254
-233.536
-245.505
-199.609
-65.5937
38.7143
69.4001
100.374
76.9067
-1.99591
9.9481
73.6953
136.573
136.893
80.7338
-14.894
-57.065
-13.883
112.168
113.204
36.5876
-21.8857
-23.6119
51.0687
93.0804
148.989
121.9
-22.7953
-110.219
-80.7131
-81.6973
-119.561
-134.648
-67.281
131.208
238.455
150.417
0.149012
-144.751
-173.135
-142.94
-41.9476
84.5596
91.1746
-42.8335
-167.841
-171.493
-96.7325
-21.7169
84.1652
132.381
121.064
91.9391
-39.3186
-130.361
-1.71162
94.557
72.6703
27.5961
4.78226
-58.9557
-87.4926
-59.8564
-31.9283
-3.58937
-2.74299
12.5312
94.3869
142.873
73.5285
2.94256
-64.0768
-90.5397
-113.701
-129.759
-114.392
-38.766
53.1676
116.497
243.333
272.769
123.892
-18.7178
-30.6512
-73.9207
-147.114
-117.813
-66.1029
-90.3261
-135.818
-67.2984
66.9927
159.495
253.855
298.964
231.566
95.4152
-54.5919
-117.828
-214.222
-254.987
-203.67
-137.603
-34.5737
23.2432
52.9124
75.4833
-21.2632
-125.785
42.3527
202.377
150.203
73.8464
-17.7525
-154.473
-254.255
-254.086
-183.491
-36.8487
47.3742
135.322
192.516
182.715
80.3192
48.7251
85.5268
131.388
117.229
109.434
27.7516
-88.6155
-105.154
-100.039
-66.2951
-24.9912
-41.5295
1.04291
93.2535
69.8305
0.412005
-55.3854
-83.5678
-63.2534
-67.7877
-70.9021
-95.9231
-114.294
-49.2789
11.4318
15.7915
85.2792
168.739
159.487
71.529
-0.199183
-1.94898
10.3122
-21.2505
-59.4712
-30.713
43.48
31.0368
-83.4587
-71.9209
47.8591
123.182
105.148
73.2867
31.8497
-13.794
-70.8645
-125.003
-153.284
-167.065
-81.6045
33.4522
60.4061
49.4755
28.4021
14.8181
7.84539
-7.33915
41.635
63.0086
-16.6172
-48.9294
-4.83257
27.8461
-25.2197
-46.8799
-13.9835
-7.85244
-23.0265
-5.42325
12.6521
29.916
78.8653
119.12
71.747
29.6243
-4.19141
-17.3242
-42.7214
-43.3822
16.0155
37.1919
61.4006
73.2499
85.1644
32.6419
-124.397
-187.641
-116.931
-39.7753
-11.0386
23.7407
51.191
38.9706
11.3915
-21.5178
-31.257
-17.3674
23.7491
44.2782
-18.3051
-37.4624
-26.1961
-57.9929
-15.5611
19.1087
-31.193
-114.939
-92.161
-27.5252
31.1428
47.0204
23.4683
55.9755
156.111
164.026
98.9552
38.3593
-59.0485
-131.123
13.4729
109.402
70.4298
-5.13932
14.6947
37.7667
32.4952
49.8421
29.1025
-34.9358
-157.153
-166.462
-79.1947
37.2212
108.181
115.663
67.8961
15.8124
-24.7815
-126.172
-333.361
-334.028
-241.607
-116.066
-6.0349
55.4447
124.852
184.824
250.751
258.405
214.209
135.743
52.9179
-28.9701
-171.888
-190.052
-71.0951
-109.312
-101.858
71.1567
209.164
230.253
159.645
102.004
51.4922
-30.1475
-77.6341
-108.837
-164.123
-176.917
-71.9484
-30.1279
-61.2852
-37.3017
68.7682
112.109
38.2559
6.62912
-74.0927
-191.537
-142.348
-15.8241
111.268
71.6897
32.6182
108.858
124.87
106.137
100.468
96.4062
22.5468
-1.27674
-19.0553
-104.371
-148.601
-142.812
-99.6993
14.5081
127.109
168.45
124.01
23.305
-77.0279
-86.2634
-108.787
-77.5561
-13.5722
-10.9033
-60.5547
-94.8468
-66.1086
-45.5219
-23.7796
57.309
49.2751
-2.29445
12.8253
58.3885
80.1982
88.3452
96.8253
79.7214
25.572
-25.6137
-73.0853
-64.7628
-122.944
-161.087
-135.509
12.968
96.9011
99.3475
98.1797
60.5629
69.2062
105.941
105.939
109.087
39.6496
-41.5881
-126.207
-133.403
-37.0305
66.1014
73.5486
-12.4408
-19.7468
17.6615
76.4606
102.531
15.1484
-156.463
-226.947
-142.304
-120.993
-120.095
-86.8187
86.7795
272.918
366.972
208.734
-41.6071
-242.642
-344.078
-344.689
-218.848
146.862
276.931
161.558
65.2185
65.5653
93.0457
91.1981
54.4476
-19.2594
-85.1071
-103.406
-141.935
-120.115
-104.099
-53.5676
102.268
161.855
168.742
170.617
90.9056
-31.5684
-23.6664
-19.9967
-111.546
-125.213
-0.315249
52.2294
-27.1215
-2.98341
45.2858
55.5715
3.51402
-19.9248
-14.5676
38.2311
9.53465
4.12858
40.5481
53.0897
47.5378
-55.9481
-119.859
-105.191
-58.7553
-62.199
-89.9316
-17.0274
36.892
25.6023
-10.5323
-11.7613
-3.33554
-23.1344
19.8245
40.6137
-44.6268
-121.084
-15.1179
147.158
146.304
48.0793
18.2424
16.9556
-81.2083
-62.2921
105.759
141.309
127.668
103.865
37.0821
-39.0798
-145.099
-213.462
-205.033
-63.5069
128.907
304.492
268.364
84.6983
-52.6759
-117.751
-135.591
-65.2928
-4.8815
48.265
-10.9789
-71.9959
-96.4164
-77.9125
-36.3149
-5.36277
17.4021
48.6354
-11.5338
-113.137
-115.78
-68.4677
-58.7214
-56.7705
-36.5583
17.1571
78.5149
86.8666
125.04
126.779
65.7114
20.917
-4.61397
18.6406
53.1808
83.6245
98.0657
29.0418
-0.159526
28.2073
15.1581
-110.632
-131.404
-63.6697
7.72857
34.4886
-28.4344
-97.9196
-76.0001
-73.9274
-64.1045
-13.1839
44.996
30.6726
16.2191
-5.55212
-19.1985
79.808
116.44
105.079
74.696
116.139
50.7457
-78.9321
-114.58
-38.0464
55.4876
-15.865
5.03887
68.743
-33.0997
-134.913
-110.911
-56.8321
-47.6837
-33.4803
25.9858
37.4452
49.4566
51.7595
32.3817
3.63263
20.2164
42.0861
23.2827
-17.5595
-67.9332
-26.2729
13.8381
1.30247
49.9694
103.216
44.2473
-20.0548
-28.2966
-96.4885
-97.5481
-39.2036
-36.0644
-35.2576
-37.3182
-39.9276
-7.18871
40.6847
31.7648
-12.0681
32.3961
98.4029
4.12951
-54.5493
9.37259
67.6329
104.063
113.834
108.33
118.915
77.1585
-9.93458
-37.0446
-57.5953
-71.4798
27.9738
72.0334
-6.8819
-112.32
-310.483
-408.515
-335.6
-198.613
1.35417
88.3077
92.7263
99.6425
155.61
216.986
230.104
184.101
87.1757
-47.9997
-58.5273
-6.15657
-11.4695
-31.0762
31.8909
93.3556
152.381
167.953
211.572
156.402
29.8723
-70.8303
-160.982
-260.42
-296.788
-330.718
-230.913
-68.43
11.207
42.2463
53.5868
48.4749
21.1648
32.2796
54.3555
122.876
165.696
162.911
115.516
78.7081
-16.4611
-51.5077
-54.7089
-94.1842
-98.3785
-14.4731
-31.4134
-80.7428
-56.4619
78.5899
79.0844
19.4975
-25.9158
-87.3971
-116.611
-72.5263
-22.5403
0.788128
11.5742
68.8797
89.4484
37.9352
-10.3862
16.8044
63.8926
59.5447
28.899
28.9312
84.169
-1.11871
-66.1244
-92.6635
-152.404
-160.645
-45.3475
41.7824
40.8293
33.3639
-20.4998
-32.1389
16.5205
59.0356
95.2601
105.573
99.6309
132.197
156.156
75.1256
-33.1639
-42.5765
-57.2987
-151.913
-150.672
-7.06488
29.6136
-12.425
-6.24967
-23.8709
-17.7286
3.93804
2.66251
-13.8721
1.35277
29.3541
-8.82827
-82.9086
-93.1118
-49.5625
-112.037
-84.2206
67.2782
171.192
167.027
108.626
49.5462
3.88046
25.3815
34.4012
-21.3817
-127.347
-135.85
-57.4683
-13.8675
30.8874
-14.7648
-105.289
-156.147
-110.639
65.8253
124.61
75.2463
57.7746
69.6616
66.4219
46.3156
47.7335
18.9401
-19.3339
0.658261
74.4514
56.3152
2.06035
-10.911
-5.39951
-40.2305
13.9267
42.8742
-6.02971
-47.4445
-45.0857
-35.5097
-10.1147
-45.15
-109.71
-111.412
-66.9245
5.33477
61.3987
64.3989
-1.17509
-26.536
-14.224
41.3771
34.7234
37.4418
52.5133
62.2187
85.1758
46.213
4.7579
-39.1319
-82.4493
-68.9908
-21.3197
34.0287
52.3364
-39.6708
-58.6262
-14.2149
14.2056
-18.0591
-28.1161
-20.8466
3.43401
74.2444
99.9704
73.6344
33.2278
29.7052
17.1301
-15.6508
-46.7727
-64.7805
-83.9179
-105.233
-80.9129
-3.38738
14.9821
-3.96963
4.96168
13.9842
26.5447
19.3075
3.33968
29.1158
0.894623
-22.2733
-5.28363
42.3567
25.4836
-8.95807
43.4745
88.865
99.8134
82.9659
29.0892
9.85469
-32.7157
-163.936
-184.716
-57.3985
-35.7416
-78.9187
-34.4789
-18.158
-9.85728
31.185
37.4864
36.438
67.944
62.3799
39.4057
49.2729
28.5883
0.881864
-19.9677
-3.77067
-22.664
66.1993
90.8494
44.2656
71.8722
73.7443
-6.08924
-103.6
-139.133
-80.3833
-64.0204
-136.797
-144
-42.146
43.1358
67.7488
45.1364
54.3129
81.2923
40.3086
47.7854
43.4241
28.6402
10.8471
-28.3588
26.9211
59.7094
39.7777
17.3916
-47.9183
-34.5907
12.4458
14.2494
-32.3686
-56.7127
-84.7156
-145.371
-141.104
-63.2541
61.7679
120.166
101.098
69.2702
10.0336
-64.5766
-90.2767
-52.4219
19.3442
34.8386
1.9297
-12.0566
16.2145
26.7415
42.6247
99.1463
113.895
122.599
81.5555
-27.5504
-112.169
-113.156
-36.3706
-8.73883
-16.373
18.3729
14.4738
-27.3073
-86.5705
-33.0629
6.73534
38.1201
41.2224
60.8629
78.3083
6.79356
-50.1979
-53.6013
-79.4893
-129.492
-99.0646
21.426
112.579
67.4455
-17.8904
-74.5908
-47.555
29.928
69.0384
43.7525
13.6362
34.3786
52.3262
12.1861
-39.7001
-55.8021
-1.7033
40.2569
45.8743
99.1833
73.9215
-10.9003
-50.0495
-54.3758
-6.33078
48.2054
63.946
16.3114
14.9022
14.6864
-7.87454
-85.6148
-49.3783
-33.9519
-84.5922
-97.8554
-125.399
-95.9661
-21.3976
34.7681
53.7976
58.0449
31.448
39.7191
54.1263
28.9
-44.9546
-52.2292
0.477085
-10.5001
25.1432
-6.82028
-78.3227
-4.36943
124.372
136.906
89.8004
36.2448
-0.604363
2.04781
-19.8607
-63.1699
-50.6062
36.2684
37.0297
24.9427
70.8834
-5.62719
-47.9005
-9.75441
47.6484
7.63643
-41.8459
-51.8497
-77.0498
-88.1727
-37.9294
40.5041
33.6764
-9.34878
-14.9145
-33.412
-75.3636
-131.212
-86.3014
-36.6432
14.383
86.8842
112.304
112.195
122.862
134.17
72.2552
-1.703
-0.761807
13.9448
-18.8662
-34.7124
-38.9314
-52.897
-61.5201
-62.3349
-69.6536
-50.0602
-23.1231
56.213
92.3786
131.861
87.5116
-1.67328
-122.498
-176.657
-154.633
-15.8578
108.857
123.309
98.3896
34.1597
-32.9029
-72.8943
-69.7207
31.9217
120.607
102.633
51.4035
-21.7157
-144.71
-201.433
-121.483
-0.237272
71.5751
96.4795
122.132
24.9131
-63.2895
-96.9495
-51.3568
12.7677
69.6325
66.1437
-7.99652
-61.5434
-119.461
-106.99
3.17575
166.646
213.655
153.149
22.7833
-124.891
-135.884
-54.1105
3.09068
43.578
112.464
141.078
98.1969
-10.9313
-61.8793
-26.4963
21.7053
7.28293
-0.036106
-12.9827
-73.8363
-163.111
-195.055
-117.495
-10.9035
81.5321
61.8436
11.5964
-48.4751
-87.9332
-60.5336
-56.5925
-40.0789
19.4396
77.8199
101.171
139.907
133.204
73.6271
22.0222
-42.4178
-92.2159
-35.3207
31.3832
45.4981
21.7305
10.8015
40.8378
64.0494
-0.120428
-21.366
-2.80546
-27.5229
-30.3716
-52.56
-67.0484
-19.4572
-3.5497
30.3
101.459
131.703
99.7977
14.5131
-30.2224
-33.6639
-48.4895
-35.469
28.0203
78.2388
71.5201
-36.3413
-110.815
-159.287
-196.822
-130.109
-7.72861
11.9164
-9.49693
12.678
21.6905
-1.52605
43.5391
9.38434
-82.6377
-91.4624
-31.1544
-9.75092
-59.3106
-55.8824
26.6554
34.3747
84.0842
217.793
297.835
222.115
74.194
-11.9872
-26.4043
-23.1319
-59.7099
-63.0725
-19.2748
25.4062
-3.50571
-91.1152
-14.161
94.8317
97.3617
31.1256
-55.1449
-114.791
-150.551
-156.418
-129.337
-71.9483
9.21454
24.4304
6.16434
29.7068
50.1199
33.4235
-14.4146
32.07
54.1912
73.0126
25.0639
-17.9615
55.3339
86.7132
46.6397
29.6135
27.8311
16.3525
-15.8374
-49.2022
-100.561
-97.9123
-48.9428
-60.7958
-35.9755
10.4027
-1.18195
-19.5216
15.3534
46.6817
26.842
17.2827
-6.13637
-34.7509
-42.632
-14.5646
2.41715
20.8214
80.548
107.915
76.0515
24.89
-58.1684
-104.546
-66.4202
-39.9808
14.9242
97.4769
88.8064
27.383
-1.06576
-12.3353
-31.8107
-28.3746
13.9525
62.1926
79.7253
10.4865
-42.978
-50.5003
-70.7147
-84.5292
13.5292
55.6847
-11.8853
-6.98303
-61.0057
-131.555
-50.8297
40.3159
61.4065
25.1418
-23.4631
-18.1745
14.7345
37.8014
50.1734
11.0431
-13.4238
7.03003
24.2492
41.3172
30.7638
47.1066
71.7293
35.9895
37.809
50.1863
24.1511
3.16386
-41.94
-87.8697
-143.134
-128.244
-78.0125
-63.8952
-15.3684
14.0486
-6.20756
3.12534
6.37081
5.43655
-1.39556
15.354
45.9296
54.1354
35.9717
10.975
11.5415
26.5931
20.7739
20.864
46.7461
62.4562
11.0856
-46.7543
-59.2172
-16.5768
-23.0756
-55.1606
-38.1241
18.23
-9.80481
-20.2926
69.9179
92.8011
67.0204
65.3687
34.3777
38.447
72.4589
25.5291
-36.0324
-78.0778
-139.122
-144.305
-150.842
-148.444
-25.5012
106.611
114.144
54.5764
1.06758
-30.2817
-20.9228
19.2597
61.8154
26.0922
-24.5689
-40.1109
-43.9643
-32.8286
49.139
82.1717
80.7316
14.9915
-68.2935
-115.788
-100.346
-26.7271
42.1585
116.388
175.568
149.39
49.6323
-29.6593
-82.03
-52.2233
-31.2793
-72.8556
-54.9294
11.7127
43.6426
32.9474
48.1189
42.3868
46.3396
51.1013
46.5571
-42.7834
-53.8119
-25.6069
-20.3417
-43.7067
-108.063
-125.444
-91.4688
-107.866
-97.7901
-15.0483
121.792
133.42
67.3795
52.126
46.8227
46.5102
86.7041
110.584
59.8895
-18.2813
-77.154
-66.7344
-37.3414
-45.9178
-57.6881
-38.5649
-36.4846
-29.2296
4.15105
62.6226
-9.16889
-57.7374
-71.7187
-20.2997
-17.2466
-6.30618
8.59469
57.108
78.0931
56.0544
73.3042
7.35111
-18.4535
12.8336
66.9886
99.7218
64.6419
3.95151
-37.4714
-33.901
-7.8057
41.3513
64.7185
5.08077
-24.6746
-44.8908
-74.431
-120.903
-116.055
-58.4824
-16.2917
2.5575
2.26671
-4.16858
-30.4937
-39.4869
8.94302
50.1447
72.1951
46.9485
0.463454
-42.4831
-64.441
-36.9652
21.2742
20.3615
63.3065
139.632
119.614
46.3158
-47.6618
-61.0263
-25.173
-0.303341
-13.7505
-46.8886
-67.0099
-68.4723
-68.2327
-55.613
2.57098
56.5184
90.8427
78.278
65.7186
56.6961
4.41628
-10.5966
0.99984
5.02934
-30.604
-7.77057
1.14475
-49.5959
-73.6169
-67.9202
-5.47899
145.546
192.192
114.155
-12.8323
-31.4383
24.9626
4.89521
-41.4101
-52.3547
-35.5798
-78.0085
-145.235
-123.227
-24.2578
-39.2062
-49.4896
29.3591
66.9461
48.9348
16.7594
-27.7752
-83.1245
-177.266
-97.8592
22.9352
-11.6927
4.60946
62.2432
120.701
131.225
128.708
128.987
108.077
66.1373
49.7701
32.9772
11.6364
-15.739
-20.1665
-29.4656
-69.919
-23.6932
61.8378
57.2747
-0.299698
-23.6358
-96.1608
-132.582
-73.1601
-34.7804
-37.8906
-2.84654
13.7845
5.57086
-7.27867
-33.7539
-62.4212
-47.731
-24.2126
-55.5547
-3.32304
23.9112
74.3652
40.334
-32.4723
-20.812
23.8042
59.7316
86.4099
62.1827
48.3826
12.6353
-5.3808
14.0488
-9.88071
-17.8594
11.5151
40.1009
72.4932
89.9903
1.75122
-54.3549
-64.009
-48.2669
-26.1227
21.8467
29.8386
8.72912
-53.4441
-39.126
-77.3658
-120.643
-96.6071
-38.2014
17.7884
56.3749
47.9598
57.463
29.7597
-24.3992
5.4404
35.4624
18.5802
-24.487
-78.739
-92.2049
-18.0336
23.5861
45.7652
107.223
118.351
74.7603
74.3971
50.7496
21.5501
-3.28227
-23.7594
-55.4986
-84.238
-36.7609
40.7149
36.551
22.7888
49.7158
26.3997
-54.5587
-19.1485
-30.0943
-57.2245
-111.812
-91.4155
-15.9419
-45.5098
-74.1445
-84.1167
-32.8549
4.16715
27.1011
81.6297
91.2436
48.5406
31.3759
-19.2629
-30.7838
57.441
82.8758
25.9272
45.6716
58.5388
52.4385
55.6242
-8.39587
-51.1346
-80.7682
-63.3151
-15.1524
16.2246
2.45944
10.0617
37.0017
-0.3126
-21.7833
-6.74066
-8.32178
-46.1364
-43.3045
-7.52979
7.18033
-33.0858
-14.8879
23.2864
42.8093
63.0337
41.934
4.89037
-45.4022
-51.2189
-12.789
9.51038
-23.6643
-9.86237
27.0882
36.909
32.6328
19.7657
-8.81517
-29.6971
-30.8673
-11.268
-72.8338
-80.2728
-45.5842
-26.999
25.7378
72.496
53.0828
55.7813
50.5947
8.27613
-3.09874
1.97704
11.1344
12.5362
-4.48668
26.0702
73.0559
35.1288
-12.4209
-26.6438
-11.9523
-23.8213
-24.7675
-68.0232
-60.3
-61.8875
-68.2138
22.0684
59.8656
40.3226
33.3399
-2.61708
-14.7408
27.4439
36.7978
34.0031
42.5747
-1.79556
-37.0252
-58.7868
-61.5866
-44.5456
-53.3195
-1.51013
74.3848
90.7828
81.3182
6.41075
-26.6256
-13.2036
18.1156
34.6822
12.284
-14.4112
-47.1289
-68.3993
-71.192
1.09594
60.0416
34.8968
-6.57197
-48.8889
-54.4097
3.73844
-37.2998
-13.2857
54.3247
43.4751
-8.6167
-15.3895
-25.6624
-48.7651
-45.0018
-22.2922
37.2014
87.8585
100.239
55.3912
16.461
16.4231
15.9939
35.544
87.1804
80.993
23.6292
-43.3472
-100.901
-92.3927
-60.2186
-76.7498
-68.577
4.22899
24.0409
9.5923
4.20072
-6.26089
-12.8363
-34.2261
-27.8944
-17.9065
-2.62913
34.8909
30.7783
22.6902
62.9216
76.7844
41.3754
-11.1048
-46.2945
-86.1753
-102.286
-42.7366
23.0367
42.992
26.0191
-0.727237
-20.7833
-9.57286
28.4267
68.6324
45.2284
4.27881
-24.5648
-24.5415
2.25981
23.1588
24.7573
38.4991
77.0644
137.166
100.455
-18.1653
-52.4993
-64.2476
-64.7914
-30.5613
-23.3989
-40.3648
-72.0978
-71.9696
-20.7173
19.0384
17.4451
-32.9416
-89.4922
-127.828
-118.623
-54.3476
29.3265
84.7237
86.3251
36.8287
42.8267
62.3402
77.7974
56.3779
22.7743
-17.7894
-2.31978
69.0782
57.5442
25.2854
72.3751
50.2702
4.15029
-47.8978
-96.2872
-113.22
-120.34
-72.9867
-2.33864
50.0509
49.0849
5.7815
-8.29855
25.811
51.2952
45.3369
8.63775
-42.2255
-27.9883
29.7044
3.87487
-16.4085
-24.2575
-14.1702
38.3313
38.705
21.9527
-15.9753
-13.2963
4.87593
-16.8408
-36.7138
-35.0605
-42.5669
-37.3782
16.2581
52.1412
26.2056
-22.3005
-68.6802
-99.4824
-59.1149
-12.4705
15.2676
57.272
80.506
84.3413
85.0154
62.4753
32.7271
-1.88005
4.03867
-6.79204
-24.0238
24.2413
28.7224
-12.8742
-31.9065
-14.1411
-26.0103
-15.9141
35.9708
64.6832
46.9521
9.51284
-55.2233
-98.629
-142.324
-131.715
-106.527
-81.2054
44.6322
139.477
104.697
18.5426
-29.5054
-20.2585
-32.7652
-48.7857
21.7154
81.6575
86.9685
76.9663
78.8284
37.2093
21.9547
-17.4778
-30.4714
10.2053
25.1034
-4.52272
-17.9176
-28.5926
-6.45414
-3.89958
-32.5517
-39.9883
-46.4314
-24.5316
-27.3952
-21.8523
-19.0216
-30.2191
-24.4431
-13.9841
14.6377
64.1119
95.3112
56.9413
37.8568
46.331
-23.3113
-93.0988
-75.431
-15.5642
27.9359
14.3207
12.3971
-21.7015
-1.43553
-1.72976
-44.2202
-28.4817
-7.33368
-9.09647
1.89248
-31.481
-38.0588
31.9781
49.6953
60.525
35.4672
20.502
44.0661
24.5145
9.91977
0.2532
31.1537
79.4367
38.3808
-14.2907
-28.1308
-13.5213
-6.22101
-7.5965
-35.943
-43.5513
-57.0115
-90.2462
-40.801
-0.306087
-1.76149
-3.25564
-11.1379
5.11093
17.6353
35.7628
10.5181
-48.5809
-55.0356
12.8319
14.0567
-43.0595
-52.5199
4.35674
57.0103
108.879
109.611
70.4808
8.32015
-20.4773
42.5824
35.8782
-53.1416
-112.635
-98.0535
-56.3107
-4.33886
7.18998
32.697
41.2122
35.1397
34.1689
11.0884
1.58363
-2.38688
9.82083
30.2879
28.5585
1.26861
-33.2164
-51.3165
-16.1766
18.8323
21.9836
48.3927
9.82779
-55.8147
-41.8936
-44.1188
-72.0935
-37.2917
30.1166
78.0532
63.6929
35.1831
24.86
5.83236
-19.5208
-26.1583
-29.5398
-46.6458
-41.2358
2.02145
55.4973
35.2401
4.42403
21.5148
77.3556
55.1961
3.175
-36.1998
-62.0336
-93.9345
-132.836
-122.226
-79.041
-38.1256
4.10596
16.996
33.3038
97.3216
103.578
47.4428
60.7612
84.7682
80.2379
74.2591
35.9988
-15.2084
-21.2036
-26.0548
-41.986
-24.0645
18.6186
-0.241403
-11.6463
-19.0015
-37.0029
-54.1952
-43.2553
-51.4846
-59.2812
-55.9707
-54.7228
-15.1894
39.432
62.9179
76.0313
84.9464
15.5931
-24.8746
6.44077
37.8125
47.3283
38.821
-20.6846
-44.1633
-27.9868
28.4385
59.6575
4.65418
-39.0952
-20.1098
2.81271
-46.6157
-99.1113
-53.2189
-29.1224
-15.039
60.2373
71.5088
21.7859
12.7941
33.0227
42.5803
41.597
28.3621
-21.8757
-61.6385
-38.4269
-11.212
-9.10462
-0.941171
-12.1161
-10.8848
19.8275
5.21925
-31.3373
-56.2602
-56.6781
-24.726
26.2199
17.9138
-11.4135
19.9304
54.5075
46.2302
44.6954
26.1757
-11.6747
-45.2216
0.0287718
32.0356
17.0264
23.7367
22.2225
8.57261
35.7199
21.0219
-12.7073
-65.9332
-104.63
-71.6211
-57.6409
-60.754
-27.9315
28.7284
60.033
81.0773
78.6882
46.3751
43.1389
21.5462
-23.3621
-53.0579
-35.2555
29.6267
81.4851
59.4662
34.7808
16.8214
-34.1524
-66.1965
-52.9928
-59.118
-65.0511
-77.3028
-71.9166
-77.3035
-45.5055
57.7133
118.394
121.585
113.927
83.904
24.6384
-47.3734
-93.6379
-60.3795
-13.3661
31.7575
58.611
10.6998
0.775441
13.432
-36.5635
-104.451
-111.375
-11.0481
17.3916
-12.0422
-64.0625
-51.2797
-2.11621
32.4405
46.0187
60.8753
54.0624
54.9484
50.7326
28.3247
12.9625
29.2668
17.2153
16.2499
39.6749
72.5504
68.1207
6.5985
-15.8304
-15.7754
-38.358
-45.8898
-15.7914
30.8872
32.1803
-19.3014
-75.7507
-115.962
-159.918
-191.677
-141.466
-25.4722
32.7602
52.11
76.8183
94.9647
75.9919
55.8774
24.5021
18.5063
41.935
57.0495
46.4456
17.3623
-19.094
-45.7895
-32.1221
-35.4415
8.37683
53.8135
14.5933
-5.1891
16.1714
20.9724
3.62512
15.8002
43.3979
46.4307
32.4227
8.36793
-47.1836
-111.775
-166.042
-198.035
-107.827
9.29603
64.4302
86.7296
72.9929
83.0104
84.7747
37.0415
35.7956
53.8383
36.5744
27.5287
20.9319
7.11007
-53.2685
-102.143
-75.044
-14.8346
28.6137
43.2085
29.1223
8.78453
-10.4826
-5.7679
-18.0475
-24.4555
-5.18528
12.0005
-23.2088
-81.1143
-89.4086
-64.1862
-42.9252
-29.2416
13.2042
58.2976
71.7831
48.2268
30.5866
25.1735
6.88195
-12.2987
-11.933
21.1586
68.9153
83.6939
72.4246
41.4187
10.217
-25.0607
-24.8401
-53.9614
-53.9201
-57.7645
-97.7862
-52.4672
9.7299
-10.5516
-21.4558
38.4829
91.7663
77.7806
23.3462
-10.7171
-10.2413
-4.70898
9.55075
-20.3581
-23.7846
-3.48244
0.33135
9.22657
-10.1597
-5.46248
32.9467
24.1541
7.92089
39.865
53.3071
17.1355
-46.7674
-66.8762
-41.4133
-38.36
-12.6102
-7.57614
-37.8159
-32.1856
-28.0382
0.42875
-27.6531
-106.79
-144.524
-62.7855
73.6765
101.312
86.7982
78.9026
64.8083
43.7936
40.434
30.802
19.822
31.327
86.163
88.0757
92.9578
29.2078
-30.9517
-48.1654
-65.717
-91.8272
-117.295
-44.3846
51.3425
19.4438
-53.1785
-63.8696
-65.6033
-50.0978
21.2413
72.0711
102.205
51.345
-16.3997
-30.629
-92.1701
-123.435
-84.984
-36.0214
33.6034
56.1549
65.2132
79.8025
27.2201
-40.7942
-117.625
-114.405
-37.3988
-51.0696
-34.5995
47.9912
187.214
360.515
383.492
216.788
34.2784
-66.2881
-90.338
-94.2655
-128.238
-137.732
-137.629
-118.783
-41.2936
-29.7778
-25.1727
11.4427
19.6078
80.7473
39.5538
-9.62212
-77.3202
-225.09
-309.632
-231.368
-31.1137
165.724
249.771
175.814
98.0825
58.0267
48.4838
59.5235
24.3561
37.9774
107.348
67.3063
-23.306
-52.8459
-42.8222
-46.8438
-59.6653
-77.914
-103.702
-6.32711
89.4522
45.2201
-35.9016
-64.3082
-14.4497
5.38055
-9.0613
-39.5295
-8.13537
65.0711
89.2202
102.977
104.827
91.9866
51.3372
5.5685
-29.5421
-61.0183
-50.2465
-43.6236
-70.9829
-72.253
-42.5057
11.197
14.4807
7.49768
16.0473
-14.7459
-36.2489
-47.492
-43.4681
-23.4507
-46.0419
-40.445
-31.5085
-39.2934
-27.0425
20.205
55.1376
60.6132
62.9201
38.9108
6.02349
-27.3906
-38.3229
36.176
136.502
136.422
72.4408
-41.3065
-104.84
-141.544
-76.1195
78.2891
164.037
117.312
43.8795
4.96545
4.33935
-6.88688
-43.3617
-70.494
-85.997
-10.592
67.493
-17.3665
-121.231
-90.7049
-34.7582
19.3569
9.12414
-2.54142
17.4524
-35.0631
-83.2237
-74.8904
-36.0787
-18.9583
-5.58857
-1.015
4.99127
49.2932
98.137
92.4252
77.0563
54.8658
7.10233
-7.36724
16.0034
40.9196
47.7944
57.286
33.0949
-16.4451
2.7058
25.4138
-14.1341
-41.2436
-28.7814
6.88947
12.3146
-5.42267
-48.9678
-32.4009
-25.6686
-38.8451
-35.6314
-27.9948
-42.1745
-41.075
16.9917
24.325
-14.9927
-62.3155
-91.8095
-36.5343
14.171
6.43834
-15.927
27.9436
65.7388
56.7201
41.245
26.2905
8.41129
21.5357
31.4931
47.4603
34.2125
33.0665
25.8659
53.1634
44.0445
45.0406
45.6441
-19.8995
-58.4537
-53.4652
-63.6023
-77.8858
-72.2663
-27.1072
-0.727455
-4.03347
-26.0468
-27.8892
-8.59245
-25.2981
-32.0108
-25.5973
-50.5271
-43.6084
33.5416
53.7026
-31.7315
-11.902
50.8908
67.045
91.4969
75.1864
57.4832
32.9641
14.1241
-9.71093
-6.79188
-2.58469
-5.99918
-4.50405
-16.1908
-31.766
-28.3379
-4.12783
2.18892
-24.2539
-32.2992
-14.2745
37.2134
34.7787
21.5894
8.38917
-26.1288
-33.312
0.427564
1.30524
-4.27973
-19.5094
-35.9649
-28.2299
7.60898
28.0237
39.1116
2.98838
-36.188
-20.7576
7.38266
21.7566
1.4118
0.04269
22.822
2.92715
-27.8203
-6.4933
0.883041
-56.9692
-74.915
-17.1405
43.552
39.2489
45.5658
69.6574
68.4153
49.8054
-36.7626
-95.9199
-25.427
-17.3162
-8.65683
52.9509
46.7425
18.2347
9.14839
-0.423546
-15.4691
28.884
43.572
43.6655
9.09007
-34.3321
-70.9374
-67.5587
-21.7843
-38.6724
-69.783
-54.7503
15.8486
56.8855
18.1168
18.3355
30.5045
39.0147
20.5629
-20.5641
-41.3857
-5.42048
-14.6625
-85.0887
-53.1234
25.1015
67.8529
82.1674
40.1099
-4.4842
23.8974
-0.702765
-48.4174
-39.5595
-27.5339
-23.691
-13.0495
-17.1464
7.77831
22.7205
44.6489
53.2111
35.6103
-11.6265
-44.4871
19.5438
53.2903
17.7834
-33.9935
-12.2758
36.6736
53.8069
28.5977
-34.1118
-18.0542
-23.9373
-25.9622
10.7784
39.8517
49.3466
29.209
-2.38556
-20.1248
47.5857
58.0028
-50.1779
-146.156
-186.852
-138.516
-72.7526
-24.9328
17.2737
22.1197
45.0536
51.4656
42.1377
80.6515
94.1566
73.1182
56.7503
29.3384
-1.54702
-10.0083
-20.9599
-64.6011
-67.1912
10.4599
56.5373
26.7789
8.54304
17.7722
43.6612
-2.23457
-86.5578
-99.0887
-53.2749
-43.6977
-51.0961
-46.7868
-38.5294
-46.4606
-59.1934
16.156
89.1682
130.184
108.044
47.7488
30.005
56.9921
88.7142
72.644
6.30726
12.5203
67.9974
39.3889
-19.4552
-88.2464
-95.9616
-88.0293
-63.8775
-17.7828
31.9172
38.1072
-14.8245
-60.4659
-110.157
-95.6662
-58.1155
-50.2611
-70.2687
-88.823
-12.8612
97.1109
156.94
114.872
68.8548
61.0005
55.7414
56.981
52.1689
64.3403
22.7529
-20.4946
-13.1367
-17.4887
17.1328
-46.3779
-149.731
-124.223
-21.7154
66.9857
67.7069
-20.1284
-69.8091
-26.7237
-56.561
-32.9837
-7.63083
-35.5763
-15.2176
-9.42176
0.416776
-11.9927
-10.4055
30.0452
126.368
177.796
168.548
116.421
23.2706
-48.4207
-62.7361
-26.2023
-10.3193
-37.8299
-58.8668
-48.6083
-33.3719
7.25235
37.586
24.4799
4.19967
-73.564
-96.0185
-71.325
-109.235
-146.274
-65.606
23.78
113.343
135.426
84.1219
-11.7339
-20.0168
44.6345
58.7824
-0.374762
-8.25932
4.71204
-32.0937
-29.2241
17.3032
62.1086
67.3599
55.1818
24.3366
56.185
67.6119
15.0595
-42.7745
-54.5838
-44.5057
-43.1116
-57.1308
-85.0214
-44.6437
-18.9466
-18.3409
-16.3292
-32.8958
-73.4776
-89.208
22.0266
138.92
131.223
5.00533
-15.0255
36.2513
48.2457
53.3362
22.8552
10.3746
-29.4599
-53.7849
-45.439
24.4636
37.6751
-3.52589
-23.6656
17.3512
64.4745
69.6506
8.37072
-64.8873
-42.3179
31.4382
73.8489
-2.6785
-57.3587
-88.7847
-67.0123
-86.5864
-65.6337
-26.6014
-43.7959
-45.4423
-8.3659
-22.6865
-11.9953
4.37399
43.2546
45.5581
17.4832
-2.05753
-12.8367
114.562
110.479
111.34
217.354
206.887
123.34
17.1395
-17.1509
-57.1546
-85.3083
-147.526
-155.771
-102.048
-74.271
-54.4221
-61.1268
-47.8872
1.03701
28.1974
8.74953
-61.7504
-105.718
-151.92
-172.388
-145.782
-94.4456
36.6449
158.067
171.529
200.219
235.893
162.864
38.7966
-3.97793
28.8521
112.085
149.94
115.415
64.6818
17.7412
-37.2851
-98.3735
-191.818
-205.751
-115.413
-51.9341
-53.2219
-62.8282
-13.974
46.3976
48.274
31.9541
73.6686
52.0181
-19.888
-71.6175
-75.8853
-79.4758
-55.5652
-18.3853
27.997
75.0157
126.306
97.0491
-11.698
-99.4811
-108.173
-37.4303
41.2984
70.3282
63.9246
68.934
44.7473
7.96229
-23.5776
-2.98562
55.8546
33.0672
-38.0936
-68.1918
-65.3027
-41.7807
11.4425
-8.79451
1.75452
49.2457
30.5861
31.6133
2.11723
-72.8338
-159.67
-236.134
-107.819
57.5982
131.756
80.872
17.2405
50.3693
68.0231
47.6986
38.9739
74.9716
95.4186
74.8296
42.2047
-4.19074
20.5773
-22.6188
-49.5636
-44.9749
-54.55
30.9995
43.5081
-9.40343
-47.9122
-73.3199
-96.8748
-78.6151
-46.9126
-22.5422
-19.0392
-14.7236
1.5007
16.5568
9.4517
19.078
25.3015
5.90059
-3.17963
4.27356
57.392
90.6182
33.5221
-29.768
-52.1317
0.293709
14.3318
15.6936
14.1214
0.78857
1.67589
2.97537
-3.72759
-22.6542
-9.98341
14.027
-23.7712
-51.9642
-2.97462
43.7639
19.6229
3.5473
41.1702
71.825
48.7566
-5.81943
9.35646
23.3112
26.2803
9.9708
-33.8721
-49.8847
-68.9193
-60.545
-56.8643
-61.8062
-22.6929
10.8561
-3.07665
-3.58686
18.8336
43.5752
24.732
-39.2349
-69.2525
-38.2256
-18.7056
-55.127
-106.274
-40.4939
106.062
138.979
136.451
131.505
86.6782
41.0563
21.0364
1.90274
-55.555
-66.8182
-15.1573
18.0402
14.581
13.657
-16.7381
-63.1505
-64.6175
-13.5585
51.3543
43.3929
-4.01528
-15.1485
-18.5106
-31.0865
-24.3155
-0.853939
-28.9879
-105.772
-41.8999
32.8123
50.2375
33.7802
6.99908
11.7335
32.173
15.8178
-3.73008
0.335407
-23.3968
-40.2741
5.94366
23.4778
-7.11131
-17.1276
2.03797
-11.1639
-26.1799
40.4025
67.8421
39.1929
-24.4972
-63.228
-41.5687
-19.8808
25.9518
78.2494
26.4652
-10.7619
10.6452
2.70804
-38.9916
-60.2275
-5.60486
25.9522
6.51433
-7.31415
39.8516
81.8754
4.51173
-76.5057
-22.8457
60.117
51.5437
-50.5252
-60.2956
2.25864
-3.64133
-13.0948
-40.5184
-42.7206
-12.9082
10.3837
13.1543
60.7927
80.9635
65.4022
37.8862
11.1145
-27.5204
-29.8576
-10.99
-72.2058
-99.886
-65.9434
-30.8906
-27.1722
17.7977
31.8617
96.9222
114.373
11.6077
-36.6691
20.7586
44.3438
-0.56812
-20.5549
9.25186
4.90167
-13.8538
-30.3471
-53.0614
-34.819
-18.7434
30.939
48.1912
75.8063
78.5196
-15.3998
-98.3092
-109.151
-106.361
-85.5995
-111.313
-42.0337
79.3044
103.955
95.4593
69.6793
67.8072
72.47
41.415
18.3568
14.9171
44.9386
34.462
-50.8711
-84.8701
-41.968
-17.2387
-24.8594
-28.8903
-14.5615
31.5804
-1.40527
-12.3636
12.5142
-18.7885
-54.358
-33.7585
-16.7516
-25.0601
-2.91346
-1.78
-26.8456
-12.7733
20.1462
9.61723
38.5862
92.5993
92.2393
50.0556
6.73548
2.0065
32.9633
-0.32768
-22.9694
-14.9676
-16.4225
4.52121
-5.95839
-18.7805
-59.2011
-85.6241
-88.9393
-104.447
-77.1681
-21.5247
53.9225
75.5072
79.8167
93.0413
98.4347
32.2114
-29.6195
-24.0003
7.57622
5.39472
-1.22969
-58.5346
-17.3523
7.79138
-6.3026
47.4722
110.805
104.539
34.2437
-20.7896
-18.1024
-39.1892
-66.4318
-12.3973
15.604
-17.3519
-63.4597
-91.2901
-75.9142
-10.0886
59.149
36.8676
-59.8955
-34.7603
-11.339
-23.0267
30.228
48.0931
35.2177
12.2373
14.1024
29.0216
-18.7235
-78.8819
-60.3923
2.49941
-6.0706
-39.4819
-28.1118
49.4361
25.5066
15.4266
40.4913
60.2001
72.2196
37.8149
36.3895
85.2322
69.0084
43.2609
-34.2195
-77.4664
-23.7105
-37.6516
-123.312
-86.3176
48.6246
88.0342
55.6974
-19.6066
-57.4537
-78.1601
-17.8049
10.4128
25.1554
41.2041
-3.63488
-77.9938
-61.3873
-19.8295
-34.2463
-13.6548
51.9922
69.6927
64.4484
0.516595
-36.4053
-4.54884
-39.8353
-126.99
-107.362
-24.1866
62.15
181.521
182.586
119.689
45.7356
20.8517
-0.292269
-31.6314
-16.2621
14.5154
-25.0116
-19.0277
1.37228
-10.0714
-71.4251
-86.5786
-61.2286
13.5935
66.6798
85.005
-13.1478
-154.042
-161.467
-141.044
-93.9358
-30.2614
4.18704
61.2992
90.4744
63.611
63.6562
54.3277
49.6444
33.3573
16.7109
41.6007
126.519
152.739
116.456
44.6158
-39.6082
-124.219
-175.994
-175.212
-107.093
-35.9068
-0.26468
67.497
77.6285
30.2278
-4.53414
24.4197
63.5671
74.6501
52.6178
-15.8845
-94.6315
-107.596
-106.095
-90.0719
-33.5517
40.2268
91.2502
136.303
70.6453
57.2602
52.8858
-14.2786
-53.6905
-63.6186
-60.1742
-19.8408
45.9044
59.5379
59.9279
36.2164
15.5055
21.5043
-37.0211
-111.779
-164.037
-97.135
21.2054
51.1239
23.1933
-24.4725
-9.37241
-7.15836
-33.9259
-1.21736
61.7728
40.9564
-27.2507
-56.2895
-51.1442
-6.70741
29.4406
23.4099
62.2453
88.9129
66.7738
41.5816
32.7343
21.9612
17.6873
22.677
3.03912
-9.85342
-63.1618
-68.5783
-33.9259
-16.9855
-42.1599
-16.7206
-3.10502
-51.2004
-3.84969
39.6688
40.0728
79.181
59.3268
-21.07
27.4591
89.8943
112.71
54.3824
16.8716
-67.6246
-167.933
-161.868
-142.076
-131.185
-62.1003
-7.77186
-16.2318
13.5416
3.34585
-22.8123
69.7799
124.229
149.801
127.287
3.00119
-124.058
-83.9369
41.1963
49.0735
76.7763
176.493
145.763
24.7121
-12.1257
-16.0063
-10.0634
-12.8196
-0.947084
-43.9868
-108.496
-149.878
-136.239
-67.0073
-73.1215
-83.4557
-54.3346
-51.5791
-12.8703
32.1646
58.1415
69.5422
47.3078
103.427
119.299
111.352
71.6304
-2.05622
-34.1814
-33.9593
-55.2566
-62.1932
-89.6339
-58.8533
-0.498746
15.4967
60.1867
82.3794
-9.53728
-13.1768
32.5231
27.9542
21.8066
22.1487
50.2362
45.5818
7.54116
15.6107
9.54784
-25.3352
24.0558
50.1788
4.71536
-74.3191
-78.8615
-86.053
-128.2
-147.473
-92.7153
33.2247
110.321
117.415
80.6525
33.5247
-38.1953
-70.0255
-71.8728
-34.2298
-4.13828
46.0824
62.1736
40.216
42.18
41.6641
-1.61548
-40.4279
9.74422
41.6252
9.16987
-81.2903
-71.7769
-12.0176
2.48135
8.82114
32.9806
25.6378
-8.09071
-53.872
-38.1787
11.3068
22.211
-25.9892
-18.7777
38.1774
101.566
146.481
127.7
77.1667
51.9583
59.2396
-34.6476
-105.877
-81.8249
-54.9809
-72.5867
-145.942
-116.805
5.78062
58.7559
15.8864
-5.76283
16.7091
9.8824
1.86086
4.96401
-1.0827
-26.6952
-92.8422
-111.595
-30.4836
36.484
52.9369
85.0244
58.8106
-15.5552
-13.4292
-11.7375
6.05607
88.1378
92.9002
11.682
-1.79025
-34.6027
-129.344
-135.808
-57.3974
52.7671
172.726
189.097
63.7585
-25.3318
-7.81843
7.7128
2.00772
37.8862
61.1934
30.7419
-28.2952
-126.237
-140.166
-48.8989
1.70774
70.9559
110.875
89.3823
-14.1219
-64.5292
-55.6258
-62.1527
-98.5231
-104.363
-69.8701
-18.2351
21.3856
27.5821
-0.40637
-1.94004
2.12026
-3.31218
-22.73
-14.8187
8.6045
-8.81973
-13.7415
16.3706
56.5113
57.2306
38.6696
21.2986
20.4247
54.1559
46.3743
9.46207
11.7274
12.8971
-15.4183
-42.6869
-11.697
-15.591
20.5125
39.9962
28.8957
-3.75178
68.8169
111.533
10.6829
-46.5777
-57.0903
-37.1184
-2.01566
15.5422
-10.941
-46.3171
-4.31158
98.7102
158.975
66.3057
-120.652
-143.185
-48.9745
40.5022
27.6336
-28.4701
-108.912
-170.308
-173.792
-249.609
-195.155
38.3356
132.304
132.437
110.952
61.9267
13.7149
-13.6677
28.721
129.507
171.279
124.894
42.1206
-88.5941
-207.984
-103.282
-47.6714
-8.95888
106.048
178.958
145.196
-16.5722
-75.3231
-73.4319
-38.8591
31.9292
65.7875
53.599
73.875
115.407
73.5131
19.5374
-23.1516
-42.6408
-9.46302
2.63066
-23.212
-58.8681
-68.3645
-53.7863
-23.8517
-63.0743
-92.4188
-89.8022
-89.8436
-109.645
-75.0648
-37.5184
-93.6881
-103.188
-23.5253
13.9255
74.2372
151.442
170.449
106.762
92.5579
86.2641
103.755
125.32
59.0012
44.655
-0.0071868
-61.4021
-13.0542
-10.671
-59.5335
-80.3367
-46.3448
-18.5542
-0.667275
32.2635
-31.673
-106.078
-90.5115
-44.6594
23.7558
31.7295
18.3423
0.458469
-33.1115
-104.846
-86.3114
28.7221
55.3959
97.1509
140.724
113.102
50.3164
45.9543
36.2075
-8.76952
-88.2966
-119.087
-89.2848
-118.232
-18.6104
82.1805
64.9682
38.3473
23.1728
39.2291
30.6415
14.0488
32.1588
19.6447
-13.5453
-36.3617
-35.9406
-91.6654
-138.082
-131.76
-60.9766
19.5238
26.3561
110.166
116.762
114.74
67.0339
16.6671
-13.6973
19.3686
62.1316
46.0067
-12.8892
-28.8402
-29.7902
-40.9853
-48.2803
-43.2383
-21.0432
-14.8266
5.73562
14.06
24.9751
12.1852
-30.4214
-102.212
-120.319
-66.2318
12.7328
17.5984
-1.88233
-39.4355
-18.4251
-31.2306
-62.8169
-43.7547
-6.22733
38.3077
99.362
144.965
164.165
141.308
118.512
74.1375
-2.91881
-40.6737
-21.1403
2.66615
27.6222
18.7186
3.81081
-24.9942
-88.1483
-74.149
-32.8757
26.5324
17.2084
0.804833
-25.9368
-10.456
-5.425
-89.3364
-108.167
-84.8863
-31.064
26.1186
29.546
16.3789
16.5866
54.9678
88.9675
89.3978
29.9313
-18.6605
-84.6308
-186.74
-206.159
-128.323
-17.1575
27.1464
26.6531
72.3306
103.909
114.496
80.2923
33.404
51.8389
51.0115
3.55711
-20.549
-42.0999
-27.5829
30.6766
68.4365
99.3768
119.674
104.373
69.3637
1.40617
-80.3999
-132.403
-153.884
-121.57
-71.7128
-89.4647
-115.226
-35.1044
100.25
105.623
41.3137
-18.2462
-16.8037
32.6967
43.1078
11.018
2.38015
18.0592
12.0738
6.63578
27.1401
82.1315
102
35.0792
-51.5396
-62.2798
-36.9565
-50.2387
-55.4107
-40.583
-24.4984
-13.2961
-36.1222
-21.8904
2.46468
-11.1926
-64.6244
-49.1243
39.5539
48.7356
44.1179
55.6373
35.1673
-13.6988
29.4884
84.4832
55.8361
-23.9111
-72.9058
-32.4804
-18.8828
-27.1078
-26.2428
-55.8373
-23.3359
44.6423
100.634
119.831
50.3072
68.4436
82.7212
2.10586
-55.9949
-46.1966
-30.7829
-41.8876
-33.0154
11.5886
-43.0047
-121.557
-114.653
-94.3975
-78.7294
-16.5407
-16.7604
8.74828
67.8647
89.7635
86.5584
84.204
81.94
79.2199
41.4107
-38.9844
-150.535
-251.671
-196.94
-13.9695
41.6319
-9.86553
128.859
320.165
306.646
212.21
104.691
16.973
-32.9176
-69.2598
-107.131
-138.168
-156.914
-114.593
-42.4455
15.8932
8.12737
-48.966
-55.7444
33.0551
75.132
98.2951
46.1376
4.59036
-31.509
-88.4879
-113.505
-171.057
-110.524
-54.9582
-87.9768
-38.9831
4.19853
34.5489
67.5463
74.6882
186.229
273.998
187.244
92.6644
96.6856
25.5295
-92.4601
-131.656
-113.424
-118.544
-80.0693
3.55626
-8.05151
5.87289
17.9143
36.7617
45.5648
-16.9372
-73.8877
-87.8558
-164.589
-154.374
-37.3121
57.5293
49.7751
19.775
115.673
203.691
187.116
186.106
144.916
66.7511
14.5846
-83.5241
-112.629
-115.36
-155.139
-120.481
-49.8076
-25.3636
-4.48225
-14.1746
-51.6203
-59.811
-22.1369
24.3866
6.04313
28.1626
57.7403
18.2175
-67.3131
-66.4229
8.11707
63.3872
79.0861
33.4435
24.7273
-16.121
-17.6523
96.2167
102.662
11.8373
21.7912
53.8687
31.1668
23.6234
-18.5932
-60.0216
-57.9837
-94.5192
-90.0795
-73.4415
-46.6706
-29.0986
23.1721
43.7197
44.0132
92.508
75.4287
-24.0335
-52.7427
-28.0514
-11.5937
-26.8606
-29.4026
12.0456
58.8654
40.5457
1.71719
-33.6444
9.24219
-12.0092
-81.0377
-117.227
-24.5857
100.113
108.598
81.5911
47.5054
2.28158
-38.5883
-30.4585
4.26885
3.83675
-34.7256
-82.9021
-77.4245
-43.2258
-7.94483
30.8962
27.894
72.1712
86.6605
133.566
92.6756
18.7299
27.5283
-24.6036
-81.3291
-97.0198
-126.955
-68.0095
-18.3471
9.12013
39.6268
40.5612
12.464
-12.0542
-1.52227
52.0879
61.9903
32.6399
11.3203
-71.2008
-140.562
-94.4361
-43.6983
-7.33487
56.5037
46.1141
42.1765
40.8802
1.97607
13.9647
34.5071
4.50432
-54.8186
-77.1945
-32.0612
-27.7204
-40.6672
6.35357
74.0949
132.904
128.799
78.7568
47.1113
21.0654
-25.2049
-38.6934
27.7897
18.8906
-36.6717
-48.6352
-13.4218
25.6463
31.8147
7.9319
-37.1186
-53.2765
-43.1692
-11.09
23.7704
-14.6541
-66.7708
-87.5085
-160.42
-199.235
-181.71
-104.796
105.108
230.634
166.426
81.6635
29.6979
16.6078
16.3178
11.4649
16.9228
37.8034
50.2308
32.1933
-15.8466
-14.5909
17.0692
12.1443
47.52
100.516
141.372
110.654
-59.1137
-201.921
-151.44
-100.023
-69.2345
-37.2261
18.4004
33.0953
30.8186
17.1786
8.96821
-0.86958
-3.79578
31.5676
34.4397
11.9461
4.88136
-8.6678
-16.6557
22.9211
-3.21802
-35.5451
-4.39288
45.8433
34.2019
0.547468
-26.1034
-16.8665
5.15736
-15.5632
-56.8023
-78.4365
-31.1244
-9.96079
3.21916
11.9388
23.6503
49.5463
14.3529
-29.9701
7.59535
11.602
53.3444
63.2914
43.5706
26.9852
-21.0138
-41.079
-75.2591
-79.3472
1.98952
37.9584
19.958
-24.7977
-54.907
-33.6794
3.59965
19.8893
47.2123
118.993
114.492
133.573
45.1548
-82.0179
-99.9506
-101.278
-78.4829
-30.6765
14.6756
78.2438
69.2761
8.70096
-40.1051
-49.1681
-3.11333
6.51514
31.1639
21.5028
-24.503
-68.8022
-112.707
-117.534
-81.9366
-48.6059
-17.4838
-9.82758
28.5655
57.2619
90.5047
117.592
110.294
115.639
70.1802
26.6103
-1.00929
-78.3668
-86.2691
-11.6918
69.875
57.2786
24.6795
2.55674
12.3303
27.7901
-2.46893
-19.7722
-30.6185
-53.5152
-83.4866
-100.165
-80.0398
-91.4965
-67.7492
-35.2551
22.6743
95.4838
54.6378
4.04902
-17.912
-19.1582
-10.3296
22.8201
63.4772
76.77
82.6873
64.7176
48.5726
32.5785
15.7122
5.62446
-11.7187
36.5292
49.0452
51.0854
19.2783
-22.0177
-39.3362
-66.4384
-106.976
-158.062
-152.963
-111.151
-71.0257
-26.4814
-26.2767
15.0211
38.7473
61.4333
51.5146
28.4562
33.9612
68.6181
85.7754
69.1767
11.8696
-10.2294
-11.4723
-23.1219
5.76196
107.906
164.117
81.1114
-8.53928
-36.6756
-32.5908
-39.8845
-45.1684
-55.9115
-52.9614
-44.8312
-43.2661
-45.045
-15.1325
12.0695
25.036
4.64658
-20.3809
-11.6591
-6.22041
-21.201
-19.2528
5.4562
51.8991
35.2072
-23.5522
-39.4798
-20.6455
-17.1947
-49.3022
-67.4699
-67.1862
-59.6306
-44.5625
9.43793
68.1678
93.3759
118.596
136.508
95.1567
28.4509
-18.5223
-23.1569
-4.87366
34.8502
75.3778
95.2063
81.1173
34.6816
19.7133
11.5095
-1.04751
-22.5458
-83.8535
-130.659
-110.971
-99.7559
-115.397
-107.034
-86.3891
-58.8879
-32.0118
-15.7782
-1.59942
36.6687
33.808
31.4391
47.4522
73.6704
108.648
127.679
131.42
83.636
59.2639
19.542
-49.4557
-75.4276
-97.5925
-143.698
-126.622
-65.0587
-70.1842
-87.6499
-99.8717
-47.9876
39.912
72.78
72.3627
65.013
72.818
61.2759
40.5284
53.1354
59.901
66.0182
72.4458
73.9912
95.1842
117.416
103.497
59.5615
38.4033
31.4137
8.31734
-54.749
-64.5452
-43.8846
-34.5184
4.94993
-8.68006
-70.1967
-123.61
-201.026
-218.755
-234.753
-224.607
-141.021
-122.551
-85.9892
-5.05361
20.0922
83.6049
121.988
121.14
126.336
119.899
103.843
79.3732
32.474
12.708
36.8032
83.5182
144.195
119.417
79.1031
71.8611
56.9602
60.0611
39.0955
28.0942
9.96695
-30.9831
-54.4713
-63.1448
-75.9313
-88.7125
-110.837
-124.035
-118.98
-106.093
-88.7628
-99.7893
-97.8509
-50.4995
26.3757
80.5454
108.41
144.052
137.5
102.201
134.815
48.6178
-53.004
-119.818
-118.374
-66.5919
-32.1854
-55.2914
-144.057
-190.413
-147.474
-50.3244
62.092
216.634
232.977
160.351
45.8235
5.04026
139.971
131.658
51.8365
65.175
22.2731
-30.4602
-102.693
-194.912
-117.676
-75.2161
-42.4566
98.8538
141.126
84.2356
51.4772
19.1723
41.1152
87.4451
115.089
92.9995
-27.2247
-102.531
-218.591
-264.799
-158.4
-70.1539
-55.2905
-48.884
-65.1163
11.3905
73.8855
57.3833
51.8522
72.4401
61.2767
-31.9552
-65.0619
-64.403
-44.7394
-31.9131
-40.3159
-13.6207
46.524
104.576
125.888
91.9392
70.8252
81.884
24.8372
-41.5483
-85.173
-100.41
-72.0855
2.87259
111.526
187.528
145.648
65.8011
-6.42616
-87.9332
-164.213
-190.974
-106.478
-42.1137
-32.3209
73.9209
170.226
195.337
198.355
56.5678
-50.1259
-62.909
-49.6503
-80.1116
-185.422
-148.883
-80.2372
-62.4118
-108.301
-119.191
-109.753
-55.9561
-42.0919
39.7538
132.418
140.881
156.42
178.752
134.358
166.466
189.765
190.142
215.004
110.425
22.7868
-74.0969
-168.542
-257.809
-248.99
-227.555
-202.277
-131.988
-73.3851
-41.8423
28.9809
80.6397
87.2408
43.2934
16.4049
31.9327
72.9124
10.2098
-129.791
-155.344
-134.264
-137.578
-43.6273
98.4807
211.846
281.995
338.849
324.184
251.835
132.627
-6.9121
-97.8011
-138.891
-106.907
-63.0095
-31.855
-38.2592
-96.2857
-142.967
-169.295
-127.019
-102.049
-168.549
-214.404
-169.056
-89.4844
-40.8273
-17.4885
45.2778
-0.0949005
-92.8145
-14.8056
107.372
139.147
128.551
189.416
220.222
158.194
122.866
137.639
137.181
144.966
228.145
255.279
179.574
7.89051
-202.086
-344.943
-461.161
-546.368
-411.774
-184.733
-35.0672
66.6786
112.971
159.026
161.21
162.516
171.935
141.722
92.5408
34.783
-3.26033
1.17947
14.0074
116.312
194.755
181.191
173.163
253.131
229.695
3.25931
-200.397
-205.442
-178.211
-228.343
-226.739
-188.544
-146.752
-139.295
-150.853
-23.784
10.6911
-64.3556
-27.3914
16.0708
75.8128
114.375
-3.15764
-87.2883
-138.111
-254.399
-315.516
-286.394
-85.0001
64.822
149.159
286.208
344.453
428.366
363.429
208.856
91.6254
1.72105
-110.996
-155.12
-168.381
-126.252
69.4774
224.786
258.233
245.313
164.919
29.835
-109.396
-146.74
-114.83
-28.5701
22.9179
-84.8108
-134.741
-191.233
-202.321
-140.992
-101.962
-136.488
-119.437
-36.9303
-27.2913
-36.8492
71.8119
191.647
272.48
222.218
40.38
-72.6543
-89.7521
-146.447
-199.354
-143.408
-50.5651
26.6078
79.6155
120.204
135.383
153.009
143.097
96.4041
110.589
110.342
59.4278
44.9994
46.9428
8.33989
-9.55683
-22.6416
-44.146
-117.241
-176.991
-164.13
-79.7333
-63.4905
-71.9597
-73.7181
-42.4997
-9.63872
-41.2163
-56.0823
-38.6521
45.3961
41.0186
-12.2725
-29.1437
20.571
51.962
40.4073
-21.963
-40.3652
78.306
120.341
88.2941
45.0776
73.5712
109.88
-13.3971
-48.9886
99.6021
211.134
93.1705
-64.2149
-71.1629
-97.1607
-170.337
-218.434
-144.664
-94.3704
1.67178
77.3674
75.5082
107.336
46.9957
64.2389
14.0205
-25.0085
58.6741
69.7074
-31.7905
-66.1249
16.2636
90.1458
31.2682
-34.2928
-11.8648
59.5189
0.846649
-35.5879
-40.9007
-83.7101
-56.7945
16.8534
121.624
119.409
116.761
110.327
-4.71407
-183.443
-242.712
-241.387
-250.921
-138.45
-46.0097
58.092
107.699
94.4362
108.981
53.0974
19.679
12.2724
-36.0812
-77.1897
-64.3712
-50.8106
-60.6011
32.1645
37.2319
61.9368
21.2351
-35.8326
35.8596
-19.3506
-2.48882
104.035
128.274
115.763
129.364
141.35
98.91
52.2076
-34.1203
-59.6486
-66.4214
-62.3203
-58.179
-136.273
-47.6362
95.3747
222.292
299.143
254.295
216.879
130.544
-49.9536
-171.899
-183.645
-161.263
-152.761
-170.43
-166.7
-107.118
-109.781
-142.362
-197.405
-205.941
-88.9138
102.811
85.1106
63.3144
83.1263
185.174
117.031
1.82116
-36.2457
-71.6465
-192.146
-375.419
-293.327
-151.09
44.478
139.495
129.32
51.0388
82.7699
151.401
107.387
240.484
432.481
404.974
231.339
112.89
87.9479
-106.932
-272.458
-225.802
-125.81
44.1282
82.0064
40.0878
34.4148
28.1577
-13.7505
-16.598
-44.8963
-45.0854
-2.04987
-111.167
-185.107
-193.728
-158.469
-170.812
-226.4
-132.146
6.74335
120.393
189.054
214.853
261.982
281.528
83.2578
-61.4366
-96.5276
-97.436
-63.447
-59.3603
-66.8416
-74.4791
-80.2679
-82.074
-60.7085
-53.9483
-5.24635
119.996
203.445
173.108
127.139
40.7697
-64.1819
-38.1595
18.13
32.8159
78.8686
59.6657
18.7689
-85.7543
-191.226
-243.496
-248.499
-252.158
-241.68
-160.407
-50.7076
70.471
319.87
418.953
380.138
407.379
344.562
99.4749
-48.6403
-91.8747
-112.855
-59.2712
12.881
95.5548
141.201
14.8101
-112.722
-235.838
-339.41
-284.683
-148.725
-2.85363
-13.8
-5.87478
-3.71465
-103.315
-156.45
-87.2798
-48.5812
27.7034
158.589
221.896
248.485
246.186
61.9988
-60.0529
-148.967
-177.229
-144.739
-142.759
-61.9409
2.53591
18.0447
-14.5544
4.11041
103.331
129.382
101.802
92.6493
58.1691
-27.286
-95.2637
-145.589
-143.694
4.43292
162.426
381.141
540.104
445.469
212.424
-52.2905
-229.465
-331.112
-320.102
-191.848
-91.1776
-43.3151
60.3423
31.488
-71.9837
-72.938
-70.4406
-151.028
-217.787
-175.417
-99.8119
-0.886026
83.9589
125.122
158.322
252.364
139.058
-47.4971
-154.761
-148.126
-148.833
-120.34
-10.9493
144.12
207.07
111.817
38.895
-4.17197
-48.2018
-110.821
-77.1838
-110.525
-76.658
31.7392
105.419
154.823
270.367
297.263
184.22
25.8898
-82.8848
-160.374
-190.659
-64.6331
43.6316
48.6972
52.7589
74.8827
60.2932
32.046
-33.4289
-85.2851
-10.9513
51.9113
9.41417
-56.0254
-7.58699
-52.287
-142.122
-187.624
-209.907
-228.273
-191.88
-150.481
-99.375
86.8293
171.461
117.733
164.075
295.927
299.487
136.666
-49.4545
-57.8587
-50.7047
-159.798
-189.563
-83.857
89.8276
147.828
72.615
22.2804
-26.4225
-57.6694
-127.842
-187.322
-10.6183
111.687
35.9285
28.8659
116.877
215.241
146.873
26.875
-20.6849
-56.1551
-119.353
-146.335
-90.8273
-15.777
44.8829
133.431
166.942
173.301
170.186
117.655
-10.673
-106.596
-96.8991
-103.595
-187.984
-185.256
-93.9605
-14.8898
64.1712
87.8702
24.2779
68.6811
4.39271
-127.541
-97.7426
60.5832
89.865
-33.9029
-64.6656
-53.1415
-96.2161
-83.1655
-33.6521
-53.1949
-138.904
-200.647
-114.871
-13.2832
13.0363
48.3901
66.4423
28.57
151.975
308.016
321.898
211.659
73.0005
-3.0511
-71.8923
-122.958
-171.089
-119.8
-40.4366
-49.7763
131.034
313.378
263.902
246.115
115.99
-65.7652
-255.635
-210.368
-149.586
-13.6274
42.8964
-81.6122
-88.948
-79.231
-103.086
-104.521
-17.4208
55.5814
55.4365
43.7411
-4.60223
-66.0491
-72.9794
-102.051
-23.9031
71.2644
163.149
165.825
98.6347
-17.3682
-98.8694
-61.7184
-99.212
-108.09
-28.6391
49.4627
118.999
135.113
95.6159
73.8197
-5.67888
-52.5209
-51.4831
-63.9948
-52.4377
3.37377
76.0853
56.0435
-24.9928
-120.134
-101.802
-51.4786
9.28399
123.737
176.757
95.913
-11.8713
-48.3771
-99.3106
-141.202
-121.871
-39.1105
7.61265
3.78551
4.19188
0.155603
-4.80382
-15.58
-21.9053
26.0829
48.4
-13.2886
34.0346
80.625
163.206
192.215
186.155
105.646
12.1772
-102.368
-173.378
-283.97
-221.561
-129.33
-98.5955
-24.8524
96.1634
175.161
192.999
136.492
156.158
227.141
182.055
56.6121
-122.628
-227.838
-295.174
-252.498
-112.825
0.285548
92.6906
172.09
98.4799
1.0556
-22.9278
-58.4363
-63.0735
-50.4863
17.2147
17.6031
-88.1932
-162.561
-164.159
-137.694
-117.269
-63.2624
62.8798
160.462
169.133
185.574
160.818
133.521
83.2016
67.3829
21.8796
-1.61028
-24.5609
-21.1335
10.3016
46.7563
105.736
131.648
62.3694
-91.2059
-179.768
-174.17
-228.203
-245.691
-166.274
-31.5171
73.3271
123.559
157.154
98.1059
45.7249
46.4954
14.5319
2.68743
44.137
3.01223
-72.5597
-40.0126
-26.9561
-90.253
-1.25082
179.518
264.862
194.971
76.5899
33.6847
-47.4635
-140.74
-177.409
-164.698
-87.7167
-4.83886
26.9218
3.60676
-61.4908
-37.19
-49.2634
-90.8705
-65.4395
56.7027
64.6064
-3.63392
-30.7824
-15.4247
48.7262
70.0218
60.959
95.4637
77.6742
32.8673
-3.76457
-69.4041
-88.4908
-99.9707
-134.993
-166.736
-84.1823
79.9811
183.242
214.466
209.616
136.085
-21.335
-74.4505
-51.8482
-79.5157
-57.5413
-11.6499
43.2356
43.1154
-30.7397
-114.52
-150.516
-73.6057
81.6502
221.53
242.594
93.0206
-75.1058
-118.844
-152.076
-152.203
-40.919
55.435
62.712
19.5382
15.5422
-64.2384
-163.554
-47.8339
44.2933
108.94
136.536
121.953
53.8936
-32.097
-76.2554
-94.9196
-117.516
-83.989
-1.38326
87.5728
145.122
205.516
108.005
26.3957
-38.2388
-83.292
-80.1364
-123.725
-88.6633
10.2792
66.2224
36.3865
-38.3913
-13.2295
39.3962
39.6811
50.3989
-48.1763
-141.954
-143.045
-69.7273
-71.6092
-46.7914
-14.1534
-37.5824
-53.83
-25.9732
14.5342
92.1389
128.714
120.197
133.654
126.471
56.8885
30.4996
49.7554
57.7113
97.8473
102.027
67.871
3.792
-113.219
-119.528
-71.4279
-10.1989
-39.6973
-87.5888
-44.5647
23.8598
64.5568
106.385
29.3823
-113.327
-178.204
-147.466
-113.422
-66.1183
-12.3386
13.2115
-6.89366
-40.3804
-20.5576
22.457
23.5529
36.6867
119.734
133.891
67.6517
-1.08786
-94.8351
-145.408
-112.126
26.5667
149.924
121.191
78.65
88.5881
88.8491
54.9297
-29.5253
-67.89
-2.52111
50.968
25.7073
-52.352
-47.707
-52.4847
-80.8366
-85.7442
-77.2872
-5.93004
40.8848
67.3137
55.1446
72.2826
90.0826
54.1512
-16.6521
-9.90058
62.6625
-26.981
-234.358
-195.051
-113.982
-16.5538
94.0327
151.064
167.666
112.487
22.6247
-46.5927
-53.3693
-38.2322
-94.1067
-159.524
-176.023
-111.636
15.8854
76.2944
77.2149
117.21
144.792
116.383
98.0678
41.8928
-40.4462
-20.5264
3.42854
35.7489
66.2637
44.7873
-14.5843
-115.087
-138.725
-101.328
-105.665
-139.874
-133.417
-119.396
-85.2676
41.1088
244.575
286.465
260.014
119.901
9.84452
-36.7436
-119.586
-108.668
-6.65796
9.17698
22.8229
45.3275
7.39447
4.92042
15.4574
-66.6094
-115.715
-110.292
-68.7998
-37.107
-96.7419
-135.706
-64.0432
40.8432
111.42
127.964
122.194
66.8511
24.0348
45.2137
38.8104
103.112
223.405
221.239
154.381
164.538
129.61
6.44681
-102.288
-167.442
-157.917
-193.201
-250.05
-245.751
-208.159
-107.513
-32.3507
-19.3325
-26.1595
-47.8055
-100.164
-92.6482
-69.9232
-81.5712
-82.3662
15.9302
127.913
138.625
175.283
185.094
188.292
174.965
142.01
136.912
130.711
79.6753
27.2405
4.42004
-10.6604
-58.2365
-79.4043
-77.2257
-42.1508
-2.81199
39.093
-17.6302
-137.336
-204.78
-215.268
-195.191
-173.063
-48.1146
71.175
107.907
58.2336
-2.73965
8.82809
31.4468
51.0327
115.337
180.926
129.246
36.0343
46.4359
86.3593
34.0635
9.76262
74.7372
123.192
117.919
-3.26784
-161.665
-236.723
-237.625
-211.769
-128.837
24.7029
135.474
119.987
98.832
67.0753
8.44465
-46.5644
-89.6613
-65.1066
19.7643
31.5335
38.505
-13.1647
-31.9687
10.8923
31.5954
-11.3738
-44.9743
-2.12422
55.4556
51.8032
17.758
-101.468
-183.348
-110.405
-55.484
13.1605
43.4499
-10.1504
-85.6864
42.0779
74.2354
15.0585
62.9567
124.115
140.394
141.823
161.47
175.047
111.066
-14.7738
-116.931
-108.922
-84.6135
-132.149
-183.606
-184.845
-115.95
-16.7322
67.2966
52.2641
87.8158
114.177
37.2023
-10.1452
0.390593
9.60179
-34.9725
-84.4979
-37.1742
7.51847
-14.3777
-3.9426
29.9212
17.5059
18.2477
50.4599
26.9539
41.8994
91.7473
103.741
80.647
20.9559
-20.5269
-7.33292
-38.7115
-47.0849
-8.42708
-43.0342
-155.854
-226.728
-196.403
-56.4686
-34.5451
-41.4291
91.0662
166.316
150.22
74.8867
29.6495
-27.143
-47.7702
-57.2398
33.2684
120.762
98.5801
47.2323
-12.5443
-1.48005
70.6612
65.5948
47.9345
-12.6508
-18.1012
-24.0949
-85.5535
-129.722
-95.7908
-54.528
-86.4309
-104.677
18.0398
110.115
5.44923
-137.793
-151.091
-68.221
66.925
101.587
74.7751
98.9452
90.4433
151.511
155.097
118.881
90.821
69.0227
7.06832
7.62844
2.86878
-31.6068
-82.1262
-67.963
-62.7773
-100.353
-76.0856
-44.3672
-64.1297
-58.5354
-66.9889
-51.0751
-5.62939
-31.4293
-42.3012
-8.63968
-10.9169
-47.3459
-27.7543
-12.4852
10.682
28.8019
3.23938
2.64532
12.3949
43.2304
56.6387
57.3298
65.5292
118.595
132.795
102.808
68.0483
7.14324
-64.2626
-20.2687
3.11104
4.57373
124.958
145.078
36.9348
-107.142
-216.502
-285.318
-281.384
-199.167
-27.4295
62.1377
56.023
40.283
-14.3754
-24.1695
3.54106
28.6232
96.1216
207.442
294.454
274.952
132.79
22.7023
-95.4796
-136.044
-62.8042
-111.576
-88.4411
43.6713
-6.16205
-74.497
-72.8046
-83.6526
-47.6578
5.38675
37.827
96.6145
63.1264
-62.8854
-131.883
-147.685
-151.079
-204.144
-117.664
71.4479
139.651
217.738
229.856
168.639
167.22
88.3879
-9.29175
-47.339
-27.5759
-11.3392
-25.4915
-58.1173
-41.0769
-59.5662
-78.106
-45.142
-35.1169
20.4924
79.9099
50.1118
18.6557
27.0299
7.21799
-35.1593
-65.1985
-66.7027
-27.3908
27.0176
67.3894
114.844
95.2386
-59.2616
-188.16
-203.884
-226.43
-208.448
-102.232
-5.5972
76.5906
120.94
126.116
122.992
152.183
156.755
94.5373
88.1802
99.9052
58.3772
-19.8393
-64.4654
-36.1863
44.7079
37.4896
-12.8901
9.04071
13.8098
23.6702
49.7458
24.7326
-10.3415
-122.711
-213.368
-224.291
-192.687
-131.468
3.97674
129.045
109.519
20.3728
-20.5317
10.3107
90.2813
162.165
160.801
127.341
66.1066
-65.1448
-78.5106
-56.1644
-54.4102
4.82411
59.2295
1.08098
-87.6642
-78.7703
-57.9253
-84.6884
-64.0499
67.3593
67.8241
-26.789
-90.3276
-150.38
-176.822
-127.749
-33.4041
46.5955
92.4159
107.313
98.5126
152.307
154.38
170.517
155.26
98.3142
13.8086
-54.6321
-86.5881
-125.973
-121.204
-82.332
-29.0799
65.7175
140.832
147.919
81.0035
0.03443
-56.0088
-52.5086
-38.7505
-46.6533
-36.4384
-39.9541
3.29575
-14.9699
-109.727
-135.136
-98.5989
-66.3231
-17.0413
8.91844
11.2878
87.6466
124.62
101.098
55.142
-17.1606
-54.1502
-75.4502
-65.534
-32.4059
8.73274
-9.36741
-30.4548
6.13997
67.491
74.1028
7.45326
5.62782
91.9719
123.917
75.7822
35.435
4.04723
-35.0679
-19.5891
1.07586
-43.9911
-43.231
-6.87394
-36.4764
16.9433
87.7365
47.2608
-59.5462
-143.825
-152.003
-40.0525
-40.0937
-58.7892
45.6939
30.2759
-76.3481
-38.6928
14.7706
-3.72118
109.152
168.561
144.869
114.297
56.3865
-54.197
-120.736
-124.302
-83.1262
-40.2043
-8.26086
16.1124
22.4132
-4.23436
-59.9963
-9.44552
50.0957
14.4281
0.839603
77.1304
78.9045
-15.3672
-31.2057
11.3219
39.3175
72.6528
62.7131
57.4368
56.617
38.5821
9.6928
-26.5452
-58.8783
-100.993
-77.768
-35.6914
-11.2999
-23.079
-27.075
-26.297
-43.4384
-64.56
-88.0787
-134.571
-162.779
-91.4037
-0.43922
54.1023
109.42
152.205
123.385
78.9189
41.8536
-0.414246
-23.7892
-9.15557
-16.4834
18.5779
62.4485
62.459
14.0435
76.7144
100.188
61.7301
95.6377
106.049
63.9403
-16.1975
-93.1134
-60.5779
-22.3349
-60.3406
-82.8166
-66.9674
-129.056
-130.445
-63.3922
-36.9175
-54.2832
-77.9768
-26.9018
61.3015
93.2171
50.7376
3.5484
-48.612
-59.4658
4.18443
41.7068
11.9401
-23.145
-7.79271
52.6257
85.0735
112.575
148.851
136.009
43.5435
7.85142
-1.1112
-46.5935
-108.433
-127.559
-100.597
-90.3903
-84.6933
-53.8419
5.41908
83.1921
112.306
143.861
111.023
-6.0144
-19.9709
-4.36365
-50.9312
-70.3417
-77.2787
-110.763
-87.863
-32.1458
52.8829
80.7376
55.152
57.2454
40.4786
24.9489
-19.9967
-66.8342
-47.7577
-54.1214
-77.31
-27.0613
-4.17535
-34.2005
-34.2339
59.6341
106.964
84.5181
95.6224
94.9953
72.7657
84.2383
99.4755
59.7712
-22.052
-68.8581
-34.3932
-23.0287
-92.2442
-88.551
-11.4899
32.7999
-20.5394
10.6235
74.6318
6.35889
45.0635
90.7487
49.0571
-29.2706
-122.185
-166.773
-129.494
-110.934
-100.236
-97.8465
-110.009
-76.9535
-16.6365
-0.30887
-19.6787
32.7646
121.607
87.2037
11.6729
-4.682
-53.7396
-43.2089
7.81035
37.9402
47.3821
75.839
128.682
124.222
102.251
110.061
102.041
101.858
118.171
113.866
99.7649
17.6391
-63.5206
-108.613
-179.384
-162.885
-115.987
-88.5757
-5.08007
80.2222
52.0374
-0.684915
-78.7671
-105.419
-95.3467
-101.491
-112.252
-47.6539
-7.40426
27.4102
24.5703
50.7105
73.0495
77.135
146.627
183.919
127.308
-8.98512
-135.103
-131.248
-84.1865
-36.7959
104.395
123.581
74.7494
68.6694
22.9625
-84.973
-148.651
-178.555
-118.198
-25.0547
-4.63892
3.7564
-13.4194
-40.5629
-24.7964
30.3453
43.6784
11.021
43.7343
65.46
-4.32642
-3.97686
49.7113
58.4877
74.7461
90.2845
68.5033
26.7026
-4.07068
-41.9601
-59.1082
-59.3372
-84.5788
-58.9154
17.4605
103.048
102.811
9.47199
-73.987
-95.2623
-56.7235
29.4481
102.461
86.1469
60.3963
8.16715
-17.7909
-12.384
-29.7392
-59.412
-68.1054
-34.0658
22.3983
-25.8941
-58.2737
-77.5411
-25.8175
44.8473
56.4086
14.404
-53.348
-72.2726
-102.521
-162.705
-121.575
33.0156
113.047
92.0649
78.1291
155.026
165.626
63.2173
9.05616
48.2683
66.7158
23.0026
-63.7187
-90.7597
-61.0194
-18.5893
7.68057
18.983
22.6738
65.6979
60.5601
-8.75423
-76.474
-67.3399
-49.5901
-99.4935
-83.5594
23.2479
81.6467
54.5301
2.781
53.7519
77.1868
49.0887
34.4611
13.7971
-22.9082
-49.1757
-60.8651
19.0384
61.5393
-1.72226
-69.503
-127.396
-128.375
-103.414
-82.2543
-42.9456
-33.4986
-14.6624
-23.8587
-46.5827
-30.4871
-9.38023
13.3483
50.6663
53.6676
87.3948
152.896
165.836
122.987
109.232
70.7435
54.2893
52.9692
49.7705
13.0739
-52.9207
-108.742
-133.161
-112.144
-58.921
60.9546
172.173
152.37
47.6081
10.6009
37.7904
36.8015
-17.8223
5.22907
80.5206
53.3314
-117.156
-252.587
-312.763
-263.63
-207.997
-144.847
-69.4739
27.2861
43.3459
16.9242
35.9406
89.7815
142.589
79.5017
-15.5302
-138.488
-187.579
-185.713
-153.712
-46.2961
135.788
295.227
361.552
354.237
288.321
219.486
136.421
59.158
-2.86528
-84.6635
-143.152
-106.546
-104.687
-61.0235
-18.1381
63.0565
90.4116
43.2647
-20.9748
-9.46489
18.0018
8.12925
-45.1968
-93.8892
-100.906
-128.985
-159.504
-150.202
-76.2729
5.61448
5.19016
-50.7969
-44.2479
9.70395
-33.8129
-80.2625
-67.7343
-45.3011
-66.7903
-80.1563
-23.3593
29.8703
76.7661
77.9585
107.198
189.474
226.326
185.677
123.11
83.9561
7.39872
-79.6201
-102.293
-69.3502
-16.4738
12.956
26.3963
25.6239
28.2139
43.976
40.9125
8.70493
-25.5991
-50.9255
-7.21772
50.1957
104.334
124.838
38.7232
-82.5668
-157.238
-222.064
-256.634
-150.127
-50.6295
11.523
88.1952
76.0831
83.4653
70.9257
24.9742
-16.0203
-46.8963
-35.2164
-60.0716
-113.616
-111.608
-74.8749
-5.03639
53.3915
100.393
159.922
186.186
109.707
56.1183
21.4901
-16.5124
-0.43967
43.1833
104.359
128.255
68.2272
-79.7954
-140.38
-142.909
-148.881
-136.051
-79.4019
-30.7316
27.8452
59.8089
83.0543
107.368
55.7161
6.86078
-15.1272
-41.445
-49.1104
-75.3226
-113.219
-115.504
-61.0248
56.222
123.508
109.171
79.7825
40.0056
-11.0037
-74.3152
-62.0128
5.30767
84.6083
138.458
89.2003
35.6329
9.1057
-31.4142
-43.4827
-51.942
-67.7518
-79.6248
-61.3898
-26.2029
-39.6393
-54.003
-7.14649
68.6896
76.9488
78.3011
61.2955
44.8651
-8.09442
-64.8716
-13.2165
95.165
50.8067
-2.36146
-15.6922
-21.2374
-83.2009
-104.752
-57.2261
-57.6333
-77.1498
-23.3666
5.95591
-33.3454
-24.8123
7.26409
-0.724214
-11.8022
40.5519
78.6605
85.6477
93.7665
84.3144
35.3749
-53.3421
-64.5427
50.5643
93.5531
106.237
220.193
282.166
201.745
76.7924
-53.1749
-137.656
-152.546
-157.02
-176.324
-172.22
-132.095
-134.12
-192.459
-147.559
-86.8759
-51.2758
-15.1968
-14.9455
3.4923
1.3521
-37.6688
-57.2712
-34.8789
24.5919
87.3009
116.93
97.6443
72.7059
87.7493
99.4558
90.4746
89.752
72.7371
65.8211
106.334
138.201
114.511
45.2054
-20.5258
-63.521
-77.8196
-61.1318
-25.4321
-11.1796
1.6357
3.47041
-4.01066
2.97593
-9.67778
-78.8286
-130.998
-111.34
-77.7528
-29.9011
-64.2825
-64.1635
-44.555
-2.94
22.2903
30.8952
38.3784
41.1838
28.2239
15.2391
35.6489
65.3332
42.4982
-0.325301
-9.68592
4.70251
-35.4212
-116.334
-162.768
-116.551
11.6138
64.7804
96.1898
121.97
120.303
53.0621
-46.6138
-36.2986
48.5511
45.8986
19.887
13.2599
2.69173
0.725124
13.5418
35.2274
70.0582
144.195
201.701
156.852
13.1942
-80.8165
-186.213
-248.952
-209.843
-191.983
-153.594
-54.5022
-30.0334
55.4249
117.042
100.949
141.113
110.592
-31.2778
-116.501
-87.5162
-74.1804
-51.8474
-52.9583
-32.2945
-0.439559
11.7623
22.4667
70.6875
115.132
128.952
54.4276
-15.0395
-81.4967
-83.1016
-60.261
-48.0944
17.1237
95.5893
89.1227
89.5299
85.6258
4.94305
-19.8239
13.0756
42.1186
46.7348
40.0081
12.6259
23.5434
78.4522
37.5163
-21.9621
-74.6135
-128.825
-156.129
-186.298
-187.212
-42.1322
97.5865
105.089
100.863
122.588
128.175
88.0561
-15.9145
-105.26
-152.385
-185.203
-205.691
-184.652
-77.5902
15.6568
54.8919
79.293
152.369
187.804
185.627
61.6699
-93.5159
-129.087
-66.1128
2.04094
40.102
75.9559
159.797
205.364
194.71
153.689
112.261
61.2617
-8.53715
-93.3873
-171.993
-168.675
-157.322
-137.86
-123.88
-84.9486
12.8543
78.2548
27.5213
-37.9956
-70.5615
-76.9118
-48.4112
15.8326
39.3824
23.5132
48.3922
49.5257
-24.3325
-70.5617
-35.254
-34.0122
-28.1936
-3.81032
1.39401
16.5142
25.8959
2.26675
14.6174
50.999
51.0284
35.5408
0.730682
-25.0574
-37.1791
-27.5804
-11.9192
-28.8556
11.5163
100.617
190.523
179.105
99.4455
38.8464
13.8535
8.91288
10.7841
-7.76265
-29.1461
-35.5955
-36.5667
-39.4972
-53.2525
-60.8806
-37.5248
-36.4949
-37.995
-20.4946
-6.08138
-9.37226
-43.8338
-61.4819
-76.1409
-77.4562
-80.5337
-47.0976
-9.70028
46.1723
46.9562
-10.4102
-46.2869
-27.476
27.8005
80.1691
129.258
203.119
221.049
121.179
6.78407
-102.982
-211.062
-246.745
-177.742
-87.562
2.11363
71.2904
115.543
106.989
69.5991
30.3915
15.9153
-9.84516
-25.0634
-36.9593
-56.9595
-34.8471
19.1793
99.1269
78.7307
46.8833
72.6789
67.6452
-13.7325
-77.9422
-51.8586
-106.493
-130.571
-37.0077
88.525
146.759
104.724
42.58
69.2706
93.1156
34.2483
-65.0476
-115.309
-123.286
-73.9998
-17.765
29.8156
44.6432
52.5942
41.8605
-8.04352
-30.3573
-67.8752
-133.093
-160.17
-115.547
-32.3104
53.0086
32.044
10.1029
48.544
40.4431
-26.8868
-26.2091
9.44936
30.3024
38.2416
47.5046
59.2257
73.8756
34.3074
-8.925
1.25244
-4.26996
-0.284839
-4.10188
8.36783
29.9882
11.1776
-32.6643
-30.5852
-4.36494
50.1532
75.5436
53.9506
16.5908
-16.1056
10.2198
-9.2959
-21.4464
-22.9992
-63.8551
-109.914
-139.346
-170.175
-152.764
-85.7274
3.75644
54.6809
69.2645
61.7589
70.0118
94.4515
71.2633
14.9925
46.3772
85.7278
66.0739
71.5356
78.0925
60.6045
86.3649
93.5297
58.3078
48.562
70.3438
25.9039
-49.832
-69.0036
-63.0335
-71.5932
-102.93
-170.571
-174.508
-92.0658
-62.7325
-62.7553
-49.1151
-13.697
4.82563
-21.6186
13.7607
57.0816
50.3884
20.3224
6.73184
14.803
-0.781384
-31.0221
-14.0689
10.6147
18.5192
23.7008
11.162
-22.9609
-28.9929
-4.95845
21.4374
10.1729
-8.2431
35.2449
87.6578
54.7681
10.8685
10.5314
-10.6017
0.767978
20.8468
0.434495
-40.7114
-38.0006
-1.81287
19.3649
60.9374
101.565
116.11
86.8594
32.7213
4.16156
-10.7012
-5.84811
-16.1029
-36.6776
-33.3633
-37.9547
-29.4489
-40.4427
-45.5953
-38.135
-19.2903
-20.9293
-25.405
-19.9234
-19.4774
7.07672
43.5108
21.7833
-13.0537
-27.4466
-54.8961
-82.3519
-113.91
-93.7817
-30.6419
1.25683
-11.4976
52.4058
110.843
97.5497
57.8854
16.6583
-18.9934
-74.5665
-95.9268
-127.309
-107.439
-33.9524
-27.5394
-24.7691
47.8246
161.495
206.205
274.982
323.07
259.395
119.707
-57.3773
-156.693
-148.911
-103.717
-66.9173
-18.1403
43.6094
66.2455
43.467
-48.7308
-76.7479
-21.5674
4.62267
-14.1145
-99.246
-152.408
-165.13
-148.009
-115.751
-56.434
-20.5622
-12.7781
7.18641
10.547
7.73562
-1.22398
-11.7618
-17.3691
28.4656
118.792
156.443
131.92
96.8238
67.6239
28.9858
9.11582
6.16017
3.95282
45.5439
61.7968
25.265
29.0015
34.4211
5.86857
-35.5883
-98.4236
-47.6671
27.5798
42.9865
-31.0794
-134.617
-151.483
-92.8774
1.61153
72.4185
73.459
14.3462
-48.5431
-79.3615
-69.0491
6.1685
56.2221
103.922
124.184
106.715
127.905
41.7059
-120.048
-232.106
-257.292
-211.926
-153.191
-27.3429
68.0663
69.2615
144.537
198.19
162.453
81.312
44.6364
-8.62983
-23.0084
-47.9578
-97.5525
-59.2052
19.4932
55.5264
79.2542
90.2192
99.3902
97.725
96.9717
48.5313
-15.3788
-26.1379
-35.1905
-63.7527
-81.2072
-73.4108
-44.8165
-25.2066
-53.556
-63.5681
-10.5302
1.98479
-29.6625
-77.8885
-72.2605
-13.3776
40.6708
15.9958
-39.1899
-70.8049
-97.0838
-56.7991
-2.63701
12.7157
43.8404
67.0583
60.3668
39.6018
15.5288
91.1664
140.435
85.5072
13.7628
-4.40401
-15.9687
-50.8921
-87.3474
-48.3598
50.2205
88.8066
65.5002
18.2021
-50.4504
-85.3722
-78.6415
-32.537
5.33364
63.0639
71.9283
-34.4843
-91.4726
-8.36203
64.9271
115.091
143.251
128.395
61.7493
-2.45545
-109.368
-176.094
-168.962
-119.169
-59.4878
7.60523
7.66377
-23.0102
12.1318
8.07821
-8.71825
7.22888
26.059
4.70654
-37.8934
-22.9649
45.1345
88.5753
101.599
105.803
135.606
122.213
72.3715
9.54789
-58.309
-129.106
-129.653
-113.526
-123.224
-93.0378
-50.4803
-44.3223
-32.9263
-8.55254
9.28512
-10.0742
-24.9448
-8.53894
32.0224
56.6779
106.453
94.8264
65.2397
58.5525
47.4866
44.405
97.8146
111.904
30.1058
-48.7861
-71.6061
-57.7196
-82.8098
-112.123
-104.824
-85.0044
-63.8878
3.06818
64.561
63.4243
13.7032
-4.87086
32.0186
53.4961
53.9563
51.3652
5.6456
-36.6132
35.6898
163.787
163.558
89.3913
-49.9191
-207.354
-314.833
-323.465
-314.42
-208.092
-24.4607
136.071
223.129
264.98
218.38
98.7535
42.6528
41.066
39.6323
43.7489
1.92663
-63.011
-88.1628
-90.2363
-17.2957
114.2
229.715
232.269
198.13
128.316
2.56222
-125.265
-187.926
-213.564
-197.654
-117.807
-55.126
-82.5436
-121.846
-113.295
-61.7709
-38.0691
-25.6876
0.880729
48.5395
83.432
87.5966
48.5069
23.6862
24.5937
4.16865
15.8259
35.8684
54.3381
77.583
67.6831
23.5711
9.05252
18.3155
23.8599
-1.41983
4.91725
46.4654
42.241
35.0796
-0.138772
-20.966
-51.2931
-73.5175
-107.224
-120.328
-61.6031
-0.665134
21.2397
30.3606
11.4458
-23.3298
-34.3726
-58.7332
-49.827
-8.168
-5.03437
21.4468
81.387
89.1209
86.2941
77.6089
101.669
110.846
53.024
22.2044
10.1104
-48.6245
-117.364
-163.947
-87.9535
51.6224
114.057
45.923
-40.0063
-35.0126
-7.15914
1.46933
61.1017
78.4738
38.8779
-82.3315
-135.448
-146.221
-174.287
-126.552
-80.7793
-9.76772
48.5937
49.0144
-16.221
-72.4707
-48.0927
49.5481
118.716
177.747
194.862
139.901
54.0138
-26.2712
-43.7181
39.194
78.0061
90.7821
123.674
83.3916
34.3145
-1.00574
-21.2243
-31.9614
-35.024
-81.0233
-148.295
-184.551
-190.827
-211.164
-138.245
-56.3581
-102.733
-93.3099
9.29118
45.3594
22.669
62.91
142.382
135.226
106.757
75.8621
64.4436
119.341
102.191
63.4349
96.2089
112.401
90.9206
5.54144
-82.2239
-125.652
-99.317
-65.1362
-63.4255
5.89918
100.983
64.2293
-11.3412
-55.0306
-94.8657
-99.61
-92.2172
-106.688
-53.1187
1.23739
-0.283007
17.5072
43.7217
48.3193
11.801
-31.0374
-85.6427
-59.7601
-12.3055
44.3263
74.7252
94.2401
78.4886
-1.93933
-45.1952
-39.3293
-2.38042
21.1889
11.4123
3.69958
-15.9805
-26.6671
1.44018
77.328
124.965
122.825
121.691
67.1109
22.8959
-23.4803
16.4243
65.109
15.3253
-54.8962
-126.004
-200.614
-211.002
-182.05
-131.302
-50.9202
26.7523
58.5285
65.628
31.8394
-20.5834
-11.5687
-7.64118
7.59734
49.9356
-37.8241
-130.208
-159.715
-70.3852
63.2013
151.605
210.818
224.198
132.756
93.8212
102.954
91.9842
69.8659
73.574
50.1098
50.0981
-5.26422
-51.8936
-79.9403
-104.988
-1.91309
16.3998
-53.534
-55.2696
-54.5971
-75.045
-107.067
-95.9334
-30.8359
-3.96783
-30.4133
-76.6101
-29.6137
-31.0226
-102.623
-140.405
-79.337
0.481576
52.8977
59.1078
32.308
17.8526
41.1781
61.1285
69.9156
72.7488
68.5152
16.1219
-19.3828
-41.9872
-29.6696
25.8494
24.8933
18.9262
62.1422
74.5122
37.2185
24.3855
4.73831
-15.0357
-59.6871
-126.586
-91.2078
-13.6481
69.3321
138.75
127.534
45.134
-77.4313
-185.757
-266.412
-219.213
-99.2498
12.9609
145.027
218.301
176.128
196.42
252.195
219.009
176.451
142.402
71.2683
-63.6323
-174.567
-222.465
-238.681
-179.749
-33.3003
65.936
93.2819
70.0615
-26.9718
-101.752
-169.428
-180.337
-115.442
-114.19
-139.632
-121.116
-42.2033
39.9841
113.483
166.986
165.983
75.3842
-11.6469
-7.3347
60.1328
109.475
101.156
67.1945
14.4403
-45.2362
-53.2301
-80.6093
-67.1162
-45.4721
-34.0378
-23.2373
-44.2525
-29.9481
-57.9067
-62.5931
-4.2286
47.0069
107.25
138.811
102.593
76.6489
63.4782
46.0427
66.4071
53.6809
2.00394
-3.97981
5.16787
60.2712
85.4288
52.9732
33.2173
-32.972
-167.601
-278.635
-302.821
-245.628
-80.269
55.2843
103.451
106.91
75.621
4.76005
-9.52941
18.2095
32.9676
33.0886
74.6789
82.7434
42.016
-4.49655
-45.3804
-24.9108
45.8934
57.1821
61.0627
90.1714
95.7995
31.4047
-65.4177
-111.302
-112.319
-105.481
-129.783
-143.652
-98.6639
-35.149
-42.7932
-32.2543
18.0149
36.2118
61.2802
69.5262
59.2033
79.3343
88.6106
113.131
109.475
79.8608
21.8857
-24.6447
8.83834
31.249
31.4106
57.1198
65.7045
11.7823
1.70396
-47.4011
-103.768
-87.3629
-66.2956
-77.355
-53.1031
-17.1428
-9.04856
-24.8896
-61.1992
-62.6388
-85.1011
-158.505
-171.555
-97.0307
36.3063
154.739
171.602
124.373
137.025
117.564
54.1992
-7.89068
-30.0637
-27.2955
-4.62271
-14.1638
-51.7616
-42.3675
-36.97
-39.0846
68.5896
158.809
168.387
122.219
42.3393
-25.2913
-68.2697
-43.6395
-80.6724
-136.325
-101.912
-7.30684
61.842
52.8235
10.6271
-60.1026
-65.7477
-37.7973
-8.52184
28.8462
24.9534
52.3923
26.6991
-7.69117
-2.42233
-18.4356
-51.5622
-74.7986
-100.755
-62.3185
-7.28967
11.4538
-3.22401
62.9802
105.847
105.226
67.5467
9.4924
-37.3185
-72.5617
-38.5076
28.4492
70.4393
96.6617
65.8377
12.2483
-32.9011
-83.2712
-85.1698
-37.696
-62.8626
-36.3149
35.5798
59.4412
28.9786
20.3798
50.3861
69.4856
55.0089
27.5308
2.58494
20.7267
13.035
-58.1485
-90.8735
-145.059
-233.414
-148.428
22.6594
121.932
194.038
144.912
113.323
131.953
62.475
-29.3251
-86.0796
-122.74
-105.304
-45.6601
21.4887
-58.5182
-119.956
-66.998
-54.011
-16.4565
103.101
163.703
113.861
41.6949
7.8247
-26.2713
-94.9126
-171.638
-139.699
-53.2884
12.33
36.421
27.205
18.4473
7.36689
36.4077
84.5164
93.6108
123.659
179.477
164.982
79.4408
4.19372
-49.934
-92.138
-110.153
-124.891
-102.97
-43.377
6.03024
62.6051
65.9753
40.4639
6.72084
-26.4371
-2.31961
46.8827
47.1388
25.6798
-13.3395
-31.4582
-50.7539
-131.357
-198.528
-156.211
-42.3083
32.5721
55.4318
126.79
205.397
111.652
6.06633
-2.11777
-37.2428
-135.191
-181.186
-173.452
-87.2512
51.559
127.474
118.344
49.1134
16.6084
0.786707
-33.8419
-59.6379
-41.3873
-1.80901
40.6787
52.8787
65.8972
68.4273
47.0211
48.238
79.5584
68.6826
49.349
63.4337
60.6466
28.1415
-7.8775
-29.4662
-31.1326
-25.9687
2.95029
2.31588
-10.8952
-25.295
-95.9287
-203.844
-240.881
-170.928
-123.24
-50.5507
98.5116
180.721
211.941
132.99
-34.9384
-52.8846
14.2594
19.4354
-2.44315
-9.10515
-29.6191
-39.8455
-37.3178
-10.5939
36.4101
52.0844
37.3666
49.5733
30.3725
-32.4572
-49.1162
5.57211
-14.8926
-17.0505
19.3786
-22.9553
-118.895
-116.09
-52.349
-2.87168
23.6081
54.3454
54.7258
56.6418
46.9111
74.6621
96.5155
77.2104
73.5051
78.9232
41.9676
-14.8379
-39.7051
-61.9896
-63.6582
-84.5564
-34.7289
36.393
67.8559
74.3501
58.9826
35.8978
-5.24377
-69.855
-117.073
-98.3341
-48.4251
-40.1701
-21.5245
-27.9881
-79.0728
-98.8013
-85.6932
-54.7654
-5.92562
58.5606
82.6216
63.094
109.28
117.174
62.2702
35.4524
60.5306
82.0911
28.9774
-6.40588
-31.1211
-105.82
-130.791
-111.082
-61.1428
-42.6369
-52.2962
-4.4479
21.7337
35.9036
105.5
130.942
68.8682
4.13138
28.9702
52.8184
-14.9591
-62.6952
-23.4496
-37.994
-83.8783
-112.744
-125.004
-45.9302
14.4286
98.574
155.871
163.568
93.1986
58.5533
-6.18265
-6.14394
22.23
33.8686
-5.99477
-89.1718
-134.134
-100.034
-81.5915
-55.2868
14.2653
91.0151
84.5783
43.7031
63.7009
103.584
78.9394
66.7314
89.7053
-34.4833
-124.765
-159.896
-139.481
-118.272
-140.197
-105.838
-49.0734
-20.3936
21.607
22.5358
18.9568
48.5756
88.4315
81.4315
4.80263
-69.1707
-74.7771
-101.442
-85.4998
-5.2976
59.123
110.433
92.0387
107.051
134.499
89.9788
57.62
60.2274
76.4228
69.7138
43.376
63.8319
49.72
13.6043
-32.8567
-87.3976
-68.383
-56.8147
-75.1978
-49.9363
-17.3974
-21.2674
-36.8667
-32.1912
-4.38088
-7.07202
-14.4416
-4.85747
-10.7627
-14.368
23.7982
20.1529
-21.9676
-114.681
-163.304
-147.11
-172.308
-198.946
-175.509
-56.2608
46.0099
80.1562
133.662
209.193
209.32
166.064
144.537
111.716
70.1853
96.7418
121.222
73.1151
21.3885
23.1695
55.9228
44.4398
99.8024
172.059
142.966
-26.9829
-123.704
-99.9207
-143.295
-210.88
-210.698
-164.045
-150.328
-172.183
-171.7
-190.78
-210.909
-114.138
45.9203
132.007
126.076
75.8127
71.6231
76.9278
77.3005
147.445
141.089
-79.1685
-94.14
-74.1802
-50.9794
77.2162
151.746
144.797
120.52
20.8487
-166.902
-231.852
-76.6913
83.8252
129.569
155.52
78.1879
88.1839
168.804
173.956
105.678
106.711
106.835
16.0315
-85.3403
-127.6
-141.166
-119.375
-112.37
-89.7581
33.657
53.4273
-86.7037
-150.133
-112.567
-28.1347
118.168
36.6273
-157.573
-215.779
-159.214
-92.871
-108.109
-56.3726
20.3545
36.4537
66.755
66.0734
47.8925
66.4851
92.6352
86.5771
42.657
37.3557
48.9792
-31.9365
-84.0495
-31.2186
93.4716
126.133
137.796
141.004
27.8533
-34.311
-49.4288
-91.5091
-91.8587
-35.0904
6.65039
62.6573
108.614
161.99
143.668
29.2531
-34.6703
-38.8973
-72.4354
-105.067
-104.995
-93.873
-65.6332
-14.246
49.3789
57.1086
56.7993
52.2266
7.82814
-66.1881
-124.621
-117.44
-60.3752
-35.2016
51.5506
175.062
127.737
-3.67985
-1.67046
44.8562
-38.2922
-110.921
-124.612
-72.7308
23.3888
63.557
24.2706
-26.4339
-43.7541
-13.6973
-58.2843
-79.8092
-32.4261
14.1903
-2.9763
-62.9216
-54.5924
-11.2369
-50.5511
-99.2182
-17.6325
73.4359
89.7949
102.369
108.687
80.4678
102.43
161.448
179.769
138.155
122.486
78.169
29.7132
-23.0899
-69.8981
-77.7039
-52.2156
25.7583
71.1811
47.8705
32.5324
4.00541
-58.9089
-143.953
-173.092
-145.748
-146.035
-123.657
-80.9395
-45.4824
6.98678
29.1245
-10.4691
-10.1356
4.69902
-13.2985
-16.6943
-27.8313
-33.236
-15.2576
-7.00037
-52.7764
-59.9334
8.82043
71.7692
107.81
117.319
74.3559
28.1128
19.2351
30.848
33.1704
28.9598
-14.6002
-3.9045
63.5214
27.6743
-6.32616
-11.5964
-6.29186
33.5031
105.672
140.834
81.735
12.5264
69.5334
110.589
21.2701
-79.5905
-168.438
-196.114
-154.67
-144.62
-120.713
-105.22
-101.054
-31.8838
-1.67551
-8.84344
11.3134
23.2762
47.0674
65.6829
89.9829
72.7449
7.30428
77.1979
147.353
110.877
57.8238
16.9346
-39.6346
-82.4499
-93.2258
-89.43
-59.9307
-9.75459
66.6554
84.2018
68.9377
65.662
59.3546
20.6359
-24.4589
-85.5688
-136.555
-188.734
-85.0375
61.1682
153.394
203.459
181.413
103.786
15.0281
-30.2255
-113.052
-157.035
-123.134
-66.39
-7.3519
22.563
-14.7171
-85.2869
-70.8345
-20.4681
2.71715
7.22713
18.6437
11.0333
18.9868
15.5153
20.9328
30.1931
-3.63861
-43.5184
-33.0546
26.9426
36.8349
24.77
36.2567
-6.90377
-26.4773
26.651
48.7533
53.3266
56.1125
29.2973
-10.9231
22.4669
47.7997
6.0965
-44.3021
-65.2191
-77.7903
-71.9932
-59.4593
-92.4763
-121.853
-137.606
-163.108
-125.678
-32.5422
122.749
304.98
301.358
212.811
138.602
46.4775
-75.0446
-113.252
-17.6369
94.1858
169.689
238.333
209.316
143.533
89.9748
31.8589
-30.6801
-99.2347
-192.67
-239.537
-304.878
-334.66
-246.596
-145.704
-78.1061
-89.1692
-40.7461
-0.838611
31.2231
65.1044
85.6184
71.0675
134.969
156.393
24.6527
-57.1748
-76.3383
-143.176
-173.271
-87.1193
-31.544
-83.9643
6.79726
200.675
246.585
192.73
159.445
186.523
114.33
13.9362
-4.40579
14.1986
-1.95577
-5.25592
44.9836
82.2544
101.916
136.035
132.866
78.2111
38.0531
-15.3229
-88.5115
-181.583
-222.324
-164.736
-112.098
-125.034
-121.24
-117.114
-109.679
-110.198
-118.236
-124.718
-67.2584
-12.4131
30.3586
64.166
45.6712
29.446
42.8212
75.0608
85.7084
115.983
140.367
163.187
124.314
28.6742
-2.70256
-35.0648
-99.2727
-84.3657
-94.5532
-118.322
-68.5534
-25.2698
35.865
76.3849
125.484
124.894
108.269
135.806
74.7496
-36.4493
-51.4424
-44.4211
-51.5216
-40.3359
-23.9738
4.70842
19.2619
-20.8099
-3.22309
105.421
174.586
119.228
8.5078
-19.8605
-61.171
-96.9082
-91.1095
-110.592
-76.4395
-70.2999
-116.188
-110.482
-59.2628
-29.3937
-44.6509
-41.1366
15.1521
33.7171
-2.64298
-50.1822
-77.8369
-51.2319
-2.50615
74.5408
162.01
194.323
156.263
87.2569
28.2439
-10.8515
-24.3814
-43.5478
-42.0806
-43.7721
-18.529
2.00909
45.8708
136.38
163.722
93.5794
72.1626
7.78281
-56.198
-213.611
-358.869
-300.343
-126.054
38.0056
103.24
136.336
117.308
42.7797
12.5083
24.2247
59.7682
110.926
39.4072
16.8762
128.536
126.241
33.94
6.99056
-29.7571
-74.0054
-93.99
-93.5635
-111.623
-99.2421
-104.968
-122.317
-53.0034
-4.88235
5.08248
85.4429
133.59
117.082
99.2713
29.4766
-65.9023
-102.418
-101.501
-53.6323
-15.3658
45.3287
157.632
154.756
68.3764
-27.9683
-92.8943
-112.527
-124.35
-57.3638
30.6494
64.9111
67.2954
-18.2791
-20.5161
-0.370474
-45.6889
-44.7651
-84.4424
-71.8969
56.998
212.459
262.325
168.03
101.363
11.3772
-96.1368
-113.327
-60.4407
-22.705
5.01543
-37.0881
-118.759
-133.4
-128.348
-156.718
-104.55
-23.8295
49.2256
89.5859
78.2292
66.2108
77.8262
71.3102
38.7904
14.446
50.0619
97.6524
133.864
128.815
64.3764
-18.328
-75.4233
-90.2709
-46.978
9.61293
19.7914
11.1227
75.0079
60.6906
-51.2576
-133.658
-200.913
-218.866
-213.326
-118.018
10.1489
74.7184
74.551
18.6875
-26.5731
-34.5248
4.61578
89.9808
79.4446
60.779
60.406
20.4717
-45.7576
-17.0792
74.8646
88.3575
43.2294
-16.3343
38.3815
173.544
189.812
96.4273
-6.32647
-46.2201
-56.356
-92.3799
-120.001
-141.119
-108.206
-6.31457
11.852
-15.5513
14.2483
-35.7463
-124.766
-84.5192
-4.0218
16.7543
42.1766
-16.7814
-25.0564
0.499221
4.70807
53.3403
106.163
145.44
165.537
191.399
122.259
2.79854
-96.397
-64.3476
-80.5252
-92.2666
-27.9398
-1.03452
-23.7361
37.0773
70.8291
5.32138
-91.3476
-154.732
-154.879
-123.916
-171.037
-175.811
-106.297
-37.8089
55.7851
54.9055
36.0835
55.6261
78.2309
123.231
174.721
160.003
154.851
128.265
41.5175
3.85012
10.0802
71.8466
107.967
86.0671
36.5356
15.1621
-14.3648
-31.4137
-68.5964
-100.327
-77.8015
-66.768
-75.2301
-76.9773
-126.729
-139.894
-76.9856
-19.8084
-20.4343
-62.4976
-10.5206
60.1971
57.7727
19.5185
-18.1772
-56.9223
-74.5279
-56.561
-37.3858
13.7776
65.211
80.662
73.2092
66.906
111.969
131.248
77.2432
-3.19458
-90.4337
-125.359
-176.03
-156.511
-54.0923
36.5521
114.433
170.869
212.322
189.737
157.812
80.2663
11.4607
-5.92709
-8.64449
-13.9152
-20.7665
-29.2121
-51.325
-62.2562
-25.6648
43.433
83.4375
27.0796
-56.1696
-116.858
-123.777
-126.354
-142.984
-135.025
-119.089
-76.5955
-31.413
-30.1122
-37.2386
-34.2735
-56.0255
-39.0177
16.4632
65.7347
74.1396
57.8261
75.7265
92.0975
91.2232
47.3776
18.2897
26.1655
31.9551
61.9495
92.67
92.6376
50.1377
37.067
59.5034
43.1317
-11.6315
-65.7356
-75.6361
-32.994
40.4133
88.3582
37.0631
-56.3517
-120.231
-115.528
-102.175
-73.339
-90.9047
-38.7105
45.5984
68.96
90.5719
54.2672
-41.5819
-75.9982
-60.9769
-33.8365
17.9677
64.9016
83.9446
42.5831
-16.3047
-16.8974
-16.0392
14.4288
42.9785
32.1755
6.17661
-59.3809
-86.2631
-37.6439
-24.7169
23.4707
123.772
113.514
76.6689
40.0595
1.38583
-62.4831
-129.719
-136.018
-43.134
1.74562
-19.1384
-45.5204
0.836998
104.195
108.424
72.4556
-0.0307089
-0.0750111
100.257
91.2049
-31.7904
-81.5831
-117.317
-92.4204
-53.3228
-38.6338
-8.94903
40.384
80.612
43.04
0.572474
-35.1466
-32.8328
-56.4847
-31.7865
-7.16327
13.5254
-37.4776
-99.9257
-91.6324
-61.9326
7.81707
111.43
127.529
134.079
109.205
5.39187
-89.7421
-129.043
-43.493
75.346
128.342
125.816
102.59
159.152
98.1185
13.8399
-30.3899
-71.328
-81.8956
-56.4835
-42.7748
-61.2456
-60.4743
-66.1726
-85.9839
-83.0931
-58.8845
3.79373
25.3017
8.91627
17.2866
26.8264
19.2234
-21.465
-55.2708
-38.5898
-17.5125
-10.0954
-5.50518
1.99029
33.1004
44.3655
21.062
2.26993
35.0777
93.4166
111.285
60.1667
19.6621
21.985
