-14.5304
-8.49363
2.45875
12.726
-15.7324
-40.2672
16.4332
49.2629
56.3905
60.9856
36.1289
32.0324
36.7467
40.0582
53.1485
5.18428
-86.3547
-116.543
-110.516
-103.61
-74.5174
-29.4117
8.29528
28.0884
58.2065
87.9617
75.707
26.6304
-14.7553
-19.7936
-54.078
-56.3044
-30.0799
-46.7062
-49.5839
-36.1225
-4.08519
5.79509
55.8542
97.3022
83.1389
17.4992
-9.86139
-13.2122
-20.6811
-39.2352
-26.1303
18.8762
29.0935
3.85653
-4.23841
-10.9744
-24.4362
-15.1881
1.40437
-3.43437
-8.28984
-1.30894
10.7219
21.2318
30.7439
32.2329
21.5012
12.1044
-26.1164
-76.8171
-40.5764
23.8711
31.8691
28.4853
59.9543
84.3799
49.5976
-1.67753
-31.4028
-7.21987
12.0942
-5.09665
-29.2546
-55.5704
-73.9386
-47.7607
-45.4345
-48.9508
-30.3862
38.7391
46.32
25.9998
31.4674
54.3306
24.0419
-57.8774
-75.4851
-4.46595
61.549
40.414
-18.1377
-28.3764
-2.3009
-0.998943
-20.323
-66.6385
-47.4121
54.6801
105.541
48.0773
3.36048
-17.8309
-46.3577
-88.1715
-66.8606
7.18415
74.1508
89.2096
43.6019
28.7028
45.5506
75.5165
38.9907
-59.4941
-72.6505
-22.7643
-5.75932
-37.8357
-39.0764
-15.3258
13.0711
54.0727
14.7264
-11.3027
-1.4659
10.3788
12.8868
12.9419
-9.20457
-3.91486
24.165
5.79785
-17.1558
-26.9562
-32.1213
-12.4482
-10.0665
-27.4543
-26.5011
-30.3172
-80.0392
-85.457
-14.5342
27.0825
13.0233
12.6097
19.717
-11.8838
-19.6754
-14.8809
-1.71552
13.9374
35.2199
103.658
120.907
79.2157
38.6469
20.6358
17.7414
24.0546
10.5087
-16.4088
-12.1487
20.7385
58.057
56.1575
-0.939184
-43.2189
-38.5381
-28.0702
-51.0838
-92.2146
-93.1968
-83.007
-59.6429
-52.9409
-34.3938
7.57438
11.1304
11.7774
31.695
63.0347
59.5836
22.1595
-14.4279
-10.4447
11.4454
30.7577
26.5073
13.1674
10.8379
7.73168
17.2834
11.6437
9.99212
21.5829
31.2284
12.5266
-5.28211
-9.17776
-6.84833
-30.749
-60.6296
-57.0652
-31.0174
-7.71706
8.27708
-15.1052
-41.8437
-73.6162
-18.7239
70.2408
55.0055
15.8776
-9.81305
2.95228
13.6134
-13.76
-14.7692
3.65627
24.0983
43.634
49.5887
57.1566
41.1686
-24.9536
-67.8759
-33.3549
-12.8496
22.4303
45.5425
10.5605
-15.2932
-38.2256
-28.8997
-7.42793
-0.373734
30.1081
44.6353
37.447
28.1512
-18.1497
-45.2622
-44.5031
-24.9004
11.0927
56.4291
72.7942
82.8569
6.51447
-116.975
-151.368
-77.3697
-11.1393
9.96435
41.287
48.5831
35.7934
29.7435
13.6224
-25.4489
-23.2768
-20.5322
-25.5672
-20.5441
-8.94065
-8.26035
-39.2469
-51.4124
15.5236
90.0515
102.233
63.9902
45.4716
2.48394
-23.9643
-33.5171
-13.05
-17.0844
-6.06583
-6.10801
-39.5968
-30.8996
1.50676
3.57968
15.5048
39.6405
61.8777
10.723
-50.2802
-48.3247
-42.5586
-29.3731
-2.84285
5.65409
-18.7936
-19.3522
9.30379
60.4706
51.1196
1.67673
1.29338
22.9705
21.8526
12.7686
-22.3969
-73.3544
-95.9028
-70.3475
-12.088
17.9587
16.6957
35.4604
65.3734
94.6441
102.121
84.7765
38.1769
-21.2965
-56.9668
-57.863
-29.4636
-32.9692
-42.5842
-16.9866
54.21
72.4341
42.1559
39.8143
59.836
40.589
-14.7221
-62.8836
-90.6743
-116.428
-108.961
-97.7592
-108.42
-91.1615
-31.8266
49.7825
118.82
49.4817
-16.434
1.91005
1.0618
-15.6264
-22.7384
-7.96848
60.6679
75.6277
83.6207
103.831
96.6249
55.308
8.88585
-45.4988
-98.9981
-88.1868
-29.6365
20.5295
3.86643
43.3209
56.9074
33.1653
-1.99001
-3.38169
83.0294
176.74
124.936
23.9508
-59.8238
-122.582
-151.146
-151.662
-102.171
-30.727
27.3689
26.9681
-0.341585
-1.41574
0.349107
3.05496
-20.7518
-44.2133
-74.5509
-73.4178
-62.9392
-54.3938
-46.2156
-0.649164
80.2314
143.165
131.233
66.8103
0.419152
-22.2398
-46.7682
-29.7489
18.2442
76.3897
111.726
53.6471
-27.5179
-56.7217
-72.7232
-69.3574
-45.3679
-16.076
2.86905
20.3266
58.4585
89.5702
27.6543
12.7693
17.7702
45.2963
111.738
143.339
120.614
-11.5452
-144.749
-197.491
-158.456
-102.045
-24.6028
34.3923
55.8805
25.2807
18.8341
0.939192
-32.4681
-108.113
-48.6992
58.9453
142.461
123.469
39.6145
-36.0411
-110.251
-160.844
-154.482
-79.8948
3.54047
9.3946
-16.2441
4.40359
44.9455
34.8063
6.17749
4.73781
-12.621
0.81611
46.3437
67.7335
37.0466
32.2344
22.7849
25.4591
57.1326
83.6639
116.657
129.635
83.2127
50.7158
59.8822
46.4418
-11.3045
-48.6547
-91.2467
-80.3709
-73.4084
-113.218
-162.962
-158.648
-126.326
-104.053
-53.8004
24.7667
71.5168
163.084
192.607
130.081
61.3438
4.44673
-70.5176
-85.4027
-68.5413
-67.8295
-58.6028
-30.7294
-26.9862
-33.5243
-42.0242
-42.6436
3.3412
67.7969
122.117
129.456
60.7968
-52.9587
-96.8781
-27.0528
16.4247
59.1157
113.633
128.374
35.4228
-131.884
-162.466
-137.944
-71.389
-16.2617
41.1142
70.0656
62.3243
68.5966
40.063
-34.5912
12.7999
76.3402
69.2753
49.3227
30.5527
23.1948
-4.97787
-61.6341
-64.7331
4.35064
19.0633
11.0873
7.90499
-13.273
-0.212895
35.5101
26.512
-21.8428
-59.0292
-88.5143
-118.522
-109.306
-90.7579
-65.5004
17.9909
59.9194
28.7775
25.1507
31.8564
34.2829
57.207
57.6743
39.4876
38.3041
14.7537
-40.2689
-39.7996
19.1356
52.7285
63.6189
14.0881
-31.077
-48.2375
-78.7578
-80.4973
-39.41
26.3544
38.1567
50.5904
79.43
45.7383
39.072
56.1569
74.3612
88.1427
89.8424
42.416
-85.1213
-138.357
-134.596
-137.074
-122.109
-72.6408
60.1278
78.7435
-21.2169
-71.1657
-54.636
-98.7957
-53.1181
48.4627
126.759
86.6112
-22.266
-11.4052
68.0584
72.6174
12.6054
-46.6732
-64.5618
-2.58045
49.1698
66.0106
53.1458
57.6079
54.0465
22.0089
-19.0685
-15.3635
-22.8562
-28.2585
-23.617
30.7811
72.8992
2.28391
-109.66
-171.844
-143.339
-77.0506
25.644
109.292
103.205
0.297611
-33.9902
-42.9167
-32.3155
14.6563
39.6163
91.3693
110.485
44.5769
-52.92
-77.538
-15.539
71.7716
80.8648
119.018
182.795
123.239
15.8699
-85.1743
-175.243
-184.228
-151.216
-74.0617
-39.5605
-18.9783
-15.2923
-0.867108
-33.1606
-23.1501
23.6626
54.3876
71.2859
43.1173
-12.7638
-24.6636
-16.0832
-35.0293
-54.4188
-38.8706
21.4261
88.8742
55.0044
-32.291
-32.5868
-3.96733
42.2132
78.941
108.079
94.3367
11.2882
-62.2224
-65.5474
-55.7327
-16.1518
-11.3645
-29.943
-12.0419
7.92157
-0.597991
-4.6502
16.6338
10.8997
-0.278716
11.7644
21.2877
29.993
51.215
67.5386
78.9307
56.9825
-5.17231
-66.6326
-84.1955
-73.3223
-50.2375
-2.19411
-0.998644
-30.2835
-19.8507
-7.97584
-10.5259
64.0523
109.617
70.8018
66.5059
-41.7303
-204.775
-255.296
-161.944
-62.1282
19.2535
95.5327
129.568
67.9813
35.9797
3.48034
22.544
78.6888
103.942
37.6269
-35.2011
-47.1254
-28.8252
5.38428
-27.1101
-25.8406
2.94365
9.04507
-19.9779
-31.1846
-20.5479
-21.9302
-5.67902
45.8831
26.8022
-3.17032
-12.3026
-21.5125
-8.73299
70.2345
104.493
24.3681
-21.7858
-82.2305
-104.435
-14.8324
69.4515
74.1636
47.056
20.4927
13.7281
29.3848
34.184
39.2363
2.89915
20.3022
62.2587
39.6815
-94.3163
-167.745
-123.961
-89.6409
-18.9915
52.7922
47.7668
70.7063
115.918
39.0637
-48.5103
-83.5239
-26.8768
7.38579
-17.1538
-42.463
-32.0842
-37.5117
-70.7344
-91.1466
-29.8854
47.9808
28.9108
20.6841
26.6929
15.5937
19.0946
13.2786
-20.4038
-1.68108
33.7317
72.1226
14.898
-31.4153
-37.0105
-21.2854
5.46116
52.5938
82.2194
93.6049
58.7175
6.13605
-2.78943
-1.73199
-2.33177
4.90354
54.2843
74.9734
41.0091
17.9646
10.6077
-20.4554
-32.787
-64.4928
-100.258
-112.158
-131.097
-142.7
-118.098
-38.0442
106.958
141.664
93.9714
14.126
-74.8107
-94.9685
-46.8085
-52.8198
-93.0937
-72.6702
-0.843081
65.8684
108.377
135.52
141.628
102.917
61.3124
36.2182
29.8774
16.506
-39.2872
-60.8102
-78.9481
-49.8305
-26.6039
-21.5917
-1.88341
103.107
127.622
87.7419
33.6054
-37.6361
-121.316
-126.324
-40.9616
154.918
265.338
152.822
18.2355
-92.0218
-208.075
-232.718
-182.605
-106.499
-25.1716
98.8174
146.307
51.3616
-41.4433
-85.0186
-98.0774
-73.6385
-49.5612
-47.0948
-78.1718
-106.683
-88.0554
-43.0157
0.406941
55.9685
118.542
164.134
199.43
185.898
184.207
142.502
31.4945
-73.3081
-48.5628
17.8655
21.0507
37.0934
98.5392
90.6152
53.9243
-48.519
-167.789
-171.307
-93.1055
-58.6941
-52.7914
-23.4452
0.211095
38.9388
30.2076
-51.48
-95.3919
-114.669
-81.0523
32.9294
104.912
62.8352
7.43719
-28.0243
-64.8074
-45.6628
14.8857
64.8897
70.011
59.9379
61.9698
28.9975
-0.966003
-55.6063
-64.8331
-27.195
-6.17989
12.3303
50.7952
58.9213
22.1948
34.4386
48.8019
23.2096
-8.87451
-53.0634
-34.4358
47.0618
47.2706
16.5207
-39.6736
-48.6557
-49.8216
-51.0893
-73.9986
-69.2738
-53.1859
-39.01
-36.3579
-18.2496
44.4037
51.7584
-0.466005
-4.84271
19.8329
45.1269
15.9504
-84.3559
-107.302
-32.9622
43.1885
69.101
133.022
277.633
292.365
161.686
5.36518
-39.3627
-39.6485
-47.0894
-28.5986
-16.9762
-22.2886
-46.0341
-112.306
-171.843
-164.786
-92.196
-35.3441
-24.085
24.081
79.7416
27.714
-83.9328
-131.169
-108.505
-51.9237
3.90255
56.7235
70.5248
-12.2237
-47.5854
-10.9832
60.9501
124.665
163.361
160.515
110.143
45.0608
-31.869
-79.021
-110.962
-133.958
-130.455
-92.8464
-7.04752
132.582
232.181
175.411
48.5064
-25.3224
-6.01481
25.8394
3.28403
-56.6889
-6.89498
49.0746
13.6529
-25.9785
-10.3812
-11.3263
18.2995
75.8397
56.0701
-42.3774
-116.703
-139.341
-163.504
-132.029
-61.9693
20.1204
20.0852
-67.3077
-111.146
-49.4809
0.821641
-33.6112
32.5277
167.979
217.447
145.335
16.127
-33.6823
-38.6295
29.3482
73.5874
43.0969
11.7047
-21.7365
-67.3776
-76.135
-47.7571
-46.6413
-5.38294
22.5521
-12.4949
-32.4015
-60.1941
-99.0151
-89.5041
6.39533
55.1933
29.365
46.8906
134.428
178.847
141.393
125.696
148.807
148.332
20.5002
-91.523
-92.521
-45.2504
-24.2875
-45.9395
-23.5153
-26.3007
-28.6143
-41.9187
-33.0411
13.7367
28.572
-26.6054
-144.492
-237.706
-282.22
-267.051
-185.362
-91.1931
15.5596
90.0965
229.673
306.008
196.161
127.067
142.409
86.1769
10.4044
-84.3418
-157.335
-141.383
-57.8359
48.8817
93.0071
83.8585
92.243
80.8307
45.6501
11.1063
-7.15263
8.55273
-35.9244
-82.3814
-14.8433
39.4753
25.6512
-47.6522
-131.929
-103.699
-26.7896
18.3595
37.7897
12.5104
5.53446
38.1127
78.3497
87.0257
70.9219
52.5253
65.0051
33.6846
-57.135
-121.992
-123.837
-168.39
-148.251
-14.8716
74.6901
110.127
125.211
97.8323
13.6821
-100.678
-172.465
-144.661
-67.3645
-82.0684
-41.1304
69.9422
88.9816
67.0904
85.0865
74.9166
21.6663
-9.64388
-25.0129
-30.9427
-2.10619
58.7845
177.555
206.747
120.448
39.0832
20.258
42.1617
-12.8847
-73.4746
-134.453
-138.777
-58.495
-13.1634
-4.61311
17.9811
35.9638
-22.5162
-71.8526
-64.1868
-5.58072
-19.6268
-139.786
-215.727
-164.142
-91.3758
-50.4863
-17.106
65.2074
157.622
135.742
41.6275
12.217
19.7341
4.11049
-20.8213
-16.4883
108.623
195.374
178.634
95.904
65.8638
110.496
63.8293
28.7497
40.613
43.1375
34.4737
-16.8707
-69.1824
-112.142
-114.606
-114.633
-131.124
-109.315
-70.7742
-36.8956
-46.3388
-25.6979
9.82512
9.7193
-5.15335
-100.612
-91.7814
-58.8704
-37.4359
-13.8347
17.4481
8.76447
25.659
63.4891
82.4195
83.0523
101.169
144.584
138.946
101.479
35.2932
-25.8491
-54.4103
-27.3567
-7.34494
-19.4755
-83.2015
-139.101
-83.9517
35.8061
29.1639
26.722
79.2517
56.6705
-12.5437
-63.4879
-50.4203
-13.128
25.7873
64.7248
8.44255
-36.78
-31.5278
8.03615
-1.51524
-24.3963
3.42043
47.6754
33.5526
34.9916
90.3926
77.7868
-12.7365
-93.1666
-130.167
-103.127
-96.3789
-111.725
-128.361
-121.531
-61.5286
-22.1337
9.76492
24.3648
63.4482
185.568
349.097
363.085
254.017
92.917
-83.1148
-173.583
-174.977
-56.2575
29.872
-7.88901
-14.895
-9.22532
-54.3516
-143.215
-168.005
-106.428
-46.6449
-28.8988
-32.5392
2.47267
-22.8808
-66.0105
11.4687
89.4135
96.9496
137.312
129.054
65.9139
-15.6132
-28.2224
-22.5068
-34.1593
21.9753
105.612
127.895
55.3539
-0.446792
-17.2784
-33.2762
-81.0812
-110.624
-82.911
-116.949
-171.006
-131.453
-61.0059
32.0123
108.065
202.447
243.61
167.258
30.7634
-54.2723
-58.5673
-7.68659
10.535
-23.7302
-40.1009
-2.50732
-61.1935
-63.959
-44.3481
-22.1617
15.2044
21.0228
-17.5417
-46.3306
-67.1885
-75.9271
-24.7196
55.327
78.1868
19.3856
-15.0417
-8.8137
59.3309
121.52
119.334
92.1681
37.8012
-42.3004
-33.0956
-16.323
-19.2616
-33.4917
-88.4591
-164.784
-156.939
-112.587
-83.1859
-36.9342
98.151
194.325
176.318
88.6309
36.9413
9.72469
9.37828
-8.27767
10.1799
-6.57576
-44.0882
-75.5896
-67.8484
-24.1052
10.0681
2.2253
24.8855
104.604
88.2906
-16.9732
-78.4039
-8.24363
90.4236
68.8188
3.76148
30.4314
77.7164
-20.9477
-88.1406
-98.5662
-71.4966
-50.0584
-42.3401
-18.618
30.7263
83.1326
25.8341
-44.8192
-33.8855
-10.705
-28.9168
-63.4987
-106.227
-74.824
-84.2432
-71.1998
-53.7882
49.4036
100.252
111.68
109.334
89.9051
26.2677
7.28472
30.6653
35.6867
53.2005
47.2943
15.9648
15.2103
29.7661
-5.49081
13.9497
87.9171
116.722
6.38368
-81.3607
-96.6697
-94.8412
-92.5228
-81.2085
-42.7934
-9.65204
-17.1219
-10.1898
1.92719
2.87903
-45.2532
-58.9246
4.82443
61.4621
84.0634
83.5685
115.187
133.343
114.034
2.13117
-184.974
-232.704
-178.732
-68.7944
-11.1445
12.3477
31.2424
49.8455
46.3925
24.1202
9.39007
-5.91046
6.43275
15.2042
-10.0143
-18.5641
-18.4983
-23.8706
17.5626
65.4647
50.5476
29.4993
34.8808
40.1125
73.9479
101.172
94.4016
-18.7353
-95.1708
-63.3832
-25.6519
5.57229
84.1693
107.69
-32.8726
-92.5512
-113.62
-141.946
-180.363
-126.892
30.3926
147.157
160.718
57.7477
-69.4192
-117.571
-104.986
-10.1968
42.9421
50.0779
58.4808
-19.6822
-128.22
-75.9169
98.8924
50.6039
-42.2005
-17.0707
38.7825
106.5
211.339
211.767
60.8758
-42.308
-51.5475
-42.3052
-37.4879
-29.2375
6.17142
-12.9437
-49.2132
-45.3531
-41.6696
-58.4588
-63.7005
-39.9968
31.2051
117.857
115.297
-27.4612
-158.058
-141.271
30.0522
139.785
82.1157
-7.32847
-30.6408
-57.2009
-47.8884
29.9849
62.6389
60.1387
36.299
-2.24249
-32.6955
-68.7029
-83.5837
-88.4924
-57.1249
-16.0987
-15.8735
-72.7384
-93.8615
-57.8368
41.6288
116.586
149.375
190.954
146.144
37.3062
-52.13
-108.743
-100.7
-50.9093
17.4679
148.473
204.765
188.847
129.829
7.77604
-68.1402
-96.0944
-106.214
-130.16
-136.46
-125.554
-137.998
-159.135
-135.954
-89.1075
-7.22604
196.805
340.58
303.544
150.052
-39.9782
-125.475
-152.25
-161.579
-99.4701
-18.1745
16.3078
-1.35233
12.7995
49.6833
75.3807
97.9653
54.236
-3.59853
11.1522
35.5896
-34.9975
-105.402
-131.222
-48.7381
-9.88721
-68.4475
-96.853
1.23687
78.7911
93.257
86.2468
127.625
111.919
-15.9706
-31.6395
35.9452
13.9655
0.483528
32.595
100.807
124.911
-2.24586
-95.7851
-109.871
-57.2268
-11.331
1.82209
-53.4902
-45.2813
-43.9791
-43.7906
-4.86344
23.9471
30.1047
-7.22952
-112.728
-145.813
-62.8559
14.411
12.8668
-10.7762
28.5303
48.4491
31.1246
70.7823
102.147
55.8792
24.8998
18.0996
14.6043
3.58826
-92.5747
-155.326
-64.0399
14.4893
62.4342
166.553
147.568
31.1075
-1.20451
-57.9454
-124.503
-74.8869
51.9882
127.175
70.7221
38.0803
-2.36686
-87.1712
-86.1824
-34.0407
-30.0664
7.09402
42.6997
33.0194
4.91409
-35.4003
-21.4791
20.4528
-25.463
-56.5929
4.51124
28.4467
-59.7874
-174.143
-108.622
43.3471
127.182
120.283
63.1357
31.9913
15.7989
-13.2147
-4.76681
45.2387
83.4249
60.7874
9.09075
-20.5346
-7.45705
22.5183
-14.3881
-62.5099
-55.9244
-97.8484
-107.466
-117.744
-94.9462
-34.337
-10.6796
-4.65486
51.5332
124.29
183.027
70.6309
-99.3221
-75.6434
23.8968
65.5068
19.746
7.551
-10.1093
-11.4017
40.8428
99.8001
82.7602
7.30367
-30.6054
-32.8054
0.502498
24.2304
-10.8116
-62.363
-84.4813
-22.1255
64.1062
63.9171
14.6002
-29.4065
-27.7632
-48.7171
-37.3419
-49.7637
-70.2962
-32.2929
10.7801
9.61383
8.45562
37.5815
92.9365
88.8851
11.3447
-16.4994
-51.8381
-52.8137
-2.68598
48.1131
48.4068
-0.052822
-6.13056
-8.90132
-3.55683
21.52
42.405
69.3541
22.065
-39.3216
-73.3709
-95.5416
-132.964
-133.811
-69.8963
-40.4413
1.46473
65.5365
72.2562
33.4451
-44.7324
-86.4814
-2.4846
36.9481
56.3981
93.7161
60.8357
31.9237
75.8866
151.152
214.309
274.12
198.091
-7.19924
-118.674
-130.767
-125.9
-142.04
-172.726
-160.171
-99.6636
-40.4891
-64.7577
-32.2906
36.2357
45.8793
1.54733
-13.8268
18.1684
20.8448
-42.7701
-82.3886
-65.1771
32.7241
106.235
97.7429
45.1135
-0.405354
-27.6377
-41.4981
12.771
62.4142
63.7624
36.462
16.0034
24.0922
50.4323
63.9198
11.8827
-91.2965
-139.726
-185.056
-166.747
-30.6353
94.9514
165.832
191.322
137.768
109.698
53.6487
-21.3622
-44.7064
38.1487
99.4039
9.12081
-134.249
-203.474
-179.107
-168.465
-87.0687
12.6157
92.8971
125.975
66.6423
21.6609
-37.1974
-66.9765
-46.367
-51.8227
-26.4303
23.1263
17.0306
-8.59315
-10.2929
34.4612
68.8035
91.9486
75.2922
57.0755
5.03125
-18.9893
-7.22073
-18.8713
-38.7276
-42.9068
-5.02771
11.1718
14.2795
43.4471
66.5221
-16.8762
-53.9912
-54.2755
-23.0684
18.3375
15.6195
-7.44882
-54.7726
-58.4645
5.18841
77.0131
114.856
112.846
98.9284
40.2851
-17.1965
-36.0637
-76.9016
-147.272
-172.174
-65.1113
53.3997
66.363
-29.8008
-45.3564
-18.0829
4.36286
58.9231
95.0654
82.4297
14.5664
-41.0593
-59.4376
-89.7503
-82.9067
-35.5184
-42.9005
-68.6458
-39.7756
24.1613
68.2463
42.1184
3.39589
30.705
43.0391
99.9004
164.938
148.362
95.9856
12.374
-51.9307
-73.7753
-55.7428
-6.28496
46.9988
31.1901
-25.1365
-48.5262
-43.3725
-46.2552
-49.144
-0.136059
49.2206
47.8512
-19.5323
-115.936
-158.575
-163.049
-92.26
38.9352
134.979
101.032
129.663
173.431
-24.2177
-177.353
-203.227
-141.015
-33.4021
69.5384
127.401
146.634
108.457
91.5575
49.9406
-79.4108
-104.16
23.0716
35.9359
-56.2104
-107.517
-90.7441
-104.759
-107.979
16.4341
106.252
160.988
202.421
173.643
88.6791
46.7167
-61.6349
-120.507
-119.03
-91.2812
-26.6994
20.9813
-15.9544
-61.0354
-41.2318
11.9315
106.74
117.151
34.6469
4.51151
19.995
64.5843
65.4764
-9.19206
-87.9329
-65.1195
75.625
100.74
13.6052
12.758
69.0153
-23.9393
-96.2199
-43.5958
-37.5611
-184.438
-264.143
-267.46
-193.733
-105.802
-69.852
-9.35887
44.6484
66.6014
73.1472
24.8688
-32.0636
-38.1395
59.4227
152.115
214.53
274.307
257.994
141.087
62.9971
52.6087
20.4402
16.2386
15.867
43.7873
48.1326
8.85319
-15.7968
13.0316
19.6349
4.72425
-61.5778
-134.965
-151.393
-132.017
-103.883
-125.686
-158.006
-109.118
-68.6746
5.08861
153.592
180.549
98.9713
43.3156
48.8099
14.9967
-108.367
-174.2
-135.771
-87.1265
-64.1006
2.33334
61.8339
65.3332
29.3649
-22.4889
1.97141
53.0064
82.3308
103.781
103.176
90.3692
33.5754
-83.5078
-129.853
-109.599
-14.3324
56.4969
73.5531
35.2409
4.67976
-31.8507
-56.6875
-61.0332
-18.233
48.6003
57.5423
22.0966
27.7746
17.0399
-57.8941
-33.2052
34.5412
61.969
93.797
90.6662
93.021
71.8699
-31.2697
-46.1281
2.97729
28.4862
-8.66082
-50.2268
-38.8639
0.599421
-7.58282
-30.7767
-45.2904
-61.876
-89.0234
-69.4357
-29.2501
23.9492
25.9255
4.87
-36.7701
-58.9871
-41.0674
-63.2687
-41.619
17.288
49.1106
-18.5339
-75.1874
-27.1255
21.104
18.2781
25.7654
70.6367
96.341
31.1137
7.25481
39.3989
43.6964
2.75925
-46.0957
7.74097
98.7545
116.548
39.4019
-57.2952
-100.111
-71.7555
-4.59457
-3.94254
-4.31174
45.3035
67.5553
32.0612
-23.6206
-14.0101
-9.63339
-102.823
-217.486
-147.175
-17.9925
61.7927
163.746
227.13
197.826
173.094
124.448
121.226
66.2885
14.4978
-58.6397
-142.182
-215.211
-247.455
-211.167
-182.139
-148.46
-66.7623
79.2017
131.789
42.11
-30.6899
-42.3402
-4.67161
11.4549
-41.5146
1.35092
72.8856
59.8672
42.5077
60.7226
74.183
55.3806
4.49052
24.4244
93.3338
108.1
98.7995
34.7728
-18.8413
-14.0259
-25.3788
-147.934
-187.97
-117.635
-19.7208
87.311
122.794
63.3427
-18.5494
-61.9358
-47.9018
-18.1791
-3.39955
-63.0921
-104.349
-60.3946
29.1674
126.193
177.052
217.008
181.657
104.878
-23.5135
-99.9326
-147.016
-220.409
-229.932
-178.147
-85.6387
-6.89904
5.75508
135.376
298.637
226.776
94.0633
-16.9922
-45.4423
-49.5599
-118.579
-155.397
-135.386
-88.2663
-44.8326
-41.1554
4.09377
31.0944
33.6009
65.2787
60.1709
64.8383
99.7867
44.2273
-17.788
38.3176
148.778
89.6718
-6.79626
-42.9595
-68.3018
-46.8646
-25.5529
-11.2594
-48.2111
-57.0153
-87.6807
-30.6579
34.1044
89.0806
107.238
58.0307
5.719
-19.3735
-23.0662
-40.7433
-85.9305
14.8395
133.594
76.9145
-73.3038
-121.561
-88.172
-40.2044
6.60689
26.8054
9.86273
-29.1535
-55.6351
-20.1727
3.11401
13.6182
49.1932
39.305
-25.7798
-43.2448
-60.1071
-25.1234
-17.0684
-75.2875
-19.7146
35.0321
49.794
91.4735
138.054
169.22
200.631
196.624
123.374
-2.47472
-101.879
-220.166
-220.438
-129.909
-93.0478
-67.3927
-26.5703
-16.298
-20.2536
68.8408
132.97
123.953
20.8937
-36.4721
-34.2603
-13.5271
-13.5436
-55.8579
-99.5339
-93.9821
-14.354
81.2098
77.949
28.1292
9.86113
12.8932
-6.88537
-19.2959
-20.1098
8.2712
64.8681
48.0245
29.4722
13.1367
-31.8429
-38.1452
14.6227
47.7321
110.905
47.9166
-102.107
-123.581
-74.3058
-56.3471
-28.0582
20.2897
66.5809
61.5533
8.32104
-37.7901
-52.257
12.8275
55.6736
37.3091
-17.683
-135.035
-170.244
-31.1457
25.481
58.6936
99.2127
84.2411
71.0373
88.6874
97.2786
66.6073
55.9549
-0.0686603
-53.5526
-62.5288
-58.9035
-36.974
-72.587
-150.233
-119.951
9.06183
65.9151
9.50014
-0.396473
37.7216
92.0992
93.5721
26.3236
4.64744
18.6658
30.0326
37.7557
29.895
30.5362
15.9775
-79.0765
-178.762
-132.668
-31.363
27.125
-36.5218
-49.7694
-17.5105
-39.964
-16.9716
41.6501
96.428
100.447
96.5997
91.0629
-27.8151
-126.295
-99.4805
-48.0347
4.78435
43.8084
95.3862
124.392
115.915
53.4338
3.27033
7.54146
-25.9014
-48.0264
-18.559
-23.5299
-22.5053
-30.5596
-61.1488
-58.6945
-56.0064
-81.451
-111.886
-83.1356
-78.7999
-47.6982
23.5643
102.435
112.234
115.509
184.401
141.803
24.8444
-43.1162
-102.462
-104.218
-8.7681
70.3325
17.8907
57.2754
112.319
-7.07055
-174.693
-165.794
-67.9694
-32.4018
-51.5816
-77.6708
-24.2754
56.2208
157.564
230.129
140.83
22.4973
-54.9047
-92.4604
-115.108
-122.199
-22.7787
35.4421
51.7433
108.929
176.591
131.187
92.9451
91.9033
28.137
-9.46562
-31.6484
-104.292
-169.502
-190.237
-127.256
-49.9351
-32.0501
-1.55438
-45.3322
-79.8573
-60.397
-79.0232
-49.9805
41.4299
123.592
59.777
-36.2633
-31.307
21.4443
51.2914
62.1401
24.2299
7.62733
32.4523
57.0296
59.1173
89.7436
64.9035
18.8463
11.151
15.443
-28.2561
-35.7068
-23.2321
-21.003
-35.403
-23.799
9.45043
33.6881
34.5784
70.1203
124.985
72.1824
-68.511
-121.356
-92.7825
-56.0667
-50.152
-20.6902
-8.28328
-60.1759
-89.0492
-11.0338
110.511
107.231
102.602
77.7027
-10.4487
-82.9364
-81.897
-108.891
-104.625
-81.3541
-27.3586
1.61336
46.5181
31.2427
4.51977
11.9692
2.57973
25.9494
83.439
59.0554
22.9218
106.77
147.6
83.2872
31.3765
-37.9943
-123.448
-149.686
-123.09
-62.8298
6.78572
76.5875
86.0168
53.1433
6.78372
-22.0561
-14.4303
-18.8459
-24.3538
12.3605
11.8942
-66.453
-122.587
-58.1386
12.8912
12.8192
10.3168
43.925
109.785
170.869
96.9934
-15.605
-70.9522
-67.8937
-25.6833
5.78314
22.2793
-2.67713
-57.7694
-84.1233
-74.3062
-4.48998
49.5218
28.8484
-6.97488
6.5954
35.0215
14.1436
-19.5734
-41.5764
-44.2258
-66.8596
-42.7877
19.4808
69.7417
117.33
156.761
118.405
40.2298
-42.8456
-111.486
-112.339
-69.616
-43.293
-19.396
2.383
1.81653
-12.734
-36.3185
-64.0389
-20.3106
49.7391
61.6001
59.6854
71.9674
34.4322
-12.1294
34.6281
88.8206
66.2112
-22.2426
-40.3343
0.378082
17.9639
14.6841
-37.6189
-66.8354
-77.5674
-60.0535
-37.4349
29.8858
137.132
95.7062
21.5122
0.880121
-21.3068
-69.2171
-138.933
-149.945
-106.066
-49.4997
-35.6637
-58.8234
-79.9398
-56.6104
16.8434
71.8998
120.764
197.612
232.122
116.943
-34.4221
-69.4774
-18.6346
13.6753
0.462411
-26.7326
11.3164
46.2111
33.1322
22.0722
29.9315
64.221
83.0663
83.0286
89.8829
24.7663
-43.0782
-82.3386
-116.885
-143.805
-171.955
-155.423
-123.633
-94.8645
-65.7464
-4.86337
15.6456
23.6019
57.0229
89.5345
66.6194
22.5647
-11.5952
-26.1579
4.61973
48.2404
21.5098
-7.9663
-14.3511
32.0157
124.291
215.844
214.445
165.659
90.0464
-65.8263
-196.541
-200.569
-144.707
-93.0891
-61.5581
-26.1379
0.0677579
22.5898
21.4948
21.7297
-16.4938
-85.0792
-93.7024
-63.4349
-81.9529
-114.557
-41.455
5.85565
38.212
146.734
230.454
222.128
192.109
156.899
118.194
21.2622
-33.71
-55.6967
-109.689
-118.125
57.6026
116.399
8.33443
-93.3663
-121.09
-111.762
-114.358
-96.9922
-65.8907
-48.3035
-42.0307
-37.5614
-48.0358
-64.8103
-44.0176
42.6562
98.2025
43.2219
-11.0364
13.1391
-48.2078
-81.2232
-40.1601
28.6286
44.6514
67.6884
77.3097
107.157
133.978
81.8175
81.7324
82.1525
58.4464
24.4517
-22.7761
-72.555
-64.1499
-0.0331382
7.2104
-72.1963
-128.691
-88.645
1.6111
54.2981
71.6729
76.8856
31.3646
-81.2878
-109.31
-19.6074
43.3779
76.0539
103.762
83.0246
32.1492
-6.64508
-54.6752
-95.7647
-69.4398
29.9058
57.7703
-63.8701
-118.616
-142.405
-114.347
-29.6932
55.8093
121.429
61.8499
-42.6612
-142.302
-166.638
-150.784
-107.635
-28.1894
93.9064
242.027
334.423
307.053
169.81
23.7241
-100.613
-182.374
-134.595
-28.684
-49.6813
-75.0577
92.3155
222.44
94.8868
15.9591
-12.0206
-36.2208
-28.5151
-44.8757
-127.403
-181.691
-186.95
-132.297
-79.0951
47.3974
256.984
287.196
223.17
139.361
76.5454
25.88
-116.016
-171.917
-63.055
-21.6378
-79.9526
-109.037
-73.5646
-76.745
-86.8357
-94.3648
-57.981
29.6707
81.4061
5.1301
5.30015
103.819
118.882
107.562
57.3334
-50.357
-114.81
-92.3829
-1.28218
107.017
137.494
86.1913
-0.728752
-29.2133
44.3584
37.9401
-7.88254
-31.4042
-16.4316
39.5387
31.4743
-47.6799
-124.014
-127.437
-77.8346
10.2857
49.0558
57.8568
-35.0889
-147.126
-154.953
-78.424
47.0117
132.443
130.278
100.836
98.4172
17.069
-62.8543
-31.8082
-32.2165
-32.0271
-9.10645
15.391
14.028
6.90623
-2.78055
35.4728
101.323
125.04
130.337
85.0902
-22.047
-61.6646
-3.79719
75.8987
-14.5291
-90.2473
-87.2571
-181.706
-199.86
-107.353
12.2641
31.3564
20.5078
72.7451
81.5283
-55.6788
-141.342
-122.365
-96.5933
-22.8433
37.8372
74.5258
75.443
39.0595
59.1959
66.4205
40.5356
102.558
120.474
49.7916
23.7077
21.3496
-33.8796
-66.7664
-91.1935
-65.2925
4.43402
114.394
164.867
118.05
66.2202
-10.9248
-116.526
-152.875
-134.844
-50.5626
38.5627
48.1973
-8.38591
-35.2807
-31.4956
32.6682
37.9875
-53.687
-67.4527
-72.005
-65.4375
-76.5668
-17.2413
39.8192
34.463
26.9259
25.6712
43.2733
-13.6141
-10.191
86.3813
118.25
44.5091
-105.022
-165.725
-85.3105
-1.71038
51.1495
123.999
229.918
254.594
120.217
-27.8842
-139.878
-143.141
-129.953
-139.967
-108.189
21.3074
63.1025
-25.9471
-61.5353
-14.6234
64.8684
86.3079
18.9501
-3.82127
59.2495
83.579
5.59273
25.0694
76.8793
86.5914
10.4669
-106.023
-104.231
-55.7447
-39.2787
-10.6546
19.3794
-4.80716
-52.144
-48.6683
20.6178
40.1983
-12.4328
-27.2996
-68.0866
-147.428
-145.724
-104.295
-79.5301
-52.5551
22.3406
124.623
183.346
210.6
136.139
34.4095
-27.8354
-46.5147
11.1234
83.2335
100.996
78.1513
55.9281
67.5741
54.5951
26.1846
5.14241
1.43078
-19.3847
-28.3874
-72.2738
-88.1457
-132.836
-155.425
-117.44
-34.0671
30.4778
75.7352
120.991
141.12
55.4751
-80.2681
-175.792
-246.92
-200.588
-109.835
12.4203
33.8665
43.1931
58.5107
123.982
185.267
187.1
91.4541
18.6153
-42.8049
-64.7101
-78.0253
-84.9646
-85.6669
-56.0823
43.7838
134.099
161.537
108.974
48.7696
-40.1492
-114.599
-121.625
-113.362
-52.0498
43.6427
84.8918
121.727
140.86
61.7131
-3.41335
-73.9791
-115.489
-123.571
-49.1645
69.3084
136.403
120.613
29.9524
-28.516
-47.9256
-103.525
-132.455
-113.843
-80.1356
-33.7064
87.9865
99.6684
129.63
134.508
-52.606
-124.406
-68.2409
-19.6761
-19.882
-88.2454
-167.461
-145.341
-32.876
61.3712
117.743
148.719
145.128
128.298
99.4512
6.47884
-111.963
-119.823
-108.861
-62.227
57.2524
137.354
104.354
35.6921
32.2104
37.7672
5.36943
58.1537
82.1023
41.2541
-65.149
-58.7831
-37.0146
-41.3143
-48.6189
-31.8777
-50.6069
-40.0014
-46.1493
-10.4691
65.5663
115.759
135.567
27.3808
-72.2438
-94.9746
-80.7612
-90.4313
-92.6545
-72.6819
10.4188
60.0991
79.0657
21.1118
-21.6894
-38.4304
-2.95534
19.4053
9.47438
7.2024
-19.2172
-73.6939
-102.716
-58.9302
5.92079
87.3664
183.947
79.0941
-31.3935
-17.5647
-55.4874
-41.7066
77.847
156.025
140.853
78.7696
13.8955
-26.1766
-84.7104
-118.656
-104.664
-53.9513
-68.8836
-55.7905
-38.2049
-56.6635
-45.9196
36.3656
116.881
152.762
195.452
106.147
-37.7837
-96.9876
-70.0633
-60.4567
-102.511
-61.2
-17.8586
-14.0305
-7.96758
-18.5655
-2.57747
56.3644
105.548
134.532
172.419
205.784
113.798
-28.4858
-109.67
-97.145
-76.3903
-60.8958
-101.821
-135.419
-85.1054
-81.8187
-73.4409
-21.5385
89.7838
145.644
106.025
31.3877
-54.8061
-90.6182
-144.569
-131.685
-44.5454
-1.07764
31.9983
31.5361
35.657
74.2919
114.236
132.919
78.0942
1.63355
-32.2185
-59.8202
-67.9876
-56.4188
8.85901
74.7235
56.2583
-37.2049
-101.724
-59.5903
-34.2315
41.5759
112.473
92.3422
36.6374
-1.17928
-16.5517
-3.66861
20.6718
14.1632
5.3125
1.06961
-7.25727
-4.72977
-2.51244
45.8118
103.336
72.5853
-28.8198
-116.939
-120.479
-123.733
-127.243
-55.3676
-4.22912
-5.88131
-6.47763
15.0873
23.1409
48.5737
76.3481
96.857
94.1558
62.3331
-4.56263
-33.4882
-15.5262
-18.0274
-9.43143
5.20716
-35.9091
-51.7171
23.3415
68.2311
74.8886
128.394
182.35
48.6458
-131.234
-263.576
-251.925
-110.53
-59.7028
-73.4238
-36.273
-36.4641
-51.1626
-4.5252
74.6136
110.483
136.646
117.85
24.5924
-39.8137
-36.4586
-22.0834
-9.96408
-12.9593
8.69111
120.505
175.823
90.6777
21.8855
-21.3308
-39.8251
-20.8899
-8.3601
-8.25981
-27.0707
-15.5249
4.93815
-2.71672
24.3747
91.3455
72.0206
-10.0074
-96.8647
-122.057
-64.5595
-7.43588
8.28633
-4.66471
16.3307
37.1879
-18.81
-82.3438
-33.6254
-4.39876
-26.6799
-1.63408
-47.8049
-84.1507
-75.7725
-66.7538
-1.64872
61.8132
101.096
190.487
188.585
99.1699
14.1871
-113.3
-137.791
-76.4139
-63.9589
-43.4953
-12.034
12.7132
31.4231
26.8181
51.7267
73.1211
7.01869
-43.0098
-22.4952
-23.0181
-34.0142
-20.75
43.1557
94.8164
81.2629
72.6124
-26.7182
-68.1815
-11.6961
-6.9633
-42.6745
16.4105
151.814
129.818
43.1942
7.41087
-14.5998
-13.9501
-43.2841
-124.878
-183.847
-151.628
-106.845
-83.3347
-23.25
39.7871
81.8789
83.9969
75.1184
53.2294
20.4059
-14.5005
-88.422
-102.883
-53.0487
-60.083
-68.7428
-44.4782
53.0407
130.163
182.28
185.365
184.333
114.588
10.5912
-48.7047
-111.009
-97.1903
-67.1738
-4.96545
55.1158
11.5257
-116.436
-138.136
43.1544
110.29
69.3352
62.8426
-35.139
-89.7037
-76.9714
-74.3158
-62.4057
-4.5377
59.9686
60.7328
47.118
32.5796
22.1468
33.6582
-13.0863
-23.7923
50.6865
97.5021
-6.08788
-71.9428
-20.7275
-48.9829
-86.4126
-86.9214
-84.9397
-68.4196
-40.9546
-14.7916
9.15466
54.7065
51.1075
11.503
20.6755
51.9168
76.7926
52.8784
13.1245
-1.27273
3.78823
25.5463
38.0666
69.4229
64.1954
41.6675
8.57947
-28.0294
-20.524
-39.5952
-43.9523
-22.4911
33.6408
92.5777
64.6836
-6.09946
-57.8641
-86.8902
-140.008
-194.949
-178.29
-114.262
-30.5899
111.134
188.824
144.966
63.4988
27.7695
-44.8273
-39.0749
-30.9637
-80.2442
-66.7589
-25.5409
17.2051
-6.17124
-29.4151
25.2269
107.837
128.843
67.3828
58.0426
49.2406
-79.8416
-76.9975
14.1224
82.235
122.673
94.5312
36.2933
0.397452
8.36083
-17.2956
-14.0253
-61.9962
-111.362
-59.865
-26.5434
-41.5877
-17.4377
48.4827
1.29157
-33.4311
-62.34
-82.625
-59.3001
-87.0355
-75.1955
-2.72178
38.8117
64.3205
47.8049
64.4866
65.0646
25.8627
-5.67704
-30.0289
-69.7832
-52.1529
-13.2163
18.0969
70.083
102.699
90.2033
48.563
-4.54751
-17.8684
6.03335
54.7239
51.8397
-3.6755
-10.8327
-4.15241
-32.026
-54.0638
-52.5222
-40.7339
-52.7707
-81.1107
-90.0602
-65.9376
7.90593
82.5099
116.442
148.83
143.462
90.0062
7.85111
-89.2673
-112.93
-69.0813
-33.185
-44.623
-3.27892
7.76273
-24.1705
-17.2101
-4.23138
7.90225
1.52295
-27.3729
-45.5023
-31.222
6.50846
17.5084
-69.1783
-71.9114
11.5367
72.0689
83.6964
131.631
170.286
87.9008
24.7995
-25.9041
-83.0452
-118.277
-108.881
-69.5086
-24.3231
-18.673
-0.299281
-1.45305
0.896841
22.6583
82.7921
80.8072
40.216
32.4534
49.9848
6.05396
-30.454
-6.51267
-38.5375
-66.3778
4.66237
65.9485
64.0276
17.9009
-17.4582
-40.1239
-123.668
-155.801
-80.201
-18.533
45.7262
74.7442
51.0222
9.67053
-26.1267
-24.6727
-44.7426
-41.4955
2.83101
53.8564
71.5194
84.9448
72.8369
57.7774
32.2205
-16.1698
41.672
110.623
85.244
1.84667
-120.846
-203.195
-158.087
-46.8676
-8.43665
-4.44889
-20.2642
-21.8897
-10.415
37.8134
52.5808
26.6643
29.0187
53.9393
60.8786
40.2152
-8.48262
-40.0882
-30.2745
1.8191
59.728
89.8179
44.8077
-37.2157
-77.2929
-61.0739
-12.0553
-27.4865
-60.1616
-73.1836
-40.6448
8.33001
63.5265
54.4549
71.3146
80.9388
15.8932
-16.5964
-4.07667
-0.782861
-52.8636
-106.296
-124.546
-84.4936
-38.3566
22.4436
67.1151
61.931
34.9439
38.2292
52.2588
12.6228
-60.271
-2.43232
70.312
48.2923
55.6008
58.6544
44.2794
35.0852
-25.9609
-8.22115
9.37763
-45.4243
-43.5089
-29.8094
-66.897
-70.4725
-19.9345
-8.20095
-13.9646
26.2657
71.5355
50.6195
30.5981
83.1264
68.8701
13.6212
-64.8679
-132.249
-104.564
-52.8823
-42.7308
-31.0952
-36.8265
-47.6323
10.3845
110.591
140.339
110.398
78.4083
21.0609
-32.6863
-72.3221
-101.185
-72.9408
-25.8302
-4.8123
-32.6005
-5.10796
33.0761
-7.47209
-40.6044
-9.97434
9.12074
14.4625
8.66654
-6.58902
-3.34867
44.7727
45.1949
35.5737
46.5637
-4.8438
-63.4576
-30.3879
45.5996
59.3338
49.0593
40.9952
17.4057
20.6769
63.3992
79.2609
93.3684
58.7274
-26.5061
-121.314
-142.304
-95.5308
-65.5294
-61.1926
-80.2725
-38.8059
33.3547
8.54902
-47.4196
-35.2571
8.00211
-7.43799
19.1689
27.9764
1.41183
-34.6738
15.3531
63.2244
34.4066
72.0309
193.37
126.927
2.1716
-45.1528
-13.2621
-38.437
-72.1052
-70.4809
-77.6182
-72.4104
-13.8486
35.8488
-16.7976
-67.154
-22.4303
29.1542
-11.9598
-62.2098
-18.4455
-0.261393
-49.0593
-38.404
37.7821
100.43
86.61
93.9833
84.1054
20.2699
-16.0476
25.4799
39.244
49.5877
67.92
46.4687
-48.7947
-78.3977
-87.2096
-92.4314
-24.0561
27.1331
-3.51494
-32.0131
-31.7189
-21.7959
-19.7561
-0.856962
3.64642
52.1546
59.5757
-1.28712
-50.6977
-45.6783
20.9532
95.6683
136.776
100.304
38.8314
-1.62043
-17.5547
-35.0005
-44.9277
-6.62097
-67.688
-104.959
-105.321
-105.568
-79.5441
-69.5868
-47.4028
9.00629
19.4688
35.4441
45.0055
44.6057
58.6065
52.3959
14.8471
-54.2661
-52.9649
-2.67601
16.0051
14.9295
22.8288
21.4694
13.1743
17.1247
69.7455
129.718
139.144
104.96
51.0746
-80.0207
-129.699
-77.862
-12.6018
7.71031
48.0837
162.4
127.068
-6.92517
-72.6633
-101.531
-87.1124
-55.6996
-46.4885
-67.8838
-107.002
-122.759
-106.22
-70.6861
-11.7605
87.0486
171.348
112.077
-30.8756
-83.8932
-73.729
-65.4861
-27.3347
19.7547
93.513
160.984
180.421
81.9508
9.23434
10.3146
-42.567
-47.0058
-21.0809
-18.1172
-40.3436
-58.885
-89.6555
-85.8737
-34.0741
14.1545
49.6078
62.5868
73.2199
51.6844
-28.6605
-59.5864
-21.6859
42.7073
45.2651
24.9079
61.3623
60.1569
33.3859
31.7073
21.1443
3.36987
1.30072
-2.61954
-1.98451
-9.14798
-37.492
-105.756
-138.42
-107.533
-33.7948
-6.06568
-40.797
-44.3033
24.269
58.0652
19.6937
-26.8082
-34.645
-22.3621
-24.0596
-48.4562
-1.77411
100.911
155.382
126.637
78.4071
7.36595
-57.3262
-56.9582
-46.3083
-22.5718
30.6143
85.9294
64.1857
17.2452
4.43406
-7.8186
-32.8232
-84.1247
-75.5988
-25.5445
-26.6732
-45.2163
-18.2465
29.3885
44.3595
76.324
92.5008
106.97
70.2825
23.187
0.345397
-28.7585
-56.8747
-67.5667
-97.3856
-94.9046
-54.8318
-26.0869
-4.00402
53.941
63.1389
30.638
7.26466
9.3154
-20.0902
-20.2937
57.0268
67.9347
-38.4886
-118.1
-97.1695
-46.5316
-29.4647
-53.427
-25.083
42.3668
96.2994
95.5395
65.8791
35.495
32.3798
21.216
-37.2382
-119.104
-134.479
-69.1537
-62.0539
-67.336
-0.569929
61.2479
109.905
188.463
212.803
133.321
60.3963
47.2163
34.0647
-17.9244
-44.4396
-67.7069
-83.7457
-74.693
-54.7619
-27.7052
26.1717
7.68324
-0.85164
-12.1083
-6.51739
-5.61936
-18.5643
-59.4242
-80.7657
-69.1712
-37.4334
-34.7353
-33.2168
-15.0586
26.3345
59.2688
66.9738
45.505
4.84357
8.65449
29.5472
21.9101
-10.9349
-20.0324
-9.30552
0.975738
-44.3433
-100.54
-83.6089
27.4461
74.0976
31.2068
26.7649
115.801
125.064
68.9857
2.52098
-74.1004
-50.1053
15.2119
23.7433
11.6205
-3.8635
-23.1008
-94.9028
-78.9017
0.0788512
23.7932
-19.5107
-36.758
-49.8955
-35.3095
44.5244
111.054
55.1345
14.6566
11.3829
24.8119
30.3186
51.1132
13.357
-36.708
-1.83318
34.2489
76.6053
25.021
-44.5926
-78.3547
-65.2169
-18.0112
35.0549
0.960446
-98.8881
-155.458
-87.777
-44.5103
-9.96178
41.2996
23.5462
-26.0132
-28.7705
-25.0815
-43.8566
-16.2423
37.6185
53.2539
43.0661
67.5993
118.207
124.995
118.342
105.427
75.9581
29.2063
-38.7671
-87.0723
-89.3167
-29.166
-27.4585
-75.2402
-51.2013
56.2211
94.3286
47.1177
-27.4694
-46.0938
-30.9187
-35.6676
-41.7424
-68.4248
-50.2903
-2.23299
17.0474
6.86441
-24.7569
-46.3658
-26.8554
-29.0434
7.84715
43.9842
90.9395
94.927
4.84046
23.4362
72.1764
49.1088
-12.6372
-62.763
-127.656
-110.757
-64.8388
10.3357
43.1177
-19.1098
35.8707
109.694
74.6603
30.7869
3.1139
-34.9354
-49.4866
-60.9525
-53.6167
2.97605
74.9309
134.015
65.4302
-10.1438
2.53624
-3.66581
-61.2853
-57.6742
10.5395
-33.6576
-90.069
-73.5853
-18.76
-28.9605
-39.0234
5.13444
5.99012
-3.16153
50.3279
59.4414
25.8289
-21.9619
-10.6005
29.8171
80.3353
90.5306
59.4561
40.7145
-6.55766
61.5142
137.778
125.212
39.1474
-27.382
-58.8533
-74.6341
-75.401
-85.3602
-80.7509
-92.3633
-113.404
-112.403
-62.4084
-32.1675
-16.6265
17.7821
31.5508
-11.8477
-46.2476
-38.4775
-60.5499
-68.5307
-34.7712
54.6111
127.079
144.574
138.89
81.2249
61.3698
36.4477
4.51819
12.3018
39.3425
46.8941
11.9434
-31.3545
-10.4253
33.9338
3.34705
-55.7829
-57.2224
-32.8687
-8.21888
-20.0367
-38.1511
-51.7025
-79.7219
-43.9364
-40.9691
-46.5573
-24.3455
2.25303
33.4866
84.4655
119.482
104.828
70.229
54.1018
45.8459
11.8253
-35.82
-71.4323
-49.8226
-10.7848
28.3852
-33.9104
-104.127
-122.952
-34.3713
24.9499
61.6974
61.0368
41.5522
-12.4316
-45.8959
-33.0227
-32.2702
-54.8386
-47.7391
-44.5125
1.30334
37.6116
10.4544
-2.50282
17.8228
67.977
78.8714
64.811
75.3235
25.0086
-10.6359
4.12495
8.15715
7.09881
24.6084
35.1157
-12.3306
-112.495
-114.085
-51.4934
-18.249
-7.26959
16.87
39.1837
20.242
37.7328
60.1151
25.0729
-33.1613
-18.8642
-13.3703
-71.1108
-120.989
-78.9935
12.4767
42.1841
76.0142
138.485
109.71
34.9722
-3.14266
18.1163
46.2888
22.9133
-33.6305
-67.7405
-82.6892
-71.1021
-84.471
-77.8135
-33.8846
25.0973
79.6444
107.616
86.7046
50.1565
58.0658
32.4594
-69.7281
-54.4178
-60.2601
-75.3179
-85.9969
-49.9357
-18.8551
3.90885
37.7007
82.1705
78.8935
25.4477
-49.2552
-78.3083
-23.8827
-9.30521
-44.071
-28.2515
1.80915
27.3048
69.2449
23.5253
-40.2321
-7.91864
28.512
21.9711
42.6121
80.5484
68.1876
-53.3412
-86.8372
-14.0195
20.6385
4.70032
0.951113
0.667669
38.6179
73.1789
62.6691
8.36169
-0.0212944
52.7696
90.1296
3.76352
-83.8447
-114.825
-131.459
-114.458
1.48033
128.597
105.511
0.921772
-33.8943
-27.22
-71.5435
-102.406
-109.268
-94.6727
-60.0975
-17.814
55.0254
100.102
71.7942
43.3125
19.5435
67.2555
113.332
59.8175
6.51416
17.8054
65.4272
47.0575
-39.0958
-90.4899
-67.548
-63.8404
-57.1978
-59.1739
-73.5918
-26.1636
9.96648
6.9407
60.5089
98.1736
73.9641
-52.5047
-155.346
-143.2
-66.191
-5.61578
-19.0854
23.8874
78.9452
192.009
209.449
157.206
93.1903
52.2412
9.85493
-46.608
-3.45094
39.4285
-10.9301
-68.9269
-81.4995
-23.4206
23.3271
-2.83864
-105.429
-152.949
-114.757
-60.177
4.00738
2.81574
46.3464
80.6561
50.5243
-10.4093
-74.8563
-78.1828
-101.114
-113.481
-31.244
95.357
168.63
119.739
89.6325
74.8429
35.438
-12.5175
-50.8772
-86.6077
-51.5662
-38.1327
-25.7326
-12.922
8.48677
16.3007
-1.00909
19.1561
22.083
-13.7164
-72.0468
-94.4962
-71.1509
-16.4108
0.614461
85.5031
150.925
150.804
105.055
73.3707
34.4138
-32.6216
-47.0608
-14.7113
-18.5467
-21.7102
11.7457
-13.5287
-19.1755
15.5795
35.6174
7.44828
-22.6671
-32.5393
-27.3582
-40.9359
-31.6315
-13.217
-22.5018
-50.3173
-54.8617
-63.5675
-100.029
-65.2363
4.86277
66.4102
95.1322
35.0712
-27.4249
-27.683
6.50375
85.9906
167.119
140.839
54.1068
-18.1649
-66.4358
-118.103
-118.095
-58.2636
7.09246
51.5668
69.9534
30.8882
-29.5276
-88.6729
-79.648
9.16244
42.6387
9.1357
24.547
13.4607
-67.6578
-73.7561
17.6904
49.1112
33.3908
14.0333
29.3491
63.3307
77.7178
81.5773
57.8689
26.5219
5.59178
-30.9425
-66.4719
-93.7675
-34.0256
53.1501
26.0777
-46.2495
-55.6834
-30.4069
-90.292
-120.709
-48.5429
65.8242
70.0627
63.8944
129.059
183.47
140.804
48.743
-88.146
-131.488
-67.3276
-29.127
-30.9284
-59.9187
-93.3337
-102.361
-96.1616
-101.365
-72.8505
11.3876
76.1223
96.449
95.9352
49.9352
-20.458
-82.762
-81.0559
-27.838
63.2651
96.7996
56.6311
16.9545
7.03339
24.1307
67.8182
130.835
201.64
246.069
131.586
-35.5386
-125.225
-138.27
-94.5932
-67.6574
-130.765
-152.618
-116.711
-95.0822
-52.4781
1.11828
28.5741
74.3274
55.4318
30.237
0.636795
-18.5384
-35.8647
-55.3742
35.62
124.045
128.315
66.2678
10.7417
-59.9325
-127.62
-169.219
-113.465
-5.96589
47.8069
98.1086
173.265
254.764
196.902
48.9557
-62.9296
-118.996
-133.616
-135.122
-85.187
-12.4985
-43.4142
-60.9927
-37.0136
4.52157
47.8242
100.67
58.6365
-20.6963
-39.6919
-28.4047
-21.0776
-41.9263
-27.5733
61.8341
111.051
101.763
76.9136
66.2207
17.6205
-81.1835
-98.1033
-70.9888
-5.98154
5.05627
1.41295
7.75545
19.4145
39.3649
4.42016
-73.1287
-127.883
-150.698
-130.717
-88.7963
-24.1617
50.3511
75.1935
41.3978
48.9637
60.5694
61.5971
61.7128
37.1845
41.6739
88.5946
92.3675
68.849
77.7898
62.1266
75.2637
88.7464
57.3286
-20.7592
-81.918
-87.635
-149.52
-189.227
-153.953
-84.4918
-40.8501
-43.6913
-48.273
-53.183
11.9698
46.2883
70.7656
40.213
21.2861
73.2558
44.5869
-16.6598
-22.8909
10.5958
33.2884
46.3195
46.0316
17.7572
15.7319
51.545
92.6527
31.0003
-9.04971
-7.78331
1.22141
-18.0118
-51.5763
-25.3718
-9.11366
-3.01144
13.7896
0.497459
-45.1792
-83.9709
-124.902
-153.044
-114.892
-55.9677
-9.12806
-3.17018
-5.7394
30.5719
44.8031
33.5504
-15.1743
9.29277
71.3307
63.5373
69.8325
77.3735
57.8448
48.904
86.4048
115.841
138.665
138.854
112.795
73.7436
-43.4671
-146.578
-186.425
-153.469
-103.281
-30.2244
52.7531
37.8061
-43.4346
-29.5907
-60.8895
-151.637
-101.971
-34.5129
25.4036
39.703
20.8969
6.48674
4.95235
30.9222
20.3648
30.9633
56.4255
60.3782
47.6504
-0.256154
-69.3777
-78.3146
-36.9705
-26.4215
7.32666
88.6804
106.961
61.6515
6.5417
29.8887
45.7216
-1.2341
-73.2411
-111.155
-46.4069
1.3455
-28.0761
0.955649
59.7316
14.1555
-58.9405
-53.8305
20.6316
65.4219
76.4968
100.497
99.6724
-9.96185
-131.289
-188.094
-175.613
-112.207
-35.7883
18.0314
48.5907
98.2782
143.06
152.942
111.637
73.8233
72.6561
18.499
-84.158
-86.4201
-66.0217
-115.435
-128.946
-52.1542
5.31891
46.3426
35.1801
26.4971
38.6283
69.2796
66.5059
21.4974
15.4538
8.59948
-62.9758
-100.023
-72.5897
-28.6513
27.0356
28.9124
10.1658
21.2668
26.9084
33.2465
21.4186
8.6601
25.3618
51.3808
39.8399
15.8373
-8.66333
-42.6066
-73.1053
-79.2785
-33.9924
19.2748
5.76957
-7.32033
-18.4306
-80.3937
-105.479
-74.0827
-43.8492
32.39
89.4793
82.3208
101.667
96.6967
16.3426
-37.4253
-15.9274
-14.0961
-24.5269
-27.5418
13.1879
70.5932
89.1974
57.9996
28.5341
35.2031
23.4635
-0.138401
-44.9959
-82.9971
-88.1758
-59.1139
-34.7712
-18.9207
-2.22257
-6.38161
-23.2658
-26.1047
17.57
26.5188
-6.33545
-37.9026
-22.1729
26.7509
48.0151
50.8152
57.897
75.8767
70.7419
18.0527
-35.4725
-61.5067
-54.9429
-25.8994
11.5318
10.4186
-13.9655
-42.4289
-79.6349
-75.5702
-42.7945
-5.5936
13.5896
22.0219
9.64816
-31.2514
-34.3022
-12.3455
-6.68447
18.1979
57.5939
95.6811
114.31
86.1034
62.8872
65.1111
61.4608
32.2642
-2.74189
-2.04105
-10.451
-0.864593
32.1098
26.6438
10.1327
-68.5361
-209.401
-246.56
-180.987
-65.9576
12.5523
38.1857
10.5481
-26.2161
-34.4837
-23.5645
29.2479
105.787
137.94
86.9372
81.1073
44.7092
-41.099
-47.9446
-26.6787
61.1533
140.72
117.959
81.287
12.347
-56.0727
-99.983
-75.2032
-96.3674
-66.9278
28.28
23.8745
-1.1102
4.99503
-0.509878
-27.317
-27.2613
0.652235
-22.4171
-78.6037
-134.646
-118.929
-69.1652
-11.3332
68.9582
116.37
159.358
156.337
135.514
108.712
-5.42564
-97.1338
-142.95
-135.444
-92.6195
-49.383
12.3089
29.3744
28.6034
35.4842
60.7113
59.4149
50.7111
47.8318
22.4895
-19.6876
-71.9073
-113.868
-31.9524
1.0862
-7.77147
67.1697
141.25
181.974
136.759
58.7409
37.3469
15.2219
-18.6912
-29.1258
-51.9418
-59.435
-55.2663
-72.8094
-71.5282
-43.5579
-86.7285
-197.597
-274.733
-255.241
-160.499
-66.4503
51.5983
164.374
207.698
206.453
153.008
124.262
139.79
76.6028
-22.5921
-41.4297
5.30078
-1.2292
-38.7716
-82.0655
-89.0616
4.37634
73.0779
103.246
127.008
129.171
-1.09387
-146.165
-165.204
-137.859
-104.731
-81.1658
-69.5556
-1.42054
85.5552
125.193
112.783
44.4569
3.29633
39.1174
84.4099
93.2188
72.227
22.1823
-26.4556
-70.2426
-99.4704
-148.294
-127.579
-36.3525
50.6843
56.4358
44.8255
4.09459
-45.3027
-34.9325
-10.4055
31.9138
91.329
168.209
208.756
25.6301
-81.4552
-41.7818
-47.9972
-114.383
-117.113
-91.9475
-40.1292
-24.1232
-89.8625
-95.6968
-64.4455
2.46015
94.7504
68.5741
12.9374
23.6661
-21.7157
-103.695
-116.486
12.6306
89.4805
76.4198
72.4814
98.1229
103.625
106.836
44.6256
-23.3151
-22.0746
-11.443
-11.5009
-3.92633
51.4863
150.24
138.843
73.8843
15.6632
-74.8171
-127.703
-101.667
-70.6489
-81.1249
-122.096
-134.13
-115.224
-54.664
45.8821
110.964
198.919
223.109
62.6878
-123.812
-196.656
-181.965
-113.306
-29.1616
35.8871
68.4858
57.4397
61.7717
56.0828
35.5384
28.1946
38.872
52.3888
43.6311
14.4724
-13.5584
-138.568
-190.982
-132.177
-25.4895
75.7141
110.129
155.905
119.474
59.0341
52.0061
-14.1884
-74.7581
-50.514
25.7356
67.8447
79.8252
76.7232
16.4509
-71.878
-141.071
-126.853
-92.14
-37.9043
5.00604
18.8882
-8.75849
-85.8313
-126.474
-28.9457
80.5472
98.3776
116.224
156.555
117.436
30.948
-4.45294
-29.0091
-59.3865
-98.6931
-75.4465
-58.7756
-78.8688
-53.7306
27.3849
49.9274
2.36288
20.5553
122.883
128.5
10.3589
-49.8261
-40.3502
-79.4766
-54.0059
-18.512
-21.6487
-48.4272
-30.8239
16.3884
35.4229
53.0787
90.376
141.756
78.9279
-11.7998
5.39503
-28.4123
-76.7836
-119.821
-123.809
-50.7313
8.30981
6.15426
4.25624
60.6562
69.465
60.2064
83.0899
64.0072
11.0708
-13.9095
-58.6689
-98.6725
-81.6171
-31.0675
3.77685
70.0324
75.7467
65.4591
91.9023
95.3734
42.3947
5.222
-65.0474
-155.845
-177.549
-125.205
-86.2298
-6.43201
48.3212
31.2456
24.4063
6.76006
10.8156
14.3691
-10.4151
-49.0522
-47.4369
-12.8893
25.3337
42.3166
53.675
56.1724
27.7689
19.6079
57.9691
112.169
24.0239
-49.9154
-57.9499
-35.0372
-4.9464
11.7294
64.004
83.8762
49.9603
11.2363
-32.5452
-80.0526
-125.662
-0.507713
36.1521
-31.9969
10.8895
101.18
57.2867
-61.4787
-58.9572
-39.1
-25.8348
-1.30632
29.1433
63.77
34.7461
-21.3112
-94.9866
-137.458
-114.526
-79.4946
-25.5918
-5.39148
15.8287
17.7072
24.6192
40.9852
36.3624
64.456
104.826
66.8246
16.1131
-21.1687
-27.3539
7.40272
45.9744
41.8584
59.018
100.969
189.286
146.085
-9.52346
-122.634
-131.866
-77.8906
-59.0925
-80.9092
-94.3844
-91.7729
-77.8797
-46.8877
-6.82971
26.2736
59.8786
53.7449
-14.7329
-28.8031
15.7511
24.6343
-13.7795
-7.62908
68.7183
58.324
-0.640646
-50.6523
-64.9869
-68.7662
-14.8539
50.6115
89.1113
113.08
50.6877
-33.8571
-55.74
-45.5093
-4.38428
20.4772
14.8294
-14.1461
-66.4729
-70.8744
-29.381
10.1863
37.0168
86.92
123.889
145.622
120.286
41.227
-55.2599
-73.7705
-24.9305
18.3298
-29.2534
-59.9822
-53.5504
-67.3624
-117.794
-114.219
-87.0046
-64.5504
29.0558
112.604
81.3698
82.0176
38.7545
-102.285
-93.7843
-20.5154
13.167
28.1666
48.4313
95.9068
84.3135
11.4196
-24.333
-6.80807
29.5969
50.6845
32.0185
18.7313
7.97601
-34.0479
-27.1471
-15.7397
-35.4737
-13.2775
-31.4425
-70.216
-77.2562
-52.272
-26.6409
-28.8137
-9.83096
14.9076
6.03013
-17.2166
-22.9567
-16.3131
44.9847
106.763
47.5305
-1.46867
46.8661
59.5154
26.7628
50.5203
37.3405
26.9865
63.7562
26.9414
-20.9706
-38.1098
-38.3903
-9.28182
17.9263
6.7957
44.1036
38.1587
4.12703
3.10402
4.30485
0.130517
-67.957
-118.425
-87.8625
-87.0838
-140.583
-121.993
-55.4686
8.37641
25.7328
10.2352
28.6568
44.806
33.7728
58.2879
72.768
66.1185
23.3382
-17.2444
-8.71197
0.284825
22.1353
69.7938
73.127
77.1301
100.205
80.5215
9.11284
-35.3758
-46.0026
-50.387
-65.6199
-87.545
-81.7412
-48.2704
-35.6738
-21.9763
-9.02943
-42.9848
-38.6865
-30.0068
-33.2892
-26.7785
5.80301
98.6684
133.712
72.3554
-0.885655
-12.9182
6.87043
-12.2221
-34.6686
-24.1697
38.0086
24.2797
-17.2638
-0.283234
13.7926
11.0627
24.9677
10.4957
15.4742
23.1292
4.91367
-41.7032
-50.9351
-35.9326
-24.2218
-10.3314
0.981713
39.2618
56.8618
12.6011
-55.4611
-45.659
12.4795
25.5898
15.0448
36.63
-3.66999
-58.9277
-36.9213
-1.26803
42.0677
22.989
0.116488
43.08
54.9694
36.7634
32.7576
-1.88954
-13.2176
16.9825
39.1904
19.9308
-37.4595
-95.2247
-98.326
-83.6883
-70.5554
-67.6168
-73.456
-17.9379
-0.666041
4.92916
61.2958
83.9111
98.3919
78.0773
43.4466
42.7391
46.3213
-20.5299
-85.0452
-50.2377
62.7422
25.8569
-45.0508
-39.1137
-1.67328
56.817
121.033
72.9449
-23.9141
-34.443
-40.5506
-71.6795
-98.2256
-101.32
-86.939
-60.2278
-35.3534
16.5515
37.5082
28.2428
-28.3556
4.21828
80.3557
94.4796
46.9965
3.63784
-27.6636
-26.6289
6.76894
20.4523
11.8955
31.4795
44.6881
50.8475
49.8757
27.4599
34.3368
64.8024
46.3681
6.61808
-40.1385
-72.1222
-70.5896
-29.2506
-5.50698
21.2936
53.0538
95.332
78.9615
-19.5264
-57.1742
-76.9923
-60.4108
-47.2524
-73.674
-62.2475
-60.167
-65.5932
-18.8083
-8.56777
2.94757
32.5848
-19.989
-65.7707
-30.8543
10.2645
-22.9082
-38.6069
-0.364927
26.6961
15.2201
49.0776
48.7463
-1.46999
49.8398
79.5407
26.3434
-2.90235
6.15598
-0.632869
-28.8789
-51.3359
16.0617
90.0221
114.861
112.669
85.9408
116.376
39.8186
-13.9133
-14.102
-8.16647
-15.06
-40.8173
-97.8252
-107.8
-82.6775
-60.5265
-82.9533
-109.313
-54.0928
23.8943
43.4464
21.7753
40.8423
31.6874
11.4499
-45.132
-31.3328
13.2566
-2.04212
-74.0902
-60.3133
11.1758
71.7341
33.4231
-15.3801
44.7783
121.166
138.921
91.6947
46.6119
41.1927
13.8592
-25.0158
-48.7139
-49.1811
-98.3841
-89.7404
-58.8016
-47.9926
-23.9499
-5.4578
-3.99022
-22.0271
-6.78566
41.1858
22.7631
10.1297
25.7689
22.3323
20.1155
-18.8448
-29.8607
-43.3432
-53.9508
-48.4
-46.6263
-6.97431
46.6165
72.4004
75.1193
60.9636
31.9386
18.2739
29.4172
29.1748
16.1889
14.9324
20.5481
11.3545
-2.41655
-16.8207
-33.9677
-54.1186
-43.6142
-22.0366
-22.0478
-23.2061
-31.3878
-14.8889
0.830597
7.72497
21.3405
24.5543
-2.38349
-10.9253
-11.4618
-5.69583
17.0353
53.5852
81.8924
41.8312
15.5063
-10.0123
-17.8873
-29.7841
-48.3361
-15.9543
4.2999
-6.09658
-32.9598
-34.5637
-18.9742
2.33977
40.792
51.9764
-5.92053
-58.7829
-69.3808
-53.8414
-55.6532
-30.8078
14.6694
28.5869
33.571
32.9575
48.8925
12.5055
-1.76308
21.709
42.5826
63.3521
68.3463
31.7362
-2.01384
-17.0949
21.2447
9.21764
-30.8546
-62.4147
-64.6489
-57.332
-37.1234
-10.0974
1.11493
15.0047
28.9075
60.5037
65.4841
29.0222
-24.0262
-34.8347
-23.9421
1.68454
31.37
33.0187
-21.1426
-50.9663
-77.8152
-120.733
-68.5728
45.8782
111.867
64.699
25.4971
22.4573
32.0758
1.90487
-26.7687
-41.8177
-51.3944
-34.2411
-35.1332
-54.9536
-62.7018
-32.6938
15.2864
58.385
105.806
128.699
113.237
37.208
-26.5252
-7.70161
37.1364
53.6275
13.7494
-19.7525
-28.9082
-10.5645
-2.8635
-19.1579
-29.9568
-32.1972
-47.1947
-62.8873
-60.4324
-38.2137
-15.3285
5.09201
4.64163
-2.30637
-15.5019
8.16173
14.0706
-8.5746
-2.95013
26.1346
42.7375
48.0487
50.8509
20.381
-5.19852
-7.93581
4.73919
22.7151
33.8703
38.6175
40.8372
39.9624
21.9184
7.10765
0.851671
-1.96926
-21.2828
-40.5887
-52.811
-56.8293
-51.5401
-49.0503
-11.5407
-6.91773
-11.418
-13.4939
-22.7208
-32.6899
-39.8024
-40.9443
-27.8569
-16.4264
-29.4339
-43.6451
-47.4496
-32.8978
-18.7961
-11.1963
1.74674
3.00866
-15.5524
1.63251
30.4071
48.0067
70.8336
84.7797
94.7318
86.1129
60.2079
10.1636
-31.575
-9.32586
46.9071
84.3256
81.6854
64.0759
79.4296
98.6299
105.089
53.3618
20.8798
25.5495
32.7961
20.1608
1.76799
-12.4887
1.76343
-25.2351
-99.5514
-128.568
-133.995
-139.012
-127.951
-105.284
-75.6581
-57.4765
-59.101
-98.6501
-126.644
-92.6227
-44.652
-33.9
-36.6238
-17.3342
14.2474
31.0449
20.737
20.1738
56.5347
92.2195
119.049
67.411
-13.9151
-65.4357
-92.2341
-60.6431
-18.2565
13.6701
13.2479
39.7719
53.265
61.2674
61.7127
41.4331
3.73003
-7.81116
26.9143
80.5263
131.495
121.931
91.3997
115.885
109.201
106.498
136.572
147.63
138.025
145.471
153.016
67.5934
-47.9271
-127.659
-147.297
-153.829
-144.16
-145.825
-172.258
-179.122
-150.227
-118.821
-75.5472
-11.1464
-13.4909
-91.1017
-200.125
-236.576
-211.286
-137.075
-49.7246
33.6367
79.1836
104.771
106.994
98.0632
91.7374
97.8329
100.782
51.9997
11.7306
15.7721
35.327
28.8555
51.1744
96.757
129.022
157.58
193.634
170.318
102.445
60.2803
28.042
-11.7182
-60.8606
-72.2981
-83.0562
-102.201
-106.473
-73.9055
-84.6322
-96.9109
-124.311
-137.079
-92.4885
-60.6822
-24.1021
-22.2131
-66.8283
-73.5137
-44.666
-12.0687
42.6257
83.2739
97.7737
114.651
89.723
33.9155
11.554
-1.77238
41.674
70.9654
57.4645
63.2276
113.561
147.753
94.228
-28.346
-138.534
-147.704
-82.2763
5.5746
84.702
102.429
43.7108
-43.9564
-40.734
18.8407
41.6141
47.6654
40.7328
36.389
16.28
-25.7754
-86.4462
-122.644
-178.687
-199.04
-159.329
-63.6758
-24.3417
-67.8758
-74.9178
5.66822
70.3586
23.7904
-7.30736
6.85093
40.6793
28.2916
-0.15439
15.0194
78.8204
64.4792
-1.2678
-87.0337
-103.827
-20.2557
136.753
182.556
136.293
67.4337
73.1111
58.9381
-3.12914
2.31851
27.8187
32.1173
11.072
10.1963
-2.69622
-36.747
-76.8276
-84.3851
-26.744
77.3548
188.761
201.62
49.0603
-93.6892
-137.182
-98.7634
-87.6389
-140.533
-117.399
12.1094
100.478
92.9854
29.4761
-1.55313
-17.2664
-25.0382
-5.73308
-12.9432
12.4192
67.4234
35.1598
13.2962
11.6775
4.56403
-19.0696
-112.638
-223.218
-213.946
-150.591
-17.1318
38.2185
23.3144
46.6955
91.4866
76.9713
17.7254
-9.59986
23.8153
-57.9024
-163.097
-209.556
-180.866
-28.5557
110.693
174.954
267.514
282.283
323.827
298.778
141.881
105.598
5.37937
-200.908
-240.736
-194.953
-125.525
-73.2265
-62.8454
14.129
220.175
291.545
103.742
-23.9197
-13.8861
-93.4441
-247.596
-248.933
-233.861
-117.147
-26.4108
-135.383
-155.223
4.65562
123.434
195.261
240.583
232.584
177.942
77.0413
-62.9145
-132.339
-94.7904
-86.4474
-97.3883
19.0685
117.363
87.0438
-21.9997
-62.1601
-28.9626
-81.8094
-50.8008
10.8787
27.0373
20.6977
7.02537
-0.864492
53.591
134.26
62.1315
12.229
24.1462
-42.1732
-157.76
-180.065
-72.8825
72.7811
155.179
91.1015
-7.59685
67.0648
91.8417
36.0885
-17.1486
-44.9616
-74.2733
-76.9467
-95.4405
-115.194
-91.9353
-39.8495
40.8299
107.493
79.8664
2.88438
-22.8893
-14.329
0.403664
31.4275
36.0413
65.7695
100.001
108.894
53.6544
-25.8687
-87.0982
-120.275
-132.595
-140.601
-121.972
-64.4263
-12.438
39.4334
96.0255
124.676
96.9657
41.7834
5.81044
6.93814
-6.49174
-13.9806
-2.19384
-15.7903
-37.0735
-7.89225
41.7539
60.8045
51.2983
31.1384
22.8479
21.1299
35.9061
25.2659
-3.55605
22.54
57.1109
10.4593
-5.15588
-30.2744
-43.7457
7.87296
20.9723
-4.99821
-40.7906
-47.243
-9.05487
-12.1937
-59.0065
-56.4915
-38.8792
-5.55487
-12.848
-36.0414
6.99189
7.26386
-24.283
-7.09082
-6.62391
-18.0695
-65.1004
-105.312
-78.7043
-42.7543
0.966416
45.6874
88.9142
87.0835
71.1436
12.9101
18.335
52.6694
69.4258
67.1587
0.402421
-71.6254
-79.1881
-27.9986
-45.1045
-55.5421
-5.63575
-22.1653
-50.521
-32.1243
20.7852
35.432
23.6061
41.4307
94.8417
116.512
51.1644
57.3105
84.0682
-8.44663
-24.3609
37.1351
113.208
225.694
303.366
249.62
56.8984
-144.695
-201.885
-192.626
-142.82
-173.779
-228.594
-198.759
-163.59
-140.492
-115.076
-82.1049
-47.7425
32.5479
77.1538
27.9262
-87.9222
-159.752
-132.353
-70.0486
89.394
248.566
201.738
60.3147
-1.42654
61.0413
106.563
147.085
120.303
54.437
87.9109
92.4559
92.1263
127.655
104.381
72.4684
45.6491
-64.1858
-158.574
-176.208
-142.121
-108.275
-68.651
-7.64408
-8.89848
-58.8412
-95.9523
-145.013
-114.394
-42.9794
-6.28182
6.93126
50.4085
65.442
69.2771
94.4367
113.637
103.165
109.516
126.548
185.985
184.897
96.8459
79.2737
41.6435
-13.5947
-53.8958
-122.672
-177.873
-195.921
-160.783
-140.418
-157.981
-145.459
-175.349
-144.362
-90.5613
-169.993
-155.02
-107.355
-135.71
-89.4273
76.9803
211.848
255.041
265.716
254.085
286.234
318.897
286.062
151.289
81.3373
-64.4696
-220.386
-175.848
-155.354
-120.048
28.2146
126.094
203.467
152.686
41.9066
-55.1935
-144.321
-172.707
-160.988
-125.451
-81.1043
-119.567
-80.7757
-29.7938
-57.5861
-46.4553
5.17152
12.1432
93.5369
114.32
82.0638
24.9753
43.8035
91.2743
71.6561
85.5173
96.3323
47.1937
13.7162
8.76662
-29.4175
-51.4065
-49.6076
-60.4496
-63.2007
-68.1783
-53.4725
-18.0736
-49.3773
-101.494
-66.1957
-59.1811
-78.9815
-37.8449
60.5417
68.943
-25.062
-66.6212
-46.182
35.2799
26.5321
48.106
119.367
149.058
135.049
159.505
135.669
42.412
-36.2001
-9.42851
4.04932
-8.76632
-84.9444
-161.259
-188.389
-128.963
17.2337
77.22
41.1771
-90.238
-80.9721
15.6037
59.7304
69.849
64.3593
78.5356
117.31
76.7665
-1.7001
-46.7139
-70.4433
-86.1968
-60.7393
-42.4536
-30.57
-7.92375
-12.8982
23.7758
1.65816
38.9356
91.8764
49.9414
-9.69979
23.0334
56.9765
13.1118
-15.5392
61.5764
14.2368
-34.0965
-26.0739
-50.3595
-131.061
-131.425
-76.4104
-19.9913
37.2877
-17.2356
24.7787
7.51646
-57.8694
-70.5862
-50.78
-30.3658
-31.575
-25.3631
9.55621
-18.3629
27.5503
93.6843
133.519
173.666
148.178
94.1328
34.3148
40.9951
7.02209
51.5663
79.6733
31.3488
109.295
138.642
57.9635
-38.7649
-142.678
-275.896
-376.636
-319.144
-168.735
-57.4599
49.2003
98.5996
72.7731
46.3103
98.4616
132.912
74.0874
73.8512
133.241
65.8369
-82.3472
-95.6453
-63.2952
-90.2471
-108.51
-60.923
66.4551
116.055
118.023
71.7122
23.3236
19.6093
70.9068
77.3386
6.17545
-88.7119
-140.6
-204.41
-236.168
-120.121
-20.3566
21.0799
17.9357
11.5987
65.7747
147.575
194.272
227.05
200.115
185.591
74.8449
-52.2692
-102.189
-109.303
-112.169
-109.713
-52.5638
-65.1451
-114.741
-93.5314
-61.6395
-55.0776
-36.6553
5.27532
68.4859
94.1235
60.651
-19.4295
-72.9908
-86.8399
-41.5008
103.716
152.938
122.562
52.3974
44.605
38.4162
30.0118
-11.5237
23.7622
51.2979
-15.9782
-51.5855
8.19204
53.1666
7.27609
-65.4614
-85.8472
-83.4279
-76.0292
-85.6352
-109.348
-62.4909
-28.9548
-25.6245
-52.0269
31.3641
42.9709
38.5383
-4.16235
-50.6394
-4.67406
58.5539
45.764
19.7178
42.8162
56.1718
39.834
43.7102
51.5396
37.4656
55.923
12.7976
2.2621
5.04846
-49.6582
-122.471
-58.9069
44.6161
70.7616
79.906
96.8799
137.514
181.866
159.657
85.5099
-8.25354
-15.7428
-0.0109311
-123.77
-245.539
-343.597
-307.734
-158.059
-17.4419
92.1922
91.2263
66.6538
36.4334
-21.1685
-92.2951
-122.179
-102.779
-101.307
-47.8865
66.86
77.0836
20.8917
-12.9333
31.9369
72.5842
71.6769
74.7003
56.1378
86.9782
87.8359
59.9329
12.6226
20.6325
72.1755
124.358
123.615
61.2416
19.0296
-32.7715
-57.4583
-39.4492
-42.1999
-55.1872
36.2553
119.112
46.1677
-13.1136
-57.2926
-77.8411
-75.2808
-45.6995
11.5763
-1.50621
65.6766
126.573
-27.5348
-187.785
-239.491
-219.548
-139.958
-30.9903
1.2898
-12.8055
-97.3341
-154.571
-83.9241
21.1826
80.8593
98.9823
82.2223
80.577
52.0942
112.722
79.6859
-9.11034
101.823
160.958
91.7102
29.6252
31.4879
21.6563
-13.5198
22.3839
120.188
109.071
66.6624
20.7974
23.195
-9.06388
-64.2676
-92.7191
-92.1423
-131.36
-169.23
-75.2458
30.1128
26.7301
-8.29102
8.0414
-1.3427
-35.448
14.3181
74.9821
113.066
117.956
67.4481
54.2537
3.1498
-89.89
-151.481
-152.152
-125.021
-136.46
-133.373
-166.123
-197.041
-146.94
-46.8706
19.0182
51.0474
106.805
115.748
60.6974
-11.4451
1.56844
70.0924
104.201
155.231
193.779
168.01
136.543
98.9389
90.6057
80.2135
20.9495
-0.571502
33.5273
61.1328
51.6478
33.5981
3.77564
0.987206
-17.5567
-64.5104
-67.77
-75.8952
-98.7727
-165.473
-180.972
-146.238
-103.639
-78.0677
-80.257
-78.7927
-45.6049
3.93084
47.5516
61.4782
87.115
91.469
47.321
17.4725
79.7583
114.774
103.169
90.5352
12.6811
-32.934
-52.4657
-63.7296
-58.5893
-38.3905
8.74557
43.7595
28.8803
-22.6766
-59.3821
-63.0579
-102.778
-119.046
-106.993
-99.4674
-73.1591
-63.6644
-56.096
-15.1371
29.714
45.1643
71.166
112.193
166.619
178.136
161.564
162.035
135.782
95.4639
48.201
24.796
18.2794
8.2755
20.6638
27.8773
-45.3062
-82.5197
-79.2445
-97.0457
-93.7822
-92.4859
-85.4747
-63.9229
-53.1991
-43.4418
-53.3644
-58.9715
-64.06
-98.027
-131.758
-121.05
-62.1482
35.8109
87.6041
89.58
139.512
238.581
315.801
297.576
164.602
-3.69674
-44.0112
-44.7424
-40.3137
-75.2044
-74.2232
-72.795
-21.0744
81.9571
176.541
83.8682
-82.2077
-237.432
-277.729
-198.579
-147.042
-185.289
-222.094
-139.267
29.2682
123.606
99.9738
78.0333
37.1159
9.04095
-30.4747
-20.6468
-26.1932
-15.7111
28.1758
129.242
202.533
190.935
169.508
126.08
71.338
2.88837
-54.9846
-80.5963
-84.1662
-19.1601
14.065
10.8318
7.89505
36.2429
77.5448
60.466
15.5749
-20.8038
-31.2687
-35.98
-68.2523
-87.8386
-70.998
-58.1844
-68.7908
-39.8601
4.15868
27.7348
23.0051
66.5199
121.743
124.747
107.998
55.2565
-57.1232
-127.579
-115.025
-25.1687
64.0389
172.617
225.206
288.046
248.868
104.016
-87.316
-216.776
-274.609
-317.016
-325.569
-359.237
-281.391
-232.159
-203.674
-64.6204
53.8511
131.715
142.872
71.5981
-19.8836
-105.247
-131.512
-119.895
-80.3915
-7.78961
126.476
238.48
293.98
293.575
298.164
303.688
228.005
198.28
165.785
122.05
90.9514
38.7856
-2.96772
-61.8522
-99.1568
-99.1324
-105.851
-113.037
-113.11
-124.265
-120.223
-108.084
-104.545
-97.2932
-57.1528
-7.87034
-2.11486
19.1633
58.2053
88.1038
69.2091
24.0274
-28.0015
-62.4716
-80.265
-103.238
-113.544
-129.322
-91.105
-35.5941
12.0918
55.7562
43.9707
-4.12243
-11.0713
5.22832
4.33679
22.4506
6.42874
-16.422
30.6363
113.078
165.789
185.966
91.9485
2.95398
-25.7639
-54.8547
-87.6926
-86.8118
-24.4784
31.7914
68.7978
78.6457
34.8348
56.4503
-14.1429
-126.952
-58.2098
63.8041
115.036
15.305
-4.23819
25.8208
-8.04261
-73.4427
-112.805
-47.4763
27.415
84.0431
70.2811
0.0318971
-44.7697
-63.0438
-87.3998
-123.409
-82.295
9.08329
-4.06223
-96.4311
-134.381
-97.2949
-116.779
-128.099
-48.5203
49.0999
137.995
151.998
161.785
159.023
119.309
82.0253
60.4198
65.7052
91.3074
87.2335
66.1227
22.0862
-8.66691
-1.0119
-21.5134
-21.1438
-6.12735
-15.1149
-27.3614
-63.8275
-72.1488
-19.1561
-3.75644
-11.1918
28.6206
89.6361
146.913
181.084
88.1408
-115.703
-120.474
-50.6118
9.84696
-3.90611
-41.2524
-70.7634
-181.077
-246.391
-208.821
-92.8456
-22.5796
-26.8573
-11.549
-15.6982
-48.4975
-73.9603
-80.5745
-78.0751
-26.9684
95.5731
103.378
30.6558
-63.9337
-84.4865
-61.3932
-47.1587
16.7802
101.293
189.862
232.904
238.182
259.586
259.829
200.577
121.619
69.9857
17.658
-14.431
-43.5837
-51.8973
-49.101
-27.7026
-44.4436
-39.8795
-19.0662
1.19063
30.7774
48.489
36.7005
-36.4172
-137.794
-299.857
-375.693
-348.859
-242.671
-33.4965
68.3879
69.3512
163.6
292.509
288.008
155.086
-89.732
-287.641
-275.434
-145.426
-53.9708
-1.37878
-13.517
-11.9827
92.8995
221.196
295.04
264.484
210.7
171.528
157.543
6.91638
-192.188
-318.397
-333.537
-207.524
-30.5353
29.9889
-4.01786
-14.5666
-19.9706
-15.5517
42.7706
92.311
50.6655
-33.8206
-104.334
-67.839
-20.3987
-44.9554
-65.4407
4.63326
70.4835
94.0261
151.09
150.777
130.785
132.22
141.001
118.561
89.4462
3.67427
-87.8026
-169.524
-164.18
-60.8813
29.64
64.757
12.7747
-74.5593
-121.471
47.6229
170.596
61.7643
-82.5734
-103.831
3.7488
88.0785
91.9186
121.714
113.356
99.195
31.8182
-84.6333
-191.106
-265.93
-305.735
-239.837
-140.869
-121.969
-116.338
-174.89
-168.553
-27.6979
100.819
177.724
173.757
163.463
160.962
39.6495
-35.559
-23.2855
51.0469
152.899
168.518
171.862
229.122
219.592
140.53
15.453
-44.719
-79.1317
-102.942
-86.6975
-77.8865
-75.0406
-70.2589
-66.5641
-77.3133
-98.1084
-98.2331
-108.261
-103.704
-88.7329
-45.6289
-35.669
-100.022
-124.523
2.10314
171.169
278.46
339.931
249.306
222.665
235.831
43.0892
-26.4292
7.34695
51.6668
33.9252
6.93068
-69.2663
-129.388
-106.808
-69.4535
-89.8528
-179.765
-256.109
-308.557
-301.774
-258.287
-214.352
-90.7021
-47.7698
-51.2309
78.1948
165.602
129.927
4.41422
10.4712
99.4138
121.853
155.316
244.647
303.513
237.388
101.822
64.8546
42.2013
44.7028
17.5366
-37.8125
-52.8443
-35.7908
-60.3843
-34.9469
-30.7355
-13.0801
50.7089
79.3734
121.128
231.291
247.118
80.6685
-77.9635
-232.823
-183.161
-71.384
-155.369
-258.23
-203.754
-115.863
-21.8603
62.232
40.0168
-55.1851
-172.095
-245.602
-195.224
-101.175
-51.2947
-18.3534
6.83829
41.3196
68.6434
163.748
233.483
217.589
164.627
134.075
94.9011
89.252
34.5168
-97.1045
-145.977
-102.831
-26.3745
105.246
152.654
101.397
1.50143
-64.1627
-100.806
-39.9695
41.398
108.046
89.5301
-18.0045
-32.7404
-4.2395
-31.2982
-66.5866
-78.5759
-98.2058
-70.3079
6.00429
99.0786
188.43
166.009
75.5864
-48.7151
-126.361
-128.06
-105.966
-101.314
-89.8305
-47.6626
6.17951
64.4024
109.139
115.881
68.9752
-4.80549
-11.9201
6.98924
-3.05397
-26.1391
-119.183
-175.294
-161.83
-87.602
-31.3968
-22.0784
-25.3362
-72.1394
-59.9666
-16.5673
21.7812
95.4072
165.46
162.42
166.976
240.376
275.492
210.334
53.6355
-72.4528
-152.819
-155.125
-130.43
-58.2677
-32.1885
-35.0267
-31.4433
57.9611
151.735
101.533
6.56822
-48.0296
-139.886
-186.955
-181.044
-175.486
-138.782
-35.8234
79.153
140.594
99.5526
43.6484
33.3854
3.39346
16.9004
65.7877
60.3847
2.39159
-40.4324
-0.742545
-14.6923
-51.8898
-23.3944
57.0716
138.049
138.019
93.456
-0.875414
-133.132
-173.593
-77.2293
13.3316
44.4082
12.3405
-6.79605
-28.3007
-4.09177
84.1304
70.7547
4.64079
29.882
30.7523
-15.2281
-53.5855
-99.6125
-135.653
-159.192
-145.402
-57.2967
-10.2552
50.9081
55.4622
12.0864
41.7301
95.1715
125.418
165.174
116.069
25.4733
-32.5843
-63.4576
-81.9528
-53.6453
2.86351
50.1039
103.299
88.4961
141.981
201.931
143.764
-25.1691
-103.938
-48.718
-26.1273
-101.114
-160.745
-192.27
-200.86
-119.427
-36.8849
-0.86962
2.83917
-16.7049
-67.3229
-44.0951
64.9382
161.029
101.726
-8.20334
-32.9167
-16.9232
-6.42493
26.8425
55.0945
54.1904
51.5022
25.3745
-4.29029
25.9849
50.7629
24.158
54.5263
37.1219
-31.8057
-96.2492
-182.286
-174.567
-108.29
-22.4834
38.6601
88.4081
111.402
98.8744
78.2963
57.1555
39.7852
12.6209
-11.3274
-93.5772
-54.4517
102.607
114.387
56.2639
42.8423
65.228
66.857
12.1498
10.3324
-17.7513
-93.5257
-107.634
-110.972
-142.908
-156.503
-147.58
-172.69
-141.343
-62.3165
53.3146
64.3784
20.52
56.5371
168.649
270.189
189.766
69.3454
63.9868
61.5226
84.1661
71.4344
-4.02939
-54.6857
-64.2154
-52.0091
-28.3509
5.53528
33.2204
11.2817
-18.1484
-33.6549
-113.111
-156.731
-113.801
-59.1435
-24.1191
-6.57883
-68.5612
-105.428
-70.7882
39.436
100.697
158.317
175.245
125.09
-0.234513
7.70925
-42.3476
-92.4866
-58.8239
-6.12638
10.2646
8.7213
-34.9069
-140.175
-165.946
-151.113
-112.738
-32.0769
12.7588
27.1908
65.6031
125.625
145.837
130.886
158.762
106.998
103.452
128.137
114.267
81.8726
87.2696
52.0164
-30.0426
-44.3364
6.96262
23.164
-5.19987
-26.7177
-97.9953
-132.999
-81.3174
-66.2173
-30.4372
28.2874
71.9859
28.6233
-20.6917
-42.4087
-152.014
-206.882
-126.421
12.2799
114.756
149.744
138.712
55.6334
-78.9762
-175.277
-206.857
-222.699
-254.503
-228.103
-198.229
-160.826
-65.6982
17.4969
88.2078
147.915
232.854
341.084
338.239
189.091
36.4007
-6.26714
-48.6635
-56.6178
10.1022
94.6657
163.092
216.804
217.14
190.563
148.314
56.6642
18.5329
3.00881
-33.0442
-94.7249
-159.613
-298.473
-350.907
-221.549
-113.934
-70.7344
69.4789
259.166
315.831
182.115
89.891
-18.9799
-112.749
-165.555
-163.097
-103.377
-70.7091
-87.0715
-102.594
-46.4116
-26.4501
-19.3663
-12.9172
-65.0332
-120.338
-123.295
-146.219
-178.571
-163.394
-108.215
-9.50732
111.982
206.542
226.448
221.099
191.45
134.098
114.181
90.3581
64.0429
85.4524
126.002
102.217
86.7532
136.475
139.361
45.7252
-21.3647
-31.7436
-26.7916
-54.6534
-105.074
-162.815
-215.092
-213.225
-132.222
-25.4941
115.448
208.046
263.195
209.155
107.389
11.5395
-20.3066
-78.1467
-119.392
-184.901
-282.569
-300.439
-248.691
-186.101
-142.236
-85.2387
-59.5662
-111.723
-131.764
-84.9958
-23.8432
25.2359
-19.4248
-22.2468
16.3077
110.963
234.527
318.642
299.074
263.663
329.114
343.225
208.428
57.8239
8.2551
2.51382
11.9864
82.637
138.546
120.587
62.6752
-8.05436
-96.6697
-156.542
-175.054
-212.298
-251.192
-244.725
-192.138
-152.452
-142.318
-90.9635
2.51584
-0.124017
-46.0522
-28.4084
2.29404
-4.9497
-22.8582
-96.878
-140.437
-65.5792
8.46841
57.3058
118.112
127.853
71.3401
76.8991
43.1566
-1.60673
-50.5562
-20.9417
91.4152
300.223
415.717
309.815
207.334
136.794
30.7351
-76.0055
-167.492
-283.871
-309.686
-285.241
-269.135
-128.462
-30.1005
9.01186
54.5003
167.209
324.443
221.259
9.69869
-128.678
-150.759
-114.129
-86.3675
-84.3173
-97.9282
-47.5393
-6.941
48.4945
107.649
125.642
96.2163
36.3486
54.3673
50.8026
-4.9237
-49.4492
-138.836
-144.395
-37.8797
-2.61733
-25.8306
18.3231
52.3178
108.119
134.945
92.3836
93.6622
119.906
117.507
100.675
53.7367
-29.8743
-175.19
-269.687
-228.557
-186.92
-194.167
-132.195
-43.0441
-7.67442
34.151
67.1183
60.9134
69.6728
108.796
105.459
60.361
36.5077
-40.3859
-45.237
53.3761
113.955
159.224
192.587
215.86
197.928
99.4897
2.18717
-67.5191
-129.918
-146.209
-138.986
-122.318
-139.685
-147.476
-77.1394
-23.1426
26.5088
67.433
91.1943
15.5175
-64.6672
-18.3085
0.0724184
-43.0265
-108.511
-181.397
-109.398
-37.4659
1.8411
4.13126
-27.0892
-19.3581
20.0106
58.5309
60.4346
92.3167
53.5174
31.9347
35.3682
111.429
110.286
1.51525
-100.962
-138.794
-53.2069
81.1766
115.013
120.584
87.3064
80.9819
78.4161
73.684
71.9354
73.9176
37.3892
55.2368
48.5683
7.22918
-43.6563
-101.846
-96.342
-125.898
-154.176
-164.915
-162.905
-103.92
-57.1875
-41.4058
-1.87017
29.9341
63.4682
-44.6821
-116.539
-91.5895
-10.906
12.4181
-0.411839
-10.8339
-60.1318
-68.4363
-25.8627
70.6261
193.537
298.148
332.004
317.25
289.577
197.706
99.4669
-50.4094
-119.302
-63.4752
-17.2019
-25.5704
-197.456
-264.656
-233.303
-202.792
-135.729
-56.4943
-4.70213
-9.45181
-24.4542
-67.8712
-78.6072
17.9675
16.7229
-33.9679
-6.12972
65.9954
40.3389
27.8215
18.3104
-34.2216
-7.10724
8.77813
4.12068
11.602
35.012
76.4752
81.2233
79.5077
114.687
159.889
80.2724
-68.3318
-84.0635
-40.7359
-20.9359
11.4618
66.3826
75.0911
103.167
105.436
94.9874
66.6656
29.7658
6.77888
-45.1623
-112.348
-133.512
-84.4317
-88.4208
-150.671
-120.224
-96.0236
-109.394
-140.266
-170.56
-187.92
-143.875
-9.49158
43.3191
59.9171
96.3171
140.895
169.467
168.267
227.029
224.83
148.574
52.6854
-10.7741
-13.6147
-28.2113
-57.8104
-65.0095
2.30825
104.201
153.075
146.54
99.5342
-18.3741
-153.469
-173.113
-109.524
-74.7429
-74.0274
-100.512
-132.123
-108.63
-85.7601
-70.4982
-46.6795
-0.15712
49.7599
62.6636
53.8596
11.3007
-38.7284
-68.8554
-135.268
-139.447
-65.3328
-15.4429
1.9028
13.3069
85.7281
172.76
227.112
219.64
186.203
189.184
203.178
138.528
64.9781
56.9629
16.2669
-43.4254
-39.5218
-11.6847
29.0612
17.8996
-21.3137
-29.0012
-126.55
-234.823
-290.495
-286.783
-222.803
-80.1319
25.0388
-0.211869
-76.23
-91.4363
-83.751
-55.3882
-19.9152
-23.7775
-10.469
-18.6085
2.62114
49.1292
112.126
146.63
145.379
144.906
174.293
185.39
134.865
73.9822
18.3701
-3.53803
11.3327
51.946
81.2125
65.8978
53.6859
44.3476
32.6807
-4.973
-39.9987
-22.2295
-26.2094
-65.0587
-99.2682
-118.832
-156.964
-173.007
-158.203
-202.527
-125.833
-2.44655
51.4018
41.4681
31.1898
-2.38325
-57.2666
-50.3472
2.84963
38.0484
36.9814
32.22
44.892
29.9038
-20.4953
-15.781
45.2947
62.381
23.53
12.7627
14.1354
26.8528
135.216
258.587
313.451
264.26
138.235
-26.0395
-142.862
-180.882
-184.226
-203.932
-178.824
-71.9427
36.59
81.0343
62.9203
4.48447
-15.2586
0.135622
-49.5204
-86.8388
-132.541
-149.673
-162.54
-155.563
-41.251
122.424
191.209
211.541
166.543
106.505
69.5247
19.3608
-51.393
-135.165
-178.838
-174.443
-142.503
-101.029
-84.0852
-91.6325
-81.974
-10.5051
134.938
336.129
433.637
378.302
208.514
8.07787
-98.4449
-122.168
-138.335
-106.748
-38.9621
23.5073
76.5119
101.103
85.3953
98.3462
99.8188
6.62427
-140.123
-213.773
-205.77
-223.255
-259.768
-213.878
-125.517
-35.9938
81.937
143.285
144.291
127.816
81.1363
62.4809
55.0873
21.8125
18.1538
38.3897
43.5543
71.4219
97.2862
22.9704
-85.1024
-132.347
-122.048
-83.7199
-21.0937
24.6102
15.2369
-53.0857
-17.8767
20.6418
57.2405
111.084
93.8023
64.5828
33.5839
-57.3709
-84.9749
-11.709
58.0234
87.8142
31.2028
-65.0153
-97.839
-122.36
-186.113
-162.601
-43.4178
46.8413
56.5391
59.1339
59.0534
68.3599
119.665
208.681
237.121
174.041
110.295
39.9182
-71.9475
-162.549
-180.875
-128.331
-91.4736
-76.5741
-3.25712
25.9296
-6.5739
27.1688
43.8236
-20.1276
-65.8811
-60.2451
-85.573
-130.001
-148.077
-102.822
-74.2866
-35.7141
68.9633
66.4025
11.2159
39.0065
128.457
166.032
151.678
187.408
161.304
126.915
43.9034
-42.3397
-74.5912
-92.9709
-98.7654
-78.0294
-15.1299
10.6818
23.8618
14.4478
-14.5327
-17.1588
7.74594
1.07907
-13.2509
-21.171
-35.6774
-59.156
-76.9001
-109.484
-99.9775
-21.3325
47.2598
103.747
104.602
93.6754
62.5851
34.9797
7.80558
-16.7133
-72.1484
-95.1781
-46.2911
-104.828
-130.687
-61.7706
7.00167
62.502
62.9185
33.6601
55.752
70.3252
35.2524
7.49685
-7.09409
-68.9848
-81.0733
-6.22203
59.1323
37.7992
38.267
101.965
161.313
196.324
168.726
103.636
29.5653
-31.7552
-66.1879
-104.084
-131.625
-124.481
-103.734
-61.5422
6.46926
37.3868
-8.57464
-46.5722
-86.3968
-145.503
-152.951
-189.474
-230.667
-150.989
-74.1562
-1.28666
101.663
170.549
178.901
186.219
201.822
200.138
153.71
35.9537
10.844
2.32081
-24.9263
-8.13409
17.292
48.2295
75.4401
98.4516
80.248
24.186
4.67279
-21.5175
-32.7596
-97.103
-112.312
-70.3948
-69.4984
-128.254
-117.654
-28.8663
-19.1333
-41.2933
-32.3453
-61.7072
-70.8864
-37.61
-7.09768
12.5282
-3.99607
-55.5409
-29.3452
13.1654
12.5978
10.4924
16.6696
9.34973
1.88032
35.0419
15.6312
-39.8316
-0.0962431
71.426
141.322
133.788
95.4661
114.271
137.979
106.757
88.0616
90.9922
-1.43251
-66.9314
-75.864
-13.6305
59.1905
23.4681
-51.7834
-52.2241
49.4583
115.604
39.1033
-61.3865
-147.778
-229.938
-263.336
-241.403
-191.046
-104.514
-10.5529
90.0895
145.887
138.748
71.2197
-10.6851
-78.0293
-67.8363
-72.0631
-69.327
-110.259
-182.132
-161.215
-41.2625
72.6947
182.817
231.08
218.189
160.716
140.608
132.591
100.284
65.2583
38.1919
41.3673
31.3326
-6.89265
-0.419377
28.6436
14.1126
1.28532
21.1087
33.9928
55.4993
62.5827
19.4968
0.59389
-52.9228
-102.488
-158.141
-162.01
-117.909
-80.662
-121.651
-154.099
-116.349
-91.979
-42.8848
-22.3156
-38.7422
-25.9286
-11.0666
4.65208
6.39824
54.538
123.893
161.472
158.111
157.571
93.2483
-11.0468
-56.1372
-92.7965
-83.2153
-40.2761
-17.414
19.4486
-5.2847
-30.9295
-15.1759
14.3605
41.4453
38.0589
-18.2147
-29.1433
39.3251
73.6974
93.2926
174.52
173.461
97.3528
44.4339
43.9112
42.5002
-65.4089
-126.248
-100.623
-16.9193
57.5539
45.3117
-16.4232
-77.2064
-116.872
-130.307
-156.386
-181.532
-211.135
-210.592
-177.412
-77.0627
65.2039
108.019
66.8459
90.6171
172.119
193.621
156.17
88.896
53.5379
78.7972
67.8899
60.7175
65.6644
32.787
-10.5946
-35.4967
-24.4099
-8.846
-57.5119
-66.4122
-67.4699
-75.86
-66.0216
-67.0103
-52.5525
-33.1443
-5.60916
4.51692
0.0320944
-3.9923
8.19659
3.52959
19.0339
48.5702
64.053
58.1279
48.4858
48.8153
22.6836
-19.652
-43.0652
-37.4084
6.27817
21.0214
22.6965
11.2512
-20.5915
-20.6353
21.0058
120.968
146.226
47.7752
-46.6353
-87.3621
-107.233
-129.211
-151.875
-111.954
-58.8542
-3.83342
48.3332
71.3698
47.7886
21.2939
-6.37836
-48.4584
-21.0912
49.4113
32.061
-6.12916
30.0356
54.4738
11.2221
-1.78513
-7.66329
-5.88418
5.03817
-3.94962
-24.7366
-26.5152
-29.1187
-26.8901
-6.57822
-8.80347
-13.4531
77.0999
105.626
62.5038
61.2301
15.5611
-22.6739
-54.2189
-17.7088
25.1858
19.5968
16.1544
35.3838
-6.13194
-13.6808
31.2573
32.8568
1.85088
-30.2724
24.6874
111.745
132.746
30.3858
-86.9675
-137.91
-200.098
-210.488
-139.17
-77.1587
-29.3928
7.10988
7.84687
20.7925
44.3628
43.1708
45.8128
55.5347
-10.0953
-43.9719
-0.998663
14.7068
23.5629
32.1756
45.6899
82.588
76.6498
93.4024
85.0785
10.0641
-63.1359
-48.4473
-6.85287
30.4362
64.6307
80.1016
79.6972
9.15788
20.1299
51.607
19.7728
-12.6829
-144.886
-129.387
-82.6137
-20.7405
23.632
-56.1159
-67.0175
-51.3204
-51.9848
-72.8638
-39.1429
-16.5097
-15.5095
-26.273
-60.9535
-88.2664
-92.4702
-60.3744
-0.396962
64.9403
105.077
61.7445
96.7789
107.801
73.7315
66.0387
35.1784
10.243
21.8322
79.7231
98.035
47.204
44.4915
59.6249
54.8332
65.7948
73.5057
53.1642
-18
-104.845
-127.578
-98.1136
-110.287
-153.581
-105.172
-33.864
25.5998
68.3155
29.701
-64.943
-98.9606
-31.6788
15.872
41.5132
20.4902
-5.06654
-0.904928
35.9037
-4.40793
-66.4737
-65.8295
-8.13172
69.405
106.645
55.1604
-1.93243
-26.4484
-11.9676
44.8255
85.8561
65.7492
26.027
22.7947
8.677
-42.9882
-91.6475
-74.1606
-63.7627
-25.572
34.6535
65.494
79.1833
19.5282
-96.7966
-117.038
1.56736
65.5785
41.36
23.2669
-14.2703
-20.6431
-40.7781
-81.4898
-100.756
-38.2979
52.2258
42.8241
10.5494
22.2708
40.4549
68.9114
45.6176
46.1464
80.9049
49.8802
-13.6446
26.0193
41.7903
28.7658
4.35988
-66.2489
-121.116
-130.113
-92.2709
-8.53286
45.1009
84.7811
89.9634
41.7284
14.456
1.0443
-26.8596
-7.83217
125.248
228.353
173.921
-10.6358
-234.515
-336.593
-212.289
-100.965
-9.36562
67.5437
60.7942
-3.27255
-15.6613
-79.9654
-65.4616
-3.62633
19.0897
24.9579
54.2979
30.2101
-41.067
-73.4572
-102.395
-102.431
19.9331
181.108
178.011
127.34
69.335
49.607
39.9065
37.1549
1.32355
41.9547
101.913
116.915
116.18
40.9404
-34.9303
-151.359
-234.25
-252.758
-216.254
-98.7291
63.7939
177.072
204.171
172.974
105.071
41.2935
-31.7699
-76.1793
-33.8488
-40.8441
-102.116
-120.687
-135.668
-169.039
-175.137
-99.029
-22.4961
105.487
205.219
188.645
148.984
34.9395
-35.9781
-8.11267
3.84957
-66.5418
-83.8947
-73.0469
-15.6483
60.399
84.9329
104.034
112.607
112.685
124.034
102.622
51.5052
-43.798
-111.023
-91.029
-83.9166
-92.684
-150.826
-188.012
-95.519
14.6858
52.2054
59.8967
62.3836
78.7813
61.1919
3.65771
-25.4423
-27.0306
-52.3963
-89.0571
-95.0009
-19.6296
71.9738
87.3713
91.2793
63.7839
69.6824
79.7229
29.1632
24.3694
17.3909
26.2552
14.539
-25.1139
-51.4419
-106.943
-139.223
-71.3004
-19.5313
17.5925
35.9968
4.62529
-39.9297
26.6291
36.2925
23.5302
14.4341
-3.9854
-15.1568
-33.7048
6.33504
54.2598
3.60857
-71.9249
-59.8689
-25.6098
2.79701
-27.4391
-7.13149
48.1784
80.5806
126.928
171.254
132.435
49.2769
-46.5006
-72.6479
-99.3569
-108.594
-67.3017
-66.3047
-103.9
-94.5447
-25.0881
34.6243
51.2891
21.6392
42.9478
56.5936
35.3244
18.8497
-41.6455
-41.5434
-18.6542
10.0266
57.8798
68.5405
116.875
135.637
93.9491
23.5031
-41.6357
-77.7845
-69.0677
-43.7055
-5.4024
25.9315
32.3239
48.1976
24.7192
-36.9451
-75.157
-119.387
-113.388
-117.534
-73.3532
-25.2527
-22.1637
-45.6563
-51.3593
-4.25646
75.2609
36.2698
-85.7581
-105.881
-52.4717
-2.50951
52.9815
68.5816
48.2625
63.9973
116.369
131.969
111.394
130.049
96.6953
56.094
25.7231
45.3344
60.5031
13.086
-2.37198
70.2426
98.0498
6.57788
-40.663
-53.1225
-110.987
-199.774
-178.146
-126.373
-132.769
-148.663
-113.083
-54.1918
2.46545
55.9104
130.544
127.19
89.1853
27.4325
-56.1698
-42.4152
11.2261
29.2657
0.279483
-35.2366
-43.0779
1.1182
34.0334
80.0481
85.6129
64.8831
54.3693
37.7922
-23.7514
-81.8155
-97.3399
-65.6152
-43.8342
20.172
95.1043
121.253
118.809
102.157
34.5153
-24.0754
-48.4441
-67.858
-30.9431
-15.0621
-53.3579
-67.8353
-61.7861
-57.4829
-28.0265
-29.1223
-28.972
-48.8929
-86.917
-25.9973
35.3186
52.1225
53.494
52.3909
54.3125
63.4959
82.1874
106.182
78.2342
38.7746
23.8868
5.53452
-60.6986
-70.2353
-8.36117
-7.38454
-34.0185
-17.6139
16.6444
-9.80338
-51.3466
-85.2799
-81.9677
-54.2156
-9.8379
5.40342
-7.84483
-22.7474
-13.8567
3.19131
16.5217
-12.647
7.04286
29.5202
4.98364
21.774
53.5167
56.9455
24.5829
34.7426
57.6029
65.7584
23.0289
-14.4178
8.71903
43.6108
42.8283
9.68047
-2.36769
-27.5155
-31.1891
-12.9122
-39.1772
-60.6182
-69.7701
-78.6492
-119.628
-131.037
-118.403
-73.8994
16.786
90.9908
151.48
146.555
127.507
52.7548
-38.4547
-80.6783
-66.5415
-89.4352
-34.3282
59.831
113.269
113.334
75.33
65.9637
22.5946
-40.955
-16.5887
-12.7358
-54.6039
-83.9014
-94.1643
-61.7644
-19.5938
19.3048
71.435
97.5333
58.1693
39.233
47.7647
33.5671
-42.5834
-91.2684
-80.3863
-47.0626
-12.7765
31.5127
19.0208
15.8765
9.22206
-27.9966
-23.4159
-46.5886
-95.3264
-82.877
-19.0698
59.689
102.269
122.232
115.945
81.817
62.387
-18.475
-75.5336
-54.7082
-19.736
0.474751
19.2788
-30.3844
-94.5584
-80.359
-59.1023
-9.4872
56.0016
94.0435
117.17
71.5929
23.2831
25.6638
-20.3299
-90.7069
-104.514
-81.4609
-113.021
-106.159
-74.8041
-36.507
4.49809
-14.6548
-24.93
-23.2575
-8.34188
5.865
34.4937
59.537
73.091
130.041
169.804
201.683
196.906
101.848
16.9596
6.65461
29.9825
-34.8693
-102.122
-123.731
-84.2563
23.2431
60.3018
71.8883
41.2764
-21.8258
-34.141
-30.6611
-52.0188
-81.0605
-125.185
-208.33
-278.701
-196.65
-45.0588
32.1025
51.6417
83.7259
104.621
38.6471
-23.0996
2.28948
43.5096
65.6145
68.3801
96.071
123.257
113.169
73.0834
19.81
-7.29717
-4.7094
-7.89149
1.55088
-15.6076
-35.5065
-45.9933
-44.3657
-14.8978
16.6132
0.785697
-57.0309
-42.415
-11.9967
3.4488
49.5366
61.2743
34.1693
-18.2351
-66.1257
-121.346
-119.82
-47.7339
-1.27124
-29.3138
-8.46978
79.7564
120.263
86.4027
103.27
146.271
130.849
9.36488
-70.86
-64.3059
-83.286
-119.966
-135.823
-80.2187
-14.1297
39.4458
85.1344
99.9989
40.3672
32.4781
79.5973
59.219
20.675
17.8248
-9.57546
-61.5025
-91.8795
-81.7214
-109.933
-106.369
-104.64
-107.365
-44.9216
10.2054
46.5182
38.4912
-4.334
-16.7449
12.6597
18.4089
-22.8541
-20.5337
-15.0021
-26.8353
56.3259
127.944
132.7
207.616
257.584
225.215
169.033
88.2182
-9.12039
-72.5394
-100.285
-91.5667
-66.9735
-74.0219
-90.0191
-91.7738
-82.6407
-39.4636
-21.9292
-43.7856
-107.398
-186.635
-162.824
-131.683
-129.803
-124.929
-75.3278
2.00192
80.3349
133.012
154.861
192.287
196.452
172.713
194.21
151.43
65.5512
-43.5157
-124.266
-104.351
-107.748
-85.6807
1.55048
49.0701
82.2005
115.95
90.5765
23.2424
-24.1268
-63.4203
-110.068
-148.966
-147.31
-105.349
-70.947
-5.53931
59.4025
82.0191
40.1812
20.6608
52.199
65.5438
5.81872
-36.0027
-62.9753
-77.8252
-91.9452
-76.0768
-9.46074
44.549
66.1663
57.1316
-21.014
-31.3714
-10.223
-16.5171
21.6481
89.4343
119.011
128.544
95.3458
39.867
30.5774
-13.0394
-64.5402
-85.7997
-48.2536
38.6213
66.7576
28.8846
16.0203
61.9507
92.818
32.3673
-40.7011
-48.129
-6.38006
-21.2575
-56.6594
-108.968
-148.929
-67.704
-37.762
-96.6065
-85.1553
-1.55983
-17.9057
-43.1538
-33.8511
-39.1924
-49.3047
-61.2686
-18.2131
61.6837
124.973
120.251
80.4235
48.6643
68.1067
51.4154
26.8921
-25.9275
-48.2655
7.0597
10.2355
-32.9259
5.50774
15.0933
-9.03027
27.7031
99.2075
113.48
122.063
104.815
46.7683
20.9322
65.872
102.804
18.2341
-2.90306
25.6177
-1.80473
-87.2467
-111.828
-93.8684
-84.2639
-103.339
-152.795
-185.658
-173.786
-155.937
-164.85
-86.6202
-39.9899
-83.5443
-50.2296
-41.184
-13.6944
86.2361
138.18
151.038
159.966
184.38
169.012
123.682
99.5384
26.6031
-18.9271
1.68183
-2.7591
40.8496
89.6166
-5.71902
-25.3697
25.4508
-5.23556
-63.8584
-75.7691
6.69937
66.6437
63.0607
58.3519
111.252
109.015
73.0507
14.2674
-18.2046
-55.9098
-133.882
-193.866
-240.885
-245.954
-211.834
-185.409
-94.6763
31.7651
111.229
116.28
56.1398
1.10908
-1.08392
4.56477
-24.6714
11.7061
57.8292
91.8155
97.9222
88.5542
117.848
162.777
146.18
125.894
103.193
77.5439
4.86127
-77.0144
-153.053
-187.648
-178.118
-142.589
-100.685
-78.3728
-72.2307
-68.3386
-80.9257
-116.62
-81.7201
-1.77543
34.192
55.921
44.7614
94.0839
194.035
258.867
339.948
431.23
303.48
111.75
3.08371
-84.1251
-169.512
-230.428
-271.515
-262.377
-196.503
-138.837
-88.392
-53.3632
30.0758
92.9627
118.709
71.4388
-22.06
-106.81
-160.722
-223.556
-161.469
-38.1052
3.87687
50.6163
108.181
130.461
57.7611
-13.3341
14.5772
88.8444
139.014
144.538
132.795
104.348
72.2119
68.3294
65.6352
28.0566
-30.8475
-71.6665
-64.0674
-75.8233
-63.3822
-48.3115
-26.462
19.0234
66.4833
85.4505
38.4847
-1.78859
-18.146
-52.7301
-119.895
-155.539
-119.439
-102.186
-91.1523
-57.1601
13.4492
44.4762
-0.304874
20.0947
93.2223
114.607
71.6162
23.873
37.0232
3.08361
-51.103
-75.7323
-27.8692
31.2406
37.6011
3.30162
-2.0077
0.147583
-0.97294
-4.14035
-43.4598
-44.3494
6.15975
42.8629
27.8178
-15.9592
-27.7181
-13.0052
3.93177
52.3668
89.8086
129.115
114.695
61.9536
54.937
59.3898
16.6135
-2.26177
-4.3041
-21.3916
-89.1503
-170.375
-129.373
-68.2384
-41.1492
-30.786
-27.0619
-29.3758
15.3137
33.7136
29.1321
30.5477
40.5212
-5.9771
-78.1015
-61.6897
-44.7564
-56.6507
-9.6892
79.4074
115.306
96.329
64.92
11.9835
-43.9125
-43.2488
-2.20429
37.0013
22.3878
-20.8222
-30.4239
-42.9342
-73.375
-82.9944
-7.21397
20.4073
5.18546
-4.06501
-58.3708
-111.666
-74.109
10.9858
34.3994
56.0711
47.2792
41.4767
90.138
109.399
108.727
119.289
63.0485
12.6462
38.4736
68.8883
52.3531
11.4871
17.0474
30.7059
42.6114
51.0789
23.2728
-50.3743
-109.891
-133.683
-124.889
-103.989
-113.231
-113.401
-102.56
-85.0292
-36.4494
-20.4419
-36.5916
-2.45728
14.2605
6.19016
23.9215
69.1537
76.4197
55.0452
49.9153
40.9325
40.3037
30.3108
25.1085
24.0477
-17.6324
-46.0289
-44.62
-7.55188
42.8547
77.4151
56.9935
19.5391
3.09985
-0.0313728
-18.6557
-61.0118
-107.041
-140.279
-107.802
-36.6737
1.51379
37.6039
84.6186
130.531
138.411
116.135
113.391
107.293
34.6504
-45.5439
-67.599
-81.8458
-111.521
-110.433
-124.796
-98.5273
-22.3147
55.6936
83.1082
105.522
141.123
119.217
61.773
-1.6792
-24.499
-44.1273
-63.486
-91.693
-91.5516
-66.9761
-23.9106
-5.34208
-17.2522
-0.383037
21.5566
17.592
-1.85125
-0.135819
8.23629
-33.3867
-70.2489
-13.6506
56.8926
54.3397
16.7745
-12.4338
-16.9473
-15.9716
-5.50239
-30.8764
-50.4165
-19.4289
24.7532
38.1302
49.5459
86.3656
130.576
75.4574
18.2244
-9.29422
-52.8577
-70.5504
-66.9418
-30.9159
16.4889
28.3408
34.2955
31.5544
12.281
20.59
-4.92304
-39.9542
-60.078
-61.2123
-36.9063
-50.7395
-85.3491
-71.2273
-58.2803
-6.28171
62.1558
59.381
47.4303
39.6961
106.055
191.438
195.175
110.775
33.9407
-49.8576
-98.5848
-70.5567
-18.1607
-1.88962
-20.681
-55.1219
-87.7288
-91.9862
-82.9626
-83.7901
-71.6463
-64.0298
-45.3889
-33.9236
-59.3004
-63.6115
-34.8583
37.544
91.1933
134.23
138.882
117.544
114.484
125.319
84.8877
37.3727
23.584
32.7241
36.4607
13.7675
-8.34774
-39.5159
-59.2039
-70.6094
-90.1324
-90.4369
-102.632
-107.344
-79.8123
-47.3774
-51.6169
-69.6608
-71.3417
-75.0823
-38.2618
37.7303
80.3311
94.3917
114.986
148.498
155.576
105.841
71.1268
33.2455
-12.0961
-46.5261
-76.9815
-85.2052
-45.6589
-25.442
2.84979
45.2967
49.2008
18.5891
5.07263
-16.7261
-44.2275
-62.8708
-50.288
-22.2013
10.5464
45.8884
73.0028
66.9999
47.6909
-29.5145
-77.3963
-76.055
-56.1375
-27.1092
-1.77192
-1.6621
-41.1376
-46.1221
-21.6476
8.12078
49.37
68.4207
36.7349
8.94124
-4.73835
4.97621
3.53101
8.62384
3.01812
30.6281
33.4814
-1.00262
3.85468
10.0635
2.79943
32.6654
18.1313
4.94402
18.672
2.6996
-27.2466
-48.1359
-71.946
-88.2822
-68.4864
-28.5283
-9.98642
16.172
69.3919
104.954
79.9999
55.6692
54.0074
35.1883
-21.1896
-50.8012
-19.6151
-0.466161
-9.40476
-18.5378
-9.2046
-9.39228
-33.855
-43.334
-58.2385
-73.704
-62.625
-58.4614
-49.5842
-11.4508
39.9396
84.5112
78.7486
39.3171
19.7208
4.68602
12.4276
57.6309
77.9427
37.3115
-25.3416
-22.6408
32.5012
57.5252
70.1379
4.44287
-66.1522
-61.6915
-35.7181
-47.4569
-63.6424
-6.20088
3.62905
-40.9202
-17.3141
-21.4675
-42.7966
-45.2237
-34.4413
11.7862
57.4992
73.5068
57.6025
18.5992
-12.2092
-2.02493
8.73502
18.3326
9.2801
0.561726
23.626
-8.06346
-30.8816
28.1605
35.7209
25.3541
10.8111
-15.5172
-12.0409
13.5528
43.9194
22.8821
12.7423
42.9223
71.4254
56.2573
21.2747
-50.3935
-164.605
-226.909
-193.424
-147.243
-105.583
-45.6019
20.2042
104.657
154.825
154.31
154.893
156.606
109.514
51.499
-2.53144
-60.4396
-109.592
-106.601
-72.3745
-25.4879
19.7179
52.6206
45.4281
21.3832
-6.05867
-38.1133
-48.0971
-55.4444
-47.0576
-36.4677
-45.9329
-66.0395
-71.6882
-58.4174
-13.9145
33.4284
41.3021
57.407
97.3133
122.178
137.834
134.672
110.69
88.0233
52.8791
22.3945
-4.34507
-38.5929
-59.3398
-66.325
-85.4562
-104.452
-102.696
-79.1623
-43.6625
-20.0593
-17.9385
-25.997
-34.3477
-22.4287
0.0524223
13.5507
9.59772
13.8855
29.0826
36.5554
18.6018
-5.43813
-10.6859
12.561
14.0935
15.7016
30.2325
12.2498
-15.7011
-19.7984
10.3917
33.6974
23.7628
14.9929
6.6136
3.04075
3.66911
-1.155
2.92409
23.2281
21.811
12.3232
3.61362
-18.8105
-24.3748
-23.1156
-21.3292
-6.10838
3.24221
-4.19806
-17.4347
-31.1126
-31.7205
-20.0457
-9.71034
1.65261
-0.0364954
-19.2233
-23.3196
-28.2587
-16.7925
-14.4584
-13.2023
9.5432
28.0887
32.7854
39.2516
39.7487
39.2691
51.7842
61.9743
73.5382
88.7094
67.7696
26.6728
-12.5886
-17.2347
-7.58966
-25.096
-59.5658
-52.2499
-19.7653
-42.7418
-86.2622
-71.5313
-53.4965
-36.4154
-16.6428
-14.9097
-14.4953
-31.9146
-58.9133
-80.1555
-57.0178
-5.10029
48.2986
90.1829
110.625
117.21
131.248
140.963
124.751
75.6348
40.3481
-16.7276
-15.4808
-22.9825
-9.01376
2.63259
-18.5229
-35.8475
-27.4985
-28.7655
-41.2935
-72.6851
-92.2448
-115.167
-121.728
-111.947
-98.3011
-99.9853
-105.868
-49.4037
10.6151
48.2312
48.9133
62.4302
54.8727
46.6568
68.5921
77.0512
97.59
79.3286
24.4159
-9.93341
-23.3822
-7.12581
8.41467
27.3843
39.1031
49.0444
62.4854
79.3034
37.0076
19.6349
11.4891
-0.0484982
-11.6561
-11.2364
-31.4842
-64.1179
-101.728
-112.599
-84.5094
-42.1596
-8.91362
13.0582
27.7476
22.6439
14.3699
6.09208
-4.91319
-4.69148
16.1502
39.534
44.0819
15.8843
-9.59457
-26.664
-51.5014
-37.0396
-8.38802
18.2496
27.9173
25.5187
19.9859
9.3371
12.2384
45.1162
41.6466
-3.29023
-11.7828
-5.19965
-7.75029
-10.4683
-13.0591
-3.06888
7.33207
7.4812
12.1398
5.50835
2.31264
1.5515
10.5654
2.5348
-4.98056
-5.97575
6.40424
-0.131673
-0.950382
7.74787
21.2836
37.7427
23.689
-23.9657
-41.9274
-46.0866
-51.1035
-33.16
-13.8828
-10.3423
-20.6809
-30.4438
-20.1564
1.40466
-0.227992
-17.1325
-47.8107
-72.9781
-60.3178
-14.442
12.6145
29.6264
50.2725
65.2896
74.4271
77.777
85.4855
94.9385
47.852
-11.4935
-3.41934
13.8715
-3.99625
-14.8338
5.00449
7.13348
-6.91762
10.6991
36.6336
38.2627
0.270244
-54.5353
-84.1482
-97.0129
-108.631
-88.4465
-76.1718
-54.5401
22.3002
81.2042
72.4839
45.723
45.8667
38.2673
1.20609
-30.2856
-13.3957
-30.5283
-45.2823
-30.1684
-3.97064
19.0851
27.9073
46.9383
54.9052
48.8618
48.9678
11.1051
-31.0117
-29.8446
-21.7694
-14.3577
2.84452
2.58323
3.7275
19.5517
21.9199
21.4821
9.1763
-14.4741
-42.494
-41.9762
-22.1839
-13.4971
-1.22335
-16.7001
-35.6444
-32.5231
-1.53789
43.6543
45.3555
9.4983
3.07608
14.1933
6.7941
0.536636
-12.7302
-16.6606
3.15291
20.3634
15.819
9.18575
1.49528
-10.5189
-1.73103
26.8725
68.2346
61.8098
15.2212
-37.4377
-73.4673
-54.8293
-38.9391
-33.7533
-23.5082
-0.544418
2.53309
-11.0758
-45.4049
-46.8535
2.70644
42.3554
50.6035
46.055
24.784
-10.5261
-50.3824
-51.1149
-26.0842
-10.4784
4.58657
8.62392
18.9825
63.8511
86.7907
62.0004
25.2694
5.53154
11.3224
-3.12698
-16.2966
-4.85748
-9.60189
-15.8176
-2.95449
7.08293
7.96708
12.3723
-0.0897567
-18.9761
-9.02778
1.54512
-2.08201
-14.1589
-9.00461
-6.55696
-17.484
-18.5673
-1.48556
-1.15281
-31.586
-55.0224
-59.6041
-46.7209
-23.3734
-0.763334
24.1341
23.6088
25.7017
48.8826
56.5711
56.3123
67.4713
35.1769
-1.48565
-2.88056
5.37021
-2.63355
-16.9274
-37.7005
-22.8709
-1.46234
9.88085
3.07131
8.19902
-10.9938
-32.0633
-47.1076
-60.8929
-38.1772
-1.22038
12.7531
3.97394
11.645
3.63726
10.21
31.7553
42.916
45.3092
34.8106
3.84409
-13.5597
22.4808
28.7441
-58.9458
-93.8407
-81.639
-40.5988
21.5223
31.6326
-23.8857
-32.7909
-3.19939
18.4605
26.9028
31.6088
52.1276
101.087
120.177
90.2047
50.6462
-18.6604
-79.7385
-99.9653
-56.7463
-12.003
-18.0034
-25.4782
-30.0183
-42.6911
-23.7124
5.56182
10.4472
9.34428
21.4141
49.49
49.3127
-16.6005
-55.0775
1.83441
52.5115
59.4591
37.9406
-11.3507
-40.1031
-48.2207
-22.1753
-1.01965
-6.52456
-19.6174
-15.5812
-26.3969
-55.1699
-64.2141
-57.3243
-51.9247
-35.8613
4.70761
14.2977
-9.49257
-21.0612
11.7285
59.8641
116.516
128.759
95.0188
78.5732
36.4812
1.65571
12.9436
32.7881
37.9089
19.3871
5.55276
-7.78184
-49.4422
-84.2433
-95.406
-95.1504
-54.7504
-18.2987
-3.7455
9.24937
33.4027
50.151
69.4745
50.3347
23.4603
-13.6683
-49.5393
-67.2841
-50.9363
9.49606
55.368
34.3035
-14.8046
-49.2004
-50.0335
-9.30281
-26.628
-24.9525
26.2303
26.986
-24.0092
-32.5426
4.37275
24.3485
53.6664
82.0388
53.4493
8.67347
-27.0343
-85.2817
-127.234
-112.163
-63.9548
-11.5588
18.5642
33.6387
53.9854
57.5238
33.8306
40.6934
51.7321
35.1326
27.8825
43.4394
14.9124
1.96519
29.549
61.6833
51.8028
5.89391
-4.14147
22.4751
38.8234
28.0342
3.51088
-26.3991
-33.5231
-40.4677
-71.193
-86.0031
-93.5868
-69.0664
-62.5291
-62.9372
-33.0816
-9.8889
-1.36733
-7.07729
6.05581
54.6678
83.5222
64.9921
31.1337
29.802
23.8695
15.0545
28.4036
27.6523
17.2853
4.23166
-13.9709
-22.9825
-16.2079
-38.4441
-33.4289
-42.9739
-26.1629
-15.4802
-7.75468
20.4722
19.6381
-9.58193
-10.0287
18.6261
43.5077
27.2493
10.5314
7.53276
4.80708
11.3531
35.7738
35.1195
13.3816
-0.804299
-31.1745
-48.1848
-49.1752
-36.6206
-34.3194
-57.4549
-62.0759
-48.5818
-31.5161
-22.5271
-26.4556
9.83427
29.1198
29.3138
34.7058
31.7033
46.884
59.9216
66.2587
64.0136
72.0377
75.1902
70.1528
82.9673
54.6087
-3.27464
-25.937
-10.6853
3.3883
-26.1027
-52.5612
-40.0341
8.37063
74.8514
41.396
-34.2321
-80.1002
-108.561
-91.9437
-70.256
-56.7089
-43.3301
-48.5381
-76.8069
-86.9434
-54.1723
-23.6929
-10.9757
-12.216
19.2778
41.2695
29.3238
17.5581
-3.87379
-2.38504
50.4125
75.0647
54.5068
15.4737
-7.25889
-23.2131
-27.5929
18.8274
65.1202
94.1246
88.7043
66.555
47.9933
26.8446
9.91391
17.0849
4.50444
-24.6671
-28.684
22.763
29.2204
0.040503
-9.55318
1.7597
18.7437
9.53097
-13.544
-38.7567
-64.4764
-64.0548
-62.1785
-50.0576
-32.3481
-31.3887
-44.6503
-42.4844
-33.0484
-33.7062
-57.7887
-78.1773
-46.6497
33.5582
97.8056
105.969
109.031
120.768
133.309
106.096
50.7012
-3.39803
-55.8253
-71.7294
-41.4959
-14.9127
-43.8581
-101.963
-125.241
-107.318
-47.4612
-10.2964
-12.3824
-13.2569
14.7754
61.9781
90.0569
98.9423
94.5751
31.1441
-28.674
-15.1611
15.4158
3.86677
3.30883
-4.63197
-3.91231
19.6701
41.2776
41.0403
16.0705
-5.24077
-17.9311
-33.009
-57.514
-69.1962
-59.6374
-41.757
-23.1652
13.743
46.5884
39.2344
21.6222
19.3565
-3.70706
-10.5601
30.6186
51.9403
47.6236
24.4292
-10.9604
-46.5111
-41.2604
-16.2468
-22.0039
-43.6456
-32.5221
-26.9362
-18.6053
20.6025
63.0695
61.2757
42.6797
20.2204
-6.056
-5.47969
-36.0417
-66.3804
-76.9854
-72.31
-51.3845
10.5666
46.9766
68.6981
107.34
111.512
47.4653
-11.0719
-41.8325
-64.95
-73.6951
-70.916
-50.2434
-50.3152
-48.9874
-34.0304
18.8718
72.4819
95.7938
109.835
92.3
48.3783
19.4159
27.2978
0.124866
-47.9623
-79.7062
-86.5514
-75.704
-41.7014
-11.1773
8.73773
30.9471
74.3086
84.3698
44.0058
15.4824
9.51729
-1.60606
-22.0535
-36.6988
-53.6559
-60.0627
-56.0999
-35.1991
-8.89239
3.99518
31.6648
42.7594
40.1941
53.6991
67.6329
71.4022
50.3655
38.095
26.2586
20.7739
12.1436
-12.2287
-9.76491
-3.62192
-38.058
-86.6283
-139.372
-164.415
-168.926
-146.598
-77.0663
-3.30007
46.8946
96.8921
125.921
105.69
82.6069
60.9546
21.5966
0.53942
-21.6752
-20.2072
-21.6382
-32.0293
-15.5785
11.3725
-2.91797
-12.6399
24.7346
73.8313
61.7874
15.8484
-21.3115
-45.2014
-42.0387
-19.0563
-7.79102
-8.17455
-0.644184
5.23216
3.14308
25.3094
49.8349
67.4803
82.9573
82.2291
73.2503
62.6741
58.3288
32.3801
-37.047
-69.8071
-81.4969
-97.5751
-112.497
-109.407
-83.0817
-23.5187
14.6289
15.6203
28.4412
40.7717
43.505
46.6435
55.1327
46.5278
14.3551
-57.8228
-108.448
-95.8185
-50.9072
-41.578
-42.2476
-19.7098
-11.4253
-1.49526
-8.88331
-14.0353
10.665
17.0506
28.0193
39.6581
27.9954
25.9587
20.5892
-1.38924
13.6118
45.752
63.3192
62.2722
41.8904
29.1659
22.0752
10.7922
11.1494
9.26946
9.9314
12.0586
-8.84898
-40.5436
-33.1208
-24.4284
-41.4281
-38.266
-37.9213
-38.3561
-32.4243
6.22948
51.9642
65.656
51.7094
44.2637
27.3111
8.8632
-10.4118
-41.2845
-51.5736
-61.0353
-45.2306
-14.8885
-19.9151
-33.296
-6.20081
-2.73611
-6.98065
1.1703
46.4861
95.3823
75.0617
-8.64465
-56.5925
-53.6049
-33.6075
-28.5604
-9.85297
20.9698
2.29471
-8.9488
-0.534913
5.80272
21.7857
30.8038
29.497
28.5165
46.3429
36.797
-1.32783
-49.5826
-79.1305
-57.816
11.1824
57.708
29.5633
-2.68514
-4.60192
-8.21199
-18.3743
-13.3378
2.4276
14.5314
-5.24173
-27.7944
-33.3849
-30.2833
-27.8145
-10.9319
10.5747
37.0641
51.0948
63.738
26.0162
-6.33345
11.0488
28.5013
9.54113
9.03636
45.1966
36.1125
3.61636
-0.936192
-3.03589
-23.0568
-24.2989
-29.1966
-31.1839
5.77664
22.9398
2.70745
-63.2815
-102.059
-68.8648
-20.2917
15.2496
14.4964
26.2824
15.3065
-20.004
-34.7951
-20.7724
0.363688
21.7113
22.9826
-5.62204
-30.9606
-64.4084
-80.8929
-76.0398
-57.253
11.9758
89.3702
134.189
144.618
149.207
141.91
80.2591
37.7805
-0.325042
-15.3411
2.20699
-19.4735
-72.4664
-82.1501
-16.1744
14.3843
19.993
13.2265
0.0195806
-25.7749
-36.2291
-43.8166
-67.545
-89.4391
-114.554
-106.616
-50.9137
-13.7118
80.9023
41.5936
19.8753
7.13384
-22.4164
-28.3214
-11.1972
27.7736
77.1189
70.9969
65.3927
56.7498
78.0085
82.8851
32.5447
-12.5725
-3.2352
11.457
-1.64937
-25.2235
-33.8125
-42.3471
-41.0987
-32.3598
-23.0792
-5.73857
4.43849
-25.1537
-89.777
-89.653
-51.3601
-34.448
-22.6355
-17.8858
-6.38887
-8.01635
4.02804
30.3033
57.8179
86.5726
111.316
110.597
106.773
105.093
87.6429
26.4403
-7.41578
-22.7433
-38.7056
-49.1126
-59.8834
-81.3459
-90.1067
-72.9115
-40.6303
-10.6622
-7.72357
18.7083
51.5963
7.09957
-58.4352
-81.1308
-76.4432
-60.469
-46.3547
-42.8076
-24.7551
12.029
47.6638
48.2897
50.6815
54.6848
48.6104
69.3972
87.5003
77.5151
36.5853
-15.3422
-37.7665
-2.96246
33.4392
25.0203
33.5309
9.15709
-32.4788
-33.8453
-24.4536
-21.4315
-25.9964
-20.4759
-11.7296
27.2273
33.7836
8.22876
-23.3449
-72.2958
-89.9836
-69.4855
-49.5338
-6.22854
29.6465
51.6471
51.2699
71.5741
99.7225
72.536
27.5255
3.36634
11.6033
27.5926
14.7058
-33.1959
-52.3057
-58.1016
-67.3665
-51.7753
-41.4677
-38.2746
-25.8268
-32.2431
-43.961
-38.4365
-41.753
-28.2251
4.2207
22.0578
31.4926
35.4722
20.7561
20.6235
25.2866
35.2189
51.1181
62.3067
109.171
133.477
82.9328
6.15954
-43.4496
-61.0452
-57.5065
-25.9165
-19.1741
-43.2134
-49.225
-5.79069
13.9519
-20.2042
-21.8517
-8.13049
-17.6401
-16.5809
-2.70533
19.6643
-9.37364
-44.595
-8.69022
23.4299
27.984
-5.07504
-39.7966
-35.5264
-26.4387
-16.059
-4.43644
-2.37422
13.7225
43.0322
58.6194
60.4038
76.0831
64.2927
32.7481
-27.4351
-70.9067
-68.9759
-57.6255
-39.4317
-9.31924
8.99386
12.5616
-2.93547
-12.1085
4.06908
5.93518
7.96154
22.1994
30.4756
20.1732
1.27876
20.297
71.3384
90.0665
87.7212
66.5566
31.02
7.26668
0.706588
-15.4848
-17.6283
-30.8161
-83.9864
-89.7739
-97.3766
-96.8831
-74.8109
-64.4783
-48.1899
-52.169
-27.2388
-1.4206
-41.7546
-65.102
-42.2603
-14.8022
27.4566
23.9281
31.0482
67.6908
71.603
78.423
113.222
114.686
58.7279
19.0387
17.8249
-1.93811
3.0819
46.235
41.4109
-15.8792
-56.2917
-59.6863
-45.1408
-13.5316
14.4644
37.3206
39.4568
10.1454
4.02842
-10.0432
-6.49486
37.0745
73.097
46.3938
5.17647
-19.6719
-46.7823
-75.9373
-89.4557
-87.826
-89.429
-80.115
-61.7854
-48.6178
-3.28117
50.9882
52.0126
31.9251
3.81258
-10.6411
-14.0646
-1.52685
7.93203
37.658
52.694
99.907
136.213
124.28
71.7098
21.597
4.47359
-5.37259
-41.7665
-94.2246
-110.222
-87.1131
-76.3417
-64.08
-7.82148
37.5349
34.1301
-1.77777
-3.16236
-18.9707
-75.8319
-106.77
-95.461
-73.7281
-30.8981
20.5342
51.7161
60.7815
82.063
86.8393
80.6161
50.6264
35.7802
72.5299
99.113
62.5509
41.9867
4.3607
-13.8493
16.2575
40.4207
35.7304
-3.87718
-35.8519
-50.8557
-50.1383
-51.015
-56.7173
-42.0879
-4.821
-20.9927
-34.8993
-30.6881
-61.7967
-57.6444
11.8254
39.5262
27.5772
15.0757
33.8835
24.7215
-6.78987
-19.3352
-19.9609
-25.5209
-33.8049
-25.946
-31.2507
-37.3198
-32.5123
-35.0761
-39.5069
-16.6626
41.1654
37.6845
-0.804479
0.408986
30.5957
40.5381
65.5665
102.71
108.883
69.4986
29.4108
23.7082
2.59995
-21.8605
-26.5501
5.97538
13.7106
5.83831
-21.0887
-32.0324
-41.301
-75.5631
-95.9997
-79.0613
-49.8806
-36.7677
-33.9585
-18.1892
10.4082
49.8874
80.7891
85.5209
98.0071
114.882
108.941
74.105
8.38868
-51.9777
-52.5312
-77.4689
-102.719
-54.8681
-5.90099
1.52166
3.59593
6.7879
-15.7031
-37.469
-57.9157
-76.5327
-66.7908
-52.029
-32.6778
-9.44086
2.11128
-0.383159
-2.88788
6.41823
29.6868
60.7387
60.4216
48.6978
46.9896
45.2441
40.8371
24.857
12.6148
14.9671
23.4949
41.091
38.7479
47.3691
71.2218
59.7204
20.6507
-24.8937
-60.4623
-46.059
-50.5289
-60.5078
-45.4235
-19.2501
-24.0113
-28.547
-12.077
-8.73433
-31.4499
-51.8891
-56.036
-51.0292
-48.7336
-51.1447
-54.3377
-34.3694
-8.72297
18.5743
72.2592
116.888
164.923
157.877
87.2035
21.9281
-0.826221
-18.4433
-31.5146
-43.0538
-41.997
-37.2687
-35.0596
-39.3268
-34.2846
-14.1153
31.2839
46.279
10.3121
-14.9821
-15.9723
-28.3573
-70.9791
-87.17
-44.7859
-11.3129
14.3324
19.2949
19.9493
26.6409
44.1743
52.0493
56.7233
65.0737
56.86
46.614
-7.21468
-39.3372
-18.8248
18.3724
45.322
15.9485
-34.6071
-45.2895
-32.5513
-22.7882
-4.07361
5.52288
-3.07868
-17.5613
-29.2276
-16.8556
-23.4168
-35.448
-23.1234
-19.6213
-22.8172
-11.2461
-1.01244
5.33165
-3.50502
0.270989
18.0133
40.6108
69.6472
85.9138
81.3339
55.1042
27.8172
-15.1164
-69.0151
-78.2005
-54.8443
-5.1925
21.2926
18.2317
23.25
2.89512
-8.66404
-28.3105
-23.3544
-24.2124
-25.4467
-25.0188
-32.2705
-46.3243
-74.9943
-70.8726
-41.1866
-4.81365
28.243
44.7388
58.7899
65.1207
58.1765
60.4182
77.9977
73.0508
47.0901
39.3459
31.5607
2.6445
-18.266
-53.7258
-64.4819
-50.3336
-47.0828
-44.4125
-27.2526
1.96631
7.17699
16.4404
60.3328
53.8167
64.2629
40.6687
-15.1414
-10.5256
-5.1865
-19.3736
-54.5954
-47.3848
-8.81059
9.03651
-16.7383
-38.8246
-37.1885
-40.7883
-27.7167
-6.5643
9.74932
9.53736
-20.4553
-31.4232
-26.2474
-26.6593
-50.8224
-50.3428
-13.3061
10.1348
46.8377
98.0228
137.012
132.561
72.3034
5.8324
-28.8482
-34.2874
-32.7489
-19.094
19.0192
43.0605
12.5579
-0.268152
-1.40416
15.8487
23.625
-2.62776
-18.1381
-33.6367
-43.8892
-44.8236
-48.1584
-22.3227
5.96299
24.2414
14.9085
-11.5341
-24.7617
-22.4437
-13.8123
-9.55258
-5.10181
-17.8618
-41.8879
-43.7311
-26.1527
1.94355
14.163
28.9299
55.7682
42.0782
-1.24673
-18.2188
20.3717
62.396
93.7785
94.9137
79.0811
35.8733
-30.6091
-45.4524
-12.5252
3.55446
-25.4181
-27.8095
-11.4458
-20.3873
-50.452
-57.2663
-49.3996
-52.2871
-37.2443
-11.704
8.73636
30.9893
16.9226
-26.243
-48.2472
-6.9846
38.8216
20.8552
-56.4761
-76.481
-48.96
-17.0944
20.8655
50.7054
58.3249
43.8199
27.519
27.261
29.4091
29.5931
20.9302
-5.43817
20.1745
87.5969
115.825
78.4263
38.1018
26.4527
30.1181
22.0372
-10.1207
-32.803
-56.7251
-88.7254
-80.3242
-39.3753
-35.4877
-72.6687
-82.9138
-85.3601
-50.7411
-42.9443
-57.1269
-50.9798
-32.7249
-3.82486
19.1679
45.009
74.2269
73.2376
89.2944
92.2115
74.8901
55.1948
24.0731
-35.785
-65.863
-39.4362
-22.4547
-5.30439
-20.8896
-11.383
12.7225
35.1566
49.0759
49.5105
38.8694
12.9909
-6.07261
-25.1384
-42.8707
-63.1959
-39.4112
-10.3026
-8.7761
-15.8221
-4.30374
2.59558
3.55362
8.66682
15.3721
38.9339
69.4638
46.6184
-2.58391
-13.2198
-13.7901
-22.2653
-31.2597
-18.6015
-7.71432
-18.2378
-39.7583
-44.8668
-10.5823
36.4601
45.5071
36.4966
19.8188
4.62827
-1.32847
-13.0176
-44.016
-49.6432
-20.462
4.95186
1.77478
8.36237
32.4354
19.0675
4.34109
12.4749
10.7414
21.2318
30.8525
49.6112
76.0635
63.6238
31.9489
-13.4038
-77.2954
-133.494
-126.16
-88.2307
-66.6675
-82.0182
-64.6574
-16.0989
23.5856
63.0523
82.4426
73.6974
79.7764
93.1526
97.5803
58.2406
-0.113961
-32.4163
-34.5329
-7.23191
19.1483
22.6166
1.37146
-3.25592
0.956012
11.4922
4.96852
-28.9705
-45.4214
-24.4273
-1.74601
-13.7049
-69.123
-88.2188
-69.7599
-61.9207
-40.6297
-3.09386
28.38
46.4135
59.8395
78.7715
95.5244
60.8718
24.6935
20.5561
7.58734
9.00547
-4.72882
-27.7295
-23.4738
-18.3605
-8.83464
-23.8856
-37.8709
-27.1287
-2.02742
10.6556
11.73
-0.804866
-15.8924
-17.7221
-10.4578
5.76316
-1.67039
-11.2891
-20.8165
-17.2312
-3.32218
-16.7914
-27.024
6.65065
42.9717
62.9693
55.6759
40.8435
15.0566
5.48642
8.85932
12.3463
5.73066
-30.9692
-58.2473
-51.7879
-46.5252
-25.6696
1.2346
22.3433
51.992
50.7772
38.4701
28.1937
25.351
20.0145
9.02403
-23.9725
-49.0247
-44.0284
-54.1245
-69.1238
-38.5268
11.052
42.3435
55.9099
44.9546
29.4175
11.544
-37.0781
-71.8069
-48.8063
-38.9963
-34.1308
-32.4979
-30.2922
-21.7463
17.7402
50.8552
57.7752
64.416
66.7427
47.5982
45.186
61.014
60.49
26.4855
-28.8109
-61.2149
-60.4337
-60.863
-43.6715
-13.8724
-17.441
-0.412022
16.2121
10.1773
2.42193
9.50056
19.3973
11.6054
4.65791
-11.1403
-23.599
-24.704
-3.29224
1.59341
8.2192
33.4715
34.968
38.191
27.3064
-0.734518
-2.59272
1.60494
7.01267
7.01402
4.06837
-29.3539
-47.351
-56.08
-56.0468
-48.1104
-40.7189
-30.5157
-43.2423
-51.1988
-36.965
1.40122
28.2772
68.5971
118.166
115.213
52.9204
-11.9029
-36.6853
-29.6896
-15.6103
-8.99001
-15.0005
-29.695
-13.8588
24.7333
40.7922
29.1155
19.8996
10.3028
22.1862
31.9097
18.8804
-16.018
-50.9409
-47.3801
-40.8959
-24.3666
7.01087
36.4724
34.7776
27.6798
37.5989
51.3471
24.6754
-7.91424
8.9983
11.9178
-25.8791
-14.029
-9.85476
-28.2097
-24.3543
-9.1013
-28.8367
-45.1339
-35.7401
-30.771
-45.93
-58.4172
-49.0073
-7.15145
38.3355
53.7947
48.77
30.115
-1.50507
-11.1187
31.3943
61.6381
54.3857
31.9691
-5.94344
-25.6507
-31.0019
-37.6514
-8.5401
32.8095
28.8195
17.4926
3.45646
-7.48171
-19.7233
-29.4804
-31.0317
-16.9801
-0.628292
-3.34349
5.13174
23.7594
11.8785
-3.33132
-1.81227
-6.37195
2.50179
19.7368
21.6947
-3.15249
-3.46277
17.482
6.19783
-25.0914
-56.1064
-56.7685
-12.2099
2.65672
-30.8875
-12.6047
33.4956
87.6463
94.0863
68.3946
26.4079
-13.4572
-24.0728
-22.6003
-19.602
-27.9307
-36.574
-47.0658
-37.3524
-16.9372
3.76021
10.2797
7.7126
23.7042
36.988
16.3192
-18.4391
-65.1207
-72.9776
-53.0174
-6.30033
48.0869
51.6227
50.1215
44.195
36.1831
35.9743
13.7328
-2.32894
-13.2803
-7.01185
1.36447
-21.2578
-32.7447
0.878707
22.3959
4.09795
-20.83
-19.8767
-1.60049
-5.57967
-17.5449
-5.35457
21.3842
46.1513
49.692
19.6648
-0.833041
10.7273
11.7194
6.24318
-9.05168
-29.1199
-46.8617
-72.2175
-72.7278
-60.1359
-56.2052
-40.5945
4.29628
45.5421
58.6629
17.5967
-25.1509
-17.0329
15.7121
53.7858
74.6973
61.0945
39.5925
36.7124
38.731
38.6053
37.4664
21.4262
-12.8091
-35.8139
-44.8358
-19.2573
16.3497
1.45427
-34.8207
-54.2896
-39.7624
-44.8748
-55.8731
-51.6816
-49.4237
-33.4331
-17.1006
13.3708
44.8088
46.8997
7.00335
-16.6684
22.7745
49.4015
61.3831
49.3275
5.31362
-18.074
4.07341
20.8034
-17.1035
-27.6626
-6.89566
-2.4462
-9.12411
-4.75814
20.5958
-4.68535
-52.2371
-66.2693
-5.91456
38.2318
35.8996
31.0878
10.8357
-19.2937
-21.2675
0.726977
23.4379
56.441
67.628
55.6481
22.7648
5.50763
7.74324
-27.1511
-74.6548
-70.7197
-46.9577
-24.2001
-2.54275
3.98315
-9.7878
-1.01194
26.3229
33.8819
25.8822
6.16801
-34.0434
-44.291
-15.6295
-4.35681
-8.57848
-20.2949
-22.9903
-2.94359
15.5574
13.0275
12.1168
11.4833
6.13583
11.0413
47.703
51.4005
21.884
2.92916
0.303643
22.5358
33.5491
10.7486
-23.5002
-59.0104
-71.4728
-42.7676
3.71059
50.8896
86.1415
77.8261
10.1179
-46.5194
-70.707
-67.998
-92.7336
-92.5998
-44.9031
-35.8141
-38.6877
-29.2596
-1.18386
29.5989
73.2653
101.118
102.127
72.2203
7.58302
-20.627
-20.1619
8.52706
83.5068
128.358
108.379
63.4246
39.0522
-8.17994
-49.8871
-58.2026
-63.1156
-64.337
-93.684
-83.7741
-64.0784
-56.5834
-38.4539
-10.7839
37.1216
41.3456
4.49308
-39.4245
-46.547
-46.2293
-46.2157
-40.1848
-10.4569
6.50199
-16.9779
3.81761
44.7914
66.2453
75.4274
69.6694
69.3628
77.902
79.7315
74.646
53.1458
42.7166
14.4907
-34.7244
-58.8107
-73.3246
-67.0472
-59.1384
-86.1435
-65.4658
-11.3682
-18.2938
-39.9046
-23.0083
3.22898
25.1202
19.7775
21.8699
32.7614
11.0853
1.71118
6.87324
20.5621
38.9305
36.9216
17.0954
12.6223
14.4425
12.0191
42.6751
88.8974
81.3162
37.5586
6.24181
-24.8883
-60.4851
-94.8915
-109.407
-115.513
-109.03
-109.986
-90.3594
-14.1352
32.4097
14.5703
21.1823
55.1005
92.5302
108.086
69.7563
3.98197
-14.7105
-3.1938
-18.7701
-24.2931
-4.59192
12.7752
31.4975
49.6977
66.7997
66.8091
36.042
-28.3562
-88.0929
-80.7387
-62.8454
-85.8829
-84.1777
-32.6792
5.04414
15.0008
40.1486
64.6548
87.5813
102.459
89.8092
81.7012
51.8781
25.2338
2.82077
-16.3954
-25.8107
-66.4434
-84.9293
-55.9364
-26.1978
4.73137
-15.3929
-60.0001
-71.1085
-49.6528
-19.6768
-15.8971
-28.766
-12.3968
7.11325
-6.72557
-1.71466
8.33765
13.8397
33.126
50.4307
64.1951
68.5649
52.0052
27.0326
10.0345
-2.33348
-11.6808
-19.1928
-27.3378
-23.769
-5.10713
6.13107
1.86413
24.2371
47.198
21.336
-13.5924
-21.29
-10.2621
-15.1852
-32.7869
-11.7862
15.6964
25.192
22.6798
30.8574
7.77099
-11.15
-21.1992
-65.4077
-97.2418
-61.7253
-42.6454
-36.1044
-25.6783
0.889987
41.5529
48.8355
29.893
0.267295
16.9098
37.9517
44.8452
45.645
37.0906
14.3871
9.67846
11.425
9.06297
17.0453
26.3079
2.90243
-19.661
-31.9976
-34.1085
-40.4794
-40.8258
-22.13
-11.3389
-8.01378
-4.87961
32.2699
31.5314
5.36926
2.24874
-0.861915
-15.1903
-14.7379
-1.89946
22.4744
37.2957
8.59779
-14.7037
-29.5714
-40.9124
-25.1779
8.63142
26.9945
28.8182
29.0822
20.7025
-14.3035
0.556737
36.2131
18.6533
3.29381
-3.18827
-30.314
-61.1055
-71.509
-73.6075
-15.5322
35.0613
63.3852
90.125
67.6932
-1.31937
-34.9862
-28.8757
-19.3175
-20.987
-19.2508
-21.7193
-33.1562
-34.8356
-14.0601
7.48467
31.4612
55.3516
62.578
59.3879
42.431
13.7212
-11.3837
-25.137
-20.536
-36.5397
-55.1955
-65.8344
-71.529
-47.6225
-24.6144
16.2522
59.8904
84.2816
87.1743
68.3617
41.43
8.78019
-37.1681
-51.2786
-50.2663
-23.3532
2.96895
33.7391
71.7642
66.704
17.1598
7.8127
7.68324
6.16018
-37.9948
-91.2216
-81.1763
-59.2195
-56.3529
-24.2635
-3.05205
33.3361
73.2335
56.0755
12.9995
-24.3112
-40.5362
-40.5361
-38.3435
-17.3206
11.0436
9.03556
-1.62748
-9.11343
5.74167
19.0711
6.81218
-2.90182
23.2606
50.3189
82.4272
85.0091
74.3829
56.5735
1.87987
-44.6894
-60.646
-67.0785
-58.1443
-22.8097
-5.44509
6.21948
34.4882
59.4537
53.1528
12.8458
-20.842
-52.8348
-69.1028
-70.9292
-69.819
-49.92
-29.7383
-23.378
-7.55811
11.2889
8.14107
16.7212
46.4181
48.8451
17.9595
-5.47942
13.5339
19.5636
1.76901
-7.06185
4.60984
10.43
29.8915
43.1098
26.508
-1.77684
-22.1781
-22.8163
-8.44632
-12.6693
-1.96262
0.896563
-21.2242
-5.3369
38.9915
57.518
35.9929
18.2107
18.5247
29.0013
37.0796
23.0371
-7.62169
-38.5116
-26.6295
-20.4009
-23.1843
-17.0271
-14.2493
-2.45494
-17.3018
-48.0674
-75.7219
-73.66
-40.7177
-15.0314
6.02715
39.0232
48.2534
16.2606
-17.5688
-37.2269
-37.6746
-54.2801
-79.1996
-54.2126
-14.8786
18.0062
59.3046
82.1207
74.3985
73.318
68.0868
54.2316
49.795
57.2134
43.8044
0.634713
-18.9005
6.34226
31.0815
51.0955
23.7005
-26.534
-46.3106
-45.9708
-32.8427
-11.0741
-8.62073
-15.1385
-28.0078
-26.1984
-15.4113
-7.43283
-5.90934
-19.393
-39.4485
-25.5924
6.89332
-13.1687
-45.6072
-38.131
-13.17
19.5739
20.245
6.76738
-11.1852
-30.0005
-20.9402
8.00343
27.1705
19.7238
16.1784
9.69461
0.84945
-0.776537
7.48616
5.50415
-3.95594
21.4808
42.3161
64.18
70.1443
45.7806
10.4999
-2.23373
9.75097
0.530435
-43.5443
-62.0658
-53.7993
-36.7951
-29.4465
-2.62686
11.835
12.1843
34.8564
52.7138
30.6903
1.1686
2.72877
-16.8214
-25.4465
-11.4105
26.6552
38.0443
37.0919
6.36752
-33.4136
-58.5795
-45.9123
-6.9149
-0.177267
-16.193
-27.4672
-32.2107
-38.5638
-44.4231
-29.5771
-15.4358
-35.0677
-53.4872
-54.6408
-17.4681
28.5418
53.0339
52.4563
55.3905
69.1628
106.785
106.502
74.4283
55.2056
44.3913
39.3584
-6.87668
-55.7019
-67.7837
-43.6244
-21.1171
0.560615
13.6755
6.16695
-20.4692
-63.7996
-87.3111
-80.775
-54.7972
-30.0806
-19.6813
-24.0995
-14.1127
6.72088
8.25564
6.72579
40.8861
80.9384
76.1211
53.4215
45.9575
55.2505
27.2869
-8.49262
-10.497
-2.12669
-9.47778
-11.329
4.48209
20.3195
12.0628
-7.01552
-13.3705
-7.58686
-2.29333
-19.7785
-90.4137
-143.935
-118.644
-61.8323
-19.6246
14.6081
34.0936
54.6773
82.5669
96.6854
103.291
85.6971
62.1597
73.9062
53.7924
15.5647
-26.1104
-69.0735
-83.6903
-63.2999
-30.2989
-4.72121
-0.445852
-22.9419
-80.481
-106.483
-78.7611
-48.1378
-37.411
-28.7227
-10.9136
-8.26451
1.55147
-11.1869
-2.7036
23.7299
40.9179
65.46
77.5218
62.9247
81.7246
107.933
95.7641
58.0084
36.885
23.6747
6.43957
-19.9393
-45.8361
-49.1467
-35.3097
-10.761
12.8155
24.2426
46.1157
40.3869
2.26563
-27.472
-51.3442
-73.6338
-65.2552
-62.6762
-54.7007
-26.9044
-12.758
7.83667
20.7584
16.9833
6.27425
-17.4008
-34.1877
-29.522
-30.9888
-23.0742
-42.5971
-44.4148
-19.9537
13.4331
37.6505
55.7152
39.6673
32.7324
31.3212
54.7144
57.6528
13.7002
0.77668
4.41879
24.517
31.2188
7.06267
-22.3435
-29.5858
-26.31
-7.8949
19.4715
28.8421
16.386
-19.7868
-37.5187
-38.3161
-25.8622
-0.270845
11.2364
6.02501
3.02493
0.847824
-17.7837
-15.0273
-11.9403
-14.4174
-21.9189
-27.1634
-11.5169
22.9264
30.0506
37.1213
46.7116
38.2401
42.4402
63.3987
38.1057
1.16386
-17.655
-33.8001
-36.3684
-23.0068
-4.67891
16.5682
33.2947
7.22921
-45.0182
-65.413
-98.7405
-94.5227
-55.7875
-41.6779
-30.5132
20.8201
54.8322
40.5886
39.8034
43.7315
41.3003
58.1742
51.2944
15.5613
1.90418
-0.31908
-24.1974
-24.905
3.91184
19.4984
19.3937
7.84114
4.79644
-4.71988
-11.4257
-12.5267
-18.743
-27.8502
-35.6472
-37.7047
-21.6082
-1.57444
23.1343
23.1325
-4.0781
-36.1803
-12.0404
25.3161
36.3087
27.9809
21.8018
-3.93837
-14.919
-6.27231
36.1655
44.252
24.4917
17.3929
12.4412
1.71285
-31.8565
-43.2253
-53.4793
-42.3444
-13.2496
-9.00307
-18.1971
-2.10875
31.4851
72.7461
119.161
108.728
7.88146
-71.8999
-100.326
-91.2251
-53.7593
-31.9932
-41.3533
-25.5681
11.1354
43.9219
59.4901
68.6892
65.1613
28.3364
-9.84591
-56.29
-81.2151
-78.1589
-67.4195
-45.0864
-3.72621
15.2061
25.3697
46.9307
55.6766
49.2595
34.4458
31.8715
49.5975
45.0187
9.96575
-19.6296
-41.9833
-42.2991
-19.4467
-2.87351
11.7501
3.64682
-23.1875
-35.3025
-0.64514
37.6788
30.8357
-16.5024
-24.8348
2.50708
32.2605
4.345
-48.8086
-58.6821
-21.4694
31.0829
69.0909
63.4558
37.5694
59.8703
47.799
13.919
3.31743
2.98961
-0.460358
-18.1767
-21.441
-10.7882
-37.3116
-72.8657
-74.1564
-60.1801
-51.1525
-42.302
-44.3504
-48.1898
-48.3926
-32.5637
-18.0456
-22.9202
7.34386
27.4336
24.8009
25.1893
49.6101
59.7173
61.7885
60.4626
50.0431
33.8956
19.6258
26.1455
36.0936
18.8264
-8.30083
-3.52048
23.8164
39.7063
41.6704
24.0034
27.5174
32.2884
24.9086
6.23547
-1.90924
-6.82683
-26.6025
-37.8971
-58.2442
-78.1506
-55.2244
-34.2896
-46.8326
-72.3897
-106.052
-98.8269
-68.0154
0.095646
79.9119
94.2363
43.0083
0.909384
-11.1516
26.2784
21.5186
-7.05174
-13.6305
-20.4671
-15.3616
16.3623
0.934108
-35.0104
-19.9088
9.74935
38.3028
58.4155
54.9428
33.9859
26.9717
30.3083
76.7974
97.8079
63.7321
14.0709
-8.01259
-42.2748
-61.8983
-74.253
-47.0372
-3.06688
10.8693
15.1892
10.9967
6.93492
-1.83317
-49.1636
-76.4104
-79.8198
-96.6789
-89.5629
-66.8996
-37.0494
23.9501
51.2544
52.5598
72.955
70.8705
57.5727
38.8978
51.0154
79.1975
52.7836
-0.631812
4.72633
25.0712
22.7773
8.50595
8.98328
15.7521
12.9216
-20.8892
-31.5807
-49.7857
-96.8783
-116.283
-95.5383
-64.0897
-19.5776
14.7432
14.7936
-0.640862
6.53375
16.1215
19.3392
31.1094
52.5529
42.8055
-15.9533
-53.6657
-60.6041
-46.0274
-29.7884
-13.0736
10.5228
44.6398
77.6838
83.7509
82.3001
94.8805
105.409
90.1011
61.7502
22.5344
-18.5936
-45.4372
-57.6853
-51.857
-26.807
-16.6347
-20.3217
-10.1621
-33.1282
-58.6205
-74.0332
-85.32
-99.8268
-100.029
-84.8915
-62.1038
-56.1662
-30.098
13.1533
53.8771
95.0883
101.674
93.9656
105.181
89.9853
51.7664
-4.6726
-45.1571
-33.7399
9.33792
25.8142
20.8797
25.4856
31.8321
38.6227
21.2235
1.61135
-18.3496
-26.6257
0.444212
-2.99877
-6.21183
-13.1963
-23.8679
-32.9441
-21.4185
11.3631
1.39266
-33.2101
-54.8616
-46.507
-8.53066
30.5247
27.6051
11.3957
10.9329
-23.1791
-35.7265
-22.2106
-22.1815
-21.9284
-16.4034
-14.0342
-2.28619
25.6838
22.5804
7.86655
12.4846
32.0973
36.5816
40.2429
51.7858
61.6917
61.977
46.2629
10.5951
-25.7224
-51.1342
-53.5204
-62.1298
-73.086
-59.0507
-14.9124
-12.1352
-52.4249
-66.1016
-38.5112
7.09789
62.7198
95.8072
97.2349
71.848
32.8922
2.57023
-13.6289
-51.9798
-67.1666
-39.3131
-2.9972
6.52045
10.6395
11.6724
-0.897363
-1.28425
22.0094
41.4807
44.5969
55.0067
30.7563
-25.9654
-66.3001
-72.2816
-61.7871
-53.5193
-33.7067
8.3987
46.3792
56.8758
55.3452
43.0288
23.1409
33.526
53.2842
51.3955
21.6218
18.9133
14.488
-17.2116
-47.1493
-71.3511
-75.0677
-75.8194
-66.6392
-68.8427
-82.7757
-62.8803
-8.01998
28.5152
32.5183
48.7755
40.8949
12.338
14.2682
42.8807
61.874
40.1662
14.4697
-29.4933
-45.0349
-19.0539
35.569
47.6085
32.616
50.0825
84.3371
82.758
59.8747
57.0379
10.7261
-27.6644
-49.4083
-108.307
-155.694
-143.122
-110.7
-83.3126
-53.6976
-22.2501
-5.89177
20.0415
26.2763
27.9751
23.2583
17.0239
30.6231
54.0396
52.8428
37.4804
50.9914
58.8569
67.7312
96.55
75.5835
21.2572
-22.7757
-26.9434
-9.95652
-19.2021
-39.6001
-25.1387
-19.31
-36.6822
-25.7587
-7.16699
-20.5623
-11.8622
2.06354
-37.78
-79.6016
-75.3651
-45.7804
-17.0533
7.08657
37.3138
62.14
60.9767
41.3283
60.8971
87.6833
53.1523
-0.956615
-42.743
-53.853
-61.4354
-62.4764
-66.7614
-47.0684
-8.13939
26.5807
43.9148
41.7485
41.1214
26.5483
13.9994
-0.620313
-41.819
-61.8604
-62.7535
-37.2159
-12.4447
8.0077
39.8395
50.0773
46.5939
43.6618
33.6086
37.1297
36.0803
6.41772
-8.70166
-9.91133
-11.5603
-12.5479
-10.5386
-10.7066
-2.48142
-3.90242
-23.9033
-38.5199
-22.2138
-3.31035
0.655678
5.85696
7.43454
-8.23811
-16.3683
-23.7026
1.19028
36.1906
19.1281
-21.04
-29.785
-8.62117
-3.04708
-6.49736
30.8795
75.7156
78.8154
41.0174
-6.50653
-14.2729
-18.7106
-7.52269
-6.24012
5.47914
35.5174
28.9491
5.42234
-28.885
-64.8099
-49.3237
-23.9238
-24.3928
-35.3515
-47.4166
-66.3824
-71.811
-48.4187
-6.77992
25.0072
25.3441
37.3247
34.9329
25.4283
28.8452
-0.272723
-45.8211
-47.5051
6.77239
88.4374
95.2578
80.5086
60.694
36.6316
34.591
49.4326
56.109
31.8452
7.67234
9.31268
-22.0284
-54.6007
-68.5393
-61.4515
-53.5017
-59.8309
-43.0163
-23.7844
-48.8563
-58.1646
-8.53702
15.301
-5.70053
7.73775
46.5282
83.0934
93.9836
54.4722
-13.333
-22.2089
23.4886
37.8657
6.39502
-34.192
-64.2377
-60.4475
-54.3364
-38.4877
1.10688
-5.55934
-40.8905
-51.0627
-44.9759
-39.3945
-20.9821
-36.467
-65.6891
-41.0406
25.0445
59.9332
69.9935
87.0379
92.452
97.3326
81.2612
65.5058
49.5968
41.4793
12.5267
0.704017
21.3029
23.5112
25.2217
43.2343
33.6672
-21.914
-61.4261
-71.9654
-68.6956
-57.6823
-59.828
-84.076
-69.4576
-30.1501
3.78342
26.2774
35.4635
6.37681
-4.77093
-8.11763
-26.3772
-39.29
-31.9492
-38.182
-18.3718
18.603
32.8066
46.2988
68.7821
46.3645
17.9779
9.31404
7.72425
0.265817
24.4441
23.8621
-4.00479
-9.92655
-24.4864
-29.0168
-27.1788
-29.971
-32.1397
-47.3217
-46.8986
-13.6004
25.8271
30.8387
16.5605
5.00174
19.7047
23.1415
26.908
28.0501
0.266279
-5.80374
24.2678
39.603
40.5778
54.4301
55.0823
45.5534
39.9639
42.579
32.8149
-21.7751
-29.3556
12.7994
2.63537
-84.3997
-146.429
-111.759
-69.5682
-27.7707
-8.23435
-25.0591
-33.7621
-36.1595
-1.17986
8.43755
16.9247
15.9349
-16.6148
-21.3448
24.8692
64.4505
50.9884
22.3149
-3.36348
-0.0425819
28.1342
38.2405
38.6484
31.4407
-3.50442
7.3124
27.4056
7.24299
-23.0559
-36.8346
-45.0113
-48.5915
-20.7383
7.70013
6.95022
-18.1002
-60.8077
-84.2443
-55.0238
25.1367
89.2018
77.5164
56.411
36.5034
20.023
-3.07034
-1.32584
21.7511
32.8998
27.7625
37.1313
37.2362
41.3717
27.8784
3.94081
-10.9444
-13.2331
-59.2758
-78.9682
-33.6494
-13.0232
11.099
16.2656
6.63561
-10.7473
-51.7717
-40.3023
5.66126
3.85696
-23.9895
-46.0206
-46.0924
-33.5904
-18.9001
-18.9645
-39.2091
-24.659
15.7292
29.1525
2.45847
-17.3061
-39.8876
-42.0134
6.05706
49.5671
80.5467
70.5385
38.3312
41.3181
47.6947
54.7587
60.5755
53.2429
7.74631
-21.2526
10.7923
42.0816
57.3556
56.2879
11.9268
-35.9139
-60.1198
-71.6663
-91.5894
-91.5371
-51.4056
-9.60158
-9.25254
-27.4684
-19.9273
-17.5543
-5.52768
12.2617
2.52467
-6.11386
-9.28042
-14.9848
-10.39
-11.2931
-4.99671
24.6095
39.1986
35.2913
16.6554
7.2722
2.18889
5.21741
51.8031
67.7245
41.2579
24.5911
22.5788
13.8565
-2.26079
-18.2911
-22.5993
-26.9079
-28.3659
-9.72837
-9.89182
-45.3854
-40.6186
-21.2798
-17.7729
-17.5237
7.63747
6.95581
-24.7808
-17.8145
1.61702
20.8143
23.8339
7.5835
10.519
13.7463
0.557152
-13.728
-8.92884
-9.57333
-0.626024
10.9243
12.8204
9.73431
14.0869
18.1278
23.2016
11.3173
-5.49081
-18.7632
-8.29276
-12.8028
-21.9889
-9.02658
-1.6236
7.36614
18.4444
9.68497
32.2736
43.8417
57.5619
54.1785
31.7421
14.7963
23.5266
6.82116
-55.3635
-108.499
-109.039
-72.0679
-49.4233
-38.1279
-16.7723
15.0465
37.0939
41.2251
54.1072
53.6377
34.8988
12.2232
-20.746
-37.9416
-33.464
-32.5206
-51.6508
-37.5773
10.3302
59.7684
78.1062
64.9918
32.0467
-8.22964
-18.1739
-27.5918
-46.4764
-50.5112
-46.4198
-34.3008
-25.4083
-16.4716
-1.29236
31.9022
48.7298
55.7418
61.0992
55.5732
27.1943
1.47359
-25.7902
-17.9045
-3.32093
-1.51911
-5.08503
9.23773
12.4288
4.61051
16.8096
14.4475
-0.898449
-1.94003
35.9255
31.6307
-13.0595
-32.8502
-35.4593
-43.3958
-12.4721
3.24147
-15.0873
-25.4562
-22.3444
-11.1043
-22.0053
-24.732
-22.4312
-34.6525
-37.4641
-15.4848
4.70318
18.4167
31.8104
39.9051
21.6889
26.1738
37.9835
46.2996
36.7056
14.6668
-1.35399
4.75419
24.3032
21.9259
0.770734
-29.9964
-36.4798
-13.909
-15.7936
-21.5071
-41.4939
-53.873
-50.1422
-21.5837
17.0513
19.9074
25.6103
32.7072
19.6708
6.99594
-0.576097
-10.7601
-7.22436
6.13642
21.9164
16.1293
23.1705
13.6478
1.75199
0.435626
36.4209
57.9095
36.8477
-0.979531
1.30021
-5.88509
-29.5819
-55.2779
-72.9508
-45.2524
-4.24886
7.15119
-10.8977
-2.41875
6.90479
-3.4172
-7.34159
21.0713
80.4746
53.2559
-12.4272
-30.1451
-39.9061
-52.4299
-40.2771
-17.0106
4.19956
30.868
37.234
48.9801
67.2338
17.0825
-27.4825
-44.1225
-38.3544
-10.4044
11.0265
-10.0604
-44.1621
-24.0086
4.28182
-24.1826
-47.5712
-32.175
-14.4185
-1.6907
6.2113
11.3004
13.4214
6.92782
14.7689
61.0306
125.447
124.251
64.534
22.0697
3.27094
-1.20032
-7.41796
-19.3963
-21.3909
-22.2989
-27.28
-23.9555
-29.1057
-36.9873
-41.0723
-35.5683
-31.1217
-30.6872
-31.879
-25.631
-34.152
-34.4776
1.23937
15.5334
12.1932
-5.11289
-29.646
-7.29063
25.4724
34.4529
56.2456
75.8432
69.325
46.0986
41.3822
30.9422
21.0994
6.29181
