-9.30177
-8.05851
-0.125028
-0.474718
0.221481
4.83798
6.02453
0.725538
0.415473
-0.637372
1.15053
0.625829
-1.41143
-3.4996
-3.01206
3.26542
1.55046
-2.12372
-1.13837
1.26562
5.26852
3.51067
-0.369644
-4.60065
1.03015
1.43464
-1.67961
-3.66277
-0.657947
-1.86102
-3.32394
-4.02012
-2.49092
2.89856
7.23558
5.64666
4.24883
1.39881
-0.619881
0.491781
2.79196
0.812835
-2.27085
1.46112
-1.94904
-2.54441
-2.02909
-0.795216
0.841105
0.998538
0.148735
0.308031
-1.32666
-2.41396
-0.604323
-2.69098
-6.40249
-7.64232
-2.19439
4.12184
1.61423
1.54574
3.91518
3.65022
3.25333
1.13622
-1.18518
-1.03804
-0.0644567
0.582259
0.965632
0.325205
-0.959319
-0.135826
-0.408322
-3.02146
-0.473328
1.27486
-0.0767667
-0.955647
-1.45383
-2.46777
-1.28811
3.74061
0.379336
1.43884
2.10185
0.812224
-0.884193
-0.286814
-0.643861
1.65767
1.4914
1.31361
3.57648
1.57784
-1.51467
-1.05009
0.126654
0.0669759
-1.63127
1.4099
-0.760748
-2.17967
-2.99201
-0.877111
3.0596
3.8539
1.65626
1.6688
-0.946596
-4.32677
-7.15356
-1.21508
3.6649
1.78979
-5.29313
0.970468
4.29146
2.96019
-0.592906
-1.3167
-1.73379
2.98852
2.64656
-1.06947
-1.89445
0.0860633
-0.274567
-2.17073
-5.76794
-0.429552
5.62813
1.12774
-6.86029
-1.10185
3.66264
0.908301
0.661907
1.28087
1.61102
-1.54877
-1.92238
0.415248
1.14352
-0.0698531
0.766666
2.9089
1.68017
-1.72988
-2.28318
-0.881686
-0.708439
-0.541357
-0.383367
-2.68441
-4.00344
-4.54701
2.03247
4.76797
5.55443
5.76778
3.09152
-1.36564
-1.00532
0.912569
0.47127
-1.51961
-1.14244
-0.837899
2.66729
-0.103591
0.464485
-4.13162
-2.86681
-5.91713
-1.80422
6.8346
6.46099
0.0583148
-1.79443
-2.12004
-1.39232
-2.44623
1.11328
0.166518
0.359665
2.92916
1.18169
-0.0755813
-2.55933
-4.0495
-4.74896
4.14017
9.84165
7.26637
0.912321
-3.48889
-5.47334
-4.86727
-4.98527
-1.4564
1.84283
-2.57561
0.413119
5.69567
0.702435
-4.29075
-1.58576
3.6406
4.47491
3.11264
2.79557
1.5362
-5.18318
-3.6484
-1.58378
-4.99587
-4.44989
-0.445957
3.16827
3.82618
3.2637
5.98004
0.86609
-5.06465
-2.14647
2.41526
-0.397251
-3.04054
5.22984
6.32596
2.52168
2.19788
2.55365
0.860584
0.340646
3.88311
-2.38006
-9.87179
-11.1078
0.143834
2.67085
-2.4267
-1.651
1.36549
-0.857718
-5.60525
-1.0772
2.82204
-1.30854
-3.16456
-1.72606
-1.42916
-1.89161
1.27402
3.38887
1.38692
0.847586
4.57971
5.17415
0.338557
-2.91041
0.840138
0.847478
-2.45854
-3.6578
0.735279
1.22745
-2.54537
-3.17946
0.797262
-2.19876
-5.53878
-7.20587
3.84471
8.77369
1.0978
1.84076
5.68881
4.79388
-3.31433
0.642234
10.7466
9.52803
4.84663
4.63602
0.836415
1.3941
5.60375
2.93513
0.705006
0.508456
-3.24913
-9.13905
-7.04845
-7.08425
-7.67557
-2.83684
-0.388374
-0.507377
-3.96293
-5.31357
-6.76829
-3.24785
-0.688111
-0.550743
-2.8388
-4.11596
-2.14599
3.52344
4.75277
1.2898
2.26716
6.94539
2.31739
-5.77713
-5.81959
-3.70519
-0.245812
1.45829
3.5208
12.2031
4.25157
0.389756
3.57551
4.69498
4.32816
0.508049
-0.48239
1.28722
-2.57917
-0.96209
3.38791
6.79731
-0.493735
-0.582633
-1.59176
-4.78133
-7.56005
-3.30751
5.37676
-3.17293
-3.04928
-3.66671
-8.78991
-7.53774
-2.05259
1.84899
-1.26706
-1.49105
2.6972
5.4673
4.63544
3.06069
1.88828
5.12653
5.34338
-3.03699
-5.16136
1.95174
4.95546
1.72731
1.06614
-1.1208
0.715821
2.6556
-6.09362
-9.11763
-2.35238
2.36217
-0.315452
2.05313
-0.543055
2.70272
3.89881
2.806
3.49696
6.92941
5.37567
-3.53462
-10.2323
-8.42985
-5.0986
2.3434
-0.208638
-0.273851
2.13927
4.39924
2.29594
-0.969043
-4.7961
-7.0854
-4.0669
0.698718
-1.83471
-3.33249
-2.37768
-3.90005
-5.29716
7.40846
11.5151
7.10552
0.518911
-2.20308
1.10613
10.6619
10.626
1.66614
-5.34518
-2.42073
3.67908
-1.58939
-6.74392
-8.9993
-2.58348
3.50634
5.69938
4.29366
3.80432
1.46846
-4.4183
-13.0837
-4.17932
1.2024
-7.53395
-5.46472
2.90286
5.94123
6.01309
-0.835215
-2.05426
1.38727
6.07218
5.5265
-0.14591
-3.97773
-4.67934
-2.3991
4.18967
-2.3082
-1.58217
1.4734
0.979589
-1.85221
6.19497
1.33951
-1.20221
-2.03447
-1.66062
-4.57383
-4.55504
1.53576
4.74681
-5.62061
-5.55032
-3.37796
3.35814
9.42407
4.79806
3.92056
-2.59567
3.07327
4.22915
2.27049
1.60384
2.63645
3.88924
1.08734
-6.70386
-1.77421
2.34045
-2.53649
-10.6289
-2.31503
-0.725491
2.81958
1.70555
-4.08678
-0.354043
2.9572
2.48842
-2.93724
-0.68882
1.63373
-3.50019
-3.45227
-4.00786
0.818092
3.20618
-4.36159
3.17878
7.22074
-0.355255
-0.493614
5.14778
5.2589
1.63373
-1.82067
-3.30221
-7.43457
-2.40368
-4.62764
-4.97142
-1.54725
3.37229
-4.09949
-4.61534
0.397747
4.70315
8.23749
4.44789
2.52013
6.01613
5.50766
3.13292
-1.99714
-6.17811
0.374883
3.04244
-1.9714
-6.05718
-1.87545
1.03093
-5.2643
-5.81711
-3.2757
0.382388
-0.33843
9.95402
4.81826
1.94052
3.18066
2.97546
1.7927
-7.32894
-9.67609
-6.46806
6.81979
3.89276
2.56814
6.454
6.16306
-5.10507
-0.0827845
6.48398
0.54562
0.516575
1.14409
-4.37979
1.06377
-2.87592
-7.90228
-4.29964
-4.12539
2.76342
3.86968
2.65412
-4.95088
-4.86539
-1.25852
-1.23661
-2.7738
1.30298
-3.38695
-6.23723
-0.278095
-1.87446
0.6046
5.64759
2.25171
-1.65805
2.52203
5.28373
5.25861
5.78964
4.1635
5.24847
1.49387
-5.26286
-7.84002
-1.69823
6.60674
-0.550489
-3.6733
-1.43622
3.42137
7.23674
4.33986
0.378364
-2.42178
-4.26139
-5.31847
-6.56571
-6.17688
-0.591966
0.76209
-0.788301
0.732997
2.56908
-1.23053
-1.18292
-0.194898
8.70585
14.0792
5.21976
-9.34007
-8.75156
-0.497884
0.0962152
-6.89652
-7.01497
1.59177
4.02976
5.44203
2.77591
-1.64221
0.410705
-0.70613
-0.592557
2.78564
4.01916
1.26333
-2.35555
-5.48745
-1.52555
2.83952
6.35577
0.053299
-12.3891
-8.44479
-0.296047
-6.17415
-4.63546
2.61128
7.47991
7.96021
7.06448
3.62465
1.94527
2.34374
-2.44871
1.04853
0.0396073
0.17164
2.68201
3.32593
-5.50599
-8.62146
-4.4007
6.9209
7.5074
0.0305168
6.42202
4.4441
-6.29054
-5.81271
-3.57316
0.536443
2.3569
-0.750538
0.402759
-0.585856
-2.93862
-4.39887
-2.69116
-3.85721
-1.11745
-5.73015
-6.73148
-2.75189
1.8787
2.56775
-1.86541
10.1849
9.52392
7.71465
4.3777
-5.51411
-6.04321
-0.256519
0.395405
4.92975
6.00862
1.40279
-4.26323
-3.7171
-3.93805
-2.17586
-0.00213507
3.94137
-1.00977
0.680548
10.7584
8.55245
-2.58541
-5.89635
-7.82732
-6.21068
-2.28596
2.94534
2.97923
-5.36886
-3.21865
0.101227
3.99176
3.08957
8.0049
4.17322
-1.19835
2.53962
3.91499
2.77098
-7.35648
-10.5329
-7.16912
-6.95179
-3.88735
-0.715826
2.33969
3.48118
2.43875
-0.0053587
-2.4058
-2.96669
2.66032
2.24409
0.26816
4.72724
5.80935
0.4496
-2.33355
2.50643
5.56524
0.66861
0.568863
2.84283
-3.26831
-4.76108
-1.41801
-4.85021
-9.27088
-13.1718
-0.856824
13.333
9.00599
3.98389
-3.65871
3.79112
7.73
4.12088
2.20516
-0.934805
-4.69058
-8.58567
-0.83575
2.75654
0.0656877
-0.111291
3.84322
-2.79254
-2.98158
-0.47629
-7.75607
-3.88648
3.93261
4.88199
1.97756
0.757522
8.88958
4.70417
-1.74837
-0.31846
-3.52867
-1.44255
-4.11651
-7.31141
-4.87896
4.45148
-0.202606
-6.52176
0.381709
6.67664
7.22081
1.39646
-1.78242
0.278448
3.24453
2.51561
-2.2835
-2.12951
-2.75386
-3.02022
-2.19099
-3.11352
-5.93041
-4.06268
3.29532
4.03234
-7.86802
0.392115
11.7652
18.688
8.18397
-5.98442
-6.96504
-4.76539
-4.63228
-8.29299
4.59141
6.42345
3.99471
0.482212
1.3605
1.82729
1.15472
1.38281
6.25679
-0.0182814
1.35852
2.82141
-6.39626
-9.86021
-6.75473
-3.50257
-3.59582
0.647792
0.162202
1.45588
-2.68534
1.2664
3.81942
0.353986
-2.81982
-4.75686
-6.52005
-2.28262
-2.44956
-7.13598
5.94013
11.2112
3.52929
2.38017
5.64025
-2.28395
0.823245
-2.79707
4.8643
9.721
0.082893
-6.35632
-2.86324
4.59521
4.38989
-0.942777
-2.00255
0.678056
7.30044
9.53171
2.89653
-5.9949
-6.8144
-6.24491
-4.74487
2.20758
-3.99396
-4.65821
-3.18947
-2.815
0.0968469
-1.19557
0.521443
8.21263
7.08771
0.105575
-2.99339
2.42158
-2.36648
-4.6512
-8.35123
-6.97562
2.65105
4.09051
6.48956
3.61469
1.46341
-0.0814748
-1.94032
-3.874
4.90555
2.26908
-3.7386
-4.23448
0.638819
-0.200708
2.55849
5.88751
0.361
-0.106673
-1.25777
0.481546
-5.76199
-7.89967
-1.38768
1.51171
6.71258
11.433
5.64855
2.16249
-3.67738
-8.24286
-4.26378
-6.23886
-9.5504
3.67875
11.5536
4.66703
-2.67038
0.787251
4.6769
-2.8561
5.35268
3.07281
-5.25934
-2.3665
-2.77668
-0.443519
3.56965
-1.37649
-6.25186
-1.74424
-1.05206
-2.11613
-0.180402
5.26731
0.428243
-1.97679
3.12158
0.628459
-0.236086
4.93679
-0.927702
-0.705833
1.11011
3.04494
3.27595
-3.38509
-11.7395
-1.0123
1.34828
2.06121
1.61775
0.421109
2.06035
-1.06083
-1.43231
0.0625996
3.52113
3.14229
1.02111
-2.95268
-3.80617
-0.866425
-0.476746
1.45892
-3.05389
-2.57087
2.86273
5.51403
2.02022
-0.464876
-0.487317
2.76422
0.619102
-1.72778
6.55671
-3.96175
-2.64068
-3.29688
-10.0991
-6.6057
6.84269
3.98288
3.47447
1.27282
-3.55823
-1.6435
2.20755
-5.96788
-6.88992
2.03447
3.06774
-1.23437
1.81063
6.28204
2.39769
3.78851
2.04513
-0.0594439
1.80779
6.18269
4.54936
-0.209723
-7.57128
-6.35237
2.99571
4.89326
-0.783501
-1.35138
2.33721
-2.82526
-9.45612
-3.5148
0.654941
-8.8628
-7.22792
6.69032
1.74538
0.869848
6.83812
7.9558
1.62889
-0.29239
-2.42353
-3.7259
-4.3642
-5.29838
-1.42655
6.23255
3.64142
2.52405
4.07088
0.730969
-0.762688
3.15036
1.40869
-4.81915
2.71578
3.40381
-8.70269
-25.2247
-8.33785
11.0326
7.0889
4.14874
6.93397
8.4062
4.76287
-2.0965
0.774767
2.58626
5.18128
-0.893587
-4.19733
-1.34181
-9.25117
-15.5927
-8.11747
-7.34536
6.12595
13.29
6.72784
-0.443707
2.23411
1.49224
2.59077
-0.887002
-1.47067
0.738332
7.10846
7.62434
4.9576
2.73849
-3.97273
-2.62157
0.755951
2.8012
-2.73439
-3.16487
-2.60418
1.03822
-2.49432
-4.85722
-5.44415
-6.40426
-9.94854
-5.11144
-3.11126
-6.35272
1.87697
4.16691
1.52406
3.11215
4.1412
1.44812
5.42328
6.20634
2.32234
2.90651
3.95806
5.22083
1.6021
-3.42297
-0.883063
0.00621812
-1.89634
-1.4454
1.3678
5.55957
0.559963
-1.27752
-1.70675
-6.87597
-6.66098
-1.19009
-0.716229
-1.9586
-2.61278
2.08823
-1.37918
1.37627
-0.881515
-3.05578
5.60301
13.5394
8.95704
3.59634
-3.61318
-3.41721
-10.524
-7.27258
-3.8004
-0.367339
7.72481
2.84123
0.214546
2.51827
-1.04002
-1.74065
5.22929
7.02491
-1.32974
-4.48471
-6.39595
-7.30936
-5.80855
-4.37588
1.85947
2.7299
3.2231
4.22988
3.85241
0.916156
2.98358
0.881793
-1.42319
0.372304
2.33031
-0.645475
-11.6094
-9.14743
1.36097
8.39625
2.00352
-0.694539
3.3275
5.83118
3.85343
0.61559
-0.0011327
-4.5502
-5.68261
0.472446
-1.15479
-0.505172
-1.63897
-2.23999
2.46939
7.13382
8.15011
4.97055
-5.74411
-6.88378
-3.97346
-0.969303
-0.533741
-0.199072
1.6813
4.45737
-0.544121
-3.87566
1.48964
1.68273
-8.12212
-1.86219
2.47307
-2.10876
2.37208
-1.28579
2.93962
3.96338
4.39065
2.72383
-2.7052
-7.01178
-2.08232
-1.0911
-0.325617
-3.01706
-2.91405
3.96795
8.3706
5.06498
5.76997
2.51965
-1.55411
-0.202068
-6.75429
-5.86439
-2.48026
-1.71118
2.17818
3.80018
2.14539
-7.31715
-1.7348
2.91572
-1.53193
-0.316998
3.77786
-1.1082
-4.30981
-2.07031
1.22113
0.101647
1.83119
1.25568
4.88547
2.06884
-3.24673
-14.7575
-5.05753
7.58934
8.28635
-0.709604
-4.96918
4.03178
9.83657
6.53765
0.594725
-4.29362
-6.50751
-2.66997
-0.737666
2.25844
4.12254
2.63187
0.609838
-0.830819
0.656988
8.88434
0.595855
-11.648
-6.07663
4.51836
0.609559
-2.10748
-1.39701
-4.96854
-7.85929
-8.41295
-2.40223
5.18041
0.242739
1.98079
8.04687
1.86415
-4.74515
7.59317
5.5935
2.29157
-0.0549442
0.83015
2.16911
2.07191
-5.52413
-8.61213
-7.61586
4.26247
12.8093
7.88422
3.2101
-1.03471
-3.09339
-5.18147
-5.48889
-1.28667
5.65864
3.33159
-2.60519
-7.28835
-2.62375
0.644298
-1.3098
-2.52481
0.115701
-3.81828
-5.31542
0.667039
4.72405
10.4736
6.2946
-0.201659
0.329523
-1.84547
-3.22481
-2.33124
-0.779425
-3.7772
-2.23713
6.32673
1.83753
-1.27928
2.43717
3.9176
3.78022
1.72219
0.942627
-2.21634
-6.7485
-10.225
-3.71967
-0.740305
2.16154
-4.15995
-3.93964
2.29457
4.78338
2.95789
3.25396
1.65748
1.33971
0.252447
0.353237
8.57955
6.93268
0.386493
-1.67399
-7.14037
-9.57917
-4.05968
-4.16505
-1.44152
7.0901
8.28567
7.71832
1.86663
-5.52107
-13.4222
-12.0779
-4.55855
0.116003
0.981795
7.42344
8.14425
0.0577704
0.499532
0.0651198
3.97605
11.3186
14.6738
8.50511
-0.433185
-9.84645
-7.49093
-0.666359
-0.281337
0.679685
-1.3172
-3.52447
-3.26462
1.90314
1.82648
-5.83983
-8.23963
2.05756
2.9986
1.70327
-4.2805
-7.2618
-8.81121
-4.33619
-0.985967
-0.209495
0.450798
-3.89372
0.176488
4.70907
9.23824
11.7813
7.03824
-1.49495
-3.83882
-4.33039
-2.70449
-4.64162
1.82402
7.75283
6.36095
3.39642
-1.27276
-1.87738
-4.62083
-3.68118
-5.21328
-3.35062
0.688027
3.47314
9.3048
6.9296
2.22922e-05
-0.549418
3.99908
2.63809
-2.59973
-1.91309
-1.39779
2.23884
1.98474
-0.0524143
0.107297
-0.739661
1.05632
2.02993
4.81276
-2.85406
-7.19052
-12.2518
-7.58943
-3.21722
0.712524
0.0161402
-0.447897
1.72802
1.43338
-0.495235
-4.19701
-9.61953
-12.4896
-9.27826
0.326074
8.70591
18.141
10.4156
3.10759
5.49931
4.36419
7.44617
3.28458
-2.20361
-0.871667
-4.87487
-17.0349
1.37397
7.95079
2.09205
1.36641
9.80334
13.9268
7.44693
-4.12745
-13.4485
-11.6079
1.71037
5.48243
-1.47348
-2.88768
-3.77222
-5.04031
-4.81467
-3.57127
0.748492
5.20525
-7.70624
-5.99967
-1.14298
2.25585
0.378746
-0.806063
4.27206
6.64173
4.56032
1.24434
-0.245321
-0.423321
-1.34592
-1.87869
-3.73357
-5.50115
-5.41533
-5.67894
-2.01872
7.31704
14.8964
14.1835
9.51124
1.59872
-3.0971
-2.07643
-1.38952
-0.15223
0.547118
-4.88321
-7.49122
-4.73623
-5.07792
-0.0743679
0.0124486
-0.729337
2.92841
4.36449
0.930689
-1.45625
-4.61597
-1.52388
-0.979593
-1.33892
-6.34124
-5.89802
3.09644
6.59073
6.97279
3.57553
-2.14806
-0.877384
6.60986
5.46688
4.3153
4.00545
-3.10955
-1.23184
-3.27732
-3.70577
-4.63798
-4.17986
-1.16012
6.6465
4.03309
-1.30778
-11.3819
-5.92363
-0.211278
0.419555
2.52653
-0.243594
-5.25996
-4.05807
1.25098
7.32639
11.8434
7.59958
7.52066
6.8868
0.144025
-4.54086
-4.27111
-9.67213
-10.2737
1.41509
3.39674
2.02613
-0.691212
0.766686
0.822883
-1.69904
-1.68591
2.47355
1.76291
-0.530394
-1.28304
-7.48212
-4.61285
-7.27104
-4.39747
-2.87219
0.144276
4.79204
4.49437
4.16305
6.25419
7.33288
1.90052
-2.6404
1.88168
3.15853
3.79805
6.385
3.51645
-7.73623
-10.746
-4.7303
2.05364
4.82162
-0.195904
-1.10275
0.791042
2.78776
7.14686
1.31281
-5.24449
-8.56829
-7.83106
-6.00489
-2.70026
3.03986
5.12359
0.525218
-0.0694276
0.412013
5.65943
8.80593
4.568
-1.09604
-2.45246
-4.10579
-5.82319
-6.61254
-4.2303
-0.664419
5.10668
7.04706
3.81088
-4.32903
-7.02137
2.30296
1.0684
-3.85793
-3.54893
1.89315
3.8707
0.127065
-1.47123
2.55742
5.98016
5.47179
8.0444
5.08963
-1.40808
-6.58701
-1.53928
-2.23864
3.08339
4.6994
1.24961
-5.37482
-3.05121
-3.87776
-4.27592
-5.14863
-4.60889
0.140007
4.12729
-0.0205522
-4.42253
-5.41054
-7.27588
-1.37711
7.70782
5.23041
-0.740225
0.332715
2.76783
3.49168
-1.07206
-0.692265
2.14949
5.62087
6.79944
6.31984
3.89372
-4.61002
-5.16706
-1.17912
3.13728
0.838892
1.61248
-4.61459
-6.10024
-1.84196
-0.545393
-2.9314
-1.06578
4.33697
3.55602
2.75658
1.96873
-3.67872
-8.91334
-7.75729
-3.16953
0.996149
2.16829
3.71088
2.11417
1.7803
2.29723
1.69927
3.6479
3.87341
-0.360919
-2.40054
-4.46524
-7.19608
2.91867
3.78602
0.0448041
0.817026
2.906
0.00222929
-0.33112
-1.37936
-0.379518
1.92182
0.0301168
-1.27143
0.358666
-0.247894
-3.9364
-2.88289
-0.346544
0.573161
-4.53906
-5.95653
6.65459
5.72517
-3.38527
-4.27584
-3.67637
6.89044
8.6848
5.27345
1.83326
-3.05749
0.393914
1.82946
-7.16167
-2.88303
1.82202
2.41826
1.85345
3.79869
6.44047
4.42268
-7.9581
-8.44387
-0.916557
1.68009
4.89244
-3.97281
-8.04715
-4.52874
-4.29907
-2.96844
-0.9567
6.29371
8.36806
3.53726
5.8118
7.72591
-0.582588
-7.01253
-2.75775
0.197621
-2.80092
-2.20891
1.56792
4.76234
-0.019752
-4.10057
-9.05664
-4.41452
1.46672
2.08108
3.21791
-1.10371
1.01924
2.3965
-2.53882
-1.54794
0.893539
1.69439
1.3418
5.9467
5.35105
2.10022
-2.73418
-9.93012
-6.73811
5.67144
6.25003
-6.84589
-1.22982
2.6272
1.78505
3.56616
-3.65623
-5.776
-5.13025
-0.188967
2.41129
2.45963
8.13528
4.89343
-0.0397794
-4.97128
-3.83704
7.00656
5.6161
1.01596
2.71654
5.20937
0.674481
-1.74111
-9.11807
-7.02488
2.92295
4.38365
0.87534
-6.54847
-7.08413
-8.656
-8.29612
-1.70143
-2.77258
4.21283
8.75323
-0.922171
1.78501
-0.497727
1.39894
5.13804
4.93469
-2.81216
-2.00686
2.01325
3.01009
5.1729
3.8527
1.89567
0.435028
1.02028
2.09933
0.96563
3.30934
1.25333
-0.360137
-5.66645
-4.9
-3.37263
0.216532
-4.03289
-6.67417
-1.49642
3.67455
0.323489
-1.9629
-3.37871
-4.911
-3.93046
0.332307
6.51524
2.93047
-0.419831
-6.65632
-2.11715
3.62197
4.87921
3.04049
-0.761718
-0.722703
8.40879
4.17965
-1.36638
-0.0840746
-0.866624
-2.96867
-4.15989
-1.36988
2.27524
2.16243
1.9869
0.948982
-0.605326
2.49499
6.84237
1.89157
0.833938
-0.844288
3.69572
-2.64116
-13.3569
-3.35745
9.21376
3.85206
-5.80154
-6.2346
-2.90248
-1.33256
-1.02387
-2.38015
0.97532
-0.909675
-2.88813
2.56908
2.00639
1.53972
1.15747
0.0330607
-5.59101
0.883864
6.0241
2.56021
-3.16656
-4.29622
2.64064
2.25
-2.19265
2.39403
5.33973
3.69906
-0.10659
-2.66587
-5.02921
-1.35953
0.394043
2.39109
2.77292
2.0321
0.572483
1.98317
1.11497
-3.67683
-4.22258
0.572922
1.26973
2.44529
2.2099
1.02762
5.8031
-1.31731
-5.29554
-0.366558
4.46276
-4.18067
-10.6095
-12.6239
-6.56915
0.455998
6.87276
5.90344
6.56519
3.3249
-2.33333
-6.77384
-4.35127
0.896106
4.4269
0.849494
-1.52217
-0.474385
4.42497
5.01815
3.48433
0.603505
0.266361
-1.62395
2.11073
0.357713
-3.31079
1.79474
5.87186
-1.65432
-7.44273
-1.85751
4.43059
-0.673877
-3.2432
-2.30435
-2.33432
-1.35442
-2.19798
3.16388
0.0551983
-0.332042
4.3869
4.82788
-3.35799
-2.86842
2.57345
-0.477043
-11.4294
-0.737868
9.82461
8.13141
8.92793
4.72529
-0.95463
-7.26026
-6.18812
-1.86005
3.5557
0.342736
-1.07456
-2.01864
-7.47074
-0.830746
6.10061
5.39113
-0.407561
-2.7
-2.49536
-3.88805
-0.51371
-0.703877
-6.51185
-0.131329
2.54021
3.37256
-2.808
2.26472
0.620044
-4.57792
-1.16206
2.89036
0.563435
1.48142
5.309
0.99774
-1.12157
-1.63736
-0.222487
-0.872516
-2.84633
0.978202
-1.37559
-1.96521
5.20582
3.99401
4.59136
3.05284
-3.10153
-5.38774
-5.72633
1.01355
0.609357
-2.0783
-2.82997
-3.0318
-3.63773
6.98857
14.5767
10.5678
6.34579
-1.07594
-2.81657
0.161456
-3.71358
1.16912
1.75884
-0.573879
-1.44879
-2.11507
-0.147833
-2.27526
-2.90675
-3.30493
-8.39947
-3.99383
3.22306
-0.413808
-3.69911
-4.87917
-2.90811
0.248562
-0.897059
-0.739297
0.290502
0.21003
1.0349
-3.30049
0.665045
6.64622
4.5687
2.93931
1.69206
-0.0484112
5.33918
4.47875
-4.60472
-12.0213
-10.4121
0.461499
-2.76199
0.37524
5.11207
4.05789
8.16977
0.7144
1.53587
2.096
0.801608
-1.64827
0.200885
3.98017
6.32565
5.88266
3.55827
1.72342
3.56976
6.89046
1.11674
-4.66161
-5.16187
-5.35602
-2.85766
-5.24272
-2.53548
-2.30979
1.97265
5.39589
-1.81531
-4.21997
-4.06269
-2.18371
-2.52898
-9.2108
-10.6343
-6.7409
-1.1194
3.68833
3.55505
3.39051
7.28046
5.4133
-1.02095
-0.281304
-1.33232
3.03614
1.74051
0.827061
1.03944
1.98279
-0.740291
-3.27445
1.03612
5.54492
5.77606
7.99168
8.05219
1.70148
-6.09392
-6.97602
-3.15368
-1.32052
-0.108164
-4.28698
-6.04706
-7.66899
-8.21421
1.04208
7.26079
3.66758
4.35361
2.10053
1.28171
2.27493
-0.504257
-4.79955
-8.15973
-4.90152
4.23491
3.62234
1.43153
-3.30857
0.379917
8.63206
6.27591
7.56291
6.23063
-5.79595
-10.2682
-5.26922
0.863026
0.825509
-3.32321
2.32203
5.13461
2.57573
-0.15702
-2.01896
3.35674
3.38494
-1.8149
-2.81376
-1.75211
-6.72048
-6.35932
-0.788208
0.56354
-0.979826
-5.15526
6.36572
4.71115
0.0675307
1.07429
2.50739
0.849407
-2.76813
1.53769
-1.40696
-4.08318
-0.663494
4.15772
3.04645
-0.335704
-2.56402
-3.86077
2.92238
4.8404
3.3587
7.83748
-2.83673
-4.13699
-0.71833
-0.901863
-7.54758
-4.1412
3.32808
0.763409
-0.978816
-3.68459
0.51702
6.60155
5.34132
-1.58881
2.8443
4.74182
-3.37297
-5.37641
-3.96005
-3.58963
-2.27647
-1.21321
2.07828
0.91984
-0.682946
-1.65398
4.40282
3.29766
6.44491
3.19341
-1.69351
-6.53337
-2.82418
3.91501
2.41895
-2.03819
-4.08894
-4.37437
-0.165067
5.14133
2.64131
3.24104
2.57365
3.52762
3.01713
-7.44384
-14.0181
-5.23427
1.02344
5.19974
2.79204
1.03047
-1.82713
-3.58332
-0.381663
-3.04973
-0.448503
0.611237
5.47616
4.36728
5.84756
1.56674
-1.39587
-0.0195128
-0.739572
4.53795
6.90427
-1.04039
-5.55273
-1.74376
-4.05171
-5.3596
-0.164136
0.873023
0.701671
3.8109
1.53069
2.31994
0.183715
-3.77039
-3.76063
-1.89974
-0.541268
-0.414277
-1.92626
-1.15142
-1.33859
1.12458
3.55863
0.897021
0.718666
-1.06334
1.10622
7.39222
0.454502
-4.24479
1.03613
-2.88793
-2.87637
-1.03745
-0.536459
3.94425
2.59908
-0.112617
0.517695
-0.752749
-2.38704
-0.0610896
-1.77349
-1.15434
1.80449
2.85562
-1.53266
-3.53869
0.27861
5.28168
0.922365
0.390394
-0.0125409
-1.1216
-0.174832
-2.81499
-1.9407
-4.4767
-1.7382
1.90906
2.65553
3.03799
4.76342
1.52297
-3.19916
-2.05491
3.7544
4.92498
-1.18973
-5.2322
-5.1499
1.79505
2.24643
-2.48717
-2.19083
-2.62441
-2.675
7.35074
7.07181
3.97254
1.60453
-4.22429
-6.24504
-1.47373
4.26376
3.71643
-0.19726
-4.47353
1.92125
4.3874
1.59327
-5.35993
-0.730465
9.68455
3.62001
-6.54195
-8.95078
-10.0574
-6.065
-3.77283
-1.90269
-1.22163
-2.98439
2.75224
8.213
6.56032
2.67968
3.25753
1.84775
0.823032
0.113991
0.475668
-0.108381
-0.467922
0.16479
4.68009
6.55718
3.23611
0.710578
0.491019
0.989285
-0.534271
1.58024
-3.01944
-8.52078
-6.86941
-5.40647
-4.93529
-2.66429
-2.57699
0.158269
2.85661
2.07869
-4.23836
0.887179
4.32929
-0.124128
-3.01578
-1.38847
-0.91609
2.03815
5.63339
3.67649
3.83413
2.09663
-4.8879
0.622699
4.30662
4.87385
5.7359
1.79127
-1.86136
-4.26471
-7.28745
-3.94695
1.00094
2.61677
1.88982
-0.367711
3.84313
3.08153
0.658835
-2.72829
-5.71065
-0.848636
4.03425
2.05609
-2.75417
-3.41536
-6.95977
-0.719001
1.855
-0.63694
2.63895
-2.71342
-8.5498
-6.91888
-5.2497
-5.23559
10.0549
9.1833
7.33613
9.79937
4.28974
-0.503277
1.19667
2.20018
1.01987
-2.37105
0.337062
2.02701
-1.17297
-9.05539
-11.3257
-2.27958
3.95617
4.63265
10.5041
12.0278
-2.60284
-7.46618
-9.54746
-11.2038
-4.22031
-2.49655
-4.35479
-2.72106
3.6169
6.95592
3.9609
-3.08396
-0.104337
8.55266
8.95188
6.20444
4.74639
1.74541
-5.37932
-6.60167
-8.66414
-3.74156
4.73491
2.76296
3.72998
4.92776
3.71021
0.108542
-4.04492
-5.01273
-1.31522
-1.26772
-1.19779
-0.29389
1.10823
0.293932
-0.317033
-0.753696
0.589149
-1.87134
-2.61393
-1.32878
-3.65913
1.57549
0.0806489
-7.42767
-7.78754
0.78815
6.61409
4.48512
2.87963
2.52374
2.19074
4.32743
1.41098
-1.4318
0.0461861
0.226264
2.79229
4.31122
-0.713851
-3.24715
-0.674402
1.05645
-1.97468
0.189306
4.85349
0.234232
-2.11975
-1.17266
-2.97921
-8.11481
-6.0984
2.23648
5.25924
0.434645
-6.04428
-0.920081
5.08823
5.55471
4.70659
3.81332
1.2796
-2.20134
-1.18387
2.76759
1.04882
-2.71914
-5.96424
-6.97847
-4.75455
0.341525
-0.315678
-2.30507
-1.76557
0.445525
5.26549
3.32046
-3.84207
0.701049
6.22022
2.20029
4.30844
4.61447
1.21243
-2.00917
-4.89464
-3.25671
1.31344
2.63773
1.69355
0.913988
4.36116
-0.246162
-1.76861
-1.13368
-0.732446
0.303072
-2.39356
-7.38915
-6.19636
-0.0921303
-0.0776844
-0.0338876
-2.41651
-2.15812
1.4982
3.09926
2.39521
0.186705
1.19931
2.65369
-3.05258
-0.895902
0.657744
-0.737634
1.71457
-0.780852
2.57449
9.59327
2.20712
0.366323
-0.937711
-2.6149
-1.15311
-0.952397
-4.86241
-3.87793
-2.92803
-1.21764
2.53741
5.76719
6.76546
4.52636
4.31226
2.15278
1.25531
-0.399133
-4.90931
-11.0045
-8.70841
-4.98142
-3.75793
0.654454
2.8323
-0.710745
6.04698
7.76514
2.69382
0.745233
-0.641332
-1.56327
-2.92273
-4.46395
-0.278922
1.74531
4.63817
1.36055
1.51471
1.48102
0.492966
-0.259809
-2.4421
-1.34128
-2.19617
1.42919
-2.8135
-6.28995
-2.45418
1.13464
1.06348
1.82072
1.43909
-4.57965
-8.21377
5.54918
3.87278
2.60838
3.31504
3.63392
4.46236
4.724
4.54906
-0.0291753
-3.17623
0.558655
-1.16634
-0.703111
-7.78932
-5.52084
-4.46845
-0.174221
5.19396
6.81568
3.33548
-8.24638
-6.46968
4.14053
1.15817
-1.71622
-2.68883
-6.3884
-3.45079
4.57097
6.46296
3.29105
3.4532
1.71724
3.70843
4.75683
2.61829
-1.53555
-5.94717
-6.94442
-2.28824
1.77354
1.90269
-0.611101
-0.64147
-1.46063
1.33789
0.643402
-1.52277
-2.88749
-1.16018
4.9741
7.08387
-1.83991
-8.55528
-7.59357
0.930247
1.70469
1.34183
1.05418
-1.61773
3.28534
3.92035
-0.804563
-4.71004
1.1941
-0.624395
0.699535
1.5809
-1.97807
-1.7199
0.265185
-1.61925
3.03397
6.82758
4.85815
0.768141
-0.403593
-1.1907
-0.0339244
3.15566
-0.694206
-3.27364
-1.5575
1.28634
0.606365
1.69436
-0.208417
-2.35303
-2.06016
-0.966195
-0.219507
-2.19994
1.48958
2.99334
-0.344775
-1.7992
-6.79104
-7.23758
-3.75092
0.538599
0.198863
0.0705849
0.100372
4.32207
3.69584
4.75407
1.93599
0.782626
2.43728
3.38808
-1.1152
-0.797088
-0.549223
-2.80911
-5.75649
1.6815
4.12573
5.50522
4.40929
-0.753625
0.679218
-1.76006
-1.71868
-3.28414
-4.98129
-2.53983
0.0745638
2.63818
-0.727629
-0.477235
2.16853
0.511075
-3.09466
-0.399625
1.42675
-3.16369
-1.91541
-0.92082
2.30073
5.15257
1.00882
1.43823
-0.839899
0.125308
3.18544
-1.55825
-1.39437
0.403065
-0.0956114
-2.90836
-2.16463
0.10119
-0.84343
1.0385
2.22714
3.67643
4.35919
-0.447173
-6.15576
-0.63243
-3.48264
-5.17004
-4.29937
-5.00393
-0.135145
0.802727
-0.931026
0.581978
6.61501
2.99052
2.12608
3.14262
6.14109
3.69201
0.188371
-0.535293
-0.17717
4.13989
5.06736
-2.0813
-1.90469
-1.75144
0.830793
3.21914
-5.31581
-5.8578
-7.52933
-8.15416
-1.44479
7.2906
3.70998
-0.526015
1.60417
3.74477
4.09274
0.740755
-7.31935
-5.70492
2.29439
-0.668035
1.50707
2.05752
-0.15654
-4.06845
-0.667792
4.12888
5.43806
4.29681
3.18937
-0.305706
-1.90961
-1.32866
-4.22167
-5.95005
-5.11468
-5.03015
-1.32523
1.3083
-0.205657
0.520637
3.51136
5.34931
5.44728
5.96865
-0.656192
-7.53606
-0.218202
4.66375
-1.40106
-4.56687
-0.669311
-0.470605
-3.55733
1.18807
2.67981
1.89129
2.88425
-0.735403
-2.29477
0.0828281
0.0341294
0.0053668
-0.0079143
2.43808
3.89728
2.12463
-1.70839
-3.39614
-5.15569
-3.54593
-2.21235
-1.12529
-2.70456
-2.6655
5.0061
4.99896
4.74068
1.84768
3.89735
4.17774
-1.67135
-5.50853
-2.82496
-0.0287493
-1.41466
0.227255
3.77923
4.26576
5.09052
-2.93464
-6.53208
1.25495
5.50465
1.36773
-8.92277
-7.90022
-1.79498
4.05923
6.07946
-1.15827
-0.220128
3.65315
0.226141
-4.58445
-1.81605
-2.32364
-1.6964
-3.60129
0.305955
5.38818
3.54527
-2.8183
-2.78741
-3.37202
2.2301
7.50098
3.99746
-1.0786
-6.05601
-1.62688
-2.62527
1.82679
2.26942
2.44675
-0.0302334
2.41148
-0.207038
-1.94708
-2.16009
1.12318
-4.08974
-2.35212
0.661682
2.70101
-0.95136
1.64237
2.5077
0.517506
0.0140505
0.533497
4.14512
3.02356
2.05866
3.68555
2.8176
-0.503997
-3.62183
-3.93758
-9.68597
-11.2653
-0.898099
4.53797
7.947
8.09593
2.73353
-2.72035
2.73519
4.47026
-3.76986
-5.86518
-3.69494
-3.69186
-4.28636
-3.57216
0.449034
0.706283
0.0732458
1.34056
4.6024
5.68654
3.57409
-2.19528
-2.67367
1.23643
3.72786
2.63509
-3.24829
-9.47665
-9.75021
1.38549
2.26987
-5.36889
3.07099
5.3431
2.51259
3.79317
5.25311
3.43308
1.96245
-0.0185251
-1.40252
0.96871
-6.5629
-12.8137
-7.09976
2.20242
3.50313
6.71864
9.32376
1.49125
0.249672
3.46969
2.07901
0.13226
-0.437121
-2.50478
-2.9766
-2.33682
-2.61404
-2.64876
-1.68264
-7.43988
-3.37076
11.095
8.62993
-0.940029
0.0605439
1.50313
0.684434
-1.59749
-2.25173
-0.949782
-0.0549397
-1.93734
-3.90234
-2.50121
-1.37319
1.14818
1.98368
4.07853
4.39874
9.19118
0.256724
-3.38717
-2.44197
-3.38425
-3.86844
-3.98796
-2.19294
-0.849785
0.116956
-3.3054
-2.87265
0.944977
2.69323
3.75335
1.81455
-1.19257
-2.25853
0.506246
4.01422
1.2375
0.973474
-1.68683
-2.4935
1.27237
0.492577
4.89469
3.45262
-2.63305
0.836159
3.09387
-0.521693
-2.92032
-1.88694
-1.88385
1.52826
3.71655
5.7348
0.932689
-2.40702
-0.468233
3.22663
0.478451
-3.94854
-7.55484
-7.06411
-2.18748
0.424066
2.99397
0.455958
0.389241
1.97077
-0.361199
-1.06627
0.182707
1.02152
2.343
3.88297
-1.90586
-4.848
-2.40456
-0.58912
-2.56253
-0.379568
-0.45527
-3.6513
-7.86703
1.45341
9.40266
9.34022
7.14143
4.4184
0.664285
0.531482
1.99132
1.94711
-0.752085
-3.41839
-0.162525
1.11034
0.148655
0.197966
0.905799
1.1732
1.10934
-0.00848821
-2.58582
-7.59395
-8.95356
-9.361
-9.03067
-5.7011
-2.15935
7.8588
7.63042
0.543895
2.40143
2.73927
-0.419921
-0.801335
1.51926
0.589122
0.00292305
0.504581
1.70001
5.71996
6.4247
4.00814
-1.18555
-6.26137
-1.91311
3.55059
3.6667
-2.26613
-1.22747
-1.31943
-5.41411
-2.89456
0.62897
2.14587
-1.86507
-3.57223
1.29069
0.420295
3.13215
2.32168
0.0160541
-2.32198
-2.8809
2.70162
3.02264
2.24475
-3.31354
1.38091
1.98355
3.07034
-0.512924
-2.89664
-0.229625
-0.0815243
2.45869
-0.93627
-2.35016
0.109335
-1.53906
-3.35784
3.01247
4.61337
5.34537
1.32384
1.71861
0.109588
0.521897
-7.55184
-11.732
-9.69689
-4.38596
1.99682
1.33805
0.112629
4.30844
7.74004
3.85937
1.03984
-0.90197
1.13528
-0.0288928
-1.61822
-0.928153
0.428039
-2.75624
-2.20838
2.4425
4.61685
4.15207
1.10899
2.2425
0.350093
-0.180717
1.04031
-4.82379
-2.75809
-1.23687
-4.24589
-2.70097
2.61733
1.931
-0.275582
-0.0870486
1.6854
-0.509393
-2.75331
-1.5998
2.57335
-3.76614
2.09935
4.27955
2.20248
-1.77881
-4.31251
1.65828
1.47606
2.90996
4.48836
2.75946
-0.272732
-2.35153
-2.01785
-4.16676
0.359105
0.0608534
1.46372
0.632073
-0.826037
2.291
-0.741789
-1.96174
-3.51607
-0.271307
1.06807
-6.29823
-7.51497
1.218
-2.74905
-1.8314
3.93721
6.01899
4.6568
3.50311
0.0875611
0.279551
0.411653
1.30862
-0.616578
3.86586
1.68861
-0.72074
0.134551
-3.4234
-2.32429
5.08624
5.57579
-4.33529
-3.37559
0.703424
-5.64821
-3.8081
-2.31095
-0.299228
0.302019
3.19174
4.1347
2.05749
-1.09938
-0.686393
1.26589
0.0280376
-2.43992
0.161293
-1.37271
-3.91781
0.403768
2.49438
1.31759
0.479523
4.81298
1.6666
1.88422
2.6762
1.32496
-0.568902
-4.338
-3.37483
-2.56276
-1.8841
-2.13859
-0.532189
-1.04694
2.78111
7.60332
2.92576
-0.463533
-5.22925
2.4849
5.75275
-1.5437
-4.79648
-7.56484
-8.14294
-12.8677
-9.32995
0.392657
9.55176
7.90263
6.45624
4.37802
6.06169
8.46408
3.77816
-3.73246
-1.198
2.15557
4.18613
-1.36217
-9.15191
-5.62999
-0.468837
-0.251665
1.55924
6.75134
4.83154
-0.113623
-4.3166
-2.83356
-2.53639
-0.581726
-2.54042
-3.6956
-3.39474
-2.92803
0.097101
-0.256165
2.06928
2.75663
0.66153
0.111019
-0.187952
3.78576
2.16493
0.171516
2.13673
4.96348
2.43041
2.17815
-0.642766
0.716106
-3.40073
-3.53568
-5.8819
-0.528977
0.638478
-0.242973
-1.61345
0.0560286
5.27604
4.32529
1.73689
1.46765
0.293464
1.02994
-4.36766
-7.7645
-4.65732
-4.72242
-6.03627
-4.77675
-5.91287
1.28355
16.0233
10.2506
7.42992
2.61271
-0.804763
-0.623769
-0.506489
-1.25568
0.735385
-1.29802
-0.163564
-1.89083
-0.505954
-0.400134
0.47968
1.81171
3.34119
1.60808
1.05641
0.493115
-4.13494
-3.80572
-3.4362
-3.85513
-5.55815
-7.14455
-6.04027
0.924063
3.19182
5.43801
4.22817
1.58278
2.22173
0.0966576
-2.09868
1.53142
3.08865
4.77625
5.58854
0.822356
-4.91795
-6.00964
-3.07309
0.753399
3.29358
6.42224
1.53053
-3.50973
-4.22327
-5.2414
2.62197
2.0078
-0.146084
-3.18572
0.749547
4.17831
5.38668
-0.717138
-2.32257
0.000811068
-4.18534
-3.42976
2.22869
0.983659
0.110973
-0.458332
3.29469
4.76359
2.94511
-0.159311
-3.92705
-2.1583
0.74972
4.22155
-0.350708
-1.83095
-3.59713
-2.15234
2.16887
-4.94474
-4.49209
0.190679
-2.39808
-0.663978
1.40018
-1.349
-0.583599
2.48358
0.346092
2.2255
2.56595
3.47413
-2.66777
-2.4821
1.11083
-0.605854
-2.47594
0.590774
-2.22617
1.85017
10.2462
9.47862
0.946486
-2.4359
-7.87394
-4.48371
-1.92414
-1.69546
3.51032
3.51174
1.65129
1.91774
1.11616
-0.359121
-2.19103
-5.76188
-2.05883
2.18822
-0.0176104
1.78044
0.402659
-3.00613
-2.6305
1.07891
4.31644
0.471268
1.1257
2.27464
2.02589
0.841148
-7.431
-10.8624
1.47617
2.30628
0.303387
4.70203
5.70221
4.32837
1.42156
-3.15486
1.25875
-2.51091
-9.02532
-9.53722
2.2198
5.88129
2.24484
-2.77115
-0.202603
-0.903202
-0.460981
5.61682
-0.486442
-5.32976
0.811136
5.7115
-2.80861
-5.82486
3.2256
5.02499
-2.2346
-0.355703
5.04479
4.2468
1.78487
1.61738
0.522022
-2.76314
-4.83181
-4.29071
-1.1961
-0.666874
-0.239555
2.54494
-0.640641
-1.06361
3.65356
1.67256
0.240166
-0.73892
-0.533008
3.71577
2.19403
-0.646067
-4.99786
-3.51351
-0.657786
-0.327921
0.751609
0.625118
0.515908
2.05362
4.57293
4.28212
-0.348514
-3.49731
-3.80426
-3.80389
-1.93698
-2.19318
-2.19418
-2.81916
0.288625
4.05594
4.73129
0.822095
-0.999915
-1.3069
-0.572914
0.814838
2.54561
1.112
0.102581
-0.560667
-0.1303
-1.44526
-2.19343
-0.864521
3.40468
4.43874
4.03318
1.84365
1.03396
1.9959
2.42065
-0.831439
-3.87912
-0.86221
-1.34367
-4.93482
-4.62052
-9.84938
-11.0085
2.95353
8.94698
5.11127
3.91527
6.15489
-0.934536
-2.3547
1.73903
1.06803
-0.295223
2.04678
-3.9204
-5.2186
-1.6515
4.12707
2.81876
-1.51541
-1.04912
5.85489
2.68484
-3.75214
-7.03206
-3.8655
1.793
-2.68373
-2.17367
2.46271
1.37727
1.44094
-1.00586
0.755451
1.12432
0.537287
4.24546
4.01649
1.14749
-0.0447162
-1.67943
1.40161
6.59519
-0.249589
-5.70299
-0.867787
-0.0956751
1.18267
-3.00902
-1.57985
-2.2013
-2.50013
-0.0972932
-0.12708
-2.58828
0.854689
-0.154865
-1.6127
-0.81218
3.08301
3.05705
2.8467
-0.760178
-2.31366
-0.750721
1.16241
-0.901325
0.238479
5.06892
1.39968
-1.99684
-0.902511
-0.146597
1.15131
-2.9953
-2.32011
-0.906702
-3.97846
-3.2775
-2.52514
-2.57402
1.77285
6.31695
6.57969
7.18935
2.22058
-0.455666
-2.25199
-0.885853
0.055066
-2.61375
1.47861
0.822304
-2.96253
-1.22365
1.64297
0.168028
0.789386
0.310543
0.756685
1.78111
-1.78839
-5.73005
-7.99118
1.68523
0.733557
0.109386
3.82599
6.08795
0.660882
-1.3873
-2.67806
-5.80865
1.50758
5.51254
-0.328302
0.705652
-1.91484
-3.52167
-1.05712
3.97267
3.83269
4.30847
4.31009
-4.20363
-3.94471
-1.91315
-1.26454
-0.752119
-0.356706
3.20255
4.53506
4.2603
-2.00299
-4.50123
-1.03877
-6.06216
-8.20687
1.56257
8.02709
2.84249
0.816607
1.01409
3.48429
2.38233
3.02672
0.680469
-8.41725
-12.3931
-2.81459
1.33387
-2.48142
-1.53791
-0.730113
1.58228
3.92882
3.67604
2.49992
-0.0490859
-2.53083
0.925533
-2.49553
-2.09276
0.853133
2.04063
0.339703
-2.35688
1.00827
7.37692
3.86086
0.485184
2.30859
0.928945
-0.0578718
-0.723312
-1.94578
3.07909
2.12341
0.488618
0.127421
-1.00251
-0.123055
-1.23118
-1.14046
-3.51756
-0.834649
3.41737
1.88376
-1.79312
-0.942942
1.23689
-1.56419
-3.41611
-4.49469
-0.0596209
-0.39559
1.01229
3.48266
-0.0543814
-3.288
-6.08852
-5.10766
-2.44111
-1.2421
-4.3402
-4.34291
5.92444
11.7342
5.14576
0.477147
-1.80122
-4.77281
2.63461
2.59399
-0.786338
1.99529
3.79405
6.42701
4.4986
-2.01659
-9.52747
-0.0135093
7.17379
3.31935
7.01379
4.00913
-4.12511
-3.71307
-2.51468
-1.67425
-5.20003
-2.39709
-2.0718
0.676803
-0.855947
-2.68893
-3.76856
-5.06226
-1.47561
1.06994
6.83745
2.90814
-0.721192
2.61381
-1.88742
-1.51239
-1.98147
-2.14834
-0.450513
0.756919
-0.0722913
2.6961
3.58536
1.50798
0.839729
0.328886
-2.49577
0.682498
-0.509758
0.364494
4.18782
2.35236
-3.15552
-5.02325
-1.86073
-2.87726
-3.32045
-2.50522
2.38738
1.512
-0.704923
4.49779
6.93408
1.60797
-2.8485
-3.97146
2.94169
4.95139
5.15996
3.29449
-0.682279
-3.36574
-0.101372
-1.24972
-5.25779
-0.26853
3.86499
-0.212456
-4.60357
-1.54649
6.28499
0.423628
-6.02904
-5.89146
2.75201
3.43155
-1.26218
-1.88176
-5.44593
-4.98525
0.619402
1.95053
1.15893
3.08074
6.66601
6.18219
0.520022
-1.71028
0.127268
-0.344834
-2.32562
-2.72123
-1.20017
1.50902
-0.0718625
-0.328999
-0.502903
-3.0547
0.341415
7.47885
1.90366
-9.35092
-12.9881
-3.86863
5.04544
2.61822
5.02194
8.00627
3.78121
-0.110486
-1.08623
-0.867932
-3.94261
0.809298
2.30377
-1.7478
-3.50787
-1.15276
-1.90714
-2.21601
2.7103
7.52743
4.56281
3.09512
-0.575735
-0.584586
-2.23498
-3.22731
1.2005
-0.0325656
0.753394
-1.25538
3.16949
0.958909
-1.46151
0.218647
-1.19668
-2.12984
-1.03736
-1.10826
-1.94237
0.0466276
-1.10831
-1.82616
-0.56002
-0.495495
-5.30835
-0.775677
-0.088892
1.26504
2.15717
4.30487
7.12005
1.98329
-3.24329
-3.27743
-0.642565
0.343607
-1.46418
-0.108068
0.0069526
-0.709594
4.60104
5.38995
0.62468
-3.46424
0.525222
-1.79138
-3.25055
0.0591402
-2.64257
-2.62396
-3.21904
-2.52172
3.09848
4.27635
4.83958
1.65666
1.06447
-1.03872
-4.82221
1.1635
6.73619
0.200897
-2.5601
-0.982405
0.126138
-0.782042
-3.78513
-4.69628
0.780288
3.63139
2.89526
2.24359
4.11873
4.25685
-0.889531
-1.88206
-4.11616
-2.10955
0.975371
1.30813
-1.04162
-0.942303
-0.845467
-0.751352
-2.29198
1.72278
0.19084
0.773112
4.34995
0.679188
-4.32871
-2.53276
-3.64568
0.749487
-2.07964
-2.17519
-5.31863
-3.71358
0.174367
6.16001
3.32935
1.31703
-0.843454
4.39045
6.83875
5.59003
5.99037
-1.56796
-5.77984
-0.112504
2.79094
-2.07072
-3.62267
-2.0323
-4.14958
1.2229
6.33273
1.09663
-4.18041
-6.67156
-5.46462
-4.27326
-1.4955
-0.266008
3.9451
3.32149
2.76172
3.07763
-0.961655
-6.00116
-0.725641
4.56552
3.78701
1.43733
3.89211
0.381596
5.35693
5.00965
1.90867
-0.406037
-2.05775
-6.42037
-3.29077
2.2005
-0.899866
-4.62505
-6.86344
-3.01864
2.21037
0.669829
-2.83419
0.763245
2.32946
0.796245
2.18869
0.528253
-4.69395
-3.75502
2.07693
1.8085
1.56573
3.79406
0.153499
-0.635147
0.531094
1.28932
0.0858574
0.10025
-0.708193
2.07248
2.15258
-1.2212
0.671623
-0.584973
-0.591815
-4.6586
-5.41974
1.01078
2.84054
4.73504
0.80322
0.579268
4.46364
2.63709
-2.90148
-4.0128
-0.445055
-0.515336
0.263153
-4.15799
-6.82981
-3.21263
1.94568
2.89733
5.04976
7.0107
6.21386
1.94468
-3.57159
-5.46531
-0.707573
0.834704
-1.5032
-4.6338
-1.52852
-0.983505
-0.535595
-4.2532
1.77058
4.09533
6.22743
5.59718
3.11892
-3.72721
-11.389
-5.1443
1.8464
1.53512
2.08553
0.712601
-0.225192
0.821957
-2.59236
-0.576488
0.854535
1.80172
3.17049
5.52392
1.80907
0.799649
-2.4356
-5.29942
-0.34966
-1.11824
2.52346
-0.942918
-6.46581
-3.97692
2.09203
2.80297
1.51497
3.86415
4.37491
-1.30324
-4.20424
-1.77479
-0.831578
-0.113189
2.86061
3.04489
2.15103
0.576593
-4.62205
-1.25977
-2.19346
0.618616
4.10959
5.34874
-0.748081
0.0838567
0.574213
-1.65156
0.176092
2.94758
3.6931
-2.70715
-6.91599
-2.00445
-2.74388
-5.54528
-5.41494
-6.55576
-3.51211
3.79628
7.74881
6.71446
3.1928
1.47954
2.69971
1.69283
-0.748195
0.0947791
-1.82826
-2.19333
-1.48067
0.732611
2.16691
0.525874
0.200521
0.768801
2.70369
2.13652
-0.0820798
-0.815708
-3.77625
-3.92419
-2.97577
-3.78053
-0.771812
-0.300608
-2.35674
-3.49098
0.993034
8.11681
3.43039
0.130954
2.04559
1.58276
1.18608
0.0326341
0.07945
1.73639
0.264209
-0.75416
0.229876
-4.0472
-2.54736
1.90815
-5.02131
-1.09525
8.18811
5.69531
2.00029
-1.46532
1.16006
-0.501333
-0.833101
-1.88958
-4.98274
-1.85409
1.15158
1.426
-0.964351
-2.52257
-1.77595
2.10432
2.09558
0.296674
1.49621
-1.11025
-4.44556
0.141138
-0.0817874
-6.75388
-3.36527
4.09117
3.14735
-0.0855228
-0.552119
1.67709
1.46974
-6.0663
2.45081
8.8591
2.77906
-1.45995
-2.56138
-1.48357
1.80504
2.26233
0.786642
1.37363
1.65074
-0.760869
-0.727076
-1.5131
-1.96967
2.73135
3.1983
0.786307
-2.585
-0.653477
-1.8416
-5.01968
-0.306124
-0.428025
-6.20499
-7.16636
4.99504
4.68692
4.22337
2.02176
-2.02875
-2.13981
-2.04995
2.26719
0.133124
1.18498
1.83532
0.531315
2.90079
8.35594
0.758824
-8.5295
-8.49691
-0.560581
8.87537
7.21378
-4.24074
-10.0333
-4.26456
0.711777
2.39453
-1.50189
-2.32117
-0.200271
3.75009
3.74545
2.71206
1.03796
-0.965244
-1.42109
-2.43813
1.96831
3.16236
2.11573
5.33592
4.61574
-1.99099
-3.11369
-5.39223
-5.80875
-4.91373
-0.713348
0.533669
0.55048
-2.70135
-0.552454
1.80115
0.868228
3.51578
2.64154
1.9062
1.29463
0.79277
1.20352
-2.71203
-5.1585
-0.71744
0.690726
0.802964
2.48847
5.91033
2.06104
0.122541
-2.0587
-0.987169
-1.89415
-3.23233
-2.29997
0.919111
2.1847
0.419159
0.00709919
-2.74287
-2.77273
-2.59794
-1.45791
-0.547492
-0.65399
-1.41935
-3.37193
2.20465
5.08621
6.77173
6.68599
2.9235
0.188797
-0.878477
1.6817
0.762705
-4.87441
-1.02074
0.75054
0.196667
0.571759
1.53163
-1.27821
-4.78229
0.484186
-0.176005
0.154216
-2.1454
0.492774
-1.09941
-6.21502
-3.50835
-0.630052
-1.07402
-1.23872
-1.18983
-2.61569
-5.71708
1.7458
3.52766
6.29428
5.41995
5.40401
3.47241
2.80882
2.1915
-1.64014
-5.72547
1.74863
4.18876
2.27041
3.26132
0.38155
-1.6387
1.12699
2.80579
0.358183
1.83293
-3.99289
-2.86399
-6.9545
-4.41821
-0.863041
-0.114259
-1.28166
-0.377058
-0.595627
0.904737
-3.08056
-3.09445
1.19629
-1.71732
-1.06381
1.93667
-1.04509
-1.27807
2.79795
2.1229
1.57912
0.332211
-0.486969
0.669822
2.25024
2.36429
-1.78682
-0.338333
3.11788
1.13849
-1.89544
-0.527786
1.23958
-0.11328
-0.192937
1.39707
1.5373
-1.7585
-0.592002
1.02658
0.385565
-0.907916
1.53169
-2.68847
-4.52564
-0.542554
-0.275176
-1.6775
-0.00548631
1.97874
1.58403
0.436254
2.12209
2.30687
-1.80212
-0.334581
-0.140987
-0.806397
-1.99413
-3.43615
0.786953
5.24627
3.0111
1.33239
0.934196
1.40343
0.773374
0.256807
-0.158383
1.1482
1.05488
-1.61143
-7.44588
-3.53824
4.18619
0.0543303
-5.18197
-5.06667
3.54336
7.44355
-1.07525
-2.62538
1.39867
-0.925438
-2.42473
-3.25891
-4.38376
0.937755
-2.84375
-2.62244
3.54387
4.28068
9.48755
7.47312
-0.915209
-4.85039
-1.45453
6.61574
2.54057
-4.49122
-1.58973
2.85293
-0.148152
-0.574405
-2.52385
-2.08349
4.01275
-0.421319
-0.977942
-0.546855
-3.56535
-2.13501
-3.5297
-3.42341
0.969394
4.66777
0.289049
-7.55752
-6.54149
2.00221
3.5832
-1.22438
-2.61783
3.27591
1.38913
-0.664731
4.65737
3.91263
4.04443
3.08818
0.626796
0.57676
0.496069
0.393045
-1.35673
-0.00404118
0.876963
0.561284
0.276251
0.838758
1.91752
1.61742
-3.68178
-2.97362
0.0754413
-2.0438
-2.56046
1.30429
-0.332492
-1.44776
-3.76695
-3.44593
1.08984
2.42495
1.52641
-3.26128
-0.514312
1.36875
0.100365
-2.3679
-0.560073
0.724049
1.57593
-0.371213
-1.60357
4.26254
4.6579
-0.282998
-0.301163
1.32851
1.49146
1.46911
-2.76992
-4.63085
-3.93715
0.0789522
2.79005
4.43951
3.60942
0.333913
-1.91957
-5.78445
-0.638792
2.02456
0.402416
-7.23588
-10.9878
-0.393198
4.40624
7.46543
8.30237
2.64657
1.16581
1.73131
1.97406
0.334336
-0.014357
0.513078
0.764033
-0.0138434
-3.06583
0.740266
1.51414
-0.614861
-3.72702
-3.19166
-1.87215
1.5298
-3.7043
-6.98214
-2.9789
0.7503
3.24364
3.10228
1.19397
0.670906
-1.34839
-3.40633
-2.87991
-0.637489
3.43247
2.7268
-0.314705
0.184481
1.37959
2.13835
5.80696
1.34082
0.705621
-1.42731
-4.41267
-1.21336
0.198298
0.329318
2.04515
-0.205475
-0.0567954
0.863425
1.41465
0.855867
1.21589
-1.92821
-3.92858
-3.37781
-1.13548
-0.34598
0.247763
0.674414
2.59176
4.54403
4.72579
-1.22005
0.561494
0.0210194
-3.66778
-1.84849
-0.545348
-4.56136
-2.03447
-2.6374
-1.18057
4.83285
2.85447
-0.259862
3.41407
10.5287
5.5196
-4.84829
-6.67154
-2.64355
-3.11888
-4.09113
-5.29911
-0.0138866
1.10285
1.81679
0.574243
3.00219
1.98512
1.98742
1.83522
-3.32245
-4.11494
2.16264
1.30801
0.645221
-1.4849
-1.18029
-0.0796611
-0.964809
0.973713
-0.233001
-2.63695
-1.58095
0.0963539
2.90036
0.544918
0.614887
-0.154993
0.200867
1.28454
5.2231
6.68921
3.09408
-4.48938
-4.42428
-0.0559983
0.36885
3.03066
-1.17616
-6.41922
-4.62554
3.40816
1.18698
1.24563
-2.08855
-4.18909
-1.21984
1.68444
1.08609
-1.81241
-1.14477
-2.21226
-5.15968
-0.962215
0.398601
5.50266
2.94638
1.96289
1.26179
2.41856
3.90528
4.66967
1.60048
1.0526
2.20366
1.12373
-2.20597
-1.10036
-1.19085
-2.88513
-3.07394
-0.596084
1.86876
2.51697
1.88858
-2.8356
-4.25784
-3.3615
-0.953821
-0.134396
0.391894
1.50146
-1.16439
-3.71779
-4.37124
-3.6796
-2.10071
-2.45424
1.66951
6.06008
3.78027
2.07527
1.6641
1.31344
-1.4313
-0.686094
2.34284
1.78654
1.31281
0.913119
1.39541
-3.29048
-2.93382
0.781236
1.59469
1.22812
2.53648
-0.8573
0.998484
1.32439
-0.219045
-5.35831
-2.73166
-0.791404
2.20803
2.44088
3.24449
0.268532
-3.40776
-2.39556
-0.755791
-4.50754
-0.148048
3.6266
-1.41444
0.2491
5.45404
4.48187
-3.84311
-1.81792
1.27037
2.41039
1.3429
-1.14074
-1.13991
-1.92693
-0.727242
-4.80416
-2.30367
3.62136
1.6306
1.01178
0.521274
-3.12102
0.371098
3.49259
-0.387224
-0.519516
-0.593074
-4.69789
-1.3944
2.56533
1.79642
-2.08412
-2.05862
1.40143
1.20832
1.85236
2.1836
1.45254
2.49623
1.36908
-2.77739
-5.38605
-4.31335
-3.26779
2.62071
5.6312
5.67565
2.06453
-0.506021
-0.587622
0.178519
3.08726
-0.951505
-5.27571
-5.39525
-1.84827
-0.148461
-1.41389
-0.477757
1.87272
3.37213
5.00047
0.0429658
1.62179
0.908399
-1.29603
-1.08164
0.735481
-0.584262
-2.27415
-0.822497
-0.629797
-0.466799
-1.96196
-1.1853
1.06566
2.51606
3.32139
2.80189
-1.85595
-4.06483
-1.20774
3.21765
1.03515
-4.60155
-3.16709
-5.24828
-2.14676
0.968229
2.26183
4.69671
3.62325
1.07141
-0.678084
3.93539
1.85152
0.320108
0.0641217
-0.962244
-1.61553
-0.336409
0.516525
2.6568
-0.218542
-0.540657
-0.774137
-0.115364
-1.35498
1.93962
-0.135694
-7.28824
-4.25305
2.14341
1.38024
-4.92574
-0.606463
2.36141
-0.669501
-2.5956
2.07417
3.48283
3.42242
2.36189
-1.7637
-3.57301
-1.24671
2.066
0.915172
0.124696
-0.374666
0.172542
2.19814
1.79869
3.05932
2.87043
-3.19367
-2.15341
-1.33006
-1.50954
-3.96464
2.04655
1.87371
0.844761
3.38419
4.0289
3.33462
0.943814
-1.62377
-4.14016
-3.17116
-0.737936
0.070299
-1.88988
-0.659621
1.80391
1.65117
-0.250065
-0.748088
-1.09354
0.322343
-1.26429
-2.29296
-1.23549
-2.11027
-5.82897
-3.80947
1.93937
0.00608604
-0.382926
3.55566
2.7595
1.29308
-1.34796
-1.32336
-3.58868
1.77764
4.53313
4.52879
4.28612
2.2344
-0.0944458
-0.0130103
0.849743
-0.279525
-0.215826
2.26854
-0.343375
1.1599
-1.23484
-1.98749
-2.40308
-1.73537
-2.82436
-0.0953356
5.81851
0.3726
-1.68809
0.27836
-2.54767
0.609643
0.199281
0.700312
-1.49527
-1.25629
-3.48209
-3.09837
2.28954
3.30675
2.95589
-0.755711
-0.75192
0.914229
-0.506996
-3.07383
-1.31919
1.5809
-1.47968
-2.58816
1.77702
0.521882
-1.13243
-2.93468
-0.612591
2.68613
3.9606
2.96154
1.3056
-3.14058
0.655818
2.35
0.886139
-0.147127
2.43559
2.34354
-0.361877
-2.18848
-2.48378
-0.90722
-0.626745
-0.406882
1.39301
2.48576
0.567821
-4.056
-1.18102
-2.46334
-0.699563
2.17082
0.682993
-0.353015
-0.203406
-0.903913
-1.30171
1.80294
3.76429
0.728996
1.08013
1.20399
-1.29228
-2.10307
-3.35735
-3.1685
-1.1879
1.87178
2.99461
0.285731
-2.35564
-1.50006
0.827423
2.35045
0.775704
-0.318848
3.05848
0.197308
-4.18972
-2.75184
-0.767082
-0.166879
1.11032
1.11953
1.09377
0.223863
2.11109
1.61795
-0.441526
2.30192
2.33663
-3.53514
-3.14742
2.22362
1.57678
0.214642
0.0911929
0.797275
2.00152
0.993079
0.194966
-4.4985
-2.47843
-1.81081
-0.439855
1.31585
-0.0584106
-0.164952
-0.235619
-1.90783
-3.70744
1.08269
2.6059
1.02267
0.728962
0.491328
1.93435
-1.32312
-1.78053
-0.329854
-0.145208
2.45103
1.57252
1.68701
2.43965
0.28249
-1.23302
-3.03466
-4.07399
-2.87504
0.578692
2.86359
1.75545
-1.55486
-2.02791
0.251639
0.138799
-4.82205
1.21903
3.58723
0.886189
-2.57462
-3.84921
0.528559
5.12835
7.91372
3.53831
2.80141
-0.390434
2.32626
-3.46193
-1.4679
-1.75778
-1.90875
1.31708
-2.40461
-6.4189
-0.530467
2.60525
-2.83916
-4.64977
1.01018
5.56728
-0.733803
-3.24796
-3.0523
0.595888
-0.21661
0.140068
-0.37485
2.65135
1.29871
-1.25705
-2.8043
-0.289183
5.59526
5.96456
1.77643
-1.93017
2.27801
2.49248
0.827852
-1.99206
-2.12506
2.81751
1.00746
-0.299295
-0.374001
-0.441164
1.94777
0.903105
-2.37426
-0.388572
3.3401
-1.01701
-5.58271
-6.69267
-2.11487
1.89662
0.366257
0.953424
-1.17398
1.56444
1.64397
1.56639
-2.70451
-3.76245
-5.03005
1.03164
3.42424
1.56656
-0.564362
0.52933
3.69822
1.49074
0.727916
-0.66334
-4.01162
-6.78419
-3.22611
2.72152
4.97131
2.94956
2.27179
2.51488
1.70323
1.04181
1.32757
-1.86787
-1.45375
3.79397
0.468414
-5.09712
-4.41782
-4.4843
-3.37186
5.83029
8.36581
2.15442
-0.529987
0.93648
2.61298
-1.41568
-5.71647
-6.61819
-3.51407
0.459053
3.94223
1.13705
0.843951
-2.65951
0.105394
0.341345
0.51028
3.88544
2.62186
1.5918
-2.49643
-4.26256
-0.256521
-2.45072
-1.26733
2.10272
3.43612
0.0387051
3.49924
1.48436
2.4655
3.72259
-2.29621
-2.15639
1.27021
-3.14007
-6.75424
-0.580236
0.298866
-4.85211
-3.04061
1.68809
-0.925562
-0.0883102
-0.264006
1.35343
7.32016
1.87568
-2.6737
-2.23514
2.33254
4.44611
1.49203
-0.581466
-3.56554
2.85349
4.49261
-2.08938
-0.657139
2.75737
2.35213
3.48443
2.26814
-2.91032
-4.67158
-3.19994
-6.17661
-4.53404
-3.96285
0.790054
1.49509
-0.5472
-1.01596
0.421708
2.22281
1.68996
-0.372783
-1.68438
0.0531261
-1.99716
-1.52093
-0.18968
-0.812352
-1.04917
-0.180286
3.01251
1.00653
3.82664
5.57584
1.56386
-1.95917
-4.09854
1.3838
1.79316
-2.02722
0.575359
-1.68737
1.9487
-0.521998
-1.99637
3.83502
8.42019
6.10434
1.73578
-0.47862
-1.12196
-3.1247
-0.990584
0.500217
-0.98969
4.60805
2.28384
-5.19422
-0.907623
10.9368
2.48029
-0.222169
5.14141
5.6801
-0.361277
-9.60556
-8.10029
-3.56752
2.70523
-0.0919101
-5.50105
-3.30019
-7.58216
-6.87955
-4.48402
-6.78964
-4.67629
-4.60589
-5.03551
-2.45123
-0.435059
-2.1657
-5.42504
-2.08202
12.0155
6.19359
1.32369
7.19709
5.12048
6.83096
2.7492
4.03161
5.51203
4.53961
6.85354
-1.09153
1.77581
6.74025
-4.41527
-10.8807
-5.57228
1.56716
-1.96607
4.7695
7.26343
13.2359
8.78307
-4.8668
-9.88302
-8.77136
2.93321
-0.306191
-2.69176
-9.24358
-6.66306
-1.38163
-6.05184
-3.9448
-0.687945
0.690614
-0.900184
-2.72046
-2.91529
-9.32425
-12.0271
-2.9948
-1.35904
-7.97215
-12.2112
-5.48174
3.3207
12.9684
10.2695
17.4329
17.5437
13.6502
11.3222
3.57209
14.7078
11.4726
12.6397
14.0888
4.87881
1.3176
4.13554
-2.93198
-3.10241
2.11939
-0.0784792
-6.31399
-14.0274
-14.0099
-11.2229
-10.7929
-11.0843
-14.2168
-14.044
-2.59775
-10.4629
-10.1939
-5.24713
-0.703567
0.862157
-11.8762
-9.53914
-3.72839
4.0973
3.80152
12.0005
9.77133
0.696655
8.88213
14.1224
12.0803
3.60505
7.68556
12.4645
15.6698
2.79956
1.22168
-10.7169
-8.32342
4.33073
10.7248
4.2821
-3.00875
-5.5026
-2.17267
-9.04954
-4.2753
6.34131
-4.37111
-8.99647
-6.76451
-7.40319
-0.061864
3.96704
-8.36751
5.16055
8.07952
5.3154
-5.99947
-4.29185
3.56134
-1.34296
-2.99561
-8.8815
-9.79113
-8.87199
-9.15244
-19.9058
-68.5676
-133.842
-186.02
-217.045
-214.345
-183.805
-143.45
-102.84
-37.5721
35.5676
91.2849
156.63
196.195
223.54
221.208
211.995
235.12
243.32
241.759
246.584
245.08
227.388
218.132
233.063
209.022
174.995
126.543
50.451
-5.13947
-40.1105
-92.9832
-190.286
-226.078
-209.255
-192.372
-190.88
-209.928
-213.842
-209.885
-208.197
-195.693
-160.252
-119.101
-109.609
-131.788
-154.801
-122.695
-77.767
-70.488
-77.3814
-63.8407
-37.5433
-32.3084
-49.7176
-58.1803
-57.5006
-51.331
-39.1719
-7.23838
-2.49002
15.7111
71.8087
105.777
104.875
112.58
123.727
120.647
122.638
92.3785
80.7021
73.8095
64.6757
48.8056
43.3181
62.2313
73.9755
79.0682
81.4514
67.5315
59.5492
69.5027
60.8649
54.584
52.2204
57.8007
59.5355
39.9658
14.2321
20.7227
7.79584
-12.7338
-18.4952
-20.7894
-42.0308
-65.5664
-72.6092
-84.2499
-88.8076
-95.1912
-92.7919
-92.2041
-86.4416
-74.436
-53.47
-24.8791
-9.00671
-2.379
3.57233
19.4468
36.8509
30.3646
31.9459
29.6904
13.4725
10.1986
13.3155
10.6803
8.46199
2.59518
6.15383
10.0761
13.1657
11.3841
-0.087205
1.54454
9.39028
22.4802
35.6376
27.3356
20.5569
36.2516
51.701
49.1918
57.2216
51.5568
36.5228
23.8402
4.10215
-15.3075
-18.7361
-23.6775
-31.0294
-37.0877
-27.9833
-26.5146
-39.2134
-50.6403
-57.8244
-72.0217
-80.5412
-70.2821
-70.4685
-59.0433
-42.5073
-34.5837
-34.1004
-13.668
19.0559
13.8734
23.8618
40.875
33.5989
15.4146
8.30237
6.66364
10.5171
16.2305
24.4811
27.3236
27.1211
28.0758
25.5461
29.7237
28.1501
25.1317
30.1621
29.4071
14.8282
30.1953
22.6374
11.4947
15.6575
18.9382
13.839
18.7734
12.668
8.34082
3.62714
-2.86081
-10.2554
-7.25625
-3.34585
-17.9827
-26.918
-24.0817
-17.6166
-10.7701
-14.7529
-28.9573
-35.0659
-31.1236
-27.0873
-26.3422
-18.6822
-24.7252
-24.6223
-25.9324
-27.0401
-21.142
-16.4226
-24.8038
-20.6644
-9.78947
-7.13835
-1.75769
8.53996
9.31591
24.195
34.4271
30.9936
28.3545
23.8526
28.0993
25.523
22.5163
30.7149
26.0635
26.0225
28.8497
28.2647
22.7363
12.4016
10.7821
10.8233
13.4235
-2.229
-18.5172
-17.0112
-10.2423
-8.56919
1.00721
-9.34154
-14.3604
-18.7447
-19.0896
-25.6109
-28.3318
-25.7097
-21.9577
-17.5197
-13.5733
-8.44447
-9.28611
-8.22656
-9.1226
-9.50636
-3.67655
-1.32863
1.89709
8.82306
3.08572
7.28026
4.77608
7.79328
11.8498
10.595
14.8303
15.0371
14.1003
6.66927
6.78398
13.5139
11.0706
12.3854
3.77866
14.3716
16.5426
6.28282
3.00307
-2.82704
-5.10516
-4.87149
-1.34722
0.0367111
-0.947546
-1.84647
-6.73682
-6.61445
-3.14609
2.31914
0.551472
-18.1991
-20.8366
-14.8789
-4.28405
7.93768
4.07589
0.317997
-1.51274
-6.83712
-1.04534
2.80606
3.46046
1.90951
-3.48282
-1.27804
0.135811
-2.33791
-1.51711
1.45262
-0.0634466
2.05428
1.53902
-3.16222
-6.25038
-11.2825
-4.95342
-3.65287
-7.371
-4.32442
-5.06992
-8.22404
-0.442874
2.73938
-3.03891
3.59902
11.5623
9.23549
6.68925
11.4735
6.0736
9.70629
14.1561
11.4104
7.21417
3.88002
2.09928
3.87666
2.95949
-3.82263
-3.466
4.88598
-0.804444
-8.15996
-3.87815
-3.53812
-12.365
-13.5949
-7.14151
-4.90503
2.58073
0.00941675
-6.64488
-8.19324
-1.27406
2.70374
-2.06751
-2.5394
-1.71642
1.57779
1.41555
-1.03244
0.890402
-0.916596
2.27727
0.437396
0.273727
5.33177
0.462823
-4.16496
-5.83832
4.421
9.71757
7.23238
7.83802
3.06358
-0.113196
-0.387913
1.29334
1.71434
4.521
1.35664
-3.96269
-3.00428
0.464652
1.3011
1.9528
6.50186
5.95467
-6.98248
-5.26627
5.31618
6.39089
6.7167
2.37366
0.0563958
4.10954
3.92985
-4.00966
-9.26017
-9.07064
-4.40034
3.79236
4.78727
-0.761468
-1.35156
3.01974
1.39488
-4.96798
-9.16569
-10.7819
-8.05287
-4.9927
2.21179
-0.540483
-4.03005
-6.93782
-10.8426
-2.00776
4.17125
4.09209
4.72896
4.14427
9.28733
3.16026
2.95257
-2.29937
-4.84348
-4.56402
7.41186
9.22258
0.813395
-3.26556
-4.177
-2.88679
-1.81802
2.31869
4.14076
1.82763
6.68612
5.34631
-6.61032
-9.32179
-3.18264
-1.30359
0.0839573
-7.9131
0.455013
15.9283
16.2566
12.0573
-3.97473
-15.4233
-24.6073
-5.38688
3.83342
4.97589
3.90234
2.21454
-3.04945
-0.535786
4.56044
2.04675
-104.104
-83.9355
-41.366
5.73126
24.4053
37.6174
45.3749
50.3914
51.3153
48.285
58.7705
50.1771
41.2183
39.5191
19.4882
3.74435
-2.60459
2.47254
-2.47653
-5.76634
-2.96415
-8.66697
-14.8715
-30.8514
-42.4353
-43.6194
-36.7467
-32.0816
-31.4379
-25.1456
-12.8719
-17.7081
-23.697
-25.7899
-26.55
-13.8723
-2.67119
-8.57378
-1.67464
-3.72541
-2.50405
11.5448
1.42537
-6.09769
11.5888
18.0206
18.9551
23.4542
20.1421
7.67049
9.48099
18.2204
16.2354
17.7565
16.5083
10.9369
4.39937
12.2939
10.4291
14.3341
9.46055
4.66353
14.0242
7.58285
0.71362
-6.87765
-16.9108
-22.9447
-7.01619
4.59626
-9.4998
-15.2857
-6.90923
2.24315
9.66434
0.676517
-0.740706
-1.12533
-5.70808
-10.3214
-9.69921
-6.37967
-0.614524
7.22793
-4.50892
-2.39335
6.37532
-2.25723
-3.96287
-5.81732
-10.8709
1.12554
2.49201
-4.95037
-13.6548
-10.2807
-1.42212
2.40351
-3.883
-4.20005
1.99274
3.98528
3.87358
4.00236
7.54628
9.0263
3.27831
2.87059
19.0944
21.552
-5.88373
-20.4241
-8.96679
15.0724
19.7341
15.1167
3.66414
2.21115
4.20229
3.40316
2.37139
3.64538
-1.03639
-5.33553
-4.20557
-3.61531
-4.24361
-4.82639
-19.2042
-17.2403
-2.76447
6.89497
6.95667
-8.41923
-11.007
-6.46576
-8.83849
0.732088
0.511391
1.13378
-2.61883
-7.38236
-2.6514
-5.73296
-4.77642
-1.94452
6.89487
9.35094
2.45328
1.19154
11.931
11.1285
3.42847
1.39496
-4.08801
-1.68953
0.111377
-4.30543
1.33383
5.14749
5.02077
7.13767
5.65979
7.54388
0.0530364
-3.4227
-4.8034
1.85575
2.81232
3.95791
1.03139
-4.44308
0.17898
-1.84207
-3.25998
-2.54034
-6.14526
-5.01466
1.67957
1.02637
-3.67379
-9.92683
-8.57506
-1.35485
1.17401
1.23567
-1.16472
3.12783
4.24401
-1.74691
0.173349
3.16531
1.76683
-1.65704
-1.29537
2.3976
6.4293
-0.224226
0.308491
-6.64654
-4.21293
6.80654
5.65863
1.33819
3.33145
6.11055
6.73573
1.746
-2.60826
-7.06672
-2.28534
3.46084
-6.8679
-9.2377
2.89251
1.85255
1.8889
3.44009
0.975918
1.69602
0.392578
-0.551141
-3.64341
4.29528
3.53003
-6.2796
-5.93786
-7.78899
-6.02074
4.62722
0.0803722
-2.0475
4.93725
5.27082
-3.77927
0.300066
-1.82479
2.68215
-3.38652
-1.38955
-1.47547
-2.92223
2.19397
-1.70876
-1.55131
3.77103
3.19833
7.69605
9.51439
2.829
3.9362
1.14702
-2.44392
1.83081
-0.37663
-1.86926
-4.41639
-2.57902
-2.00368
1.78673
6.64117
2.04267
0.392455
-5.7317
0.278894
0.919226
-2.07274
-4.83651
-1.52871
-3.35742
-0.306223
4.98298
2.40539
-3.63909
-0.976409
4.05213
7.84826
6.42842
0.743342
-4.17924
-4.18438
-0.896689
0.287611
-0.835814
-5.87865
-6.64617
-10.1838
-7.91649
-6.75646
-0.632296
0.264201
-2.36594
-3.87933
2.02243
10.0379
13.1712
4.59602
0.160304
-4.50146
-2.45054
-0.116596
-1.81562
-6.06947
-6.79848
1.46209
6.21012
8.28113
14.9076
12.6026
-2.13731
-6.2588
-11.9807
-4.43746
6.59949
3.70576
-9.12366
-6.46104
-10.7301
-5.37165
2.0364
7.89189
3.31834
6.76623
5.49865
1.13476
3.14203
5.16062
2.93707
-1.17906
0.240796
3.61847
6.41821
6.14644
1.33662
-3.76675
-11.173
-7.32209
6.27851
6.68027
-2.61029
-8.77668
-11.5915
-7.82392
-3.10999
-1.29647
2.57067
1.83605
-3.55298
-2.68353
1.51471
2.76654
2.78251
2.77841
3.56333
1.53794
1.84333
5.30206
1.62378
4.83806
5.86678
2.87351
5.51973
5.16671
1.96504
-1.33273
-4.49399
-3.26615
-4.89681
-11.5652
-1.49682
2.75923
-1.23384
-4.75001
0.467088
4.62978
-5.27279
-6.73661
-3.25286
0.0665935
-0.196491
-1.19154
3.11378
-2.40354
0.600542
2.55737
-4.48432
-6.4204
0.120904
10.2658
0.873362
-8.69111
1.8979
-3.33465
-7.30614
-3.58459
9.14733
0.899597
-0.384427
5.51372
8.44183
6.69829
-1.35836
-9.01145
-8.48614
-1.65357
-1.63567
4.48119
11.7999
11.2079
2.85225
3.70641
4.89177
3.72774
-6.30937
-11.7809
-0.718356
7.59685
-0.381322
-2.38167
-6.7877
-4.30201
-2.24569
8.39048
10.9392
2.13659
5.89296
-0.240031
-9.31452
-10.7302
4.54639
7.89091
9.53352
6.58238
2.31874
-0.95836
-1.75586
1.58458
4.16391
4.37748
3.74998
-1.5439
-1.47354
-6.02204
-6.81601
-1.77463
-7.05725
-12.3203
-20.4215
-6.89728
0.631538
-6.10762
-15.3374
-8.37002
-0.76986
-1.36421
-6.52545
-4.52708
-1.08481
3.14338
3.55633
-6.7491
-12.0172
-0.398342
8.72194
7.41857
5.77313
8.89724
14.1494
4.90073
3.71118
10.4064
3.91216
4.5404
2.50582
2.90115
3.24548
1.06985
-1.01304
-4.51653
-6.24779
2.35027
9.92899
9.74888
10.0511
11.386
9.14029
2.92969
-4.75571
-12.918
-7.73693
13.389
18.3649
3.93708
-11.1337
-12.5621
-7.19194
0.765583
0.935501
-4.93616
-2.19963
5.27349
8.01441
-1.63765
-4.25611
-4.46866
3.46936
4.03204
4.4799
1.48713
-6.91932
-24.0859
-27.0561
-7.93923
-9.54016
-2.71716
-7.00593
-3.65999
-11.7132
-24.272
-6.15686
-2.94313
-3.246
4.00722
24.0167
24.9938
10.6289
5.67613
6.46859
7.74201
1.86766
-2.67779
-0.29872
3.29566
18.8832
19.2886
8.58649
0.0653121
6.57711
18.5293
6.23814
-0.283089
4.75631
-1.67808
-16.1891
-19.5603
-24.9644
-9.16319
2.68017
3.76336
5.73448
-0.862279
-1.32631
-5.02374
-3.26533
-3.68052
-1.41331
1.68567
-0.589138
1.04618
4.35011
4.43195
0.685456
-3.75669
-13.2547
-12.3564
2.0359
0.822912
-3.35843
-4.31928
-1.39781
3.13014
-0.54848
-8.62249
-8.41467
2.27954
6.22562
7.84881
4.51459
2.15192
-0.231963
8.96094
4.0006
-3.56213
-0.915347
7.56065
14.4279
14.7746
13.0765
11.6318
3.79806
1.12023
-0.448499
0.417986
-7.7994
-15.8038
-5.1103
-12.8237
-9.37031
-8.43199
-14.0628
-14.6195
-10.0035
-5.40295
-5.9339
-9.7704
-14.6327
-14.809
-5.96711
-0.546851
2.32395
2.55082
4.31771
14.3766
29.2647
22.5744
15.6719
16.3106
15.2862
14.7341
15.2242
12.9752
7.28416
2.83621
-3.00913
-2.89985
-1.29694
-6.17389
-16.6737
-7.29972
-9.73699
-9.21732
1.45494
0.22925
-0.697484
-0.561108
-4.6331
-7.96105
-5.63311
6.87686
4.90604
-0.919785
1.65937
5.56142
6.76904
1.13351
0.241997
-0.726738
4.00493
0.745759
2.94417
-0.396646
-8.87534
-9.58771
-6.66581
-13.7172
-12.1764
-2.4749
-4.25938
-7.83005
-7.39856
-0.180551
5.39876
-1.92212
-5.09749
-3.62213
-9.70245
-10.5302
6.18004
0.0338381
-18.4529
-2.98885
4.79369
5.3489
7.5923
12.4349
10.4822
14.6889
10.3994
8.00818
5.35273
0.212037
-5.43016
5.3281
9.96974
2.82744
-1.11716
11.1997
2.46024
-0.999784
11.5139
6.83379
6.43399
2.30543
-3.27303
-1.30454
-0.166918
-5.39404
0.992106
-4.91588
-3.11759
-2.83238
-2.75924
-0.386485
-9.70956
-22.903
-6.65321
3.73628
-0.259322
2.74165
6.91998
-0.684879
-11.5717
-9.17302
0.362757
-5.5359
-4.96148
-0.0618039
2.5248
-3.94205
-9.4483
-5.70727
0.760946
0.496969
1.50579
10.6588
10.7204
3.02851
-1.99879
1.62916
7.52899
12.0719
13.7012
8.28115
0.0717792
7.65207
3.15598
-7.50333
-10.1187
1.01754
5.07925
0.856666
-2.10514
-4.85161
2.53824
11.2765
2.29707
-3.25944
-6.99532
-2.71705
0.916863
-3.47755
-3.13429
-2.9126
-2.77601
-1.87854
-2.9751
-1.23508
-1.79544
-7.92355
-2.62115
-2.26523
-0.309797
4.22224
-6.98612
-16.4762
-7.75507
2.82491
13.9666
-1.43303
-0.858584
-1.08782
-3.44405
0.323433
1.41761
2.30299
4.62562
2.84198
2.51099
8.05769
4.8713
5.01732
8.15181
4.03487
-1.42009
0.747185
5.39125
3.17768
0.582839
2.77739
-0.175622
1.77738
-0.502791
-6.28541
-13.9962
-7.70921
-5.49972
1.24338
4.85549
10.1932
5.64481
-0.355474
-2.05396
-4.03916
-0.354619
2.78386
-3.64852
-6.23152
-6.04352
-0.712958
-4.53187
-1.92149
5.63732
8.6219
5.03533
-6.824
-6.25136
-1.46985
-1.52138
-8.85179
-4.16484
1.74015
-4.16119
-6.07639
0.561426
4.32556
10.8152
3.94526
-3.24373
-3.62382
-1.0371
0.118906
-0.552968
1.70071
4.94407
7.79711
8.52301
0.378872
-3.36148
-1.45422
-3.23581
-7.32708
-6.09879
-1.34385
2.21995
1.49904
-6.10361
-2.23313
5.80391
3.83731
5.92987
11.3734
13.722
6.40663
5.30453
10.8026
6.36926
1.24375
0.842711
3.57689
4.90002
5.94021
-1.52177
-1.96042
-0.171219
-6.84661
-11.376
-5.97542
-13.8758
-18.6196
-8.58857
-5.61907
-13.21
-3.57752
3.07238
1.58462
-3.59966
2.1773
3.45168
0.811551
0.629652
0.465962
5.2236
3.94259
5.22158
10.5287
8.29778
3.56037
3.12343
7.98153
-3.6132
-7.46596
-1.8
-3.21629
-8.43143
-10.8922
-8.83318
-3.82512
-6.92852
-9.45799
-4.01019
-5.78565
-8.92206
-0.424192
-2.63555
-2.80246
4.17544
4.86445
4.58577
4.49604
2.08861
1.57242
4.00099
4.97199
5.71729
2.16716
-4.8231
2.72712
10.5076
7.27896
4.23114
4.74337
10.0153
0.0972276
-2.97818
1.99102
3.82948
0.991601
9.90114
15.3731
11.544
8.17921
2.79442
1.2466
-1.77489
2.55015
2.45413
-10.4329
-11.3894
-5.10311
-2.54609
-4.27691
-2.22006
-0.231674
0.741144
-2.32395
-4.62979
-3.82698
-9.97651
-12.9608
-9.47845
-6.74001
-3.80345
-6.60164
-3.18997
-3.1706
0.337546
-0.572493
-2.71542
-2.24113
-2.46604
0.162312
5.35947
4.57032
-3.43498
-5.07943
4.20707
3.85085
0.353526
1.53463
5.76469
4.38563
2.6065
6.38065
4.59796
1.6505
3.82189
5.97457
7.93259
12.0181
5.73123
-7.9365
-10.094
-3.5624
6.7296
7.38554
2.32962
0.286706
0.360778
-1.44448
-4.39154
-6.2596
1.722
-1.4084
-4.39468
-7.07027
-2.79171
-10.4563
-5.91652
-1.64755
3.00626
5.15513
-8.4071
-6.19574
3.98946
6.57587
3.07978
-0.996805
0.52618
-0.0285566
-0.291533
0.48256
1.08588
1.53596
6.7452
6.58111
1.98122
2.04572
0.294853
-4.19216
-6.9209
-0.0905728
9.40649
4.49349
-4.84632
-5.08219
-6.5475
1.92257
5.03048
0.250165
0.309941
1.95108
-3.63765
-3.04951
-0.810532
-3.31921
-3.08809
6.32442
4.06694
0.678736
1.64176
2.97626
6.07626
4.38577
-2.88041
-6.04062
-3.77867
-7.00172
-7.0893
-3.39285
0.988076
7.99119
3.17761
2.20102
3.00504
3.28315
-3.36618
-6.83862
-3.84246
1.66915
1.14908
3.16546
-0.627633
-0.699569
4.97831
2.65641
-7.31701
-9.45381
1.18419
8.22085
0.108357
-6.15079
-4.19886
-3.39344
1.52803
7.23996
4.90194
-4.31547
-5.24952
0.253798
3.16949
0.0777231
0.531538
-3.20959
-2.12933
1.30124
5.25997
10.0977
6.97274
4.39681
-0.140928
-2.4403
-4.72406
-2.74095
-4.55342
0.232236
-1.50464
-0.118479
6.52214
-0.136323
0.274651
2.0943
-3.44634
-2.90471
-5.67201
-3.89345
5.72676
7.67021
-8.74004
-16.6722
-6.89097
3.52172
11.2303
6.77627
-3.0924
5.30594
14.6827
8.48892
-0.412035
-2.3994
-6.99451
-9.72255
-2.80102
6.86074
5.43382
-10.6778
-11.7956
-6.84242
1.08457
8.0399
3.24084
-5.01966
-4.40542
2.12169
8.08164
-0.645255
-3.08138
4.56714
6.17096
1.9685
-1.76876
-4.94475
3.10325
-3.94248
-4.23467
10.6331
8.45271
6.41254
3.71873
-2.54487
-3.43514
0.956185
2.85309
-5.22648
-5.53227
-7.13528
-9.44697
-3.03152
-2.60918
-1.28056
3.84816
7.07575
2.25097
-2.74894
-2.62809
1.73397
4.55103
0.413142
-1.5673
1.29107
-2.61248
-0.955774
1.04289
3.13535
-0.579139
-6.28598
-0.663642
-3.3498
-5.65075
-1.78197
4.34217
6.65832
4.61427
3.84462
3.94313
2.13307
-0.0360702
2.58629
4.12624
1.54358
2.0708
-5.99926
-6.18447
-3.51221
-3.97755
0.873058
-0.843993
-2.73669
2.74125
2.14941
3.24865
-1.15164
-4.02998
3.29513
3.04824
2.64449
-0.311715
-4.78152
-6.67533
-7.49522
0.676613
11.867
3.04676
-2.24076
-0.744215
-0.53334
1.25955
4.79587
-0.565405
-3.34895
-5.03111
-0.121322
-0.924874
-7.91896
1.87797
9.16499
-1.25642
-4.84125
-6.05208
-1.47
-3.09296
-2.17947
-0.420513
2.6231
8.76847
4.28817
2.78275
7.415
3.54045
1.56198
-2.30856
-8.80878
-3.51968
6.86468
-0.471597
-1.99878
5.3508
0.963619
6.98235
10.5074
5.52365
0.842376
-1.73429
-1.93609
-1.36408
-2.76938
-2.13398
-1.81277
-2.53928
-3.9123
-6.42652
2.73911
2.74511
-9.9084
-14.6102
-7.89105
-2.08654
3.58116
2.24929
-4.4838
-9.44257
-5.4703
3.44225
5.27775
3.89294
2.0693
4.96339
2.62771
1.84495
3.77292
4.09706
3.30605
2.61628
4.46651
5.40554
-1.71222
-4.75558
0.0384455
0.767634
1.18407
6.24869
-2.28925
-3.8243
-1.38976
-3.80309
-0.285985
2.0609
-1.43431
-7.7698
-3.28932
4.05786
4.65803
0.692744
-1.98483
-6.0652
0.656043
4.34872
1.67907
-1.80381
0.121878
4.71095
8.29549
1.1214
-7.8775
-8.48312
1.50236
4.02254
1.38124
-0.45992
-4.91168
-5.88116
-1.15467
7.0787
8.09458
6.62314
0.267536
-1.60061
-0.356361
-1.20253
-1.75089
-2.05722
-3.80224
-3.91762
-1.2772
3.85732
-2.75987
-8.59619
-6.9392
0.482516
5.56577
5.47007
-6.26315
-9.43462
-0.0873175
5.59303
3.54516
2.17869
5.42603
11.5027
5.93138
3.51762
2.50973
-1.60545
7.16399
9.19662
4.07612
0.992575
5.95629
6.09398
-0.335226
-5.04755
2.29611
-0.80614
-4.98312
-8.78871
-7.98581
-4.12895
-9.89798
-14.3036
-8.44206
-7.4782
-8.14284
-6.51333
-4.21192
-2.37579
-4.19176
-4.18753
-5.35955
-4.71821
-2.02131
1.92715
5.66565
0.0443707
0.827409
14.8314
9.73444
1.17171
3.91835
5.85274
7.09821
6.95093
6.65978
11.1427
7.00917
2.2397
-0.224895
2.26091
2.14649
2.72902
2.07246
-1.84581
-6.86963
-0.0277998
4.47497
2.18858
3.65322
0.129728
-5.69582
-4.49718
-2.75918
-2.39768
-1.33861
-5.59663
-6.5618
0.483007
0.162314
-3.41721
-4.02058
-0.943239
0.314613
3.54051
2.94389
-1.82
-4.14951
-6.31137
-5.72455
2.41671
3.63142
6.65919
3.30421
-1.66764
-1.67723
-1.63474
-6.44297
-2.6968
3.26868
1.33521
0.786973
0.376912
7.42802
1.80309
-5.39119
-4.96985
-0.278675
-0.380407
-3.6582
-5.54155
3.4688
6.90067
3.08819
-2.87669
-4.15493
3.52027
3.59114
1.83523
1.4116
2.70898
1.78511
3.50631
-0.494865
-1.52213
-0.494328
0.206308
5.53612
0.504462
-1.32361
3.99716
-0.988252
-5.17405
-5.26197
-2.57716
-0.645506
-1.78082
-0.790783
-5.78399
-2.96846
1.63323
3.04549
0.594305
0.623263
0.669527
3.98722
6.79436
-0.763378
-0.0490729
-0.40247
-1.44263
-0.415585
-1.33883
2.22032
3.62239
-4.69175
-3.40612
6.66346
3.93387
-1.46712
-3.4004
-1.24663
3.49809
-5.86855
0.48984
3.85144
0.0746989
-5.76999
-6.86263
-1.40076
-0.0662795
2.52121
1.68283
-2.20848
0.296843
5.27119
3.37341
-3.0051
-1.32852
-4.99058
-3.76949
2.29387
0.576713
-0.496782
-1.87806
4.80613
4.97913
6.48171
3.82602
2.61687
0.78944
-2.97778
0.380919
-1.53004
-4.37217
4.61729
6.99823
0.68394
1.20574
3.77551
0.973036
-8.51433
-17.7119
-9.67384
5.3282
4.39025
-2.23726
-3.23552
-3.65677
-1.99963
0.95973
-0.29712
1.44191
3.42955
4.61958
4.35425
2.28785
-0.0484708
0.0318441
-2.36456
1.10544
4.17146
6.73784
4.66864
-1.21741
-1.92672
-1.58652
-2.19706
-4.20746
-5.36153
-8.27892
-0.692836
1.98941
-0.407351
-1.94569
-3.60972
1.31207
-0.304996
-2.08183
1.06955
7.30159
8.60775
6.48355
2.15547
-5.01897
-9.51552
-2.07499
5.515
5.33525
-0.0498574
-1.21653
-1.12535
-0.195498
0.417402
-0.0408675
-4.44819
-0.56126
4.52533
3.52205
2.57649
-4.82362
-12.7503
-2.46778
7.06901
2.39482
-2.48419
-2.27103
-0.291232
0.297869
2.37379
4.476
-0.0998507
0.146625
1.95505
0.592479
2.91124
1.79557
1.70975
-0.151931
1.81343
-1.97929
1.25238
-1.66965
-5.23164
-4.05964
0.220034
-2.68164
-1.99808
-1.40128
-4.14951
-0.751798
-0.809621
-2.33405
4.26485
8.48129
3.43538
-5.85022
-5.89471
-4.62649
1.56114
8.17925
4.81234
0.688612
-2.04831
1.22651
0.944001
1.56911
0.299047
8.4526
5.15429
-0.711168
0.243662
0.770956
-2.29988
-5.92964
-3.13234
2.15386
4.65816
1.84222
-1.09702
-3.93233
-4.86276
-4.43238
-0.642998
1.06506
2.90005
1.41224
-0.577041
-6.853
-2.47502
2.20962
0.255537
-1.1
-4.40902
-3.05803
0.522932
-1.98099
4.70122
-0.0931757
-1.60944
2.43543
2.56731
1.70113
-0.600982
-3.70451
-1.39796
3.56464
-0.650788
-1.72216
-2.24419
4.18545
5.01504
-2.05224
0.779964
5.12343
1.18139
2.57167
-4.83791
1.1707
2.66493
-3.04343
2.34287
0.881113
-0.975978
1.10718
2.40542
0.627397
0.168334
2.24144
0.94796
-2.51962
-3.12101
-2.57246
-2.90835
-3.79033
-0.0537837
-0.00665225
-1.60152
-3.35725
-2.62978
0.547121
3.52222
2.88634
3.9464
1.14145
1.64379
2.66902
1.50464
-1.87565
0.838187
-3.99765
-3.73098
-0.871014
-1.35454
1.69075
2.7991
-1.55487
-1.09646
0.0978948
2.52186
1.5098
0.708877
0.907425
0.116665
-2.10229
-5.11599
-1.89815
-7.77373
-7.83682
0.127491
3.96586
5.60948
9.73102
5.37461
0.504164
0.491549
2.07573
2.97032
2.50402
-1.31331
-4.66705
-5.8343
-1.34704
-2.34551
2.87877
5.36269
0.923239
2.75289
1.26824
-3.16113
-1.90622
-4.2798
-5.6221
-2.06695
-0.353986
-0.785837
-0.159706
-3.75855
-2.56072
4.23078
7.75961
4.75344
-2.44962
-3.80881
-1.97424
3.52112
2.91903
1.53749
3.79184
1.76288
2.70485
0.641544
-0.855236
-1.06369
-0.399234
-0.015093
-3.11192
0.665819
2.24141
-1.03733
-1.62567
-5.27373
-9.87105
-4.11921
1.66751
-0.241015
-2.24651
0.732582
3.57891
5.31781
3.72239
-2.467
-4.77119
1.41192
2.23815
1.06366
3.52215
3.32017
-0.299085
-3.51372
-5.40969
-0.548871
6.06166
5.21049
1.85109
-0.534326
1.96083
0.182732
-4.33312
-8.72028
-2.88005
5.34435
8.0645
-2.09409
-2.21475
-2.97224
0.814277
-2.4121
7.86927
4.39356
-0.715796
1.57161
-0.35699
3.18548
-0.496652
-6.31106
-3.33973
0.418065
2.82106
-0.754131
-4.00109
-1.89896
-2.06809
-0.458994
-2.66046
-3.15614
-5.71952
-6.99547
-9.71291
1.56508
10.0255
8.66326
12.2119
6.47
-3.51289
0.661113
3.3794
-1.6022
-1.59204
0.118636
-1.23064
-2.89133
0.264332
2.34315
1.92061
4.7368
1.32694
-0.317019
-4.76534
-4.23736
2.04814
-2.12398
-5.63429
-8.43489
4.17426
4.99633
0.329512
-0.352283
-0.781426
-0.191022
-3.8511
-0.281707
-1.09462
0.13713
1.84073
1.29303
0.0919394
5.06341
9.70924
2.33889
-14.2172
-7.16299
1.35172
5.39681
3.72209
-0.049982
-4.16067
2.40787
5.85928
1.25697
0.549039
-0.792394
-2.46656
-4.23741
-0.213935
-1.56117
-3.11921
-1.42558
0.709883
0.555677
5.4151
5.91868
3.44222
2.37199
0.649556
0.222611
-5.03484
-6.61037
-1.5033
-2.867
-5.16227
-2.17342
0.903853
3.02852
4.36573
3.43066
6.72782
5.23294
1.41125
2.79196
6.69955
-4.34508
-10.7478
-4.59984
-1.06284
-1.11553
3.79501
1.8713
-2.86822
-0.18741
-0.083886
3.18887
1.80396
1.46402
-0.627025
-2.12286
-3.11843
-2.88323
-6.72065
-11.3399
-2.21869
4.07238
3.1586
-3.32815
-4.9184
2.6134
8.38435
1.94846
-3.23936
0.92493
7.78461
7.78281
-0.114633
-3.79289
-6.84748
-3.5243
-1.84547
-2.16274
4.39568
7.74148
1.33282
2.6989
3.4192
2.00111
0.0445688
-3.78359
-5.32398
-1.12231
2.5638
4.01878
-1.85074
-7.31488
-4.75879
-0.247878
2.02067
-0.623117
-0.647552
3.53126
2.87434
3.09861
-0.209109
1.68695
2.01603
1.26226
2.26946
-0.534017
-4.88086
-6.67872
-3.3475
0.76836
2.69424
3.02045
3.86912
0.89925
-0.354052
0.430787
-0.747981
-1.52415
-6.05243
-3.76587
4.57694
0.88334
-0.802578
0.594846
-4.20664
-1.36927
5.57198
6.60167
1.12836
-1.81049
2.0319
-2.93057
-9.33769
1.72823
9.02352
1.84779
-0.652463
-2.32776
2.37954
0.406069
-2.63323
-0.459744
1.78226
1.4611
0.253245
-3.92321
-4.88683
-1.98042
0.0701423
0.6051
-2.3544
-0.0875531
3.06957
-3.19567
-3.88337
-0.778315
4.66611
2.31319
-1.0167
-5.58959
-3.30486
-3.90855
2.62104
2.86675
3.79594
5.91408
5.38219
-1.00145
-1.89042
-4.75961
1.06878
4.9685
7.29804
5.10946
-0.810406
-3.94217
-4.17632
0.0115313
7.6895
8.97471
-6.39976
-3.28837
-0.290597
-8.17197
-6.41457
-0.749549
3.89927
2.64826
-0.026493
2.22971
2.70711
-4.58476
-4.31318
-0.623034
1.03258
0.403248
-1.71158
1.04381
-0.486523
-2.3213
0.672638
-1.47338
-2.81149
-3.50086
0.3985
4.65922
-0.118994
-0.814629
-0.369516
3.26172
-1.84693
-1.00709
0.488066
-5.83381
-0.584362
3.07235
2.97165
1.99046
2.10652
2.11662
3.67281
4.49817
1.48236
5.06039
2.14558
-5.74794
-3.35973
0.0312763
0.605364
-3.18984
-3.91882
0.733075
0.504422
1.11515
-0.213305
-1.93297
-1.34203
-0.872403
2.75694
1.70787
-0.773144
-2.41393
-5.00462
-2.30977
-0.325595
-2.19755
-4.04629
0.805826
3.2845
3.19042
5.44896
1.74546
-0.808796
-2.42798
-0.852283
3.57545
3.88121
-4.31961
-5.38717
0.856194
3.40701
0.864997
-0.831017
1.4163
-1.20748
2.07954
3.36487
3.20782
-2.00774
-1.27043
1.75872
2.02403
2.04378
3.50825
1.72533
-2.94535
-1.0675
0.154558
-5.67475
-5.99662
-4.21812
0.511274
6.08462
2.0233
-4.13353
1.79179
-0.136551
-1.46055
1.79096
-2.74263
-5.62242
-2.27616
0.127835
-1.50907
-4.08272
-4.6281
-0.477226
1.65601
0.677158
1.77478
5.81339
2.53952
0.303892
5.43251
4.49
0.346615
-0.771426
-0.614301
-0.429176
3.03011
-0.551593
-2.87787
3.96155
2.56309
3.90471
2.86787
-0.533573
-0.401868
0.435583
0.0445141
3.74532
0.917014
-3.65087
-5.80562
-3.73227
-3.03319
-0.826749
-1.01887
-0.343476
0.865469
-0.10605
-0.0227917
-9.03722
-4.6953
0.959663
-3.48095
-2.90203
0.19764
1.52243
-4.13259
-3.42229
-0.109964
3.92403
5.71661
10.7637
11.0478
2.34191
1.23709
4.4307
3.71104
3.65463
3.18378
-0.0231998
-2.41758
-0.0374281
2.08814
0.60899
-2.38531
-0.487601
-2.81388
-5.35307
-5.39873
-8.64757
-7.23436
-2.7541
-4.65597
-5.75106
-3.74038
-3.01552
-3.1575
-3.0125
-3.46097
0.666549
0.249435
-3.14707
3.97656
5.40213
3.73709
0.925393
1.61977
-2.73423
-2.7869
8.23012
6.28582
2.32937
2.99138
5.04155
0.510821
2.4985
5.42178
0.583044
1.4899
5.33715
4.32509
2.55082
3.61791
2.3899
-4.3986
-7.08907
-1.93575
5.67241
2.95331
1.65646
0.54629
-5.28314
-7.32585
-4.22007
0.511287
-4.59278
-5.27899
-7.83391
-5.69156
6.02248
7.0028
-0.909359
-3.62077
-9.19113
0.091245
7.25748
6.79742
4.50315
4.36223
-2.5322
-1.22613
1.3851
0.606892
-3.20064
1.84939
2.66733
-0.223972
-1.32218
2.1146
1.80356
-5.08127
-8.52267
-6.11883
2.52593
4.15396
1.79428
-3.08114
2.13052
3.92071
4.9211
2.84336
2.08585
-0.214457
-1.7677
-2.71582
2.52828
4.19211
4.95728
0.129516
-7.31101
0.350459
3.69547
-0.165406
-2.87581
-4.63485
-1.53974
-1.11583
-4.94147
-0.709285
-1.16992
-6.3487
-3.67878
2.44846
6.39249
2.87112
-2.97145
-0.988076
1.19238
-1.53858
-0.823702
0.516842
-1.07653
2.01755
1.49416
-0.598256
-0.331614
2.30915
0.633647
-1.36503
-2.62335
0.794663
3.02504
0.220688
-0.861852
0.910867
-2.87768
-2.75819
-0.0182659
1.84906
-2.705
-3.87314
0.589737
4.44126
5.16395
-0.35923
-6.41858
-3.41619
-5.14271
-1.69427
-3.96701
0.752486
2.49515
2.95867
5.79718
5.10733
5.34545
5.33425
4.30256
4.25491
4.82855
3.28683
-3.67938
-4.81652
2.11138
5.78452
3.73736
-1.21431
-2.07672
-0.15858
5.92393
0.456837
-8.29279
-5.56462
-0.232267
-4.12169
-0.00815202
-2.26059
-1.25405
-6.29821
-10.1069
4.36575
7.20754
5.32926
1.19552
-2.56192
-0.920641
0.131513
3.16479
-0.868569
-5.27075
-3.07431
-2.31518
1.53514
2.28828
0.0942991
-6.37371
-7.88113
-1.84327
4.77493
3.16611
-8.73383
-2.17215
-1.66098
-1.92112
0.61452
1.59549
8.00726
6.14934
1.30965
-0.31689
-1.32515
2.23826
0.446209
-2.34782
-1.52671
0.0362138
6.89591
7.8188
3.036
-0.372614
-2.65029
0.883697
-4.18714
-1.57639
4.3623
3.12637
-3.65187
-3.87088
0.320459
2.28227
5.06263
0.00668151
-0.974533
-0.810242
0.923364
-0.50128
-1.49156
-2.93866
1.13344
4.52768
-0.947018
-10.344
-6.17043
-0.519801
-1.58035
3.58382
0.29975
-1.87048
0.938023
1.16776
2.10871
4.26517
1.34875
-1.50654
-0.863718
2.07421
2.25639
-1.8749
-4.52112
-2.70918
3.61172
6.79332
6.81036
2.21118
1.33272
-6.00853
-10.6165
-2.42179
4.81899
1.94931
-9.11758
-7.72776
-2.14502
-6.33825
4.50534
6.69477
2.12365
2.30857
3.1876
4.45153
0.961971
1.05048
2.69073
-2.10672
-2.70929
2.80454
6.30429
0.842694
-5.35346
-0.182216
4.06621
2.49685
-1.2405
-0.468905
-6.53879
-5.30519
3.20124
3.74202
-3.53517
-4.92047
-2.25556
2.9562
-0.281514
0.0407631
-0.550261
2.3739
4.16978
0.169759
-0.910385
-4.86822
-3.92308
-1.37166
0.470196
4.17092
3.94723
1.09403
-4.96924
-8.66247
3.40307
4.77197
2.1623
-0.497209
-2.19866
-1.50143
4.02795
1.7856
-0.604992
1.95941
-0.515347
-0.471182
2.88303
2.49184
0.425781
-0.182622
-1.41568
1.91778
1.53247
-1.32094
-7.26133
-2.58283
2.36114
3.06912
4.14989
0.477514
-2.87009
-3.32131
-0.159162
-1.32014
-0.379563
2.71879
0.50584
-1.84429
-0.0431779
1.14227
-3.06367
-8.11856
-2.74074
3.55697
2.70039
2.01406
-0.975876
2.86125
2.00304
0.506488
2.756
-0.0103336
0.586231
-0.702749
0.918474
1.91636
4.04869
0.234934
-5.67089
1.31801
4.19209
3.28785
-6.63645
-10.4639
-2.56307
-2.02146
-3.12952
-1.15469
3.57885
6.56093
-1.65361
-1.28067
-0.0968915
3.18743
1.92629
0.152849
0.598299
4.93542
0.122544
-2.31995
-1.38088
-0.688545
-0.19983
5.01845
1.5869
0.757407
4.14877
-0.513965
-6.16605
-6.36182
-2.86392
-0.370133
2.11649
1.15981
-3.6695
-6.65897
-0.831785
-3.36333
1.79239
2.75668
0.0392235
1.57836
5.03134
4.6072
1.59387
-0.516075
-0.254326
-0.875902
2.04119
-3.49504
-5.30174
-2.83215
4.80369
3.12027
5.10898
4.47891
2.92244
-1.62825
-2.16349
-4.05823
-1.8117
-1.01737
-2.04818
-1.76315
-2.23575
2.55021
2.35532
0.4716
-1.60335
-1.21133
2.4418
1.48787
-0.0359002
2.23794
2.79651
-2.74275
-5.44112
1.31107
3.30827
1.98596
0.967846
1.02221
5.03851
0.782794
-0.563678
-2.33914
-1.82791
-1.45042
-1.99568
0.970592
1.99352
0.00399553
-5.50222
-6.43123
-3.38662
-0.308429
1.7864
0.634404
-0.160151
0.969785
0.0401066
-2.19907
-1.88231
-0.679848
0.231287
1.71086
0.203072
-0.745604
2.01396
2.16019
-0.271419
3.08519
5.16372
0.506328
-4.26412
-6.3234
1.76716
6.29857
1.596
-1.6239
-1.19093
3.28823
1.9897
1.80514
1.54003
-0.410597
-1.72882
-1.71659
-0.809033
-0.175456
-1.39762
-2.95214
-0.526224
-0.495999
0.389848
5.86561
3.39196
-0.984461
0.99678
4.6223
1.72286
-7.80711
-10.4817
-0.180706
3.41781
2.29734
-1.09792
1.55833
1.53116
-0.296744
0.054886
1.0144
-0.143151
-0.192437
-0.320211
-2.12621
-5.73702
-2.11517
-0.418442
-0.921893
-1.21609
2.74039
5.17547
0.689745
-3.22874
-1.59875
-4.52368
-12.7015
-10.6877
-0.281391
2.83428
-1.55073
-2.45569
3.13718
5.35528
3.53286
4.02389
7.64112
6.53466
3.94363
7.03196
8.75534
7.75577
4.12105
-0.265398
0.827268
3.84484
8.71947
4.63642
-0.318644
-2.30161
-2.19054
-3.15151
-0.688161
1.42746
-0.94367
-7.80493
-12.2874
-12.3753
-6.18285
-5.95359
-7.2174
-4.44116
-2.37648
-1.70753
-4.43621
-5.94251
-4.02846
4.17128
3.77978
2.57635
-1.54327
-1.60112
1.08002
1.34476
0.80835
1.41733
5.20529
5.94795
3.76628
3.83748
0.486824
-5.73948
-3.63533
2.29175
6.3024
7.92644
4.53757
1.25767
3.14579
-0.646679
1.8159
2.55757
-0.365505
-0.648017
1.66189
0.636303
3.15544
2.94468
-1.55188
-3.71813
-0.911301
2.57793
1.37283
-3.71907
-3.71181
-1.10552
-1.82947
-6.3482
-5.71507
0.800475
5.09951
1.07918
-2.52383
-0.706486
-2.73582
-3.91125
-0.330499
1.29855
-0.114867
-1.82816
2.0976
3.80208
1.44231
-0.220776
-0.496796
-0.643814
0.125867
-0.991425
-3.28465
-2.10594
-0.301536
2.62792
5.28682
-1.41955
-0.0502445
3.34578
-1.12709
4.1417
1.65421
-3.40707
-4.12303
4.65935
-1.23099
-8.34607
-1.06778
3.10276
8.18088
4.49821
0.0729714
-4.57085
-0.0565912
2.10489
-5.61722
-7.14501
-0.312892
5.94415
4.84631
-1.11829
-0.145317
2.11922
0.99961
-4.76117
-0.970123
4.04922
0.556477
0.586529
-0.312874
2.30386
1.3592
0.534015
-2.61848
-1.39368
-1.4069
-0.605135
-0.127343
-2.34655
-4.57224
-2.54497
-1.05744
0.802975
-0.474357
-1.30472
0.677153
2.77135
-3.37159
-5.60065
-2.58243
0.503523
2.62852
3.15102
0.924376
1.0888
2.83241
1.41944
-0.379898
-1.49836
0.372736
-4.04148
-4.97527
2.2293
7.04252
3.38131
0.00126408
-3.7877
2.21986
3.7476
2.98573
1.54209
1.35655
1.19304
3.49124
-2.54037
-2.29292
3.76684
4.30123
3.5303
1.08622
-3.96706
0.193631
-1.21049
-2.14934
-3.52544
-2.63538
2.9864
2.39515
-1.50529
-2.46039
-2.19667
-2.75775
-1.36596
-9.36087
-5.8839
-0.649195
2.17226
3.19802
2.1279
2.16639
3.74269
0.502853
-0.0283516
0.462649
0.784032
3.41375
4.12016
-3.06283
-1.96457
0.510511
-0.341101
-0.904531
-0.418672
2.36855
3.22519
1.89594
-0.824928
-3.48246
-2.64156
1.30882
2.16856
-1.5532
-8.07916
-8.64819
2.20228
8.52927
3.21689
-1.37275
-5.17854
-2.46528
-3.72012
-3.42043
0.379329
7.08972
6.28538
2.11422
2.47859
-0.708759
2.10641
-1.88725
-4.43378
2.3407
6.71133
5.88305
-2.48685
-7.17198
-2.52473
-2.54868
1.68331
1.93821
1.96045
-1.4553
2.04222
0.108889
-1.2413
-2.11032
-0.140933
1.14442
-6.27741
-8.36474
-2.61559
2.30252
2.26489
2.18363
3.69906
2.07606
0.901206
3.35797
0.706199
-1.1039
-6.30904
-7.67755
-1.44004
6.22139
6.95755
2.98471
-2.26071
0.159526
4.26542
5.118
1.2585
-0.611689
2.22458
3.09337
0.11596
-2.79495
-3.83065
0.551322
2.53828
-1.30351
-2.25123
2.87815
1.90392
-5.54417
-3.73661
0.0619537
0.0430342
-1.70546
-2.85286
-1.05935
2.58418
-0.139474
-2.85073
-4.54409
-1.33527
-1.58157
-2.46403
-6.95213
-4.51449
-0.836017
5.90339
8.50523
-0.847601
-2.04629
-0.978911
1.54683
1.61632
3.306
4.31572
2.33126
0.0964667
1.10305
2.56489
0.953471
-0.976953
2.72243
-2.32742
-3.0708
-0.0583856
-0.44668
4.27456
4.71897
3.87894
4.64791
1.49716
-4.0852
-6.82815
-3.37829
1.54988
1.42054
-0.451896
-4.99878
-2.02443
5.78197
1.57156
-7.12437
-3.51166
6.46094
2.02831
-2.75682
-0.926014
-1.3301
-5.6349
-8.1362
-1.04739
3.83144
6.0887
3.96418
0.659038
0.0366923
0.423433
-0.178333
-1.39874
-6.20516
-2.43259
0.308768
4.64064
4.01124
0.904886
2.05223
-2.21769
0.802878
2.76661
3.87828
-3.02577
-5.01386
-2.74699
0.60007
-0.44492
-1.07744
1.06428
0.831156
1.47537
1.83639
0.339856
-1.4847
-1.76707
-1.80483
0.787713
1.69908
4.68523
6.3765
0.515437
-4.2984
-2.36698
-0.131442
1.34716
-1.04946
-1.78782
-4.62618
-1.30077
3.48076
2.3728
-1.789
-0.361632
3.8823
2.35486
1.13977
1.82787
0.45478
-3.84502
-1.6346
1.51426
3.43879
-1.31959
-11.8512
-13.2222
-0.135667
4.61889
4.31155
3.07325
0.457545
0.354846
3.56367
0.586638
-0.611161
1.90526
1.00754
-1.29842
1.32652
-1.10351
-5.10327
-2.5069
0.260083
2.96722
9.52124
7.53416
-4.1584
-7.66948
0.259841
-1.83714
-3.11709
-0.481449
-1.92797
0.546448
4.65671
3.03116
-2.33392
-4.9325
-0.586406
4.03478
1.17156
-1.60445
-0.867581
1.35411
3.59775
4.86819
2.10416
0.888044
-1.68108
-2.53172
-2.98419
-0.673854
-1.56344
1.19618
1.30272
1.25537
-3.80001
-3.67939
-2.53843
-4.03152
-0.618362
2.59096
2.18118
3.4544
0.845967
-3.36976
1.43357
6.21459
4.0988
-2.50949
-0.247948
2.87778
3.0888
1.31502
-7.39641
-6.24627
1.44463
4.82887
-0.62193
-1.8144
-0.900099
-5.16323
-1.95243
-1.29559
3.34473
4.60564
1.05198
-1.41053
-0.531767
2.51903
2.72013
-2.27717
-2.24216
-2.92236
0.883827
-3.99497
-1.25567
1.49869
0.81545
-2.93205
0.521944
-0.424517
-1.78381
-0.863197
0.71453
1.81467
2.51861
5.34641
1.20824
1.66241
0.235589
0.0924958
-0.820446
-2.18178
2.7901
5.92682
-2.20002
-4.23921
3.64707
2.91972
0.555671
-4.38968
-1.73277
2.56273
-3.77164
0.382586
-0.989772
-3.50005
-4.13244
-0.175525
-0.754093
-0.225693
0.195967
1.33826
-1.19894
-0.298766
2.83929
3.98434
0.43553
-1.1195
-0.422559
4.18131
2.08364
-0.281109
1.40588
-1.67529
-1.19675
-0.819564
0.2867
0.171781
0.0636249
-1.66771
-1.09391
0.169845
0.994372
-0.982894
1.01882
-0.179053
-2.61457
0.0131571
-0.683028
2.98566
1.95854
-2.14684
1.76653
-0.670237
-2.28019
-1.58806
-0.210524
-0.909808
-1.30677
0.16708
-0.470255
0.797541
1.61693
2.07418
3.87664
1.53142
-2.62513
-0.361081
-1.30932
-1.0627
0.787365
-3.76313
-7.35792
-5.94389
2.85081
4.56249
3.0525
5.18593
3.85815
0.27955
-1.30937
3.43236
2.26563
0.481429
-0.793033
-2.46132
-1.82176
-0.490489
-0.413496
-0.359004
-1.13766
2.48196
5.51306
3.83026
-3.36993
-4.79002
-3.87039
-4.68679
-3.3052
0.296792
-1.37862
-3.99724
-0.51112
1.11738
1.40434
0.775901
2.84224
2.47407
2.94062
3.09592
1.37789
0.958053
0.603931
2.75673
1.51999
-0.279779
-1.52699
-2.31953
-3.55985
-3.36056
1.0753
3.1453
1.03456
-2.91928
-3.74628
0.039779
2.57758
1.65522
0.922229
1.16928
-0.406007
-5.54036
-3.69687
1.8913
-1.00216
1.26096
1.91033
3.06282
1.18925
-0.95758
0.937242
-1.94932
-2.92366
2.35761
5.73772
-2.20147
-6.54735
-2.45904
3.74331
1.13993
2.62386
5.08138
1.45989
-3.54587
-0.970006
-2.48049
-1.7005
-1.06326
2.71157
4.23339
0.858576
0.95575
0.898154
-4.16644
-7.31605
-0.772067
3.65736
1.47318
-2.5389
-0.148354
-0.988821
-0.653426
1.26661
2.47897
-0.955853
-2.36186
0.140629
3.45472
-1.088
0.0444809
-0.82822
0.291249
1.03261
2.28331
1.32684
3.84503
-0.493623
-4.2253
-4.02014
-1.99087
-2.93819
-4.96335
-1.00329
0.177961
1.88919
6.28476
6.43052
0.423913
-1.95621
-3.38625
3.27979
4.27907
-0.2247
-0.76184
-1.06744
-1.19188
-1.17857
-0.248686
2.86652
2.31897
-3.91631
-4.53524
1.92561
5.33091
3.17784
-0.935434
-4.45612
0.0188917
9.52994
4.57156
-8.11736
-9.58394
-0.963515
1.59259
3.20007
-0.848819
-1.05693
2.12813
0.822889
1.49771
2.61597
3.93179
-0.455303
-1.83696
-1.93902
0.457659
-3.80444
-4.85937
-4.49152
-2.34754
-0.768208
-0.471543
-2.67147
2.6087
5.17294
2.46336
0.475974
-0.0920625
-4.57368
-2.36126
0.109978
0.152371
2.65837
1.73183
1.83169
0.147661
-0.984688
-0.0362378
-1.02432
0.851692
-0.38499
-3.60921
-0.574685
0.731651
-0.0119386
2.01226
3.29077
1.52024
2.71759
0.897178
-1.19239
-4.13484
-1.71164
0.0663688
-1.14308
0.644428
5.12776
2.10567
1.60573
-1.27731
1.78882
5.33974
2.41211
-3.85243
-5.38742
-3.63639
1.03477
0.000258015
-1.50375
-2.3967
2.90557
5.44381
-1.40908
-1.83041
1.25286
-0.067138
-0.157093
-0.240068
-0.31406
-0.377613
-3.69326
-4.85423
0.429447
3.95469
1.15881
-0.78084
-4.4683
-0.887249
-1.65989
1.26376
1.56081
4.97706
5.31801
0.281809
-10.466
-5.48013
4.00035
0.340282
-0.409404
2.46604
5.92386
6.23882
-0.506896
-3.36413
2.2846
-4.73543
-3.38719
1.84185
5.22739
3.04642
3.79678
0.701596
-2.32281
3.06206
2.24536
-5.94021
-5.41681
1.72402
-0.258922
-3.29765
-5.19204
-0.452854
1.8761
2.43588
-2.31944
0.313079
-1.2834
-2.3207
-2.90094
-6.37818
-2.53064
-1.36664
-1.2264
-0.123846
4.00951
6.61166
-0.176185
-1.35228
0.484042
2.58022
4.70125
1.77427
3.0042
2.00373
0.380839
-0.742048
-0.640456
-2.99003
-1.9022
4.68465
1.42013
-0.864587
-1.53074
-5.14535
-0.65902
4.04661
5.3033
2.50738
2.06241
2.37201
0.689435
-4.6743
-4.77355
-1.32824
-1.44657
0.975072
2.47512
-0.83714
-2.24388
-3.90934
-2.34681
-1.16286
1.33682
-1.16708
0.512348
0.788188
-2.33989
0.64606
0.166788
-2.58672
-1.75805
-0.209253
0.0968586
-2.06932
2.44037
3.75172
2.82605
2.08313
1.49486
1.03637
0.685773
0.423873
-0.581894
2.06514
-0.385593
-0.360702
-1.13549
-3.20071
0.560315
0.613811
1.45536
1.12441
0.840082
0.596643
0.38911
1.8449
0.217415
-0.916978
-0.831485
-0.752067
-0.678791
1.02019
-0.397719
-1.35256
-2.74604
-1.87425
2.0968
1.33351
-4.17661
-0.223515
1.62106
2.74782
2.48582
0.477329
-3.3891
-4.14154
-1.92368
1.33166
0.166089
0.211617
0.244398
-0.549754
0.610064
2.17754
3.0837
1.83413
-1.60414
-2.19039
1.62332
-0.050463
-2.82418
-2.86768
-1.06665
-3.03677
-1.65194
5.16037
3.69147
-0.777149
0.392223
1.97431
2.08262
0.368947
-1.6375
-4.51511
2.03849
2.19881
-6.00442
-2.06867
2.37448
3.59313
3.37609
2.18923
-0.403614
-2.13501
-0.719739
0.256881
1.69183
-0.754736
-2.36181
-4.1056
-3.34733
3.13815
4.02586
1.09903
-5.00586
1.89026
6.38117
0.773078
-5.4986
-1.16283
1.80869
1.22048
-2.52656
1.67317
2.72246
-1.67967
-1.25967
2.35258
0.495901
0.00571363
1.26936
-2.9208
-3.11046
0.215254
0.772039
-2.18823
0.0598701
0.736829
3.58293
-3.76073
-5.96701
-1.29812
3.58611
2.56653
0.111251
-0.694695
-2.79122
-2.32353
1.47721
3.9845
-0.268674
-0.587116
1.742
5.67381
7.11262
1.84315
-5.94612
-5.89885
1.85575
0.360853
-0.67329
1.93264
1.88246
-0.767214
-3.34428
-1.60471
-0.354038
1.30981
-0.132345
-2.7344
-1.84128
-0.293926
-1.66876
0.0105001
1.17143
-0.540685
4.11006
2.87781
-1.39992
-0.0787676
-0.825648
-1.26305
4.25555
2.74565
-2.55587
-1.05081
0.816685
-3.72897
-2.43375
1.05632
4.96222
1.51231
-0.917875
-2.5096
-0.159373
-0.229648
0.542153
1.00419
-1.22661
-0.203771
0.472862
-3.20828
-8.71361
-3.58496
5.06947
2.4319
-1.04134
0.0597334
3.32524
3.72197
-0.291351
-2.08502
-0.635366
-1.18965
-3.02844
-4.75857
2.71609
1.95919
-1.78897
-0.739325
2.63687
6.51838
3.09911
-0.0888832
-2.10086
1.71367
9.15276
7.84883
2.3694
-2.30624
-3.69289
-1.96471
0.919464
3.55847
4.19593
5.04553
-2.2337
-3.85286
-1.58565
0.674697
-0.49752
-3.89138
-2.81938
-2.09613
1.61813
-1.91274
-6.774
-5.63779
-1.35662
-0.141782
1.40104
0.60218
-0.0808968
-1.46188
-0.76256
2.0972
0.482336
0.0642459
1.28167
2.68034
-2.44319
-5.03967
-0.854488
-3.83733
-2.39417
-1.33705
-3.85168
-2.0179
-2.27561
-1.43138
-0.698371
-0.0658742
0.475331
0.933252
-1.94858
-3.57351
1.50153
5.01043
4.78392
0.431129
2.59554
4.05865
0.862211
2.11537
0.533165
4.51329
6.20322
2.95213
3.12438
3.09141
2.89657
0.130708
-0.913642
0.0719574
1.52354
2.35753
0.251712
-5.32062
-7.91541
-0.959998
6.20396
1.57319
-4.10651
-1.93655
5.33154
3.24239
-1.71445
-0.101536
-1.56997
-2.54499
-3.11711
-0.102474
-1.42459
-1.46392
-1.45568
-1.40845
-6.22519
-0.868503
0.321305
-1.339
0.118008
-0.520027
4.02267
5.167
3.1176
0.675882
-1.06562
1.03763
-1.78987
-1.18224
-0.768305
-2.13821
-0.513535
-1.89135
-1.9015
-3.43184
2.31296
1.91239
4.77587
1.4317
-5.0295
0.75623
2.8976
-0.81121
-4.09324
-5.21651
-4.78508
-1.66837
1.42849
1.04946
0.829248
-0.0847763
0.239236
-1.07341
1.52225
4.10425
4.04015
2.1919
2.52369
2.63593
2.57444
-2.51574
-6.52978
-0.541515
4.38929
3.37411
5.78156
3.73717
-1.99258
-4.08965
0.472936
3.45887
1.09186
-1.44027
-3.91665
-6.98795
-0.414484
2.37287
2.44204
-4.2204
-4.30043
2.48978
4.42687
3.78876
-1.00522
-1.72962
-2.13639
-1.47527
-0.950925
1.08755
0.730625
-1.20567
0.833727
0.486147
-2.24989
1.77437
1.86782
0.136964
-2.7022
-0.367288
-0.446471
-2.12499
0.151228
0.834754
-1.22386
-2.51863
-2.3843
-7.81134
-5.10143
-4.43738
-5.12602
-2.53099
2.12732
1.34087
-1.37633
-1.9074
2.35501
6.27985
5.62305
6.82816
5.89354
10.0861
10.0072
4.56196
-1.7018
6.58345
9.27876
9.62436
9.10111
5.48368
3.22264
1.12895
0.0463961
2.11089
2.81336
-3.21752
-5.21051
-10.1054
-6.79148
-1.47292
-5.79205
-13.7939
-17.1294
-14.5809
-4.09155
-8.53817
-11.9689
-8.68998
-5.14846
-0.780799
-1.0082
-1.79997
-2.87599
2.507
2.88199
-0.909702
-0.667994
5.54493
6.34927
1.03234
-1.47343
0.541102
7.91048
8.54881
5.43656
6.52933
7.05202
7.93338
5.67745
2.25037
-0.123301
4.06797
3.35302
-0.613677
1.66624
4.67567
2.22084
1.15057
0.231488
-2.17653
-2.97136
-6.71028
-0.704477
3.24335
-4.25754
-3.37524
-1.0288
-2.75115
-2.97634
-0.538879
-0.562655
-3.85351
1.52675
-0.731305
-3.84587
-0.773384
3.78233
0.846332
-0.369935
-1.17747
-0.83609
0.25573
-2.30314
-5.4769
0.16593
1.53235
-2.4892
-1.65553
-0.0691076
-1.33673
1.30836
6.38877
2.93156
2.96711
3.67246
3.93375
0.58553
-3.3283
-4.081
0.615214
4.55582
6.07248
1.74547
-1.32205
-1.72089
-1.94259
1.24105
-1.6864
-0.328867
0.527918
0.170553
-2.61188
-3.55228
-3.18154
-1.9375
-4.25512
-3.86393
-2.47408
-0.480707
0.983777
1.18747
-2.72616
-2.57288
2.75753
4.65632
2.48933
2.63613
1.85035
-1.96447
-0.188957
2.75399
4.63692
1.57926
0.310246
2.75734
4.23451
1.6697
3.90072
0.982844
-1.11557
-3.35237
1.00593
2.93198
2.26535
-2.56399
-4.95389
-5.53867
-1.58419
1.06721
2.66723
0.172415
-7.34706
-4.62466
2.32925
1.02931
-0.798327
0.406024
-3.79739
-3.1448
-4.17047
1.94792
4.26121
-1.84968
-2.55579
1.22071
1.20725
-0.518979
-0.820322
1.48826
0.483393
-1.84786
0.000815812
-2.00821
-1.53983
0.567397
2.81837
-1.52171
0.652807
2.94762
4.34246
2.57012
0.414893
-1.04462
-4.38614
-5.46536
-5.73493
3.58318
5.61737
4.26743
1.53702
3.76364
5.03959
0.663672
-3.12495
1.08454
-0.267619
-1.1568
0.77364
1.1858
0.548203
-3.20356
-1.42335
3.93563
-0.121859
2.04599
4.11851
-3.02011
-3.58039
-2.15043
-5.18461
-4.42967
-1.9791
1.4635
4.52283
0.569833
-2.0925
-1.26064
1.04041
0.902787
0.776385
3.92357
0.857816
-3.70988
-1.61444
-1.73057
3.23125
4.70468
2.90626
-0.983414
-2.75067
-2.97385
-1.31682
0.680407
-2.12448
-2.2187
0.332922
0.403245
-2.81565
-10.4406
0.792953
5.91925
4.16661
2.81384
2.61023
5.61307
3.16974
-0.324869
-2.66669
-3.25794
0.642062
4.01332
2.70284
-0.851893
-7.30474
-8.69222
-0.0195752
5.82732
6.11246
9.1533
1.51566
-2.97522
-2.62297
-0.687713
-0.271311
-1.71336
-1.84576
-3.53628
-3.68389
1.31261
2.06026
-1.71882
-5.81096
-0.0124991
1.39616
1.41521
1.31342
-0.50451
-1.71299
1.65552
-1.94693
-2.60009
-2.85607
-0.355571
2.19769
1.34762
-4.98351
-8.80166
-0.830188
4.7121
4.99606
3.36364
4.62011
1.97691
0.973774
2.75344
2.17239
-0.776159
1.42061
0.363502
-0.348519
-1.59959
-2.30136
0.690183
-2.2137
-2.31016
2.75377
8.46289
1.92962
-1.7503
-2.47076
-0.342614
2.73044
1.3155
0.250895
1.92706
1.21886
-2.68123
-4.36417
-1.1707
-2.27229
-2.06801
-6.70365
3.73943
19.4463
-0.854568
-7.1214
0.480826
1.3173
-4.05437
-2.58473
-0.719035
-2.78715
-1.61213
0.0256559
-5.47804
-7.99738
-0.141095
0.25976
1.38894
3.7429
0.210564
6.04237
-1.8914
-9.49071
-0.798006
3.51602
1.3572
-0.0808822
-2.57111
0.13787
4.51207
4.79247
3.11238
1.02804
3.69626
3.61709
-1.581
2.39287
0.773751
-0.396727
1.25197
3.84064
1.95601
-2.81185
-0.207257
0.604498
-3.92277
-4.34936
-0.358153
-0.209592
-2.63162
-2.51371
-3.14217
-0.9389
2.20146
1.66848
-0.474345
-5.99719
-4.3934
-3.00267
-2.62646
2.79247
8.76209
2.41435
-1.13864
1.48628
2.33553
-0.516755
-1.56689
-3.78385
-2.52262
1.81553
-1.87401
-0.860199
0.786466
0.30289
5.77986
5.85915
4.74186
-0.404756
-3.01031
-2.92017
-1.83384
-1.76933
0.0751782
2.98918
2.32739
1.75611
3.71337
2.3001
-0.475151
-6.43025
-5.9155
1.3688
6.15804
0.77073
-1.267
1.50899
-0.0468524
-1.12782
0.628619
-1.55881
-2.96014
-2.09582
2.68504
0.770202
1.03834
-1.34878
-5.34361
-4.40045
-1.82414
4.1419
6.24276
0.69084
-2.26619
-0.0269347
0.632817
3.45652
2.61489
-0.63874
-0.395333
-1.92075
-6.96266
-4.17815
1.22737
-1.76412
-1.16185
2.62435
4.19235
4.96782
0.22988
-2.16922
3.68447
-2.50706
-2.43433
-3.07285
-9.01353
-5.78844
4.20553
4.17496
0.71117
1.71098
0.715573
-0.728583
0.0802866
2.34324
2.15316
1.14517
2.91467
1.5035
0.501185
-1.8008
-2.35837
4.82894
1.98945
2.42945
1.73814
-3.7602
-2.29075
1.29219
-1.30174
-1.30648
-2.02569
0.920971
3.66494
3.61997
0.871836
-0.24994
3.04174
0.870558
0.0805562
0.250074
-3.04391
-3.52276
-4.52351
-2.51246
-1.87053
4.35997
-4.07367
-4.56689
1.92651
2.85202
4.06829
-1.16195
-4.63269
-5.85863
-4.6462
-1.84406
-2.2183
0.240277
1.17344
6.74427
7.65793
2.90733
0.377284
-1.33249
1.70319
-1.28419
-1.55308
2.4659
12.3269
-0.764895
-5.45889
-0.962252
-1.23764
-2.21848
-0.328039
-0.725979
-8.32929
-3.0422
0.727495
-0.0170477
-2.08174
1.65676
4.9338
1.94815
3.12944
-1.17407
-0.685551
1.33663
-3.91797
1.03798
2.6786
0.355711
2.88306
0.295101
0.174121
3.33148
2.72841
-1.99875
-1.81641
-0.815108
-0.961521
-4.3059
-6.26911
-2.23976
1.46521
4.71105
4.96124
-0.102804
-5.93492
-2.88329
2.65067
-0.324425
0.20591
3.037
4.74857
3.93455
0.639537
-1.65993
0.121739
-2.84219
-3.86181
-0.229135
2.19065
0.366044
-1.72528
-5.48046
-5.16338
2.78573
2.23683
3.39421
0.692369
2.93145
0.949234
0.352993
-0.919833
-4.18857
-0.385376
1.35981
0.79729
1.17528
-1.93469
-5.52143
1.45634
4.4067
-0.441757
0.437464
1.80633
-1.49677
0.470908
-1.52545
-3.57329
0.217023
3.57364
-0.126961
-2.57679
-0.751922
2.995
2.86476
-0.677313
-3.81235
1.71402
3.66661
0.637958
-1.44108
-3.56117
-3.09667
-0.913703
2.28523
5.12539
5.05716
-2.69762
-2.00208
1.02519
1.32235
-3.49352
-4.0364
-0.0349555
0.21175
-1.24049
1.99258
0.78149
1.57954
0.38836
0.39339
3.63851
5.53875
1.47736
-6.31301
-3.80535
0.530608
3.35356
-1.56806
-5.6112
-2.24058
0.974399
-3.46841
-1.27254
3.58527
1.72091
0.383751
1.11261
0.714398
3.66512
4.54654
-3.38967
-2.79656
-1.43857
1.16847
-0.46515
-6.44689
-1.01837
3.51251
-2.65941
-2.48419
1.11365
4.30873
0.473184
-1.27297
1.75904
0.423307
-3.73677
1.12772
1.07742
-2.24714
-0.174786
-1.97916
3.56269
6.27419
5.24738
0.12064
-1.70257
-2.01633
3.60369
1.36034
-2.72721
1.21003
-0.382794
1.78562
-1.85961
-3.4221
1.42015
-2.85232
-8.00482
-4.37474
1.64661
2.34075
-3.01816
-1.42932
3.06916
6.75091
3.07494
-1.2107
-2.35672
-0.504512
-0.0328256
-0.508582
1.68447
-0.209455
1.01031
3.40129
2.31132
2.2153
0.316653
-4.30091
1.01882
1.99611
-0.000481126
-3.03912
-4.11002
-2.95582
-2.0018
0.407799
0.368004
-0.484922
3.07651
1.98272
0.290926
-2.51043
-1.77229
-2.78884
0.0121281
1.10004
1.78871
2.97166
1.12166
-0.191039
-0.245406
-0.272841
-2.72611
-0.0876515
0.879335
0.666524
-6.03348
-7.5978
3.4006
8.17225
1.09103
-5.27625
1.52307
9.30396
0.0352398
-9.38678
1.34958
6.04917
1.4888
-4.87762
-7.92008
-1.14289
4.41411
5.51298
6.79734
3.17316
4.64262
6.91802
1.35999
-2.55512
-1.03972
0.726814
-2.36579
-3.59373
-0.220258
1.91356
-0.203908
-2.57898
-0.88509
-0.673285
0.165387
-1.90741
-5.7807
-2.40749
-2.56983
-4.24206
-2.70009
-0.725457
-0.212107
-0.699557
-4.26061
-3.07349
-2.03161
-2.75768
1.13166
2.95433
-0.805806
-0.680718
1.22569
5.01592
3.26271
-2.90158
-4.23274
2.68073
3.21122
1.0766
-1.06211
1.84796
-1.04503
0.562116
3.43785
9.40502
6.37316
5.65232
4.01925
1.02813
-0.245354
2.14638
2.71854
-1.25487
3.4184
6.98011
3.78808
-2.93431
-3.41975
-0.53339
0.316086
-3.53365
-5.36483
-4.89651
-5.35275
-7.18235
-4.05078
-5.94952
-5.32028
0.258135
-1.8316
-3.16429
-4.69402
-0.500825
0.721044
-2.55663
-2.06182
-2.32105
-3.03167
1.75594
6.63919
5.52608
3.72387
-0.073828
-0.0521836
0.0734527
-0.545629
0.0262562
0.549928
2.64708
5.64732
3.30868
1.62323
2.10259
2.34642
4.8478
4.57247
0.792836
-2.64393
-0.722761
-1.06807
-1.26467
0.28771
2.08262
1.45434
-4.84525
-6.32641
-1.19329
3.12969
0.0842221
-3.59563
-4.17157
-0.161559
2.57036
3.44265
3.80933
2.96677
-1.10355
-3.79599
-2.92495
0.284692
-0.0521361
-2.729
0.571945
1.92632
3.51424
0.230218
-2.01363
-2.59281
1.25613
0.453081
-3.40093
-0.0386732
-0.245248
-2.81185
-2.68204
0.0755884
3.59463
4.10671
0.920111
-6.16548
0.973994
-0.0109889
-1.44337
0.196175
0.514678
3.1964
2.3614
-0.779952
1.27718
0.942055
0.659164
-6.92054
-0.867878
6.5411
2.09068
-5.90954
-10.0036
5.9837
10.6169
4.04799
-1.43712
1.49878
0.861454
0.321028
2.31816
-0.676299
-1.09431
0.23025
-2.27481
-1.44735
0.735017
0.404113
-3.22092
-6.34021
-1.53276
1.72952
4.55623
-2.10198
-8.92511
-10.4551
-5.82473
2.67114
5.0318
0.680944
0.303153
0.154326
3.4402
2.25764
-1.83426
0.580053
4.7281
5.65542
5.15366
2.87535
-0.465795
-5.93232
3.89986
8.57124
-1.98731
2.47453
1.93699
-1.91929
-5.28531
-2.3638
0.491463
0.664058
-3.41871
-1.89206
-0.795874
-2.49963
-4.30781
-1.95483
-4.30574
-0.622943
5.22201
6.38578
0.229912
-12.0396
-0.570426
7.21773
6.29569
-0.414865
-0.756751
0.721805
0.049316
1.25144
3.61467
1.67381
1.86973
1.00786
-1.33323
1.20624
0.289611
-5.32611
-4.69927
0.895024
1.27225
-0.227876
3.64449
1.83841
-3.6529
-5.51134
-3.97418
0.574853
-5.40161
-7.34898
12.3435
5.93002
-2.81372
-1.92169
-2.81335
0.086488
-0.381656
1.02568
1.95664
1.68352
-1.01608
-0.252276
2.7739
-1.88129
-1.54454
2.11011
0.38402
0.081275
4.82686
7.69707
-7.24732
-4.48611
3.39527
2.73365
4.56273
2.18108
1.20374
-0.425584
-1.57375
-1.50736
1.81632
2.17905
-1.92663
-5.47512
-5.12543
0.282614
2.99747
-1.99245
-2.80605
0.0487473
-4.62876
-2.56184
-1.00883
0.931275
2.18615
-2.00482
-6.27037
0.350349
1.56344
-0.904744
4.1403
3.23262
0.847101
2.52261
4.32983
2.81193
-0.0308295
-0.312655
-1.31894
-1.10241
-3.34107
-2.96418
-0.843378
-0.133645
1.2288
-1.14638
4.76181
3.53347
1.68384
0.339306
-4.66755
2.11412
-1.65571
2.49017
4.2773
-0.552578
-3.76786
-3.22792
3.06654
3.79006
-0.0907477
2.18183
-1.40796
-2.1385
-3.35404
0.104681
0.740411
-3.81548
7.25799
-0.588025
-3.3947
-5.09169
-2.63772
-1.63326
-1.64124
0.958585
2.67789
0.419803
0.552677
-0.180875
-2.25619
-1.80691
3.57758
3.72074
4.41716
0.505798
-1.33434
-0.853459
-4.56343
3.8971
1.12377
-1.61779
-1.70331
-3.26449
-0.784408
0.974162
2.13599
-1.26765
-6.66479
-0.747191
2.54845
2.24362
0.365115
0.824668
0.362044
0.948717
2.19328
-1.11311
-0.698757
2.17563
7.30603
2.94554
0.67684
0.751015
-0.0788938
-2.27858
-2.78873
1.95681
1.72011
-3.46876
-1.80918
-1.396
4.6975
3.53574
0.846883
3.82503
4.63355
-1.81559
-6.97317
-0.290754
1.60172
1.79329
0.813804
-3.35026
-8.53825
-1.77835
-0.541325
1.83506
-0.0974954
-1.5172
-0.866734
-0.509463
-6.89763
-8.34002
-5.51127
-0.782587
-2.41661
0.824453
0.583422
0.495897
-1.10629
2.11973
6.71944
7.81815
7.27595
3.17175
2.64273
-0.392073
0.80957
0.66508
2.88757
2.43542
0.20417
2.63149
0.630691
-4.20689
-4.07385
-1.43142
-0.545527
-7.41417
-7.52792
-5.52295
-6.26403
-3.01371
0.276669
-2.31464
-5.35763
-3.54918
-1.02233
5.93461
-1.76034
-2.36236
1.84078
0.0120143
4.10226
9.4174
10.2599
8.82035
5.89234
1.30224
5.68188
9.99691
7.38103
5.14266
0.793227
1.00227
3.38873
3.75931
0.260643
-8.88414
-0.76113
4.45114
-0.0116645
-0.868345
-5.00334
-3.70164
-3.75528
-4.70174
-2.90295
-1.02019
-2.47674
-9.32594
-9.47747
-3.46165
-4.30756
-7.18727
-3.01874
0.710075
0.645289
-2.75571
-7.31507
-4.9411
-2.94207
-0.460704
-1.0547
-2.81064
-0.284753
0.0646779
-2.66086
5.0306
7.73331
8.53894
5.5359
3.42615
7.74515
7.85948
2.66415
1.59155
2.50628
6.29898
4.37037
-1.28435
-4.97539
-2.19272
2.28968
0.253408
-1.91903
1.67936
3.16096
5.55497
-1.44137
-6.0831
-1.47807
-1.61249
-3.25443
-1.69414
0.27695
-0.0571675
1.35609
3.01149
2.24471
-0.111486
1.51204
-0.0515864
-0.383353
0.934677
4.06428
0.811312
-4.05691
-12.9348
-7.50175
4.7225
1.88312
-0.215306
-4.13697
-3.28029
-4.98212
3.18693
1.88169
-5.66054
1.125
2.32565
2.16498
4.35711
1.41403
-2.32457
-3.07245
-2.57124
2.01742
4.12651
-0.476449
-5.16999
-4.68447
-0.737894
2.01186
2.14966
5.42473
-1.69824
-3.0331
1.23201
-0.0254388
0.838501
2.24274
-0.991319
-1.38272
2.60776
0.270368
-1.23252
1.19456
2.815
1.32863
-2.13923
2.29004
2.70349
3.6602
4.07094
0.791771
-0.667086
-0.821465
-1.72812
-1.4367
1.27314
2.95794
1.37545
-3.11569
-6.7909
-0.662772
-1.44988
-1.88408
4.48656
7.60035
1.75355
-5.62872
-7.81285
-2.25741
1.58759
-2.49052
-0.955313
3.41255
1.2023
-6.88764
-3.63206
2.924
1.45072
3.69391
3.34565
-0.363697
2.08762
1.9389
-1.58072
1.04956
-3.01113
-4.71684
2.63621
4.10865
-0.093025
1.16959
1.89791
-1.87406
-5.12594
1.19094
-0.404752
-1.45156
0.393629
-0.851335
-3.25009
-2.9715
0.73222
4.8477
1.59638
-4.73096
-0.422855
3.35569
1.62229
1.21473
4.15499
1.75938
-2.42024
-5.05566
2.52112
2.52362
-1.72113
-4.42994
-1.82689
3.34857
4.17102
0.378068
-1.35434
0.0373196
0.97158
0.717282
0.496672
3.57016
3.71281
-1.40427
-2.34892
-1.25846
-1.32495
-1.33476
-2.93044
1.06879
2.00023
-0.820483
-2.69192
-2.97626
-3.7935
0.830994
7.96378
1.56134
-6.11543
-4.31191
0.461432
0.380487
-2.1102
-0.313502
-2.29646
0.699074
2.7398
4.8147
5.113
0.905189
-3.59495
-3.07857
3.21889
4.78008
3.04921
4.10411
-2.88388
-10.684
-10.2839
0.533144
6.99235
4.37651
4.01151
-1.39241
-2.45345
1.91137
-0.196478
-1.5825
0.876495
4.9152
3.9948
1.426
-2.91097
-5.68394
-0.669811
-1.39476
-0.988708
3.41504
5.27439
-0.437351
-4.30071
-5.84147
-2.42848
1.63774
1.78818
-0.691952
-0.680183
0.179657
-0.899253
0.0718084
-0.101394
-1.02308
0.073517
-0.00230576
-4.9308
0.322907
3.86404
1.93311
0.549056
2.06242
2.12893
1.21061
-1.13175
-5.08067
-3.27809
-0.179108
0.328131
3.15943
3.25601
-1.76221
1.57272
3.71712
4.0859
0.765309
-0.731051
-4.18009
-2.96722
-3.60052
1.13509
0.976563
0.0111403
1.01851
0.00361676
0.970942
0.74043
-0.279489
1.50501
-0.682185
-1.29051
-2.43134
0.24544
2.8441
3.56999
3.78737
-4.5422
-14.7344
-6.62993
9.12105
6.04736
0.383169
-0.119282
0.400904
-0.880946
2.43916
2.88094
-1.09335
-2.85122
0.264983
-0.101412
1.31817
1.37795
1.33268
-1.23979
-2.87456
2.76911
8.79565
2.37862
-2.9657
-1.52837
-2.18997
-1.74716
-0.588117
-3.92101
-2.6597
-0.0314902
-2.37175
-2.13881
0.62793
-1.62408
-2.97715
-0.352525
-0.133163
-0.704884
4.77356
5.73892
2.77901
-0.995672
-0.168881
3.66991
2.71116
-2.22112
-2.94232
0.839644
0.843167
-0.0455817
2.60599
0.893885
-3.62548
-5.62007
-0.0504405
2.85828
2.97154
1.19089
-1.74972
1.26336
-0.124343
-3.5394
-3.1643
-3.52775
-1.88087
0.20298
2.44818
4.64194
-1.53302
-1.4493
1.17747
2.87474
1.37505
5.17416
4.05477
-0.306185
-4.10405
-6.44155
-3.52854
0.275759
1.16693
1.68569
0.278397
-1.50791
-0.972486
1.08335
-3.33035
-1.94964
2.40401
1.10043
1.81899
3.00891
1.14897
0.630419
-0.60078
-3.85651
1.56929
9.15232
-0.339164
-3.4617
-4.57025
-2.60106
-1.13537
-0.0880752
-1.01576
2.52216
5.52438
-0.226571
-3.2802
-2.68721
0.317258
-1.79339
-0.631565
-2.25343
1.73953
0.230174
-2.397
-0.682243
3.82398
2.53112
-0.926465
-5.59552
-1.74925
5.90917
5.78354
1.25444
-1.84903
-1.34373
1.54285
1.73883
0.116135
0.647154
-1.50867
-2.85747
-0.296652
0.627081
2.02931
-0.435712
-2.05186
-0.535777
2.97369
3.48254
0.298961
-3.51408
-2.58198
-0.162153
1.46337
1.62828
-0.0203117
-1.14121
-1.01601
-2.50976
1.56155
4.98602
-2.07142
-5.03607
-2.5992
1.66942
0.347031
-2.16625
5.31441
5.87492
-2.33637
-3.60965
-2.60316
1.51025
0.891155
-2.03008
-0.569431
2.0892
0.464403
0.167481
0.771865
1.93093
-1.52707
-1.30015
-2.70421
-5.89758
-1.05209
2.32337
-2.03502
-1.45072
-0.857906
0.534001
0.741695
0.966223
-0.443763
2.87115
5.0249
2.15333
0.184432
0.574434
0.875439
-0.539298
2.711
3.94275
0.454999
-5.14316
-2.77456
5.58546
4.30095
7.24579
7.04004
-0.215563
-0.293327
-0.497155
0.847427
7.19227
-4.01497
-9.04782
-8.77876
-4.12322
-2.53127
-3.88267
-3.00156
-3.93267
-1.9001
-2.90277
-1.75584
-0.863678
-1.81662
-3.09903
0.410869
4.44684
2.83787
-1.62596
1.28972
0.770515
1.26276
-3.31727
-0.340094
5.04281
4.30855
2.78313
-0.00681552
0.621451
5.11432
4.50943
0.510347
-1.42238
-0.217269
-1.08167
0.000202425
-0.958225
-1.57737
2.15854
1.19197
-4.48882
-3.1216
1.24312
2.41949
-1.07021
0.7221
-1.43436
-1.99243
1.01247
-0.337875
2.84398
2.28844
-3.18884
-0.963609
-3.53704
-3.40067
3.45621
2.90161
0.689014
-1.67679
-3.16468
-0.682796
2.65982
0.631464
-2.39945
-1.80401
3.63283
2.94417
2.27765
-4.06268
-4.76868
-0.00617217
-1.69356
-1.83727
0.708404
8.14627
1.98631
-0.610261
-1.48027
1.3149
2.28233
0.320588
-1.02236
0.586925
-0.0264918
-3.71333
-3.46983
-0.595098
2.2246
2.36523
3.14346
1.00711
-1.31129
-0.33051
0.337882
0.751803
-0.669549
-0.770605
-2.429
0.712326
-1.3159
2.32979
3.78996
0.405814
-0.282968
-0.766719
1.36735
-2.24976
-2.92285
1.69214
1.3589
-1.44482
-4.07353
-3.12238
3.44163
1.05872
1.02215
0.908945
-4.96797
-5.29179
-1.8518
3.07965
2.95914
1.09495
1.44618
-0.023547
-0.162276
-1.03483
-0.697802
-1.20025
2.67918
2.68255
4.98039
2.0904
-1.64166
2.47202
1.73128
-0.581765
-0.532117
-2.99411
-3.68838
0.12876
0.175522
0.15341
-3.18039
-4.40235
-0.0243495
-0.353709
-1.34231
-1.06059
0.877705
2.97677
-1.49874
1.3722
1.59966
1.67409
0.81382
-3.06743
-0.527006
2.05381
2.85077
-1.69249
-2.14399
0.992005
-1.03278
-1.45808
0.855044
0.760492
2.32934
4.07235
1.70725
-0.810336
-2.44916
-1.74853
-1.96896
-1.13982
2.79395
2.811
0.196246
0.072416
2.42812
1.36645
-4.3652
-1.38547
3.13372
-2.24437
-3.24565
3.65142
1.46598
0.702261
-0.707336
-3.27066
0.112827
-0.105881
-1.07722
-0.848088
0.987974
2.13646
-0.528343
-3.11176
-3.00414
-0.270428
2.40999
-2.4767
-2.27651
2.95096
3.8282
-0.723827
-2.88243
-0.83751
2.25321
5.01136
-0.0113256
1.52754
3.24218
-1.59267
-5.57526
-5.42981
1.57948
3.72631
-1.60914
0.666468
2.96349
2.65613
-0.205172
-1.32221
-2.01484
0.0815297
-0.180391
-2.81101
0.514899
0.247352
-0.765096
0.245529
0.0895275
-0.0172982
2.36386
2.15064
-1.42686
-0.479046
0.975697
-0.597765
-2.45171
-0.275476
1.99967
-0.716258
-3.31286
0.890102
2.0027
-4.73971
-7.26636
2.21387
3.57016
3.48825
1.6134
-2.97835
1.54729
2.0536
0.653269
0.516468
0.410174
0.328114
-0.550893
0.548057
1.25767
2.46816
0.649606
-0.629814
2.61282
4.55453
-1.06391
-3.197
-2.03856
-4.46233
-4.1874
-1.28364
-3.32989
0.464371
0.562277
2.27239
2.48388
-1.59756
-4.99824
-1.15719
-1.69932
-1.02393
4.51516
3.11908
2.07063
2.12312
2.0744
4.39324
3.20811
-5.97492
-2.71728
1.29324
3.09148
0.012503
2.03949
-1.65831
-0.762335
1.50616
2.89654
0.321846
1.7902
0.939437
-3.04839
-6.40546
-2.55412
2.60555
2.57287
-0.938929
-4.90789
0.0838865
-1.51753
0.764896
3.84886
4.78893
-0.697138
-6.84822
-4.83909
1.69763
1.84422
-3.91901
-0.977978
1.05315
2.34314
3.85589
-0.322512
-2.31076
0.567331
-0.846196
-2.57175
-0.293359
3.69395
2.00881
0.717556
-1.0524
-5.46857
-8.05575
0.601225
3.95637
3.54304
2.25493
-1.18074
0.712281
-2.94582
0.568255
2.1056
2.21585
2.9853
-2.40601
-2.55971
-2.45736
5.17599
4.24293
-3.9992
-5.1264
1.047
5.9716
1.54583
0.955646
0.499748
0.972473
2.83894
-0.223725
-1.47991
-0.629855
-2.50992
1.27301
2.86036
-4.48531
-5.85401
-1.47766
-0.0688083
3.35748
-1.90801
-2.00055
2.19097
4.05651
2.59051
-1.02258
0.69848
1.77331
-0.11575
-3.04431
-0.745043
0.812696
0.953283
-2.31627
-4.36705
0.271109
2.53857
3.87925
-2.8585
-3.91644
2.98565
1.66889
-4.23344
-1.35513
-0.961057
-0.6033
0.531748
-0.336488
0.78704
4.79379
3.90019
-4.31058
-3.78042
0.935498
7.31656
-1.16182
-2.66607
0.589076
1.90489
1.01366
-0.484177
-3.92024
-3.50093
1.93602
-0.253337
0.782954
0.632179
1.3287
0.902901
-2.69792
-2.44903
4.44824
1.42696
-1.48909
-1.68975
3.208
-0.260753
-1.7334
-0.13764
-0.678786
2.29371
3.31781
2.13506
2.8012
3.81155
-0.763355
-3.05622
-3.66694
-3.0951
-0.935314
0.516972
-3.49645
-0.259247
0.256771
-4.33762
-1.39833
3.11927
2.66538
-3.53773
-3.3522
-1.34271
2.58477
4.25893
1.84675
-2.3302
-2.50037
-0.785248
0.454158
0.482514
3.78236
0.0467942
-6.50101
-3.02438
1.22421
4.08206
3.35738
1.9025
2.48873
3.56106
5.67436
1.76832
-2.65347
-6.3061
-2.63956
1.60626
0.241764
0.121134
-2.43034
-1.52353
0.824034
3.1586
4.49284
1.77215
-2.67901
-7.16659
2.53322
3.90338
1.23778
-3.14407
-8.36839
-5.59465
2.37546
7.57076
-1.71065
-2.8902
-1.02437
1.94481
3.81392
-0.0942477
-1.88786
-0.512428
1.2581
0.721489
1.125
1.30288
-0.324648
-1.41767
-2.07495
-0.751743
0.996525
0.461291
0.0683853
-5.91631
-2.95324
-0.720549
-0.735595
6.74202
4.81118
-0.0334038
-1.613
2.359
0.780095
1.31116
-1.69422
0.493517
-0.533094
-1.9986
0.432875
2.03694
2.15518
1.25746
1.35916
-0.343029
-2.32329
-2.71544
-1.18954
-3.37059
-1.3251
0.968798
0.82865
-2.55953
0.288253
2.21129
3.38073
-0.132187
-4.90551
1.25016
3.67466
1.80032
-2.01564
1.29374
0.149661
0.191254
-0.614938
-1.11416
-0.552696
-1.76397
0.832431
2.52887
2.68167
-0.674014
-1.25294
0.877688
2.21961
2.1141
-0.601639
-4.88203
-4.99942
-2.29756
3.76154
4.29745
0.270817
-0.0139188
-0.239713
-1.22828
-1.83775
-3.77385
0.0889849
-0.59168
0.649011
3.08667
1.24651
-0.886679
-3.07199
-3.49477
2.20979
3.45663
4.07818
1.76262
-0.745432
-3.21837
-3.03782
0.554742
7.00241
3.4592
-3.2781
-4.34732
-6.4375
-0.0456344
0.982413
-0.814498
-1.91985
-1.65858
1.14669
1.38389
4.78582
6.77844
1.93916
-0.631517
-0.710979
-0.756457
0.858426
-1.4299
-2.89864
-1.25877
2.35557
2.13842
0.996377
-1.51624
-2.32467
-1.9306
-0.746495
3.34155
-0.716817
-0.144919
-3.87076
-3.66178
-2.44662
-1.43077
1.03679
1.04749
1.86668
1.52961
1.25152
1.83911
1.32081
-0.726157
-1.20574
1.0318
0.033443
1.0252
1.6394
0.318155
1.86902
2.76871
0.704429
-4.843
-4.16015
2.29211
1.54903
0.945476
-1.16792
-1.69617
1.32514
0.794061
2.81949
1.4966
-1.98728
-1.78035
0.881691
0.918879
0.0112163
-3.91929
-5.50293
-0.482929
-0.355468
1.40793
0.875329
-2.78883
0.695891
-1.07562
0.30629
4.51659
4.59578
1.06614
-6.28363
-7.49846
-0.407475
1.16416
5.48582
3.16371
1.4384
-0.606878
1.34971
3.38676
2.05469
0.176171
-1.13644
1.27974
-1.33386
-0.595843
-0.120857
-3.93381
-4.61777
0.125711
1.65298
3.37686
1.01384
-1.48217
-7.16134
-3.11617
-1.80083
-0.734177
-0.704052
1.09514
-0.123318
-0.000668846
3.46252
2.38047
1.59123
3.48605
3.75742
2.08453
-2.42648
-1.99409
1.71734
1.64951
-1.76055
0.993473
0.322754
1.48985
0.527575
3.91251
2.59549
-1.79623
1.02644
0.296298
-1.1318
-2.11726
-1.9202
-0.939897
-1.94693
-0.938795
-1.09817
-2.83561
-2.22903
2.36378
0.322116
-1.93117
-0.0882201
-0.531499
-3.2806
-4.09845
-1.91018
-1.10279
-0.434511
-0.706279
2.50683
2.92706
0.628014
-2.51843
0.525474
1.78789
4.22373
2.3606
1.81752
-1.08903
1.15366
0.961891
-0.029489
0.958252
3.19263
2.82344
3.16567
-0.967176
-5.36667
-5.54487
-2.04191
2.07426
2.24106
1.38139
-1.75141
-2.10553
0.245389
0.981961
-0.226986
1.42695
2.42115
-0.372535
1.0176
-1.43431
-3.8312
-2.74535
0.612798
1.18659
1.49335
3.22239
-0.766855
-4.22504
-2.99617
1.3005
2.46188
-1.00444
-4.05796
-3.34303
2.31477
4.36186
-1.05246
0.344811
-1.15568
0.418392
6.38648
3.42603
-5.31906
-5.07723
5.25435
5.28544
3.30853
-0.72641
-3.42607
-2.59349
-0.259772
1.29327
0.58335
0.0365817
-0.370065
1.79012
-0.208084
-5.66542
-4.87491
-1.5667
-0.856659
3.80096
4.23479
3.42731
-2.26411
-2.66873
-2.77057
-1.82453
0.592444
1.38546
0.222608
-2.16748
0.509858
2.31005
-1.49944
-6.33755
-0.888276
6.18183
4.86184
3.71558
2.72803
0.253251
-3.8746
-4.73048
2.39702
5.39209
2.953
1.91946
0.234473
-2.60096
-1.92673
1.05195
-1.16526
0.64792
0.123263
-1.93019
0.851867
-0.678782
0.729429
-1.71764
-3.30207
-6.63489
-1.07413
3.53706
-3.41075
-2.89421
-0.677184
0.910255
3.60788
2.76857
-1.20722
1.15367
1.04841
0.117606
1.96084
4.70237
2.11648
-1.42399
-0.471141
-1.48268
-2.09625
-1.57443
0.498165
1.83499
0.949167
-2.18528
-0.889356
-0.799558
0.119941
-0.099355
2.20183
-1.32716
-4.42268
-2.91568
2.40242
0.112373
-2.19853
0.541299
-0.0579978
-2.02062
0.967683
4.61189
6.79562
3.73399
-1.84142
-5.45963
-0.973832
1.28676
1.09664
1.72607
2.03011
-1.18408
-2.44885
1.76258
-1.27114
-0.766683
2.0662
1.35497
0.763842
1.09655
2.0099
0.782145
-4.2531
-3.31396
-0.881478
0.763638
0.955787
-0.657706
-1.73588
-1.56087
-3.81444
0.649873
2.77126
-2.53489
-5.89838
-1.17524
4.56653
2.42997
0.879963
0.630332
-2.00435
-2.77624
1.03159
1.93081
1.64092
3.01538
-1.95567
-0.210085
1.00391
0.96458
-1.54481
1.0027
4.29999
1.32411
3.324
1.95088
-1.60143
-2.29129
0.613986
-0.809122
-2.57299
-1.17027
-0.189522
-0.368509
-2.12286
0.0974098
-0.0746142
-0.196259
0.54045
-1.46686
-0.265789
-2.71415
-3.33276
4.67968
4.0219
0.86568
-2.12906
-3.99297
-2.50383
1.96225
1.58607
-0.367898
0.0212907
1.94787
3.12944
0.451131
0.264931
0.930411
-4.41568
-2.78062
5.86966
3.90572
-0.137427
-2.86181
-3.69817
-4.0107
-2.28812
3.14981
3.34967
2.47217
2.54496
0.775566
-1.30063
0.638489
1.03963
-1.25213
-4.36766
-3.71952
1.87172
3.04057
0.350509
0.970375
1.29696
-1.86889
1.01411
2.83435
0.541195
-1.90528
-1.83893
-3.35569
-4.17184
-5.25035
-3.12407
-0.598986
2.86019
2.62626
4.82945
3.58434
2.54342
-0.763743
-0.467856
2.21112
-0.240252
-0.238989
-0.23651
1.39887
1.55604
-2.56
-5.97656
-3.76566
2.08435
8.33909
4.60652
-4.76193
-0.11649
1.32185
-0.295798
-3.02961
-3.04623
0.403258
1.04215
-1.05488
-1.56728
-0.162532
-3.27933
-1.01893
0.610134
0.0830581
1.42174
3.90971
6.15894
1.52791
-0.0607828
-1.97407
-5.60044
0.515229
1.30031
-0.707616
1.27006
0.868824
-1.09849
-2.34315
-1.37641
-1.4342
1.1073
1.13121
-2.16136
3.99047
4.5839
3.03275
-3.13906
-5.44442
0.725505
0.716265
3.93148
0.895778
-0.406845
0.342916
-1.67465
-1.3159
-1.8374
-0.45034
3.75358
1.37346
-1.98896
-2.51465
-0.284119
-1.25507
-1.83796
-2.10995
-1.32276
0.949041
3.24395
1.3041
-2.52523
-0.00373076
1.6913
1.08407
-1.84111
-1.21167
-1.50781
-0.754164
2.29197
1.75942
1.31406
1.76147
0.312845
-1.4927
-0.145163
0.769397
0.515534
1.12741
-5.89217
-4.4414
-1.48353
2.30756
5.58326
6.63357
4.44947
-0.604585
-4.79971
1.67033
0.941077
-1.28195
-0.271656
0.377642
0.738519
0.0583204
-2.09248
-3.44035
-0.878569
-0.766595
0.976827
2.87074
-0.176393
-3.05621
-0.722642
-2.4049
1.52584
1.58798
-5.02145
-6.63393
3.40068
1.76221
-1.84054
-2.42176
1.51947
4.13542
4.04252
2.93825
1.20793
-0.0233978
1.60275
3.38097
1.03677
-1.46793
-5.54461
-3.02251
-1.95509
1.35703
5.94298
2.87666
-5.11519
-2.78361
0.582475
0.338853
-0.663105
-0.468746
2.14562
-0.340316
-1.98141
-1.30751
1.69221
0.325124
3.47906
-1.19415
-3.42868
-1.4219
0.0299529
-0.610021
1.48505
3.62544
-0.896554
-3.84721
-1.45186
-0.530938
2.62142
2.14474
-0.733149
-0.123556
3.5871
0.122022
-3.82126
1.99054
2.48799
2.65887
4.20919
0.0128775
-3.66832
2.22731
1.04494
-2.3408
-7.78027
0.506284
3.52706
-0.444111
-1.47297
-2.09984
-1.58742
1.29539
1.48245
-1.78158
-1.4099
2.18597
0.338293
-0.939258
-3.38043
-1.51672
1.47717
0.12809
0.054806
2.46921
3.10375
0.0400398
-6.10749
0.00472561
3.28486
-0.449296
-2.08277
-3.01061
-1.7494
1.72437
5.62537
-1.90257
-4.30251
-2.28045
0.134206
2.66304
5.90795
3.66773
1.96981
0.724447
-0.147699
0.099491
3.52097
2.27843
1.24996
-0.403281
-3.18694
-4.89425
-0.844952
1.07184
-1.01179
-0.724534
1.94242
4.37337
3.18838
-1.17739
-9.01265
-3.90378
0.552236
-0.609873
-2.169
2.65286
2.41975
-1.99955
-3.19698
-0.51443
3.7707
1.47731
-2.61365
-2.72364
2.29528
1.41736
0.739056
-3.03223
0.378672
1.00936
-1.07305
-1.55451
-3.37157
-2.66614
4.59741
1.86257
-0.0213266
0.417258
-0.0730864
-5.22522
-3.31297
4.03187
7.15812
6.40818
3.07458
2.28581
-0.0448034
1.63753
0.153772
-1.71894
1.17184
-1.94129
0.131576
0.622105
-0.799378
-1.77143
-3.18985
-3.97768
0.629849
5.26522
1.41859
-1.31932
-2.32396
-2.9125
-3.16593
-3.15548
-0.49574
-0.315108
-3.42283
-1.96247
0.0199884
0.598614
1.02382
2.94987
3.2861
3.3354
-0.0985206
0.896238
-0.126536
2.46938
2.39264
-1.11182
-0.95722
-1.63463
-1.179
1.6427
-1.49745
-4.31522
-2.62305
3.62004
5.12545
-0.739612
-5.42098
-1.62788
-3.84091
-3.34718
0.583922
0.845839
4.36179
1.63283
-2.63922
-1.11141
0.117164
3.52314
4.87639
3.92583
3.10369
4.84103
6.49669
1.40497
-0.53271
4.64111
4.37768
0.459408
-0.769292
-0.958273
-2.08647
-4.58591
-8.63476
-3.60958
2.25983
-0.685795
-2.78954
-1.73814
-1.91119
-3.69589
-3.9674
-6.44846
-5.29375
-2.56043
-4.63312
-1.56586
0.673794
-0.219422
0.138517
0.504503
1.67972
2.50447
-0.226048
2.20993
0.583069
2.89147
5.21415
2.47125
0.598959
1.06014
3.85989
5.56467
3.12585
1.32214
1.67545
-1.46965
-3.47064
1.15532
3.36026
2.15116
0.355894
0.72366
0.0477336
-2.10325
1.4384
-0.449542
-2.57172
-1.43684
-3.91129
-3.70755
-0.88962
1.86412
1.12025
-3.54702
0.105962
0.0893346
2.52578
-0.108453
-1.0555
0.82014
-1.26369
-0.945723
0.142398
2.48862
3.05404
-4.15662
-7.07774
0.444765
2.20166
0.80943
-0.147321
-1.56604
-0.738909
2.3558
5.93059
5.4696
1.48746
-1.33939
-4.84403
-4.46182
0.150247
-0.0599877
0.613062
-0.621612
-2.22668
0.938258
1.35922
-1.71546
0.436557
3.48066
-0.446763
-0.603177
-3.94632
-1.00584
-0.586274
-2.67943
-2.2062
-0.846475
5.11038
5.55342
3.07123
2.85431
0.87035
-2.98968
-2.11965
1.04391
0.62801
0.296988
0.855204
0.328766
-0.891577
0.772055
5.05624
0.975157
-4.34985
-1.97533
-0.326031
-0.0813365
-4.05359
-5.65362
-5.52543
-2.57331
4.54676
2.5354
0.269379
-0.387754
-0.740049
-0.0397815
1.32255
1.40171
1.43084
0.601206
1.69892
1.55085
3.01963
2.99897
-0.485811
0.473763
3.50796
-1.2779
-3.61625
4.8239
1.90785
-1.06137
-5.50732
-3.27055
4.92778
-1.42095
-4.80348
-1.06428
2.28981
-1.37325
-7.01673
-2.95399
1.62842
-1.08629
2.95094
3.86313
1.79221
0.301412
0.92134
-5.2596
-4.1071
0.259908
7.30814
6.66127
1.69382
-0.955458
-1.88909
-6.50428
-6.69645
1.83751
6.65212
4.55317
-0.420402
-3.72587
-1.6014
2.38436
1.62506
1.00501
-0.308631
-1.18384
2.37607
-1.15057
-4.26753
-2.7997
-0.796675
1.44427
3.69165
3.32333
2.84061
0.654156
-0.905318
-3.57713
-3.52975
-0.0158317
-0.945162
-2.31725
-3.06035
-1.6773
3.49928
5.13605
-1.439
0.00517041
1.80133
0.439823
1.13891
-0.108281
-3.38746
2.00813
5.47568
-2.39824
-5.06515
-3.23926
-0.957971
3.12438
2.41189
-0.64945
1.45386
3.58619
-1.77137
-2.7859
-0.00647306
1.04258
0.864682
0.689786
0.521453
1.99431
0.367827
-2.40841
-3.30835
0.38782
3.6414
3.09858
1.66619
-1.10175
-2.94711
-3.22512
-1.60228
-1.25294
0.68434
1.10224
0.472799
-1.63425
-0.498286
-0.535081
-3.79273
-4.0583
0.986383
1.89963
0.810335
4.16667
2.07883
-0.252146
-0.145997
1.57777
4.25602
2.4674
-4.65226
-3.40982
2.53111
-1.03817
-2.54422
-4.19162
-0.0802254
2.71197
1.16567
-0.729878
2.16608
3.15562
1.15537
-0.271035
-0.408442
-0.493424
1.91196
-0.722985
-1.64664
-4.62429
2.68069
-2.42145
-4.83053
1.27617
-1.21362
-1.09385
3.21736
3.49554
2.67737
3.60815
-0.0980415
-0.129325
1.47032
0.775124
1.03402
-0.549252
-4.07429
-2.11061
-0.682315
1.93504
1.08058
1.22179
1.18766
-2.23835
-1.97838
1.54806
-1.14984
-2.9172
-2.29839
0.704275
0.202245
-2.6018
-3.47332
-4.60269
-2.52418
4.03454
4.15885
1.59634
0.66383
1.69042
2.31368
3.42805
3.13904
-1.35662
-2.64614
-0.0670722
1.65954
-2.20105
1.0888
2.39238
0.637722
0.214645
-0.115902
0.449696
1.56852
-2.74403
-6.29956
-0.0997415
1.59398
0.983422
-0.314768
-1.98614
-0.519655
3.76311
4.72146
-1.53107
-5.64979
1.74917
0.0110229
-5.25222
-5.14028
-0.595507
4.9896
1.90072
-4.33044
-3.24255
4.3126
4.23996
2.32681
0.924612
1.57647
1.09317
1.5065
-0.78776
-2.28671
2.56737
3.15942
-4.04828
-1.27358
0.634597
0.205426
-1.75631
-3.78491
-0.802685
2.06944
1.40585
0.0511087
0.769228
0.366609
-0.760654
-4.74103
0.278809
1.99508
0.572226
-2.03769
-1.99011
1.47403
3.719
2.53254
2.37949
-2.80899
-3.65529
-2.34359
2.78944
4.40668
1.91195
-0.731983
-4.93597
-2.52897
0.067379
1.8095
-0.405283
-0.213719
0.754142
2.1716
3.78
0.484571
-2.60934
-1.27442
-2.77915
0.470815
-0.667979
0.245238
1.6486
1.64326
1.50157
-2.00015
-5.05378
-4.30982
-0.231229
1.73438
0.526599
-3.53305
-1.03984
2.40807
2.99496
0.804424
0.981144
1.08582
1.94549
-3.2883
-2.42518
2.46533
1.55035
2.53061
3.05917
3.22817
4.75002
1.32031
0.506023
-0.975495
-1.17552
-0.508269
-0.941692
-2.08016
-2.78946
-0.703035
-4.23028
-2.26342
-0.0106725
7.18391
2.46249
-1.75732
-5.36624
-8.29871
-2.36696
2.58376
0.0220265
0.784887
0.445662
-1.42189
-5.80422
-0.921155
-3.21936
-1.13992
5.37445
5.41864
4.38045
6.73664
6.25347
-0.222153
-8.64529
-5.52129
3.50606
2.80838
0.555093
-1.7787
-3.18651
1.03518
1.38666
1.57788
3.27017
3.37896
2.39629
-0.0906278
-1.79375
-1.22563
0.00761611
-4.11063
-4.97137
1.32665
9.53094
5.34661
-2.78992
-1.60273
-0.806517
-2.76961
0.0989438
-2.98016
-3.27564
-0.859598
-0.0506071
0.452098
1.52966
-1.9886
-5.06406
-1.89578
-1.28185
-1.5769
0.823409
1.60044
4.50301
3.70678
-0.346244
-2.22697
-4.15477
-1.87488
0.633259
-0.129642
-2.19882
1.54586
6.46868
2.02319
-1.04688
0.267874
0.337993
-1.24175
1.90428
3.08664
2.04565
-0.427226
-2.06257
-1.38898
-0.0262137
0.0770105
