355.175
319.906
245.191
131.486
27.2549
-38.3198
5.28494
139.772
214.652
243.767
221.7
114.66
-21.0851
-142.758
-250.321
-319.194
-315.175
-238.751
-103.473
-22.6498
-10.9309
-18.2712
-56.5784
-147.785
-197.054
-188.282
-191.075
-171.726
-19.4842
182.073
233.791
207.921
129.028
10.8623
-77.6962
-130.275
-101.177
17.5275
96.385
86.991
54.1539
54.978
113.058
119.177
47.065
28.3507
51.1058
84.9531
79.2693
20.8125
-25.2647
40.2847
160.825
316.938
319.015
111.606
-111.116
-184.494
-396.942
-567.427
-397.746
-117.635
36.5816
104.49
37.3938
-34.6215
-91.7697
-97.6465
-38.5061
69.8369
134.515
55.1159
-59.7972
-112.715
-59.3115
62.402
195.681
228.239
296.957
364.269
322.9
144.368
-21.9799
-143.108
-102.614
81.5644
236.691
212.338
10.3961
-200.81
-312.597
-348.459
-345.516
-343.813
-341.981
-225.494
-30.6107
9.70996
49.3689
144.026
110.202
27.5241
-26.8479
3.63085
62.0354
-1.93474
-92.3625
-65.422
-24.7379
18.2917
98.838
158.101
240.962
295.036
285.044
201.263
97.92
-17.9108
-97.3951
-76.2196
-162.882
-220.919
-158.276
-93.0954
-43.4418
47.8229
72.5575
52.5229
28.0255
-25.8624
-10.8311
32.0724
92.1556
84.7956
12.6227
19.9541
76.9635
84.25
-18.0421
-172.222
-287.947
-312.147
-240.226
-139.286
-16.5538
106.149
226.339
156.241
72.2674
47.6641
128.389
305.789
266.11
48.6185
-80.7401
-76.7729
-173.255
-187.293
-51.1236
46.2002
148.583
178.775
100.202
90.1667
37.9695
-114.783
-183.086
-154.59
-101.619
-21.2001
-71.1857
-170.861
-244.486
-177.291
-19.7384
108.472
186.394
104.665
-1.31844
-92.0726
-68.0764
-40.2324
-6.09868
19.7941
55.0172
123.424
107.631
30.3807
27.9921
113.826
107.653
3.03686
-74.0196
-19.5339
-10.5081
-63.2128
17.4305
72.29
28.4221
137.602
223.029
173.417
86.7318
-21.0589
-155.087
-308.616
-278.715
-16.2911
-22.801
-86.9673
-100.63
-106.609
-35.0494
28.6136
108.277
140.631
8.70178
-77.2904
101.979
121.786
24.2657
80.6631
67.9792
-11.7312
74.6137
129.002
21.1426
-131.983
-156.962
-147.758
-1.00364
147.197
96.3809
-56.8559
-34.849
82.173
7.77738
-41.0466
-54.8864
-23.0379
-70.4336
-129.544
-142.701
-139.516
-157.802
-147.675
-14.0745
186.43
349.046
320.905
111.956
-116.128
-148.214
-162.454
-188.61
-117.308
53.9332
129.745
94.8158
27.0013
94.9654
145.552
88.8521
55.8098
104.562
205.318
88.4202
-60.9035
-99.7721
-154.332
-196.076
-70.9618
80.2702
163.475
69.7852
-109.558
-124.132
-85.1592
-63.8119
-10.1981
28.9146
9.12394
14.1035
41.6295
24.9031
-68.6324
-117.908
-150.755
-152.932
-62.9454
111.186
106.859
68.1995
55.2527
-3.72164
-33.1411
-52.0379
21.0777
62.6702
97.4014
114.052
148.527
130.212
39.9963
-58.6043
-125.235
-155.684
-136.066
-22.8613
51.0435
35.7996
5.17095
-16.6305
22.0313
68.9549
81.925
66.6668
76.9995
107.819
51.3035
-81.6622
-227.288
-266.776
-110.195
57.7747
104.78
165.383
159.636
-11.2788
-164.668
-73.4797
-36.06
-106.702
-49.6931
17.3512
-209.4
-351.86
-95.4595
178.891
123.677
146.56
161.207
187.972
153.639
-6.04708
-46.3974
22.5845
37.4103
153.641
228.295
71.016
23.856
58.1724
-70.9015
-111.048
9.01715
60.4169
-58.7794
-61.1071
-65.3041
-253.025
-212.967
-71.1297
-100.06
-100.414
-61.9887
-85.151
-3.2751
53.8927
65.5433
122.587
112.428
91.6862
111.89
78.8564
59.9515
20.0863
-125.287
-332.311
-229.879
45.6074
85.0044
85.0936
186.664
232.108
127.74
31.9747
-48.2799
-41.0413
-7.62059
-100.088
-81.2482
-36.1879
-45.5763
-59.1854
32.712
132.518
115.966
72.6104
73.0379
-10.7622
-107.854
-118.76
-25.0213
-38.7631
33.7743
118.036
50.3169
13.3007
138.336
100.042
-70.9364
-177.928
-209.815
-180.734
-33.9244
-14.3681
-89.5175
-155.142
-83.9125
-18.1254
121.137
252.473
143.971
6.49856
21.6928
6.88732
-28.5775
2.27054
6.81557
50.6895
9.07494
-16.6681
54.8188
88.1435
-5.5236
-27.6421
54.1203
174.846
153.969
87.6036
57.7666
-52.7943
-186.373
-261.138
-197.062
-132.855
28.0056
46.1727
-104.742
-72.9188
34.3794
-10.0361
-48.7551
58.8823
144.2
177.169
31.437
-154.096
-203.737
-109.837
-32.9405
18.4984
105.338
194.111
141.664
125.557
14.4997
-59.0461
-19.2914
-24.8296
-76.302
21.7904
225.276
198.494
15.0491
-127.593
-69.2054
-0.289308
6.608
30.2778
-29.0507
-110.459
-73.379
-16.4263
-74.6682
30.4481
198.953
140.153
-72.5019
-187.689
-177.108
-167.786
-103.832
-73.5158
-69.998
-82.9094
-60.8922
-116.514
-110.366
-21.2608
115.713
202.037
142.748
176.381
219.644
167.864
-8.82953
-96.6023
17.4938
54.6515
91.6708
225.833
184.884
60.0236
-1.8107
20.2173
6.3382
32.5866
37.4454
-32.6229
-142.659
-289.567
-242.425
-133.422
-60.9766
-35.7678
-72.6744
-45.129
-32.2649
-3.4919
62.7705
96.3573
9.89846
-45.7321
-40.1309
14.4707
66.3982
68.74
23.5567
9.8351
-11.4944
23.9692
71.1481
10.7586
-96.2923
-176.213
-99.2802
-26.2746
42.36
199.058
219.352
17.6986
-162.394
-107.284
2.30442
41.7429
52.14
56.8859
31.8594
-5.91927
34.316
114.664
65.4859
-29.8969
-100.89
-138.153
-93.1774
-11.0048
64.7706
-3.6092
-90.0689
24.1945
173.334
150.439
126.613
105.77
59.4081
-24.6075
-130.894
-119.606
-61.8142
-19.6305
-5.9902
-46.5567
-58.3399
-44.9133
-72.3451
-59.366
-63.0257
-70.3971
5.7946
4.78097
17.8394
34.56
11.7344
-28.5651
9.76452
53.2117
61.1214
62.4459
59.696
6.65021
-64.2822
-13.9339
85.5716
74.5608
67.5847
87.6143
39.4899
28.5482
10.8235
-17.1012
-84.3677
-99.5957
-85.8656
-48.2032
4.99184
56.9264
67.501
20.6889
-69.7731
-94.1169
83.6654
86.9667
-66.8699
-143.726
-157.591
-199.901
-92.6339
19.4844
129.489
114.455
118.414
147.002
59.3023
1.28568
20.5429
22.0982
44.1819
11.1922
-47.562
-11.7196
-82.4163
-23.0793
116.772
40.8673
-37.1774
-14.3751
-12.3424
-85.4293
-84.9072
-12.6866
2.45313
-20.5239
34.799
52.8198
11.0056
2.10806
31.9916
82.252
84.2271
-33.3413
-134.73
-167.276
-125.235
17.1414
100.588
74.3454
85.5558
112.967
-5.74578
-90.9938
-28.7167
28.4846
18.8631
19.8591
-18.03
-142.919
-139.536
7.37651
26.8055
8.2023
59.3692
86.456
75.58
99.0962
98.2947
126.961
34.3197
-20.279
-24.1307
-42.9567
-141.412
-151.817
-62.6299
-31.4554
-44.6918
-19.3398
-0.697666
-8.02693
3.86758
22.9596
-0.985647
-38.0979
28.1226
131.855
131.354
57.1302
-40.7918
-186.368
-221.544
-74.6445
-7.63896
62.5896
85.3303
94.0799
34.394
48.6234
123.058
100.475
107.694
77.7941
16.9104
4.98653
-34.2616
-157.71
-135.709
-121.727
-102.405
-33.3753
67.1517
47.967
9.5293
-25.4547
-46.6923
-43.1128
5.76085
36.8607
24.5749
-13.478
-7.32207
61.4732
71.6988
44.9985
-15.5571
-42.4591
-44.8917
7.8674
107.857
125.979
42.478
31.6128
52.2414
-2.74023
-66.3947
-81.6542
-31.3967
20.2402
-37.6657
-131.98
-44.4376
25.1278
11.1805
-36.365
-65.4267
-109.958
-135.67
-95.3492
20.8473
110.104
85.3541
109.812
135.344
87.9477
31.8361
-17.0125
-83.9306
-60.8536
22.8184
44.2617
-80.2256
-97.4206
0.399267
80.5568
91.8952
103.32
95.2649
48.6031
-32.7381
-24.978
49.8301
8.93323
-42.1673
-52.5681
-52.0584
-20.3435
13.0646
11.8216
-66.4552
-74.7118
-23.0264
-37.3562
-69.1087
-56.7916
-80.6382
-10.3823
128.906
166.479
186.488
178.888
33.4429
-173
-262.109
-266.195
-198.107
-81.1856
22.6396
36.2643
116.331
172.084
132.698
73.9913
59.5001
97.7749
67.5825
36.3703
3.62796
-51.8501
-118.606
-115.9
17.0634
116.401
131.423
132.271
118.306
62.3296
-8.27253
-77.8707
-99.6412
-31.3681
-35.6007
-128.574
-144.115
-79.1311
-52.1932
-76.342
-31.116
37.3548
-22.7923
-69.8014
-35.0202
1.86187
35.5188
99.8616
110.512
11.3094
-76.4176
-0.098663
22.3761
-43.9104
-54.4489
-17.6441
14.3791
28.1858
95.828
121.733
48.7404
11.2673
19.3035
14.5151
-17.425
13.0251
14.3862
5.9192
-14.3708
-3.65145
47.3949
41.6129
-6.15778
-61.7766
-58.3032
12.4285
35.9643
-4.79155
6.39494
7.23967
-50.4156
-80.1949
-75.8615
-60.7146
9.34481
33.1578
-21.2369
-82.3888
4.29536
104.809
89.8688
63.5893
20.2865
-25.2793
-26.8672
-28.2674
-23.5297
-32.7671
-48.8019
-14.8643
64.2343
59.3709
9.8781
-16.4897
-23.208
-52.1204
34.5868
110.9
49.6877
-27.0258
-39.6714
-27.3573
-18.6025
34.6799
46.9974
31.6404
25.425
-3.99105
-113.142
-159.055
-90.9158
-22.9736
58.7831
82.985
26.7644
-7.77413
-17.4054
-21.0611
-44.7328
-69.9618
-21.2908
27.3189
61.3276
78.2121
68.2296
51.9354
21.4803
9.48117
71.6434
132.905
59.5675
-14.5005
-53.4058
-64.5344
-25.0785
21.1426
4.16932
8.04554
-3.21595
-15.8059
-33.3973
-31.0373
-5.62724
-15.5158
3.95936
1.61788
-128.633
-78.5669
-12.1966
-26.3779
-40.8054
-69.5816
-62.9764
10.6704
-8.64558
-56.5368
-76.4791
-29.9638
60.016
134.673
138.868
82.6974
46.4688
14.0917
-15.3533
13.872
78.5983
60.2274
59.809
59.3892
36.3701
35.2273
-3.96369
-4.14243
-1.3543
-18.1796
5.98113
-8.01702
-36.8899
-78.6329
-97.268
-57.8751
-59.4834
-58.4695
-47.9605
-39.5374
-20.4165
-50.6203
-17.3796
27.7031
74.4503
70.6975
66.5139
41.4
28.9042
-94.5926
-149.536
-134.464
-52.8911
97.7988
105.655
50.6954
32.2012
23.5015
20.9603
13.6145
63.0567
72.4354
42.5345
48.3807
-6.85272
1.91099
3.65641
-46.0141
-18.7617
99.6503
103.843
22.5541
-30.9072
-96.681
-81.0116
-74.4286
-54.2182
-4.62269
28.7393
-27.8028
-66.1612
-41.3084
-33.53
-42.1854
-1.24815
-13.0221
-30.3673
-41.7855
-37.4303
28.2226
114.958
148.223
67.576
-64.7285
-38.0693
88.9747
78.2272
16.5606
-26.3241
-4.87521
42.5073
47.4131
7.73131
-68.2733
-128.906
-52.0639
6.57298
28.1056
1.31495
-27.3938
-15.3424
9.34955
26.9597
94.8213
80.0467
-29.5129
-81.6434
-82.6538
-106.842
-117.076
-80.3925
3.98119
77.3841
113.086
129.613
37.5108
-18.5214
-8.46197
-6.3581
-21.8428
-12.7508
43.2778
50.789
49.595
52.8575
17.5911
2.75051
4.7788
-14.8725
-34.6332
-12.2245
4.20953
13.0547
12.0068
-10.4467
-36.7656
-54.7999
-121.269
-75.2475
81.7387
69.4486
-29.191
-2.56126
11.1437
-20.6132
-33.1105
-1.50581
21.596
60.2691
16.6136
-58.8168
-80.7625
-51.9466
-47.7712
-40.1632
48.8763
147.052
186.845
116.807
4.80485
-4.98522
-26.9968
-107.068
-89.379
21.4976
42.7271
-25.2092
-122.729
-108.72
-26.1175
6.64885
6.67334
36.3738
-7.62264
-40.5866
-14.6893
5.77354
75.2793
99.0993
73.9504
55.5817
42.4321
78.8924
58.8375
-33.2602
-68.604
-39.0034
49.3009
28.5886
-0.0984174
16.5417
-27.7444
-80.3242
-45.6146
-21.6304
-42.9214
-32.3181
-13.9759
5.18885
12.2077
5.68658
11.7164
-48.6473
-113.89
-115.24
-32.1145
4.48215
20.986
69.5897
130.354
100.559
31.1766
10.5852
13.0713
-24.8537
-29.1571
-14.6557
0.95767
-3.26334
-27.7247
-55.6948
-44.5523
-1.92544
48.4536
57.2338
54.4853
20.1521
-64.1903
-54.3471
22.1373
82.5086
108.894
74.1497
58.1484
95.8131
59.748
-70.3564
-172.061
-125.608
-82.1093
-68.0127
-59.1374
3.34116
25.7661
22.4011
-17.6297
13.6899
65.9769
-2.15785
22.8063
107.156
88.4993
1.63774
-111.368
-159.523
-138.123
-55.8871
67.9251
118.927
78.1755
-20.845
-37.116
-68.7225
-141.337
-64.7984
71.8163
38.6505
6.23919
99.7306
118.664
19.7972
-32.997
-16.3527
56.2635
119.498
105.395
60.983
-15.2809
-111.185
-74.5674
58.264
105.803
80.3101
99.9872
15.2289
-76.1521
6.35542
48.0807
-45.139
-110.427
-141.738
-154.012
-125.58
-83.0995
-78.1222
-60.1533
-33.2178
-7.27438
31.3185
70.9406
84.6777
96.9017
47.9022
24.5721
26.991
-7.65479
-37.766
-71.5771
-13.6668
-18.932
-64.8328
-25.6731
5.17864
59.6865
131.867
127.031
102.869
20.8086
-48.3131
-106.55
-83.6409
-17.2536
60.1792
94.7143
116.482
44.9354
-46.3202
-5.93775
6.01611
-103.061
-130.811
-116.3
-67.8639
-62.0826
-67.2568
61.7006
150.695
119.046
80.0044
100.709
74.9562
-3.64784
-29.3138
-29.4217
-93.9761
-64.4591
15.6832
36.1556
47.9049
91.8014
73.4762
48.3901
14.0722
-22.9386
-49.6623
-135.388
-165.89
-110.736
5.35364
81.9857
31.3496
-41.5019
-92.364
-78.0645
-65.4534
-89.9981
-72.3288
-11.3367
0.748532
9.18241
58.9473
105.953
132.837
125.768
78.4986
50.942
17.4534
-18.8289
-35.7622
-35.1872
-25.9547
7.46431
41.7788
16.2573
97.6282
126.647
60.7071
0.351316
-29.8095
-25.675
1.03717
-10.5301
-52.6682
-61.6444
-36.2046
-48.0531
-64.0995
-35.7756
-34.9477
-84.0251
-79.2645
27.8452
111.282
71.6257
-30.0762
-77.4326
-27.0089
-32.7278
-18.8048
21.4367
26.7998
25.6173
24.1081
-6.20302
-3.86675
27.502
63.8042
86.7266
4.73914
-75.0338
-44.8525
-33.5758
-55.6752
-29.5153
27.4536
77.5297
107.853
64.3086
13.7864
69.3591
31.4418
-32.4122
4.88968
7.44143
-0.448909
-17.3801
-74.3394
-113.851
-68.1988
13.0218
22.9033
-26.1239
-15.5653
17.8124
13.5424
16.2024
-26.5937
-30.6122
5.58382
7.48894
16.6055
-25.6478
-67.3437
-6.67674
-30.0812
-29.2806
43.4303
85.7213
62.033
54.2152
74.9734
69.5406
-8.29809
-73.1201
-65.8923
-36.7767
-26.4762
-1.39077
6.67545
-13.4562
-46.866
13.7913
40.1304
35.1285
64.788
49.8099
-39.2671
-53.4343
-0.116584
14.7506
-21.5473
-69.8583
-36.0285
59.6329
63.4426
15.1333
-15.1791
-11.0929
-20.203
-64.2916
-10.8313
34.9327
16.1064
-13.6296
-8.6296
-18.2637
29.2419
67.4885
50.0758
3.61422
-16.0725
14.3939
50.8335
-16.0052
-106.507
-77.2759
9.21105
13.2067
-18.4763
-1.55706
16.486
9.53698
-12.0386
-23.0974
-31.1299
-4.51563
4.40108
-1.4517
35.5291
7.05241
-36.2728
-80.6593
-65.8735
52.4988
128.392
131.879
44.2728
-26.9932
3.81315
17.3075
1.09004
4.40338
-7.33629
-2.24893
25.0872
37.4671
-3.73296
-29.9251
-48.4045
-12.1293
7.72478
12.7987
-2.26713
-45.3508
-33.8783
-46.1539
-52.7059
-6.45494
1.91361
-20.3467
-49.1323
-37.5341
11.218
3.29035
10.4382
17.4002
36.8119
49.1945
35.3758
19.4334
8.66854
-16.7852
-9.44602
12.8312
31.3154
5.87451
-6.43936
-6.73136
19.8207
35.4618
63.7449
8.318
-31.7315
-10.674
-40.8229
-57.1651
-76.6986
-50.7724
-27.5753
-19.5908
51.4612
113.148
59.3686
36.1013
16.3507
-22.0134
5.6824
40.41
-11.7206
-35.925
-21.8193
-46.6183
-0.737767
60.7062
32.6088
-34.8682
-4.92127
35.7381
-11.6151
-50.8801
-51.7135
-33.8564
-10.1268
-33.6675
-23.2261
9.41541
0.0761103
4.24204
14.7131
-7.24548
-57.4318
42.1499
74.9158
17.3191
-19.3642
23.2205
65.1114
-11.7003
-90.7584
-3.97358
48.2402
25.6164
22.1353
20.824
9.4264
11.5119
-2.17234
11.2039
-2.4596
-35.7357
-10.3509
-11.1217
-41.4276
-45.0766
-40.152
-26.1944
-6.82742
50.1299
105.299
48.0463
11.382
0.409519
-9.95079
-18.3972
-37.9785
-8.7762
35.5965
10.2352
-23.336
-1.33363
-7.39505
-31.7158
-50.8933
-22.5689
48.8487
24.0999
-52.6671
-30.6262
65.8716
70.6632
8.62548
-40.2
-54.785
-12.5571
13.5314
24.6874
13.5881
-7.64254
8.22966
15.9077
45.2499
14.9534
-16.5628
-15.7885
-22.8468
-27.163
14.8928
1.7913
-23.5551
-25.06
-21.8024
-17.0058
42.5405
23.467
-23.2401
15.1943
38.4014
3.99368
2.7327
21.1329
15.3549
5.92825
-32.3423
-57.7745
-28.5176
32.2702
54.4505
14.7984
-26.1081
-38.1335
-33.1266
19.9004
18.1527
-2.95049
-37.1961
-23.0214
2.31205
22.8817
21.69
3.49111
-24.0616
-3.64448
26.258
17.1445
16.7849
-12.9377
1.80622
24.8078
32.8732
42.4325
18.5341
-11.646
-22.8486
-25.4766
-27.7816
-53.1918
4.33758
23.6366
-0.25423
-32.6139
-29.1181
-22.929
-6.95382
6.46883
19.7869
45.1273
16.9562
11.9414
24.1939
19.2096
24.0971
-9.86897
-30.7883
-18.6313
23.8727
11.0355
-45.2931
-26.2874
-29.117
-1.99199
21.3564
18.5189
28.4738
40.3571
9.16356
-5.59946
-35.4147
-46.1761
-24.4394
-1.82682
-15.9371
-20.8023
22.6153
34.0702
17.552
-15.0398
-49.5981
-58.3534
-24.356
24.8058
51.4532
43.9377
30.9811
15.8142
4.1008
-12.7577
16.2786
-0.359878
15.6648
55.5379
32.3813
32.0536
-6.43921
-69.5633
-45.8495
-4.6725
-14.0432
-17.2101
-4.49571
-14.6243
-29.4029
12.6636
16.3779
-6.61091
-14.0267
6.66194
30.8368
40.0473
-12.2162
-53.041
-21.2125
1.66666
-37.5169
-32.763
2.90274
66.7195
98.2179
56.4468
32.5128
10.2128
-15.4663
-54.7807
-41.5501
-10.2088
-42.1842
-31.5344
-7.60646
1.69337
-9.92946
-32.9946
-34.1499
-5.61039
30.4041
82.8032
75.2384
31.7007
-0.671947
-8.90954
-37.2478
-9.99011
35.4647
-12.9856
-48.9944
-4.69773
37.2348
15.0435
-39.5997
-33.7404
-5.6558
-33.858
-20.7365
33.9559
68.542
46.1949
-5.69017
-28.2388
-54.917
-52.0139
-9.56918
-10.2807
-45.2422
3.29155
23.6099
-0.726515
38.2338
38.2855
33.388
27.7142
6.16887
8.01676
26.0645
46.1731
49.6349
-3.56023
-44.6405
-69.8609
-30.9927
-0.655299
38.3871
39.6089
16.0228
22.9175
37.1551
28.0408
-10.2664
-23.1959
-30.591
-50.8342
-61.7032
-39.9049
-37.4311
-68.0731
-112.506
-44.7865
62.7877
26.5001
-49.4784
-4.52742
58.7003
63.653
37.2554
19.1956
15.912
-5.13237
-10.4457
-8.87368
25.0715
42.3736
50.4648
40.9133
32.1226
42.0522
48.7208
1.71778
-55.3008
-24.4399
23.0952
21.3183
-10.9975
-44.4674
-24.0865
-8.19714
9.40209
19.5296
-16.1799
-21.3347
-39.1724
-64.8676
-58.565
9.11078
34.1496
-45.2889
-64.799
-9.1254
47.5284
68.2877
64.1397
43.9772
-8.79048
5.80153
16.8962
-53.5528
-108.12
-131.42
-76.5848
34.0923
121.769
126.508
29.8969
-35.2383
-21.9297
2.98995
38.1537
15.6125
4.12298
27.6237
38.4263
27.5134
-12.1157
-51.1553
-64.0863
-19.1253
47.8231
66.8436
49.7364
27.1552
-6.09752
-23.1683
5.17067
39.773
13.0861
-1.53184
-13.0188
1.12619
-21.7449
-71.8332
-92.3084
-93.5134
-59.0138
-58.6992
-18.5721
38.4402
19.6567
16.8423
1.14905
-21.2018
-16.8952
25.5542
74.3018
76.3183
33.4859
14.685
50.504
51.4451
0.907257
-50.559
-58.2039
-18.5959
-10.2689
30.657
85.5425
42.6978
-40.0458
-44.2844
-3.83956
-18.6335
-26.7042
-21.4219
23.5928
45.4905
25.7345
-55.0136
-71.2678
-31.5475
-23.7049
-2.24818
62.0722
80.2035
42.9372
-0.662501
-18.8224
26.9051
63.8375
-10.0282
-79.5345
-44.8646
-37.3722
-19.5998
-31.8497
-59.7563
-19.8864
89.7293
91.2595
11.8452
-20.2414
-27.614
-23.5609
-38.0688
4.86521
31.9
-1.7396
-17.2942
-25.3616
-5.65194
64.0276
8.65874
-36.7319
-22.4954
-0.249783
0.673038
10.2372
55.9165
48.8714
0.250112
3.72308
22.8349
6.86393
-7.88088
-2.90044
-5.52286
-14.6673
-29.1189
-4.35811
15.5775
24.3587
36.3463
18.3506
-8.8901
-29.1331
-46.5225
-18.1441
-12.386
-27.6782
-4.3851
10.517
22.0679
8.43901
-46.4573
-58.8604
-41.6712
-14.4426
7.33712
29.0346
55.6732
39.4549
16.6668
34.08
-23.4864
-69.1786
-7.18766
20.6619
7.57565
-18.0746
6.0377
34.003
51.9084
59.9341
78.3079
66.6051
35.7765
-7.90428
-88.4718
-123.432
-115.091
-76.71
0.301555
16.6125
30.5841
41.1091
27.1659
2.52204
-29.3106
35.0869
58.8227
16.7786
-15.957
-9.30871
13.3931
-15.1768
-62.0891
-34.4972
-1.99907
9.72476
55.7876
53.6204
6.79552
-21.1741
-11.8241
11.241
32.8773
33.112
-17.1449
-50.417
-87.848
-73.5471
-16.0952
15.2333
27.9532
37.1115
60.2008
22.0911
19.7348
-1.27409
0.894681
9.34891
-11.2902
-38.4933
-28.0518
3.75856
-3.64669
16.3961
33.7323
-32.8867
-39.9197
-7.30748
48.8998
41.7978
18.7691
19.0641
-2.85716
-16.1617
35.9536
29.2332
-51.6157
-121.637
-71.3079
49.2205
68.9438
36.9044
-3.38326
-27.8206
-5.6646
-1.99351
8.74108
34.8469
-9.09954
-27.4733
-15.1998
-19.077
-4.72929
0.502754
-31.6461
13.2058
55.8102
79.9029
25.0113
-55.5579
-41.6136
-8.56061
-5.61696
-38.3536
-59.7863
0.0111529
62.8243
47.3093
11.2818
0.521254
-42.5073
-30.4834
-6.76803
11.9036
44.7476
47.0706
21.2055
-15.4397
-10.316
34.5939
32.655
-38.1894
-35.0826
5.07707
-0.431971
-19.6861
-5.9196
-6.08774
-3.23266
22.6954
30.322
17.6683
17.4309
30.1754
17.7991
-29.5081
-29.9955
35.973
29.0167
-46.7708
-72.6966
-2.05172
-71.5317
-81.6107
-7.55617
18.3823
-23.7046
-19.1885
6.52412
22.7306
11.9088
-0.719401
-4.67354
7.3235
43.899
49.3579
24.4346
0.290455
36.1548
56.3661
26.8627
-22.6965
16.41
30.2746
9.82136
-6.22823
8.56302
-10.2531
-55.9636
-52.6447
-6.7227
-3.87134
-26.5991
-34.5135
-45.6431
-1.50018
-0.00536411
-35.0987
-48.7139
-1.79328
65.4351
77.0114
76.3421
49.8165
-14.6983
-38.3077
-1.08002
39.9973
29.2613
-35.9723
-31.1029
-1.68892
-10.0389
-1.32591
10.8377
-2.51348
7.15689
19.2087
14.7473
-20.992
-63.7323
-35.3007
6.35614
-1.35222
8.36614
32.2754
15.709
-16.2802
-9.05659
-18.5474
-62.8795
-69.9215
1.98941
28.951
19.2385
12.5834
31.2058
48.96
13.2446
-16.7129
15.5259
5.42072
7.7231
11.5602
15.2698
30.7681
35.7216
20.767
10.4133
-2.90699
16.039
33.0062
-28.6814
-100.33
-77.8418
-3.29747
21.2266
21.3257
59.6361
31.483
-11.707
-49.9001
-72.196
-78.6572
-70.2314
-46.884
-15.4025
0.995385
43.9877
71.5446
45.8075
34.0776
50.1466
76.7899
33.8908
-34.1266
-53.1107
-18.2541
13.6549
4.74204
-4.71393
9.76232
19.5759
40.1656
26.2685
7.96956
-26.9239
-27.2546
-8.47453
4.71502
-14.4873
-19.6929
7.71535
-10.284
-35.2873
-34.5389
-25.3892
-58.3234
-80.748
9.62626
54.3351
59.7505
57.8316
36.8479
22.9826
-9.9365
-1.97607
18.0064
-15.0071
-15.0062
12.793
12.3355
-25.7887
-15.3816
23.526
16.72
-18.6073
-13.4264
-22.3056
-38.1632
11.2112
14.3179
-11.2179
-15.7315
4.8042
16.228
19.1261
19.2929
30.5365
17.9926
-35.8651
-18.8756
31.2903
20.9424
-31.6701
-20.7111
16.5298
49.1732
49.3247
-6.07548
-59.8674
-74.4608
-55.7248
-33.4603
-8.29976
14.0664
11.897
37.5653
45.6123
21.4949
49.1362
32.3632
-18.1056
-14.2578
6.8151
8.54766
-25.6617
-33.3089
-11.9294
7.10367
-21.5744
-15.5543
8.42301
76.2227
82.5694
28.0981
-6.61017
-94.5471
-121.879
-64.5375
-10.2085
24.9389
14.7566
1.09567
21.9358
42.2571
10.8563
-39.9919
-43.8965
-5.28335
14.4155
54.4905
43.9916
-7.1846
-17.6545
12.8557
22.1103
53.1686
63.6748
33.1453
6.25447
-21.5554
-26.1071
-48.2194
-60.7105
-51.6752
1.71937
13.5203
-9.7476
-35.2089
-17.7715
-7.78505
-11.4378
9.66806
49.9736
36.49
12.2572
-6.26141
-18.9277
-10.4089
-9.43828
-16.7131
7.05909
46.7031
61.3935
47.4178
-12.1088
-50.8055
-3.44854
32.9047
32.3863
19.2693
-6.53144
-59.5621
-73.0728
-41.7111
-27.8147
-26.1672
3.38878
30.0944
22.8231
-24.6975
-13.3341
48.0902
43.1209
-9.32439
-45.8887
6.72716
61.4919
44.3646
4.5711
-30.7111
-18.0905
-7.7
9.57985
29.4475
34.013
34.3122
-11.0161
-35.6741
-12.1341
23.2777
13.5099
-54.4408
-53.5993
-51.4733
-18.8194
5.34501
-14.3934
4.97235
12.4356
17.1629
31.9108
17.8924
9.14836
-20.0715
-26.6172
-23.1188
-16.187
0.123116
-8.48511
-15.0416
2.41877
34.8225
55.3217
70.2684
50.6309
43.8622
33.431
-19.9324
-47.0102
3.36437
13.0573
-5.13336
-30.9784
7.62317
-10.5584
-44.9688
-28.1194
-27.7946
-17.0661
0.0420465
11.3363
12.2384
-6.17884
-10.9475
19.8688
18.3945
5.9589
4.89483
-2.47075
-33.1527
-78.7797
-72.8579
-30.7019
-13.2588
44.7844
54.9277
55.0268
56.2007
12.7059
-18.6916
0.0984162
12.7616
-18.7215
-30.1035
3.89298
7.1876
-25.6953
-17.4955
30.7779
49.4158
45.9425
44.7215
6.3267
2.63511
-10.4407
-3.61568
-1.14368
-41.7577
-31.4809
8.98281
-16.3522
-51.9395
-12.5169
24.6821
21.9509
25.2749
12.6203
-8.35813
-22.0747
-6.25744
43.758
38.7293
17.4138
-25.8329
-52.2218
-35.9516
-36.0993
-37.0709
-5.55621
12.2199
-5.62381
-7.59875
11.0246
14.4007
13.0571
-21.5923
-14.7877
41.3899
39.2723
9.61705
9.96263
-39.165
-34.5355
14.8842
46.0268
58.5957
64.8622
70.0399
55.5507
-10.8587
-36.6832
-15.7426
-34.361
-51.0424
-71.5785
-45.5253
-23.2209
-17.6971
0.123934
-26.3847
-64.9636
-35.0948
27.3985
7.97268
-14.9427
19.4343
73.39
77.6785
1.52609
-17.2596
25.5223
25.5928
-7.88202
-5.20514
20.5846
16.6927
-9.3201
-58.1454
-57.3883
-19.0973
20.7365
88.3164
46.9765
-5.08168
10.8422
12.13
-25.1134
-50.3937
-17.5773
-11.6787
-27.2374
-2.81559
47.5305
41.3853
12.3602
4.08638
10.0796
29.1386
12.9555
0.269499
-22.4209
-37.1673
-42.1809
-27.0351
4.03354
-28.1167
-98.4388
-37.0887
41.4923
50.4122
53.6558
-7.05061
-63.1393
-2.69278
47.529
30.2992
0.869926
6.81913
4.89981
4.36836
34.9599
39.9769
41.1687
36.9011
-3.74643
-26.1069
-42.9034
-81.5676
-87.6296
-34.1466
-11.806
-4.09448
32.6767
34.8687
25.9241
13.2383
-0.382682
-25.957
-14.3587
38.5567
24.7805
-14.7301
20.2302
33.0511
14.5601
27.6836
77.0897
77.4665
17.5182
-17.8616
-0.368155
-10.1294
-52.1637
-71.1005
-94.1849
-60.7239
3.03461
29.8653
15.4892
5.47642
2.2188
-9.41471
-21.7311
-29.4542
-26.0202
-19.201
-14.4242
-24.9886
16.3945
43.9943
0.822787
19.4193
7.68808
29.5442
90.9368
58.9622
-8.35623
-17.3947
-24.5038
-66.4306
-19.0044
26.3058
-12.838
-12.5814
-23.5245
-30.3968
6.15368
57.8655
64.5395
18.251
16.9869
27.6441
27.3237
-21.38
-41.9853
-39.8488
-38.7434
-26.6723
-49.4581
28.0053
35.7174
32.9484
44.3187
38.6923
-2.74013
-35.2289
-30.0958
-40.0197
-67.1848
-41.5237
5.82103
18.9132
-3.14486
-29.1617
3.71337
45.1926
49.4786
28.3695
2.90757
14.4992
15.6323
9.59392
13.7551
3.08761
10.0933
-20.6585
-53.2412
-22.5397
26.496
29.7391
10.1981
-9.50212
-36.9754
-27.6028
12.4624
28.7095
11.5168
17.1123
31.6484
1.96054
-44.7334
-74.1518
-60.2171
2.62338
20.6306
4.2759
41.171
54.5711
2.90664
-25.1688
-38.8103
12.2124
69.5085
78.6291
28.3041
-22.7998
-14.771
-2.93107
-8.12441
-39.0181
-30.1284
-10.6178
-5.61752
-26.0727
-49.7298
-63.8003
-64.3078
-31.4711
30.8342
52.3757
79.364
66.0751
23.0484
-29.8759
-45.7899
11.6707
37.5656
14.4092
12.9996
40.7348
50.6686
23.9943
-15.8318
-42.2478
-30.8517
-7.85907
36.1034
46.8252
-17.937
-55.3305
-29.3105
-26.1748
-37.4639
7.1236
-5.36256
-59.8867
-99.2357
-17.3821
30.0632
4.14414
-1.96797
18.691
57.4587
111.156
91.3736
46.8376
-2.80727
-18.4781
-35.7508
-20.9371
9.52358
1.01841
-36.2019
-68.6936
35.1304
101.232
65.348
7.28938
-25.2991
-27.3492
-13.7204
5.41157
-50.6636
-101.5
-103.208
-49.2032
-6.75811
13.2086
35.7035
49.2755
37.761
17.3594
8.54535
-2.64918
-50.5721
-54.1676
35.313
56.8305
6.85153
-15.7577
6.75423
40.7231
41.5049
-10.3778
-14.7933
27.4767
40.7899
19.7484
-8.34578
-8.32792
-39.3503
-63.4821
-12.4419
21.0518
-4.29695
17.6988
28.0612
-20.8015
-12.8044
30.1899
17.6123
-18.2672
-7.68522
1.37927
38.2037
46.7639
11.0499
-30.8146
-82.0853
-57.3927
-6.89113
23.3913
25.0649
19.6312
6.38428
-31.6812
-64.0061
1.47935
52.0615
13.2315
4.56175
-12.8801
-39.0124
-33.8334
-37.182
-43.1616
28.2756
76.4156
65.465
-0.931778
27.3011
70.0123
53.7791
29.8464
-2.91685
2.05929
26.8202
-17.9394
-32.6772
-19.8146
-51.3474
-47.2642
-7.97777
-26.0569
-35.2939
-72.8564
-46.2984
34.7544
74.915
48.0148
-14.0378
-55.4466
-45.7346
-15.2372
-0.384349
-7.40911
-9.63168
25.9305
42.6556
40.6116
31.6376
40.4244
16.9108
32.8051
35.2764
40.5528
-17.5051
-73.992
-35.5459
-7.07688
-10.6826
2.19631
10.5142
23.3243
12.7992
-19.2595
-52.0679
-73.0842
-31.2565
10.8933
26.0769
41.7707
42.6328
24.2571
8.72548
20.462
-1.17979
-74.6924
-50.9911
51.0416
74.3123
29.1814
-7.49233
-52.5124
-34.5585
25.2582
74.6482
52.1072
-19.0225
-56.7163
-59.5745
-83.4887
-94.7304
-29.078
-5.82269
49.0925
104.164
84.8813
13.3843
-40.3103
-47.4153
-17.7582
31.3978
47.7508
35.1314
0.458432
-53.2496
-30.1209
-0.30433
7.61063
20.795
15.2732
19.5522
0.536515
7.99381
3.13531
-48.0138
-27.6202
10.7751
5.6008
-4.62295
1.25523
0.343731
7.21604
0.0154322
-68.3046
-48.3553
23.8328
46.9385
53.5231
20.5396
8.8423
10.3482
-3.21239
-1.453
33.2316
30.2113
23.1995
26.7707
-15.3663
-33.0003
-46.8848
-66.0412
-60.8636
12.9119
68.8329
54.0855
10.7099
-3.41336
-51.8606
-66.6561
-36.3552
27.2558
43.5276
44.8559
-4.20934
-15.9712
-20.8112
-47.5012
-45.8423
-34.7917
6.63833
30.5969
11.8512
-8.86861
-1.70564
22.8296
16.4505
-27.3134
-5.59184
84.5634
98.0303
72.6484
12.5704
-51.4758
-64.7994
-82.1975
-57.2941
6.1088
66.6279
78.4329
12.3447
-35.4437
-8.19678
-36.3143
-48.6256
-5.97737
4.5337
22.3517
51.0851
13.8574
-38.9294
-54.3446
18.5699
48.4272
4.90977
-32.5078
-12.6282
0.188236
-6.36298
13.8497
43.9725
49.0454
41.5875
30.7602
22.123
12.7597
-20.376
-48.4157
-44.0607
-27.1106
-5.13813
-26.9162
-86.0368
-45.6101
20.5762
59.6012
13.9644
7.78349
20.8558
-9.74594
-16
-3.8872
-21.0767
-44.2509
-51.5838
-45.7798
8.04206
34.9755
-35.3866
-50.5853
5.10381
53.9765
60.6464
51.4807
52.424
72.7197
78.7352
30.1269
10.7597
-1.95587
-23.3835
-36.0918
-35.4408
19.1683
51.341
0.75871
23.0352
19.4772
23.1351
-34.2459
-70.5457
-53.3298
-20.0008
-17.9465
-44.0888
-80.4786
-48.0902
13.7785
-10.7006
-20.7746
9.82364
5.99836
-0.874898
16.8688
44.9261
25.5518
-33.2912
-4.18365
21.3465
52.5543
63.1416
45.7676
20.2778
-8.38947
-34.8846
-13.9464
-27.1373
-5.70536
23.5777
-3.54433
-50.1588
-13.362
-5.66344
-35.7038
-24.1663
34.9669
28.777
-1.93273
28.1
46.6778
59.3273
54.4643
6.72863
-52.7887
-68.6917
-22.2189
0.965942
3.06798
30.1204
30.171
-32.9268
-52.2345
-7.3097
-17.0784
-33.9342
-21.5014
8.21852
32.0283
31.3934
29.7858
-15.8575
-20.0679
-7.68654
9.3133
24.1597
1.34665
-5.93808
-9.72314
-22.2817
-10.3173
15.6816
-20.0923
-23.539
13.7473
41.4344
48.4148
31.7918
-14.4613
-25.1946
-13.0524
-17.3678
-28.9632
-10.9681
30.5859
32.7257
-23.597
-40.8151
-28.9248
-38.1181
-34.2772
48.5301
98.36
68.452
34.1194
-21.695
-28.5698
-1.41944
10.732
-12.4746
-13.6164
26.1921
10.5177
-14.301
-40.294
-35.7438
16.8718
13.1384
-15.7477
-31.6793
-3.44245
18.9895
26.1941
20.9545
15.7341
19.6742
6.41168
-27.3534
-54.4901
-36.716
-47.7987
-72.0616
-54.7481
-12.7389
21.2582
44.4712
49.8244
102.209
91.228
64.1282
3.7891
-43.9356
-21.1865
7.98812
-1.32391
-16.9356
-38.1013
-18.9082
9.75223
-5.33796
-19.1861
-0.168945
17.4883
28.8891
43.3021
2.10803
-26.2335
-64.4507
-47.5624
-0.380549
32.1707
12.6851
-6.84761
14.0525
23.7051
8.73121
-7.09119
-24.0694
-19.3411
4.58683
29.9459
18.4903
1.03275
-32.4014
-38.198
7.72076
6.7631
-0.908498
-34.5754
-54.544
-10.5944
32.4683
11.6247
-38.2311
23.4342
67.9893
34.9839
36.2157
33.7453
6.6298
-14.869
-4.26121
-22.7343
-59.2384
-49.4651
18.6601
70.5859
23.815
-13.2797
-10.4859
-29.3902
-47.4315
-25.814
35.7638
48.7834
22.553
-0.588635
-23.4767
9.29117
24.7201
11.9018
-4.34583
5.08332
9.71249
-16.1947
-48.4496
-58.0241
-10.6101
-6.48356
-16.6525
50.9822
75.9776
50.797
-20.5041
-59.9186
-60.4459
-11.7015
10.5733
8.05116
-1.05704
-0.0566188
-6.22506
-4.44456
22.9907
43.5773
19.6086
18.7457
31.5175
35.1268
10.8502
-22.4468
-14.6432
-41.9289
-35.0581
-15.416
-0.643694
-12.896
-18.5887
4.27323
43.0376
19.4036
-15.8805
-10.8709
4.40258
5.09421
-22.7829
-57.9294
-40.5165
4.63313
32.7652
31.2506
35.9905
28.8149
-21.9711
-51.0538
-14.446
53.927
22.8234
-40.061
-42.2457
9.55327
63.7727
52.0173
37.4537
24.0504
12.0151
-17.2822
-52.0598
-39.7639
6.64319
14.7993
-30.914
-44.0726
-3.35663
-22.3375
3.58292
-0.997172
44.6204
48.6056
4.63729
-3.24403
-16.7898
-24.9683
-7.64433
10.115
32.6624
33.0201
-11.0923
-41.1544
-30.2674
-26.8394
-25.097
30.314
58.9606
56.0651
0.86179
-40.0153
-70.0986
-48.9041
-9.18013
-21.5316
-16.9349
33.1363
39.9291
12.315
6.73911
-8.30676
21.9926
42.0541
3.10834
-27.7875
19.0437
41.0556
24.4011
20.367
-2.14896
-1.3058
6.01021
-24.5526
-24.3924
36.3412
15.6922
-18.0341
-45.186
-33.2795
-39.945
-24.7749
4.99957
36.8714
-6.42547
-45.5442
-49.6241
-25.5807
3.70348
11.0114
18.727
42.4703
66.114
27.3017
16.0694
15.6091
11.5915
-22.4061
-16.9305
-49.0477
-43.3647
9.53341
7.23686
-31.6734
20.4226
70.1064
27.1726
-21.0575
-12.4648
10.6645
39.4642
7.04353
-2.14517
45.4934
60.5998
22.3178
-24.8883
-70.8659
-63.6583
-2.27392
-0.130001
0.757644
-4.18321
-20.8474
-49.8201
-37.4147
6.97194
26.5586
42.0703
39.6747
-1.75585
-31.465
-34.9251
-34.2752
-27.3628
-0.950699
23.7696
31.7764
15.6852
7.31603
7.83882
-24.9683
-28.6976
-13.3793
-4.96284
-6.47303
15.81
25.5214
4.05998
-8.21838
-6.14529
2.188
-11.9133
33.5363
34.7386
-13.4216
5.85374
54.9012
23.9281
-16.1253
35.0812
70.8434
65.6606
34.5324
5.63048
-11.1917
-82.6247
-100.483
-42.4703
-40.1547
-47.02
-18.3789
17.5613
15.9747
16.3191
5.56235
-13.575
-22.2705
0.398168
7.43972
1.14596
-1.37217
-10.156
14.2755
31.4329
14.6732
2.39286
-11.8589
-72.9242
-46.4142
12.6728
45.6005
33.4167
9.69723
-3.92361
3.97471
-32.2377
17.3875
64.5953
32.4308
15.2876
18.8703
-13.9455
-66.3845
-67.6491
-19.5081
51.32
62.1931
36.8552
-7.2229
1.87532
-5.66365
-36.844
-48.8649
-29.8326
3.21746
11.6835
-12.319
17.1584
29.6656
24.9604
21.9485
2.11236
-16.2773
-1.41525
-4.53095
9.98032
49.073
50.1998
42.6345
-14.7449
-53.4871
-26.4312
-12.639
-28.9125
-44.398
-0.111571
15.8558
-25.7257
-35.8708
-43.7282
-28.7769
3.95964
29.3508
31.7359
24.148
-8.53287
-63.0868
-44.9428
18.4409
59.7086
72.6038
8.93346
-31.5481
-31.714
1.78869
30.3079
23.2939
-10.3602
-17.8929
-36.7571
-17.5599
35.7477
40.4136
23.5307
22.5733
19.8545
22.486
10.3476
13.4996
-8.61743
-51.0275
-31.2528
9.31588
32.5017
47.2459
11.7534
-37.1366
-44.2709
-26.0981
-4.28103
21.0446
2.03091
2.81037
-15.9685
-20.3536
-3.29981
4.11768
1.34784
-7.22669
2.15043
37.5471
37.1032
21.4622
-32.9046
-34.3132
-26.2438
-7.28702
28.3686
23.6699
9.31737
-53.9069
-74.2408
-39.6312
7.69473
13.1519
-3.94384
-3.05036
2.50893
5.15712
-20.3823
-13.0457
8.5622
29.3439
42.3863
-12.8425
15.8098
24.1561
20.7497
25.9171
0.368594
3.32777
52.7936
43.1375
19.6348
-5.29053
0.578708
-2.06702
-16.8044
-45.9363
-33.5271
1.90102
21.7945
12.7304
24.7911
-3.9701
-25.4784
-25.1447
-29.7197
-2.79568
14.8227
-6.84562
-12.4675
-24.1078
-39.646
-43.404
-10.1349
13.98
-10.3872
20.335
35.892
-1.4999
21.2977
40.9497
-23.0292
-42.9548
-18.8586
11.9913
19.2126
2.78435
-21.8024
-23.9265
-1.7352
33.6777
49.3107
25.1184
-19.3434
-19.6355
12.1211
7.63185
20.8652
39.1777
4.70686
-29.3194
-14.159
30.4363
22.9859
6.43597
-20.9257
-35.6628
19.584
19.8095
-19.2496
-26.3698
-18.9262
9.30604
31.5461
17.0993
19.7693
13.8702
-25.2733
-50.4556
7.43199
14.0411
-11.6044
-4.80968
-5.39974
-1.87589
-4.82226
1.18258
-5.21785
-23.5258
-57.3874
-32.0579
6.89093
22.2371
-15.9525
-15.3676
9.54708
7.44894
-0.255357
-3.79131
-31.968
8.81184
48.0423
31.2098
-15.5439
-27.6588
14.5349
42.0069
33.1637
77.1624
132.498
35.6778
-53.0686
-21.9759
5.38353
-23.0449
-47.5611
-30.0865
-32.1054
-65.5285
-55.2075
-8.61527
-7.64079
-4.35148
46.8608
32.5402
-11.6878
-32.108
-31.0133
-8.02433
30.6479
55.0717
51.7153
-9.51013
-22.0782
-17.6034
15.2109
36.1221
33.5983
38.1673
2.73409
-45.7483
-35.0667
-43.366
-50.3806
-18.1381
49.7883
71.4892
32.6998
-3.40494
-50.1385
-70.4141
-49.1845
6.10237
19.3489
31.3943
-6.48966
-70.2231
-21.6481
54.7941
74.3774
46.9481
13.2444
26.3313
11.5498
-31.5942
-49.8647
-42.6857
-11.3242
-19.5937
-57.5996
-4.74791
49.0458
12.4136
-12.7726
2.43141
23.1999
54.3754
52.5498
30.0733
-0.0983125
-25.3516
-9.65093
-5.98168
-2.36867
23.8207
50.0924
27.7758
8.4952
-4.43972
-7.49754
-29.9349
-54.7168
-56.2569
-25.4838
-10.8597
-1.29654
14.9146
8.29357
-19.7001
-10.2045
-24.3984
-14.885
21.3877
21.627
24.6399
17.6969
-20.0513
-57.7851
-1.22629
46.8363
14.036
-11.0407
-8.0592
31.4478
28.8715
16.9719
-4.61282
-39.4138
-36.4249
-20.3966
-6.29907
4.89506
28.9511
23.1213
-2.3995
-1.83758
-5.947
14.0874
22.71
-6.36588
-17.8383
-2.02341
33.4254
1.90638
-15.9109
1.12924
20.6962
16.0449
36.2106
45.1676
30.1535
12.0353
-41.4732
-83.8948
-102.563
-53.6309
49.084
66.4766
7.481
-16.2768
-1.07398
12.9888
-3.27585
-24.8088
-16.4591
-0.0281399
-12.7
11.6671
23.9805
-2.0709
-54.4265
-68.2706
-32.1283
41.8762
79.8326
31.2278
3.75126
3.50082
2.61376
7.06551
27.7969
39.0531
10.3095
-33.5611
-32.2474
-48.0092
-22.326
-0.658247
1.50611
19.1407
62.9682
71.1708
61.8686
53.9802
31.4764
-45.4178
-84.8623
-48.9617
-53.7955
-38.5309
0.867208
-42.4583
-60.2161
-16.0369
43.9231
68.6721
24.6422
9.24053
-0.0689402
-18.602
-6.85567
1.52177
-13.2719
-29.3653
-8.3098
33.8008
-1.92232
-15.335
31.9954
30.0339
0.866392
6.02965
10.8253
22.3219
15.3208
14.2487
19.4839
-22.2116
-39.3293
-11.7846
35.6538
25.2749
-22.3688
-8.43138
-38.3994
-80.7124
-4.67894
33.5904
4.87784
-6.23756
21.2492
-3.3528
-9.62062
7.4173
-10.1115
-14.3472
-3.60687
19.7473
42.5376
25.6346
-29.0712
-41.5879
-9.36752
-21.9254
-11.8675
38.8643
-1.8695
5.22405
63.2779
28.6715
-17.5223
8.33039
48.5896
77.4893
40.7916
-54.8239
-55.1484
-29.1918
-74.5212
-56.1434
3.12189
51.5617
35.4484
24.403
-1.56955
-74.2049
-50.309
-19.5459
-14.5261
-12.1035
-5.68825
38.1793
37.8502
-17.4359
-27.2765
14.4361
40.43
29.5424
31.294
24.7773
10.5064
-8.13066
-14.58
-15.6734
-5.67567
17.6329
-8.95179
-38.4421
-52.9887
-0.719279
69.0893
56.6553
4.47563
-42.3531
-38.257
19.3719
17.4342
23.1426
7.26074
-16.3585
16.8579
13.8271
1.39376
-24.7229
-20.5916
-0.526447
22.3236
23.3317
11.9488
-29.9568
-60.7623
-40.1338
-1.74693
-0.452414
-1.05773
9.38461
-11.8818
-56.0387
-35.4167
22.491
6.79479
1.87705
25.7308
47.5049
54.7546
34.3187
-6.79131
-5.153
19.9741
21.4268
8.45444
24.126
-17.4461
-41.358
-24.77
-9.02229
23.1747
33.8765
-1.7285
-26.761
-33.1916
-44.5291
-14.8011
-10.0711
6.38845
53.2507
49.2284
14.4351
1.19766
-14.851
-41.4586
-48.6078
-35.4188
-11.656
-5.06702
-18.3888
-10.4458
47.2107
84.2021
51.3898
29.2476
10.4427
-56.4847
-61.0155
-33.8361
-33.4832
6.42353
13.8277
-13.9886
29.7029
76.41
22.0051
13.7105
54.4488
41.5153
-6.74523
-38.776
-47.1269
-9.4884
2.54854
-5.73743
7.24401
26.9206
-1.06553
-27.2391
-37.3258
-37.4324
-49.3685
-23.9493
18.4183
12.9588
4.48868
7.59556
-3.85849
-2.19346
5.69344
-6.46253
-32.738
-19.9242
-5.34429
-9.16809
-15.0549
2.74908
45.869
64.4556
32.4146
-0.528337
27.5995
6.24655
-12.4794
-40.4104
-61.7464
20.3011
53.2358
38.7371
24.2749
-0.0669669
-22.9366
26.1444
51.2188
28.8714
-6.80413
-49.1159
-144.225
-83.6844
90.4061
117.812
40.7763
-5.81063
-16.1358
-10.5792
1.13747
-51.583
-69.2199
-37.3474
7.8315
21.4307
4.01986
-23.1456
-10.7985
2.71642
61.8597
80.2248
89.9952
6.94059
-71.5906
-55.9495
-19.8263
-20.3776
-22.3151
-51.7995
-68.7436
-36.4761
20.3628
43.3715
16.0221
-21.1346
31.6248
49.3167
21.7917
32.6768
17.5989
17.0565
46.4677
28.2572
-42.8151
-48.7995
-13.157
-10.7251
-34.5527
10.8007
51.1064
45.9003
9.50305
-53.63
-65.6874
5.69151
26.0461
-15.9931
-30.6682
4.26258
33.2656
13.7925
3.97277
-6.17636
3.72843
10.8146
-31.8455
-44.2687
-37.0198
-21.6798
61.1405
64.8612
-26.4273
-32.139
14.8748
36.7925
40.3268
3.32308
-49.3807
-31.2717
16.7786
36.7124
44.526
17.282
-18.691
-13.1986
28.5947
36.9512
4.20266
1.54435
-21.8058
-36.9474
-4.62789
7.44208
14.1226
-18.4721
-54.6499
-43.9971
-26.16
-42.7951
-26.2651
-2.30355
18.6455
30.4642
42.606
23.6916
-8.33886
1.97553
-10.7637
-4.47726
16.5839
-30.6666
-36.8792
27.4011
52.7554
56.7109
44.8875
16.3829
-1.20525
-29.2275
-68.7561
-63.1223
-50.914
-10.9771
-12.0729
-11.6723
13.5518
45.5225
53.5501
19.451
-9.64255
26.1152
51.9883
16.1727
-11.262
-10.9105
-24.6547
2.2348
41.3798
49.1131
27.6457
26.1467
22.2167
-20.9163
-66.9566
-31.5985
-6.9481
-1.60961
-12.78
-17.0502
4.845
6.77483
-29.2943
-29.4246
-27.4408
-45.1749
-40.2539
-24.2718
-13.101
-8.91736
22.3356
43.4195
8.79126
-69.7
-40.3761
18.5089
21.5081
19.7032
75.9639
84.358
53.9939
25.4265
-2.81186
-25.7866
-14.2448
-7.29219
-14.4009
-4.20172
34.0305
27.0013
-56.4726
-27.6175
46.6539
115.029
104.767
-14.4808
-101.646
-82.8899
-63.5805
-63.42
-51.8382
-24.7713
25.0162
30.3227
-5.93618
-5.45178
23.6363
-2.84691
17.8361
54.6219
28.3721
-22.9053
12.1374
46.8191
3.5786
20.4753
41.8353
0.745544
2.18918
-21.297
-99.7826
-98.9789
-22.6045
-11.5216
-17.53
17.8975
38.5987
37.3139
-9.79795
-29.6417
24.0623
9.74358
-72.6467
-62.2752
49.7754
46.6621
22.2701
52.8675
50.0104
24.665
24.9081
6.03185
-30.176
24.9447
62.8564
16.1447
-36.0186
16.1401
-19.1957
-116.175
-123.102
-4.97956
80.4494
66.2574
7.32003
-27.1541
-29.0808
-48.9666
-78.3046
-30.5906
31.4575
87.5183
121.504
91.9471
5.65263
-51.0558
-75.9737
-88.1816
-39.0311
-8.92033
31.2051
29.5481
22.821
48.0616
9.35598
-14.0705
-15.1355
-22.3508
-14.2548
-2.88323
6.71982
11.2302
-8.41619
-8.54636
29.6997
59.0002
69.3689
20.1534
-28.3204
-47.7855
-76.5725
-70.7947
-65.4466
-58.501
-30.7741
35.5134
124.724
102.645
29.0979
3.22039
1.68462
-24.3986
-38.8875
-39.5376
-24.074
28.2823
46.9959
37.6651
11.5626
13.3557
11.4165
-22.4074
-22.1426
3.38054
-11.4566
13.9265
35.7542
42.8666
36.8452
-19.5628
-55.2982
-125.233
-145.597
-83.93
-59.711
-83.33
-15.6289
46.1206
85.1801
115.976
128.745
79.6132
21.9775
38.052
39.8308
3.05187
-41.6372
-51.7438
15.2424
64.6824
-4.89776
-35.0754
19.4239
37.6724
7.399
-33.8182
-53.3984
16.4739
68.6373
49.5636
-2.37649
-43.6406
-26.8114
-47.3428
-6.29301
-18.2747
-93.2749
-79.8925
-60.8909
-64.9032
8.04174
61.5496
41.2131
17.6425
43.1185
65.8725
63.6358
5.20477
-60.0705
-99.9842
-59.2524
2.94509
-2.77685
-49.1364
-25.2372
36.1123
82.4466
77.7537
42.0957
38.3751
33.8196
45.8421
35.0827
11.9339
15.2766
9.70464
-28.5655
-50.9608
-16.9802
3.47489
-23.1917
-13.3186
0.717422
5.14561
-35.5524
-22.6852
35.7759
34.0472
0.179572
-11.3921
-33.4748
-78.0688
-90.9522
-42.7862
-41.476
-57.1222
11.3797
41.0417
26.4617
68.1344
80.5136
36.9306
18.9761
10.1085
30.6197
-2.67798
-72.9347
-75.4183
-0.957455
33.5813
22.007
63.5676
66.3746
7.56387
23.9708
88.3343
14.0787
-55.7727
-56.7193
-30.1318
-27.524
-26.1838
-14.9863
9.50317
33.0231
-8.7287
-30.0508
-10.9095
-22.2789
-18.7931
2.67654
23.316
29.662
-10.0661
-44.4196
-22.8774
-6.90265
15.0422
23.1522
-3.11093
-5.66975
7.77646
-9.00486
-10.4795
2.51944
13.7267
-11.3269
-9.85113
31.3325
60.196
-2.2471
-74.9888
3.23444
9.71046
-60.5965
-53.8004
12.5664
49.0827
10.8643
13.4218
32.2992
29.6125
26.3936
72.5829
118.724
75.1606
5.70221
-57.2292
-136.816
-177.37
-125.928
-13.7919
5.37289
56.9713
102.041
64.0614
15.1309
7.57851
14.9116
-18.2361
-32.8593
10.0901
33.8708
-27.0903
-63.6899
-24.9229
18.5358
25.5169
50.0091
64.6034
64.5814
58.2961
-29.058
-88.8404
-45.0725
-35.2178
-34.4528
-45.2395
-44.706
20.8397
119.646
64.4315
-0.633667
-25.764
-111.508
-173.331
-151.808
-80.4736
29.3606
108.097
118.869
48.6525
60.0887
64.381
46.0445
40.3857
18.7158
-14.8566
31.5479
53.6942
8.00787
-13.1749
-12.6025
-19.599
0.709972
32.9212
42.0843
16.9058
-11.8634
-42.8778
-94.4127
-73.247
-36.3027
-4.79343
-9.05536
-25.3527
-10.0488
-8.01926
-7.50443
11.6613
-3.71275
-18.9892
-13.4303
22.9611
32.5704
23.5319
22.0868
-1.28762
-46.7114
-33.3309
25.2078
47.1204
22.5248
1.01789
-12.9696
-69.0642
-50.273
100.08
88.6388
18.4766
-9.77631
-12.3492
-18.7875
-19.0789
20.804
36.5892
30.9378
46.1717
11.8907
-19.8967
41.0092
19.79
-1.99393
2.41233
-1.47557
14.5271
5.76771
-78.684
-73.0186
-74.9433
-76.3385
-56.2705
-42.2688
-46.6402
-6.17108
51.1499
34.1589
-18.3349
-10.0896
24.3941
-7.52144
-15.3365
34.4387
56.4021
40.9608
23.3717
28.1812
16.3986
4.00261
16.4492
37.988
44.3064
28.2689
27.4485
11.2078
5.12458
15.8271
19.6348
14.23
-24.9759
-44.1606
-44.4969
-78.5231
-90.635
-61.3803
-2.66345
12.4337
0.741467
-39.4222
-31.1421
-38.9382
-5.92219
69.472
99.2869
42.267
-11.3194
-18.3082
6.33803
-2.58534
14.0819
40.1022
40.1801
7.13224
-25.5604
-27.2027
0.291913
8.703
4.60618
32.3659
29.4971
2.86428
-50.2184
-74.742
-35.669
-34.7613
-40.2197
21.0004
63.0571
83.5089
49.258
-4.97344
-87.0063
-76.3778
-35.9058
-24.2851
81.9065
141.708
78.3688
47.3476
11.578
-28.5655
-43.6703
-41.7183
-31.5491
-22.8957
-51.5671
-111.024
-125.062
-12.2034
19.9068
18.2433
67.6339
69.1118
77.2852
61.8795
-20.9667
-82.0821
-17.2714
23.8069
32.453
42.3844
37.5114
32.5562
10.4163
15.6304
37.7029
74.8985
39.0859
-59.8599
-88.1518
-63.7611
-25.0055
-22.2578
-28.0201
-7.88174
-23.1441
-33.0818
-36.9328
-34.5214
-22.0444
8.01953
34.8423
22.5075
-14.414
-16.2174
-6.56071
6.16826
11.1943
-9.63036
15.8377
76.1687
61.4747
39.7161
24.0906
14.1237
-29.9562
-39.0762
-28.9489
-31.7182
-11.6218
3.77022
-20.8505
0.649727
24.5944
25.6304
21.7677
21.2437
19.528
17.7601
10.1755
-40.092
-41.0374
-7.13943
18.4784
43.3232
46.1087
20.5448
-23.3263
-13.6583
15.5687
19.85
3.73603
-43.8257
-102.497
-73.4705
-32.1779
-42.9678
-8.17307
-0.569414
-4.91648
-9.45047
14.1144
72.8359
56.0764
9.31903
-1.43524
-6.25677
-15.7066
20.6771
36.1767
51.2056
53.1225
21.2429
7.00828
-19.1815
-26.2845
-17.6282
-2.20139
24.0655
40.1222
32.452
27.8718
-6.53496
-53.7946
-66.3048
-7.11177
-32.0615
-91.6435
-102.03
-83.8347
-46.1566
-3.08165
36.1564
71.858
78.8349
80.3959
68.6792
23.0288
-2.52966
-33.4873
-25.8296
-8.24187
-12.8223
18.0278
9.179
-39.4651
-1.82762
57.4456
24.0919
-5.36154
12.9275
50.2842
68.9448
78.2195
75.8007
13.5401
-62.0824
-84.3821
-103.522
-93.3223
-68.4356
-78.8642
-86.9736
-62.0248
-33.949
-27.1401
11.2095
67.437
81.0627
76.3963
32.4311
29.3941
40.5802
30.0608
-10.7633
-46.1954
-9.26682
71.1735
99.8589
60.4387
31.487
8.54765
-9.92686
10.7938
34.0445
33.4151
18.1163
9.18508
-34.3878
-70.4342
-74.3049
-53.5972
-55.0437
-67.5015
-50.0755
-3.65908
1.22802
-18.5562
-27.2036
-17.8163
-9.8551
12.3206
9.90146
-4.64791
-3.37104
13.38
5.08669
-7.05625
28.939
50.4874
61.5231
20.3366
-9.08343
-22.1854
-44.6015
-35.483
-0.69843
18.8571
20.4287
42.4666
35.6331
33.4113
21.8919
4.72222
-23.3387
15.9202
72.0455
73.9894
35.7704
-31.2648
-76.3924
-74.1868
-60.4805
-33.8206
-11.3868
-11.0413
6.5068
-3.99075
2.64813
3.1384
23.161
37.6005
40.5634
12.4897
2.92281
-17.4568
-33.8562
-56.1135
-43.6884
30.5741
67.6169
-2.17218
-18.7008
20.1769
29.6369
0.684526
-19.4099
-31.395
-65.5432
-67.6693
-46.9241
-5.27434
7.81418
31.2957
42.1006
39.4414
-3.27441
-23.3481
9.08194
16.4636
18.8682
48.7091
47.2247
0.937136
4.4444
52.2416
71.345
44.9886
9.95513
2.15168
-20.655
-48.7206
-52.1322
-45.9434
-30.202
-46.4482
-45.0781
-17.0208
-17.7062
-21.8066
-15.46
1.6993
11.9595
1.4371
9.6199
27.2668
10.7548
1.06489
7.16946
-1.91508
-11.5045
-6.81238
6.37727
47.2272
70.085
62.6165
56.9064
64.4145
43.6848
-34.2134
-136.947
-153.221
-117.851
-68.109
-21.9063
9.53244
22.6924
9.75925
14.6155
22.8705
36.892
31.6506
20.2926
7.95799
13.7262
36.8538
52.6909
26.3703
19.1453
33.0857
51.7701
49.0962
22.0885
-1.75033
-11.4751
-26.7289
-28.2843
-14.7954
24.9963
105.551
108.361
23.8487
-51.8847
-117.631
-161.216
-154.293
-124.407
-94.7747
-88.3424
-60.1494
12.4619
80.8006
104.805
78.3348
14.5504
-27.5919
-36.7967
-1.83167
29.4817
4.88656
2.68232
61.345
89.5209
80.2812
83.6351
54.4789
19.7147
22.3397
51.0223
72.6343
59.6387
4.12318
-60.9635
-60.3219
-13.2611
10.1909
-19.7728
-49.9998
-97.0449
-155.743
-164.241
-107.237
-81.0752
-70.56
-80.9248
-39.1165
40.32
58.1859
72.1409
84.7722
47.974
39.204
77.2839
95.5372
90.6197
64.2105
70.3621
75.166
65.8365
54.3684
35.8756
6.03438
6.96769
-1.35397
-4.95305
-25.8085
-54.4362
-56.853
-69.9874
-84.1453
-60.8286
-43.8469
-29.4304
-24.7916
-42.2871
-42.0608
-42.7409
-31.341
-7.39426
2.32433
-7.75208
-25.2925
-14.5292
17.9186
31.7362
19.9167
12.9654
29.2977
1.22105
-4.75946
20.8206
37.1664
32.2472
19.8264
3.10297
9.08733
32.2316
41.4391
24.9572
15.8737
6.43027
0.527767
14.4509
35.6264
44.4237
13.7766
-8.76866
-18.8251
-5.20689
-23.2757
-63.6542
-43.2629
-0.552346
-15.0922
-28.382
-16.9399
-4.31978
-7.18756
3.5397
11.1864
16.2041
36.9606
-24.8351
-64.0427
-33.7931
-22.5659
1.62857
53.3585
56.9085
45.6558
43.636
24.6368
14.8486
9.15375
-14.0286
-52.2601
-90.3893
-97.583
-72.3009
-66.3203
-51.6858
-63.4473
-28.471
24.4549
45.2301
96.1955
99.7998
39.9857
39.4613
57.8096
57.7691
36.8834
12.1177
36.8062
54.1486
43.7617
-7.74002
-23.8397
-12.8342
9.784
10.7442
24.7388
36.3683
20.7252
0.599833
-25.535
-45.0446
-59.5555
-58.9001
-29.9048
-18.0343
-52.5452
-100.701
-111.657
-78.2548
-37.1071
-2.76642
4.64741
3.59087
14.246
30.4504
45.1611
56.0941
43.0875
35.9341
19.8614
-36.3082
-38.5317
7.9451
20.2835
56.3687
72.1293
53.2245
10.3794
-9.88244
40.0816
83.4736
48.7955
-8.43026
-30.5941
-21.3712
-7.30052
7.40247
-4.71012
-36.4467
-54.5774
-45.0177
-72.002
-145.515
-165.763
-136.344
-46.6321
39.8529
75.4467
90.0894
93.4599
124.459
148.975
119.949
99.3657
97.0351
43.2132
7.73176
3.53501
-53.2961
-111.182
-109.911
-106.942
-67.1609
-24.4733
-16.6389
-15.2217
-4.96359
0.809021
1.62596
-7.41057
2.14827
39.0059
15.5253
-32.0472
-82.5482
-88.6156
-49.1844
-5.87857
65.234
112.448
108.954
142.085
135.112
123.516
125.503
58.3928
-3.95872
-28.531
-77.957
-160.1
-185.178
-254.215
-236.777
-129.851
-3.96819
90.1082
88.0073
44.3558
18.0676
14.0042
47.8853
45.8783
-31.5433
-84.5023
-35.3589
53.0107
63.7341
16.0364
4.31459
-2.17165
8.47351
78.0748
88.1601
73.6685
104.362
82.3418
65.848
81.9545
2.00775
-84.8237
-57.6432
52.9601
18.8757
-70.5643
-280.536
-321.832
-148.401
44.1579
165.317
199.109
197.194
222.232
160.485
-40.7213
-120.41
-37.555
-75.2656
-272.829
-178.622
64.5124
61.2307
-78.5863
-187.092
-153.575
-14.7099
48.8182
76.849
104.432
126.912
173.898
88.4631
19.1455
26.7945
74.3175
11.676
59.7909
70.2353
15.0065
-42.4276
-40.4438
46.7722
69.5216
76.4409
-40.3473
-68.0717
-113.654
-181.437
-297.544
-222.258
-0.379481
98.7519
2.37182
-105.263
-8.48215
243.831
160.813
-18.1776
1.00554
-29.3975
-90.5806
-120.201
-61.3212
83.6382
24.9188
64.4378
235.019
155.419
59.0864
13.4503
-78.1884
-163.096
-138.926
-58.8248
31.1501
10.0573
-18.3245
12.5248
83.3048
146.197
181.523
140.011
50.2822
-6.94888
210.517
380.306
265.605
9.08385
-263.693
-516.406
-546.816
-569.207
-530.374
-203.755
-9.99637
-140.54
-155.185
126.714
375.912
345.427
179.98
148.071
127.189
103.709
36.2186
-119.114
-103.903
89.5519
380.838
573.857
464.119
443.628
388.099
51.5584
-206.681
-266.984
-229.791
-289.108
-285.826
-128.495
-136.007
-315.818
-356.801
-135.21
8.27677
-107.657
-177.434
-62.7293
65.4572
-31.7899
-63.4796
12.5445
46.3755
159.292
299.548
183.277
-144.31
-309
-259.042
-261.061
-156.963
65.3698
212.16
143.281
94.5964
195.239
196.848
145.882
58.1634
-9.53733
22.2596
72.581
107.933
57.6708
-161.03
-36.7728
212.022
297.759
169.052
47.748
12.6042
10.454
92.7258
224.724
211.725
54.0334
-34.604
-120.404
-257.511
-386.103
-321.255
-182.586
-128.832
-107.204
-42.267
103.978
219.893
241.836
78.435
-70.8879
-218.298
-325.847
-355.89
-410.216
-289.979
-34.5864
59.7174
285.801
426.056
309.556
69.6872
-31.8786
-57.3902
-49.6231
87.2668
-10.0034
-268.948
-367.719
-209.764
33.9089
223.325
296.529
221.383
164.266
90.7213
8.75313
23.5877
0.712354
28.5834
152.004
192.934
163.307
204.589
148.954
-45.9896
-185.102
-97.6099
-1.47523
-32.501
-64.6847
6.59968
115.735
123.489
80.5539
7.84894
-52.9641
-157.638
-284.103
-366.979
-317.32
-277.908
-300.012
-164.614
-31.4229
21.7616
190.161
317.566
319.372
227.013
104.713
45.3488
36.1906
-29.8451
-111.367
-34.7157
82.316
107.188
73.1327
135.969
177.265
26.9147
7.67381
8.78892
3.348
-42.4367
-170.141
-217.547
-147.369
28.7037
80.165
-38.5893
-154.383
-106.246
-45.8059
-9.13238
-51.6331
14.699
86.4516
-17.13
-145.731
-54.6245
-25.5436
-29.3309
6.97656
90.7683
128.59
123.613
115.722
55.7679
58.3801
74.2514
57.3019
-38.0926
-101.915
-192.92
-222.817
-183.667
-92.7143
100.705
250.881
325.067
296.541
204.674
147.192
-4.43187
-65.8662
-145.644
-282.318
-218.465
-82.2469
-31.5043
17.3347
31.5138
61.472
141.137
119.503
-25.605
-44.5623
-55.6514
30.0801
110.777
26.8689
-85.8458
-125.228
-96.1089
-76.4021
-18.7565
-19.3386
-85.4008
-155.83
-187.375
-126.42
-3.11156
164.902
178.041
189.696
217.01
104.42
65.6916
-90.1285
-300.285
-237.037
-132.394
-60.9416
122.64
138.47
122.392
143.26
158.632
192.601
214.751
41.2752
-40.6891
-68.7308
-73.5017
-45.8111
-16.8899
-50.2563
-124.377
-96.0197
16.5857
134.664
112.216
28.3642
-88.2344
-102.86
-62.696
-69.0076
-80.0843
-91.3794
-141.313
-90.9637
80.9668
130.673
137.34
45.3215
-37.555
-71.24
-52.2925
3.42641
-32.459
-102.192
-127.836
-25.7614
30.5001
90.2633
96.6824
218.364
209.911
173.193
164.125
61.4711
-38.2349
-313.259
-480.385
-346.55
-77.3733
127.084
157.311
241.637
287.922
297.901
260.081
59.0117
-117.306
-266.243
-279.585
-221.755
-183.725
-91.9791
53.4677
127.265
111.888
179.267
200.512
145.498
-41.4323
-216.102
-214.912
-198.674
-158.719
-144.839
-80.8298
39.6119
86.4029
131.436
126.795
135.089
161.126
116.922
55.5358
97.042
78.6305
62.2672
71.1983
57.1508
6.6487
-50.6797
-117.869
-95.3663
-1.88571
-69.7243
-151.396
-248.279
-183.172
-66.669
-122.57
-175.855
-90.0594
3.25001
87.097
91.3441
-17.5415
-4.94765
118.38
138.13
139.111
122.588
163.19
162.933
117.838
72.4393
42.0189
4.17582
27.9746
97.3163
85.3701
7.55449
-2.77888
-44.6697
-155.584
-232.726
-213.153
-128.869
-119.288
-94.5872
-15.6478
75.0563
120.008
82.5951
36.9463
-23.0278
-98.3491
-49.3639
-105.493
-149.528
-124.98
-69.6999
60.5805
87.1641
99.7926
150.781
200.223
208.9
204.501
119.706
-2.19431
-31.9799
-83.4405
-125.244
-139.198
-126.194
-90.1997
-77.1547
28.1825
64.0909
77.9596
109.107
98.2522
73.9007
14.4151
-87.0222
-88.651
-62.3135
-96.9454
-112.909
-12.4949
-2.38168
-50.4766
-104.369
-72.0091
-59.3621
-19.9047
112.051
150.505
71.036
19.6859
-1.55364
-38.7932
-16.1377
46.0512
120.58
119.364
69.3016
37.4426
-10.0261
-30.6051
61.2019
125.911
121.573
45.8199
5.79649
0.679851
-58.7584
-134.135
-142.736
-50.7401
-17.336
-74.0303
-140.107
-138.601
-49.4309
8.06206
-19.5196
-40.4983
26.3265
81.2036
27.014
-38.5107
-15.5964
7.8835
76.8322
138.516
162.619
135.139
58.3271
-83.8301
-149.806
-159.779
-53.878
19.2634
-9.237
-57.7732
-81.7476
-101.745
-116.807
-100.296
-25.1275
98.7723
174.998
129.475
105.322
115.8
106.181
37.2448
43.0085
104.228
60.4114
32.0006
12.7134
-64.9034
-82.2965
85.5619
139.118
-41.6529
-168.639
-195.165
-219.43
-194.025
-141.212
-6.88887
119.602
137.435
155.081
163.751
134.33
43.4813
-71.6011
-121.663
-154.582
-122.195
-118.339
-196.268
-73.8072
70.7452
143.867
117.386
94.8909
104.408
131.411
102.814
48.7237
-65.9166
-180.507
-52.9908
73.0045
144.511
293.889
390.786
224.286
-4.1824
-275.565
-463.646
-495.296
-418.541
-228.526
-43.9771
55.0221
83.4568
119.178
166.699
172.323
166.471
168.435
15.0241
-200.382
-175.696
-119.272
-153.42
-116.803
23.9179
224.451
391.87
395.514
344.577
193.009
36.735
-14.0371
-39.9564
-151.565
-256.935
-315.509
-252.032
-96.3255
46.4006
140.056
135.995
28.4003
-106.564
-119.873
-118.968
-106.04
-42.5463
20.054
102.545
65.0333
-25.9452
-33.8436
-58.9931
-93.4103
-54.9763
15.5101
40.1578
-2.43223
45.3797
83.2968
63.6069
30.1365
47.4516
41.7245
72.1794
124.248
126.805
45.3435
31.7386
150.205
86.4718
-44.953
-86.6088
-67.9391
-66.3489
-111.858
-207.157
-163.149
-102.947
-35.6887
-14.0981
5.36237
-35.6387
-31.3939
73.3361
157.936
123.872
140.122
70.1622
-91.751
-62.4077
-45.0486
-92.7194
-90.1099
-192.888
-68.686
203.612
201.626
156.802
167.438
137.774
14.1153
-78.9554
-50.7098
-120.369
-155.315
-118.064
-88.0184
5.44559
96.8683
122.447
82.7877
-13.2123
-81.0362
-6.89392
20.7815
-42.389
-63.8034
-75.9474
-144.131
-129.763
-6.24687
128.515
201.791
196.124
137.477
88.4847
-21.226
-129.331
-93.1675
-89.9031
-98.2774
-42.8928
58.3329
88.552
-7.02041
-85.5637
-106.268
-96.8193
-15.568
94.7426
148.223
50.8304
-14.7155
-49.8559
-152.635
-155.469
-83.5818
-23.4826
-6.34309
50.874
125.358
279.307
262.935
186.757
139.226
114.03
11.0149
-156.5
-173.431
-69.9586
-18.2159
50.4169
67.3701
63.5355
78.7291
-27.563
-129.797
-92.3877
-119.778
-108.67
-167.373
-319.728
-304.17
-170.144
-53.6781
37.3438
194.036
290.405
229.995
159.632
112.871
39.8592
30.3812
-31.9423
-89.3488
-112.169
-45.0744
-14.1081
28.6237
55.9743
110.164
183.639
184.593
120.858
54.3958
-19.4047
-61.7726
-50.9905
-50.2976
-111.737
-76.1643
-58.6374
-143.676
-103.665
-40.8849
-75.92
-11.6058
74.9567
34.8457
22.061
27.3181
29.361
76.2182
146.82
78.9328
-143.728
-362.022
-276.616
-89.9196
-44.8735
-113.352
-35.4317
47.6879
47.5475
160.216
299.182
271.74
146.28
80.7122
26.6714
-45.9205
-24.7694
-7.69336
-49.89
-42.8196
122.575
264.286
192.842
48.2288
11.7854
-15.3551
-65.9407
-101.111
-85.0492
-140.041
-135.216
-136.534
-144.176
-58.9865
-10.7892
33.4715
15.7278
-74.1146
-48.1402
-13.1759
-78.6951
-61.7528
-27.0339
4.68534
-29.4287
-60.6454
-38.2076
34.6633
110.417
156.563
136.587
109.61
126.181
97.0296
44.1297
20.7186
-48.809
-41.5686
-62.6296
-113.026
-69.5462
-9.02091
9.32373
-62.8209
-109.275
-106.932
-54.0722
12.5934
85.988
163.611
175.101
81.7114
-18.3169
-26.5521
0.0875311
86.5495
180.435
147.624
52.2917
-27.157
-25.8597
-22.463
-151.065
-203.419
-119.469
-11.2919
4.14466
-70.9927
-122.79
-104.975
-107.919
-104.686
-54.8469
-2.51767
8.5091
36.4869
7.92325
41.7231
90.401
165.027
170.278
56.7671
-33.5204
-2.73872
58.6162
97.6271
62.9873
45.3983
37.351
3.08414
-29.5081
12.967
67.3517
32.4395
-12.058
-67.6009
-71.1639
-79.4962
-59.7931
-58.2104
1.76935
59.1896
63.3555
-4.7396
-90.6025
-125.909
-120.259
-51.6123
28.9953
20.9117
-8.24825
10.1342
5.15328
-12.5652
38.4443
64.8307
51.4665
-10.7435
-73.6598
-86.6996
-69.7922
-59.4068
16.0172
59.0448
123.183
140.141
148.017
52.6586
-105.861
-169.886
-117.389
-59.7687
-31.9356
44.1136
78.7273
74.1094
61.1426
130.33
212.854
146.229
42.7139
29.9282
-64.1793
-114.029
-169.751
-124.285
-44.4505
-32.182
-12.4049
54.4376
95.6598
107.364
73.1696
-50.5864
-142.669
-152.14
-93.4277
-64.0986
-44.1939
16.7638
26.8933
-28.5784
-12.8832
51.0484
101.923
118.076
47.1185
-25.5235
-81.4539
-142.451
-160.109
-115.328
-39.6162
50.8629
183.656
230.47
185.118
62.644
-32.1745
-62.4121
-149.292
-156.178
-13.3746
93.7599
98.6939
34.5316
8.1493
-8.60548
36.0314
98.801
109.214
66.7687
7.41661
11.2833
-27.3866
-120.487
-141.942
-83.9341
-56.0539
-29.1622
42.9331
93.6808
85.3928
36.7292
-41.0404
-79.9981
-65.6076
3.44143
25.2722
-20.2366
-54.5191
-47.7161
-37.2542
-34.465
-67.6116
-92.5337
-70.3068
1.45783
81.4768
142.703
160.42
101.128
0.865785
-126.032
-110.602
-49.3766
-53.2193
-21.1926
73.0293
87.2095
68.6711
64.1575
68.8028
-7.78009
-72.3031
-70.2271
28.9066
42.5819
24.3184
6.1933
26.0053
26.3688
54.3375
116.372
143.054
77.0624
33.4637
1.25131
-50.2315
-72.0213
-91.9537
-112.152
-84.0195
4.40736
15.403
-1.62524
-46.1386
-55.2755
-53.7938
-67.8021
-54.7945
-13.5546
-16.3641
18.7822
-14.5106
-39.6503
-32.0525
-12.5537
22.0282
53.8057
51.1905
34.5014
-33.9432
-20.3491
101.1
213.241
200.123
98.5799
-81.7249
-114.936
-162.446
-205.473
-286.812
-239.947
-81.5256
51.6005
80.3053
14.6052
-13.1769
26.5707
91.0149
80.1686
157.499
128.521
71.4036
3.66475
-7.16251
22.413
103.058
145.724
164.918
192.742
224.368
181.685
25.7884
-50.3259
-35.2567
7.38472
-19.8977
-76.1759
-110.677
-133.097
-177.336
-165.405
-194.191
-205.312
-210.582
-94.0434
6.4672
-31.5679
-92.8941
-49.8006
23.2101
25.928
-31.2838
-31.1604
-6.95791
-19.2318
-16.0957
10.7173
80.502
115.481
82.0807
75.121
99.7552
100.854
61.1003
11.8233
-22.6871
-12.2302
73.4135
121.572
145.659
182.77
200.873
144.489
104.962
-1.34761
-109.194
-193.73
-195.076
-184.612
-194.263
-65.9403
65.7527
32.4151
1.9432
-109.658
-227.354
-255.677
-186.146
-98.0858
-5.29738
54.2846
74.1744
71.1633
52.9872
132.766
190.39
228.342
232.767
185.788
172.849
74.0389
-43.1294
-38.6026
-25.1908
-42.7581
-60.2348
-31.4897
13.0956
-8.45691
-35.3793
-82.9505
-85.3622
-39.9657
-15.2823
-7.65629
-22.6014
-106.279
-203.541
-147.008
-72.8248
-74.9024
-87.6218
-61.5609
-27.6342
38.5348
106.532
129.298
130.356
100.554
48.9993
-10.7747
-12.4583
-14.3105
-45.2832
-18.9004
34.5209
79.5857
120.603
82.7908
62.7832
59.4293
-0.911777
-20.3809
12.3184
40.7361
94.2144
100.453
48.4771
-33.9406
-102.872
-119.546
-82.5009
-108.65
-96.924
-49.3906
-27.1609
21.1054
20.6534
0.694807
-30.9786
-51.8452
-1.71265
50.1411
46.4479
28.5035
26.4603
-5.07843
-39.5369
30.1884
61.77
66.2248
-48.6336
-166.749
-119.878
-59.7504
-70.6891
-126.65
-117.965
5.50083
103.227
137.972
67.3961
46.7735
64.6462
100.151
142.832
166.895
103.842
-16.6027
-21.556
-30.0647
11.1042
84.1136
12.0655
-29.0771
-7.03907
25.2948
3.23011
-66.9806
-45.3497
-32.3453
-23.4018
-75.6577
-84.9101
-38.2593
-13.4272
-38.9182
-94.3757
-82.2538
-62.7143
-105.756
-82.2374
34.7776
93.1564
84.6041
109.053
136.838
113.43
56.4875
-31.9276
-88.9817
-11.5217
75.556
80.4225
12.3658
-116.447
-101.229
-25.3939
-1.93805
17.8257
53.3215
7.65187
-66.3833
-56.9607
-10.8523
-5.94007
-4.17548
-17.5695
-4.07921
51.8619
84.8279
28.7582
-6.55162
-38.8036
-64.1955
-45.309
8.82214
-0.235765
-5.81297
45.273
35.8954
19.2695
12.6344
56.2449
39.5124
3.73147
-4.1701
35.5412
64.9121
-23.6015
-42.8951
10.6733
0.650868
-42.1804
-70.4025
-13.9549
-20.4987
-46.3642
-42.2525
-58.8483
38.0393
118.41
132.789
117.517
57.1061
-33.4177
-94.086
-122.249
-151.37
-93.1896
-79.3061
-46.0579
27.8912
63.8125
24.4598
11.7008
-26.5542
37.6966
124.322
106.004
70.3747
37.9442
10.1493
5.80877
49.0353
96.9929
72.2831
-13.1026
-70.7694
-104.343
-125.608
-105.417
-97.2675
-78.0774
0.984981
28.4773
54.8386
74.315
8.25592
-52.6604
-29.1215
18.4269
66.6012
10.4454
-43.1196
-5.50311
25.2286
38.6432
26.3221
-14.8027
-27.4945
-41.4332
-28.8379
-8.06801
77.328
74.0704
76.669
107.612
97.3427
-20.6469
-137.606
-151.651
-177.545
-149.461
-94.0396
-36.8367
33.979
114.241
92.1812
101.564
137.097
98.5836
-0.656545
-52.4685
-71.477
-32.5987
25.4896
0.284686
-2.05439
80.3572
116.174
88.2921
89.8936
33.3752
-88.1394
-134.569
-143.467
-155.12
-64.6189
1.4069
20.9012
58.6759
99.2653
94.2833
39.6947
16.3308
-49.4673
-98.2333
-102.446
-33.471
-29.998
-31.6888
-31.4633
-46.736
-48.7935
-77.2369
-9.60656
109.859
154.397
127.178
102.736
30.2813
-6.16441
23.6609
28.5465
-27.0339
-19.6474
27.6402
80.2221
37.5622
-36.0592
-139.343
-128.306
-22.9056
87.3966
72.4657
47.0873
90.1325
71.4808
-5.79134
-114.9
-155.924
-176.409
-182.117
-171.129
-67.3235
20.7283
109.181
117.445
114.343
149.631
203.845
164.361
2.35614
-121.764
-103.408
-69.764
-107.508
-94.8238
-54.2265
3.7659
99.146
203.684
219.546
175.917
44.8376
-115.577
-161.464
-152.391
-98.0379
-102.741
-90.124
-48.834
6.174
100.355
124.976
68.1132
-17.9103
-24.7397
20.9499
10.3842
-17.4876
-59.8827
-58.9878
-29.6291
-42.4415
15.0229
78.0611
56.2002
-8.14778
23.3477
74.8553
30.5301
-44.8721
-33.8493
6.51759
-34.1247
-30.3684
20.1023
44.4621
36.4717
3.86789
5.02146
-58.8129
-119.778
-61.3482
22.8427
-42.8067
-68.1125
-36.496
2.12203
30.0854
81.7765
144.666
122.634
78.7666
99.983
115.745
58.0276
-4.85109
-39.6529
-25.7531
-70.9302
-94.2822
-22.7127
79.7702
67.3733
-1.09546
-46.4887
-74.3238
-144.611
-175.65
-163.333
-109.312
-78.8781
-100.301
-33.0155
30.9075
65.7855
87.8897
143.729
139.21
81.5808
69.202
62.7331
-5.98916
-61.159
-51.0755
10.415
64.6415
52.1471
21.7032
10.4051
27.9348
-18.3479
-44.525
-3.9445
3.41483
-24.9377
-98.7542
-96.1571
-28.1424
61.4699
104.679
58.7697
37.5618
26.4554
17.6042
5.69644
-33.7356
19.7225
31.8221
10.3569
19.1065
42.2196
38.6436
-32.7529
-59.8328
-78.225
-53.2656
-65.9759
-101.661
-50.0062
-3.42936
21.3886
-38.507
-46.1596
-69.4691
-136.084
-66.035
34.248
65.902
60.2208
75.5118
87.0845
106.339
135.263
112.244
46.1889
0.102593
-4.57192
-39.3847
-89.3743
-90.136
-51.641
24.8614
68.5992
100.248
125.05
67.5109
6.22383
0.73939
17.8272
-16.8099
-90.3154
-183.684
-194.852
-126.175
-63.0879
-34.8142
-0.853062
61.0549
72.0504
83.9263
102.405
78.4494
29.5815
-5.29199
-9.863
6.06902
23.9374
7.44126
35.8975
74.1387
83.9094
11.2346
-136.475
-125.527
-75.6403
-134.603
-137.932
-66.0491
30.0308
66.7195
75.8716
88.4902
97.1001
42.1891
-51.8461
-91.2554
-62.4328
-26.9376
-49.2744
-68.1303
-31.2931
99.5261
171.407
101.96
60.4034
117.91
157.551
68.7591
-17.4274
-31.2185
-61.1923
-77.7154
-39.7181
20.9053
85.0659
39.7291
-19.8728
-42.8358
-99.3941
-143.094
-77.3143
-35.2819
-31.0447
-31.5794
-0.702742
34.4778
2.31621
-9.79442
15.1684
-38.8586
-55.1809
-14.6501
-14.5105
-36.1349
-2.71563
59.6842
62.8121
56.0704
84.4151
42.2722
-50.1721
-118.406
-121.916
-95.678
-71.5312
0.308385
62.9032
97.9995
103.842
98.1517
104.867
73.7432
41.6569
53.8368
64.0049
74.8076
46.2154
-26.9569
-100.681
-85.4177
-20.3182
33.0588
31.5893
43.8729
68.0605
44.8095
-9.18272
-41.2603
-47.6869
-63.4357
-98.7974
-162.299
-204.192
-204.51
-165.527
-98.7898
20.067
101.026
108.742
116.428
93.5577
86.3407
118.019
112.333
69.0125
-8.61644
-49.4535
-37.5357
-36.6508
24.8663
97.3463
105.6
63.9081
20.3208
34.1908
-12.9741
-139.494
-157.251
-101.918
-52.8498
-23.6601
27.4132
72.5106
8.21799
-44.8914
-20.6919
17.7488
39.4684
52.4674
7.82797
-69.1463
-68.3393
-48.6445
17.1296
62.035
82.425
98.4352
79.5005
45.943
27.9532
-0.935202
-62.3189
-132.088
-167.735
-132.962
-5.01413
48.094
57.5456
83.4875
23.5049
-41.8638
-19.7759
33.2485
21.6996
-14.2695
-40.3703
-8.0657
25.3188
64.5205
65.4691
55.0642
83.7994
104.185
134.677
99.2832
24.4328
-25.9659
-104.356
-216.268
-189.271
-138.632
-137.183
-130.653
-44.0392
31.4051
59.5212
65.5106
61.7665
34.311
40.0038
44.3509
44.8149
-2.50178
-62.209
-51.5206
32.0014
91.6559
67.3323
45.2665
82.0459
73.3619
57.1267
55.8795
41.2096
-12.2018
-33.4703
-78.4478
-76.341
-43.3741
-74.9521
-38.4446
-40.2663
-7.62397
40.2204
44.2015
-60.0032
-126.335
-64.2743
-44.9216
23.5843
46.1427
16.8385
39.6948
104.554
108.393
21.5048
-114.774
-162.573
-85.8566
-10.2614
11.0749
48.0536
68.384
48.1696
26.4338
34.3012
13.0129
-14.1519
11.3257
8.16788
48.129
92.6606
43.6025
3.4743
22.3096
65.851
77.5111
5.18668
-87.7032
-66.292
-36.6867
-52.3053
-34.7124
-39.1799
-88.7978
-105.866
-60.928
-34.096
3.86205
15.1048
45.4028
61.7405
64.8955
-19.7153
-62.5003
-27.6186
71.7675
174.641
144.603
61.0076
-27.4539
-51.4554
-42.1693
-20.8851
-2.69712
11.3742
1.20908
-8.25142
-31.3773
-56.2676
-86.0806
-96.2078
-73.0111
-83.0961
-67.3716
-33.0936
64.8868
49.424
26.9485
49.3382
82.7955
67.0913
20.8286
7.64156
35.2459
56.1708
52.9107
29.2132
32.2806
10.1916
1.94652
35.1305
28.0879
8.19796
-41.2495
-43.4187
-67.6224
-81.6731
-60.5519
-23.4247
17.2864
55.201
11.6719
-20.6146
-48.1293
-65.4452
-68.6043
-57.4334
-30.3294
30.5214
59.2734
36.7269
1.66399
34.0077
68.9844
31.1727
-6.41485
27.1371
63.2605
14.213
-61.6517
-57.0612
-30.5643
-21.9023
-32.7856
-59.7354
-11.8603
29.9584
52.717
34.0781
37.8134
77.9707
95.9442
66.9843
27.5556
37.151
6.49788
-52.5009
-70.0666
-66.667
-51.5392
-47.1692
-9.91761
-19.1817
21.2782
76.5669
61.6517
64.809
25.2761
-55.2224
-149.42
-84.0767
24.4002
-10.3415
-52.4688
-62.9423
-91.0952
-78.6088
-8.87377
-28.401
-89.3335
-87.2808
-39.9347
41.7889
85.7716
103.135
103.602
94.6598
68.0361
109.267
149.825
95.5816
84.4602
155.779
107.054
3.99385
-14.0272
-17.7978
-64.2954
-80.6366
-7.00641
8.96852
-54.021
-83.8596
-72.2044
-95.3381
-93.0727
-109.326
-119.74
-130.339
-90.2845
-33.6664
-25.4394
-30.7342
-23.7732
2.82005
-7.86747
28.691
56.9465
85.0779
103.586
123.691
185.161
187.22
114.568
57.7277
20.0554
-113.018
-164.99
-125.015
-67.8433
-50.4491
-78.9539
-74.2753
-12.7943
50.2207
118.97
124.288
73.8259
105.484
115.407
63.4269
-27.2011
-93.7571
-74.2372
-126.327
-179.424
-70.8961
12.4853
21.5819
42.5577
2.09777
21.2559
-7.73644
-37.4589
-1.77248
56.501
104.478
101.716
32.6393
-65.9496
-108.932
-66.4453
-5.1194
0.45916
11.0304
27.457
35.9248
53.7636
28.0985
4.19478
-2.43138
-4.52969
3.01139
-45.6169
-143.727
-131.913
-56.3005
-12.5845
28.6161
54.865
61.0484
72.6977
79.4008
20.5919
-51.3069
-51.8312
11.9914
36.2339
75.5912
72.1404
56.9333
38.4142
27.4271
36.4849
32.5607
-18.554
-76.6582
-55.3038
-61.2419
-69.8847
-56.4232
-73.539
-92.162
-24.1028
94.3741
133.76
99.7917
68.88
24.1723
-45.1545
-131.928
-159.333
-109.071
-8.49828
75.3164
78.5134
13.4171
-39.1938
-3.8734
42.1592
30.1167
5.28646
-31.3647
-38.1521
-7.09956
8.97542
29.5875
41.1514
55.4816
55.6428
63.0461
8.16229
-16.2794
31.7574
62.6441
19.1561
-39.5417
-44.0593
-42.9777
-12.6804
-0.732081
-27.1148
-12.7183
1.85039
-28.5161
-66.2707
-66.8442
-42.051
-39.0667
-27.5238
50.5244
152.08
172.7
111.382
28.5667
-45.7575
-88.2975
-81.1084
-95.3768
-139.419
-121.795
-100.66
-48.9564
25.3521
96.9851
124.192
109.464
90.6326
77.7298
50.9995
-36.7364
-75.2175
-41.9743
-30.4709
-20.8362
8.3736
45.4752
32.9157
37.6108
76.0177
88.8723
100.197
77.783
20.4067
-18.6913
-11.4535
-20.5397
-98.7831
-214.27
-181.614
-44.457
5.42961
-45.1127
-72.3688
-98.0047
-36.7363
3.12462
30.4941
61.6684
57.2085
42.0904
29.637
-21.137
-64.4888
-42.3143
29.1646
115.038
121.057
121.624
137.972
106.319
55.157
9.13414
-18.5874
-21.0073
-38.2961
-34.9033
-24.3927
-35.9017
-58.7597
-48.2137
-58.2452
-70.3302
-13.9407
19.2701
-30.5034
-55.4098
-7.85298
18.9326
4.78183
0.181082
-25.4717
-29.7942
-7.9059
26.1069
17.757
1.24862
32.6367
21.0882
-33.1183
-29.5411
32.9844
62.037
41.2028
52.6182
50.8733
10.6375
-16.9219
40.8338
35.4223
-25.9702
-53.7265
-60.2521
-95.0476
-68.1784
-11.9887
0.738938
-1.52738
19.0885
58.4297
35.4989
2.49009
60.317
62.6394
72.1693
55.8221
-9.95206
-53.9433
-115.43
-151.171
-136.908
-122.525
-60.4882
13.7258
21.2971
54.2711
125.51
125.464
124.376
18.8778
-63.9024
-41.7288
-16.0005
-15.4702
-49.5062
-24.7515
30.5327
62.5027
71.5953
69.2323
82.4841
71.104
62.9411
42.0786
18.4402
-1.84263
-0.0652416
-26.3966
-27.3753
26.0914
-1.48275
-83.1375
-111.126
-101.712
-108.093
-109.076
-103.871
-72.7346
-19.0549
-11.3778
-16.5682
33.1846
55.1022
66.6381
84.8407
59.2503
4.92422
5.1242
-25.27
-6.09261
57.237
80.2573
50.6921
22.6618
1.29483
2.79934
38.1226
55.7963
46.9818
88.2889
28.0572
-59.6796
-148.46
-163.522
-89.7605
-108.507
-111.618
-79.3996
-55.0364
9.77316
19.2701
86.126
95.9114
73.0507
114.345
93.7269
48.8148
23.6502
11.3896
-54.4487
-28.135
12.3884
69.485
108.094
64.067
56.9162
16.9997
-27.861
-49.495
-64.703
-27.8121
-43.3735
-59.1928
16.7602
-29.9515
-64.6303
-51.9159
-37.4428
-7.7312
45.8098
75.531
57.4771
3.32583
-42.1615
-131.762
-136.278
-67.2006
-62.188
-20.3178
40.5302
46.3743
26.4651
28.9842
9.48243
6.82948
3.42195
-5.85308
-3.54653
32.6304
93.0271
79.3987
88.586
114.119
58.9929
33.8688
42.1322
30.7777
42.525
-2.67052
-58.6584
-76.4294
-50.9064
6.11872
-67.4217
-103.682
-37.0199
-31.5036
-61.9346
-68.1752
-103.834
-132.205
-70.2608
-5.98595
34.0471
73.3471
76.679
92.9781
82.8292
30.6857
24.725
85.6502
91.9068
62.2277
81.7268
46.2519
-57.5662
-54.7495
-19.1824
-36.6727
-58.8178
-50.4456
-54.5779
-50.0366
-26.5436
41.7657
60.1786
13.5183
9.59248
25.2711
-0.289638
-36.2303
-39.8305
-51.562
-58.5589
-5.95931
39.015
-18.8574
-69.4999
-60.8668
-15.1459
27.3419
-4.44058
42.2054
147.684
134.371
129.034
126.576
50.7375
-46.108
-108.213
-156.427
-180.563
-137.54
-61.1313
18.6009
50.6147
26.5404
6.56396
70.6233
71.8514
26.5785
51.7778
61.4959
29.5736
-2.22406
-27.8842
-33.7881
-4.72032
14.7759
41.1841
57.8758
64.0197
8.23966
-43.0168
-73.1218
-67.1796
-11.0512
61.8795
46.1164
19.1398
49.7524
14.9992
-71.9808
-151.068
-177.135
-183.576
-183.09
-116.729
-8.62825
50.677
78.6079
100.742
110.588
102.836
97.1056
104.682
113.339
79.6459
31.4496
16.3038
10.8284
6.21706
-27.0818
-57.6859
-2.59826
119.815
116.58
-3.90232
-56.2941
-76.1412
-106.93
-131.734
-132.044
-53.7757
-61.5033
-88.6763
-45.4217
-7.24547
10.7109
14.2033
31.617
69.3887
88.5616
112.323
95.9998
36.1368
30.7431
42.0715
54.4168
15.5134
-4.70564
39.2764
50.9086
-41.94
-94.6737
-102.059
-68.2757
-56.8822
-58.2275
-21.7858
-1.45309
4.47904
18.4154
9.76793
25.7644
31.6773
49.0244
33.3055
-24.1278
-22.2922
8.42992
-57.8899
-96.8134
-53.8066
53.7743
140.036
26.0137
-32.3481
38.4291
27.1574
-34.1891
-74.1282
-18.3397
73.3228
12.7383
-103.021
-133.864
-119.71
-24.7559
31.8929
35.759
75.9801
125.181
132.285
42.1758
-18.3143
7.73312
94.5537
67.8099
34.2417
38.6478
39.0132
23.0934
6.72107
-36.951
-46.1883
-17.8954
-14.6281
-67.4813
-101.747
-50.5987
3.0661
1.03368
-77.198
-119.007
-128.032
-73.5436
-38.2265
-7.61077
36.9841
46.3624
54.38
15.8516
-37.2922
13.8566
52.1175
41.5915
57.0093
32.902
0.176627
68.3299
100.906
90.6047
149.541
164.613
50.8541
-9.15724
-36.3624
-82.4654
-94.6083
-78.7854
-77.5645
-112.605
-147.533
-97.3992
-110.478
-112.377
-41.953
63.7553
86.4217
52.7007
27.4078
14.1767
4.9681
-4.93491
93.2335
134.084
62.9863
3.79539
2.76003
29.0381
82.1602
101.702
52.6197
-35.5601
-49.4217
-51.8746
-21.021
-31.9401
10.933
-2.26673
-66.7531
-102.913
-100.002
-51.6817
-24.6893
-35.3578
-31.6739
-17.4622
-25.4052
42.5413
112.447
63.3769
-14.8819
-42.9419
41.3325
63.4103
56.9056
68.8742
72.211
23.2393
-28.355
-26.0675
-17.3112
4.22563
19.7262
23.4384
4.89306
-38.0587
-52.7179
-106.015
-146.543
-61.3449
52.9612
81.9556
19.903
31.6232
10.7065
-9.45671
2.45245
-0.942121
34.6778
63.542
39.8434
1.05276
-38.8621
-52.2456
-41.0064
-43.1285
8.37881
12.3199
-36.1144
-32.7663
12.5191
39.5705
45.9752
64.8148
90.2042
56.3587
4.26024
-95.1728
-149.748
-113.484
-31.1215
-23.3004
18.7696
35.2613
77.5787
102.854
68.6891
2.27166
-51.2496
-73.6129
-19.3416
71.2703
96.5301
90.5526
2.14563
-62.2066
-64.4323
16.0932
2.7926
-75.4647
-29.8538
41.6945
-0.0473991
15.1577
11.6668
15.3981
-3.40159
0.684602
33.5515
48.8707
14.3185
-60.4452
-35.2649
-28.1758
-61.9713
-108.12
-105.616
-18.5286
65.755
87.7279
21.3143
-8.4493
4.51421
-0.581143
1.4495
9.76835
18.4521
41.4054
35.3684
-20.0562
-103.031
-31.7394
-7.99897
-36.8398
19.8776
74.4188
45.2036
14.8226
6.73812
-3.1389
-7.80445
28.1172
58.3861
67.8079
46.6608
19.1098
1.03221
9.87302
41.5786
65.6042
41.4716
-52.0926
-126.975
-134.024
-131.187
-97.2312
-1.44089
32.4264
51.2982
86.3736
82.8138
10.6307
-81.5673
-101.445
-77.5899
-28.6899
8.0143
29.4342
48.1752
28.567
17.1656
-6.88037
55.3254
96.341
26.8475
-0.257245
7.4349
-4.73497
-1.62355
-32.634
-16.4398
23.724
40.3438
5.58081
14.5883
31.5602
6.70515
-47.027
-85.2761
-110.966
-83.3274
-39.1566
-13.2929
-47.5315
-8.91075
77.6312
88.9161
87.9333
131.217
150.353
37.4502
-6.51146
-18.2374
-72.2542
-115.475
-136.499
-99.5304
-76.0373
-68.8098
-7.69384
70.9668
95.5155
60.6136
49.9533
59.0103
53.2207
57.8536
49.827
-8.2344
-10.2881
-50.0241
-137.297
-140.247
-53.8662
29.101
81.5512
59.186
34.5139
-0.175495
-8.30945
-2.24815
53.7035
68.6935
26.3012
-12.7163
-15.9781
-16.3906
-26.2381
-30.9758
-68.5126
-45.7995
-0.342559
30.4814
33.8862
-23.8639
-62.1377
-7.76387
72.3139
101.851
62.387
28.7038
-0.946534
-35.9126
-45.0698
-25.5634
-37.833
-36.7468
-68.975
-43.2285
-31.5145
3.09598
54.0846
86.2648
121.98
91.4819
24.5372
-101.085
-150.171
-112.168
-78.8364
-74.4529
-44.779
15.1096
87.3282
135.725
117.709
41.8645
-0.253902
-19.6854
43.4745
89.5096
63.3185
29.2584
-31.9088
-75.2868
-36.6562
47.7933
34.4997
22.6729
15.5099
18.9616
15.871
-41.4728
-78.9162
-114.112
-121.077
-102.945
-100.19
-68.561
-0.218442
48.4446
23.6051
6.89733
19.6429
62.63
82.6842
54.639
81.6649
42.6456
50.7295
75.3345
-16.9691
-47.37
14.6292
28.7411
-18.8071
-43.9424
-49.8339
-36.4775
-40.262
-78.5515
-49.3938
12.6788
39.6642
62.5419
33.4434
-2.54671
-21.2206
21.9651
44.6706
-7.63273
-12.6629
36.2156
31.8809
-9.53579
-21.5723
6.42791
35.5402
39.5296
28.5814
2.3326
-48.8893
-117.263
-141.214
-85.5696
-24.5597
53.6096
74.2805
63.0107
42.1622
42.8703
9.39355
-57.0395
-63.2058
-8.72804
51.7762
38.6335
52.8852
8.14545
-36.3942
-58.9219
-81.1885
11.4481
97.9626
41.1464
-4.99338
-1.89445
-4.5566
-44.3051
-33.2242
-8.2896
21.1309
50.7198
18.5844
-23.3708
-6.17412
42.8363
19.803
25.9728
43.5942
22.4219
53.1954
41.7889
-38.2574
-46.1502
-10.1663
-22.3695
-29.091
-46.2869
-69.8785
-42.6657
12.8926
-5.25457
-36.9976
-37.1035
-16.6132
16.4802
14.9916
-31.5143
-71.2469
-25.7433
41.3163
23.6142
7.66158
35.557
39.2816
47.6598
37.8778
36.754
14.2527
-8.92844
-16.3338
-2.02605
27.477
41.326
21.4779
-26.2892
-8.66139
50.587
74.5503
38.5203
-54.3732
-81.8092
-15.2224
-11.8077
-66.1352
-116.595
-99.9228
-54.2212
-5.39181
32.8302
48.3987
81.9112
102.641
114.381
56.426
-8.05665
-80.9672
-139.567
-126.656
-104.189
19.6816
120.794
90.159
96.3298
79.349
71.843
47.6148
4.3163
-0.141104
5.89172
-3.70984
-44.4521
-71.2977
-57.3477
-77.9339
-59.2243
7.78484
57.7614
42.9773
42.7561
20.0145
-34.4634
-55.8084
-67.2023
-15.2278
3.14502
-2.02363
15.8525
60.0583
81.7646
43.9663
-67.3846
-111.626
-129.522
-108.867
-82.4238
-28.4617
35.1475
48.8741
118.102
2.87703
42.3964
50.0289
85.4257
130.714
105.207
17.7638
-15.8552
-27.001
-21.5575
18.3124
47.2948
-1.05837
-64.5079
-54.438
-78.9529
-108.031
-73.7791
-23.3732
27.5099
36.987
24.594
51.3175
27.7429
-24.7682
-4.8724
64.4569
114.422
60.8322
-51.5552
-177.681
-163.191
-65.2414
21.495
74.817
78.3484
56.1048
35.645
45.9449
53.6366
21.0761
-14.4316
-28.3974
-26.1641
-33.5364
-68.633
-81.87
-77.3747
19.3174
133.645
142.073
115
37.2299
-39.612
-88.7559
-112.473
-102.217
-75.6902
-54.03
-23.3879
22.2137
71.5635
73.2887
85.9157
90.4434
46.0893
-30.8853
-64.9489
-46.5967
-42.3061
17.9677
35.6516
-13.1565
-10.8306
-46.3329
-52.9644
-48.4533
-34.7052
5.10587
14.1219
45.3117
66.1649
31.8346
-1.36146
-25.1163
-4.11062
3.82884
18.0895
61.6573
62.7326
48.7916
48.9465
66.9558
41.1708
15.1022
-17.1638
-27.093
-15.7913
-39.2813
-16.5798
-52.7287
-74.072
-81.2637
-58.3999
-49.167
-55.7076
-66.1143
-54.1363
-122.897
-109.27
42.7346
88.6723
60.6462
66.5168
70.5931
103.824
98.1476
27.852
16.726
28.4378
53.5534
52.0694
36.5567
-26.8709
-42.9836
-32.8437
22.0605
69.5591
114.136
85.9179
-41.3083
-70.434
-67.1525
-169.441
-169.427
-77.9246
-17.9582
27.2246
8.9735
-8.71823
-14.1431
2.21464
47.6235
51.2584
55.0604
11.8129
-38.8653
-77.0464
-50.7476
-22.6545
3.53597
22.8333
43.6156
89.1269
118.188
100.868
62.6935
22.2391
-23.1881
-48.5901
-44.904
-4.69115
-3.15251
-22.6254
-25.3731
6.16665
-15.0278
-18.5198
-18.0722
-14.9316
-45.1982
-85.6333
-49.5807
33.9334
71.723
42.677
13.895
17.1894
-1.77347
-27.0088
-17.0735
-18.4854
-50.8564
-38.4968
-29.4009
-5.58873
51.9494
39.0137
36.8543
40.1211
28.5387
-3.02766
-31.9967
-23.6735
-7.15748
29.3539
70.1088
39.5313
25.8755
31.4186
-12.9636
-13.4979
-50.0632
-59.8117
-76.7484
-60.8618
-14.6171
3.395
32.5239
37.6321
66.148
57.3227
-11.3688
-30.6262
-22.8666
-39.0468
-73.0627
-36.9948
29.9487
36.3364
30.3418
8.1356
44.249
89.6249
91.0214
38.5722
-23.1562
-51.1732
-115.034
-98.2701
-46.0445
1.59752
90.5315
92.0755
19.078
-35.4594
-24.2255
-12.1857
-18.2473
-10.5423
16.5256
8.92909
26.7925
17.7951
5.17437
-0.98749
-24.5307
12.9923
95.1507
72.8342
-27.3145
-61.0522
-57.8588
-64.9937
-108.266
-103.42
-30.8586
17.2529
31.3211
34.7433
47.8067
40.0299
-0.984504
-33.7256
-57.7311
-52.6239
-19.751
-7.70736
-1.09278
34.305
81.6003
54.9463
66.0782
93.0108
96.9862
85.3899
26.6308
0.212389
-15.417
-10.689
-96.4234
-202.011
-168.085
-85.2592
-8.58372
68.3393
107.5
85.631
28.7807
15.6904
1.43719
25.6525
6.81029
3.67148
32.3422
40.8939
34.2917
-28.8565
-12.0781
-32.0866
-17.1962
91.8486
111.366
8.59579
-27.3445
-31.9966
-75.019
-74.3092
-91.3697
-128.286
-78.7424
-42.6216
-23.7992
7.93948
21.8682
9.9738
-5.23077
21.7679
62.8774
80.191
31.0426
-38.2
-61.3698
4.49884
34.1425
38.429
80.0003
71.3404
9.63224
-24.0023
13.9508
65.1833
9.63259
-78.5334
-56.563
-21.7919
3.15422
26.4865
-19.8561
-1.76533
52.3755
76.8584
54.8825
-43.6709
-92.0256
-96.6685
-2.59782
69.6508
58.5689
14.2378
-16.9434
-5.48853
24.6313
-9.25441
-64.8178
-85.1008
-31.7748
-15.7694
-13.2034
-25.2821
-1.17598
27.6371
55.1644
105.805
100.853
71.3855
-7.48521
-40.0479
13.5224
34.2985
18.444
-97.7923
-192.83
-123.398
-63.7015
-0.596856
19.2941
16.4803
11.7885
55.951
92.7636
61.2757
19.3014
23.4444
-1.74681
-54.6614
-55.3176
-38.6145
13.4318
75.0423
61.0142
50.0619
55.2766
5.93873
-53.0557
-53.9971
-77.0385
-71.096
-47.2531
-54.9766
-11.6764
27.9812
72.3875
54.6364
54.1925
76.3137
23.3019
-21.9109
-28.7263
-10.1557
-30.4659
-2.50425
39.5181
71.576
86.9863
43.8339
3.10591
-26.2627
-24.9365
-3.21298
-38.7698
-50.4556
-73.7667
-116.676
-89.82
-49.2679
-1.67905
21.5896
17.3406
30.915
0.674126
-14.2896
11.4625
10.4764
74.9947
125.442
74.1844
26.3713
21.128
-9.56794
-50.388
-66.4734
-75.1914
-19.9224
-2.91069
38.9991
49.6329
-33.4489
-86.8842
-77.2894
-17.4847
-43.6712
-40.089
43.1325
80.055
58.8091
78.1323
99.7958
33.5134
-4.19556
24.3599
15.7901
11.3875
43.291
42.9983
-52.6506
-97.7189
-47.6412
7.4127
-5.57417
-20.6241
22.7599
30.2276
-0.890849
-54.9857
-65.8957
-44.4205
-31.7709
-54.8943
-68.8545
-26.2157
-10.2801
0.151001
-0.933401
-6.17891
6.76023
34.367
73.9485
73.6428
29.1669
5.27104
23.5343
30.2067
4.86186
2.22437
23.8431
45.3569
19.3531
35.7903
30.9405
24.9442
13.3582
35.2677
55.6119
68.8989
40.7615
-38.2456
-135.45
-170.806
-120.696
-52.6682
-50.8606
1.84719
8.42778
-13.6804
-46.776
-89.5031
-39.5934
6.48686
-0.0882405
16.8427
99.8163
97.6319
63.5164
56.3772
12.5602
-17.0711
-9.92535
-1.49432
-3.3123
6.9839
39.3438
11.4057
30.6782
24.3975
26.5593
46.9801
21.4868
32.851
-10.7041
-80.7605
-62.2893
-49.2765
-49.3455
-29.9909
-14.1871
1.65055
18.15
-20.7483
19.5596
89.4955
85.0286
46.0613
-4.08448
-19.4081
-43.9916
-55.7857
-40.802
-73.1152
-33.0961
-23.874
-60.79
-52.8781
-24.8695
-8.57504
12.1747
54.2218
28.3395
-0.414336
7.60096
24.1501
80.3369
87.7857
64.0888
87.539
89.5187
55.0132
-10.3644
-62.8677
-64.776
-7.20728
-21.4795
-84.2424
-108.601
-68.2719
3.3431
2.31286
31.3472
69.3545
62.2191
-18.2947
-80.4149
-79.1868
-29.473
8.86994
57.6092
46.1189
34.0868
-16.9723
-4.94777
-24.2593
-75.2183
-55.212
5.59846
35.1063
58.8538
27.9023
50.455
66.0116
19.0783
41.0429
42.6232
-8.24882
-19.033
-4.01946
-54.4392
-62.4322
-78.7365
-36.881
5.46628
21.7907
74.2839
67.7761
17.7437
-31.355
-34.0797
16.5077
10.2603
15.4033
12.9352
-42.7493
-36.1912
-4.67236
-36.852
-41.3692
-29.2738
-18.8443
-42.6058
-17.8283
52.6224
45.0428
28.9519
48.8296
74.6949
110.433
60.5585
-0.51556
-49.8061
-35.6367
-11.7799
-18.0947
-54.6568
-105.4
-84.8301
-71.2286
-52.6783
-12.6941
-6.42295
3.33292
-16.0712
11.9354
51.8617
108.354
94.8244
44.6284
0.619968
-7.0919
-10.4815
-23.7323
-16.3759
9.29614
-2.64778
6.06363
40.1957
54.5017
29.7674
1.55272
45.3679
72.707
35.2291
3.05661
-13.9412
-38.5814
-33.9526
-36.1127
-26.1698
-25.0198
-23.9793
9.66757
12.1285
-3.25501
6.29059
3.11358
-43.545
-108.571
-108.227
-63.4806
-28.1391
-40.123
-16.2841
17.9496
25.1351
4.85062
-1.29333
58.8486
108.379
114.282
45.8181
-57.5636
-62.9135
-68.2044
-59.4289
-3.71
45.6173
74.2573
107.192
93.5499
90.5932
87.5839
50.414
-6.10947
-46.7973
-48.8931
-45.3563
-87.0461
-157.236
-114.232
-18.0493
45.6253
44.1414
39.8582
48.3654
29.3593
-15.1816
-58.2938
-94.7975
-69.1002
0.286193
47.9457
53.3451
46.2291
60.2768
82.143
46.741
-41.3031
-61.433
-32.9888
6.64489
-16.5835
-8.25381
32.0393
-1.42485
-50.0436
-56.2947
-10.6088
46.4829
46.0027
-0.473573
-1.98844
15.9339
25.9387
23.2798
-4.18121
-38.2505
-49.7874
15.1916
10.18
-15.0741
-7.19227
15.7888
-1.71511
-12.3977
14.0724
27.5841
-8.59739
-28.1699
-1.75521
15.2693
5.26153
-19.6959
-23.4744
-26.5702
-3.46518
29.1605
16.8975
-16.4138
18.5073
76.9213
56.876
-47.264
-49.4727
-18.3866
-11.8388
-33.3556
-24.5615
-7.32517
11.2887
48.3665
65.6473
37.114
-14.7189
-41.1457
-17.6575
17.3059
84.4597
154.981
86.4273
-44.32
-113.357
-74.9781
-9.47883
-47.608
-80.1858
-68.0337
-52.4274
-8.11672
-27.3423
-84.0644
-42.2006
58.2435
85.7323
82.7357
45.9891
27.1312
27.7083
-25.1237
-38.1365
4.26078
21.2818
20.1798
-19.9908
-17.3443
-8.22492
30.0174
33.5924
16.8607
13.6395
26.8293
30.2683
53.6195
1.73107
-87.2651
-100.018
-69.3861
-27.5433
3.88548
3.57934
31.9836
84.0216
48.2826
-34.2253
-33.8338
27.7078
61.3588
77.8542
44.4565
8.86864
21.2023
19.4515
-45.7405
-43.5539
-36.4207
-34.4316
-30.9181
-68.0533
-96.7403
-86.1788
-73.0548
-65.6853
-44.7721
2.35674
42.9411
63.412
59.0885
74.1257
99.8068
87.778
18.0842
3.21719
-40.3388
-26.4665
59.2447
53.8428
-7.44857
-25.3404
-21.2022
-18.8421
8.42298
69.2036
86.6155
45.4979
3.41463
-27.8564
-63.7509
-118.826
-107.219
-60.8954
-24.0669
-2.16857
19.9145
17.7821
-10.2027
-59.9893
-29.9691
-16.0829
42.7537
104.713
97.1435
80.5466
73.8183
10.5868
-45.626
-70.4657
-19.2941
22.2243
-22.2418
-8.37921
9.19626
-33.9924
-28.9592
11.3461
38.2015
78.5387
60.1259
26.8423
-61.0816
-128.006
-109.626
-114.688
-64.6626
26.8593
122.165
122.474
7.16649
-66.0373
-17.0589
29.5471
39.5904
19.4615
-13.0948
-23.182
-46.835
-22.1078
13.9126
52.6632
39.796
54.2737
68.4425
46.6233
4.21117
-3.66596
-21.5925
-57.2427
-56.3549
14.0738
7.84159
-30.3779
-31.7763
-25.4791
-15.8957
-11.1303
-10.5889
-55.2129
-90.6646
-70.4114
2.67677
45.245
36.8457
44.6709
11.9752
-12.144
-12.4835
55.4749
120.173
105.046
49.9304
42.2167
56.3143
31.2203
-3.28702
-24.8883
-34.8717
-33.1092
20.5315
29.9007
-8.35546
-82.5288
-99.5031
-97.0185
-98.9472
-68.6024
-13.1823
-4.76843
1.34093
11.3447
59.2279
17.9316
-33.6587
-11.758
21.156
45.3691
30.9634
8.71675
-0.212396
5.24565
-29.0061
-51.3066
-3.34124
61.5599
89.954
76.0522
34.2573
2.34631
51.5875
78.6007
40.1947
14.8572
2.78323
-41.5299
-97.8129
-96.6473
-96.6037
-54.9505
-66.1193
-34.4545
50.1809
94.1924
-0.883904
-47.033
-60.5233
-79.4087
-53.4119
28.3297
17.9036
19.426
37.784
56.2293
51.1925
36.2296
41.4895
53.8659
73.8388
83.0877
76.4974
50.8526
5.38819
-22.8985
-28.1952
-41.497
-50.167
-32.9406
-3.54041
-21.0628
-50.7279
-81.4023
-93.0808
-66.9785
-29.8726
-3.82129
34.5286
-25.2105
-27.8608
-6.70933
50.3109
-10.6249
-28.5365
-36.7273
-53.8128
-44.9374
-15.5111
53.0028
67.0874
77.9567
89.588
49.7706
13.7931
18.4883
62.8889
83.0555
32.0441
11.6097
23.2315
36.368
-9.51849
-22.5123
-42.9519
-59.5017
-71.2274
-49.124
19.7371
12.3346
9.15086
0.685378
-14.0896
-8.40879
9.72415
-18.994
-59.8358
-76.3146
-38.9886
6.04017
-4.58136
-35.9601
-25.7428
-5.29859
26.5322
69.5335
102.073
79.9123
41.6634
11.0635
-20.8197
-23.6907
-31.4122
-44.9241
-48.8474
1.58907
26.2634
-20.2
-36.6333
-17.012
32.8927
39.18
45.9252
75.8283
22.3053
-24.8566
-42.6254
-70.4097
-68.2706
-25.3715
-36.1357
-49.7438
-48.361
27.9075
57.715
11.1166
36.5858
109.84
87.8298
15.3212
-13.7359
-15.2132
-46.287
-43.3219
23.2702
53.5534
39.3403
49.0811
57.3535
65.1711
56.811
9.80551
-48.8219
-87.6198
-108.59
-58.4905
-64.2319
-72.8454
-76.5134
-35.9994
-18.0377
-9.44246
21.9489
12.6186
14.3289
34.7067
56.2482
68.6578
36.1524
10.6204
6.7702
33.8523
70.5259
27.3933
13.5248
-28.3374
-64.8303
-97.4228
-106.626
-69.3937
-21.7238
40.7713
27.3608
12.3018
34.6369
51.6917
62.155
35.265
24.0945
7.56161
-15.6637
-35.2431
41.3154
77.0932
-3.73122
-84.4695
-91.6616
-66.6464
17.1495
49.8044
50.0495
46.2546
-28.9219
-4.65389
45.937
-12.78
-24.6039
-0.213938
5.90788
13.27
-0.371122
-48.3778
-132.152
-66.8471
54.1989
85.1808
90.3173
96.771
45.7319
-26.9344
-17.8828
-49.6108
-0.893141
-14.385
-78.9842
-59.4735
-37.7569
-38.4523
-55.2727
-54.2784
-5.82099
28.9318
71.0414
43.1248
45.1863
74.9401
70.8917
52.9897
53.4492
15.8106
-22.1872
-33.4598
-38.2898
-60.3199
-31.5789
11.413
34.1171
47.2685
14.4289
-46.3188
-85.5716
-75.5302
-31.8634
19.4815
34.2217
42.1879
41.5512
0.617753
-38.446
-31.0416
-63.0706
-23.2843
34.3026
28.0715
20.3829
38.2035
16.1073
-2.71464
39.801
24.6512
-4.48466
25.8318
-0.287047
-80.3065
-124.39
-81.9429
-30.3241
21.2469
74.3815
140.198
171.65
81.3275
8.73752
-15.0162
-56.186
-42.3707
-59.5055
-60.6677
-46.5974
19.5068
68.548
47.0291
3.9279
-15.0226
-25.6359
-94.3516
-118.315
-87.1264
-31.0121
-0.652875
-2.26765
42.8331
84.9557
105.516
79.4185
-0.385959
-17.8718
-2.42891
-32.9508
-23.329
21.5778
11.885
-10.7874
4.30587
-7.85777
38.553
52.9557
17.7379
14.3469
-0.472443
-35.0901
-38.0445
-7.23934
-39.1263
-71.2584
-58.4892
-7.95518
23.8452
15.7362
-29.0933
-7.90164
23.4027
37.3081
29.5327
50.0514
54.2583
19.1428
0.688965
-11.2609
-10.7294
3.83614
5.53258
-17.8518
-5.75243
21.0492
30.4239
11.7899
-44.8709
-46.2428
-6.30619
-37.6625
-38.3025
9.61334
38.6083
26.7483
1.27385
18.0989
5.53954
-19.3321
-48.2394
-60.4718
-51.3281
-55.7913
-17.0664
18.0246
41.108
54.5142
71.6963
59.5798
2.96782
-32.3647
-19.1936
-7.03248
-9.28568
24.8099
25.2769
23.5335
53.6863
75.7582
74.0341
22.3971
-27.7021
-51.4979
-48.652
-28.7908
-37.8935
-53.2276
-48.5043
-31.9846
-14.107
3.67473
2.30918
-14.1526
-25.5943
-20.468
-4.4047
-5.63026
-8.36414
-17.477
-9.60956
25.5746
62.7391
42.1377
23.2746
46.5988
34.9657
16.0114
-11.6612
7.27633
33.9157
26.1317
8.70236
16.8132
15.0689
-20.2798
-23.4736
-32.7077
-41.1121
-51.4192
-82.3466
-68.0513
10.3197
59.4449
52.0969
19.4645
27.4059
10.215
-31.6908
-40.6299
-50.3751
-48.9787
-16.9363
-20.1471
18.1131
57.851
54.0551
62.7535
48.5406
-4.08509
9.19559
13.9973
-8.51573
33.0235
28.5641
-1.64315
-5.52815
35.2377
44.8122
-47.4397
-79.776
-83.483
-94.9989
-93.8719
-63.9755
10.746
66.5543
38.9059
51.8945
95.6556
84.566
56.5347
-14.159
-80.9814
-65.308
-28.6515
-21.7234
-42.9747
-6.16287
26.283
48.7139
85.5409
93.8248
65.4386
7.27705
-42.7227
-76.5449
-63.4652
-42.3794
-73.279
-50.5324
-7.74004
-3.95656
16.9795
27.549
-13.6642
0.761982
-8.17999
30.8668
85.3275
105.13
74.431
30.1477
-37.0374
-73.3928
-60.288
-57.8886
-39.4583
-12.0006
24.7517
30.1028
9.09113
-7.79803
6.13071
3.74825
11.85
43.4539
85.0538
14.8638
-65.9244
-57.5989
17.2873
74.4255
75.4601
-2.44206
-107.65
-150.132
-125.738
-110.321
-47.7821
74.5539
154.248
131.633
25.8231
-33.384
24.0604
14.9666
-104.877
-127.572
-48.7504
-12.8845
-4.34769
9.34208
73.8475
127.663
122.682
127.68
103.641
41.2475
15.5204
-35.0815
-80.1772
-64.4131
-0.59765
21.6667
-49.9157
-126.916
-51.5358
66.2096
90.6773
75.9649
-17.6824
-82.0468
-79.0381
-34.0739
14.1559
-43.9189
-117.328
-59.0338
-4.33322
-5.13455
-31.2489
-9.3367
-15.3642
-0.965456
53.2254
87.7607
90.1059
48.1835
6.02709
-34.4494
-18.7061
12.4401
30.5858
19.9382
-5.26545
34.1142
76.9822
42.0817
-22.3884
-62.3613
-54.4789
-31.1435
-2.01825
7.91826
8.47048
27.1496
59.7359
0.253856
-49.8855
-37.2182
-31.4022
-44.1281
-52.4955
-67.5447
-18.5256
37.6692
68.7773
55.4516
63.5926
50.744
46.345
17.2404
-9.53016
19.9957
3.28358
-4.09794
-3.22718
7.09145
38.3846
71.4216
17.9184
-86.8607
-115.764
-73.5398
-17.9351
-9.88096
-42.9062
-62.4768
-60.6925
-13.2295
-25.4684
-2.09149
12.6563
17.4943
23.5798
28.4118
10.7725
-12.5229
14.3315
10.0329
48.9381
105.659
88.2181
82.1578
40.8853
-2.0709
-43.5324
-63.9969
-53.254
-37.5521
-24.9899
-8.60393
29.7436
-17.8961
-12.731
-10.1803
-19.2414
-14.0763
1.99614
18.602
60.4792
55.6334
40.7066
-4.05259
-76.4857
-87.1092
-48.6907
-22.8919
30.6314
33.7292
41.9808
27.5091
-11.1972
-34.9426
-54.2792
-18.3965
0.756193
63.0823
102.376
51.1842
-23.1985
-89.4032
-98.754
-96.5788
-41.1241
0.225632
45.201
82.1508
41.4847
22.4503
47.4453
58.1816
50.0959
36.0648
31.6493
19.6809
-15.6059
-68.252
-67.4608
-25.772
8.01845
48.1651
57.7142
41.6411
-48.046
-127.728
-138.41
-107.051
-75.6633
45.0818
15.8965
-9.21787
-4.49168
-11.8114
65.7934
104.058
51.7802
60.5171
87.6456
58.4772
79.6401
78.3518
-11.2171
-85.4111
-38.0491
-12.1499
-26.6873
-27.1336
-27.0251
-32.9463
-52.9097
-87.9007
-98.1234
-53.6239
-5.16224
16.9279
12.7211
-6.23646
12.0808
121.811
128.681
94.1768
26.1731
-20.1175
-8.95316
7.09902
0.760309
0.217901
-8.76919
-8.14591
-10.9855
-12.6893
-26.5676
4.68918
-23.412
-36.8965
-15.0656
-50.1694
-65.0594
-121.283
-131.008
-78.5412
12.0623
84.1193
100.469
88.6925
77.956
71.3287
16.752
-4.36262
34.1056
56.4925
42.614
3.45255
-41.1616
-5.50972
42.14
61.7021
57.4571
31.3141
-21.2249
-48.0206
-46.7742
-12.8322
-55.5861
-66.3693
-22.0797
-29.4851
-26.5616
-15.1115
-31.2241
9.04618
52.417
40.8211
0.363746
-55.9484
-32.3011
6.62893
-80.5821
-98.6354
-16.3675
-1.99651
16.2155
8.12104
30.4537
111.507
95.9674
40.0496
42.0874
19.3905
-23.4172
-22.8841
-9.69104
20.1256
34.4454
-2.76409
-46.6428
-33.8964
40.4692
71.6242
23.251
-27.1227
-68.9625
-61.9778
-16.7426
-38.535
-37.9499
7.22282
12.2956
15.599
34.5678
37.2135
50.5597
24.8728
18.6494
-28.2825
-114.652
-60.1173
40.3975
76.7217
62.4939
19.0588
23.1879
47.8433
10.6688
-54.0846
-63.3932
-65.7658
-43.2901
-41.2544
-49.3285
-30.5229
-24.0589
-25.1018
9.23632
61.7378
84.2536
30.0979
-24.5285
-54.5335
-15.9541
75.8357
133.015
131.43
104.36
36.5607
-41.4904
-86.1906
-121.641
-102.114
-46.4548
-44.1602
-79.5969
-74.3514
-18.786
30.3309
71.9366
80.1418
45.4395
1.19513
8.10513
18.4033
11.4081
-32.0249
-76.2662
-50.6438
-39.1928
-15.4216
60.1911
119.459
122.39
94.8018
122.881
101.865
50.0882
6.55625
-40.4962
-110.53
-93.6727
60.4621
58.0352
-37.7583
-178.95
-316.444
-250.071
-98.9832
-35.4878
69.0705
110.027
76.045
58.4076
42.7001
14.4119
36.7016
65.7908
46.5459
17.2669
45.9181
64.4675
11.7675
-11.6893
-6.76857
57.5601
119.298
87.0048
35.7198
6.36843
-36.1775
-61.08
-25.8638
-54.8425
-121.986
-150.639
-126.988
-118.701
-44.9958
23.2545
37.8629
43.4685
43.3707
80.9023
125.873
88.746
76.9306
27.3644
-47.7564
-8.34327
42.7819
27.837
-54.1446
-30.7895
27.904
-31.0093
-101.475
-107.466
-45.6044
43.2329
47.8066
47.0473
-31.8328
-162.317
-146.919
-88.6787
45.1267
139.037
131.788
91.8223
29.5104
0.972674
6.55565
5.92181
31.3605
82.9021
94.805
41.9923
-7.76696
-29.5633
-27.1782
-18.5459
-7.08899
-1.06695
4.1078
63.7112
90.6213
104.528
69.4107
-57.3912
-175.847
-246.605
-248.25
-222.154
-176.467
-69.9598
93.2364
158.575
128.35
58.4792
16.1555
6.33328
57.2433
96.8934
64.6548
60.3985
18.276
-44.0709
-18.4512
48.7676
56.6077
90.0255
144.875
134.098
56.944
-17.8444
-107.711
-132.796
-155.569
-145.692
-121.748
-117.512
-32.5959
70.0278
24.903
-79.8817
-112.474
-48.9262
46.6893
95.4573
67.7935
65.7257
64.1403
65.8454
74.8951
88.5056
66.8378
30.617
11.1443
8.74769
32.3553
30.5607
-24.3541
-50.7417
-10.5232
51.8196
28.8613
-39.2531
-100.341
-87.7576
-41.8338
-37.5668
-40.6472
-19.559
26.2192
-18.3206
-62.0732
-62.0072
-46.891
18.5624
29.2846
16.6301
-37.7406
-22.9872
24.9237
28.1507
37.2234
12.7005
-8.15292
10.8298
25.762
43.4559
68.1049
18.6009
-18.5092
-41.5809
-8.59617
31.1609
69.4123
32.68
11.7158
27.7329
-9.63521
-28.7511
5.65165
33.4058
21.9842
15.9413
-4.32746
-24.6996
-16.0151
-16.2559
-43.6001
-50.2538
-41.5362
-10.5875
-9.15773
-3.73258
-37.567
-76.2862
-63.7055
-14.7002
34.4764
27.4586
-1.11768
1.14656
33.701
48.2867
70.8935
80.5585
86.0527
81.1418
52.5302
16.7234
-0.699744
4.00832
-18.6995
-46.0269
-71.2418
-76.705
-68.1622
-88.7018
-62.1339
-41.2634
-3.89999
22.5956
-10.5192
-59.0079
-57.7537
-39.9761
-34.6584
-24.4121
-25.772
27.7241
45.0377
30.5402
50.4617
83.6913
134.6
173.485
156.444
120.67
86.5966
42.6285
-53.9169
-113.913
-68.4065
6.42011
-8.70077
-74.7219
-64.7591
-66.4892
-65.6802
-28.5104
20.8849
52.2043
69.8082
51.1789
5.77397
-37.6598
-86.6756
-144.692
-192.465
-178.173
-102.269
-40.4807
11.8999
68.8069
97.9553
127.479
113.77
94.2334
86.8943
42.6012
-1.78677
-23.0113
-44.4159
-34.0108
8.64643
15.3692
24.5833
44.4867
82.9329
75.0766
60.6684
54.4163
39.4896
-14.2598
-90.5533
-129.963
-97.3413
-76.8772
-67.6544
-52.8729
-40.5485
-20.4252
-9.97356
-3.9595
11.1354
6.89669
30.1306
79.0434
82.6558
86.2729
75.0951
38.6192
22.3084
-8.38827
-11.6728
4.29294
-18.6835
-44.872
-68.0021
-65.9223
-45.8655
-13.1032
42.4838
60.4437
90.8685
65.6559
1.9138
-170.055
-201.916
-77.2429
-21.1796
-36.051
-43.6771
-31.5442
22.0386
76.2271
119.645
136.021
151.93
103.283
58.7232
36.2512
5.79395
-29.0853
-77.6857
-63.3099
-43.4257
46.0304
110.361
54.9158
-2.32121
-3.46692
-45.7335
-28.4971
17.4823
-42.2561
-131.711
-182.111
-125.179
-109.503
-157.98
-180.104
-112.107
12.9188
29.6439
10.1967
54.0126
133.143
171.379
142.227
126.318
134.919
124.865
100.426
73.6455
74.0569
99.9468
121.349
74.2837
64.4264
106.735
157.653
132.449
-57.0584
-181.017
-213.549
-262.001
-205.366
-187.951
-230.727
-209.529
-220.403
-223.02
-200.666
-172.391
-72.1921
48.0066
145.714
174.479
191.499
190.486
208.286
240.224
235.383
184.131
95.5304
75.7084
21.3219
6.51371
100.243
51.0462
-37.942
-64.6389
-64.3629
-30.4984
-126.665
-236.457
-279.699
-232.849
-129.432
-80.9378
-112.71
-161.104
-55.7329
65.5725
172.713
201.566
198.945
177.523
137.205
151.977
182.509
185.753
164.824
125.011
119.389
99.466
88.6061
16.9337
-82.6053
-106.358
-130.257
-197.248
-220.764
-225.595
-217.021
-221.372
-233.143
-203.075
-119.084
39.1866
102.26
53.407
-18.0018
-58.6086
-45.9066
-49.1349
-62.7076
-15.9943
86.5231
121.61
124.601
125.871
64.8962
63.2674
114.086
155.919
161.889
154.583
69.8801
-29.8221
-38.4158
11.1037
88.5857
92.3629
59.7076
31.8261
22.1575
1.81897
-30.4596
-35.3433
-123.784
-210.981
-243.837
-239.006
-284.107
-186.523
-32.5484
67.4736
112.067
90.3198
108.65
161.711
142.864
102.438
72.2992
86.2478
102.615
51.6996
-30.7406
-36.6475
9.71679
94.2044
111.225
90.033
127.69
54.5878
-77.9501
-172.971
-206.646
-179.693
-144.688
-142.225
-122.934
-63.2487
7.91112
43.9001
53.952
63.7083
25.69
-53.294
-63.4567
-55.9098
-46.2396
7.222
63.7352
82.4559
93.8901
87.6596
61.2404
16.8552
-27.8483
-67.2605
-74.7865
-55.0425
-28.4568
-27.1989
-31.8938
-19.411
4.0762
62.9488
128.259
122.625
144.249
107.193
6.34605
-54.0477
-45.0178
-49.656
-69.3058
-53.1249
-33.2856
-29.124
-45.9992
-88.4216
-55.3882
-0.546892
17.3639
16.115
19.3673
-9.66475
43.0798
78.9915
95.1796
82.6301
70.6689
66.5869
18.4243
16.3285
17.0182
21.669
24.2261
33.8022
35.5131
-8.64983
-42.3977
-18.8519
-16.7039
-11.9258
-29.5233
-25.823
-52.2704
-101.792
-167.758
-101.305
-32.519
-42.9464
34.4998
59.2389
-5.32953
-86.8013
-140.913
-150.841
-49.2747
97.1198
153.426
104.394
7.28518
-55.977
-82.2453
-33.168
14.5389
46.2358
54.5593
39.2683
33.6275
77.9589
84.5655
96.0922
97.2187
116.682
208.109
232.863
127.841
19.9449
-91.8389
-184.99
-169.812
-91.4265
-30.1553
-52.7147
-106.592
-99.6853
-71.642
-69.1402
-23.6928
-32.3018
-88.283
-120.029
-74.5556
-0.138804
5.03057
-0.0958876
21.1673
37.5411
74.8784
119.348
153.528
112.262
69.0162
35.5809
5.5469
-13.1027
11.2953
57.7091
84.2206
82.6901
19.2486
-29.5867
-36.2642
-77.2581
-100.571
-85.5299
-112.263
-147.946
-131.435
-58.0329
-15.2503
35.7501
76.64
43.2843
23.6068
25.6396
11.7087
-14.4008
-27.962
-18.0809
13.5966
51.2794
99.2502
98.891
26.4395
-38.2148
-15.75
70.7512
81.999
-38.2566
-97.0112
-83.4097
-69.1346
-21.2394
21.777
48.935
55.3251
23.4159
57.6205
128.281
126.208
72.2134
-27.5946
-109.958
-187.835
-199.242
-108.568
-2.87179
48.3269
87.4609
86.8888
23.3485
10.6813
31.7712
14.9596
0.749709
7.0717
29.8108
-21.5012
-59.9895
-37.2776
5.4328
40.7337
105.212
178.362
144.115
31.758
-108.094
-217.625
-251.946
-250.808
-137.527
23.3089
59.5771
12.8167
4.45225
50.1143
60.1096
12.795
-14.1001
-18.8607
-17.2008
26.5208
38.3538
27.2885
116.698
157.165
116.382
109.621
92.304
54.2646
-43.141
-140.299
-140.401
-41.4013
8.21633
15.1604
24.8949
37.2223
40.2992
30.0404
1.36874
-48.5195
-89.5331
-56.9579
-33.3762
-35.0054
-49.7861
-40.1482
39.3423
83.2898
69.9089
46.3372
20.2786
-20.7406
-11.9405
11.5007
9.5374
33.0142
-20.6738
-142.681
-246.656
-201.861
-149.616
-80.3376
-21.8448
8.41927
37.9462
68.5261
173.628
249.626
253.938
178.094
66.9131
-8.34685
-41.9302
-59.3012
-63.5895
-82.1189
-54.4668
35.2476
67.267
53.3674
64.759
65.5082
10.2901
16.514
82.4747
50.0813
-30.117
-82.4413
-133.714
-192.4
-179.862
-117.623
-32.5635
-9.12381
-18.1708
14.8806
55.9631
74.1933
110.659
106.343
22.8948
-7.78009
21.4975
-11.7563
-42.8594
-28.622
-9.36323
35.75
54.106
61.1606
64.5616
17.3444
-55.1411
-79.1459
-85.9393
-138.119
-123.024
-27.9095
12.8189
-19.445
8.98405
41.859
71.3646
80.0029
27.1529
-47.0839
-114.034
-86.7544
-6.53481
82.0931
126.996
120.302
79.62
81.1086
83.7813
47.1457
-30.1515
-39.7364
21.857
53.9913
13.2879
-16.4883
-43.6762
-21.5406
36.9248
117.003
108.085
0.132276
-79.1151
-106.167
-148.398
-188.076
-173.968
-150.457
-108.604
-34.9037
59.9263
103.81
81.8013
40.4937
50.7835
25.1115
-0.131641
1.90043
26.1138
5.49389
-3.64496
-32.1891
-44.5498
-34.2562
39.0321
139.63
150.605
86.9429
35.6156
-11.165
-40.5536
-33.4336
-44.715
-50.9193
-33.3989
-14.8211
-42.2981
-36.317
-12.1899
53.6369
60.2279
45.2469
-2.30282
-14.6798
-3.59106
-18.3886
-14.2711
13.6939
29.5107
14.7429
-23.6945
-41.0286
-42.09
-42.5175
-20.9111
10.1237
49.5055
9.15964
-31.9774
-40.5467
-11.0082
11.1702
66.9935
30.1956
-49.8245
-29.8889
17.2618
57.4105
68.6908
75.7831
60.1935
-28.0256
-75.6407
-53.5022
-20.2214
-11.6936
-18.4768
8.3642
28.0633
-1.73555
-6.30177
-5.99244
-22.8268
9.73268
64.8501
62.3739
7.2609
-51.8004
-97.9714
-115.544
-58.141
-15.1164
20.7284
63.3266
118.703
98.9817
34.5783
-19.1132
-31.9974
-55.0553
-76.4861
-58.9492
-52.7827
-36.934
5.16084
84.1572
80.9281
42.1398
9.55874
27.9747
59.335
109.834
116.632
83.7919
-17.5286
-115.701
-148.537
-146.176
-214.883
-203.163
-128.66
-41.8751
25.4126
96.0025
60.2436
6.377
25.7278
73.9111
81.597
74.4598
61.5727
62.4612
103.885
125.622
135.087
94.591
73.8549
30.0195
-0.838068
-22.2239
-26.2999
-60.3158
-36.0354
-13.6555
-11.274
-67.4246
-100.752
-70.4736
-21.4102
13.3988
-20.0519
-131.06
-217.934
-197.374
-159.505
-88.9093
27.0012
131.617
169.133
147.896
133.582
133.599
102.112
56.488
58.4594
57.9124
14.2663
-58.0737
-119.352
-116.334
-122.88
-131.937
-57.7174
13.1509
2.26207
0.607183
-32.1672
-55.3846
4.15375
90.7167
76.6385
45.7763
17.7067
5.49523
16.1084
42.0314
42.7905
48.4943
69.0026
46.9054
-3.38927
40.0429
31.7315
2.19277
14.9271
13.937
7.68735
39.7156
52.2436
13.6241
-51.2393
-98.2709
-111.896
-86.1497
-45.8267
-33.9416
-34.1454
-38.8392
22.6551
40.9196
30.5571
-7.43165
-27.89
-12.3027
-13.5769
5.96164
11.9823
-8.58462
-20.1501
13.5622
76.0134
60.8147
-15.4213
-99.6085
-127.437
-128.735
-40.9151
21.2304
40.3575
69.5005
102.263
115.889
89.7433
20.9312
36.4144
88.7265
100.211
63.2239
6.19557
-109.797
-220.265
-209.831
-130.093
-132.127
-79.4711
31.6563
85.7564
65.4061
64.2306
109.039
123.767
108.459
96.9267
54.3514
-0.194409
-49.5655
-57.7882
-62.9997
-48.2745
-9.41382
48.0117
100.678
104.325
139.392
101.217
32.717
-26.9454
-81.9782
-117.871
-112.783
-98.8177
-114.281
-103.462
-64.4216
-11.798
17.2881
-7.13556
-28.7972
-17.5643
29.7673
57.165
38.1428
12.8197
-2.92635
5.07088
-11.6309
-41.1373
-40.187
-21.8792
-32.8792
-41.0793
-65.9819
-58.8843
-16.339
-8.78919
-11.5899
23.3668
87.889
52.5199
36.7764
66.0398
108.382
154.37
161.133
93.5003
53.1955
49.3545
33.5067
-11.8863
-69.3404
-90.8811
-6.66615
41.2663
50.0137
-2.81472
-70.6819
-90.8948
-102.872
-70.4003
-34.4255
-42.2705
-66.2605
-92.424
-93.9211
-69.0658
-78.1177
-56.098
29.1662
80.9767
111.708
111.871
82.7389
29.6525
-6.82413
41.9701
69.0389
80.1618
59.6635
34.3249
1.24011
3.27858
7.97093
13.8827
-15.1637
-48.5758
-47.4744
-92.5941
-107.044
-59.3626
-29.1766
17.8918
2.9187
-15.6813
-14.9516
-49.3695
-35.1663
-15.2208
-31.6369
-14.5118
24.1345
31.3751
57.1284
42.6465
38.7763
19.1373
-21.2597
3.21885
29.3947
2.64379
-24.1459
-24.5137
-2.90559
53.2863
70.6367
56.4107
41.1909
14.4859
-8.54616
-2.36415
31.8042
48.64
38.4936
-0.0263121
-21.6842
-14.3984
5.13117
-5.34206
-36.8652
-72.0806
-90.7204
-77.6989
-74.8121
-62.7034
-48.708
-41.1654
-12.6071
29.2271
74.7352
98.9426
96.1228
55.9892
2.90732
-11.3975
30.4684
58.6458
46.8243
56.7897
14.7556
-40.7309
-88.4081
-104.403
-35.4887
-6.36662
-10.4343
5.36177
41.4934
32.2143
-15.1581
-26.8585
-34.2728
-29.9295
-29.1997
-27.3839
-36.1034
-30.5082
-23.5449
-2.74038
51.4076
64.4514
55.3987
63.6397
25.2574
14.3674
33.7556
38.298
-8.50238
-29.3932
32.1052
44.6575
-43.5381
-82.7818
-46.3503
-25.9659
-5.92908
-20.7935
-16.1446
-14.9562
-38.8255
-11.3865
61.6878
74.3809
80.5725
65.0408
33.8009
-9.55395
-42.752
-102.731
-131.064
-105.254
-84.0732
-55.0546
-21.1905
37.003
60.3077
92.9008
129.836
107.616
60.4603
46.5177
39.6334
21.9719
4.49591
-40.4631
-14.1588
26.9104
17.7422
4.80637
-31.2155
-63.8836
-35.5404
4.88432
-12.9876
-40.765
-57.6004
-30.5639
-23.1268
-37.1707
-31.6496
-26.1967
5.26278
30.0452
49.4539
91.4408
0.636022
-94.4747
-68.1183
-0.305539
43.5584
32.5144
18.8705
20.5749
43.6762
76.7584
41.1105
-7.41529
-19.0144
2.13092
25.6881
27.844
-23.877
-39.5457
-41.4075
-68.7713
-83.0972
-43.077
-11.4439
-15.7898
-6.8712
48.8164
32.2469
-42.1629
-43.8459
-23.4656
20.4221
42.8697
71.4192
94.3762
72.2532
0.528773
-16.4686
-21.1485
-61.2422
-72.0867
13.7379
64.5665
76.9479
64.7564
24.1591
-35.4951
-14.9025
32.5475
30.8613
33.7414
48.8553
-2.84848
-72.2425
-119.2
-101.682
-67.6807
-49.6018
-36.2898
-26.6199
-4.16378
19.0019
37.8672
19.8318
41.1364
52.7445
36.379
66.6135
86.2218
24.1252
-62.5943
-94.4901
-57.7601
-7.39965
8.11782
32.8642
34.9981
19.2019
-19.9446
-18.9718
-16.5068
-5.73074
27.0754
50.2029
16.8381
41.6312
33.7947
-2.98222
-46.9792
-61.6923
-48.1951
-20.4981
0.357174
-42.6051
-64.5767
-92.6288
-100.868
-45.4453
-20.7436
-18.4547
33.654
56.8715
41.2282
29.9888
73.7768
93.8867
97.1488
89.0964
63.5324
53.5031
65.3705
62.6709
12.2428
14.5509
29.457
21.1353
34.9774
-4.78865
-6.18211
2.28416
-39.0553
-69.3154
-95.7221
-96.1456
-63.978
-94.2022
-133.997
-143.113
-108.78
-44.2268
9.16152
11.0778
40.7598
37.9751
-5.10788
-27.9609
2.09767
40.4008
64.5307
69.2192
48.0435
34.4151
53.4459
31.4748
20.1403
40.161
63.1692
40.4971
21.1326
0.0790602
-22.4569
-35.449
-23.8848
5.08417
40.4603
67.6808
68.3354
58.731
15.3245
-10.6246
-31.5938
-98.4542
-141.209
-98.0593
-80.4767
-29.7625
57.2176
102.014
84.8635
25.1944
5.18427
-46.0375
-135.697
-156.853
-101.154
-27.8671
1.49127
12.1851
30.2961
50.5312
46.2027
52.5216
81.5631
95.5828
66.1629
18.9524
-5.45599
-6.59348
26.6183
59.9221
35.9378
21.4491
35.9244
50.3562
-1.21986
-30.8327
-44.7167
-61.7629
-67.2529
-62.6498
-22.6452
12.3868
0.101389
-45.4163
-55.991
-25.8787
-36.4701
-39.7039
-44.7964
-47.0841
-33.7974
11.4701
12.3945
-25.9811
1.25079
7.78177
30.4398
48.4638
60.4005
55.7517
60.409
57.4896
34.5928
13.4491
12.6474
18.785
10.1972
-16.7505
-14.1353
28.4642
22.8872
20.4243
46.0464
45.8169
36.8464
25.4105
-6.11911
-42.6604
-87.4172
-71.4314
-62.0821
-80.9892
-54.061
-31.3478
-55.0281
-55.3557
-46.9076
-38.3448
-15.8941
19.5947
44.413
32.6361
34.6869
71.7938
42.9295
1.10471
17.8453
47.9598
55.3525
41.0102
50.3014
34.3039
20.9069
31.0445
22.384
-20.5859
-50.1793
2.28394
35.728
-2.3379
-13.0946
-28.6879
-34.9887
-50.0394
-49.2466
-42.5174
-56.4317
-59.9002
-23.0351
8.39448
0.755915
-12.7542
-28.3112
-10.4588
38.4865
51.7743
31.1666
23.3818
11.4286
7.19455
-12.8726
6.89064
39.6497
28.0853
37.2919
46.3566
44.528
0.0339144
-46.4676
-51.0748
-64.6747
-46.1756
-30.76
-1.7728
4.27767
-20.8116
2.91516
-13.3142
-1.89353
41.9857
108.48
112.312
52.0051
-24.0281
-67.2641
-91.1706
-135.071
-105.131
-22.0856
-25.3166
-36.4379
41.4063
100.766
78.1114
76.0248
83.9412
88.3631
84.5135
17.4948
-60.6662
-65.8434
-52.6732
-16.3409
30.7349
39.2333
42.3241
50.9542
29.5258
29.0147
4.4907
-16.7622
-39.4646
-61.5741
-89.7199
-86.8612
-77.606
-61.6317
-51.4734
-48.6208
-35.637
-44.8749
-51.4727
1.83812
35.5435
31.1356
32.5934
14.9454
12.6907
38.0388
59.6098
76.134
55.9085
15.3787
25.0216
23.2139
0.666709
0.0148548
48.247
71.6869
48.7454
15.4717
26.9541
-9.56411
-48.8653
-40.7576
-7.9254
22.9079
15.8701
-30.0671
-26.2512
-4.97198
-23.2704
-29.9562
-74.8443
-109.936
-69.2924
-53.6308
-56.6911
-24.9097
-5.8502
23.3465
44.3786
52.7395
41.2477
27.6689
24.8705
21.9748
18.2853
-14.3315
-8.45747
-1.66208
24.9945
81.8143
100.622
91.274
58.0593
26.7829
-4.04465
-6.64993
12.0132
-7.23325
-53.081
-57.993
-14.6335
35.2272
27.052
8.91907
-36.987
-108.954
-146.44
-126.453
-101.064
-63.7977
-2.37154
34.715
50.6894
61.1326
44.0181
1.23667
-35.4223
-16.3169
22.6394
12.7185
1.10613
-12.4049
-17.9221
-2.78317
40.0123
83.633
75.5056
76.1421
51.781
6.17401
8.7939
24.4592
10.0121
4.0161
-8.33531
-11.9188
4.43716
5.15326
-3.0993
27.1797
62.0715
26.9838
-9.61875
-40.1249
-100.391
-102.528
-62.6374
-67.0006
-43.6932
-20.9985
-27.6561
-23.7407
-2.94117
28.7371
19.8361
1.57237
-13.5056
-12.2208
-1.52748
-30.7898
-27.2658
3.97233
19.1944
34.2432
125.626
149.33
108.161
59.7735
31.9208
38.6966
18.6577
-17.4818
-13.9561
2.61105
6.99945
-7.05924
-30.217
-53.8459
-61.3523
-45.0722
-46.3956
-53.3688
-45.3488
-59.3524
-81.7529
-88.0272
-80.7171
-2.8196
80.6046
105.614
95.9313
68.7592
-4.77522
-59.5845
-71.0148
-31.8084
20.1931
14.5094
-5.57825
0.429396
21.0697
30.4739
-11.613
-14.9591
19.326
83.7473
92.5119
54.7509
-1.46888
-46.8744
-36.9924
11.7766
48.1148
10.5952
-15.115
-31.2778
-48.0212
-58.8353
-22.1117
-3.2028
-20.961
-25.07
27.7505
70.0579
70.3055
68.8692
70.6686
-1.24734
-41.9064
-89.9627
-134.344
-110.369
-50.434
10.5647
51.2958
63.3978
89.5011
113.588
105.28
47.2301
-44.0435
-145.713
-109.677
-42.9624
-5.39502
-20.5451
-29.6279
-6.04476
-16.7529
2.84031
62.6453
61.7574
30.6706
-26.1166
-42.3177
-8.05809
-0.19818
7.59808
10.7723
31.8464
60.8262
63.3644
32.9058
13.9098
-25.8129
-52.1953
-22.7751
11.0626
25.1634
8.65655
13.4894
-13.6508
-40.7248
-4.56309
29.7712
44.0865
28.2211
-44.5913
-109.617
-105.734
-76.5608
4.18813
53.818
55.5587
42.8609
21.8519
-31.2639
-71.9146
-59.435
-12.6233
-7.7264
0.152897
38.2057
61.9154
91.2924
135.744
82.6484
-22.1648
-84.5002
-114.803
-82.5955
2.12082
60.9585
77.1536
24.1375
-7.34937
-58.379
-69.7572
-35.4758
-11.8013
-19.3707
17.4429
40.6073
32.5535
26.0451
-15.0993
-2.28009
70.174
106.982
84.9762
66.025
12.0771
-45.7102
-38.5548
-16.2256
-12.9892
10.7292
26.7367
18.241
-21.0625
-67.7992
-88.3966
-97.8559
-107.552
-112.657
-93.8163
-59.3331
-3.71811
37.3806
51.4272
47.1677
34.0481
11.666
-19.4822
-16.6346
28.5529
71.2483
72.4163
60.0664
58.66
60.9114
40.4667
-6.4003
13.7083
8.40437
-52.7875
-92.2553
-35.692
22.7574
41.0432
10.6963
26.4976
15.4675
-38.1857
-38.1972
-14.4445
16.3878
32.6982
24.9621
5.54796
6.42469
62.2523
77.0807
53.1199
-20.2251
-101.404
-96.2926
-88.8609
-111.495
-98.7335
-72.9301
-63.814
-20.7846
17.1987
23.4079
29.3422
80.4058
139.047
139.263
107.654
86.159
57.2884
-2.18442
-79.2002
-80.0788
-80.2462
-35.2637
-17.4803
-15.5245
23.2337
74.8679
91.1726
47.8319
-9.30698
-48.3964
-37.6307
-17.0057
-24.5341
-59.1765
-50.487
-15.5604
-32.9815
-25.1052
8.32946
34.5987
68.0481
56.2725
29.3324
26.344
2.47437
-21.6539
-66.3625
-61.0716
2.11386
47.5703
28.1477
-19.6339
-52.9528
-87.9873
-82.8478
-64.4094
-20.5041
12.594
31.5627
58.5882
57.9122
5.02157
-9.85789
4.95183
11.7157
24.9321
54.539
29.9649
-3.20962
15.5389
37.3657
25.2851
6.68314
9.31996
25.8157
33.0925
-5.73461
-6.72754
-6.16096
-1.36074
28.7241
34.2298
20.9909
3.14559
-16.8116
-49.1615
-66.2254
-55.2749
-30.0714
-0.0473103
-52.7964
-87.5183
-130.126
-101.485
-36.0148
-49.2017
-54.4827
20.8498
66.8957
108.246
152.207
177.75
128.495
78.8614
52.6388
33.3349
38.2095
31.4512
-22.2512
-65.4763
-38.2666
-21.2496
-1.48687
-12.311
-59.1882
-57.3916
-19.6902
-15.0851
-29.4998
-32.641
-43.3629
-48.3287
-21.8222
-21.536
-5.86415
30.5792
15.5079
18.4201
46.0531
7.24535
-67.6679
-92.7372
-47.1164
14.6047
36.6239
38.7972
2.11763
-9.872
6.12684
-33.6347
-34.9718
11.8153
54.2672
76.1408
53.847
4.01106
33.6701
69.2392
61.0342
47.3273
69.52
66.992
42.5451
26.5207
10.1227
-57.2418
-86.3283
-82.7163
-87.2676
-93.9394
-84.5935
-71.0403
-103.894
-104.232
-51.7013
-0.948605
27.6936
46.3422
65.98
78.9799
78.0931
68.315
49.4931
54.8541
61.6553
48.8598
12.7531
-19.641
-27.86
-29.1164
-30.3906
0.412862
48.9192
42.8252
15.8216
-25.269
-59.1707
-72.6943
-42.7057
3.23489
16.0306
-30.9202
-57.3035
-93.942
-82.0243
-24.6939
29.3931
59.0398
96.3012
103.751
92.5203
36.1519
-25.8229
-40.1242
-41.0891
-45.0485
-28.3561
12.6936
34.6277
-5.96999
-48.8413
-8.48793
52.9824
73.6004
47.1433
32.2029
12.4776
-28.147
-32.646
1.24029
-14.1826
-63.8539
-56.8123
-14.4652
1.4918
37.2136
43.5358
9.10824
-58.5258
-96.1808
-78.8492
-27.737
14.4003
20.9703
22.9823
30.7359
67.7774
75.7855
33.1788
9.08573
10.1786
18.8809
-70.0844
-124.835
-73.1212
-17.583
-14.1542
-7.01375
38.2653
87.1304
102.862
45.8083
21.906
46.7019
51.3381
35.2481
9.26466
-16.9458
-32.6434
-5.10106
29.0138
69.0594
94.2845
70.3408
-10.9473
-48.7479
-57.5339
-87.8524
-122.738
-129.046
-88.0343
-47.618
-83.1801
-104.285
-78.3398
-38.1893
-7.69899
40.8793
70.6191
75.821
76.2022
48.4353
70.3563
96.572
53.0843
21.8458
15.2485
17.1673
17.113
32.692
25.5284
4.19696
11.367
-44.7449
-37.1653
-12.7477
-9.65111
-16.0402
-17.6631
-26.5271
-34.5765
-44.5748
-41.8121
-35.2526
43.1131
67.7162
41.3803
24.0746
0.598495
-23.0883
-40.3577
-13.5942
-16.2235
11.6627
22.921
9.97123
-22.4356
-35.3613
-34.1897
-35.6266
-41.6149
-33.4995
1.01672
7.79524
-9.14156
0.227825
49.5063
37.9113
41.8201
73.5
70.5189
53.0632
40.4882
15.2493
14.7955
36.3571
16.9304
-7.6154
-18.5973
-17.4048
-3.29469
-0.370027
-15.8318
3.11997
18.3022
0.322347
-63.2408
-96.4438
-87.0629
-65.5917
-36.0907
-30.5363
-28.7307
-44.7213
-53.9302
-55.0011
-6.70407
59.4139
52.9505
22.8093
26.9409
33.1587
41.8681
56.3519
31.775
3.77818
17.7352
50.4716
52.4392
21.1217
24.9125
31.9919
37.2067
60.8363
39.915
-0.0460611
-32.387
-82.8207
-42.8536
-33.1532
-69.3503
-74.5635
-42.7436
-1.81696
15.6738
6.54662
-9.9706
0.742415
1.1696
-15.0598
-40.3801
-74.6595
-42.6739
-18.7246
-36.4275
-19.063
20.0801
47.6104
71.1718
87.721
86.521
77.0126
77.4561
16.9131
-16.1339
13.6994
35.9662
13.0268
6.90814
21.9661
11.4757
27.618
9.45297
-5.39279
-63.7691
-103.033
-137.813
-146.769
-103.306
-61.8645
-53.1233
-18.7543
-9.92738
22.4577
67.7147
68.5672
68.8145
60.8953
46.851
39.12
12.9819
14.5427
17.2274
54.6426
110.716
90.6436
52.1163
26.0009
-11.008
-17.9607
-12.6979
-19.337
-39.2471
-53.5544
-88.2577
-79.8983
-68.1352
-74.7383
-72.1336
-44.9715
58.4624
84.13
16.6009
-54.926
-82.4581
-54.5274
-8.00693
4.91213
7.82647
19.5071
19.1572
23.8837
52.0462
41.509
26.0495
8.99168
3.38655
44.1595
139.834
167.728
81.9845
4.34282
1.23549
-14.3114
-57.6682
-95.3155
-111.481
-109.079
-111.58
-79.5369
-24.1752
22.2889
44.3139
41.073
30.762
38.2454
37.2499
23.0494
-22.8809
-91.7095
-93.9095
-17.2924
73.745
128.132
161.021
116.602
29.8234
12.1547
25.0054
-16.4935
-63.875
-68.5946
-94.8065
-32.6459
-3.54904
-39.1511
-80.2078
-77.5856
-68.2321
-42.929
-31.8051
-56.5201
-60.4368
-29.945
20.4
94.7473
171.665
191.141
142.722
70.5668
33.8404
-8.39504
-34.5716
-84.9822
-71.0515
-26.9165
-15.0875
-28.6967
-23.0814
19.6275
44.158
26.0765
-3.16997
-15.18
-26.3108
-25.3752
-11.3983
-22.1952
-48.6254
-6.67602
0.695096
-39.8681
-23.712
12.3035
-3.59996
-16.2266
15.9642
48.9754
29.5188
6.37325
11.607
19.8375
-2.41666
-36.1613
-21.2265
35.1787
46.0087
28.7232
51.5164
60.7411
79.3642
122.689
136.894
58.4274
-71.0347
-172.13
-160.308
-165.153
-190.951
-169.54
-88.7987
-15.1707
37.1981
85.9295
80.5506
74.1299
85.7509
126.825
103.133
17.3938
-39.9348
-80.9556
-121.734
-95.8858
-1.95321
67.8501
72.6715
97.0714
134.646
105.666
24.2746
-43.9378
-62.9363
-45.9521
-20.511
-12.1919
-19.8581
-14.7401
-1.37935
19.0176
-9.63929
-58.5092
-67.5237
-83.1582
-56.609
28.6996
66.7814
37.0769
16.0981
-10.8944
-25.3684
-2.59969
8.49858
23.3407
8.577
15.8032
10.9951
-41.5675
-43.8764
4.9635
42.3452
47.4015
62.8957
61.802
56.5256
32.7478
2.67406
8.51069
1.76287
-9.84015
-28.095
-50.354
-67.0536
-84.2486
-81.2735
-82.3418
-55.9287
0.714807
42.995
31.9977
12.186
41.6104
73.1173
77.3408
33.1253
-46.5397
-89.7189
-100.224
-71.1025
-10.2204
34.718
69.3178
93.5774
90.7724
57.1699
38.9782
8.97796
-40.1799
-64.437
-73.3526
-26.8298
40.8304
15.9603
-43.7461
17.0555
47.21
6.52824
-7.79561
-1.15993
23.902
10.4687
-13.1613
-4.46408
11.3403
27.4846
37.6645
41.2201
33.9971
9.86803
-48.676
-34.7555
2.21183
-3.43586
-2.90203
-71.7999
-89.0135
-58.6098
-53.4316
-28.9854
-28.0321
-7.35848
24.4932
33.9397
16.2796
6.95747
-16.5806
-2.97224
24.8406
30.0536
51.5571
32.413
-5.44775
-6.77025
43.3327
75.1965
80.8406
37.7592
-9.31899
-35.7052
-39.1115
-34.9327
-33.9128
-34.016
-45.2165
-40.6944
-1.15962
20.8665
19.9088
19.0751
24.7593
6.47498
-22.5857
-18.4451
10.9519
38.8889
42.5345
52.2389
48.5442
-22.2632
-9.97066
-20.6824
-50.0384
-69.2121
-66.8124
-61.899
-26.5221
-25.0477
-27.9873
17.2502
56.574
43.4071
7.27975
-49.9875
-91.8996
-58.8502
12.8647
94.4237
126.156
105.456
35.6551
0.134814
-11.1483
-0.618684
22.9246
36.2754
20.425
9.56177
12.3308
-17.0003
-42.1369
-21.8321
9.58317
26.6607
24.6418
42.3655
10.4306
-30.7379
-41.8816
-26.4108
-25.1137
-25.0729
-41.2568
-45.7285
-39.339
-26.6343
-42.9431
-42.8735
-23.331
-10.5546
-12.6933
-8.08296
18.8735
53.2558
62.3303
18.4695
3.26444
-15.5308
-41.0427
-18.3997
-1.60553
15.2465
57.9746
56.0784
56.0148
67.343
48.2457
0.681528
-35.1475
-42.7182
-17.6429
14.6233
-1.11755
-25.8138
-47.3766
-54.4956
-68.2107
-70.9499
-23.9051
33.2285
65.576
72.4223
78.4785
91.1718
87.9397
73.5081
45.27
1.73932
-42.8957
-57.5369
-68.9381
-108.856
-130.146
-68.0949
0.398559
27.2801
54.7845
60.9683
39.8393
-0.920223
10.6449
26.8053
26.7735
-7.9862
-59.5839
-71.3542
-63.4566
-8.9734
17.6942
-27.3464
-46.8037
-10.8096
28.1796
33.1028
39.331
38.4354
26.0591
20.5117
26.2337
22.5564
14.2829
2.51024
-17.4305
-17.7729
4.04433
4.89748
-15.6703
-43.3736
-41.0793
4.2377
25.5355
17.8809
8.43944
8.13382
6.51648
-4.90702
-10.6767
-11.4162
-7.03203
-11.6879
-33.3757
-14.1301
-5.41402
10.5242
26.9612
2.53045
-7.55279
42.4276
74.2243
48.0338
26.8956
4.45935
-1.22062
-11.7872
-54.3025
-68.5024
-40.3976
-2.72887
10.3843
29.0854
33.7559
-1.69819
-9.40756
8.41434
-2.87913
-18.976
-11.8265
-43.4291
-53.5869
-27.1403
-0.575784
-4.92109
-6.60415
10.0465
46.8173
73.9275
44.1694
-11.3092
-37.0582
-0.282453
-2.54246
-13.4783
-21.2076
-31.0041
-36.3576
-24.1756
4.90382
40.176
59.9504
44.0566
40.9966
61.8386
67.3483
23.3216
14.089
0.617163
-8.43987
0.627077
11.2353
-2.53399
-13.0349
-38.7022
-57.9841
-66.5467
-61.2647
-76.8414
-96.529
-77.6944
-40.195
-2.77974
3.02618
42.2471
38.2234
19.3872
10.6448
28.8152
52.2195
73.2222
57.3125
0.276241
-16.8515
6.0731
2.77149
-2.27834
38.3731
73.098
50.4525
21.5777
-13.9612
-17.3986
0.791526
-5.41867
11.6272
25.729
12.975
-17.9093
-57.2634
-72.4831
-65.2677
-66.7495
-66.0391
-3.77251
27.0677
6.31068
-51.5445
-50.7721
-0.70529
39.9619
60.1576
29.9619
19.3729
14.2498
5.68039
1.0706
-0.576335
1.53348
27.2537
44.0192
40.354
36.0302
35.2856
-6.62751
-17.8213
3.6385
12.7276
4.65681
18.9982
20.1615
-27.7847
-52.2288
-72.1974
-69.4359
-10.3737
4.98926
-24.4285
-22.0005
-39.9206
-53.5387
6.45698
51.3181
-8.4516
-61.2895
-35.3633
0.17358
40.8282
48.6767
34.7431
24.9778
36.4526
67.6445
75.2012
66.7451
53.2862
10.7203
22.2685
29.6256
27.6149
-8.6505
-78.5851
-76.2599
-8.35341
35.2059
19.3994
-18.0823
-60.258
-75.5768
-55.1874
-30.6811
6.66624
3.61942
-12.2866
-29.9282
-53.0529
-38.7139
-10.563
-20.5167
-24.7329
8.92444
24.9248
-7.81238
-9.51363
8.96355
3.06213
0.205071
46.22
118.343
115.899
67.9454
43.5613
3.35231
-51.4787
-92.631
-97.6779
-52.2571
-8.27343
38.6381
54.0904
57.8367
52.2828
27.3933
15.426
24.8734
34.638
29.7368
15.0147
-22.7102
-54.5433
-53.1863
-53.1476
-29.1453
38.0305
69.7479
42.5512
32.8784
14.6678
-36.0988
-46.435
-42.0231
-31.1188
-13.9883
-9.28204
-27.8399
-30.3591
-57.7462
-106.021
-108.748
-102.014
-70.4477
-14.565
20.8966
6.36236
-5.198
-4.7165
9.00735
37.4586
65.765
87.8602
118.645
115.772
89.0447
65.4291
33.4459
10.6903
41.9055
69.94
79.5258
63.1725
21.7043
-34.2702
-40.0183
8.51175
34.285
22.3205
15.7031
-48.5754
-101.378
-103.47
-130.611
-147.307
-86.3131
-16.7515
7.76082
10.5054
-4.71163
-25.9268
-39.7112
-25.2219
-19.4303
-6.44123
13.986
20.1622
38.4808
48.8596
13.0365
-21.0714
-9.15307
-14.4751
-2.93624
33.1348
26.8159
16.2526
28.815
46.8674
82.6265
100.337
55.9288
21.424
26.4361
9.77367
-6.60551
-42.2433
-58.0351
-42.9282
10.8186
57.3273
53.0593
35.0853
-10.9105
-5.82699
-18.609
-75.1401
-92.2856
-123.904
-131.985
-95.8368
-38.9896
6.47514
18.7577
22.0748
42.8755
72.9912
78.3729
59.0554
18.3831
6.75683
3.74688
-21.0908
-32.5737
-38.2087
18.712
75.2193
65.272
69.9284
40.1469
24.0057
21.7427
2.44362
-5.10336
-20.7731
-69.3847
-123.328
-125.038
-94.9065
-54.4226
-5.7725
25.0352
53.3917
105.765
78.6477
25.8574
-4.95827
-6.89715
-4.10876
15.5668
28.7955
44.8088
36.7829
-29.5183
-42.9092
11.9015
46.4815
17.6357
-6.94108
3.86519
11.3095
-15.9651
-28.6802
-38.0869
-54.2364
-57.9366
-41.2181
-4.25963
-16.4729
-18.8354
13.4777
2.32863
-10.8748
21.2567
37.3702
50.53
30.3242
16.7017
19.6142
11.9612
-6.43881
-23.452
-8.09734
-3.93713
28.4315
22.6043
0.48093
2.32563
18.3132
2.51685
-25.3526
-45.4606
-71.8364
-29.946
2.78502
-34.6463
-5.90767
39.8805
58.7611
39.3211
3.45691
-28.8508
-14.884
12.8174
16.8065
-14.9522
-38.1648
-46.5281
-2.42812
34.7157
20.5861
7.37333
34.7551
20.2557
43.9162
88.6519
89.9361
30.3569
-29.6377
-79.4866
-103.394
-59.6103
-17.9768
-23.5296
-2.01336
31.2863
27.6322
10.7952
-18.7538
-44.9615
-37.5388
11.7106
52.9681
60.5664
20.2813
-31.5769
-75.3846
-55.7741
-50.1902
-40.7662
-10.1866
39.2592
35.0861
3.45547
-8.4795
31.1483
90.169
86.6691
50.033
35.6361
12.1077
-21.0986
-78.1452
-94.6475
-66.856
-14.0369
36.7478
27.2147
29.3484
52.7571
83.4973
58.4911
-9.14256
-45.4153
-61.507
-109.224
-98.21
-51.2235
-7.25122
-5.44388
3.43107
41.8375
63.7793
74.5603
73.3958
25.4033
30.6402
64.9565
41.5755
-7.77138
-58.2879
-91.3323
-58.579
7.35195
-3.55813
19.1165
19.2735
-15.3516
-24.3394
-41.6324
-60.5767
-75.633
3.29104
35.3807
16.913
11.5909
-12.4108
-10.4328
32.5373
46.0167
37.8651
48.9998
47.3823
11.6636
-0.574208
-33.9909
-84.8633
-74.0867
-65.5595
-35.6089
22.6064
60.7874
38.7493
30.0042
28.026
37.0126
51.6223
54.7381
40.5312
12.8346
-21.4722
-26.1062
-63.6076
-72.011
-22.4184
27.7228
53.5951
44.8811
16.5355
38.7163
27.4259
-11.4908
-32.0959
-34.1708
-59.509
-61.6006
-34.5723
-52.4363
-89.626
-91.64
-74.1283
-52.9145
11.6932
75.1277
81.1512
67.6917
64.5687
49.3505
60.1827
67.6422
57.1512
56.0913
45.3428
20.1889
-9.17508
-68.9146
-128.314
-115.817
-29.1925
62.3925
88.1606
71.8343
60.5225
30.647
-39.4367
-51.6755
-20.2362
39.983
59.6179
18.5445
-33.7156
-67.9532
-138.993
-177.539
-131.77
-69.1067
-18.8114
19.6333
72.3141
63.859
75.3015
97.1752
89.6487
80.3006
85.1785
57.6671
3.24195
-65.7899
-93.2202
-92.9643
-84.967
-48.7381
41.9982
103.433
95.7828
40.2074
9.73363
4.28253
-8.75906
-17.0609
-19.9869
-21.5025
-31.6564
-36.0916
-22.2949
-15.0116
-2.60586
1.84935
3.99314
-11.8731
-1.07065
0.720594
-0.317657
9.09389
6.04678
29.1385
36.9264
45.1392
33.1215
30.9095
0.755181
-33.1344
-93.285
-113.347
-71.0585
-32.5494
-14.9529
13.9604
24.1077
33.2835
7.6165
33.8603
72.4045
59.8526
25.0377
17.384
17.5233
-3.44897
-43.6826
-65.2932
-32.6158
-12.0869
29.3836
47.69
50.6732
46.9196
41.7556
27.4051
16.5016
-12.8815
-57.6105
-111.789
-85.5434
-19.7813
27.5064
34.8245
3.38661
-6.1732
-9.47108
33.3163
72.7909
58.7909
34.8316
-13.3807
-28.1614
-37.5654
-55.6196
-56.6668
-50.7755
-14.9148
40.4054
36.325
4.1007
-24.4422
-18.3222
-13.0073
-10.0591
-12.8286
-13.3593
-13.0095
3.58696
20.2013
20.9935
51.0742
60.8291
64.9166
24.4274
-14.0488
-72.3507
-93.8996
-70.0692
-56.0766
-60.3808
-36.7852
9.2615
76.4198
123.536
102.017
46.8173
20.4687
23.7869
31.7208
-1.34089
-36.8046
-32.2106
-19.7928
3.69874
15.0567
35.4035
39.6954
32.6189
46.6042
35.6652
-8.76676
-35.2498
-43.0951
-47.6336
-59.2191
-42.5588
-10.3318
-27.6975
-53.9438
-47.2935
-14.6885
-15.6795
-35.5293
-23.8819
-2.32775
41.7065
60.1259
46.8439
34.9878
11.5073
-11.7853
-8.89873
-3.37825
-22.5276
-18.3299
21.721
-2.72586
-36.679
-74.4544
-49.6703
-19.3733
-36.7941
-19.1206
49.7011
70.4682
72.1979
73.7307
75.3243
55.057
33.3024
15.7049
1.80218
-14.5559
0.357603
15.479
-18.5711
-3.16119
0.891613
21.5093
