17.6136
10.7138
-23.0066
-57.6643
-42.2122
-31.6264
-19.8299
-7.82984
-18.4273
-18.7591
-4.72116
-14.5809
-19.1677
-45.8543
-46.7568
-9.55148
12.5121
22.3068
16.7287
20.8365
42.493
37.4825
27.8578
48.2321
41.2198
37.2962
25.5524
22.9586
36.1512
-2.57054
-37.5733
-51.3474
-36.7153
-19.3584
-15.8549
1.97027
5.3124
-19.2149
-1.84971
8.03073
8.13927
9.8076
5.77339
13.6215
-10.4349
-25.5978
-20.643
-14.6991
-23.8627
-8.02974
0.673083
-1.61953
-16.7597
-46.6622
-15.5172
4.71495
-0.69525
39.2673
55.2398
44.0292
33.0421
33.2294
-1.07164
-4.78071
11.2883
0.195203
-12.0109
-24.1352
-47.5165
-42.2667
-12.2279
-13.1644
0.566174
14.2476
10.6288
4.64367
-0.913774
-0.902303
1.22005
29.9243
54.6885
25.8449
29.8105
0.400929
-12.7065
-21.4312
-37.9857
-25.7898
-4.83121
-32.3765
-48.5759
-35.3658
-4.70352
13.7075
9.69924
41.598
42.0494
7.35466
19.1473
14.4773
3.10215
23.8499
25.28
22.489
17.6416
-28.4601
-40.1808
-39.4131
-39.0599
-18.2896
-18.5353
-10.5435
-3.9765
15.1745
4.68988
-20.7712
1.11896
30.3372
24.8417
9.47123
6.39966
50.0208
58.7099
11.2544
5.17018
13.0285
6.63526
-5.71856
-8.24632
8.14035
3.27549
-55.5337
-42.523
-33.6456
-22.1347
-13.5204
-23.5961
-3.66144
8.10255
-26.3493
-31.2029
-32.0622
-42.1151
6.4317
35.4725
44.5956
40.4099
13.4859
-31.8252
-33.9658
-13.4126
21.1351
21.1027
11.828
-0.588976
9.4253
24.7465
27.7913
40.2314
61.0843
46.5298
26.8477
14.4959
3.51337
-2.73252
5.08689
-44.4767
-54.5825
-23.5454
-15.9186
-29.1751
-30.8086
-24.3657
-6.22956
-5.06271
-6.23329
0.977628
10.8769
7.18187
16.6596
17.0421
25.8913
8.5824
-6.36766
-28.5616
-40.893
-16.9778
-3.74563
7.30713
30.0483
1.78586
-2.33309
-1.50813
0.135299
-0.213465
7.12736
19.0762
20.944
-7.85528
-11.1222
-2.80977
10.2561
32.91
43.0829
43.9038
33.9348
-9.8853
-42.4762
-52.2145
-75.1368
-68.8933
-71.61
-54.9927
-21.9272
12.1388
26.7982
12.8397
26.4362
45.993
43.522
39.3205
39.676
56.6143
49.5928
7.8576
-16.9223
6.32181
2.8274
-10.1752
-16.4256
-0.577899
0.359309
3.4848
-20.782
-40.416
-11.3713
-4.74118
-14.255
-8.51834
-1.09582
17.5834
-4.91261
-34.5961
-30.18
3.44433
0.519697
3.66239
13.088
31.7217
-9.40762
-23.9808
-5.0531
4.84617
13.8009
-7.09297
-17.8929
2.54825
9.04395
-3.99118
0.237354
-6.31047
1.68509
12.349
15.8842
30.6622
26.4503
32.4864
11.2145
-28.6471
5.07036
8.85015
-20.7055
-34.5378
-22.8907
-6.26264
1.25744
-16.531
-9.90525
2.86385
9.12164
13.8591
40.0307
57.2619
20.4374
4.41328
-9.08872
-27.3915
-32.0598
-27.1367
-20.842
-9.79604
-39.4533
-28.7064
-12.6873
-10.338
-5.66596
7.71683
31.7683
54.6669
16.187
19.9573
39.2146
29.6878
6.22113
-16.9739
-16.3936
-13.8015
-49.9338
-39.7963
-28.5349
-11.259
19.672
17.636
21.423
14.0148
24.0083
18.6523
-14.6876
2.48372
34.2104
24.3555
12.5053
6.45611
-0.353337
25.3397
34.8513
-11.4536
-34.8656
-36.4626
-41.979
-59.2515
-59.1234
-46.1009
-7.75839
6.78969
-26.4065
-1.66359
21.0255
23.6977
36.4321
25.4572
24.539
39.1886
5.04108
-8.04693
-8.65643
10.5858
31.9522
22.9208
27.4737
20.1191
-22.6532
-19.2463
-15.3924
-30.9777
-28.0909
-6.33848
30.7251
39.4689
-7.44046
-24.7427
-12.0827
-16.0984
0.987199
9.80938
10.0372
15.0436
27.6649
-20.1631
-47.1273
-52.4046
-13.9081
-18.7381
-10.2856
13.1448
35.2199
10.6924
12.9529
5.90287
15.9275
10.4611
9.6437
40.4552
27.1928
10.4727
-0.274993
-17.8361
-36.2701
-8.15847
6.76609
18.4125
15.5318
-40.2463
-22.9559
-26.49
-14.888
-0.3405
-6.76485
1.07877
37.5188
40.6118
-14.1156
-28.6879
-2.31928
16.1942
15.9287
7.93393
0.93093
9.69007
-14.964
-56.1127
-38.261
-13.7501
-13.948
-9.19571
0.32429
11.6667
16.1337
0.171662
-29.1265
-1.48385
40.371
52.8677
51.984
45.9184
39.6594
14.5329
-2.97414
-21.6875
-12.9807
18.3634
11.9778
-1.3439
-7.08676
-35.187
-63.1127
-42.1668
-29.6685
0.325416
33.547
29.0078
34.4597
5.11018
4.14908
-8.12205
-17.3297
-20.5456
-32.482
-33.7062
2.75276
-1.66564
-24.0011
-17.4483
-20.4474
-24.4875
-19.7068
3.95541
36.3069
42.8113
24.0789
19.7878
19.5538
38.2246
20.6697
19.9219
19.6197
25.1489
22.5278
-36.1902
-36.9021
-18.2826
-19.6812
-26.0153
-17.0739
12.2214
40.0558
25.6485
-16.1973
-5.8234
7.66824
-6.27029
-6.55408
11.2722
4.81481
-2.78354
-27.8038
-39.7817
-19.1495
8.99247
-6.2193
-0.29816
7.0993
5.18044
-6.10568
-16.3121
-25.8044
-12.7502
5.66738
-2.05896
16.625
46.7272
23.4274
14.8446
17.3058
11.3144
22.8158
15.6439
5.305
17.9003
-28.6752
-30.7219
-26.4468
-40.071
-32.5965
-8.00102
4.49763
14.6772
5.44532
8.34115
19.8985
4.52004
8.06255
8.41208
6.54522
31.0032
35.2559
3.43011
-14.5685
-28.6775
-21.9715
-21.2641
-21.1696
-1.73339
9.78165
-14.9702
-8.30687
5.0591
17.9335
18.1039
19.45
21.3226
2.01358
9.76278
1.4599
-15.4233
-9.11725
-4.86965
0.194176
11.1585
-13.1198
-32.314
-22.1805
-41.1282
-41.1567
-12.7039
-2.01648
6.86237
-15.3795
-42.8416
-6.30321
10.3115
37.1257
50.8847
54.7519
42.4249
34.4706
50.8681
-1.23076
-23.8417
-6.46095
-5.96956
-10.2038
-3.38471
11.1802
33.1201
-4.56343
-23.2544
-5.12277
30.6574
20.1269
10.2118
1.17469
4.62391
-4.3613
-32.5324
-13.572
-25.5991
-18.1776
-27.555
-6.53336
16.2797
-5.38678
-39.7669
-13.2093
-2.33506
-32.7548
-32.9566
-4.55939
23.2115
5.4191
-26.0642
-3.19421
-0.985084
-7.69293
-4.26511
12.3395
43.1703
64.9073
19.1539
-14.9072
-32.3559
-21.0264
-1.65245
-9.0948
-10.9364
7.5407
40.821
18.7333
10.8486
25.9132
52.6501
40.1382
28.0339
37.8874
36.8499
-10.9568
-47.7337
-45.1846
-28.5841
-14.1348
-23.1981
-40.6712
-32.9577
-55.2148
-41.6842
-19.4846
-15.538
13.7556
23.7708
23.4706
39.8655
21.1854
10.3992
25.0791
19.6889
23.9684
20.3341
2.49489
-0.0597026
16.659
35.169
2.75443
-14.2752
-9.33523
-6.40169
-6.6422
-19.6026
-23.7902
-17.6488
-38.3687
-43.5371
-32.7671
-15.0373
-6.68582
-0.916164
15.0772
21.2942
35.9878
22.4941
-0.0940646
-18.3098
13.4028
16.6819
0.699995
-2.60831
1.94265
-15.4974
-63.4593
-45.721
9.36
28.6919
28.5531
29.1633
26.779
-2.11186
3.00265
19.8191
18.7308
37.4621
41.7618
33.3476
37.875
5.44736
-14.5919
-31.6337
-59.3126
-56.8215
-24.1962
0.479539
6.85257
-35.3336
-48.1291
-27.0754
-6.58976
13.144
35.1539
50.5105
63.3319
38.8491
-30.4854
-28.7888
-18.8801
-11.3457
-19.6603
-13.3596
-21.2731
-12.6562
10.632
-28.8297
-22.4164
-8.47355
-9.84358
1.68944
12.1777
42.5032
57.7182
28.8397
-12.2704
-5.76227
39.4328
50.0695
52.089
43.675
29.2128
39.8365
20.3129
-54.2793
-60.1537
-39.9597
-34.4912
-26.747
-17.8393
-12.7221
18.9664
-8.1352
12.2107
30.8592
28.0909
6.831
-23.924
-51.6149
-70.2753
-113.848
-110.728
-84.7086
-67.1005
-19.5529
-3.64737
7.61389
42.2058
64.7585
26.1771
39.1174
49.522
63.8867
47.7876
38.2774
32.7291
47.9301
56.8685
38.5911
27.5055
32.2534
22.4334
16.3251
-1.8479
-12.3086
-24.3277
-35.7134
-43.3073
-33.7424
2.36161
3.99997
12.6988
40.0698
4.29408
-2.83043
7.04958
7.06301
3.60362
0.353831
-19.8081
-36.847
-91.3182
-100.468
-69.8874
-34.5792
-15.9474
1.24723
17.3188
15.2824
22.527
34.5971
43.2109
22.5861
28.5544
41.8584
47.449
24.3029
-18.3658
-14.0913
-5.68221
14.7527
25.4204
14.7821
-1.38492
-5.57387
-6.4413
-52.378
-52.3971
-27.149
-7.67185
-11.9582
3.4196
6.436
26.3026
36.3454
-18.1976
-33.7879
-8.29555
-18.1749
-27.1226
-13.3902
-10.5479
2.98112
16.2967
4.09525
18.9726
57.3728
59.6131
67.3533
58.1
48.9985
13.1417
-8.29738
-11.5062
-27.7163
-25.3483
-30.2607
-37.1195
-19.3306
-35.9522
-39.1007
-19.7399
-15.8538
-19.9413
-23.1912
-21.3815
-1.41568
-8.10234
-36.8747
-16.1306
-18.1813
10.6759
34.6407
25.9084
21.141
30.6473
35.8114
9.77018
7.8109
35.0249
24.9884
7.71849
-0.292522
-10.6232
-10.3494
-25.8069
-33.4087
-8.08254
22.96
32.8241
34.229
33.6989
24.2585
-2.19087
8.17743
6.35441
-5.23229
0.222894
-9.52126
-27.1384
-35.6744
-66.7596
-60.5856
-19.7011
-17.6707
5.89033
24.3489
17.6958
24.8391
37.2775
36.6555
-9.64468
-27.8611
-4.78903
4.36197
-2.07954
-15.2059
-3.25631
13.2442
5.5194
-21.1401
-10.3823
0.229677
-8.67042
3.56205
21.7448
23.8142
0.158418
-0.763962
3.72656
-15.4155
17.9676
26.9367
18.8556
8.73736
19.016
46.097
15.2911
-37.6143
-33.104
-21.46
-27.7118
-43.6542
-43.4736
-20.7773
-12.8861
-52.7255
-16.043
13.9933
18.919
27.1576
28.7839
38.7961
40.4339
19.7723
25.4083
11.2613
1.86897
1.09485
-2.90419
4.2543
9.34401
-4.51385
6.61039
-3.15527
-5.01056
22.9911
14.9953
24.1517
18.5704
-17.9291
-23.6873
-26.463
-53.8622
-43.3036
-43.7183
-51.8633
-40.5119
-14.0554
-18.9999
4.68416
23.15
41.7842
41.147
24.1936
15.2628
39.0813
13.537
-12.3386
4.11562
25.6456
26.9435
33.2173
38.8285
38.3628
18.788
-16.6093
-61.9011
-64.7978
-48.611
-39.9615
-32.471
-21.0407
3.10901
-24.5269
-9.54789
0.365081
25.9367
32.4293
14.999
24.2907
35.9312
7.32445
5.91068
16.1131
0.623643
-7.33895
-1.57717
6.42922
15.3548
-29.6701
-39.7945
-7.76142
13.6639
32.2826
33.7182
20.884
21.1913
9.60543
-6.03721
-16.058
-34.6824
-8.6581
-14.0937
-8.21784
1.5955
-7.02503
3.67557
-3.67941
-9.51821
5.66951
2.00791
-15.6308
-17.6721
-50.6653
-29.1085
-15.5655
-21.8937
-17.1228
6.39474
47.4749
67.9616
51.7244
43.4927
30.1414
4.16014
-0.100168
-16.6056
-30.333
-25.622
-37.3018
-23.7582
-28.338
-21.5732
7.23233
8.08592
21.2778
50.6968
43.787
15.2256
9.01111
20.4142
23.847
3.55601
-0.326658
-1.26624
-5.9604
5.88604
-22.7203
-27.366
4.79592
7.10133
-20.5217
-38.4549
-37.0965
-49.6168
-29.3627
-29.9091
-12.138
20.9543
14.7266
8.78349
18.0913
13.2122
21.9919
13.0613
0.181972
-9.57949
-5.10685
-6.86198
10.2971
10.3608
18.5789
42.1891
-0.0352389
3.09059
2.72698
3.30079
14.2186
19.7743
21.2188
22.8837
-0.947834
-9.28902
-16.5687
-5.46963
13.8816
7.94704
13.1635
-8.16808
-45.0137
-44.6664
-46.9992
-32.6454
13.3957
17.1336
17.639
16.6345
-4.22053
-10.014
-16.76
-21.9394
0.556899
9.87384
27.7139
29.477
-36.1192
-29.4936
-12.4884
-3.39446
0.734912
-11.7238
-1.65453
-3.27414
-25.5435
-11.7274
-7.22854
10.5122
43.2867
38.8303
28.3753
26.6311
14.2753
-6.10498
-8.45238
3.05569
34.4532
25.397
11.7786
10.5348
18.2817
-9.49124
-28.9469
-12.8974
9.49939
-1.33522
2.25128
-2.81942
-5.21031
6.55391
-18.0001
-40.604
-33.2583
-15.1684
-17.8845
-15.3601
2.87322
-7.94528
-14.4775
-4.53282
-24.1517
-6.46778
-0.0423886
14.8693
31.9805
26.4164
24.7017
7.53137
-6.64223
-2.34755
-3.12944
5.85883
28.9082
13.9316
25.8772
30.2748
-8.44968
-25.2538
-31.9394
-26.3287
-16.7576
-14.8026
-8.92471
-1.52267
-14.7434
-9.68424
-5.70333
-14.0118
-5.31427
3.66093
48.1953
59.3829
47.203
28.8265
15.3868
6.73085
12.3037
17.0343
9.26116
5.7301
19.7858
-17.6292
-49.3657
-44.8089
-30.7748
-41.3113
-27.2429
-2.36922
30.585
29.8507
-8.21406
-7.47466
6.84596
12.8961
-5.84699
-7.25135
7.08325
-2.55883
-60.194
-74.6427
-52.2532
-13.6073
6.68683
9.44638
27.3123
35.2067
27.5964
9.17386
-3.0537
10.0988
24.5942
24.2177
29.2993
25.2251
10.209
-14.4986
-4.82004
-0.581165
16.8935
10.9062
-5.53927
1.48737
1.61856
-41.2417
-34.6124
-31.0756
-27.0965
-17.0997
5.44096
12.0723
24.7883
40.5938
32.6726
29.6005
8.48475
19.85
14.3832
-3.73872
-10.3894
-13.8435
3.88155
-23.4293
-17.6369
-3.9327
-11.1178
-21.8873
-11.341
5.47501
12.2992
-5.19717
-1.01375
4.28801
23.8296
26.1069
18.1374
24.06
7.59369
-35.0982
-53.1421
-40.9932
-32.8519
0.129884
-7.90522
-7.54993
5.81348
-27.6834
-7.55599
2.23961
13.5611
24.3188
24.9006
28.3026
44.584
30.5108
-11.3003
-7.65584
-14.7395
-8.82781
-10.8968
-18.0606
-6.79274
20.1756
9.21684
-17.3902
-5.25212
21.3509
17.3721
11.0898
0.302957
6.7617
15.2336
-5.02385
-40.6637
-17.0618
11.1536
10.3594
-3.2639
-6.59731
16.7548
32.5698
-20.7609
-48.8701
-41.697
-11.1387
1.34417
-1.42101
5.47209
32.2198
18.8446
6.39587
12.4431
5.02196
13.5365
11.595
8.41094
13.4786
-18.0422
-16.3208
-18.5839
-28.1157
-10.6475
-5.5937
-10.6951
5.61865
-3.21893
-8.60262
-3.90042
-4.13856
10.3729
21.4942
11.555
29.7652
35.9447
3.22557
-24.8012
-4.49717
12.441
1.46419
-24.1662
-29.9964
0.816446
1.84591
-4.78219
-0.532749
18.0478
18.7369
-4.10642
-19.9208
1.93258
4.21532
-6.70602
-11.792
-1.95648
22.9274
33.2192
20.6223
29.2936
4.77912
-6.91072
-20.745
-39.904
-30.9078
-14.9248
-21.2929
9.45573
0.0718597
-21.542
-3.21318
-8.3557
-1.76207
15.5466
7.79648
0.149407
6.96141
20.493
-4.11644
-7.6191
23.6358
37.517
37.0107
20.1054
3.75863
-10.444
-0.254567
-36.5348
-37.5416
2.41674
17.301
7.86201
-6.64884
-23.5824
-27.819
-0.261144
32.8472
-0.446191
9.84078
18.1995
7.43601
-17.9122
-34.1042
-26.5871
-38.6261
-42.1745
-31.285
3.54624
24.4217
24.7767
26.0091
46.3618
49.2508
39.9378
32.54
5.36465
-0.71252
-0.574634
-17.5821
-14.6496
-35.2792
-51.2642
-26.8327
-11.0881
2.06792
5.33362
-16.9714
5.67193
12.7289
-13.9524
4.02957
16.338
32.9628
38.9146
28.9032
13.5371
-9.46077
-5.03615
6.75489
-14.93
7.01809
12.457
-15.6192
-25.7913
-19.1439
-2.40657
-19.1784
-34.1957
-16.6132
-0.318246
-7.0967
-13.2065
-0.380206
21.8399
34.8943
1.5965
18.7101
16.7478
9.41843
12.7673
-4.84996
-12.4368
-9.51312
3.55365
-11.7629
-14.7177
-8.31491
2.35729
-2.76254
8.07761
9.21775
12.7362
0.377727
-32.3741
-13.519
21.4879
19.1723
9.96109
4.82301
-2.21719
13.5963
5.14619
-13.266
-14.1994
-12.3048
-16.7057
-13.4475
-1.08858
-8.71615
-5.39977
-8.79938
5.6898
37.6885
44.7599
6.68669
0.480559
13.4155
22.6356
8.17953
8.95934
10.7303
8.00338
-7.47013
-17.4005
-4.16828
1.58207
-38.069
-56.205
-47.8214
-37.4191
-8.04064
-0.415327
5.3633
44.6461
26.7194
23.8776
9.04596
-16.9739
-11.926
8.69724
12.2106
18.706
-0.30518
-11.4276
-16.4999
-21.16
-4.66007
5.35895
5.51509
20.2896
-5.24671
-30.6402
-5.09108
4.68425
19.6563
28.8473
40.7296
41.8859
41.9805
39.3249
-19.2533
-51.7096
-35.813
-33.3789
-22.6896
-21.704
-27.0661
-5.88996
43.0974
10.048
-19.2942
9.70646
-1.07279
-20.5019
-18.1669
-13.561
3.82954
18.0222
-3.56869
5.48621
11.5032
26.467
21.7525
0.794917
-5.18082
-22.7991
-48.4909
-11.4144
-6.57864
-7.09017
27.3325
32.8759
54.5057
58.1008
7.34473
1.85209
3.9189
-12.8715
-24.7864
-43.155
-33.327
-7.54092
13.4197
-0.463145
-33.3908
-12.9775
23.0071
17.9454
6.14289
-0.468589
2.51164
-1.38836
-46.3236
-19.0436
26.2062
21.6135
15.7994
15.9504
25.6429
40.0293
19.5449
-5.93065
-24.9627
-19.5801
-4.6993
-13.8145
-12.1332
-15.536
-44.0237
-33.1829
-6.34299
-0.654668
12.6738
1.62561
13.4313
36.3643
15.2023
18.1373
11.4833
-0.419338
-10.1745
-28.4145
-38.6702
-18.959
-11.3624
-23.5902
-15.3402
6.22279
38.5741
33.38
28.5979
24.1959
42.9924
50.3858
28.057
13.1811
17.0801
16.6774
-5.57336
-32.0461
-32.565
-9.07211
4.42484
-27.2404
-49.2741
-41.9306
-44.553
-52.4581
-25.3797
-4.20708
13.4289
28.3706
-6.10285
5.53164
21.8451
9.1108
21.886
27.847
35.219
52.5706
28.503
-0.671881
-34.7062
-31.2276
-12.5661
-7.74663
12.0796
-14.1444
-34.9821
-31.0369
-21.9899
-9.08409
25.2786
28.3383
42.8052
20.3654
3.17005
-7.03207
-11.8861
4.35097
22.944
6.63374
-17.2662
-5.41668
-12.1084
-13.4961
-18.5018
-7.49032
17.6368
9.63297
-0.409315
2.70495
-4.40908
-31.7119
-15.7784
-3.741
8.26615
12.1134
16.7421
41.0617
27.6537
-12.7073
-19.4071
-33.3177
-20.681
4.11473
11.755
13.9398
45.7031
12.3467
-1.98473
-21.5196
-17.0142
7.41203
10.836
9.7463
3.98517
21.5268
-6.31255
-36.4726
-20.3019
-8.4375
-5.02829
-0.898574
5.90253
16.4463
5.82185
-35.4138
-61.4803
-49.9676
-29.2025
7.3367
27.6151
31.5677
22.5905
29.1184
18.4385
12.3705
3.97215
20.6541
20.9925
28.2066
21.3396
24.0916
38.5324
10.4899
-26.2773
-29.6741
-23.5316
-16.1978
-6.82752
-8.11314
3.19284
-12.1771
-30.3979
-19.7647
-6.77151
2.12007
0.351671
-3.51095
20.8768
18.2802
-7.99408
-18.1264
-31.421
-36.7407
-28.7451
-8.03358
25.6613
28.17
-1.0344
4.40416
4.00107
5.44853
8.0242
-14.1411
-7.97286
33.9029
20.7598
-7.92539
-7.52008
-4.01362
-4.32158
-15.2461
-7.9071
19.387
40.1567
18.2375
-12.0839
8.69524
23.7482
25.6656
11.1353
8.47706
2.34816
0.750313
-25.5359
-23.1852
0.6748
13.632
2.85224
-4.34698
-0.55841
-0.347523
-1.76265
-42.5523
-54.4259
-29.538
-7.60937
-8.53077
-0.830663
4.82967
3.8856
-8.7212
-1.24113
20.0164
40.8212
27.0647
13.8152
5.71417
10.478
-5.15155
-4.7767
-8.43073
-27.5267
-26.9004
-21.9184
-13.3206
6.27166
24.5957
-14.7256
-26.109
4.94873
47.622
63.9694
52.2716
53.2061
40.7853
28.0006
16.2581
-45.712
-51.2585
-42.2383
-41.7771
-36.9623
-17.0431
-11.8699
-22.4565
-50.8229
-43.8914
-11.0284
6.99639
14.0346
29.6069
50.5236
53.7291
18.4193
16.6849
4.63021
4.36889
31.4995
34.0504
23.0053
-4.81113
-42.8824
-32.8614
-34.49
-28.8326
7.64736
14.1167
13.9403
22.2703
11.8561
-21.9365
-25.7603
-10.8412
-11.2484
-20.118
-6.96609
-8.48204
-26.9224
-11.9629
-21.2713
-19.8022
-2.85893
5.46239
23.8726
15.0741
8.25109
21.1232
24.9556
7.67894
-7.89259
0.789907
12.0403
4.637
0.780519
5.2625
-0.509856
-3.73734
17.8357
17.7037
27.4731
30.7421
16.9601
25.9746
23.2088
5.98143
5.37621
-7.93007
-6.03659
-8.0687
-22.4103
-11.3083
2.97445
-35.4946
-50.9359
-45.6211
-39.5306
-26.4545
-22.3694
-12.8763
7.93795
38.2273
21.2353
2.27186
-9.43993
-4.04361
-4.66186
-5.08071
0.463802
20.2819
26.1938
15.7672
-18.8464
-19.8543
3.40484
18.5088
32.0054
33.5436
21.0405
12.8536
3.03287
-42.3917
-24.263
-15.3727
4.07149
17.8608
11.367
1.48044
28.2925
9.04255
-19.35
-17.6227
0.0916125
9.35681
2.5244
-8.91829
-4.69781
-11.5098
-1.48751
6.86929
14.336
23.8646
22.5118
26.0102
10.21
-24.1177
-9.72623
-8.68177
-12.5006
-15.1891
-25.0384
-20.9102
-37.7803
-55.8256
-38.7518
-28.382
-24.4486
1.36551
7.57352
18.344
41.2233
51.7051
27.6264
32.4861
37.3011
35.774
23.2889
2.4484
-26.7702
-14.6505
-12.4071
-30.6685
-13.0337
7.90565
2.73177
0.885963
5.45033
31.0826
-2.95511
-44.3513
-31.3541
-11.2562
5.07233
-11.5233
4.19038
41.2367
43.3122
40.3922
33.1629
9.33529
11.7339
-19.318
-23.2546
-2.23783
-11.6787
-14.6444
-46.491
-44.5985
-10.2132
2.10187
-11.661
-7.51798
20.6132
35.0417
21.2071
-9.10607
-18.2036
1.41995
16.0615
25.5072
9.45766
-4.6936
1.28058
1.46786
-44.6754
-47.3874
-16.5343
7.12804
2.45071
14.3095
24.9166
24.8605
-1.24987
-3.86615
-3.69607
-6.54133
1.08847
-8.45301
15.3239
35.991
11.3626
10.2547
-9.50513
-11.0022
19.3998
-8.59628
-18.9801
-22.5587
-66.0795
-60.2435
-19.7393
4.79779
23.7284
22.1168
28.0454
49.8741
54.4218
44.2923
22.2037
9.64992
5.73513
-14.3235
-19.3252
-10.6238
-26.7716
-41.1213
-31.0156
-5.83491
24.5748
18.8051
-5.12807
-10.2233
4.15145
-17.603
-30.0563
-9.96898
23.2696
9.13466
-8.76618
-12.4406
10.0355
37.0113
17.6541
-28.196
-2.04654
18.1742
10.1714
7.46382
18.9878
16.2306
23.558
0.99272
-7.4636
18.4906
19.7932
-7.87492
-24.5292
-17.9813
2.86029
-17.1493
-23.8335
-30.8642
-35.823
-24.1158
-12.4573
-10.4212
-22.9583
-30.2916
-4.82169
-6.3373
-5.99611
7.12886
14.1007
24.6743
21.3575
10.5401
-6.2298
6.86264
9.64321
28.2167
26.5748
11.4047
15.0557
39.0588
5.41348
-5.77627
3.623
4.87144
-0.259991
6.98644
15.4006
15.7364
13.7611
-24.8812
-0.47242
18.6142
27.8339
-7.12245
-16.2556
19.3556
10.439
-24.4726
-44.991
-51.0693
-25.5675
-16.3842
-25.0536
1.65733
2.07768
-44.4074
-33.0976
-17.9797
-1.88623
19.6403
18.8551
39.8986
64.0687
27.9027
-2.30118
-4.58111
-1.97536
2.08766
-6.22313
-15.6762
-12.1112
-11.4281
-48.5011
-36.9353
-13.7635
25.6405
31.5981
31.8496
32.1488
55.0655
51.1441
-23.0678
-31.5083
-18.2526
-21.4584
-26.2765
-18.5855
-7.77981
3.68893
18.1344
1.69971
6.55721
25.2432
13.399
17.7713
22.7082
18.5162
9.13404
-18.7374
-10.5371
-21.2345
-11.8754
-1.93168
19.1802
33.1381
10.1195
-1.11274
2.68077
-7.52231
-25.59
-30.4654
-51.3411
-49.322
-70.9402
-41.8301
-23.6156
-20.8477
-5.38718
27.5218
49.4751
68.1715
69.9908
21.5921
39.7842
32.2868
20.1188
-5.19499
-14.8073
-17.3571
-10.8568
12.7373
-20.8287
-5.31164
4.38157
-17.4007
-21.0922
-9.89222
0.801238
26.7941
-4.17629
-3.34916
17.7955
38.721
18.6564
-20.277
-24.3043
4.29347
8.65842
-24.7098
-52.348
-27.4899
9.75537
2.23005
3.72839
10.3085
9.17477
21.6761
-4.22732
-19.7509
-0.290385
-15.8842
-5.53916
18.2156
25.5909
35.2571
12.8921
-17.27
-17.141
-17.9515
-21.6478
-36.6412
-20.3479
-8.53535
5.37538
-7.11606
-40.3494
-32.6498
11.9674
40.8015
48.8997
51.3268
42.9195
56.8681
30.4747
-38.5256
-25.9793
-7.90743
-8.48006
6.36286
18.2115
14.8956
25.1936
-9.39736
-14.5411
10.9111
11.7172
-13.0741
-29.6294
-33.754
-12.7884
-28.5954
-11.3573
-0.0521427
14.7463
31.6218
39.5556
36.5895
4.97875
-49.5186
-55.0671
-52.5565
-57.4663
-37.9404
-26.6729
2.35255
26.751
0.708276
2.39783
-9.29981
-6.95342
25.1602
32.5234
35.0111
51.0194
45.27
40.5554
16.0932
5.17692
22.659
12.8239
2.39739
8.46873
11.1184
0.536819
-27.2519
-41.7463
-42.117
-24.6039
-11.6269
-6.4935
4.55974
-5.671
-5.71716
-10.3588
-5.43762
8.8525
10.4553
-4.73124
-15.4005
-14.906
12.7099
-7.10214
-22.8782
-16.7958
6.07931
13.3832
26.1101
26.7705
32.2093
10.8456
-5.07403
-0.0150629
-3.36008
-1.46959
14.3874
19.6264
19.7169
-2.60005
2.34861
-10.0279
-37.2027
-33.8891
-29.8164
-33.4129
-16.2984
3.89355
-15.1176
-28.6519
-5.55745
18.5454
36.8166
22.8808
7.83459
18.274
27.7606
25.191
-4.21265
-6.33785
4.98123
4.08478
5.6775
5.50213
8.99309
9.70937
-5.44765
-22.0358
-13.8896
0.509812
-1.44283
16.0312
32.9366
37.4758
3.75691
1.27761
-13.7895
-24.0026
-24.4942
-19.9683
-19.6112
-24.3673
-27.1439
-14.331
-14.6674
-48.0633
-41.3347
-33.1968
5.93098
47.7687
14.2204
28.0649
31.6356
25.5013
32.7208
22.8427
2.85725
13.2992
36.6955
23.6665
-22.8002
-15.8041
-11.0953
-11.4028
-7.60812
3.6235
17.4199
34.3333
11.9505
-0.230192
-17.1372
-14.8136
-11.999
-12.2399
-9.53487
-2.54038
20.7329
39.2917
3.39084
-7.00741
1.04061
-22.4606
-30.2592
-34.2479
-39.2696
-19.0451
-25.5534
-44.301
-31.231
-21.1291
12.7451
17.8736
22.2721
51.1177
37.7681
40.1703
27.316
-1.61456
12.8284
18.4016
27.3426
16.4903
-43.7408
-47.0166
-43.6151
-56.0057
-30.2864
2.36033
36.7987
45.5437
64.8724
59.3224
10.957
-7.47662
14.7882
20.132
2.22358
-17.873
-1.35405
17.2185
-13.1923
-14.6823
3.22286
-5.5449
-20.9289
-30.6561
-3.97824
7.69542
-26.5502
-15.5712
-14.246
-17.6969
-1.93702
-8.64051
-2.86693
15.7759
-3.19509
-23.9337
-9.23263
-9.30358
-9.29997
-23.8122
-2.75266
14.6269
42.2673
24.9137
-5.14012
-1.68747
1.86292
-1.26036
4.46777
3.47852
21.7413
15.6001
-5.69728
-20.1725
8.52537
30.6307
30.3766
5.20094
-4.84273
-2.53149
14.3763
-13.2598
-39.341
-13.4699
6.2808
-1.38109
-12.923
-6.6227
5.50515
-3.77195
-7.08474
8.54104
14.5086
22.5292
16.5293
8.76717
16.5441
-5.98209
-27.6572
-24.3472
-33.8058
-12.5367
1.84307
-11.3014
1.42942
2.03568
-17.6923
-3.01295
-2.19473
7.35973
21.2925
14.273
26.3015
10.0664
2.89846
12.806
15.3896
24.2148
22.5354
2.31803
-1.28639
-9.96835
-26.3479
-18.0839
-17.4891
-8.86379
11.1413
7.15105
-9.37603
-7.03402
5.31046
-14.0655
-25.4829
0.333824
12.5791
-3.85613
-15.4601
-9.10639
19.4917
8.71121
-18.6882
-4.66018
6.73248
1.73541
-1.61594
4.52762
-2.18852
6.65489
33.4089
25.2338
-3.45
0.0999721
-9.41479
-9.83483
1.59765
-5.13153
2.61156
-17.2576
-18.2137
-21.0566
-13.3672
-21.0515
-20.3211
-9.73772
9.32186
3.42857
9.89369
-3.58416
-9.80468
-7.38428
21.1691
55.4108
78.6182
32.809
8.13503
5.5192
-1.10693
3.8449
-2.66559
-4.19142
0.119485
6.34656
-10.3263
-52.5855
-74.5359
-27.9356
2.83766
10.5199
17.7893
36.4366
2.43506
-25.31
-27.3329
1.19216
16.434
13.5934
24.9086
32.4863
9.07105
6.38992
-4.43682
-24.8941
-16.0188
6.21785
8.9413
9.82993
-26.5666
-22.4466
-14.2879
-16.0772
7.59109
18.9139
13.8102
23.2767
19.6077
6.42603
-12.3364
-13.1553
-22.2946
-37.8558
-17.2254
-7.10631
-16.7779
-33.934
-39.1409
-20.9701
2.09442
13.1791
28.6478
41.0279
73.1612
57.9239
22.2691
21.6026
26.9275
13.6036
4.8562
-6.11243
-14.6241
-12.753
5.7379
-17.4012
-14.4854
-0.878757
-4.73128
-4.47536
-19.4679
-37.0172
-14.9001
-2.76284
-38.0057
-0.241039
20.0977
11.8882
9.58098
-0.969784
3.24787
1.49331
-0.0650842
-7.1119
-29.5483
-23.8358
-11.7674
-13.2355
-13.6731
-23.8317
-7.725
10.3045
0.731419
-4.4928
30.3562
36.4685
52.2053
64.8022
37.2659
-7.4071
6.27981
4.8154
-5.91419
-9.07663
-22.4767
-18.8499
-3.17872
-19.6474
-20.4178
0.0804098
7.32422
9.30343
5.12309
13.3742
17.8261
0.526451
-6.52899
-27.5094
-16.2434
-2.05693
-16.1897
8.9724
12.9295
-13.907
-0.677425
12.2792
1.28232
4.3965
3.60765
26.339
38.5656
-7.10618
-14.9763
-8.53103
-17.4167
-30.1234
-36.9952
-16.3968
13.1695
30.4178
15.2821
-2.628
8.13876
9.48974
-16.8217
-32.825
-35.7829
-14.0507
-9.74725
-38.4016
-37.8332
-9.28322
19.1327
23.581
25.576
19.1692
25.4532
44.5423
29.83
28.4195
32.4639
24.916
21.3166
18.7165
-0.407093
-7.35649
-29.4375
-33.0885
-40.3369
-23.925
-12.2034
4.7261
11.7717
28.0096
24.6127
28.5257
19.6377
-12.12
-0.7563
-11.2466
-15.1969
-3.87498
-63.9076
-56.9848
-34.8382
-13.4421
7.0669
5.27815
6.7195
28.1645
-3.90008
-5.01892
4.00755
-4.43885
16.8961
32.9385
30.3227
32.345
10.9385
-26.4503
-27.0316
-13.4688
17.7341
20.2025
12.1857
0.0269485
8.70405
-5.30187
-56.3477
-29.6276
10.6989
8.49536
-6.42921
-21.4584
-6.02582
21.444
11.7923
0.00101048
17.7442
27.7782
11.4173
-5.26014
-3.92491
-16.7738
-11.1916
-26.238
-24.4567
3.32983
25.456
8.77648
4.80775
3.81927
23.6259
28.0854
7.93348
3.59681
1.84649
-1.38167
7.6435
19.2549
25.1155
11.8188
-2.9524
-5.58655
-27.7529
-23.828
-23.8653
-39.4446
-27.3679
-7.22446
-11.4861
-35.6947
-49.2888
-17.7742
3.64277
-5.80834
0.83826
21.9519
55.3488
65.0467
4.0106
10.7231
7.36709
-10.6886
-22.597
-9.05311
-7.88084
13.6384
8.90868
-8.95697
2.38911
17.7844
24.9845
17.1042
35.4447
46.9163
15.1221
11.0223
-3.11028
-19.821
-17.5248
-12.4461
12.1435
-2.60124
-13.2739
-18.0742
-16.9463
-27.364
-24.226
-36.5702
-16.5323
-36.445
-20.9803
-0.679486
-8.57531
-27.2589
-5.1249
3.74352
22.0496
43.7531
37.4969
13.5877
-1.04323
23.2946
30.2474
23.3145
17.9868
9.81704
12.3998
-6.72476
-14.5959
-10.3177
15.6942
11.1072
-2.27365
-0.294246
12.5467
5.52758
7.64961
-11.3414
-19.5007
1.37264
-3.07665
-20.0612
-46.6526
-64.5494
-52.15
-50.9151
-46.0964
-13.4227
-1.578
14.5668
13.8039
22.258
52.5766
29.1136
4.64724
14.5654
9.16697
24.1004
31.8997
35.0524
47.7012
32.019
-11.6078
13.0322
17.7551
20.9547
12.9011
2.57186
12.4806
11.3611
5.20827
-39.9725
-40.3305
-12.2301
-3.67623
-26.6804
-30.7365
-19.2803
8.41345
14.039
-37.9727
-25.2306
-5.09381
-20.4485
-38.7032
-54.1258
-51.5001
-43.8596
-31.2516
-5.12224
8.16193
42.3498
39.1448
55.9551
81.4188
71.2731
27.729
14.2693
4.42831
8.17134
32.0455
3.0393
6.68471
3.15872
-26.2247
-13.6873
-3.35838
-6.60395
-3.17351
-22.4649
-43.2728
-21.823
2.9059
-1.9645
3.98064
-0.415293
6.54136
18.1121
0.0433707
-7.24522
4.57758
40.5595
1.859
-49.8769
-21.7596
-6.55714
-17.1767
-25.3866
-1.85957
6.26803
21.5663
5.43752
-5.30951
30.7066
22.7113
5.3267
10.489
28.6008
35.9693
-9.49922
-23.585
-44.2962
-21.26
-0.592998
-6.47717
-12.4732
10.5031
-14.0465
-4.90454
-17.9185
-34.889
-18.8158
-4.39797
22.7946
50.9306
31.0281
36.4805
35.3206
12.3871
8.91416
-3.53438
-16.2935
-11.2284
-24.7583
-12.9183
-2.80843
-18.9632
-12.2632
-15.1513
-11.0488
-4.07573
33.7946
7.97177
-10.5281
-6.56611
18.6869
13.9323
-0.820964
1.55357
22.4999
28.9811
8.83163
3.93775
6.9767
-3.77928
-18.1691
-31.5222
-25.9858
-34.9644
-51.1201
-50.1849
-34.1997
1.7608
17.8128
11.3868
23.8607
40.6701
40.2655
10.194
12.0048
9.55518
5.99508
1.88447
4.18906
16.2999
16.8988
2.30254
-0.304622
9.29483
15.6994
4.71909
-4.97883
15.345
19.0981
-7.40482
-7.49703
-21.83
-34.006
-54.344
-51.4681
-10.04
15.3698
25.1472
6.58339
-25.62
-7.50513
15.3089
2.17774
-2.21105
10.9723
30.0588
22.2596
-21.0689
-6.7891
15.6228
23.1348
20.8718
30.8206
51.2377
18.909
6.31421
-6.36805
-28.9628
-34.5507
-29.0772
-53.9457
-74.9948
-101.333
-52.7448
1.56269
13.9183
22.0635
39.8942
50.5894
43.2937
-1.91047
-0.050327
27.3646
38.0482
42.3409
31.1539
11.7283
9.13321
-27.09
-34.261
-13.2242
4.94752
28.1616
14.6536
-0.567427
-5.39245
3.53687
0.581537
-41.1533
-13.549
12.0382
10.0573
0.347427
-3.31779
7.05908
17.0546
-2.57975
-52.1377
-45.4506
-25.0398
-28.3864
-7.89856
7.688
19.0134
24.2286
-29.779
-17.4971
10.5915
39.2311
38.4018
38.9337
36.7564
45.6435
-16.6054
-33.2382
-16.5937
-6.49824
8.40842
14.0452
12.1813
6.92496
-35.4524
-40.8572
-29.158
-15.5593
14.0769
12.4189
-5.16733
-11.7947
-29.3658
-11.2297
-4.61847
-5.20262
26.2667
10.8104
-12.108
-17.1866
-1.7208
17.5285
4.52613
5.15844
24.618
17.6729
9.78832
4.16105
-5.34206
-4.52926
-18.8813
-10.4203
13.6178
7.24891
7.93238
16.4833
49.1824
44.8737
3.55538
3.78077
-1.08797
-16.4427
-22.2314
-26.0551
-3.68214
11.8525
-12.5586
1.69504
-1.70071
-7.68036
0.526964
-15.8374
-19.6791
17.0178
-8.28234
-35.6659
-24.0641
-4.17766
22.4578
1.95131
-24.161
-26.0195
10.6603
-2.81959
-28.3701
-26.5929
-14.6072
0.355014
9.91184
12.8296
27.4473
64.2811
79.6337
12.1637
3.0664
21.1127
19.9674
4.27073
5.08018
3.65899
10.5273
-0.53939
-42.5073
-28.6744
-29.8039
-52.0415
-48.9732
-24.758
3.26132
4.31278
-7.74285
4.99783
-0.0014784
9.67553
17.0614
28.0737
40.6061
36.7179
25.1006
14.5537
5.22725
5.36986
-7.06169
-19.7314
-3.08964
-17.7886
-27.019
-15.5125
-25.908
-32.0624
-11.8787
-8.77102
20.4138
19.2789
-0.466041
2.95068
6.87856
-11.9857
-17.7765
-21.6615
-16.4639
-5.35647
18.0656
14.6619
24.5611
30.2937
25.3282
22.3387
13.3273
23.6024
26.2588
-11.669
-12.1463
23.8102
41.5018
10.4084
-15.4624
-13.3371
-10.6454
-26.5153
-28.3004
-33.4828
-34.6568
-31.1964
-40.9362
-35.6406
-7.27911
14.3577
-9.88947
1.46851
13.0207
11.6934
-11.2057
7.00352
31.8513
33.229
30.9054
35.0112
33.8759
33.9211
23.0043
8.49579
-4.36432
-16.1714
-52.5809
-54.5404
-40.3663
-33.9708
-14.9045
-13.7422
5.78586
23.2563
42.1884
25.4953
9.61786
17.2485
23.5771
6.39486
7.20977
15.7784
14.1023
-30.3569
-40.7083
-26.5786
-9.08433
-9.97036
-30.2884
-17.9202
10.7078
-24.3228
-11.1335
2.46357
13.8816
27.1523
26.7718
32.6484
42.0671
10.4677
8.13196
-4.04483
-17.1022
-3.69447
-5.3363
0.264549
16.834
0.322158
-12.7187
-24.1769
-41.8325
-18.9034
-14.3008
-8.17034
14.1972
-0.631689
-15.5714
1.54311
25.0734
39.7924
34.3529
36.7735
33.3409
42.2276
18.3498
-20.354
-31.3129
-31.9114
-44.9654
-34.1545
-26.6547
-11.0148
28.7282
33.6164
-11.4065
-18.9962
-2.67406
-3.27797
-3.66499
-15.2764
-13.9081
15.7237
7.50499
-13.1994
-21.1948
-12.6805
-12.3437
-5.08618
-13.1694
8.38278
23.8102
14.4598
13.6169
19.2348
35.1949
42.0611
28.2095
16.6831
-7.43728
-32.6911
-26.6836
-26.9855
-27.1817
-22.1738
-13.8194
22.4841
10.4717
-13.4209
11.097
18.8901
18.9936
13.0032
-10.6459
-8.56638
10.5741
21.8118
-3.30826
-0.440192
17.5938
29.716
14.8133
9.61184
11.0485
-4.57246
-35.4971
-47.5001
-45.8054
-20.8775
-19.4315
-33.5354
-31.4919
-38.097
-28.4316
-0.868205
16.5848
33.524
52.9559
32.4821
33.047
21.2409
14.0383
24.9405
16.8053
9.41547
12.679
6.36877
22.5471
30.3952
-8.92029
-52.6625
-29.3007
-21.307
-27.1709
-31.0712
-17.6555
-0.745271
16.6319
-6.06141
-16.3806
29.6795
39.9523
28.6898
12.5314
10.3261
-3.78935
-18.4202
-33.9821
-66.0503
-30.6363
13.4675
17.2436
22.3905
23.8892
13.7092
15.0605
4.2915
-13.0909
9.57061
21.4576
8.90206
-6.1734
-5.63049
-2.86842
-25.7338
-41.9817
-27.9673
2.28958
30.025
13.3013
4.6669
12.5429
9.59374
-12.6951
-1.46479
-3.70818
8.91526
18.3198
5.24278
14.6887
6.56176
-19.3574
-15.3611
-20.97
-11.2375
0.0240614
-7.98728
-16.8186
8.79113
10.7734
9.88529
-20.6658
-24.7734
-3.4396
2.53715
1.19745
0.00268215
22.6864
21.3273
3.90212
21.7523
18.5373
2.16613
6.60806
8.23575
7.79925
3.47891
-17.8968
-13.2464
-11.0589
-17.9141
-5.73117
-6.8915
17.4729
21.2405
-0.544673
-6.14108
5.14486
8.1304
18.3711
15.4788
1.41589
-11.0852
-23.335
-44.2705
-33.4054
-18.9113
-2.73901
-12.5261
-13.5285
1.33868
32.4015
5.15334
8.54557
20.6663
34.4247
44.0508
36.8876
36.6141
43.8437
5.38606
-25.2924
-17.739
-10.4657
-7.11543
-37.6279
-50.98
-28.0347
-22.1673
-49.086
-50.0118
-32.3059
-2.17041
9.13442
-1.77359
-7.08413
17.1196
-2.61855
8.51471
19.123
31.9086
43.5179
45.9649
46.7074
54.0458
3.64101
-24.1458
-17.0092
-10.64
-0.236482
2.37185
2.83756
8.31628
-37.989
-42.1064
-20.8044
-1.70415
9.85403
-1.53893
-0.529389
27.46
17.5633
18.0129
5.57611
-9.82126
11.3779
9.77897
-12.7189
-2.75195
-2.00492
-27.0373
-16.0348
-16.7056
1.14389
8.1547
15.6019
-1.74038
-2.65175
31.9256
25.6408
7.81414
19.2288
18.1635
1.2963
-27.5529
-37.9116
-31.7822
-11.5769
-33.7972
-60.5412
-23.6143
-9.22878
-7.35393
-3.17958
5.63614
21.9187
11.8518
-11.8705
-8.72797
3.28284
18.8669
17.8224
14.6847
20.0958
-1.88449
24.6459
44.0969
23.8142
18.9812
35.1838
19.1688
26.5821
-9.90685
-14.5438
10.5266
6.29702
4.7314
29.3902
10.8498
-3.65309
10.6528
-18.1858
-37.177
-44.9555
-15.1315
-12.7174
-23.7755
-45.4118
-61.7731
-48.6033
-61.8734
-41.5509
-0.527897
16.7118
22.7254
21.6349
28.0583
38.9449
11.894
21.6591
28.2672
24.8234
17.997
15.7487
12.4868
7.01856
-30.6435
-37.3224
-17.7349
-7.02342
-5.24924
-4.55023
19.1396
32.857
-1.15053
8.70273
24.2306
30.9371
31.0837
18.4123
18.2149
37.545
-0.281719
-11.0192
-16.1034
-30.9325
-20.1291
-12.4358
-21.9464
-25.8561
-5.21542
-4.61422
-30.4305
-27.077
7.94656
16.8957
20.8407
16.9482
10.3784
-0.930004
-13.8787
-42.508
0.54522
-2.80468
-27.8238
-27.8959
-13.5377
-5.00907
17.149
-2.0635
-18.1427
-7.23457
8.02738
4.01863
18.4889
17.3389
31.8973
34.5631
32.1551
22.1908
14.1688
13.5249
-1.88994
-0.0688358
16.3349
-2.02047
3.30875
-1.31067
-7.41076
6.29161
2.81946
-0.529937
6.14208
-21.0412
-34.6597
-34.888
-37.3577
-20.4687
-11.9888
-13.6065
-3.75027
25.4233
19.7333
-8.94253
-20.8135
13.724
-4.7145
-18.0104
-19.5061
-1.41575
13.9481
7.69966
-8.46464
13.1691
23.4531
2.53829
5.45009
12.6091
22.0704
38.0154
12.8958
9.24362
11.0418
36.6301
32.0193
-1.70917
-19.2918
14.2309
-3.78323
-53.3833
-55.2164
-33.7005
-21.4109
-39.5262
-18.4501
10.4347
43.4584
31.1232
-23.9163
-22.0821
25.8589
27.0061
24.4595
25.9355
11.8091
6.01135
-33.1294
-65.63
-23.3911
13.0899
1.72467
-4.04161
9.03082
19.0757
31.2209
19.259
-13.0568
3.60038
25.6415
12.0952
3.32365
-3.41659
7.10598
4.67935
-13.6505
-25.025
-13.7515
-19.0442
-25.1036
-27.0112
-36.41
-47.42
-37.9558
-10.1685
-0.316187
15.8567
20.5091
17.9552
55.5952
39.7099
18.3057
27.9267
14.9519
22.7283
28.9427
17.9568
24.5867
3.0973
-15.4409
-4.66973
-18.3453
-24.4901
-11.2109
-15.1685
-2.51731
8.1371
-25.7404
-24.0961
-20.7538
-22.8478
-10.2723
-7.38398
-6.95054
16.3982
56.6849
44.8606
-11.8848
-2.64986
-8.82501
-11.7556
-17.1497
-19.6223
7.10233
9.09065
-9.65722
-29.5017
-11.0159
5.01176
17.567
42.4047
46.582
23.2932
16.4299
-15.9616
-36.28
-29.8741
-12.386
-17.0926
-6.75515
-1.67785
14.2923
-6.03187
4.68927
-17.6639
-18.836
0.0623141
27.8914
46.6405
46.3539
-4.51906
-5.86973
26.6576
16.5778
12.0326
-7.47571
-19.3998
-7.47859
-17.1619
-42.9749
-34.3272
-29.1339
-8.37776
-13.58
-27.433
-28.7614
8.81775
20.9494
-14.1084
-6.3659
21.3424
34.3664
25.9558
12.6147
40.8237
21.1414
-26.0848
-15.819
-7.78085
6.49714
8.47721
-4.44334
-0.308197
-6.28533
-9.57642
5.54178
6.63076
13.7727
26.8304
12.5805
24.9948
8.4397
2.09572
-2.82744
-15.4967
-6.33017
19.242
19.6303
20.9531
-13.3378
-35.677
-44.3389
-60.98
-62.6232
-38.1382
-12.9498
11.2886
24.3675
23.3503
22.6775
8.2721
10.0943
16.8466
4.3143
5.84072
28.0243
3.58375
-47.9161
-37.8629
-7.51992
1.883
18.0096
28.5222
42.5992
41.5094
8.02083
-27.8538
-13.8662
34.1635
46.8396
35.5689
21.7712
16.6934
5.26272
-22.0669
-20.6439
-16.4268
-10.5819
-23.6122
-9.92079
-2.96858
-15.6795
-46.3209
-23.7934
-9.56699
-11.501
-7.6662
-22.2031
-18.4806
-17.351
-47.211
-31.7104
-7.86496
3.05533
24.3467
24.1722
38.9919
48.7408
6.82843
-6.44433
-20.1116
-32.1402
-20.7668
1.63877
12.9113
28.2832
46.0739
20.7852
17.2563
20.9825
28.3306
12.9139
11.762
30.6652
24.7088
-18.8915
-7.99021
-3.92415
1.01762
-5.26358
-8.02747
8.86519
13.9703
-30.8931
-40.7069
-39.3339
-28.672
-9.82555
-2.14201
25.3944
45.4272
12.2981
9.39623
-5.95348
-0.0508718
21.2111
3.79625
-17.1343
-12.8824
-22.2711
-60.3966
-49.4709
-25.7435
9.33316
17.0755
1.96125
6.07744
31.7038
4.52262
-16.1116
-8.06575
24.376
32.4809
15.4638
1.45056
1.73839
-1.5437
-14.3264
-12.9186
-12.6442
6.56268
6.11366
0.736882
23.437
8.53439
-17.4656
-17.2319
-24.6881
-12.0818
-8.81288
-0.424281
26.3966
30.158
0.163358
15.7144
26.2121
20.2257
19.7853
4.92457
15.5996
9.78255
-32.8879
-44.1226
-39.9111
-9.86015
11.0947
22.135
41.1961
17.5218
10.785
13.1673
5.80019
-9.33329
-5.00347
2.19121
13.1974
-24.7268
-37.1962
-36.5718
-36.7933
-20.9523
-15.6414
-12.6292
1.03925
-7.59132
-5.11413
-5.91179
-0.571711
26.5321
32.7866
27.8004
26.8668
31.7392
-33.5365
-74.1852
-47.0853
-12.8814
2.03357
4.8649
6.86742
25.3592
42.1026
34.3061
7.98291
24.8139
20.1591
16.0208
11.5314
27.3751
38.3503
31.9573
0.192353
-5.74643
16.4346
7.5382
-15.9521
-22.3627
-19.3771
-53.5172
-66.6018
-56.9983
-40.6054
-28.5406
-9.23706
-5.78716
13.9326
-3.32106
-12.9847
9.3143
9.05165
1.1384
-0.684386
13.9916
49.2904
67.9896
53.5227
18.2666
-10.8182
5.26834
7.07323
0.783732
0.0554701
4.65286
5.06371
-15.3924
-34.5016
-11.2845
-4.5552
-30.4357
-57.3794
-34.6985
4.39283
-1.91422
6.08744
8.42274
10.0837
12.7868
6.97388
4.00101
27.5859
10.0343
-0.399875
-6.23385
-6.93869
20.3658
14.6528
26.3692
16.8935
-11.1463
9.8624
18.012
16.8927
24.1662
28.1347
19.5375
-0.410906
-22.6831
-31.9615
-46.5274
-57.6739
-41.7505
-32.158
-32.0149
-9.32302
-23.5292
-57.8759
-39.2394
-4.83986
44.5731
56.5476
50.6439
36.9589
52.9827
43.2945
-12.6251
-9.18795
11.5759
9.80699
-10.2137
-29.6252
-27.5814
-10.3369
-17.4188
-28.6477
13.8384
41.9915
28.3141
17.632
10.2937
22.6859
3.15541
-4.62054
-19.5752
0.122502
19.5788
13.7831
6.07728
-8.22174
-14.5619
-12.6808
-15.1737
-15.432
-14.899
-22.7393
12.6676
28.8158
-22.9793
-29.2276
-20.0178
-20.5014
-0.279547
8.00625
12.6916
30.1173
31.0317
24.7281
12.9908
3.96361
-3.56472
-7.98806
-5.13276
-12.2855
-5.98533
-33.5254
-43.2205
-32.7019
4.78688
13.8017
24.4425
32.8838
30.9215
-2.56414
-5.11373
0.0789122
7.64686
13.8016
15.2376
24.7193
20.7672
-11.6765
-40.581
-33.9922
-39.8334
-28.7663
-20.7529
-19.9592
-5.02934
13.5799
17.9147
2.6014
25.8105
48.5512
43.0581
24.4823
12.8466
16.2238
35.7283
-10.6921
-54.7846
-32.9358
-0.164308
1.87265
-0.398115
-10.3065
-10.7334
2.59535
24.1987
-0.0534489
-7.62411
-1.12585
-5.27386
-8.88231
-14.2966
-4.96209
4.65478
-9.04209
-18.5508
9.75724
23.8324
-8.55962
-27.3309
-28.2684
-7.22968
-7.07411
-3.59548
-5.39195
-8.85661
17.1086
23.3984
33.1801
40.3426
22.9535
17.0516
-2.20811
-36.4912
-14.6762
3.22634
4.29998
6.29963
-14.9339
4.49826
5.66278
-10.3568
-1.63419
9.95827
-1.8418
-8.87477
-24.4582
-40.4561
-24.3499
-8.0484
18.0782
26.9638
40.7668
37.0752
39.6204
22.146
-14.2958
-5.49563
14.093
5.99764
-6.24891
-24.5687
-28.4834
-0.336356
-0.804547
-20.3147
-20.112
5.59104
-3.19017
-27.005
-32.162
-19.3895
17.7579
43.3699
13.6523
6.82052
5.81262
-8.43833
-10.9486
-15.1801
-12.8073
-4.42954
-20.262
-16.7293
-10.9476
-6.33097
14.4735
19.3894
34.5331
38.1514
33.5796
29.2847
22.7404
-7.13774
-17.1808
-5.1209
4.57372
11.1873
26.6168
1.78365
-23.8751
-27.1043
-42.7644
-54.7726
-28.8658
-28.8714
3.11607
44.6091
37.2546
24.4966
29.1561
17.9377
8.11162
11.156
24.0679
29.4149
-10.0967
-36.1637
-44.0578
-53.7294
-63.5496
-56.8039
-11.1976
27.3586
9.67049
7.06391
22.0178
7.61338
16.1876
24.7432
14.6278
31.7973
18.4658
1.84209
-2.07106
4.36195
14.7745
11.5286
-2.35963
11.8032
-5.35343
-11.262
-13.3343
-28.1472
-11.1258
-3.2875
-6.93403
-13.0421
15.6116
9.977
-10.0486
-7.29486
1.53463
8.94335
3.44085
-10.3355
-7.44391
1.5308
-7.23356
-41.0471
-2.53401
10.7527
14.5137
11.6107
6.83702
10.0636
24.0565
-13.7927
-34.6704
2.25589
19.0239
1.59297
13.0977
17.7451
21.4698
7.02462
12.3313
3.39601
-10.4319
10.9476
8.58816
-8.7193
-11.1861
-41.9103
-10.8418
-3.35969
-2.23768
24.7857
32.0366
23.7442
16.8168
-15.0661
-19.8589
-35.5754
-50.7797
-21.0255
-8.74158
-9.58715
-8.39969
21.0997
-14.9712
-16.353
-12.32
-3.95983
7.66705
9.31479
9.10304
16.6326
34.4694
30.053
15.778
30.8127
32.3214
38.3075
27.7604
13.1018
4.59724
-3.49038
-41.0528
-51.5467
-30.7645
-22.9166
-25.6522
-16.2975
2.2738
-19.9059
-23.5672
-4.65822
-10.2007
2.72825
28.787
25.0156
19.3965
7.04604
-22.1078
-10.6327
-4.55723
0.0461883
10.7457
-12.7725
-6.85503
1.23537
-1.13951
-24.9684
-8.27662
6.71229
11.4612
13.9508
27.7691
43.1645
53.3965
42.7693
5.48121
0.0307133
-17.4028
-29.3909
-27.8318
-22.0618
-11.2533
10.456
8.56572
7.31163
-12.2926
-13.4184
-14.3206
-9.19973
4.57063
23.9972
-10.5527
-15.9388
-20.2115
-14.3271
3.78761
14.1923
39.0975
26.8727
2.70513
-2.637
-8.17567
-14.2745
-3.13418
-13.8596
-9.80418
-20.5735
-22.4063
-17.9748
-14.3739
-13.8435
3.54094
13.1172
35.5991
8.69384
10.1442
36.0283
31.3681
30.0627
23.4498
-3.65416
-20.6754
-24.8932
-38.109
-70.871
-56.8544
-6.36229
26.1597
18.3986
4.62474
5.693
36.1616
21.1831
6.9454
31.597
31.3568
12.656
-12.3836
-2.45107
21.9572
6.08982
-30.782
-36.6538
-13.8975
11.8849
11.0096
7.02484
-5.38306
-8.71723
-6.56348
-27.7795
-34.4215
-20.8506
-7.53739
3.23212
26.331
51.912
55.8946
11.3199
-2.49621
-3.95723
9.41332
-1.7719
-4.96818
12.8468
0.109344
-58.326
-78.5713
-58.4099
-35.7741
-9.29941
4.34586
32.3079
45.0025
55.4026
27.301
9.41846
-8.75577
-3.86384
4.68599
24.8839
26.0485
7.7075
-18.4665
-60.3055
-48.229
-22.6378
1.58293
6.26378
-0.718516
28.2893
32.7239
3.1533
14.8365
11.5244
18.755
25.0468
23.5664
46.1536
22.5133
-11.0777
-12.4363
-16.7119
-13.6241
2.36738
-10.8749
-1.10439
-15.0434
-28.3172
-20.5426
-12.992
-4.36145
13.426
5.03661
11.5028
-9.401
-38.1798
-28.4691
-16.3703
-3.30538
-5.06755
-24.6792
-27.7601
-10.3828
-19.5001
-17.6886
-3.57699
24.4911
41.2044
35.1786
23.1561
11.0339
31.3889
-23.6194
-37.7695
8.35615
33.7295
27.9413
13
5.87947
9.27313
11.2168
-19.8449
-7.10055
22.632
29.773
18.7102
13.1783
22.9455
-0.40251
-6.03086
-1.16276
-1.92206
15.5879
3.95252
-7.70417
2.54655
-31.3196
-27.7762
-21.4335
-29.8349
-26.1044
-6.19162
6.93974
-6.56694
-49.1468
-54.1151
-25.0923
-9.28875
3.39123
8.34634
4.59695
14.9202
24.1221
-7.29618
-1.61636
1.56016
11.0914
26.6781
53.3089
37.8784
31.0335
-1.74457
-31.7547
-5.54599
5.06005
1.29871
11.0438
14.3743
22.8781
-4.28029
-30.6061
-35.7133
-28.5339
2.93048
5.31192
19.9775
44.1813
23.0525
15.2983
22.4803
2.18768
-8.26633
-31.0908
-43.3694
-17.3427
-19.5706
-28.8906
-17.6175
-25.8221
-11.9522
9.35216
18.7262
45.5656
61.581
37.8589
16.5892
-5.14948
-7.88677
-21.4581
-31.4635
-31.7109
-8.88762
10.7733
0.875084
-24.8212
-17.5845
-21.3644
-22.244
-20.9118
-5.72353
12.9426
32.6996
22.3433
25.0961
28.8796
15.7495
-3.85588
-20.7874
-8.58224
3.55477
-11.2528
-22.5499
3.68629
19.7863
18.1864
-0.940328
-1.12803
9.68911
-25.1471
-11.2443
8.22302
12.9778
27.1287
16.228
8.78444
39.1083
29.4619
6.57621
-8.29108
-12.8035
-0.313584
0.600731
-21.8294
-17.4671
-19.9407
-37.2986
-26.4696
-23.4695
-9.35592
-2.51905
-10.7083
-20.9185
5.10327
10.3501
-12.4755
-0.167204
37.2471
38.9604
36.8984
18.2788
5.1536
2.97575
-31.8133
-54.0406
-27.7004
-4.72104
0.765903
4.90232
5.43101
18.2065
36.5736
30.2865
-4.50179
1.08909
14.4153
14.7713
7.13645
-16.0339
-6.36492
13.147
3.55929
-30.5689
-20.714
-8.16535
-7.61849
-4.42997
-14.3348
-4.45971
9.02873
-11.8961
-8.59383
5.00663
22.9475
20.4342
15.7233
8.07989
28.2593
5.85301
-28.8778
-26.9742
-6.31547
3.526
-12.4462
-22.4581
-30.122
-26.4887
-42.2296
-47.4205
-14.5809
22.9619
33.4434
43.0327
46.2618
43.9221
48.3087
1.8414
-7.00774
5.71644
22.959
15.7942
9.80821
17.1006
24.4119
2.44121
-9.17083
-18.8703
-11.1033
-1.97785
-19.5095
-11.1512
-6.45692
-39.5866
-24.5201
-16.4992
-27.423
-6.78947
-7.1845
0.559275
20.5931
-3.19938
-5.65298
-5.91628
-7.07748
6.8293
8.64512
4.70367
10.2233
23.2601
-11.9235
-28.7198
-28.6843
9.75515
25.5916
22.7573
40.1506
57.3398
23.85
-8.85511
-4.67626
3.37043
-12.7177
-29.1169
-31.4346
-19.9249
5.09987
-4.95032
-53.9948
-38.9367
-7.91578
0.0586662
6.93296
19.171
21.0464
27.2009
-1.90936
0.433402
33.3767
35.3804
9.83755
-1.51406
-15.764
-8.08352
-12.3512
-7.89061
-6.817
-3.1134
10.2943
13.7241
12.6237
20.6983
-9.07096
-16.402
-16.378
-12.1548
5.2956
7.54871
10.0798
21.514
14.2857
-23.8234
-22.7886
-13.5463
-7.48597
-6.31807
-16.5854
-13.2669
0.645212
23.1916
-17.0229
-43.2624
-1.02266
16.4559
22.7834
5.63857
1.68876
26.3735
21.8493
19.2129
20.2865
52.9481
32.281
-7.4044
-23.7948
-8.01632
-19.9713
-14.4433
-18.7791
-39.9027
-38.7368
-51.0485
-39.2819
-11.0398
-17.5179
8.20395
34.1716
24.1901
47.0847
44.3813
26.9178
24.997
10.4776
-22.2261
-26.451
-29.1959
-19.1154
-16.465
-13.867
-3.15369
32.752
53.5419
29.8866
10.5308
13.9219
14.9545
8.46989
4.61025
17.3273
32.7091
10.1769
-29.0095
-45.6539
-29.6299
-23.7081
-27.1923
-21.8423
-23.0316
-17.7075
-31.0771
-27.2014
-12.6386
7.4615
5.49788
19.1819
17.8386
23.6172
0.980466
2.50691
-4.44219
3.87905
26.736
32.3301
25.8219
0.845552
-38.1219
-46.9005
-28.0926
-12.2407
14.6648
31.6544
26.0652
38.255
-0.806167
1.12355
15.5186
11.8665
11.004
1.32983
-15.2689
-23.9017
-4.47561
-2.66523
-9.41858
8.00227
17.4907
7.88431
-1.66893
-8.14172
-1.5012
26.4912
-15.7367
-40.7312
-3.3921
4.55238
9.51742
5.57047
-0.0361369
15.6239
12.475
5.84872
7.03526
-3.07101
-20.8866
-45.0143
-35.5574
-0.784261
7.04327
-33.7892
-9.46231
-6.8265
0.893153
9.92375
8.6205
12.7416
24.2334
46.2648
27.8552
2.22625
12.5483
2.77359
-6.75678
-3.25612
7.87615
16.7546
-5.98413
-27.9221
-25.7102
-18.7973
-38.4207
-37.4175
-12.6141
10.2929
36.1632
35.1831
8.78459
2.16831
9.13014
18.9035
15.8942
11.762
2.12536
3.25669
-6.52978
-52.3161
-24.9145
-13.9699
-15.3602
-3.50529
0.974516
25.5825
24.3126
-25.2885
-43.3026
-23.2466
1.54605
1.86452
20.1973
41.0987
39.2487
22.0768
24.997
15.599
9.05483
12.0623
9.67265
19.2134
-0.0318721
-16.8881
-20.4057
-25.3202
-24.9806
2.66686
13.2312
18.1371
-5.7049
-0.66205
14.2687
10.9979
-3.51958
-17.2962
-24.7297
-17.5265
-24.5959
-42.1722
-39.1738
-28.8539
-15.6658
-4.47942
-6.64912
-4.38109
5.71641
16.3482
10.2953
-6.4793
23.0318
22.6237
19.3441
18.3414
26.1585
35.0892
64.316
37.744
-8.32324
-19.5576
-39.4244
-25.9618
-12.1949
3.43298
13.5547
3.73748
-3.27831
5.07465
-16.9192
-11.9072
32.0584
73.5767
83.2376
49.0714
7.74439
-78.3888
-118.219
-83.0352
-43.5801
-34.4441
-48.213
-106.09
-131.552
-68.9061
-2.1718
67.4306
76.3191
60.1734
84.4126
109.815
65.8748
27.8673
47.4351
76.776
70.9268
71.5445
69.9908
65.5079
65.1041
14.3912
-24.6106
-44.505
-46.308
-108.508
-166.363
-108.78
-33.542
-42.5156
-129.513
-158.212
-99.1776
-8.14733
57.09
112.203
84.5501
-55.7253
-157.817
-194.659
-100.562
82.5043
184.023
240.008
222.898
123.896
100.524
69.363
-23.609
-82.3985
-11.3251
94.3492
78.3637
-96.7356
-224.841
-146.942
18.6675
159.42
195.863
147.423
33.5346
-46.245
-153.632
-190.764
-138.174
-52.5843
-101.769
-168.078
-117.622
20.8295
148.001
120.752
131.995
180.247
138.471
19.4529
-33.546
-4.81415
50.2966
74.0234
33.7537
-12.7972
9.45309
33.319
21.9151
10.1121
-36.7045
-92.459
-92.2307
-55.8803
-107.696
-139.116
-137.582
-113.072
-76.2516
-110.299
-151.492
-76.5676
88.2517
196.067
194.193
93.6099
36.7469
13.2551
26.5382
74.7688
141.025
157.618
26.1226
-93.1393
-105.476
-68.7277
39.6817
165.698
105.493
-71.8006
-143.202
-178.508
-255.46
-229.832
-128.055
-5.91328
134.753
219.379
242.716
118.36
-6.71315
121.382
206.512
3.716
-210.776
-280.718
-211.751
-136.001
-45.2604
118.971
303.112
414.743
412.137
268.013
196.903
86.8943
-29.6367
-37.6242
-157.786
-451.371
-679.548
-722.815
-539.516
-154.143
228.261
377.714
449.11
402.84
230.755
99.8271
-23.2381
-125.044
-104.957
-78.4478
-239.617
-332.249
-348.299
-114.777
227.596
442.408
490.238
433.121
348.574
265.081
205.258
207.439
26.2131
-153.399
-144.045
-138.205
-223.792
-324.619
-259.926
-81.8347
9.72999
-74.3717
-229.828
-391.895
-500.838
-643.912
-431.62
-80.6786
131.598
134.626
210.433
326.038
92.8076
-248.265
-297.753
174.318
738.198
938.815
460.772
-53.9062
-14.8005
269.758
308.854
157.964
156.811
311.375
233.247
-76.1135
-60.9033
6.34518
-91.4939
-330.186
-318.697
-187.076
-123.498
-219.142
-539.185
-847.961
-612.667
-126.638
65.5674
159.595
256.042
133.64
-45.5202
91.8022
235.118
209.562
252.242
205.308
-45.0478
-307.516
-472.107
-393.538
-154.107
275.675
535.087
620.136
499.054
377.399
107.18
-93.4761
-57.7133
125.819
210.104
404.17
580.527
246.509
-204.747
-399.288
-496.879
-654.69
-479.899
-205.685
-169.412
-478.679
-601.89
-391.471
-58.1882
236.685
437.212
307.19
55.5999
-153.239
-421.406
-680.939
-564.809
-194.168
134.77
488.405
805.159
798.666
613.39
765.081
767.801
519.975
321.532
99.4014
-56.492
-323.469
-451.256
-475.061
-418.785
-247.349
-119.732
-163.574
-299.091
-236.007
-163.689
-103.17
-140.717
-90.5004
-66.447
-40.869
50.9154
83.8332
161.656
398.85
324.945
-6.29029
-190.054
-70.7837
12.2486
-117.011
-257.629
-225.715
14.9894
537.885
556.788
107.031
-22.7145
-50.5113
-96.7703
-328.984
-307.92
-118.741
-128.046
-295.368
-299.89
-116.857
-34.3458
16.2427
117.311
464.878
939.816
776.466
-25.9023
-471.894
-506.084
-247.769
118.276
544.905
668.443
483.351
229.453
-225.216
-541.647
-740.867
-873.324
-577.919
-72.637
144.007
81.5082
-0.590711
169.482
488.349
608.933
32.4658
-368.865
-240.906
-192.653
-225.692
-241.659
-108.965
-52.313
-51.1985
179.224
456.329
799.164
720.224
59.0835
-122.092
49.3612
-36.9547
-137.136
-122.175
-32.7126
-128.064
-438.53
-479.969
-427.166
-233.718
103.82
247.061
190.735
174.458
50.8868
76.4686
80.1
153.175
242.922
49.5712
-145.933
-198.876
-329.055
-342.113
-64.4039
417.881
766.758
551.194
137.545
-125.634
-178.595
-202.504
-204.467
-117.871
-31.9107
-115.095
-277.181
-271.312
64.4223
103.479
173.461
161.008
8.96212
10.8115
-53.4042
-164.63
-464.488
-577.309
-497.01
-359.403
-88.8335
170.99
480.453
425.969
223.107
330.61
461.097
412.334
163.22
65.144
-29.7563
-61.0796
-113.967
-310.147
-415.464
-210.214
224.172
402.506
502.733
563.939
407.345
171.073
-49.4174
-141.731
-208.146
-474.429
-724.117
-758.737
-586.392
-356.352
-10.8439
314.562
410.692
428.5
491.011
366.432
66.5115
-169.616
-330.922
-468.024
-304.741
-26.6466
125.568
192.621
49.7554
135.06
320.188
340.351
279.076
155.83
-107.087
-400.262
-602.332
-564.544
-429.904
-218.946
75.2334
117.537
150.127
384.26
461.844
439.964
291.051
160.841
124.032
71.2029
27.1612
-13.046
-323.529
-627.141
-435.996
-21.0259
310.596
574.748
536.638
141.582
-56.5021
-18.066
35.3066
-80.3843
-422.063
-689.644
-524.011
-246.625
-2.26873
59.0401
143.139
95.2245
179.982
358.779
226.243
-44.106
-187.131
-295.92
-280.997
-121.61
70.653
211.355
237.374
240.114
216.465
136.71
-34.4009
-33.3039
84.1916
171.367
99.865
28.1808
70.5185
89.6392
-63.3002
-206.767
-150.748
-144.072
-230.081
-125.761
27.0383
19.4444
-4.80718
14.5054
52.5287
57.7453
83.5423
99.4342
-75.1598
-160.981
-136.929
-182.893
-200.728
-183.725
-97.8195
69.7852
179.097
93.1827
139.45
429.887
459.606
237.399
185.715
221.071
-138.27
-679.102
-854.094
-611.564
-83.0929
233.08
467.395
572.704
435.723
254.276
85.802
-37.5643
-99.5964
-61.0488
-79.5325
-297.757
-415.899
-219.979
-80.1258
-161.858
-26.0785
353.314
544.192
307.415
37.3113
-166.679
-367.336
-316.85
75.6118
363.412
241.993
39.6983
-168.319
-169.209
-203.964
-253.396
-237.157
-305.803
-186.245
98.7789
328.764
417.179
365.894
332.081
104.37
259.409
-93.847
-497.557
-470.559
-347.328
-16.3437
-125.737
-370.56
-200.87
164.576
255.52
110.078
93.6801
104.484
205.817
311.582
311.761
302.816
253.948
97.6373
-164.727
130.203
246.277
-38.4129
1.4371
313.605
273.811
-128.335
-442.673
-591.898
-565.359
-458.397
-89.6711
315.669
136.989
6.48168
156.907
-188.944
-447.612
-309
-91.3752
73.2228
392.678
542.392
310.697
-343.139
-557.305
-385.394
23.1193
32.3739
-199.915
190.238
544.761
220.788
-38.0572
-212.886
-311.274
-119.415
156.31
337.476
277.076
155.657
47.5649
21.0179
175.983
296.861
371.697
447.651
85.1837
-318.365
-262.466
-192.487
-391.55
-390.343
11.4696
508.164
389.082
-112.36
-231.523
49.7931
245.983
194.153
-94.4489
-348.551
-660.078
-630.07
-321.309
-125.166
-165.88
129.041
427.511
459.144
315.798
-39.4441
-184.055
-262.587
-315.118
-282.054
-396.029
-287.345
-55.9753
119.993
188.579
209.521
382.817
497.435
468.467
523.426
421.726
257.66
135.778
16.9484
-54.8356
10.916
-106.924
-284.737
-213.764
49.6501
51.3846
-111.599
-376.8
-573.858
-369.88
32.4827
258.972
330.806
262.214
47.5064
54.4714
80.4766
-76.9282
-324.153
-376.455
-278.795
-210.75
-71.7011
60.263
162.743
288.716
201.546
102.159
108.664
26.0225
-75.1048
-121.187
-156.906
-155.986
20.843
100.409
78.539
3.91672
-46.3063
5.84114
48.6823
63.588
-6.72166
14.4781
181.71
115.857
-103.59
-163.302
-14.4337
62.4686
62.4605
-16.9693
-121.213
-78.4537
-21.3892
30.4725
64.87
129.925
136.819
83.0259
2.91225
-30.2088
-26.5517
-7.51435
32.7424
118.439
133.953
-1.58583
-156.732
-177.79
-146.135
-48.4687
70.1638
71.4014
81.8776
41.5654
-31.3067
-10.1672
-11.0952
-4.69566
-60.0342
-105.274
-28.3638
64.7649
145.848
215.687
87.1845
-273.927
-627.051
-664.135
-201.155
126.992
102.713
89.2206
83.7294
80.6263
171.475
248.074
302.198
192.124
85.1909
95.0062
3.23785
-29.6521
-80.6402
-73.7211
3.73097
191.726
403
407.162
115.948
-111.059
-70.2118
40.117
-56.9821
-100.248
-121.976
-257.398
-420.007
-384.957
-287.704
-290.665
-259.557
-117.01
65.3211
141.117
233.681
441.12
429.528
203.361
-78.7679
-243.442
-272.638
-213.166
-120.105
-19.0318
61.145
128.782
157.006
173.367
231.809
236.859
158.359
0.0101271
-53.1716
-6.67171
-19.3547
-67.4529
-23.1502
34.9408
-17.8568
-75.9278
-84.4534
-110.337
-42.5377
-51.0354
-48.2088
-18.87
23.1559
109.124
130.648
36.5644
-44.9063
-78.3207
-196.222
-310.702
-188.572
-63.3691
47.0258
133.219
170.169
136.612
74.4689
40.8357
63.1682
174.727
160.082
47.056
4.8793
-2.40277
-21.2948
-27.1968
-111.386
-264.454
-221.456
93.9837
293.452
146.059
-37.337
-43.6121
-29.2989
-52.6835
-113.234
-105.697
-55.717
-67.4572
-45.4548
43.8079
19.3753
-151.821
-184.014
-64.3388
95.0608
205.099
325.303
296.06
89.2139
-64.4955
-11.987
51.1617
63.7125
86.6967
97.8202
-19.1505
-183.203
-251.166
-286.556
-266.364
-187.775
-65.3606
39.3457
64.4646
101.745
160.554
122.003
-24.6072
-86.6078
21.0633
105.128
106.244
68.4446
74.357
90.4355
64.1427
89.8273
96.1737
31.9258
-21.1055
-34.866
-19.1725
-50.2757
-100.623
-94.7171
-122.128
-146.24
-92.8388
14.4649
71.635
47.2043
2.28201
-50.1665
-101.4
-70.961
135.822
108.052
-105.103
-191.383
-52.1898
120.376
148.382
187.449
179.306
22.8492
-58.7171
-150.175
-148.236
-43.868
49.0372
120.722
162.954
139.873
44.0921
-97.0337
-254.715
-293.111
-203.151
-4.6792
34.2417
28.9465
87.6148
-2.17195
-68.9468
33.1755
135.175
183.227
148.53
39.3877
-2.55773
15.9362
53.7258
56.5657
59.0425
100.455
30.2995
-12.2679
95.7744
144.32
33.5241
-150.127
-173.195
-97.4764
-99.034
-93.4472
-78.8128
-77.3521
-89.9254
-140.529
-176.951
-115.162
-26.6346
125.17
293.194
194.737
-59.2725
-246.798
-222.635
-61.9362
97.8577
115.871
23.8278
-18.8854
37.1947
81.9913
84.1622
46.707
29.8945
100.383
134.006
34.6028
-12.7348
-69.6827
-68.4987
-37.1108
77.171
167.753
109.703
-3.03714
-172.921
-221.903
-116.967
21.9512
-2.47419
-30.3299
-11.8194
73.3261
128.392
109.982
88.6064
79.6756
43.716
-34.6049
-97.7102
-93.005
23.2721
131.879
107.295
72.0135
183.534
85.155
-139.717
-198.032
-149.522
-45.9436
13.5761
-25.6479
-93.0534
-77.2823
3.11743
-9.28435
-208.371
-394.197
-409.946
-220.404
-22.1349
100.9
154.53
122.087
55.2712
139.691
193.995
173.094
153.814
85.268
40.8241
73.0063
82.6869
14.9742
-33.1274
38.8151
210.273
309.629
268.674
109.815
-57.6977
-111.124
-109.366
-153.855
-202.672
-158.6
-114.038
-88.3804
-27.3949
-39.6586
-43.3525
-17.9531
55.5039
15.4501
-114.113
-157.026
-99.8277
3.3915
65.568
98.5576
40.8145
44.4199
124.243
175.291
40.0641
-196.333
-144.101
-50.3713
-113.179
-100.528
-50.4742
-38.4063
-22.3983
47.9519
148.313
148.741
92.2133
87.2292
86.0431
94.93
87.1031
9.89805
-64.7432
-15.8605
70.5335
117.745
4.96678
-90.7566
-102.443
-126.145
-112.181
-65.0011
-36.5195
34.3427
77.2698
7.68735
-116.111
-151.282
-83.884
-45.4465
-1.19088
223.894
279.249
37.1831
-101.427
-75.0614
-1.93101
69.9919
93.5545
192.772
229.074
34.6466
-47.8964
-49.8775
-148.181
-199.82
-125.93
-29.3711
62.4409
81.8444
46.9489
-43.624
-224.854
-283.419
-220.739
-106.199
-57.8239
-0.983388
132.616
164.585
99.7988
43.5798
-43.4125
-35.3783
88.2254
216.02
322.229
332.099
140.518
-47.1639
-98.7257
-127.734
-89.3589
-7.26016
65.1105
75.0386
37.7805
-27.5343
-144.212
-200.296
-192.278
-174.881
-119.062
-74.3819
48.1515
126.417
20.8823
-110.565
-126.612
-1.51734
36.1008
43.2967
169.241
235.332
75.2473
1.01411
-20.341
-20.4835
1.01408
63.2833
140.03
199.894
171.067
100.434
17.4494
-122.142
-227.179
-259.434
-276.826
-188.818
-36.2515
7.2586
-61.1811
-45.6777
107.755
210.424
138.208
84.4542
57.1218
-150.493
-254.014
-76.3262
-5.86509
12.679
30.7079
93.7396
167.466
115.095
39.1457
-9.64732
95.787
179.656
72.5014
-67.7015
-63.2058
-49.6785
-34.0494
-68.4933
-2.30075
109.424
17.2815
-133.252
-173.455
-241.565
-197.869
-137.824
53.9265
214.987
283.511
199.031
30.3063
-69.0559
-94.2268
-198.215
-208.481
-56.7157
-0.187893
14.1391
41.2807
40.9359
146.295
261.323
242.082
290.128
243.497
29.1594
-205.593
-241.97
-165.199
-109.076
-182.123
-215.95
-8.36637
318.349
378.723
234.284
126.029
-67.8331
-253.299
-273.713
-235.692
-221.423
-97.2328
-71.6875
-156.732
-61.2212
123.127
115.959
8.01209
-15.5533
-15.3305
-13.5693
0.119766
39.1391
102.316
2.39071
-144.027
-96.0045
44.4882
89.9701
174.215
228.832
189.218
163.785
117.005
137.016
140.089
128.55
57.5468
-5.48033
-10.7762
-60.23
-214.367
-309.666
-339.629
-267.745
-109.229
-38.3595
-29.8345
30.9489
34.5199
75.6054
91.3106
120.352
143.292
99.1751
-27.6247
-87.0275
-19.6188
13.8224
16.676
-2.81372
5.66019
-33.9636
-140.363
-113.554
49.3943
77.7422
98.1865
58.2785
-0.975583
-27.7364
-45.6344
-111.588
-99.9175
-38.8138
44.4645
152.528
171.183
62.4943
-30.7699
36.7776
143.062
76.1466
-62.6486
-61.4771
-8.50294
-83.6171
-162.792
-174.724
-95.6041
-51.3784
9.02091
56.0774
92.6233
80.8949
19.2712
-11.3487
-6.97552
26.2623
56.0621
1.31243
-118.444
-160.208
-16.1914
62.3719
110.023
223.897
193.338
233.37
181.911
4.07231
-92.0176
-105.216
-139.424
-156.053
-82.1776
-58.311
-63.178
12.3009
44.0988
-40.4968
-50.8887
2.1942
-0.548133
-84.3645
-110.876
-31.3162
57.0383
33.4841
-15.9311
-22.9036
-59.635
-45.4966
-23.1433
-30.6197
-34.1512
15.476
28.9423
-2.06734
92.1502
170.209
126.068
145.221
4.19387
-68.1308
-39.8362
-0.718729
59.4305
45.2003
0.698038
22.8279
35.4044
9.4086
-6.55615
5.47767
-3.97699
22.5087
5.60497
18.5896
28.2591
2.01413
-29.5914
-89.6752
-119.49
-216.989
-334.458
-281.888
-38.4914
182.596
307.614
237.755
85.6869
-5.20533
39.3954
89.4309
96.6902
42.2891
-62.4387
-85.9513
-121.855
-120.353
-76.7233
-14.4567
159.288
292.96
189.897
60.4924
-91.2601
-261.668
-351.758
-250.88
-35.2374
111.455
129.646
87.1969
39.957
6.99138
-28.216
-44.3989
12.3404
45.5063
29.6122
31.699
51.9713
31.2875
55.4135
46.1864
22.276
3.7428
32.2932
72.0651
46.7072
43.5115
26.1519
-34.2502
-80.2587
-123.105
-58.2801
41.8262
-15.1831
-139.68
-170.363
-155.605
-68.5036
31.81
74.1471
91.951
90.9057
75.135
65.5345
16.0962
-27.4593
-73.8744
-97.3693
-55.8851
-39.2573
40.2411
204.536
275.381
287.017
212.692
42.9565
-86.4914
-189.636
-179.455
-145.549
-164.755
-222.575
-221.449
-211.009
-66.5426
26.7187
45.0917
116.941
238.013
371.876
338.791
151.351
9.45153
-96.8007
-163.955
-159.762
-243.47
-249.509
-133.594
-23.3243
15.4632
23.9664
52.68
123.889
78.5714
69.0831
157.878
160.815
81.4089
-15.8906
23.0535
74.8118
23.3081
16.8901
57.6375
51.3672
46.0808
-34.8448
-170.048
-219.941
-202.578
-153.036
-79.871
-86.2577
-46.4103
33.6987
96.303
162.263
94.5134
50.6766
32.4807
-64.052
-183.225
-169.61
-92.1862
5.04977
161.775
267.111
248.714
191.941
124.552
76.7481
-9.81047
-76.1747
-112.391
-190.1
-261.43
-281.957
-146.674
-46.2329
-25.2959
-25.4448
52.3251
92.0916
92.997
68.3118
58.0298
82.1946
117.449
220.615
265.957
177.006
40.08
-128.143
-199.771
-212.635
-132.606
-53.5777
-30.4149
-12.2069
-44.0228
-16.1441
-3.95517
-117.917
-164.728
-36.6448
47.7219
205.219
283.239
58.0069
-144.753
-102.255
13.5841
90.8957
114.93
151.614
100.039
13.2162
-68.2076
-97.2642
-88.9821
0.538452
19.2224
57.0262
53.971
44.5159
16.1468
-100.878
-161.969
-124.444
-68.378
-16.0115
51.9536
109.275
130.483
98.226
-24.0087
-137.152
-199.339
-221.229
-144.448
-21.7794
31.0881
107.608
178.89
151.125
99.6599
9.60042
-45.0366
-70.628
-124.422
-144.319
-90.8869
-24.4892
50.0842
89.3536
145.409
260.3
239.362
104.453
30.123
-20.8652
-9.92846
73.1571
-4.26892
-157.808
-175.01
-128.507
-115.862
-75.877
-105.255
-60.4917
21.6293
41.7934
39.6441
40.5416
41.5634
29.3029
36.5565
34.8808
-7.15091
-49.6239
-51.7036
-77.6603
-37.1408
81.4168
106.791
67.7461
38.3825
48.8488
142.669
116.672
66.1081
91.3726
24.1179
-84.6745
-150.204
-141.838
-83.8533
-42.4819
-15.3647
-36.9424
-112.975
-157.489
-51.1686
40.8458
5.53362
2.86938
84.2551
124.479
106.062
28.5256
-55.9545
-78.8701
-68.4744
-17.1763
35.4725
30.8057
63.9832
54.4906
6.15555
-73.9919
-83.9258
-76.7416
-22.7907
31.4557
48.8924
105.722
153.374
72.3282
-25.429
-90.4327
-79.8539
-4.29883
9.40272
-10.0197
23.2816
8.61514
-52.6091
6.38862
91.8726
163.504
163.64
97.5117
-0.619757
-78.226
-118.133
-215.362
-307.864
-241.938
-48.9178
89.83
168.488
129.185
43.1273
20.9076
56.3609
69.5988
108.246
157.953
76.6073
1.27918
-23.0976
-16.9826
-39.2255
-144.951
-177.781
-110.509
-103.194
-83.9505
-113.475
-127.581
-75.3455
23.6015
220.972
268.284
84.2212
57.493
82.9064
37.9099
-45.7494
-103.814
-98.698
-77.1026
-5.19559
121.91
225.366
187.964
84.4216
60.8151
104.176
97.5681
-32.8769
-227.056
-392.739
-290.936
-101.677
-66.8243
-106.053
-178.736
-125.273
84.4993
247.702
318.943
137.676
-84.4833
-133.726
-102.635
20.1945
85.4193
86.4828
132.377
222.189
268.442
173.529
-8.57994
-76.7002
-74.1237
-15.393
76.7947
116.694
46.0752
-93.6583
-200.868
-120.079
-30.4018
-106.984
-200.604
-187.953
-95.6813
-54.1411
-85.9613
-119.628
-151.938
-65.4406
69.5285
119.57
169.732
160.273
98.4491
14.8858
-28.016
37.6072
108.332
153.529
173.563
129.212
79.5003
3.19789
-78.0958
-98.4224
-152.983
-193.933
-145.794
-10.7835
83.9163
45.6296
-6.43724
-29.1704
-33.8865
8.32595
69.3305
3.84972
-14.3519
60.6325
87.1735
101.908
88.999
31.5441
-40.9135
-142.246
-93.7607
23.5221
60.6022
2.21436
-46.7541
-25.6463
-15.3715
-2.26731
17.5828
20.0798
10.6508
50.8453
41.0539
-63.0317
-175.53
-143.1
-37.8689
54.0791
122.857
207.616
80.4934
-45.7328
-72.5232
-70.0897
-26.6322
-62.0636
-123.582
-100.384
-73.5268
27.4736
114.283
119.282
86.5957
46.5691
6.2846
0.972891
-7.66126
-17.0857
-28.7434
-44.1584
-1.13276
12.8471
35.1051
35.098
23.2624
53.0655
71.5083
30.7873
19.8177
-4.39347
-74.3283
-118.356
-123.477
-81.7639
-36.0711
-44.0646
7.8767
30.4319
-12.9617
-22.151
36.4417
63.7008
50.8751
60.8513
120.052
137.955
20.8043
-65.6478
-86.5499
-78.9582
6.51131
156.299
299.704
308.789
117.27
-82.0487
-179.125
-220.587
-230.771
-161.564
-21.5231
-7.9677
-79.4794
-148.606
-121.56
-61.2853
-11.4059
48.2795
79.5191
73.0609
47.1879
-24.4914
-134.013
-117.692
29.9094
133.992
112.713
90.2002
97.0646
49.7132
-26.1955
-25.4819
36.2242
60.9047
20.5203
-13.479
16.9407
22.0399
30.9375
21.0713
-34.3763
-64.2316
-115.485
-112.329
-4.45482
46.4583
55.1083
66.5047
82.5617
42.885
9.01065
-17.3745
-24.8034
-42.6783
-95.4511
-62.0801
48.2614
104.547
120.399
105.622
117.691
48.5637
-92.9417
-243.782
-276.027
-170.387
-100.568
3.99331
111.365
204.916
246.669
86.0682
-71.743
-106.237
-76.8751
-53.5984
-5.2143
41.3759
-32.3646
-84.1281
-60.9169
-3.34973
87.4566
194.821
237.083
117.039
-33.6092
-124.863
-118.573
-179.111
-250.317
-106.57
95.4848
138.521
103.792
69.315
5.64469
-78.3525
-76.0472
-64.7049
-75.1642
-53.8148
-42.9996
-40.9106
-58.0067
9.4828
174.95
190.006
93.6516
56.7126
35.9847
30.3701
46.3563
58.9866
50.0888
76.6875
74.6766
50.4858
42.5897
25.8149
1.20565
13.3767
37.3481
91.4113
-2.32661
-99.2213
-135.43
-167.42
-183.749
-154.709
-136.163
-118.992
-104.435
-47.5012
-74.7321
-159.476
-132.687
-19.5894
105.269
245.966
352.376
270.696
34.198
-133.17
-32.3102
19.0329
-59.0024
-111.608
-112.743
-49.0843
42.8554
110.116
167.377
173.905
157.056
111.261
-15.6449
-189.4
-313.382
-323.641
-264.514
-75.5805
227.186
381.887
320.075
215.864
174.659
172.25
111.617
-10.6151
-106.971
-226.128
-357.177
-350.516
-240.81
-124.488
16.2359
145.669
296.783
283.171
80.1015
-17.4821
-85.988
-128.589
-83.3619
-15.3395
19.6065
-14.7101
-10.4069
59.4169
94.5001
31.6115
-12.8723
-34.9147
-15.1156
13.3837
-17.1391
-15.5821
-45.7315
-76.7795
-90.3147
-78.293
-12.5514
40.9601
65.6036
-31.307
-107.943
-45.2155
81.5843
153.577
172.786
182.822
84.1916
-88.6849
-207.218
-158.842
-71.2674
0.805849
23.8401
50.24
56.5111
49.4267
60.4793
117.51
162.982
87.8829
-15.4953
-87.1833
-164.547
-221.62
-244.27
-142.54
26.3152
70.0824
79.7165
110.475
144.457
178.973
138.386
79.3392
109.656
85.4156
-10.5236
-83.0875
-144.929
-117.285
-91.4602
-62.9966
-60.2831
-98.1125
-110.774
-124.49
-45.4938
121.764
163.345
88.8292
41.4298
-24.4178
-34.5349
-2.55128
17.919
26.0159
47.9833
-24.6267
-111.349
-87.6202
-14.7544
50.5054
80.9368
93.8004
129.284
175.618
70.4094
-107.782
-209.987
-225.806
-169.051
-64.4788
-23.7694
-53.851
-57.4546
-4.89387
55.1617
50.9957
71.1442
104.264
123.709
83.8297
75.7666
78.2197
37.1069
-20.1257
-48.4302
13.2217
83.3715
83.8007
44.3294
35.7606
36.3896
78.4652
124.125
33.263
-168.681
-227.567
-149.996
-49.1112
7.31274
-11.218
-57.2526
-87.2639
-91.7708
-97.8086
-68.4963
-10.2706
59.6927
102.525
71.6556
21.7554
21.813
-18.4311
-103.944
-33.6978
102.728
66.5734
26.7064
11.2185
-26.2667
-38.2128
-25.487
15.3919
20.1647
29.8972
76.4104
113.675
50.8965
-26.8299
-84.9452
-81.6041
-45.0586
21.461
57.0633
27.7641
-18.6252
13.1926
20.6824
19.4716
31.9343
8.33355
-10.982
-7.4299
-36.2093
-68.9341
-51.0744
-41.0402
-32.3917
24.8905
89.5583
81.7195
104.575
118.551
95.2317
71.2256
-12.9587
-91.2596
-112.07
-148.091
-136.227
-89.755
-66.5287
-37.6278
-16.9961
41.9456
95.4802
53.1831
-46.5365
-93.6803
-106.057
-58.4021
-38.4053
-47.3185
23.6731
101.835
152.309
129.507
107.389
92.0077
25.0147
11.6972
-3.5686
-45.3289
-52.0053
-42.6874
-48.2828
3.03718
5.74822
9.34956
46.6991
24.6032
28.5647
37.0944
-6.10688
-54.9233
-46.8806
26.5784
57.8738
118.126
93.18
-31.9129
-103.895
-89.594
-70.3889
-91.8969
-86.2043
-79.99
-34.7443
19.32
86.3901
113.183
12.6664
-34.935
-25.2197
-34.0284
-13.482
25.4762
42.2495
6.17565
-17.9201
-16.0026
29.4007
23.9756
28.9574
47.6733
-15.8048
-61.3063
-53.088
12.8735
24.9087
5.0208
102.216
160.997
87.8937
-25.9884
-87.945
-114.098
-60.8906
-76.0992
-114.05
-76.4322
-58.6921
-37.527
-24.7016
-42.2779
21.1838
119.975
199.36
171.994
91.8879
-0.260301
-120.745
-137.256
-3.20904
166.326
223.333
88.9093
7.6477
7.42675
-28.097
-23.7107
-8.61326
-37.313
-24.7608
-23.9425
-69.3795
-85.2513
-92.9618
-130.821
-100.462
-67.3854
-27.4385
-10.4048
-31.5065
-41.1409
2.06533
77.0809
81.5818
84.039
132.54
51.727
-47.6312
-88.992
-116.094
-118.693
-57.975
27.0536
53.5391
60.387
42.0252
144.148
244.671
166.026
40.9853
-25.9282
-11.5496
-11.8174
-45.6026
-63.4861
-49.7283
-62.8523
-104.064
-74.8982
-18.094
24.2824
48.4612
14.5253
-31.6029
-65.5379
-64.1715
-80.4237
-92.7352
-36.259
79.2383
98.1334
32.1113
27.8512
28.9535
25.2493
28.24
81.0129
114.785
105.035
56.9842
41.3352
24.0357
-17.3651
-39.6539
-59.9646
-60.2672
-11.0348
-29.9585
-56.255
-87.1012
-133.902
-118.742
-88.3857
-85.7135
-25.6866
15.2925
58.2394
120.731
106.598
39.9724
-7.83553
-30.967
13.0881
15.0062
27.8753
58.479
6.30939
-7.91674
5.74134
27.2777
58.1878
100.22
62.0519
15.5375
-28.143
-18.1312
-32.5783
-123.45
-106.734
-73.2778
-49.7514
-40.372
-7.9267
27.3994
102.28
143.316
165.395
100.214
-16.631
-99.3052
-101.932
-89.5531
-57.5104
-13.1453
-6.52694
-4.98735
2.11286
0.233243
-21.3485
-32.4306
-60.7883
-77.0391
-13.2608
31.4751
12.4654
9.40996
-0.691901
22.0473
43.9717
76.8004
67.7764
49.7469
55.8669
72.315
69.4729
47.5922
25.3215
33.2002
28.3536
-7.14598
-25.8935
-18.4588
-21.0818
-55.5874
-106.432
-90.7853
-56.5342
-33.7117
-26.2374
13.9851
58.6337
-5.64041
-127.721
-188.086
-210.039
-124.744
55.6294
140.884
163.929
128.328
98.3197
67.5344
32.7968
34.1067
46.8078
29.1533
-7.06458
-49.2643
-11.6368
-8.87845
-66.9972
-37.3844
18.8832
94.8953
101.731
13.0408
-61.1947
-65.2015
-15.2097
30.9097
-4.66485
33.2709
76.585
90.6111
94.759
-23.9841
-177.059
-234.3
-222.264
-142.596
-17.5421
48.5663
65.373
53.6954
55.379
57.407
61.6517
58.5423
69.0896
93.2284
102.874
57.266
14.694
-69.9502
-138.458
-170.436
-131.431
-13.0444
47.2749
19.9747
37.214
87.6983
91.1747
48.5321
34.5841
50.8824
34.3614
-18.0505
-51.029
-80.9142
-93.2037
-79.2099
-58.5429
-36.6447
-5.93883
91.6718
160.866
136.909
56.1714
6.63461
-45.3072
-103.49
-87.1442
-36.2613
-34.7016
-29.8866
8.87911
49.7875
20.5923
-10.3393
-19.166
-46.0075
-34.5922
-5.44494
10.9174
7.917
-6.14778
-16.7721
5.97435
7.09585
15.8059
23.2512
8.04637
-57.9863
-105.771
-53.3266
29.6729
133.399
196.061
129.572
39.795
40.1516
64.928
17.9968
-25.0925
-55.5589
-37.0909
-31.1676
-48.5747
-49.9697
-38.7007
5.79032
8.23221
-34.7702
-37.3721
-32.26
-49.8622
-89.2339
-121.882
-106.084
-34.3361
-6.09262
-5.03699
70.3602
116.695
135.089
124.58
73.3176
102.011
100.419
-1.33965
-109.616
-90.5773
8.56382
35.4494
-17.226
-106.409
-200.347
-210.647
-61.5451
74.7982
101.436
79.6763
89.437
105.086
55.964
-15.6338
-29.7819
-2.07764
23.2097
111.193
203.367
106.272
-30.147
-78.8319
-109.677
-91.7143
-29.5567
42.6963
52.9669
27.2709
49.8507
34.7917
-65.2659
-152.413
-130.517
-67.4533
-41.6649
-85.2178
-101.231
-78.9874
-93.8631
-58.0431
52.462
111.722
116.156
119.808
96.5934
77.4907
80.5127
47.6299
35.7375
-1.7819
-49.1618
-69.5866
-59.6455
-72.8917
-123.763
-67.2384
25.2509
74.571
51.5785
42.8013
80.4988
124.909
152.786
42.5064
-102.657
-178.717
-139.728
-21.3988
-18.2737
3.66124
61.2618
62.6328
128.813
81.902
55.7591
15.1325
19.3702
-9.97255
-78.6864
-97.7868
-64.8411
-104.963
-191.15
-79.7703
112.785
171.748
106.507
52.4201
52.7628
52.8787
28.5982
1.45257
-59.5262
-50.719
2.61498
-23.2165
-91.8847
-127.744
-96.8538
-7.15774
5.96729
-66.1241
-128.501
-149.828
-65.0834
40.0814
73.0618
138.88
160.348
30.7169
-33.8547
-24.4477
58.4771
134.184
178.082
182.711
41.834
-60.1628
-64.1919
-98.6411
-45.184
126.522
216.393
135.578
23.1823
-50.6262
-89.1355
-164.154
-194.01
-77.0944
-26.8642
-5.31012
-15.6582
-22.0332
-102.728
-199.171
-135.861
-47.2375
28.7911
76.9786
37.9494
8.56938
82.3101
186.92
171.864
69.4
25.6303
38.9365
31.0418
-6.34606
0.932512
6.32278
-45.5731
-86.3806
-15.4407
13.6366
-44.3092
-121.119
-142.615
-132.847
-65.7427
44.9984
35.6494
58.6728
80.2941
72.194
79.4432
41.213
52.357
122.979
92.2015
-8.25293
-56.5834
-97.8204
-125.293
-40.5025
99.2869
168.885
157.305
105.63
26.9561
-173.752
-314.513
-239.992
-104.066
49.5641
166.604
97.9963
-36.7542
-90.7947
-67.3012
11.8488
119.762
152.564
74.9097
16.912
-20.4808
-77.6248
-108.647
-63.1513
26.0278
66.6322
76.6755
40.5955
-29.1917
-93.1525
-114.99
-77.0593
-25.5158
23.1671
34.1534
-60.7685
-139.554
-26.6321
85.6263
70.7307
45.2087
54.0311
57.1278
40.3709
46.3132
109.101
141.214
79.4728
18.7699
-2.63041
-107.642
-164.635
-182.327
-104.312
29.3314
206.898
193.536
56.3678
-22.9059
4.25703
-51.4098
-65.3877
80.2312
195.562
8.23833
-80.9783
-65.3791
-93.3069
-88.3104
-99.489
-57.1767
13.5784
50.4852
22.0724
-49.0765
-107.9
-41.3054
-31.3388
-60.1901
-85.5198
-49.7358
33.2279
19.8857
-27.2843
0.314109
-0.521116
-14.2552
36.4873
71.4139
85.9098
64.1721
-6.77086
-15.1825
-32.5512
20.7293
111.133
146.296
106.231
88.7345
74.3224
70.2834
39.1757
-37.0959
-134.452
-129.429
-50.7627
-37.9004
-80.8331
-51.4691
58.0397
180.011
216.936
103.178
8.61707
3.41216
-41.921
-89.8969
-62.7552
-47.5063
-60.6155
-66.2275
-99.6144
-130.762
-117.476
-94.9023
-94.481
-104.66
-106.311
-106.731
-90.3681
-25.9663
39.2973
140.347
167.561
139.663
89.9036
71.5218
120.51
194.068
128.449
14.8663
5.26739
-20.3379
-65.5338
-31.5301
16.4904
-12.6528
-21.1209
23.1523
31.72
15.6073
33.605
49.8917
50.3554
11.8799
7.51174
-25.6059
-112.529
-163.775
-159.896
-116.678
-52.2948
-3.50276
22.9812
-25.0622
-40.9931
-17.7201
-14.3753
10.0805
60.2168
48.899
34.6957
37.2906
49.9109
79.5193
62.4843
28.0479
34.5657
14.5812
28.641
38.8704
17.7443
-32.9628
-69.7922
-55.3945
-13.125
94.032
110.263
63.9006
-3.1254
-48.0122
-26.1685
-20.8364
-25.2181
-54.5216
-85.2018
-89.7827
-77.6524
-95.3311
-134.151
-70.7447
-43.7066
-14.2425
36.5792
69.0034
77.8473
16.1794
20.9092
98.1256
120.954
97.8961
78.4482
-21.2427
-122.994
-99.508
-2.24165
47.5038
77.6549
84.1029
99.7834
70.7805
22.1562
10.5503
4.48235
-22.2141
-16.0764
17.9996
30.6307
-18.7903
-68.9124
-80.0527
-119.524
-87.1652
16.0975
25.2133
-29.9705
-27.946
-24.4603
-26.537
11.3072
1.46453
-44.3623
-30.0316
-14.586
-19.5569
-24.4682
-6.65889
0.873095
-10.1821
-14.7004
41.2076
118.123
138.023
112.735
68.6378
26.4202
-19.5377
-42.1825
-46.8195
-62.5414
-57.2622
-42.787
-5.61725
34.5743
50.2924
8.31995
-36.8417
-13.2496
-9.74426
-7.51191
1.96008
29.5126
94.8443
59.5949
27.5916
6.77935
-48.696
-51.6474
-54.2118
-80.4597
-120.987
-133.959
-72.6936
16.1126
54.0479
60.3665
100.402
83.7659
22.5138
-21.4334
-26.365
-42.2643
-26.4894
22.7465
42.9111
61.7658
90.3439
77.1598
27.3685
0.135764
26.2751
83.5076
111.271
83.8842
40.9494
-49.442
-112.582
-126.029
-77.0135
-57.633
-115.184
-112.55
-39.7471
-5.28834
-49.8551
-79.2506
-68.165
14.7681
75.0543
76.0133
72.8351
78.8429
0.240511
-65.1972
-50.2183
-3.37663
6.34853
-31.22
-52.6219
7.22349
25.2638
-5.28712
-42.3603
-27.8404
40.9456
85.0667
144.535
96.7762
88.4443
95.5371
56.9151
48.4598
32.3044
-19.4339
-65.5272
-62.9949
-33.6323
-38.7463
-56.515
-23.298
29.6041
30.7106
3.4256
-10.1785
-4.88701
5.20747
-38.6212
-10.1196
-11.2
-48.2442
-62.5137
-112.482
-125.003
-71.5401
-51.891
13.9644
78.7409
86.8194
74.8414
42.418
16.9315
0.0414398
-27.1418
-46.1159
7.31003
41.9219
32.1717
36.5504
33.4768
30.2755
28.5722
10.5817
-40.0753
-94.2678
-100.889
-67.1792
-43.1686
-3.77197
72.1389
155.686
192.955
124.481
69.6232
26.5747
-26.7041
-36.0873
-53.1053
-95.0953
-60.6622
12.2303
43.8764
36.5986
-26.7607
-77.6624
-114.072
-154.779
-141.434
-94.9417
-47.1274
-1.64672
75.5848
162.162
174.08
201.123
136.128
-20.6877
-63.8287
-56.7381
-93.0077
-106.188
-114.537
-65.9205
-6.2928
11.383
89.819
128.854
116.97
71.7891
18.8933
-29.5101
-79.8718
-62.4883
-43.0714
-60.7223
-19.811
54.4296
82.9035
73.5258
64.1891
18.9523
7.07944
5.73286
-38.4888
-58.4964
-24.8533
-1.5905
-10.4568
-40.9638
-104.883
-142.082
-144.851
-84.8382
-15.2983
24.7397
65.5192
116.166
73.1483
35.3597
29.412
35.9396
33.8423
6.35699
39.6133
68.4855
39.8389
4.57008
16.8331
53.2415
70.2571
50.5559
58.4896
44.4631
4.6738
-10.0681
-63.698
-56.3294
-14.3194
17.7753
-26.8747
-135.288
-248.137
-294.414
-199.532
-72.7479
7.7971
57.6814
124.714
189.265
201.093
111.95
12.6356
-30.0899
-11.7524
16.8313
47.0548
33.6542
7.28837
4.89405
17.7255
23.3745
58.7206
81.6465
60.5905
23.154
-24.0294
-56.7798
-42.5017
-77.6241
-97.2223
-30.2988
-20.8185
-73.7156
-110.328
-106.711
-61.6785
-24.7103
62.8844
146.48
110.085
48.3437
48.3554
40.9358
31.9365
3.37236
-38.1287
-61.69
-85.2084
-88.5401
-62.741
-37.3223
5.45572
49.8538
81.6529
96.7874
110.567
109.43
45.2549
-54.8382
-35.0725
48.7192
19.9775
-7.0815
-6.09347
-26.575
-61.6001
-95.5301
-129.121
-115.23
-76.9332
2.87569
18.9083
42.8943
72.0962
35.5549
33.2716
79.0451
68.4464
9.83733
-7.74799
4.76677
16.8767
-5.67604
-25.3806
-21.359
-10.616
3.99716
-15.6807
17.4405
93.2425
73.5203
37.2743
41.664
70.6812
44.102
-63.2847
-137.407
-132.343
-81.2715
-25.0606
-0.642753
-4.65887
-9.36514
-39.4466
-70.292
-46.0169
-27.7316
9.41729
-14.978
-74.4359
-63.7207
9.28389
48.3085
0.89754
64.8353
163.441
131.63
42.5855
10.5324
13.4765
41.8566
117.622
138.283
60.8944
-8.22877
-23.5994
-13.7177
-26.1671
-82.1197
-160.594
-146.753
-138.124
-137.267
-80.0319
-38.6614
-11.5713
61.7504
62.1994
57.0637
76.8149
57.5482
8.28206
-13.7315
25.6183
81.1663
62.5851
26.3514
50.6123
91.9284
101.96
71.5839
40.7277
9.28196
-20.9268
-122.766
-217.742
-208.286
-100.502
3.9413
48.1828
42.7072
9.10297
-1.93886
-2.07924
9.20523
22.4687
9.1524
-29.1941
-2.32329
-9.54021
-46.9924
-48.6701
-13.6577
13.63
69.9884
115.568
194.265
249.224
149.687
-28.2966
-103.69
-109.548
-128.491
-144.294
-127.377
-113.221
-70.637
-2.99113
12.7437
17.442
33.2621
88.791
118.45
70.138
9.11551
-6.02333
-67.1701
-95.7873
-105.836
-51.3463
-12.2854
6.1272
30.9613
99.1985
115.424
62.4813
38.9789
6.03918
-29.5437
-47.2806
-1.86653
50.0721
14.5045
-3.77469
1.21175
-3.16474
-3.72598
-42.5227
-20.766
99.6258
147.422
109.066
31.0137
-55.1439
-92.892
-71.0072
-102.621
-146.729
-117.69
-68.5554
-61.5484
-44.8515
-9.97601
26.0986
37.8321
48.8277
35.5717
27.2861
39.8955
63.7835
36.941
21.8657
8.11522
2.62767
3.82586
20.0129
85.8081
148.724
157.095
91.2513
6.91528
-52.1007
-92.0271
-96.6521
-52.4478
-81.1177
-65.3954
-12.5388
-59.0625
-158.563
-147.798
-86.6565
-12.1039
28.6181
17.3118
-4.14947
12.5166
16.1189
37.0229
80.2896
103.421
73.457
77.2789
59.5293
56.6315
93.5
87.5578
53.4505
5.39445
-29.5757
-52.7784
-93.3727
-117.072
-98.6084
-31.2755
34.368
-7.55998
-75.9419
-36.9999
1.09873
-7.78326
18.0412
53.8322
79.7256
42.897
3.00363
-9.5281
-64.1992
-56.4445
-43.0422
-75.2767
-14.3704
49.4259
60.2182
70.5402
49.996
54.6934
104.798
85.5461
13.1697
-11.105
-40.2561
-90.2242
-89.0765
-85.1519
-103.439
-76.5396
-4.23923
57.9365
153.106
143.032
123.514
93.7212
33.5261
-103.988
-176.732
-164.549
-141.014
-106.964
-37.712
-9.32793
9.08764
32.8846
26.0489
70.2199
97.8037
81.7209
90.8394
64.0181
-0.269815
-12.8518
-88.8938
-89.8637
-62.0684
16.3222
76.0355
65.9223
64.9324
40.9677
-106.486
-151.319
-85.3581
26.4958
133.145
145.322
113.868
60.8909
-14.2838
-105.201
-124.196
-84.1721
-39.3491
-26.4504
15.25
60.3664
50.5974
25.7372
-15.1407
-17.4537
44.5448
84.6579
80.7976
34.9067
-7.10052
-49.6623
-50.4631
-40.2571
-19.062
8.17384
5.73083
14.5586
6.45257
-36.2262
-85.1294
-95.26
-58.5747
-41.4837
-8.72429
13.7944
41.9324
13.8486
-23.7888
-21.0414
-13.3302
8.85454
23.0056
53.6937
90.6564
20.2521
-99.3222
-81.5949
-15.2405
31.3978
52.8626
69.7706
103.303
126.193
70.1192
-49.4941
-54.1895
-11.1073
8.83637
-5.98953
4.2748
23.1259
28.2577
-22.9228
-84.6017
-45.9383
11.6903
25.1015
43.0459
110.568
102.951
-25.4151
-160.744
-211.818
-161.911
-28.6389
43.4773
42.3138
17.4881
9.4353
-9.78406
-21.9967
16.3814
29.6623
40.7401
36.3287
35.508
36.8649
1.75535
-52.1524
-61.6738
-52.7319
-13.6051
30.287
47.4891
74.0798
87.5322
33.5476
-11.6248
-69.2281
-76.2385
-26.4583
47.6109
85.4603
7.97264
-23.965
-11.9583
2.50613
7.85682
6.7141
-1.20839
41.5037
110.735
91.034
-24.2381
-143.566
-146.006
-71.7932
10.1542
51.1865
31.7784
-21.185
-89.687
-89.1655
-16.6251
43.1973
71.7428
95.0979
74.4191
16.1414
-28.5525
-47.3026
-61.9133
-25.0008
21.2549
39.6465
15.9876
-43.2561
-82.8824
-99.6638
-63.3357
-7.14365
54.877
116.575
161.899
144.849
109.801
44.3978
-43.3039
-89.5148
-105.402
14.8942
71.1261
-14.1975
-43.9127
-17.338
-26.7376
-33.242
-21.698
2.06756
-11.665
-27.4022
-76.7281
-93.2376
-13.4132
18.7806
7.37629
-3.72894
-13.7953
-28.0153
22.3514
52.8965
14.1374
11.6541
27.7633
4.49437
6.30271
27.9744
42.5576
51.1871
59.7918
60.7893
56.9102
24.9794
-19.0416
-10.3732
13.1726
25.2787
35.146
9.77228
-18.1634
-73.026
-111.736
-118.511
-114.127
-106.554
-101.291
-122.215
-76.4215
23.2185
73.3578
84.62
134.139
156.13
149.9
93.8933
56.4495
20.1243
-21.6035
-50.3659
-72.4585
-76.7789
-57.8041
0.415412
47.6108
36.7509
36.5621
51.295
55.7523
25.5823
-11.3936
-13.0854
-22.241
-34.9399
-68.6255
-32.0979
-52.1476
-91.0763
-113.247
-92.4914
-63.9919
-37.9663
-13.071
49.8297
79.2063
84.7872
80.9993
73.9458
1.00615
-0.133524
49.1024
3.54859
-102.201
-83.7364
9.70182
74.5528
83.1254
93.882
120.977
117.835
45.5298
-20.6373
-35.3037
-70.9621
-76.3061
-8.42305
30.4088
63.375
80.6853
13.8023
-68.5113
-103.315
-127.283
-206.858
-208.185
-133.483
-49.1214
132.473
283.219
286.648
164.968
-2.74102
-116.35
-158.199
-132.912
-106.705
-45.5216
-27.2725
-30.2233
5.55172
49.48
70.5304
137.414
158.534
108.2
55.7755
3.87809
-95.9684
-146.492
-144.339
-48.1338
38.9378
134.547
149.54
28.6736
-71.6678
-82.13
-98.3915
-115.864
-113.251
-45.7825
70.1094
70.1456
44.8618
62.8379
68.069
44.4004
9.18572
-15.2269
-36.4775
-52.3196
3.01019
50.0156
40.8038
44.212
54.6168
96.2658
114.381
94.174
69.1234
21.9874
-26.7735
-36.1241
-56.2365
-147.379
-146.901
-134.223
-119.766
-104.903
-56.3525
-14.0061
-14.1287
-70.794
-66.8858
-15.5803
13.8388
18.8446
29.4577
52.9751
80.1691
57.0855
63.7555
83.7508
136.898
203.592
138.718
52.7353
-4.95929
-69.743
-76.0545
-66.292
-65.6641
-43.0166
3.69729
14.3745
-7.18392
-88.8586
-153.303
-142.18
-100.605
-39.5916
54.69
222.824
240.083
11.8868
-92.8323
-105.534
-39.8016
6.61829
17.6592
6.8131
-17.9096
-15.0018
-29.587
-54.5518
-0.229776
84.7916
176.101
177.076
78.8012
33.3158
29.4638
-101.928
-167.274
-72.3106
2.26823
32.3491
16.6944
-0.886348
-25.2388
-7.55167
-16.0532
-29.9616
-26.8129
6.4357
37.9364
30.8264
-50.8072
-146.309
-146.67
-70.958
-27.8149
-4.57824
23.7802
85.6032
103.266
80.7438
51.1111
72.1222
71.0878
17.3048
4.24879
-1.36586
-15.6013
-17.4781
-22.3512
-48.3593
-43.9894
35.3445
93.1484
54.6241
-26.5273
-23.8933
-28.3757
-103.243
-97.0055
-11.0643
23.8895
28.2539
17.5052
36.4342
47.5237
-11.3482
-60.752
-78.9935
-130.114
-108.931
17.2368
118.053
159.726
103.524
61.6332
30.5993
15.8119
68.879
88.0082
31.0502
-25.2472
-76.7086
-88.5963
-69.5351
-16.74
67.455
0.926771
-103.884
-123.928
-114.633
-69.8868
-63.2408
-43.3267
30.4267
105.945
151.061
164.618
138.671
61.5858
13.4737
-27.2509
-67.7529
-110.827
-117.787
-110.74
-91.4063
-34.0645
59.2459
123.735
155.059
108.038
27.2368
-0.250651
-21.6182
-52.1759
-66.1767
-115.92
-99.6729
-33.1221
17.3713
48.2311
91.5087
88.2115
57.4873
5.87386
17.7778
57.1156
53.7127
0.281897
-41.6036
-58.2663
-71.416
-89.8704
-83.8765
-84.1315
-67.37
4.38734
82.1914
134.046
81.0726
11.6118
-40.8666
-63.7021
-27.29
-20.3984
-41.5314
-12.6514
11.1693
14.6161
11.6039
0.403972
17.1924
44.1485
49.7584
46.1489
29.7398
65.9739
63.3736
6.73797
-19.6108
-44.4774
-6.13856
22.8362
7.54467
6.82561
11.5928
28.4527
-9.28863
-103.088
-128.795
-81.2502
-40.3328
29.8456
18.5698
-12.865
6.44083
-61.6443
-129.14
-87.9486
1.87425
78.6051
110.321
92.1967
78.9465
50.4411
-4.73867
-61.0546
-61.7903
6.91665
56.3171
77.094
68.7358
106.207
186.352
142.052
1.59413
-37.6428
-114.745
-148.696
-116.52
-145.202
-118.449
-14.7325
48.9262
25.2104
-50.4465
-38.7439
9.53186
20.3324
14.3779
11.4645
-19.463
-80.7151
-104.459
-56.644
16.8652
59.6617
84.7409
104.9
94.4827
94.6778
67.7095
31.1228
-1.71107
13.2072
0.824172
-0.505576
-17.3499
-52.3966
-57.8334
10.227
44.4152
-2.03681
-40.5367
-48.1915
-63.854
-83.3411
-29.1719
-15.5953
22.53
52.4464
1.20513
-0.395449
45.0805
49.3225
60.541
26.2197
-11.2016
-8.29015
-26.8386
-104.003
-139.36
-109.147
-61.4474
26.5869
82.8582
100.888
126.735
123.378
119.38
142.722
169.211
112.866
-7.74669
-78.1482
-76.1445
-113.937
-132.778
-141.05
-147.303
-122.13
-91.3204
-78.2873
-42.0499
-2.74543
49.3889
75.5446
74.9579
67.5519
-16.9928
-50.1881
-18.8288
-13.1088
-39.2477
-33.0328
-8.46649
68.6541
96.3544
101.823
88.9662
58.3335
9.17724
9.45972
19.6717
-4.34865
-22.7271
39.8275
124.139
92.4092
24.4778
-39.1954
-55.1156
-37.1987
-95.7093
-134.67
-86.968
-54.1036
1.51545
61.4165
67.6481
37.1781
-34.911
-42.5887
-51.4634
-62.6023
-51.9655
-76.7818
-97.5767
-43.2236
62.3589
119.168
83.6245
83.7714
144.588
72.6634
-64.1209
-130.483
-137.342
-80.114
-12.4389
45.1101
125.512
130.254
103.706
71.8286
46.7297
40.2787
-5.24826
-65.8729
-58.0741
-62.8165
-67.0363
-77.4987
-90.8352
-71.0049
10.2899
67.7909
137.963
152.256
90.4126
49.4736
35.8731
-14.6736
-63.8816
-90.0111
-105.096
-125.012
-121.436
-54.1157
-1.97706
-12.9148
-19.2341
1.0558
-9.42145
50.2636
79.97
73.4109
17.2971
-60.1776
-72.149
-63.546
-10.129
21.0182
7.62018
22.6443
22.9769
46.113
110.455
93.6972
40.413
31.1286
54.6862
66.2589
59.4762
30.4588
-2.178
-48.4076
-102.194
-82.6812
-91.7572
-69.6514
-29.2776
-19.8559
20.7723
90.87
180.267
108.808
-63.806
-119.481
-111.714
-103.807
-77.5304
-61.2336
-45.4976
-2.07682
9.85668
40.9418
52.4205
13.9126
26.9801
68.5272
89.1782
26.1748
-17.7516
-49.3219
-74.3332
-35.6264
6.68207
34.8562
73.6472
81.3918
55.8812
36.2725
23.0898
5.75086
-15.0532
-22.9715
-20.9225
-74.3128
-106.014
-98.3843
-87.0557
-47.8744
20.1375
35.2969
29.6814
50.4743
70.0975
73.3353
68.1651
54.7178
29.5972
11.0421
-15.1978
-28.5354
-11.0739
-19.0819
-36.9194
20.857
75.2956
76.8388
55.3608
-14.1635
-78.696
-119.831
-146.808
-117.419
-49.7417
-9.32528
38.3184
57.3654
50.9019
40.5781
19.8964
4.92405
-30.6062
-38.9307
-19.2675
-10.5492
-12.7605
-12.1117
-37.1297
-6.22221
40.5637
71.09
84.2985
67.3776
96.212
115.308
22.0317
-27.8567
-24.4136
-34.6011
-42.4688
-48.8854
-44.6528
-22.7025
-4.90996
-27.7388
-26.1935
-31.9871
-31.4283
-16.6071
10.2024
23.6625
42.721
47.6386
-30.1883
-82.8493
-38.8325
14.0773
17.2726
31.9637
69.4733
60.485
37.728
24.8345
-40.5188
-84.1631
-110.747
-96.4309
-27.1834
32.9639
52.0851
68.4739
43.1706
22.4201
45.0237
37.5669
11.0569
-38.8203
-93.4507
-65.4071
-19.4237
15.4211
7.96149
-26.3459
29.2203
77.2906
93.0804
65.2273
33.9967
15.2047
-0.0446097
-22.6783
-17.7019
-10.9327
-6.66626
1.33936
16.1179
4.04453
39.1777
54.9104
12.8724
-34.2359
-89.787
-131.337
-130.56
-91.6153
-62.3719
-8.17455
44.7203
30.3435
17.6794
60.7912
93.018
36.919
-16.7576
-44.8555
-56.1839
4.45913
12.1084
-17.6508
-13.0694
-21.609
-0.513293
26.8608
54.1273
66.1895
53.8311
35.3802
12.9401
-10.8526
-7.85659
-22.2572
-18.594
36.9911
70.2556
62.2643
45.4856
12.0022
-6.24349
-22.2696
-27.6153
-14.0113
-5.00335
2.72083
3.22193
-30.6645
-42.7509
-69.5184
-78.5831
-70.6078
-67.5321
-64.0448
-61.5131
-25.6777
-3.83067
64.6557
135.007
127.713
45.3553
-16.0144
-41.4411
-39.3509
-52.9945
-46.3781
-32.7507
8.72699
28.6343
30.3603
50.7406
47.6463
32.0548
-0.881835
-35.8927
24.9168
61.435
38.9864
-5.30859
-18.8915
0.380352
37.8164
38.1019
42.6298
72.0888
95.1371
36.4064
-51.5437
-78.9335
-67.1092
-94.0254
-74.2174
-37.9178
-3.30026
19.8223
-15.3384
-21.7047
-7.53753
-51.547
-42.9439
-30.4882
-24.1134
-12.1252
-23.8934
-13.7031
16.4081
26.0426
12.3715
-9.39755
-19.4687
8.55637
37.3859
37.0039
25.1725
26.763
28.0767
6.93215
-1.7053
24.7123
49.7853
45.0608
21.2444
31.7233
24.0772
4.58627
-29.827
-43.2598
-19.5466
-0.238045
-5.52266
9.88245
4.50719
6.77186
1.63262
-17.1521
-43.7364
-49.0197
-27.9695
13.5964
12.2365
9.23086
31.3648
34.2975
32.1164
12.4909
-21.7406
-14.4451
11.9354
-20.9767
-47.083
-22.5836
-1.68107
-10.5989
15.9563
35.7494
40.4997
51.6971
6.42029
-23.94
10.7026
16.0674
-11.6823
-36.8696
-57.7184
-76.3864
-94.253
-79.4486
-92.0418
-64.8587
12.298
43.7064
41.7262
21.6042
33.9592
57.2725
51.0153
38.2508
57.6693
75.6754
85.3078
74.9912
13.8442
-17.0786
-4.66168
-16.4643
-38.7044
-36.8714
-24.6031
11.9343
-7.19262
-38.4828
-37.2498
-5.17804
27.4733
50.8567
72.6594
74.218
54.9409
28.11
-24.5061
-48.5242
-27.3018
-40.097
-103.113
-91.2049
-47.4454
-30.5876
27.9261
22.1116
-47.5461
-41.4569
-13.5086
-8.51468
-38.5555
-83.8824
-67.1368
-42.8444
-1.43086
57.992
80.525
61.9409
37.2409
57.2123
92.2512
65.063
21.3428
-4.66255
-18.0031
-2.33556
48.8004
46.4474
19.6355
-19.5332
-52.9243
-59.5664
-55.6709
-17.6132
1.78254
23.8694
61.6854
101.357
109.491
94.2858
55.3936
54.7286
49.4403
-40.9187
-123.423
-148.238
-184.305
-209.496
-175.175
-109.205
-8.9298
108.147
179.369
210.973
122.771
16.49
-20.231
-53.1218
-71.2259
-95.7448
-109.125
-111.633
-104.046
-15.7066
70.5828
82.8046
93.4522
112.398
145.467
155.307
123.248
73.1496
22.382
-48.8955
-63.0709
-82.9364
-97.5094
-71.9053
-37.0218
11.8381
21.0373
13.6067
-1.35902
-32.7111
-30.368
-55.3339
-92.3967
-89.5137
-79.8189
-107.034
-72.7905
-34.0394
-25.9843
1.66004
-5.56971
39.1182
115.581
158.77
132.781
85.1501
100.619
140.01
145.949
123.018
112.914
116.459
50.8097
-27.4276
-88.947
-224.111
-213.051
-148.763
-145.911
-111.214
-2.75639
38.6409
11.28
-43.0312
-42.8871
49.4078
-38.1301
-103.965
-49.8189
12.8117
3.78047
-32.6098
32.2797
110.664
144.202
109.616
25.3267
-5.29218
-0.641105
-9.51953
-15.3375
-37.3795
-46.4577
5.50455
5.06313
-17.1559
34.2374
21.8145
-27.5315
-34.3971
-18.7215
34.8649
41.5412
45.662
95.618
149.263
83.1443
-38.9439
-103.091
-78.2093
-43.2536
-17.406
2.45203
3.11635
-17.2778
-24.1938
13.5424
15.6249
-5.52025
-3.25923
62.5477
98.9726
30.9895
-87.0927
-124.389
-109.512
-41.2177
27.6414
85.7661
113.57
68.6505
-25.7734
2.23186
56.7514
11.4049
-39.8929
-28.9293
-19.5852
-48.6338
-83.1873
-136.578
-170.282
-101.606
-20.3743
17.0981
74.5389
57.1708
-8.37009
2.04433
32.3215
-2.89924
21.0645
11.0916
-6.08217
25.4734
66.1959
79.0172
81.6853
63.7435
-10.5438
-68.5915
-42.2212
15.3814
32.0938
17.0238
-29.7928
21.3538
122.871
99.4739
20.4199
16.7293
17.4417
-5.40154
-59.7608
-121.544
-135.336
-129.12
-79.5216
11.2339
63.2663
15.6341
-127.98
-148.928
-83.8117
-24.9305
150.625
245.717
161.9
37.3331
-59.3914
-81.9585
-20.3498
16.9432
36.4575
54.9237
60.5207
73.0393
20.2133
10.2528
109.261
187.004
193.303
30.5863
-80.7646
-96.7663
-154.77
-199.392
-166.406
-71.192
-36.3528
19.1942
40.7757
24.1549
70.2299
89.193
35.8359
-67.6132
-139.491
-146.375
-151.599
-94.48
-11.5904
39.4462
25.9645
-0.22015
-37.8586
-97.2975
-57.033
21.7598
168.713
316.37
327.045
177.077
54.5585
-16.4928
-30.1528
-5.60118
-66.7524
-142.444
-107.01
-15.4503
11.3762
-72.89
-128.149
-114.689
-34.1451
-24.6589
-13.7989
-10.6204
-6.80356
-27.0571
-51.0286
-10.0403
22.9551
65.7257
107.077
104.992
122.337
168.503
96.4939
-79.8963
-148.409
-16.421
85.702
112.538
43.2546
51.7421
82.2494
62.5082
-4.14594
-102.2
-160.574
-121.691
-109.487
-78.3274
-91.4333
-72.0494
2.63679
-16.2089
-77.941
-76.2232
-39.7283
21.4126
64.1343
70.3665
81.7193
52.816
6.79826
-10.1063
-46.3461
-21.6614
8.88398
19.4445
91.0876
114.986
124.279
127.934
61.1797
-19.4914
-127.982
-93.8001
-33.8619
-7.68991
-27.6649
-53.2257
-8.64518
15.42
-28.8457
-42.0892
-25.2896
-25.1838
-2.45102
29.937
113.86
158.956
71.1945
-43.8181
9.26183
62.1391
53.7388
-0.449595
-2.7443
-52.1451
-164.631
-150.023
-137.872
-104.118
-23.7098
20.1729
54.9093
76.9768
74.0139
19.7851
-54.6175
-70.2937
-41.1146
35.3162
33.7679
31.6759
70.0135
74.4145
137.788
146.299
111.54
31.1201
-9.00217
-113.778
-166.121
-126.004
-104.265
-74.0833
-95.8363
-48.7056
10.8391
40.6859
55.2348
114.67
94.9295
-3.92178
-52.8222
-64.898
-59.2535
22.0597
124.845
196.903
181.087
81.6752
48.7061
7.51966
-56.4845
-102.091
-88.7535
-68.3532
-82.5249
-119.906
-97.6546
-91.8152
-49.1435
8.49352
39.0261
35.4988
-19.224
-88.7817
-73.1707
-62.2544
-56.8446
-0.830466
40.7653
78.269
121.744
97.1393
150.553
158.36
92.4081
73.7325
38.8346
3.01624
-32.1824
-76.0936
-72.7973
-68.019
-75.1556
-45.1527
-26.2556
-43.4762
-33.4903
13.878
32.4761
7.67646
15.102
27.0949
-9.42468
-31.7634
6.81519
81.833
125.079
105.805
83.4786
62.0976
63.1457
-32.7372
-177.315
-214.201
-212.989
-161.113
-52.9229
26.0972
60.2494
91.4122
118.799
103.494
37.0509
-11.4128
-39.8898
-81.5192
-77.1863
-50.8267
-55.0301
-54.2487
-1.44182
110.585
170.126
195.34
135.723
-62.6713
-112.019
-69.6373
-58.1403
-35.6675
-0.499839
-25.1906
-30.813
-10.0359
-16.1113
1.31989
21.1145
50.9098
75.306
109.448
34.3632
-9.492
-13.4843
-93.4886
-124.482
-42.3607
-3.19099
0.0841901
-21.4945
-47.3858
-51.1656
-11.6905
69.0061
98.9719
108.865
128.383
104.648
49.3858
-40.2451
-119.167
-115.754
-122.151
-84.7157
22.6994
54.7215
27.6131
13.2752
-4.77735
14.2651
24.881
5.36547
21.6644
42.6378
54.4091
4.14041
-64.7527
-63.6756
-31.0911
27.1829
34.9962
14.1395
22.708
-3.75315
-11.8823
19.6894
37.124
-30.5766
-65.603
-50.8589
-58.99
-70.7063
-50.7697
-28.4444
9.93718
81.938
176.912
129.619
11.5667
-39.3684
-37.2457
-29.0669
-22.0756
-36.562
-57.6029
-2.84681
36.9364
65.5824
90.1657
36.2615
47.3778
45.0744
22.0329
-18.6094
-88.0037
-165.036
-229.561
-217.724
-88.5673
37.2347
128.337
117.975
87.3038
112.227
64.8649
2.09869
14.6654
29.1479
0.499134
20.0069
73.4038
56.3697
-13.5526
-67.7307
-52.0419
29.9135
115.371
108.546
22.5161
-26.3283
4.06058
13.1769
-63.7994
-101.533
-147.648
-200.221
-178.693
-86.4267
-14.8638
-15.9375
-8.60046
39.3076
99.7141
152.607
150.37
113.696
17.9752
-66.2678
-70.904
-35.5286
-17.0419
62.6622
119.653
72.0588
-7.6959
-1.00671
-13.9801
-44.9052
-54.5161
-39.1378
-42.8857
-66.9262
-65.6358
-26.5415
58.4123
96.3229
71.2302
46.8418
70.5758
38.5242
-55.9592
-133.406
-87.4614
-30.0944
10.3262
57.2838
66.031
54.794
29.6884
21.9528
1.55086
31.0395
36.8511
-20.3911
-59.6222
-62.7677
-76.3282
-70.8792
-45.9907
-23.9914
-49.0857
0.209137
5.45816
26.027
72.5433
62.7214
49.0321
53.6728
42.0434
43.6119
45.2908
25.2612
2.33801
-20.387
-101.872
-94.1611
23.7527
102.871
77.6144
18.0027
-48.7414
-123.072
-149.485
-137.837
-79.9832
-21.9777
-2.26396
26.8439
83.1979
63.8653
61.9154
89.2197
71.5911
55.6118
52.6921
-7.11101
-18.5865
-26.4555
-34.5326
-12.6256
36.074
46.1359
7.35943
28.1377
37.1284
-6.79489
-66.9175
-81.358
-66.3361
-14.205
1.48361
-56.2418
23.2541
74.6373
9.58905
-62.0297
-20.3787
45.2406
61.0748
-7.54061
-10.5017
-13.5884
-11.5946
-40.5493
-57.7553
-68.001
-43.7867
-53.1961
-10.385
9.22994
13.8828
63.0006
66.4263
42.0523
39.626
29.6682
-34.6442
-67.8966
-54.0663
26.6794
57.8013
68.223
38.414
35.6547
64.659
46.3129
44.4883
21.49
-4.6539
-13.3813
-4.28167
-10.1111
-14.9619
-25.3982
-15.1528
11.4694
-0.246032
-5.04956
-33.5991
-53.9627
-55.8208
-55.4628
-89.1325
-128.696
-122.016
-87.0698
-24.7796
60.4046
112.78
14.4807
-59.4493
-11.3645
15.7083
63.9389
152.295
198.679
152.261
130.606
123.177
51.8568
-1.85769
-4.82612
68.3188
121.285
3.45075
-103.601
-115.509
-139.491
-175.713
-123.581
-64.8747
-70.3737
-89.1867
-116.569
-66.9328
-13.382
-103.137
-128.118
-27.0824
54.9031
87.9079
98.8842
45.8476
4.04792
46.8554
139.036
138.96
78.0757
27.3099
16.477
21.3418
12.4789
-19.7912
14.4845
-5.56775
-51.5407
23.9791
79.8729
3.37905
-27.586
-55.5152
-85.7911
-48.9428
9.43941
49.0126
46.2253
8.48728
-13.5113
-12.1433
10.4638
1.58616
-6.52903
2.70628
-34.2762
-48.0234
-57.2833
-45.3396
-36.7451
-56.6456
24.6434
103.593
89.5429
62.7415
10.6885
-15.816
-4.7644
-17.5435
-15.8789
-13.5631
-41.8572
2.19471
55.7087
30.077
47.7708
56.8411
59.8611
50.7031
26.098
2.15676
-57.5797
-76.6951
-36.0879
-22.6059
-30.4199
-28.1062
-61.4806
-89.1163
-51.7077
-19.4283
-10.3441
-11.4034
-36.9118
-58.7059
-28.688
32.6945
49.7775
60.5246
51.3302
29.9534
58.7827
47.7937
4.10846
-30.0252
-43.9391
-13.7323
-8.12075
-4.41391
0.351275
32.5205
51.3172
31.9023
39.4478
86.1611
74.4465
-4.68223
-47.86
-29.0003
-30.2825
-34.1194
-36.7506
-19.3899
-14.9886
18.1417
11.822
-40.0624
-41.9721
-36.253
-32.0182
18.5978
33.9509
58.8895
49.8102
-2.97205
4.176
13.1625
-0.193687
-30.0649
-70.451
-43.7124
-7.87383
-48.9193
-32.8096
-1.34104
50.7102
107.122
117.962
69.0513
54.6323
30.0663
-20.4924
-78.6069
-89.4113
-47.8147
-71.5512
-107.319
-106.282
-74.1083
32.1971
154.095
175.513
140.348
87.3196
19.222
-23.8943
-90.8578
-85.6114
-52.4209
-86.3997
-79.0038
-20.9963
-6.98191
19.4369
23.8134
15.5798
16.5616
59.4493
116.455
112.18
5.19101
-55.8263
-2.87251
3.3792
-33.4079
-80.8219
-55.8129
-31.887
-4.22385
14.4318
-19.883
-25.8934
-54.8524
-73.8783
-20.721
46.4171
83.2707
79.0979
53.0072
29.0768
13.5752
-6.06694
-12.5038
-28.4239
-29.8366
10.5714
27.2205
-9.12316
-56.3248
-106.45
-75.2426
-22.1343
23.7585
56.1977
78.1288
77.2771
81.9649
78.7831
43.7778
39.1511
1.57858
-18.1419
15.2747
25.379
5.90661
-41.2055
-87.2243
-109.416
-57.2097
0.854586
40.351
54.8418
70.8562
60.9096
17.3707
-32.1862
-49.0362
-96.6243
-129.94
-122.031
-101.624
-45.4824
21.6496
104.096
161.441
73.1909
1.58668
5.99088
-24.1883
-7.54146
11.5556
-30.2
-74.4473
-78.5178
-43.4064
8.72008
44.4791
92.1563
131.86
139.039
175.969
176.548
41.0398
-116.734
-181.569
-184.886
-128.532
-51.3555
13.992
12.5562
-29.2404
-3.58962
20.5263
20.7465
25.3056
9.42926
-0.342034
-9.49721
-27.3614
-0.684525
-28.4222
-100.126
-89.5547
-23.9995
-22.7131
15.2597
114.505
185.467
128.054
58.7822
9.96682
-9.2333
-59.7259
-59.6951
-38.6349
-16.8438
15.619
30.1584
42.1983
19.616
7.03599
13.2202
31.3232
-9.40712
-9.2179
17.3613
4.90574
-51.6585
-48.8079
-31.5535
-48.0252
-37.3898
-22.1299
-7.00397
8.79612
53.3771
38.799
27.0536
30.7443
27.0399
4.48691
20.4726
16.7742
-4.93334
-29.1633
-52.5828
-108.708
-100.583
-73.8249
-69.9339
-31.8385
10.7303
33.2841
52.4253
47.4262
24.807
-25.3043
-45.3059
-28.769
5.7556
77.1397
98.7182
90.8063
86.7604
49.7702
31.1167
32.8868
0.465018
16.5943
45.002
36.8415
5.20255
-35.389
-61.3049
-76.2806
-45.8074
-15.2939
14.1696
19.6523
-1.21822
-9.01798
-32.9364
-60.1664
-95.5901
-60.0072
36.6124
84.2416
61.2875
10.2307
-43.3618
-47.5942
-41.1676
-17.9105
35.6501
63.2872
41.2056
40.9161
0.0946341
-34.1763
-38.0263
-87.1967
-127.605
-111.985
-45.9385
13.343
13.8842
25.9945
94.0028
119.254
78.5104
-8.21791
4.91658
20.0623
9.35438
32.6624
31.1933
31.0184
21.6493
39.9888
76.0275
136.323
99.1137
-0.0786602
-48.8553
-83.7176
-110.766
-134.283
-145.657
-124.243
-61.74
-7.90358
12.445
16.5736
-5.87178
-4.42482
8.92526
9.0168
34.6082
10.9349
-35.8352
-25.2254
-2.84145
80.812
115.374
122.361
108.743
67.4531
-21.307
-70.713
-87.8711
-117.725
-76.4812
9.32348
12.4443
-8.69968
-0.447319
37.5349
82.0411
104.568
70.1637
25.4966
11.5902
47.3615
36.6711
-30.8791
-67.4826
-72.6331
-77.287
-26.123
10.9396
32.0142
17.91
2.24809
-7.05895
-44.2361
-81.0185
-90.1173
-89.2674
-75.3523
-32.4994
-24.9091
-8.25463
18.5358
59.3948
34.1046
12.7835
0.409083
32.4623
36.453
23.7927
41.5721
44.7898
24.7625
16.4957
33.6218
27.145
8.41298
15.2718
28.7921
57.8503
74.4606
54.0767
-11.4541
-45.0266
-20.7262
-10.8408
-16.1425
-32.0516
-60.4143
-81.8267
-90.1235
-69.6752
-78.1091
-60.4465
-11.2192
48.7997
121.732
104.718
36.2595
-6.0876
-13.6331
-9.66604
-5.55215
4.1588
41.4243
23.3272
-39.6664
-41.7522
-44.4308
-33.0727
3.54728
32.6576
41.6487
62.4746
33.8598
18.7208
6.78458
-20.3263
-27.1493
-59.8355
-64.7594
-34.837
-5.31413
18.9119
2.89916
-11.9149
9.44584
50.2565
87.1871
51.5767
27.4172
12.947
22.7959
-15.7144
-19.4801
-25.1042
-37.1948
-30.5508
2.21629
24.9382
44.9865
19.929
6.16335
-12.4194
-36.2938
-56.2556
-67.8674
-82.4425
-55.7535
-45.1951
-36.5935
-38.3771
-24.4454
4.35451
48.7379
56.415
64.1768
68.6707
61.2703
41.0909
23.9923
16.3742
-4.98286
-7.98516
-0.967006
33.4899
29.0614
28.1248
22.7542
36.5356
7.12022
-1.22029
-1.64852
-15.6692
-46.0092
-61.3612
-38.4194
-26.2743
-35.782
-14.7648
18.8252
38.9075
27.9831
-0.708994
-7.62778
-11.8388
1.57378
-6.01203
-41.7712
-40.6593
-35.9547
-50.0506
-27.9758
-18.8143
-6.33522
2.01574
7.19436
11.6303
-5.07824
-6.07268
-7.78069
-2.30348
40.4145
99.3037
108.2
105.248
74.1208
25.5195
-41.7495
-37.811
-12.6356
-41.012
-78.5037
-74.2108
-33.6149
-13.559
-0.135373
26.8388
72.3643
61.4916
59.7435
67.7012
10.7784
-29.6435
-60.4872
-98.1158
-80.8357
-42.9601
-14.6219
-6.50839
-4.10513
34.4189
49.4337
-0.66758
40.456
114.88
84.1755
27.885
4.26977
-2.82508
-26.3667
-67.4745
-70.749
-71.8207
-75.7293
-97.8068
-131.361
-104.766
-35.4991
-34.6997
-16.1249
-10.1061
32.4721
106.548
104.938
84.2658
142.297
157.427
67.5376
-3.08768
-20.5303
-8.69582
-2.58753
17.2344
43.0843
59.4356
55.5693
43.5751
27.1804
38.6204
7.70729
-28.5826
-57.2386
-77.1775
-92.115
-134.86
-161.424
-117.136
-41.3672
6.91514
23.2848
23.824
3.91544
-3.78554
-0.279755
26.9004
54.9483
44.715
34.641
34.8616
35.1268
26.9547
-9.40295
-58.8966
-103.718
-93.5432
-49.7947
22.2446
77.519
103.759
53.5834
10.0107
17.612
21.953
26.1202
46.814
75.9542
52.6783
-58.4113
-127.519
-121.698
-51.4997
30.6404
45.1524
25.6405
31.8622
12.1397
-31.0435
-27.2786
-6.12958
40.0108
64.4574
45.4403
28.4671
1.38667
-23.456
-84.2836
-87.8619
-15.67
51.9376
62.8325
35.5701
46.3142
85.2978
52.4769
16.5903
-46.3108
-78.132
-121.843
-122.467
-77.8887
-58.4121
-73.4486
-20.8287
54.2421
60.0654
44.3671
22.438
17.2539
4.72863
-33.868
-65.7727
-53.8033
-20.9318
35.5615
77.9913
117.688
133.429
128.721
85.9387
46.6375
46.6864
43.7773
-8.02852
-32.1769
-25.7762
-62.32
-122.405
-77.6639
-37.2849
-51.1232
-62.2879
-51.7167
-40.789
-0.574392
-12.7145
-59.578
-52.5599
25.5253
66.7427
59.9752
32.7176
8.03737
-2.76318
-62.3054
-102.593
-24.5397
43.6602
60.8003
48.2248
66.9796
91.8774
55.7383
24.859
-2.42957
6.19705
30.7304
45.1998
9.9669
-13.8863
-73.5328
-76.0153
-29.9348
0.881384
49.7356
40.9556
11.9175
-14.2542
-76.8004
-52.128
34.3313
14.152
-8.15577
-3.50249
8.19243
18.0184
20.8891
-4.94041
-24.5907
-38.729
-36.5931
-56.9217
-100.212
-103.733
-33.8723
49.0407
67.4414
57.6624
63.6784
45.9525
-10.4176
-43.0886
-23.2067
16.8112
11.3556
20.0413
11.4062
0.756036
19.7054
44.0111
84.7155
112.666
83.6823
78.2154
25.1075
-38.8084
-38.0386
-19.4516
-12.2585
-21.3642
-76.6566
-69.7805
-16.6181
-24.9265
-40.0579
-48.7177
-44.8173
-17.7621
-29.8923
-49.9258
-52.2637
-6.25102
46.342
58.0879
47.2141
29.8005
6.48056
-12.7926
-17.4109
-22.4106
-10.7968
10.4695
-8.90543
-14.7985
-9.51339
-17.3567
-4.64303
19.4597
35.6867
36.4635
17.7049
18.0517
24.4644
-14.6148
22.2786
35.4397
34.945
29.168
3.64641
10.5817
-4.70881
-17.53
17.8801
-20.6882
-12.931
43.9809
-2.61664
-30.3625
-15.0684
-24.2601
7.27101
5.85961
9.4255
19.1965
-23.2399
-24.1854
-9.55852
-25.4541
-19.6989
-73.1983
-67.4933
-31.1185
-36.6847
-12.2955
-11.7167
7.48014
70.5698
86.6113
81.9233
51.6708
36.8937
46.066
23.6387
-13.7934
-22.9259
-42.739
-67.3161
-70.1518
-42.2635
-6.74435
19.4587
-4.74571
-25.7951
5.81802
0.325454
-35.9794
-27.2832
12.7744
32.0031
75.1445
81.9579
63.5047
65.5752
54.4583
3.70699
-42.624
-78.7647
-102.009
-60.5447
-3.43479
10.744
13.3354
-7.53724
-5.0827
11.9985
37.6579
48.3321
27.5434
19.5043
46.3543
13.4844
-49.101
-46.4024
-33.559
-28.4204
-31.7937
-28.9411
-55.3249
-105.519
-81.7337
3.67013
103.605
121.317
92.0676
40.8617
-4.90674
-13.1171
-17.7411
-62.7863
-69.3288
-6.76878
70.2095
91.8187
58.9612
69.7522
44.6265
-9.81471
16.7358
1.40429
-21.4114
-29.7815
-89.0887
-96.3117
-56.2402
-21.0433
6.42018
62.868
79.8496
48.3965
3.3694
-40.6027
-88.1653
-98.5106
-104.627
-82.9358
-13.0961
57.7186
84.4044
76.2049
17.0391
-4.63592
-28.4243
-39.5524
-13.3748
36.2036
80.8934
61.7959
33.6266
40.9275
111.819
107.766
-37.5022
-100.127
-28.8199
-24.5166
-55.9967
3.69862
6.80009
11.9041
-0.0891601
-67.6356
-52.3093
-8.47988
12.4529
-18.3592
-7.23971
22.195
16.9147
-47.1627
-200.551
-162.001
55.6296
213.613
294.164
295.268
235.126
130.882
12.9778
-151.217
-259.169
-261.527
-262.529
-267.835
-147.73
62.7086
182.573
70.0518
-90.8851
-21.6096
201.764
236.211
-13.4246
-322.805
-337.077
-139.553
-11.9437
15.904
90.9949
214.531
274.62
205.074
118.188
84.7086
71.0219
50.2831
-1.33345
23.4265
56.2514
40.2433
-18.4796
-76.7638
22.6762
172.16
93.9997
-69.9424
-161.341
-170.815
-128.983
-99.7287
-72.7285
-10.1312
7.7043
-27.5815
-164.378
-269.781
-223.676
-97.9316
38.9463
69.3978
16.3249
2.70246
42.7279
95.603
83.9363
83.5716
98.5448
81.4401
65.649
59.5309
80.2844
81.1359
73.7674
98.305
127.764
76.6431
-0.431039
-21.6078
-8.40905
19.275
3.7975
-53.6434
-38.1431
-28.0919
-85.1847
-141.284
-130.991
-66.4015
-3.54929
-20.0925
-96.4356
-88.5985
-34.1959
4.10122
21.2036
-4.64829
-7.48034
41.3209
86.1277
19.5978
7.14775
60.8975
92.0439
95.6433
78.2279
21.9072
11.5009
0.260399
-37.086
-96.62
-103.628
-70.347
-30.5488
-42.504
13.4373
29.3934
19.9938
21.1321
-45.1597
-1.56642
93.7159
103.206
25.5647
-5.04774
-13.8569
-18.9674
-31.8006
-66.69
-77.6069
-8.37879
76.4697
61.2962
17.5381
-23.8636
-50.2817
-5.88846
-23.1852
-71.251
-50.4247
-58.7949
-73.203
-44.2309
16.452
63.4958
146.319
237.686
260.942
172.309
67.0209
-55.7837
-115.434
-122.098
-143.729
-135.418
-96.0868
-64.771
-68.7796
-79.9038
-25.7363
55.7706
67.5928
121.604
190.365
121.02
-62.2469
-96.3686
-87.0946
-68.4393
-44.9798
18.1232
62.7048
54.9171
24.5444
22.4451
-35.1815
-73.6452
-78.3659
-27.8298
5.16731
41.5599
44.1722
12.3917
-1.17064
-6.60365
-0.486697
-40.8844
-75.024
-91.5168
-91.8716
-36.4423
22.9589
81.3043
140.523
193.948
223.917
179.803
59.7737
-28.0423
-52.1883
-51.0494
-68.0924
-101.553
-104.017
-53.1584
6.63661
-8.25473
19.4527
56.3721
45.9122
-4.10417
-56.1868
-81.543
-94.2796
-161.542
-127.289
-55.0302
-6.30249
28.8292
55.9276
39.8048
12.9329
-41.3404
-67.4388
19.0468
64.9259
58.534
86.834
104.877
101.139
90.5141
61.3492
3.17546
3.51666
7.56732
-31.2234
-55.1262
-25.6273
6.67571
-10.2873
-10.8122
-5.23399
37.482
65.9153
41.5822
28.8697
29.1779
-1.47616
-64.8709
-113.882
-128.209
-83.303
-23.1906
-23.4765
-38.4249
-34.064
19.1405
45.1165
-11.7951
-48.2842
-26.7482
18.52
39.9742
8.92475
8.58293
54.8534
56.2365
46.0182
50.4097
24.6696
-9.11105
-20.7593
-32.2909
-18.2796
16.0763
-13.4002
-57.2663
-54.3869
-19.2475
2.74215
-15.5312
48.4895
103.356
89.0966
77.9462
59.0807
6.31151
-18.5364
14.3231
16.335
-45.0386
-88.1917
-85.6802
-80.8552
-57.8344
-7.34724
37.1069
11.6324
-9.87801
15.9762
49.585
35.2369
-13.6864
-4.09365
38.1452
46.0515
-22.8655
-104.958
-107.353
-33.5935
0.86015
23.3726
40.4937
51.8743
35.4986
4.69542
-10.1069
34.1111
56.6076
42.3367
28.5819
8.39585
11.9807
-6.56763
-102.357
-130.103
-77.9027
12.6601
39.7617
29.1767
46.2194
30.4598
25.4549
13.0315
-20.7937
-26.5749
-37.577
-50.2066
-39.806
-2.08914
33.5776
11.5794
-15.5949
7.94751
39.3006
57.2954
54.2257
69.5343
121.612
88.5093
4.00251
-47.5694
-77.8213
-51.5044
15.1634
-9.20877
-34.7544
-45.4165
-52.5573
-31.2412
-48.4186
-42.4196
-20.1934
11.625
40.4101
60.1483
68.8518
53.5492
14.5625
-20.7987
-37.5614
-12.9206
-62.6135
-212.01
-298.999
-229.366
-106.596
-16.8902
147.794
221.521
187.037
140.268
137.975
115.504
78.5284
110.309
148.972
104.348
-38.8446
-85.1005
-21.0093
30.8111
10.2965
46.2085
71.0337
68.8401
42.9405
-27.2655
-118.663
-224.343
-230.949
-173.576
-129.771
-90.9858
-71.8477
-69.5151
-39.3786
4.67579
56.2611
43.3149
41.1833
-15.706
-16.1079
28.8655
49.0056
75.6716
134.783
110.438
48.4151
47.3124
65.2424
42.7369
26.9677
18.004
25.302
-3.07084
-63.2941
-56.4612
-43.4103
-22.6872
5.22041
9.11775
2.36593
-12.7563
-9.59753
-55.6377
-80.4887
-44.9259
26.5577
118.056
109.216
27.4832
26.116
18.4296
-22.6446
-40.0523
-33.879
-66.0894
-55.2576
-33.1948
-52.9467
-75.1716
-21.8979
15.6828
35.4941
15.8985
-40.1632
-65.1174
-52.4367
-39.3958
18.4498
91.8914
66.8527
60.6667
83.3468
62.7965
48.5411
-22.232
-57.4408
-46.6966
-54.6005
-42.0966
4.02073
26.3993
54.27
63.2465
47.1632
74.5885
55.955
17.0859
-21.6193
-16.0918
-19.8094
-34.2929
-55.6574
-57.8336
-23.0065
15.6395
49.3271
68.1522
63.8271
38.8261
22.3876
4.98211
-62.7867
-81.9312
-73.4941
-72.8428
-66.2685
-53.19
-36.9647
5.97996
19.1303
4.18447
8.23913
47.5304
47.8811
43.1359
57.7907
55.3621
32.2161
20.0471
-5.54081
-50.7565
-159.707
-232.72
-182.983
-111.729
-72.6924
-6.00735
75.3255
108.831
115.208
111.482
116.94
133.932
100.247
23.5919
53.5669
85.2443
26.3325
-114.753
-117.95
-22.5053
117.221
200.672
216.734
155.503
10.7785
-78.0642
-152.436
-154.488
-77.9578
18.6446
-3.59144
-71.1117
-186.163
-234.416
-193.262
-134.309
-47.1682
74.2717
68.544
54.1218
58.2947
33.5282
18.7397
47.4694
105.57
177.153
194.629
112.924
-15.2059
-166.996
-242.901
-212.563
-101.804
54.0271
91.0252
78.6481
58.9857
58.192
41.0451
4.0155
18.9221
35.491
8.57471
1.65783
49.2493
49.6891
-29.093
-56.7214
-57.115
-19.3372
98.7046
133.718
133.685
82.915
-42.6009
-129.881
-128.239
-172.711
-167.851
-115.201
-50.1716
-21.2552
14.7937
44.4134
45.6788
15.5608
-1.66698
39.9217
98.27
116.057
157.036
183.416
163.3
20.5328
-86.7781
-108.606
-107.428
-148.276
-133.464
-165.537
-107.071
83.2022
187.023
120.793
-102.747
-222.585
-84.3649
-54.8026
-9.01999
19.6919
-50.343
-43.0577
18.368
48.4858
99.8502
123.229
142.04
220.065
242.662
205.245
102.209
-43.2411
-157.136
-121.919
-50.9888
-23.4562
-29.8691
14.9811
43.4277
10.3969
-57.7377
-89.2195
-86.4573
-34.4422
-13.1947
-8.91198
-35.8315
-41.6506
-92.3631
-101.302
-116.1
-146.681
-62.0513
71.8072
121.898
51.8867
-10.6406
-28.8634
-64.1441
-39.2444
1.87674
7.39754
39.6946
77.9388
62.6709
-25.0585
-44.8608
-15.117
16.7449
163.176
295.484
266.485
65.2254
-15.0776
-11.5002
15.7132
16.56
1.01494
-28.8399
-70.4661
-61.5039
-81.193
-83.1662
-61.2853
-18.0163
57.1748
82.9673
39.9355
4.69107
-48.6904
-139.129
-209.159
-212.986
-126.619
11.4364
104.275
78.0597
12.9571
-3.67883
-45.5569
20.5411
111.896
86.2006
78.2536
111.397
88.075
7.44394
-59.8794
-33.7219
-47.1681
-134.749
-102.64
-0.96591
15.0118
-2.60868
-32.3645
10.413
49.032
64.1951
114.559
104.285
50.1448
44.8122
3.27946
-44.3791
-52.0642
-38.0521
-42.9041
-93.987
-91.0721
-43.4584
-24.1653
11.2515
-36.2085
-67.6681
-38.4289
4.58481
112.146
174.328
139.835
74.6834
56.239
26.2472
12.1498
-13.5765
-20.1709
7.60213
59.5155
41.9184
-16.5139
-78.1289
-108.159
-137.388
-123.224
-93.9555
-58.939
-27.4476
-6.46902
-24.615
47.7695
73.6065
23.9294
18.4518
23.9375
28.1159
38.3562
21.5439
51.3057
69.801
45.5818
60.1316
67.1581
44.3812
25.5175
-56.8609
-87.8974
-100.994
-111.204
-93.4992
-82.8443
-31.9257
35.5945
60.7501
57.3405
-13.4036
-45.155
-12.5804
-1.88017
-7.11277
-6.12491
32.5674
64.3755
61.4008
35.8292
25.1304
32.153
52.6918
36.3834
89.2193
107.168
0.955468
-134.879
-154.417
-99.0431
-13.689
33.2645
38.3337
-25.9366
-61.1077
-70.0926
-75.9624
-46.0374
-12.4456
8.65425
66.6956
132.993
64.9424
-6.30614
-28.5813
-0.268866
67.2857
102.265
102.651
47.2054
-1.64281
-79.071
-180.729
-180.516
-133.856
-57.2165
22.9156
60.311
44.5428
47.2194
41.3569
7.92886
101.91
140.958
154.47
37.7864
-77.848
-93.5774
-42.7945
-29.8489
5.40025
68.6468
92.8189
62.4282
26.3132
20.0545
-21.0206
-140.679
-167.846
-126.39
-107.799
-138.953
-86.5615
-22.5869
-22.2543
16.1137
51.4116
90.4402
77.5743
61.5555
37.5916
48.8568
80.935
74.4649
63.3721
58.3405
12.246
-18.462
-9.17781
-1.62154
15.6449
9.48829
-12.877
-47.8843
-63.4963
-26.4083
-39.6503
-98.3042
-83.0865
-45.0107
-18.9401
14.9213
120.384
221.054
191.205
62.4506
11.5899
24.4542
-69.2224
-167.17
-102.265
-75.9579
-86.2422
-92.5996
-74.7235
0.484752
82.2854
100.71
47.2829
16.7883
-8.86653
-36.1142
-67.2648
-77.2088
-40.6609
33.9636
82.5543
69.3748
78.2507
51.6814
8.48845
2.57038
7.0982
17.3752
8.6015
-39.3518
-3.99966
52.7226
55.1084
-7.93408
-35.5068
-35.8994
-61.2117
-79.03
-132.519
-104.036
-95.2456
-47.7355
10.9368
68.601
104.494
139.292
138.331
97.8694
32.8739
37.7593
26.4441
-26.2702
-30.4774
26.5688
75.5509
70.4011
15.7096
-14.1827
6.83589
-38.6318
-106.636
-122.647
-117.676
-147.116
-158.84
-91.3346
-40.5232
16.1109
42.1563
62.424
102.583
87.5154
56.4733
115.138
119.559
-3.97754
-142.03
-103.578
10.8427
83.6936
94.2368
46.3638
29.1347
37.1715
46.4282
3.9985
-21.3639
-7.61746
7.54103
-3.64876
-64.4291
-74.8224
-50.5014
-45.8809
-38.8231
12.9626
64.1976
28.0379
-30.8206
-81.2544
-59.3921
-3.33126
-7.9486
-15.0024
-7.52844
-18.4516
-10.4872
14.6368
14.4964
4.88321
11.6748
8.56896
17.8725
24.1906
11.6922
74.7474
89.6932
36.6611
0.97356
-25.8562
-50.6328
-85.1337
-34.2693
91.724
90.0972
50.9968
59.933
31.9535
-36.3605
-113.973
-117.761
-54.1058
-45.4232
-37.563
-42.5986
-34.2232
21.3148
54.9178
51.0649
34.4469
41.189
66.0317
60.842
9.36331
42.8191
69.0721
53.1022
30.6693
-26.0777
-53.8959
-71.0267
-74.6165
-38.2636
-58.9768
-67.77
-36.5016
3.46754
20.6035
9.91063
23.7647
38.2322
45.3647
21.4882
-19.267
-28.557
-66.6772
-109.576
-50.7834
1.52107
34.0759
76.5698
95.5366
70.8061
40.0218
27.2105
60.3557
96.9268
-12.7098
-65.08
-57.6648
-43.2065
-24.716
-55.1706
-75.0646
-72.1795
-44.7025
-27.4443
-25.0899
46.6776
109.248
72.7918
3.18122
25.2473
59.4054
32.0203
-29.1971
-103.147
-93.5559
-72.2137
-23.3214
-15.1747
3.13748
52.4783
41.5411
56.2294
102.175
86.8837
44.9445
33.1967
5.21535
9.66767
11.5663
-55.485
-49.6076
-36.0406
-31.0472
43.1862
87.3901
90.8387
-37.5847
-85.5744
-64.9949
-46.9789
-55.1661
-96.9965
-182.229
-168.578
-68.7871
-5.25304
41.0983
112.236
183.314
208.572
149.534
130.735
87.3429
5.78615
-48.1122
-69.3833
-37.829
4.99943
-4.70396
-22.7722
-15.0419
-13.5039
-8.87932
-41.7282
-98.8503
-78.8397
-55.4672
-53.7232
-17.8596
1.94116
23.7301
11.0771
4.84576
0.874021
-23.2991
-84.3924
-88.658
-14.7459
39.132
7.6202
-14.1064
23.0004
52.901
46.5186
99.4267
127.397
176.819
152.687
88.7273
65.0263
39.4524
-54.9195
-100.027
-130.972
-105.617
-50.224
-13.9658
-31.0829
-51.4654
-48.7
-40.9368
-8.79045
21.3139
14.534
-31.1623
-33.4957
-17.9253
2.24855
-18.9922
-33.5821
0.79714
21.6296
-7.11378
-22.8031
-45.6285
-0.246101
59.2635
79.9986
77.9573
81.5249
74.8916
44.106
25.6873
28.5949
19.0407
-8.29827
-50.7228
-108.378
-102.363
-102.499
-99.3226
-3.48411
54.2699
99.8087
137.657
149.719
66.6533
-24.57
-46.048
-39.1057
-54.3096
-75.6217
-35.468
-8.1165
-23.6336
-64.0822
-60.0939
-10.7405
-23.1042
-15.9272
34.2218
36.1739
28.5513
71.1682
86.8535
45.3553
7.98323
-61.9367
-98.8566
-112.294
-69.9214
-30.7535
-10.4911
12.4759
36.6761
24.9451
-12.4497
16.4876
44.5222
65.0578
113.143
174.82
90.8431
-12.181
16.5033
52.4051
68.1675
19.7619
-75.2486
-93.7231
-95.4386
-98.3409
-93.821
-82.3094
-36.8351
29.5039
80.0134
66.353
44.5327
8.44036
-117.42
-181.525
-127.933
-73.2807
-33.6425
38.0692
61.2493
90.3707
97.397
92.7009
104.311
33.0192
-29.6418
-69.2858
-93.7652
-42.933
21.8069
54.9112
77.5548
96.9296
112.92
79.7752
82.1482
98.1709
27.3663
-84.2095
-142.822
-141.124
-77.1799
-43.0531
-31.4676
-3.57991
26.0489
35.1276
12.4802
-26.745
-40.8962
-55.1079
-38.6383
-11.4274
0.941088
-4.6581
-52.7707
-62.7851
0.337437
27.4936
-26.5834
-18.3317
1.83122
35.3312
-1.2319
-41.1294
47.9146
95.3516
105.731
84.2949
50.5434
32.3428
24.5263
-24.2858
-19.6426
3.25259
37.5674
59.7788
22.1467
-24.6949
-24.0477
-10.5403
-14.6748
-49.8828
-45.3122
-28.1415
-82.6539
-106.52
-27.6082
39.1171
87.5239
97.1291
-1.29479
-74.8391
-94.7347
-107.853
-54.2723
47.4169
130.366
185.62
180.691
83.021
-1.69796
-44.0705
-97.0397
-140.037
-144.079
-98.7602
-81.3604
-27.4002
-12.5427
-15.4147
42.203
102.802
129.823
130.147
56.9372
-10.5136
-67.3939
-119.661
-100.922
-32.7772
7.17644
27.5106
62.7472
79.9378
113.594
85.765
41.6483
-18.3199
-75.2283
-76.2144
-20.603
15.4104
-13.8611
-5.52391
-30.6133
-68.7983
-71.9157
-61.4673
-37.1676
-0.687508
31.1177
37.2708
-0.336809
40.6852
55.327
22.5415
24.5949
38.1206
33.6489
29.4366
6.62887
-2.72581
10.4991
23.087
65.1965
69.7935
-20.9415
-86.9489
-107.243
-91.7556
-90.2329
-62.2396
9.93446
28.6298
22.6474
31.5322
16.1192
-3.94337
11.8065
58.5197
113.459
117.217
110.912
84.1786
-41.8606
-145.121
-123.677
-76.001
-7.63352
4.08741
-6.40129
-15.4913
-36.031
-57.7092
-66.0373
-34.1615
-5.73532
10.5849
21.9161
12.0024
-28.5488
-22.1083
-5.69446
4.27077
62.4611
112.774
126.876
94.5487
28.4551
-13.8213
-27.7659
-62.6404
-51.6865
-0.762203
33.5161
19.1244
2.39892
-29.5975
-76.8926
-81.8146
-73.036
-50.9542
-13.5548
0.0845608
33.0813
48.9894
54.672
66.6944
71.8832
27.5508
26.2527
27.3111
-30.7971
-80.3497
-81.2679
-21.3347
11.8706
43.8895
65.4122
55.1972
24.0147
-49.5903
-50.9436
-7.81
19.8132
19.6696
6.56984
-8.7046
-37.4794
-37.2315
-49.2002
0.420893
58.5432
47.183
40.481
33.6703
-9.02067
-15.7686
4.34293
49.92
113.123
79.3411
-59.3247
-90.6481
-99.3709
-64.8889
-49.9001
-70.5075
-62.3406
-43.9646
-32.5792
-39.2511
-30.9507
3.52587
47.6744
48.7282
31.3861
32.9637
24.8495
-30.914
-67.1649
-34.3959
23.1075
5.29597
17.7666
30.8723
53.2752
55.6761
72.826
92.4699
86.4954
57.391
18.2641
8.95583
-10.3068
-40.7368
-65.0375
-48.1976
-16.9587
-1.69884
-11.1362
41.9567
96.9893
114.638
90.472
52.0666
11.6007
-51.7603
-114.824
-89.8137
-66.0214
-127.433
-145.288
-131.873
-95.747
-57.3217
-33.8524
-16.4434
-18.4839
-10.0773
45.9129
84.2341
101.393
99.4837
92.4941
85.9781
35.4627
-20.2087
-51.1382
-99.0998
-107.97
-36.2109
20.6682
48.5368
90.176
123.036
131.512
102.54
60.9682
16.2619
-25.5611
-61.974
-99.4792
-102.005
-43.6067
-24.7358
7.61335
44.3645
56.0329
50.5684
25.3874
-8.37365
16.2547
-8.56726
-55.8192
-76.3107
-89.3794
-64.9691
-0.295275
44.6814
46.4239
21.3487
12.4632
18.8702
-53.2586
-134.315
-126.084
-105.924
-85.3776
-20.8488
85.6578
195.801
233.075
190.734
49.1726
-14.5059
-18.2253
-38.8924
-68.5114
-72.3614
-105.59
-90.9307
50.1304
95.5048
72.7398
78.0741
88.8338
67.4053
45.5841
-7.5215
-66.8263
-96.7864
-140.59
-120.424
-56.366
-20.5232
-24.2786
-39.1864
-31.5838
8.86289
65.4093
94.3992
56.0051
49.8422
43.094
-16.2094
-56.0375
-27.7034
10.9874
32.8237
4.25609
-24.2653
-27.0798
-17.2598
-6.82442
15.6911
-13.2024
-23.7428
-12.9875
-41.5992
-10.9443
12.5341
-20.8352
-9.67439
68.9747
85.9205
74.7646
45.8342
13.0436
-0.798291
-1.19038
-22.0206
-28.8899
-29.9066
-15.3139
-19.6953
-8.52044
17.2776
60.8273
85.1671
89.513
76.9682
31.1357
-23.811
-71.577
-71.9877
-76.3345
-55.608
-56.6793
-49.7569
-4.11934
-3.30716
-30.7271
-36.5834
-26.5614
-14.4902
17.1365
39.3079
34.7509
-2.23417
-5.36314
-6.88518
-25.9032
-55.0845
-17.651
36.7089
42.3913
29.7405
39.7876
-30.6124
-51.8711
46.2904
133.359
94.6563
-4.91326
-19.5788
-13.4245
-27.2143
-29.5776
-1.14062
-11.15
-21.5783
-16.7816
-2.84529
-27.752
-23.6638
16.8141
55.1633
30.4601
23.0114
4.44545
-28.5885
-46.935
-62.1364
-32.1478
9.99791
-5.30309
-16.981
-37.542
-25.6038
20.5752
40.0412
9.24802
8.15688
37.5234
27.939
45.885
58.6297
54.368
41.8229
20.0537
-40.1957
-72.2339
-42.9602
-10.3284
4.5683
9.91043
-0.535488
-0.460207
-13.8165
-13.1546
9.1164
16.513
33.7642
30.8553
6.22525
10.9901
-15.7549
-64.1895
-36.2287
-34.006
-32.485
-15.7616
6.89694
16.5246
33.8767
50.0909
26.5455
-41.0028
-57.377
-55.3264
-108.388
-148.921
-114.326
-24.2063
49.5073
52.0353
115.397
182.702
162.971
90.1719
78.922
77.6164
26.7477
-99.1566
-135.812
-102.375
-43.1864
6.08024
-3.37277
0.143012
34.1224
87.584
110.705
90.7632
35.1789
-33.7439
-95.6737
-92.9228
-80.1089
-66.5415
-34.0537
-43.7879
-28.3989
31.581
23.3992
-7.74956
-52.9099
-29.7752
29.5288
46.168
67.3165
46.3727
-2.44116
-15.2806
-18.7302
16.2759
18.2355
-11.0482
-33.064
4.47879
36.8381
66.6596
-4.76493
-73.7679
-74.1709
-42.1176
-17.0116
4.54819
20.8034
69.9453
87.5729
97.0846
69.5606
39.6779
-0.129592
-53.143
-54.1736
-71.6134
-72.254
-84.7786
-99.6299
-80.7424
-18.5881
39.364
82.5219
91.3366
36.9092
54.5595
93.3472
118.466
79.6014
-101.368
-100.394
-85.3532
-82.4708
-37.4186
9.52318
16.3622
17.1976
13.8814
-5.12464
-3.10617
-8.37646
7.23507
26.7569
46.6317
54.4922
116.202
163.915
81.0757
-94.1141
-137.997
-119.315
-117.258
-83.0697
-5.32206
-37.2531
-54.1296
-6.34482
-14.6692
17.9426
21.8626
20.2487
46.8221
56.7285
3.927
13.9332
-20.6262
-28.584
8.89676
72.6062
92.0599
27.0263
-82.2095
-100.673
-57.4958
31.8593
84.9047
58.3655
25.7664
2.40789
7.85694
5.11687
-4.60913
-11.023
-18.8473
-4.13985
8.3249
-8.51248
-18.4445
-0.16811
-10.7937
31.8964
69.5492
6.18906
-45.4413
-79.1422
-73.6649
-82.6265
-65.6105
57.2077
132.151
134.363
96.7011
88.6811
91.8665
37.6997
-55.8499
-92.7779
-116.06
-140.236
-122.432
-61.3223
16.3035
-3.69913
-35.9106
5.32753
12.1202
-11.7864
5.1596
-13.7131
-25.6185
-13.0108
30.8795
51.9105
40.5973
78.4202
89.6804
21.4556
-13.9339
0.17682
10.4239
-12.0303
14.6055
67.999
83.7929
48.2843
-4.97507
-34.9716
-54.7965
-107.893
-162.649
-146.796
-90.1831
-24.6326
-9.10143
23.0447
141.768
197.822
145.056
31.8024
-0.61454
-0.0872728
-50.3713
-62.411
-14.3134
3.94005
39.4543
57.7248
-4.0955
11.9254
77.7264
67.2683
14.9505
-25.528
-66.1701
-108.073
-175.151
-183.178
-146.566
-27.3565
110.326
145.598
105.322
67.1086
3.60672
-25.405
-44.0939
-31.4986
10.3939
7.07876
-19.6014
-24.0222
-3.28736
41.1386
51.7343
19.9902
21.501
13.0641
20.4603
22.2396
-18.3929
-8.67517
18.4818
-3.40872
-17.4012
-45.5318
-58.0771
-18.9747
26.9261
41.6181
21.2296
30.8354
33.4216
19.4398
17.1357
-2.74877
-31.4903
-20.0482
6.91843
21.1817
52.7697
23.1925
-55.311
-175.723
-211.339
-157.049
-100.344
-11.0593
95.4922
125.543
143.626
127.145
104.108
80.637
65.8615
71.0857
46.9886
2.73755
-8.25334
-7.94363
-38.5998
-42.0899
-15.6677
11.83
41.307
40.339
-21.349
-104.886
-137.413
-152.48
-124.364
-38.8291
1.60378
83.0058
143.518
104.385
-17.4053
-86.8245
-30.5937
-44.1495
-89.826
-93.5785
-24.1954
58.0411
89.4798
75.5619
71.0011
93.6651
82.4936
52.0626
39.6116
5.21335
-28.7294
-92.7421
-134.504
-62.2653
90.7751
78.2695
11.1737
-8.99699
-21.112
-27.7909
-8.21006
-4.17869
-59.6997
-115.759
-87.6498
-26.4925
41.7265
101.15
124.12
108.164
49.271
-12.8986
-39.8214
-90.2687
-113.296
-67.5079
-11.6375
33.7312
29.8985
28.4975
6.62705
14.9714
37.1337
79.8872
96.2725
55.702
-0.34986
5.28388
-26.0551
-52.993
-24.3678
11.8003
20.3228
16.1688
25.6304
34.2432
-11.7189
-57.6953
-75.131
-101.318
-124.354
-108.513
-19.4882
23.1462
32.1535
38.484
6.54571
23.0326
60.84
43.9389
34.6403
46.2495
48.6402
-4.62884
-26.2824
-13.9015
-22.7976
-30.422
-23.3983
-1.13804
26.6318
22.6635
20.4972
35.8212
23.1559
-7.55977
-3.44208
30.1138
55.5364
45.6479
33.6037
51.4695
33.6532
-26.8555
-108.673
-164.498
-200.671
-184.721
-105.699
-30.2271
12.5125
67.6702
118.355
122.955
72.1015
79.3033
53.1386
0.320543
-34.2232
-38.5902
-0.193604
3.10069
19.5755
70.5991
149.798
154.955
135.191
96.2947
-4.56806
-61.4551
-77.1555
-104.942
-159.649
-145.293
-104.392
-89.221
-35.0932
-16.869
-20.2129
-27.6364
-29.6034
8.48339
35.8231
28.8439
46.6971
96.0067
75.1155
21.2979
-73.209
-88.6238
-20.2374
25.6083
11.8241
-5.68275
-11.3442
14.2938
40.3701
42.8219
53.5973
75.3644
32.2864
-8.26397
-24.1234
-12.5804
-13.6387
-26.1846
-31.4972
-6.09212
61.8786
82.373
