-18.1041
-8.86342
22.5869
10.3477
14.595
7.38968
-8.68813
-4.30028
-17.5493
-39.9243
1.9253
36.5498
17.3695
7.50805
-7.01682
-3.2779
2.60776
2.99015
-15.0364
8.1631
14.0131
8.62972
-12.1387
-2.58429
-3.63668
-14.1152
-8.88174
8.17949
4.21847
15.0316
-6.7546
-20.257
-10.0924
-21.4498
0.284799
9.23108
1.69592
4.06974
6.34362
-12.0299
-0.437379
-1.43204
11.3198
8.67541
3.23574
10.9506
7.26455
-0.57272
-7.40915
-10.6365
17.3918
1.47755
3.81599
8.32802
-0.764456
-0.390938
-6.80405
-22.1769
0.886415
22.771
11.2841
6.76412
-11.6717
-9.56478
-4.45946
-3.36753
-17.2344
-17.19
19.1874
21.8065
-7.3681
-9.28931
-10.8217
-7.82469
-12.5345
-16.2418
-24.5948
38.1658
46.9039
5.70093
2.36339
4.02156
-1.74821
4.22739
-20.7511
-4.20404
28.3604
4.81967
-11.3832
-3.64285
1.61137
-1.67562
-19.4113
6.73488
7.33726
-3.45685
9.05903
-4.58343
-16.7935
-13.2691
-20.5941
-10.0125
25.7942
13.1011
16.1579
6.5294
-4.46093
2.32235
-13.7866
-27.6789
14.8756
12.2321
16.293
7.29018
-0.92905
4.13124
5.42373
-22.0433
-31.6529
4.95213
7.95562
11.191
2.86567
3.66985
7.20466
-22.8151
6.88435
15.6493
10.6061
16.1756
-16.5716
-13.0645
-1.05495
-16.785
-13.1282
9.02691
11.8322
7.19564
5.18162
-9.6939
3.78888
-6.35543
-20.9259
2.64033
9.28751
27.0258
7.55086
-2.08025
-11.0723
-16.5411
-51.8204
-23.4816
25.2385
21.4372
8.88052
-0.596128
0.764999
2.74109
-3.16034
-0.828623
23.998
14.7153
4.41464
8.73911
12.6534
2.87228
-18.7106
-33.5843
-3.60795
38.8526
37.6474
16.0937
-17.8081
-19.3231
-15.3774
-12.0263
-2.67574
1.92371
8.75055
0.219756
-15.5642
-8.95017
-10.6268
-31.499
-16.227
19.8466
9.40888
11.8617
9.60304
-0.612767
6.56563
-3.7395
10.0912
16.1817
4.35467
8.2288
8.35202
-18.5986
-44.5903
-58.1339
2.43411
43.238
14.9391
19.8516
33.3521
18.794
13.2314
-11.4257
-6.37312
-12.0352
-28.4787
-23.9106
-20.137
1.81239
5.91345
-7.86704
8.20734
39.8223
41.9186
22.2377
-1.93443
-11.2726
-10.0963
-37.8538
-53.4484
-31.7735
4.64519
31.4277
18.0439
-5.85429
-12.3239
-14.0028
-16.3216
-20.377
4.26209
25.2451
-0.121321
-21.2257
21.6395
47.9398
17.1238
-18.0548
10.7213
41.8196
29.7151
30.1504
20.6639
4.12832
-33.2882
-55.9083
-17.0535
0.808529
1.90553
7.24286
8.4567
2.67413
27.6333
22.2457
1.65467
24.3886
19.5701
-1.09184
-31.8973
-48.5652
-48.7273
-52.2239
-53.2232
-50.4064
-12.1221
23.8536
2.85585
-6.53779
-13.1839
-6.77096
-9.86467
-22.1597
-26.4335
15.2468
35.9409
24.0649
4.25244
5.8018
32.1564
30.7712
46.7543
55.0235
36.8263
43.4913
28.3793
10.0665
4.51973
-17.571
1.39578
31.7232
6.96774
1.63479
-9.31069
-14.3483
-24.0906
-44.3976
-13.0419
20.568
-11.9631
-8.9091
-5.19596
-12.7196
-8.42958
-3.87262
16.0581
27.6356
19.567
33.7718
12.5634
-25.3824
-16.4881
-3.06719
-21.8395
-42.0055
-17.4986
-7.1661
-28.9572
-32.2085
-16.1496
-9.35218
-12.3418
-28.0751
-55.9322
-36.5426
18.3427
17.4294
6.30305
1.36051
-8.04826
-4.16829
1.92026
-10.3976
23.9444
18.5433
7.38167
6.19057
19.1039
8.70198
-13.2769
1.06459
15.0989
10.8737
42.0851
35.0677
-6.97663
-0.209502
0.318276
17.0984
54.9497
28.1046
15.1411
11.275
-2.7391
-3.05784
-11.395
-22.0425
-15.4562
26.7588
28.5589
11.2148
1.65353
-1.39097
-4.05023
-1.43536
-16.759
-1.37888
21.1568
-7.08598
-34.7298
-24.1126
-17.1263
-5.57188
-23.5332
-12.5223
-4.88039
-7.29232
-22.7276
-46.4854
-5.33894
3.85556
-19.405
-6.28831
14.813
10.4477
6.50612
3.09091
6.79065
10.8997
-8.69025
20.1268
41.6736
10.1814
2.42058
3.58704
-12.2559
-7.30916
9.59444
4.75057
-22.4588
1.00532
28.9703
13.8581
-0.534803
-3.75318
-9.10342
-8.12639
-6.20355
1.98596
-6.58912
-7.77373
-19.3963
-8.49771
3.73735
12.8148
10.9702
17.3993
-3.8458
11.7218
40.0982
5.49611
-6.89662
7.72671
18.088
19.8612
-2.3694
4.02884
-20.7983
-28.0144
-17.9795
-36.1583
-34.9749
-28.0377
-20.7276
2.07221
-6.22051
-20.7133
-10.4418
-8.65932
-1.06701
7.55741
35.1112
16.1887
1.73232
3.45327
10.9692
-1.01391
-1.48956
-13.7865
10.2492
40.6038
31.3398
36.8598
27.097
5.09812
14.6323
6.86275
-9.58431
12.5129
-9.82713
-14.6083
-7.32556
10.8037
4.67545
3.09554
-6.04628
-38.4146
-9.66959
19.6245
9.68949
-13.6152
-13.2684
-6.92298
-1.86302
-7.78996
-3.48678
24.4857
19.6906
-22.325
-19.4066
-14.3836
-38.3778
-43.9575
-36.5479
3.03981
25.659
27.224
18.5666
12.5013
4.37934
-7.06904
-28.093
-6.57836
0.360804
-5.25639
7.31891
17.3158
18.3269
9.9042
-7.5889
9.23588
29.0087
-6.22821
-24.3894
-35.5313
-3.44298
24.443
19.8501
10.9221
28.1552
26.39
18.3822
0.831856
-4.86946
-5.58803
-12.7314
-37.5002
-30.5299
7.16281
21.2424
25.873
6.55484
9.97253
12.6869
-11.4971
-25.8903
-1.67043
-20.2071
-22.6389
-27.0724
-29.0622
-11.8996
-10.6812
19.1477
16.2471
2.26005
13.6223
23.9232
-3.21078
-5.35537
-14.3259
14.4851
24.9093
26.3209
21.4265
8.37417
-11.0055
-12.9038
-26.6211
10.8036
3.91691
9.5405
16.5131
-3.14383
-18.0657
-22.2336
-23.702
-5.13281
19.9359
19.84
7.72845
-17.3969
-11.9213
-9.9884
-4.73702
-14.6938
-3.81295
22.7502
29.3385
3.20971
1.80757
-3.46593
-8.51263
-13.0217
-24.9354
-4.08519
25.8824
9.23242
-17.8745
-12.5275
-11.0862
-4.87273
-2.32937
9.90609
27.7712
29.2804
10.6009
9.76947
15.8853
-8.99729
-21.8755
7.67288
3.94761
-21.7366
-1.49052
24.3882
26.865
15.8056
-10.2595
10.0479
13.2935
-11.5097
-11.7606
-21.7194
-35.7423
-21.9413
-13.1736
-42.4719
-41.8423
-20.1227
-1.01254
7.07541
26.9182
56.4406
56.6637
25.4987
-23.1626
-1.86889
25.4824
8.3967
-17.6929
-70.8365
-69.484
-30.5052
-4.52546
30.866
34.2129
46.8172
74.2418
68.3977
62.2168
66.2251
35.3009
12.0141
9.69756
-21.2161
-39.0374
-59.9323
-74.6876
-70.0586
-65.3813
-14.782
14.3202
-12.0296
-29.4653
-62.4535
-67.2444
-20.5066
0.728029
-3.58582
-13.8592
-25.552
-0.35384
18.6091
28.9807
26.3822
29.1313
33.5434
24.7693
19.1135
74.586
85.0935
56.1707
44.7872
34.7733
32.4635
21.9944
-5.79595
-45.0802
-39.5152
-38.5117
-37.9425
-45.6224
-49.0065
-44.8561
-25.7879
-12.4459
20.044
33.7206
37.0209
14.1438
10.2579
8.55398
-16.1587
-8.81332
8.03918
-5.83255
21.9504
26.5367
-2.81511
-2.32839
-30.9917
-15.0104
1.21375
-17.7309
-10.612
3.69336
-8.35005
-8.54279
-6.47157
24.7774
15.3323
-14.2059
-9.44049
-1.64875
-11.0873
2.15573
-1.35639
-17.4066
9.96539
10.5904
16.9616
11.1192
3.95425
5.30185
2.38716
-19.5278
-32.1438
-0.777793
2.4155
-15.7929
-11.0317
10.4758
27.8441
13.4108
1.47833
13.9982
5.9902
6.80695
-19.2498
-17.3212
-16.3153
-16.6479
-2.99441
7.74268
32.1496
48.365
31.5938
12.4163
10.667
-4.79786
-5.57639
-35.6972
-35.8577
1.34444
9.62883
11.9163
7.50259
17.5876
10.3946
-17.7621
-35.1335
13.9679
-2.8269
-7.75497
-16.6677
-12.8581
2.54011
5.88318
-0.69605
-7.75042
-6.45275
31.3795
12.5337
1.09447
5.88612
-15.6145
-36.0115
-31.2443
-6.49798
20.2601
17.9542
-14.293
-6.36072
-0.672797
-14.7627
-33.628
14.3846
1.80765
1.13634
-11.1058
-18.7
-4.54517
20.8536
29.1797
36.8563
25.4024
13.9964
7.3235
8.24796
20.6268
4.5763
-6.59189
-11.321
-33.4182
-29.5022
1.52641
2.13215
3.66651
-17.1317
26.2042
57.8795
33.6084
20.6538
-3.74687
-14.6626
-14.2134
-20.8487
-29.2009
-20.0026
-2.00336
11.7442
-6.87444
-1.74817
9.88943
6.26327
13.8531
-11.6893
-45.3499
-3.58085
-4.78622
-26.3099
-2.63665
19.4828
5.57871
-17.5711
-19.1202
7.06027
34.5187
15.1418
-4.90933
3.66508
13.6024
14.7402
0.0403505
23.8692
13.6941
-5.54888
17.7375
17.9041
-4.04845
-22.2115
-35.7421
-12.4271
-17.3819
-6.43286
16.9101
10.9807
-1.09952
-20.5855
-39.5156
6.2926
35.1407
13.8745
30.6558
11.0537
13.235
14.9451
-6.78341
0.513985
20.8991
27.2514
11.3166
-31.6806
-38.3848
-35.7622
-35.8287
-39.0457
1.03663
13.5432
19.0326
-7.57994
-41.5699
-39.606
-45.2887
-38.124
11.0014
17.2357
18.1522
8.08235
6.0591
24.2547
24.4549
1.9347
15.5496
13.1291
17.2749
27.8854
14.1927
10.3953
10.9101
-20.9005
-16.5396
40.3358
46.6418
34.8064
0.715844
-11.8123
11.249
6.61303
-44.025
-40.9833
10.1389
23.0014
15.8805
14.497
2.15504
-9.43913
-33.6587
-47.3878
-34.1385
19.3426
22.6083
-12.8555
-0.772305
11.9956
-0.186662
7.67683
-10.8672
-17.1879
26.7651
2.42349
-19.3718
-15.9202
-25.1368
-13.4362
-22.7001
-5.95349
12.4415
16.0121
22.4407
3.27364
-12.9603
-24.454
-29.3837
14.7158
8.62027
11.0885
24.7645
20.3843
3.30121
-7.29378
-18.5321
33.5146
31.1057
17.6368
18.7133
3.92598
-36.0537
-51.6464
-36.5398
-0.820726
30.0703
20.48
19.4825
13.5032
29.7597
8.92843
-6.82013
16.0989
3.55971
-4.12766
-28.5154
-72.0709
-52.4235
-14.3472
0.285248
0.880035
51.701
64.6177
49.3239
14.973
-15.3674
-21.4562
-32.9145
-91.036
-43.5901
-14.1516
22.8286
5.24995
-2.62682
8.78663
32.3128
54.8554
35.7291
31.4051
20.6165
8.45382
-12.1252
-2.67878
-6.50759
-1.78819
-7.21117
20.1374
20.0228
9.5644
-37.4557
-44.3906
-42.648
-47.1472
-71.4345
-46.3352
36.6201
29.4054
25.2924
27.4458
23.6705
16.849
-12.0752
-12.952
28.6969
32.1556
12.9826
-5.45935
15.327
22.4178
0.96611
-11.2367
-14.8144
12.1492
24.9647
20.7753
-20.8006
-11.073
8.56572
-37.5511
-35.3051
13.9458
9.63289
9.00163
-18.6118
-28.8489
-21.7458
-22.1331
-8.51356
9.5856
9.07263
10.8445
12.3285
-4.50565
8.38629
-8.76111
-8.8248
14.8211
5.32303
13.5025
20.5899
-0.593703
-9.877
-43.2052
-20.6987
32.0341
29.5011
17.8532
-7.42674
-25.4292
-24.989
-0.65172
15.2341
-0.0919262
30.076
48.3945
22.1671
-5.3353
-13.169
-18.7646
-18.3111
-17.8085
-27.7738
1.85117
27.3869
13.2733
2.1065
0.926183
3.99988
10.4769
10.5412
-19.8905
-4.9085
27.1314
2.96516
-13.0805
-12.8368
-26.9813
-43.8862
-40.7883
10.0636
25.7901
41.436
29.6011
-18.7858
-40.9559
-21.072
-12.604
0.926458
8.0316
34.0497
38.9376
3.0346
-14.5178
-21.0626
-7.43795
14.7504
24.8099
22.6984
12.4283
-10.0806
-19.658
-4.36518
0.432989
-28.174
6.26226
29.8482
16.7273
15.7569
16.2562
1.21515
0.395223
-20.3264
-18.5828
5.4697
0.343615
-16.5672
-20.5526
1.609
14.4518
-6.7807
-20.7461
5.4468
20.7588
19.5149
-18.9605
-38.8417
-22.7366
-27.5581
-16.3711
0.0479744
-2.25191
8.50556
10.9431
14.9971
10.8218
-9.21709
-8.23161
48.4146
32.8981
22.2952
22.7948
1.89069
-8.31329
-0.0987352
-20.1515
-38.0188
-21.9821
29.6669
20.7299
2.86352
2.18587
8.88259
12.6282
-12.882
-37.3972
4.24537
32.5741
1.00361
6.60018
-4.29512
-9.967
-9.29729
-6.84093
-23.7084
0.0397455
18.309
16.1115
-1.34912
7.21563
-8.31771
-24.1722
-25.9921
-1.0047
7.62035
22.7017
-6.38554
-29.5214
-23.3115
-22.2223
4.98466
25.0083
14.3353
4.21889
5.71479
13.1896
16.7347
-19.4052
11.0711
19.4162
10.7096
15.5876
13.5512
-8.59846
-18.2091
-32.6045
0.760758
28.7067
20.0201
6.89652
-3.53838
-14.7882
-19.2458
-16.3129
-21.5763
3.3025
35.2214
36.0513
-19.2698
-42.2319
-22.2771
2.32035
-5.82911
-13.1637
43.4663
44.9006
12.385
-8.15647
-18.5709
-10.8494
-24.1119
-58.4661
-16.8736
32.8297
58.4312
19.3891
-4.88607
-7.97052
-25.2554
-9.07688
-9.10019
-10.0256
35.9335
29.939
-0.717224
0.658752
-13.4665
-18.1475
-20.1767
-8.71379
21.6978
29.9891
6.46487
-17.2226
-12.4535
-19.9465
-25.9748
-14.9026
0.484165
12.0956
-0.81197
-12.0347
-26.9843
6.59103
26.2895
26.3699
0.16519
2.23016
39.322
21.1964
5.65139
22.1392
17.0979
7.67294
-0.0873979
-7.915
9.21432
10.7458
0.028287
-13.3198
1.04353
10.85
-14.9662
-28.5183
-14.0898
-14.5074
10.3965
4.77159
-27.4118
-27.7007
-39.153
-17.8063
39.6985
27.5693
21.8624
19.795
-6.82208
-9.70556
-22.6534
-24.9803
24.1809
12.1004
14.5858
9.34457
-20.3828
-12.9647
-15.4594
-41.3963
-5.04665
32.1833
30.6818
17.9414
-22.8306
-23.1832
-20.8799
-8.59641
-10.7381
-18.1298
45.9075
41.3137
7.3327
22.8068
25.9712
5.82526
-7.41641
1.13115
5.65197
38.1301
14.9925
-7.98274
-3.2842
-2.53603
-11.0423
-15.355
-26.3287
-12.3166
-11.8752
-0.0332698
-17.2842
-16.7853
-19.8796
-24.19
-25.5587
-13.2175
14.1463
7.27473
5.7772
-4.29052
-20.1582
3.76895
-6.86664
2.71554
-0.100021
11.1114
33.3719
23.8227
18.8446
18.731
1.32731
-19.9521
-30.8557
-10.2135
10.6603
23.7907
29.1397
43.4348
25.6995
-7.57057
-30.2707
-18.1582
50.7603
26.2021
-7.0627
-16.2643
-21.8355
-24.499
-20.806
-9.69833
21.2128
20.7279
22.026
7.07545
2.55048
-21.7461
-56.7123
-44.7145
15.287
31.5146
44.2385
19.1683
-24.7679
-29.3509
-39.8674
-44.3665
-5.0241
-11.5349
-1.50476
16.5173
8.44153
16.1209
0.256395
-16.3649
29.7532
42.6957
26.6874
8.52218
-23.8777
-12.1055
2.31003
-9.37422
-38.4225
16.9817
30.3191
30.071
7.48813
12.1892
6.06954
-11.8429
-59.2457
-14.2745
-1.92868
37.7151
9.48213
-4.29417
1.42877
-6.36372
-12.8234
-9.72415
-2.82382
10.2776
5.38094
-20.2021
-15.3284
10.4675
17.478
-12.2548
16.3305
48.3388
32.0416
1.45965
3.23132
-6.29066
-30.8875
-53.9549
-21.8963
33.5763
19.2392
-8.19185
-22.9632
-4.52808
12.0282
-15.4325
1.47786
2.78005
-7.22715
11.0206
15.0071
-8.83106
-3.91827
-11.9707
-36.1992
-15.4893
13.5809
16.1039
9.66797
-1.56198
2.71556
7.25197
-6.31797
-41.6112
11.6132
43.6285
24.8923
14.1655
0.35846
-0.76187
-11.319
-39.6372
-7.47433
0.979018
33.9257
24.5217
10.9843
18.2991
-1.93934
-25.374
1.32617
17.2454
11.7562
-0.420657
-22.0195
-8.38814
10.7376
7.71284
-31.1717
-39.0033
-4.13592
8.02554
3.42727
9.97407
12.8382
-6.6211
-21.7024
-22.1205
1.31821
10.6041
12.262
11.9166
24.0418
29.6269
0.05307
-36.3853
-21.7609
-0.824699
13.2023
1.23444
-27.2862
-15.0093
-4.76876
3.53171
-15.2787
-1.00822
28.7128
29.9099
9.3672
5.77644
3.85923
-0.937782
-14.6877
18.8137
-0.111255
-7.04802
1.82983
11.6729
15.7131
-0.0181672
-20.5924
4.38835
4.20073
-3.8086
3.07665
3.88917
-8.42381
-16.4065
-25.7758
3.89861
-0.282937
-7.1479
9.9949
6.86732
6.70743
-4.5799
-25.7859
-2.25858
-20.5851
-8.30134
13.8869
15.8818
27.0469
22.1819
8.40165
-12.1506
3.34588
8.36063
6.80966
-17.856
-30.1017
-12.6605
-6.64291
-25.6751
-8.53049
4.78968
17.9832
-4.94042
8.37285
22.0807
16.2574
-9.65828
-11.3081
11.57
32.1086
38.917
9.70675
12.114
9.16216
-15.2468
-13.9667
-23.3398
-21.1025
8.45224
2.8196
6.71185
1.11259
-5.59248
1.27913
-15.1088
-22.1772
-1.21128
-21.6596
-21.6892
-7.93162
-4.54638
-20.4499
-33.2846
19.8978
20.5324
5.61862
17.209
26.8433
2.55521
8.63721
18.1802
-7.43174
23.5809
41.9839
43.1158
17.5925
-10.3918
-15.3769
-25.8914
-51.5013
-35.3727
-13.419
7.86859
-12.6749
-8.2376
10.1862
8.94428
-5.36674
29.7049
17.6702
6.71243
0.362314
-18.8555
-8.55895
-16.7369
-16.154
20.5578
-1.94597
-19.1676
10.0064
5.32016
2.84093
-6.18037
-20.5484
30.3497
29.8445
18.5727
12.1084
-22.687
-25.8242
-23.8012
-4.39849
18.8646
12.072
9.27159
13.3083
-6.21979
7.16932
8.90952
-5.46646
-33.7103
-28.3253
17.2941
11.6022
-1.86336
-2.4938
-7.56912
0.292102
-0.861008
-8.73827
14.5798
34.2275
9.92004
-2.21769
14.9138
7.86429
-9.219
-5.74378
-32.846
-6.52836
6.39789
-4.34219
-5.64706
9.24443
-8.53811
-17.5014
-14.9813
10.6606
5.93177
17.9652
2.7167
2.07386
-16.5664
-34.4404
-32.4163
1.79537
12.0497
22.788
29.7544
1.72768
7.67304
12.9577
-11.1908
2.99855
7.51937
10.1536
0.672435
-14.6494
0.685839
6.89209
9.01698
-21.9774
2.19544
20.743
10.5308
2.12188
1.93973
-10.7408
-4.75625
0.241815
-11.2527
9.51371
28.3145
15.7981
-7.96115
-11.5603
7.52077
3.66931
-9.56375
2.0247
-14.7177
-38.5631
-52.2693
-17.9389
6.38139
-22.3988
-50.1967
5.68395
34.6077
36.1973
28.2272
12.5778
10.6871
8.21755
-2.69157
-14.4091
1.95829
44.9597
33.2411
10.8469
0.600191
7.20753
0.0345817
-23.2447
-28.6893
10.9287
27.3239
-2.41362
-15.3003
-33.1968
-15.5109
3.63849
-20.7349
-24.2201
7.03136
33.2704
10.9966
-22.6646
-19.1512
-18.686
-1.33493
6.61478
-10.9856
16.8451
22.4577
10.3159
6.64028
-4.26503
-2.11121
-2.79594
-12.6339
10.5298
29.642
12.7844
3.13227
-1.96339
-3.69983
-12.8631
0.634347
20.1872
-1.70969
9.75132
15.6608
-7.95372
-9.70897
-18.7818
1.43445
21.8805
0.177863
-1.72908
-0.964389
-26.2368
-18.9061
-24.4647
-33.1518
-4.72908
9.12827
-0.686516
1.32981
-3.56854
1.17876
7.9948
16.5421
-2.96252
9.92329
40.2307
13.7995
-7.22629
-4.49965
9.81549
10.4469
-17.7527
-46.8982
-19.7618
16.377
14.4934
21.5902
12.0179
4.09924
-3.8853
-3.22058
-1.71395
32.0873
24.5813
2.06107
-13.5768
-5.61762
-10.1879
-13.7814
-22.1194
-4.36199
-5.41827
-5.01918
-6.08249
-4.73352
4.70963
-5.56664
-11.9415
15.8041
12.1647
15.5128
11.7479
-12.9365
-10.7161
-27.3577
-34.0484
19.6518
15.364
19.1542
20.5959
3.8989
3.0783
5.50213
0.900362
-5.65835
-21.227
-0.0222542
6.78236
-3.83019
-7.38044
-7.57177
-1.36553
-11.6705
-19.144
37.9336
33.7017
-15.4283
-2.26558
13.1941
4.60759
-15.4088
-7.3746
19.6941
20.0108
-0.131487
-10.6064
-6.57362
13.4204
0.20715
-14.7175
13.5072
8.96223
-21.2919
-25.7935
-36.3301
-22.9858
-4.17194
-26.0874
1.6035
20.6173
31.7115
25.1825
14.4947
4.05585
-10.4796
-23.4632
-15.6147
13.0993
9.73835
21.8983
0.207576
-5.91525
5.29829
33.0134
21.5357
-9.78769
-0.0576461
15.9575
-9.90013
0.884556
13.3031
-1.05492
-10.3308
-10.6965
-23.8238
-33.836
-4.97094
-13.2131
-11.2464
-13.1055
-0.124911
16.2294
10.0232
-5.15462
13.0717
-8.90637
-39.8375
-11.5737
32.4124
39.7877
6.52195
6.20827
26.1745
23.0682
25.8059
34.4586
5.36321
-16.9362
-49.5429
-24.5748
-12.4708
-32.4632
-34.7562
-1.97548
4.78903
26.431
6.6338
-31.3704
-10.2622
23.6761
14.8781
5.83113
-4.47068
-1.03083
14.6254
10.3847
-22.4124
12.0984
46.7018
16.7661
-11.1476
-14.6646
-1.62211
-3.68661
-38.509
-22.4434
31.5657
27.1885
-16.0048
-43.0026
-15.5299
7.44376
-5.88971
8.12291
25.5419
30.0619
14.0441
-8.22212
1.09271
11.2356
-13.0903
-19.5569
42.7271
25.6946
17.0778
18.4996
-9.60269
-13.1343
-32.6789
-36.1307
-28.3864
-10.1983
-1.63382
3.26174
-8.48757
-12.541
-11.9106
-30.1086
-47.9713
-2.0052
61.5954
77.7855
14.2707
5.24412
3.63978
-11.7286
-22.9555
-29.7054
-39.3103
-0.0712243
40.6825
19.1853
21.9437
6.23953
-0.403267
3.49414
-7.08064
12.6071
27.4215
10.0703
4.12349
-6.97348
-13.4248
-17.1066
-29.1953
13.6837
16.0642
23.8291
28.7543
3.4589
-8.60405
-33.1021
-40.4273
-13.5136
-11.9189
-10.8573
0.492635
0.034162
17.0569
2.08217
-15.2954
15.1118
12.4596
-4.78148
-8.56214
-21.827
-6.90984
12.034
5.45903
5.95762
19.2656
5.02704
5.14458
4.9824
7.86793
14.1621
14.8542
-25.0842
-17.5405
22.0832
5.28782
-27.6564
-33.1365
3.95559
37.6385
26.6266
-1.42953
0.106396
16.3224
-29.868
-49.985
-15.1579
5.21571
9.75677
14.0163
12.0044
15.6436
21.0488
0.988884
-24.9856
-26.9466
-15.841
3.39845
-18.8716
-9.24764
40.6852
39.7163
17.655
8.90318
-3.58718
-10.4297
-8.12447
-32.4684
-15.6339
-15.5696
-15.9229
-0.0569551
17.4695
18.5528
7.67175
3.33668
4.43018
24.537
12.5713
1.92636
-28.4134
-20.7608
-6.08541
-4.74501
-16.3944
-17.8448
31.006
35.758
8.12002
5.48251
8.99194
7.30446
-5.97639
-5.7068
13.3813
11.8263
0.577525
-21.3467
-7.23
-5.88686
-35.1347
-0.20021
14.0451
-0.375668
-1.14349
-11.5357
-23.5001
-16.7808
-37.8688
18.0559
40.8139
25.8748
10.2565
-3.26891
-12.065
-4.81044
-20.7346
-6.01068
28.2547
2.97106
8.18162
16.1683
2.51916
3.86842
20.7882
11.7263
-7.64893
11.4357
24.5926
-17.8654
-39.0617
-32.2285
-1.20712
2.34068
-19.9862
-8.99045
18.6818
33.5254
4.34106
-4.20428
-11.5008
-41.0769
-46.541
-18.871
1.56703
34.7096
31.5464
17.2525
15.924
16.667
16.1609
8.18854
-10.0403
15.8991
24.564
2.17782
-14.221
-25.515
-20.2745
-27.8724
-18.8285
18.835
24.0581
3.8955
-3.36447
-12.16
-8.26668
-9.97358
-20.919
15.0911
1.63887
9.97195
13.4443
0.304101
-9.18577
-2.50491
6.38729
-16.4922
14.5145
56.4669
25.0536
-4.48296
-1.52432
-2.44713
-8.36663
-34.3422
-48.9172
19.6676
27.3091
-12.0466
-8.29659
-1.32347
-3.24871
-13.398
-7.86528
15.1716
5.85133
5.72801
-6.26305
-17.181
-26.5415
-43.8203
-32.2293
33.2602
44.5912
38.4179
39.4632
5.7637
7.31788
-2.92129
-28.5142
-44.5255
19.8508
16.0078
13.3823
1.01803
1.71025
0.422365
-9.4557
-13.744
30.1336
43.4683
22.1845
-18.5727
-22.277
-11.5478
3.27161
-19.3508
-39.2162
-20.5857
12.0561
24.9366
-0.0193354
-1.25532
-7.01446
-10.4666
-12.0733
-5.71134
17.8531
10.4424
-3.32373
-9.80516
7.0143
1.51131
-11.9772
2.8233
7.76424
-4.82988
-1.31825
-11.7603
2.74146
13.3429
-10.4212
7.37925
14.9582
14.325
12.2314
5.93018
-6.91005
7.763
-15.7404
3.8611
1.91515
-7.74841
3.41373
5.66357
4.22821
1.19814
-18.2286
-11.2959
23.4377
11.4435
3.26384
-13.3284
-10.7149
-11.7275
5.39694
-0.812683
-9.10492
23.4257
32.7212
-2.07673
-19.9721
-18.0015
-16.6751
-19.814
-43.5093
-16.1754
35.4038
22.8945
-12.8777
-8.69755
-1.74938
-9.67089
-21.1567
9.18165
34.4053
23.3759
10.7804
-8.65509
-3.57988
9.37739
19.3538
-5.25874
1.75111
22.8272
26.4409
7.35696
0.394912
10.0638
-1.75659
-19.002
-10.0905
21.4246
17.6271
-6.36865
-32.497
-15.7367
-4.03521
-47.8418
-44.6549
7.94431
19.8857
15.2861
-1.77368
-11.3301
1.95852
-6.28771
-8.6891
-28.1608
-12.61
53.978
41.3879
14.9165
11.7691
-1.8693
-2.85827
-11.674
-19.3429
29.0602
16.8193
-11.5078
-19.2956
-9.50785
-4.88906
-16.2038
11.6878
14.8605
8.59789
9.42931
-3.11064
-31.9023
-32.7077
-16.9968
24.381
21.2967
13.948
13.9116
2.31129
0.0430634
-7.30038
-35.4508
-1.11622
16.3572
21.3745
11.0815
-11.2936
-12.4615
-16.4705
-29.3144
15.0498
9.72376
5.05455
2.72883
-7.68517
6.63333
16.0711
11.749
4.97717
-6.30036
32.4069
17.609
1.41643
7.30822
2.94878
9.10722
5.43137
-3.84299
-30.968
7.01597
1.78239
-31.1336
-45.0826
-50.8764
-27.5964
-13.1026
-10.1112
5.58027
40.1745
26.1353
5.73577
9.3103
-9.77947
0.610421
3.06524
0.0888963
25.5376
25.6764
31.6012
18.7022
-7.71814
1.8159
9.33613
1.05271
2.30692
-10.6314
-15.0169
-8.44944
-11.2891
-26.6703
-43.5043
-3.57248
32.4939
-2.64605
1.93421
-0.796046
-14.7309
-9.80967
5.82078
2.2691
-30.1379
25.8403
47.1639
32.2657
-3.62402
-4.68871
-0.436219
-10.8813
-40.1633
-3.91448
41.0561
30.7053
-2.21466
-5.64955
-5.54115
-7.95949
-23.2879
0.446784
-0.292877
-5.04492
0.1074
-25.1964
-13.4724
4.32931
0.550778
13.6659
-1.25187
-6.93343
3.7576
-7.16707
-14.5735
-11.6773
-48.4805
-13.453
26.554
39.4482
34.8416
15.3669
19.7663
35.546
37.1991
2.89725
-17.3266
6.65588
7.853
1.84971
10.129
2.76569
-4.84308
-19.5055
-43.5468
-46.6985
28.2574
27.8041
-21.4449
-20.757
-3.04166
-4.48178
-15.2929
-42.9554
-45.4401
-9.37723
-4.47462
-2.56802
6.29618
2.1217
5.91407
1.74589
10.56
64.1616
54.7628
36.2323
8.41757
-1.05568
-3.4488
-15.6642
-10.6921
11.1847
17.5174
20.2694
11.2781
-4.2899
-5.32009
-57.8144
-31.4619
10.8583
3.08865
-3.29819
-13.2373
-35.4118
-20.7767
-11.7436
20.8623
17.183
-0.736305
-8.19696
-9.75631
-2.27715
13.2494
18.388
17.7954
17.3778
14.5206
16.6265
17.6724
8.80065
2.75883
12.7914
7.43952
1.8603
7.01399
-10.5129
-42.0033
-42.1462
-21.9117
-7.17922
-23.9102
-20.3319
19.5774
1.85837
-6.5774
-10.6621
3.21779
30.6319
14.5028
-8.47387
-12.4324
10.5142
16.3945
1.44623
8.66613
24.4069
10.3458
0.902519
-12.2361
5.7202
2.37409
-6.81907
-27.4404
-25.5829
-7.84615
2.28218
-18.5869
39.3269
28.2087
2.62204
1.64007
-18.0069
-22.5759
-13.3603
-6.0322
-11.7726
-0.423123
34.6766
40.6698
20.868
15.1591
-0.537562
-14.5688
-4.47934
-14.0475
12.1406
37.4978
-7.37573
-32.4895
-27.9355
-15.9509
-17.6066
-11.7682
27.3558
32.0845
6.0045
-9.61871
-29.4639
-21.2484
-11.0106
0.849199
22.8428
-4.65036
-8.61693
9.13083
5.06464
16.0831
-6.10703
-17.9288
17.2279
11.9413
19.9567
27.9896
-4.70488
-16.728
-10.8476
-10.4834
9.10791
-1.44257
-18.3299
-27.6075
-22.8333
3.44317
26.0482
25.0015
-7.41794
-10.4525
19.4174
30.791
-2.13534
-11.0522
-21.2916
-17.7186
-10.736
-15.692
11.8553
25.7657
-0.666983
10.5687
18.3446
21.5385
4.97035
-7.44453
-4.02932
17.8756
7.27742
-11.3237
-26.6682
-15.0142
-2.33829
6.95854
-6.23325
10.5446
4.49588
11.3245
-4.01226
-24.1439
-16.632
-16.3569
-19.1431
10.6541
3.88333
14.8003
18.7401
1.31806
-8.01357
-34.1437
-66.2335
-23.7786
18.5466
35.9933
66.5464
51.9706
27.4388
12.2774
4.178
-8.57749
-24.4141
7.81986
2.9966
-25.4364
-32.5181
-26.3189
-17.9839
-10.2261
4.92222
32.173
37.7588
19.2794
-6.06401
-10.68
-15.0109
-22.8487
-29.8907
-9.58826
15.4902
26.5478
28.9955
4.91738
-5.15261
-14.2053
-24.3458
-17.2298
-26.6631
-12.8112
24.7828
19.3305
12.3672
-16.4518
-37.429
-1.73368
39.2939
44.2657
53.1316
16.2554
-10.5443
-12.5662
-13.4
-10.0446
25.3173
11.7789
10.4717
9.09474
-2.9806
-18.9989
-35.7078
-19.7421
-4.93511
-12.2164
20.1992
-9.6886
-29.315
-20.2288
-13.6446
-0.0356271
7.62149
-6.33878
-10.0579
-8.23642
-12.5224
17.0844
21.5896
3.25298
3.52346
8.0093
13.3496
7.4123
15.5177
29.0759
6.81314
12.6381
5.65984
-17.6309
-18.3593
6.71812
-7.35604
-4.93835
-9.61554
-18.6442
-17.5999
-10.573
15.6023
23.3818
23.1368
19.8217
5.52039
-2.19989
-0.978409
-2.87748
-22.2389
-33.0642
14.15
18.5534
7.88935
-17.9173
-4.70601
4.29634
1.72272
-10.8632
4.22186
18.7772
11.4905
1.43487
-0.0713451
-7.24051
-26.6644
-43.0156
-11.8633
0.0949251
11.5985
17.1042
-16.1205
-11.6665
-11.661
-3.87558
8.67024
21.1131
18.6898
19.4523
5.82414
-11.6612
-19.0743
-4.45008
0.314196
8.02824
35.9404
27.101
6.36907
7.52543
15.7482
1.06342
-36.9591
-10.3148
6.34493
1.35844
0.198995
-8.15246
1.31678
22.0165
-1.91776
-15.7099
13.31
-1.32455
-11.4738
-10.585
-9.68605
-7.96098
-14.7184
-15.9705
-16.6062
15.9957
17.9472
-4.84777
-9.16954
-17.9695
-33.9202
-31.2726
-37.3113
7.93736
55.1033
56.1116
25.9166
10.9492
-1.9847
-21.6943
-36.3093
21.4449
58.2846
52.2823
34.0093
8.39949
-2.65291
-19.6827
-20.7516
4.48254
-5.87724
-14.8055
-5.01256
-26.6323
-29.2617
-26.2101
-34.0485
8.76746
18.8871
18.6965
14.7693
-7.8401
-32.415
-45.8562
-54.7027
-15.3561
27.6731
31.9307
32.7666
19.6373
22.4049
24.8163
24.1996
-19.3882
-22.563
25.2192
18.0112
-10.8105
-16.2061
4.25759
32.4392
21.2613
-5.81665
3.94788
53.8636
3.63061
-30.2186
-27.9858
-36.7866
-46.3951
-44.9527
-14.6449
34.7391
34.6837
13.6913
-15.1178
-10.4563
-4.93012
-4.83685
10.4571
7.90289
-3.15873
6.96609
11.7365
-2.13905
2.66377
-14.6938
7.46064
21.8162
18.4629
19.6862
-0.788246
-20.5612
-13.9933
-34.2725
-36.5878
16.7619
23.6994
24.4124
9.31293
0.878311
-7.50134
-16.0798
-18.4087
-30.9605
14.3948
20.2548
5.01291
-5.38775
-1.2436
9.89252
-0.39059
-6.31755
30.2553
23.1922
2.01173
-26.4428
-21.8301
-6.74672
-18.2282
-13.8622
22.1264
26.1305
21.4378
-6.87659
-38.4599
-2.98756
-18.1081
-16.8176
2.83176
17.1517
41.5943
34.9978
5.41999
6.42219
-0.100818
4.25711
4.90851
-7.63035
3.69569
3.19621
-23.9737
-22.9459
-22.6261
-12.0111
-28.5653
-30.8922
10.9605
49.3275
27.8937
20.8295
5.65189
-11.576
-15.9388
-16.2328
12.4435
11.9739
-5.52169
-5.4577
-6.72171
-7.10164
0.537524
-2.47032
-6.63365
36.9022
36.5028
21.2484
6.65219
-15.6576
-10.6005
-19.4258
-22.9369
-7.02057
-25.6478
-12.8437
-0.215007
-12.9675
-26.9909
-30.1051
-21.3786
17.7674
15.8578
20.9479
22.919
17.6534
27.3784
16.889
16.326
14.9268
3.13331
-4.26814
-10.7089
-19.2936
0.762025
10.855
-5.18858
-0.0451468
15.6017
28.1263
8.95875
-19.594
-9.21457
16.6702
10.2593
-47.5599
-31.9468
4.06217
-1.71441
-19.4254
-12.786
-0.847679
13.8845
6.59632
16.0747
11.5059
-0.589775
-9.58605
-6.08247
-0.143153
2.1469
-38.1322
-24.7157
4.2451
19.6876
24.2076
24.258
3.1906
-4.51028
2.92502
-2.09013
-4.44994
14.7277
10.1835
1.46748
-2.96944
-10.7922
-14.5812
-22.6694
-21.4864
29.2351
54.0047
26.0246
-3.71016
-9.06675
2.18345
-8.10103
-19.7951
-37.2579
-37.5706
29.356
37.0192
-16.7722
-23.8794
-24.5497
-13.327
2.79402
-5.75808
1.71986
49.6107
10.0164
-10.3003
-12.3146
-7.60812
7.88835
11.5936
16.1156
43.6189
33.7196
10.6675
-29.5979
-44.2914
-20.2892
-16.7666
8.1297
32.5607
13.2498
17.3295
10.4441
-12.3972
-20.6785
-20.2293
7.36727
-6.7211
-13.3484
-7.95479
1.08559
-5.15932
-2.36655
-2.68092
35.7844
29.6041
5.25905
9.46069
-3.61705
-23.2958
-15.7702
-15.8001
-24.0033
-41.006
-2.04909
31.753
11.6041
8.14872
3.73242
-4.32784
-17.5192
-46.9955
-13.2132
28.0585
6.2439
5.82919
16.4205
23.7784
10.3992
3.58189
8.07767
1.81153
32.0135
36.1621
6.06169
-14.8253
-7.77359
-1.31261
-1.39307
-12.3752
4.42008
11.6428
-6.86595
-23.3603
-37.305
-13.2903
-6.22056
-20.6114
0.768883
28.3003
23.691
10.8417
-10.8524
-14.1292
-8.90384
-9.69614
-11.905
21.9151
16.2101
24.4085
-2.11025
-5.99046
-5.12526
-10.0997
-14.4882
-18.0864
27.3685
33.8328
-3.48891
-21.8811
-13.2798
-8.36271
-25.7172
-53.2989
-44.6554
26.342
66.4777
57.7374
33.7021
11.3395
-10.2328
-21.687
3.85748
7.48761
6.82939
11.4411
-10.2256
-6.33972
-1.1665
-22.4033
-11.5631
-1.18483
13.9442
30.336
16.8835
-16.5687
-39.8924
-78.3425
-16.8728
23.3459
25.5027
31.3846
20.3679
12.5096
12.0385
-17.052
-37.9242
16.8495
4.95136
-13.0779
-24.1379
5.44307
18.5616
19.7506
-1.1044
-31.2176
27.6993
18.712
-1.6104
0.374682
6.4621
9.11478
-0.572362
-8.90001
-27.9781
-15.2465
32.6634
3.5803
-6.40923
2.69878
3.50848
-7.01087
-15.3823
-13.5118
17.1997
8.71907
-26.2029
-7.75282
-4.64458
-8.62934
-4.75194
0.913577
31.0899
24.8396
10.0393
3.45216
-20.1363
-34.6192
-26.3257
0.107593
19.8349
29.6321
17.2836
5.52671
0.572876
27.3743
8.91006
-10.8729
-7.37088
-6.50768
-3.34621
-0.481125
-24.1199
-15.5734
-1.52086
0.634214
-15.0566
4.19735
25.0704
7.96282
-8.92937
-9.8465
0.0120376
-7.23897
-26.9807
14.1801
6.68499
8.03818
-6.88399
1.01774
13.8281
0.434477
-5.88236
19.8973
14.6596
18.3557
12.0956
-5.41395
-3.98951
-5.54931
-20.399
-12.8129
13.4006
22.4854
18.5689
-20.0475
-31.0366
-16.9902
-15.5947
-32.3659
-11.7371
17.9214
9.98248
-1.31653
2.22437
-3.3362
-11.2794
7.56617
-1.85279
21.9679
63.8026
28.7795
-4.84946
-5.21496
0.277571
-3.76889
2.40871
-1.37218
-3.40615
18.6899
-5.94447
-21.7677
-24.0517
-23.5333
-3.0508
0.0676686
4.482
11.8869
18.2587
5.42131
-29.245
-35.2178
-20.6026
-10.9725
21.7731
12.1932
-8.71088
-16.1472
-7.45459
0.915098
6.94117
-8.57174
15.7132
24.0643
-0.916422
4.94047
12.9868
0.67869
0.908058
-11.7363
13.66
35.7433
13.1309
8.591
-0.854995
-8.08814
6.23601
6.18207
-14.9418
-16.8317
24.5085
41.1839
17.968
3.7308
-8.62438
-23.0254
-33.6721
-49.893
-23.536
-11.9357
-29.5557
-14.6535
3.97429
13.3016
11.6971
-2.85356
-7.08834
3.25311
20.2057
22.3997
2.23072
-3.80246
0.821525
-6.50921
-5.7555
4.48298
31.7943
18.7161
-0.988256
-4.26676
0.362281
9.13535
-2.00497
6.13215
2.85789
-6.21362
7.57488
23.3825
9.11783
-22.7407
-50.2642
-29.512
-1.35614
6.30492
26.7271
25.5773
-1.498
2.39543
-4.38433
-4.7635
4.06219
-5.25514
-3.18263
-17.3068
-24.0427
-19.5154
-14.9388
-14.5426
-6.18189
48.6636
53.0945
24.0769
-6.80277
-12.4429
0.796146
-9.3419
-5.77208
28.7664
17.0165
1.95977
-23.3652
-29.2738
-14.3121
-18.9283
9.57341
9.28895
-2.04634
-10.2002
-3.38259
-9.83287
-6.65158
-0.441747
24.5578
11.344
2.01249
12.1713
11.7185
-12.1842
-28.0471
-2.224
39.1357
22.6219
10.0504
7.32697
-9.96876
-0.727283
-1.35445
-15.0536
7.57671
8.80778
-6.01499
-3.63552
-19.3254
-14.0862
-9.0133
-6.75008
-25.2078
-4.66171
48.7604
31.3446
-2.19891
-17.4235
-32.4144
-16.6604
-7.40287
-13.5832
7.20974
29.1054
15.042
-5.85857
-2.18461
-5.20404
-9.98435
-17.1648
8.13305
23.2154
22.2097
-5.93329
-11.9506
16.8302
3.98679
-11.3026
26.6958
24.9094
8.76703
4.38877
-7.45625
-11.2572
-25.7217
-41.2808
-7.28919
29.038
9.71083
5.06776
-14.0334
-21.8536
-10.8773
-4.30179
20.1939
3.50822
-6.09579
9.26712
1.85808
7.4936
-0.63343
-11.6863
16.0962
33.565
12.5808
3.10436
-16.9333
-24.6677
-20.2728
-17.7127
-0.882241
30.9242
21.4726
7.81687
-22.5389
-33.3544
-31.0159
-32.0325
-19.4098
-4.0018
5.04144
32.9662
24.9708
7.28829
21.7939
6.0696
20.1495
37.5189
28.7351
21.6041
1.93473
2.02441
6.2101
-7.65711
-24.5036
-1.32458
24.9501
-2.50335
-40.3634
-45.7541
-17.4251
-2.59309
-15.6258
-29.9319
13.1966
10.9504
-4.2987
-17.3928
4.5803
18.2978
10.8305
-7.89212
-22.2319
3.36197
4.95624
-7.90768
-13.1642
11.6
24.5273
14.7103
-10.5402
29.8921
16.5945
-8.91758
-30.2632
7.44092
8.57214
-9.88119
-16.4462
11.5798
13.4492
9.11109
25.3226
19.6982
11.9504
-6.64073
-38.592
5.29384
-3.546
-11.0081
-3.12962
-23.0537
-12.7049
1.75099
0.888978
16.8188
29.731
1.21861
1.58814
-9.05641
7.15718
2.6137
-22.0229
-59.9277
7.21579
28.2069
23.4583
13.1157
21.6245
8.49526
0.467253
-14.2951
-28.431
-3.50087
3.44403
-11.8487
-22.1094
-5.33162
19.4636
7.89394
-15.7806
-18.9414
-9.70082
39.9528
1.26525
-7.27917
-1.66889
-13.8879
2.91711
24.9197
18.6067
31.2295
26.0128
15.5352
2.86455
-12.1694
-25.326
-19.0979
-32.0571
-9.39453
-5.99854
-4.98486
5.84892
-1.98733
-19.2814
-44.8606
10.1137
49.0868
14.1805
8.90802
14.6543
-1.30942
1.93058
-15.7277
-34.6248
-2.26227
62.2033
33.2849
4.94032
-17.2166
-11.7099
-10.9164
-8.34795
-16.1317
-14.6852
30.4652
-1.2225
-26.5627
-15.6626
-11.383
-1.88017
-2.52006
-20.4296
22.4904
40.197
10.3084
-31.4924
-21.1825
2.96022
2.14578
0.286171
20.7234
26.0013
24.7296
18.9713
-5.89999
-2.72471
-10.4558
0.402775
10.6839
-6.293
-23.1731
-1.20999
6.04857
9.52283
-15.9461
-18.9653
23.4901
5.19835
-12.4447
-18.653
-20.7844
-6.83249
7.22109
1.64252
15.1746
15.9779
5.68183
3.28855
-10.8591
-11.4486
-9.40642
4.95035
0.45246
-18.7509
20.5521
20.2678
0.830491
5.77046
11.8836
18.2789
4.70136
-18.9282
-14.9808
16.1516
-2.83993
-21.3518
-34.9427
-26.1545
-12.5831
5.07893
22.7058
14.5568
4.35765
17.9005
16.06
10.4909
-1.3811
-10.9836
1.19688
-6.36697
-8.59661
3.54178
-9.82474
-13.1265
-7.76918
-3.43552
24.4665
39.986
13.3061
2.52881
-4.36973
-5.79386
-8.35923
-19.6357
-17.0826
-8.61454
-8.91236
8.71713
8.54034
3.80026
-9.4161
-6.95518
-10.4668
-14.3656
14.503
24.0886
22.4912
4.39114
3.33637
-5.11113
-32.5991
-16.897
20.1801
18.388
1.29413
-9.41014
-6.12973
-1.85516
-8.59274
2.3244
22.6587
13.5172
8.87888
10.7083
6.00897
-1.99984
-22.3236
-47.7608
-7.6912
26.188
20.1327
6.47597
-24.4916
-14.2326
9.06637
-7.01179
-27.001
9.02995
18.815
10.3678
-7.30786
-2.19453
3.1044
-0.801138
-4.85796
-16.8646
-14.4759
32.574
31.053
-4.58376
-2.69881
-3.67705
-7.28465
10.495
-1.13082
-17.7114
27.2547
-0.0393998
-1.90449
10.0215
13.9585
17.0893
-2.7138
-21.0327
6.18825
1.53842
6.11632
-2.30212
-18.8507
-13.5228
-9.38157
0.298348
-13.0706
-23.6942
-12.8465
10.0967
3.67102
1.75469
-9.27211
-4.3505
-2.93347
1.01038
17.0155
28.4958
3.37802
-2.09977
-9.63635
7.31496
-6.25414
-4.94891
8.67425
-5.51391
-1.35709
1.71596
-11.6311
-21.0764
-13.2526
31.0085
24.6887
17.5529
14.2683
12.8173
13.3743
5.30659
-21.1186
16.3082
16.1831
-2.57719
-8.91268
-7.3621
-3.08984
-12.794
-46.6161
-5.85822
15.0932
29.5578
5.88813
-19.7073
-3.20882
-0.528259
-5.59862
-27.7143
-16.3047
16.0207
1.34488
-5.34275
-11.1319
-25.641
-3.18503
-6.44393
-8.5693
4.18314
18.7006
10.5159
1.56232
3.29575
3.06547
-28.6363
-34.9326
12.3334
60.397
63.0626
35.6523
7.60673
11.8316
-2.03339
-13.2181
-16.9478
13.1797
12.3792
6.39461
1.31154
8.50309
-16.7067
-24.2775
-31.7185
-20.428
12.5478
12.0463
-19.8091
-40.9982
-30.5636
-25.5835
-35.727
-4.35514
37.2623
34.6741
24.6162
-2.18401
-3.29844
-5.95706
-11.8439
8.36804
21.7904
28.8734
30.2466
15.2401
2.37853
3.13873
-16.5106
-15.7518
-17.6639
-17.8324
-2.8109
5.89602
-1.6167
5.86577
-17.1662
-21.3613
40.4802
35.1461
13.6978
-5.00772
-17.4179
-24.7249
-23.8948
-12.6016
14.0354
39.3048
17.6788
-6.20502
0.148969
17.2324
7.56906
-22.6416
-31.8143
-17.9919
16.1185
10.8486
-27.7355
-11.564
12.3947
13
7.71237
-6.11895
14.4559
19.787
-6.75757
-19.3418
-12.7094
-8.29032
3.42291
-1.9872
0.338822
23.9902
9.55078
2.40753
0.542613
-8.31595
-11.42
-23.4632
-4.59451
14.1193
-1.20142
-2.2853
3.75695
4.3456
-6.92102
-33.4555
-10.2398
23.5212
9.77611
9.28531
14.3275
10.3874
10.4279
9.76293
-1.21033
-24.8774
-5.52038
13.5516
6.63243
9.71662
23.2512
20.6377
2.33866
-25.3026
-27.8648
11.1087
4.15426
-27.2791
-18.9533
-16.3614
-13.5317
-24.4663
-13.4486
21.4247
20.871
39.0561
9.50573
4.64523
2.61328
-21.9149
-14.8072
23.6409
10.9627
9.83627
9.03359
1.87565
2.32494
-7.73891
-15.1485
0.99742
-8.20764
-17.3307
-15.0756
-10.9734
-4.16773
-4.9172
-5.68924
-7.16858
8.20084
11.7449
-3.48201
-24.4669
-15.0748
5.9561
-0.0483538
-20.3458
25.6123
48.1474
35.355
19.17
12.2058
14.1587
9.54664
-1.69857
-13.4009
3.97106
-1.26746
4.0463
-1.97243
-3.75074
-1.78417
-8.89505
-17.4783
2.99194
3.10305
9.9996
-14.223
-11.0273
-1.95611
-11.585
-7.67782
13.2019
-0.128703
-22.344
-3.19592
-2.58232
-3.71692
-19.779
-23.3679
15.2437
8.41082
5.98528
13.1466
4.11211
15.0364
13.9552
-16.3806
-10.2796
16.5121
9.54808
4.13434
-11.3693
-7.22496
4.07946
3.89306
-6.41421
-12.9623
-0.164578
5.93904
-22.2166
-16.5262
12.3075
19.5531
2.03407
-12.9099
-8.74939
21.8274
2.6105
-2.848
12.6572
10.8472
2.4346
-9.04424
-25.8392
41.6018
46.2601
16.5861
1.66602
-22.9467
-14.7738
-2.3482
-23.7966
-39.3344
-24.3398
2.07885
-2.28958
-11.3288
-9.72468
-14.0745
-4.81443
-11.4662
13.4805
33.3493
39.3757
11.8498
2.00509
12.7076
16.7237
13.4416
-1.14411
4.58581
20.9636
13.8079
-1.37509
-15.2658
-2.8607
-8.84779
-3.82381
-20.3566
-16.603
11.949
-4.49082
-16.3711
-12.1073
-26.6523
-26.463
-15.4253
2.29123
26.6103
5.45332
-12.013
-17.6258
4.77266
39.4993
26.0791
20.4235
11.1495
9.74136
17.6349
4.11541
-6.55465
-31.7708
-41.99
10.9761
3.81804
-7.04152
-0.852272
-7.36137
-17.7651
-6.28024
-13.5196
8.17139
15.8832
1.45489
-4.7554
-9.11848
10.1563
8.79953
-0.543042
-35.7943
-4.1324
41.5786
47.7358
23.5248
-0.801964
-8.9881
-7.48925
-5.30702
-12.5708
-11.6965
12.5821
25.495
5.31899
-3.03261
3.5422
4.88937
1.78122
-22.9116
-33.3192
19.736
-1.10715
-11.0773
-2.49017
-17.9841
-20.6354
-15.2047
-0.512614
20.2583
34.6364
19.0908
7.29495
-10.3066
-5.2933
-19.7832
-40.4654
-16.2857
-0.332063
12.4359
15.6786
8.19613
6.24509
-9.0652
-22.4075
26.1844
31.9523
28.9951
11.1995
-6.47752
-16.3925
5.71635
-3.72756
3.15647
17.9812
7.60473
22.6283
8.49939
-17.7339
-27.4188
-38.3432
-18.1014
15.214
1.13417
-12.6115
-42.2933
-25.668
0.573563
3.84736
-10.807
3.65697
6.42174
33.8608
23.5272
3.22841
6.13748
6.32626
12.8116
16.4493
8.03103
23.0493
12.5216
-10.3995
-2.53287
-0.796581
-3.28118
10.3386
-7.10773
-9.83944
-10.7189
-17.5973
-7.51425
-43.034
-55.7103
4.41105
18.6127
25.7124
12.7687
0.278482
13.3778
22.9998
5.84794
-15.8499
9.07104
18.487
1.31809
-17.7965
-11.5639
-7.53032
-1.8903
-2.0464
6.21103
28.4724
11.8938
-32.8626
-19.8389
4.87513
-5.8437
-4.32503
-4.49831
-3.28494
15.1392
22.5268
2.33725
0.954101
-9.86256
-6.60873
-2.29638
-12.2137
18.0938
5.39128
-13.1439
-9.79072
10.4604
13.674
3.60422
-26.9329
10.2201
31.2516
14.6645
9.04113
-2.07727
-3.91648
-11.6935
-20.4057
19.9225
10.1944
5.19023
6.84196
-10.9308
-11.8892
-7.23446
-12.9717
-13.7475
15.0429
6.07005
9.99833
-21.0789
-52.1086
-36.6381
-6.36413
-8.03711
13.3147
30.6357
34.1779
8.49122
-6.5127
-5.22123
-3.70783
-16.7742
25.0943
33.7857
27.7323
12.8295
-22.6441
-24.5131
-6.14697
-7.24686
17.9949
41.0705
7.85049
-5.34355
-23.1226
-16.5501
0.223349
-13.1916
-27.7953
-1.23085
19.2534
16.2907
-3.85511
-13.7301
-8.68117
1.98193
-20.1993
-10.4297
35.6027
34.0383
15.298
-10.5595
-3.54072
1.26919
-2.24957
-14.348
5.43526
32.8903
29.1465
2.96141
-11.2795
-11.728
-29.0261
-29.3119
-35.9815
-2.11951
28.0443
24.2331
-7.86741
-5.30142
-3.44816
-2.9803
-27.1035
21.4689
27.8717
14.5364
-4.70045
-32.3368
-17.8621
-13.6584
-23.7755
-18.8976
26.0368
28.516
26.0303
-2.64986
-11.8326
-5.71573
-29.7221
-25.4767
13.8753
18.546
44.5962
17.6045
-13.7458
-24.6744
-32.5203
25.3065
29.1668
7.24413
12.7443
9.93565
0.869986
15.9373
1.08674
-7.47466
9.94548
-0.614518
-3.04432
-6.44015
-20.0292
-16.5502
-19.7549
-45.806
-9.12981
32.8153
57.4141
2.35107
-1.0932
3.1149
2.3192
7.99899
-11.0138
-34.5751
14.8593
18.2354
-20.0283
-3.46154
20.0182
17.0606
0.612659
-19.7196
6.9346
14.9562
14.8111
-8.052
-26.6052
-31.9443
-25.4489
-19.4318
8.09501
-4.06771
-1.83514
14.7796
1.47132
-3.15494
-7.366
-1.15051
14.9175
21.744
13.6679
17.2969
2.23627
-6.38176
-20.7223
-19.0211
-29.4229
-6.96743
36.8472
27.3694
8.92158
5.19138
-2.41638
-2.31107
7.02049
-1.82027
25.138
9.53676
-4.1307
-0.947365
-7.16541
-2.078
-8.56
-1.88336
4.96623
3.27601
8.19765
-13.8906
-36.1459
-15.1992
-5.86088
-7.23054
23.5991
24.7664
9.17393
10.2548
-0.582418
-8.89037
-23.9081
-23.485
5.33577
11.2131
4.6215
0.719943
-6.85956
-13.8985
-11.8475
-12.7359
27.0327
46.26
16.7591
2.23268
-25.923
-17.1087
-3.69522
1.34811
-14.1984
9.87654
13.0277
7.65333
-8.01991
-5.8323
-4.90512
-0.756923
-9.40701
-17.7844
8.98008
34.5315
1.07344
-20.5967
-5.94822
12.4177
9.1476
-8.39255
-44.8533
-26.7483
47.9975
23.9701
10.6012
7.5408
-4.03101
-10.7142
-31.5808
-13.7837
23.0452
21.8961
10.8734
2.05078
2.57683
7.63366
-18.1388
-5.53764
27.7709
25.1865
23.1198
6.61263
-25.0896
-26.3842
-31.6493
-0.632476
3.60666
-6.20565
1.40688
-18.2285
-27.676
1.50705
18.6609
-1.157
-19.005
13.9112
26.2179
9.13512
-17.52
-14.4331
-2.21661
2.28518
-18.2117
-12.255
27.3893
8.42059
11.1603
24.0254
32.8327
23.4135
-15.7082
-15.7178
28.3623
21.2128
6.30496
-15.3748
-22.1633
-22.5515
-33.1896
-44.8221
-3.78326
7.75198
11.1134
20.1716
6.99839
1.84014
-2.56466
-1.27072
-15.0188
-5.95448
36.5461
25.6887
-20.2207
-18.6721
-9.14444
-18.4944
-4.56733
-0.450849
0.979803
32.3671
5.56837
0.444999
-0.533346
-9.29186
-8.7217
-5.16068
-12.8329
-11.8661
30.8153
37.9422
8.40186
10.9177
-1.39639
-4.04498
-9.87166
-31.2514
0.633758
22.6997
2.36641
-1.68593
2.90965
-9.09837
-14.199
-27.3207
-13.7109
24.3022
29.4526
25.2142
9.87805
-9.53006
-15.6781
-41.0575
-12.0194
19.6842
21.6209
14.8631
-7.17811
-17.5497
-12.8312
-23.5551
4.46736
5.07902
14.3053
29.3885
2.29331
-30.7866
-31.2277
-29.2231
-2.59712
32.2655
53.0334
42.2793
0.25832
-20.77
-26.3407
-16.1676
-25.3997
2.21571
33.8402
26.6925
0.493019
-4.92004
-12.4441
-3.66877
1.55221
-12.2603
-5.12852
35.9338
20.7896
-13.0497
-24.4638
-12.697
-19.6015
-24.4588
0.316577
6.55079
20.4172
20.3843
1.96736
1.02618
-1.28536
8.70203
12.2956
5.58181
7.05801
10.5489
-2.90558
-24.343
-29.9723
-26.1133
-17.5904
-7.1513
11.3358
35.5771
19.4094
12.3015
7.49101
-8.61172
-0.960234
12.223
-9.39624
-10.3179
10.0141
0.680601
-12.3232
-14.6134
-1.34961
-0.59171
-5.75009
-27.5185
-21.1831
33.8517
21.2785
5.13701
2.29902
6.85105
6.18702
-14.278
0.817531
5.16852
2.86569
-0.48026
-9.20032
2.79506
-8.1023
-22.8659
18.0518
20.6844
13.8183
30.3194
14.5499
-16.9563
-23.3778
-38.6341
4.33401
33.5236
13.0545
2.31455
-15.9978
-28.2871
-17.6139
-22.3744
2.25809
4.09985
15.9365
31.9287
6.98493
-4.52314
-3.06409
-32.2113
-37.1818
8.03967
51.9429
38.7332
13.3121
-11.4123
-25.0597
-21.3032
-26.4278
-54.859
-23.0762
54.3615
36.9354
15.1278
5.5529
6.32436
5.72671
2.57652
19.9318
29.2594
38.908
-7.69489
-31.6633
-22.5153
-29.2904
-31.33
-18.4119
-10.0658
31.5252
37.6917
21.2031
-17.6723
-29.6924
-19.5753
-19.6785
7.86757
18.5707
6.63683
-9.04609
0.780863
-0.772274
-4.88819
-20.9999
6.70947
16.1082
6.08305
11.473
18.5385
-5.70093
7.92032
4.19686
-36.1702
-25.4469
8.22543
35.4084
17.9185
-0.603632
0.944568
-2.21227
-9.10703
-16.3504
17.5652
29.2547
15.3603
-1.7801
-11.851
-13.246
-27.4585
-23.7928
22.7425
13.8962
14.3168
-0.467303
-13.8421
-8.19738
-8.96073
-16.3206
10.0645
4.93783
15.0208
11.6124
-13.723
-20.9387
-59.5222
-29.5337
27.3522
51.8463
39.7727
20.9384
-2.19954
-3.07272
-4.56817
-2.2862
-17.2164
-13.1533
18.8996
5.37521
-10.7602
-12.0281
-13.0159
-8.74931
-10.9653
-15.6161
-9.19826
-9.5794
7.68917
17.6403
30.1407
27.0023
6.09709
3.19898
-0.615443
-3.16862
22.2223
4.02527
-18.4237
-10.3233
-7.62289
-8.63313
-29.9289
-1.9238
16.3586
13.0188
38.6429
26.9265
4.72036
-16.6067
-36.709
-9.56437
-14.6358
-10.5223
7.69577
7.97985
-4.56894
-10.134
-14.6836
29.1906
27.2164
9.30652
11.2077
-3.31321
-13.9719
-8.23603
-13.9309
6.68261
-16.1268
-18.1243
0.540498
-8.20012
2.17057
11.5483
11.4287
-15.4884
-4.54475
17.0872
8.42987
-3.58504
-2.35116
4.38419
13.5055
-14.0081
-42.0124
15.8375
56.067
4.85687
-23.242
-26.6442
-16.4302
-23.7569
-43.6963
-31.1838
29.3967
41.269
31.9297
27.6147
27.5356
10.4837
5.15916
7.11243
19.424
40.926
39.055
7.48025
-18.3494
-17.4396
-7.70586
-15.5801
-17.488
-16.8585
-14.4999
-18.4141
-37.5657
-22.113
-22.7781
-23.3239
42.5506
88.5582
41.7909
2.74594
-4.29486
-18.1832
-26.6956
-53.7745
-73.9497
-81.922
-19.3437
4.05959
10.5722
11.9707
16.4055
16.829
7.16293
1.21193
3.89821
41.5875
-4.52407
-38.9261
-16.439
10.0836
16.4124
-4.19312
17.4609
51.1332
45.4446
51.1215
23.62
28.6122
39.1495
13.1686
23.9092
45.8831
9.80037
2.41664
-13.3067
-36.075
-36.6413
-67.9094
-50.2622
15.4884
6.90661
10.465
2.9585
-23.7722
-23.1254
-24.5593
-60.5778
-68.7036
-35.9394
-23.3718
-33.742
-51.8033
-16.9672
51.1757
102.634
99.8311
122.342
88.2792
30.9814
-34.4269
-48.6927
-50.5535
-55.1186
-56.7022
-41.0542
-18.6477
31.5087
31.4606
3.47883
15.7865
40.1422
27.3905
-5.4226
-50.3068
-30.6244
-41.5721
-57.9695
-20.1141
-10.3046
-0.831629
21.8059
28.8538
60.0212
60.7829
64.4544
55.4257
24.1483
17.3112
-4.05917
-32.9938
0.327002
-11.9741
-13.8696
-5.42096
-24.9243
-21.6789
-48.2496
-59.1636
-2.18069
21.3456
17.6797
22.9295
1.76334
-7.11422
-1.49267
-7.79148
-37.0717
-24.812
19.4423
29.0124
11.3988
17.5148
5.43527
-21.3093
-45.3406
-21.5941
17.9693
6.68836
-6.7387
-12.4922
10.2159
32.4328
11.8781
17.929
39.5331
45.3022
36.4882
1.84289
-57.6801
-50.4277
-53.4748
-65.196
-21.8148
7.5909
20.9377
11.2189
-1.02799
7.91867
13.2635
11.7362
25.2639
15.1457
66.5245
16.3194
23.9102
33.3494
-44.2209
-82.2774
-103.198
-92.5512
-42.7633
48.3546
23.0511
12.3698
8.86334
22.6444
57.5921
22.4364
-48.2845
13.237
11.1765
22.3975
31.8469
31.9709
68.8983
42.5615
0.701405
28.6273
66.663
99.3856
92.8791
0.940681
-70.4895
-116.055
-163.602
-120.92
-34.6239
11.0568
87.9203
86.9123
79.0514
74.5253
74.1746
52.9487
37.2364
11.7067
2.86103
-20.8026
-65.2514
-113.986
-115.325
-96.5478
-51.0769
-44.2767
-45.4209
-49.8277
-66.3407
-47.6822
-62.6374
-110.629
-103.043
-65.1854
-33.2068
-19.5869
2.72523
32.2572
23.2755
27.8189
86.1544
143.651
143.882
69.1667
2.80678
-28.3123
-9.90349
16.1172
31.759
131.632
227.252
184.847
55.7278
-69.6885
-85.5566
-70.1915
-60.6638
-7.07497
21.8402
47.7394
39.3026
4.82735
-22.1352
-35.0124
-44.0792
4.05082
32.373
7.77511
-29.4866
-67.8196
-133.365
-123.705
-57.0397
49.5848
75.3439
98.099
54.5898
-2.20289
20.5753
22.0048
2.32581
-13.1468
-41.9701
-25.38
17.2509
-28.5172
-59.0711
-56.7164
-81.1022
-100.635
-54.3912
4.73746
33.7362
33.3886
52.5784
66.9419
46.5469
8.08352
-56.285
-44.3321
5.89661
26.2642
44.1251
16.4911
-21.7711
8.20565
43.3739
70.5036
129.179
78.3847
3.72379
11.5978
25.5371
25.9393
-23.8852
-83.5685
-42.6912
-24.5572
-20.9956
-40.3428
-20.4267
-13.8875
-23.9533
8.75332
55.4986
23.244
-27.1863
-12.1246
17.0374
11.896
-45.3147
-38.6125
10.464
-6.89334
-18.4095
-23.5648
-41.9436
-18.6653
-24.4537
-31.8579
-59.9504
-36.6258
-1.35203
32.4367
56.4276
68.755
65.5189
23.887
-57.9735
-36.0752
2.44051
7.99717
2.67904
16.6074
38.3006
14.554
-12.7306
10.0798
48.4074
43.6471
22.3639
-41.4285
-76.9423
-109.512
-119.147
-39.9963
34.1689
89.6021
115.41
96.9807
99.2856
54.8415
10.9471
26.3089
-6.69156
-49.4723
-37.8347
-33.7523
-38.8484
-15.2104
0.014767
-14.2219
37.7606
46.1126
-25.339
-97.1082
-110.744
-98.5798
-53.625
-19.3174
-26.5922
-0.301107
40.3395
20.0949
28.3519
56.6324
55.3378
21.8706
33.4957
30.9651
39.3815
55.9004
38.7831
40.8207
39.5924
32.5997
46.3153
38.9702
37.9758
1.59
-18.7497
-16.5866
-41.2876
-72.3893
-70.2854
-64.5515
-19.6334
6.15677
-13.5643
-43.5285
-40.5787
-4.1891
17.888
-23.3557
7.82287
14.9779
-36.0688
-52.9752
-82.3433
-61.9184
-17.1865
-48.5831
-40.7825
5.39774
72.7408
102.996
71.6934
30.3072
17.3175
26.4349
2.2091
-23.0546
16.4864
37.0139
38.4245
49.5711
86.471
79.4726
33.1447
-13.1783
19.2685
-10.8452
-67.7291
-82.9437
-86.8472
-70.9128
-75.6822
-67.1766
-12.2221
18.1378
53.81
82.233
34.8581
27.8838
5.58078
-11.7041
-32.6325
-49.4987
-23.8159
11.659
3.20933
11.7689
9.02358
-5.18719
-40.7299
13.3488
13.4517
18.3613
19.53
6.59083
7.90658
10.4307
-46.0247
-14.5359
49.9997
69.2331
31.2313
0.50849
-19.3777
-39.6366
-63.4433
-44.3205
2.57203
57.6623
47.3717
33.8181
37.4295
10.2812
-9.64611
11.6043
42.4349
79.6942
70.7576
20.2708
-28.9355
-67.6157
-103.815
-138.622
-115.375
-32.8021
9.26763
7.00358
14.5454
10.1303
-2.80164
-20.4953
-1.64563
19.2113
22.8651
40.0093
-4.5839
-57.9806
-48.0258
-21.3315
41.2166
54.0863
28.6452
58.3043
53.7899
29.6514
20.6545
13.1331
11.8147
34.9528
63.5603
9.31891
-9.5331
-7.7739
-7.17441
-39.2914
-55.0555
-66.747
-39.4255
-6.3567
-22.9415
-28.9229
-1.93297
2.07371
-18.4495
-52.1879
-52.1204
-20.8832
29.3964
15.5941
-9.0043
-3.95831
17.3838
46.5554
16.7909
-3.04403
60.1588
71.3788
46.7172
9.13117
-36.4088
-53.0725
-33.521
2.66273
72.9169
62.8816
25.5981
13.8849
-25.9469
-54.9048
-58.0719
0.638975
4.59286
-6.98785
-3.64619
15.9675
-3.92952
-3.15181
4.00964
-16.9003
-9.34514
22.464
9.45986
10.6028
-0.23202
13.445
11.4219
11.9962
6.77159
32.9888
26.7217
-4.34735
-34.5151
-93.7941
-101.877
-60.6557
-44.978
-1.9611
-2.90947
9.51286
14.5941
20.9993
48.2226
30.1643
-22.7645
1.00611
24.6297
28.5825
22.2869
15.9675
57.2662
48.0393
33.0962
68.8305
57.8668
3.67607
-43.3866
-65.3656
-35.3792
-22.2804
-42.3612
-30.7407
23.4896
24.8969
14.4617
-5.00382
-24.3709
-42.298
-52.1054
-48.1214
-40.502
-28.1121
19.6119
48.582
41.6826
12.68
27.0309
28.3263
-12.8363
-35.4838
-10.6136
-3.72311
-25.497
-10.0511
26.0592
33.4836
7.22873
22.1955
31.6582
-1.75791
-36.298
-33.1953
-42.4744
-17.4041
-11.6536
45.4956
106.804
72.2928
45.7305
36.3017
31.9416
-14.8571
-53.5023
-9.7092
-40.3302
-82.4113
-98.6459
-94.2124
-42.8429
-7.10751
11.2305
56.8324
57.7627
30.9486
42.6502
4.67749
-48.4663
-29.5749
-13.4092
-5.61934
19.8835
37.5162
29.7738
-0.282446
21.2091
36.3321
53.3021
65.0627
36.1081
36.1604
-1.20573
-36.762
-20.5528
-33.7015
-39.2862
-24.5681
-42.0225
-14.224
-37.1378
-48.8272
-43.7375
-29.8563
-12.3322
-21.8745
-20.812
9.55409
53.4554
78.7611
54.4143
25.8853
32.8906
20.3865
-0.435443
-44.278
-39.9496
-3.51415
-1.02659
-19.6488
13.4917
44.6152
24.7239
-24.0078
-10.3394
7.34793
-13.4714
-38.1046
-18.5211
-15.4537
-12.8108
-24.3411
-15.7598
10.7585
27.9343
24.5804
23.1257
9.00523
10.9671
7.12275
15.9328
20.244
18.6677
30.2351
21.7914
2.77972
13.7549
21.7765
-8.02839
-25.2463
-12.4742
-23.7723
-29.8522
-37.5933
-36.6992
-16.7702
-23.6422
-22.4094
19.4438
9.67489
31.3899
25.1221
8.58344
-6.47291
-33.408
-7.51214
5.47698
-5.66242
-10.0563
-20.1757
-3.06958
29.5118
17.9027
20.7402
14.9102
7.64391
15.3206
8.65843
-12.9253
-7.08103
-20.0208
-41.217
2.32794
36.4352
31.6185
-2.3286
-6.99468
3.27698
3.21786
-11.9139
-18.8961
1.35622
13.9627
-29.208
-50.2189
-25.3281
8.39773
25.4538
23.6458
10.8743
15.2197
-2.05541
-25.2437
-3.33579
25.2313
28.4961
44.6789
45.2092
77.3014
64.8197
17.0868
-38.3224
-44.5788
-26.4717
-24.2129
-33.3785
-26.545
-33.8369
-38.4304
-48.0038
-63.9806
-37.7792
-9.27643
-17.6156
44.1159
50.3799
-3.0567
-39.7229
-41.2862
-9.97564
-12.4272
-34.5191
-27.8683
18.291
31.5469
63.581
80.4086
84.672
80.4751
104.52
88.6158
59.3286
32.1154
-17.7652
-74.7567
-112.061
-100.498
-61.317
-82.4903
-59.4166
-12.7267
17.5091
46.2142
30.9506
1.85192
-23.9922
-75.9873
-23.9074
7.94262
0.678065
19.3415
38.5194
36.1947
61.0852
24.5343
9.59643
7.46852
35.1459
47.9532
21.0446
14.0356
18.0628
-2.89556
-24.5589
15.1513
8.09543
2.80144
-43.5654
-89.6108
-72.3013
-21.5229
-43.7218
-34.3827
-9.21218
-20.6566
-29.3904
-1.9744
30.7532
42.7582
20.3607
-10.553
12.9172
53.9248
50.5717
21.587
8.2086
28.0168
46.3671
58.88
24.5261
-41.6079
-32.2711
-44.9269
-76.8399
-40.6281
11.2118
28.455
0.932554
-32.6313
-5.81133
26.9132
6.59895
-21.6833
-39.426
-51.1325
-44.5566
-56.7885
-39.385
-11.8622
13.5735
49.1245
55.4584
47.3364
75.5201
74.1284
71.3205
41.848
31.1793
24.3853
-27.8481
-39.9899
-27.709
-47.9471
-53.1293
-17.3684
18.2086
18.6023
-7.072
-14.9815
-34.121
-18.4488
22.0078
39.501
20.6805
-10.7052
-36.9791
-13.0191
-22.3133
-41.5372
-34.7717
14.4969
61.1269
61.7791
56.5756
30.1746
9.79883
-2.16501
-69.026
-57.5265
6.66247
-4.29293
-0.907417
-18.3802
-34.606
-23.3769
-9.04632
3.29461
-4.39916
35.5266
48.0672
16.7305
-10.1346
-10.2022
-12.7364
-7.66
5.50448
44.4024
28.2434
-5.83631
-21.9139
-9.32233
10.1947
24.0095
28.0339
22.567
20.6772
12.8853
-23.0102
-42.5916
-25.3113
-26.8633
-56.9839
-91.5045
-50.9024
37.6275
29.8314
-4.21952
6.09297
-3.64356
16.4319
46.8605
47.6542
51.9744
21.2283
22.7497
-0.26132
-30.0238
-17.3057
-18.615
-31.4895
-22.4286
0.857728
55.8084
45.4826
-11.2989
-10.4812
-22.7215
-10.892
27.7046
-5.88466
-40.4902
-52.8514
-54.8782
-7.7829
0.618154
30.9416
23.9796
-0.151354
-5.56242
10.0944
22.4357
10.4362
13.9561
28.3161
30.8147
51.9294
68.9508
53.7879
38.0092
13.3898
-27.2508
-63.6807
-103.591
-96.0248
-8.45229
-9.3898
0.243252
35.8833
33.2328
-2.38017
-31.577
-34.0154
-59.8243
-10.9163
-3.36375
-14.7612
-9.30411
10.4415
0.904508
-8.67952
-1.21027
31.9223
34.9775
11.0696
-36.6439
-16.8447
10.9551
18.6466
55.6318
66.1206
63.4922
82.7584
95.0378
29.1712
-31.9089
-87.4729
-52.8648
-70.267
-83.974
-42.294
-15.0001
-11.1096
14.6127
27.0388
31.2587
31.1311
19.6917
1.26127
-35.3815
-25.2543
-7.28425
-16.9942
-42.7274
-50.996
-5.83538
13.4057
3.53958
26.3842
41.6711
48.2241
33.4973
37.9102
32.4252
13.8663
-10.7547
-32.9222
-34.6928
-42.9172
-76.5977
-20.8011
21.8885
-5.7205
5.78235
19.7631
38.4815
71.944
26.8418
29.1615
29.1661
-8.57339
-31.5077
-38.8533
-32.6328
-5.29523
8.28186
1.14792
7.58094
-4.37006
17.0911
-9.27321
-32.2953
-13.0315
5.51823
-17.6112
-35.8581
10.1836
30.7657
5.11851
-0.746851
3.68099
20.3679
-13.941
-46.4459
-1.03492
3.64531
3.76531
20.427
65.6639
79.9976
55.8263
-11.7535
-38.67
-23.5345
-6.5546
-17.1921
-59.3363
-60.5877
-63.4245
-92.6932
-51.9967
33.2421
65.068
83.377
63.9925
43.1039
17.2935
-28.2632
-12.0541
-2.99383
-31.8842
-16.2103
-4.34985
-15.2984
-25.8835
-19.7858
42.9491
80.3573
78.3097
65.778
38.2925
4.62411
-20.5792
-55.6396
-81.6306
-78.9344
-38.7389
13.5863
-15.0985
-23.1142
8.66445
15.119
17.2803
13.0771
39.9083
20.1024
-32.9224
-40.7777
-7.10509
-4.95118
2.27539
6.73265
26.9995
17.9645
1.29479
14.8743
8.44857
-8.50556
-32.9498
-49.1167
15.1282
58.5708
54.7622
56.8191
58.0608
49.1467
3.32752
-39.8348
-50.5514
-50.1099
-10.9399
-8.83804
-30.719
-28.6235
-52.9255
-55.293
-60.3751
-73.7181
-6.95236
75.6409
34.9296
1.03339
27.7671
43.2489
15.7019
12.5901
16.0914
8.989
45.0025
76.0598
31.8361
23.2092
13.2551
2.0216
3.57445
-14.3509
-40.8417
-17.2729
-23.026
-53.5365
-69.6494
-68.8916
-57.1789
-51.4378
-40.534
53.5423
91.4468
69.3177
9.75354
7.33812
1.47188
-38.9432
-25.1827
12.6039
9.27234
36.6912
67.8902
46.0402
23.3165
-19.9969
4.99163
3.59411
2.58298
-21.8512
-31.645
-70.832
-81.6466
-47.7024
-1.15499
55.0074
52.4391
55.4397
57.4445
50.0145
42.0275
6.82602
-12.589
-0.681022
18.164
17.317
-2.56883
-2.16218
-37.353
-87.3008
-102.48
-102.538
-91.6583
-46.4213
-23.0955
-25.2668
7.53426
27.4098
32.5053
72.2429
108.427
122.851
137.227
73.613
1.3972
-33.7532
-57.3571
-53.4682
-58.9126
-37.1558
12.2115
0.82287
-7.066
-11.2655
11.8157
27.8174
-16.0137
-38.8515
3.81399
-8.12596
-44.1642
-62.5646
-69.1169
-22.6413
38.5422
27.1128
14.4772
85.0522
111.261
107.003
69.5659
41.9269
19.6198
-2.96012
-44.0402
-115.046
-76.6403
-26.8703
-36.9974
-66.503
-73.8516
-38.4101
-12.2433
-36.1376
-19.6144
29.5972
39.4153
14.0392
17.4446
42.2128
53.2704
46.7904
67.0535
35.5647
-7.47558
7.37891
7.50441
6.67932
-11.1569
-43.2281
0.796814
34.7043
19.4087
25.9583
-2.61673
-16.9267
-17.5188
-43.1485
-11.7275
1.866
-18.5498
-50.4046
-68.6887
-23.9784
-21.5261
-21.8238
13.8605
59.7779
32.4699
49.3137
55.7412
14.3742
-13.9049
-38.126
-50.4745
-21.0832
31.1545
25.6906
-20.4873
-31.9098
-13.4756
18.9109
34.7431
11.3595
20.3857
29.8423
17.5044
-43.0031
-24.519
3.1338
-3.24682
-5.74404
-20.9521
-15.7324
42.0645
26.4139
-7.98398
-31.407
-22.1178
-5.31949
-17.1601
0.999743
27.3972
32.1109
21.8399
-6.90986
-32.2124
-47.6313
-74.6511
-60.4856
6.09727
52.0193
74.4346
101.281
76.3519
58.6887
26.0361
-2.59432
-21.9245
-35.3991
-56.9821
-45.4799
-13.1735
13.8728
29.028
28.4967
13.999
45.5997
17.2849
-4.50162
-50.0216
-99.9901
-80.4564
-70.7381
-73.2684
-26.809
-5.83586
22.3162
46.8841
53.3707
69.0949
36.427
-16.8542
-26.4564
-24.0695
0.265861
17.324
7.97112
37.0996
32.6109
-12.1694
0.779831
50.5227
49.3733
16.4258
-14.5726
-9.60971
-3.85112
-24.0646
-36.4726
-10.8101
19.0475
17.7976
16.1359
17.3891
-5.80879
-28.3225
-43.8772
-58.3804
-19.3843
51.2895
5.15313
-30.9939
-26.9266
-45.8726
-38.5267
12.3566
30.227
55.0055
61.1973
25.5859
-1.53393
3.19908
7.57682
12.9867
-8.32127
6.19475
-10.2997
-3.0932
15.3464
-2.49818
-0.953589
-33.9552
-52.5205
-10.0983
31.9718
20.2923
-20.8823
-56.0568
-46.1709
-12.198
9.71298
49.1239
21.4584
-15.7759
-18.4891
0.524781
25.5063
2.94808
11.3977
12.162
12.5966
28.2142
54.3629
45.4239
43.4709
21.3858
-5.62484
-1.62112
-3.43329
-17.2456
-43.8469
-70.4753
-56.5622
-30.7916
3.1228
-11.9256
3.51948
42.3561
5.84099
-9.20622
13.915
17.6131
-0.16821
-45.8165
-28.4098
-1.70354
18.1164
-2.29592
-26.1157
0.964155
21.0762
1.68588
-1.13366
-4.1205
28.9425
29.027
9.37713
21.0088
18.2741
2.71469
-0.862174
-19.1051
-3.39387
-7.68488
-18.4455
-13.9214
-12.4512
-0.758841
8.03804
-35.4756
-15.2688
-1.0905
-1.56452
35.6199
37.3225
32.957
18.026
-16.213
-30.0139
11.6964
28.8544
7.92182
-3.68047
9.60956
-38.1889
-49.8967
-28.2719
-4.34892
31.8865
38.6906
10.4705
-10.8091
-11.3524
-16.7368
-19.1501
-7.0228
42.6477
28.1409
14.839
-2.67109
-12.0844
-23.5944
-49.4588
-14.2834
26.7941
-4.43798
3.91053
11.9556
-7.71843
16.6798
31.2076
44.5095
28.0168
3.8829
-18.185
-21.0676
-36.9826
-17.0486
-29.0628
-34.4184
22.4116
32.8202
36.6952
-3.50417
-42.7394
-40.1495
-25.8577
-32.9935
-2.20924
32.3651
33.609
10.7261
1.74176
-12.0886
-17.5237
1.9295
-8.12665
18.4165
77.3244
44.0862
-18.5617
-22.4241
-22.6383
-7.1707
16.1868
35.0233
26.5085
62.0873
34.433
16.6539
-9.17519
-38.7675
-32.8777
-23.9665
-47.7613
-7.44223
8.55147
-9.09582
-21.8725
-23.9204
-27.4936
-27.5517
-40.5248
-25.8123
-19.439
-13.8842
17.9082
7.16805
-4.23696
-2.1688
-16.4319
10.994
43.2427
45.3984
58.0995
34.9764
24.2975
29.7277
-11.0211
-10.4984
19.1615
75.1206
53.7862
16.0838
-10.793
-18.1941
-26.8298
-38.9044
-62.8928
-87.9495
-38.0005
-25.0175
-24.9906
-0.697185
32.5602
32.7408
-3.20842
6.85566
15.8773
8.02171
-18.7763
-20.4034
4.81991
9.59605
13.4699
25.3915
13.982
14.5849
35.2614
35.039
18.1409
-7.36131
-32.8959
-13.3735
6.4057
-30.4814
-29.9147
-36.8626
-25.2218
12.1504
8.71898
-25.7828
-9.99424
44.9159
27.3929
2.53466
-3.61369
-9.93911
1.24132
-13.3532
-47.3159
0.608125
15.1819
31.8426
7.80991
0.603569
20.5727
13.9619
-0.243381
-7.99387
-12.5213
18.128
23.5903
4.3921
-2.31498
-29.6548
-5.93432
-3.53735
-21.1678
19.3417
36.2646
30.3929
42.8935
10.1247
-28.0042
-48.3501
-57.6641
-34.1093
-11.9118
-13.1177
13.5626
8.08276
16.5962
19.9046
24.2873
50.9392
28.2717
12.285
2.41555
-15.8978
-15.7593
-16.3328
-24.6052
-22.6283
-2.373
-25.0874
-56.8117
-37.3652
-11.6625
-8.56009
-0.968869
-3.01775
9.97495
8.50204
48.0976
28.1524
8.82648
14.7722
50.9435
34.3597
-6.79117
23.2067
42.1348
-16.447
-38.7896
-0.238149
14.345
-2.80724
-35.9432
-39.8263
-8.18186
-6.24208
3.59222
-4.00177
-11.2565
16.5427
29.0604
19.7548
-20.8054
8.67267
28.1365
-41.3435
-90.236
-53.8425
-9.81784
5.64122
15.0112
42.5362
55.6354
39.1142
6.87911
6.96722
23.6003
22.2299
-13.2885
4.21778
-29.0249
-57.0164
-32.7678
-28.035
-5.32191
4.3482
-23.8166
17.8959
35.6679
7.57561
16.8062
46.9238
60.0978
56.5588
22.8278
-6.28698
-9.31214
-29.8856
-25.5943
-25.2896
-7.11722
-6.76086
-36.2321
-59.7623
-5.5603
-1.73035
27.0999
18.307
-1.25373
-4.70627
-12.6867
-20.6224
-8.2627
-11.6481
1.7491
10.7971
-19.5828
-8.80726
-5.47183
-23.5217
10.87
12.6902
17.9668
18.5917
-0.342079
16.2777
19.5121
-11.7936
5.37567
24.3316
27.5877
23.2255
17.9442
21.1855
7.64663
-25.2928
-10.1505
16.4916
21.1689
-5.62558
-38.6317
-35.8807
-5.1647
1.43551
-10.9187
-48.0868
-49.2422
40.9855
35.8744
21.1931
22.1106
-3.56205
-23.2675
-13.9127
-33.0232
-30.4224
3.06225
-21.7046
-23.8832
-8.1774
9.60423
61.9049
64.0559
46.8702
32.195
19.0045
20.48
-29.8107
-32.0484
-30.509
-39.3981
7.64771
6.45446
-18.6811
-7.42536
20.8696
-3.47932
-16.4294
-37.9709
-17.8459
21.5676
2.63169
-1.7182
19.4604
8.82428
25.7657
32.0362
-5.3737
-41.719
-33.1006
-2.97619
-18.3332
-25.2733
-5.51595
12.9106
47.1813
32.3603
4.32313
41.0424
56.9914
4.55749
-11.0176
-20.6213
-49.1874
-53.9231
-64.0852
-10.5662
36.3914
48.0069
51.3101
41.9196
-5.88692
-7.68512
0.062265
11.178
-13.8435
-22.9166
-10.8572
-20.523
-29.201
-33.9864
-39.6603
-18.2733
2.84351
25.7462
48.2318
21.3335
-0.163274
4.53343
2.68248
11.266
27.7949
19.7702
7.96654
-13.8569
-20.4813
-23.7632
-0.764077
-30.2637
-59.937
0.810274
54.2927
34.6784
35.1078
37.137
30.7936
5.92142
-31.4478
-48.4513
-8.84637
-2.56431
-31.9141
-23.2982
-1.99462
11.7491
39.0887
31.8097
40.8315
34.4576
15.44
-18.3424
-51.5847
-58.3397
-56.3846
-62.1658
-21.5969
-16.9688
1.1934
30.554
27.8038
20.83
4.84835
11.6393
16.7902
10.6322
8.70496
-0.119482
-15.3962
-8.54743
-16.671
-31.6122
21.9804
47.5026
16.4743
26.3656
30.0286
33.1414
32.1285
24.0419
-12.1662
-25.6027
-4.11925
-5.66115
25.6901
31.7854
-8.22741
-22.5712
-50.6457
-58.8088
14.1436
21.2604
-11.2194
-24.6991
-12.2662
-10.2221
-33.9201
-62.3593
-21.4342
0.471646
-3.84798
4.94616
11.3421
23.062
15.431
1.86548
-3.32321
6.45517
65.558
74.9052
27.071
6.77968
-11.1293
-24.645
-38.2998
-68.8409
-32.2303
33.9975
18.3939
3.85089
3.98112
-0.0158917
3.30047
-11.5831
-31.8096
32.472
57.3006
46.478
17.098
10.4954
-2.70305
-21.9458
-33.2636
-39.9921
19.0718
20.0872
-3.92954
-17.7937
-21.4563
-15.4924
-17.2529
-39.4017
22.0899
20.1478
-2.83259
-39.1357
-45.7505
-26.8577
-18.8129
8.67492
62.0743
53.021
36.0404
24.383
-19.8988
-3.77146
9.9702
10.5672
39.8198
40.2509
39.8598
40.1778
-25.571
-33.9224
-56.3861
-52.9709
15.9865
16.3265
-0.64607
-15.0459
-52.0244
-35.9989
-10.6989
-13.3576
-17.9944
35.2866
17.4185
5.43136
-1.08248
1.38936
3.17085
10.0882
-5.37103
-37.9403
11.8993
17.0933
-18.4721
-3.65311
5.49085
8.64572
11.6661
16.7959
0.867678
36.4097
51.4484
17.9935
17.0257
4.10167
-19.3172
-28.5505
-51.2262
-26.344
0.272923
17.3833
34.2821
57.0145
22.9302
12.4984
-5.37123
-2.62268
-30.4505
-28.5549
-19.0641
-20.5191
-22.5122
-60.4767
-79.4929
-26.058
20.2831
-0.683661
17.3799
25.1356
22.9593
40.2943
-5.01652
-26.242
17.5
15.1264
15.5765
8.80859
19.65
12.8231
0.283195
-4.65447
26.8276
27.2909
21.5161
0.31789
-16.7946
0.997163
-17.9047
-71.3427
-30.3855
19.6673
23.4983
8.37605
-15.2014
-19.9311
-15.7126
-10.544
23.6087
27.4005
27.6701
23.7219
0.691165
7.18977
9.18399
-18.9804
0.783601
-4.32147
11.8827
32.952
12.3591
2.71074
9.02786
5.02168
-20.4127
-23.323
-32.963
-32.3826
-29.6999
-19.8478
-37.5049
-21.4343
-12.2727
-3.24034
-4.56797
-36.259
-66.1766
-36.0448
7.30679
57.6324
86.2428
56.3829
56.8404
82.74
58.7927
41.8222
51.3623
43.9503
-14.7686
-86.0017
-76.4338
-0.924304
-5.51787
-19.1142
-12.4599
7.28934
11.5294
-14.5711
-51.8153
-18.6717
-56.5173
-65.3195
-62.6319
-69.0073
-29.7317
-12.7449
6.56395
37.7538
34.7677
54.7995
68.1804
26.068
2.60319
5.34101
40.8815
89.1947
76.1372
68.0916
63.2528
-9.95878
-33.5311
-19.9855
-23.3627
-67.9141
-68.8646
-2.69959
-11.1314
-21.3073
-2.47804
20.5885
17.8862
-1.98435
2.21876
25.3756
23.5082
-4.1417
-35.8218
-41.0241
-40.2235
-49.0443
-68.1975
-3.47544
30.6501
28.9942
12.4109
-26.9872
-15.1594
-11.4124
-16.3823
11.7253
30.6808
21.7656
26.5696
15.5548
-3.74724
-15.0336
-6.23159
-8.9948
6.14063
39.5764
49.3328
8.05023
2.25596
23.6911
24.9603
14.9336
-1.32978
8.61714
26.2702
7.65902
-25.0846
-47.0831
-28.3908
-17.883
-17.4571
-13.8568
-27.0353
14.9509
19.8861
9.46758
8.98245
-14.3244
-24.315
-19.7166
-26.7425
22.0078
31.1983
-7.17071
-17.5794
-11.0041
0.0438057
16.6556
-4.99435
8.07013
13.9925
24.4728
20.8027
-11.0021
-22.7215
-55.2279
-19.0737
50.8911
23.4841
16.862
22.7259
-19.9687
-13.7951
-12.0928
-32.9547
7.84026
19.3228
21.0281
20.0291
3.25155
6.36838
-5.28275
-6.41913
-27.3738
13.4595
45.3858
13.4745
-29.6802
-19.4396
-21.4954
-12.6766
-19.1073
-40.8246
6.53835
25.8748
13.7226
26.1663
6.66358
-1.09866
-13.5996
-18.5551
-18.824
0.540452
42.3741
6.42479
-6.44723
0.99776
-7.06622
-1.21464
1.30889
-0.175939
-13.1975
17.6382
7.03867
19.2495
17.1499
0.607299
-7.38897
-8.33122
-24.0471
4.62658
27.5324
17.9792
-1.32365
-2.24844
-15.372
-27.5237
-55.9934
-13.0853
-15.8177
-20.8412
19.6664
49.4569
62.5102
69.6125
27.6368
-44.6307
-39.9662
6.92123
21.7263
-4.75459
-30.1187
-26.8101
-9.32559
-12.8262
-37.3155
-3.73322
66.4216
40.8757
20.6082
4.927
-20.6722
-38.0755
-57.616
-58.9211
-36.8847
-0.348573
1.16838
-11.6743
0.378679
6.30063
12.706
21.4643
18.0885
15.7546
26.4407
16.3973
2.0793
4.61494
3.52135
27.0117
77.4123
58.6522
27.9653
18.7179
13.4646
10.1564
-14.709
-14.0121
-15.9451
-26.8476
-34.7679
-55.5194
-70.8744
-53.3766
-32.6341
-28.7027
3.23984
-7.72616
9.05815
22.8481
13.249
22.0925
4.98625
-34.0141
-6.44813
28.7102
21.6377
2.27825
5.36894
5.25515
20.9611
40.3458
46.7562
54.3284
59.2477
16.6379
-37.2026
-41.0547
-34.8076
-36.7121
-63.2563
-48.5364
-3.61222
25.1657
-3.69074
-40.467
-30.0362
2.48616
-8.601
6.80129
29.0903
35.6126
25.2752
11.5447
6.15045
18.0396
6.27244
21.8852
29.2508
16.5234
5.7414
-29.264
-46.9652
-30.4441
-30.2888
-22.8165
45.5744
47.8369
38.1858
13.541
-0.084863
28.7126
37.1163
4.09895
-20.253
-7.02962
-48.811
-45.0814
-19.9483
-14.6684
-18.7572
-26.2261
-5.05695
11.8607
6.84461
10.3521
-15.0305
-23.6231
-5.58524
-21.4697
-5.66542
-20.2514
-34.3188
-16.5835
18.9931
37.2164
43.3409
26.8757
32.9753
57.556
44.2754
25.0178
-7.03467
-19.4527
-5.66266
16.5376
6.83763
-5.64573
14.2474
8.5504
-16.4143
-24.0033
-35.7323
-21.4886
-29.0678
-55.3658
-1.42336
26.6592
8.61919
-20.2666
-25.7934
-1.3049
10.6541
-14.274
1.6326
34.7707
6.04308
-2.49691
-5.16414
11.8242
5.66599
-26.1338
0.700937
30.6273
20.5107
23.3963
8.45764
-7.67956
-8.02953
-21.4461
8.06038
29.9366
16.5369
24.4134
32.6641
12.5778
12.2657
2.92558
-10.3108
1.62038
-10.5379
-12.6696
-30.8186
-56.6641
-49.6718
-33.1119
7.81173
7.64144
-6.86117
2.73194
-5.69627
-9.19308
-0.101904
-6.01685
-37.7707
-21.5116
24.2959
19.0197
3.65135
0.529823
9.08575
16.703
24.765
2.26759
-1.58634
32.5619
51.25
25.4066
8.86815
3.55025
-11.978
-21.0165
-30.7283
-11.4767
47.1332
45.4048
12.1799
-0.0821757
-9.10361
-22.7342
-31.1004
-22.17
-20.9122
21.8141
29.6635
-2.8023
-45.3754
-51.6487
-38.65
-7.59558
5.05022
26.6714
35.5768
18.0461
-5.50296
-20.0908
-24.3477
-25.313
-23.7774
15.4775
21.7971
26.063
20.3581
-0.73576
20.6971
27.3076
-1.88676
24.4585
27.9496
-0.577897
-31.5106
-52.064
-40.325
-5.85891
-5.70006
-22.5921
39.4065
51.7861
42.9941
18.6708
13.1094
7.18176
-10.9659
-10.7677
1.66512
-19.4096
-19.7255
-19.9482
-24.8511
-2.99253
-3.85167
-5.05971
17.2833
8.86575
5.72082
17.6491
-15.1616
-16.0008
-19.8617
-23.6933
17.0048
-16.5384
-15.6217
-20.2224
-38.5997
-22.1698
-5.37641
22.9715
53.8512
41.6584
56.7567
51.8959
18.9281
0.970437
-7.54499
-30.4376
-39.2077
12.0483
13.3994
-6.45069
-30.9643
-6.19864
-8.90436
-21.4919
-29.8782
18.371
17.0933
21.9736
30.4723
39.7658
19.2687
-2.82879
7.19984
-4.57267
-35.8466
-6.88909
-7.38691
-44.5719
-34.9329
-23.0061
-32.1337
-20.1223
-2.73723
35.1609
53.0719
21.8735
34.0524
13.672
-14.161
-19.7941
-36.2469
-4.70094
1.36656
-1.74089
8.86237
8.2864
1.07209
-2.75141
5.75577
28.4252
13.9771
7.43826
5.68786
-9.96484
-30.5501
-31.6527
-36.5786
-18.9249
22.6342
3.89928
28.6429
27.5242
20.48
17.1216
11.3887
10.0419
24.6477
-3.51349
1.19318
-10.9247
-7.31838
-8.14269
-6.12429
18.0697
21.0286
4.54155
3.79818
-16.7065
-53.0695
-45.8844
-39.9961
0.0769121
10.6102
3.19509
-9.17206
-14.9725
-20.7701
-12.9241
-42.0175
2.03776
86.349
96.8099
76.2491
17.733
-11.9556
-23.8089
-39.2282
-51.6909
-34.8846
16.9406
21.7435
-12.5836
-23.3525
-18.372
-1.42238
1.24175
-26.1507
-22.5997
43.9898
23.9771
11.0653
13.423
-5.30558
-16.4262
-2.85658
-20.1731
3.62725
36.9731
24.5044
0.905444
1.58004
12.6431
15.9355
4.72294
16.3244
15.2818
24.4831
12.732
-9.94998
-14.8006
-53.1149
-70.9048
-20.3018
-12.8826
-10.8888
1.36143
-1.52466
6.96543
12.6823
-15.6962
34.7433
41.1761
24.1072
29.8052
11.6767
-8.2415
-13.3745
-5.00593
-5.31131
-19.52
-29.7067
-18.3857
-23.5015
-10.4655
7.41273
9.39865
-18.9493
-15.7257
16.6423
42.5997
28.0506
3.56075
-19.4907
-16.2936
-20.9721
-41.8184
20.4862
55.7366
30.332
21.4083
12.4151
2.19219
-0.901949
2.55461
12.5453
54.6625
30.1196
-16.3602
-45.0776
-48.4359
-36.8084
-27.9139
-33.4253
-18.5197
23.8925
29.5285
14.1744
7.73683
-8.74532
-16.115
-31.5036
-3.65533
19.4384
14.9165
-4.54454
-18.7916
5.78007
-1.69192
-20.189
14.9106
9.11964
5.80475
24.7238
20.3367
-4.34495
-8.29666
-51.1616
-44.9627
20.8449
32.2835
31.8763
29.0864
-0.635215
-11.3053
-7.70452
-14.3448
-10.1142
35.455
35.1968
6.6003
-5.66449
3.53514
14.1438
-6.95338
3.60893
15.7407
14.9161
10.2357
-18.8933
-30.5341
-24.7002
-38.4435
10.1998
18.8565
20.5695
13.2728
-2.15536
-36.729
-50.5761
-65.6554
-18.019
-4.89145
3.30481
11.8231
-6.93521
6.42808
18.3175
21.0472
43.5026
41.445
26.9562
15.494
-7.24235
-1.73482
4.26293
13.4069
-4.63647
2.79769
42.157
19.9032
-30.7649
-40.6494
-29.0073
-29.6837
-75.8214
-78.4773
12.3304
55.9444
18.4779
6.02194
19.1654
36.9741
28.7356
8.34677
-34.4099
-27.0444
20.7996
6.72452
-0.391406
22.0693
14.4739
0.283086
-20.6729
7.5812
48.7773
35.983
-14.729
-43.333
-37.1379
-25.8372
-26.3308
-5.03768
40.0789
35.0482
21.1422
-11.0363
-23.0775
-22.4069
-30.2699
5.90288
15.2111
20.6226
27.828
15.1343
15.9635
21.496
-6.31673
-39.8721
-18.5327
35.6678
11.6931
-32.7475
-57.5664
-37.9128
-25.4776
-19.2062
-17.2225
26.8668
15.255
-7.46655
-0.115583
-5.78376
12.1792
21.8536
37.5147
52.6357
35.8299
15.6681
-17.0266
-34.6626
-21.305
-21.4449
-4.2645
39.7244
54.3831
57.9081
28.787
-20.5364
-12.3768
-30.9163
-33.2381
9.86149
-16.7751
-29.3091
-41.2487
-29.6843
-9.49039
5.46666
-6.0677
-25.4546
18.3109
20.4422
-4.60047
-15.072
-0.336944
-0.72491
0.312669
-6.70309
-7.11069
40.257
48.4033
-2.27903
-8.91847
0.387912
9.92715
3.4323
-28.0388
-26.5752
31.2255
23.8899
5.29136
7.25542
3.94725
-4.3382
-36.6013
-10.6752
24.6937
28.8188
19.7975
-10.6418
-19.0743
-17.8966
-11.0757
15.4748
9.28091
9.33878
21.6199
20.6534
-6.41512
-14.0479
-16.3445
-9.94919
-16.8869
-29.6916
-20.8711
-22.5108
-21.0068
-7.50013
-2.25015
41.305
28.9703
19.987
6.31318
-28.424
-24.1398
7.70545
17.4949
1.2587
28.3051
42.2447
25.8201
4.6727
11.0188
7.38161
7.00226
-31.2851
-14.6622
-0.820292
9.43606
-14.4761
-23.6396
-28.7717
-29.0459
-41.3339
-19.6811
21.7585
8.32651
22.0166
13.5754
5.53352
-15.6319
-4.87716
-13.4728
-35.8909
17.4813
33.7826
23.3191
2.06752
-1.35015
-8.1516
-2.81407
-4.37337
23.907
29.2818
4.14723
-17.7055
-4.83475
-7.15534
-28.347
-31.1253
28.5949
47.5977
48.522
52.4453
20.1084
19.3051
6.66125
-8.31954
-50.0462
-53.5656
-4.93968
-5.47314
-3.60698
7.88912
9.45761
-25.9929
-32.2551
-39.661
-16.8437
1.95119
-14.9378
-11.9242
-9.58385
-10.974
-38.2681
-37.4316
-3.63828
16.6451
48.6624
52.7107
37.5317
46.9804
13.1188
18.5694
57.8431
44.0113
27.9189
19.999
-21.4156
-53.0586
-77.4765
-79.4515
-40.4273
8.26221
42.3095
49.4366
30.4411
21.9139
-12.7781
-28.3559
-24.3132
-13.8183
19.9867
6.60297
-44.7581
-57.3949
-13.5841
-11.5218
-8.6716
37.9026
54.0703
36.3206
13.9651
-1.99928
-2.90161
-6.76587
-36.7892
-63.2449
-1.05299
54.2443
40.6514
27.4349
2.0211
-8.71796
7.36413
6.74328
-18.9078
36.8186
14.7395
-10.5729
-12.7297
-19.6742
-21.8961
-18.23
-32.7691
-3.56323
8.89056
23.2137
14.8411
-19.6545
-34.9168
-38.551
-15.0926
19.3774
19.7209
25.7698
18.739
1.68747
11.69
-12.419
-1.28792
31.8047
10.254
-14.5672
-1.52296
-23.6504
-12.914
13.4297
-11.9793
-40.7278
21.0675
48.5089
36.2768
25.0399
10.0582
-0.868735
1.35672
-23.7568
-24.5172
9.10911
24.2277
37.257
28.9433
6.6395
-24.5166
-61.0988
-30.8067
10.4701
5.73109
0.770002
-29.3581
-30.8654
-21.1399
-25.5873
-12.0269
10.3469
2.85249
8.60509
21.1448
16.8631
-9.06873
-46.8529
-45.642
-8.31812
42.665
50.2716
34.6883
1.95653
-0.127486
7.73185
-7.71271
-21.292
8.22621
35.1404
28.9609
8.24425
-6.2315
-8.25925
-1.82295
7.38814
-8.32842
-24.0871
13.5333
34.4021
20.4565
19.913
-2.89909
-22.8058
-14.9072
-10.9592
-20.4519
6.72027
-14.4989
-32.2208
-24.2068
-9.15921
1.54463
-23.9522
-18.6647
16.7656
21.7765
15.8678
-3.56439
-19.2867
-7.68849
7.59103
-14.8339
9.40512
19.8936
22.8875
14.8324
5.54299
14.7545
5.39048
-12.5249
21.4062
10.8157
11.9542
2.75674
-35.6317
-27.0954
-0.699954
-8.14091
11.3998
54.9165
38.5469
21.3448
3.62981
8.62612
-5.99715
-16.4676
-24.2689
-59.8556
-30.4536
18.5398
-9.1941
-12.7461
2.56883
-0.745935
-15.4331
-30.9159
-1.61442
14.0638
-3.25847
-32.4182
-21.6078
3.93205
-1.47915
-35.2275
-18.416
15.7323
46.1701
57.2262
42.0296
23.0644
10.7767
6.88804
-8.3621
-11.3808
30.737
28.1552
-1.01652
-19.1412
-4.16387
1.70703
-16.0394
-11.5612
0.154053
12.6553
12.516
2.20218
-15.1021
-16.2908
-40.023
-18.1901
-11.3183
18.7182
40.0949
38.513
0.192499
-7.96945
-24.0677
-20.5976
-34.3593
-20.0872
2.32851
1.00336
-0.521898
11.0014
7.56578
-2.3879
-20.0879
2.4315
11.9556
-1.71554
-1.35849
5.90668
6.6816
1.42616
-2.60114
31.2063
51.0908
36.3511
19.5613
-26.3001
-32.9574
-8.78895
-32.5025
-16.9818
13.1956
16.8294
2.41284
-0.29495
-0.765274
-25.0227
-31.5573
-10.9283
2.9175
29.3152
26.2619
3.5806
-11.1828
-7.41663
-9.44989
-17.5841
-16.8698
1.27062
5.39564
-0.905476
-3.10586
-6.46234
-5.39415
-7.07836
-3.04382
42.959
61.4354
18.3011
-6.15926
-24.7688
-18.5348
1.53602
-11.2699
-38.5243
1.73302
41.1393
8.61446
-14.3099
-0.708206
12.693
22.5586
21.0898
23.3957
45.7853
19.3033
-26.0312
-47.4522
-45.5589
-28.7497
-33.8669
-18.7053
1.00522
14.3501
30.6739
6.90742
-10.2687
10.7568
-3.77384
16.9106
10.6224
-14.1364
-18.5071
-17.8535
-31.6907
-22.187
-20.369
-3.15769
21.6696
35.1899
40.0859
31.287
30.8156
27.4918
12.4306
-19.4263
-50.5333
3.62941
5.81
-7.23473
3.90904
3.47054
-3.88294
-4.75392
-19.1837
12.2736
5.25948
-4.94652
-13.3393
-12.5491
-3.14828
-22.0369
-62.4404
-5.52801
15.5578
22.8107
32.4985
17.6688
5.29001
-21.0145
-40.8504
-4.97226
4.61456
22.22
37.3854
25.2129
41.1159
30.2932
4.53804
12.0117
18.9487
2.83771
0.052576
-29.6627
-17.3133
-0.512508
-3.89922
-31.1388
-23.3598
14.7381
0.276953
-27.8879
-15.856
-10.3499
-12.7194
-12.7274
-33.8881
-16.0719
27.5518
7.07361
-13.9947
-9.47972
0.485258
-8.5317
-9.0802
8.42662
23.7872
61.9034
55.9752
22.2811
24.2595
1.48011
-11.9165
-8.37711
-12.5332
2.17398
-7.45597
-12.2547
-22.4411
-19.0886
-3.52945
-10.1836
-22.9584
4.44691
29.0936
12.5726
1.41069
-22.6285
-10.2853
-6.23864
-18.515
7.43509
17.9805
6.04899
-11.1477
-15.147
16.9639
18.734
-4.8418
-24.9748
-16.0189
20.8672
30.6143
9.20154
-5.55349
-5.09966
3.86356
-18.0053
-31.9236
20.1837
34.4628
22.383
15.3672
-5.10806
6.75908
37.6878
35.7445
32.0817
3.49332
-16.3401
-38.845
-49.2297
-19.5441
-20.441
-35.7924
-30.9532
-7.82612
7.32131
3.91692
-24.685
-12.5268
-19.5546
-6.05503
8.12675
16.9661
33.0327
8.60783
-10.2441
10.2044
25.2803
30.747
26.7821
-16.0692
-15.0526
2.98422
0.992446
-17.475
-18.6594
2.51379
7.0367
17.2856
8.53719
36.5889
36.4565
14.7914
-29.791
-31.1143
-37.6015
-31.3134
-34.6027
-10.2888
30.9849
27.6783
24.0799
14.6197
11.5298
10.325
-4.33636
4.81275
27.5354
1.29112
-12.6899
-24.8987
-17.0285
-26.361
-38.1805
9.80115
37.3674
24.8172
30.2086
21.6331
-7.33776
-5.60469
-38.2105
-29.3131
21.5553
6.37003
10.9319
4.56993
-19.3357
-23.8963
-28.9795
-36.2957
-3.51791
18.0286
12.6641
-7.08567
-18.7515
-6.97027
8.34851
-10.8736
-31.3275
28.1641
38.199
25.0168
-7.8498
-6.76252
3.07354
-3.91418
-39.5386
5.50698
37.7596
35.5216
17.5458
29.267
53.2361
44.1981
6.80659
-8.0593
-5.3787
12.8424
-0.750076
-29.0421
-26.8328
-19.8279
-27.1209
-33.5134
-46.8245
-10.4929
8.52189
2.49567
-2.69982
-11.8812
-5.89112
-22.7548
-43.7535
-7.83126
4.26673
0.589938
-6.75576
-2.07017
15.3242
0.867577
-7.6858
17.7577
36.4129
45.8717
54.8049
31.3822
29.2528
13.4187
4.81139
-16.4857
-3.18702
2.89255
-10.1717
-35.121
-26.9875
-0.419086
6.5257
-27.0327
14.3292
32.6331
39.0232
16.3075
-16.382
-21.7489
-24.7902
-43.8868
-8.48567
-7.54033
-20.5618
-26.3786
-39.8486
-18.8406
-4.559
-12.687
35.9536
51.3494
50.6096
46.9411
5.26268
-13.4448
-26.1933
-24.1735
13.855
4.78705
2.43592
5.49707
-15.0104
-23.6733
-1.66928
7.5578
14.9885
20.636
6.61541
-5.80042
-24.4812
-25.548
-14.5999
-3.54783
-31.414
-12.1258
47.2746
28.9049
-7.63423
-9.7966
3.0133
18.4548
25.5652
11.7946
-15.0943
31.078
32.9366
10.5942
15.0462
3.42327
-12.5376
-21.3527
-40.2284
-45.5375
18.4477
34.5873
23.2628
29.2356
28.0998
18.7367
-16.9651
-53.196
-23.4731
-4.63399
-2.40587
-26.9026
-50.3093
-55.5955
-49.6338
-42.6227
29.5393
39.982
47.5962
55.7769
24.2237
-10.7504
-45.6858
-55.133
-31.0064
-14.2874
4.81236
31.6911
17.0022
19.5841
37.4939
35.6637
9.94942
41.7137
58.7954
51.4519
13.9601
-3.07087
-22.6043
-27.7829
-47.4072
-37.5392
-11.6592
-0.35444
1.32999
25.8463
27.0453
-6.38545
-42.7904
-21.4337
-11.7849
-6.37722
-5.71968
-15.5607
-5.51885
0.86246
-32.3019
1.18005
47.5532
33.1054
17.1697
-1.34361
-10.6117
2.4369
-2.34422
-37.4499
-20.8506
17.0588
20.9287
8.25694
4.89317
2.18249
12.2911
-8.17133
-23.1518
23.7667
17.3211
-18.6858
-49.0983
-41.6255
-29.4335
-12.1304
1.93466
-1.67331
14.2845
43.8462
40.3085
35.8857
33.3247
18.8319
11.01
-14.8444
-14.2565
29.2746
11.0432
-22.8044
-18.2483
-11.1517
-9.28133
-11.7728
28.7587
48.5818
0.692881
-25.6538
-60.3111
-57.0411
-23.369
-27.6802
-17.5648
14.7714
-3.03679
3.29779
26.9735
18.9154
20.3284
3.35073
40.4864
53.0356
34.1014
4.06891
-18.475
-13.2892
-1.33608
2.0888
15.8727
1.22319
-20.8851
-13.801
-12.1473
-28.8405
-22.2082
-19.8828
-41.6204
-43.3601
16.8668
26.316
21.5961
18.2132
17.4451
13.4444
-12.9535
-46.7545
-34.7837
20.2863
12.3178
24.8538
31.3139
44.5089
30.7952
-5.12874
-20.9055
25.1985
22.0214
-14.8008
-38.1523
-33.6393
-39.9753
-36.4738
-36.9186
24.8566
58.7077
36.2942
34.683
14.0923
4.06624
3.27554
-17.49
-12.5904
-29.188
-19.6504
10.919
-13.4452
-5.80589
12.1041
-19.0417
-8.07436
40.923
19.5981
13.8457
-6.59733
-13.4546
-0.945701
-0.00563071
-10.1004
0.917544
9.7732
6.74627
-6.51467
-6.93941
2.06921
10.2297
-15.4269
0.976698
29.6309
18.664
-3.48029
-42.273
-31.4305
-14.9089
-33.872
-1.51245
27.92
18.2524
9.15319
-0.681825
-9.54795
-9.7687
-30.2271
10.0427
21.2305
18.7348
20.213
12.665
3.56504
-1.12786
-32.7733
-18.8809
12.3764
16.4091
41.1052
18.0831
-6.85251
-12.6807
-37.9735
-9.85416
-7.44297
-6.72199
1.87626
10.2804
17.9533
15.5374
9.69383
-12.8352
-1.69966
24.6162
32.2205
7.00652
-18.9712
-27.3754
-18.459
-10.6865
-24.4892
-25.4632
50.1095
73.5174
56.0002
17.5369
-13.0809
-41.4183
-51.4975
-65.5548
-48.2179
23.586
4.51838
-18.3673
-8.71588
-13.8184
-18.4743
-8.46379
-18.5677
12.6571
40.0075
38.2975
0.76277
-32.0955
-27.6239
-9.72168
3.89895
27.7215
29.7403
43.8543
53.3733
13.1037
-3.20568
-5.78865
-3.94104
9.72354
19.6728
7.55275
20.5677
-0.510445
-15.2636
-21.5431
-28.1881
-42.622
-14.4864
-1.29849
-1.33337
-25.6529
-24.3851
-10.0132
-14.631
1.21475
79.4927
84.4004
65.5572
33.9489
1.1881
-10.7991
-36.7806
-41.673
-29.512
-35.1524
-53.6719
-61.2122
-47.3868
-9.1662
-7.57028
8.04296
66.2869
61.4291
49.4903
7.0836
-61.1393
-49.509
-6.23867
-2.48668
-28.4642
15.026
31.7761
-0.72364
-11.6576
19.5419
38.3556
60.5099
41.3837
4.61162
49.7382
37.5287
-10.8346
-25.5333
-21.6678
-8.04468
-6.75452
-22.75
-60.5363
-15.3252
4.036
-10.593
-3.60039
-14.4587
-26.6008
-33.699
-35.0467
-7.66007
-1.10056
23.0857
9.21451
3.5219
-1.22145
0.758661
3.07331
82.2022
72.1746
49.3484
46.7476
2.64983
-4.37512
-20.6084
-50.0253
2.91739
9.315
3.7542
-5.44333
-32.8302
-47.5382
-51.7111
-44.118
-5.13807
-3.96792
0.586908
-1.0165
-47.3576
-47.4623
-17.1128
5.73002
14.0463
32.5746
32.0961
42.4955
29.834
34.2621
38.936
43.1722
13.8465
12.8552
48.5887
35.8624
3.53639
-12.9964
-30.2111
-32.7724
-50.5301
-45.1048
-9.57452
2.99688
-7.90031
-10.0164
-0.369858
1.8021
-19.1112
-46.5611
-41.9445
2.88287
39.8444
36.3089
11.4874
5.00492
16.8258
13.0217
0.580674
14.1733
7.38543
-1.19573
-19.4127
-11.739
2.97732
-6.32579
-3.23797
20.9801
1.24598
-2.45574
-22.1684
-42.95
-46.4357
-36.9455
-34.5477
32.7091
82.3962
49.7164
34.0781
21.5281
11.6406
-5.75929
-16.4297
-29.1756
-9.62942
5.76893
14.931
1.28012
6.74157
31.8493
35.5101
14.5273
14.1853
-6.86176
-20.8024
-55.9612
-83.0253
-41.9385
-30.3492
-15.99
29.6843
22.1359
23.5685
29.1023
12.3221
6.95927
-20.7018
-23.7344
10.4356
20.6321
30.3895
21.855
12.9179
22.1004
-14.5712
-24.6886
-1.62823
-12.6257
-2.2678
-11.8018
-35.5154
-13.8296
-7.22768
-35.4749
16.3838
39.0399
18.502
-4.32056
-19.0011
-12.4625
-1.8704
10.8002
5.23166
27.03
87.488
40.1901
-28.8873
-30.3792
2.80934
10.4023
-14.3414
-37.7485
-35.65
42.3218
11.276
-14.602
7.94373
15.5078
5.11453
-4.41472
-41.3236
-25.2629
-2.50622
-22.4084
-25.1871
-6.36624
-5.27843
-2.92181
-8.7718
-0.819257
25.6726
25.9478
20.82
-0.776159
-12.3512
-6.60155
-18.9714
-7.33494
18.0197
23.0526
54.064
45.2985
15.1178
12.4172
-20.1103
-47.4634
-30.9272
47.4666
31.0986
2.98347
-17.3685
-14.0319
-8.12148
-13.8989
-23.742
-6.93393
16.8002
14.9259
0.0576371
1.93326
-5.60898
-22.1882
-36.2245
-31.8791
9.99783
27.6306
12.2904
-21.6698
-7.74827
-10.0802
-32.7656
-13.3974
6.78897
-6.39466
7.30197
25.7873
30.6274
40.552
26.8073
7.7504
20.5595
19.3034
6.93472
-4.80764
-13.7675
-8.81904
-10.4013
-30.8699
-49.3268
-22.4408
15.1717
16.6357
19.116
33.3857
13.5144
-15.7174
-45.9539
-59.0636
-24.3454
12.5119
28.0062
19.9544
39.0397
24.9018
-14.7371
-3.44212
-11.9676
3.67214
47.4311
14.5264
-3.01009
-0.23747
-6.18699
-17.5497
-34.1263
-27.5604
18.6996
19.7569
-11.1397
-25.3548
-30.6106
-4.00055
-8.38883
-4.46492
14.6174
9.05047
27.3746
22.71
32.2398
42.1844
25.2894
21.5325
6.11699
-7.23474
3.64076
-17.4873
-28.3277
-18.4167
-37.659
-20.1528
-9.34796
-10.1588
-30.8146
-35.3677
-35.9381
-21.2364
-19.086
-27.6284
4.09684
41.1126
34.1938
24.3894
17.2434
17.1398
20.8283
3.01806
-11.6393
16.0329
23.5217
11.221
1.95623
0.19247
16.5963
29.2304
23.6129
56.5641
42.4015
15.2867
-23.0452
-40.2256
-19.1622
-13.8936
-26.7847
-49.1621
-40.1748
22.0623
19.3126
-2.23001
0.157568
-11.0842
-6.96171
-28.7413
-42.4932
22.1299
28.5791
-1.89043
-10.1111
-12.7073
-25.9693
-19.9613
-26.6011
-15.673
4.00398
20.9525
27.5624
16.0959
14.4548
1.42872
10.2321
12.5561
5.4454
36.5394
62.2343
-0.242158
-22.8354
-38.5102
-28.7101
-19.4791
-33.8885
-29.3582
26.1287
29.437
25.3382
22.9101
9.32832
5.42299
-11.4288
-30.0298
15.2774
25.0613
23.4191
-12.8618
-11.8827
-17.089
-32.4788
-15.0495
33.0503
37.0557
28.2771
15.3667
-1.27424
-2.24578
-22.9463
10.7673
6.62526
-19.2932
8.95566
25.6526
-4.20349
-22.3857
-50.2821
-44.9648
-8.54315
-9.95312
-4.53878
-7.92096
-16.0341
-3.76595
0.151907
-16.3756
-13.4491
13.0267
27.3493
4.76791
6.39526
15.8744
7.8638
5.83044
0.551325
0.00597312
14.1048
53.2879
11.6048
-12.8239
-4.53593
8.71498
-1.76272
-15.1271
10.5332
48.2051
16.8067
-5.72307
-11.1317
-24.3405
-21.3458
-36.9813
-33.542
30.7995
44.0446
31.8532
13.8163
-18.5499
-23.2102
-17.9559
-3.05417
0.189835
-5.3717
-5.81018
-13.3862
-12.078
-7.29026
-11.8497
-23.8641
-2.32597
19.0144
18.3408
15.9789
-22.5614
-38.4755
-19.2026
-1.1859
-8.74295
9.72202
66.35
61.0569
26.6263
9.0185
8.51511
-4.34525
-36.8621
-39.3322
-1.75358
38.0759
35.7491
6.81164
-10.3637
-20.2147
-43.2066
-47.8598
-2.89846
14.343
4.59299
-13.552
-27.842
-16.3665
-13.5814
-2.7173
23.5287
14.155
21.5831
33.8773
14.925
3.19293
-18.5088
-18.3795
32.3442
46.3651
33.0414
27.3505
-7.44526
-25.1367
-16.2981
-9.04172
-27.7436
-18.2786
17.6253
9.9375
-8.43535
-10.6795
-16.6644
-31.9775
-26.9675
-18.2954
1.42518
38.7005
27.077
15.2561
18.6186
14.5776
-1.61792
-7.75253
-14.1032
12.5392
14.4521
-0.364521
-15.6131
-15.3933
-17.0229
-14.7546
-9.91457
11.9212
-4.54589
-16.86
-15.6816
-9.52102
-4.40185
-8.38235
6.42674
18.1121
13.0001
8.38415
9.24908
-5.10852
-1.69419
-8.65488
10.6591
20.8847
12.8378
20.7864
25.6519
17.3231
18.5185
2.1211
-3.80007
8.21204
-2.9965
-16.748
-37.7645
-43.2464
-27.0951
-10.3992
-2.45966
-12.2332
20.8028
37.6624
18.721
0.65409
-5.90964
-5.17928
-6.13523
-20.3477
-13.7552
27.6047
22.3537
-12.1478
-23.8553
0.949207
21.5548
6.87443
5.47563
18.6612
0.563699
-8.68085
-22.8203
-26.9081
-33.6149
-11.1546
18.8108
15.0296
28.0898
16.2278
-6.70784
-15.9231
-12.0223
-17.4791
-18.8619
-27.8625
26.6363
42.2586
26.614
12.9743
15.2993
9.20034
-3.84565
-29.6519
-18.0217
14.6724
8.60256
-5.01077
-16.2173
-9.47384
-1.73247
3.7583
6.56591
1.65202
28.618
30.7911
-3.53494
-20.8132
-27.1315
-20.647
-16.4881
-24.5985
15.351
44.6763
36.1544
5.12231
-18.5876
-13.7545
-17.0533
19.4551
26.1243
19.6161
13.5299
1.42745
-11.5267
-19.2852
-53.1643
-10.4801
9.55311
10.7064
11.3625
12.355
-11.907
-20.3556
-6.97885
-10.8755
-10.4284
-11.1018
-15.6324
-12.495
-6.75954
-19.1386
-25.4392
-0.0851408
30.1258
50.0553
49.2789
23.7836
10.1885
5.28674
14.583
18.7244
-54.4479
-31.2248
14.1475
-2.16554
4.34222
22.3286
20.5114
-15.7749
-27.7164
-31.4507
17.2863
39.7901
6.35194
-1.07665
-15.21
-16.4834
-9.80611
-17.7638
-42.1461
-2.92213
48.4708
44.7644
7.51454
-5.71137
-10.2331
-3.70711
-19.5936
10.3303
34.4911
26.8718
-9.8303
-31.6955
-26.5598
-23.9688
-18.1402
8.40527
8.65832
19.8971
40.0274
30.19
21.964
-6.92532
-40.3872
-14.0998
-9.18645
-18.7595
-0.509834
-8.96171
-32.9467
-19.7731
-15.9634
-18.4558
-7.64376
23.7035
28.2473
17.7418
20.6234
5.16494
-0.329273
-27.3776
-5.6099
9.0026
-7.40745
12.9715
36.0747
26.6105
2.38109
-44.0314
-4.7991
37.6028
35.8734
15.1757
9.93727
17.6466
14.5199
-10.492
-7.66965
-41.1677
-17.2853
10.7408
-3.62542
-20.0124
-21.8835
-49.7117
-59.9997
10.2933
62.0038
46.9958
9.36359
-4.30867
-1.14292
8.94333
-28.4988
-63.1536
13.6687
34.8951
28.1017
27.3352
12.4376
-5.34059
-32.0546
-47.2755
-35.539
18.1899
50.6455
3.64977
-7.60508
22.0261
14.7919
-6.0547
-25.6325
-42.9213
21.1005
16.7107
-23.2784
-23.843
-30.544
-16.949
-23.1454
-13.2998
45.1434
68.2882
71.6632
29.2615
-18.3348
-24.6311
-33.8586
-38.4647
-4.28395
7.10217
22.9624
40.6275
15.6149
15.0454
-2.0009
-2.83552
28.3795
18.2917
17.0438
5.23044
-17.0678
-27.7332
-36.3451
-46.0583
-13.924
20.4668
3.40888
-7.69083
-49.9671
-56.0411
-28.9716
10.5846
29.0016
40.1652
94.4626
66.3669
2.57575
-32.0512
-43.2278
-23.0836
-32.9733
-24.427
8.3021
14.2048
14.0132
-5.83109
5.80243
11.4991
-25.5583
-16.7017
32.9169
15.6918
-16.5032
-18.1299
-47.2809
-31.2841
-15.3072
16.1611
13.4605
31.3939
41.3286
18.0844
9.19228
19.3328
2.18014
-10.8563
-16.1554
-9.30025
62.4113
53.9103
10.0233
-2.55343
-4.95879
-10.261
-35.0874
-67.0183
-56.2465
25.1658
59.303
18.5166
3.70619
6.24952
-6.01595
-10.2154
-14.4421
-14.2495
10.1813
9.9243
-7.6739
-16.0788
-18.5341
-9.38822
-20.7664
-6.55577
19.7763
27.8773
13.3091
-17.9896
-15.0528
-12.2351
-18.541
16.9748
5.3367
-29.6331
-29.502
-17.9653
-12.4154
14.265
0.240084
30.2521
49.1398
40.2957
33.6381
7.36325
-3.45526
25.2624
-7.44005
-30.7878
0.304921
2.80797
28.4988
6.52782
-1.81487
14.9096
42.9942
25.8348
-32.9039
-48.5139
14.8451
-16.2419
-68.1831
-77.1582
-66.9399
-51.3474
-70.1949
-66.8206
15.4972
14.6579
-9.57925
3.84078
11.4725
31.2102
74.8414
87.1141
50.2325
69.149
72.9108
64.1286
43.7326
42.5812
27.7496
6.84089
0.957915
32.2036
17.1938
-2.70502
-22.3404
-1.42426
1.70255
-31.114
-50.6546
-27.2701
-46.1159
-64.739
-72.6592
-79.7925
-59.2313
-81.4332
-116.099
-51.35
1.80772
35.8966
72.98
65.2162
74.2041
75.3118
54.2224
-18.2608
-80.2079
-25.2562
25.1458
2.27315
-9.94288
-10.871
0.0227933
5.12426
4.45909
55.528
45.2017
-12.1935
-17.1798
-3.10107
-18.7676
-13.0512
-0.63654
51.4204
38.0686
82.9116
98.4884
50.2843
7.02798
3.87675
-23.1574
-2.33494
19.5021
23.9717
25.1788
-21.9765
-49.415
-66.6829
-70.8189
-53.2714
-48.182
-63.6235
-64.337
-82.405
-72.6088
-45.8102
-3.96974
18.5117
19.3689
-16.2254
-25.3551
-10.1553
23.851
28.2731
37.1939
28.0541
23.7623
39.2831
76.646
46.5403
55.5669
61.1266
57.845
42.694
37.3468
5.03483
39.9166
17.3261
5.77376
-6.05466
3.78839
9.28267
-24.6209
-52.3816
-26.6971
-11.0539
-21.0848
-20.5991
-17.9896
-10.832
-21.5149
-40.0489
-31.3748
-42.4712
-36.3336
-18.0073
-44.79
-55.4327
-59.8386
5.24691
53.7952
40.6061
27.7219
11.6359
-12.1076
-3.36351
19.2161
35.6199
39.2981
34.8077
26.5318
18.4927
12.5877
9.98047
25.1181
9.23799
-41.9181
-1.23355
34.3217
8.3811
6.65579
-4.2669
-15.7691
-10.5569
-28.8047
-14.0119
-0.94804
-32.3315
-84.5469
-75.6271
-39.7757
-6.62384
-22.0835
-6.59813
-0.672376
19.0689
44.2989
44.4268
28.4031
18.0114
11.964
4.27356
17.2267
29.9648
24.4192
32.9965
50.9871
40.2137
31
14.1089
12.5562
16.2081
26.9181
22.5182
3.91483
-10.1134
-18.6698
-48.3571
-76.1163
-58.7177
-56.0312
-55.558
-53.7
-71.7891
-79.3208
-44.3085
-10.4175
11.0549
49.1102
79.2477
53.5617
31.1906
15.5496
1.25602
8.41497
-2.41711
-7.30859
37.077
55.7233
40.1311
46.4794
53.5734
46.348
46.7135
36.0975
36.3418
4.14911
-9.48404
-35.3273
-44.7295
-43.2311
-52.3376
-60.2956
-37.2279
-29.8367
-10.3237
-1.08218
-30.3058
-43.0805
-37.2218
-9.21951
-1.60072
-19.4024
-17.6971
1.99266
-23.8351
-42.134
-53.7959
-52.3617
-15.5713
46.8404
59.3464
57.1253
33.5155
18.249
20.0912
47.8421
41.8239
36.2819
73.583
35.2633
5.84118
-15.8772
-17.9452
9.62604
10.9967
6.12493
41.3599
72.8944
28.2626
-18.1073
-30.061
-16.6209
-11.6194
-16.6796
-29.7473
-32.5102
-14.2115
-21.3866
-65.3719
-51.4449
-40.2528
-32.8904
-26.6135
-10.5808
1.28985
17.8582
12.7652
-7.27573
-1.59493
-7.62219
-23.3631
3.85554
28.6382
29.6871
26.1324
-4.88369
-10.4919
13.5631
27.2344
6.0344
0.502735
52.302
58.611
38.6477
24.1419
20.4609
14.1827
-5.05709
-17.8894
-33.7495
0.976905
-14.5093
-24.0441
-18.2727
-19.7184
-21.6786
-35.9479
-38.4548
-4.9053
5.70227
-6.99812
-22.0782
-0.028578
10.3006
-4.18175
-14.592
-0.237844
-15.9351
-20.2448
6.39849
14.4614
8.8004
10.6975
23.212
56.5675
43.3308
19.168
7.87719
-8.88853
6.09568
19.9832
25.5413
48.6115
21.8443
-21.1633
-45.2425
-54.0819
-16.7389
9.09615
4.30975
-0.226922
31.556
34.5998
12.2538
-21.6797
-13.7553
0.346616
-4.44773
-24.0056
-56.9158
-25.2173
-46.9874
-52.8058
-30.0322
12.2676
33.8426
25.3493
14.3558
33.3214
9.58076
-4.42861
-16.7334
-27.7815
-17.4481
-11.2978
-13.882
19.6789
33.4628
28.0916
26.4378
6.772
2.43306
-17.5469
-25.296
15.8026
38.5634
41.6545
32.7334
8.73548
14.4513
-2.21003
-23.7832
-22.6454
12.436
-10.5997
-4.73396
-18.3611
-23.5922
-30.8982
-25.827
-44.4433
-4.63589
27.552
13.2701
-5.82232
9.07328
25.2008
22.9829
-4.5452
-32.4478
-13.6746
-20.3706
-9.12354
13.4732
33.1482
35.5178
28.3863
-3.62121
2.89605
41.9437
30.4311
-11.0482
-60.0192
-41.8787
-11.712
-16.973
-8.61577
4.28652
13.6697
24.0988
26.2104
35.481
11.8911
-33.8457
-3.06034
17.9522
1.56566
6.14431
-5.89915
-34.7684
-49.0914
-49.9805
-28.3855
13.6088
56.6607
18.921
-21.3839
-21.478
-14.1763
-8.7862
-26.9179
-21.7365
-6.81676
3.17991
41.9719
36.0144
24.0802
24.2801
25.0355
14.5026
35.3579
22.4436
-0.921975
6.10757
-31.629
-10.0587
3.97972
9.60168
-5.53556
-30.2551
-7.34137
33.6262
24.9578
6.39588
-48.6824
-54.8567
-40.7023
-38.8584
6.43723
5.97925
20.7907
39.8066
40.5339
18.1085
-4.59195
-3.98183
21.0967
-1.33774
7.20086
24.2975
21.2806
15.4367
-8.43771
-67.2825
-37.4697
13.0243
17.646
33.6893
-6.01709
-16.6744
-15.3906
-24.1064
-33.0454
-19.2768
-15.5832
-19.502
-35.391
-31.787
-15.1013
11.079
15.8126
0.222638
52.9607
96.0669
68.0705
27.4006
1.82048
-18.6928
-39.3314
-40.5129
-26.7254
-5.26475
28.1488
-22.583
-54.9264
-39.0404
-25.9494
-11.993
-7.94249
4.9325
51.4911
49.4656
22.2362
25.5193
8.75
-13.8215
-8.49288
-1.96468
41.7115
56.4289
48.0119
20.2126
-8.34844
21.5036
39.1208
20.1159
32.3076
28.1674
-7.39251
-39.7104
-83.9932
-96.1721
-87.1494
-67.1808
-43.9029
4.16152
3.68549
29.7056
12.7753
-5.61738
-2.50729
-4.79144
-13.689
2.31045
11.0715
31.5688
18.3948
-9.93221
-26.8354
-7.04056
18.1004
32.8813
6.15892
-17.123
-20.1254
-1.86738
24.5708
-21.2421
2.23263
52.4404
32.8382
42.0228
44.9708
12.1853
6.51188
-11.0458
-2.72362
46.7422
50.6429
42.2105
10.9347
-15.8573
-39.6271
-53.1743
-56.3006
-40.5056
-21.0179
3.8876
-12.5061
-40.6015
-45.8345
-37.5854
-17.285
-26.7771
-35.6262
5.85414
48.882
11.5686
13.6987
8.4589
5.17373
-0.655746
26.5327
28.939
16.9518
22.9642
12.6665
10.8375
-5.72363
-19.569
-3.63481
18.0961
11.974
43.0813
33.793
8.4896
-31.7061
-34.1794
-25.0138
-27.2657
-43.282
9.62534
31.5645
44.3057
44.8481
-2.32953
-17.9242
1.65204
-5.61649
8.87342
-0.725102
-15.1845
-29.4329
-62.0061
-60.9565
-28.0815
-23.1382
-30.2976
16.4919
58.6653
57.1669
23.8418
11.2759
20.6082
8.68985
-37.8895
-41.422
11.2333
51.3951
19.1076
18.0174
20.4846
30.6951
34.5228
28.6274
42.4334
34.573
32.7723
-16.7085
-57.2796
-52.3049
-108.401
-115.094
-32.8697
-13.8635
-20.0196
-3.12504
1.23191
-14.3686
5.28511
50.4881
58.9205
49.267
40.8743
34.3418
0.607082
-13.2245
-14.4796
-21.0565
19.1726
27.4522
37.3451
23.6652
-26.3134
-20.4367
15.8248
22.4893
-22.2366
-12.5519
-4.76384
-42.004
-55.1542
-35.5005
-27.6001
-23.692
-47.7406
-41.0807
-17.2239
49.4671
23.4721
21.3857
40.1624
49.3514
25.928
29.4246
21.8314
27.5511
10.5152
-19.8912
-28.579
-23.6769
-13.1172
-23.8283
-7.01006
41.0165
39.5366
22.8129
18.8186
-8.46704
-24.2081
-62.1094
-52.2952
34.7945
39.425
26.8991
21.4623
2.1158
-11.448
-44.7228
-41.336
2.08191
2.47792
27.238
28.0756
0.455994
-1.13058
-18.7508
-49.0473
-51.9933
1.45024
23.801
37.7578
6.6161
6.96346
9.44366
5.7768
-14.027
-4.0243
32.5735
32.8824
-2.69074
12.7266
32.4136
20.7415
-8.84968
-24.0072
-5.61436
-6.04916
-15.7307
-37.3982
-31.9399
-27.2875
-42.8171
-37.7731
12.0181
38.6286
31.5382
32.4333
15.4949
-4.20037
-4.04523
-20.0226
-47.9942
-27.8935
15.8711
12.9765
13.4265
29.886
4.3479
-3.46833
2.69965
46.3472
50.607
35.2879
-0.582582
-43.0085
-57.4202
-34.6801
-11.2071
14.641
41.9621
39.6328
22.2679
-9.11611
-29.0381
-5.59096
-2.06835
-15.3024
18.3711
47.5024
35.4244
-11.8354
-32.9828
-36.8324
-53.1458
-49.3777
7.09751
15.8895
25.7239
25.6341
4.85758
-12.9201
-24.2139
-10.6947
2.26006
-25.9693
-28.1795
3.66023
14.5486
4.19794
-4.12082
-17.8215
25.5266
30.503
15.9335
16.9129
5.20888
-1.99222
-14.692
-13.7963
24.7792
13.1778
1.44486
0.963982
-8.32534
9.81535
0.919004
-12.3678
-16.2103
-12.5668
21.2383
51.5929
41.3848
18.3148
0.992843
4.0211
-12.343
-44.6292
-15.804
32.3684
-13.5819
-20.4841
-5.73063
-10.1318
-23.694
-37.4279
-35.4163
11.5225
15.9593
-9.10567
-12.1413
-10.8003
-22.8252
-15.8219
-16.8027
12.2614
12.9493
12.624
-12.0482
-7.12635
26.2961
30.7345
-1.72658
15.1834
44.2256
57.1351
55.567
25.2029
-3.90395
-25.4704
-36.4274
-13.2723
-31.6399
-28.1085
7.12966
17.1106
24.9939
30.7489
-1.47424
-37.3876
-3.04306
-4.08327
-13.9241
-37.0679
-26.5061
-2.92836
-2.33172
-21.9235
-21.6744
9.1251
24.8272
8.10866
20.6125
31.234
16.8373
-29.7547
-20.3208
8.85558
29.6823
13.2023
-24.7268
-8.2306
32.9128
5.16924
10.7922
-0.185142
5.38999
12.5843
12.1042
3.95796
-12.1167
-42.9995
0.952845
6.22644
0.0312925
10.2332
13.4551
9.23149
-23.46
-54.9185
-17.0328
5.18593
4.92327
31.2911
14.7043
-0.184431
-17.9101
-22.3946
-42.8916
-38.9207
14.0851
18.7877
-0.908749
4.43848
5.72781
-0.664307
-11.7129
-22.564
-1.34127
51.3855
24.2727
10.8487
8.95967
3.39249
-11.6241
2.40569
6.322
11.382
51.067
42.3118
8.01043
-1.25705
-22.6952
-14.8432
-2.60721
-4.5737
20.8386
21.8408
26.6807
3.27487
-31.0407
-39.268
-41.5952
-55.0563
-46.8982
-26.9167
-15.5772
-26.0287
-32.0824
-7.53914
8.24415
26.2169
42.7677
32.5845
33.6152
45.0854
16.7433
1.10671
3.0751
-31.5252
-45.5708
27.1649
46.7873
40.861
22.0384
13.5657
23.786
39.8303
13.4439
0.255085
11.2591
-14.7664
-49.1038
-45.7017
-37.5011
-35.3548
-45.2806
-9.21693
-1.86503
4.70023
8.66712
-23.6755
-15.9099
6.79826
-13.4136
5.32824
16.1718
-7.58132
-11.14
-0.0757505
-4.40574
8.30885
12.7829
-13.8583
-11.2098
31.3199
51.8015
32.2514
25.389
15.7672
2.31832
-34.9028
-56.76
2.00494
16.0567
3.41447
-4.99589
3.86863
10.5936
12.9386
0.689714
-28.6632
-15.8934
52.8056
38.0764
8.393
-0.907574
-6.69187
-4.04568
6.48161
-9.51744
2.75047
-2.91381
-34.8628
-16.7535
-38.9724
-47.1411
-14.0211
-9.21177
9.2145
39.5953
48.7967
25.8
0.568616
4.81045
-9.18479
-37.6315
-23.8094
-6.99273
-7.11519
17.4881
21.7914
26.0221
6.069
-4.28713
36.4934
39.0522
19.7244
14.5758
-21.7952
-28.393
-21.1085
-23.6875
-28.4291
-25.935
-2.25405
-5.11328
-5.82182
-18.0433
-3.52545
27.1135
26.3594
-1.15933
5.04066
32.436
11.5447
-39.4609
-38.422
-12.2721
-3.58083
-1.29118
-1.73029
38.5203
25.4959
11.9041
-11.0921
-12.6896
-3.91417
-33.6262
-19.8668
45.815
17.5181
12.3703
-0.799866
-33.152
-22.083
0.259292
-4.73491
14.0792
22.1717
28.9826
42.437
15.853
20.4416
0.398883
-13.6109
-16.9454
-21.0292
-8.08301
-12.3281
-35.0112
-17.6598
-26.0111
-35.2009
43.2691
46.6883
46.071
54.653
7.94183
-14.8076
-3.78922
-28.1424
-33.5237
-24.0674
-22.2955
-18.2335
-4.59168
8.08293
12.7272
1.84374
-48.8808
-33.5431
8.79799
19.0825
6.45337
24.2424
21.8229
5.13467
-6.14498
-8.14386
19.0951
21.4977
-5.19377
-15.2418
-0.385172
-4.1488
-15.1242
-18.6344
19.9477
21.1374
36.3701
44.182
24.9564
16.4437
-15.5992
-44.0709
-28.8802
-23.7323
3.1397
14.9882
-5.26679
-3.96482
-31.619
-38.1833
1.046
11.1731
24.0676
19.8574
-13.5745
-10.3635
-4.89539
-10.4517
-22.8815
8.45068
28.545
32.3346
20.6989
18.1283
1.19337
3.48144
-8.55978
-21.1698
12.4896
20.8381
-1.44541
-10.0877
-12.3123
-10.0485
-18.7485
-36.4969
10.518
20.8854
14.1924
-6.8148
-28.6201
-7.71858
-6.14547
-7.67528
-2.92353
11.4745
9.28473
14.9071
2.42314
-0.928039
-6.12464
9.87582
16.8721
4.24303
16.8498
58.3599
15.601
-13.8129
-27.5235
-27.2856
-20.8526
-19.5294
-46.0154
-1.63517
26.7595
-2.36388
-19.746
-5.98952
13.8318
15.9506
15.8355
-16.0614
-17.1661
51.4169
37.6009
13.553
4.4822
-2.27378
6.79059
6.12916
-19.0121
-7.33682
6.09415
-7.17555
-22.6695
-16.4749
-17.3358
-23.5217
-34.2929
2.64296
3.72604
6.17144
3.63975
-9.38454
0.104104
-6.99047
-11.517
28.5254
34.3074
32.1644
20.547
12.975
23.1359
-12.8826
-26.6958
-3.44526
-20.6341
-12.0898
-1.54948
-6.65463
1.05507
8.64355
5.81075
10.0433
16.9895
12.0914
-2.95054
-17.2644
-11.2987
-28.8504
-15.015
-25.9055
-20.503
20.9043
19.0599
3.92134
24.1344
23.9871
18.2621
-11.3682
-52.4959
6.2123
46.8365
12.0821
3.49792
6.30569
3.38834
-8.92086
-2.9913
-6.51138
-16.882
-0.0255404
6.13121
-4.26374
-2.96385
-4.55545
-14.4691
-33.2546
-14.8539
18.3042
36.2083
9.08331
-12.0967
-17.2651
-20.2703
-24.7196
-19.8161
9.98216
15.2685
31.5692
35.1785
23.313
15.5808
5.23968
-11.1391
-27.1596
32.5367
43.0953
18.2504
-3.49492
0.198852
-21.0886
-39.5905
-54.7813
-41.8916
8.80829
14.4998
-3.70215
-4.78155
-0.0444648
0.12883
-11.6968
-20.8393
2.7875
13.2985
29.8488
14.8877
14.8853
8.41209
-13.4435
0.0264569
40.2417
26.831
28.9167
22.1368
2.29818
-4.66662
-45.8992
-27.8634
-16.2111
-38.8178
-31.8977
-2.22673
1.57858
9.96549
5.30787
-4.49673
12.3256
14.7148
15.3927
9.05207
-16.3237
-17.542
-7.34779
-15.4233
-13.7837
19.6569
34.4771
16.1111
4.43245
21.5664
20.6969
-1.27614
-39.1882
-37.6795
3.33445
10.9031
7.88051
-3.69666
-13.6755
1.82117
-2.61723
-2.87963
-16.629
10.6259
-9.24072
-22.398
1.78318
12.5887
13.7354
6.66376
5.96261
32.3615
27.5388
20.7673
-0.123916
-9.53891
-22.0955
-44.7644
-49.5159
15.5035
36.2505
31.6406
25.6868
3.48551
3.64312
-9.1301
-22.3134
-1.321
6.80911
23.7324
16.6495
-4.51237
5.44984
-11.9236
-44.7099
-53.5175
-15.1812
16.3388
32.2243
-8.44182
-24.5357
-24.6702
-39.2372
-44.9807
-9.77172
21.2619
23.8038
22.6128
40.9323
46.3177
36.6902
-1.37952
-3.73774
3.97873
18.6845
10.012
-28.4651
-29.4564
-14.9863
-10.5949
16.2839
17.9558
33.6039
39.3219
9.96699
-16.5242
-31.1822
-35.1838
10.8559
7.21411
5.73705
16.3293
5.55783
-9.04492
-11.3658
2.03608
-4.37296
16.4179
22.8123
-12.028
-50.8445
-44.5855
-14.076
16.8878
28.1038
7.27696
36.5381
14.5439
-66.4416
-83.1173
-52.7764
-18.6835
-4.41805
-17.1752
33.1029
68.1315
38.0873
11.2542
-4.44427
-2.68387
10.6471
7.93678
7.74253
7.5683
-3.22648
6.56946
-6.48329
-6.91516
6.05979
14.8716
32.4875
17.0501
12.2616
29.429
1.09559
-22.3289
-4.14176
5.49786
26.6966
21.3317
1.64313
5.39766
-7.4333
-25.6213
-34.6671
-44.1755
-0.8497
-3.45947
0.235986
0.522379
-16.1953
-20.2111
-19.4396
-32.501
-33.2533
0.661351
16.3823
17.2803
6.52763
9.90482
11.0064
-0.141548
-23.5975
-27.4119
22.3508
17.1863
-22.6706
-11.8608
-5.37942
15.876
7.20916
3.66242
47.844
70.0568
44.6676
-0.574314
-5.6008
-3.11366
-18.6429
-19.7659
-24.1444
15.4645
44.1641
29.1152
1.92729
2.57388
1.217
5.8693
-11.1968
-32.6493
13.8905
16.0604
-16.5495
-33.4653
-62.3107
-64.1523
-40.0298
-1.42643
10.9722
1.02259
8.69447
-0.151261
-6.32121
-0.41817
-2.29184
7.17811
22.7865
37.2786
31.89
35.3971
7.59492
7.96355
-0.768155
-1.96836
10.0684
21.8766
-8.23621
-46.3685
-34.0317
-8.1963
2.20656
-19.549
-22.8047
17.6804
7.08084
14.5188
9.72869
-4.59628
1.79986
-11.0572
-15.4093
15.6985
1.42234
5.99012
14.6201
10.6098
18.754
-8.93196
-1.53063
32.8393
19.0453
21.1978
22.9963
-1.91997
-17.8017
-33.1133
-48.4903
-54.4104
-45.8716
-4.1845
10.4913
-4.39029
-2.83003
4.75806
-8.58373
9.17978
53.8465
48.7237
13.6599
-17.1936
-18.671
-29.7166
-17.6107
-6.18878
30.2518
49.8096
33.6416
14.0111
17.6543
8.62741
-13.2809
-25.9991
-21.8329
26.9039
29.3353
2.12437
-29.3002
-43.3998
-32.5145
-24.2057
-26.0987
1.47076
-2.03937
2.58967
-3.96433
-6.05535
4.83733
6.54737
10.9966
28.3532
9.74591
0.135663
-0.418005
7.55238
21.4501
1.51536
-20.9276
16.9313
13.2365
1.57548
8.98296
8.93334
12.794
-7.24002
-25.5687
-42.2338
-48.2365
23.819
26.4057
1.14592
-1.06904
-7.37194
-6.13719
-21.9308
-30.7193
-3.80654
34.6333
27.4732
25.2981
13.3269
0.379303
-7.51048
-18.0038
-5.75338
2.9622
10.3863
19.6613
-8.11877
-4.88957
-4.85024
-7.71526
5.68303
15.1392
10.6338
16.6021
9.42197
-3.71548
-21.6187
-36.5104
6.50329
22.4446
9.36455
3.80933
-5.41547
-3.42382
6.72624
6.89276
-20.8981
-10.722
-10.9347
-19.6032
-13.6084
-3.8251
-15.7563
-23.28
-31.2418
-27.2525
6.76884
46.4089
36.374
13.2452
15.4357
18.7392
1.22316
-0.480214
6.83242
7.39401
22.949
22.0054
8.30423
8.09388
-6.89134
-16.0586
-17.4125
-4.39061
24.727
15.1499
1.46958
-16.5821
-32.2271
-14.0405
-14.3754
-18.7524
11.3265
1.95989
-11.8719
-5.66662
-1.15009
-6.99943
-38.8853
-53.087
7.89143
42.4313
38.1254
34.8898
11.0939
10.9404
19.0993
-12.7708
-16.9507
8.30631
-0.73906
6.30363
-3.37799
-6.42495
5.78971
0.405749
-36.7605
-41.0125
34.3898
68.0125
24.6176
-4.69266
-10.5253
-9.2852
-5.82091
-21.4755
-3.01581
12.5104
-2.7649
-22.0673
-10.8343
-3.56581
-9.15877
-10.6372
-9.18213
17.8892
39.7627
19.7432
-10.7505
-19.2842
-22.3026
-31.0651
-33.0302
-25.1397
1.31348
26.2599
35.4097
49.5357
51.0027
29.6495
-9.08014
-28.3278
-15.238
-36.8369
-45.5913
-34.2406
-16.432
12.0813
10.789
6.02959
51.4903
45.5158
37.9561
23.7832
3.42943
-6.76614
-14.4415
-29.669
-43.0334
-0.932941
26.4635
8.65356
-2.30345
18.9217
27.4002
-2.78524
-27.4427
-2.61211
20.9287
19.052
-8.81315
-22.0059
-27.7298
-23.035
-21.3304
19.2338
-3.56873
-8.34055
-33.3828
-64.3342
-41.2033
-14.1377
-9.62604
29.5401
39.3741
45.9542
40.6598
13.6308
-3.39268
-28.1299
-43.9312
33.2996
40.8593
20.8397
10.5032
5.55567
9.35692
-0.926899
2.09236
40.6673
38.0838
11.9782
-27.4797
-61.7385
-42.5746
-29.5304
-10.5337
-20.4955
0.870839
63.7925
37.2752
-0.0839951
13.9921
35.1571
27.5383
-7.20942
-39.0567
-47.1101
-30.3078
-41.8557
-32.0267
9.6499
29.8558
33.4527
14.0794
-22.7326
-0.90453
21.8667
2.02678
-5.77533
3.13248
-12.5179
-25.469
-39.6587
-19.9607
1.67592
8.58671
28.0898
48.8422
59.7563
49.0589
10.3408
16.477
-4.42867
-73.8708
-84.9876
-47.7287
-20.1973
-9.64841
-4.40209
25.6474
16.306
18.7959
35.4261
23.4391
7.67597
13.1908
13.6433
-14.7174
-27.7065
-3.29902
2.06025
-10.5009
1.80953
46.213
61.4542
11.7193
4.96605
11.6452
-3.51752
-26.5938
-33.7422
-13.2952
-5.90291
-34.5846
7.00028
-0.374844
-17.0419
-10.9666
-14.5305
-20.8968
-10.5857
-6.03264
28.7489
40.4366
38.9472
22.7335
-4.10515
-43.6619
-57.0195
-25.5107
17.7759
15.4472
-2.51511
-7.67069
-47.9434
-41.6882
-6.07534
24.9256
16.5017
26.3739
45.2016
55.4145
32.6962
21.0425
7.5012
-2.45937
-48.591
-49.4097
9.761
25.0695
14.8952
5.40416
7.51331
14.6741
-6.41729
-21.2975
-20.346
12.4435
-3.49969
-27.198
-26.5975
-26.7701
-23.1234
-22.6465
15.096
35.2019
44.4955
57.0819
39.5791
9.32421
-22.7318
-41.5771
-1.17291
-3.05879
-10.1302
-1.37611
8.37311
-13.7451
-17.228
-15.2963
15.5346
13.7429
-2.42827
12.844
-0.184464
-27.9774
-10.5788
-9.80879
-11.9102
-24.651
-19.7719
4.07402
-1.74985
14.7239
28.6028
38.0419
24.0485
18.8092
20.375
4.1439
-28.6857
-32.7417
-22.8447
-9.81192
-17.4572
0.132147
55.4553
45.4466
16.6703
0.715907
-21.2443
-37.5155
-45.4194
-33.8245
4.18391
31.2477
18.0693
-9.77119
-10.426
-6.71111
1.38504
11.0797
11.3615
15.8881
4.06343
-4.05547
-16.4999
-16.2032
-22.7953
-21.9129
-2.01491
49.7432
49.6974
53.1212
25.5434
9.01393
8.91295
-35.0553
-48.0912
-11.6147
-17.0457
-20.5304
-16.6215
-18.5011
1.35111
14.8402
-8.68251
-7.11308
48.6765
53.4019
29.9078
-10.3481
-14.2927
-12.5105
-10.231
-35.4558
-12.6572
39.939
-8.80755
-50.0625
-44.1356
-15.7664
15.3041
5.32369
19.2388
17.0511
3.35621
19.5832
2.33299
7.12853
2.58036
-11.1797
13.1435
-4.92143
-16.5577
-1.81574
-7.13806
-14.7933
13.3488
1.43896
63.1763
48.7405
12.642
12.401
-2.47
-18.0253
-29.7022
-53.3667
-10.4827
-12.4385
-8.11876
5.07027
-8.53086
-8.8326
-15.6767
-5.89053
-28.8189
-8.1437
42.8126
48.3719
9.11392
6.90699
0.889549
-5.66138
-3.94853
-7.41872
-18.1336
26.7305
0.274671
9.61538
18.4466
-0.711706
-21.7927
-21.432
-18.0672
-10.3073
30.1796
22.7413
4.90301
14.6813
-2.78852
-13.6193
-18.4282
-25.3029
19.3178
12.0084
13.7419
7.39544
-5.63146
-5.11085
-6.18212
-6.5712
27.0184
20.4781
16.8176
13.4964
-5.86828
-19.1863
-27.5247
-37.54
-49.3745
-38.4051
4.5347
4.84716
-6.08727
16.2732
33.1866
28.8491
13.6924
-9.43497
0.40553
-4.32596
-22.4866
-7.42906
2.7669
23.7759
16.2106
5.49114
43.0871
43.1869
17.1147
-26.5482
-25.9471
-7.17208
-41.9246
-32.2606
6.62334
10.2244
3.90516
10.1233
8.70674
1.40563
-15.8951
13.5917
11.854
-6.58793
-0.668204
3.95004
-18.747
-18.8747
-7.89356
27.8081
2.40748
3.19823
8.28648
2.77911
-15.1784
-9.97821
-12.4594
-9.99819
5.48146
36.7694
16.7284
-12.6957
-9.69065
-8.06662
-0.877721
7.11442
-11.0389
-21.692
26.5432
-7.60869
-29.9091
-11.6386
7.3044
10.7725
13.4459
3.90557
-19.7033
16.7248
14.8025
-7.74111
-9.05257
-7.48138
-20.3279
-37.6776
-31.269
31.6704
52.9865
57.9092
20.9603
20.3182
12.6903
-14.7442
-26.6089
3.84136
-5.61893
-20.6208
0.962139
1.45055
2.53159
3.09138
4.86232
11.3503
9.84354
30.7403
19.2335
-24.7524
-29.4892
-29.6324
-46.0767
-5.86603
49.9744
42.9009
28.2821
-7.84956
-16.0227
-22.1261
-35.3051
-42.3056
-45.2226
18.7966
30.1635
12.0575
12.1084
1.29817
-16.8843
-23.991
-18.9816
11.0927
10.1895
-11.3312
-36.1072
-30.1252
-11.8909
-8.50568
-15.8686
11.1165
55.1912
71.5804
63.0732
20.9011
5.32753
6.75357
-13.3139
-32.4591
-1.38245
5.67217
-0.502355
2.85495
17.2047
20.665
9.9285
-3.17183
1.73256
14.1667
11.8833
7.1269
-14.6089
-39.6922
-34.9544
-44.6871
-37.787
1.28131
25.8391
48.7718
22.2532
-9.59508
-19.2555
-29.7144
-20.2222
-34.5943
-17.1204
24.7044
25.2534
11.9862
20.4767
6.8534
-14.1495
-35.3431
7.00364
5.70267
10.4944
-10.3973
-4.51905
2.55412
0.192654
-29.4807
17.8502
52.1353
30.2783
33.3852
15.9018
-7.00009
-19.7984
-33.0894
-3.18624
7.07526
16.5926
26.4839
-0.157033
1.12164
4.52936
-20.3226
-11.6994
-19.6319
-13.4717
0.951724
-18.4128
-35.2337
-37.5711
-39.569
-14.7218
20.9016
36.0468
16.7854
-2.20983
14.5151
21.2433
24.013
6.66254
-16.4918
18.4903
39.221
16.9994
3.33761
0.264218
-2.12899
-22.7003
-32.6916
-24.9575
19.5861
35.8739
16.5103
3.04187
4.90206
-4.44469
-30.4507
-36.2988
23.3316
23.8317
25.5169
5.60784
-10.3693
-22.6762
-36.5057
-49.3749
-4.89498
17.8793
21.366
28.76
11.1184
-27.0698
-39.5801
-42.8436
4.69973
12.8798
11.4105
10.0851
-22.1113
-17.1055
-4.59374
-27.7594
-10.8876
48.0592
78.731
59.4706
22.3973
-5.61851
-5.41345
6.23099
3.44802
-5.56747
5.50602
-3.47837
-9.75902
-2.3823
2.98616
-6.44695
-34.9143
-23.4006
2.74808
18.1772
4.11128
-9.98303
-8.45198
4.25213
-26.2335
-30.2868
-3.17379
-2.68191
-4.39183
-2.49724
-7.24452
12.5428
-13.0383
-20.5377
21.412
25.7662
28.3074
16.2179
-1.69979
4.58749
6.156
-29.8332
-12.4012
26.5498
39.6137
28.5741
-11.9373
-6.59905
2.8361
2.92282
-24.4877
-16.8811
45.4938
22.469
-10.4776
-16.0776
-20.1654
-18.777
-33.283
-48.2049
-13.0858
25.5144
5.87539
1.73451
17.9791
26.238
21.1073
-4.20983
-29.9054
15.3784
28.2113
15.9373
-22.2127
-23.5981
-26.3464
-17.3657
-19.7504
32.655
32.2909
25.9431
7.63865
-7.74877
-7.93138
-24.8545
-23.9035
15.2005
11.8308
14.5798
15.3945
-9.74423
0.908746
-7.73658
-26.1757
17.9739
20.0583
16.681
17.8845
-18.0968
-31.5508
-28.9126
-38.3378
-23.8522
-1.476
6.84494
10.9902
2.26298
12.4775
18.2763
15.7586
-0.395188
26.0136
29.9212
16.7215
5.05696
12.2217
13.3795
-6.82303
-38.3184
-3.24971
1.28322
-14.0177
-18.6078
-21.3453
-9.44439
-3.96927
4.27251
20.341
24.938
31.1887
3.59692
-17.0889
-12.9866
-10.5112
-12.4698
-16.3458
-12.1421
23.3898
9.60952
-6.01235
0.208475
10.7777
26.7371
13.2107
-2.90461
16.1687
-18.6014
-56.7009
-63.9573
-32.5434
-3.17846
-6.32659
-29.9758
2.28629
42.8686
53.5071
38.2629
18.718
10.4706
15.083
34.3612
11.2867
8.68096
14.8541
4.27154
-7.09933
-10.1199
-9.81749
-16.2757
-39.7958
-14.9574
-2.64912
-4.35253
-24.2245
-56.3596
-28.0375
5.55684
-7.59742
15.9997
59.2301
33.1955
16.3052
-9.87273
-19.2735
-5.3199
-11.7326
7.17039
25.3684
36.0329
28.4638
-0.811951
-16.5954
-5.15698
-4.05313
-0.917648
-11.3339
-19.4311
-4.11046
-0.258431
-20.6063
-8.27527
-0.189776
-23.9846
-8.52176
-1.25773
29.5077
37.8487
43.4863
29.46
11.1147
-19.6899
-38.7701
-55.0775
-5.2348
22.6977
6.34707
5.56342
27.3779
29.9683
-6.79362
-29.8686
-51.9441
-22.5793
-9.59651
-0.897327
-10.2508
-22.7458
-19.9832
-11.0907
-3.41061
42.2489
48.0041
63.2003
35.8879
4.55092
-13.6698
-35.7891
-30.2632
12.329
9.88741
28.1294
52.209
15.3519
-21.5618
-43.8095
-52.1146
-5.32306
-8.00808
10.4669
28.7197
18.4994
12.6513
5.87319
-6.07238
-41.8979
-46.1439
17.7893
-2.74269
-31.6531
-18.328
-8.55041
22.8399
41.1859
19.1841
37.665
58.7543
10.3645
0.245726
-21.3572
-39.3303
-45.3108
-56.4495
15.8269
21.4324
11.5099
-0.0497092
-33.1757
-21.9694
-31.5262
-28.6964
8.61164
23.2613
32.3831
43.5623
45.2848
23.1031
-17.8639
-38.4125
-24.168
-5.40506
2.18777
9.21549
-15.6333
-15.9035
-1.25697
27.3383
59.9491
29.8536
20.8629
27.1024
3.64476
-8.81124
-11.514
-19.7599
-19.6419
-7.32116
5.01683
6.71034
-3.78326
-4.60224
1.06404
15.528
-24.811
-40.1635
4.81886
-1.89106
-14.8473
-0.0256381
-0.30218
-5.72274
-24.7886
-31.9352
-27.1444
7.58233
14.3252
1.12548
-0.811981
0.844789
9.72562
-0.843421
-23.6329
-20.2206
-4.24128
27.3619
23.149
24.6095
14.9169
8.12469
21.6107
36.9752
27.8356
16.5905
-1.22132
-10.0631
-13.96
-21.5798
-9.01103
42.3622
21.277
11.8221
0.761206
-5.02848
10.1633
-3.41421
-58.1737
-41.8018
-62.0323
-9.37052
10.2365
0.0081655
9.75936
10.1041
-7.32088
-15.8045
-20.9025
9.42489
34.4465
-2.20183
-5.72672
4.9376
27.6197
34.6209
11.6885
28.1069
36.7777
13.2767
10.4708
-26.6853
-58.0932
-61.2241
-75.036
-21.8225
43.4848
29.9788
22.5874
8.96451
-16.1614
-21.091
-10.4334
-6.27474
20.3116
30.6357
20.2762
-9.87569
-12.0331
-19.7833
-16.7072
-14.6061
7.27655
50.7155
55.5863
23.4122
-0.586499
10.0947
14.5012
-7.74781
-11.2316
-19.0948
10.7191
5.65656
-28.1055
-39.4716
-21.8507
-12.8046
-14.0082
-7.13895
40.6498
39.7029
20.7266
-8.42556
-9.00863
-5.99519
-7.28345
-21.922
-5.18611
-11.8352
-12.3157
8.5845
-13.1527
-25.0506
-19.6179
-21.556
7.85703
8.94598
28.6314
41.3105
18.0238
18.6499
-0.896586
-38.3348
8.03359
14.1757
-6.95605
4.93702
-9.297
9.02314
33.0966
22.4773
25.949
39.1433
-3.60536
-42.5705
-58.3018
-44.8833
-23.9717
-5.71316
-15.5965
14.5133
44.7745
55.7338
23.3114
-5.95972
-17.3902
-21.0041
-45.9594
-46.4417
-4.08523
33.1657
21.9869
15.8396
31.2635
47.5649
24.6453
-2.78279
-17.6374
-5.95941
-24.6915
-36.2099
-29.6866
-12.15
-7.87467
-17.5165
-11.9815
18.1211
23.3822
13.2335
-17.2311
-45.2553
-35.1993
-40.0643
2.97637
52.3985
46.2847
44.8832
46.3715
21.5712
11.6574
-8.24115
-26.96
8.7096
3.15705
13.7074
18.6572
-1.03202
0.801432
7.80788
-12.5006
-33.3389
-34.2124
-13.3293
2.03727
-6.03808
-12.028
-17.7829
-22.0447
-28.1015
14.2555
24.0642
21.2115
5.0658
-5.8725
-6.05693
-7.16021
-17.6955
29.9797
21.7736
15.0762
23.56
16.1146
5.72848
-22.3488
-31.7014
7.33835
-5.54648
7.4272
20.405
11.1659
10.4554
-14.0219
-31.4647
-1.26466
-28.5712
-37.5181
-15.3932
-8.09316
9.38893
6.40371
-23.0714
3.74208
57.3771
42.6239
27.0128
9.96605
16.6097
2.53627
-20.4089
-30.5295
-43.4736
37.5318
31.2056
11.7538
27.1045
12.1628
1.51209
-16.2869
-27.0322
-26.5147
-10.1908
1.80594
-11.9057
-2.61441
-12.8611
-24.7566
-9.04422
0.47468
-2.06181
4.71105
0.915548
-12.1064
-3.39083
6.24573
14.2318
17.2581
18.2991
16.9938
2.64451
-3.18834
-0.517832
-17.6553
-30.4287
-46.5659
-1.48901
35.8409
18.8823
4.27094
6.0095
5.43639
14.7544
-5.94735
-24.045
0.934886
29.3543
31.9191
25.8183
8.39043
13.7983
13.506
12.5332
-33.0589
-23.6536
4.77407
-13.1409
-27.2465
-14.88
-10.8677
-11.7758
-36.2032
-12.4121
5.37928
9.87647
-17.6552
-16.4353
8.92464
3.02947
-20.0046
14.1454
23.7574
23.6248
31.5456
17.9784
12.0438
10.6494
-12.2093
-5.38643
22.428
21.4524
25.6462
17.2561
-3.25889
-12.6315
-25.3757
-34.5061
-18.3772
16.1134
18.8647
-3.13967
-30.4459
-25.8727
-1.8036
-19.3119
-49.3499
-40.5112
22.5876
11.6019
-1.53144
1.94469
9.77099
19.9712
17.1173
17.8921
7.86057
32.0247
24.1251
4.15156
1.83453
-17.9926
-3.21178
1.04142
2.88848
28.2685
38.0661
25.0825
-12.3076
-17.8524
-38.4875
-61.068
-40.6053
4.28151
11.151
17.4928
19.6795
1.66194
-1.75822
-19.7172
-2.81169
-14.3339
-30.8648
-24.9228
-26.1804
-22.8983
5.49482
-1.74411
6.2131
67.8801
52.3769
53.8177
34.1877
3.10653
9.55749
-7.68196
-40.3964
-19.8431
6.44651
6.25589
4.69666
-5.89639
-17.7259
-0.942641
10.1514
-9.45631
4.83996
30.1309
-2.78493
-38.9146
-15.0307
6.59959
9.78904
-11.8306
-48.5022
-15.7595
44.1284
9.41897
-14.3234
-4.65258
-11.6507
6.71492
30.1545
19.3436
20.5257
9.84777
-29.3672
-26.9358
-11.4086
-11.7138
-12.6376
-15.4194
-4.41515
6.9834
-0.862008
4.3234
11.332
11.7101
2.69123
-13.6341
-9.1625
32.6439
34.3992
28.6948
9.17039
6.07052
12.3921
-21.2433
-20.4503
28.6476
24.1083
14.916
-13.2864
-26.1912
-1.00357
-6.76352
-24.5855
3.89815
11.5624
11.2782
-2.57228
-27.0438
-11.9696
-13.0697
-26.409
-7.67254
-15.2141
-4.54521
-4.40323
-30.7958
-11.687
-13.1243
-3.49634
12.1714
6.36032
16.0131
12.4357
-13.6324
-2.25244
3.23046
24.0647
34.8926
29.1565
24.786
21.4093
-1.6695
11.7436
22.3704
27.8033
16.1013
5.77853
17.304
11.4055
-11.621
-3.7979
-15.1729
-21.4461
-10.7867
-5.03375
2.7565
-25.4147
-71.5208
-98.3516
-67.4051
-22.2007
-9.27027
13.3585
45.901
23.9494
-1.17455
4.27914
15.9125
18.6238
-0.365277
1.74177
45.5459
29.9564
9.05585
13.6304
19.2636
21.8158
11.3494
18.8667
34.414
4.20183
1.636
0.405022
-13.821
-12.9209
-35.4367
-54.7504
-54.7935
-41.564
-14.265
-5.28532
-18.7648
2.01959
-7.87177
-12.1177
44.1471
38.9204
54.0223
39.6686
-8.39185
15.6049
25.5179
-5.82026
-12.0292
-15.7387
-8.47329
-0.844683
2.44747
8.31331
5.63455
3.8885
-2.9038
6.12955
3.00364
-8.9011
-56.8645
-62.5094
-23.5951
-4.58079
-2.37714
24.476
22.6418
17.1887
3.03875
6.03182
14.5098
7.23367
9.46816
36.5856
23.5671
13.8112
-16.9675
-35.2071
-6.963
-13.1723
-9.18577
31.5946
36.0738
26.3828
2.71177
-39.4509
-46.9114
-23.0985
-31.2026
-9.18428
12.0027
-1.42046
-5.98751
-27.9519
-14.9551
2.71543
19.1482
20.5571
6.85887
44.3352
5.45339
-20.6254
-6.96692
28.2725
47.6766
22.269
-20.9581
-35.6261
0.928095
-9.08943
-13.5015
9.87169
22.4337
9.674
-11.0674
5.06495
8.75668
-24.7185
-24.3223
-19.9741
13.8266
9.49984
-15.9228
-2.22878
19.531
3.51393
17.1929
7.1972
-17.1761
-5.37861
-10.1918
11.8611
16.0307
12.7876
20.1968
0.579945
-21.1325
-1.92057
-18.7064
10.2836
15.5811
16.8557
1.32661
-8.95148
-22.3916
-15.7176
-9.0269
-33.6946
-56.1758
-7.56123
17.6785
18.3151
1.61038
-2.7044
12.9871
14.8195
10.482
24.2793
55.6093
10.4775
-14.265
-20.5156
-28.6033
-51.0457
-84.4448
-73.3053
21.3344
110.824
101.444
43.9968
14.1309
-5.41663
-11.9533
-15.8808
-34.0403
0.936367
16.8248
2.52669
-5.70287
-20.764
-11.5152
-12.6891
-5.93057
20.4244
51.4584
49.7418
-0.231404
-36.7838
-23.485
-16.8603
-19.8863
-20.8394
-0.604651
17.7666
11.5504
-15.6384
-23.1193
0.319633
3.69229
-31.8205
-16.4307
26.3213
6.87384
1.07816
18.6231
21.8963
7.94329
-4.41941
-8.37917
12.3381
10.5265
4.34253
0.484623
-4.86588
-4.32074
-23.527
-42.2339
-17.4468
7.1507
16.1659
10.8716
1.22115
-1.72711
-12.2268
-0.031432
20.0011
-8.37746
-2.62495
21.4522
3.82582
1.157
-7.69717
-6.97002
7.5112
5.71039
10.2917
32.6291
23.4856
10.0754
5.98762
-12.1185
2.45247
37.79
19.8843
-10.5292
-14.6886
0.571911
-6.55575
-24.8868
-37.1293
-3.48664
2.25646
-4.46266
-14.9666
-5.19715
-6.19405
-37.9214
-57.5882
-56.8666
32.9759
44.0565
9.85894
-18.8864
-2.8065
20.1383
26.4986
16.3421
15.3129
36.6349
9.17126
-18.1028
-9.10975
-22.982
-40.3892
-21.967
16.9135
59.5068
41.0255
16.179
-31.0572
-28.7612
-16.2487
-9.00673
35.1568
14.3287
-0.415204
4.51408
-0.66359
-14.6901
-33.5971
-59.1569
12.5468
55.4521
48.299
38.8931
18.4542
8.91164
17.7087
2.85932
-27.6993
2.73803
-10.6523
-10.7312
-39.4463
-36.9791
-28.3164
-19.9287
-20.2373
11.4121
31.2569
41.7469
5.83763
-10.5961
-3.15572
-6.38938
-18.1084
0.503241
1.40787
-3.00894
-0.0470915
-20.9075
-22.6566
-12.1701
-5.48395
26.0848
24.7198
21.7474
22.6311
-2.71038
10.7904
21.4544
-33.4627
-37.711
-8.45676
-11.7012
6.99972
0.750503
8.50804
12.0048
23.7943
-14.4892
-13.3672
52.3925
39.9005
12.4835
6.10932
5.07741
8.3895
-1.24698
-14.0469
-32.1625
4.66433
3.02583
-20.1028
-33.91
-28.1406
-9.48071
-7.81865
-3.62779
-18.3676
28.0222
31.1733
5.09462
2.78532
-3.98009
-8.35821
-21.4075
-15.553
1.02888
9.84396
28.3732
27.4925
16.781
-4.84432
-49.475
-25.4064
-8.31604
-3.38938
13.5854
26.813
16.9228
10.9069
-11.0044
16.7295
-3.53939
-24.2638
-25.0085
-16.2658
-4.05012
0.794468
13.5105
-1.23794
27.0892
23.3453
48.0783
13.0908
-23.665
-15.0389
-14.999
-7.51372
11.0325
16.0803
15.7512
-11.1387
-9.87883
2.75072
2.51581
-10.3946
7.48571
-0.237059
-9.85156
-10.2678
-27.3154
-7.62731
4.32197
-33.7294
-23.2085
20.0148
49.4911
32.4664
2.42962
-0.130837
-11.1854
-15.697
-8.92326
8.26264
16.5262
0.22643
-38.7493
-23.9396
-11.5911
-12.1525
-27.6635
10.1459
27.9825
39.3653
38.0887
18.3668
3.77403
-27.7429
-43.8315
-17.2574
6.00202
-12.7917
-13.3691
-2.4469
-3.26054
-1.14739
-1.23352
1.37104
32.5749
51.2418
46.1103
38.1344
28.426
4.83703
-24.9694
-44.6423
-16.8381
9.90155
12.0892
2.55177
-7.72181
5.03175
-6.94822
-37.8823
10.5605
40.9248
15.3325
-2.00869
-29.9393
-36.8474
-33.1403
-48.4587
-8.97455
4.20054
18.6016
18.0888
-3.87423
-0.327134
-9.38037
-21.2544
23.0645
12.8755
16.7343
9.9905
-16.5151
-14.3689
-13.5515
-22.5094
-7.80972
-5.92516
-18.2978
-12.2326
6.71378
35.5034
33.7095
28.5805
8.30235
4.47672
43.6455
33.5208
-9.07143
-13.412
-4.17163
4.55408
-12.9753
-30.4666
-12.3146
41.5625
36.2981
10.4336
11.5281
1.78614
-26.0545
-33.0157
-55.5983
-25.5132
3.66369
3.43898
-2.48683
8.6018
0.0652389
6.75942
0.275195
21.3358
36.3718
26.5425
11.9533
-15.6328
-33.7214
-26.9658
-36.5378
-16.0916
4.41785
11.4109
17.8608
0.557032
-0.45315
-7.67821
-40.538
13.9723
5.60158
-8.21126
5.51899
11.4044
8.36483
10.955
6.44906
-22.9305
-39.8656
14.1188
40.8242
24.524
7.37067
4.55353
12.235
-1.43295
-28.4423
0.440289
23.0794
-9.02377
-3.65768
14.0961
16.8128
-7.94241
-42.8375
8.64743
28.6183
20.3861
13.2945
-18.8396
-5.10312
-2.48953
-17.2448
6.44951
13.3619
6.07878
8.49152
-0.038575
-11.274
-34.1504
-54.9078
-15.3707
26.8505
23.9134
17.8378
-17.0166
-22.17
-20.091
-15.5927
-12.0573
-5.98152
8.84183
23.6291
7.92959
8.80588
11.6447
16.3551
12.9199
-2.34354
-10.6145
10.8679
4.20188
-15.9119
-6.0276
3.67846
-6.94765
-6.69628
6.56798
5.5897
36.7765
31.6121
12.9101
-0.696373
-7.62909
-2.30966
-3.87592
-8.29747
16.7008
17.9068
15.2406
1.00515
-30.709
-29.4228
-47.6649
-29.2373
13.4859
-8.7643
-11.5742
14.3492
-1.91122
-10.1027
-23.7212
-2.32839
6.801
7.98785
19.2873
28.313
19.5335
24.5952
-2.46048
-37.7499
-6.62155
-27.0307
-24.7274
0.128288
0.109912
14.5837
24.6514
17.1045
-17.3104
-8.51364
35.9271
41.4294
14.6054
9.4374
8.29614
-4.07152
-33.7421
-47.5059
-1.28757
30.5309
9.69044
7.24576
8.14572
-1.93431
-11.3537
-37.6177
-6.22402
24.0715
41.7138
18.4382
-7.12946
-30.9562
-31.4972
-29.3219
-47.2679
-43.6034
22.7611
33.5015
7.9364
12.0203
18.3789
13.48
7.01271
-4.21754
14.7719
33.7831
8.8809
-13.5804
-23.9288
-18.0336
-10.5325
-20.2982
-39.1221
11.0089
42.6116
27.73
-1.04745
-2.15047
-0.245198
8.4396
-10.806
-36.7237
18.1032
48.8131
14.6077
17.5533
-0.825229
-26.5497
-28.4164
-27.1204
-21.1299
21.2459
37.666
8.53013
2.24094
0.916239
-43.553
-61.3436
-22.1824
19.1801
26.6393
36.1751
25.819
27.969
11.9587
-7.08407
4.91745
12.2745
-2.82935
0.696587
-0.780517
-12.8721
-5.90001
-33.1728
-23.3265
-1.44999
1.7649
9.47646
3.29629
-10.9508
1.43312
11.9819
-17.8078
-16.108
-11.3597
5.83779
8.1758
7.77184
6.33856
12.4323
5.92131
-23.2969
-6.01049
14.2743
-3.18402
-0.557207
2.23751
9.85778
12.7924
-9.70811
-41.0965
-45.0416
35.2205
23.4094
9.64976
10.9189
8.98818
13.15
19.37
0.293357
5.55803
28.2629
16.8162
10.1099
1.13995
-8.01739
-4.47083
-12.295
-6.74526
7.35952
1.67308
-3.84035
-32.5728
-40.4433
-43.4081
-49.0859
14.3949
22.7087
6.67756
3.99433
-19.8241
-19.2814
14.7842
6.10411
-23.135
21.7163
45.192
46.9009
10.7925
-2.59741
16.3142
5.60245
-34.0086
13.5435
22.9535
8.60905
-32.1631
-29.769
-2.64035
9.05829
-9.91742
5.82376
0.381122
-5.76828
14.1573
-11.1408
-19.1556
-1.93987
-3.26548
18.2745
16.8079
34.2477
37.5699
-4.96651
-16.591
-28.026
-81.6557
-24.6702
11.1731
10.2098
17.3922
4.13035
-7.22381
-11.6088
-28.0851
-3.15062
36.4188
29.9247
25.5974
-0.0583715
1.70075
10.9748
10.6946
-15.6099
-22.364
26.9338
33.4864
4.34385
-18.2192
-21.7953
-6.63685
-6.04
-13.5022
15.8635
46.5262
5.52767
-32.512
-24.3182
-22.4042
-19.7163
-1.01041
-17.68
-28.1093
15.5045
17.99
15.6757
28.9798
13.2643
2.78678
-12.5377
-9.61332
19.2274
12.7437
0.181246
-0.95475
-0.943551
-3.4372
