32.6103
21.5677
48.3815
80.4076
56.9347
87.2748
133.586
115.356
-57.6265
-138.82
-158.522
-200.126
-112.506
14.9644
79.2689
83.8407
96.6902
75.1004
-39.6841
-96.3378
-112.366
-59.3824
29.414
17.9715
14.7421
2.4831
-103.038
-132.394
-2.62541
70.8924
146.021
213.173
187.489
104.957
27.9966
0.0141642
-6.03922
14.9526
82.4368
127.478
45.6094
-136.723
-208.803
-182.743
-101.509
-112.014
-148.587
-69.1955
34.8845
23.7948
19.087
40.1067
3.26501
14.3642
22.384
19.5937
-4.16164
-6.79204
-24.4196
-31.0225
33.3362
123.554
97.8477
47.2247
-20.445
-72.1849
1.50754
-4.28792
-12.0008
75.0677
134.205
114.322
28.1351
-62.0648
-99.1289
-77.4241
-94.159
-105.338
-117.771
-96.5733
-52.5834
-73.0966
-81.3534
13.8833
84.0665
96.8465
57.0386
93.0484
184.014
189.334
109.639
72.8825
-39.7873
-172.02
-217.828
-268.32
-126.267
-0.0302951
85.9415
121.298
159.136
182.032
152.118
103.166
37.1522
27.9464
44.4531
20.9244
-40.4537
-89.6287
-94.4426
-81.9146
12.8479
106.293
121.681
124.47
39.8034
-25.0122
-42.5424
-101.003
-134.429
-125.46
-105.213
-105.822
-117.906
-104.128
-64.9795
-90.7778
-115.669
-103.752
-59.5935
-22.0324
39.5314
114.89
141.057
127.091
40.009
2.69571
-15.2494
4.83953
14.0671
37.6146
73.179
43.8954
80.7966
98.4774
121.066
129.785
-36.4449
-167.238
-161.208
-50.0914
3.64563
-11.0842
-6.61208
64.3768
99.6334
77.088
73.1568
77.9413
18.1181
-3.69554
25.5208
-4.10981
-48.3438
-88.667
-137.113
-99.5395
25.5263
133.77
154.257
88.3352
35.8733
-4.03024
-30.8368
-66.8297
-142.256
-156.574
-81.6216
-41.944
-40.1569
-62.5181
-41.8248
-24.3307
-57.053
-38.8789
-1.31095
-24.7662
-5.29112
35.3225
56.4146
52.3674
65.923
111.215
128.305
77.2442
97.6776
88.4955
23.4527
-14.5995
0.331371
29.8304
43.06
65.2623
92.0447
16.2937
-122.57
-185.432
-163.881
-158.119
-116.298
-48.0636
-40.3443
-77.8272
-38.5748
10.6397
46.3784
56.8611
81.4336
126.385
114.218
45.9615
-22.2199
-37.7088
-64.9654
-47.1706
48.0717
140.34
84.9126
40.8224
57.2284
43.71
53.8308
48.1885
12.9846
35.8175
-14.118
-102.196
-284.593
-346.32
-265.468
-107.161
12.2529
74.7998
84.6674
-3.51853
-155.894
-93.226
66.6074
132.418
139.809
118.514
110.649
174.396
145.868
116.975
97.6701
53.254
48.2024
77.2343
112.344
90.8966
8.34721
-74.2533
-56.0246
7.78191
62.275
-21.9859
-80.1648
-68.161
-5.2127
-109.398
-273.674
-335.013
-286.215
-186.808
-133.323
-42.9971
81.5876
87.8438
58.6986
37.9466
22.5409
42.8694
35.9381
70.9235
165.601
152.561
74.9126
45.1716
-43.2881
-10.5836
64.9566
91.9287
97.9779
40.7178
14.6877
41.8549
72.8296
119.882
75.4755
-11.6371
-108.051
-187.676
-160.865
-124.144
-50.4154
-3.68743
4.97633
27.6774
-2.34515
-86.7717
-148.288
-97.145
-72.0246
-38.0809
117.65
192.89
125.129
-90.7522
-127.142
-19.3438
3.31809
67.5768
62.8687
73.3765
55.3194
46.7521
91.2036
69.4512
12.538
-17.035
5.33096
39.4845
22.5654
31.135
-2.23199
-31.3747
33.15
46.9348
7.50252
-27.6293
-83.8006
-87.9356
-133.322
-99.4959
-128.542
-142.65
-78.5293
-64.2853
-16.4515
43.7939
123.102
141.59
122.342
67.7043
19.4121
28.0544
50.1638
41.0545
-9.03754
-57.9147
107.242
76.2416
0.745423
-115.224
-103.886
-51.7912
-14.63
-19.8302
-46.9968
0.679218
-8.41698
-17.0521
8.84481
15.3021
-8.76524
-28.6154
-30.1879
47.7799
78.0008
72.3278
20.5398
26.8605
51.6483
76.8994
137.669
70.0673
-47.6651
-94.8523
-93.9573
-61.3168
19.3221
12.2918
33.6194
12.497
-148.382
-128.227
-67.7789
-31.0837
-20.3639
-3.69119
-10.8992
-71.6783
-53.3591
22.7973
170.983
89.6494
1.21597
-20.174
29.1354
82.2146
84.8271
80.7012
10.4211
-47.4007
-50.5388
1.20766
30.6362
-27.1615
42.7399
-12.8511
-107.641
-83.7886
-4.64717
6.77898
10.7156
20.7686
21.8534
12.6365
-22.5505
-51.398
-40.3039
-54.3561
-49.4634
-34.1998
-32.9757
-12.9908
81.3339
126.454
68.1267
-22.3949
-19.8419
3.11425
49.6501
94.6883
93.4755
95.8068
86.3804
50.0594
-40.04
-91.5986
-132.462
-85.9902
-44.1119
-36.2115
9.20714
52.1306
4.52044
-106.948
-113.464
-98.4985
-39.0797
42.5505
68.3182
49.1302
16.4475
-44.3921
-34.7801
46.8267
166.014
214.848
260.063
207.894
-6.57852
-298.7
-442.337
-273.801
-69.8669
64.644
12.7033
-31.0368
-77.4862
-17.4547
50.5152
120.957
128.261
110.965
56.3821
0.443474
23.8898
65.8805
32.145
-3.64618
-59.76
14.9589
136.779
77.8438
56.5707
65.1374
16.3606
17.7657
12.0511
-33.552
-65.3334
-105.252
-105.026
-41.5417
-40.1731
-115.951
-149.284
-148.577
-97.835
-52.7515
47.5581
109.571
56.6057
31.3545
52.9745
67.3949
90.3296
42.5294
-13.7593
-134.83
-132.702
-49.9311
26.3721
39.6562
59.7856
126.112
107.085
14.4865
-73.9843
-60.4361
-14.3667
45.7265
4.15226
-41.2267
-15.6658
-4.65963
30.3697
75.7477
127.019
204.017
155.202
15.2702
-122.163
-128.521
-77.3813
-116.385
-88.8456
-5.82521
29.7516
27.9729
63.1993
66.3984
79.2552
50.4213
44.0181
49.9136
32.7528
-115.093
-215.845
-221.772
-112.668
-25.9678
28.381
-24.7852
-41.3737
39.7308
-5.48732
-74.5991
-23.8716
37.7358
64.2407
48.2425
69.2118
59.1872
-42.9998
-23.3338
86.3078
211.553
159.636
30.8491
-78.4999
-189.491
-120.882
-55.2015
4.87527
36.2381
74.0181
101.686
99.6255
15.0114
-92.4775
-105.697
-62.6498
-21.886
14.1742
-23.7897
-56.1393
-10.3467
50.4743
108.954
118.069
180.87
166.107
125.974
-31.0386
-200.51
-159.752
-89.8946
-75.5124
-75.6105
-47.2433
-5.43924
10.8788
-11.286
-55.9208
-68.1198
-86.686
-74.0129
4.32021
42.4195
45.4701
63.1686
41.0062
26.1636
77.4247
128.905
66.0811
26.8702
20.2726
44.5258
35.8918
-41.843
-63.3393
-88.8732
-92.7853
-15.2262
22.8364
35.2769
18.973
-88.213
-98.219
6.10782
9.42522
15.4801
13.1476
37.9954
33.4262
3.63402
17.7051
73.8379
79.5497
27.7935
-76.3631
-20.5583
-7.7449
-49.628
-25.3249
-61.9146
6.61506
122.804
125.258
32.8056
-90.3987
-151.346
-109.466
-62.8622
16.3637
78.8053
58.6554
3.1615
-39.6681
-1.60478
113.261
133.163
102.955
-11.0479
-113.257
-55.0714
-17.4576
-15.4208
-16.7124
10.1565
56.3938
90.0351
56.829
-3.87722
-68.5611
-80.7857
-91.8483
-70.5545
-39.9326
-19.3824
-66.1954
-92.2356
-17.86
40.6231
65.8853
49.0892
43.4328
68.1365
14.7065
-24.5908
22.5101
63.6052
95.9469
99.181
18.2785
-56.6617
-91.5325
-125.413
-77.1536
-29.6556
32.5755
40.083
27.5449
26.7472
17.296
13.9709
-21.9004
-47.6047
-24.5181
1.26317
19.8938
1.45763
-10.2616
113.906
180.996
121.846
45.6988
-16.3266
-43.1103
-184.969
-197.263
-111.198
-157.572
-149.861
-61.9478
21.5286
53.644
83.6681
120.591
118.197
85.7072
55.8548
10.4836
-25.2555
-21.0673
-11.565
-10.4039
37.494
53.6387
146.74
132.954
52.563
51.4385
46.9975
14.6604
-15.0512
-33.9953
-96.838
-111.796
-108.759
-85.8825
-62.097
-38.7872
-72.482
-67.9566
-41.7556
19.6608
128.283
209.827
118.707
-144.685
-216.938
-216.812
-151.952
-58.0825
-39.8443
-7.97705
84.4145
130.936
100.779
99.2536
95.8686
65.5199
-19.6405
-14.8787
23.535
15.7057
-46.9409
-101.642
-11.1692
154.121
147.868
173.504
143.807
63.1173
10.7701
-23.8458
-31.5152
-25.7017
-80.7218
-87.494
-60.4161
-58.7301
-76.1765
-85.974
-75.5471
-23.9763
-5.19708
2.05614
24.0399
72.2123
66.4414
-8.90691
-89.8597
-38.9556
20.1157
50.5284
-21.2597
-72.3047
-14.2976
-29.1877
-48.1028
-66.367
19.6354
58.6075
40.6102
-8.66722
-42.8104
-15.2694
8.61623
95.5412
173.369
108.271
18.1528
-23.5569
-27.8368
-49.2049
-50.8689
-64.213
-24.3872
-0.419683
18.0434
51.9588
45.4588
22.6938
18.0721
14.2023
17.4276
11.8977
-5.00517
-39.8777
-62.2182
13.7777
88.2319
28.8435
-18.3003
-68.1326
-32.0844
-25.8223
-70.6286
-50.5577
-17.5164
28.7692
3.22223
-53.8174
-22.4429
24.4429
-3.0351
-38.1778
-25.1873
-5.12964
3.03397
34.6996
47.2106
54.0616
39.2179
35.9065
34.5107
47.2603
39.6534
24.3188
6.99342
12.1477
25.214
3.23253
-24.5147
-40.3874
-36.5166
-26.8816
3.26004
10.7738
-22.7051
-55.1132
-58.2301
-36.2875
14.3121
51.3064
38.9486
2.3494
-34.2347
-38.0309
23.7959
49.303
39.6154
-0.59422
-11.292
-8.97017
-127.015
-160.797
-94.1371
-43.0557
23.5398
58.7424
41.9966
23.4164
23.5607
76.9399
100.685
75.541
75.9886
40.5953
-6.17649
-21.6583
-46.2108
5.05666
14.526
30.4941
164.503
194.113
91.76
-109.335
-162.922
-124.462
-53.2858
-80.4304
-125.053
-101.607
-79.9838
-9.61552
57.1087
80.0968
52.3533
-78.7588
-108.082
-27.6147
29.827
11.9181
13.5978
24.186
32.6491
105.94
127.207
153.905
127.348
17.6961
-108.82
-132.555
-111.501
-48.866
-7.00784
1.3051
16.1502
67.7422
90.9998
44.9792
-16.1381
-67.0751
-65.1058
-34.0885
-31.1394
-1.93072
-7.65704
-45.1662
-52.8978
14.0377
88.854
38.6504
23.1648
6.29201
-21.0991
-2.99697
-16.9313
13.2968
49.6827
-10.4748
-58.3909
-35.0724
-3.85357
2.15224
-1.63914
-12.4682
3.04854
-5.64886
-54.2816
3.03446
71.82
70.7357
39.7993
19.1906
50.6471
25.3649
-1.27479
-29.644
-53.1143
-42.0774
7.04646
35.8943
31.1336
34.183
-4.62571
-31.3471
-53.0403
-45.1502
5.93398
53.0826
50.0829
41.9706
-11.8975
-162.156
-163.399
-104.778
-29.4422
31.4379
47.7528
68.2333
79.1636
35.9906
-17.0112
-18.311
24.9066
50.8213
28.94
23.7514
17.5855
8.56949
51.9977
79.7903
122.413
138.406
-57.4526
-124.658
-159.895
-93.7456
-35.4158
-48.5612
-32.1667
51.2804
48.8258
27.2913
-78.4342
-113.715
-65.4198
-0.630032
2.62708
16.2451
32.6445
62.7755
64.6425
11.2221
-6.28908
0.504558
10.0393
39.5255
29.5419
70.3852
46.4056
-8.21375
7.54118
-15.039
61.5413
108.084
9.87114
-77.5583
-72.6553
-84.48
-104.463
-115.551
-67.6347
2.46829
47.8904
67.995
69.4841
33.4742
33.2659
44.3702
30.0665
-21.7721
-67.4551
-66.4684
-39.6555
-19.0381
6.9502
30.7739
66.115
2.7253
-16.3148
17.536
-52.7795
-28.4204
-5.96535
-19.5648
0.21418
-91.9734
-125.507
-66.0758
28.5757
112.932
155.807
168.839
115.778
6.41527
-7.96117
31.9798
86.3913
67.7781
-20.2435
-131.802
-198.011
-129.57
8.07238
85.0857
107.18
69.9906
138.623
10.1137
-196.063
-143.216
-88.2861
-29.0336
5.12476
6.54373
44.0048
22.7928
-35.4756
-50.7452
-58.7934
-37.2859
57.6245
68.5456
59.1086
79.5324
37.1188
8.27899
-85.6769
-56.3992
46.1887
-10.8298
-59.3913
-126.44
-85.3425
21.9241
26.9164
49.1567
77.976
74.5776
21.6973
43.5713
83.3159
106.456
94.1097
18.0521
-52.6482
-61.1672
-51.0494
-53.3355
-24.2102
-15.0495
14.5849
41.9251
25.6098
-3.52409
-14.1143
-83.4662
-111.84
-50.6608
44.6656
82.0902
82.0072
-37.5761
-107.27
-69.0982
-5.81565
45.7966
60.7502
80.0717
67.7663
41.1027
19.1975
-45.7463
-78.6501
-97.3585
-65.4921
-9.5854
0.152008
2.25576
3.26749
-42.9802
-63.4604
35.5072
100.642
73.1046
54.4224
35.8493
26.3637
4.4951
-34.9345
-74.3418
-47.8195
-0.725364
45.6746
36.897
-24.682
-19.3946
39.1969
1.115
-19.7837
9.76188
61.1183
35.0673
-53.4479
-75.5498
-48.9972
-19.0753
-17.1807
12.6316
54.9982
69.9698
-35.181
-72.1771
-66.5526
-7.83191
47.5626
102.615
-1.07431
-106.727
-137.512
-67.1185
31.7972
147.424
167.037
89.1731
42.0053
16.2273
-21.6387
-55.2694
-125.173
-105.253
23.8724
60.7029
62.681
67.7606
28.3107
-40.1906
-21.4113
51.9567
114.899
49.1687
-13.7468
-67.5929
-39.7891
-35.0958
-51.6276
2.31338
36.8066
19.0456
8.15445
-13.1669
-78.4415
-82.6092
-73.7669
-34.1958
19.546
-17.9079
-50.6641
-22.2387
-32.9388
-10.6792
-28.856
-28.3329
2.16051
45.9551
39.3406
12.5024
15.5865
53.1136
92.1228
71.8697
45.5557
32.8399
46.0195
-5.59515
-33.4275
-9.16588
15.6272
8.01899
26.5277
60.9556
28.941
-20.3424
-69.8004
-68.4516
-46.7576
-33.7767
-27.981
-13.2371
-1.51139
19.7297
29.4884
9.52827
14.2087
152.343
248.436
171.111
-104.153
-233.729
-298.063
-342.745
-192.382
-54.5466
56.365
125.881
10.9543
-25.0421
90.5826
111.674
123.304
85.4483
52.3715
41.3535
28.2843
-31.2267
-80.0632
-76.3709
71.2872
163.741
197.556
132.992
-0.772742
-37.7165
-30.6556
-6.99081
165.542
177.3
-29.9283
-141.534
-178.418
-149.07
-136.12
-144.59
-159.168
-130.706
-123.191
-82.3928
-12.1209
36.1762
88.8209
136.491
93.7069
27.9154
-36.8595
-69.4667
-60.7026
-17.7051
62.8818
136.174
150.074
65.3224
47.9035
61.3403
50.683
-14.9846
-52.679
-42.0689
0.318209
30.9324
-5.65275
-13.6702
33.7941
66.6871
28.394
-32.3708
-55.1473
-23.1132
-5.49585
-39.4379
-29.4188
-15.0701
-15.8104
-8.50652
-1.16931
1.62513
9.33493
-47.1849
-35.6123
-6.89179
13.5434
26.2568
-5.53071
-50.9954
-1.87348
10.8661
14.8467
-5.29166
-29.5178
-36.6829
-58.5866
-3.46876
80.8013
132.051
58.2966
-23.4833
-70.1514
-17.2881
-23.7523
-39.6891
-34.4198
-40.2908
31.2793
28.9569
18.2606
63.8085
105.912
87.5261
49.6782
57.8946
102.166
83.3652
29.3558
-156.163
-240.993
-179.787
-68.7001
-24.6969
0.693755
37.4634
106.174
53.0635
-5.57704
21.5322
33.6294
-23.2813
-33.4266
-63.7671
-39.0065
-10.6074
-53.2498
-42.0436
-27.0671
53.4672
162.42
131.153
22.9465
-22.965
-7.24081
-7.79744
-26.504
23.1963
19.5565
2.43298
-21.8673
-27.2735
-65.2955
-49.501
-40.0995
-27.8571
-18.3063
-16.6508
-32.3774
24.9126
38.129
33.1819
31.7595
30.9334
10.7546
-14.5625
-26.861
26.8405
57.2317
0.361093
-21.2393
7.47636
-9.71399
-7.33433
-23.0172
-36.4665
15.5841
31.9579
-1.98544
35.5758
69.9215
50.3865
32.4636
74.3181
103.598
8.99886
-91.3733
-158.488
-149.909
-79.715
-75.9248
-72.6444
-8.81923
28.6474
12.6522
-1.96695
-8.85969
7.19706
42.5115
31.909
14.9548
29.1242
71.1454
22.4695
-27.3088
10.4855
51.93
82.1796
82.7992
81.6902
77.0896
33.759
-16.764
-40.3908
-11.8614
11.9259
-5.98861
-7.45762
-12.7417
-101.128
-108.034
-101.942
-97.4297
-78.78
-21.8382
50.7071
92.7894
14.9228
-129.78
-51.6382
9.6715
15.132
32.8446
70.491
92.4152
-10.828
-147.464
-132.354
-60.0037
49.8314
64.8702
60.4104
45.3936
52.6463
38.8752
4.42689
41.6816
141.16
170.963
47.3821
-29.0179
59.0046
153.096
162.113
8.58802
-216.966
-291.979
-266.4
-287.617
-177.085
-33.9557
29.3589
83.7608
113.723
121.59
132.229
37.0218
20.7967
64.6017
42.284
74.1192
9.60516
-91.4193
-139.441
-60.6497
122.604
237.964
207.415
188.311
57.8699
-29.127
-49.238
-118.223
-133.192
-130.886
-136.809
-119.96
-124.849
-84.1417
-56.5367
-56.7852
-45.5644
-60.3017
-48.2148
28.1498
109.066
104.839
75.3859
71.3613
68.5597
32.8219
18.0146
13.8935
-0.88776
8.39445
-5.29122
-8.85473
7.69695
-89.9157
-60.7054
0.263575
31.2909
72.908
55.5907
-45.9507
-16.358
63.7556
74.0176
64.2677
39.6178
16.0066
7.41176
31.2129
20.8254
12.491
-21.1462
-28.6947
-34.6475
26.2407
-17.0389
-131.822
-189.657
-135.832
-16.4329
103.389
116.414
50.91
-47.6069
-72.4998
-64.9274
-17.6555
22.2936
34.3685
25.3172
-5.49122
15.7717
42.5642
62.8986
85.325
52.3471
68.1445
69.0608
11.9823
-40.3619
-61.5882
-53.865
0.702102
49.4162
18.8071
-28.6891
-56.5755
-79.0853
-101.73
-75.7113
-41.9646
4.16844
-10.422
-14.5525
10.8012
62.3531
106.434
120.695
70.7564
-91.2029
-169.078
-126.713
-71.9628
7.87764
71.7203
79.6381
64.8031
-7.10289
-41.3088
56.6175
-22.7524
-25.5381
90.8528
98.9967
44.3759
-66.0763
-127.821
-68.0952
29.3593
103.166
104.355
12.2234
-8.2013
7.3811
18.913
6.40896
7.95649
30.8591
47.4107
-5.46552
17.8366
-2.94104
-60.8458
-28.4612
31.0729
120.009
135.208
3.52188
-201.584
-261.621
-190.691
-42.0442
19.5895
-19.8293
-29.8908
1.01899
21.4891
20.6395
22.7739
31.6168
36.0817
30.6462
13.9237
-16.6113
-41.1088
-34.2791
4.81932
72.0041
105.836
134.929
98.3594
32.5914
3.41056
-16.8513
-24.9871
13.075
-40.7054
-41.0272
11.623
-14.9713
-33.8545
-56.8176
-65.1262
-58.5587
-29.7698
-37.4972
-22.1523
36.4088
94.5136
85.8906
68.5957
122.71
32.9558
-131.787
-161.235
-104.821
8.492
43.9484
38.8837
-53.4959
-49.9647
-7.62706
18.0228
-13.9969
-42.1762
-59.0133
-51.9026
-26.233
35.8934
114.192
115.123
62.8594
71.0803
190.279
140.794
9.4036
-91.7566
-76.8849
-102.751
-67.6977
-13.4201
-2.76942
-19.4076
3.26948
56.3262
105.316
81.4223
-47.4143
-111.239
-109.005
-46.6226
-53.0676
-45.7323
-17.8528
22.1373
58.5526
87.3852
27.8443
3.56529
14.0159
0.241193
-18.2412
-59.8029
-45.9074
-11.9242
16.2487
-5.41194
20.337
-26.9494
-53.5157
22.3691
62.7699
109.13
-42.672
-171.18
-179.111
-82.6384
17.7211
49.1232
91.2157
124.156
85.2176
72.9141
44.2958
12.8018
-27.703
-20.8354
18.1078
72.5016
50.6782
-0.59022
-51.9738
-73.7177
-16.6852
42.757
88.2073
87.1931
29.9806
-1.8701
-46.8175
-116.196
-74.2339
-103.906
-97.7836
-50.2567
10.8767
2.94031
-7.148
20.4865
47.7506
19.6983
6.29013
-7.92401
69.7426
139.463
60.4105
-50.3936
-70.5198
-51.3249
-54.095
-49.6355
-25.502
76.5654
60.2715
2.47243
-16.4665
3.23375
4.95995
-8.68226
-3.04706
6.94302
27.312
43.2814
7.60963
-35.7887
-23.3752
3.54953
37.5674
37.0975
40.275
51.802
-11.5182
-49.6747
-23.478
-53.0976
-71.1096
-62.5572
-64.8916
-15.8035
29.5256
-0.0350424
-4.86413
-4.21436
19.7542
34.808
37.8701
31.6893
30.952
-0.615115
-1.72541
8.55907
16.7371
7.35309
-27.0619
-10.4575
20.3799
27.5623
98.2607
53.3081
-18.9856
-30.5945
-12.3499
8.28819
33.9302
34.7639
-55.6451
-83.233
-118.884
-80.0034
-72.4468
-85.5501
-33.2267
-16.1089
55.1443
69.5273
70.8432
86.5836
46.654
27.3457
48.0756
20.3017
-18.6105
-50.9216
-42.9298
-25.3887
24.5581
25.8269
70.2972
66.6755
15.1663
-10.4861
0.649509
26.4902
-1.04109
-23.294
-45.4354
-25.0227
-20.6974
-31.3299
-49.4017
-28.4667
-30.801
-6.5904
23.2327
13.9421
8.48834
-15.3282
-20.332
-56.3503
-23.7128
-0.200092
-4.55185
30.8984
71.6701
81.8697
41.8682
-72.601
-86.796
-53.7946
-9.70959
37.5107
50.9803
48.954
39.6611
22.5634
37.0815
10.2129
-14.8664
15.1508
39.7966
61.366
69.1316
11.8479
-51.0853
-62.9292
-42.8896
-5.91584
2.40496
4.06758
-19.3323
-35.0138
-27.215
-73.468
-87.7241
-39.865
-9.60472
16.1585
20.1155
22.2811
40.1439
45.0194
-18.9546
-41.2814
-39.7885
-28.6595
11.3565
76.2292
95.0503
74.7454
32.3186
6.10088
-33.0737
-38.1974
-52.6993
-38.6576
-4.55282
44.0586
-7.18387
-11.4282
-6.86315
-12.9744
-6.91293
6.94762
31.6134
49.418
5.62505
-16.8982
-20.4547
-21.6151
-2.16841
9.3812
16.4946
51.8788
15.2575
-35.3207
-34.6155
-24.8545
-19.2832
-35.4571
-14.1767
38.9962
83.6184
52.1153
7.36871
38.1137
91.4585
56.0279
-153.556
-235.358
-202.973
-104.664
-19.8825
30.5211
58.9285
86.9693
98.6085
75.9092
80.2338
51.0858
31.2956
13.0129
-30.9794
23.5339
39.5717
-17.0875
-48.284
-16.9495
63.9184
93.7182
76.1566
49.4368
64.2195
42.9051
12.1449
-73.1343
-180.012
-189.608
-143.016
-81.2355
-50.0887
-38.3552
-9.65029
-3.8701
17.4921
5.47558
-18.8853
-7.14007
47.7379
84.4007
84.0485
54.4275
14.1814
17.5002
20.1351
10.5914
49.7791
49.9685
50.6682
33.2303
-2.06903
-12.0242
10.1942
-27.7452
-75.4635
-66.563
-52.6763
-47.3536
-9.31088
22.1022
42.068
7.9482
-9.47254
-31.7141
-8.14357
33.9181
34.7771
25.8281
39.2534
10.8828
-20.7974
-48.4625
-84.378
-38.7567
10.47
44.2564
56.3271
76.3933
98.2229
9.62221
-28.7397
-63.7344
-83.2226
-65.2206
-46.5357
19.9694
24.2081
-1.19482
-2.24445
42.4067
52.3016
11.8851
-16.3328
-26.3705
-21.8359
-47.6905
-52.552
-32.8525
-27.0745
21.6163
29.6233
49.8775
79.9294
80.5232
7.76701
-73.3869
-69.531
-8.74077
22.558
45.9634
31.2685
18.816
7.66198
16.758
-2.21413
16.7927
27.0463
-16.7899
-54.6126
-25.2535
-27.9276
-4.21677
-0.319173
-10.6722
30.6141
57.7012
78.0014
46.0843
-43.534
-53.8476
-37.2972
-40.4009
-27.552
-29.1812
-0.952102
18.4391
-28.1858
-29.8859
-15.1781
-8.27348
11.8767
21.5616
2.31298
-7.2148
19.8023
6.47398
-7.59518
-8.11632
12.7537
-10.6477
-29.2696
-18.7576
26.2011
38.8623
-11.8453
-37.7274
-0.194225
9.51768
18.0355
26.7654
33.2821
49.91
53.858
25.8006
26.0952
18.8458
-28.2953
-116.8
-79.438
-44.0455
21.6449
44.4595
63.0659
51.0686
19.8317
-36.3097
-63.5971
-11.5122
33.0745
32.0242
35.4565
2.968
-33.5007
-82.3154
-88.2635
9.70536
41.6811
84.5103
72.4095
26.3277
-16.8856
-28.4566
-27.0396
-38.1133
-14.9087
-11.0546
-15.3506
-9.17146
-27.3335
-43.1633
-41.3474
-6.27459
29.2663
65.9688
50.0444
16.0373
-0.226117
13.4934
15.179
20.0306
33.8329
48.3119
-23.8184
-73.0193
-82.8844
-48.9477
30.3702
26.9431
14.1501
34.1828
10.8707
-22.78
-22.6481
-11.2712
-5.26584
-12.13
19.5075
37.0934
3.93113
-11.9846
-21.8383
-24.3951
-7.83872
11.5098
32.2405
75.1724
43.0355
-30.9028
-36.3841
-40.5624
-26.9732
-4.64329
-4.78671
-1.05543
23.8146
10.4087
-20.3579
-14.8552
-15.6043
-9.70069
-1.255
-7.91538
8.54479
43.4092
30.0585
16.2352
34.6637
61.6624
29.2673
-26.2369
-62.4574
44.1918
166.931
148.284
-34.0922
-243.679
-256.346
-154.652
-21.1189
15.2834
-9.54182
29.5033
35.0728
32.5552
14.8939
-30.4845
-52.6905
-12.5848
42.2657
99.203
101.024
59.5927
22.562
-6.90626
42.3948
147.159
173.193
84.817
-17.9483
-57.8231
-94.7294
-112.107
-77.9464
-60.1154
-29.426
5.58343
37.8573
13.6408
-42.7745
-64.5616
-41.8662
-69.8351
-115.299
-91.8054
-20.5652
57.0614
40.6994
31.1745
20.1668
26.7875
51.1483
46.2836
38.2831
27.6197
2.60646
-20.5819
-25.3881
-17.4085
4.47781
19.5604
45.3601
42.0408
-26.4827
-49.7972
-14.9977
3.40003
24.4111
18.7364
13.479
22.6068
51.1503
28.3495
-20.1182
-11.4954
15.8591
2.35537
-11.4597
6.43275
29.4894
10.138
-8.64717
-43.0193
-29.014
-10.4482
-35.6855
-37.6347
-25.2967
17.1911
57.3286
-7.49211
-49.9042
-57.9841
-7.93088
14.9192
27.1047
7.56762
-18.0078
-71.088
-82.1563
1.50314
65.5137
44.2414
2.37308
33.5632
71.221
50.686
44.5281
7.14597
-29.1637
7.09978
21.5484
36.6476
30.4506
-23.3237
-59.5639
-47.1477
-3.61005
43.1826
61.8381
54.2764
-4.27353
-64.5866
-37.7925
-34.4643
-53.2877
-59.1602
-51.4848
-30.7527
-13.7649
3.09824
-2.35318
-2.62613
-15.6404
7.16286
1.81974
5.0989
27.8472
53.007
58.2346
17.6115
0.334344
25.0046
5.66399
-46.6838
-79.7441
-17.1977
59.5431
84.9512
49.4278
42.0904
-0.256698
-7.79161
-16.1496
-44.8461
-30.263
13.2459
33.9533
-12.7288
-45.7493
-46.0055
-33.0246
0.484716
20.2752
54.0252
119.786
62.9472
-12.9361
-49.3563
-60.1514
-55.2289
-13.6338
3.31417
-6.23764
2.30226
-4.61145
6.39735
-8.95695
-7.36576
1.38203
-5.25649
-3.72049
18.6958
33.849
-6.86034
-38.0737
-12.5409
-2.15384
-9.82532
-6.90457
-5.1998
16.0531
52.9365
45.2276
-7.57485
-20.925
-77.1921
-71.3307
-22.225
25.059
54.1237
-5.42085
-58.8759
-34.9733
-8.03386
13.6837
36.2613
46.3619
67.615
50.3754
53.8985
11.8089
-50.7632
-41.8336
4.66513
45.4333
85.113
35.9321
2.13378
-7.98713
-34.395
-29.0002
-28.7475
-60.3354
6.00358
-27.5138
-32.1628
-15.4177
-39.2174
0.783105
13.8311
9.65765
5.65584
1.1836
-35.9401
-29.2822
-11.5572
18.2843
28.1064
18.9126
16.3047
36.1009
78.2499
83.7998
15.7408
-17.2594
-10.9188
-43.2642
-57.4271
-54.911
-52.4507
-11.3987
13.6897
-7.79291
5.64338
10.4526
18.9487
15.3551
16.8834
20.7719
-1.12047
-27.3646
-11.376
-1.64654
4.95108
29.4087
18.2645
31.285
-1.10488
-61.6961
-61.6606
-37.0706
-31.6191
-13.6323
16.6485
43.3483
46.9181
30.448
39.8079
0.986021
-32.3733
-58.8935
-58.2661
-10.5091
43.7256
129.545
110.77
23.4245
-25.9659
-46.8342
-63.4031
-57.6348
-40.1676
-5.06926
29.8169
2.56596
-12.9113
-8.82888
-22.0695
-8.24314
44.8707
97.5853
61.8399
-21.2822
-32.6361
-23.8378
-29.7691
-32.6683
7.69369
86.4612
107.533
41.3793
-2.41205
-65.3852
-111.433
-82.9015
-49.1367
19.8265
8.15045
-1.03048
-12.8372
-10.0117
-2.40919
11.2083
5.8768
-30.5102
-18.8742
31.5442
33.3845
-3.99013
-20.9666
3.03668
16.0974
38.0868
55.3588
30.4031
8.83445
-29.6213
-74.2195
-52.5643
-25.2542
-5.44364
10.6768
37.1693
32.7348
12.6616
22.54
7.49798
-6.09884
2.58201
1.04497
13.1944
18.0674
32.3098
63.8234
28.3613
-39.9645
-44.8129
-14.1489
-25.3798
-45.6723
-27.929
-0.455493
36.6522
-18.7672
-41.5395
-43.225
-5.07989
23.7974
26.5762
28.7613
25.3046
27.0863
59.7487
24.6898
-8.61317
-34.553
-63.5126
-2.40658
-36.9894
-40.5699
-18.8503
-32.8744
-35.1983
27.0869
14.8778
-22.5172
13.2787
48.1814
19.5763
14.0577
28.273
29.2329
-15.6261
-27.6087
-2.8183
59.6194
67.612
30.1209
32.9743
17.28
6.3167
-15.6469
-4.3556
42.1483
7.48824
-19.641
-9.01397
-20.5075
-56.5718
-89.2162
-72.7906
-52.7293
-26.9948
-37.2
-16.4534
-6.38344
-12.8778
-2.0214
36.155
52.3805
52.6291
49.2053
4.84119
-23.9916
4.44602
30.8443
-14.5611
-16.6192
44.7385
24.9347
-7.04708
-23.8375
-17.8295
19.4478
41.5664
37.967
46.5031
10.7276
-10.8296
-67.2393
-70.9746
-34.7727
-22.1349
-37.1992
-21.2522
13.7514
66.5175
44.8506
4.04002
-23.2835
-22.5556
-5.43999
-15.1419
-1.1169
36.0252
29.6372
-7.99191
-0.30461
15.0458
57.2495
54.5967
55.2046
95.7463
42.6869
-61.6863
-92.0921
-138.443
-110.632
-54.7231
1.32609
43.3523
14.329
24.6385
18.6955
-16.5845
-30.6414
-10.6209
19.5267
41.334
46.1067
-12.5339
-42.6483
-57.2022
-20.7916
40.128
70.7997
40.4954
9.55042
22.484
28.5096
-22.1241
-2.68151
-2.30453
-15.4809
-31.0389
-13.5088
5.44999
-1.19156
-34.24
-29.4453
5.39525
3.34202
-15.7914
-9.01012
21.2372
43.0197
55.8207
9.14742
-3.2645
3.01972
9.05224
5.44507
-6.88664
9.22037
8.02415
-21.0538
-45.5078
-59.2764
-31.119
12.0153
29.6752
41.2735
-2.82093
-25.6847
2.33383
-35.4787
-27.9098
23.5253
12.6208
37.538
33.8402
-6.08398
-50.4085
-25.0709
7.7288
13.1924
-1.59664
-22.3559
-7.19986
13.0561
-6.25185
-18.7477
10.1964
56.7009
60.9245
40.3187
3.32137
-17.0116
-16.7028
-17.2576
10.3191
16.4092
25.5886
4.16034
18.2903
7.64661
-58.9339
-58.5574
-64.5886
-42.1462
16.157
28.4513
33.6203
29.3839
0.968641
21.8913
28.4389
34.5252
20.8137
-13.6072
-30.2177
12.7694
-5.38536
-37.0001
-90.0006
-105.003
-52.0544
10.6463
39.9789
54.8031
56.2107
26.1574
-0.269958
0.262082
16.272
-26.2753
-32.2482
3.12133
14.824
30.3433
-0.128196
-18.4598
-1.25947
-3.07114
8.74368
42.7068
66.0711
50.959
36.0125
-10.8929
-35.3043
-29.9366
-6.54948
-15.0948
3.03237
43.387
-19.5032
-58.9238
-85.5019
-97.0753
-58.7386
-35.5475
3.43253
38.3223
39.5386
36.0092
78.3041
87.4577
46.3409
2.52636
-37.9142
-19.4135
-27.9901
-11.3973
-6.7493
-12.7303
8.16696
24.3638
85.1614
133.519
61.6245
-58.6712
-150.187
-153.593
-78.1272
-13.8292
8.13964
-6.78044
16.0414
38.8419
26.4937
29.7332
39.6878
28.7081
3.45112
-1.17435
46.5814
62.9404
-6.03587
-61.3629
-39.9964
-2.08968
34.6248
49.9486
34.9083
52.4599
27.2198
-70.9559
-69.8368
-36.4837
-7.22414
-27.4182
-52.1364
-75.4313
-54.0389
-4.56327
-6.31397
-19.8674
-7.49829
-6.20839
16.3726
59.0402
94.0516
73.7228
22.1682
-20.9676
-27.8475
9.66148
20.4147
-9.51997
13.7697
31.7267
25.9465
1.21863
-11.7618
-33.1813
-8.84954
-22.4666
-28.4882
-10.8859
46.7163
73.0476
34.6414
-7.23763
-61.0247
-97.6652
-94.4814
-6.24287
40.9312
19.9742
17.7171
36.9282
68.9339
69.3194
28.434
-2.55278
10.0315
-46.4561
-42.2354
-31.8615
-48.0242
-62.4987
-65.4245
-33.7726
24.1469
22.3377
28.9305
17.6929
-3.96092
24.4069
22.9329
34.1813
33.3484
10.3897
50.7641
56.8498
17.1621
-16.4346
-40.5369
-37.7703
-30.916
-45.225
-15.2447
-16.3081
-4.36991
24.4944
17.7287
11.195
17.3718
66.5402
68.8073
-12.3444
-76.9637
-99.8098
-108.109
-40.8198
-16.8251
35.8141
71.3486
82.1215
58.7664
-21.3963
-54.9782
-69.6524
-29.4033
5.17676
19.951
40.0955
23.9175
-31.8803
-33.4976
-7.57866
22.1103
69.4511
72.7944
30.5475
1.97691
18.541
26.3628
-18.9203
-40.2897
21.9809
63.1142
102.459
55.5387
0.0363417
-58.6835
-137.566
-99.0433
-50.1818
-42.864
-24.9731
-28.7001
-49.569
-43.3309
-35.3066
-10.6808
13.0626
11.9143
26.9657
40.35
62.9985
41.8238
17.0351
10.1026
16.2805
31.5161
61.3693
25.9314
-4.45155
-31.1726
-22.529
0.296101
38.4353
42.388
19.6673
45.6701
57.0994
-22.4647
-59.599
-53.5342
-43.2422
-35.4088
-67.0032
-48.0556
-4.41813
-4.97893
21.4545
31.4019
16.455
-5.26073
-41.4704
-7.96568
32.3863
16.568
4.23013
-24.6061
-64.8114
-30.2997
18.6324
31.5614
33.3929
56.0643
34.4428
8.0984
4.68907
-3.68599
-35.2154
-52.9403
-27.2535
25.1532
77.9859
54.5062
20.4187
21.2044
-3.22074
-34.759
-41.8775
7.99315
10.1219
7.95431
7.0338
-41.2442
-35.2714
-26.7474
-1.34591
27.1671
11.6585
9.33986
41.1485
29.6392
-10.272
-67.3438
-59.0804
-38.3736
-16.8847
53.7138
54.2008
3.47111
-61.0253
-58.2716
-32.4314
6.66019
42.329
36.4653
-6.70422
0.760008
21.9178
17.2584
-4.39633
-0.0190372
18.9934
74.9642
39.5786
14.6193
-37.8895
-55.3697
-13.7275
11.6902
40.9036
31.2606
16.458
28.333
-52.4351
-58.0207
-25.0147
-9.84837
7.23336
7.30025
-1.58901
-1.19066
-35.4345
-38.8691
-43.2652
-19.877
27.2791
34.8865
42.378
35.9468
39.1365
37.5838
14.6735
-12.2012
-23.6501
-33.7536
-46.975
-31.6861
-7.91146
-7.65105
-60.494
-43.5974
13.3852
22.4377
40.5347
26.5355
36.7826
44.3102
39.4133
-3.14526
-1.15627
0.975369
25.8796
37.1866
39.1775
-20.228
-45.6643
-37.5951
-53.9847
-38.6864
-3.76081
-1.18364
-11.2942
-20.9247
12.2011
83.8624
82.1137
-4.99785
-38.9734
-9.85535
-18.0597
-41.493
-49.582
8.14647
61.1017
54.8008
14.6933
-26.768
-26.3399
-44.3763
-20.1688
16.1076
29.4329
12.5204
11.5237
-18.9097
-31.7816
-18.0173
-3.55692
-5.00627
-11.993
-28.618
-19.3158
-42.894
-0.751636
39.3226
58.1075
82.3283
36.1756
-26.4536
-43.6484
-19.3545
5.89699
28.5239
24.0842
0.895892
-16.1793
7.11182
17.3811
17.3577
19.2923
17.3157
-4.46567
-24.1943
-27.283
17.8033
90.2727
22.9732
-50.973
-56.6038
-32.3301
-52.3019
-45.3822
-14.9086
-6.44169
7.32819
9.8641
0.640142
-9.26416
-7.44929
6.24165
16.3611
16.0291
14.3799
7.79173
-26.9964
-43.005
3.05113
62.2398
94.1214
65.8628
22.4402
-7.36509
-66.2175
-45.544
-44.713
-15.1766
18.666
53.8913
64.4926
53.3658
-52.0034
-122.503
-81.9383
-33.7883
-5.34731
-21.9039
-14.0577
8.93679
53.6417
65.5478
21.7491
9.59996
10.2608
-17.3763
-6.4494
62.9814
83.2049
28.6846
-50.4018
-99.6719
-29.7118
24.0344
20.1393
30.9897
52.3246
14.3507
-9.47037
-15.0067
-27.5461
-20.9353
31.5807
-13.012
-31.2389
-29.7254
-28.0022
-43.1582
-55.1579
-39.3113
3.44498
54.121
89.3509
47.7278
15.9507
2.39035
-1.49163
-23.9937
-31.1749
-32.3453
-38.9499
-25.5476
-1.85697
26.4465
48.5268
40.2308
51.9102
30.8323
10.2129
0.0481548
-36.0221
-53.344
-35.4567
24.6039
30.3936
2.69364
-22.7327
-13.8513
12.5158
47.1051
23.3643
-37.9302
-55.5965
-24.7061
5.74902
12.733
-15.2077
-23.6827
-20.8854
-44.8139
4.35743
36.2815
67.5216
72.9608
45.5926
-3.10256
-40.0806
-40.514
-43.208
-41.1657
-10.4389
24.5065
23.1664
38.3961
38.9087
-4.18803
3.1356
7.60711
-4.06551
-7.7893
16.0793
36.2334
42.4925
-3.74881
-63.2903
-37.703
2.39032
5.47359
-38.3872
-65.5428
-35.249
-6.66134
-6.21268
-16.2512
-4.68547
19.0138
9.22776
13.6736
28.084
63.54
40.9071
5.18711
-32.1346
-14.0449
16.2355
11.7773
17.8267
25.4267
12.9369
11.3776
-4.16926
-6.03525
0.497346
-9.88943
-3.93214
-10.3449
-48.2136
-54.4825
-40.507
-12.7709
7.82379
10.1011
-14.6812
4.64877
71.7097
27.8333
-16.339
-11.2578
35.359
19.0647
-44.7709
-48.5317
-1.85702
-2.03993
-33.3464
-4.72652
18.8241
36.5943
23.8408
3.65412
11.6161
25.4912
26.7126
-9.3546
-44.2281
-6.37685
3.29277
-4.79403
24.0053
75.3352
101.852
31.7361
-75.785
-71.1327
-76.4559
-57.2996
4.33452
42.9896
21.9383
17.7775
18.4326
4.935
2.37603
11.2766
-3.09229
-2.69321
-35.7633
-47.1463
-46.2627
-42.5885
-19.7643
8.87083
39.551
69.3748
42.3401
-12.2007
-17.0407
-31.5998
-17.9846
-10.788
-4.12072
9.1864
19.5036
-12.9323
10.7803
60.5117
70.0613
27.9887
-59.1158
-103.32
-95.73
-14.9592
12.5097
-0.516242
26.5236
56.3613
47.4247
27.5846
31.7279
34.9909
24.0928
-19.443
-28.7913
-7.2467
-21.1434
-38.0127
-17.1305
25.2595
79.888
52.0248
30.0927
9.0845
-29.7383
-57.4155
-24.9408
-10.6468
-1.17029
-11.8608
-25.4522
-9.74705
-5.67188
4.3002
-2.88766
4.25737
26.9614
-49.3696
-59.9176
-16.5253
-22.2194
-22.4572
-57.1367
-37.7173
43.0317
47.4758
17.7066
36.3652
19.7739
36.9795
55.7562
50.2901
16.3747
-6.74512
21.2363
-37.8866
-86.502
-32.9425
17.8058
5.41833
0.736826
49.6477
77.696
8.63811
-17.1677
-5.10867
6.08787
-3.6851
-14.5798
-0.981768
-1.35713
-39.6028
-22.0084
-9.81143
-19.0446
22.6579
35.866
50.1665
33.6381
1.36927
-6.78781
-29.4143
-36.4119
-30.6937
-46.854
-20.7029
15.8035
-28.0961
-22.9421
-28.4869
-32.3585
-21.4786
-3.65092
19.4331
22.4621
14.3072
13.0661
5.05759
-4.46205
2.05259
4.20587
17.2377
43.1453
77.3126
81.5555
55.9362
19.6938
7.79276
-41.1795
-64.1649
-44.2866
-22.1238
-7.04642
13.8101
-7.0126
20.0192
14.1615
-7.66897
-12.6219
-24.7332
-17.0108
1.09079
-10.9775
-6.38624
-2.37739
-10.4208
-63.4212
-65.736
-18.8731
23.7256
24.7795
-3.63425
4.1094
2.03141
7.49032
25.8048
85.6461
143.37
65.8966
-22.2147
-54.6188
-45.0797
-25.8777
-33.9385
-31.646
12.724
47.0851
41.9977
-11.4518
-50.4196
-38.5544
17.2939
4.88034
-33.4773
-21.1291
5.5983
-39.7957
-63.8702
-18.6055
31.8265
57.8364
49.2033
41.346
17.0335
-18.4746
-36.1974
-35.7633
-17.2463
22.0987
53.8935
60.2609
36.542
-16.6545
-30.5328
-25.3155
-25.4968
-17.6492
-32.5586
-14.0691
42.7494
24.04
-25.1884
-22.0431
-7.70341
4.28538
-12.1731
7.45649
38.405
58.3008
17.6792
-22.4776
-12.3025
0.610306
9.5943
22.6223
19.3331
-30.7251
-33.4721
-9.21156
2.159
-17.0299
-14.4251
-47.1392
-49.4825
-40.8017
-33.9006
28.8685
27.6111
6.52773
32.367
28.0477
3.75889
21.5931
67.0139
82.4984
20.0647
-10.5355
-57.1473
-73.5058
-78.7037
-11.0086
73.3104
108.105
52.9723
-44.3238
-57.1327
-57.333
-20.1077
19.4463
20.3618
33.6869
12.5288
-0.175347
-18.7096
-48.7903
-28.7649
15.4367
44.2604
62.2891
33.9166
14.4733
-28.9869
-41.4465
-25.6653
29.2973
69.0321
27.7454
-34.1722
-39.6188
-68.8954
-57.8092
-32.3374
-14.9456
-20.199
-30.1848
-14.6278
11.4378
-11.8264
-14.8506
6.62897
2.32025
1.61665
28.7583
70.139
111.347
23.2883
-23.0316
5.61306
19.4533
15.8497
1.51581
13.5331
42.1653
30.6652
-43.8793
-59.1047
-74.2505
-47.0015
-19.793
-29.2284
0.6617
49.1745
14.4487
-1.76098
0.327307
22.6504
31.5679
43.797
35.8627
48.9403
2.08288
-13.2634
-37.6459
-48.3138
-19.4616
-29.6552
-12.7514
31.8172
2.75791
-24.5549
-30.832
-42.0346
-28.5085
-3.99511
42.6838
101.663
105.503
60.8653
-41.5555
-101.458
-108.916
-104.591
-88.5279
-50.1448
25.7061
72.686
55.4085
46.7109
56.2268
70.3342
46.8823
-17.6119
-13.8233
-6.33995
-41.7098
-18.159
-9.75179
6.9132
47.5679
71.8528
89.6055
63.5328
15.0029
-32.621
-92.0109
-83.8484
-39.608
-49.765
-35.532
-13.0078
-24.6073
-0.823388
30.3761
40.6647
31.1785
-35.173
-25.5267
40.0419
-1.15959
-16.1438
-3.5954
9.40368
29.1665
34.8145
25.5202
-8.86568
14.0731
11.5507
-73.1701
-63.0431
-21.7116
14.3212
20.8036
7.07266
1.94888
31.4515
43.5409
-7.67518
10.791
15.6165
-7.04936
-24.5151
-33.148
-7.34306
21.8625
-4.99769
-38.0542
-32.825
10.9176
20.3567
21.734
29.7434
38.976
19.5472
-1.59773
-45.4093
-59.5625
-19.9414
39.2781
51.1823
91.6037
56.2566
-14.7794
-44.6663
-92.3139
-78.7016
-61.2527
-25.4999
15.5459
37.0556
48.0321
3.62364
-30.7706
14.1442
33.8547
45.8882
21.4828
-40.5063
-47.3715
-16.7053
-31.3726
-3.99248
33.4121
22.6738
38.3551
57.2768
57.0898
30.6246
6.78754
21.9656
-23.809
-45.968
-72.7418
-90.5536
-12.4148
24.3929
13.2201
13.1527
10.5905
10.523
0.604982
-4.64773
26.2032
35.6482
-17.4078
-32.7137
-28.2046
-6.49279
11.4715
-9.37992
-25.2925
-24.4468
7.31043
-45.2033
-32.56
-7.19264
20.2867
18.7932
-18.2778
-15.2418
36.5532
70.7985
44.1606
-2.05878
26.5154
32.6804
11.8331
-6.21162
-15.5119
-31.3532
14.1581
28.9511
13.9339
56.5687
4.61096
-27.1725
-3.38575
19.1119
42.3395
33.9298
-10.9216
-42.9678
-69.9459
-90.5484
-97.5652
-91.8387
-20.0611
-5.70321
-9.0976
-0.222694
5.79323
31.6519
51.8203
70.69
73.1269
31.2739
15.3856
5.4171
-4.11915
-21.7224
-9.95931
26.3901
70.8516
54.4337
-10.9708
-24.8763
-45.9352
-39.1127
-13.0822
-18.2801
-45.4443
-22.313
28.1261
25.595
-0.00931123
-11.6129
-45.7051
-30.2029
-31.3435
17.201
47.5147
-2.66546
-52.5889
-14.6406
55.9204
68.2441
33.144
24.7323
40.107
24.2718
-29.5471
-22.6467
-12.3532
-27.3266
-49.818
-40.4017
-5.10136
5.27787
55.5106
-1.09028
-37.0764
-10.2267
19.3211
29.8854
39.1448
30.296
12.9376
-30.3488
-75.6968
-41.4132
6.52694
1.74445
-19.0413
-11.4257
26.1811
64.8762
28.7101
20.6515
-3.45874
-7.34786
-25.2362
-28.2704
1.03538
10.0227
43.9966
1.50226
-24.7735
-20.4497
-1.58509
2.92381
35.9096
40.5673
36.3048
-9.07177
-77.2985
-60.3519
-27.2822
-19.6111
-11.1895
7.12505
41.4575
20.3245
-3.08003
-1.9904
-22.1638
-15.0217
20.6149
22.2329
22.1582
-9.39693
-22.2831
-23.3534
-19.5298
13.6236
51.0741
46.1867
62.0029
14.9883
10.547
27.2239
-5.42389
-44.4051
-80.7639
-57.7856
24.907
54.5829
-16.2128
-47.2939
-58.5597
-46.4421
-25.6206
24.438
27.0182
29.5017
64.2141
18.1346
-20.1911
8.81399
-10.653
-27.5993
-19.5129
23.6832
71.839
95.9854
46.296
-6.61372
-26.5393
-32.1067
-34.1204
-48.1228
-39.4993
-40.5409
-37.8252
-40.6018
-35.0465
2.99596
51.3388
59.0644
20.8787
34.3758
27.2953
0.206349
-10.7584
-35.514
-48.8203
-17.3356
16.8549
60.3689
48.9196
25.6777
36.6135
30.8983
-3.00673
-21.7687
-76.4893
-77.6669
-27.004
-30.4856
-16.4639
-16.783
-6.83696
20.8699
27.5417
16.3661
9.44668
38.4091
24.6783
6.8778
13.5598
34.3688
8.29317
-26.2181
-9.29607
47.3697
48.9529
32.0684
-22.4989
-30.873
-43.6982
-45.3236
-12.134
3.03227
-41.3131
-41.3432
-25.3823
-11.7789
12.5988
13.9985
31.774
19.9383
-3.64698
-17.1801
-16.461
-23.2558
-0.104183
28.5212
62.8729
43.7018
32.19
10.7171
-0.647965
-5.41989
12.4457
9.00388
-16.6972
-31.8432
0.375646
-0.795323
-15.9939
2.14154
3.72889
-17.2898
-27.4325
-25.4048
-5.40857
16.3527
5.13899
-11.8515
0.312968
9.90019
26.8737
20.5299
11.9307
-22.2316
-24.5797
-74.7677
-109.735
-52.2283
-2.3543
24.7516
31.6639
45.7897
70.0911
24.0707
16.4376
1.30505
-3.1381
22.731
39.2413
57.9567
26.6897
-26.3288
0.281977
12.8894
30.7203
62.8137
55.2381
-6.5955
-64.8184
-79.0142
-55.1138
-48.5993
-39.8367
-16.7586
-9.12861
0.886979
57.5645
13.1404
-33.0471
-22.5347
-9.01634
14.7173
-2.04448
9.19396
-16.3617
-16.4847
29.0581
27.6496
35.6631
24.6672
14.5479
8.76494
-19.988
-13.942
5.17325
-23.7834
-73.7513
-37.6396
3.23714
-9.95273
-20.6198
23.53
60.4444
17.1326
7.09804
23.8938
9.97144
15.5666
8.36623
0.361825
7.80706
6.2054
-21.7975
-22.2003
-27.7002
-6.64472
-19.7731
-1.60584
34.6452
13.4566
-7.1945
-7.3476
-14.1779
23.2474
28.8236
12.6008
-15.592
-7.42447
-11.4263
-10.135
-11.0329
-17.3152
-4.59656
3.70203
15.8655
25.6348
34.6143
12.8253
-20.0348
-36.0092
-5.99351
6.26744
4.24543
43.3905
73.6188
14.5519
-59.6074
-77.4884
-47.1954
-24.7208
-7.83551
14.1487
19.2857
0.516099
-0.31443
2.72003
-3.28319
15.3231
10.6797
28.3168
5.58763
-23.8491
-23.0445
-27.248
-30.9975
7.71152
61.6109
101.329
52.3606
7.36156
-9.4282
-31.6725
-32.2873
-37.8402
-32.1839
-19.9941
22.0414
28.0546
-21.5419
-42.8299
-55.8019
-24.3882
10.358
14.9086
4.72511
17.2257
47.2098
7.43326
12.6456
27.8038
-3.82483
-19.6836
-4.29111
23.6245
28.5352
33.073
-40.7419
-46.6728
-11.5595
-10.8152
16.0636
27.5092
14.6767
56.5355
59.0225
-8.65618
-25.7425
-31.5989
-17.9963
-17.5086
-29.7642
-20.1387
-19.257
-43.6788
-43.0344
-59.6125
-23.2039
17.9054
52.9724
91.2425
95.0672
52.9112
-28.2563
-72.9388
-61.3648
-15.8283
-10.7911
11.9777
31.998
45.4258
26.3275
11.8615
35.5469
50.9684
28.4151
-7.70558
-17.9689
-78.0432
-60.0066
-45.3319
-29.3809
-1.90987
30.7144
15.5141
2.78515
5.5519
12.707
-17.7538
-29.5551
-27.1071
11.8545
21.1875
3.53893
19.6392
52.1455
22.9091
-13.9574
5.27414
6.70406
4.26472
-3.11452
-1.08713
22.5443
-8.08274
-52.4665
-53.0169
-23.9218
4.50862
5.38835
12.3354
54.6226
46.3165
-31.4438
-67.8555
-77.949
-25.9544
8.05691
61.4079
82.1934
76.8845
45.7314
-78.5887
-98.1393
-45.0857
-1.33117
16.3866
38.4151
30.6361
0.0201194
-36.4906
-94.671
-49.3172
31.5858
42.7551
23.6873
45.1631
45.4551
54.1426
25.8224
-7.60659
-15.3447
46.0185
60.9478
34.4752
16.8271
18.9687
-30.6044
-55.041
-38.0143
-17.1001
-16.0831
-30.7631
-19.6802
16.1225
-6.68883
-22.1827
-12.9102
-20.2994
-13.6832
-1.32228
12.4544
75.9596
7.95598
-58.528
-36.1101
2.72981
-2.2139
-93.0821
-97.4969
-35.0291
38.2231
39.5787
9.11259
10.8492
40.4655
50.6269
30.5356
16.681
48.5561
50.5331
-29.1375
-78.7266
-45.7344
28.3141
31.7911
3.35167
-6.98929
63.1815
61.2201
27.9716
-9.58897
-17.4306
-7.35883
-17.0064
-4.81266
17.0546
28.272
6.09039
-61.5224
-73.8641
-28.4706
9.45914
35.8587
28.9444
29.4055
15.6967
-27.1568
-12.2717
-7.16857
-40.7044
-16.7461
-18.7369
-18.952
18.0988
13.011
-36.2175
-27.3427
-15.9916
-8.42341
-6.16759
18.6411
20.9037
55.2266
63.4184
-6.38216
-33.0541
-11.1028
4.38644
4.77301
16.2647
30.2061
46.2613
30.4635
-13.1896
-39.1193
-49.7074
-79.2218
-62.5014
-19.5811
-13.9252
11.6527
36.6334
39.8366
4.42337
-2.20071
20.6286
58.2317
52.2424
-6.47694
5.46026
0.779423
-7.35528
-6.63035
-8.99756
15.3378
45.1429
32.2193
15.8174
-4.52242
1.49139
33.5264
29.8669
10.4536
-21.7181
-53.7889
-101.399
-101.737
-57.5436
-14.5845
-23.1518
-58.6901
-85.6808
-13.0339
44.9108
20.6608
24.8314
56.5879
48.8818
64.8775
56.0149
14.4327
22.1518
2.46022
-12.219
15.8169
26.3086
22.5863
17.5759
42.0175
38.398
24.0688
9.72262
-71.6655
-83.5293
-43.6806
-25.4848
-12.8878
-3.09596
3.40649
-4.15273
-21.3796
-36.4246
-23.447
1.8806
25.693
50.8936
50.5412
-20.255
-37.8298
-34.0523
-16.0019
8.93757
36.0278
28.2916
39.2536
2.07096
-39.5418
-23.2166
-13.2267
-14.4917
-25.4695
-23.1981
-7.10731
23.8139
48.6407
12.814
-11.4131
13.7243
21.0831
24.142
20.6848
12.1124
25.0336
3.05865
-40.0037
-12.4838
26.0777
21.1524
-2.83531
-2.93246
21.0076
9.41967
-21.968
-25.2672
-28.2778
-29.9014
-31.0958
-8.02011
30.6289
-10.3676
-39.6836
-33.7291
-28.8403
-11.6239
5.52831
29.7379
53.667
23.2753
9.07728
5.68543
3.1373
-0.33907
5.58579
-3.86475
6.45725
12.098
-23.3712
-28.2767
-38.3862
-0.37952
28.1273
33.6224
24.0152
28.4377
44.1212
16.1363
-18.9263
-1.70621
-1.40574
-51.5929
-66.5372
-36.9463
0.342291
39.606
26.8084
-0.453849
-3.77957
13.1571
9.76362
1.12865
-4.75072
1.40162
15.9696
-14.6996
-27.7303
-4.30128
23.1863
40.8338
32.5079
12.012
-17.0655
-37.6818
-56.7957
-50.3927
-21.2637
9.93856
35.6119
25.5328
28.8264
12.0271
-7.39106
-6.05011
-36.6196
-16.8233
-3.7582
-4.09803
1.42002
13.7799
22.4897
29.6902
54.7766
49.7276
44.0623
-11.8669
-65.8744
-29.0329
-6.48886
10.8272
19.3502
40.8466
18.6158
-36.4503
-90.8956
-71.4199
-23.7935
-5.92706
-23.6044
-50.5144
-47.9102
-0.0239178
21.244
24.2167
37.5946
63.3762
42.3022
23.7187
6.99506
-4.20028
-19.925
-17.0771
20.1589
59.0209
46.2499
5.23234
-35.7413
-36.286
2.6393
24.541
22.0812
31.0929
48.497
26.6648
-11.2416
-29.7135
-10.2718
-10.0827
-11.307
-29.7059
-42.6959
-10.9846
24.0378
-24.426
-35.4725
-23.9057
-43.5215
-52.0825
-38.3916
-16.0737
11.6185
32.1662
5.69398
10.0314
35.427
37.9301
38.6538
24.8123
16.6556
3.69394
-19.8342
-14.4677
-25.1628
-8.10744
32.1464
38.5382
58.3866
29.9434
4.31496
-12.2029
-13.4172
3.83493
7.70641
5.55236
7.55839
-36.0795
-24.7017
-40.9261
-75.0141
-51.3108
-4.06161
-0.354445
-42.9367
-28.3376
7.41405
29.732
30.9448
43.163
47.7767
41.7916
31.2534
23.8021
-36.0061
-33.5764
-13.2616
3.914
1.57053
14.9388
41.8782
59.4628
3.0809
-30.5056
-9.06122
9.3243
8.86991
-7.49512
-7.30448
-0.187994
-10.1884
-30.9232
-40.961
-42.9303
-2.337
10.1894
-2.54528
-1.06249
1.65484
18.0773
-23.6471
-44.9168
-17.36
-3.72933
8.02087
15.3273
34.6512
33.5866
-5.70326
-1.78044
9.48372
19.967
25.0334
14.5428
25.2348
27.8977
-18.4711
-26.7077
-21.912
-8.59296
14.5003
-0.750658
-5.48951
-6.98659
35.4167
17.5381
-31.3615
-69.8439
-41.2703
-26.6313
-21.1196
-8.7429
7.56392
22.2033
42.0351
5.84375
16.2474
28.3512
22.6558
2.84738
9.1466
9.49589
18.8239
-23.7563
-49.054
-20.8581
11.1542
33.8104
28.132
15.1364
20.7939
16.2705
-13.6919
-25.1706
-29.1634
-12.206
-0.247867
5.97958
21.8029
10.9846
-7.21276
-11.1916
-12.7358
7.09889
-5.87036
-18.6137
-14.7583
14.7002
12.6928
-28.201
-27.6998
-16.5746
1.07274
0.745319
-7.42246
2.6506
32.3983
40.4741
-10.7751
-19.8422
-1.71758
-4.15154
-7.82871
-0.593764
-0.39854
16.338
24.9552
-19.0843
-25.0431
1.47748
7.96603
7.19389
10.5746
8.27473
21.0474
11.0481
-16.8368
-13.1125
2.54813
10.4533
13.4215
7.08425
22.6217
7.46058
-24.0051
-33.1538
-36.3999
-16.4412
-3.36232
5.17802
28.0915
31.1645
1.81721
-2.391
-12.4305
-2.76955
7.17501
1.9297
-0.058141
23.9053
28.3255
-18.3377
-33.0944
-22.157
-2.79195
-2.68177
-5.57446
5.27742
25.3722
46.8708
-0.188348
-31.1777
-19.897
-16.1299
-10.1297
-6.19779
8.40987
37.297
13.9841
-19.0624
-25.3397
-4.21799
-6.95529
-12.2773
-9.88683
10.647
6.80752
-6.5172
-5.64883
-10.8148
-1.59561
14.2177
25.1753
46.708
27.8391
0.162168
-8.80413
-21.8369
-5.5867
3.85973
10.5768
41.8663
13.7092
-15.6809
-13.7633
-22.0704
-19.3823
-11.0491
-17.3685
-25.5651
-9.80078
5.50232
-14.7712
-18.1306
-8.20344
10.0461
16.3177
6.77801
16.6689
43.6475
38.3208
-4.0071
-31.5543
-13.0051
-6.46544
-7.4705
-6.8437
-8.37141
6.79384
9.21743
-15.8274
-22.3382
1.24306
0.948657
1.93764
2.10234
5.80183
13.233
-10.8597
-15.1257
-9.02788
2.88126
28.5291
37.8313
44.3413
21.28
-4.70248
-0.789016
-6.63052
3.44928
16.0727
23.6928
41.924
1.98644
-26.9293
-28.599
-28.1967
-29.5454
-17.1009
-26.3561
-18.2743
14.8394
-15.9511
-25.1917
-25.8166
-22.066
-12.1593
-9.24127
-8.57646
-7.68187
3.24058
-15.6996
-19.641
3.23689
26.281
35.6238
34.2365
57.4065
42.8054
18.3396
12.3678
-1.43052
17.1418
14.297
-0.336363
12.3342
21.8174
-25.523
-31.6597
-30.9885
-25.6132
-7.47004
-5.59421
5.76924
34.0918
36.5161
-20.4068
-40.4797
-17.3128
-8.3221
-14.1748
-24.5233
7.06671
12.307
-30.5997
-32.3841
-21.8744
12.7098
18.6553
20.569
24.4545
51.271
57.786
7.45115
-19.6979
-20.5904
1.90019
-3.12868
-0.864926
2.00977
11.5902
12.6571
-24.7928
-21.695
2.63623
-6.18024
-15.2569
-8.31574
16.2503
23.9176
-26.0593
-41.6823
-40.4435
-8.11975
4.60211
5.92365
26.4946
24.1229
1.56035
-1.18306
-2.7717
0.629296
7.14881
-2.66193
27.9043
26.8844
-6.74814
-5.2447
-13.0546
-27.2836
-14.4636
0.996134
20.507
-1.92065
-4.30368
-7.01277
-3.16374
-4.93709
4.41155
8.31997
10.7604
11.1812
-6.98389
-11.8212
-8.99834
-0.34453
23.0904
26.9614
16.5292
16.6742
44.9033
11.2908
-28.8687
-7.01615
-0.752921
-2.04936
-6.70108
-4.31374
5.03845
10.1774
-14.883
-46.1499
-31.0837
-25.8767
-31.4307
-25.5665
-14.6727
3.94668
-14.2411
-13.1603
4.12998
27.0822
33.4339
50.1486
41.3197
31.2217
-3.00988
-3.8058
-2.68538
-11.7853
-16.4263
-1.36392
32.3857
15.7665
-24.511
-28.0346
-9.91899
6.8372
14.218
8.23329
5.06884
8.81303
1.31418
-18.9466
-21.8092
-22.5367
6.12561
22.2911
4.44366
-7.21865
29.2659
16.8899
18.2916
60.3943
9.66496
-32.0916
-48.7344
-48.9084
2.22366
-49.6029
-73.2624
-82.5672
-69.5469
-35.2663
-13.8478
22.4304
47.5413
22.6214
36.1353
39.1489
27.4534
31.0813
16.7858
27.3201
69.881
29.3534
11.748
3.08121
-4.01277
45.8942
55.1019
55.6991
49.1521
6.71852
-13.0646
3.82173
44.6496
47.6637
-3.86857
-42.1511
-52.7671
-48.9858
-113.175
-175.325
-141.044
-46.8282
-1.45195
-12.5531
-17.0613
18.4812
4.18229
-3.91196
3.44371
39.5247
58.003
43.6701
18.7691
16.9156
46.7861
65.3668
-2.76378
-24.7032
32.2291
67.6228
85.854
65.4348
41.1429
13.6886
-61.7431
-78.3127
-41.9059
-21.2698
-36.8367
-54.0684
-43.9876
-32.3382
-102.512
-96.9537
-33.8884
29.6269
81.9956
77.4038
82.8009
59.6185
20.0476
1.28492
-16.331
-40.9176
-49.475
-55.3546
-14.4989
59.1546
73.6678
39.9828
25.8043
5.7015
24.4674
21.9778
-26.5621
-22.5524
9.79045
-12.9916
-4.87196
7.79425
13.5946
19.1831
15.074
20.8829
11.4423
-14.2801
-56.5422
-93.6992
-55.8376
0.63459
-3.43752
7.97833
24.8543
-9.74835
9.3429
26.9951
28.4735
32.7101
12.9144
-14.4347
-31.1367
-39.4742
-55.2785
-61.5273
-27.0107
1.74463
15.1242
-11.9841
-56.7777
-15.2587
41.3695
6.35368
-2.49577
36.1715
45.1024
-0.85179
-13.4011
38.099
58.5803
65.6793
31.9125
10.3665
17.8116
21.8821
12.6219
12.8702
7.83885
61.4797
92.2247
26.5319
-19.6365
-26.2614
-17.5582
-7.42347
-22.4142
-16.4751
-45.9924
-97.8475
-115.729
-101.634
-70.3949
-52.7561
-17.0149
10.0095
14.8873
46.3438
48.3656
-6.34072
-12.7727
11.9173
23.9439
60.1321
66.4421
34.8232
-8.88526
-39.8367
-34.6925
-7.97417
10.3089
-1.87857
-3.31659
25.4201
20.8539
30.1742
45.4694
17.7008
-14.2919
-1.28199
9.01986
-16.6929
-15.6816
-20.4987
-47.4962
-34.1057
26.8467
29.7311
38.4326
48.5079
27.4285
22.5745
23.6778
43.0774
59.8968
20.2495
-31.968
-36.9387
15.2775
-33.4999
-103.869
-51.2376
-29.8918
-50.9428
-65.8553
-64.5799
-63.4526
-92.0663
-52.0793
17.79
31.3857
22.9397
50.1536
64.891
66.7562
40.7514
50.6475
47.5675
12.8515
18.7619
44.6671
32.9002
10.3665
-22.9359
-31.7819
-17.8544
13.7276
51.6461
41.9402
-29.4637
-62.1782
8.44942
10.2602
-61.735
-66.8517
-46.1608
-29.5932
-0.204594
8.1816
23.2728
56.4272
-0.46368
-46.7383
30.8328
53.5237
21.5034
43.8556
55.7192
58.5133
31.6683
-17.6689
-12.7485
15.702
-1.83052
-37.573
-34.8632
-46.5512
-100.254
-136.131
-100.429
-16.8021
68.3851
72.0626
18.3014
49.5794
62.4977
8.02242
-34.8892
-72.7986
-37.4327
4.03888
-40.3149
-12.8984
11.0037
-2.37153
15.9183
31.2734
54.163
66.3878
65.3495
59.1044
32.959
47.9312
-4.17615
-24.2652
15.0437
38.1217
15.03
-4.96667
-36.4386
-75.034
-67.2865
-76.852
-63.2893
-24.0616
-4.27966
-6.77486
-10.7731
-25.1533
-1.18362
22.4137
2.55714
-22.866
36.3913
95.0065
93.2574
20.4814
-9.48187
-23.6951
-64.7114
-96.7786
-51.4798
-8.45616
19.8883
44.7653
16.5262
18.3112
59.4688
65.0286
46.0113
1.64637
12.5212
-3.50859
-18.5114
0.0368885
-15.7985
-38.7505
0.572663
33.9402
67.4276
117.816
104.16
36.2496
-2.82655
-61.283
-153.988
-173.612
-157.537
-97.864
-82.259
-83.9311
-58.5776
30.3933
32.06
36.7041
55.2295
88.1266
101.863
101.279
154.903
109.383
-52.4364
-81.9744
-56.0647
3.89609
76.1246
35.3922
-9.78124
27.3515
2.35008
-41.3482
-22.6877
-0.333582
23.7794
-31.913
-79.0973
-98.2717
-113.924
-117.903
-85.8347
-12.1376
71.8691
77.0812
60.8981
23.0072
50.5385
135.886
121.873
21.1932
-17.6028
-11.0372
35.9282
56.6454
-2.3887
-70.8949
-83.7751
-23.1176
-2.08253
-1.44271
38.5833
55.4018
33.9468
-8.75241
-40.0886
-68.1836
-95.1247
-64.1752
-11.6229
6.40983
7.65272
-5.64131
-52.9643
-64.7578
-74.353
-6.04233
74.1205
72.6031
56.3329
66.8162
51.5299
9.87625
-23.0909
4.23821
16.0943
21.6661
75.5483
63.6722
40.8065
34.4663
-26.1783
-37.4709
-44.4082
-159.545
-108.869
-39.0649
27.9923
83.0864
73.039
7.42847
-46.2076
-17.9318
19.1578
-5.67467
-10.5418
-2.53621
1.31761
7.87038
-39.7364
-35.9848
12.658
68.4509
103.702
124.603
122.072
67.0142
-93.7395
-186.01
-178.151
-172.094
-84.5746
-34.0556
-26.4218
-8.22895
22.6621
30.7195
1.01439
-3.57798
29.5025
43.1226
59.9226
65.2341
91.5553
74.8816
66.809
90.5472
81.7625
20.111
-2.13179
65.9571
21.0405
-38.7063
-18.7621
2.30925
-7.6392
-3.50104
10.362
-21.9131
-55.1726
-27.1882
15.3165
-111.789
-206.717
-124.898
-70.7406
-74.489
-149.239
-87.9948
67.438
124.513
106.038
95.7302
72.9489
53.4404
11.7013
-30.7911
-29.9652
-9.81317
-2.37208
32.1633
22.8164
42.6842
25.7896
14.7093
42.3868
13.8138
58.829
107.025
88.8497
39.008
-33.3415
-82.5556
-17.2867
24.5539
-45.2462
-65.5933
-29.2971
-16.2221
-47.9591
-93.3209
-125.368
-124.234
-17.5413
77.0617
82.0616
38.7818
73.5822
97.2108
80.908
43.2309
-29.5811
-138.15
-169.529
-119.996
-12.1175
42.3386
94.3103
52.5697
56.0218
76.7028
93.8735
70.0953
-59.2315
-68.2516
-12.4343
-10.7749
-43.5828
-69.9775
-103.696
-81.2843
19.4833
114.6
128.108
106.652
84.425
85.1686
60.3351
-60.5912
-85.7359
-75.9893
-130.434
-98.2972
17.989
44.8973
19.2318
17.1676
69.1481
43.8673
-16.159
-48.1169
26.6442
123.348
34.0173
-217.956
-196.582
-146.363
-109.805
9.4752
74.4342
49.794
89.2845
152.091
87.406
8.20638
-35.6866
-17.0696
11.1457
12.8984
46.6202
93.394
-1.78005
-108.738
-30.6655
104.671
113.616
83.3436
15.0014
4.49248
3.53106
-54.9024
-103.575
-119.125
-74.0446
2.56327
-1.03223
-71.6625
-121.443
-107.415
-51.5855
26.7015
66.0111
74.9094
34.8165
42.0323
87.4003
108.137
72.7604
61.2103
-32.2364
-72.0957
-102.596
-40.878
48.4717
52.2499
-45.6619
-38.2193
57.1625
109.094
86.2528
-14.2752
-52.4324
-3.90389
-0.372555
31.6217
27.1132
-31.1431
-109.935
-129.68
-64.5864
6.89217
60.1188
39.4236
-11.5255
-55.6129
-20.0489
6.92428
-0.463804
13.0482
16.7157
50.2221
38.2505
1.35118
-35.9446
-47.9909
-44.4905
-20.6515
4.85199
-22.3267
-44.2132
2.94298
37.6932
57.7183
49.9833
27.1921
70.7201
123.243
79.4471
4.56572
-12.1778
-96.0863
-152.607
-66.1563
33.0149
75.3601
12.1127
0.783527
-8.75294
-3.39273
58.8635
-24.1789
-32.8882
-10.9173
-1.68343
4.99778
-31.3091
-34.1235
15.1875
8.63846
1.15096
52.2464
61.9418
6.18087
-54.65
-65.6501
-39.8264
-48.7349
-85.4754
-97.6456
-67.2665
24.5208
87.723
105.32
38.4996
-13.5735
45.5951
69.5042
37.7099
35.0196
48.3109
26.0829
18.8748
15.3544
30.6014
39.8619
-17.1218
-75.4345
-30.9039
35.3316
51.0136
17.6076
-10.7696
-25.9307
-45.9822
-103.696
-146.171
-140.371
-70.5935
-36.2102
-61.3736
-54.5048
63.7037
117.703
91.3267
69.6516
43.0541
19.4959
-12.0597
3.81409
8.67087
43.405
43.2876
4.1394
27.1382
66.9626
121.385
98.5515
0.277116
-30.408
-54.9181
-71.8812
-101.904
-129.02
-83.7469
-64.2616
-70.7442
-59.9485
50.4353
170.076
119.722
-4.82637
-39.4466
-23.9169
7.08787
27.621
7.02922
15.8003
-1.44812
-24.3082
30.7069
101.165
107.19
-1.22192
-159.468
-142.983
60.8998
98.6521
24.1985
-122.929
-128.609
-56.6377
-4.72167
38.0375
70.1467
59.1773
-21.0052
-77.4941
-13.5602
25.4999
24.1895
19.6355
-38.2766
37.9991
138.135
81.045
-5.16131
1.59102
10.9593
29.4572
5.19068
-19.2314
-13.6049
-43.8136
-116.901
-101.188
-30.5908
4.64512
3.53532
29.7563
58.4607
50.6607
18.6576
36.8757
50.3193
37.2304
-55.9019
-71.9967
-19.741
-9.20775
-31.9466
39.105
100.027
25.4505
-48.3811
-146.069
-102.114
29.3293
56.2854
4.23367
-4.06995
-9.56345
24.8295
88.328
88.9428
15.0728
-56.55
-35.2323
-28.215
-50.5306
-46.47
-89.9586
-97.8644
-2.30087
82.0164
131.765
79.3033
32.5213
21.6124
38.3519
29.6564
-2.24367
12.7656
-18.8298
-54.0665
-49.935
-23.5571
7.98045
36.8009
74.7167
91.9488
65.7147
-77.4139
-88.0615
-37.7958
-5.43467
-9.10495
-52.0173
-76.3272
-52.6336
-19.2378
2.39459
36.0865
5.2643
-11.8625
-39.0216
1.0681
47.5563
40.3722
31.9122
16.389
-11.9347
16.7812
3.19372
-15.6723
-8.14906
13.2895
27.8547
59.5441
15.257
-42.6845
-33.9134
-15.2954
54.5082
62.1018
45.1926
-94.2868
-96.9069
-80.0921
-69.476
-18.9399
48.7066
75.8376
53.3402
48.6202
81.7594
89.1543
42.2266
-6.53144
-27.3907
-74.7761
-96.3263
-92.055
-101.121
-73.542
4.31987
140.993
139.803
68.6382
-15.8145
-67.7742
-7.80211
-12.5368
-37.927
9.71223
47.3789
1.36573
-50.1339
-48.5724
-21.1605
0.719056
10.2283
16.578
-19.6471
3.15685
36.9075
60.0359
38.2441
46.3512
80.7602
19.5891
-51.0126
-58.6448
-29.1969
-3.69287
-11.0211
-25.015
-70.1324
-53.3915
12.8992
-11.2305
-26.1569
-6.80853
12.2227
73.862
63.9232
4.82149
-67.7955
-69.1636
-30.5612
11.3094
-1.15944
41.6594
52.2085
10.8602
-70.6119
-98.7233
-7.83049
60.4304
48.5475
63.7399
111.856
104.496
37.736
-3.53402
-10.615
7.92453
42.1444
46.5961
20.5911
31.0647
27.9436
-45.7165
-132.165
-178.334
-115.092
-35.172
-22.3656
-20.5611
15.6388
47.0691
-6.15901
-38.8358
-34.1682
-45.3746
0.133475
36.5656
44.8778
31.2285
-14.2948
-42.857
-48.0679
-18.9261
35.6214
109.186
200.553
133.151
-76.8011
-218.446
-112.1
38.5139
66.0188
50.9749
94.6781
40.1218
-9.83936
-2.95362
-10.9166
-22.5129
-24.2308
-10.1262
-70.3661
-63.0893
25.125
52.9356
-24.4563
-30.4699
81.8711
187.687
144.568
12.6733
-43.7882
-164.616
-167.662
-32.0627
8.76894
-42.2578
-76.5718
-18.5657
47.6739
56.9432
45.2384
69.7403
44.4016
-30.0467
-80.8524
-34.5351
38.6975
33.5012
1.43939
-41.5987
-52.1527
17.1519
23.3215
-21.2521
7.05324
67.3559
36.8774
-49.1521
-52.8912
-9.33001
30.4149
-3.66894
-65.0962
-54.5693
-22.3943
64.0458
126.014
99.0381
8.83685
-46.0473
-35.2616
32.6744
-17.7315
-35.086
-39.6793
-47.4014
-12.2425
-11.0074
-10.2575
29.4329
102.126
90.987
-7.03812
-47.343
-30.8278
-49.9383
-60.9592
-5.80897
75.2858
78.1491
23.1976
-29.4538
11.8951
26.5479
-10.4234
-58.9967
-77.5036
-21.979
34.6152
24.4119
2.01287
-29.5505
-21.72
-6.7359
11.3223
31.0267
13.6175
5.9525
67.2139
97.2599
49.0669
-28.2782
-155.101
-104.081
-55.3906
-29.6214
-35.9378
-19.5759
7.85716
0.999392
51.0165
86.4554
48.9283
39.1026
28.4494
-54.12
-29.5584
0.558983
-3.41695
-54.2502
-57.4788
-23.3571
90.8757
124.054
114.866
76.2622
13.2726
-54.032
-24.1598
62.8633
7.95231
-68.8202
-56.1202
-91.207
-62.997
-28.2225
-14.7138
-6.28597
40.7331
46.4967
-19.1943
-97.116
-59.0906
-11.0133
14.7812
37.9585
44.6493
18.4343
-18.3194
-5.69167
40.748
-10.21
-21.4531
37.1192
54.1515
15.9252
-9.45198
-11.5239
-39.4554
-52.2833
35.9919
150.63
124.163
-61.7346
-101.654
-8.45332
33.6574
29.788
37.6783
1.914
-27.2985
6.13144
56.9555
13.5494
-40.3058
-48.5462
-72.9399
-22.7973
59.2144
53.0485
-32.3557
-241.605
-178.603
22.3924
96.8266
16.3494
5.92735
33.8848
-14.1078
-32.6959
-20.3532
31.677
7.1527
-19.375
6.9676
91.3925
78.749
20.4846
-25.4051
-16.6466
3.64277
79.2949
69.6905
52.3094
0.997574
24.9192
44.8805
9.04258
-56.9807
-116.532
-42.2843
27.6776
-2.12426
13.6826
26.863
-3.62139
16.2358
7.75064
-23.2929
-12.6082
-24.5715
-0.947285
27.6731
-17.5638
-51.0885
-74.3195
-74.7561
-40.5807
27.1018
108.558
45.4712
-70.2126
-85.6845
-58.0007
-51.7268
25.3156
115.954
93.9992
10.8334
-105.399
-18.2978
132.764
82.41
-30.9582
-98.8667
-29.379
29.533
34.228
25.138
59.482
71.1031
36.0371
19.0638
5.15695
-13.3324
-68.7945
-30.6528
-51.5757
-75.8441
-27.5694
-61.1089
-71.3556
-2.75291
48.8478
108.408
40.5623
-55.8592
15.6373
37.6231
-78.6443
-90.3785
66.1476
148.861
105.015
82.4353
35.5086
-57.7078
-111.018
-16.0676
67.9805
86.5669
-9.79518
-91.7643
-82.4361
-97.186
-92.8002
-9.07036
24.3859
3.35557
3.73263
13.4795
-3.83579
20.7794
81.4221
84.8566
12.5611
-70.6128
4.72417
-15.0905
-47.9183
-37.1489
57.7743
56.9983
24.7308
29.6154
49.649
37.2081
-51.9542
-24.6495
61.4199
38.5513
-50.1226
-166.893
-150.857
-50.257
-19.2007
-40.2132
-63.0646
-22.155
21.4685
37.2552
31.7946
5.96156
5.90005
52.5288
78.8952
82.2629
70.3581
71.3743
96.6736
72.8677
3.32164
-79.3481
-63.7843
-25.7998
33.0105
46.9486
58.2168
44.3619
7.61404
-3.93343
-29.136
-62.5906
-83.5599
-60.8722
-16.6788
-0.88443
-41.7603
-87.2648
-88.1767
-28.3752
48.786
157.582
125.868
4.00831
-95.9798
-91.1028
-76.371
-22.711
14.5487
7.48332
-8.21666
27.7873
50.0837
50.0661
24.2127
18.5183
-5.36982
-4.72921
-27.7473
-38.708
60.5673
88.5375
32.2402
-46.7103
-48.9133
-24.0037
-8.56136
-15.0269
6.88637
1.36864
-41.6475
-24.1243
6.70828
-0.447018
-20.9624
5.82511
96.673
75.1229
-13.1721
-17.0146
-44.2537
-17.2739
-4.73592
-10.7259
3.24877
67.1384
65.7972
-7.21368
-62.1076
-56.1197
-7.09961
20.1799
31.8968
50.991
72.4972
-14.1418
-139.507
-191.025
-131.387
-44.3896
42.8015
44.4836
57.5112
51.6745
57.0366
32.4457
39.8912
63.0334
63.6653
45.4813
37.5425
8.80714
7.87063
-22.8074
-81.0364
-89.6677
-3.6463
77.9322
81.352
56.2671
-16.1447
-19.1776
-4.36346
-14.603
-31.0822
-22.785
-9.85966
-4.479
-50.2057
-59.8003
-42.6502
-40.2656
-46.6933
-31.2174
-9.9679
59.6423
52.9933
20.9193
-0.0649046
-53.0948
-60.7723
-31.475
-11.687
43.9886
56.9589
38.6848
33.1744
37.9291
45.6756
-22.9535
-39.1401
52.7513
45.508
23.7478
-1.62953
-56.3906
9.45698
47.6792
29.564
9.05845
-2.91511
-58.2801
-101.882
-79.3998
27.1207
50.4574
54.0855
39.0246
32.5285
110.965
75.1174
-62.23
-169.133
-161.204
-41.7606
-13.5731
-31.4143
-22.9192
33.881
80.7195
17.8382
18.0177
37.225
30.8939
1.20337
4.35716
12.8247
8.68244
-19.9866
-35.2573
-19.9381
-2.98748
38.5096
37.9363
18.0638
8.477
-10.8791
-8.51646
41.6541
58.073
17.8023
-61.1411
-15.97
5.39481
-32.1612
-44.3276
-53.1695
-53.9013
-34.8375
-26.3
16.6056
78.8037
109.331
79.2358
-12.0223
-51.6709
-18.9882
15.009
-2.20897
-12.4641
9.55992
-2.29357
-60.4387
-32.6267
5.22076
-13.875
-25.4623
14.6239
38.3414
8.57367
-13.3457
-35.0446
-23.074
-29.188
-10.7389
75.2793
87.6596
23.428
-20.1986
-83.8972
-77.0563
17.7973
55.8114
58.0755
44.1149
6.82866
33.8262
51.817
7.51596
8.46144
-5.57108
-23.0216
-30.9338
-39.161
-37.8369
-27.5168
-28.7885
-8.08384
30.0926
51.1229
49.991
35.3514
5.75719
-74.4746
-79.1519
-39.9601
-31.6521
-37.6085
3.98414
26.4842
76.3032
14.0852
-34.8177
-20.0395
2.11983
7.4097
10.905
9.66746
6.12699
2.88846
-36.6551
4.47633
37.9588
59.8634
36.2826
37.4509
53.0286
-16.3229
-71.6699
-57.3609
-68.143
-34.8175
-1.6694
12.1828
29.3943
7.56729
-37.2554
-32.9928
-44.1287
18.8691
110.018
94.1459
53.7805
50.5934
27.7993
12.6434
-22.8081
-11.533
-45.7843
-118.505
-133.788
-58.1656
15.7797
24.3084
15.5633
17.0426
31.6935
36.0292
24.8077
2.13075
18.1409
30.1846
4.29611
-2.009
-3.04343
-23.347
-50.1133
-51.3186
4.19119
71.9124
51.5158
37.7904
22.509
9.37241
24.4627
3.24985
-24.5814
7.88673
30.134
-22.2777
-55.7062
-64.2114
-60.8218
-89.222
-66.8555
-35.9573
-2.5549
34.6357
19.6236
6.68921
51.5156
44.3286
36.9671
43.5881
11.4547
25.6633
42.6883
-2.68375
-13.2788
22.0617
11.2719
-35.3844
-18.6555
29.5406
44.7599
42.3503
-15.3123
-63.6255
7.13754
21.184
-9.37157
-28.5064
-32.1246
-1.3073
13.7278
-19.5695
-15.8975
-36.7034
-52.6096
-29.5269
-44.4974
-54.0367
-1.69135
29.9145
30.8975
22.7144
39.8665
43.1731
50.6252
73.028
64.9975
-1.71861
-77.2109
-106.66
-39.0761
30.4137
14.9569
19.7289
1.62662
-28.0962
-12.819
62.5891
79.7231
34.273
27.2273
39.3619
32.0571
-4.43832
-13.2805
-74.9905
-150.339
-107.226
-15.6534
29.9272
-3.87579
-14.027
14.4284
-18.9399
-3.80124
41.1522
71.8299
55.4275
-3.95376
-26.1316
-26.8134
-18.6174
-5.66501
-3.33788
-17.9493
-13.3323
30.8891
62.567
94.0041
88.2233
31.1264
-23.4186
-31.9351
-1.78288
17.0091
21.0713
13.1279
-18.0635
-44.8029
-44.6212
-40.1519
-76.9332
-107.252
-102.713
-31.9177
38.0643
55.543
-28.6617
-54.1032
-12.1248
16.8367
28.7878
32.6534
68.2942
85.6543
29.5442
-40.2911
-81.8161
-49.7072
69.0585
117.558
63.0719
-13.7716
-17.2891
23.4624
1.13243
-17.7418
37.9923
51.3836
10.7778
-13.5892
-4.35838
20.0715
-0.229061
-35.245
-33.5774
-27.7983
-1.53511
27.6743
16.7153
-28.6605
-52.2903
8.96731
32.9658
-27.6205
-48.2912
2.52556
69.9083
30.8161
-30.4883
-52.7368
-31.6933
-28.6321
-17.9303
-33.6741
-47.7686
-30.0505
-35.1975
-42.6019
-24.4409
29.5293
91.5901
72.068
61.8059
14.6628
0.541566
34.6092
43.6453
4.06528
-9.94261
-5.98871
-41.7122
-31.0808
-14.4854
-58.4754
-44.0089
14.6009
59.6735
64.7078
27.5875
-24.0279
-5.11268
54.7043
-15.9013
-72.4407
-51.7745
-26.248
-0.452549
75.3703
88.5497
102.536
56.5343
-28.668
-21.8307
17.3522
15.7572
-10.6886
4.25778
8.10307
-55.4569
-91.7992
-63.8058
-5.71207
86.6938
52.5182
-21.8368
-68.3585
-189.181
-200.088
-96.1991
-13.6796
106.868
133.483
84.3739
104.917
109.357
5.63294
-34.651
-42.1174
-22.8383
24.6465
-2.04609
-29.8792
-18.0834
26.8713
4.36966
22.4272
86.566
103.139
52.6185
-21.1458
-73.842
-36.881
-34.5804
-16.943
6.59525
45.5034
1.15151
-51.8447
-8.1548
18.7896
-16.3051
-50.4212
-50.3478
-18.9691
31.4083
10.1947
16.8272
-21.4076
-103.233
-48.0821
20.1427
13.5065
-0.142656
-1.19162
-4.29892
-27.2188
-1.98146
60.3646
9.24437
-18.6836
10.8254
3.26432
-21.0821
3.15039
49.2857
72.487
60.4595
48.9285
88.6247
36.715
-64.306
-121.001
-103.663
-60.1289
23.1105
138.796
123.196
56.0384
8.85171
-53.2505
-45.959
-17.9585
18.0246
11.919
-30.9888
-36.7634
-56.3936
-68.0849
-47.9091
-28.6001
14.4818
10.2112
29.3282
15.2797
-31.465
-47.746
9.14773
40.969
56.2555
40.3765
16.6811
1.38514
-11.4512
-17.6718
-0.186081
24.6265
52.5275
-4.60646
19.9035
8.04874
-36.3654
-21.878
-26.0814
-58.5918
-68.2338
-26.3572
25.4056
23.2089
12.0315
122.005
129.216
37.88
-5.97968
-40.0135
-91.2531
-135.344
-114.487
-34.4118
-14.2687
8.18751
43.8788
102.192
108.273
48.9564
27.776
27.3304
-15.8864
-63.5671
-25.8765
-59.2318
-75.275
-31.6192
-19.212
24.0654
78.5002
82.4625
33.1425
-25.144
-70.8284
-58.1325
-50.1112
-24.0137
-14.1707
14.6479
15.9188
53.4218
93.5488
92.1741
52.7072
15.2014
16.2651
8.43703
2.35206
-10.482
14.5833
27.1339
-11.4237
28.5345
35.4059
-10.0418
-54.9138
-104.449
-114.064
-87.4816
-7.61005
-44.9492
-74.3072
-59.0798
-70.8277
-32.124
5.54478
16.6567
41.3057
60.2332
93.4391
68.1604
34.4886
-28.9325
-22.1286
40.2455
57.0812
64.1615
61.3537
65.4978
3.24749
-34.8877
-42.0939
13.6462
42.3045
47.4295
29.5436
44.4248
3.76503
-37.2261
-58.5709
-41.4959
-34.8075
-42.6263
-34.0495
-45.0778
-38.7523
-22.6042
0.0638671
37.0678
73.6182
66.9297
25.5516
-17.8323
-68.7282
-155.172
-150.004
-94.2896
-80.1453
-30.8562
48.1997
61.9741
113.578
103.959
33.9211
8.73343
28.9052
-5.37866
51.2322
68.9365
-43.7163
-60.1679
-16.694
40.4616
115.885
171.634
154.598
111.596
65.9133
-0.743726
-67.7021
-98.5968
-139.759
-172.017
-112.655
-58.0712
-56.2039
-47.4672
-44.07
-60.3203
-10.4921
8.58451
22.3796
55.4106
35.1835
-3.06706
-25.4571
-8.61324
49.7948
102.494
55.8968
3.66857
17.9002
51.659
-17.5867
-58.6829
5.26504
79.5444
44.3345
30.251
21.8114
12.4779
-29.724
-61.6312
-49.986
-17.0966
-16.9457
-52.3696
-74.5408
-80.9496
-43.0841
18.2341
37.3935
55.6391
100.308
112.441
89.776
75.5699
0.229713
-49.996
-59.668
-78.095
-69.6319
-61.241
-83.1295
-114.902
-102.864
-81.8005
-12.7258
41.0625
93.4446
67.6199
62.8414
95.7031
97.8442
56.6425
-5.51568
-13.1592
45.4607
64.9397
55.7344
35.6398
19.7719
7.42288
-3.64901
16.0684
-11.3719
-15.5172
-31.6908
-19.676
-0.274885
3.87802
-9.11505
4.73492
-51.9472
-127.236
-174.106
-156.869
-72.2046
-19.0818
14.1096
13.2625
10.3249
14.4839
72.1634
117.354
156.255
162.802
125.629
-1.44789
-100.487
-110.246
-88.513
-78.3257
-18.6944
59.6555
130.347
76.9476
-12.3067
-74.8758
-86.6097
-85.1092
-40.7232
7.75316
40.3789
3.00059
-37.7698
-32.1326
-0.50005
53.8778
84.5038
98.3609
47.9612
12.2154
-57.3654
-112.813
-90.7709
-17.7543
30.1151
44.9854
24.4046
17.2834
28.4437
-10.3406
16.4733
38.6176
55.1051
45.8909
-3.13812
12.5031
-9.95996
-12.32
-29.7021
-30.53
-15.2132
-2.29886
17.9466
-0.0373436
-21.181
-13.6019
-2.01699
41.6477
55.3397
1.14899
-76.9583
-84.7087
-86.098
-61.2408
0.458307
-8.55176
-31.2641
-66.1858
-52.479
-18.0817
53.5544
84.8154
111.983
93.9162
20.8824
10.399
0.530858
3.93592
-6.10274
1.70579
31.4883
67.2027
7.71969
-29.0762
-16.4396
-64.637
-60.8331
-12.3625
-2.38683
19.73
32.8868
27.5635
23.1003
5.41185
23.21
12.6768
5.00602
11.8594
-9.75833
-4.8923
-24.3536
-65.166
-30.6165
-4.15986
-2.69129
21.2367
-10.1201
-20.724
25.7612
23.0431
9.57284
16.6254
-26.1017
-83.5578
-116.281
-69.8723
0.0393133
17.6687
10.0011
43.1756
62.0594
102.476
135.119
50.0672
-1.50726
27.8925
50.2482
30.0497
-6.99088
-59.5296
-116.264
-47.3223
-63.5938
-3.69914
57.4187
27.6682
-64.212
-62.1983
-16.0638
3.63123
8.55837
-46.4623
-10.1758
52.0967
29.4275
9.38208
-19.1149
-64.2913
-17.5718
5.16898
42.37
25.3703
24.629
17.4694
12.0964
7.36573
71.8568
47.9978
-26.249
-11.6618
30.1742
40.6762
-6.66106
-22.6225
-41.0622
-94.7948
-76.472
-19.6743
-10.0129
26.5537
36.1265
7.29559
30.5935
18.3506
14.9113
3.56118
-29.4986
-18.3625
41.2346
45.7485
34.9466
15.94
-5.87827
-22.4868
-20.5765
-16.9478
-26.1762
-27.6845
-10.6855
36.4068
12.114
-43.5821
-74.6767
-54.1383
3.24172
75.8454
136.274
57.1736
-8.3091
17.7573
-35.011
-86.9218
-100.837
-95.0764
-12.0867
59.3152
26.7
10.8246
-8.4112
-47.277
8.18439
65.0224
91.7937
115.72
83.0422
-1.50432
-61.4519
-25.7477
16.819
-37.6986
-61.7585
-56.2109
-12.0936
15.8356
-21.1252
-20.4152
34.0756
57.8169
59.0982
39.924
15.2921
9.58438
-47.8072
-76.0984
-85.922
-52.7651
-4.88402
4.1523
20.229
22.7198
46.0488
49.5846
35.2215
25.8474
-12.5178
-30.1727
-23.7523
-26.0377
-30.5212
-57.9681
-61.7404
-57.1028
-25.3762
10.4682
38.6738
59.0024
104.239
76.7122
-41.363
-42.1592
-28.9299
-11.8255
7.73614
19.5224
54.6436
23.4994
19.3873
2.35526
-10.8115
1.52958
12.8982
14.605
14.511
-3.26023
-39.8521
-17.8228
-27.4038
-14.777
31.5327
22.807
5.53449
57.8408
32.6687
-23.2459
-19.2716
-37.6156
-80.8268
-75.1977
-27.8032
48.7384
59.5044
16.3595
-1.3171
-8.25486
21.0159
16.0473
-29.4987
-1.84045
39.3407
16.3921
8.33913
-6.5357
-16.8423
-70.6788
-116.048
-52.3585
40.4229
100.749
47.5743
-48.7614
-66.9135
-22.2799
39.5526
56.4475
23.19
5.02234
-23.9812
-44.2447
-7.2061
23.3308
23.8212
22.9148
53.6348
83.4563
97.8397
63.4341
2.98197
-43.4072
-34.0421
-18.2091
-23.5349
-18.8715
-20.8647
2.28066
4.67095
-63.3425
-60.0476
-31.08
-42.1112
-27.3129
3.99117
36.1381
72.2438
81.1657
24.2013
-79.8059
-168.759
-139.466
-63.0789
4.59078
35.3949
29.8215
1.96747
-3.68836
28.8629
87.1786
97.1869
73.712
58.2646
25.8325
10.8534
-26.7594
-44.2195
-35.3784
-14.1845
83.3774
156.349
89.4626
16.8846
-37.2482
-56.7866
-35.4492
-2.81371
-18.7107
2.63856
-21.2817
-46.8595
-31.6774
-44.8406
-77.3807
-105.471
-82.2407
-50.8668
0.792138
22.0143
20.7789
43.8087
78.0294
73.7318
52.4856
18.4401
-28.6509
-33.8842
-30.2187
-100.544
-71.9676
-11.2915
31.2442
36.0577
46.3091
77.2212
97.3428
64.1765
95.8251
31.4883
-52.2302
-33.068
11.1019
33.0179
20.3889
-44.1071
-100.448
-102.168
-43.7673
15.4104
32.0761
30.5562
0.454944
11.1545
26.1924
21.7009
-28.3657
-61.3381
-64.8467
4.25021
70.7787
19.8408
-37.6809
-65.4268
-44.0927
5.72022
51.7744
44.7177
8.14273
29.2677
12.168
-8.17364
14.7452
27.3454
40.1906
58.5368
44.5538
7.01593
-97.0338
-159.719
-113.72
-49.5287
0.362918
32.7988
25.3067
46.2906
63.4021
21.7315
7.09004
11.3497
36.0142
45.4847
38.9569
27.545
-16.0548
-99.4576
-48.2496
17.0911
34.5236
54.5734
28.1089
14.5074
-12.7008
-51.2842
-17.9264
-7.22926
-2.4775
26.5627
46.0067
26.3829
-24.8262
-56.9704
-98.4519
-77.4461
-42.4314
12.347
8.25431
11.767
40.5114
83.1513
125.973
86.8052
-3.62156
-36.0252
-113.234
-119.041
-82.5029
-78.1071
-11.4069
29.1281
11.2353
3.78325
12.0331
24.5491
45.576
65.7839
52.7078
51.3822
-0.365097
2.47777
23.5089
11.0485
4.71539
24.0093
71.949
74.0474
30.0778
14.9414
-44.8041
-61.7242
-23.421
25.596
52.1616
14.1688
-33.6907
-62.1494
-102.471
-113.142
-62.5476
-26.0998
-63.1522
-66.2328
-9.9519
-4.81751
19.9849
41.6056
74.2181
50.3811
-8.22054
-28.9889
-18.0402
3.77657
-8.46679
-21.2109
14.1413
61.321
97.473
106.109
97.4503
56.5606
2.75476
-101.272
-152.262
-124.342
-73.1715
-43.3477
-3.83889
100.174
124.782
45.0624
36.8771
23.4867
36.6332
62.9906
44.458
-8.16261
-36.9591
-59.3187
-109.86
-117.173
11.7942
38.8258
42.5042
39.8556
37.7167
52.0192
31.7976
-8.84973
-36.0708
-58.9566
-41.1939
-15.9785
-37.8898
-64.9989
-34.5411
-21.2099
-0.293207
22.8023
62.0956
43.1366
-7.18517
-24.5137
22.2508
39.2022
-13.2138
-7.18119
21.945
36.678
43.8452
32.8856
-37.0955
-49.4731
-22.3513
-78.193
-83.876
-10.9931
10.2032
43.8069
43.2883
32.0437
81.0633
52.2008
9.5895
14.2562
8.30535
-72.1944
-118.331
-79.7535
-30.5782
-16.2839
48.3873
77.7437
43.6403
36.0587
17.7855
23.6053
62.022
73.4525
79.3728
15.1864
-60.8772
-67.8761
-72.9078
-61.1193
-15.5921
11.2466
52.3721
54.2212
-34.3592
-52.4745
-18.0893
-43.8554
-92.1857
-51.3307
-3.80814
21.5854
-5.35663
-55.4986
-30.8412
22.0353
58.48
82.1336
82.9447
73.5689
36.1815
-6.39409
-20.3493
-52.6001
-39.9149
-14.9383
-5.26545
45.0664
40.5695
-7.83515
-17.899
-17.1821
-16.5532
16.7415
31.1695
34.2894
16.303
-26.2063
-55.2554
-94.2921
-75.5169
-6.53112
31.2583
46.5271
86.3156
47.0192
-24.0506
-13.6629
59.3613
106.092
53.8838
-48.3838
-101.331
-65.1313
-66.0545
-64.9891
-56.3889
-36.2545
-27.2656
-8.77394
22.4348
38.8806
58.1449
58.9316
43.7023
31.5265
36.6109
49.2991
37.2537
15.6754
48.4783
55.3305
3.08269
-42.1284
-82.855
-84.8144
-77.3574
-39.0216
-9.97942
-1.09879
-0.447451
11.861
16.3994
30.0581
17.684
-1.58362
5.98392
-22.154
-55.7678
-18.6052
-4.21108
34.9998
33.3354
6.77593
4.46462
21.6863
39.223
-11.3812
-27.3541
1.35589
16.3593
1.56216
-11.7574
-6.02469
12.8862
54.7538
59.8049
20.7037
-1.50661
-69.897
-107.075
-100.681
-37.9075
29.4187
63.5157
67.9685
46.1587
31.5239
-9.52126
-56.5291
-60.0209
-27.2974
-35.1137
-16.8544
35.765
39.1534
2.76111
-15.348
24.0972
91.0304
76.619
27.8855
-36.006
-58.3854
-63.5223
-60.4313
-27.0666
10.7282
61.2741
109.281
59.4327
22.9386
6.34135
-57.3147
-71.9995
-55.0753
-52.8467
-23.3861
16.0239
-9.07976
20.8585
27.4669
24.4489
-4.55965
-19.612
-56.0656
-47.6543
-24.1402
-4.01522
12.7135
30.2013
32.247
52.2574
68.7106
42.0415
-1.38884
-14.0691
-26.5998
-46.1915
-47.6393
-34.8599
11.4014
65.5604
44.3469
50.6568
52.4256
38.339
23.9872
1.90846
-22.4138
-2.55985
-9.32493
13.9012
0.710136
-59.6809
-60.7895
-36.6356
-1.85127
22.2666
13.8578
-2.78623
-63.0558
-103.18
-63.66
-19.559
12.8023
6.73227
23.6524
2.48664
-9.97375
4.73358
50.5257
32.9989
16.6634
34.714
66.9153
6.40548
-30.4461
-45.7007
-24.0076
-17.2159
7.15515
42.4877
98.0599
76.2729
11.8498
-41.9601
-49.9409
-34.72
-21.0957
-26.3836
-44.5297
-18.2966
32.7312
-6.02016
-31.0063
21.9592
44.9807
33.2058
19.9591
-3.39529
-19.7486
-43.3101
-51.0466
-15.4859
29.68
70.0141
91.7729
76.9697
44.5805
-39.5582
-88.9602
-78.0144
-63.7206
-37.8008
-28.2992
-7.20273
17.9461
40.0301
44.5188
61.1445
42.6692
36.6938
-8.27486
-74.7204
-73.9855
-19.8277
-64.7355
-54.6632
-30.944
24.3818
56.3548
49.9922
53.2631
74.5814
74.125
40.5974
-13.2307
-35.5274
-31.9512
-27.5084
25.5347
28.1437
-13.8987
6.79117
9.03775
-49.4388
-73.3064
-77.7705
-47.179
-24.139
-6.50606
8.99282
18.0214
9.052
-14.5838
1.04926
32.9358
34.2637
15.7671
7.20399
-13.7954
-4.85837
-1.75901
-3.48377
30.1289
78.4057
87.0593
31.3262
14.2783
5.09286
-0.86612
-27.2441
-42.5702
-28.9026
-21.1106
5.24072
-5.14362
-23.0087
-8.66915
-21.9033
-55.7553
-34.6291
-2.41142
-2.32602
5.80709
26.127
24.5394
27.0637
18.9022
43.9699
45.9361
16.4692
-40.4126
-62.7057
-81.2918
-75.9709
-40.5219
-8.87083
2.92965
22.8991
49.42
55.4697
38.1539
33.0462
30.4329
9.82004
18.426
50.657
52.0434
20.0637
-6.25425
-33.7207
-59.2196
-34.8774
-2.33925
-0.710744
3.04395
33.1945
49.2904
-0.15213
5.27883
-24.2484
-79.1571
-102.022
-110.263
-114.635
-46.5573
-24.5858
-26.1293
10.2599
55.0672
95.0737
124.681
114.408
115.715
69.8394
18.4909
-35.9376
-65.1026
-42.5053
-33.9133
15.6447
54.8981
32.8953
20.9404
9.63817
7.45755
25.1736
13.0511
21.5538
-37.0613
-88.3529
-112.151
-87.5493
-64.2266
-35.3323
-15.6272
-16.1236
-4.49916
38.2743
14.0111
-0.305986
10.9676
47.5491
35.5262
8.00956
-8.49672
12.8761
50.7109
-24.8494
-23.9859
29.5698
67.2718
24.5815
10.837
19.5669
8.23373
-15.0353
-56.1176
-41.5567
2.92938
5.74695
14.8781
41.3816
83.9332
35.8061
-25.1356
-77.5724
-91.0778
-28.9498
51.2616
83.3245
41.4138
25.9434
-86.296
-123.824
-98.4445
-54.7928
10.2184
42.9223
76.2752
74.7538
0.581805
-30.7393
-58.1956
-16.3513
34.0826
77.0222
65.954
24.8014
-44.6059
-53.0094
-10.8673
-0.482819
34.6282
53.4985
40.3154
50.3091
57.4625
-27.2567
-61.5866
-49.1927
6.07143
2.1948
-29.4744
-53.7944
-68.0129
-56.9159
-41.409
-4.77812
42.8946
30.1571
15.3641
12.3074
62.8884
66.3158
17.1743
-11.8044
-45.8702
-36.7562
-43.2474
-42.2098
-8.91272
24.2918
48.6542
2.39654
-34.0707
-48.3297
-50.5173
-14.6464
7.80228
24.0319
66.0185
27.3914
-3.84637
7.00327
51.7117
64.3331
59.1688
68.9008
70.969
13.2468
19.4848
-9.13078
-78.0045
-69.2815
-31.0496
-6.45757
-14.5763
-20.2567
-7.54426
-60.9133
-54.8812
-4.35804
-6.53177
-15.0203
3.979
20.4813
4.75442
-42.0523
-80.8981
-90.0213
-71.3804
-13.456
58.291
135.229
168.984
112.605
51.9091
-14.823
-117.191
-97.1525
-32.814
8.28862
60.6773
22.9655
-0.689839
-17.5416
-7.41526
31.5346
39.6305
63.0586
39.9816
1.70196
1.32452
-4.09445
-34.6194
-26.6873
-9.83525
15.1596
22.576
11.8385
-11.3107
-11.0688
-7.51726
7.76839
-2.08927
-19.982
-30.5952
-37.9672
-58.7813
-42.7102
-46.8155
-86.5177
-98.4603
-44.5227
-18.1371
9.81778
72.2796
85.6454
87.8013
90.742
41.9479
-10.7471
-33.2005
24.9581
57.8451
37.9023
-21.1622
-59.1181
-55.6472
-34.9381
-5.35474
75.6952
116.745
46.0053
20.7775
16.5906
15.0169
-6.16914
-11.3946
-34.249
-8.4721
24.3393
21.0844
-25.8565
-61.2794
-90.4669
-71.3573
-26.4546
16.6772
19.8733
-12.8388
-9.32177
6.76541
27.7186
28.3371
9.43683
-38.4751
-74.5939
-46.8831
6.5104
39.3724
48.8917
11.7357
-15.0172
-17.4741
4.75443
45.284
46.1362
25.8734
7.3138
11.3895
-0.0328393
-17.8101
-2.66623
3.24143
-42.2963
-47.0432
19.3114
28.2867
0.726449
-25.7376
-14.4782
26.2165
15.1891
7.03716
24.1106
10.9956
-27.1976
-20.6981
-10.7992
7.35981
-8.53224
-30.4918
-18.0992
-2.20127
22.4311
26.6965
13.684
48.6513
156.988
126.415
16.3622
-43.6654
-100.696
-160.428
-108.424
-58.7262
4.74462
52.9676
87.5823
46.5814
-12.3752
-56.6344
-118.861
-109.758
-25.0115
34.8814
49.8093
58.8741
-55.2217
-66.427
1.24041
63.4182
115.992
120.45
84.2996
62.6735
-16.2243
-48.2361
-52.4047
-20.2721
28.3923
38.1787
48.8201
69.4584
16.399
-39.4086
-86.8177
-122.6
-93.5877
-69.0407
-7.62427
10.9198
-0.268654
32.3654
23.3618
18.8973
43.7344
30.6795
1.14081
16.3393
21.8521
4.85595
-15.5139
-15.5297
4.62981
9.94679
2.48437
19.5687
26.4067
-7.74025
-59.6571
-56.8335
-31.1685
-20.2176
-18.7422
-20.2013
26.4785
21.3057
-32.0446
-43.5787
-27.7313
30.1499
71.3998
33.9994
29.6243
40.7777
14.7317
-1.90727
-6.32361
21.3814
38.3263
-10.4311
4.65424
26.1084
33.845
-18.9851
-96.4617
-82.6883
-32.848
-13.2647
-2.66473
3.81532
16.1514
-6.81491
-16.6157
6.02519
33.3466
15.3334
15.5404
25.3335
60.2905
72.568
52.8318
-2.97443
-37.7044
-17.6315
11.599
11.4361
8.66555
9.05797
28.4783
-16.0944
-49.0293
-59.5992
-67.2615
-59.7591
-29.1032
0.588136
41.646
96.3114
73.3391
-14.3964
-97.2068
-190.312
-166.895
-5.51374
62.2681
52.5152
39.6537
26.1845
9.82594
46.4815
46.4744
34.823
25.7302
-11.4347
14.3548
14.2425
8.2313
0.263162
2.12369
54.4663
81.1513
76.1073
44.6437
-38.8126
-46.1502
-31.4785
-25.7907
-21.4373
-22.24
-45.0818
-44.1105
1.53956
45.4396
62.9476
13.054
-37.1175
-71.0075
-75.8722
-49.0698
-3.275
28.6653
52.4257
-3.79044
-65.5637
-80.0247
-14.0107
29.8025
65.7111
10.4042
8.84642
35.0009
28.7501
4.38919
-6.0104
-3.11618
40.316
20.3534
-9.70289
-27.3577
-41.9312
-22.9677
37.7458
80.5087
99.7876
81.7549
18.0366
-36.4355
-83.5853
-59.4697
-25.7564
-3.96008
-15.1558
-42.6179
-33.9557
-21.0962
-17.4869
-2.94953
7.40156
41.2183
33.5339
-8.07659
-31.2031
-18.2511
9.91649
8.02892
24.5697
45.6199
8.40036
-20.4467
-52.334
-36.4527
-3.31618
0.116274
-6.59411
28.6252
53.4364
54.6479
-10.1452
-40.4363
-25.9208
13.6483
59.1271
79.8664
86.1957
31.9524
-75.8812
-95.3634
-72.8631
-37.157
7.81866
-3.51148
-9.13408
-4.79669
6.77161
82.7582
77.7984
61.0015
-17.8749
-134.66
-96.0652
-59.3342
-64.813
-49.2815
-69.1705
-27.4068
45.0174
65.3692
70.6299
78.1375
79.6031
29.0391
21.0932
45.9357
58.8093
18.3034
-2.35387
-11.0026
24.7906
59.8434
-0.646654
-35.3668
-38.3455
-35.3266
-49.5451
-43.0125
-17.0817
0.624692
-1.36991
-22.9069
-18.3947
23.6984
24.2726
15.7032
-10.0078
-43.8303
-51.2031
-69.457
-27.1005
0.163227
-19.358
-44.8664
7.70675
36.3653
47.1079
39.2473
49.4491
30.694
14.0317
1.35424
-31.526
-14.2923
-10.3362
-29.2132
5.11168
0.89121
-25.3956
-11.3799
21.4115
66.1582
91.0577
94.7153
83.1752
48.4072
-2.61144
-18.9323
-42.1474
-57.6906
-47.2261
-26.37
-16.1199
-60.8535
-77.7069
-44.1187
-31.738
-31.5019
-9.6582
34.3252
63.9451
81.6551
32.5451
6.25188
-36.7143
-113.058
-68.7392
-9.91437
27.2748
30.4495
19.6036
11.4629
18.6799
36.3933
50.7469
56.6657
30.0123
45.9136
5.46782
-40.6677
-58.8404
-64.9667
-13.2086
22.5071
38.5708
88.3438
36.6782
3.60779
-11.0375
-5.16269
-17.0737
-35.9522
-45.8256
-15.3175
10.8311
-42.7868
-88.6637
-78.4149
-0.569494
25.2118
-5.00856
-19.0581
14.7
44.6585
33.1825
17.4905
18.6601
18.6243
30.715
18.0461
9.12943
12.1621
-39.1748
-79.0707
-50.2125
20.6026
68.2385
77.3209
48.1097
24.2089
-18.5569
-71.072
-66.6316
-24.8295
41.863
60.1851
67.4887
37.0205
-45.5925
-77.408
-74.428
-74.7886
-20.3907
10.1324
13.8528
35.3672
85.0894
58.3824
24.4396
-20.5539
-12.7977
22.3077
-5.16092
-22.7648
-43.9523
-61.7511
-59.3176
-25.0761
29.2686
66.4618
87.7563
80.9058
79.53
59.1103
-51.639
-78.1244
-83.0234
-75.8922
-48.3649
-15.9377
24.3891
59.9082
65.0172
10.6589
-7.34109
1.65096
3.49954
-1.2365
1.32485
-3.72371
-24.1481
-26.433
-46.5012
-80.0204
-37.2657
-25.2236
-14.5069
21.8032
-2.28476
25.6549
68.4006
50.0868
26.2017
14.627
5.35051
17.7384
-29.0016
-69.4577
-69.9157
0.991228
75.0053
83.02
41.8668
51.8451
36.8334
-11.3617
-26.3475
-37.711
-0.812452
11.9752
16.7245
47.4406
88.9306
2.73017
-80.7648
-118.282
-59.9182
1.89738
-12.2022
-44.8443
-78.3991
-107.283
-39.6624
23.9289
53.0317
88.8705
85.51
44.2167
12.6047
-3.29952
15.1436
35.5724
-16.8977
3.8679
-37.3182
-34.4187
29.7564
18.6282
28.0954
18.6033
19.7551
35.0527
15.1963
1.54905
-12.9149
-41.6765
-68.8877
-47.943
-2.42136
17.4246
-11.4121
-42.1669
-17.2104
62.1872
93.1435
60.5414
-21.836
-48.7896
-46.593
-53.346
-50.5109
-27.1632
6.18064
-4.88481
-19.4077
19.5932
45.9691
63.578
73.7368
6.68788
-61.0764
-79.6537
-60.3718
-45.9291
18.6993
57.0993
51.5607
42.8746
37.2233
37.7334
-20.022
-18.9185
-23.4385
-30.4073
0.0485552
17.603
62.0419
67.1838
2.81494
21.8241
3.48
-40.318
-69.4729
-71.8254
-5.84219
3.5813
4.92813
39.9473
36.8937
1.8354
11.2894
15.3653
16.2352
-0.788092
-24.6279
-61.9613
-76.8791
-59.7929
-17.0597
36.9743
85.8824
60.6917
42.7515
-45.4932
-145.218
-78.5887
-14.881
38.9895
91.6557
83.2008
56.7891
-65.2275
-139.792
-56.0756
7.49523
61.8403
62.953
42.8122
66.6166
54.8023
9.76459
-36.7
-62.1325
8.50616
68.3624
50.5589
40.4597
26.7291
-12.5471
-54.934
-54.7478
-7.10538
43.7904
27.8994
8.2056
-13.771
-77.4893
-103.207
-81.6071
-74.8875
-32.9422
37.5038
60.2354
45.2736
57.2611
1.13039
-65.765
-62.382
-43.6672
0.0328598
45.4733
95.4531
99.6944
89.553
27.2793
-37.4837
-27.7605
-37.4503
-89.376
-105.828
-47.7443
24.1154
55.6153
66.8581
63.412
52.3536
42.1945
-11.1748
-39.2971
-7.75869
-12.7362
-19.6046
-9.20903
-22.1915
6.56191
13.073
-15.3329
-6.31101
-10.4297
8.05991
3.64582
4.63563
16.4633
35.4247
42.925
72.1015
41.3677
-14.706
-63.7052
-117.532
-116.405
-48.438
-19.809
76.5164
102.7
45.4331
-7.02906
-92.9173
-59.4022
-33.6858
-18.5342
-12.7717
-1.18074
41.4123
58.4503
3.13852
-44.5636
-9.48095
37.8475
98.2452
101.541
42.1021
-51.6485
-131.728
-121.483
-38.4635
59.5899
137.375
131.191
95.3269
37.0239
-38.6707
-70.3801
-92.3743
-106.643
-51.1835
33.7373
46.1384
59.6965
36.7527
-12.645
-38.9343
-30.7626
-34.2144
-12.2743
23.6482
36.2148
38.6512
8.54237
-17.7764
-41.4352
-23.9818
-18.4383
0.187376
16.5484
38.3838
31.1379
-43.4359
-71.2741
-63.1971
-12.3995
14.8206
27.8295
10.8051
13.1852
28.2707
-27.6666
-38.9379
-3.06157
38.355
63.4415
67.4179
51.6359
50.9781
10.9776
-51.2271
-42.339
-48.4236
-14.7802
40.8152
17.3683
-0.283119
-88.8863
-144.133
-76.9752
-46.0887
-3.2413
36.0781
39.4296
10.3099
8.00678
18.8948
42.7612
75.1625
131.878
128.321
89.477
77.7099
-66.2319
-158.922
-88.0453
-24.7358
45.9968
62.0887
17.3584
1.64934
28.1624
21.1762
-32.4603
-33.6591
-22.5764
-20.2742
-19.8242
-45.0457
-46.2947
-36.8868
-61.4974
-56.0845
11.0907
40.0183
32.3991
30.8973
23.5388
6.03321
-1.66553
-38.2379
-72.6152
-61.9084
-22.0909
6.31595
12.3452
9.65335
29.119
22
24.4922
38.8323
44.4065
16.5582
-55.5231
-16.5159
37.8672
20.456
26.4137
61.2381
45.6643
13.4506
-13.2611
-10.8921
39.2809
23.8713
-19.8051
-13.3555
-20.4274
-22.0862
-60.7118
-73.7037
-36.3768
23.4321
98.3309
79.8014
-35.5243
-45.3512
-10.9208
-3.00683
5.52112
4.87226
3.80098
13.8778
-28.976
-16.014
29.3089
14.6978
-5.58611
-28.3509
-28.273
6.80313
-12.1828
11.6565
42.8021
23.4212
12.1987
-29.7509
-66.4475
-47.0205
-85.7152
-57.0724
23.3042
52.9752
73.5981
22.7103
-66.1581
-43.5111
14.8417
66.3037
53.1433
78.186
97.0537
6.95707
-81.549
-166.842
-105.307
53.4511
113.106
51.547
27.8527
-8.53051
-64.8629
-49.5804
-23.8693
22.0922
97.257
118.588
59.2885
17.2242
0.46185
-55.6485
-98.9686
-83.784
-46.2813
53.035
55.3937
-12.3083
-25.9954
4.67589
30.229
39.0472
55.3714
51.4513
-13.5621
-89.0232
-99.9287
-108.012
-80.1683
-51.4764
-25.1321
7.30872
32.0604
62.256
74.1995
61.3016
51.8261
24.433
31.5284
72.2709
18.7587
-12.7421
-35.7348
-89.7371
-49.2925
0.445947
8.33978
13.9285
23.2291
-1.68742
-39.6348
-43.5369
-22.5127
5.02389
30.2624
40.7411
58.3693
102.81
68.3562
-27.7042
-58.2104
-103.148
-114.07
-89.292
-58.6561
-0.174066
48.794
21.1486
23.356
63.1652
85.0604
94.6131
83.1271
0.499079
-41.9298
-107.685
-130.918
-97.9784
-42.7145
-5.79913
60.8265
123.879
135.568
110.416
46.6899
19.5913
-38
-58.2052
-23.3233
-37.9355
-30.4841
-39.6347
-42.6507
9.52917
32.2231
62.9352
54.8547
-19.8648
-23.164
19.7541
-18.0648
-67.1887
-59.0393
-51.1795
-25.6407
-19.9072
16.546
80.8325
68.3489
-14.6075
-44.4715
-87.3363
-70.936
-13.0292
20.8915
54.5686
67.627
-11.0692
-52.6967
-66.5116
-29.2893
24.4036
48.0463
90.6979
108.352
57.5969
22.7673
-15.8193
-69.0828
-45.8072
-29.8204
-7.21602
15.9825
24.1127
42.712
16.9563
-15.651
-21.2857
-22.3361
-0.524242
39.1861
-7.52476
-61.4427
-99.9196
-168.054
-73.8588
32.6446
106.254
155.865
98.6954
64.6932
50.9915
31.6166
7.71753
-13.7632
-15.1315
-7.08741
44.1933
5.46589
-54.1812
-63.2666
-15.6675
9.57373
3.48495
34.7461
21.5947
-0.996317
-15.498
-88.1454
-37.5955
-25.4944
-29.7954
-40.4353
-55.0958
-44.9003
0.399202
-26.7391
-47.8243
-11.6075
8.48746
8.5136
27.101
49.4621
65.3107
62.341
41.7053
16.039
-22.0521
-16.8253
10.5556
29.6842
49.2322
26.6229
3.26152
-7.74841
-32.6487
-11.1147
15.5629
8.74387
10.9738
31.2054
0.641211
-23.5036
-6.61309
16.1302
12.584
-10.031
-25.9305
-6.81711
1.76074
-24.2043
-26.4765
4.49389
25.3782
6.1641
-9.23471
18.9025
47.9217
2.60801
-13.5281
-49.1647
-51.9325
-30.6211
-50.6902
-27.2402
6.82284
-39.0687
-55.7272
-19.4832
11.6155
52.0426
57.4597
74.7519
72.9996
-16.9672
-48.0177
-22.7817
-47.1313
-26.6152
-13.1363
3.98256
49.4323
67.2916
68.4166
32.491
14.6981
65.4296
123.672
76.8096
-6.04715
-97.1667
-158.843
-99.5526
-6.81543
52.5431
46.2714
-41.2677
-137.084
-81.0802
-26.4015
0.560709
26.2227
27.2433
37.77
42.2935
24.2846
5.30683
-27.8175
-10.8823
8.23839
31.6504
62.726
31.14
-17.5861
-7.60808
10.6557
61.7073
106.292
48.1045
-19.0574
-57.7579
-81.2701
-87.7417
-81.8157
-36.3637
-36.5313
-69.1605
-72.5353
-43.2578
-6.63426
44.2225
58.7211
53.4933
35.1672
38.4867
47.6219
18.9294
10.8337
5.49037
48.8121
91.1954
130.29
91.7338
-23.9176
-55.4478
-81.7511
-112.182
-161.372
-110.915
-10.2301
58.9318
138.225
125.929
49.9283
-69.8566
-165.808
-111.988
-47.3977
27.2849
17.3559
-17.2759
-20.1846
1.78468
56.1915
78.6402
100.691
121.927
136.164
65.2844
-29.0862
-50.6443
-83.3238
-97.1313
-74.7687
-12.051
50.7725
61.0832
26.2405
5.67451
-14.8417
-38.9029
-78.2553
-64.3248
-4.69601
39.9898
23.4153
-7.80377
-10.0314
-1.73302
-1.64608
-45.3796
-98.8074
-49.1788
37.8351
73.0084
22.7749
-39.6382
-47.8747
-41.0725
-47.8967
-20.3841
52.2424
114.941
81.3731
-14.733
-43.3756
-10.1764
45.111
46.0181
50.3201
71.7161
73.1464
-3.11459
-26.77
-17.8561
4.07261
-16.6183
-35.7529
9.59664
54.86
24.8472
0.164358
-47.2706
-64.9524
-81.655
-39.7194
40.5314
23.3537
13.1835
-11.3986
-17.0274
1.03675
31.2422
36.3121
32.948
-30.0147
-37.0986
26.3392
5.93959
-61.7472
-129.227
-137.358
-100.168
34.3539
126.299
106.481
26.6203
-14.0417
-23.408
-33.9341
-75.2015
-48.7113
20.1317
27.1346
65.9102
126.24
103.937
76.1704
11.6023
-13.96
4.42439
-54.4724
-48.0891
-72.5456
-59.0812
-10.9135
35.4153
54.4966
48.9175
71.7518
122.839
84.7492
39.4344
-1.01203
-52.2012
-89.962
-119.926
-101.157
-40.5988
-8.80984
28.7881
20.2832
-19.3837
-42.8745
-102.715
-96.3961
6.67059
59.1446
38.3394
12.2898
-29.4771
-40.3636
-30.3652
3.08665
29.7609
72.9838
124.001
41.3913
-60.7738
-63.6789
-44.614
25.8571
86.7934
83.8334
124.346
100.401
16.1779
10.2985
2.00812
3.03134
8.32307
3.59138
-36.3297
-60.3506
-68.7067
-105.69
-168.416
-156.45
-6.87117
103.408
152.025
111.228
-52.7222
-105.091
-106.751
-93.2097
-65.4529
-53.7675
8.32819
36.5627
18.3709
-13.9833
6.20829
24.3906
40.9407
87.0676
132.296
195.937
205.01
107.677
54.7572
52.8065
39.2709
-34.8433
-89.1876
-63.7238
-137.503
-199.178
-204.983
-157.724
-76.7837
0.994276
17.2324
15.1858
15.8524
35.4768
78.5995
52.5363
-8.44644
-10.2922
-10.8046
-5.28949
40.7772
88.6651
117.757
117.67
125.698
95.8348
33.4861
-52.7751
-63.6383
-11.9287
4.57082
-23.2792
-72.4032
-102.815
-101.028
-49.461
-63.9707
-66.3744
-33.0763
-69.999
-109.032
-88.8171
-63.7551
-22.3749
35.9105
93.6289
130.525
103.074
86.0968
54.5678
29.6856
26.1311
31.1163
35.5247
30.8179
32.3049
-17.9722
-6.40208
25.2035
47.4676
69.7761
39.4048
-7.46199
-27.3718
-65.564
-80.486
-80.879
-36.7204
-16.8559
-42.8664
-53.349
-7.48562
20.0461
9.84926
-0.371453
-13.989
6.24811
-0.400513
-31.8055
-16.9842
24.6271
47.0407
35.3493
6.34981
17.4238
26.6085
85.1421
151.674
115.957
37.7776
-142.579
-175.374
-126.953
-82.8553
-20.895
10.8949
14.8444
28.5077
-4.63114
-57.7535
-85.1684
-52.929
42.8617
60.4596
62.075
58.2692
43.3587
2.12069
-27.0721
-6.14224
87.7195
96.1849
64.3982
50.4716
38.1736
22.3727
-9.81166
-39.5499
-76.2405
-71.5171
-9.68845
10.3211
14.0898
-42.3697
-43.7014
-25.9207
-47.7946
-66.572
-28.5091
10.9706
26.8071
-24.8692
-57.5747
6.56051
17.7023
23.8042
14.6223
-14.8065
-50.7504
-58.8584
-8.14064
6.12035
6.74732
39.985
39.6154
25.6899
39.4401
49.3069
31.975
28.4376
39.0045
41.6614
45.0534
15.6673
-7.75613
-22.4685
-14.0148
-43.6594
7.96681
65.4255
55.6035
31.2459
1.63064
1.23439
7.89989
15.339
-51.7395
-66.8172
-50.0017
-51.8958
-33.1484
-17.96
-17.4263
-9.43646
-38.5466
-81.2128
-51.1593
-0.220989
18.2386
30.9899
21.8337
33.6606
-8.41186
-24.8115
-17.0904
-24.579
0.202921
22.1598
43.2196
63.7168
21.7035
2.62552
-6.48558
-36.0334
-15.7672
26.7734
32.325
51.8464
52.0959
-1.73285
-34.2992
-57.721
-20.0518
17.7334
26.153
27.3481
34.0423
45.304
5.43853
-27.6849
-11.6202
10.9142
36.176
43.3259
25.2696
1.04006
-42.2229
-60.9202
-67.3903
-27.2917
-2.61812
1.23658
14.6121
12.1097
-9.10084
3.49273
30.3735
21.5094
-14.9101
-79.5424
-91.3288
-77.8508
-81.1587
-33.4493
-4.96141
-14.5145
21.7059
51.0357
72.0527
64.5527
44.6649
17.5185
-0.567682
22.0486
66.1157
68.1103
29.1612
17.3673
55.1942
43.954
38.6216
-2.89879
-22.7824
-69.4195
-92.1394
-39.7382
-15.4789
-21.2186
-27.669
-7.06215
-12.9611
-29.508
-27.3696
-30.6339
-50.048
-64.625
-27.9071
-36.5161
-19.6109
27.4317
55.6204
80.6151
94.0346
104.744
99.9021
14.8106
2.27181
32.193
22.8338
-3.41577
-28.741
-37.0505
-21.0804
-35.5856
-31.7193
-15.6795
-21.8571
-16.1882
-11.8703
30.5076
43.839
-8.30258
-17.4871
-27.5994
-36.6928
-12.4385
-13.1322
-22.1267
8.98846
-4.58923
-2.9438
-19.7844
-22.3772
-14.2799
-2.67318
0.825964
-6.94468
6.14749
23.3441
-12.608
-12.1272
24.1757
15.8051
-22.647
-23.752
28.9136
48.6004
3.14095
-19.9379
-3.58143
25.0271
59.8267
43.8607
37.1882
13.9523
-32.0416
-35.3693
-0.841157
19.1516
77.7883
65.5298
31.514
-1.34443
-42.9046
-104.537
-96.5265
-89.2377
-54.4022
-38.0168
7.06758
59.4687
107.304
70.7148
48.2052
4.23991
-5.6195
2.11718
7.93135
-10.8913
-15.5327
-39.756
-52.3577
-16.0425
26.1697
62.8672
30.9956
15.5614
13.468
-13.2736
-75.1105
-77.5077
-80.3739
-66.3706
-37.3336
5.98967
37.3757
61.8922
48.8545
19.466
-22.3194
-35.205
-33.3943
-10.1349
26.9225
19.2843
-23.3984
5.7902
36.9585
55.8256
86.1214
61.0326
45.833
44.2675
13.0664
-11.6308
-32.0937
-102.142
-125.737
-74.2785
-0.768003
12.6606
43.9599
32.6497
33.449
70.5612
78.3057
63.6721
58.1008
-23.3042
-94.5067
-95.0074
-105.647
-74.1936
-51.9769
-13.156
30.38
61.9003
82.1715
54.6797
-12.2849
-0.827714
17.2159
8.95666
-13.9455
-21.3954
-12.2223
-7.16754
8.7451
-5.92244
4.90137
-18.6292
-8.71673
20.4542
28.6008
21.9846
13.094
-31.1625
-69.8175
-43.7897
-15.1371
11.9807
20.8039
17.5783
21.1148
5.93333
-6.90372
-22.1846
-45.253
-5.52899
18.9125
12.7707
30.6734
17.5466
-17.9589
-7.17639
3.64359
30.1303
31.694
6.53126
27.9509
15.135
-17.3563
6.95778
17.6844
26.6618
40.9757
15.908
-3.81853
10.5634
-35.0535
-22.8828
-8.00972
-29.0207
-60.9964
-59.4373
-4.1756
43.3799
31.8354
0.981482
-21.2235
-18.9794
-3.72893
-6.8793
-57.1094
-112.965
-110.082
-71.3072
-8.6788
27.8161
99.2825
138.301
131.858
46.4163
-9.02939
-40.9038
-55.5249
-30.3069
32.3832
79.1172
96.1417
93.1304
13.3048
-27.9484
-6.52657
29.8927
25.4614
1.09857
-35.1596
-28.7675
-39.1812
-72.9854
-85.4429
-39.8239
23.9129
37.5204
13.296
-4.53178
-7.18396
-1.99689
-44.1619
-69.1353
-16.0413
16.46
23.3023
22.2622
7.7215
3.8349
-6.60337
-45.148
-31.8283
-25.3092
-29.9729
-13.6973
14.0796
39.5927
23.4139
23.6572
27.3614
21.5545
25.9807
4.12748
-0.379737
36.3499
18.7684
-2.18135
-6.07913
-2.41357
-2.09021
6.60762
9.65931
37.2224
2.3196
-4.28535
9.98869
-12.648
-24.0926
-5.17278
-17.8208
-4.05199
74.5735
60.1665
61.6743
6.95399
-80.2961
-88.4859
-81.2414
-107.616
-97.4893
-13.0518
-8.30131
-14.2578
11.6606
34.3724
54.1953
77.8661
104.496
67.7589
0.399788
-32.5124
-65.4574
-28.8903
-3.59716
-2.03738
70.9818
82.7384
44.9148
38.061
28.1809
-8.73974
-3.45352
-17.0315
-11.3034
-3.74347
-15.9524
-69.1065
-90.1986
-78.1411
-26.2072
-11.1739
-23.9787
7.75808
36.117
-0.199496
-8.67703
-32.2324
-28.0985
30.4178
29.8673
30.6553
15.7707
-59.2695
-48.2787
-32.4462
17.8117
71.4549
48.3987
21.1232
15.5017
-7.25121
-4.77562
7.07695
-2.52061
12.6259
7.31801
31.1337
101.958
51.8466
7.96347
6.75699
10.2119
27.7702
4.28218
-13.4
-21.2408
-33.4288
-41.0698
-29.476
-31.7808
-22.613
-16.0616
-21.3806
-11.2837
10.1252
-4.02276
17.8059
-13.8673
-48.0578
-65.8686
-85.7675
-35.6644
-1.30658
-17.004
1.35063
9.52995
24.3671
41.0148
42.9248
52.6173
83.664
57.7751
-1.57308
-15.7801
-21.7636
-51.0887
-59.3781
-24.0386
26.9512
86.6078
88.0163
28.6231
14.6648
14.5242
-17.3973
-34.9244
-19.5023
3.111
15.9454
30.2427
-34.8562
-52.988
-17.1008
-20.0399
-17.4828
28.6895
41.1539
37.364
16.9237
-46.1465
-48.4139
-18.6799
-5.30133
11.0575
24.9925
15.8015
-7.54835
-33.9191
-44.8689
-42.0433
11.7532
22.5651
14.5265
5.77412
-16.7995
-42.0845
-41.0723
-23.0314
-7.5782
20.0215
30.2293
33.7663
48.7533
50.4769
9.41617
-5.3704
28.5029
40.1478
20.3888
-35.557
-70.9962
-41.831
-22.5627
-36.1813
-6.83204
58.3524
75.1004
46.518
34.0499
35.219
12.3899
-37.3958
-48.708
-26.0153
5.79638
23.6142
11.1557
33.029
-2.31467
-44.1973
-56.4813
-44.6058
-18.6905
1.2043
-6.20611
-1.88675
-26.7186
-18.5443
7.19476
4.6292
-0.287676
6.64736
17.7594
16.1542
-27.3651
-38.6397
-57.5426
-29.9847
19.7742
21.5554
53.2429
17.6374
47.959
61.9798
-8.01671
-6.20348
33.5728
-28.1943
-38.3435
39.071
60.2202
63.2827
81.2841
49.3914
37.1674
-8.99177
-43.1047
-86.4422
-68.1498
-23.4175
-13.5923
-6.3753
-27.4759
-13.697
46.1507
32.8815
13.0452
25.7933
-13.5201
-74.3888
-100.342
-67.9836
-87.2301
-64.5734
-32.7642
-7.8814
35.5288
33.7327
9.19186
15.2147
2.06842
-12.2542
-19.6543
1.21253
61.7789
94.0022
88.3522
60.4686
49.2825
42.9852
45.6617
16.1638
-28.207
-58.3065
-18.6595
6.24441
-21.9656
-1.20103
18.9861
30.7668
16.2955
4.62779
16.6425
14.851
-22.3737
-60.363
-82.9997
-67.2498
-28.8632
-11.8674
-9.2483
-2.37953
-12.6342
-9.81569
-0.777464
-1.15181
15.1605
19.4611
21.1079
39.5288
57.0467
58.5144
19.3199
7.55152
7.31158
13.8042
2.948
-8.2826
-9.29032
-7.53172
-55.4794
-76.7893
-54.7585
-18.6978
-21.1009
-14.4694
13.4337
38.9858
8.04282
-62.6447
-69.0493
-27.5094
18.3695
37.2852
50.7454
66.7522
74.8024
43.8242
-19.6877
-32.1342
-0.561762
13.4382
39.2169
34.9574
36.7537
12.7256
-32.0492
-53.3373
-38.4938
-1.8936
17.4808
33.7754
49.9244
16.3285
-47.6559
-74.4614
-78.3341
-33.4232
-0.203828
-2.12847
24.1418
-10.156
-50.643
-9.78931
23.213
36.5426
40.5916
21.5996
16.8847
19.4014
22.3349
16.189
-9.63737
-17.4978
-1.35445
1.17735
14.8572
12.0965
-7.27563
-30.7368
-51.1191
-11.4385
20.1217
8.22227
4.81015
29.2616
40.2719
-6.04394
-29.6309
-29.029
-20.2955
2.44078
16.7239
23.5232
23.0763
-28.0662
-46.6657
-21.6364
22.8835
38.2176
36.9202
21.0507
32.1807
14.5646
-53.8927
-34.7836
-26.0724
-18.9304
-4.97716
-14.2567
-36.6492
5.78345
1.3596
-23.336
-12.3898
16.8546
23.7088
13.4507
3.81165
4.18236
-23.8857
-1.95186
-4.35443
-7.20579
16.8748
-7.1789
2.83569
70.832
88.521
67.5995
48.6193
-24.6553
-52.6232
-71.9744
-57.716
-0.324415
51.1242
56.5596
-11.104
-30.8984
-16.5551
-8.04887
-17.8102
-30.8336
-13.1405
-5.39116
-12.8617
-8.6553
5.59651
19.8943
5.42617
1.25218
18.0638
65.5767
25.504
-18.3669
-59.4342
-44.9852
20.548
40.686
68.9526
13.7295
-132.906
-121.957
-53.0904
-12.3478
59.5204
84.3331
65.0163
27.6535
-19.5736
-33.4917
-28.9634
-17.0733
29.3327
35.1858
29.7242
38.0505
9.81878
-36.9877
-44.7671
-18.3673
50.4814
47.3349
35.213
5.30711
-36.2773
-52.565
-51.3975
-25.2133
13.7367
17.0078
20.6762
12.7903
1.68634
-4.34814
17.88
-8.74036
-60.4146
-20.541
11.0309
35.8286
59.1625
38.7501
-8.20696
-45.3498
-99.3655
-114.657
-40.9853
32.2055
79.8983
94.8013
91.1069
47.5989
-12.7327
-4.49844
-15.6222
-23.3464
7.73163
11.1559
35.7934
-8.14733
-74.5507
-95.6376
-59.1374
5.75038
69.1105
57.5542
25.7787
14.1623
-26.6805
-24.6236
-25.7678
-23.0403
3.51603
12.4256
25.2641
42.1563
-9.02996
-26.3387
-31.2068
-11.7138
40.8256
39.0865
9.15878
15.307
-24.4301
-25.1086
2.89307
21.245
8.15243
-9.63012
7.36325
2.27654
-27.8415
29.4843
20.3474
-66.9256
-36.1408
-5.12439
-1.16231
31.0738
63.5169
43.7237
6.32501
-49.5095
-64.7618
-83.3423
-79.404
-59.9975
20.489
42.6593
44.7779
69.8695
83.6796
2.77325
-46.3062
10.0886
78.3766
50.0457
-48.597
-90.3237
-59.7712
10.9507
58.1849
47.9893
21.0371
35.8552
49.4595
21.7512
-8.30705
-11.9445
-34.4829
-61.4495
-57.3864
-35.7469
7.11722
-6.38296
-37.7097
-19.8244
17.6552
39.5916
32.3641
1.855
-22.6372
-14.4426
-9.34511
31.8224
35.4011
27.3168
-0.492099
-11.1234
18.1669
31.1982
-8.51436
-30.2025
-63.5954
-61.3473
-14.5872
12.4959
54.0855
4.37506
-16.4721
5.41373
30.6789
49.012
68.5006
15.9317
-31.688
-16.4949
-53.3898
-89.5706
-83.065
-54.3385
38.495
87.126
94.4519
66.5477
34.3539
18.9686
-42.4054
-14.3507
2.97453
-7.60443
-19.7577
-36.9644
-23.5302
11.2588
9.81112
-37.7874
-5.073
4.00905
-45.6655
-46.8519
-7.90216
-1.68538
19.1592
9.17577
29.8923
29.5671
32.1951
34.7547
-2.33382
-7.14068
13.9837
-23.34
18.0361
7.84614
4.70031
19.4449
21.316
41.2098
42.0633
-10.225
-28.4913
-4.04463
-35.1827
-15.4611
-19.3748
-94.9642
-84.5978
2.63909
31.9191
54.8213
48.7609
13.6205
-26.529
-30.5369
-58.1127
-41.9975
16.4579
9.57321
-10.9978
22.8073
42.4091
33.0703
15.434
35.7184
43.7662
16.6674
-10.2514
-27.9561
-3.94068
8.78984
-14.6453
19.3841
31.3778
-24.5853
-22.5361
12.4299
6.5626
34.1614
52.5644
7.66977
-45.6754
-109.956
-81.1228
-55.1173
-52.5488
19.6225
75.54
83.0797
62.9912
-38.3851
-63.1164
-37.9983
-40.5104
-6.19643
5.70338
6.04197
10.1196
17.2409
5.47155
23.5126
29.1149
25.8892
15.9953
33.9982
27.5361
9.03401
-6.62143
-17.7353
-45.4003
-37.9023
-12.045
3.3039
6.60949
28.5911
55.6815
70.9318
58.7516
-17.9907
-58.5376
-61.4111
-32.8628
-6.18444
2.90293
-6.04376
8.69736
-10.7675
11.1386
-2.92087
31.7822
51.5762
-43.0897
-77.0783
-69.5303
-52.1641
8.66081
20.3126
-12.1994
-9.03164
51.3039
92.4811
67.7953
53.3041
-9.44782
-31.7867
-40.2869
-6.10754
-15.0204
-26.6539
-8.95756
19.8709
22.2931
36.1607
33.5913
36.2308
-23.4783
-88.1468
-81.1635
-45.846
-78.3507
-49.5868
15.4028
77.5434
167.584
128.803
39.9039
34.6475
-8.84369
-52.2496
-77.8564
-82.1019
-38.5993
-22.8901
-0.376905
26.8847
-9.09287
-4.02113
-10.2497
7.50087
48.1988
40.8111
6.41942
-9.58581
-70.2248
-102.307
-61.0595
-30.9607
10.5787
35.1127
9.89303
12.7603
53.7356
24.9329
-0.473045
10.7107
66.7328
78.3664
70.4905
0.547841
-47.5936
-39.4866
-19.4642
-42.4186
-8.14066
31.9409
37.9909
17.4073
-10.8014
-31.6379
-10.9297
15.7868
-12.4616
9.43115
23.2266
6.0508
-14.4258
-26.7483
1.59398
30.6831
27.1231
18.9095
-1.90011
-41.2593
-46.9519
-14.847
20.8868
-32.3705
-53.9337
-33.8158
-12.2167
5.06307
28.9868
55.618
68.0499
4.39137
-25.9851
-41.0717
-53.674
-15.2291
18.1951
25.6409
25.7426
11.7745
-35.2432
-35.6995
-48.0512
-2.62663
12.3776
20.0239
27.9033
12.4204
-2.18104
20.6951
43.2703
44.2908
6.86546
-40.7967
-59.2852
-9.3555
47.9671
23.7878
6.26314
22.7806
38.6722
3.00935
-31.3285
5.32849
38.6853
72.2397
19.063
-36.5309
-76.9697
-153.98
-108.862
-17.0044
27.7463
83.0425
15.5857
-56.7534
-1.56281
40.4566
28.3479
29.7536
1.51145
9.19519
-25.0183
-44.7291
-28.6348
-11.4473
30.8535
43.7732
74.3689
97.071
19.2428
-44.8913
-41.6683
-0.849885
60.7469
86.8365
24.8165
58.6955
207.45
280.902
205.435
-43.3406
-415.623
-608.585
-508.496
-257.032
-20.3193
100.779
159.714
110.626
90.9301
46.7381
-0.451968
-58.6021
-19.2179
77.3561
118.234
68.9631
-4.89512
-59.1746
-13.0371
92.4672
320.804
435.154
305.164
82.3599
-75.0357
-127.428
-137.898
-96.289
-103.058
-70.9483
-76.7439
-33.6204
-7.15828
-58.1096
-109.775
-127.714
-162.725
-142.72
-117.103
-69.4664
59.159
128.048
129.938
72.332
15.0105
5.53716
9.77658
11.4392
-14.8574
-63.6114
23.267
69.9891
46.5406
-14.2938
-69.0544
-56.0867
-42.3435
-14.5905
21.8321
55.1793
64.4824
52.7059
15.8843
-5.13602
33.9466
42.6096
23.629
23.1725
33.2482
34.7081
-44.2409
-20.4374
63.8532
32.342
21.6766
11.4108
-13.6548
-46.9924
-24.6993
11.2823
40.0258
12.7239
13.2512
14.0604
-23.621
-68.9959
-114.547
-65.8996
6.14926
6.72288
-10.1971
-56.3751
-79.4495
-12.351
24.2094
12.7172
13.1956
16.6913
21.913
25.3914
68.9443
86.0908
54.4665
-21.9953
-116.81
-122.245
-49.6664
-49.2152
-48.9495
12.9362
63.8411
82.6264
39.1216
40.7292
75.2594
37.5392
12.5556
-23.7001
-29.0813
-4.36436
-15.8144
3.37416
70.2729
102.887
86.8406
24.7045
-63.7223
-93.506
-76.8275
3.71576
73.4129
13.2759
-42.3828
-83.9372
-103.868
-58.3448
-23.851
-5.15799
20.7169
56.1631
28.4209
-10.4418
-33.7175
-34.2053
-30.5635
5.31307
57.9781
78.9176
71.9124
38.8207
-23.7513
-30.0121
-4.69865
16.3806
20.9042
45.732
66.5586
62.3542
1.12231
-102.509
-134.871
-113.433
-99.0352
-88.5327
-35.5462
50.1731
53.2861
49.9011
40.5097
31.5848
43.7765
33.0678
38.5841
55.896
29.7308
13.5494
-5.71828
-11.1312
-14.2765
0.680186
19.3452
30.1077
3.60695
54.2316
70.8339
2.62671
-20.8009
-42.3099
-98.5211
-83.0065
1.90402
58.1902
35.0006
-19.6006
-59.7564
-99.5666
-118.69
-90.8059
-83.1309
-37.9518
-18.2838
-31.1297
36.091
64.2082
77.3036
64.4799
62.626
89.0506
74.0716
27.8617
-7.02211
-0.247254
8.55753
43.3923
107.664
126.127
97.0683
51.0876
26.2681
-1.35903
-47.3643
-60.1864
-60.5212
-62.0925
-77.9923
-124.828
-102.728
-92.4902
-67.2073
-46.7928
-31.2637
-22.8634
-6.35781
4.91455
-32.7586
-30.8081
6.83624
24.4089
52.0088
65.5486
84.8308
100.441
86.5808
11.6908
6.90567
56.3597
29.754
-9.38701
4.35919
28.6534
28.7153
-31.7726
-51.8868
-32.1021
-8.86579
-13.3657
-37.6296
-57.7447
-38.282
-55.3964
-37.3449
-0.733265
-11.9295
21.8373
35.9827
39.2193
38.8088
8.79404
1.7313
-0.202579
-12.4462
15.8602
41.511
35.6867
59.5547
22.8031
-39.9891
-50.5969
-37.6686
-16.9571
15.9046
17.0915
17.3551
18.4449
-14.4478
8.89715
11.7733
8.84719
-29.7116
-89.3497
-80.1866
31.1757
95.5727
51.2202
-15.8312
-62.6364
-46.8051
-40.4779
19.0515
47.2742
57.398
15.1943
-100.097
-86.1726
-32.8579
-6.1142
7.12156
54.6476
79.2084
52.0718
47.3332
24.7792
17.6798
12.1563
-10.8872
-45.727
-33.6521
-11.2579
-5.36262
50.409
39.1268
7.2231
-7.9408
-74.6338
-56.5842
-24.4194
16.1373
0.854478
7.32484
55.5705
45.6997
-15.6813
-61.6584
-62.9562
-26.5429
29.6669
56.1293
54.9685
27.7006
1.66992
-12.9569
-5.12168
27.7821
43.1888
-27.8819
-32.7164
-32.9187
-23.2646
-18.0993
-16.9242
-23.2306
-13.5079
-41.7273
-39.9779
-4.11099
42.5254
38.4394
16.9217
24.2476
47.7015
2.51619
-12.07
17.5897
32.2454
68.3369
40.7292
9.58886
-0.891823
-57.4342
-57.4448
-53.6851
-53.7726
-25.783
-8.38376
25.4469
47.4955
32.1865
39.22
38.2975
4.02701
-25.0723
-43.0277
-18.6663
43.857
11.5477
-78.7175
-128.59
-100.809
-22.9882
-4.58849
22.2453
5.65157
19.2563
96.1617
57.0811
31.0182
20.7986
-15.8794
-49.7098
-6.40313
68.4963
113.471
111.896
31.1314
-34.7521
-45.5765
-8.99909
3.75474
-10.89
-14.2869
-9.13515
44.6118
28.9132
-33.1909
-37.235
-39.7096
-15.4533
-18.1368
-40.9451
-53.3784
-50.3489
-28.629
-33.1
-45.4042
16.6575
67.9495
87.9426
85.9665
36.9569
-51.2008
-59.0794
-20.7085
-2.76836
-7.68807
-11.923
11.6202
12.9296
20.4882
19.335
-17.8862
-21.9318
-20.5734
-11.4256
3.27695
46.0527
51.4136
-12.1336
-35.0103
1.12015
53.0193
32.5309
-21.2659
-30.0319
-18.6468
-20.5353
-15.4631
-0.224776
32.258
38.8175
16.7701
5.47548
-19.2357
-87.8934
-63.2228
-26.3833
-2.25641
33.1979
52.5377
90.5553
120.727
67.6525
-41.3874
-106.28
-125.446
-40.9559
-0.983936
-2.10124
3.03033
28.35
51.4475
-0.593965
-5.49164
36.0514
33.7756
7.89474
-5.22213
-2.47074
-11.3728
-38.8234
-52.9077
-29.8244
26.6075
72.9155
81.2123
37.6851
-4.50018
-4.81238
22.7166
-0.164092
-36.4875
-13.1636
-22.5851
-31.887
-58.2706
-48.2151
5.42859
-5.10932
-1.34795
-1.33397
-16.8392
-73.3414
-87.6045
-18.1625
68.6108
62.2535
64.8864
53.2917
12.979
-52.9518
-90.4839
-18.6093
36.9249
10.1319
18.372
29.7649
11.3596
21.5836
13.3771
41.4964
102.298
107.508
94.8064
19.4648
-67.034
-128.179
-111.351
-29.7993
22.9547
39.9097
11.9985
-21.3207
-37.2432
2.11049
10.4262
-8.28846
-29.0951
-16.3133
22.2061
-16.9932
-81.6522
-48.3177
-15.8818
6.75457
21.4549
43.7091
45.616
35.965
-11.2387
-11.8061
44.9189
33.8121
19.5644
20.2435
-15.9177
-34.2557
-22.1992
-28.0618
-101.563
-78.2998
-23.1995
2.57348
16.2697
27.5804
51.1654
90.8907
66.345
5.75557
-10.5765
-31.421
-19.4214
4.05685
14.0827
11.963
11.5882
20.4563
4.53948
-5.71299
3.97844
-11.2638
-14.3284
11.4016
18.6464
-14.7997
-38.032
-3.74004
56.0769
38.0289
-13.1179
-40.5713
-58.381
-52.6762
-41.8402
-5.85845
26.7351
29.5486
16.2437
7.64347
36.9536
34.678
12.8595
2.13439
-1.3894
3.34505
17.2902
31.3962
24.8095
-35.3966
-51.376
-42.2456
-4.42639
9.30908
13.3896
22.8891
30.2726
-41.2164
-18.4042
29.9458
38.9002
56.5793
9.84835
-115.326
-193.323
-128.918
-34.6581
-29.681
-3.22854
53.2225
94.8279
111.067
43.3247
-12.648
-29.3133
-27.407
-12.9351
38.5729
59.8477
59.2337
14.2755
7.83663
34.7388
19.8261
48.8251
69.6758
17.8429
-20.5969
-62.3188
-49.3164
5.32519
56.3557
52.2303
24.9686
5.71032
-13.7403
10.2817
19.8357
-31.7941
-96.3254
-144.312
-155.106
-122.043
-2.04838
54.9275
25.2199
21.2038
58.141
7.00687
-4.83991
-23.1183
-27.9211
23.3919
67.0999
100.866
106.304
6.78387
-47.8795
-77.0308
-47.5737
4.7396
24.8691
8.24134
27.7086
-16.7472
-68.9685
-31.0646
-24.2009
13.2409
45.7838
51.4734
36.9106
20.1088
19.8468
-42.1872
-57.0242
-7.19814
31.1915
55.2169
47.3018
32.8944
57.1776
101.842
51.8099
17.1746
-65.7596
-158.12
-134.703
-58.3413
12.9656
-21.6423
-76.2258
-117.934
-146.523
-79.12
24.3428
47.4284
88.8837
83.988
71.7452
72.1153
28.1868
-27.0535
-11.7299
65.3096
148.724
173.594
62.5928
-5.16628
-47.3028
-17.2647
27.8858
61.8754
88.0081
98.9207
48.9107
-43.3418
-170.13
-187.595
-136.415
-114.446
-100.215
-55.3201
-0.523545
14.2152
11.1046
-3.70309
1.68018
-14.0346
-40.9511
-7.07027
34.3159
49.3614
0.752143
-28.2919
-33.1385
-4.8383
25.9737
64.5999
105.572
92.4984
11.7242
-38.9144
-67.5874
-35.9904
16.1193
53.2088
78.3652
36.2279
-16.53
-47.611
-57.8364
-27.752
3.85294
17.3382
19.4332
12.8668
22.0794
25.5331
-3.02479
-19.2458
15.5341
42.746
53.8297
23.5929
-1.50745
-39.6328
-55.216
1.06126
28.0957
8.3542
-21.8337
-28.396
22.9639
48.9804
-16.6349
-17.4673
-2.00025
-38.7512
-75.8644
-74.3798
-62.1855
-33.2886
-26.576
-35.5468
0.704059
24.1003
25.9801
9.26578
9.85254
26.8655
78.9259
99.0465
54.2418
-8.53789
-18.051
11.0732
32.946
35.2378
12.5768
-2.58922
-2.89146
-39.8507
-19.4684
62.3585
66.6929
52.7641
14.727
-93.5473
-145.631
-149.378
-111.337
-60.7847
-15.909
-31.2181
-18.2626
33.4466
65.9964
76.849
53.3301
57.0656
68.5343
80.6428
52.5823
-3.35356
-33.5253
-46.0386
-30.9708
2.55618
26.631
65.4947
65.4574
21.7692
-1.17156
19.591
-3.16478
-42.1471
-67.2204
-51.6316
-12.8902
-4.40253
-1.92945
-17.5279
-97.1014
-87.7641
-51.7062
-21.6668
-5.4027
25.3169
82.3997
112.852
89.312
45.2708
2.19591
-31.8768
-69.835
-84.5851
-59.4003
-18.4835
-20.0482
-3.02012
1.77763
3.94351
62.2351
72.1791
43.0664
32.7243
39.3476
26.3083
-10.6741
-25.3076
-6.02171
-11.0638
-11.5254
-27.6079
-36.5372
1.77601
32.3814
9.13976
-17.5462
-12.8698
-11.1682
-9.82222
10.0635
-2.28333
25.9251
51.3875
12.5862
6.76502
8.47864
-7.05472
-7.78701
2.20416
3.12181
38.6502
46.4257
-12.5748
-10.2992
-13.1018
-17.4801
-68.2806
-105.474
-49.6299
-57.3619
-77.8318
-65.565
-47.9041
6.27502
44.777
77.5909
110.611
76.4423
16.3117
6.2862
9.03205
43.7307
43.3051
-9.39041
-15.9559
29.119
80.9642
74.5509
11.9118
9.42025
23.2301
36.04
15.0528
-7.86234
-26.6932
-138.709
-240.214
-171.337
-71.1011
-16.0155
6.64296
43.9498
86.832
38.7624
21.1326
15.8486
9.29843
17.8432
21.9646
43.1749
33.3213
-22.1116
-19.288
13.3644
58.0212
102.48
121.897
46.4302
8.34152
-1.06426
-50.5262
-77.5865
-89.1609
-69.4821
-46.8722
-29.9124
-14.2775
22.4646
-23.887
-36.7098
-8.91648
19.8031
15.3916
-5.96897
-23.2782
1.81473
45.4361
59.9565
35.7706
29.4926
43.43
20.58
-50.8332
-101.534
-69.946
-14.3533
-24.4594
-28.4154
26.9775
51.3355
41.7297
52.2726
75.1598
62.5707
15.9937
-50.4565
-58.6642
-14.09
-11.3731
-28.4553
-6.81409
14.8127
13.7241
50.5003
98.2776
54.8123
34.3897
-31.029
-121.332
-90.2231
-80.7672
-81.5915
-85.2252
-44.003
7.83351
70.8853
86.3753
79.2262
42.1857
-2.1119
-13.3115
-9.80384
13.9763
40.6652
-7.80325
-11.7813
7.67365
28.3662
91.5565
59.9003
22.0048
-30.1899
-96.6337
-76.2677
-32.2946
10.1497
-26.2844
-55.584
-15.7862
8.90202
30.9107
55.2301
79.0975
28.6667
-64.232
-81.9251
-60.0096
-28.9162
22.1095
1.4547
-18.2237
0.939355
25.2308
-29.5125
-21.2795
10.6758
40.9053
41.7123
42.1926
42.9399
30.4292
-28.7121
-24.3368
5.92954
22.0952
11.3501
-11.8294
13.7585
43.947
41.4331
3.85657
12.9418
25.3911
52.8441
29.2253
-14.2371
-24.1435
-3.71318
-32.2464
-92.2684
-104.343
-95.9962
-57.4825
-39.1641
-9.75425
14.7481
40.1263
11.2106
-37.322
-65.2268
-25.5495
3.93832
45.318
67.3091
79.4855
56.0669
36.9739
19.2599
25.4783
47.8384
39.9391
54.4426
39.9719
-5.55612
-20.0027
-44.6363
-46.5018
-29.5489
-24.647
12.8526
18.9102
-30.8438
-34.4438
-32.1554
-36.4689
-8.71544
27.2692
40.9245
76.8349
16.8853
-130.211
-128.311
-60.5448
-11.4085
-2.06916
-27.0146
-16.5335
31.0293
51.203
55.6627
55.5621
45.5299
-1.80172
-43.1566
-5.69723
50.9499
43.7848
33.4271
-12.1221
-36.4953
22.802
22.8802
-11.7648
-10.1202
14.0215
59.6363
73.6912
39.0516
-23.7879
-29.5342
-24.5267
-11.7684
-8.53455
11.7895
2.8376
-50.4537
-63.4598
-89.155
-71.1715
-8.31528
39.7523
60.7832
50.5918
4.35061
-5.06753
-1.5885
-22.3837
-30.9128
-11.7052
38.7326
70.5471
34.3107
-27.3
-87.8392
-86.8136
-59.626
-33.3127
-3.15175
30.2617
83.9963
107.272
48.3943
7.52909
12.1726
8.33339
-5.09814
-27.3265
-18.725
3.45348
-50.0104
-65.1639
-36.9663
12.1356
69.556
59.8067
63.4176
49.0371
-32.3503
-63.2188
-44.1505
-5.76065
17.8041
0.48208
4.35827
0.0261815
-16.0304
-0.39544
-1.37133
-6.80237
-9.08187
-22.9041
3.18409
55.8104
23.5805
1.97971
-34.0561
-69.799
-20.0768
7.70384
29.7067
49.5255
78.4794
22.8891
-13.8847
-48.7936
-47.2473
-8.92238
-3.14448
-1.41709
19.5537
58.3686
-2.42263
-35.9191
-20.2926
-7.89171
29.3732
30.7955
5.53788
-40.0384
-37.199
-39.5469
-81.5723
-34.0154
21.5667
49.5079
58.5826
44.3047
72.162
74.2848
29.0967
-63.8111
-126.658
-104.113
-8.13849
17.3389
29.2853
14.9721
23.184
48.1669
32.5795
4.57661
23.069
30.3213
32.5967
-3.19059
-9.06005
-37.0749
-58.2322
-59.9875
-36.8064
7.53785
127.576
136.735
40.1052
-56.8146
-131.939
-102.749
-57.376
-28.9126
-5.05978
15.1386
52.7837
17.6824
-28.6311
-0.855677
1.10061
-5.23172
-21.4698
-15.2798
20.3427
5.49127
-20.7618
-37.9857
8.61739
71.949
83.9684
79.198
85.753
52.984
-33.7818
-42.2891
-32.1759
-15.8334
-2.84395
2.15641
1.44273
2.6068
13.0168
-23.4795
-61.832
-33.2487
-5.7338
-0.223051
-9.71241
2.50059
27.5481
21.7804
-19.0191
-25.7433
3.08229
32.4947
16.9024
15.4185
-11.8303
-47.0981
-12.484
-28.1039
-62.0599
-45.9529
-24.8353
5.92101
19.9856
19.5407
38.7773
43.5482
3.82248
-1.78606
8.39157
18.6156
20.762
7.46019
18.1293
21.0905
5.50051
20.9209
6.85261
35.9664
57.3567
30.079
15.8364
-45.3845
-90.4961
-64.251
-47.9932
-55.3528
-26.9016
19.7696
58.359
58.4805
24.3486
-4.52986
-31.3341
-31.9743
-9.18976
-6.44696
-0.0192783
10.1009
-38.4084
-4.21264
33.9797
98.2609
75.4608
-15.1455
-83.0751
-82.8268
-37.3577
-45.9348
-63.397
-25.4843
37.424
41.8086
34.4668
34.2813
68.8489
70.791
30.7249
-36.6759
-24.7091
-19.237
-19.921
-16.335
12.8569
45.7211
81.8207
24.0471
-4.69976
12.9428
-1.87286
-9.70404
-1.81004
-6.89012
-8.09816
-44.2244
-65.1265
-72.4593
-55.8463
-23.8692
0.229659
11.0849
-0.647845
-33.1266
-14.9897
13.0599
15.7289
43.7266
35.9394
25.8037
41.5021
11.0683
-0.0877759
-3.41435
-11.0823
-0.662037
0.74882
11.5735
22.1699
34.1951
-15.9113
-33.1094
-29.5053
-13.6769
0.428552
6.78962
8.36434
35.1489
22.0514
-9.62144
-16.5094
5.07479
4.19768
-9.18501
-12.8534
9.84862
-2.02276
-23.0998
-21.044
-18.2306
14.4452
14.2332
27.1189
63.9942
20.9214
-10.0369
-66.844
-81.2571
-46.2838
-14.5078
7.58979
47.1387
28.5529
-5.71797
-2.48328
11.6924
24.0223
21.9212
1.19704
27.3096
14.9799
-22.3052
-41.8527
-39.038
-3.22981
6.63
69.549
115.081
92.1127
54.3198
-97.6182
-156.946
-140.679
-115.579
-39.4718
14.8091
41.3524
67.9479
57.3627
13.3392
6.92451
29.2155
17.6002
-6.16754
13.3363
36.6576
38.7148
56.3409
22.3227
-24.5845
20.9436
4.91355
-10.4125
16.4894
-8.77467
-5.99949
-21.5094
-35.8904
-27.1835
-30.4321
-22.4684
-35.9548
-12.8129
35.7898
-4.03912
-33.2762
-48.4351
-78.9437
-62.3469
-14.006
41.2278
109.578
127.662
77.4816
-13.1686
-80.0633
-68.3339
-37.8923
-8.81197
13.5695
40.6295
41.8757
-34.8313
-50.5349
-6.21324
14.9916
16.9616
8.3771
43.8891
67.0139
35.0058
6.3706
13.53
12.8953
1.2339
4.10844
9.02455
-21.8841
-15.0137
-11.1222
-15.9641
-22.1605
-12.414
-26.8807
-0.871008
-0.17133
-27.8037
-31.5233
-28.6108
-14.6771
6.68783
7.97455
3.95648
30.1288
40.2541
-7.76601
-14.6698
14.5278
5.4165
26.0124
33.8523
25.8751
4.35889
-42.8384
-60.5752
-64.4296
-10.1033
11.0951
15.3851
17.8623
21.3186
12.0083
15.9283
-36.9833
-7.36171
45.2186
44.9299
15.6199
-18.2419
-23.4828
-16.5037
-25.3625
-7.26636
19.5426
27.4574
35.1239
20.6191
28.7891
24.318
-1.61011
-0.262884
-33.1466
-62.0528
-38.6911
-13.5465
12.9242
-6.38897
-27.9744
-26.6145
-38.3774
-37.3641
3.4769
42.1837
93.8731
84.9118
19.9338
-16.4031
-63.1018
-66.7342
-42.5444
-22.1949
32.8983
56.0066
26.5622
15.2088
30.3675
48.8912
40.2932
13.7866
-65.5843
-74.278
-48.6694
-55.3052
-42.5134
-25.3434
5.37398
22.8188
57.1564
78.1338
62.1707
18.8541
-36.0218
-24.6675
23.7111
36.3333
18.3065
-6.12408
-16.1383
-8.49933
28.3727
-28.0796
-27.8494
-5.22109
-39.2825
-42.5232
-5.92284
28.0128
34.9545
-17.5988
-25.5009
-15.2019
9.96292
21.3311
21.8125
14.836
-13.1131
-32.7526
-23.3125
-14.4879
-8.93201
17.0534
35.3019
87.7672
55.3162
-32.9242
-52.13
-89.8656
-91.9245
-46.4482
-14.1658
25.4732
51.9055
60.2058
33.4639
7.71936
6.2814
21.9123
33.8843
27.7007
40.5873
69.8708
8.83266
-42.5335
-46.4111
-6.7038
15.423
34.0354
34.889
-5.90157
-38.4394
-39.5499
-40.6512
-54.4658
-30.5827
4.87359
35.126
-4.76956
-39.0346
-74.4019
-76.6088
-37.129
3.53395
4.97281
37.422
56.4531
7.05711
5.85356
8.29115
29.3337
34.3332
37.087
47.6936
59.2062
5.62237
-35.7599
-40.8417
-9.69955
5.29974
22.4204
29.0586
21.4992
56.1445
39.4457
-23.8569
0.962246
1.14317
-50.3052
-86.8555
-107.257
-78.8421
-26.3873
-3.39155
1.10897
6.16543
-1.72341
-2.09666
18.1954
37.0509
59.2615
87.593
73.4494
-9.48449
-30.0926
1.28616
-13.0905
-7.15747
17.6671
30.4722
31.722
5.29567
-15.1474
-20.4695
-24.2642
2.71199
50.825
60.5014
28.6829
-21.7668
-79.7466
-101.801
-77.3738
-35.1756
-12.8918
-8.39495
11.8403
37.1448
19.8952
-3.50296
6.44912
-7.74919
-50.8974
-36.6729
-41.0793
1.58181
32.1756
-6.91462
-6.50753
26.0545
63.1697
54.842
35.9885
41.2548
46.4085
-1.4598
-43.254
-33.1418
19.3045
46.6629
57.6214
77.6473
69.8715
-57.8158
-75.7602
-43.4991
-73.4415
-63.2037
-22.2947
4.79624
31.5454
-32.822
-66.1678
-46.7875
-37.1406
-3.98652
17.5707
33.2823
32.5227
54.1298
95.4053
59.0888
19.432
22.2915
-17.9633
-27.1685
-19.8541
4.63057
42.9795
26.507
-34.6899
-21.2127
-19.9795
-29.3233
-26.9733
-10.2738
5.18586
27.7476
-3.77004
-25.2291
-47.4243
-53.6284
-49.1426
-12.0698
46.9651
79.021
4.80136
12.2152
14.6619
5.36757
-3.04148
-43.7587
-29.5926
18.8478
-9.37293
-29.6014
-27.4264
-33.8417
-8.48067
3.14675
27.8275
76.6413
70.144
57.705
8.9873
-33.1411
7.923
11.102
-16.1527
-12.8716
-1.62479
33.7868
55.7998
33.5253
21.1707
1.23467
-29.9552
-38.7838
-30.3169
-12.3421
22.2693
-17.7278
-30.53
-38.1001
-31.6475
-47.0385
-29.9114
-18.8785
-19.7451
-35.5948
-6.99945
22.5959
19.0699
-1.44668
10.5625
36.9355
63.6235
5.1292
-3.55455
-10.2909
-42.9244
-13.6223
31.5634
76.0936
88.2056
81.3036
32.0696
-43.4036
-57.0546
-16.0701
-24.4875
-39.8211
-30.7575
8.0708
7.04802
-48.2522
-46.8387
-5.72139
14.4243
15.9894
-10.5098
8.94245
46.2854
43.0317
58.2905
43.5869
35.5492
-3.0198
-62.815
-90.9099
-47.2888
11.4784
-1.01918
-65.8645
-110.281
-58.1483
-18.6982
24.8042
49.438
85.8013
114.831
71.7903
-3.20767
-62.8842
-77.0514
-63.4353
-15.2727
59.5809
99.724
84.8825
56.5251
27.7994
30.5291
13.6826
14.0053
-0.633697
-19.5567
-34.4115
-46.2913
-62.5212
-62.2432
-27.6935
-14.7552
11.6388
25.6225
12.2742
-20.1833
-26.4445
-26.0911
-16.2466
-16.8794
-6.32967
16.7932
18.9724
-3.66276
6.00144
-10.795
-10.5677
-8.69057
-20.4048
-44.2758
-32.666
15.2524
18.1947
11.3708
27.0495
35.3708
37.2385
30.3646
30.1359
33.2998
40.6912
11.7167
-32.4209
-10.1905
1.82035
-0.310908
-0.329829
-6.31776
-10.9862
6.79211
-22.8985
-39.7103
-4.13574
11.0512
27.114
27.8197
18.8182
27.3903
-2.12384
-29.0566
-31.9848
-29.9542
-22.0866
-4.13778
9.61939
21.2592
-12.6813
-24.1286
-18.0493
-19.2984
-10.4798
-2.74467
10.3656
30.252
9.10407
-2.98772
-9.87424
-7.04628
16.8367
24.5427
-6.12518
1.67793
71.2988
51.3862
-16.73
-71.7363
-65.8342
-37.9932
-23.0876
-10.1572
38.3143
50.806
14.5074
24.629
49.3012
31.0733
-0.171987
-64.2643
-42.8585
-34.1003
-55.2406
-34.883
-21.2909
31.2584
83.3863
126.395
107.336
2.33704
-74.1818
-97.8109
-60.32
-37.8894
-10.2552
-15.0534
16.973
15.9119
27.0801
17.7537
10.7596
18.7451
30.3344
4.16373
-9.63256
-9.36021
-0.495865
-33.8075
-18.5529
27.4081
51.5057
50.9197
9.81384
2.13029
20.3522
3.00218
-95.7877
-76.975
-34.3126
12.0178
13.7108
9.96821
13.3854
1.66826
5.90556
-8.10926
-23.521
-18.2776
-10.0472
4.66362
22.7554
49.9527
44.3675
-16.5162
-33.5311
-59.9764
-21.9714
14.3142
7.91465
29.7846
16.6528
-7.63581
-11.6157
-4.96785
1.87495
13.3236
14.7897
51.8413
22.4946
-17.5731
-12.3426
-23.718
-32.1851
-7.71916
5.37441
36.9651
48.3736
-5.37957
-15.8554
-16.3371
-5.12709
18.8903
24.4363
9.7558
-9.42178
-0.155755
-41.1266
-53.8835
-24.5824
9.85704
13.6494
11.3937
26.3879
31.2969
-9.44061
-26.5161
-20.8395
1.42327
-2.59477
-1.79292
-1.07277
6.91011
48.5437
48.3284
27.1768
-23.1704
-81.4661
-111.338
-64.7862
-9.69153
63.2732
67.1891
33.3771
-1.61047
-48.1732
-44.3802
-9.32533
39.5749
71.4885
55.2561
18.1693
-0.416637
-16.1321
-19.8507
-12.7477
5.28835
45.7277
60.5819
21.8268
-9.61234
-48.0601
-53.3223
-30.0554
14.2111
56.452
45.2011
21.4622
-42.8006
-60.3373
-31.3512
-11.3666
-1.83738
-12.1138
-11.1705
-1.91462
-31.7547
-12.0155
-8.53997
-1.31812
5.54379
-3.77412
12.7063
4.45632
-14.8304
-0.0897532
5.41254
8.50283
26.089
15.3166
24.6026
16.2761
-10.7172
-17.3245
-12.237
-12.6229
8.79609
22.1106
41.26
30.9165
-2.75645
-24.5335
-50.7006
-39.3652
0.639492
17.2356
31.7717
46.2175
29.927
17.5982
-7.81844
-9.31477
-3.74227
-9.33895
-13.8248
-16.3964
11.9442
3.44739
-55.2025
-50.0598
-13.7802
3.53204
12.8378
3.09836
1.70603
18.2152
30.781
-2.74435
-5.23015
0.914525
1.80618
9.74266
8.7322
5.01953
19.2768
4.43556
-32.9701
-43.5969
-16.5906
1.27559
16.0232
30.9181
61.0426
49.919
-1.46699
1.07071
-20.2984
-22.671
-19.461
-65.6566
-44.1867
-38.2216
-16.4895
10.4761
12.2697
5.31863
23.1975
45.726
51.627
20.3742
-25.6459
-33.4985
-33.1184
-11.4867
23.8613
18.6068
12.6381
20.3531
16.9395
23.3196
22.5426
11.9298
4.26858
-10.8275
-29.8845
-5.29729
3.53577
-23.2283
-27.7724
-21.9255
-2.8333
2.67242
3.66007
29.2886
-0.727461
-25.906
-27.293
-16.6032
7.31432
21.3467
13.8788
33.263
-3.60633
-9.4738
0.837964
24.5083
54.5266
50.4667
33.2756
-16.4232
-84.5828
-138.876
-160.601
-111.365
-27.5535
16.4554
45.1375
59.1977
88.4512
73.1712
30.362
9.31473
23.6654
11.575
23.3995
15.9659
-11.2649
11.3635
43.6367
42.3863
60.9493
75.4514
66.0121
23.3959
9.1511
-9.25977
-24.5322
-46.5624
-100.077
-81.5629
-46.7379
-23.3684
-26.1142
-28.765
3.29336
-36.6398
-52.3052
-38.9417
-44.259
-13.083
15.3273
46.6065
63.6542
24.0036
3.65022
17.0284
7.84435
-16.6267
-16.0967
-18.365
19.4644
-21.3271
-8.00315
16.1556
-7.105
5.76689
23.9479
20.7145
16.3705
35.1328
6.62853
-12.4024
1.49322
14.398
10.214
-7.60629
-4.74789
28.0554
50.7296
37.8479
6.64376
14.0509
8.95394
-5.94694
-25.6651
-5.61264
-0.388426
-38.9088
-48.3795
-49.8093
-13.5952
11.2078
5.52524
1.88516
-4.27057
-38.6089
-45.9588
-19.7814
9.31391
30.3244
-2.08737
41.3935
97.2338
68.8212
-10.4155
-76.8291
-119.303
-76.8876
-43.6111
-10.7295
18.3811
51.2684
57.3458
27.6703
-0.421932
15.1776
26.9706
13.2633
17.635
27.9185
44.5131
52.436
-33.7089
-65.0027
1.44192
35.6685
20.6473
-15.8188
-33.1649
-11.1624
8.76378
-33.6274
-35.4125
-8.95464
19.1978
30.2154
21.5244
22.9083
15.9936
-10.8792
-33.7958
-48.3116
6.88477
33.1055
11.1502
13.0595
-22.453
-31.5216
-38.4975
-33.5358
-19.8345
-14.8582
-19.9132
5.61927
21.357
2.54061
4.38854
-5.39187
8.82273
12.8059
34.9732
68.4097
42.2177
-23.1809
-40.1851
-44.7853
-10.2638
7.42643
-1.92235
30.9381
32.466
-4.35067
-1.48866
9.66686
28.8141
11.8317
14.9956
19.7826
12.0751
-28.1006
-43.922
-56.893
-34.8663
2.83082
28.1675
104.643
106.608
21.9856
-53.196
-135.766
-130.475
-61.8785
-16.9369
12.0859
35.2016
29.063
33.0576
22.1239
6.71232
11.3162
31.3412
42.9884
35.7254
10.3062
-17.5494
-19.0443
10.2793
23.0499
23.7548
29.9963
-8.93906
-28.9803
-44.8042
-47.5326
-41.8297
-17.4853
-9.86385
-15.3845
-4.66341
28.5068
-2.38029
-30.6469
-26.5175
-0.804723
7.53282
-23.9509
-23.3588
17.6078
77.9102
92.838
66.9039
45.0371
28.4703
3.92495
-9.00355
-2.80375
-5.5647
-1.94111
-43.3471
-72.6733
-44.2403
-36.7653
-24.6543
3.04473
14.0644
-12.1061
-51.4525
-35.4056
-16.593
33.2819
50.7101
35.2947
36.2852
22.5668
-13.3033
-12.5711
-16.7803
-18.1429
15.291
28.8712
54.2615
45.4653
-16.128
-38.6977
-49.8911
-49.1361
-11.495
19.0677
29.8038
55.8135
36.8442
9.20749
-4.61158
-14.0768
-8.54998
-22.7385
-20.4372
9.1596
11.7076
-26.8759
-42.859
-17.1333
7.9568
0.80048
19.9752
50.417
17.4704
-23.1048
-19.5027
-20.0252
-1.88083
9.60891
-0.451669
10.8749
32.3654
-9.55868
-13.4579
-16.9929
-7.68659
7.19422
-17.642
-24.7552
8.34772
47.3075
18.7749
-17.9468
-11.9541
-1.4731
5.63287
32.8407
47.7568
52.2967
14.8737
-67.8969
-47.0139
-18.5007
-35.5528
-77.4883
-77.1733
-19.4858
33.8307
46.4135
3.87039
-20.3913
-2.94174
0.49251
20.5876
44.7145
43.597
40.1315
30.9455
8.49943
17.7417
43.2467
1.68252
-0.361051
15.0013
51.3873
18.1646
-14.6722
-25.5845
-43.1438
-27.0401
-9.80907
-2.70523
10.2133
-9.05914
