49.1219
50.5719
-1.61219
37.061
87.771
57.6662
-14.2563
-102.881
-70.5451
39.1944
28.3501
-61.4964
-90.822
-102.489
-60.7204
-50.6379
-37.9911
44.6626
144.077
60.5162
16.788
0.726052
-16.1663
-41.236
-87.5988
-62.6653
74.1891
171.241
183.827
144.491
97.1862
32.0007
25.5487
51.6826
29.4817
-28.873
-48.0496
-47.1297
-33.5553
-39.2879
-68.8086
17.0161
35.969
19.3284
-12.1534
-99.7638
-130.411
-90.0482
-108.73
-34.8909
42.3402
100.317
133.649
65.7258
6.6928
-25.7201
-111.701
-111.184
-115.872
0.478956
-10.6247
-57.5298
-52.8739
-29.0821
37.3877
30.8569
-57.3474
-18.1914
87.3369
70.7562
108.19
157.242
167.254
94.5646
1.55164
-91.9046
-68.139
-34.3046
-133.599
-212.943
-142.391
-83.6878
-14.4172
50.5884
91.4044
207.714
234.023
220.562
153.495
51.9221
10.6483
-39.6637
-86.2577
-10.3268
9.14762
8.20579
-16.4258
-139.468
-127.575
-104.088
-63.04
12.0103
10.9396
-14.7709
-51.0996
-87.7169
-52.1115
-80.3525
-222.769
-220.39
-67.3838
40.1119
50.2761
38.3377
96.6624
196.901
258.684
249.898
198.445
200.137
172.432
4.42587
-77.8296
-82.8458
-75.7958
-98.404
-64.55
75.1814
141.812
52.0556
-105.104
-217.526
-224.641
-202.784
-185.892
-59.1796
19.817
66.1345
113.495
67.172
7.47103
-63.0459
-142.201
-32.2784
37.0708
23.5151
11.1378
-37.8931
35.9332
118.245
38.6439
8.73635
70.1739
5.28535
-15.4962
-60.0328
-45.1311
8.91856
67.7401
66.8506
43.7895
197.262
293.679
179.415
58.4863
7.64257
19.2208
-46.5193
-196.37
-261.768
-179.272
-61.025
-50.117
13.8312
94.9869
80.4029
-12.4614
-127.1
-191.71
-119.442
-33.0244
-61.3939
-107.379
-149.608
-102.668
-34.789
-45.4325
14.828
49.5637
103.624
199.446
257.062
260.963
186.106
89.8365
112.74
182.261
127.341
63.4757
22.0538
-13.8841
-80.9981
-144.85
-70.3698
-48.7048
-66.8123
-74.1413
-120.037
-64.7568
0.830585
-46.9464
-222.41
-182.769
-39.2703
-9.93207
-48.4328
-96.4286
-95.262
-42.4049
-37.746
-84.3273
39.8162
185.019
133.215
88.274
105.001
105.614
60.5061
17.6571
138.911
214.548
259.703
157.77
16.5956
-39.4951
-66.5226
-140.921
0.141137
63.9577
-7.77697
-17.0544
-78.2944
-138.187
-187.707
-207.134
-233.93
-189.394
-60.1722
11.8528
-11.648
-68.3096
-34.8615
11.4011
-4.98974
-11.8277
26.9987
174.737
192.785
157.138
105.67
96.7576
22.1464
-54.1123
-153.1
-43.3924
32.2821
37.9189
12.6896
70.4939
105.946
159.298
156.957
10.1477
-41.8745
-5.37578
-40.5823
-81.2177
-128.145
-174.567
-157.588
-149.555
-63.4011
126.303
219.455
194.204
196.187
166.267
77.8373
-19.6327
-78.8177
-145.213
-235.802
-179.998
-130.903
-119.32
-88.3135
-91.1465
-19.0636
42.4441
112.52
166.035
146.001
100.826
86.6534
-16.0813
-35.7474
-63.1049
-116.215
-83.4021
-28.1759
45.3249
147.264
145.449
83.2451
63.9622
31.3579
-112.935
-182.131
-119.661
-74.5343
-25.2046
-42.0007
-83.3249
-28.9773
-47.7577
-61.9779
10.1347
118.228
179.888
119.775
35.4105
105.672
113.622
67.177
-1.76956
-52.883
-34.7296
-18.7804
-26.4805
17.5892
39.2213
64.4931
53.1734
22.4702
34.2441
2.01347
-89.5806
-93.6421
-93.294
-104.934
-137.741
-223.868
-186.317
-118.467
-62.8204
68.582
246.815
251.47
217.567
100.506
18.7092
-58.3064
-95.8351
-77.015
35.0603
144.706
149.08
109.496
41.2436
-69.2795
-138.601
-206.165
-203.038
-59.1757
-14.5912
-57.437
-66.9963
-30.9931
13.1619
81.3111
176.181
279.897
232.145
142.501
-2.57219
-125.018
-112.096
-170.744
-199.427
-75.0043
-18.2728
50.4095
93.7958
94.0164
152.824
145.186
72.8414
40.3032
-41.8238
-79.9194
-112.85
-156.702
-163.935
-176.057
-161.429
-93.3582
-50.1375
-32.0102
12.1215
35.9504
95.4168
88.72
63.2774
10.4058
70.0845
53.6789
4.56207
-10.8394
-3.35576
-5.36648
-23.1104
-27.7592
2.36598
101.277
259.468
236.165
158.451
108.358
89.2741
-7.7718
-114.164
-147.656
-68.4075
24.0271
-35.304
-14.8072
30.4626
18.653
19.736
-43.7615
-114.346
-134.725
-86.0373
-28.1756
-24.0593
16.7442
53.0417
23.1127
-3.62502
-69.8862
-48.4522
-22.7233
-86.2055
-151.307
-185.926
-182.476
-65.6139
25.6032
42.7699
53.6956
106.259
106.831
77.9241
85.5432
43.9134
-36.9802
-21.6789
101.96
125.22
133.957
111.847
39.4815
-33.5757
-68.8027
-89.1559
28.8648
-13.521
-39.1259
64.2557
183.563
169.663
82.7017
-13.2479
-25.2587
-31.3436
-78.8591
-104.898
-154.357
-141.742
-97.3279
-73.7671
24.81
120.401
122.917
125.892
54.3873
24.5106
-8.00626
-90.1585
-191.441
-184.165
-67.6967
-19.9557
-44.395
-51.1877
-10.1255
35.9847
35.1055
-10.1492
-11.6221
33.5747
94.6494
40.2316
19.9002
-7.49635
-76.8354
-90.5755
-119.329
-38.314
54.9714
121.011
159.123
203.691
158.406
120.154
35.7108
-25.6091
-60.2595
-76.2507
-21.1931
34.4822
17.2791
11.1279
-22.598
45.8044
81.0156
99.9852
89.5143
-33.1714
-108.632
-134.263
-188.735
-113.167
-70.0609
-42.6114
53.7905
75.2879
52.2429
-6.01828
-75.0812
-55.0114
-68.6591
-32.3227
18.9699
-14.5226
-62.9745
-127.478
-145.135
-51.526
39.9617
72.8357
72.4922
53.8406
43.595
-9.47043
-36.7583
-87.8281
-79.4638
102.76
123.482
89.3492
106.065
144.283
189.234
160.829
99.4747
149.611
161.543
110.456
36.3717
-64.703
-97.4366
-146.022
-165.498
-148.762
-134.233
-56.004
-37.2048
-68.8417
-63.0997
-76.5025
-100.427
-142.893
-157.041
-23.5163
58.2769
42.2657
14.2661
-2.69556
-10.167
-24.3931
-36.8538
-6.77424
10.9169
59.4511
126.07
136.894
162.802
112.643
50.0254
-14.9097
50.0814
130.839
69.6841
-52.6434
-117.141
-149.69
-155.335
-230.383
-204.519
-6.76129
89.2464
178.72
248.77
194.257
98.6602
26.5577
-6.94113
23.9705
-0.887824
-6.83729
-67.7117
-153.585
-139.375
-139.951
-70.8293
44.2338
79.5043
162.462
241.999
145.644
50.298
-80.6568
-158.93
-66.3914
-129.234
-235.924
-194.213
-166.442
-77.9483
-42.6277
-56.4514
87.2609
155.079
218.571
300.543
281.996
196.145
66.6638
-89.3931
-250.367
-170.849
-73.7323
-48.0371
-54.8149
-11.3177
48.3333
45.2338
6.73146
-65.1805
-48.9523
66.9782
-23.7672
-48.6304
-59.4117
-80.7562
-68.6121
7.42924
67.4862
134.771
187.767
130.119
41.3585
-32.7168
-54.6158
14.6295
5.30962
9.41743
-11.4312
-7.60123
7.47198
-43.7166
-17.1951
34.1258
30.5914
39.3484
22.6237
-42.1759
-40.0348
-109.149
-119.335
-92.7827
-53.2762
68.7372
114.226
109.869
148.362
98.9933
24.2658
13.6526
-30.6912
-115.092
-87.9107
-106.767
-185.321
-219.611
-202.398
-81.5528
-31.3841
-88.7145
-201.33
-64.755
145.369
197.208
159.77
128.946
140.578
151.193
144.798
202.352
179.725
142.788
45.1111
-0.102787
25.6517
-21.8159
-93.9344
-55.0197
-26.8949
74.627
200.514
131.87
-3.91975
-157.525
-194.964
-80.5512
-100.493
-227.669
-247.584
-164.307
-80.6756
-55.1555
-23.5803
47.9975
145.595
243.524
138.542
-9.49853
-38.0616
-27.442
-11.622
-31.6189
-78.8248
-108.637
-79.9277
-62.2249
-79.9872
7.98206
101.414
57.3653
7.60274
0.617307
-35.1441
-1.57172
-16.7071
19.5299
130.218
141.458
125.592
100.729
143.262
152.461
64.8494
6.52003
-59.9499
-111.083
-85.2619
-112.152
-112.073
-107.878
-27.7091
86.78
207.167
179.272
109.896
-67.9041
-28.9204
49.8316
-8.97094
-44.0883
-79.1303
-122.158
-97.6624
-97.7008
-94.6283
-15.5403
-24.5936
21.0404
-0.361605
-71.5568
-111.2
-119.796
-129.693
-139.324
56.4851
98.2953
4.30396
-39.9822
8.63327
36.3604
43.6182
6.62536
17.102
155.841
151.524
87.1588
117.736
109.984
108.976
85.4755
59.9228
103.318
56.5908
35.3035
-38.4939
-31.6296
-41.7691
-69.9252
-66.4181
-68.7245
-3.46274
-11.8137
-58.1706
-126.622
-126.228
-116.62
-30.3831
42.0976
116.815
157.922
155.511
36.3234
-43.4321
-95.0467
-230.985
-283.733
-80.4
-80.9979
-130.76
-84.6988
-47.6936
6.23393
48.0153
90.5524
58.7901
83.9572
43.1243
1.7512
33.9681
136.03
206.286
248.582
242.291
184.821
171.039
49.1626
-193.276
-245.669
-181.232
-124.266
-123.141
-4.90944
136.458
134.565
163.467
100.934
10.5429
-76.7908
-216.651
-237.491
-176.803
-136.081
-107.596
-39.8812
-12.634
53.2034
66.9258
137.772
162.032
113.322
67.9729
7.54113
-56.7933
-83.3493
-110.982
-110.532
-25.9645
-7.10374
60.0464
95.9773
32.279
-69.4029
-106.84
-81.7937
-12.6109
112.896
122.786
108.075
93.4366
133.688
96.6088
-44.3682
-174.35
-141.367
-40.8357
32.5563
77.2852
145.161
153.53
117.893
77.6772
60.4886
50.6832
-65.3939
-186.801
-226.996
-180.412
-144.583
-158.645
-121.239
-4.27975
67.0681
114.601
103.323
71.6379
-6.41265
-114.347
-109.456
22.6774
-24.2738
-15.7119
-15.269
-55.7954
7.80736
78.1594
98.3896
203.322
229.958
142.146
44.454
-37.8384
-82.5131
-76.7805
-56.9511
-128.989
-109.72
98.1233
162.93
80.5073
21.2103
-82.0824
-116.187
-133.03
-118.288
49.7426
104.004
106.823
90.6369
93.8161
45.1206
-67.4
-91.696
-8.62358
-55.2475
-29.0664
-26.9259
-61.9927
-41.6244
-81.5994
-23.0632
37.1976
23.5466
30.771
-1.81919
-98.7718
-92.0048
-149.549
-147.706
1.96079
87.4752
98.3813
137.583
83.7372
70.4221
81.2363
38.3191
-6.88463
136.207
88.4559
26.8714
20.855
42.9255
88.2927
78.4319
-32.9452
-172.209
-164.176
-54.9706
-22.897
36.6839
80.2195
41.8137
-6.7634
-44.448
-109.809
-37.7073
-84.0577
-208.092
-236.28
-191.005
-119.809
-74.3995
64.7238
241.115
321.926
414.08
341.466
173.926
24.7515
-146.528
-147.811
-115.698
-87.1386
-21.4073
47.8011
14.0365
4.98228
1.31867
116.325
159.041
35.0675
-31.1083
-102.074
-176.966
-207.758
-241.614
-201.615
-108.344
-65.2166
-46.7842
-93.375
-89.365
-13.9988
80.2395
126.251
63.2543
147.841
252.657
271.9
199.824
138.398
82.59
-29.6751
-141.406
-167.237
-55.5127
-30.3042
-50.2311
-24.3114
-5.23666
9.73774
-26.3775
-94.8008
-4.95839
12.4737
22.9907
-4.52622
-40.0105
3.45213
79.6239
159.073
149.474
153.298
160.254
102.748
-5.07346
-107.329
-203.032
-260.071
-276.875
-142.879
-24.3112
51.4705
40.6181
90.8631
139.554
104.637
-58.0781
-166.213
-137.6
-201.34
-164.822
-85.0684
22.7603
84.7475
76.1138
94.2246
139.991
210.184
195.171
137.536
142.948
133.995
46.1624
-24.8312
-10.0726
-39.7949
-131.523
-185.297
-240.895
-173.97
-52.7446
-21.6492
25.3208
21.0865
26.2694
65.0694
74.4192
43.4677
13.4658
-51.5978
22.896
3.47258
-6.22452
16.5684
-3.36924
8.33979
57.4825
57.8042
83.8672
96.9195
62.8501
37.2364
-46.0965
-57.9576
-53.8482
-86.4201
-23.2701
53.162
100.385
75.2166
-69.1769
-93.3052
-81.773
-121.767
-179.533
-224.373
-143.159
-62.5184
28.9918
140.02
168.067
186.941
156.347
63.3638
-23.3306
60.5751
31.0556
-75.6776
-88.5692
-52.146
-26.3659
4.83316
-16.1667
29.1691
152.321
137.069
58.0097
11.8706
-62.7247
-127.505
-206.803
-191.121
-33.2001
83.3565
139.989
67.255
38.1999
74.0556
27.8415
-17.295
-35.0825
-51.225
-84.4098
-58.3755
-29.9127
26.4587
53.6678
141.798
213.163
209.887
155.196
30.6145
-112.833
-148.231
-177.113
-232.066
-303.17
-213.151
-90.6215
15.0071
89.8593
188.85
280.02
269.092
167.442
168.602
50.4188
-76.023
-193.152
-204.797
-133.399
-135.103
-152.441
-181.005
-113.182
3.48256
99.8701
74.1597
72.9356
42.0634
101.006
118.256
85.4146
37.8183
-1.35324
-36.4803
5.43916
-39.4759
-69.6177
12.1783
55.5765
125.751
147.075
144.668
107.306
59.3347
-35.8888
-100.265
-53.0261
-44.4946
-56.4605
-84.3487
-96.0927
-85.9113
-53.012
-62.9934
-16.3386
66.8306
11.8188
-26.5342
19.0174
-16.4474
-86.3191
-78.4481
-87.9482
-10.4492
83.5819
91.5515
82.7065
64.2548
-26.8219
-121.046
-175.228
-151.202
-61.2629
-17.9871
41.7818
105.518
173.865
131.277
62.367
83.5655
129.348
117.371
117.266
70.929
62.0537
48.5249
-55.261
-85.9384
-83.5464
-124.141
-100.202
-60.2546
-37.082
2.24989
-12.2402
-44.4456
157.892
175.755
55.0125
-67.7909
-193.642
-198.696
-134.506
-142.202
-181.263
-19.1299
159.397
232.847
209.556
188.587
139.503
29.4369
-113.074
-96.8978
-79.9363
-68.7135
-158.631
-156.281
-82.3088
-54.2605
-15.461
79.8209
193.183
171.257
138.476
7.19518
-65.5776
-92.6684
-122.784
-172.335
-117.514
2.05629
26.8509
7.4549
78.4182
147.535
124.357
170.871
37.5288
21.8769
-44.4001
-59.0754
14.2055
61.2778
234.217
262.468
205.64
165.427
69.1333
-41.7036
-140.085
-220.231
-305.631
-336.489
-273.577
-224.353
-186.282
-140.001
-44.8466
62.0608
105.449
56.0007
-5.68806
32.426
22.8697
9.28759
34.1566
21.1133
-1.46514
8.95365
7.52212
-11.1791
72.0744
157.309
123.24
131.901
113.678
99.0772
117.194
70.8653
134.801
113.35
116.769
112.313
60.6824
14.1246
-81.5016
-135.947
-73.3184
-106.389
-132.963
-135.732
-164.968
-199.902
-212.891
-185.876
-64.5948
28.4112
42.008
56.4225
-3.22521
25.6534
48.7862
-20.078
-132.391
19.5958
123.387
190.991
126.812
106.93
71.223
-4.40454
-96.9552
-14.6579
-13.6782
-16.222
-66.5248
-113.858
-102.984
-80.8107
-98.1636
13.742
-7.3678
-0.253876
78.5636
78.2014
107.198
64.3075
46.1112
36.3016
12.9383
84.8374
152.12
88.4072
81.8847
5.32451
-61.0005
34.1481
54.0251
60.21
54.4887
-33.8071
-16.4931
9.43809
-27.8759
-100.961
-40.9478
-25.0243
-36.2729
-50.9908
-62.0117
-58.9684
-37.4775
-85.69
-140.739
-75.7825
48.4442
2.34379
-37.5065
-32.7627
-17.8634
-28.7169
-27.9149
-83.4732
-103.588
-121.366
-182.42
-109.774
13.6524
149.682
242.399
257.291
300.087
252.84
232.268
146.298
-20.0138
-91.514
-118.589
-184.653
-163.441
-132.366
-53.1822
29.828
34.0588
35.1334
31.3453
-18.9157
16.6687
40.1078
-19.7906
-52.055
-61.7988
-18.6609
56.3439
78.0381
145.468
190.483
141.739
109.756
31.7637
-43.2132
-91.1068
-123.309
-136.661
-94.1787
-61.5636
23.1048
-51.7987
-94.0865
-87.6575
-153.799
-224.407
-58.1599
64.1589
127.154
62.6007
-32.5104
-92.5244
-145.598
-174.496
-55.5235
124.26
178.353
241.385
254.904
222.05
104.743
-23.9438
-137.283
-110.608
28.0165
56.6735
-13.8643
-40.6378
-23.2344
-36.1156
-73.7627
36.6729
151.08
152.697
81.0146
-51.2723
-111.669
-124.533
-143.196
-107.911
-1.31466
40.8093
64.0015
66.1098
29.853
-16.0322
-79.1732
-140.972
-137.154
-37.2106
28.6932
93.8555
177.475
237.356
238.956
146.505
83.9533
-3.92495
-67.5635
-123.121
-158.522
-120.137
-122.427
-140.176
-51.7706
-17.8371
46.3885
149.179
153.165
110.954
68.9203
-74.7878
-120.871
-213.322
-270.393
-219.714
-182.586
-202.335
-203.519
-75.7491
82.1385
178.323
246.148
282.023
215.793
180.625
85.4845
-48.2029
9.4906
22.0286
31.3488
75.267
54.789
42.0461
-21.4365
-41.9349
-36.3101
43.715
234.664
258.405
167.715
100.244
44.5982
-37.3616
-136.069
-228.563
-311.339
-137.896
-117.372
-106.15
-39.0628
-2.43715
9.11013
18.6152
-31.9713
-4.07524
-4.03105
-36.3871
-140.987
-186.264
-167.89
-83.7978
8.76142
141.405
180.569
235.44
228.632
116.551
36.7862
-116.345
-281.595
-158.942
-80.244
-33.2694
23.6265
2.04207
-1.56693
1.65601
-7.57982
120.31
131.604
122.489
146.868
136.216
151.578
130.536
14.3518
-110.002
-71.3008
-61.5706
20.7944
17.0298
18.6822
78.9686
139.297
80.9455
84.1311
80.4108
14.8334
-91.7207
-166.385
-218.304
-247.137
-319.018
-257.433
-174.803
-91.5298
-50.3717
-38.2169
49.2853
106.395
51.1084
114.635
161.275
142.926
137.017
126.543
77.6324
-5.81878
-102.857
-60.7752
-26.1288
29.3899
66.5446
40.4717
18.5238
46.2465
80.3771
20.404
9.02291
6.02989
-57.4675
-152.777
-166.55
-105.822
-45.701
7.47787
71.5508
175.918
255.064
152.79
0.115321
-98.2912
-96.5967
-77.5076
-13.2552
41.1017
107.014
148.478
102.681
81.3265
42.2767
-41.9402
-149.345
-222.107
-130.224
-160.541
-158.099
-135.156
-130.639
-90.0829
-58.92
-31.0858
56.2292
28.2111
6.95323
37.5768
5.41477
-32.6888
-49.6037
-23.545
141.928
149.111
163.051
192.626
150.201
139.731
97.0093
64.8369
96.5262
73.8678
36.7927
-15.504
-100.132
-114.747
-101.57
-64.4193
-34.5441
50.7168
91.7688
61.4577
-31.5272
-21.6509
28.21
-5.08993
-99.2488
-29.9633
-40.7016
-116.176
-194.919
-189.371
-163.208
-80.2653
-6.3448
84.1127
172.047
121.757
58.461
-23.7604
-43.756
-50.8197
-48.3078
-56.9966
-77.6522
1.97404
17.0694
-21.4127
4.43847
65.1996
60.2264
5.0448
61.3001
178.896
144.126
67.7563
-31.2046
-51.3872
-54.158
-74.078
-17.0024
105.044
48.8129
3.55635
-7.89784
-18.1044
17.3621
43.2834
66.5179
134.813
148.359
171.267
175.966
57.7937
-66.3584
-158.096
-213.522
-171.421
-110.898
-90.2764
-71.699
-95.2092
-49.099
-1.65739
-59.1702
-58.3926
-53.4333
-130.343
-107.963
-96.4925
-78.8573
24.3768
15.8746
30.1046
134.617
167.024
156.465
103.033
53.9392
29.2627
-32.4383
-14.1811
-5.68308
-42.4448
1.96146
1.38841
-0.43416
35.4895
24.7128
-27.1879
45.6415
76.6314
69.8668
34.5575
-12.9366
0.618926
13.9086
54.5499
67.0271
1.34651
32.8707
22.2021
9.02384
-7.74036
-51.2953
-110.537
-70.4811
-4.78222
21.5099
84.0514
76.9583
3.53429
-21.532
-39.8136
-48.2501
-72.2643
-152.847
-136.722
-96.1278
-109.518
-125.142
-116.352
-53.8939
28.893
80.9441
125.259
158.46
101.961
66.1993
14.2818
-102.209
-147.229
-124.064
-17.3085
147.776
174.679
246.215
256.963
211.351
196.084
108.643
-52.8257
-130.172
-135.4
-158.492
-140.449
-153.192
-83.3452
-17.0306
-4.51983
-13.9372
19.0256
64.8549
11.3044
-95.3762
-127.106
-118.108
-108.432
-145.995
-43.8897
94.7999
149.849
154.552
130.069
123.463
58.8292
-34.3148
5.76188
-41.1006
-28.3325
40.6586
57.4674
25.6992
-8.9437
-7.42322
27.0075
-35.0352
-105.768
-61.9454
-46.1534
-58.6042
-55.076
-88.7266
-37.2285
95.0913
102.482
103.851
48.9326
76.3261
68.8103
17.4944
-33.0406
-0.539017
-13.6577
-36.7213
-57.3857
-65.758
-62.456
-44.5407
-38.8368
-75.4933
-37.7349
44.3618
75.4863
109.376
155.184
128.036
7.21347
-60.7807
-94.6314
-71.9139
-52.4208
-88.1062
-92.2133
-88.0488
-43.4874
35.49
71.9081
209.46
207.343
151.464
69.3198
-6.28205
-49.2516
-129.608
-148.092
-12.9649
46.1494
102.665
94.9589
9.75582
-32.1733
-99.7086
-164.683
-30.8507
-26.7489
-39.7318
-15.6279
-57.9851
-40.2078
-36.9847
-62.0192
25.2841
93.6368
41.5758
-22.3091
-89.7306
-54.8172
-34.1561
-14.0169
-1.68476
26.1406
171.054
203.974
95.8304
37.7521
31.8227
17.3852
-70.5902
-147.592
-74.9634
-56.8345
-64.1751
-30.2466
73.4493
147.988
43.0318
-29.0171
66.0047
69.8273
33.288
-28.1531
-124.15
-67.9957
-40.0327
9.36714
70.6856
112.64
65.4681
40.4891
-33.0396
-27.1869
-22.6133
-94.9836
-77.8233
6.61565
110.826
194.507
111.418
27.5165
7.45453
-10.0113
-86.077
-86.5828
-46.105
-77.0488
-92.7502
-127.69
-118.387
-81.6915
-60.9853
-34.473
99.9202
93.7538
-10.324
-72.4233
-77.4358
-133.067
-203.637
-173.182
24.0503
117.781
147.659
133.226
116.463
163.875
126.706
125.299
167.246
146.702
102.501
83.4834
-15.6138
-56.6447
-123.972
-78.9331
-48.0107
-78.0051
-87.3972
-67.1675
-90.8259
-81.8829
-63.3131
92.4696
111.991
104.779
82.6091
48.6807
22.4203
-1.49276
-46.1481
-34.657
82.1429
166.931
148.32
21.3169
-69.1948
-59.3591
-50.1828
-70.5648
-169.483
-174.581
-43.8625
-116.377
-183.228
-223.377
-202.021
-112.99
7.82185
56.0545
21.1339
85.9889
41.5812
16.3299
75.1214
89.6753
86.5889
64.2743
24.6751
67.5798
103.662
101.29
90.7664
100.966
98.242
106.661
122.629
116.131
31.8689
-8.00005
45.1249
-1.44774
-85.7096
-116.777
-163.697
-106.15
-17.1355
-11.5828
-11.4134
-18.9737
-14.0521
-11.7633
-120.735
-163.755
-66.5954
-24.4669
16.193
1.87724
24.6021
95.7492
156.371
91.4462
21.3287
-33.3777
-34.1983
-43.7811
-33.002
16.9793
36.6623
0.299608
-10.7507
-51.548
-25.1382
-37.8951
-75.6023
-59.9575
-72.8581
-90.9702
-26.4238
-30.4442
-16.5093
47.2664
51.9504
55.1959
93.7875
90.065
75.7768
63.8209
87.1639
108.149
80.408
98.7225
59.0423
-28.0591
-86.5604
-103.888
-133.661
-96.2401
-94.8813
-59.7191
-11.9071
26.7757
-29.7016
-27.2916
64.2653
33.4922
25.0336
34.2664
16.9147
-13.8805
-25.4192
-4.39641
37.0431
125.88
113.097
70.8075
83.44
41.1757
-47.7851
-62.5133
-59.2664
-60.315
13.6563
-45.3006
-103.122
-60.3333
-49.1567
-98.5384
-154.085
-103.594
62.6163
109.755
98.3654
51.2957
33.6897
30.041
-16.5399
-38.0082
-3.52904
-33.4758
-65.7283
-73.9915
-70.7283
-17.6215
-57.5461
-47.6112
37.1835
67.6994
116.991
127.605
39.9387
14.6088
38.0801
-2.32747
-13.2394
91.8228
118.202
51.1942
-8.11811
18.9494
55.0253
71.3674
24.6254
106.511
96.3151
-9.12485
-126.701
-144.664
-135.079
-142.774
-173.496
-46.492
16.2947
80.3978
78.6599
22.7526
58.9409
33.6327
-37.9113
-25.3322
40.1089
23.5493
9.44017
-84.7565
-133.49
-115.987
-88.7889
-29.1083
63.471
50.1173
17.3947
-60.4409
-78.6927
-90.3818
-96.7939
-131.632
14.1149
219.72
302.173
260.886
146.752
80.6755
18.1542
-33.4762
-72.8716
-122.413
-49.0328
47.9725
-54.8138
-79.7076
-39.9478
-3.41725
16.4372
-16.9951
-24.0628
129.866
65.1503
-42.8748
-130.16
-171.755
-165.762
-117.965
-15.5837
150.52
232.488
271.089
173.368
58.932
33.7965
-5.06441
-9.20276
-11.3762
-52.2664
-59.0522
-90.5979
-156.47
-137.038
-103.394
-47.6667
13.9917
-12.4394
-9.92983
-10.9406
-43.3608
-17.3999
-6.10167
-41.7289
51.7265
114.834
129.321
87.5603
70.7365
92.2249
91.3554
91.9321
45.999
50.5643
19.2319
-62.2049
-94.0934
-79.8567
-74.5486
-79.98
-151.246
-134.964
15.5782
-4.61771
-67.708
-29.8352
38.9594
78.917
77.0284
73.7741
85.5607
155.654
72.697
-65.2054
-103.277
-67.6869
-81.1398
-153.5
-154.737
-21.4811
71.6261
80.2844
37.3839
67.958
45.4893
-0.566918
-32.419
20.9622
14.16
-2.96448
-2.13654
-36.6639
-27.7066
-34.1168
-80.9611
6.54358
58.9135
111.983
114.828
49.711
20.5913
6.47532
-66.207
-23.4301
92.8462
70.3549
30.5054
-12.2089
-6.01053
1.2595
-22.3764
-28.3229
31.834
20.8042
35.3753
-0.49928
-38.4928
-59.8542
-86.4107
-114.151
-86.1902
-110.338
-65.4909
-17.6971
-52.2615
-5.83116
29.8239
48.676
160.203
136.685
84.902
-13.2942
-60.1825
-18.0535
24.5072
35.8936
107.899
100.499
96.051
55.3302
-38.6614
-59.2866
-102.961
-155.3
-85.7357
-32.6385
-34.4297
-52.7752
-147.405
-149.221
-109.736
-58.7573
-49.8424
1.50208
155.771
161.451
80.7399
74.54
86.1221
74.8168
97.4574
134.808
137.66
183.035
35.0834
-127.473
-144.226
-146.735
-162.184
-87.6843
16.6098
189.517
301.718
280.523
86.0196
-51.9154
-141.047
-166.848
-238.428
-153.918
-13.008
2.28793
-7.54724
-40.0297
-31.4069
1.79799
-12.7998
19.3021
13.361
-32.3529
-52.4364
-92.091
-127.567
-147.032
-148.269
-19.8835
6.05549
10.6675
63.1526
62.4923
53.3207
90.4181
39.7086
45.5508
148.152
239.939
271.148
212.09
122.498
56.9308
-52.9818
-237.622
-273.442
-165.898
-82.697
-48.0444
18.6271
85.9694
124.33
26.5056
-14.0713
0.760867
3.30499
-1.79195
-58.2328
-99.1649
-114.958
-136.5
-99.6924
-18.8314
186.969
223.272
168.801
119.59
106.901
48.8848
2.87356
-51.3136
-17.6295
-23.2063
-131.355
-219.292
-172.295
-130.903
-78.4002
-25.1225
129.303
251.411
242.691
134.748
-48.3812
-82.9235
-101.573
-151.856
-217.211
-236.046
-51.7178
43.8667
47.3035
78.006
68.2176
58.6769
55.3171
16.0013
80.8975
65.2399
-24.734
-85.5872
-88.9483
-30.1138
3.16349
46.8507
89.5908
68.8308
118.433
137.348
49.4237
17.0275
-43.5267
-59.1933
62.4514
111.282
101.725
50.3658
-85.0278
-121.321
-179.991
-216.705
-102.571
-68.1883
-24.7748
34.4718
56.2939
83.2987
89.4083
60.9389
22.1731
71.8081
54.0795
61.4257
18.2429
8.28626
-19.1755
-96.5749
-200.045
-139.762
-33.5268
-6.73225
-89.0344
-66.5148
14.4775
74.6699
38.4459
-35.3186
15.5023
73.4656
34.966
-16.4891
2.85622
11.1064
22.9198
50.9864
8.64149
11.8984
139.124
122.648
70.8936
57.0063
26.9755
-40.0421
-131.36
-77.9079
11.1286
47.8551
8.59232
-12.8494
-18.6259
-79.6502
-106.906
-85.4329
-133.32
-118.685
16.9509
134.036
150.464
167.08
107.165
35.0739
121.417
101.762
35.3661
-24.2548
-66.7275
-78.5314
-101.439
-112.542
-135.536
13.0888
72.151
-4.6298
-89.4948
-132.875
-109.7
-90.8484
-111.884
-99.0504
-1.35372
54.7898
13.5237
35.1172
88.2664
72.1516
26.1494
28.4969
112.662
137.516
170.895
104.468
38.5585
10.2119
-3.78443
30.0768
41.8263
0.0394526
-25.9891
-46.4042
-36.3156
-16.2446
-49.5941
30.7238
47.3716
3.67831
-36.8499
-63.625
-121.63
-128.959
-149.219
-176.347
-38.2827
27.7119
91.3163
92.4518
43.9983
20.0536
15.5281
53.5658
44.5462
24.8651
93.8133
92.5796
18.5907
-50.4203
-81.2212
-98.7065
-94.8032
-67.9156
-27.5848
78.2465
76.8421
79.487
92.2126
82.3326
38.5264
1.42378
1.19261
40.8748
-10.9322
-52.7036
-118.311
-169.449
-115.764
-69.7546
3.19718
65.1065
79.4473
87.5997
83.1181
28.2328
-30.0403
-85.0044
-26.678
26.9186
32.171
25.8886
3.15408
-49.5031
-10.6046
-15.0992
-16.2015
46.4074
19.8319
22.7507
35.1569
43.0076
29.8118
-12.3533
-32.731
74.6848
84.2314
77.7948
30.9391
-31.3392
-66.4406
-88.222
-130.194
-106.902
-103.618
-50.14
1.22146
45.5701
134.384
139.22
77.7057
10.2935
-109.181
-116.207
-75.5684
-136.494
-118.774
-70.6926
-11.1459
55.0822
185.027
214.02
169.876
58.8725
9.39782
-14.9301
-68.2912
-168.124
-123.928
-5.98815
21.5149
40.8489
77.7488
89.1447
82.1111
-0.290939
-77.1097
13.5313
67.7504
10.4232
-48.3413
-36.2996
-10.3003
-12.538
-70.9085
-73.4402
-4.56787
22.6813
9.73971
-6.33068
41.8974
57.7383
31.7662
81.3033
36.875
-37.5038
-35.5172
-98.4901
-112.647
-44.3421
-53.9826
67.584
124.691
149.768
145.75
70.6891
-33.0047
-118.946
-194.991
-132.474
-73.6407
-66.0313
-22.1873
4.14853
62.9656
77.2776
31.1512
106.644
39.6001
-41.7036
-44.593
-64.8924
-60.6432
-81.3474
-65.9523
-30.0378
55.2566
126.157
111.942
38.7173
2.41861
15.0687
20.2525
-50.1648
-103.962
-25.6573
85.3554
60.3667
49.6358
78.8986
107.792
68.377
1.62952
-40.888
74.3096
151.749
76.0567
18.9576
9.14925
-29.4162
-61.1856
-85.4947
-146.2
-154.575
-80.8416
-85.5369
-112.155
-134.456
-134.165
-98.8335
-61.7711
-42.2357
92.3689
108.576
64.7512
64.2617
59.7169
27.9935
-28.8294
-62.4238
30.0084
82.9454
161.225
150.661
85.3224
57.1031
56.4547
2.61357
-49.9458
-5.04677
-14.0993
-60.1563
-124.289
-90.9961
-69.2982
-76.4879
-82.1488
-76.6358
50.2046
82.283
23.4594
23.6942
57.4681
100.463
124.897
72.3904
68.4451
85.7928
10.0855
-77.3474
-91.5208
-65.2189
-8.32723
47.3347
103.037
101.184
53.5531
12.0226
-88.4909
-154.543
-154.073
-176.765
-96.1624
-40.0224
-19.6265
37.1604
53.1915
68.4866
76.937
-19.0263
6.99562
109.26
39.4574
-26.5997
-124.97
-135.597
-77.807
-18.99
-8.59355
27.0999
59.3822
63.364
13.6078
-24.6844
-33.812
-42.0983
-34.9019
5.48422
32.9382
139.734
191.214
113.795
65.4998
5.58269
-31.5016
-19.0724
-47.0474
-73.7409
68.2822
38.8046
-31.5803
-20.1325
-43.807
-58.8892
-62.7816
-34.817
26.7442
31.4884
68.0195
71.3942
55.8998
63.3336
60.3936
133.245
166.494
2.24773
-108.885
-145.318
-214.56
-161.86
-157.449
-142.614
-26.7387
91.4176
51.1631
-5.84997
-55.6023
-64.1861
-46.6205
-123.181
-201.617
-133.976
-92.5863
-57.7449
-15.3162
91.4628
218.71
277.677
226.883
281.758
258.538
179.402
26.4577
-82.316
-50.7246
-60.511
-123.032
-5.32291
99.9543
114.212
56.8286
-73.097
-93.4401
-114.107
-135.397
27.1683
21.5874
-5.30434
5.82502
-20.6387
-24.7202
-7.8562
-27.132
-47.9125
11.073
-12.128
-5.31906
-72.8242
-95.2029
-33.1151
17.9264
32.1681
35.4762
50.6141
112.228
-5.71654
-51.3219
-48.781
-53.1527
-78.5486
-91.1599
-8.75897
-1.13929
-15.0695
-7.90584
53.0606
57.5753
18.1797
-13.6997
22.8782
112.419
104.209
83.6427
30.949
-75.2023
-141.924
-177
-174.998
-43.1826
-13.8359
78.0366
155.577
231.475
226.239
145.051
161.544
158.016
37.7236
-66.9198
-129.929
-193.208
-227.727
-266.17
-184.345
-106.84
-66.261
9.15257
77.0631
37.397
39.5558
33.4336
25.4017
4.37538
82.2754
100.642
81.5966
72.5342
97.8643
114.268
81.0331
72.3276
119.654
80.8553
-6.51036
-94.907
-122.514
-68.0869
-56.0942
-106.377
-72.702
-102.351
-139.727
-119.204
-121.618
-65.4081
-83.9809
-151.019
-49.4686
106.453
144.597
104.352
54.7254
88.3012
102.815
129.954
102.412
105.483
56.8271
8.88896
-35.7386
-9.08729
-10.1801
-40.3329
-47.7287
80.7153
131.522
148.984
0.475381
-154.769
-200.855
-253.13
-264.209
-97.2194
-33.4381
-19.0199
29.807
38.1304
76.0736
91.0015
89.1543
44.7154
-5.87665
70.943
104.028
-7.47774
-42.4036
-28.6202
29.2609
75.119
40.1348
64.2056
194.033
123.201
61.5894
17.3961
5.08122
-30.5034
-70.4511
-29.7552
24.4174
9.33015
-60.3068
-141.279
-178.904
-214.198
-225.243
-134.306
-85.2262
-63.7064
32.7906
79.3264
59.9705
59.8217
28.2134
72.3636
57.7258
24.2145
49.6247
43.0618
21.9634
69.9996
122.186
230.786
208.148
122.147
37.27
-55.2163
-96.2557
-98.3972
-118.094
-156.503
-207.094
-133.676
53.008
32.7693
21.894
28.3962
30.3277
7.62535
-33.3729
-51.8549
-19.4603
-42.3575
-60.2075
-41.9581
2.91058
35.8566
39.8667
-10.9097
-18.819
51.5672
34.6896
1.43042
-48.6717
-25.4912
2.9373
-26.3621
7.71714
50.1286
53.5486
68.0423
62.4369
33.5849
19.4235
-34.7727
-24.5505
32.2309
28.0553
66.585
133.798
167.331
155.99
42.9476
-101.132
6.47581
54.8857
62.4144
12.7406
-57.7484
-96.0059
-95.3508
-160.651
-305.502
-296.767
-100.691
34.7903
77.9578
100.499
86.758
36.0257
-41.2748
-95.0808
-29.4371
-17.0173
-68.2826
-56.7755
-45.141
-58.0053
-67.6239
-56.4182
52.0357
68.2025
133.537
163.88
105.106
65.1471
-9.08845
-34.3112
154.612
195.483
153.165
67.3861
-36.9127
-66.0566
-155.58
-235.226
-156.099
2.20701
84.9659
134.44
111.874
147.916
156.529
92.6196
-28.801
-59.3115
2.16456
-5.84614
-148.001
-204.668
-201.779
-80.3286
-5.3038
-40.9134
-29.9915
102.946
157.767
117.472
73.3212
49.8887
-1.27841
-32.7606
-60.4893
-123.612
-32.4159
-36.6594
-92.4887
-90.2332
-110.668
-87.5745
-45.0351
-56.0931
65.8887
92.1962
74.6832
35.2547
10.58
-1.78606
-14.7569
-37.5879
42.7009
9.35263
-3.54457
42.3043
61.3858
118.232
148.44
130.9
189.271
110.808
-35.3332
-96.477
-142.318
-57.4232
4.9782
-25.1767
-34.9961
79.6531
87.1158
83.8434
-26.8575
-81.3425
-90.461
-100.101
-150.432
-82.3498
-90.8751
-149.06
-209.134
-148.817
-32.6256
69.2114
57.8184
147.98
182.507
210.872
230.144
115.459
85.1387
174.882
317.568
458.907
456.983
127.419
-267.744
-568.688
-599.725
-444.882
-306.681
-248.778
-219.79
-232.692
-261.362
-255.985
-172.359
-45.2953
104.864
194.183
221.279
214.167
19.026
-52.4121
45.0824
326.005
522.391
485.497
318.802
139.714
136.99
234.855
315.954
349.682
308.367
190.681
12.7795
-216.761
-436.467
-437.652
-348.809
-340.037
-345.551
-358.746
-371.955
-396.046
-313.084
-68.1314
41.7521
139.054
84.9996
-4.4891
-38.6504
-58.1781
-25.6038
-8.4477
4.70673
51.824
100.973
98.5246
108.323
30.8133
103.695
273.47
270.856
301.115
289.49
192.865
130.54
16.9561
-57.9333
-85.0618
-141.96
-105.667
-27.7797
41.0475
97.2807
139.669
91.945
64.399
70.571
49.4924
-50.6282
-238.037
-360.935
-319.569
-179.696
-104.122
9.58673
130.018
123.033
89.3805
67.8408
37.8927
14.3593
-32.2916
-126.389
-210.935
-122.969
-51.1682
-119.806
-143.397
-110.381
-77.2126
14.5974
60.0216
38.2319
97.2755
90.9893
91.87
94.6332
111.071
151.23
104.027
64.5621
99.1789
105.833
99.0251
25.6081
-29.1467
-7.59666
-34.688
22.6762
29.3973
-17.274
-37.8903
-59.3744
-79.813
-61.0797
-70.151
-118.723
-107.991
18.312
48.5901
17.5474
-18.2027
7.35915
51.6649
40.7469
-49.0251
25.3021
84.7818
24.5897
-4.02765
12.9698
-0.526818
-65.3938
-97.0631
-39.4145
-17.8569
21.7092
-4.47714
-42.5239
24.4828
-19.2383
-72.4896
6.59662
13.7661
-17.6158
-83.8335
-151.058
-85.1137
-34.0683
-49.3963
123.774
234.538
261.623
168.083
76.3331
41.4913
-4.30796
-60.3128
-41.6811
9.3554
36.9154
32.7897
-24.412
-43.9197
-37.7035
-27.6386
-79.1817
-35.7163
41.5406
58.4658
-25.9744
-75.3102
-75.5629
-79.2475
-68.8049
-116.701
-32.0252
99.2474
129.348
59.8684
46.3982
37.2611
-7.06511
-14.0205
-7.78858
32.1783
106.466
42.1063
-25.2323
-3.69287
-54.1717
-68.2576
-82.8319
-43.1066
117.912
142.033
78.7744
20.1372
-92.4229
-153.171
-168.697
-93.0054
37.8026
75.2025
97.2749
71.0699
-18.0297
-37.1521
-73.469
-39.1671
-47.7894
-22.7743
29.0412
43.0494
-41.8784
-24.4584
4.81785
36.9464
-18.5556
-3.7552
70.9282
18.7007
-39.6868
-18.0812
31.182
53.1493
39.6989
4.07978
87.3414
68.3188
62.5973
59.7872
76.4249
36.4246
-76.7825
-129.932
-77.6235
-17.4728
3.34422
-14.0509
-37.7776
17.6364
44.5
-11.7934
-14.5921
58.4179
14.3082
-33.3919
-103.131
-112.977
-85.4874
-53.7145
-18.115
-12.134
62.9379
93.1832
23.2838
-48.5717
-43.2459
-19.0513
2.58551
15.557
3.18856
29.524
105.135
66.822
74.5471
64.493
5.95364
-28.2226
-43.0286
-105.704
-41.1888
109.971
108.405
99.7944
69.784
39.7376
46.1091
8.76992
12.88
-19.7379
-78.9657
-92.2278
-155.133
-198.664
-180.907
-143.156
8.82699
112.281
88.8183
39.7055
-30.1019
-76.251
-91.52
-96.5423
12.7084
62.3691
64.9128
107.468
116.18
61.8526
-2.00802
-9.30095
35.5618
35.3837
80.0669
138.078
89.125
47.1051
36.2856
-70.262
-93.0544
-43.3674
-17.7287
-15.4173
-43.4545
-49.6723
-31.6598
-24.562
-76.4106
-22.4187
48.2218
49.2024
13.953
68.4717
118.286
107.682
-32.4693
-147.898
-86.7226
14.4781
0.242879
-54.1135
-46.4875
20.2053
-0.606547
-71.8413
-132.36
-66.523
21.9764
39.9383
36.5367
28.7408
10.2244
-40.3465
-111.858
-75.8208
-34.9069
12.1036
-35.0857
19.3533
59.0022
15.9438
33.3316
129.843
145.594
165.925
171.206
127.963
67.0207
26.7688
-6.61619
92.0997
93.5068
99.0356
19.167
-72.3749
-117.682
-170.487
-193.771
-153.87
-132.974
-36.9921
-16.0379
-87.9011
-114.291
-128.147
-107.121
-72.0962
-40.5284
40.4292
140.154
70.5809
10.7237
-23.2031
5.97314
25.7428
56.8094
166.626
207.275
98.1191
16.1063
-33.0354
-31.6822
-46.3747
-104.739
-47.2612
-19.5066
-26.1208
-2.66505
-9.51001
-5.70817
24.6895
25.8991
95.6111
81.7531
70.4174
98.3949
41.3409
-9.61189
-1.13292
0.512457
-11.6567
-12.7559
15.5313
-9.72456
-68.3199
-100.942
-64.5524
-3.67918
-32.4043
-81.198
31.7415
179.615
69.7283
-34.941
-91.8197
-88.1645
-51.958
-3.3361
5.59731
47.863
65.9653
-8.01705
-86.3826
-53.5062
-30.6465
-33.5856
-133.959
-119.443
-55.9386
12.373
-22.2644
-91.7343
-49.9518
36.307
46.459
116.303
106.637
93.8757
138.103
156.95
136.933
61.0135
64.7419
151.607
137.536
107.96
67.0321
-27.1876
-88.3402
-169.856
-239.183
-248.634
-149.655
-79.8766
-6.34903
-0.142728
38.4578
50.2437
42.2626
1.73841
71.8648
127.369
70.5895
-4.17916
-17.7509
-22.3695
-21.5158
-105.151
-83.1063
-54.3013
-47.6739
-45.1935
-63.1356
-6.41352
-12.7351
-104.415
-58.3618
14.3604
31.8422
63.6816
13.0479
21.8439
67.2595
43.2703
6.27031
88.7453
134.783
147.721
88.4511
50.1664
47.3218
33.417
-22.5341
-75.2119
38.7838
43.8165
-24.5996
-27.4574
40.4086
53.3487
-16.7072
-114.888
-221.619
-133.885
-83.6308
-135.089
-122.521
-57.1762
-5.03914
69.5543
101.81
89.3299
118.268
166.34
30.9921
-4.3896
-33.8394
-108.657
-142.77
-163.522
-95.8638
20.8476
126.18
89.9829
60.8715
65.7165
69.58
22.2702
46.5638
84.7837
69.5527
28.03
-27.0704
-46.8137
-77.391
-125.728
-68.3849
12.2057
20.7031
56.4387
13.7783
30.0652
109.599
77.5493
58.1859
23.3873
17.6755
70.491
29.9777
-98.3602
-171.213
-158.05
-180.286
-101.617
43.406
127.676
118.664
72.4561
32.3335
3.35244
-5.08133
-35.2699
-72.9345
-18.8215
-13.8291
18.6075
0.977988
-53.794
-87.7682
-98.458
-74.9333
15.5115
63.2088
10.5269
-28.862
-8.35912
-44.5049
-68.9829
-40.0793
-64.1598
10.2453
73.955
78.0971
84.4239
115.04
102.032
56.8584
-25.986
16.0777
148.352
185.022
104.351
46.7611
42.659
51.7577
30.7782
14.1482
16.4543
-27.2743
-42.7855
-121.016
-184.835
-215.844
-231.248
-199.167
-157.004
-7.32227
199.846
218.557
154.636
129.073
132.776
114.468
-7.47064
-111.745
-99.9084
-105.592
-139.833
-145.794
-110.144
-88.0561
-88.5772
-1.99537
99.8034
84.7409
84.5446
15.3886
-42.2373
-63.5588
-100.268
-76.1061
-58.5403
-5.66682
78.3882
98.4462
111.689
127.89
83.8137
122.627
134.075
76.5174
51.8595
-1.28489
-60.3619
-23.8182
-27.8678
-3.90453
121.134
107.713
73.6546
-7.96728
-82.8791
-79.668
-69.1667
-103.932
-166.778
-65.2014
-5.38189
-32.6231
-52.1806
5.24002
49.8684
63.1767
-29.7705
-82.8666
-11.527
-10.2417
-88.156
-53.0906
39.2167
121.164
117.508
-15.6137
-90.8576
-33.0587
43.0782
45.5378
81.7084
106.367
141.28
123.222
37.1958
20.9712
-51.0328
-82.0381
-118.461
-111.356
-129.628
-185.479
-210.65
-105.021
-58.2426
22.2679
78.6857
100.498
119.403
55.2991
9.93833
24.1055
-19.2951
-39.9814
5.2592
-5.40364
47.2146
98.4649
95.1477
86.8818
106.204
165.45
184.857
130.721
80.2606
50.705
-3.10849
-99.5011
-169.644
-113.27
-99.7087
-103.564
-81.4406
-90.2684
-118.526
-161.086
-125.885
0.791389
27.0775
21.5371
36.7711
69.6202
66.7941
-48.98
-73.7855
73.6152
79.4046
55.283
23.8192
-37.6085
-44.5509
-82.8785
-117.647
42.6043
186.897
173.743
166.195
96.1524
36.1552
-27.7169
-96.629
-156.569
-157.421
-115.988
-32.5279
-109.595
-51.7514
33.3085
108.195
134.147
122.461
85.5174
194.129
114.431
7.95084
14.9255
-2.14896
-80.9301
-114.615
-125.216
-186.625
-96.9774
-90.3383
-58.5814
-15.5731
-9.11133
1.44402
33.8343
57.4159
61.9271
75.1335
72.3899
30.9417
2.86909
10.7845
21.6888
-19.3098
17.2503
32.8125
37.2099
46.6134
-24.096
-3.17147
19.4491
-31.9052
18.6318
33.1953
21.7046
-4.24194
-31.7213
-44.458
-60.1722
-105.811
-66.4378
-34.402
-2.40104
27.6547
20.1006
57.2585
90.3983
88.6526
49.1537
17.5475
61.4787
45.3592
-39.6405
-107.023
-96.4774
-80.5405
-102.204
-79.7571
18.6793
14.524
16.5706
26.655
23.3663
63.484
26.6673
-35.5525
11.979
72.3631
59.3617
17.3979
-90.3292
-126.574
-75.9634
-7.57104
-13.9115
24.4869
90.9783
90.5272
92.9932
103.004
-10.7931
-107.576
-155.054
-120.53
-50.4791
-2.27326
5.68257
12.5941
31.5152
42.4672
52.1313
111.436
141.257
130.453
83.1689
-7.43985
-72.2941
-58.3446
-48.7849
-53.0736
-43.1095
41.277
79.6873
59.82
8.31506
-11.4436
-43.9816
-112.134
-98.5026
29.0077
22.4042
23.8013
16.3011
18.641
17.3417
-63.243
-63.7745
46.59
21.7848
-5.18904
-13.9801
-45.1547
-37.5337
-85.0716
-88.9011
2.67337
-25.8629
-7.37918
36.5211
18.4942
37.0488
-31.5738
-84.9586
-87.2423
-62.5994
41.1836
69.4161
-9.41486
-14.6522
-5.26774
29.8904
142.005
164.282
136.367
107.558
60.2978
29.2754
7.39249
-24.3689
-95.7309
-38.9514
9.98523
-10.7808
13.9327
89.1577
85.4624
32.6434
-41.055
-82.2701
-40.048
-11.7453
-36.2099
-21.5065
-11.8405
-41.2842
-99.5844
-110.655
-64.2297
-33.3353
-99.2613
-120.079
-98.5774
-57.355
4.1493
28.249
160.675
253.793
264.797
241.147
185.668
90.334
-81.2459
-228.75
-156.728
-106.894
-66.9067
-16.778
-15.2131
-9.26786
46.5871
-39.6451
-53.1346
-34.8649
-35.4723
-58.0585
-103.885
-103.343
-82.3306
-47.2555
-35.3299
-7.90055
100.372
133.566
113.903
110.218
92.2151
98.6521
56.5683
33.3719
67.9925
83.6184
75.02
52.5082
12.544
-24.6085
-115.508
-13.754
53.0307
59.8171
40.9864
30.142
-58.4979
-100.941
-149.378
-127.555
-90.4513
-89.7413
-61.1777
-41.458
11.5158
92.226
117.035
33.5623
37.2093
56.6317
13.7712
-122.721
-192.813
-167.78
-100.728
-110.095
-103.254
55.5065
151.046
165.73
120.498
78.2676
52.4565
26.6472
-39.2734
-108.531
-9.77661
90.3414
56.3021
15.5407
45.4658
45.1633
52.1579
32.1291
-22.0434
65.3736
110.335
57.875
6.07148
-12.0718
-7.59272
-13.7956
-85.5715
-85.7831
-31.2692
4.11862
-36.0045
-23.2975
2.65121
11.9902
-10.9132
18.7838
-2.69033
-13.7069
-1.5554
-23.8025
-27.4571
-37.9443
-71.6467
-65.8816
-105.452
-89.3358
15.9158
71.8579
84.4542
89.6597
27.7487
-7.38025
-17.4691
18.4796
-19.3234
-104.437
-103.734
-57.1927
-10.1716
-19.3563
30.4998
106.699
105.996
94.2318
115.974
102.233
19.179
-95.9927
-86.6042
-54.5762
-25.3552
11.8261
45.3792
70.7922
117.153
51.1104
18.3538
-7.58383
62.327
26.0923
-20.1737
-71.8592
-51.6753
-39.3454
-50.7997
-41.1601
49.8698
42.731
-45.2809
-89.9029
-101.339
-98.9455
-128.262
-115.278
-33.0231
44.1274
103.081
131.681
90.0158
59.8852
-25.5452
-126.595
-41.1949
20.5817
18.6308
27.4145
41.8843
115.292
152.217
162.878
101.704
97.5478
73.41
-22.194
-78.7158
-100.453
-141.212
-202.559
-264.852
-140.514
-16.8817
86.4983
75.4572
61.0844
101.301
88.8423
3.84301
-51.491
-39.1034
-66.1408
-33.9026
-17.7607
-13.1255
-8.8897
-33.5558
33.0325
39.322
25.2693
17.2337
-4.28115
5.89176
12.0798
-2.7359
41.3213
20.3339
30.7102
56.2018
53.7893
30.048
26.7768
-19.2466
-67.8721
-54.2545
-15.1451
-16.9086
-31.7426
21.8362
71.7084
85.1666
68.704
18.0241
25.8386
105.993
67.3953
29.711
14.8779
-7.91921
-17.7187
-57.6141
-136.9
-142.697
-120.269
-174.261
-192.693
-152.783
-113.456
-34.9778
0.777129
140.025
209.62
201.69
150.141
13.7317
-90.6373
-135.264
-166.265
-40.2518
-17.0364
-20.0455
48.2834
112.355
135.421
121.481
92.7192
175.159
177.23
101.226
74.9184
-0.787617
-82.0621
-119.932
-171.5
-168.965
-89.3218
28.3057
44.3683
-13.4877
-2.56942
19.1513
46.4794
12.5308
-39.8365
-30.7165
-32.456
-54.9569
-69.8241
-99.2728
-80.17
-83.0041
-28.3856
93.3072
155.105
149.973
128.021
118.875
125.11
14.3395
-37.8847
-33.0479
-69.6248
-66.6076
-50.9063
-28.2826
-30.0993
-89.5147
-60.4155
14.8271
23.6975
13.7465
11.3694
-5.49608
-3.97058
-68.596
-108.917
-35.6916
-15.1361
-2.9302
-0.130584
-11.7517
10.4776
46.5896
26.6212
1.54535
79.248
105.683
94.7087
62.8529
38.9737
13.3754
-23.3617
-87.1053
-107.819
-16.9179
73.3165
3.3934
-25.9392
10.5442
66.4045
63.3224
10.8273
-15.1011
81.9511
62.9752
3.99778
-12.8153
-65.8636
-99.3244
-116.943
-108.955
-17.454
-24.4958
-14.8372
-10.7979
-29.3453
-31.213
-17.3935
62.5774
35.0763
-6.0875
-2.16229
3.9223
-22.305
15.9796
18.0824
94.6706
167.962
162.047
125.203
52.58
-36.6657
-33.366
-11.9105
-72.0973
-59.2538
-13.0278
-15.3315
-62.9123
-89.9361
-96.048
-70.8131
-83.6788
-162.786
-30.6449
39.9649
-1.09191
-33.6997
7.16003
69.2079
76.6081
8.36927
28.8407
18.862
22.6901
6.85805
-20.9794
26.8619
45.2578
12.4421
-0.155293
96.2516
130.265
135.011
73.0831
44.1968
33.6723
-8.54326
-66.917
-114.087
-84.7949
-10.0061
-20.6964
-59.8122
-69.2723
-72.5611
-79.1045
-112.814
-53.73
80.286
142.563
73.7283
29.9463
26.5988
21.5889
5.79054
-63.5952
-65.8318
38.5173
40.4385
10.4389
-11.2601
5.84294
46.8055
60.6454
-9.47195
68.8684
51.895
-43.5265
-95.1501
-109.597
-97.5385
-66.9843
-59.7201
-2.55448
33.7567
73.3066
74.4617
-6.04917
-35.3551
-47.9509
-63.6505
26.2885
39.5908
51.4115
69.3238
26.8158
33.086
-16.9533
-43.2209
42.2078
34.6756
54.3841
57.853
3.23665
-14.078
-77.2414
-144.313
-58.4137
-12.6871
-30.6887
-36.5746
-73.5664
-17.1718
90.8005
153.879
78.2962
85.1495
157.971
157.721
42.082
-24.5014
-68.1523
-61.6546
-36.6129
-76.6184
-94.1134
-40.2144
-43.1636
-39.4289
-9.1791
31.1257
58.9446
87.551
38.1474
-68.6701
-64.5322
-78.5825
-119.59
-132.532
-123.987
-88.2607
-61.8556
-50.6812
-16.1324
-22.3618
57.043
167.955
162.044
158.461
131.872
106.983
159.816
102.158
-2.73029
-38.7494
-46.1128
-27.228
-15.6968
-79.195
-145.672
-52.1431
-12.678
0.622657
-43.5082
-35.388
-4.09589
-4.97295
-20.5793
-41.4926
68.816
107.218
51.2218
51.3742
57.4148
46.0315
-94.2179
-186.646
-52.2046
43.2239
73.6667
36.296
70.8869
104.034
50.7359
-21.3977
-18.267
-58.2776
-61.3188
-17.1545
-43.8834
-70.1396
-111.835
-129.226
-62.0952
-32.0606
22.4104
58.6983
-8.65107
7.22896
53.9679
55.1812
100.767
84.1436
61.6035
81.7379
40.9717
23.8349
10.1437
-26.7158
-28.437
20.3673
-53.1742
-66.911
-68.8793
-54.2159
-20.8239
6.77474
-54.4961
-90.5802
32.744
22.4558
-89.2579
-45.1235
-1.50284
12.2794
60.0822
41.5069
36.0388
155.335
159.598
67.73
12.5192
-40.3087
-58.6209
-48.3431
-72.4061
9.21363
14.7334
25.3847
5.06376
46.9042
66.6154
5.21742
3.68919
153.695
125.93
92.0239
-8.60322
-171.266
-283.901
-314.016
-244.803
-115.025
-59.7109
-13.4444
61.0274
60.4502
76.6856
84.7945
6.57898
-20.3217
-18.2826
-9.74775
1.29988
-17.4008
16.7231
64.4397
107.335
102.871
148.922
166.63
155.647
97.9655
42.884
-12.4534
-38.497
-62.9152
51.8243
107.612
94.1134
44.7916
-22.7961
-78.1366
-153.446
-246.191
-126.698
-126.414
-155.604
-96.848
-17.4956
21.8336
11.5782
-66.8882
-8.82235
106.507
127.076
105.98
23.3882
-23.2815
-12.6982
-11.0768
-54.5845
-105.298
7.36484
44.6229
-29.6811
-20.5876
8.66111
-1.04879
-49.7877
-93.9011
14.092
125.218
86.132
15.8996
24.8619
49.1669
40.2174
16.7808
-5.92223
-11.9136
98.9943
174.611
124.957
85.2568
21.9381
-21.7318
-64.3639
-89.4923
-26.6518
-12.8884
-62.1639
-83.878
-106.557
-111.356
-94.1002
-20.8573
53.4068
47.3664
35.22
-9.87026
-82.095
-132.81
-186.81
-69.7413
-19.1568
28.5161
120.296
190.873
198.272
195.086
109.202
139.987
125.186
51.9172
-1.73691
-84.9957
-169.298
-179.325
-198.396
-146.502
-24.1709
29.8265
52.6759
9.71399
-6.64673
-7.43173
-27.0668
-91.9868
-152.69
-15.1851
37.0072
11.0846
22.2692
65.6615
62.1434
5.27412
-31.9567
43.7936
149.775
121.172
43.0156
51.526
59.6032
32.0342
19.6375
-5.83899
25.1275
105.999
55.5652
-74.091
-86.3642
-101.666
-131.244
-174.835
-96.2992
17.7672
45.3613
43.5259
56.9912
91.572
55.6369
-21.4043
-59.6273
-16.9408
-33.1666
-27.7735
-51.3573
-60.4709
-46.5828
-57.771
-63.1196
-81.4941
29.784
115.044
114.012
102.144
136.104
102.659
55.7551
31.67
-19.3518
41.3949
30.9999
-42.0609
-64.7587
-62.7563
-91.4052
-141.26
-102.215
-1.52367
44.1324
65.454
36.0833
33.2922
7.2875
-75.0288
-81.2837
-66.8039
-79.5962
-55.896
0.21668
22.337
40.8608
10.8161
91.6175
86.2821
87.0044
108.203
107.351
50.1336
0.118561
-61.6441
-68.992
-50.6028
-41.191
-20.1004
-61.7782
-65.3723
-39.5335
-32.0483
-37.6927
61.327
124.627
136.337
73.4973
39.426
25.4252
11.4606
13.6617
-45.5964
-32.456
55.8976
18.3673
-20.1372
-45.4471
-52.829
-54.0566
-63.8456
-97.8569
-78.975
52.9052
3.17429
-23.1406
-21.37
-32.618
-39.2454
-102.337
-34.0206
54.2499
71.6079
68.789
24.5385
56.5921
81.5258
38.3029
62.2852
109.34
56.7983
16.556
-10.0002
-66.669
-112.487
-182.456
-167.946
-152.155
-112.238
10.1127
41.0878
16.5941
31.9787
14.2347
27.9752
81.4532
142.083
170.023
132.349
80.8839
75.8283
66.1672
41.1051
-40.4845
18.5674
78.1641
73.04
75.6298
67.4883
59.054
25.4847
-91.9837
-60.9985
-105.349
-203.179
-241.816
-244.22
-242.495
-234.464
-233.666
-138.348
-83.2476
-16.331
55.004
58.081
102.221
130.728
102.494
141.618
193.861
125.485
117.515
90.781
136.713
174.023
140.583
49.4747
58.1656
111.611
99.6474
51.0266
37.3218
-1.23431
-38.9224
-89.3811
-146.571
-103.534
-54.8382
-90.2641
-169.246
-166.644
-125.018
-110.519
-87.1633
-89.6134
-33.9645
14.8579
10.4244
-7.8373
8.57146
8.01363
2.89665
-36.5273
29.1184
76.5278
62.7173
7.9249
-22.3813
7.55073
-3.30103
-45.2445
121.412
232.795
214.475
186.719
62.2046
-24.0814
-74.5998
-156.471
-85.6443
-35.3964
-16.5199
19.5066
6.50105
-18.8638
-49.9456
-128.189
-40.8758
43.7743
87.5072
109.492
20.8293
-16.9832
-18.4964
-87.0663
-82.6574
16.4122
39.8947
38.9811
-31.4883
-61.1335
-4.09978
49.1308
21.8037
111.291
169.885
165.927
57.7666
-40.2592
-89.4334
-132.749
-256.707
-258.061
-142.955
-37.1122
17.9963
-25.2815
-28.8544
29.8257
63.4277
18.3862
9.63414
106.542
111.943
78.9906
106.913
128.687
85.9643
-42.6567
-67.4734
-23.6057
-5.22699
-31.9354
-87.568
-52.9671
-12.2656
-40.1162
61.5334
62.9713
29.7496
17.7435
-26.0538
-97.011
-121.161
-212.706
-112.895
37.3739
71.3699
107.131
97.1312
107.314
158.117
147.463
91.2624
87.4206
41.9055
13.402
-55.3629
-77.8174
-78.2079
-46.2948
-62.3988
42.7062
51.6299
20.6791
-51.5104
-95.7227
-69.7087
-65.0203
-36.8041
57.7856
53.793
9.23499
1.55715
-6.46303
-17.4866
-64.0001
-39.3155
20.8958
42.8191
46.4609
32.3751
-68.0172
-85.1701
-98.1735
-65.1284
7.70498
18.411
49.0584
39.3318
-3.41714
17.0813
0.799229
-56.8143
37.7002
95.0785
109.494
57.593
18.1704
-21.2773
-32.0368
3.27976
-62.8037
-105.23
7.09379
-11.5666
-73.6702
-56.4484
-16.3165
4.96517
5.92662
-1.69975
-33.151
114.534
80.8167
58.4665
84.6551
55.9427
40.1474
19.6771
-23.2639
23.6393
76.4674
77.695
3.67215
-46.6513
-79.4831
-97.3204
-130.323
-55.2974
-52.2308
-81.3202
-63.9697
-83.8984
-88.994
-38.8795
-22.3289
11.2945
51.1085
63.0317
121.488
95.478
20.8174
-12.1533
-60.7229
-104.496
-108.571
76.7721
206.384
183.938
146.793
145.903
192.387
206.908
135.982
136.735
127.136
29.5435
-62.698
-113.167
-88.418
-73.1258
-106.833
-51.6979
-61.9146
-98.7888
-172.873
-288.957
-319.181
-377.644
-347.683
-216.83
-187.229
-148.835
-57.6793
-63.9128
-27.8062
49.3518
63.1388
152.76
185.811
165.531
199.541
223.478
262.549
283.151
311.896
212.983
168.31
252.495
206.727
126.661
88.465
26.1644
-3.46031
-93.4013
-153.308
-92.5909
-45.9164
-11.0142
-87.0832
-148.066
-209.178
-263.624
-198.204
-75.319
-73.2586
-29.6524
-49.8811
-76.6315
-73.519
-125.075
-129.388
-130.828
-96.9909
58.1608
116.958
109.831
151.799
150.262
103.388
-1.53162
43.702
183.342
151.95
65.3533
27.6514
9.02028
13.8183
-23.5027
-6.52372
39.6731
21.8888
12.0027
-8.66697
-104.741
-133.309
-149.276
-192.225
-161.489
-76.4747
14.0135
48.6906
16.948
35.3226
37.706
15.3442
4.95433
102.097
175.874
122
74.5287
76.1043
31.1713
1.79418
-12.2761
-16.9645
61.5517
64.9259
9.13409
-42.86
-39.9848
-48.8354
-79.4498
-78.0947
2.0498
52.6912
-23.7362
-123.557
-206.412
-199.223
-127.54
-88.0105
-65.654
35.3294
36.2949
5.80831
34.1913
102.525
42.5125
48.553
96.4679
204.594
200.016
119.944
63.0426
56.3789
2.18779
-121.187
-219.098
-97.9016
95.3701
116.34
123.922
50.8239
67.6087
121.989
18.7836
-72.285
-124.746
-56.8702
-1.10494
-74.6591
-72.5604
-47.5508
-55.9483
-36.7397
-3.41412
128.531
138.701
50.3343
-79.085
-116.236
-128.826
-129.044
-112.652
5.28223
6.28923
-7.74338
18.2159
-16.5782
-49.3811
-132.898
-130.16
-21.5009
-5.37248
-48.9937
28.6696
30.5661
62.0444
-3.10634
-101.884
61.9395
171.451
174.03
193.093
128.345
91.7597
46.1587
8.48719
-8.56403
-18.9405
41.982
48.1746
1.54897
19.6914
75.4147
117.544
150.807
96.1402
65.9615
60.2886
-0.768322
-67.6808
-163.671
-261.525
-307.005
-279.034
-99.7698
30.122
51.792
68.1985
55.8487
24.6612
-1.82851
-65.1538
-66.0596
-137.394
-165.005
-75.3579
-1.4021
64.2548
48.1935
54.5299
187.782
178.663
107.426
4.20085
-89.3456
-71.8728
-76.4495
-97.1513
17.2644
38.9513
18.5863
34.3443
41.178
56.9136
42.1074
-18.4856
11.1706
105.496
82.6195
77.9122
-0.817096
-17.0591
1.16664
-21.8012
-64.9801
-9.939
62.8992
41.9532
-43.0394
25.8498
78.9957
3.19823
-120.42
-135.864
-58.5742
8.21016
19.5649
-78.7245
-119.943
-130.15
-193.772
-72.5163
45.0546
125.727
165.358
95.6757
-29.9292
-128.918
-245.08
-167.972
-10.1734
100.512
200.213
227.928
171.757
165.71
110.536
21.1631
121.703
122.472
115.931
78.388
-2.9078
-54.7098
-112.934
-174.457
-185.822
29.9715
204.955
112.071
-15.7813
-35.0279
-50.2178
-75.5841
-144.192
-201.242
-88.8541
-4.82556
-20.1108
-13.1195
12.4026
-42.8818
-63.2544
-43.0553
-44.05
-39.8741
-64.707
-181.632
-180.146
-111.123
-9.1026
29.0656
-17.3379
126.79
182.508
178.096
110.85
75.6359
44.0483
68.1547
118.461
177.272
203.135
130.236
69.2073
-13.5194
-72.1783
-78.9766
-101.846
-32.9949
-39.5683
15.9939
93.5687
16.6932
-24.6929
-17.044
-54.0636
-140.299
-155.761
-49.3458
-35.4745
-56.8876
-58.3296
21.053
42.2027
41.7206
63.2775
110.67
136.198
22.7272
-44.2459
-106.018
-117.247
-131.581
-114.168
-95.2906
10.7823
129.086
65.1568
-30.7686
-63.2091
-60.4655
9.4381
17.7333
24.5231
176.729
169.957
31.9491
-53.5749
-83.6286
-63.5484
-17.3304
54.1696
51.0865
77.3112
53.017
9.21214
-47.3864
-72.6735
-77.3878
-84.5874
-72.6354
10.769
81.8227
93.0801
70.4697
137.973
145.759
116.036
52.2583
-9.64594
-0.526417
-11.1338
-53.2209
-64.5344
-12.0029
-37.1907
-94.5462
-141.403
-196.08
-168.547
-176.368
-233.357
-156.498
-35.3151
19.5443
50.0068
62.4403
111.067
188.446
178.565
202.279
151.566
14.2277
-83.1737
-68.7239
5.24187
26.082
66.4309
115.924
134.794
122.756
63.6503
-38.448
16.0931
12.7719
19.7298
62.0096
81.0325
48.045
-64.805
-204.786
-209.021
-46.9286
10.155
3.2348
-24.0301
-13.3159
-0.911148
-56.0526
-138.47
-104.659
54.9771
91.9456
-8.91895
-95.561
-88.9539
-58.2791
-57.8461
-76.9648
-71.1663
27.5519
78.2608
69.7267
27.649
-25.1435
-57.647
0.368992
49.1086
20.6953
49.6778
191.522
70.8653
-21.5484
-57.2337
-9.91869
52.2764
36.8484
-28.6995
-24.4272
16.5265
-39.0779
-97.0874
-82.7321
-43.1008
39.9738
72.3435
122.366
189.076
213.826
201.523
74.5303
32.545
52.4357
31.4359
-52.0723
-159.688
-205.453
-156.008
-119.521
-73.557
-22.8688
16.4584
-21.3581
-15.7843
51.8739
104.689
27.4616
-75.4686
-92.1761
-88.0798
-144.74
-161.911
-50.6584
81.7418
109.234
111.778
94.3384
65.6503
25.0889
-43.0191
-22.7747
2.9981
47.1453
82.404
22.3284
-109.033
-177.438
-118.097
48.9311
76.9115
19.0643
-10.6558
-1.57939
-51.942
-76.8709
-54.6896
89.5371
134.834
181.474
216.495
122.267
17.0283
-31.2422
-77.6234
-114.436
27.9876
198.732
167.599
61.1331
-12.0817
-13.9515
-27.2722
-216.464
-275.927
-121.639
-6.958
23.4753
-53.3091
-147.226
-157.219
-144.378
-84.732
-57.0878
-12.4917
134.9
102.389
39.8101
7.6869
-24.7251
39.0791
82.0945
83.6737
245.597
307.891
188.009
85.74
-0.116904
-18.5298
-16.3769
-44.1438
-10.1007
54.485
38.1824
22.9961
-44.9812
-126.74
-157.196
-168.576
-103.4
-65.8005
-66.4808
-46.4383
-113.07
-154.695
-177.272
-205.26
-152.239
-27.3358
-53.4577
-37.0354
11.7406
-2.00574
42.9994
100.187
79.3652
163.839
238.091
361.407
294.795
198.374
126.589
109.687
76.2398
37.8779
122.033
160.202
136.546
121.223
80.4607
-3.92046
-118.582
-210.98
-157.793
-155.789
-180.873
-203.563
-256.304
-287.229
-270.114
-279.452
-171.963
-79.0827
9.05796
89.6823
78.3491
93.6554
100.913
83.1502
55.2427
12.4338
123.366
266.009
230.183
159.986
57.6989
-36.4576
-137.083
-303.194
-363.621
-132.118
-29.6411
-31.9754
-25.7076
62.4607
118.738
113.777
22.9507
-95.4227
77.6334
199.265
67.1082
-14.562
-5.67748
48.5153
153.719
208.384
284.634
371.199
392.898
206.278
19.2428
-52.0283
-86.3262
-178.144
-274.139
-305.818
-239.419
-138.243
-155.87
-122.386
-9.71832
-3.36459
-91.1672
-179.144
-255.314
-254.569
-215.805
-160.138
-83.4265
56.0177
243.316
220.784
188.486
175.124
178.204
153.278
114.255
68.2633
-6.11834
-35.086
-100.251
-58.0614
-0.405198
-2.12296
-26.8304
-37.2081
-24.7207
41.7013
91.4583
78.1687
24.7974
44.2288
19.131
74.3098
122.435
133.099
175.567
88.6753
-43.2504
-169.135
-259.994
-298.711
-189.423
-73.4788
83.4715
182.912
166.114
98.4999
77.9083
110.278
44.1016
-117.625
-110.112
-94.2319
-200.517
-224.818
-214.803
-122.735
-9.17993
60.4607
138.703
66.7184
-30.0111
-3.58452
7.9615
-16.2303
17.6916
71.1398
58.8001
79.8933
43.9243
20.1936
-49.3876
-67.811
36.2215
134.277
57.986
-3.41929
85.3513
137.241
82.616
31.5866
46.9852
16.939
-32.8208
-0.288289
5.5949
-24.0439
-11.0209
-90.5035
-69.3151
75.0538
103.786
78.7393
10.3839
-90.2145
-143.448
-142.081
-188.316
-187.571
-136.06
32.0994
103.967
72.2211
50.5724
23.6519
35.6137
25.144
-72.3649
-78.1659
-38.1134
-47.9423
1.61639
-17.4942
-8.1098
73.807
145.385
95.99
21.557
120.286
123.866
88.0904
26.7157
26.0485
31.9553
-10.043
-96.933
-157.842
-22.6612
-10.2469
18.3641
71.9974
73.6902
-3.33269
-90.506
-166.912
-270.824
-252.005
-62.306
-48.3292
3.56881
52.4813
88.9146
136.386
143.31
123.484
205.361
160.424
22.7442
-48.3026
-95.5161
-136.239
-178.762
-126.053
-21.904
24.5824
151.313
272.551
233.357
133.517
-4.94645
18.9225
-16.7791
-110.463
-122.777
-44.3055
-67.7049
-85.246
-98.0153
-119.116
-71.6459
62.3386
94.0006
71.1068
-14.9931
-68.2543
-93.2746
-80.785
-75.9997
48.141
121.215
56.8639
36.0907
38.8647
3.80109
-51.7972
-20.807
129.698
70.9021
-56.391
-195.481
-259.332
-155.782
-22.5032
35.3418
237.649
342.921
268.971
171.173
49.0591
-38.921
-141.814
-196.601
-118.161
9.77795
36.7533
-15.3432
-115.878
-97.7288
16.2469
114.08
142.637
66.5669
111.87
123.84
-59.7556
-122.588
-143.515
-168.472
-116.516
-0.192304
21.0968
70.671
63.5775
-40.0522
-160.227
-288.915
-274.613
-88.3235
63.9648
99.9306
211.727
256.272
125.783
60.8623
57.2352
37.1639
52.8835
60.0328
105.407
79.4083
82.6615
73.3168
44.7313
39.5812
33.3818
60.498
132.439
16.7376
-116.852
-136.768
-181.921
-143.637
-176.213
-161.27
-80.1648
-108.857
-100.177
-24.6262
-10.1748
-36.2266
-122.151
-104.924
-6.66795
66.312
76.0824
95.9508
111.044
130.352
116.937
55.6725
-62.4593
-34.8986
5.89881
73.3988
95.9637
142.754
166.424
127.656
-32.2445
-99.4172
-24.1288
-58.7023
-76.608
-70.3756
-46.369
-47.6489
-166.499
-96.8294
68.6925
120.603
131.013
71.2607
22.6166
-34.5931
-64.3134
-44.0238
-85.2494
-97.2019
21.2712
141.415
208.202
168.975
44.5822
-63.1437
-178.796
-123.045
-11.3518
-59.6326
-134.211
-133.966
-100.694
-62.8828
-61.2414
20.6193
84.7162
82.7284
95.1843
119.136
39.8541
-47.048
-74.275
-5.46376
30.0813
47.6494
210.966
179.37
116.396
59.8834
1.55451
-26.009
-75.4699
-153.137
-64.9024
-50.9528
-116.397
-125.185
-43.2466
31.4825
69.5644
26.4734
37.9782
87.2455
48.4455
-8.62434
-55.4682
-71.7354
-163.14
-213.313
-139.54
-26.4929
119.136
239.024
241.05
178.117
72.0067
66.3985
50.6334
-91.4608
-123.677
-43.9461
-45.4632
-93.3348
-126.679
-44.3605
109.342
144.927
140.033
155.39
94.4692
15.7721
-69.4028
-132.022
-196.053
-220.441
-171.893
-33.9753
11.4801
59.4665
78.0052
58.9178
-14.5956
-18.3032
46.1318
69.9278
-38.18
-83.2674
-40.3549
-17.0306
-24.2714
-6.16791
-30.8669
35.4463
60.1187
69.8658
44.9585
-124.895
-217.716
-139.543
-23.6247
122.088
177.417
145.909
132.707
113.645
90.2185
67.9048
149.125
209.515
149.044
84.6045
66.135
-35.8825
-134.282
-163.907
-183.352
-108.813
24.1258
-0.663213
-48.3875
-66.6243
-27.0724
-20.1221
-129.204
-239.978
-153.636
-17.7632
61.1159
5.28175
-2.79179
-15.9437
-33.0025
-44.6165
-39.883
-27.2726
22.9026
-1.29491
-13.6034
16.6492
17.185
7.05132
-37.0213
47.4348
164.7
228.369
158.402
110.374
38.2595
-32.6597
-12.4458
38.5823
4.44826
-15.8459
7.79923
-13.6421
-49.0885
-68.4954
-13.5318
-6.36742
-114.729
-139.627
-71.9363
-49.0311
-12.7881
40.9115
62.6701
18.1713
18.8599
84.6266
82.8494
40.4715
37.0633
39.0739
40.0977
31.8162
42.7749
72.6802
48.0426
9.23928
12.8946
8.28115
-1.9224
-34.2716
-64.6589
-82.6021
-109.47
-72.159
-155.608
-171.782
-192.106
-204.011
-132.527
-77.1144
32.9274
221.551
299.011
246.468
112.955
71.0538
90.5752
30.625
-2.89503
26.4495
-64.5009
-97.1682
-89.8832
-88.3977
-6.08151
44.1323
80.071
184.342
105.58
1.9661
-62.0585
-146.753
-152.274
-125.576
-152.312
-197.665
-75.2364
14.1644
73.708
74.2704
137.25
152.069
129.569
32.1198
-8.05249
96.1875
121.071
93.7584
134.522
156.31
105.361
-34.4727
-158.662
-122.501
-102.811
-37.6671
-29.5715
-20.7913
-94.5674
-217.194
-228.216
-143.553
-48.9962
27.2018
48.0357
-17.574
-8.03994
-0.955055
-5.43118
-21.0354
75.7592
164.225
198.819
151.448
115.788
84.3019
-18.2703
-127.358
-46.0624
12.6953
59.8976
68.9107
55.3216
63.6452
81.2082
53.0966
-17.4441
-0.983522
-25.9145
-107.147
-190.762
-227.707
-202.553
-144.134
-18.6431
44.3276
133.318
122.889
-29.8491
-92.6793
-102.215
-61.6004
-37.5826
-19.8426
44.4629
65.4537
84.5845
-16.6698
2.94341
99.5395
63.5872
66.992
169.393
178.902
168.506
103.171
-0.588727
-28.9926
-111.581
-125.635
19.3991
-36.2488
-60.3016
25.0048
-12.808
-49.4759
-47.7289
-87.1776
-33.4386
-31.028
-41.5165
-9.8361
-27.9034
-60.5615
-74.2052
-80.9675
-136.572
-10.1219
143.342
175.18
58.2951
24.0644
37.9219
-17.7148
-116.701
-37.3082
7.71539
80.927
71.4267
82.0278
100.612
62.0959
-14.2035
-109.153
-167.22
-34.1087
114.526
137.499
135.402
100.839
43.3925
-9.10377
-144.094
-153.12
-61.9293
-104.407
-132.792
-105.608
-34.0091
37.7636
56.0093
145.683
208.387
162.581
113.722
10.1215
-113.067
-198.346
-230.275
-168.128
-30.3253
55.6647
98.1518
67.5171
43.5469
32.5849
32.381
-26.1683
-106.543
-11.821
81.841
32.8054
-24.2818
-53.4775
-77.2401
-64.1202
-42.9108
40.0029
173.282
155.731
93.1486
71.4988
75.3492
59.2668
-2.37737
42.3592
14.9486
-38.7433
-72.2047
-114.206
-135.638
-127.156
-134.201
-62.6891
-60.3014
-43.0498
40.662
51.383
28.92
60.7927
46.4966
81.2546
73.2512
43.2499
50.7385
-31.9737
-20.757
-4.70634
-2.76739
10.863
30.4715
24.7743
30.0653
61.5804
107.102
117.193
101.834
22.828
-0.27287
-92.8027
-169.818
-242.778
-252.757
-213.257
-179.825
-157.368
8.13824
30.2483
78.8937
30.1107
24.9931
25.8097
57.6424
84.353
72.1692
17.4653
127.381
139.2
90.531
119.915
101.347
90.3328
103.779
88.3771
151.678
109.176
-33.396
-24.0381
-44.1677
-71.3527
-126.684
-214.562
-122.899
-93.0107
-52.5139
-47.1983
-148.556
-115.824
-109.938
-142.458
-42.0433
37.5085
28.7811
29.6544
35.3082
84.6001
65.565
71.3176
51.218
67.9771
146.133
192.154
121.676
37.3755
-17.0012
-68.4734
-106.216
-145.568
-78.7518
32.2737
56.0724
11.6549
-9.39313
-1.27393
-60.772
-29.6592
37.1905
20.4679
-0.418285
-11.3424
-26.288
5.38611
-59.6146
-46.4373
24.0851
47.3809
59.4387
78.2708
40.9915
14.8277
-25.3355
-138.237
-106.076
-30.7202
-46.9375
-41.815
-13.3566
22.5687
74.2119
33.8399
-18.0563
97.2729
183.686
151.641
64.2716
8.55813
0.829229
5.70652
-47.7193
-107.036
-23.0433
62.8973
36.2617
-27.4222
-37.4768
-24.9771
-71.692
-203.394
-210.371
-203.096
-164.555
-162.289
-118.909
4.44473
57.8939
99.0736
189.609
174.014
170.15
190.385
94.2806
77.9412
55.5863
36.7217
116.503
83.6703
75.8374
134.064
85.921
52.1587
-25.4305
-107.132
-32.5675
-12.2861
-30.5816
-45.837
-134.024
-161.623
-139.577
-155.113
-79.2916
-21.9311
-20.3068
-53.25
-131.908
-158.909
-136.857
-73.1282
-55.6811
-6.39522
152.079
187.181
89.4681
29.095
58.6692
109.312
70.5478
45.3157
127.556
192.732
63.7507
-39.2131
-50.3859
-97.3419
-130.123
-97.2719
-26.8412
171.343
266.02
251.704
138.971
45.5311
-63.3948
-98.1315
-156.778
-150.809
-119.2
-107.658
-120.875
-112.899
-117.299
-81.274
-9.18788
144.604
187.779
161.267
121.335
44.5189
-17.4266
-107.198
-201.72
-94.3621
35.2732
21.9311
5.49533
-5.44568
-31.5412
-61.6821
-143.415
-197.481
-38.5181
165.494
174.973
85.7854
33.9549
6.86633
-26.4549
-96.5541
-99.2375
44.5179
125.543
116.398
36.3833
15.2423
55.7895
20.9932
21.3221
146.003
132.131
116.239
56.3872
-23.9796
-39.5984
-67.4275
-67.9205
19.4409
-8.78592
-28.3358
-18.8878
-65.1072
-101.921
-161.324
-154.096
-60.9444
-44.0805
-29.6728
-21.5385
-11.2549
22.0834
-21.1202
-58.3302
4.51232
37.1365
69.5192
81.3606
1.5747
-0.192021
-8.51208
-53.0801
-96.2991
46.2764
159.724
186.698
139.893
82.5045
55.22
28.7127
-97.9941
-198.66
-21.9276
91.7603
7.77753
18.5316
52.2645
58.6267
31.8614
-47.5191
-79.1593
-15.3223
34.569
-11.6443
-64.2798
-101.941
-98.742
-71.8348
-67.7613
43.8797
53.316
90.8466
25.6731
-44.369
-80.1888
-122.064
-100.549
74.581
113.594
138.696
108.638
35.543
-6.40437
-88.5937
-124.74
-31.42
-14.9835
8.20085
57.2901
39.3497
76.3985
83.4561
-16.2735
-48.4746
36.0444
27.7458
20.7379
-58.6304
-77.8866
-53.6477
-25.194
-35.4646
80.4458
124.696
77.4246
-26.0128
-46.7174
-6.63896
-0.450863
-46.6386
2.8696
31.2847
52.5267
4.31822
-79.0165
-68.887
-66.8119
-107.192
-63.7884
120.582
123.47
77.0239
35.9523
54.578
19.0317
-54.6549
-63.8386
-63.3112
25.7264
32.3475
9.49494
20.5683
37.7886
38.0317
-23.2304
-62.7149
-62.7376
-34.3989
-20.5465
-66.0075
5.89656
64.0449
32.1427
-31.0113
-98.4546
-91.8112
-74.5781
-34.2983
-20.7306
-8.26866
-33.7281
-34.9325
-29.9236
70.8688
161.858
195.417
178.201
143.186
98.9508
15.3558
-80.458
-48.0996
9.83404
40.0838
64.9852
31.7828
21.8833
-18.02
-126.08
-73.5863
-3.64043
-10.7157
1.46567
-44.668
-110.168
-110.994
-161.689
-89.2342
-21.7855
-31.7859
2.39184
-9.43696
-30.4386
-24.7091
0.557919
108.491
192.972
198.763
182.866
100.575
33.0026
2.70087
-60.6844
-171.977
-164.864
-22.616
61.1922
8.86907
-25.5973
-11.5361
7.89893
12.4563
-63.4726
-74.2225
18.487
-20.93
-87.6269
-71.9586
-32.7193
5.4899
63.5926
50.9579
57.0622
130.401
120.453
86.5284
96.7687
61.3969
4.56142
-75.4415
-140.886
-96.0079
-59.7965
-14.8806
11.0585
36.4912
44.1494
25.213
5.82346
-2.1541
-42.0713
-47.4015
-27.3938
6.77768
26.1023
-136.443
-222.546
-98.5712
11.5387
61.5359
87.6809
96.6115
122.273
128.806
128.511
110.344
121.193
36.0456
-107.336
-269.131
-301.915
-219.755
-110.003
-39.8699
155.965
285.827
275.718
136.602
75.1
83.0856
10.2669
-82.6783
-12.1568
-9.59772
-77.0719
-100.78
-92.3663
-18.3954
21.9692
-15.8921
14.1278
-5.78189
-16.8988
-36.8929
-99.625
-59.5466
-42.8042
-105.873
-130.57
9.3846
75.6141
84.9133
88.6837
102.647
52.4128
47.9312
-4.50956
68.7058
57.9582
94.2671
52.6333
-64.9409
-123.232
-106.452
-105.215
-99.6491
-28.6421
80.9584
127.957
61.5859
31.9856
22.7442
14.353
-52.6787
-169.599
-88.9536
-36.121
-33.2787
11.6167
38.499
79.2838
75.639
74.7688
158.462
184.914
80.9942
-23.2115
-134.91
-144.059
-128.192
-129.137
-27.5314
74.9833
68.2306
35.9641
-2.55513
24.9399
14.4415
36.2762
19.1458
43.0218
102.826
21.8309
-73.0457
-86.6733
-67.6259
-78.9837
-124.761
-169.914
-123.782
31.9932
144.763
112.237
85.4513
52.1472
17.0475
31.8129
-21.7878
-27.5655
28.4628
-44.6021
-94.134
-13.8729
20.6048
38.6559
41.1229
55.6235
155.105
141.143
24.3326
-64.9714
-122.601
-93.426
-69.6485
-41.4621
15.9506
-34.1508
-37.285
-55.1061
-86.7458
-30.0837
-26.3416
32.9156
50.2286
72.5607
117.582
133.177
79.7917
129.222
78.7636
36.7905
-16.9947
-37.816
-21.4504
-33.6664
-101.627
-94.8599
-142.584
-166.152
-133.22
-52.1345
27.906
43.3936
58.8254
88.4304
85.0131
33.1075
-65.9446
-54.8541
111.797
69.4894
1.19738
0.723383
19.3096
18.2312
-56.4121
-134.021
7.06622
137.108
111.742
40.7138
7.85462
15.3858
-5.57894
-47.5145
-75.9796
8.87135
166.07
108.651
-9.92698
-59.0246
-107.445
-136.134
-159.46
-39.3709
159.116
107.854
-53.4944
-197.537
-177.31
-103.749
-139.452
-117.702
70.3683
128.585
136.784
81.8055
39.2577
73.681
63.7242
56.3072
50.7054
143.422
185.192
66.3949
-30.8798
13.1658
61.6748
86.4697
33.3277
-68.938
-25.0329
21.8588
-122.065
-171.042
-184.363
-171.727
-164.078
-153.907
-29.4669
43.6885
95.1011
38.486
40.7425
64.7712
6.75736
-13.1468
89.3082
113.523
84.075
89.4561
75.2901
5.86942
-64.2728
-107.993
3.27842
81.6583
54.0894
39.5964
-31.8308
-31.2568
-16.1309
-54.2903
17.6199
56.7977
-25.9971
-76.1326
-183.233
-208.188
-119.595
-5.56375
65.4081
75.1701
150.859
88.2928
-69.4938
-107.007
-52.0873
4.36516
7.83214
20.8312
22.2545
100.754
156.37
106.35
51.1549
44.5134
59.5571
64.6181
13.0554
-65.0707
-41.3462
-62.1304
-80.6681
7.64193
91.1362
88.5453
15.668
-2.61839
18.829
-67.2195
-143.975
-197.235
-247.054
-214.254
-137.986
2.19239
138.85
176.41
154.255
129.414
43.8623
30.7442
8.53469
17.5406
131.473
109.438
66.6352
34.8517
-28.0579
-11.41
48.8393
35.7169
-73.3119
-91.2477
-15.08
-32.9683
-110.629
-166.907
-131.462
-107.915
-127.066
-102.023
32.7269
79.3923
54.2977
32.6134
29.2358
22.7437
-58.8066
-115.873
-120.75
-94.0926
28.1651
132.309
171.464
193.225
141.977
162.712
170.044
132.296
139.967
143.361
38.5548
1.46686
-69.4218
-73.3279
-52.6197
-11.9211
60.4062
73.1976
25.693
-47.4298
-133.921
-151.413
-140.628
-157.402
-129.225
-127.503
-136.007
-87.6435
-63.2564
-29.6062
-31.4774
-82.5006
-107.378
-23.1051
36.0451
45.462
74.2489
110.617
101.019
100.875
83.5966
55.5092
90.2347
70.9057
54.6354
28.7537
-13.5627
-19.1747
-43.1095
-70.0305
-68.8859
-36.2595
-31.6732
-81.5517
-78.8158
-54.2254
-48.5635
43.5806
150.685
180.017
201.734
181.137
100.311
85.532
18.4428
19.9024
-20.8798
-75.1038
-30.087
-11.6697
-13.1418
7.13808
-29.1043
-63.1985
10.1581
-9.08989
-20.4321
-56.0944
-107.114
-131.814
-138.12
-153.554
-162.995
-66.0093
-16.9932
5.53896
55.7548
53.3066
55.7576
20.2962
36.9695
105.138
95.6688
111.14
79.3531
81.1033
81.4836
36.8878
-7.54359
-54.061
-108.531
-110.221
-106.018
-111.975
-73.5512
-52.1611
-45.3023
13.2387
126.254
131.258
32.1025
-49.4768
-1.88525
36.5916
-60.9221
-78.1408
19.549
74.1256
106.688
113.597
102.094
45.5603
0.537188
-78.127
41.7677
140.544
132.003
86.326
-17.2799
-32.3194
-29.1539
-65.5891
-116.073
-140.212
-67.6477
-67.1047
-120.624
-132.352
-114.394
-68.6033
-39.0855
62.3092
102.832
104.501
29.7098
-47.3038
-33.9145
-1.58051
-4.218
55.081
52.809
96.6835
137.576
94.4262
27.4183
-0.964874
-65.5965
-7.8605
-42.0875
-81.2457
-58.5713
-52.0051
-43.0702
-78.4018
-60.2456
95.8072
117.683
88.7624
29.6113
-47.7896
-48.813
-78.4714
-152.341
-48.0306
102.755
137.971
139.513
74.1885
79.6464
100.126
81.0026
12.1896
-61.2026
22.2927
20.076
-48.4715
-74.2841
-100.649
-94.072
-56.3817
-88.944
-167.962
-19.3494
3.97333
-46.9004
-24.2848
11.9065
3.50883
-12.6702
-28.6236
-117.208
-49.0088
150.949
163.869
142.536
104.43
96.7561
64.9589
-22.2722
-70.5927
-23.339
11.2435
-32.6627
-22.9871
3.9569
6.36351
-55.9268
-63.8533
29.106
89.2778
184.256
135.661
34.0805
29.622
-55.6622
-172.835
-104.326
-60.2812
9.12832
-28.2728
-31.4336
32.6565
44.0939
-20.6691
-136.033
-122.458
-9.82028
-3.86987
-16.9683
-15.5539
-27.1584
-21.8429
-74.6031
-37.8261
104.911
117.555
50.1722
25.7237
7.6493
-7.44086
-52.8704
-18.7694
101.488
150.797
189.347
137.524
50.3868
-3.14925
-91.5305
-103.97
-107.655
-91.4797
-37.965
-51.6603
-96.5677
-58.2051
-87.851
-44.1567
64.0813
101.997
119.374
112.102
51.2621
44.6572
34.1509
-45.5746
-24.0726
114.946
113.402
58.8626
18.272
-41.9086
-93.3139
-132.668
-196.517
-229.492
-39.6474
26.6069
-11.6613
-0.981118
26.2551
24.3616
-22.9728
-93.946
-89.5096
100.449
129.55
74.1494
61.0131
62.5718
61.118
-12.0826
-88.3022
-6.72098
43.4652
88.0164
35.5199
22.6123
21.1378
26.3062
5.07222
42.5284
17.4687
-20.9802
-47.113
-79.4556
-121.484
-161.434
-107.151
-24.4002
30.8109
77.1712
125.645
112.774
113.661
82.6986
-53.1294
-18.9038
69.2767
80.1813
50.3531
-15.9383
-43.6552
-51.1543
-78.7819
-142.876
-88.2193
-72.3532
-111.267
-111.379
-29.1075
21.6237
10.6433
-50.3721
29.5528
116.634
185.065
112.955
-32.6846
-70.8551
-74.4104
-82.551
-24.684
160.307
171.389
104.619
25.2734
-16.0812
-10.7189
-24.3815
-64.4171
48.2564
128.48
136.755
83.0289
5.15715
-79.3175
-160.857
-236.642
-90.6608
-53.6813
-54.4501
-64.3007
-104.243
-67.6535
-37.9764
-69.6975
58.8695
212.355
152.503
92.8558
60.1029
63.1733
37.1281
-46.1728
-127.703
-6.01799
62.9542
100.913
34.982
32.627
57.6697
50.592
-95.5118
-27.2779
6.38695
11.4272
-79.0418
-145.235
-105.089
-84.7808
-157.349
-36.0175
39.1019
41.0561
51.9891
-39.7262
-36.7569
12.4469
13.5588
152.423
169.933
134.439
116.222
53.3324
21.2392
-28.6414
-70.818
-22.3571
-15.3255
1.20569
33.4723
-18.4585
-44.8105
-77.5256
-128.182
-46.2174
22.1089
42.579
38.5187
-19.4799
-39.3916
-74.7946
-102.111
-92.8226
-67.0008
87.2498
200.813
143.925
131.876
81.5764
24.5272
-52.5293
-87.9765
-101.047
22.287
25.9825
4.17721
-13.7572
-33.6608
-60.7513
-46.3925
-75.9717
-46.5965
3.46967
7.88436
-22.4248
-58.949
-67.2994
-33.6069
-24.1664
45.6641
87.4791
92.7905
123.448
99.5706
40.1181
-12.6594
-66.5409
-47.0297
40.8948
71.3546
110.79
115.172
9.17243
5.05629
-0.588927
-51.9903
-96.9192
-26.368
-45.731
-102.252
-128.565
-86.3606
-26.571
3.90808
-33.4838
14.0125
78.3056
70.0237
10.1997
-40.99
-15.0517
20.8067
-24.7652
55.7019
60.3692
67.6855
80.6478
36.2817
49.2112
15.719
-59.0482
-22.3724
38.0851
23.6061
6.33434
-20.883
9.0299
-18.1803
-103.726
-57.1249
-45.0753
-43.4166
0.509382
-51.8007
-51.8076
-18.9701
-53.4262
-111.988
-29.2108
14.7427
27.7199
2.93699
-22.3523
34.0156
101.141
70.1816
-33.4812
72.7844
165.529
142.543
76.2393
14.7827
16.5008
-11.9294
-96.2174
-63.9961
73.5296
75.8764
6.08016
-54.4981
-70.5476
-95.4791
-119.968
-106.565
-13.2078
9.31938
63.2378
-0.445099
-35.4907
-51.3257
-77.3159
-26.0387
82.7837
114.783
164.584
128.733
41.1124
28.5818
-1.27252
-3.3859
88.0139
16.2519
-37.5523
-56.3419
-98.5355
-59.993
-84.0384
-115.806
-50.24
-59.0647
9.34174
51.3732
0.200507
-28.9331
-64.0842
-132.198
-22.4841
30.9511
63.0805
113.758
55.2952
54.8421
64.9203
11.5254
-44.0834
55.3325
82.29
50.4418
16.8943
46.942
34.4991
-62.1659
-170.845
-83.4678
-52.4046
-29.3258
-82.0642
-83.2164
-27.0701
12.6814
-20.4433
70.9606
172.186
162.109
117.29
16.1223
-2.91876
-0.414206
-13.1922
-48.3724
-27.3755
85.3209
91.1838
-6.33679
-0.151609
44.3003
-14.0061
-106.922
-115.104
-12.5136
22.6735
24.3426
-22.824
-22.7282
-12.3065
-51.9624
-157.156
-72.8094
-36.7007
6.20626
9.37448
-22.2155
29.8259
37.0337
37.4256
-7.73407
25.8943
148.063
132.572
53.0465
27.6168
-60.8981
-126.655
-185.163
-113.641
-38.1997
69.8063
57.5978
36.8002
10.6121
-32.1613
-65.7348
49.9775
106.508
90.7329
111.995
121.36
66.4618
9.112
-76.6682
-47.3638
-59.7447
-79.9431
-66.7606
-47.9941
-24.6695
-19.1398
-106.37
-87.2787
41.4104
120.478
151.655
89.8491
42.7541
53.7185
26.208
-107.917
-86.6771
52.7838
75.5527
3.79679
-22.8465
-21.7766
25.4798
6.3194
-61.7239
-69.4671
25.9214
92.2289
-25.0008
-56.1528
-44.8014
-54.5408
-42.2126
-22.9886
-58.1263
-4.3134
-6.39374
-70.7149
-60.7294
-20.0351
40.4875
73.4913
52.9919
42.7414
25.0215
31.0652
-25.9805
-105.617
-52.2904
0.249099
37.6717
175.918
107.608
32.5666
19.5328
-17.6923
-75.0866
-113.108
-93.2422
46.3412
77.7852
66.5053
80.0268
56.3108
17.7713
-3.12253
-33.8565
-28.2022
44.7117
133.642
78.6528
-55.6301
-40.5611
-40.3264
-68.6131
-107.162
-62.0246
-13.3796
-13.5642
-69.8192
-76.0239
-60.9002
-25.4199
-37.8697
41.4182
112.09
110.535
78.9118
22.9207
-59.0094
-72.5802
-116.688
-23.0829
43.9465
78.1686
138.399
110.634
70.7775
0.224708
-93.7707
-42.5489
-29.0284
-32.3275
-39.0616
-56.3424
-49.7139
-8.38812
-12.5634
12.1477
-9.97563
12.5288
41.2443
-21.8443
-67.5496
-47.5524
-46.5884
-75.7643
-26.8616
123.581
184.382
102.749
63.6868
66.3323
91.0689
79.9313
-1.71956
-60.8553
-35.674
-66.0045
-98.3351
-89.2616
-49.2603
-11.2189
19.122
-11.5868
7.24443
65.1504
64.8794
25.317
-5.53491
-10.7209
-27.8656
-115.368
-45.7788
-21.7024
18.0845
52.6376
50.0955
12.8138
-75.5381
-67.6327
-4.53825
-34.269
-38.682
14.4426
47.0063
45.5804
-23.5473
-46.5866
65.8029
47.796
15.6057
25.7094
-2.12724
4.52244
32.8742
18.9433
-27.3034
-20.0998
95.8269
152.741
24.2502
-43.6033
-62.4975
-30.9036
-27.9461
-106.11
-69.3024
32.473
-15.2589
-11.6593
-1.74268
37.897
-1.77008
-77.8104
-74.6429
22.5381
52.8321
54.2742
53.1605
8.39038
-38.9967
-94.5688
-45.1572
109.807
95.8979
141.031
147.13
29.2207
-80.9676
-120.621
-113.229
-40.6981
32.5223
49.8356
42.2303
12.3706
-23.2745
-49.8183
-51.9816
-110.844
-37.1793
59.1637
43.2653
-34.4467
-63.2191
-66.8187
-53.6201
-46.6498
-73.9109
-20.2368
65.5434
51.084
4.8846
11.6463
16.6272
3.85474
-19.7503
57.3775
122.138
118.214
92.4072
105.145
92.0401
-1.95342
-41.1524
17.5396
19.0475
-22.8371
-19.1412
-13.9204
0.0771325
-2.36911
-61.4622
9.82366
22.782
10.4097
14.3185
-29.4383
-57.2333
-68.2736
-78.4735
-43.6882
-73.0799
-77.4813
-43.0999
-59.7375
-49.1261
-56.4046
-52.4509
43.4235
122.469
87.3827
73.4402
26.6283
6.45096
12.6305
26.1145
-34.0843
-60.852
-10.8741
15.3961
-5.18597
16.2951
48.0552
99.0071
67.3329
-44.0042
-33.6915
89.0288
61.7923
-47.7955
-76.8222
-88.9565
-82.631
-37.577
-9.99895
72.9242
138.774
70.4757
18.6074
-34.739
-78.1059
-52.7128
-105.92
-79.031
25.5283
117.959
151.511
135.172
107.513
46.1176
-25.4403
20.707
70.06
19.6459
-52.8358
-101.824
-137.208
-145.68
-135.443
-87.8474
41.0909
90.8597
59.5631
7.60876
-32.863
-47.3763
-71.8601
-115.484
-110.914
39.9417
128.324
117.204
33.977
-4.06442
-11.1663
-73.778
-99.324
-21.7457
11.3807
-14.0208
-48.712
-50.8548
44.547
80.411
51.9152
127.401
138.312
137.114
72.9386
-19.1547
-28.4693
-79.0546
-115.792
55.7664
91.8755
63.2706
48.2631
50.8745
60.3601
28.2131
-67.6356
-18.3761
1.85119
-31.4446
-31.3456
-75.9144
-122.497
-127.446
-134.405
-89.7518
-95.9886
-50.7316
38.7791
9.16936
26.3054
60.4087
26.6388
-3.70175
34.8283
111.734
144.854
68.8842
40.4004
26.18
0.0267945
-59.4303
-76.4945
-52.2502
93.0104
64.8431
49.7001
45.3022
5.39098
-113.76
-176.109
-119.407
-2.36379
1.45454
-1.72398
20.9414
51.1308
40.0045
-23.4865
-27.8057
77.1786
64.894
85.7631
89.0929
9.53457
-33.868
-113.939
-215.745
-125.497
-76.8136
5.56364
80.8262
94.7028
113.535
68.3594
-60.3111
-126.508
-47.0493
22.8604
49.3063
-26.9153
1.81592
48.9549
56.9531
24.1666
40.4582
204.791
267.859
180.446
67.6119
-12.6914
-63.3153
-167.583
-184.898
-105.291
1.78424
60.5722
11.7929
-20.9584
-47.5446
-90.1913
-98.6425
-92.0797
-135.62
-156.393
-125.837
-91.1814
-10.082
-1.52185
-0.617162
121.986
153.973
151.183
105.61
21.4749
10.756
61.8076
50.7258
-10.3915
-15.9922
32.1677
3.44807
-40.3981
-17.7696
26.6074
23.6779
-14.025
-74.8234
-95.0987
58.9627
48.7988
18.5419
46.8756
51.6489
59.5623
85.6372
-2.69602
-43.3883
12.4402
-32.0096
-79.8818
-44.8494
-31.6279
-48.2425
-72.681
-23.4665
34.3511
55.6326
51.619
30.5868
44.9637
42.3973
-31.2884
3.46763
-12.6835
-62.5037
-78.9113
-87.7363
-60.0235
-11.6375
-7.04084
94.7444
68.8465
60.2475
56.6871
-22.9393
-99.0409
-93.7242
2.16373
50.3093
24.9153
-21.8654
-33.9895
-48.8527
-31.4629
-39.8343
-49.6557
23.9971
138.738
144.447
88.335
-1.18981
-7.7458
-25.5336
-2.98181
22.141
44.7132
104.52
43.1897
-39.9063
-86.3523
-70.6056
-13.159
-54.7695
-89.9141
56.0036
101.392
41.0197
-77.3546
-104.675
-71.2545
-36.4389
8.88411
11.8251
120.159
139.872
157.711
104.019
45.0282
-3.78275
-96.8369
-181.091
-183.495
-182.068
-113.027
-132.047
-91.3238
-54.8045
-23.4169
8.04313
145.599
170.427
138.749
128.47
30.9924
9.59046
-6.33222
-61.5406
32.5362
59.0887
82.6369
99.5757
85.6968
118.276
101.856
5.44306
-65.8227
-21.7531
-30.2928
-2.36522
-28.9019
-71.287
-72.2481
-109.661
-161.7
-30.4528
-19.4926
-45.9038
-89.4025
-72.1719
-25.5046
-23.8492
-27.4016
55.1748
81.8891
87.173
97.6671
44.9639
16.0336
-5.95761
-47.9817
15.6079
37.6602
79.3211
85.0219
-48.5715
-133.896
-156.115
-122.966
26.046
63.9933
73.3759
83.0741
52.6061
41.0103
49.7338
86.5016
62.9433
69.4438
83.3789
-46.3922
-189.994
-197.656
-154.391
-68.8685
-16.264
-1.67554
70.9075
93.0194
-6.18593
-10.7974
41.5136
100.396
83.2532
8.55987
-37.789
20.3605
-22.2717
-40.1934
-24.7078
55.4791
95.6592
62.5689
49.9092
56.8062
-14.1232
-6.79361
8.76063
-18.8183
-53.8456
-110.952
-100.865
-54.1244
-103.056
-52.612
9.85434
2.09262
11.7739
-96.4807
-142.458
13.1407
29.6128
32.378
37.2281
50.4086
87.6554
93.9276
23.8474
10.891
74.2779
90.851
66.2731
15.241
20.5908
4.08489
-34.2578
-104.954
-97.2855
31.3475
18.2685
-36.2802
6.87077
51.0347
20.7993
-106.227
-140.276
8.40775
54.6918
36.8238
-12.2679
-11.1681
-19.0235
-78.638
-87.4076
10.0665
5.70501
11.4704
40.8243
45.493
73.1783
-0.295729
-17.2219
107.604
108.337
120.168
131.85
56.5854
53.9916
20.0631
-33.0544
-111.129
-149.649
-40.9005
39.1798
9.72742
3.60517
-27.6281
-46.6423
-72.4335
-115.337
-72.2208
-28.6958
-103.288
-90.1286
-39.7523
-35.8509
-69.9809
-60.3459
-76.0604
23.8749
103.244
114.432
58.494
18.3288
-11.1337
-10.8592
-4.32602
125.386
157.526
180.278
134.343
90.9573
73.9936
50.4138
79.5607
88.7712
-1.01681
-64.9162
-126.98
-250.918
-278.26
-249.614
-74.074
61.5822
86.6844
96.4232
110.951
46.104
11.3091
-31.5698
-36.8808
67.4944
21.4664
40.4015
3.07937
-62.0694
-57.9201
-43.35
3.70554
114.258
157.921
151.251
45.6042
-44.7877
-84.105
-113.41
-166.087
-149.761
8.94775
40.9771
-0.613839
-109.752
-106.642
-73.695
-87.4561
-98.6365
-58.9258
101.942
136.963
87.6439
95.8389
121.651
80.8281
48.2647
-21.1279
18.5079
159.087
102.029
5.85223
2.97203
-7.97088
-35.1066
-49.1357
-82.6546
-4.87038
36.7626
48.8393
-21.2412
-39.5239
-35.8305
-33.8695
-112.947
-54.8366
65.2512
151.525
111.409
4.16547
-30.1901
-79.8599
-120.555
-172.184
-197.015
-128.07
59.756
43.6649
22.481
54.7937
91.8793
111.263
43.4124
0.679102
114.514
78.0123
6.72777
-31.0741
-39.0918
-49.3391
-55.9493
-43.7389
94.0379
146.791
136.709
82.5529
-29.3891
-67.4205
-84.5031
-126.018
-102.728
-46.7781
8.97044
36.5011
13.0125
-30.0043
-110.778
-120.027
4.87917
17.076
48.9523
81.8554
52.4123
57.2308
55.5619
41.8843
67.2147
62.4296
49.5142
17.5772
-23.6847
-55.4676
-68.0266
-74.7269
-111.665
-59.4326
-2.06355
52.6837
-10.794
0.487579
2.09093
-22.4238
-42.9646
-61.5904
-80.4198
-13.3458
27.7885
22.8847
37.4036
49.0957
53.002
87.0502
47.7839
69.5438
107.925
30.7659
-59.2071
-114.902
-111.543
-86.9403
-127.31
-68.4771
-0.436832
73.7188
134.601
111.661
36.0032
37.51
44.3011
85.6164
78.7993
33.8997
18.285
-0.840819
1.56296
32.6058
49.2325
3.13235
-15.2042
-13.2532
-40.5421
-110.811
-131.132
-91.5424
-69.4371
-71.2938
-124.311
-109.846
14.1072
0.76603
-49.0951
-28.1055
31.8349
47.7856
7.1708
14.0584
81.6086
78.7049
51.4439
42.8537
94.2989
91.1417
16.8123
23.6662
12.8803
-17.3086
-5.40296
11.6968
-26.9477
-64.2057
-114.021
-64.4757
18.4458
27.6588
13.1597
-3.2076
-16.4417
-6.97949
-65.2971
-63.2266
35.8552
85.3572
112.8
65.8227
45.1804
42.9641
45.3788
0.468
-96.067
14.8345
84.3934
68.1547
-14.6883
-55.8999
-33.8684
-23.2453
-48.593
-93.556
-37.0746
109.7
57.4147
-63.4518
-130.501
-162.983
-133.123
-77.9503
-78.765
-18.7949
85.6233
70.6131
103.204
75.0271
48.5351
22.1337
-27.8921
-31.3734
84.8551
141.433
139.719
62.2251
24.2661
35.906
16.5263
3.50318
11.6119
-27.4312
-27.6669
-63.2458
-84.6882
-93.1915
-144.102
-78.519
-27.8171
5.1606
43.8686
22.4542
-49.1616
-16.1679
-37.7928
-76.8333
8.80158
39.9203
53.0218
62.8118
87.336
103.155
82.791
13.6289
19.8194
-3.61828
1.14993
-45.8885
-62.9421
-34.8348
-56.5265
-52.413
15.5837
27.0505
49.7393
17.681
-29.3526
4.1728
22.2506
33.5979
116.131
97.7989
37.0155
-17.6563
-98.3004
-123.575
-120.096
-131.84
-33.5464
43.1744
45.7302
20.4844
-53.589
-52.9512
-29.8186
-61.3336
-31.8955
80.7745
107.412
94.7544
-0.235023
-13.3735
13.4848
47.2652
19.5259
51.1929
124.051
94.6042
20.0568
-39.307
-4.67919
15.9339
-15.1981
-82.1159
-84.8602
57.0402
45.7432
-55.0898
-93.7536
-107.484
-103.713
-91.7276
-104.372
37.3066
147.753
101.22
38.0676
18.1793
0.480685
-3.20712
-20.9593
17.7003
5.65422
33.2014
51.6252
-18.4213
-32.6431
-39.5605
-61.251
86.9997
108.977
92.7027
67.452
-48.5511
-119.45
-149.247
-186.956
-107.629
-106.157
-81.2428
-13.5907
37.0622
105.054
147.092
102.962
8.52153
92.2941
131.262
158.112
61.2557
-11.2294
-8.26258
6.31586
-60.6239
-139.677
-26.5166
120.269
96.2791
78.3303
66.3327
42.7559
-4.81609
-53.3825
-121.431
-63.5902
35.4986
-50.3811
-94.6291
-82.4595
-124.34
-145.54
-156.113
-88.9928
51.813
122.376
109.064
44.089
17.124
-1.65357
-30.0171
12.4375
25.0767
9.60281
50.6464
21.0961
-30.8499
-84.3049
-127.24
-18.9045
-9.77247
17.9043
77.464
109.972
90.6551
111.667
22.6819
-59.8121
-13.9437
-3.72415
-32.5199
-41.9119
-19.4408
44.2575
103.308
75.5394
36.7799
90.6991
78.8094
23.8539
14.2882
-4.80184
-38.217
-114.071
-81.2724
18.1822
5.25117
7.05974
-42.8548
-70.8002
-63.9431
-77.9795
-93.0124
15.4054
9.72347
-23.4536
-44.8429
-37.82
14.1883
-16.5
-36.3851
19.533
21.9919
45.79
20.8448
-11.3508
19.9757
-31.651
14.4856
148.07
119.735
49.7126
19.579
-72.8865
-86.2003
-46.1061
-40.3307
-33.7235
41.0896
29.82
22.1557
-4.78827
23.3131
39.6012
14.8555
-70.0237
-35.5556
115.658
135.763
95.5081
132.567
120.326
32.3174
-62.8208
-110.012
-189.441
-239.101
-216.626
-240.408
-125.694
23.0259
104.304
128.46
83.7127
72.1645
130.344
116.044
31.4537
-65.4478
-114.897
-83.7517
-60.5214
62.681
105.534
107.741
143.923
177.172
122.351
50.3093
-17.9151
8.66743
-59.5906
-86.9549
-78.4285
-131.032
-167.895
-148.246
-133.456
-158.381
-56.5522
77.3867
65.5229
6.8267
-17.9491
4.65732
65.7309
89.4705
30.8236
114.338
128.06
42.0356
-2.4684
-38.5433
-8.49088
2.53207
-50.4304
5.47875
113.951
132.876
49.8138
-42.5767
-6.21548
4.89938
-22.9318
-29.2183
-37.0112
-54.1359
-39.3526
-82.3752
-91.176
-71.0024
10.2265
23.2916
-19.7678
64.3264
86.8992
34.5572
-76.8719
-117.939
-127.308
-139.1
-108.783
-50.3478
125.041
143.715
88.6313
87.8109
107.931
134.225
136.598
38.5005
-11.3319
61.3952
63.5522
9.70982
-7.31797
-47.0842
-30.7782
16.1261
-48.047
-47.288
-30.9143
-37.7596
-122.309
-139.725
-68.6299
-2.11262
-26.8415
50.2845
65.9387
66.0932
17.84
-62.191
-73.7525
-124.039
-146.022
-14.2102
38.9763
87.7676
108.811
86.4667
72.7735
11.3194
-16.8882
32.8456
24.9825
32.1114
54.1974
-27.4327
-59.3277
-99.6877
-54.1612
33.095
91.7935
109.082
113.918
43.8529
6.20036
-15.8687
-45.7946
-142.479
-100.977
-66.4366
-71.6215
-85.1369
-51.1215
9.68873
56.83
9.98983
6.45114
77.7562
57.5862
-7.87973
-27.383
0.772903
36.1155
27.2871
13.1343
6.90457
95.2811
206.799
147.805
77.2003
17.9559
2.21514
-22.2693
-100.948
-62.5068
-65.8055
-82.5132
-79.685
-68.4303
-80.3883
-78.7
-85.3498
30.0803
7.93058
-12.1981
-7.50318
-23.1581
-33.1295
-44.0052
-73.8621
-6.77291
107.805
104.871
91.7173
50.7188
49.7158
31.7575
-9.67785
-73.0258
-105.536
-48.4417
43.9518
6.85151
-0.632894
26.0493
53.2598
57.5112
26.1937
44.7867
105.643
25.0159
-48.6981
-43.4767
-42.069
-66.6661
-95.8814
-32.4895
34.1786
47.9859
40.0641
24.3991
11.7167
-8.89137
-17.0905
49.7075
61.3892
39.154
1.05214
-16.7511
-10.0939
-13.7126
-32.0923
-1.84562
-25.2628
-54.2256
-30.7974
-39.033
-54.4518
-112.359
-68.2099
16.4751
63.2257
43.0348
65.8239
36.9994
13.7587
11.1508
22.3912
-15.1316
12.0697
67.498
29.1232
9.62495
45.421
43.51
18.6154
-12.9234
-67.2946
-35.0507
45.6623
-32.9794
-77.0703
-41.7461
-38.7052
-47.2315
-58.4102
-64.3778
61.4267
62.5841
27.5934
15.4798
22.554
10.8022
-29.9236
19.0054
52.5861
28.5273
34.2952
65.7683
23.6315
12.4006
-44.6559
-5.93836
-3.88279
-35.3964
-24.2169
-2.33025
-40.0192
-24.9346
-57.0901
-94.512
-55.5356
16.0559
7.69973
-12.4897
20.5191
47.6364
59.036
27.8409
-52.7376
36.0678
68.5682
47.1264
29.9219
39.2091
23.5592
-6.32652
-66.6585
-75.2106
20.3825
61.5578
40.511
-6.32115
4.43933
-29.6668
-92.927
-111.278
19.8635
63.3846
73.0675
23.9231
33.1596
28.1242
-10.8766
-47.9724
0.472041
-4.98745
-44.3664
-54.543
-97.2299
-87.0219
-50.4148
-56.7457
-2.48233
66.0553
63.5186
98.3363
72.7171
92.012
100.079
44.6297
-20.6553
-80.1083
-21.1715
74.5947
15.945
-2.47454
-10.9819
-33.5837
-70.4806
-75.6894
-62.1411
7.61672
44.2381
22.6803
32.1204
15.6268
-19.6845
-26.7943
-49.5568
-6.62785
17.8188
29.1023
16.8095
-19.5076
-14.6799
-19.3547
8.47045
84.6704
75.7459
55.7399
2.15063
-59.0986
-74.6649
-110.504
-37.5408
11.3516
4.3496
-10.8447
-8.35452
-13.7026
-11.5059
-29.5425
17.1353
9.24207
7.16281
22.1821
37.7486
34.5067
39.1218
-29.9385
-23.4321
53.5982
105.364
88.8181
40.9182
0.0306463
-37.8083
-35.1371
-36.5053
-76.9911
-0.0419587
33.4624
-19.0808
-38.1621
-28.5914
-9.32338
-40.2436
-96.5572
-6.24969
134.431
100.37
17.3968
-33.4997
-23.6933
-26.1741
-36.4942
-46.1932
-56.9154
22.627
29.7888
-15.9602
-16.3289
-16.4605
-16.2182
-47.3419
-56.8851
78.0687
130.416
69.6093
20.8403
21.3569
-1.03149
-22.5795
-20.0093
32.8669
2.16425
3.39861
37.9862
14.6998
2.31622
-11.9118
-68.8709
-103.634
14.0572
84.4974
59.5571
-4.16491
-9.72539
-17.0013
-41.1982
-94.4079
-6.93842
87.9174
45.4964
-17.4785
-20.6793
-18.0225
-17.2249
-66.5416
-9.26563
-5.31906
28.2372
57.1464
-20.5014
-46.4749
-0.907244
-39.4788
25.429
22.7682
11.8794
45.9207
-16.6634
-79.0523
-78.7139
-47.3183
49.7901
54.4733
61.4652
83.8182
48.2418
27.3749
-27.496
-18.9068
22.5416
14.4852
24.4218
41.3752
10.1082
-2.48768
-33.7506
-56.4972
-35.8295
60.8134
82.2097
33.4363
-11.2134
-23.4078
-39.2813
-62.1097
-107.284
-60.0045
16.1187
75.483
-8.80354
-28.2767
-15.3836
-14.272
-42.9703
-50.9495
-61.2757
82.3056
60.8054
-14.9819
0.479437
8.03346
-8.92908
-33.6527
-52.639
41.6397
54.1464
42.8898
38.2697
-5.15808
-3.05113
-10.6933
-20.9545
14.4147
18.274
40.7775
80.4685
33.7481
7.20584
-67.1745
-74.347
28.7184
18.8646
26.4912
38.4856
0.846551
10.8068
-7.0986
-71.814
-95.3255
28.3424
63.2024
28.8452
-9.70776
-20.8376
-14.5165
0.648409
-49.4742
-92.1586
66.1534
104.535
5.09928
-18.2955
-13.1477
-16.1899
-78.2419
-113.795
1.2692
58.413
61.543
-8.6533
-12.9423
3.39823
-21.4015
-35.8806
45.914
51.6592
46.0132
49.0965
-34.8218
-52.7452
-60.2454
-78.5618
1.43503
108.43
126.239
129.839
32.0492
4.77321
-36.8415
-108.856
-175.337
-53.7997
3.70863
19.0606
-2.05125
23.348
47.7786
59.0571
-17.1166
-73.0817
26.481
67.2246
41.208
-4.28739
-4.3692
24.1558
-29.8691
-91.1398
-17.9659
87.1891
133.619
44.6511
16.7779
0.876794
-77.1886
-156.9
-137.583
-57.3175
1.86022
56.3884
24.851
43.1598
21.3954
-55.1594
-10.2302
30.4646
28.8619
65.9321
37.7599
-2.98626
-0.543686
-50.2894
-25.1276
50.9733
46.4074
67.9984
47.9046
11.4642
-17.4289
-43.5133
-29.915
-6.92387
-18.3243
-6.93587
-27.6134
-39.5884
-30.0287
-8.95335
-65.5122
-71.6729
45.702
59.6858
24.7394
-1.55801
0.830658
13.2101
10.9721
-34.3749
-17.1048
64.5927
29.274
-1.15304
-11.6976
-4.16396
-4.6219
-76.414
-95.0016
84.6056
116.495
66.6827
-0.647218
-15.8348
-31.1622
-41.3055
-18.4693
-26.376
38.1895
60.9227
44.8756
23.2016
-19.8655
-53.1305
-110.007
-104.651
-17.3082
69.5288
101.072
31.0107
31.3308
11.3039
-31.7234
-49.5573
22.7157
5.77483
4.72224
33.8486
13.1936
40.529
69.9408
58.216
1.28952
75.1894
78.0855
-58.7386
-236.397
-333.522
-297.136
-208.263
-98.6225
-24.0688
94.944
247.182
194.081
148.399
110.409
93.0921
68.7651
30.201
57.8129
71.7459
122.355
55.9519
46.5862
109.425
96.003
81.2649
20.5874
-120.521
-141.702
-129.115
-189.611
-277.296
-283.962
-127.817
64.3712
95.8706
70.0288
65.9861
23.2547
-5.89206
-49.2923
-40.9709
39.2635
64.1844
104.148
142.643
141.456
124.913
70.2516
-8.76913
-29.0234
1.68662
16.7405
-46.9305
-146.631
-158.582
-142.037
-142.374
-208.206
-131.274
33.061
34.6596
7.81538
17.0283
25.357
38.3857
61.8637
46.5225
85.3361
107.482
82.1413
46.6386
41.4019
20.4471
-16.3118
-71.7066
11.5104
29.0923
41.6524
5.69641
-43.9846
-47.0407
-56.7789
-55.111
34.5711
102.729
89.4566
85.7561
45.501
31.9764
8.99304
-45.1357
46.0545
31.8466
26.2833
35.3963
-35.7426
-32.5082
-3.58247
-44.4309
-124.882
-42.9434
35.239
16.6183
-18.1912
-25.6368
-15.9287
-21.5008
-49.8591
-68.3955
-2.80797
46.8969
-9.73515
-30.6935
-41.0214
-10.6356
-21.0556
-48.786
15.3632
22.3199
26.5536
-21.2181
-50.557
-5.69208
-12.8508
-53.9519
2.23737
30.8366
44.0638
69.6696
42.6923
23.7806
-40.0829
-101.655
32.4616
102.978
77.7969
63.366
23.0489
13.5483
16.8607
-5.96206
-21.8897
-74.5084
-0.750954
58.6134
19.2665
7.07852
6.28869
-3.29585
-8.37375
-10.1262
-54.4068
-8.73602
23.7823
-6.15273
12.3732
38.1731
-4.18342
-25.6115
-21.8099
-55.1789
-7.12623
33.3694
-9.91335
-26.1952
-12.6603
15.8822
-11.9906
-43.7269
41.0307
33.6232
61.3293
62.7829
-31.4333
-46.0983
-79.1809
-76.1087
11.0369
25.3501
24.3629
31.0227
7.01345
22.7945
-38.1345
-68.4384
43.2723
32.3939
13.7763
12.2845
-47.1796
-39.0796
-26.1566
-16.2975
4.14315
15.6739
14.7642
2.30395
-34.9657
-15.0417
3.54627
5.43783
-27.5181
58.2717
68.7681
59.7887
2.85958
-0.80251
10.0118
-4.58762
-64.5231
-8.32128
18.0887
27.759
-12.8912
-17.4337
2.50747
-23.7143
-50.2161
26.4171
75.2879
70.1593
63.0869
4.82234
7.44299
-3.58107
-67.9322
-117.519
-7.95606
84.7911
100.172
36.8904
2.3635
-22.4019
-63.5205
-82.3096
-7.73916
39.3982
18.393
-40.3281
-50.7998
-18.3176
-30.974
-87.3004
46.2255
59.8807
34.8355
43.2639
-6.08505
-38.5246
-32.0606
-19.4341
-32.7083
-31.0739
35.3541
48.2537
8.01917
-3.88094
0.620776
6.79039
1.39836
-26.8462
32.0914
63.4784
-16.5647
-30.9522
-30.6633
-11.3874
-21.377
-36.1294
44.3296
14.6635
13.0378
18.683
-21.9072
-16.2406
-50.1398
-26.9741
51.7745
37.3341
25.9856
26.2158
1.30806
-6.92739
-76.9006
-16.4041
57.1257
42.0443
21.655
37.2074
-22.529
-26.426
-31.039
-30.6716
72.8099
77.0337
59.9463
48.7755
7.47293
-13.9259
-27.2681
-17.1755
-51.6697
-51.323
72.0745
29.7918
-34.7816
-28.3311
-38.5276
-49.1378
-85.9299
-68.5865
-42.6402
40.0185
30.0839
11.9922
17.3136
-1.38101
-27.4778
-19.8493
-54.4801
-94.0952
58.1471
85.7769
-2.8818
-8.97254
2.94049
22.9078
23.2281
0.569054
70.2112
61.7365
64.1514
42.9383
-11.8153
-1.33559
-33.8163
-38.751
35.6269
17.4075
17.658
24.2665
-59.4198
-56.32
-93.1302
-78.3286
19.5463
101.958
106.852
85.8663
13.1244
17.2201
13.1861
-37.0512
-122.843
-90.4916
-11.0341
0.985927
-22.0434
11.5842
30.1248
46.9934
-2.36516
-3.74505
45.666
44.5481
2.89939
-56.6657
-61.9698
-41.7731
-82.2464
-38.2532
57.9201
49.3114
45.3844
22.4357
-4.56326
-10.4876
-61.4896
-36.747
-5.23869
10.9224
21.5234
14.5734
13.4431
5.58094
-64.2007
-95.9287
31.9462
110.93
91.9609
38.4601
-21.8947
-34.6726
-23.6619
-65.0275
-77.6714
33.9529
124.743
76.6168
29.0159
20.4168
7.91245
-12.2434
-28.024
-54.4078
10.51
74.0262
-11.6946
-58.2907
-32.2159
-27.7306
-26.2662
9.21173
-26.373
28.6739
79.1338
17.4107
-27.9502
-15.2932
-5.52818
-17.8774
-38.327
-9.52662
33.1766
41.3507
1.99852
-23.2942
-34.1933
-41.8922
-52.3256
-6.33004
41.7805
32.4694
48.1202
21.8944
-0.540644
-12.5119
-81.9396
-51.5172
25.1482
33.7494
35.4341
20.7269
9.76007
14.1446
-77.7145
-90.065
53.2763
77.0145
56.5739
20.6236
3.37381
13.4835
14.9055
-5.21803
-46.5711
0.458349
47.8151
18.51
-23.4616
-18.8493
14.1291
8.23765
-60.8151
10.7971
65.2941
44.7719
-50.1376
-65.0093
-27.6366
-53.9518
-137.686
-100.556
-30.0674
52.0402
98.0642
61.8133
29.8062
29.412
12.3667
-14.7381
0.67052
59.7559
65.3653
2.65376
-14.3001
-23.2927
-64.5924
-83.4394
-3.81658
62.1501
82.562
69.0622
47.1237
9.90326
-10.8151
-58.3981
-105.745
-7.93062
17.9955
44.8623
37.6288
3.72932
8.81678
0.235966
-5.54314
-88.2512
-21.2196
18.1891
-3.42944
8.34051
19.4804
3.20605
-6.67095
-66.294
30.5137
43.9193
50.3503
-20.5244
-44.4037
-22.9123
-32.7895
-83.8575
-24.5559
36.1854
57.0867
82.359
-1.06036
-26.694
-51.9954
-117.444
-29.8124
3.57034
10.2495
58.3447
18.816
24.5958
45.3717
2.70858
38.0561
31.4346
32.9614
50.1518
7.70128
-31.0636
-11.6637
-38.7548
-17.2596
113.672
96.8314
85.4165
28.5172
-17.1367
-54.1156
-66.4158
-109.278
-149.406
-77.9154
16.6646
20.9659
20.248
7.94011
3.34518
-6.43572
-32.0232
-75.9925
9.1849
59.8906
-3.28658
15.2341
43.6576
12.9161
-8.81833
-13.277
23.5694
59.3012
84.1989
51.4379
-5.0652
-33.8529
-54.4094
-83.2982
-1.01008
10.5399
10.8976
28.1653
29.2333
-11.0133
-78.5981
-84.3857
-10.4092
-0.484272
29.8928
40.7723
14.8527
-15.2328
-10.9312
-47.5165
-22.8645
21.6785
55.33
72.6811
28.5621
27.6904
22.7814
13.6425
-29.7115
-44.747
46.0333
50.1251
-0.956281
-13.7845
-15.799
1.80904
-60.1053
-43.2934
58.637
70.7121
19.1092
-27.7944
-31.7417
-48.2786
-136.263
-20.324
29.1931
33.6007
43.3557
10.829
-34.8134
-26.4346
-62.3489
-13.9378
-1.21663
2.53613
47.4706
30.1612
-15.4321
0.738531
-49.0186
-56.6092
35.0955
47.3773
78.3356
41.6677
27.2746
8.00834
8.67904
-26.462
-87.893
7.5361
70.7494
37.7725
24.9519
13.8912
20.8644
22.8488
-18.8565
-62.4389
8.54904
69.5771
-6.19896
-18.9509
-10.0865
-42.8792
-42.2874
-46.9481
-74.0203
30.7547
42.6261
-5.98411
-10.1136
2.67058
10.3917
-11.9296
-28.2383
64.37
29.7074
39.5554
30.7239
-16.399
-40.2524
-58.24
-8.71328
-1.36232
-13.5624
24.1297
61.4393
24.6142
4.17616
-70.2305
-19.4522
1.42701
11.6645
21.4057
9.60505
-52.6052
-28.1377
-54.9854
-81.1556
-1.65553
56.7682
66.0768
36.7302
-2.05617
-16.0562
-5.15765
-7.66746
-64.522
41.6657
69.8664
24.2527
10.5537
1.7582
13.9083
-1.68455
-94.3046
10.8125
74.3805
74.6524
2.76517
-29.4312
-1.14232
-7.8515
-68.4063
15.0139
27.2934
55.655
45.0986
-24.5857
-40.1418
-51.8642
-41.9517
-53.8325
-101.843
18.5326
163.326
89.4949
42.9624
8.1631
-25.7465
-35.5736
-48.1105
-52.3357
49.1863
15.9513
-9.58234
-19.3544
-12.1785
-17.7656
-8.51949
-36.4321
-81.2848
30.1471
70.2601
38.5913
-29.3658
-68.7727
-33.8536
-38.638
-57.7135
11.7889
77.9518
76.7889
29.5184
-3.20226
2.83539
10.6438
-4.57829
30.365
58.7221
53.4806
47.7573
-17.1334
-9.53003
-28.4079
-80.6885
-27.2436
16.6931
27.6967
24.8022
-9.43222
-12.5493
-21.6177
-39.6367
32.4874
38.1777
19.3329
16.1467
-27.1985
-49.4855
-86.9771
-110.276
-7.4508
65.2514
54.9022
49.0957
9.59178
-8.28815
30.2336
41.5908
-24.9655
-39.4341
11.3757
9.29672
-22.2285
-6.71439
2.46915
11.7356
-41.6332
-61.1446
51.3679
169.165
60.4694
-9.90272
-40.5259
-31.9046
-34.2462
-38.625
-81.3375
-40.1196
8.20112
1.04221
-12.3635
-6.88876
-25.7897
-19.446
-63.35
-17.3255
79.4003
86.5357
43.5706
14.5622
-7.47194
-45.3945
-69.8421
61.3095
94.7269
53.7015
46.8819
24.4987
3.524
-12.834
-38.9181
1.4219
31.9416
21.8316
52.7708
48.9554
11.0858
4.08898
-27.0111
-99.8849
-133.255
-22.9733
16.9617
-46.4934
-43.8301
-10.0125
14.7576
-39.9636
-84.188
30.6527
84.0001
55.6833
0.489865
-11.9602
-5.65827
-17.3945
-52.4552
11.452
25.3686
40.0592
39.3582
6.12369
7.15188
-25.4328
-81.3658
-49.033
2.13538
54.5098
89.3073
24.6496
2.96252
-39.3493
-121.734
-26.2257
101.169
79.3949
64.3461
19.1121
1.34358
-1.96591
-28.9263
0.445741
42.5593
16.6408
28.4638
7.21852
-15.2723
-9.40495
-34.0168
-92.6681
-63.4756
26.1066
69.2003
5.39821
-57.8716
-37.9926
-13.4923
-21.6186
-62.1632
-73.8176
31.4836
78.8847
26.2425
12.1894
22.2207
17.3154
10.8253
-29.8262
3.46924
66.7406
33.6267
0.991083
10.6908
-7.65128
-36.1254
-59.4708
-3.18006
23.4445
39.8735
47.3242
12.0059
-62.7366
-79.3444
-85.7264
-58.0222
50.7534
63.4899
68.9792
48.3775
15.4111
-0.165522
-63.5679
21.983
68.8958
43.2774
40.7658
0.343753
-26.1298
-23.5671
-32.7359
-96.2527
-44.2843
57.1485
71.1824
38.5863
-33.1459
-28.2534
-2.6758
-30.2506
-42.2837
10.1628
22.9657
-31.6121
-48.1734
-33.8803
-2.08145
-14.424
-29.0662
48.2139
65.5953
79.0417
26.3635
-16.6359
-14.4524
-45.8767
-121.777
-3.56078
59.4143
56.7209
41.0673
10.1159
23.0805
12.0296
-53.5939
-62.827
28.6057
35.7935
42.4593
-2.59332
-8.22803
9.51284
-9.82212
-65.6071
-45.2953
66.3888
79.509
5.9302
-20.4193
-6.18979
-16.4299
-29.9684
-22.5868
-11.3597
52.3961
32.3983
-30.138
-29.4967
-11.9099
-15.8896
-50.9697
-6.16667
49.0769
56.8004
39.2796
-13.045
-8.44352
-34.7399
-75.5845
-49.4473
7.8362
12.8635
39.8621
27.2789
-10.2226
9.98979
-42.0454
-15.2722
64.0751
46.4277
66.1425
42.0056
-17.5304
-31.4938
-78.4857
-44.313
50.2479
22.7531
18.368
14.786
-11.034
-10.7971
-32.3362
-83.8856
-10.2749
63.7704
50.4972
23.588
-28.8521
-14.7789
6.88312
-7.01122
-74.6442
-50.73
95.0805
64.8
3.54892
-7.57024
3.18618
17.9755
-8.91639
-60.1746
-5.60966
68.6492
37.3003
-24.3616
-18.0973
-17.4997
-25.5007
-27.9237
-58.0761
-34.9179
50.3316
53.6347
-2.31947
-19.0703
-29.7037
-14.1035
-46.3298
-18.9636
57.1783
73.2502
37.9617
22.6426
-11.2445
-36.4959
-72.8624
-38.6238
53.8698
43.4365
40.7094
18.4835
0.0321368
-4.14447
-47.4907
9.43414
27.4253
6.70359
27.5486
27.9764
-1.80746
1.55255
-27.9758
-54.4953
16.105
20.2459
54.7494
43.1234
-20.1239
-30.42
-59.3149
-66.5047
4.5584
26.8727
18.3493
-25.019
-31.5252
-20.1681
-28.4682
-45.7968
-2.32849
7.13818
13.7848
30.3303
8.9839
16.7851
-1.47333
-48.099
17.9098
31.4172
61.1335
56.8496
1.99214
-10.4673
-33.0145
-31.2131
24.4727
32.3305
42.6575
31.5554
-30.1398
-25.1279
-30.5399
-92.0981
-28.8848
40.2093
51.4191
48.2698
-26.6562
-13.0383
16.3198
20.6857
-38.5644
-46.3465
84.6277
52.526
-4.97851
-8.04149
-1.59736
-12.951
-32.9406
-89.8231
-116.333
19.5859
56.6382
6.35841
4.76329
16.9216
-5.06007
-13.201
-55.5101
-1.48503
31.7434
30.8912
14.5684
16.6664
-6.7246
-10.4066
-34.0456
36.9502
51.1476
70.3152
91.815
49.0575
-32.618
-53.2503
-56.0601
-0.73208
23.6541
6.88534
23.2345
-10.6547
-15.4413
-1.31154
-61.2149
-52.7241
38.7008
24.1637
20.5626
-7.56263
-8.60019
-2.93966
-3.80805
-68.5383
-52.8116
-7.73857
12.4923
5.86285
-19.8657
-4.24511
0.463637
-57.0001
-24.365
81.9765
62.7751
51.3277
-2.77162
-5.91783
18.5762
-27.5456
-8.9982
25.3914
36.9301
60.761
12.386
-10.1661
-1.84929
-81.2722
-116.337
36.3382
77.1839
56.6747
1.01968
-70.4765
-65.8396
-51.0727
-74.9173
-74.1101
31.9144
95.8696
79.7611
46.6958
34.2813
15.7267
-7.51017
-32.3426
-93.1132
35.7244
124.862
19.3292
-8.56506
17.0144
23.3286
0.648427
4.07852
-43.172
-26.2349
46.3727
-17.9251
-61.4984
-61.1318
-31.0593
-14.6833
-28.7181
26.2903
38.7318
69.0755
22.3454
-30.5079
-58.5652
-57.252
-13.9445
40.0409
15.8279
10.3565
26.6239
16.1432
-2.63187
-38.7686
-9.58819
22.9701
19.6385
13.6901
20.951
-20.7539
-33.4965
-34.845
-20.8681
36.9033
11.375
-4.40268
-2.83154
-9.34024
-6.01567
-27.2705
2.82989
60.3418
30.0017
22.0248
9.67901
6.54145
12.1079
6.66995
-22.9692
-21.7993
28.5207
38.7481
-5.64928
-65.6408
-42.7581
-13.1396
-23.2248
-29.5047
59.6328
81.3294
58.5282
11.9238
10.1966
14.6208
-45.8941
-133.259
-7.50849
22.0851
40.2747
18.367
-7.80757
-0.862425
-31.0859
-83.0815
12.7138
26.9327
19.1979
2.09011
-29.9714
-19.1013
-50.325
-84.2677
31.4231
66.2478
51.9207
64.9821
-11.1304
-25.8012
-4.12022
-23.199
14.4372
39.2152
47.8485
57.8439
-4.20036
-19.7073
-8.03574
-18.9749
-39.2569
14.1576
40.4819
29.5979
-48.9023
-53.6569
-11.0496
-13.7853
-32.5395
21.9314
33.408
34.852
3.12068
2.67769
13.2503
3.41602
-25.9709
12.8178
4.63448
-1.73497
-21.2023
-47.1917
-27.3548
-47.3893
-57.178
29.9515
44.5305
57.7259
24.6652
-11.98
-15.9377
-68.72
-12.9663
52.1025
39.7218
37.4744
22.2364
-5.76607
1.15868
-5.84867
-51.023
-14.689
37.8318
72.1961
52.5122
6.58777
3.9112
2.33058
-10.7735
-59.2779
-91.1341
37.6948
11.2173
-37.935
-24.5154
-14.9729
-15.8267
-16.866
-48.7916
-78.3864
46.3232
74.6262
41.3207
45.5297
26.7704
-12.8305
-19.6259
-33.3583
-39.9326
29.2153
52.7962
13.1328
-15.6213
-13.9363
2.32096
-9.47246
14.76
47.4584
61.2912
75.8314
17.4138
-35.5238
-58.423
-115.776
-59.3257
5.3335
12.5901
30.0586
40.7496
18.1744
25.3097
-24.351
-117.466
-32.7116
35.6454
29.7592
4.81398
-9.20699
7.89228
20.1135
4.51301
-54.7365
4.81507
106.219
61.7362
8.92024
-10.3105
-7.5677
-8.31719
-70.0726
-21.9172
64.6923
75.3784
4.79412
-40.4609
-19.2185
-10.4528
-57.0278
-17.1096
20.0392
0.583319
16.4588
-11.4064
-41.2563
-47.3553
-98.8573
-56.4903
16.0587
26.5768
58.6862
44.0071
11.8905
54.2134
20.6085
-61.5462
-75.6052
58.427
75.6901
30.6852
0.706709
14.4549
43.2569
25.2018
-32.1238
-22.7936
68.8108
49.6353
-1.76478
-12.6952
-15.5794
-35.7475
-49.6193
-52.3673
-63.4614
41.0494
65.4055
-5.68521
-0.345849
4.90203
-7.46727
-56.0553
-53.4296
1.51313
29.8661
17.2721
-25.9949
-29.5932
-38.1085
-63.6793
15.0391
25.1566
3.54022
13.6383
34.3892
23.172
20.6299
-43.8166
10.0658
28.3075
27.1985
41.6523
26.875
-5.82752
-32.8421
-42.6593
47.2676
46.5581
35.7551
52.8581
11.8848
-22.0862
-17.326
-40.0624
-37.7852
11.448
-0.262571
-9.41113
-30.1069
-24.3199
-10.0625
7.37308
6.17065
-43.3163
24.6122
48.697
-22.8
-30.0009
-18.9917
-2.91856
-14.6387
-26.8293
20.452
27.4983
87.0794
30.2627
20.0471
3.74998
-28.71
-32.9736
-17.1547
-53.3182
-25.8923
41.531
17.5522
-10.4079
-37.5249
-18.7931
2.52507
-25.545
1.22046
53.0382
21.5638
35.213
-6.29499
-35.3278
-25.3588
-53.4706
-23.0642
34.0175
29.1407
36.183
16.1858
0.566105
-7.05301
-74.87
8.2421
76.3848
52.132
61.322
23.1161
0.413212
-6.52446
-7.44585
-38.5864
-5.20385
-6.88474
30.2133
18.656
-32.1272
-34.619
-39.6637
-37.6377
-11.1553
-8.32926
48.8164
5.09267
-41.8571
-41.9359
-56.1319
6.54764
19.3399
3.73338
11.8628
26.2661
5.42049
-2.47734
-18.3207
26.2147
32.882
29.1852
37.3667
21.6183
1.34693
-19.8744
-1.89842
6.7474
19.1544
10.2348
28.3475
0.99697
-4.37454
-19.2926
-70.5338
-79.3355
36.7825
53.7735
34.2479
-16.0065
-29.5845
-27.4674
-11.5669
-11.075
-72.1775
-14.7493
60.1761
30.5724
-15.5541
-11.6681
-0.723645
-25.717
-57.2848
-24.5904
91.5266
87.0402
-0.573445
6.47519
24.6312
2.30404
-48.8539
-30.7018
39.2255
25.4483
34.9395
14.9435
-15.4156
-36.79
-82.3714
-39.3129
45.6891
42.7246
49.5962
33.6044
-0.16566
-8.58643
-80.3494
-52.8187
25.6354
6.34743
11.3084
4.27716
-21.7358
11.6331
12.9795
-49.5947
-34.4452
61.1839
81.457
62.6659
12.798
-3.3573
0.642034
-2.68132
-62.1297
-39.6689
41.8857
12.7913
-36.0472
-29.4011
-1.53448
-7.0135
-80.8041
-65.7827
45.5308
94.4307
52.2356
-32.8539
-29.0567
-28.1078
-68.0336
-20.246
-4.98739
8.17266
32.9917
23.8233
-14.8574
-10.1578
-30.571
8.18589
57.7866
44.9688
55.5554
37.369
-1.5776
14.2114
6.53836
-78.3638
-67.4954
52.7006
79.335
33.1748
25.2148
16.8057
2.69763
1.07735
-36.2956
-55.7218
44.4882
17.6299
-31.9599
-37.8681
-2.6581
-9.25698
-44.0593
-52.669
-33.8948
53.6127
49.5211
-27.9409
-30.7976
-8.03678
3.47997
-38.109
-28.0241
43.8349
34.4386
40.6444
-12.0256
-14.7742
-23.9742
-49.7268
28.9954
15.4077
-10.7161
-3.42044
-2.83125
-1.78157
-3.6942
-42.4588
10.5376
14.3529
15.3325
37.1483
43.4521
0.353438
-43.503
-48.7883
50.7197
61.5343
48.0382
51.4476
-7.18896
-3.04437
8.32012
-36.7459
-30.5993
36.3763
40.5097
24.1703
-7.50093
-16.4041
-24.2406
-17.7104
-48.477
-57.7211
20.1884
19.6074
-52.9585
-50.105
-25.3635
-2.88423
-52.6191
-62.7182
2.15652
92.5272
75.9791
27.0982
42.0182
32.8487
2.22914
-11.3961
-38.0696
-82.8542
17.2466
35.1699
9.23142
16.8819
-11.652
-14.2138
-15.508
-27.9597
25.0235
57.6531
22.802
-5.98919
1.31041
-17.6232
-41.2547
-92.2675
30.2052
57.0332
47.4409
67.6933
34.15
9.84075
-3.66261
-50.77
12.8324
34.1442
12.5432
12.5145
-10.07
-22.5916
-35.6882
-52.2017
-97.3044
-14.1796
22.6909
58.9022
-18.2529
-45.0638
-20.7705
-13.5688
-40.8863
1.52618
11.0345
43.719
-2.73217
-11.5191
4.67112
-24.7005
9.94838
58.0891
34.2294
34.7043
52.714
9.00992
-2.92954
-23.9785
1.81818
14.6915
15.545
23.6766
20.3834
-15.8368
-38.164
-69.9677
0.554641
35.1494
9.05111
26.5101
4.68479
-28.1273
-29.2707
-44.1398
-73.3759
-20.7551
39.1735
47.6673
3.88772
5.59139
3.16125
6.27607
-3.47915
-53.7806
-44.1823
115.241
59.0098
9.98189
-14.9349
-18.8715
-25.6039
-40.9212
-55.7451
23.3882
75.0263
2.48849
-35.5255
-4.60368
-10.4845
-39.5671
-37.823
42.6306
31.3685
40.3301
64.32
12.2088
-26.1891
-69.969
-33.2051
51.0496
41.2182
31.8602
43.5157
1.09797
-19.2183
-81.3724
-44.4124
25.5253
5.87284
18.343
17.7843
-24.2202
-27.3272
-19.6322
-53.2079
-28.4316
58.3756
43.449
29.9505
17.197
27.6194
9.3015
-19.7631
-89.0981
-24.2731
23.1485
4.40002
-9.89797
-9.6149
-9.32804
-9.76133
-59.4761
-4.46995
64.6514
84.4621
29.5449
-37.6011
0.202491
10.8188
-53.722
-18.4995
11.7274
39.0966
72.3163
43.0732
28.3762
-11.0921
-97.9794
-63.287
24.5353
25.2699
26.5203
-2.39115
-28.3352
-3.11879
-5.81381
-66.8549
-47.2438
43.1949
76.0011
37.5647
3.59813
-12.2354
-6.76018
-12.7105
-42.1192
-19.6555
60.5626
47.9802
-8.04647
-6.99658
3.44123
-5.08156
-8.54864
-5.13389
-38.1421
36.7229
39.6037
-24.7522
-24.3669
-21.5437
-28.5479
-52.028
-79.6394
17.3034
27.7503
19.7822
10.5716
5.16962
-7.13264
-38.6317
6.78569
57.2985
32.5232
9.56874
16.9777
-7.39363
-17.8392
-72.0265
22.548
37.0436
50.9105
77.7716
81.5476
4.52532
-18.7113
-73.9619
-30.6168
45.6179
32.4016
41.7286
2.19801
-46.2653
-52.4485
-73.8064
-47.8664
49.0844
32.5182
44.7611
-15.5872
-44.4776
-57.6185
-66.3292
-75.0508
-25.4279
29.9982
58.6966
16.7954
-29.5269
-12.7057
-4.50109
-13.8434
9.1905
62.9513
87.6277
49.0894
-31.9218
-13.4069
7.47421
4.0726
-24.2782
-3.58086
83.5801
79.0159
19.5054
15.8864
14.3783
-33.1931
-82.1405
-58.9547
-1.84911
3.20181
-11.2745
-32.0519
-20.3696
-4.78888
-58.5363
-69.6443
8.5452
45.7681
47.3511
36.2035
-3.36708
23.935
7.35143
-57.0206
-1.75207
61.1609
47.9883
16.4265
12.8161
40.1337
25.534
-46.5193
-25.4659
8.23437
10.5512
28.3927
-5.25623
-52.3189
-56.8216
-117.134
-59.6569
48.653
27.752
54.9947
34.6268
8.06588
5.11191
-40.7338
-24.5748
-22.6093
-18.5683
20.2566
13.5686
5.50495
13.3567
-34.8526
16.0143
18.5574
28.6446
67.3854
16.9334
-28.6502
-30.3482
-62.8575
-2.30673
35.6259
28.9074
53.0493
30.4807
14.6826
11.5648
12.0293
-75.0736
-86.2693
31.1663
43.7419
-7.31493
-22.3834
-34.4006
-35.1812
-19.1475
-22.9319
-36.159
27.1335
57.2357
24.5719
31.182
33.0882
16.7814
11.2603
-12.9611
-43.118
50.6782
51.6885
-16.9483
1.40688
-18.2186
-27.5211
-25.9193
25.4442
24.8301
3.27127
19.6395
8.57845
-56.0883
-62.1825
-79.0073
-7.4171
25.56
23.2203
22.6485
29.643
4.26683
-35.3797
-138.826
-81.1512
49.8901
78.3762
76.2238
46.7223
11.14
3.87534
13.4412
-34.2359
4.04797
29.369
49.9146
15.7644
-14.4557
-24.5711
-22.1359
-37.4607
-44.573
15.8029
38.8255
22.1508
-42.9264
-60.6725
-41.9951
-71.6538
-46.8746
78.3614
79.2295
84.8142
40.313
17.193
25.9358
-12.6341
-41.8326
8.3653
17.5688
22.3884
25.3907
16.9353
33.8131
-21.1916
-115.575
4.06892
48.0019
53.8031
23.5413
-53.5751
-46.4868
-12.8615
-53.4091
-103.628
-46.0758
24.5158
17.5814
-11.2194
-12.5999
3.72941
18.6268
-9.23955
-32.6325
67.1139
115.558
23.8717
-11.0446
-4.23834
16.063
22.696
10.62
-34.4799
19.0455
45.6943
5.00655
-43.7582
-39.8328
-35.0614
-41.1794
-51.3595
43.7481
48.3699
56.5418
3.25511
-4.38999
-21.1452
-58.2552
-6.54055
8.06679
-39.7201
-37.5268
-9.99967
-25.9503
-5.07079
-26.9481
24.7966
78.112
50.2032
56.1281
63.3576
-1.3438
-27.4345
-62.6892
-14.8117
76.514
49.1638
46.9081
24.3192
-4.96357
-17.3356
-14.3756
-43.0025
-66.1005
30.6528
33.4608
-11.2952
-31.8242
-24.943
-17.2428
-2.86634
-51.8806
-17.1854
67.898
1.03724
-81.9812
-84.1397
-43.0255
-22.6061
-28.386
-51.6843
25.5756
103.634
116.992
34.9686
25.7828
2.64711
-7.10499
7.4225
1.23194
-21.6271
4.8031
34.5932
11.407
15.5159
0.665276
-7.94823
-6.11645
-40.6681
16.4883
47.6876
-1.17337
-22.7416
-35.2277
-48.765
-31.5476
-26.4838
-56.4873
11.7403
64.3205
59.445
39.032
15.7926
12.4098
-17.6396
-83.7972
14.4956
66.6051
80.0378
45.7782
10.869
-17.5467
-7.15755
-32.8341
-59.4933
5.05946
2.92667
18.4688
-5.19639
-18.3961
-15.5422
-58.4056
-64.8839
26.4249
28.3272
43.7991
-20.3547
-51.6929
-34.2901
-65.196
-5.75708
19.61
1.0305
17.2835
11.5743
-17.3804
-1.80988
-12.9638
9.59634
62.9796
74.3068
85.7239
54.1528
-21.6552
-26.5152
-44.8695
-47.0455
-47.7268
41.9745
55.2657
4.15038
-17.2923
-8.52467
1.89804
20.0706
-28.1089
-44.565
7.19956
44.7367
53.7248
14.9205
3.70407
0.860495
-15.8895
-17.1095
-27.4173
-22.546
28.1677
-14.8522
-20.3572
-9.37978
-20.7113
-16.643
-13.054
-37.6359
31.0749
46.3264
30.3596
-29.2972
-75.6677
-39.4385
-47.2453
-80.1302
20.8491
64.1583
75.7204
59.1757
25.3595
8.1268
-12.5221
-58.4865
42.0568
47.4002
31.904
35.8884
4.12352
-16.8601
-13.736
-55.8793
-113.606
30.1724
91.5122
96.6117
19.0687
-14.1322
-3.42482
-2.56453
-21.4225
-68.4172
-14.7763
70.72
17.9734
1.99595
-6.52997
-7.12865
-25.2737
-57.0658
-42.4588
18.7593
33.5204
-29.5644
-36.6092
-6.41516
-16.9243
-44.7177
9.54786
35.8242
16.261
21.9978
11.4202
-3.71
-33.9167
-78.4569
-21.2972
39.0026
32.0602
44.2549
40.3655
11.8471
12.725
-41.2287
-63.4373
55.771
42.4612
48.3423
27.8734
3.14464
-3.335
2.72487
-32.2795
-46.4777
36.028
54.1401
16.3221
-32.0462
-39.2899
-15.1606
-17.2823
-58.6526
-63.4719
-43.0914
106.605
49.7391
19.3308
27.8841
24.8592
14.8881
-16.3857
-76.9071
18.8906
12.5815
-49.1825
-16.2586
-18.5345
-4.76149
-5.59049
-53.5365
51.0112
62.3958
46.4518
43.1274
-17.2499
-45.5828
-60.2305
-74.9476
11.4231
12.6981
25.7404
48.0746
2.19477
-2.13705
-52.7484
-10.542
42.7651
40.2029
48.4424
63.758
-5.87509
-6.07221
0.784622
-58.3392
-27.4657
3.62077
9.97653
15.6781
-24.4529
-18.1214
-20.2961
-60.4683
-15.9777
61.001
68.5697
16.6475
-33.392
-38.769
-36.6081
-22.7227
25.2304
34.7107
38.1106
47.5378
-15.1049
-35.9828
-35.6217
-60.0212
16.2082
43.5152
25.5783
64.1269
14.0691
-40.5503
-27.5404
-50.0989
-127.123
-24.7181
82.4011
82.4531
11.416
3.56799
19.4969
24.788
-45.273
7.40532
40.4685
49.0512
-15.1309
-35.4759
-16.1191
-0.0155057
-22.2057
-56.0657
7.73538
32.0931
60.2167
19.1997
-21.3675
-6.70027
-50.0039
-69.9995
8.16333
41.4171
35.0078
-13.1759
-12.5599
9.19043
-29.0544
-56.4064
15.4901
35.3996
32.2469
33.2869
5.7815
14.8201
9.12642
-50.9825
-3.56199
3.1234
20.595
31.7258
-18.6468
-20.9541
-36.6482
-78.7112
53.5106
82.4432
52.3533
30.9361
-10.5819
-23.6564
-52.7305
-65.7331
-7.92844
5.30085
36.1345
56.8584
13.5699
6.15354
0.144094
-38.0509
-50.0942
16.8085
42.928
30.8866
-45.2526
-52.8184
-52.1833
-30.9954
-50.2044
-44.0053
80.3544
111.718
48.1251
31.0401
20.4244
0.704518
-45.0962
-64.2229
-27.9624
48.8153
26.535
-31.1221
-15.4008
12.3954
-27.0667
-66.9433
-6.87581
45.0365
43.8451
38.0559
-15.6049
-7.02574
-21.139
-41.1127
5.19023
52.6878
31.4672
33.3191
15.853
-2.91883
-13.2232
-57.9585
6.60356
24.7139
2.37765
16.5079
-0.814409
-12.7044
4.32904
-6.22308
-44.2341
30.3398
28.8057
9.89376
-22.7682
-52.5649
-49.586
-27.8196
-30.5605
-45.0452
27.8636
84.0102
45.6633
24.0228
17.1394
8.94805
-24.1575
-65.025
-1.84224
58.9137
46.8211
-6.86181
-14.6145
14.5106
-1.53012
-48.2599
25.0098
54.9785
40.6787
34.1394
-12.0618
-38.4827
-59.6181
-89.3301
-34.0243
31.4161
36.3847
33.9467
-3.7442
-28.2249
-33.975
-89.4264
-43.9223
32.0735
36.8833
50.0803
20.3487
4.60173
16.2945
28.2669
-2.16656
-37.6547
34.5896
64.351
23.4176
-5.90723
-8.50739
-6.18688
-22.764
-35.2158
-74.0492
-8.23181
57.8922
41.2359
29.7534
18.9099
-17.9425
-23.9726
-26.075
-84.7953
-87.0068
57.8348
30.6822
21.9351
25.0455
21.8058
15.1984
-18.6425
-44.6378
48.4119
78.9695
56.3445
-7.29096
-40.3444
-22.1174
-45.8463
-43.43
10.8574
5.5728
53.1235
61.3842
-1.64797
-42.9115
-81.4525
-22.8878
-15.808
-4.13423
22.9741
31.5452
-21.1531
-6.66449
-8.67794
-61.4304
-27.375
32.4114
49.037
42.0561
8.88425
12.5481
21.6367
-16.1936
-69.6663
36.885
52.7991
6.12098
0.640859
7.40657
21.8083
-24.2917
-33.3197
38.6394
15.1767
3.77248
-23.4324
-47.0336
-34.5482
-64.6337
-18.5866
68.0831
68.8894
64.9685
47.7961
-32.2291
-32.9545
-35.3013
-69.3314
-102.957
9.50218
65.1865
39.8981
3.63429
10.4992
17.8231
-11.8702
-80.5301
37.9868
92.9768
41.8626
-22.3409
-26.576
2.21989
2.17267
-29.3545
-74.7116
-63.7523
93.9062
103.483
26.8904
15.0305
-6.20943
-36.4442
-40.3186
-57.1135
-45.0828
74.6925
20.5409
2.36965
-7.05409
-31.2324
-41.4178
-66.5795
-35.8734
34.5242
73.6331
57.8744
-11.81
4.6337
-7.5237
-33.799
-31.6039
53.3407
38.2492
36.3622
29.1983
1.56409
-15.9735
-59.8601
-27.4654
8.17788
19.9917
43.5796
13.5623
-33.2467
-17.8525
-32.0757
-11.8207
-3.25285
-17.6573
1.86544
7.65625
-43.4221
-16.9339
3.40069
-6.91125
-5.02182
30.2774
50.3058
12.021
-6.41847
10.8163
23.7105
5.78781
-60.1073
23.0039
100.314
34.2029
20.0964
19.238
13.951
2.57008
-38.3862
-85.6067
-59.1132
54.3818
25.543
-5.08551
5.82218
-2.93016
-29.9627
-65.6191
-12.0375
28.2821
37.3888
-2.93262
-37.7011
-46.6921
-44.9076
-69.9276
11.8334
27.2943
13.005
36.0918
40.7491
-5.79341
-55.6303
-108.053
-10.1852
70.7683
73.6763
66.3681
31.0236
23.0956
32.9233
9.60391
-71.932
-3.69005
83.256
67.0912
1.4719
-12.2166
-22.2744
-9.59378
-19.2966
-62.7729
50.7378
58.7208
-7.05828
-54.9665
-50.0294
-29.4522
-57.4872
-50.3518
37.3027
35.6432
48.6131
6.4549
-39.6004
-17.2844
-21.7102
-51.6138
23.8318
37.1837
26.8535
29.7743
-14.3903
-4.56397
-21.3886
-32.6642
17.0675
19.2882
23.8783
6.72775
-14.0615
-4.82265
-31.6102
-46.9361
17.7625
55.6507
38.5984
36.3419
-1.92083
-2.97919
-6.12852
-34.9175
-99.876
25.7597
73.4837
60.0209
8.62817
4.5019
27.941
34.499
-10.9384
-84.0139
-13.5583
53.3871
-9.13512
-27.3827
-11.5619
4.76815
-17.2136
-55.8516
-74.1171
-1.14605
60.2545
-11.9797
-35.4566
-31.1782
-5.11312
-6.06265
-50.0899
52.6814
55.3877
70.895
46.0748
6.22402
-7.70777
-36.9017
-43.091
43.4971
39.9531
45.6582
45.329
14.4617
-6.41528
-87.885
-71.6707
-17.0007
35.4624
38.7758
52.8863
-13.6766
-18.6887
4.63748
6.90801
-58.1246
-103.003
40.5849
52.9698
-5.24876
-12.8967
-1.79448
6.41199
-4.2016
-40.5021
34.4031
33.8868
0.0510156
-40.7696
-35.9861
-16.3336
-44.155
-45.0835
1.78555
50.6612
51.7561
48.3628
-5.47862
20.7443
6.25052
-40.1716
9.68743
67.3841
29.8077
23.9505
10.7876
5.69569
7.82306
-4.27862
-19.4088
-21.6313
38.8464
37.2865
7.18496
-34.4574
-37.7124
-37.0138
-86.5214
-145.215
-107.138
67.3729
63.371
25.2484
37.7117
52.6356
37.6794
14.9231
-44.3265
-84.5519
37.2424
101.434
27.7539
11.9829
17.6941
15.9498
12.4403
-29.7111
10.5374
48.2705
28.4257
-31.263
-45.8009
-44.5661
-35.8638
-75.5129
-43.0276
19.4865
48.9512
69.6769
6.81718
-32.6977
-34.3246
-55.2156
-12.0519
3.43926
4.45353
30.8761
19.2977
23.0208
-1.81559
-61.1781
-8.65769
-34.9915
-5.70316
62.9702
55.9644
63.072
54.1378
46.0431
14.1044
-35.9546
-119.969
-65.2707
48.6466
110.321
69.5415
-4.85726
-12.1127
-35.4104
-79.9461
-83.7873
-2.50647
38.1046
43.0425
12.9444
5.35773
12.3369
-11.5613
-5.49452
8.70761
-14.3101
7.96517
-14.5713
-54.8223
-59.8191
-114.772
-60.5831
13.6663
14.994
62.3671
79.8825
37.4968
10.7174
-31.7547
22.7739
32.1997
25.4604
35.1232
21.3477
-4.90082
-45.1111
-15.8209
42.4998
3.48683
26.1339
54.6869
15.4962
-4.49668
-32.5202
-99.8191
-23.3923
26.5395
32.5877
20.987
-35.2876
-22.8223
1.32115
-0.143729
-74.0544
-25.2408
53.4524
51.9786
0.891726
-13.0852
-16.8742
-6.15991
-7.62922
-70.8881
-44.983
109.237
54.2853
-16.0866
-11.3402
4.85873
-18.0722
-45.848
-71.4065
-1.00822
53.0111
32.7798
22.1321
32.2754
18.6614
-24.7265
-30.2898
56.0449
38.5202
53.823
51.9923
-4.8704
-25.4489
-67.7655
-46.3031
32.9164
22.0443
43.0496
45.9868
-14.3493
-35.446
-59.0755
-106.95
-89.5473
-3.72994
76.5816
60.2447
14.4041
8.83055
16.459
13.4661
-53.662
-63.3296
18.619
4.45856
-34.4387
-14.3912
-5.97875
4.0571
-7.45951
-15.3225
37.0664
75.4146
70.3957
15.8519
-7.15544
5.37059
-35.2076
-59.3391
15.1668
4.4321
19.1995
13.9456
-6.87405
8.18649
-48.5528
-82.9903
20.2655
104.879
81.9278
68.8998
7.99023
-11.7459
-37.1099
-78.2802
-123.52
-6.85988
20.9427
24.3969
-9.97387
4.55684
4.18505
-2.84169
-52.1612
-96.6607
63.199
126.567
27.6595
-23.9001
-11.1042
-0.254519
-1.9953
-25.0426
-44.2716
39.3831
70.0522
6.62951
-8.5842
1.14855
-13.9597
-29.0451
-22.5262
29.9719
39.3288
64.7246
-2.56988
-36.7658
-38.3532
-70.0748
-84.9983
19.8331
19.7483
44.3708
50.0982
-10.5476
-11.0731
-57.932
-39.95
18.806
14.3952
14.6685
21.2417
10.2488
23.2988
3.22066
-34.3747
53.6944
42.3399
41.0481
51.0587
12.8036
14.0081
22.4154
16.8257
-53.4835
-64.1851
13.2195
-6.79094
-37.3749
-34.4761
-29.6465
-33.4249
-63.6493
-103.304
23.0933
73.2081
-6.23297
-21.5192
-19.8062
10.4938
-6.55622
-93.053
-16.2209
107.63
102.402
81.8104
23.9191
15.6622
5.73519
7.48667
8.6405
-31.5889
17.6369
52.1073
5.53458
-36.6703
-45.3187
-20.1576
-21.2864
-76.4073
-36.0466
86.8535
43.2416
-32.1044
-22.3585
-1.27991
-16.4058
-63.4917
-36.0949
50.1162
54.6121
61.136
25.6754
23.8543
12.4881
-7.11009
-56.2297
-50.4671
37.5594
52.0483
6.41717
-18.5013
-11.6235
-8.43919
-44.5958
-64.3107
35.5993
65.7315
35.532
-53.6287
-52.7526
-11.9619
-43.352
-38.8039
46.8786
34.7566
50.2608
41.1676
-2.82922
11.07
-27.2386
-22.5949
38.2651
-3.90573
6.34013
13.2196
-43.0934
-38.8303
-67.6218
-36.0316
52.0605
51.8651
50.4584
43.8526
-9.41446
2.70564
-33.038
-80.9847
35.5628
45.0544
36.1608
7.9325
-41.2628
-26.7282
-1.49076
2.35168
-54.8165
7.344
56.0191
38.3241
-8.88373
-18.02
-9.26197
3.57153
-51.9036
-89.3239
41.8278
112.572
11.239
-13.9037
0.314386
-4.24622
-19.3627
-18.3611
-48.9627
35.5821
54.0643
23.6941
9.84713
5.32122
-9.92655
-35.3758
-46.1479
21.6337
14.0222
39.8132
21.3962
-5.09308
-41.8002
-79.3973
-82.716
47.8754
36.2328
29.1271
57.1045
22.9679
18.7969
-20.8342
-92.0201
37.2813
63.0636
53.6589
32.3557
-16.2612
-16.2878
-21.4553
-61.4394
-109.366
-81.1233
39.992
52.6051
-12.2677
-14.3007
-9.28758
8.39409
-32.7069
5.88027
56.7475
77.0715
-17.0272
-44.8964
-12.6367
3.08274
-27.4469
44.0117
43.8872
28.4301
54.9285
28.0588
-9.24021
-28.2406
-49.1661
14.3754
23.9008
30.9085
24.0733
-4.04174
-18.4642
-52.1437
-86.328
-2.93017
14.7727
17.7055
23.5403
-1.07837
4.5525
0.54134
14.0113
-34.4855
10.4864
47.004
24.5759
-15.5119
-19.0363
-27.2547
-15.8498
-26.26
-69.0786
4.47527
81.4754
34.476
24.3095
21.1326
3.01279
-27.2408
-40.6231
-70.1712
-11.7394
-1.13209
-52.3531
-35.7264
-2.34706
4.29014
-24.349
16.2434
102.783
68.4248
57.2505
60.9408
8.48694
-29.99
-85.8932
-25.1378
45.1684
35.4047
21.6089
18.8473
-7.60416
-13.8698
-63.3518
41.5318
60.1813
18.056
34.1963
3.66891
-65.1084
-65.6111
-63.4085
-46.0014
13.436
-3.3801
18.2754
2.01656
-22.136
-22.0685
-11.3828
12.3536
-41.6418
14.7382
100.152
25.6977
-33.1613
-37.6447
-15.1108
-9.31876
-48.3683
-49.8614
93.3685
75.9251
1.8254
-4.09945
8.85832
-2.39804
-20.866
-72.1398
-11.6194
97.6067
96.9292
66.3902
31.1799
-11.78
-40.8593
-43.925
-66.7249
-21.5632
22.8817
47.4984
2.25709
6.33198
-12.6176
-38.3008
-63.2989
-17.21
4.06636
33.5636
6.82705
-40.1985
-19.8907
-24.4006
-14.7139
25.1958
27.0509
17.1457
24.407
7.36506
6.17949
4.15222
-79.1145
-89.7341
41.6884
59.1554
76.7461
42.1105
9.6406
9.94151
5.80767
-45.1669
7.61602
34.6367
13.9073
-26.0365
-22.2213
-4.88335
-15.5423
-68.5372
22.292
21.7772
28.0299
31.6147
-46.2413
-38.3844
-56.8849
-72.496
40.3022
50.8338
32.2374
35.1805
7.1214
-20.2689
-30.618
-32.7768
16.6489
16.3994
22.1617
40.375
-11.3038
-26.1725
-25.9778
-23.6921
27.3943
56.1253
68.5142
45.8018
-22.1159
-12.0787
-8.68811
2.30542
-41.1688
-59.9215
19.3986
7.84024
-33.3729
-33.5127
-2.75583
28.7031
7.00434
-19.3792
-33.9797
-1.15605
25.2943
-7.38928
7.58618
20.6639
-8.48107
-14.8353
-55.235
-59.7412
68.2071
91.3166
31.0381
22.4555
20.8909
27.1576
13.4894
-26.6237
-4.12207
20.2567
34.3114
22.2834
-53.1343
-44.0425
-63.0218
-98.9996
2.05065
15.7575
37.2675
42.744
-5.57303
-11.5214
-60.5928
-86.588
25.1485
54.0828
34.6607
33.8181
-2.17581
-3.76203
9.54653
7.38422
-66.9941
-32.3715
61.5103
70.1092
-5.27471
7.79344
36.4114
32.4431
-45.4913
-28.6687
43.0283
46.7687
-19.882
-44.1978
-18.0757
-17.8547
-60.0559
-8.19304
65.5436
40.104
18.4479
-11.7446
-35.0423
-16.932
-71.0135
-45.0998
8.35379
13.0903
36.448
27.2175
-2.49907
6.66373
-30.7112
-79.2722
-16.4343
75.1755
71.0553
47.8013
5.55511
3.87594
20.2755
0.142754
-68.3618
-54.8364
87.1417
64.1891
4.95592
-1.33397
-12.8362
-32.7516
-17.626
-33.8854
-93.411
43.1209
80.8524
3.23795
-5.9444
-10.5871
-29.8067
-24.6454
-45.8092
-65.6178
73.1673
69.0881
-6.71947
-11.9864
-22.0784
-21.4914
-33.21
-48.7904
25.0894
72.1061
87.9229
38.0093
-25.9001
-38.5869
-17.7054
-49.9122
-9.72959
16.6392
43.4573
58.7389
7.7616
8.83612
-21.7114
-57.3557
2.60438
-6.54538
6.65765
52.611
10.9245
3.17316
24.9598
-35.5935
-34.2721
-18.5251
17.3772
29.9816
-2.5604
-22.3104
-23.1668
-24.2793
-70.9894
-52.2763
32.9486
53.2071
21.2015
12.5946
15.9467
0.816123
-68.0818
-17.6756
26.7316
29.8856
10.067
-0.176791
-12.3438
-3.67356
-85.2367
-89.5484
41.9151
157.279
125.281
89.2055
18.4536
6.36523
-16.6718
-38.1841
-35.091
2.31838
-7.64467
-37.1185
-48.1118
-31.8991
-39.1771
-67.0306
-27.9095
40.5318
55.319
48.5234
-10.1411
-60.3696
-37.6468
-61.2926
-131.674
12.4027
84.5351
82.4345
63.1219
24.1543
38.0625
24.7957
7.13138
-10.7774
27.0278
42.1554
15.5391
-16.1516
-1.0038
-0.576781
-46.757
-69.2948
40.9245
43.6756
70.5881
10.8566
-40.1225
-33.6685
-48.7634
-85.0605
17.6414
16.9023
-7.91695
-3.88624
-40.4396
-32.8034
-57.9402
-68.4812
54.4208
61.3709
42.4974
28.56
-18.9304
2.57519
-16.1919
-22.0442
4.97636
13.0245
43.7889
62.9289
7.34162
-16.1908
-46.1315
-43.772
67.6387
79.2177
62.1074
46.8193
-3.47797
-10.3248
-14.7688
-59.7481
-80.3114
30.7024
43.2648
-10.107
-44.4
-28.42
-18.9587
-5.33005
-15.8727
-27.8392
12.4625
57.9785
-32.667
-40.6665
-17.2765
-11.8409
-38.1461
-91.6902
-34.2695
80.7354
49.1801
-20.2942
11.2468
28.0765
3.71949
-26.0477
23.5631
78.7026
64.9017
67.589
58.4784
4.83819
-30.2804
-38.4304
-15.6218
28.8665
34.0734
70.3677
25.6268
-24.8817
-17.2269
-66.8137
-107.687
-34.106
5.1569
10.8485
-29.9487
-42.5755
-24.6908
-12.7022
2.08225
-18.0864
16.6546
45.6728
28.717
12.204
-4.69314
4.55954
1.21948
-48.6491
3.00757
24.3167
30.4165
-19.9302
-35.9452
-20.4298
-46.714
-97.8859
23.7551
90.2688
68.7153
66.1036
31.6867
10.653
-6.77514
-48.409
-1.95321
15.3454
10.3713
25.0565
-6.26639
-5.01102
-8.24853
-83.5811
-32.5335
96.4288
87.9599
64.4789
-26.0482
-67.2201
-57.7628
-51.4934
-73.4423
-18.3187
60.3328
49.6551
0.202468
-9.90414
-2.06503
5.0079
-11.7571
-30.1606
-29.445
61.7471
57.5813
-12.7147
5.62814
31.1602
-0.806317
-11.9312
-32.8885
-49.8341
41.8147
0.501811
-40.2134
-27.0169
-11.1593
4.77765
-30.8246
-43.4928
45.2032
86.1105
82.9667
