12.4899
-13.862
-9.32388
-12.9907
-38.0876
28.9195
29.5632
22.4751
22.741
-4.1403
-7.39503
-6.91727
-10.4764
-27.848
1.58107
17.8549
-1.10443
-24.3571
-12.8866
4.76888
9.07751
-2.36053
-4.75534
21.1044
15.0087
-10.4628
-1.43772
16.1173
22.5937
4.76277
-22.4676
4.68455
14.8507
2.30987
1.5109
-20.0227
-12.2412
-24.5223
-45.9184
-1.46095
12.2475
5.36085
9.66238
-0.947973
-10.1738
-6.35957
-12.7897
19.3876
34.2999
11.2183
16.4482
0.0761753
-10.0591
5.89352
5.50847
-22.9133
-2.73172
6.11999
11.7161
-6.52108
-0.248436
3.17574
9.35299
2.20066
-17.4767
13.0108
22.621
9.36114
-1.2488
1.16586
2.26346
-5.79826
-27.5901
-14.5071
21.879
5.17858
-16.4906
-37.5254
-25.4914
-22.1732
-28.7324
1.26444
38.2352
20.1212
11.2377
2.47208
13.927
21.6986
-1.38715
7.05349
17.1174
2.9942
3.00034
0.128591
-3.68303
-2.97375
-29.4838
-3.65893
-0.0919816
-8.30271
11.3246
-0.80988
-15.3578
-5.162
-34.5699
-11.4651
33.8369
49.9939
33.0834
5.55682
-1.25122
-3.64813
-9.48665
-14.7493
-33.066
4.9953
24.2716
-15.2656
-17.892
-9.50629
-0.76652
-2.93685
-5.66733
-6.0864
25.3179
4.73169
-12.4691
-7.44452
11.3152
20.8113
-1.10562
-18.0528
3.80705
33.767
26.9529
-4.14966
-20.0646
-23.9004
-20.0827
-12.0621
-16.3279
3.47602
38.8567
23.3068
-6.58456
-0.0164979
3.47059
4.64666
4.15874
-5.61466
21.509
14.1556
-11.7503
-32.7943
-5.77453
-7.1894
-15.152
-32.5527
-8.3397
10.3106
16.6737
-0.346304
-17.9553
11.8435
11.6741
6.17943
-8.25448
22.1352
50.0714
21.9594
-16.5914
-6.50371
-11.1645
-22.8325
-6.43092
-10.6897
10.003
4.29406
-10.5074
-15.6499
0.783656
5.24424
-13.2691
-13.9561
18.6154
7.48021
20.9444
11.4116
0.131763
6.34494
-32.5544
-0.022558
11.9045
1.10113
11.7422
-0.838064
-17.472
-11.1307
-26.5193
-2.12651
15.4177
8.41709
13.2112
14.03
-13.2558
3.78859
3.53899
4.81965
24.1295
27.0773
18.6951
-2.60457
-18.1229
-15.6493
0.364864
-0.957271
-31.7118
-49.6772
-4.54522
-4.26648
-6.88028
-3.82581
-1.20807
-3.89724
-17.2194
-4.76286
4.57475
27.5805
36.8307
22.1946
16.8978
9.04176
0.715173
1.56138
3.53678
2.82821
19.9157
-1.38381
-28.1386
-31.3255
-13.4789
1.0297
-9.63562
-0.388534
37.0454
16.3138
16.7816
0.166136
-11.2928
-5.47107
-13.7884
-13.7594
6.61222
-7.33953
-4.85111
1.11549
-19.5499
-9.14158
-16.9697
-37.908
-18.5658
24.94
26.1376
23.4069
-5.58321
0.45268
28.631
34.4587
5.17638
9.8145
53.7725
7.21725
-15.1549
-14.2297
-1.05608
4.70374
-30.0133
-11.7554
-3.39395
-12.7625
-10.4139
-28.9055
-17.4363
-10.2634
-37.3084
-0.216
14.435
10.6951
29.1708
28.412
2.43787
11.0832
-10.0881
3.35236
30.7878
19.0206
1.30253
-20.1128
-35.1508
-19.422
-31.3758
-19.11
19.2947
15.4202
14.5534
-8.83315
-0.757483
-0.781818
10.1498
12.9287
-10.3861
33.7318
23.3811
0.887542
-15.2319
-2.31517
-5.15528
-20.7206
-49.3103
-23.1351
16.0316
27.8159
0.848197
10.1973
7.98249
-5.91546
15.7869
18.0801
16.138
63.5766
25.2697
-5.1236
-0.60622
-17.2667
-25.6817
-29.5552
-30.7781
6.78063
-9.82187
-21.3802
-22.1515
-32.6402
-23.3455
-23.2678
-0.522819
18.8042
21.4854
34.01
41.4459
2.27385
7.98722
4.80395
16.2554
34.1272
18.9279
16.7477
-2.93345
-31.4223
-24.5986
-26.3639
-35.1771
-31.5222
9.02781
14.3913
-8.19005
-20.9283
-4.07735
9.43577
4.32181
0.18451
40.232
15.4511
10.9769
-5.90056
-7.89183
15.7135
-4.02689
-31.7615
4.10985
-1.5781
9.50948
3.24439
-8.48728
14.4917
4.32998
-18.3113
15.9695
38.5042
38.3961
7.36115
-32.615
-33.3595
-26.47
-29.4243
-40.1332
-3.56899
16.513
7.11239
-4.20855
-12.7575
-41.6186
-29.5475
-33.099
57.9867
109.619
-18.4515
11.4283
67.7836
73.9775
41.6522
-0.814837
-31.9262
-35.3864
2.0158
-6.83699
-29.618
-53.5159
-48.498
-52.719
-44.4149
-34.4072
36.0248
71.0055
19.2613
-11.9812
45.9702
48.2857
14.6445
5.56423
42.6967
25.4136
17.5915
-13.8667
-71.2842
-50.4429
-39.657
-63.6815
-28.0343
-37.876
-24.7688
25.1105
11.3365
15.6307
-0.993919
-3.46302
64.1448
52.8942
26.1898
33.1262
23.3921
19.2834
-0.597351
-22.4101
-5.63205
-1.75401
-8.36177
-18.2291
-40.1198
-40.5581
-19.8099
13.1056
8.71805
42.5681
54.5149
32.7154
10.7472
25.0058
29.5615
31.9312
-6.02681
-26.0627
-10.7708
3.37798
-20.9916
-33.4898
-42.8236
-80.1834
-97.299
-68.8411
-48.7464
-10.4999
49.8655
33.5436
38.8573
-15.4113
-78.7357
-42.9233
8.17527
120.171
181.524
21.081
-86.8529
16.6607
49.453
46.5676
25.4372
-14.894
-24.5617
-35.876
-17.9124
-7.56144
-12.6539
0.159972
8.59645
78.801
85.4576
60.8627
41.7093
-1.65427
-43.0305
2.95696
18.3173
-81.0207
-103.832
-60.4483
-49.5653
-18.1938
-1.13389
-2.82132
-11.1276
-0.349906
-0.366388
35.7105
38.582
43.3281
34.7691
0.428493
-22.8464
-60.805
-65.6769
-23.1915
-20.1938
-31.2132
-41.5552
-47.0805
5.32305
-1.58033
4.05271
-3.40758
-5.85382
9.29288
20.6102
44.989
60.806
44.2627
109.776
152.282
89.8198
49.5475
13.8019
13.2269
12.1193
-32.8426
-32.2981
-31.6394
-45.5807
-33.9013
-57.2035
-135.434
-115.312
-79.8317
-82.9937
-66.8208
22.2887
124.099
187.039
61.159
8.82102
61.687
28.888
-72.2357
-105.016
-73.0716
25.8366
-7.67043
-39.787
-70.999
-49.9926
13.1406
13.8583
29.3173
100.012
39.898
17.0257
21.9383
-51.3869
39.6562
70.0435
17.5797
77.954
106.919
82.7698
23.1261
-108.975
-148.851
-135.942
-93.3567
19.2862
135.392
109.061
74.299
25.6122
-14.1175
-40.5194
-113.312
-113.632
-76.2295
-39.1204
-44.9886
4.5833
109.997
24.7492
-80.9846
-107.238
-6.93602
159.195
157.482
-55.8435
-99.8374
-2.98627
46.1049
42.0057
40.7914
65.7186
47.1434
-23.3253
-55.2071
-23.8986
6.84249
-52.9565
-59.472
-11.6503
59.6413
32.2257
-3.93401
-41.1416
-37.9894
-20.8851
-38.6028
-64.9283
-62.0301
23.6225
139.303
27.5367
-4.29552
17.5817
6.83782
26.4684
64.9007
7.64106
-29.7787
-0.777496
48.5785
71.2219
49.5356
-12.1943
17.5703
24.4983
-26.9734
-82.9517
-100.258
-76.0776
-80.6689
-20.9948
35.4998
19.9982
39.0652
78.0413
74.9602
57.3143
-1.25744
-39.3604
-44.0328
-42.1647
-48.7975
28.666
39.4617
29.3318
17.064
-17.2506
-52.5458
-71.978
-38.2226
64.2266
95.2432
101.233
137.41
110.134
5.30943
-28.1275
-87.8597
-133.101
-152.693
-93.2709
-56.9263
-63.0728
-72.0648
-61.2876
-24.328
47.6752
33.7865
-10.3882
-14.5399
65.6324
41.452
-86.7388
-89.9131
-47.042
43.1872
102.027
132.387
137.701
108.666
56.9404
23.9159
-3.78402
-0.919947
-17.9351
-53.5489
-63.8034
45.1518
140.47
93.768
-69.8953
-57.4554
35.0354
13.7704
-25.8359
18.7507
19.1346
-60.8518
-37.9793
-6.67446
-3.65212
34.0917
48.8712
-38.0115
-76.7684
-94.4217
-73.3916
-74.7245
-77.1961
-8.60608
13.3218
-36.3943
-42.1227
-51.9981
-29.9612
-70.8576
-113.502
16.355
54.732
67.2022
91.5922
166.766
242.871
202.688
64.7124
38.622
4.11042
-43.8647
-78.8506
-131.07
-112.174
-38.129
-31.3314
-39.2797
48.2469
101.19
104.045
61.0153
7.48505
-58.8354
-125.048
-165.658
-261.175
-185.817
-73.1454
17.3679
68.0507
106.779
153.327
156.263
168.05
142.889
112.314
71.7107
14.8362
-43.8685
-20.7645
-22.2149
-35.8512
-45.1987
-78.6302
-102.605
-51.9068
28.5333
63.8341
18.9446
0.809694
-24.5637
-30.1766
11.3522
110.831
32.6684
-111.864
-94.7759
-24.3349
52.8242
69.5068
21.3746
-1.85404
-10.3968
1.95018
-53.4939
-112.67
-125.636
-52.9294
-8.07971
-34.2207
-67.1934
-7.24901
14.7174
-15.1975
40.9048
68.1721
34.9803
42.6773
10.8116
46.8791
109.285
82.4365
43.7232
-23.6601
-85.2891
7.56679
34.1154
3.13106
-45.4527
-23.1475
47.5795
34.6938
-5.59019
-81.1099
-93.8393
5.39581
43.9713
72.8734
135.358
56.7947
-1.07474
-49.755
-75.0509
1.40587
85.9949
58.0441
61.5981
-34.7221
-70.5497
-80.5518
-41.1869
-42.2001
-14.2638
-3.0318
39.5919
24.1433
-15.3787
-45.5152
-40.2472
-68.5613
-138.889
-16.9139
1.19934
-147.934
-86.6372
23.7062
113.284
69.2799
55.4948
52.6572
37.4451
49.0702
44.9023
79.1644
85.6447
82.3065
53.1466
1.58546
-68.2746
-20.5935
-12.6713
-63.5218
19.9016
196.963
4.78704
-125.007
-103.801
-70.7967
-42.1144
-33.3033
-48.5997
-36.9181
44.569
27.5252
13.5253
8.08578
-21.5262
27.8863
57.2176
60.2532
64.6556
24.2186
-8.70332
-69.6438
-31.4604
-17.6388
-54.261
-35.2181
-22.4599
-50.3805
18.4357
77.8314
-9.67431
-2.4544
40.4825
71.5072
78.1487
51.9226
41.66
18.5224
25.4884
-33.2104
-91.8339
-111.823
-78.721
-59.9264
-17.0966
-8.96737
-22.7126
-0.138241
-19.2179
-44.1837
-34.3049
-26.7457
-3.7071
-2.63636
-27.4795
-33.303
-50.8919
18.4929
50.9161
76.0988
113.231
124.196
112.049
114.588
109.431
73.1634
-1.88117
-54.9302
-76.6765
-44.7575
20.2449
-28.5482
-52.8163
-5.88596
22.5508
-2.61389
-84.8224
-63.7546
35.7717
106.579
81.789
-116.866
-212.216
-158.446
-121.712
-95.0679
20.4419
87.4875
78.3593
69.2413
74.9799
81.5776
11.8427
-81.4816
-126.729
-46.1802
164.939
218.248
169.519
9.61339
-75.6493
4.00768
23.4012
-11.1278
-23.1168
-51.1153
-108.093
-110.577
-74.1003
-50.0705
-30.4565
-17.104
70.6564
28.9458
16.9862
58.1838
12.6205
35.354
32.5006
38.6556
-55.1565
-63.0442
3.63658
11.3006
20.7618
74.7475
86.6149
1.22208
-51.3602
-80.8381
-22.2491
38.3946
6.49122
60.1835
69.822
1.55655
-49.0588
-51.7515
27.762
60.3777
86.0443
98.0836
47.8808
-24.07
-83.9606
-126.671
-100.524
-83.3472
-51.3961
-25.9228
-34.7124
-40.9506
-64.272
-11.9958
44.2655
42.2541
34.7968
-7.00849
-31.3412
-41.3184
-43.8988
-31.8929
18.07
29.8006
24.2642
36.9475
11.8698
35.1173
43.2278
67.4464
79.177
60.853
87.6507
69.3992
25.7319
5.10848
4.2031
-1.67015
-48.9842
-56.18
-77.5006
50.318
-42.9028
-100.84
-37.8215
-21.2021
-15.1342
32.6199
61.5867
-15.6952
-57.5116
-36.6933
-46.1645
2.74508
21.3619
16.8865
28.2451
70.4436
70.358
32.5453
8.40597
-33.8051
11.1123
28.5938
10.8702
-17.1188
-10.9664
-38.7903
-131.289
-84.4961
-43.512
-28.1529
22.538
32.255
40.8367
75.6002
34.4389
-32.0682
-49.7476
-108.415
-88.483
-6.00994
60.8683
48.3372
48.7747
46.1235
-28.8574
-4.91142
58.2193
43.4943
68.1534
90.0042
146.178
175.446
88.6425
5.75816
-25.5854
-51.7838
-60.5807
-55.4367
-27.3205
-67.3547
-139.309
-125.823
-116.602
-82.1572
-65.0545
-100.77
-66.4215
0.0666601
29.2807
4.07535
-21.2828
-47.1523
-40.8592
-66.7496
-17.6718
50.1821
47.8915
199.764
171.586
78.8243
100.226
85.3726
10.7524
2.16584
77.2009
102.894
93.1421
64.3569
45.9824
2.39305
-30.2642
-79.7621
-125.556
-100.745
4.38276
66.3234
72.8001
16.6206
-12.0262
-73.754
-138.561
-118.785
-17.84
-15.2882
-84.0668
-102.3
-105.275
-100.224
-100.597
-48.023
54.265
67.9485
80.2423
74.0913
42.5904
16.4361
-11.8175
-16.5703
23.4863
20.6361
54.674
81.4254
63.5307
60.6546
1.39596
-17.3871
-9.51823
-18.5894
5.86805
9.44857
-24.8188
-24.7631
-22.0231
2.95658
68.921
64.4241
76.4109
69.3658
59.2122
77.1797
36.817
-44.4409
-110.932
-81.9009
-52.6407
-50.0833
-57.8114
-11.9293
-11.557
-5.54814
-29.6092
37.3943
64.1427
53.6495
-27.1912
-63.1118
-35.404
-29.6898
-99.9567
-87.3988
-27.0571
11.8215
51.9202
57.3327
42.1911
0.173538
-28.4574
-28.1142
-69.3879
-40.4109
-3.56195
15.9869
19.5575
40.0162
79.2181
51.9973
30.9067
41.1535
19.0895
6.15367
-24.4025
-52.2922
28.2655
76.1542
2.35742
44.771
55.3719
-34.728
1.73388
15.5972
25.5596
12.3977
9.75203
-33.2577
-34.9831
5.74251
-5.53052
-27.1032
-15.6928
-7.49427
2.09697
-3.60298
-26.5221
-29.1212
-22.7516
-50.6598
-87.7967
-40.6734
-18.3912
-30.9595
17.6555
60.6318
26.5519
-2.94699
1.94641
17.2384
27.7979
0.0955185
7.47923
-12.0345
-26.8476
1.85909
18.6043
34.3981
32.009
-31.5106
11.3972
34.2505
32.2568
46.2288
-0.624421
-23.0052
-15.2731
-5.83189
22.9452
3.80916
9.417
-22.8224
-37.2536
-18.2242
3.25275
24.9715
5.28329
-0.79081
13.183
40.3002
12.8805
-14.1749
-7.3873
14.9752
14.2806
3.80648
-17.515
-29.9458
15.0997
21.1063
30.6844
22.1041
21.2699
-11.3751
-16.6556
-90.6804
-83.5423
-39.3284
-13.7292
-6.92182
-41.5341
-59.5224
-61.4714
-77.2872
-71.1487
-23.0514
39.7642
40.607
27.8097
36.1377
52.2234
33.886
50.8266
30.363
4.15033
41.9696
81.4372
97.6938
123.616
102.675
20.72
27.856
57.5149
14.7172
-23.393
-20.1454
-22.3222
-35.4053
-68.7602
-51.9706
-31.2107
17.861
-5.79786
-31.6408
-84.1478
-63.2293
-66.9762
-56.239
-138.1
-150.388
-97.9003
-75.5923
-53.4869
17.6302
30.5886
33.503
46.7723
64.4288
135.084
208.762
46.5102
-13.0838
6.16827
73.448
113.204
91.1978
71.0854
34.8506
17.4711
1.98336
-58.8128
-66.4816
-34.665
-38.016
-1.56039
-12.0216
-51.4398
-85.2789
-84.0592
-94.8011
86.2622
147.025
114.456
60.7667
23.5133
-28.5614
-51.2595
1.12254
-31.3979
-114.198
-133.008
-127.381
-74.58
37.9798
50.7891
-7.19446
-38.2902
-18.0768
40.1835
61.1223
75.8888
78.5252
51.0831
-28.5242
-86.996
-98.3986
-70.3412
-57.8946
-42.1134
29.2897
43.4092
62.4108
62.7263
12.6867
-39.9216
-62.6824
22.2317
80.4133
35.0135
-9.69618
38.8541
97.2382
109.591
66.7823
66.0735
58.5239
29.1394
25.013
47.3343
16.6697
15.0945
-3.34084
-66.382
-80.6172
-67.594
-25.5097
-13.2644
-47.8612
-75.3296
-38.7246
-21.9742
-34.9263
-33.9838
-14.6568
16.5713
-62.2987
-144.491
-62.5183
-75.7494
-117.268
-67.7032
-32.4082
-4.15308
55.5699
75.256
163.869
104.018
30.9203
60.4636
80.2275
56.5903
56.5696
57.1483
117.983
171.587
206.407
47.4624
-160.151
-145.325
-28.9897
-58.9301
-144.921
-145.878
-74.3754
-28.7643
-24.2498
16.4988
39.52
33.4798
26.9793
4.03852
-39.0431
-54.1285
-76.8894
-104.242
-127.027
-39.6325
48.4221
116.511
82.2245
94.896
113.714
114.979
104.349
84.727
31.7878
17.5177
-49.6042
-56.8784
-69.2641
-44.6888
26.0114
3.45851
-79.0793
-130.484
-102.207
14.8901
4.90989
-31.0808
-82.5861
-141.168
-58.2377
62.9461
131.462
122.98
30.2821
52.8991
78.6737
61.8648
93.9467
58.5967
-11.0206
-2.79895
-3.79069
7.78826
22.6907
-8.83043
-16.3323
-59.6398
-100.045
-30.8154
-1.36167
-73.7542
-130.453
-122.24
-77.584
-84.1341
-31.236
-7.68421
-8.06151
4.60186
67.8637
92.8276
112.26
112.206
88.6325
64.1427
102.129
108.269
147.329
145.69
51.9514
-39.9776
-99.6031
-98.3748
-48.8629
-59.1523
-52.0434
-76.8224
-116.705
-100.429
-67.4164
-53.3503
-37.6063
-62.9529
-39.9564
-3.69034
10.7719
40.1037
19.4063
23.0471
32.0402
51.2703
110.081
163.764
154.616
37.5926
-14.5322
-24.2779
22.5699
10.7275
-61.7449
-105.19
-71.1626
1.3379
2.55578
-3.86812
14.3608
-5.38897
-71.2283
-126.314
-146.848
-168.697
-159.07
-144.61
-1.40041
191.163
213.106
124.387
142.295
130.314
156.952
173.66
118.318
14.887
-36.0535
-3.12153
35.9497
0.94292
-21.9383
-40.3578
-137.051
-154.849
-88.5663
-115.176
-104.778
-49.9698
-35.5294
-28.1053
-57.3002
-47.2027
-37.9405
-25.2074
16.4132
94.3291
117.485
78.277
31.3582
50.6672
46.3998
19.8434
15.8961
68.7357
64.8612
38.3827
-45.1178
-138.967
-90.679
-31.6778
20.4095
39.9993
74.7758
104.607
35.3316
-2.87721
-13.9806
-74.0474
-95.4574
-57.2033
-50.5349
-3.65882
39.3585
21.3288
-30.6053
-21.5415
-17.8941
-14.5883
-66.981
-39.0264
10.9327
100.191
219.862
107.275
22.5514
7.17654
21.6344
8.21576
1.35728
49.7186
17.7617
-28.4487
-78.7367
-80.7565
-72.0255
-77.4116
-103.503
-17.6587
66.4445
43.9902
71.6159
57.5877
-104.568
-43.3502
17.7751
-36.9791
-15.7679
14.8328
-12.3686
-68.027
-56.0663
-52.3309
-2.34063
19.1413
48.0249
123.807
137.764
110.193
14.9714
-58.2619
-80.8163
-82.2851
-42.0374
-8.02997
14.0595
-7.52615
-95.0465
-79.6888
12.1264
69.9182
83.8241
75.2075
76.8779
56.1093
20.4117
36.3746
60.0281
32.8278
14.6873
-11.2586
-34.3219
-8.2133
9.68941
-30.6763
-91.6894
-157.064
-157.957
-28.0646
60.1851
29.8374
-13.2485
-32.5273
-40.0952
-31.6063
-23.1809
-33.7491
-1.1614
29.7356
45.2599
69.7738
86.8694
48.3805
48.4406
29.737
81.9022
200.061
88.5131
-67.8027
-117.188
-111.063
-117.363
-95.5418
-55.5967
22.1275
13.0649
21.8329
19.7645
8.87017
63.745
141.266
140.42
64.9534
-19.4109
-57.0852
-111.621
-143.799
-39.6614
-34.7075
-71.3464
-18.5107
-22.6854
-16.9683
-21.1239
-32.1273
26.0128
2.38046
-29.1966
-31.8497
-83.1851
-64.8567
16.6098
71.4347
125.936
147.383
108.49
71.8685
109.48
100.133
33.0531
25.178
25.7823
-35.3696
-95.3547
-155.079
-138.724
-47.2137
-3.31141
38.7843
96.2671
33.0449
-21.9962
-28.8289
11.7139
36.1719
29.2173
1.44621
12.8522
-11.8185
-26.3368
-37.1638
-37.307
-38.2711
-36.2083
-45.0607
-74.9456
-64.0702
-17.996
9.66587
-23.1591
-96.2878
-43.7681
15.3831
36.1362
96.8497
102.195
87.5987
56.7618
1.15157
-11.9157
-10.3959
-25.2549
-25.3438
-35.7243
-14.3897
74.236
186.797
47.1392
-55.3521
13.3121
146.477
108.795
-18.4783
-165.568
-228.847
-147.298
-103.02
-69.9071
18.8739
23.2528
28.292
61.1491
89.7011
119.485
104.845
62.327
19.695
23.4966
64.1773
13.5418
-46.816
-52.4912
-26.0307
62.6338
73.7947
-60.3526
-71.908
18.8632
11.7277
17.1003
-54.7362
-158.452
-123.859
-127.337
-95.2886
-69.2853
-76.7659
-26.8633
30.8254
4.40131
-24.6656
-16.4051
-1.29445
103.454
249.268
246.517
130.054
53.5365
23.4374
18.479
43.312
40.9754
0.5584
-23.7253
-77.3915
-111.711
-135.121
-87.582
-29.4235
-1.91886
-1.43132
-34.4265
-9.78146
-2.86924
-30.147
9.173
25.8731
54.0551
43.6365
-1.93952
7.88618
-10.5478
-44.0766
-50.0474
-68.6448
-44.8477
-17.499
84.2103
17.9029
-29.5855
-4.85452
55.1359
96.9252
116.701
77.1986
59.6319
44.9617
-31.8055
-52.7111
-30.7162
12.8696
22.9681
-4.04591
-5.18858
68.7991
75.586
41.271
-73.4785
-86.4415
-22.9868
-29.3731
-23.0308
-64.8858
-125.153
-141.486
-79.8561
-14.3845
-0.0502672
-25.4249
-11.6138
-40.0465
11.8044
29.0631
35.2256
33.5215
-18.2721
-27.1579
-17.9059
-0.870874
59.6749
34.113
-4.78116
99.4795
135.108
120.152
140.867
137.102
120.079
46.7562
-70.6807
-96.3416
22.8147
46.7466
-22.6618
-100.152
-107.397
-90.4409
-129.692
-141.718
-88.847
9.52988
41.3721
49.4726
32.7341
-13.5894
-114.873
-167.777
-133.806
-28.1227
63.6453
131.956
85.6739
40.6385
141.932
152.018
108.516
123.367
54.2248
3.10186
-44.4412
-26.8692
-55.9882
-159.748
-84.2943
12.4673
47.7735
16.6439
-65.9019
-101.048
-15.9063
61.6521
32.4731
-76.7682
-155.822
-134.945
-50.8425
-23.1557
54.6332
58.6849
104.566
46.6477
-3.4423
131.304
164.176
117.683
88.8418
62.949
75.0567
46.3862
-49.8753
-88.6094
-62.4573
-32.8356
-14.959
-31.3987
-25.5005
-36.887
-25.4535
-1.93394
-5.43383
12.3781
2.2089
-31.8132
-59.0273
-68.9984
-90.0235
-95.9524
-64.517
-63.4309
-57.4705
-35.739
23.3764
29.4265
-19.8082
-66.3934
-69.8817
-20.6961
68.3213
141.296
101.028
73.8635
83.6831
81.8933
36.8503
47.2471
87.019
90.884
54.2951
63.5317
32.6541
-0.581886
-14.7216
-16.9868
-1.5
-51.2774
-102.783
-88.6734
-67.0818
130.737
171.008
-20.9609
-65.744
-9.40185
2.82247
0.966184
-12.8375
-35.4816
-38.032
-50.6066
-66.3798
-59.2275
-80.1426
-118.638
-108.305
-83.1144
-51.2619
-11.4919
1.96557
-65.5453
-79.0399
-2.52012
37.2457
22.3473
-0.0581898
29.0116
84.9301
113.213
83.1472
107.92
120.424
98.6231
86.4397
65.2131
31.3765
34.1828
-4.48032
5.8469
21.8121
-43.0609
0.843309
57.0679
30.7617
-14.212
-125.994
-62.1817
31.5778
-22.661
-43.8477
-52.8961
-55.4244
-35.138
-70.8963
-106.863
-6.78162
34.0181
60.2863
50.2781
18.8021
-19.4168
-57.913
-84.681
-97.9193
-4.92495
125.323
57.4151
-20.9783
-7.29368
-17.0861
-14.7294
-3.39643
46.7808
103.835
104.742
59.1864
118.041
9.02481
-45.9454
-17.9929
-58.2001
-66.6343
-39.8847
-48.2749
-0.846164
33.3741
59.5722
24.3537
-13.9053
-22.3734
-3.04417
-37.4925
-84.9214
-62.2565
-32.2085
-52.7062
-122.177
-88.1485
-20.7323
-5.13012
16.9098
15.0453
44.0462
69.623
50.9817
48.7567
86.7533
46.548
13.6784
57.9202
103.752
78.3428
43.1459
-2.49146
37.4735
52.2863
3.93419
-31.4039
-104.727
-64.9858
-2.6849
0.419916
16.0318
-12.67
-23.366
-36.8155
-17.5822
15.7194
15.2613
-2.96203
-35.1882
-44.2959
-42.8475
-8.04299
-38.0577
-86.1556
-109.032
-32.7073
20.3622
24.3857
22.3906
46.6729
14.0404
-0.544948
21.598
22.6627
-4.319
23.6867
62.7582
5.91617
-21.3964
-24.6281
27.8175
85.2788
85.4671
36.1998
60.4152
105.308
82.5835
7.24245
-50.5043
-53.5393
-70.3373
-43.4478
-8.58234
7.25772
38.577
7.54412
-15.1418
-34.985
-21.3907
60.9122
-113.151
-146.607
-66.1048
-44.9066
-46.2127
-110.951
-123.04
-82.6239
-83.9605
-45.908
10.1688
17.0683
17.9922
37.1802
89.4439
112.731
41.2289
71.0549
95.9493
64.823
133.464
126.906
61.5313
10.3918
-32.2517
37.2855
42.8773
19.7697
-8.21777
-5.12016
18.3583
-1.07457
3.39376
-3.65532
-26.2499
44.2488
76.1925
-22.4314
-76.1435
-119.024
-105.508
-83.1455
-98.963
-33.9688
11.6266
-23.9302
-35.9467
-1.8013
34.8803
34.7995
-16.0888
-5.99721
25.3854
15.7564
0.569452
21.0332
89.8962
87.1334
4.27894
-76.9657
-84.4982
-39.3608
-42.4636
-71.3677
-58.6315
-1.23429
95.4654
97.3033
122.464
145.87
69.0738
-13.1347
-4.84557
37.7274
9.34464
-66.3861
-74.6448
-28.0435
-22.8604
-74.8852
-110.573
-71.8657
3.90479
-31.0012
-143.564
-127.198
-116.165
-16.7447
85.0995
67.5099
102.666
110.573
25.7209
-18.412
-1.29161
85.9039
86.3812
26.8832
4.54456
50.8257
97.8642
76.3434
35.9843
74.195
58.7236
0.488731
-28.0627
-34.212
-62.5183
-68.3629
-43.7898
-23.1414
-8.78243
28.1901
23.6748
-6.85879
26.2927
19.4052
25.1395
89.9167
42.8588
-27.3262
-63.635
-122.157
-111.819
-133.046
-124.78
-6.62565
-2.23043
-10.1143
-6.74359
-31.0342
-31.0344
5.92006
-3.31261
-53.9399
17.7705
-22.8782
-85.5597
-86.1574
-15.8038
45.582
67.7183
68.6413
86.144
101.717
81.7679
37.3107
33.8617
35.7338
33.4809
68.3944
63.2872
69.6779
73.7062
66.2107
0.224973
2.10611
45.5502
11.2973
-64.694
-71.1649
-55.0678
-83.4601
-48.5684
-27.3424
12.1175
-1.81579
-21.9332
10.6776
72.0476
55.7425
-11.8558
-82.4605
-116.607
-68.7932
6.57391
-28.6092
54.3639
52.7712
35.2939
12.0616
-21.8813
-90.9003
-80.2864
-104.807
-120.868
-125.072
-47.2577
-23.5602
25.9446
31.6717
61.8133
105.277
90.609
83.34
51.5684
68.0336
22.8937
1.49856
13.6268
45.5983
57.389
56.9616
34.8564
0.990017
-24.7886
-24.6737
-34.9569
-44.7676
-83.5112
-10.2815
53.78
102.325
147.167
98.8645
-19.1842
-75.0705
-122.353
-93.9867
-15.5999
-8.40054
0.716188
-14.028
-24.9075
-61.7488
-44.5176
25.9262
20.2218
32.5575
15.8519
-65.7905
-101.717
-81.2085
-34.2807
4.82371
24.1118
42.8102
39.319
74.9257
63.5974
37.5894
21.9359
24.5915
21.0911
9.42359
-51.9394
-30.3129
-19.0427
-52.7577
-42.8314
-17.9496
-35.056
-14.1811
-9.91206
31.3807
11.3402
-4.98268
57.4308
70.0103
19.5546
6.10906
27.9271
34.9046
10.8739
21.4732
37.9239
-6.78119
0.387866
8.92341
28.2826
49.2109
12.2147
9.75221
4.90221
-3.88679
3.88141
10.5379
-51.1531
-47.2993
-46.3403
-50.389
-44.1538
-16.5012
35.1442
32.2143
-34.9498
-108.577
-10.4512
49.7907
-84.2521
-92.8149
-48.3062
-47.4931
-29.5928
-18.1699
24.4646
85.9849
50.3876
-21.7486
-11.3079
44.7101
25.2988
-48.8704
-64.472
48.7365
106.472
124.516
44.7021
-25.3402
13.7161
1.25061
-8.81189
65.8594
109.232
78.2806
47.1952
23.9647
37.2257
27.7013
-8.30136
-82.6978
-81.2272
-107.23
-116.517
-143.417
-117.161
-84.7166
-62.4365
-40.2878
66.6018
89.8001
43.8551
52.523
56.7233
75.2752
78.8054
61.6943
42.0066
-10.3693
-2.02041
-8.50642
-6.51277
11.582
-9.07086
-59.9225
-61.9411
-67.5602
-40.3837
5.64156
50.693
82.0683
82.9098
50.4069
11.1414
13.7232
22.5399
13.3998
-69.3926
-79.6669
-65.7622
-27.1983
18.1699
37.258
35.6508
-34.6589
-88.0858
-56.8361
-96.3794
-124.194
-93.1333
-76.9108
1.92987
39.4119
57.58
90.935
116.29
90.7139
57.5541
41.4796
59.555
80.8051
53.184
16.3212
-22.9372
-11.4266
-1.93093
8.81003
19.5289
43.1516
42.3675
24.8713
-20.1696
-44.0038
-41.4301
-50.6465
-101.124
-141.674
-124.576
-32.3953
-10.7623
-23.3705
1.93901
15.9481
7.71377
-1.64091
42.0751
142.632
195.24
85.3397
79.8943
62.7525
-1.77708
-23.79
-68.3515
-102.705
-27.8564
-18.7847
2.26291
-18.3228
-95.4543
-118.119
-87.4321
-27.299
20.3815
10.1803
-29.7122
-62.7993
-19.2242
119.462
119.267
79.6047
23.7383
-17.5209
-18.5468
9.06681
13.9454
70.1719
64.2038
6.01442
18.6104
0.569852
-13.9932
-25.3175
-56.5115
-77.3556
-74.7079
-99.2169
-64.3057
-77.9018
-74.7897
-41.9629
-2.249
59.4207
91.6061
87.7489
106.951
93.0437
57.303
51.2959
10.3768
4.19396
25.5386
3.21634
38.8296
86.6823
82.5038
12.9071
-43.9179
-37.9028
-64.5835
-110.166
-49.616
78.0465
109.344
124.845
71.284
24.8475
-23.4252
-72.4717
-139.064
-136.369
-94.1609
-108.477
-144.822
-149.073
-132.804
-106.688
-91.6351
-100.901
-12.697
79.9186
148.226
125.905
125.631
136.081
126.031
96.4022
32.0935
22.8376
45.7749
24.683
11.3132
20.1355
11.9609
14.8704
6.83494
19.631
26.46
-13.8734
-43.8785
-15.0793
45.3446
-2.34084
-103.561
-82.2831
9.2047
50.9411
102.947
96.3482
24.0975
-21.5729
-40.1551
-2.68473
-17.7652
-66.1023
-40.1229
-42.0238
-45.8236
-60.9731
-59.4314
-30.9121
-29.2322
-106.446
0.587729
67.7285
14.6544
-0.0604274
-35.5437
-35.6984
-10.2774
41.3849
22.1753
-16.9336
-41.2362
1.02088
27.9452
66.5491
102.725
180.736
112.891
22.2394
-92.8329
-71.7889
-42.5596
-87.7659
-112.841
-60.7434
23.7058
72.8515
108.749
98.4346
104.517
58.995
19.7444
-5.00819
-22.7575
-23.2896
-30.2616
-45.8881
-58.7062
-97.0283
-147.526
-133.973
-85.6022
25.3605
69.7553
2.99178
-55.0371
27.6346
58.3553
56.3332
71.5084
68.1489
75.8513
29.4677
-84.4687
-102.414
-65.8219
-18.241
55.1552
116.294
146.587
181.797
143.035
-4.24171
-49.7793
-24.5313
-7.65207
-37.5651
-63.1866
12.2712
77.3008
51.2452
-61.4031
-96.2042
-42.1555
-41.5916
-67.5315
-54.3932
-73.6729
-73.6089
-87.8316
-103.378
-59.9413
-26.6771
-26.3629
33.2116
90.8693
88.373
95.1914
19.7958
-29.7438
-8.01769
-22.4895
6.2347
29.3045
-31.3233
-4.74251
1.66168
36.7636
47.7527
26.1891
-34.5803
-50.3174
51.1057
105.44
84.9973
44.7504
-2.45414
-57.8588
-78.873
2.48664
27.6827
-44.2641
-12.7467
23.7562
70.0529
58.9602
45.7336
37.1734
21.2295
-16.0697
-1.5949
74.0168
-15.9916
-36.8122
-73.7919
-111.399
-78.5153
-74.4652
-75.3951
-105.845
-127.742
-52.3851
-23.2872
-10.0358
24.8545
58.1738
144.449
187.748
131.389
38.9923
35.8597
47.9574
51.8281
31.4965
53.0644
76.8805
-19.2959
-44.0871
-63.7191
-95.4929
-45.4145
-9.06918
-10.3307
-34.9418
-16.2313
3.24643
-29.5174
-67.8805
7.20494
32.1888
-8.25978
-30.9232
-32.7422
-3.18165
25.0128
-15.7949
7.06745
-10.7934
-70.8537
-52.5855
0.0267196
13.4973
-20.3602
-71.8766
-81.3741
-60.6235
-48.8735
-44.8036
-48.6684
59.8764
102.424
84.7813
102.042
119.63
100.426
94.7684
105.096
127.781
164.252
82.8194
25.0138
-22.9168
-42.6395
-66.0058
-102.351
-135.51
-135.821
-127.158
-76.2038
-22.5712
-3.81034
40.3818
64.1193
55.8836
2.73038
-2.77491
5.79865
38.5871
21.3701
10.0324
30.0566
-17.1798
-143.708
-216.781
-184.174
-7.38252
55.3447
46.8983
37.123
35.1261
97.8747
84.8314
10.127
62.2767
101.234
59.5352
-1.9475
-37.6909
-61.9718
-44.8179
-46.5341
-40.7472
49.976
87.4511
52.9007
-30.3465
-58.1369
-32.1369
-19.0741
-39.7883
-53.5944
-38.6009
-4.18961
-12.771
-52.4859
-56.8106
-42.385
-19.9272
22.3411
93.923
110.545
107.53
114.492
121.008
65.3712
-14.083
-26.8708
-1.7491
47.6804
12.4828
-69.7702
-88.7989
-70.4798
-41.0469
-20.5102
-24.2202
-24.9079
-32.3324
-37.7952
-23.3244
16.7814
40.3029
12.6414
-32.7305
-0.226552
-28.8769
-30.04
-4.35867
10.7504
43.1477
10.4605
44.1965
101.725
46.5706
28.8099
-30.1521
-88.1493
-99.5311
-62.0185
-41.9172
-50.5629
24.737
105.372
115.132
85.1627
78.8835
38.2763
-44.2465
-95.3321
-94.6201
-93.8107
-39.9707
8.61441
30.2306
41.3271
70.5451
53.9335
53.107
24.009
-24.7766
44.6548
-31.5728
-122.235
-112.163
-54.3178
47.6701
-46.4148
-100.562
52.519
97.7339
69.2166
41.8889
23.3105
54.8015
61.6719
30.7591
57.9125
46.3314
-11.2333
-51.7698
-65.0765
-48.4034
-58.229
-54.4712
1.74394
-26.5881
30.3311
38.1312
-25.1344
-7.49029
-2.34528
-21.3516
-33.849
-21.3537
3.10237
33.1533
5.20623
30.9639
18.7792
-2.55331
15.4414
2.83654
-53.8652
-74.6915
-132.494
-136.616
-26.7403
48.0572
83.1791
88.3772
91.5389
108.83
89.531
52.0743
-4.54205
-27.9195
-38.9461
10.6184
14.0059
22.9832
14.4527
21.5301
19.5016
-45.8508
-148.117
-112.266
-4.58031
47.894
-31.4411
-122.986
-103.121
14.3279
49.8408
136.046
133.687
148.193
124.443
78.0555
43.2033
-76.1651
-80.6228
-29.866
-40.149
-18.4277
-3.69095
-30.5389
-29.3804
-12.7809
-0.00349356
-21.6792
-7.70571
-60.6543
-46.6416
-88.942
-46.163
-25.7197
-38.271
-48.7029
-44.2626
25.8341
44.6077
89.8601
84.0095
37.4083
65.9529
3.50112
-52.7321
-26.5324
-18.6486
31.435
34.4395
26.0847
45.6068
38.0242
31.3213
12.2814
-13.0988
-57.3514
-39.1192
-7.88348
-26.207
-67.1463
-19.5813
111.029
147.407
139.528
88.3629
-26.8227
-46.7674
7.9028
-43.2822
-75.0505
-45.7532
-77.805
-102.442
-69.2111
-8.80387
57.7817
93.5872
39.7321
-17.7506
-119.621
-202.821
-186.617
-125.585
-68.2708
5.07022
67.65
76.5098
64.2987
64.7653
44.8683
19.1305
35.3194
111.812
153.529
139.768
88.854
83.4094
143.699
137.302
74.9115
13.3281
-54.1038
-103.97
-115.647
-98.087
-63.2728
-80.8974
-79.6042
-48.1448
6.58907
66.6687
65.4538
-44.0731
-98.587
-111.503
-114.626
-92.1172
-75.1597
-61.3887
-29.5058
59.3992
73.4825
12.8191
-7.97447
12.4204
115.338
144.296
27.2681
-2.61711
-26.3826
-23.0866
-0.920231
57.7657
51.7517
-22.6449
-26.6682
-0.482633
-3.95748
35.1179
97.3154
72.2183
-13.3221
-69.1869
7.25875
94.1705
11.1219
14.1767
81.4245
27.1634
-3.81264
-11.825
11.3019
24.7707
-1.35442
59.3128
88.2208
-8.95082
-92.8342
-136.884
-191.628
-238.071
-210.549
-150.094
-96.2802
-103.929
-79.8283
-35.0567
9.96392
24.1504
25.3844
69.6297
85.7766
96.6495
89.9051
11.1365
-1.77372
90.7374
126.388
146.464
171.033
134.54
188.349
221.311
149.746
54.7844
-74.2887
-114.114
-90.6959
-83.4433
-73.2225
-41.005
-100.593
-112.502
-17.7658
63.5815
-64.8652
-175.13
-138.487
-16.687
-14.6704
-24.6225
-39.1846
-43.2289
-33.0003
-23.2777
44.6139
111.646
101.272
68.6628
18.7199
-9.53969
24.2045
69.9478
27.964
1.76031
12.9287
24.4093
11.4037
-19.7312
-9.50756
-39.3417
-86.3749
-68.6016
-36.0112
-28.7663
4.67003
-34.6841
-109.022
-144.601
-66.6815
19.0233
59.7388
98.7306
113.963
70.8835
94.0978
160.102
168.314
86.2888
18.6932
16.8408
-10.0563
-81.4663
-104.108
-65.2627
-68.347
-100.325
-58.1691
30.3045
26.2451
-30.4026
-12.9598
8.74409
-64.4358
-122.946
-47.747
-62.3907
-38.1108
-17.4762
23.4834
47.7014
85.2063
93.607
33.3653
-69.6878
-16.9097
14.1723
40.3237
63.0003
47.2785
67.094
56.6085
30.2674
84.5486
145.879
86.7454
-12.195
-101.282
-96.7483
-40.1558
-19.209
-16.7459
-61.7879
-47.8545
34.9836
16.1203
21.1308
34.9388
20.7056
-31.9711
-49.6275
-41.7209
26.2126
33.2221
-15.8138
-48.4134
-9.74781
0.484742
16.3703
-94.0991
-120.995
-50.362
-24.8673
-47.8518
-63.5689
-41.7285
-18.5441
40.3753
111.109
96.4056
88.7854
123.282
125.541
115.739
52.5928
2.22296
18.8212
-4.65669
-63.3045
-7.52807
-8.19337
-70.1909
-125.441
-148.94
-74.3907
-9.66862
-44.4058
-30.9181
32.1218
56.2618
66.4677
57.2812
23.8936
12.2142
22.1316
27.6268
45.8657
69.3388
72.0836
91.0975
15.9522
-124.015
-152.22
-76.2276
-15.9566
-27.8511
-19.945
-7.39151
-62.6727
-109.304
-94.0357
-47.4251
-17.43
10.5587
26.5947
23.8692
-19.7053
-62.0171
-15.9894
37.3834
91.4219
155.033
175.013
99.6963
-22.0198
-49.2286
8.18207
16.2149
-6.82371
-22.9247
3.51657
32.9034
35.1725
24.6314
25.5538
52.5232
72.543
43.4837
-22.6643
-35.8905
-42.3317
-42.0578
-54.2891
-50.1035
8.28217
14.0049
10.188
29.4283
25.6947
0.00617597
-46.1791
-88.9831
-109.072
-82.5583
18.8382
37.0305
11.4385
-28.7122
-69.2306
-112.518
-113.891
-80.4494
-58.5007
-17.0697
-14.5885
39.8093
51.1094
47.6323
103.844
137.733
122.708
88.2837
103.696
81.942
14.9121
-47.1792
38.62
-2.4623
-74.0553
17.8168
35.4003
-19.1669
-27.6532
-43.9372
-69.7827
-59.0038
50.2134
96.858
24.6288
2.42915
37.6878
65.2972
48.6679
29.1777
18.3613
17.6976
-79.3706
-96.1421
-65.1496
-71.6731
-64.7468
-66.7957
-62.7439
-63.3311
0.515125
11.8903
-46.6613
-30.8713
46.0266
105.432
116.004
112.053
27.5551
-33.7011
-68.0622
-82.6565
-48.2382
-14.7866
-40.2369
6.45071
59.8661
29.8952
5.67839
22.7136
0.685788
-4.32521
-18.0375
-47.1051
-30.2645
-38.282
-69.2681
-63.9133
14.9521
88.0428
96.6134
65.9199
61.9815
102.555
148.1
91.5675
24.4116
13.5852
-31.2226
-81.1178
-85.9197
-74.5714
-67.4142
-23.0741
-53.7824
-81.5163
-65.6799
-44.9287
-22.5928
-9.30493
-2.68463
9.83914
-44.6126
-63.7799
-81.9948
-24.0609
30.7819
54.836
91.7856
137.727
151.515
147.582
108.043
57.7658
15.9691
-40.6825
-63.4904
-61.9597
-3.96862
30.7194
22.0153
-34.9291
-52.5045
2.42105
75.8636
49.3057
53.5506
-8.31033
-99.0001
-142.962
-77.7599
-69.958
-128.885
-69.9295
66.8535
130.428
114.087
58.4905
-8.02863
-58.0452
-118.799
-140.284
-99.6084
-120.367
-76.6978
38.1795
31.5945
60.4748
150.072
174.653
88.6271
34.9405
66.2896
30.1027
-89.8438
-125.865
-40.6726
72.8602
40.8414
-7.19435
27.8033
42.1924
47.2946
61.7711
25.492
-66.2517
-150.294
-127.214
20.6365
62.5407
55.2718
56.0937
-48.3715
-140.015
-98.6113
-40.5202
-9.60197
4.79409
61.2849
127.196
147.761
133.216
109.769
96.3592
71.5359
87.1566
59.1176
-84.3812
-219.434
-197.64
-179.101
-127.436
-39.6284
21.3615
39.3193
52.5362
38.5323
44.5405
66.3852
83.746
150.092
9.26574
-219.999
-179.405
-46.813
-87.8173
-67.1737
-22.4305
-33.4787
-38.0516
40.8551
54.3655
76.2999
57.141
40.9101
10.3242
-41.7054
-53.637
-43.2222
30.0986
91.6369
190.61
252.062
130.753
-12.7303
-15.1038
5.51156
13.7207
53.5708
-28.3017
-137.927
-166.802
-111.975
-55.497
-38.6328
-64.4042
-70.6696
-20.4721
40.7289
-7.46092
-75.4653
-54.4853
18.4933
65.1908
57.6169
61.3969
118.61
72.2136
8.97847
5.3601
-18.8005
0.501609
-7.19474
-22.5547
-19.8479
-63.0631
-50.342
29.4556
75.2106
113.568
86.4822
59.9916
66.7581
23.5006
-28.7038
-33.7821
-60.1586
-89.7777
-115.024
-138.997
-72.9988
-21.6553
3.04934
6.88124
0.689805
21.7601
-4.90613
-25.6205
5.76615
13.6075
33.0189
49.7535
97.5796
-4.96484
-109.647
-62.1017
-18.4446
36.4423
58.4242
43.6723
35.3098
54.3359
45.0817
35.1576
68.3304
40.1395
-12.8649
20.4985
-56.7052
-111.699
-113.309
-41.653
-46.1638
1.34212
7.9078
7.22075
36.041
35.1231
50.9466
44.694
-24.3647
-68.6388
-8.1651
84.8389
73.7762
44.0908
34.4664
10.6815
4.88185
43.0682
-11.5251
-76.3401
-136.827
-109.585
-54.1597
-33.595
19.1083
57.1476
14.8874
5.83169
-17.2606
-7.23818
9.62457
-16.5533
-11.5818
66.1995
97.2689
43.8979
15.6511
20.4316
5.04725
-17.1893
-26.1905
-19.1337
-20.5002
-49.2907
-35.3766
-15.6552
1.93188
9.64852
40.4386
41.065
-1.6225
-22.3006
-26.849
3.50415
8.62484
-16.5026
-32.2874
-29.1428
-5.16123
-25.8539
-58.3716
-12.8964
75.2991
90.3449
60.7661
19.1938
-18.916
-44.8164
-11.6215
44.2217
20.6647
-38.1119
-31.4357
-57.2237
-63.3072
-6.33395
11.6349
21.2747
24.6841
123.153
197.705
115.286
-23.4269
-30.8782
66.7087
1.23631
-104.41
-85.0262
-112.847
-127.891
-100.638
-56.7034
2.62601
44.8633
36.062
38.5153
41.5309
74.6219
75.2547
0.553596
-94.3126
-60.3868
17.6384
13.8679
-27.0707
-13.2035
-36.2033
-86.0038
-71.3426
-16.4131
70.3062
90.6789
43.7681
50.2509
27.0615
34.3698
57.1735
60.6212
69.1831
6.51203
-57.3367
-39.2228
-39.268
-18.5071
-55.2825
-77.0041
-21.4051
0.757071
-14.5689
28.7142
52.5999
71.4483
75.3638
3.96569
-20.1202
68.8634
96.2403
39.9411
-10.2629
-27.2447
-23.4759
-43.6847
-66.9834
-71.7073
-65.7511
-88.5076
-80.9139
-67.5999
-52.328
-54.9412
-22.1752
-11.6256
12.3306
82.1554
135.985
65.4359
0.981104
-47.1015
-84.8405
-59.4415
3.76455
27.0866
59.0608
46.3089
68.8146
92.5032
96.8201
76.5621
78.8904
34.1472
10.2453
-60.5385
-86.7216
-95.6615
-38.0058
93.2098
-37.6692
-71.7376
-8.46918
-3.51362
-54.8176
-32.1622
6.74979
9.92553
-1.14978
28.8005
50.4851
30.6009
34.6148
31.0979
27.3542
65.7987
41.9037
6.88695
-71.9028
-162.983
-83.884
-37.0367
-11.0681
75.3399
90.6155
33.934
-10.2911
-32.8157
-51.5174
-71.8337
-85.6526
-51.9238
-68.1446
-66.9468
-42.9013
-24.1904
-3.24737
-14.4923
-13.4078
4.3884
62.6455
121.89
140.562
87.6387
38.7705
20.7565
40.623
89.0276
97.9333
88.0679
35.2761
-29.3455
-68.3241
-49.849
-41.3773
-43.9795
-2.13926
33.0832
-8.08005
-51.8412
-1.22332
16.709
-0.742381
-48.9059
-54.5903
21.7687
10.5651
-52.6638
-53.9349
-52.6339
-40.2934
-20.208
-0.917162
-11.0467
14.7169
-3.39486
-24.9742
0.947666
76.5159
28.8372
-5.01737
19.8954
63.4549
58.2221
53.7953
30.1047
-1.15774
-7.00788
-23.3574
-39.0351
-36.7119
-58.2118
-64.3817
-53.7056
-48.3236
-21.8499
0.951863
22.4218
10.573
11.5967
71.7266
69.7828
57.121
57.2495
49.8799
8.1378
-31.1403
0.791339
-28.8798
-55.8978
-66.7847
-28.1767
6.08379
8.3195
8.63023
76.1199
90.3845
21.8159
-70.8823
-81.055
-54.6091
-32.7671
-33.0349
2.90223
30.5015
23.673
30.1061
-14.8258
-10.9905
-13.9817
-20.3587
-19.3917
-23.9802
-8.8517
34.1073
15.1579
1.03235
-17.0752
-29.9313
-20.9944
5.43466
13.3518
51.6999
75.7267
80.7949
71.4605
43.5402
11.9385
25.3938
64.3982
-12.477
-65.3882
-53.7232
15.1878
71.0711
-71.2107
-109.093
-29.3989
54.3186
40.2296
42.2769
41.4066
23.4648
-76.8731
-153.414
-142.813
-90.854
-32.6232
10.955
29.8058
33.3226
28.6913
-12.2141
-53.2545
-111.613
-1.27691
56.2748
48.667
14.2744
45.8849
84.1151
82.136
64.3337
159.823
198.447
142.739
45.0846
-24.4291
-40.7903
-55.8657
-85.3565
-69.9872
-111.128
-162.124
-163.052
-130.134
-83.0233
-53.9656
-85.4906
-44.2713
14.8246
20.2225
33.72
24.024
-11.8293
-31.4199
15.4829
14.1174
-20.7054
73.4245
121.489
95.9562
86.9499
79.9976
96.3428
108.473
72.0643
69.4529
118.177
62.1793
3.71465
-53.0046
-51.7866
-58.4435
-69.6977
-90.2935
-51.5999
-48.2379
-21.8228
-29.7981
-60.8099
-46.808
-18.0553
21.2835
71.519
148.04
168.97
87.148
-0.126677
-111.916
-149.892
-100.239
-82.872
-45.9144
-30.5896
-27.9767
-48.4611
-60.5749
-55.1878
-48.5511
-36.8902
-46.6277
-17.9963
-2.78974
-30.6572
-61.2291
28.2887
126.07
11.9022
6.41365
49.3652
75.1822
100.621
56.643
35.0162
72.7064
106.978
192.223
171.316
32.1396
-73.0215
-41.6573
14.2047
22.0514
18.1734
-59.8178
-167.317
-140.454
-19.1646
7.17428
-38.0688
-80.5519
-97.5039
-105.384
-59.2976
22.0092
3.23324
-31.0921
3.51453
84.3845
109.577
35.7313
-58.7949
-31.6261
-24.3782
-6.89004
-10.4504
-10.4493
38.6506
43.6931
15.5762
42.2049
100.047
55.891
-13.8462
-30.0052
1.35814
-11.9153
-5.83603
35.6204
58.5094
95.6029
62.2048
-25.6378
-86.1725
-82.5121
-73.3123
-53.9405
-49.0035
-57.6503
57.9097
108.037
58.319
59.8153
27.8238
-37.0107
-69.6303
-101.912
-113.168
-14.9288
29.3858
22.5768
11.4175
-27.2606
-14.6081
12.0212
8.70888
-24.1087
-33.4003
-10.5579
23.4561
21.8788
70.0745
112.762
145.723
129.696
48.2353
-18.3554
-41.518
-70.895
-94.8088
-131.698
-141.239
-121.825
-26.1648
16.616
37.0003
45.1056
52.4409
60.1019
58.0946
49.3368
46.0282
148.947
164.58
-53.4088
-157.466
-106.162
-31.4596
-28.1584
-7.14779
8.01135
-36.4628
-16.3658
7.20359
22.5353
-7.14698
-76.2938
-50.8262
-50.0247
-18.6999
17.3357
-29.8554
-69.5169
-22.5888
53.2595
153.072
106.338
35.1904
27.916
30.74
5.54818
-39.2345
-152.672
-162.17
-44.9465
37.1311
76.6131
60.2936
41.7738
21.0969
25.5039
31.5021
-11.7976
-6.68804
3.50208
14.0014
30.4971
60.3225
47.6762
12.0333
34.9937
66.5807
103.684
86.4054
27.3597
-15.4534
-17.1798
-29.9658
-50.179
-59.2456
-61.729
-48.7961
-25.4164
-75.6914
-38.343
1.29473
-33.6221
-75.7933
-100.79
-89.1017
-92.1159
-40.2113
-22.2733
-88.0787
-88.6118
-71.5422
21.5822
104.976
110.843
63.339
45.929
37.3084
37.4735
49.1066
67.434
83.7727
144.506
120.46
141.656
137.295
55.2865
-6.22451
-17.006
-64.5166
-74.5074
-68.3636
-117.658
-128.979
-74.2184
-37.1651
-3.38532
15.4618
-16.1471
-16.3999
12.5139
-25.1503
-90.6647
-112.659
-102.442
-98.1587
-95.4099
-19.3216
18.8698
78.5911
126.54
143.299
166.666
173.773
161.687
176.987
170.367
160.914
88.8558
-4.42492
-108.081
-139.94
-160.513
-151.808
-176.307
-228.316
-234.836
-159.757
-67.9417
-10.8244
13.4047
15.2034
90.25
85.6187
-0.776546
-4.51413
24.4284
30.0695
37.7646
10.3351
-13.3227
-0.829473
37.6022
62.1981
123.828
136.762
121.091
86.3424
28.8624
-39.6685
-35.9699
-35.6819
-58.7355
-56.3224
-42.4356
-54.9449
-48.7112
-25.9025
49.1662
56.7831
56.8977
61.2986
29.3464
2.61937
-14.9954
-2.58231
46.872
30.0039
-28.7279
-24.2336
-26.0491
-31.8963
-49.7304
-64.3331
-18.3051
-49.8023
-65.261
-50.5777
-72.6098
-36.2302
-2.84539
-2.78791
42.1559
43.7482
50.4119
65.4204
21.7304
-16.7824
-12.5091
-54.1237
-49.691
2.75769
29.2665
47.3057
62.3483
34.0142
-6.13057
-5.81411
23.125
35.6576
55.765
56.3067
4.10192
-24.5299
-46.137
-41.7983
-58.5086
-64.8499
-85.3506
-38.9437
51.9375
77.4045
78.3733
51.7647
46.4138
98.3795
124.737
84.6779
9.37018
-30.2972
-56.8039
-68.583
-41.741
-65.8249
-118.647
-84.3979
-88.3771
-93.98
-61.9426
-6.26346
-15.7021
-47.196
-54.8872
-11.2931
-50.2018
-43.7522
30.7079
71.5565
114.918
123.084
42.0545
66.5487
93.2288
130.408
143.41
89.2826
46.0537
41.6099
46.3505
10.5354
-1.45819
-11.8515
-50.9642
-60.1288
-84.5055
-84.4166
-51.2807
-78.8142
-46.5946
-35.1437
-81.3053
-141.064
-111.08
-96.509
-65.244
-29.8043
14.8329
49.8635
28.0044
31.7138
9.77982
12.3262
24.6346
19.8644
67.7529
41.2509
0.229524
38.827
56.0305
65.7514
88.2163
117.895
107.908
102.196
65.2531
47.4682
-5.22117
-45.4014
-69.7149
-57.1312
-58.896
-42.0773
-38.2653
-30.1401
-48.1062
-57.5392
-26.0356
-5.0313
10.9036
-7.06149
4.95923
3.44767
-47.0357
-44.9685
-4.43062
2.06556
-33.2839
-54.7788
-43.1508
6.54548
20.5415
13.8956
15.1274
23.939
34.6725
39.2561
15.516
15.1286
34.2846
38.8431
24.8958
-4.80819
-34.9622
-76.303
-60.6463
3.91228
8.00752
12.3811
5.19198
-30.4408
-19.6049
2.94761
5.81773
44.3958
35.4618
-2.323
-14.4209
7.83224
27.8581
32.6977
17.0807
5.02167
14.0014
43.6286
12.9242
23.8113
24.7116
-31.1531
-62.3368
-99.134
-77.7812
-18.3984
-4.97212
1.61419
-4.03438
-1.01877
61.5311
55.6913
58.1414
113.627
131.374
52.3157
-34.5509
-84.2913
-83.6073
-38.2383
15.4408
36.7509
11.0875
-10.9761
-22.7519
-11.3656
-47.3166
-14.2948
-116.107
-208.08
-77.8257
-55.9817
-58.8801
14.0622
67.7469
102.466
135.609
94.4751
136.374
82.0992
36.6983
37.226
21.3527
5.03364
-61.3384
-92.0022
-58.7733
-52.4359
46.9519
103.624
40.8371
4.86245
0.255896
-44.5307
-94.2317
-93.6077
-38.4117
-53.7156
-83.5059
-68.0694
-73.4118
-75.1475
-50.6757
1.80694
65.8124
71.1695
72.732
54.1722
77.8184
92.4928
53.9218
106.814
149.452
66.2066
-13.007
-73.1415
-85.3022
-37.2466
-34.3476
-1.91158
19.5283
2.69175
18.4687
-2.3923
-33.327
-34.5366
-46.6633
-21.6965
45.2999
80.948
26.6444
-42.7874
-78.454
-40.6569
-27.8567
-36.3661
43.7822
74.6978
29.4454
2.9797
-15.0978
-46.7788
-59.0522
-67.7605
-84.3784
-27.7372
40.1441
4.09858
-15.5291
-39.8606
-14.7157
37.9728
84.2838
97.5509
116.628
139.858
43.218
-10.8822
-7.17953
26.5054
24.5817
-6.21427
-56.0568
-59.6594
-87.4079
-127.235
-134.045
-92.0218
-69.8902
-35.5604
84.3445
138.864
108.673
87.6431
90.4656
64.9431
6.03112
-79.7037
-76.1328
-30.7444
-67.8983
-95.0787
-91.0385
-65.6215
6.55711
59.7105
56.5208
72.8202
111.984
46.3332
-11.8616
-13.9844
-3.01876
-14.2074
-10.7585
-31.9575
-8.37108
37.916
-5.90461
-63.6091
-46.3644
-5.16522
33.1739
40.0591
69.3637
81.0009
48.4517
32.1612
24.1114
32.3532
10.5319
-21.9981
-48.9596
-80.8472
-137.904
-83.7919
56.2785
29.6519
-17.5348
13.6882
55.8593
67.9029
59.3393
25.6072
-28.77
-47.6234
-33.182
-41.3611
-76.0313
-29.248
-27.2416
-5.95508
39.1475
85.5303
121.771
54.8819
-59.8349
-125.287
-125.078
-104.614
-77.5504
-114.746
-74.5096
55.5916
93.4893
120.141
103.392
95.6546
80.6603
53.0046
76.9801
64.5762
0.370774
-41.3312
-18.6803
-29.6559
-32.8033
36.5456
47.3595
26.9851
-18.9355
-25.9083
-47.2434
-109.975
-79.5956
-39.943
-30.5676
-22.0711
-23.4339
-28.5537
-59.9903
-65.5226
17.4243
70.8258
29.7799
31.1929
43.5316
84.151
117.557
68.0282
14.8008
34.9206
16.5351
-63.2757
-90.3625
-53.023
19.5318
38.9442
28.7451
-16.3003
-30.1915
69.9404
66.8149
44.2728
25.2376
-41.2136
-69.559
-55.6199
-43.4433
-57.4113
2.27994
20.6726
-12.6443
-48.0041
-82.0936
-117.361
-100.339
-15.1491
15.6914
6.85736
14.7758
26.109
49.6124
65.6531
55.7644
86.8603
101.037
83.4959
70.548
69.8057
43.904
-5.78171
-2.18933
-30.4393
-60.0784
-23.9772
-43.4566
-79.7027
-33.6805
-37.5975
-46.4981
-24.3288
-60.1869
-37.2103
49.9548
21.3917
-31.106
-32.2371
-9.36112
38.0073
43.7831
8.1655
-17.6621
43.2053
63.7815
33.6998
16.403
-8.57464
-12.5568
29.5884
27.6828
63.1995
79.9683
34.2625
-33.4432
-61.6223
-65.4301
-76.0207
-67.8811
-14.6366
-33.3693
-63.4562
-59.4607
-29.1969
9.63943
19.1244
53.3103
49.2158
19.5757
8.16859
7.16195
-11.3442
-11.6201
5.30734
28.5494
51.0721
41.9214
24.1652
-0.0401531
-18.0531
9.30162
7.89903
-4.49601
13.2964
-14.5543
-37.4853
-17.8703
-16.7364
-16.416
-18.1428
-26.6606
-32.371
24.036
38.9269
50.2542
55.6477
63.6192
42.0342
-8.07832
-51.1857
-0.0749848
28.0133
-40.4743
-112.349
-57.8256
26.4465
31.1326
0.242789
-33.6016
-56.3681
-29.0172
-6.45721
-4.70594
35.4263
40.4156
13.2651
6.36476
65.5879
58.4699
41.4102
11.8959
-28.2825
3.03285
-19.6882
-53.9924
-28.1543
-10.222
-8.40867
16.0783
25.4073
4.24618
-0.0260545
-31.1591
-29.8163
12.068
12.908
-21.0765
-44.8994
-34.7566
-16.1841
-14.193
-29.6933
-21.2377
17.6075
25.2381
1.7257
2.32147
24.735
51.9927
60.8199
31.8954
58.5861
55.6561
51.4586
19.255
-2.06968
-7.5575
-26.6937
-26.6729
-1.55149
-6.28445
-11.059
-8.22448
-33.9873
-35.3441
-47.8861
-35.7206
3.00076
-4.28664
6.43359
3.92617
1.71066
-8.34874
-19.6606
-4.81051
19.2198
-11.059
-8.55772
5.0854
-6.5653
-4.86401
-25.3204
-33.6854
19.898
14.1181
5.84741
3.79407
-13.5497
9.15438
18.7097
6.56626
-5.38415
51.3653
60.9127
28.1404
-2.42134
-2.66314
-8.83593
-8.74151
-16.6849
-20.3916
-3.76085
35.1571
-32.9978
-37.2985
-30.3367
-20.1325
-11.4814
-14.8786
6.7374
38.7404
46.7976
29.069
33.4142
20.8787
-3.1213
-29.9819
-9.50733
-6.09831
6.15768
25.8951
0.970705
-22.7773
-39.1878
-50.1846
8.81149
33.0816
7.95184
24.8994
12.2618
-14.4971
-12.1459
-34.545
-38.2635
26.5018
57.4736
78.1896
52.5407
12.6414
-12.3944
-16.171
-47.1496
-85.0003
-63.1859
-40.0688
-53.9197
-40.4134
-23.0052
-4.6197
-2.08835
-24.802
35.3878
56.231
59.0156
32.0822
7.28671
-10.4273
-15.6252
-18.488
7.54591
10.3913
15.5711
10.5055
-8.41245
-6.64693
-20.4619
5.44383
81.4856
80.2126
46.4995
31.2822
21.6954
43.1406
82.6083
63.0186
22.5979
-1.79654
2.92537
-11.9065
-33.272
-20.0889
-32.9781
-34.6403
-55.5979
-83.7411
-92.3314
-81.8246
-84.7743
-84.3828
-54.1244
-34.7379
-36.4538
-12.4766
15.1347
11.6659
46.5804
17.3331
8.46808
17.1079
-6.35521
-4.58783
10.0099
79.6516
158.171
145.838
128.915
100.708
31.5194
-0.649093
-25.9473
-31.2253
-53.8262
-61.8202
-67.4229
-55.1756
-56.7838
-54.8925
-80.578
-56.2416
-31.4739
-18.2707
-23.9677
-70.1278
-115.896
-102.655
-80.0239
31.663
68.3817
108.978
157.174
158.196
168.231
166.808
133.586
100.463
58.6617
3.17084
-28.8907
-63.8189
-77.023
-56.6396
-53.341
-92.4262
-125.668
-98.9705
-49.6385
-68.7567
-76.9624
-74.2204
-83.2008
-91.1911
-77.422
-48.2657
26.7703
122.042
197.163
188.296
170.027
144.501
116.161
48.3088
19.0612
-2.60543
-49.0863
-79.603
-93.8541
-81.0874
-54.6855
-15.6261
18.0169
26.9366
-25.5253
-19.1024
29.4596
29.2342
-42.1327
-95.6817
-78.5611
-40.131
-38.5402
16.3282
26.4282
-14.4498
-17.9263
-9.09865
1.01104
25.3054
50.8693
55.7407
46.1277
28.7643
28.3259
6.2959
-51.6302
-106.51
-76.6364
-19.2651
6.53839
8.13911
12.3652
24.6327
63.4278
94.9656
131.178
118.149
86.7848
30.4567
-49.1648
-77.8529
-63.8395
-65.1683
-41.1271
-5.55984
-21.7269
-17.3434
-22.3192
19.1458
42.9914
-20.2577
-49.2474
-45.0775
-46.495
-44.6274
-44.3677
-30.8917
-27.8903
-20.2789
49.7852
94.6834
80.1302
51.6098
12.741
-2.92403
-37.2275
-56.1663
26.5544
27.0773
-28.9891
-28.3389
-17.4511
0.566031
20.6013
16.9259
-13.8185
-0.0939004
2.42669
-3.45989
-22.6494
-36.1733
-29.1866
-23.335
2.10061
42.3334
107.58
140.46
91.437
19.5603
-0.409191
7.97255
6.74496
-13.2478
-9.42463
-43.1033
-29.2267
-36.6823
-34.0115
-28.6609
-80.4475
-69.2579
-3.22813
37.2354
65.1684
85.7062
68.2538
60.2267
16.7299
-15.2906
-6.69229
-37.8223
-70.4385
-92.5622
-114.606
-117.151
-112.075
-141.182
-70.6962
39.6249
91.1069
90.7125
85.4984
63.8472
7.78554
-45.5126
-69.3934
18.3356
67.138
40.8741
58.3376
109.98
89.7019
52.3115
29.1123
16.5367
36.9085
23.6591
-13.8983
-9.7909
28.2569
2.87044
-42.9195
-37.9944
0.544164
9.90965
-2.59784
-49.3958
-85.5858
-71.0139
-79.3451
-96.0319
-41.3132
-13.0861
11.4465
25.4713
46.2142
60.0488
46.7788
51.0586
68.7941
87.2434
39.7485
-20.507
-42.9559
-19.8068
-2.79948
-0.826222
-20.4983
-70.3836
-86.9226
-14.2436
37.4525
87.0959
89.0442
12.6164
-21.5921
-0.17093
-5.20809
-23.5345
-93.5176
-133.181
-99.2796
-90.2953
-122.065
-87.1572
-54.7677
50.5641
142.218
216.454
174.904
58.4037
-32.4922
-78.2499
-84.6498
-8.9878
8.17248
-8.92271
-0.198038
17.9623
26.5571
44.4691
66.3732
133.945
207.76
205.792
83.8538
-61.4488
-156.626
-221.204
-221.349
-109.137
-9.93947
85.8548
181.607
155.49
22.3871
-109.388
-183.855
-121.011
-19.5448
137.274
168.082
58.554
-58.9164
-120.029
-70.3323
-41.715
-29.4461
63.5988
146.032
129.212
135.919
31.6585
-144.487
-193.198
-126.481
-44.9774
-67.0026
-154.355
-212.199
-266.798
-246.298
-139.45
-0.473858
155.089
184.818
247.992
247.979
212.45
152.445
192.29
323.906
371.64
106.612
-79.4528
-99.8604
-143.859
-133.163
-140.728
-46.5641
-34.1857
-159.435
-186.923
-148.613
-0.829858
160.695
155.768
-18.1361
-91.1089
-98.1486
-142.511
-262.369
-248.758
-31.3934
31.0525
24.948
-2.48434
114.77
146.593
121.143
225.755
402.913
504.438
249.358
161.338
-33.8483
-351.291
-331.211
-238.109
-233.714
-277.141
-279.682
-116.154
134.873
132.814
74.144
117.337
61.5574
4.19101
-80.7619
-209.759
-159.717
-112.018
93.122
217.496
366.845
370.324
276.616
99.5769
-64.1788
-179.246
-341.641
-369.277
-152.342
203.528
246.651
22.1393
-129.909
-1.94804
-80.0477
-218.71
-165.054
1.72146
151.036
124.022
25.377
43.5266
22.971
-0.116227
-56.7904
50.2925
291.069
226.99
-64.0833
-227.98
-206.138
-93.8303
-7.56622
61.7556
255.31
241.374
64.4064
-106.177
-332.023
-543.415
-560.677
-345.41
104.344
541.303
773.443
584.144
339.357
140.23
-17.5253
-257.292
-246.826
-62.3266
-170.89
-319.625
68.4079
442.494
334.166
-138.911
-258.655
-92.2848
82.2089
114.541
-128.218
-469.468
-445.443
-70.8458
-20.3347
-137.738
-88.7182
-25.5145
-89.991
-237.317
-109.58
-8.30588
-174.889
-47.3912
234.154
353.075
498.614
715.272
813.041
568.908
312.175
159.373
20.9574
-216.422
-289.527
-130.789
-247.241
-427.498
-399.479
-298.83
-247.189
-241.88
-313.136
-368.549
-322.45
-106.456
-113.357
-232.08
-131.595
327.737
505.677
418.991
374.351
332.657
105.456
23.0478
250.196
449.832
440.702
190.28
-4.83898
12.4047
108.483
116.826
-101.486
-513.418
-634.011
-532.98
-467.938
-267.244
-3.72526
45.3526
-206.456
-212.037
-11.04
-21.4982
-162.963
-168.316
-23.2536
337.981
520.553
366.736
380.577
225.707
-39.9037
28.8303
201.288
248.952
220.472
-79.378
-315.406
-322.81
15.012
438.529
235.578
7.97541
8.71984
-155.815
-300.882
-256.921
-46.4967
142.409
66.1479
-87.1426
84.8027
403.362
225.96
-222.24
-369.865
-325.921
-170.421
-207.98
-401.819
-631.671
-344.633
23.0321
303.462
393.01
-75.2987
-55.7045
421.606
329.219
141.073
25.9444
35.312
51.0094
96.6229
120.257
37.1046
-20.7334
-133.725
-85.7879
232.679
310.154
-3.09091
-307.799
-367.979
-66.7044
730.909
744.771
-178.45
-195.622
79.1533
216.26
135.51
-171.073
-453.684
-226.881
86.9187
214.769
77.05
-314.799
-598.379
-474.737
-132.915
79.9777
122.148
80.689
-165.196
-338.987
-15.6573
-31.5837
-208.643
-234.505
-134.063
30.6874
48.297
110.346
74.2145
148.475
497.736
997.244
800.852
310.162
295.434
289.283
85.1073
-287.931
-475.137
-331.282
-122.774
-115.058
-288.472
-410.441
-189.514
78.9865
282.214
218.521
176.527
8.58757
-287.771
-386.949
-304.038
-244.709
-362.614
-243.353
161.746
387.132
333.883
358.795
77.9833
-246.398
-294.842
-74.0119
180.697
224.287
-28.9006
-309.827
-429.511
-347.89
-213.875
102.528
349.805
332.612
132.705
88.5178
147.292
56.3029
-9.56916
248.586
473.324
540.985
300.04
78.0819
-244.963
-588.978
-14.2763
599.935
310.64
300.593
156.133
-197.626
-409.242
-203.807
-13.851
-87.0214
-354.593
-606.004
-543.932
-394.434
-535.566
-541.389
-50.896
247.435
619.807
759.758
58.8015
-554.642
-369.118
-143.716
68.9715
215.931
165.259
79.4842
103.128
352.93
259.341
-212.852
-18.051
234.399
261.992
500.89
535.525
279.509
52.1982
57.9013
-137.143
-455.654
-545.103
-434.05
-212.807
0.115756
137.744
100.383
-41.3051
-199.046
-223.569
130.545
259.676
23.2061
326.011
326.087
-290.351
-233.984
-196.657
-216.047
-157.493
64.9579
297.223
222.788
367.288
393.004
225.007
-29.488
-75.4025
-69.4412
-119.247
-215.783
-478.085
-524.552
-682.883
-966.574
-508.091
162.977
802.516
989.989
432.212
-156.885
-251.274
-26.6407
190.357
465.689
269.244
236.599
135.948
-52.2657
-85.9559
78.7872
183.054
286.659
246.496
-109.072
-186.847
-240.449
-379.313
-432.931
-197.901
-44.385
11.2346
-157.716
-522.721
-469.815
150.454
375.817
289.746
266.768
291.111
363.573
157.729
-468.988
-433.135
-34.7775
271.702
728.042
329.531
-331.016
-381.648
200.934
220.472
-47.6006
-211.025
-377.83
-364.423
-72.9996
224.221
304.847
67.262
-229.752
-277.127
69.833
235.828
380.752
-66.1814
-621.255
-537.176
126.022
661.243
264.378
-120.315
-73.2728
30.3679
57.2061
-171.553
-230.49
151.743
566.507
325.703
89.2473
133.115
193.551
17.4277
-290.329
-265.444
-265.467
-97.5039
-131.387
-321.058
-301.147
-118.333
125.027
340.275
269.215
93.9289
-205.724
-734.723
-759.637
-282.181
178.779
747.604
942.117
415.762
68.6868
-9.61429
-223.182
-92.9858
76.4874
-9.45189
21.5154
141.905
171.662
-179.064
-576.793
-555.636
-313.324
363.363
894.546
725.784
195.949
-211.474
-417.369
-290.295
-35.6694
316.33
208.556
-107.537
-150.966
-148.826
-271.436
-277.157
-191.857
55.5464
264.282
171.64
61.5074
-179.526
-359.6
82.4443
136.502
-242.66
-271.164
35.2197
34.4136
-194.332
-86.5641
55.2759
58.3856
217.132
265.812
227.395
261.58
126.127
83.5935
175.012
158.056
-9.06964
-223.379
-468.612
-648.162
-536.084
202.081
1094.55
1265.53
649.884
248.408
14.1167
-152.695
-361.321
-347.965
-338.637
-492.392
-579.308
-555.616
-288.094
4.04538
16.8336
-199.39
-105.963
197.18
220.552
-15.3593
-440.982
-578.168
-266.671
-13.1807
259.618
363.091
405.003
412.319
314.327
205.87
186.556
139.182
167.291
195.145
206.256
52.5924
-72.8847
2.35839
83.604
73.5908
-229.38
-166.58
86.0757
-39.9791
-421.611
-571.404
-278.485
346.092
685.697
270.668
279.552
352.641
-4.89529
-64.2219
38.3582
-71.5667
-293.483
-319.732
-285.577
-386.173
-360.789
-281.28
-218.122
-234.656
-86.1821
168.907
185.886
43.9469
-83.6318
-158.033
-217.284
-25.9452
95.9449
60.3553
24.5941
43.9133
223.229
422.399
362.3
272.045
228.28
58.152
191.974
334.31
560.739
522.42
-21.3532
-393.176
-501.597
-294.041
-188.713
-243.634
-248.404
-207.126
-124.842
-16.2449
19.0695
-66.1261
-94.9836
-196.208
-58.3103
100.217
84.001
164.196
-2.83771
-174.328
-39.2449
-10.7796
21.1807
182.488
128.756
-106.372
-199.829
82.2019
121.838
202.468
345.367
192.237
173.947
95.5248
20.023
77.0872
8.72645
-280.573
-413.623
-223.875
59.4223
342.344
98.1574
-269.544
-273.129
-415.457
-307.948
-69.1116
56.152
119.924
399.282
525.643
187.015
84.1338
0.154464
-102.943
-77.865
-16.0119
-10.424
-120.31
-297.65
-451.566
-288.205
-113.816
-12.6634
464.824
611.661
267.216
65.7643
-90.4318
-401.025
-505.013
-322.598
-68.147
113.202
187.575
155.689
223.213
467.025
375.768
255.017
4.05959
-50.4338
41.5413
5.71078
-73.4641
-159.194
-162.992
147.625
307.602
-84.0374
-234.47
-146.45
-222.708
-250.178
-321.474
-395.144
-392.014
-255.864
132.754
470.281
323.265
343.088
683.11
402.87
19.2282
9.81947
-109.561
-322.802
-355.149
-259.127
-126.608
-132.989
-277.521
-246.071
247.297
568.065
484.741
74.1013
-182.414
-243.712
-143.196
-112.369
-209.679
-163.906
-169.381
-63.2113
149.083
310.907
82.36
-148.76
-164.652
-116.098
357.999
571.931
548.015
177.386
-47.4399
65.7747
47.3086
-42.3351
-49.1298
-115.633
-263.01
-273.708
-169.649
-100.734
-147.033
-255.328
-101.296
48.0496
72.8173
60.8184
-140.848
18.6393
49.4788
59.4513
183.53
175.219
66.481
-122.359
-123.078
-89.6711
-91.122
55.76
95.9537
-64.5223
-229.371
-334.728
80.9933
652.164
485.031
340.549
85.0672
-263.466
-243.708
-46.8824
176.309
64.9915
-58.8118
-156.81
-175.743
-137.156
-42.1394
50.4152
-34.7317
-110.948
-145.276
1.85492
60.6276
-107.531
-44.6062
55.2846
206.617
155.799
-74.9329
-169.447
-223.743
-161.746
28.3991
114.026
124.86
95.9039
-61.8714
-109.415
-8.39412
143.871
450.203
461.504
51.434
-105.506
-44.3002
-57.1577
-45.7407
-106.122
-208.217
-192.975
-59.0889
-10.8865
-78.9384
126.629
165.768
242.011
154.838
-67.3038
-85.8809
161.552
26.0888
-178.37
-225.346
-136.782
-52.3877
-93.2649
-32.2344
44.0853
45.4344
3.76935
-172.424
-265.566
-191.5
-29.3153
125.588
99.5624
155.845
180.779
137.112
-45.9031
-99.8749
-83.9526
-72.2149
-3.60133
156.749
144.997
50.2226
49.5003
22.1584
7.25297
127.19
216.409
153.576
-150.77
-269.183
-113.087
141.624
345.825
244.167
-80.6851
-171.802
-203.341
-200.017
-117.583
-118.224
-95.6579
-133.299
-230.231
95.3263
314.589
246.047
282.019
249.823
-72.8373
-133.233
13.2811
-120.991
-256.69
-195.117
-120.442
-78.2724
-63.7217
-111.002
-17.3914
30.7011
30.8246
115.752
220.872
151.623
-37.7956
-182.202
-226.283
-160.327
81.6199
256.988
60.9744
11.7994
159.075
27.6329
126.85
255.629
193.006
117.747
-141.115
-293.587
-168.353
57.5491
352.68
94.3745
-270.596
-121.708
263.47
252.763
72.1895
-75.6468
-113.885
-170.136
-295.026
-271.138
-208.82
-185.141
-48.2935
22.0307
24.9416
69.3649
67.3179
-91.4839
-298.627
-123.755
264.837
276.512
83.6128
27.4918
-9.05042
53.3047
146.314
107.555
77.408
105.716
58.4614
-10.5377
94.7502
-54.6393
-156.523
-2.09162
125.427
132.768
42.8634
-106.656
-227.78
-234.903
-192.319
263.37
518.324
171.938
-64.0967
-78.5424
-163.777
-190.142
-142.475
-86.6667
-279.608
-131.486
129.474
209.049
151.454
-139.401
-40.4047
210.226
383.413
333.252
-37.6654
-336.774
-404.316
-385.338
-320.608
-261.683
-206.888
139.415
499.849
489.931
306.251
254.346
159.035
9.09139
-144.47
-28.7551
-88.8141
-260.801
-305.92
-374.623
-212.307
-43.908
226.393
450.476
301.388
116.567
-29.9212
-179.795
-195.329
-111.458
228.482
128.848
-58.2078
-1.44919
27.1592
22.7299
46.1385
105.729
68.7739
-57.7576
-291.049
-260.864
176.726
317.833
243.437
231.272
103.199
-84.6167
-324.55
-330.358
-222.33
-68.1005
-15.5208
-132.454
-185.47
-42.2914
32.1456
42.3173
164.907
288.202
334.2
148.445
-282.323
-364.405
-193.068
-88.1379
65.6817
193.111
212.783
-8.54928
-182.68
30.842
324.773
300.119
210.894
66.8638
66.7456
-0.921093
-31.3947
-90.8859
-102.808
-187.955
-146.336
13.8635
-78.9847
-98.9326
13.9935
-86.5834
-255.348
-298.354
-173.927
50.12
-10.722
35.2919
241.864
348.823
145.848
6.97837
-32.296
101.927
112.972
26.4302
-187.635
-333.625
-116.243
6.444
20.9648
70.3517
45.6466
93.7888
119.863
29.9954
119.785
7.55006
-272.081
-244.077
-55.7258
82.1095
171.489
269.095
237.417
242.091
130.59
157.129
228.064
129.016
-83.5669
-245.696
-202.696
-172.491
-212.988
-374.102
-479.164
-223.723
241.263
245.816
187.355
221.38
58.3738
-143.631
-143.102
-116.797
-122.138
-131.567
-38.1958
-9.01431
-77.8714
-81.7697
-52.4997
3.61924
177.334
291.65
186.587
155.436
217.53
87.8999
-19.9862
-60.8383
-16.586
-0.901364
-29.0175
-74.5997
-45.1758
-171.364
-346.82
-265.115
52.0179
483.669
505.13
349.196
360.979
116.263
-138.428
-237.928
-438.624
-320.353
-96.0656
-76.697
-99.7336
-55.6786
-46.7432
-118.364
-205.258
-232.798
34.5784
328.106
437.786
453.882
232.339
140.274
-125.682
-199.437
-74.0328
-77.4853
-162.86
-151.78
-182.933
-117.139
-4.61391
-22.9686
-75.507
-16.8896
25.0851
-31.4798
-227.818
-32.4972
425.704
417.124
111.378
-132.184
-166.068
-154.742
-5.76425
126.864
151.974
29.3045
-56.0628
-48.6843
33.4577
106.876
46.5556
73.5882
130.241
192.791
226.499
-34.3009
-485.364
-568.125
-224.492
100.863
86.8291
71.6655
142.805
124.674
27.7182
43.3353
76.2142
-6.21708
-10.8919
224.953
116.788
-127.424
-51.8197
13.3773
146.281
97.2639
-168.007
-344.761
-306.771
-246.509
-156.754
-12.3268
62.6882
32.7424
34.4745
222.069
179.685
105.546
90.9014
-71.5849
17.0557
77.8192
-18.2878
8.53627
0.351436
21.5718
29.7991
-86.4828
-5.87934
185.184
68.8721
-193.955
-251.359
-165.468
-28.9431
125.714
262.184
171.824
35.9364
-148.943
-70.4227
12.5416
-8.10142
51.3337
66.0149
19.9925
-49.0803
-118.179
-128.931
-112.933
0.857576
165.309
152.695
-85.9099
-370.118
-327.259
233.07
513.242
439.841
250.341
136.009
169.58
29.0379
-140.255
-261.967
-314.14
-270.486
-190.773
-203.252
-213.407
-164.771
-75.1665
-201.202
-152.99
258.901
374.434
318.64
53.7369
-0.899956
79.0758
61.9014
-36.42
70.7859
83.89
26.3026
9.1053
-15.3256
-49.4765
-103.061
-149.817
-70.2487
67.8627
310.817
500.333
313.982
-47.6842
-425.72
-326.59
-244.968
-32.2189
229.256
36.2754
-95.7036
-53.9846
-49.0459
-37.533
-57.9727
-30.1582
-5.95442
44.6164
47.2123
-63.4092
-118.581
-63.7111
-39.5562
62.6941
197.883
117.277
115.899
10.5316
-179.535
-114.632
-47.9383
-40.8928
-90.6375
-30.468
200.709
164.045
247.159
108.115
94.1657
252.3
153.498
-23.6904
-162.189
-275.102
-358.679
-235.181
-6.72781
200.462
-38.2508
-142.21
-31.181
63.6423
77.5463
31.1961
-102.34
-95.2651
-170.405
-124.207
-86.9965
-80.7192
-4.58809
52.5206
132.545
128.254
185.733
232.918
17.1938
-100.42
77.6003
216.168
196.313
43.6011
0.882695
-28.9768
-101.422
-96.6388
-84.1847
44.1159
220.491
139.859
31.3286
10.8412
-31.0208
-109.1
-227.852
-224.221
-211.928
-291.663
-145.196
24.0654
131.786
189.283
134.932
182.393
-69.1135
-148.143
186.033
216.887
-2.04205
-67.4749
-155.054
-258.749
-215.887
-110.468
117.612
299.617
238.061
206.515
134.806
30.6546
-0.855836
-45.1028
-60.6511
-143.977
-102.137
-67.8588
-201.854
-192.888
-122.681
-80.1816
-43.9641
55.8717
156.564
237.428
74.6848
-160.365
-166.004
-119.731
-52.7198
163.416
389.085
385.963
439.726
400.87
263.918
100.881
-158.209
-297.153
-335.904
-262.63
-194.5
-170.445
-150.834
-114.774
-62.669
-45.9441
-63.2225
-93.2889
-96.4249
-127.766
-316.514
-231.911
9.77866
198.528
290.962
201.443
83.4087
94.7318
111.016
98.7174
151.587
137.269
113.923
-1.43596
-168.355
-181.424
-155.812
62.5976
413.863
581.43
350.712
-29.4944
-201.578
-302.363
-286.174
-196.92
-91.0977
-97.8955
-103.473
-98.103
-98.8312
-59.4281
-93.9045
-86.2682
-105.579
86.4382
572.185
464.942
62.9245
-234.792
-302.974
-284.286
-158.44
70.5695
148.544
76.7373
46.358
14.1863
-10.6559
25.7773
9.14843
-25.4491
6.33856
-9.44268
-32.0773
-77.0668
-221.432
14.1508
550.645
402.814
186.403
153.232
-30.948
-251.211
-259.629
-216.11
-261.619
-243.928
-115.478
139.246
273.235
67.3414
-204.561
-234.572
-98.7282
294.997
620.193
223.685
-187.913
-281.079
-187.694
-78.2092
-105.454
-147.588
-117.227
-56.4366
-6.18882
2.45688
94.1994
66.1365
92.0868
323.22
407.76
221.123
36.7436
-171.778
-302.888
-267.407
-269.622
10.7083
250.096
187.277
-59.5318
-136.041
-229.41
-82.88
110.523
413.551
723.723
375.495
-29.4696
-109.989
-77.7916
-55.9344
-124.202
-237.991
-431.398
-388.2
-405.039
-148.911
-84.8318
-310.644
-164.46
84.2608
492.402
828.802
606.483
113.427
-444.971
-443.429
-165.25
-65.935
-73.3271
-15.8136
128.158
250.367
204.799
171.152
22.0364
-289.465
-478.099
-161.764
169.531
559.624
530.393
-258.78
-364.419
-265.751
-181.175
-61.5358
-81.2088
-98.3302
-10.2599
-9.78446
11.2592
569.687
735.298
411.463
180.845
17.4581
26.6104
45.3673
-141.615
-416.651
-445.36
-196.589
-108.876
-185.468
-274.559
-197.543
-111.738
-6.3423
101.752
214.098
138.724
-247.028
-292.832
3.54165
45.0875
-33.2459
33.105
242.436
479.103
348.11
150.869
115.711
123.409
159.431
118.071
49.9744
-53.8361
-139.94
-169.897
-251.098
-225.793
-248.747
-317.583
-150.463
109.866
129.446
-21.5146
-37.8129
-147.33
-82.0167
231.958
198.7
53.2717
-6.14516
-147.982
-246.179
-60.388
42.4052
27.1638
26.6909
-64.1013
-81.0127
576.802
1125.89
388.207
-99.0433
-121.003
-248.597
-486.856
-419.525
-127.037
-65.4089
-191.045
-222.831
-190.529
-97.755
247.657
565.494
456.82
332.437
188.516
-42.1572
-473.671
-753.477
-442.571
-308.363
-60.6768
339.303
775.461
605.408
8.13336
-141.637
-164.328
-158.675
-13.4794
44.7978
-108.33
-260.329
-165.632
-120.149
-131.969
-170.001
-205.743
75.4103
513.706
589.249
400.737
40.8831
-253.347
-292.484
-205.22
-113.571
-28.6999
-123.058
-189.158
114.752
469.604
278.927
164.064
4.25735
-130.73
-117.398
-196.321
-272.991
185.263
460.687
213.592
-61.7159
-325.926
-302.459
-227.759
65.0657
161.761
73.9801
106.615
98.9009
-84.6174
-151.819
-83.1098
3.84286
90.8724
121.898
46.5169
-145.166
-381.379
-327.109
-104.418
140.831
350.53
315.067
158.641
-34.5822
-105.158
99.7042
239.859
61.5601
-198.995
-178.098
-212.953
-174.047
81.1322
175.542
318.773
134.344
-125.568
-126.263
-84.8174
15.3015
48.3898
-140.311
-111.874
-174.723
-62.685
-143.324
-196.301
152.294
427.004
243.457
261.504
411.984
238.364
21.5477
-131.097
-189.275
-152.966
-178.502
-289.827
-308.708
-267.273
-254.535
-107.554
231.715
223.092
107.56
186.18
145.306
-177.655
-295.112
-210.214
-106.541
-187.361
-160.168
62.4248
446.865
705.927
559.281
369.934
262.73
95.0806
-30.3063
-149.585
-304.158
-186.711
-128.915
-324.479
-550.777
-531.515
-184.702
-36.4644
242.717
433.179
323.244
147.534
-51.4157
-239.766
-192.509
-107.182
-145.218
-128.415
77.0867
183.656
182.237
120.089
152.078
138.343
44.1954
70.217
166.601
238.543
88.3262
-129.528
-167.374
-107.228
-38.0845
-249.545
-245.667
-9.34648
228.966
282.72
164.531
-44.2396
-211.023
-65.2356
56.9747
187.72
166.365
93.9835
-48.1481
-310.156
-359.799
-163.429
-31.5039
-70.498
-157.281
-74.6982
89.3213
153.868
-171.151
-312.158
-63.3697
208.179
256.098
24.7433
34.3415
82.9795
96.9763
67.6727
49.3658
73.5333
-96.3671
-175.693
-77.0886
-88.1557
-33.3954
230.424
302.561
161.869
311.412
461.614
173.418
-103.115
-122.413
-158.999
-186.911
-206.233
-105.523
-51.5057
-39.997
-3.56779
14.3057
91.7738
73.2324
-102.791
-247.903
-290.402
-199.183
-258.803
-254.354
-103.009
87.3372
204.954
197.832
174.679
173.066
112.106
-39.8984
-10.6502
-10.8574
14.473
39.7415
81.1417
145.602
241.376
164.632
106.095
56.5085
55.1645
-38.8876
-234.495
-179.391
-128.599
-109.145
-84.8943
-82.8187
-93.3138
-60.0864
-55.5465
-13.4683
27.5705
4.91044
-0.614437
-57.8016
-0.610639
247.649
256.25
149.217
168.967
133.194
2.58939
-142.423
-146.634
-130.157
-157.181
-268.172
-212.793
10.4993
162.654
129.395
95.4968
141.777
129.635
52.1308
-88.9882
-397.486
-464.039
-282.867
88.8142
433.015
460.635
283.639
130.314
95.1195
84.3049
129.387
51.5203
-235.475
-600.281
-620.932
-263.083
88.3702
211.542
507.408
702.176
438.56
334.56
165.366
-132.554
-375.502
-392.813
-333.733
-273.368
-253.124
-181.332
-52.0962
-0.744356
48.7564
226.683
238.812
-22.063
-168.089
-173.146
-300.355
-265.515
41.6121
88.0228
-35.7181
-60.842
6.85663
86.927
232.876
311.667
360.598
161.836
-50.9488
-69.034
-112.453
-52.3282
128.9
281.942
279.27
190.972
-2.08606
-146.19
-295.944
-406.031
-363.656
17.2017
533.111
654.641
154.28
-39.0027
-154.622
-186.075
-82.6495
-24.7427
-28.8223
-39.8576
-102.262
-99.8183
-190.154
-240.564
-136.148
-89.2292
-39.5249
-52.688
-13.2506
-47.8808
-352.531
-571.111
-280.676
-174.074
-116.487
309.336
573.39
638.357
613.566
392.931
188.219
42.9466
-34.5529
-136.263
-118.661
-98.6725
56.1104
293.434
315.003
62.0709
-120.358
-60.2976
7.95126
-4.9434
34.4572
-119.139
-218.123
-317.272
-543.446
-480.53
-194.029
-23.7479
243.454
246.622
130.918
198.823
137.567
95.9607
58.6672
-67.7629
-130.771
-51.849
42.7494
139.827
134.13
51.0317
-92.7435
-331.595
-243.778
-83.899
-95.7552
-109.882
66.8219
212.367
94.0338
-40.3001
10.7436
206.645
255.798
369.411
363.008
170.194
26.826
-93.2854
-147.7
-237.497
-347.725
-363.25
-182.11
1.70734
289.172
411.284
-73.3985
-237.268
-77.4503
83.4461
104.349
-58.3535
-86.9851
-82.6679
-136.006
-194.617
-180.275
20.5409
106.059
-20.8911
-66.1294
26.7515
104.641
198.896
46.1927
-42.7116
220.558
155.619
-40.8858
-18.4273
57.9293
22.8326
-23.2731
-129.122
-134.785
-16.746
105.389
100.132
114.048
197.603
87.8918
12.1952
60.6517
101.347
49.8303
-166.728
-310.364
-169.705
-44.1613
-66.946
-58.4293
-9.57361
46.7929
3.0172
-98.9563
-150.754
-184.908
-213.194
-47.6406
229.911
361.353
254.726
100.449
41.6969
71.0307
304.88
29.773
-484.031
-310.955
84.8461
195.107
84.608
-75.2473
-122.675
-54.6025
133.765
110.036
-140.876
-210.25
-265.239
-166.127
-60.4653
-8.50749
2.44273
118.813
183.171
240.28
270.85
60.9811
-353.241
-483.375
-96.1066
382.933
517.795
284.401
29.6092
-8.27911
97.9972
68.0034
-83.5277
-200.749
-140.273
-102.296
-80.9979
54.0812
-11.8171
17.0877
242.471
191.323
71.6952
76.2752
-54.8864
-243.628
-356.749
-313.368
-211.718
-84.0269
51.3675
-64.896
3.05149
205.108
190.084
125.586
139.817
24.0803
-233.068
-252.762
-217.787
-190.601
105.833
244.883
264.643
143.093
98.1788
127.609
98.3432
59.5286
18.6394
118.151
135.504
-153.225
-391.419
-351.773
-195.296
131.18
293.849
103.147
167.465
171.634
77.6101
-15.5066
-121.849
-112.828
-97.8517
-82.4732
-3.58193
40.7297
23.7074
-28.4563
-138.086
-41.2973
38.5895
18.6147
-106.693
-321.787
-351.69
7.95021
329.497
381.029
187.085
93.5283
-35.7541
-182.806
-86.0607
141.489
198.208
171.833
39.6686
-22.893
-53.9747
-43.9753
29.5855
-44.902
-160.022
-141.959
-72.8358
-93.4683
16.7523
142.543
17.4447
-10.6655
-36.8104
-47.4454
-80.9312
-307.07
-464.016
-254.684
97.3714
420.839
514.231
310.065
315.739
281.005
157.796
-72.874
-170.192
-106.331
-134.563
-166.031
-92.0798
-49.9668
37.1071
44.5371
4.50571
-29.6775
23.889
-67.7851
-239.281
-117.376
128.645
123.256
27.351
-20.1723
-87.0172
-120.164
-161.185
-116.886
-94.1074
-130.066
-65.1027
62.2948
269.643
410.782
228.911
3.28842
38.5803
87.4294
81.7748
-158.116
-339.28
-68.9173
153.385
85.22
-29.8748
-7.92614
41.8944
62.6693
36.9199
-28.348
-228.226
-323.637
-294.116
34.8534
477.92
682.816
414.302
164.585
4.12717
-148.637
-222.392
-249.059
-278.641
-195.347
-115.029
-108.646
-73.473
-109.626
-45.5017
115.317
156.538
173.097
164.25
-3.53538
-201.284
-120.897
154.387
91.0609
-28.8233
-161.442
-460.87
-659.842
-271.546
82.1799
300.922
411.858
289.527
191.605
83.1184
87.4897
256.755
280.67
145.178
6.23777
-88.1549
-192.956
-277.877
-235.068
-131.605
134.214
644.493
776.282
237.01
-41.8611
-206.941
-326.593
-320.001
-223.684
-155.597
-101.523
-15.5732
-24.92
-2.45635
-29.7683
-82.7
-148.782
-197.861
-248.776
-193.445
-159.53
-87.1958
-72.5352
19.9307
171.915
125.49
53.1597
336.302
339.696
161.486
16.1239
0.525998
79.6809
21.2323
10.1495
-1.45403
-9.43526
25.5112
71.0382
121.663
115.815
-41.043
-30.5644
35.9435
-12.749
-16.9278
45.3294
-135.971
-199.444
-165.153
-97.7243
-15.0152
-35.7723
-52.7662
52.6336
116.581
91.6366
-23.5019
-32.9352
-162.097
-300.192
6.13699
170.465
30.3761
-18.758
81.7793
111.858
53.145
62.699
52.1344
8.00471
-37.8165
-34.2502
-94.0434
-68.2085
-21.4636
75.6732
224.12
60.9234
63.1496
69.4454
-103.832
-116.514
99.2829
20.0744
-40.2883
-63.6938
-87.5409
-42.629
-32.828
-72.8823
-85.0316
4.5216
65.5686
-5.21608
8.11712
-15.5988
-17.3917
65.1018
107.425
186.354
3.17516
-260.571
-370.604
-329.78
-95.859
249.755
390.794
216.53
154.316
118.808
129.201
122.561
157.582
81.0025
-97.1206
-221.032
-334.631
-283.124
-240.191
-129.343
51.1705
268.082
296.798
188.68
28.1511
-172.965
-226.295
-65.0677
47.3691
16.2388
-45.7249
-25.0976
0.544452
7.60054
6.78085
31.8306
131.906
200.274
239.852
153.59
-41.0986
-213.213
-287.748
-157.406
-42.1411
-129.891
-190.195
-15.3084
79.4057
89.0528
45.8582
10.0397
-90.2808
-147.864
-118.783
-20.2511
158.025
484.044
501.264
312.537
110.044
-9.35836
-39.4193
-47.516
-90.4324
-52.4367
-38.9762
-188.127
-274.208
-234.202
-204.882
-200.015
-187.131
-52.0856
115.656
171.494
92.667
-117.849
-162.388
-56.8805
-41.7421
28.9187
94.7352
76.1079
127.063
109.437
35.2435
-52.3467
63.8217
265.526
195.18
161.199
185.596
159.863
126.008
12.3236
-98.1451
-83.3265
-153.138
-136.152
-32.3579
-35.7396
-42.5572
-165.406
-300.258
-250.207
-117.289
148.346
260.035
92.0235
-65.4061
-190.569
-122.301
-42.6804
7.36824
209.331
222.258
49.6509
-31.1153
-118
-63.7492
-24.4797
-21.0432
27.964
23.3051
20.6698
51.2987
-83.426
-164.659
-77.94
151.038
280.457
107.996
40.8389
100.691
-152.101
-235.956
-40.9688
137.557
162.983
88.4225
47.504
22.0719
31.8676
-16.7501
-71.8644
-67.8435
-99.3802
-129.029
-91.691
-35.8337
14.4784
43.1786
-149.4
-311.678
89.695
320.599
145.975
59.803
116.669
134.405
46.2316
-2.96208
-11.8414
37.5633
9.48439
-9.97639
-45.4918
-137.455
-110.91
-47.1893
-31.0109
54.6699
165.141
94.2992
-171.23
-283.085
-200.864
-192.026
-178.58
-63.1888
-22.5617
-3.40859
39.958
61.816
142.236
207.696
238.131
222.029
31.4821
-130.297
-50.1913
202.657
442.638
396.347
129.384
-105.173
-174.935
-159.923
-167.79
-205.763
-166.173
-100.803
-62.5389
13.6046
-22.2366
-81.2643
-114.612
-122.868
-82.5798
9.54305
45.6029
37.0024
-36.7731
-84.2611
8.03201
90.637
103.141
202.185
190.275
31.1021
57.0391
22.8506
-16.0508
-36.8552
-53.0896
-36.3622
-8.33192
32.7794
48.6281
-39.5232
-173.945
-338.203
-322.132
-38.0249
162.425
259.274
392.601
206.564
-22.0571
-87.371
-41.6568
103.062
97.9242
-28.8199
-104.384
-69.3911
-23.7664
-16.2858
0.470186
23.8897
56.5027
86.0566
73.2943
32.3561
32.6696
-104.946
-243.439
-265.809
-145.282
10.1587
-37.9893
-134.044
-57.0625
-6.06344
62.3465
38.3116
166.438
312.377
119.061
141.237
165.509
99.9765
41.3791
-4.65177
-160.462
-254.418
-280.565
-95.2823
174.122
217.476
67.4179
-60.5655
-140.069
-152.628
-174.87
-167.148
-175.906
-188.388
2.62973
267.714
521.093
405.489
217.971
80.6042
-18.9167
-47.174
-105.344
-154.743
-212.128
-172.525
-60.5542
-52.2572
-121.988
-110.007
-55.5317
127.278
193.794
129.091
186.577
116.19
-172.187
-319.236
-290.042
-150.955
-154.015
-0.90796
481.121
614.283
279.044
77.5609
31.6228
9.89705
-38.0881
-119.396
-110.26
-99.6937
-174.811
-181.842
-63.3949
-121.394
-132.208
64.8835
145.118
128.304
197.038
80.0204
-222.572
-288.34
-116.473
-23.9013
45.4703
64.6221
77.3265
33.848
-22.403
-65.3345
46.7865
175.602
101.181
-73.6175
-202.343
-162.377
-28.2765
14.3964
148.668
201.387
172.908
54.8824
-2.34672
14.6504
3.05622
-73.4779
-26.3177
83.1863
140.771
129.429
29.1741
-166.877
-205.906
-161.719
-81.6506
4.00614
14.4981
81.0789
130.322
92.7691
-122.636
-121.2
-10.4832
-44.5053
-108.703
-90.0512
-28.0012
14.5056
141.707
250.069
64.4448
-82.9338
-151.636
-169.707
-62.5141
60.7232
73.0628
69.0814
-7.98471
-29.1065
40.9074
-18.3178
-58.3888
-50.7406
82.5845
268.521
123.832
-102.284
-258.132
-209.107
-27.3981
93.6489
95.0939
278.133
409.896
238.611
26.7416
-64.7361
-72.6621
-69.2171
-49.3244
4.7094
-101.109
-114.435
-90.8588
-240.389
-302.104
-186.376
-62.6522
-65.5531
-76.6535
-68.6641
-4.23941
130.872
130.029
84.566
113.918
64.8982
-53.8709
-47.6572
-30.5979
-187.161
47.017
618.624
549.561
171.271
19.0167
-15.3179
-55.8276
-128.093
-109.421
-74.1457
-68.9713
-206.295
-281.414
-147.388
-84.571
-57.6372
55.3201
-13.6152
-160.579
17.7886
165.741
66.7315
142.995
202.768
236.343
156.101
45.2952
-17.4809
-68.963
-68.6165
-61.2646
-162.885
-193.996
-109.417
-4.52162
130.966
109.875
58.3674
78.2293
41.5418
-173.779
-434.297
-322.891
-167.977
-100.652
14.7918
176.617
213.722
157.631
119.652
122.372
125.106
47.6407
29.1044
57.3125
62.988
58.4742
33.0481
72.4548
212.958
119.361
-23.4677
-188.562
-229.504
-125.63
56.6805
81.5668
91.438
96.2353
-75.0707
-148.418
-213.745
-109.68
17.3399
-59.0945
-36.3318
-9.83474
45.3466
66.0255
17.8488
67.9091
80.0538
-67.5307
-168.784
-185.677
-129.831
-45.7814
-52.8898
-19.9136
83.8753
171.579
207.617
114.891
14.9354
29.863
6.69044
2.02025
14.8553
-29.3084
-116.509
-55.2735
25.5581
146.02
233.481
187.82
18.8241
-107.709
-117.333
-100.785
-28.8261
-28.0368
-43.5137
-55.4754
25.843
99.3935
61.0496
-12.414
85.4956
77.4402
-5.56949
-168.471
-203.292
-158.029
-88.7534
-37.2462
-70.5406
-135.344
-44.2609
223.017
308.38
171.012
75.4882
6.67426
-12.4061
-14.3156
5.1197
37.3668
-49.998
-86.3143
-149.363
-114.028
-51.9855
13.8268
113.883
143.048
48.5917
2.2559
-4.27572
-105.484
-160.441
-89.1703
-50.1276
-9.93771
138.908
241.958
205.698
110.71
-46.9624
-152.922
-134.205
-107.714
-11.5693
92.3286
70.8439
25.4052
-1.52955
-3.06351
-46.3778
-129.104
-139.541
-44.48
-9.55883
-25.6112
75.9576
234.231
163.788
99.2259
47.4631
1.23837
13.6469
15.0128
-42.8171
-97.0887
-114.748
-92.236
-148.979
-228.341
-96.2269
139.091
184.907
259.393
267.776
83.2221
-229.579
-283.104
-173.904
-92.3992
1.46765
69.2026
96.8828
67.7273
22.5126
15.0402
60.0042
64.7321
19.7884
18.6686
-46.4438
-164.377
-135.644
-75.1726
-81.4876
-38.7634
62.2199
20.7263
21.7512
79.6511
132.958
168.288
135.881
47.0759
27.0808
-6.55164
-74.9372
-20.4511
61.8504
164.971
223.259
96.5351
-31.4637
-107.506
-112.686
-71.4716
-119.249
-143.4
-106.904
-123.005
-62.8253
-21.2778
-28.8462
-26.7335
-24.5486
19.4489
21.5161
-60.0213
-48.6335
-38.3845
-82.8886
-57.2843
19.0182
2.80764
34.0482
75.3522
64.1141
46.0993
111.066
166.858
104.85
33.6259
20.0606
-27.9011
-139.582
-54.5259
49.7009
-93.2143
-43.1285
95.1881
124.477
151.775
115.158
50.2957
41.9442
-18.5938
1.65042
33.301
-47.5228
-78.0422
-94.7897
-104.011
-63.703
-67.645
-50.5392
-57.6618
-126.488
-9.79678
263.123
212.595
-12.7155
-35.7766
-68.6658
-113.745
-109.378
-39.6779
-34.1884
-61.6602
-75.2709
-42.1264
51.5699
79.026
60.1556
79.8145
105.347
5.86439
-48.9921
-86.5619
-178.009
-83.3232
26.5241
-33.4619
42.6271
140.733
114.141
67.4526
37.6365
6.82639
42.5707
66.9811
52.3561
25.2459
30.4194
27.8366
-14.3763
-46.8593
25.7264
80.0632
5.36927
-139.288
-102.494
-44.4282
-114.292
-59.145
102.348
132.63
47.2283
8.89927
89.8233
151.074
-14.1966
-146.117
-151.027
-53.684
24.2808
40.0365
12.1258
-31.063
-113.36
-186.225
-195.225
-90.8583
25.3914
45.1328
-18.669
-43.0244
26.3614
68.1701
-2.66984
51.3325
212.607
211.569
106.61
-43.7836
-83.1738
-67.5215
-54.7981
-54.0984
-4.59308
71.9732
97.565
69.7272
65.4626
33.3464
-57.2194
-89.962
6.6967
150.643
111.637
17.544
17.2664
89.7043
75.2118
56.6835
2.35265
-6.69745
31.7297
-1.75253
-108.355
-175.637
-216.291
-174.741
-158.146
-202.005
-121.647
-30.2301
-82.7928
-124.856
-81.5704
-32.0135
41.4103
162.997
167.765
156.36
143.779
143.355
57.0451
16.6151
19.0472
19.5926
75.0499
103.388
126.499
151.675
99.2987
-15.5292
-186.038
-172.647
-46.2526
-41.7105
-84.8682
-63.3768
32.9267
65.7474
40.5976
-10.5142
-61.7736
-97.9943
-59.0933
37.655
63.6926
48.6641
19.9009
-0.868412
-17.4759
8.19676
142.679
165.169
26.9164
1.3009
-45.9016
-118.236
-70.5967
-68.926
-86.9233
-76.261
-3.36639
31.2723
1.25721
-83.7829
-198.522
-287.275
-220.727
-19.3303
147.932
191.389
181.17
67.0025
69.3021
110.291
126.367
87.9969
16.7658
23.5074
33.3652
43.5299
34.0495
28.8396
-8.65321
-59.6168
-74.3397
7.4899
87.8583
79.7089
30.2742
-8.06452
-72.6458
-57.197
-82.1874
-79.7611
-61.9467
-39.4647
-76.1953
-57.1639
-31.065
-8.09865
82.4829
95.0528
17.4426
-71.3298
9.25147
115.815
72.8484
-78.1713
-94.2824
-55.5042
-102.902
-101.707
34.7534
194.558
214.674
98.7973
48.9981
36.8332
5.95437
-33.218
-69.6337
-80.286
-98.6921
-92.615
-63.3571
-87.6943
-118.425
-80.9719
15.0665
127.81
264.886
282.536
93.1695
-101.329
-166.29
-131.487
-92.6326
-68.2547
-50.3263
-10.3527
23.2385
0.654604
28.7644
59.3873
-18.3068
-0.509595
159.822
71.5423
-13.9919
18.0095
105.664
121.885
72.8989
-4.10764
13.4593
54.9819
38.9193
-27.3205
-107.343
-141.089
-131.158
-77.1644
-30.1742
-2.054
-16.0375
-68.469
-114.845
8.3194
36.6449
36.5519
-33.253
-98.967
-26.2862
57.5922
22.5387
-19.3082
-25.973
-37.7662
-7.64041
57.7443
136.479
71.28
73.0461
93.448
78.5096
30.5152
-29.4216
-54.9971
-46.7174
-88.702
-50.6008
65.7654
84.3548
41.6859
-0.272684
-103.606
-95.989
39.6573
125.145
134.049
108.982
126.278
70.6525
-39.8648
-64.0631
-42.1335
-8.00402
0.004334
-73.845
-263.266
-389.138
-264.868
-78.3318
80.8356
154.239
236.718
159.139
50.5203
-64.0921
-114.486
-90.9918
-67.8802
-74.2978
-67.2834
37.1993
71.8382
63.2065
71.7639
140.634
275.286
267.519
93.7601
-33.6014
-108.122
-123.34
-194.396
-263.975
-209.265
25.3245
158.348
157.911
139.283
98.8238
110.813
27.0039
-56.8945
-62.6089
-59.6089
-57.1521
-0.977691
20.4174
12.1632
26.1226
61.822
89.4965
42.242
-14.9338
-31.9641
-70.9426
-110.268
-139.243
-126.614
-81.9852
-64.6654
-34.159
6.88421
36.9446
20.9325
21.7645
-1.35314
-46.9358
4.50164
2.36385
-12.2746
-7.88181
51.6149
164.194
240.107
200.799
69.215
-80.2959
-191.802
-211.552
-223.542
-128.925
59.6732
158.276
170.031
192.933
164.735
71.0294
-57.0189
10.1586
22.4045
-58.5904
-66.5169
-86.1432
-105.228
-95.863
-67.4032
27.1913
127.777
129.426
49.2699
-44.0821
-92.7547
-117.742
-115.492
-97.5555
-49.0346
-13.7052
15.7701
18.306
-0.49215
16.0216
36.2686
65.7383
68.8816
-106.893
-126.865
50.7571
119.958
66.9017
140.201
172.728
119.916
96.5664
40.2642
-21.1299
-78.8677
-95.0463
-137.466
-156.978
-113.098
-76.1987
-39.0703
60.7376
109.861
117.202
54.5004
-47.2619
-71.9512
23.6953
41.3861
6.49631
-39.2516
-63.7457
-96.4996
-112.254
-74.6812
-7.29497
88.153
102.661
78.7952
40.9496
-1.63404
-18.5048
58.8826
275.215
341.919
73.2342
-171.734
-177.913
-144.365
-172.858
-183.257
-111.749
-41.4971
-29.1146
-5.86999
29.0674
69.5089
57.5965
30.0113
95.5903
175.861
70.8641
-39.6796
-125.457
-239.73
-91.1764
67.1199
27.2608
14.6107
7.84334
17.7334
28.2782
45.004
62.0634
43.551
61.7765
41.5986
17.1632
5.12198
-16.7777
-3.79769
58.4628
10.296
-101.979
-59.7453
-1.75224
47.5294
22.9935
-21.6251
-21.9917
-26.2002
-10.4918
19.1653
6.26307
-19.5514
-90.538
-113.717
-69.1448
20.0155
142.956
188.105
107.706
11.5138
20.0284
30.4746
-14.3693
-46.7306
-34.2515
-65.2106
-81.9155
-32.0035
-47.5957
-116.039
-95.2034
-64.3368
-40.3097
37.726
141.749
106.956
44.0072
-5.43787
-28.8017
-7.74766
-30.9636
-45.9485
-31.1825
-66.5225
-89.0164
33.2252
171.382
167.334
105.939
62.4354
19.1626
9.54661
15.411
45.6367
77.3856
108.104
45.2758
-69.1831
-193.357
-233.182
-208.465
-75.3733
46.2249
96.688
86.081
55.2126
-81.4768
-173.18
-155.81
-6.73876
74.7618
68.181
58.5028
42.1643
67.9085
105.698
78.9282
32.2557
66.3682
55.9912
85.4165
-4.20388
-67.1931
-130.128
-178.311
-89.8164
-35.9596
-30.2473
36.4137
52.7229
68.3911
86.1968
64.4165
39.1179
15.939
-34.7848
-20.4844
-24.117
-45.8717
-122.052
-150.296
-57.8559
-11.0971
80.0537
166.716
72.2576
-24.7338
-34.6288
-35.3854
-30.4963
-6.34559
30.8496
-1.69857
-63.8334
-3.20963
6.49794
10.3131
74.4466
102.328
153.265
121.171
40.4243
2.88097
-7.02868
-52.7558
-75.9648
-65.959
-61.8332
-54.9664
-46.3427
-77.562
-77.2077
-59.2623
-82.3896
-115.064
-73.3465
74.047
115.646
138.135
131.639
128.117
180.417
156.454
66.2532
-1.94362
-62.072
-133.212
-103.53
-92.0176
-114.754
-96.7892
-40.6748
51.4962
96.9534
25.2084
-24.7836
-92.044
-88.2676
-71.7605
-59.3799
-53.1624
-87.5285
-45.4013
101.114
71.4619
-74.719
-85.1293
59.3417
136.018
141.459
178.138
117.697
75.457
-12.211
-2.13647
2.94124
54.8379
119.342
111.91
64.0422
-8.55206
-30.4569
-41.0055
-127.383
-164.998
-113.606
-45.4359
-34.621
-21.6703
-47.9796
-115.52
-84.4844
-27.3722
17.7096
-39.4677
37.668
131.435
-7.26255
-116.311
-27.8939
110.865
65.4978
3.64284
-6.44522
-48.189
31.6774
141.579
129.578
18.9808
-6.01651
-7.55374
66.9818
64.3753
-43.1237
-30.6496
-101.363
-160.214
-90.2779
-22.306
-16.8023
-59.5048
26.5215
39.3163
36.6404
151.756
171.148
58.0621
-65.613
-134.19
-76.6432
-40.154
-22.0754
33.4335
155.807
190.43
124.425
-14.5657
-9.85174
29.665
-86.918
-184.499
-200.699
-153.591
-92.14
-50.2742
9.94058
-39.6378
-101.475
20.423
199.905
348.617
258.193
-53.1411
-192.007
-140.482
-19.8343
43.8983
22.9471
-7.51178
22.9946
95.2313
108.254
72.7115
56.9389
16.3146
-94.9294
-70.1228
-14.6752
-38.6672
-110.567
-160.826
-121.183
-49.2483
-17.7725
-3.48505
-11.9312
32.2368
55.5288
60.7285
85.0342
90.5574
-16.1749
-37.2748
32.1522
60.9389
71.7924
47.3869
-36.0914
-100.308
-137.834
-145.858
-7.55663
128.229
136.961
110.119
178.72
226.612
134.842
26.2913
-114.887
-174.429
-179.629
-171.55
-96.7408
-12.5154
-12.125
-115.58
-135.331
-41.3632
146.533
206.931
177.817
177.594
75.0693
-53.1681
-188.547
-243.644
-126.442
-8.61085
15.0198
43.7846
95.909
89.3742
29.6121
-56.3385
-78.7491
-42.0868
-8.82666
-23.8552
-50.1991
-36.1738
-73.2256
-88.0864
-41.3747
-3.32338
13.8499
73.3751
89.3097
138.405
172.894
142.769
90.7964
90.4244
60.7331
-2.768
-18.0197
45.4357
41.5913
24.3944
-20.6872
-72.6393
-101.091
-140.891
-124.37
16.7961
108.53
40.5722
-12.3719
-84.6683
-81.4864
-57.0764
-151.859
-252.608
-121.885
74.2733
214.704
284.708
194.224
26.285
-90.7025
-112.698
-86.362
-52.5104
0.138182
-23.6847
-52.5932
-24.6105
4.68458
5.32637
-3.27961
-15.7109
43.7958
94.1372
18.6348
-73.9163
-132.893
-100.889
-0.334611
58.1307
122.168
114.063
34.8084
1.16343
-38.2539
-11.694
97.2763
207.76
167.715
86.4332
56.1807
30.8823
13.1682
23.1878
-5.84637
-61.0229
-124.28
-184.963
-193.131
-148.889
-170.122
-195.413
-132.702
57.785
219.898
205.224
150.59
65.9246
42.7737
15.9287
-39.6347
-72.1988
-95.0073
-51.9869
8.103
-8.3163
-23.9047
-22.9907
6.26485
30.545
48.9949
26.1603
37.5094
-8.52739
-68.5264
-66.4868
-35.697
20.8503
15.0329
13.7711
66.2204
118.824
94.6381
44.5547
-19.1989
-2.25174
8.52715
15.1704
61.6534
91.0805
64.7364
-22.3066
-107.581
-210.895
-216.877
-77.591
42.555
0.10798
3.99026
28.7485
-33.8454
-31.9113
9.16855
68.0489
117.463
62.7088
-7.81359
-70.4115
-65.2234
-27.6991
3.175
57.1094
175.614
182.086
45.0777
-79.7248
-129.233
-57.6226
93.7254
183.236
61.8543
-87.6893
-53.4426
27.7537
-11.4567
-37.0756
-55.1954
-68.5451
-114.183
-139.229
-136.43
-81.4523
-116.808
-106.063
-38.8476
28.9117
61.8629
22.906
35.0096
137.508
149.237
138.777
136.872
82.5969
6.00799
-25.1835
-47.68
1.8522
-0.954643
-9.07136
10.8442
14.58
21.0158
69.4036
82.4163
50.6509
9.25692
-17.444
-116.786
-222.308
-103.204
14.2857
17.081
-49.4079
-20.2577
51.3588
14.973
-52.7132
-70.3399
18.1441
122.652
123.372
97.1992
108.596
105.721
0.256749
-40.573
-47.9344
-33.2028
-59.3074
-79.631
-46.9873
-9.4466
-80.3822
-84.6106
-69.5928
-51.0847
-30.1142
-32.9544
-35.5487
-5.53135
-5.24738
-17.9977
-69.2459
-92.2597
-29.48
120.477
228.536
240.645
173.198
85.8318
-1.88741
-80.3086
-53.1918
-10.2404
-12.5105
-4.73161
-0.583417
8.97281
-2.2947
3.41353
69.7074
31.0859
14.4219
0.0849677
-30.7455
-126.821
-180.169
-157.818
-66.3777
63.4692
144.972
64.808
8.09241
-60.4684
-55.3381
-9.94326
81.556
144.279
30.093
-70.8793
-46.7705
-10.7379
24.4968
42.8805
15.8627
-8.82962
-32.8275
-21.9698
-9.65705
-38.7033
-62.1058
-33.2097
-14.2403
32.2016
65.2398
22.3207
3.2204
-29.8134
-33.8411
-28.5776
-42.4442
-11.4138
46.1133
63.5064
21.6389
44.0436
86.2705
66.4958
33.0343
10.9981
-20.9933
-6.11213
-4.27626
2.55606
27.648
2.56864
-57.735
-94.8731
-57.234
-34.6043
-31.2865
-30.9696
-14.4267
-1.01453
10.3495
31.0298
31.1031
40.8975
30.9268
-14.6713
-18.9665
14.4483
-0.26462
8.58345
23.4976
28.2335
-5.37928
-41.9828
-9.39959
10.9277
-6.04419
-23.072
-83.7458
-101.178
-56.7942
-32.2241
6.59114
80.2968
163.073
158.078
62.6729
33.3227
30.6595
-2.59811
-9.36348
-29.148
-25.2479
-84.9031
-103.336
-138.863
-99.1179
-28.8274
60.1591
74.811
57.3159
41.9877
62.2314
21.9637
-27.6571
-18.1233
1.77304
68.0847
123.779
75.5669
-50.931
-119.245
-166.46
-125.934
-42.3514
28.3301
102.147
79.6045
47.599
36.2418
-8.28603
-44.2813
-63.7976
-47.7148
-85.2043
-53.1804
-23.6574
36.1484
113.824
197.655
217.479
46.3322
-55.5761
-32.0253
-12.8522
51.8977
-22.552
-73.9708
-79.4263
-75.4447
-68.9771
9.4282
56.3863
83.816
25.5633
-1.49376
-15.1577
-91.6568
-157.953
-180.958
-145.996
-5.55475
57.7639
32.0483
8.2429
44.507
41.6186
21.6952
79.8342
122.108
115.967
86.0463
8.00952
-23.7918
15.6809
1.97798
14.845
-4.58635
-61.4735
-69.0815
-37.1665
-9.23592
11.8973
18.9084
42.8364
-26.6763
-19.9702
15.1604
8.90447
11.2969
2.84928
-32.7367
-9.63973
3.78714
24.5583
32.3483
-7.65801
-28.7895
-39.9017
-54.7584
17.4066
60.3716
61.8953
31.9182
-32.9611
-94.7238
-81.2107
-25.1143
-14.9708
-5.68576
27.8513
36.8933
40.228
41.7
54.5555
23.9274
-51.8936
-79.9756
-36.31
27.3718
-14.0879
-57.4732
-30.3111
-16.3222
-10.1166
74.7546
121.226
3.6093
6.96957
31.8458
13.7067
3.848
-14.624
-21.2497
-26.7606
24.5105
47.2795
49.2038
16.2625
-2.93158
17.5431
21.2564
-27.5181
-11.754
-43.804
-91.5167
-78.2127
-7.37569
5.94707
3.76975
10.9836
5.96677
-31.3844
-47.6222
-14.8804
-53.4103
-27.0637
44.4049
14.6611
-22.6378
71.5214
143.096
85.4355
12.4098
-22.3021
-41.42
-32.3307
-12.9638
3.13047
13.5383
-6.73651
-24.8941
-61.5033
-79.7996
-11.407
70.5479
120.732
146.421
40.3124
-15.8722
-57.2873
-76.0977
-61.8076
-52.855
-24.7546
-23.0067
-19.1059
6.58492
-11.9631
-23.5337
-27.8211
-7.89709
105.375
163.463
78.6061
19.1323
-38.6968
-120.102
-83.8243
-46.7147
-43.6293
83.8967
123.962
14.1192
16.1041
8.98485
-38.9731
-40.6443
-79.6435
-103.645
-47.5139
31.1385
35.5976
40.7773
63.7991
69.0142
61.4814
61.7163
41.2257
36.3417
3.36191
-86.3946
-127.712
-82.6079
-92.3329
-67.7886
4.76326
100.653
110.595
43.0462
-61.55
-137.153
-23.4775
159.475
106.402
11.2947
-78.1518
-120.006
-58.7943
-20.4303
30.7438
53.5907
23.1368
56.1051
34.1269
12.6015
-2.46599
-54.6911
-34.8586
18.9438
49.3922
33.4157
-7.83063
2.04819
106.488
78.6435
11.8938
12.9973
6.70977
-65.5206
-117.93
-96.6545
-78.3376
-21.7069
-2.51229
-46.91
-88.7363
-70.6679
-3.32603
84.6113
118.156
221.855
168.868
-72.1892
-77.5055
-14.7623
21.6283
64.0218
116.877
76.752
-22.756
-133.497
-234.81
-195.111
-51.0187
2.98591
107.108
109.101
25.0033
-28.023
-44.5143
-114.379
-58.4663
104.342
97.1401
66.2549
25.1343
-30.997
-75.3442
-43.9193
27.3987
42.2595
103.973
75.4329
-18.5577
-51.3226
-55.5582
-64.569
-36.4692
-7.12811
-3.17313
46.5608
71.0707
-22.8579
-2.60173
38.5702
49.1301
17.8255
-35.4574
-3.447
39.2468
42.7318
30.9012
-2.13959
-43.2041
-19.0182
-39.3451
5.26215
48.5448
19.184
-27.5451
-116.182
-125.002
-72.553
-70.9064
3.60728
17.5886
42.6301
138.518
-6.23355
-38.3023
38.0789
52.6483
135.729
98.911
16.3693
25.0617
3.01928
-42.3408
-38.9474
-39.0283
-19.9948
-1.61937
1.19992
5.61948
-15.4298
-35.7458
-90.7849
-120.674
-27.2884
-1.90332
-6.16102
2.08779
-9.51731
8.19932
-5.41442
-32.325
-15.3862
-71.2226
-36.5494
148.075
196.197
158.673
86.4253
-37.7745
-184.375
-106.644
73.9513
75.9877
144.437
110.335
-11.3166
4.86676
-20.6453
-211.022
-193.916
-28.4176
68.9665
85.7407
38.9339
-99.7822
-94.2275
-44.3866
33.8515
212.319
146.63
29.0058
-52.4446
-43.9718
-84.4547
-76.8302
-41.152
-31.1561
-52.4769
23.8742
50.1102
-2.2855
-41.6216
4.88113
41.9504
34.1923
-36.6089
-9.9101
-2.28148
-24.89
87.4716
57.4862
-22.5681
-25.4257
-50.7441
-32.6568
72.2428
53.923
-16.3118
8.3302
20.2433
-13.151
-38.5849
8.48833
45.2896
32.5534
6.1196
-8.26438
-24.2983
-32.0913
-7.55421
60.6516
36.3843
-2.56308
-0.719306
-6.99452
-10.952
-43.2867
-61.152
-35.1377
2.40329
-6.99335
-5.34899
-13.5245
-8.80711
11.6487
14.3012
8.93225
7.49745
8.73742
7.54963
-18.0676
-1.8496
49.3857
65.6123
69.1786
65.0864
36.7423
-86.3505
-190.679
-189.514
-150.032
-21.6942
44.6331
76.7636
66.5406
65.125
38.2675
22.0925
22.1323
68.7635
90.7134
49.2223
-0.483821
21.6928
2.7543
-8.18896
-50.6659
1.50416
43.9289
33.4828
36.2618
-27.8272
-68.6228
-34.575
5.70843
10.7329
-50.6364
-21.4162
73.7038
77.0412
19.1266
-8.47465
-9.34808
-47.9502
-66.548
-83.2793
-124.839
-74.8333
3.41904
-12.1501
-16.3748
14.3867
18.3364
-27.6738
-60.4236
-100.379
14.2809
93.3311
92.5151
42.8943
46.9458
29.0751
-0.773578
-20.2949
23.2158
23.403
46.0196
48.3473
-9.86091
4.75669
14.6703
-13.5677
2.42232
46.8127
35.8959
17.8879
5.88127
-22.7077
-69.3816
-38.1221
-23.587
4.37394
33.7485
19.4828
-1.89629
6.78451
13.6167
87.976
27.1487
-0.201384
41.2142
11.0508
-39.8134
-64.3501
-44.1248
-37.5703
-40.3157
-38.2068
3.16884
14.9584
36.3316
18.3148
-7.86234
-54.1331
-70.4672
-67.72
-95.1025
-175.829
-110.702
11.0254
29.9256
40.4494
12.8955
3.5677
96.1866
198.875
136.313
90.737
39.8941
43.1068
40.0899
-4.81639
-12.7925
32.8901
17.1807
32.3198
54.3765
34.1291
21.5923
-62.1322
-102.796
-37.3189
5.03618
26.6564
-29.3003
-85.9473
-36.9005
-45.2568
-64.8951
-41.3551
-71.0179
-91.1713
-79.2201
-31.996
71.2327
91.3591
36.3271
25.1391
36.3868
29.8053
14.0296
-2.8582
-16.9029
-1.86959
41.4196
98.0133
-97.9501
-137.082
-72.2102
3.83213
108.714
105.429
67.0917
29.3634
-31.9173
-31.2949
34.4166
24.7682
25.7267
16.306
-0.423281
-4.68934
5.30241
-33.885
-78.6144
-143.958
8.36856
91.943
84.5811
59.7169
12.023
5.04304
23.0503
-10.6294
-16.1969
0.615343
4.24246
-15.9456
-61.2618
-87.3442
-57.4686
-14.5896
29.4954
60.782
50.083
-5.43289
25.3689
15.1559
6.68026
26.7184
20.1196
16.3604
-9.16025
-20.6439
-74.1945
-127.319
-96.593
14.9624
72.8443
30.4191
-27.3201
-46.4266
-50.3799
-43.4687
-53.7369
-37.4449
63.7376
134.727
125.495
61.6921
26.3393
62.5408
33.3755
3.00726
47.9074
67.7534
25.7109
-78.9079
-113.615
-89.7899
-90.6654
-47.626
81.0823
151.109
12.3466
-65.0217
-84.7185
-59.2148
-52.0696
6.51682
76.0479
31.1869
12.3315
-4.43228
-57.8659
-43.6998
11.7068
7.78367
-22.3328
16.3183
23.975
11.1921
-41.3471
-41.5417
86.5611
78.3312
26.582
37.8665
46.8099
53.9984
-2.9837
-46.1111
-31.3069
-5.63489
-7.84379
-2.37196
-75.4084
-154.689
-18.0226
43.4182
48.1466
48.7478
-6.02948
-36.1941
11.0098
51.1701
59.2014
37.4841
13.3029
-60.9296
-45.8261
-6.9536
50.2046
77.9253
-2.90578
-9.77169
3.64755
9.19086
-27.7558
-56.2396
-59.7584
-76.173
-43.2027
-5.16881
-25.6403
-39.4072
-58.0152
-38.8832
0.568319
143.419
98.5844
-33.1526
-32.0681
27.5231
59.307
32.6056
48.4
42.1371
-2.43481
-43.5746
-49.2863
9.33735
62.1216
14.1335
-14.803
3.51036
8.80928
23.765
-9.89446
-35.3982
17.3803
46.1117
5.98241
-42.4747
-35.1849
-35.0693
-22.3431
16.9057
30.3695
-3.01573
-6.72397
-15.7086
-41.398
-28.9154
28.0173
11.1647
-48.102
-7.39817
27.1937
12.0848
34.9453
38.9216
14.2394
-17.4898
-32.1966
-12.3605
51.3325
12.4482
-59.7441
-42.9783
1.29371
7.2214
-6.2614
-9.70188
3.662
2.88789
-7.23856
-21.2185
-31.7572
-1.47777
91.665
122.931
41.4588
12.1015
-11.8911
-24.2573
-48.3842
-58.8941
-60.0394
-76.4127
-38.3829
2.83682
12.631
-8.90882
62.835
70.9296
8.68521
26.7362
99.3284
46.9276
-45.8213
-105.378
-109.662
-72.6853
102.683
133.883
90.5221
85.1572
62.1819
-27.2159
-83.3061
-58.4699
-56.0518
-38.1536
-46.7383
-72.0561
-23.0855
28.3845
-6.80687
11.9732
-4.74739
5.8061
27.3018
21.0622
-54.8044
-55.8594
-24.4802
-35.2266
-14.1851
-5.70938
-11.6572
29.7201
51.7394
69.787
41.9581
77.2787
88.9551
2.61911
-48.9007
-35.2663
-18.0288
14.5169
16.7044
42.4439
-13.6265
2.67307
166.385
134.841
-3.95857
-94.5868
-164.796
-154.568
-61.6965
-27.7335
-14.4911
-4.29578
4.94607
41.5399
36.6058
36.7027
45.5548
-0.285771
-7.85306
-35.9405
-21.7804
35.2736
-57.6513
-120.823
-129.747
52.5982
163.553
43.2743
7.32068
-20.0095
1.95047
20.2652
3.85347
-0.363969
29.1283
27.5617
8.45958
13.9042
23.7862
16.9993
-7.9812
-41.0211
-43.5735
1.59859
62.5938
-6.54923
-33.0723
-16.2398
-44.9294
-60.1097
-31.3461
-6.65294
33.4813
71.355
96.6189
-14.5598
-70.6915
55.9326
90.8991
68.3597
-5.55597
-96.8061
-61.7321
-21.8577
-20.336
-40.2062
-31.9183
3.85425
45.8651
35.1583
6.89128
37.2039
-6.70915
-38.4701
-26.3739
9.46568
32.6467
10.5665
-6.07766
-31.8876
7.44347
1.89728
-29.1122
-85.4627
-42.577
13.4814
-0.337306
-21.3446
31.1754
72.0342
20.4271
4.26522
38.8425
30.4577
55.7728
95.717
53.8814
-48.4534
-110.033
-61.4226
67.6984
-12.1439
-87.2558
-20.7577
-13.3597
9.02013
17.8671
42.303
-6.37941
-25.5352
2.49495
-8.40368
-37.1057
11.7916
-9.14242
-1.6939
34.8266
33.4469
26.2356
32.5027
-50.0511
17.8756
84.3828
25.0238
-36.3151
-93.2323
-78.4201
-60.2225
-37.9463
-18.0647
8.17889
48.4482
24.2034
-1.58866
12.4753
29.2933
35.2659
19.5151
10.5625
27.8398
-8.10584
10.1636
13.492
25.295
24.6097
-4.18241
-28.6669
-7.7518
-13.4111
-7.77496
-2.29399
-22.5726
-23.4653
-37.3249
-48.0132
3.26309
47.6726
65.5644
73.1045
40.812
7.3052
5.15021
8.3482
-21.1795
-58.3167
-103.482
-160.102
-66.8187
22.2514
39.9767
17.8536
-12.2876
-28.4985
-9.56287
43.2112
74.9589
90.1827
57.6739
3.97513
-24.5525
-35.1273
-14.0116
35.9725
75.6085
39.1115
53.4241
56.8803
-21.1329
-46.3937
-54.26
-41.5435
14.5192
13.2755
-3.37673
-6.43583
-27.2055
-31.3683
-10.9572
-18.6845
2.78885
0.668975
-11.3467
-45.437
-52.5249
-20.3366
1.07876
-14.5473
-17.7509
-8.1767
-22.3669
-43.8397
-18.5321
25.1904
26.9411
40.5496
78.9349
87.578
84.9919
51.5448
7.36541
-7.83235
-40.3198
-72.1971
-17.8643
42.3928
24.0646
-5.66757
-38.6525
-31.4442
13.7237
53.4189
16.3061
-19.1771
9.97359
4.27434
-27.6235
-33.968
-12.8713
-6.59311
-22.7841
-39.6715
-18.8984
8.67071
-14.8775
-14.4969
24.8005
35.1283
7.30771
-12.3572
-23.5875
14.9795
42.5415
23.9784
-5.53901
9.33744
33.9651
42.8144
-12.0215
-21.6863
-51.1289
-70.2625
-41.5713
33.0126
5.89451
-46.4112
-48.8959
12.615
23.0576
33.0122
31.2086
24.7601
5.6795
5.50065
-8.20767
22.2663
-7.24482
-19.2433
9.10901
41.2629
111.926
106.501
31.8442
-31.5248
-0.0284146
-1.37571
-40.1547
-48.176
-26.7925
-58.0728
-45.3368
-16.8521
17.138
-20.1637
-126.077
-81.4037
5.115
34.0891
31.7109
-28.2739
-24.5579
48.5592
45.4377
29.8202
23.0108
10.9297
17.265
-13.6143
-14.1316
17.9818
12.5441
-10.2796
-15.3751
19.5525
66.5297
22.5359
-1.09716
18.8583
29.6456
32.5233
-2.21716
-14.9913
-13.9344
-33.9014
-63.943
-46.9005
-8.20501
-21.1266
-24.1532
25.5186
30.2372
-2.84216
-10.8058
-21.8384
11.6821
16.3628
-1.01202
13.7539
23.583
6.46451
-28.3774
-57.0635
-42.6147
8.19638
43.2692
40.8622
142.269
97.8988
-128.887
-181.033
-82.751
6.55078
-32.4219
18.2463
60.8911
92.6489
68.7587
47.1498
51.6904
34.5245
-31.4479
-14.5795
-3.16149
-11.6518
-5.09333
-71.3701
-132.421
-44.6728
98.6275
110.749
49.3657
3.68984
27.5642
5.33187
-18.5875
-11.8742
-1.51969
-13.9654
-33.4365
-32.4952
-12.1152
-18.3944
-27.2267
-39.4499
-7.14678
-8.38562
-65.2395
-86.382
-53.0484
-30.6855
-23.9622
-17.0703
100.004
119.993
67.5316
56.2001
23.6028
14.6528
12.9274
2.95942
32.1649
21.663
8.84133
14.7479
6.45224
-3.55239
-36.1349
-51.2556
6.96263
0.876367
7.81229
-9.76206
-58.8081
-64.8393
-47.01
-14.8033
5.5465
40.4128
48.2017
46.1021
23.3293
26.4011
25.0351
18.9304
-7.27929
-26.4347
19.2371
7.04072
-20.9866
-11.9617
9.78017
-3.9522
-29.0207
-25.5766
-37.4557
-15.2356
8.82275
9.67004
22.6831
21.5664
-0.498167
-11.4584
-26.4913
-0.641054
23.8606
13.069
-19.8356
-29.3168
-33.7824
-22.9027
-28.3789
1.59016
41.8823
34.7981
29.8339
12.502
8.34207
8.25039
1.00776
23.7148
28.7994
4.42331
-14.4361
-41.4061
-26.06
-4.53373
-28.3651
-2.30388
1.50033
-6.47973
-27.4288
-54.5982
-29.8166
43.8098
10.3762
-2.45024
28.7302
52.79
30.217
21.8743
15.2044
29.5234
42.7681
57.3197
42.7063
33.6167
-8.35652
-72.0884
-131.927
-100.329
-29.46
-16.645
-5.57048
70.6499
72.2534
43.0735
-17.3689
-47.3566
-23.7999
-21.3931
-15.9011
-32.214
6.01787
17.7469
19.1435
14.2652
-1.91593
-21.2909
0.254937
-15.9369
18.2006
25.6326
5.66046
-18.2522
-3.11119
0.406099
19.6545
84.7311
204.841
65.7811
-26.3583
4.27269
-73.2278
-141.494
-68.5187
-59.8859
-99.0691
-73.7425
5.01825
24.6497
6.83495
12.5905
18.1588
-25.765
-44.8654
-1.67864
61.6092
50.6488
-61.5729
-29.4752
48.8838
103.825
73.6428
35.469
21.8501
-13.1081
11.8288
15.3566
7.50117
11.2171
-4.68176
12.2172
16.2446
-19.7776
-12.3757
-4.26268
-6.8469
-19.6762
-13.9461
22.585
1.15774
-37.9955
-16.0502
1.18454
-11.9858
-11.0586
-28.5003
-38.9082
-39.5832
-37.4757
-8.82387
10.513
10.9725
6.96557
-38.9219
-19.6289
57.577
71.7526
29.4709
1.8409
-65.6892
-62.7215
25.0947
55.976
6.61186
-3.2924
12.1345
15.6376
-7.88467
-14.3562
4.13993
7.89429
9.72557
32.1388
60.8666
67.794
7.75478
-29.5475
-34.4934
-4.31479
15.4829
1.62903
-46.8791
-29.3706
-8.80443
9.27322
19.5485
1.7535
-14.0673
-11.1718
-11.4432
-23.5266
-51.498
-40.509
-15.3334
-24.5548
-10.9311
14.7681
37.054
75.8252
98.052
60.5354
13.641
-19.5732
3.3802
-45.5501
-77.7246
-43.8806
-2.96895
38.4508
26.6774
-20.8029
-4.02202
-12.4121
-16.5277
-11.6829
-32.8895
-24.9117
9.58374
26.8794
79.5905
31.1332
-76.1435
-37.2597
-2.76047
48.7199
31.1655
0.347688
-23.4714
-52.3398
-32.5033
-3.21374
26.5217
65.1158
40.5679
-0.297908
14.21
21.2814
26.8305
26.6694
-50.9938
-24.8186
44.5002
13.6996
11.8649
8.04199
-26.3838
-40.5077
-52.1875
-56.2081
-38.096
31.4696
36.8059
7.73647
10.5868
5.04083
-17.2134
-34.3499
-24.6658
-2.4059
-15.5558
-7.20274
12.6036
15.8857
15.2263
12.7224
10.716
-10.4684
-29.0806
-31.456
10.9049
31.3813
30.8991
28.5286
25.6628
9.39668
34.1216
14.912
23.8208
0.0512377
-34.2251
-26.5764
49.4714
67.0369
16.1836
-11.1327
-24.3324
-23.1272
-35.9809
-28.6074
-34.178
-60.014
-8.28765
-10.9524
-13.6504
-0.561128
12.4474
18.7884
-5.95511
7.36278
57.3629
13.0838
-57.8142
-85.1572
-41.055
34.3405
36.6358
3.75972
14.0431
1.75105
1.35467
13.833
-20.6469
-16.2542
0.874291
-8.00097
37.4988
87.4967
62.3674
35.6163
-3.09832
34.2311
53.3494
21.8578
-3.29718
-56.2155
-143.51
-105.889
-35.6062
-17.8908
-3.45287
3.08801
-19.6554
9.96676
46.4595
47.365
60.0814
59.7893
66.6579
35.6301
-78.604
-131.072
-94.7982
-57.2396
-10.8637
20.6886
71.3204
73.8289
-3.72844
-54.5185
10.0685
28.209
44.2896
42.9603
5.30461
2.10844
-0.0060255
-15.9675
16.2847
38.4512
72.5414
65.2266
10.5814
-20.1087
-40.2286
-29.811
-24.0821
-14.4058
-4.32953
-5.29416
-32.3623
-34.9228
-36.2859
-81.3824
-114.523
-41.1355
48.3589
33.2713
21.9703
8.10507
15.4589
20.1005
-1.93249
17.6892
31.0698
26.9983
19.5366
1.17413
-21.6437
-10.6981
-22.7341
6.4031
17.842
34.6124
42.1794
0.363594
-30.0712
-12.4083
-2.91053
21.7922
59.7617
36.7269
8.45967
-20.8188
-19.4379
-18.0386
-30.4928
-34.0326
-28.7071
-6.97847
-11.545
-37.2902
-29.4629
23.3586
66.7394
19.7903
-42.8396
-27.5142
50.4144
31.6843
2.58746
10.0294
17.5697
-0.757793
-3.33445
-9.12791
-3.5846
5.08536
-32.9118
-21.7838
-12.7442
5.87621
14.1614
-6.27226
-14.2665
27.4622
39.0503
32.7782
22.8811
19.1269
-5.80945
-22.0653
-6.09625
-3.96555
-16.9141
-1.45465
-21.9496
-33.9261
-25.341
-44.2023
-19.3714
3.79436
-0.0782382
17.5148
21.2594
0.727652
21.6685
31.2026
-8.50058
-18.8156
3.49568
39.5676
36.4946
0.715757
-18.6935
-28.2915
-35.4234
-46.6882
-6.53672
16.4375
17.458
4.51643
-13.6299
-20.8768
-30.787
-21.9315
25.2326
42.5655
78.6425
77.7876
49.3059
7.86829
-14.4038
6.09471
29.1512
26.8149
16.3616
-5.62712
-48.6791
-54.6071
-68.5532
-64.4244
-5.59798
24.7443
12.7707
-31.6262
-42.3147
-38.4994
-15.1265
47.7003
36.1759
2.54863
10.1941
-16.4353
-5.28971
40.9647
19.206
-0.0976611
-14.9169
-41.1936
-26.5694
12.1531
-5.77445
-9.59745
6.12778
6.12334
-1.09039
14.337
3.80218
3.58977
25.7734
18.0297
18.4669
15.2011
1.38843
-3.08715
-18.1835
21.9448
-34.4514
-50.8771
-33.4995
13.7565
41.9384
32.4826
8.11934
3.88001
45.9113
90.3817
115.707
40.7445
-55.9296
-73.3321
-114.738
-123.772
-40.3413
-28.4092
-18.8538
-29.2108
-27.3547
-21.227
24.3782
63.11
86.2401
61.7941
32.0476
34.6667
6.95094
-9.92067
-5.40841
-28.5565
-65.9929
-60.2489
-13.3572
47.5049
24.525
33.515
35.2141
41.4465
45.8473
36.0709
14.6433
-22.3837
-37.9972
-31.6244
-27.1622
-15.9394
-17.1706
-44.4649
-15.2313
4.19961
44.3891
-11.4223
-90.7991
-54.4092
13.1681
31.0793
17.8599
19.7453
11.0445
19.451
-2.22287
1.55248
13.0573
-11.9137
13.9653
-1.48643
-51.6032
-29.7744
-17.4421
-24.2396
-4.70415
54.9158
101.16
74.3909
15.6003
-12.7998
-16.6606
-24.2459
-2.65894
3.51612
-9.1766
-23.7817
15.2957
48.3144
29.0743
13.5013
17.487
-11.6886
-59.4519
-69.6333
-56.8824
-47.977
-14.8454
-2.60011
1.57805
9.9688
39.3829
63.5182
55.1829
43.2484
21.9347
-29.806
-61.6157
-71.9581
-86.3428
-20.9696
30.7704
13.6831
32.6094
31.6779
-6.28333
-2.7429
-14.1587
-19.9473
-20.5757
15.1566
76.0418
71.7188
33.4797
52.3102
58.4946
61.0053
-3.36481
-32.412
-42.5145
-38.3371
-10.0375
-7.48457
-27.1693
-55.3793
-86.2676
-45.308
-14.2218
-24.1669
3.10039
11.8312
-47.846
-29.6691
2.80982
22.441
33.019
7.35848
36.7527
72.1477
57.3408
36.5224
14.3381
5.55283
-2.82406
-23.4799
0.551657
25.0124
-2.64101
-11.8626
-11.4533
-38.0703
-50.522
-26.241
6.48721
8.45437
17.5076
22.408
5.27996
-14.8697
-13.6061
-31.5092
-18.3318
15.6929
-0.673991
-5.44821
1.14034
1.03004
-8.39892
-16.7935
-6.64319
7.1607
33.9427
51.9282
36.4024
34.3378
24.737
12.1097
3.00296
-8.17321
-25.7336
10.8307
27.9094
-24.8582
-43.1286
-38.6139
-39.3389
-43.1969
-24.0509
-5.26377
52.9731
56.6685
-3.56493
-7.86141
-5.60188
-17.0348
-35.0843
-39.7676
24.6708
15.0068
3.05105
-14.5561
-14.2496
7.10184
44.3599
41.3704
12.268
-42.2603
-21.7764
14.9015
0.367872
-18.7543
-33.8189
-4.10514
51.9854
58.0432
62.5823
44.8837
-6.50386
-8.53678
-0.441079
4.83029
-24.0572
-50.0661
-68.8879
-68.1305
-30.9633
15.3286
30.417
30.103
11.1849
-22.2454
-3.43892
14.7379
9.2214
29.0292
33.2057
23.9857
-3.5766
-8.96128
13.0408
18.2805
9.38637
-10.9296
-11.4138
-11.6787
-23.9691
-25.3714
7.67447
10.0676
-7.38338
-35.2621
-36.2065
-8.24387
-9.22706
9.04448
3.03644
32.6626
18.6116
6.42879
-12.7572
-6.71583
15.8018
-11.0092
-33.7651
-21.8831
-9.50601
10.7052
-22.2973
-20.6546
57.2267
111.964
34.3167
-7.69931
-9.42924
15.8071
27.843
-5.85963
-29.5349
-24.4474
-41.175
-51.4635
10.5195
49.6937
64.2565
-6.77143
-38.8713
-31.3166
-25.3521
-23.8856
-44.8795
-39.1048
0.00825646
31.9786
55.3379
53.9383
53.6678
21.8856
0.296491
59.4211
73.2985
25.2586
-63.7547
-138.923
-137.854
-62.1391
-56.0283
-29.9926
10.4762
14.7941
23.3526
2.31618
21.7789
48.1481
27.3851
-5.61205
1.17154
26.7419
30.4191
72.1392
118.02
-10.2138
-35.6634
45.879
37.9929
37.5793
56.4228
3.04499
-19.3392
-19.694
-29.8573
-42.5646
-60.8547
-64.1871
-40.5929
15.2032
-9.19513
-11.1486
15.8825
-47.384
-109.261
-19.3145
27.4852
-20.4004
-15.4393
-44.7585
-25.2076
19.4409
23.2687
3.70142
23.7536
63.1196
69.1757
33.4009
-9.42055
-29.6313
-2.22453
10.322
-3.3663
-1.75819
23.0414
37.8868
47.3151
17.8719
-13.7218
-26.7097
-35.2668
-40.8633
-12.7772
48.3185
55.3262
67.0303
15.2445
-19.4149
-7.75506
39.6912
69.1733
-0.729784
-24.7929
-44.5027
-101.443
-93.9516
-49.0234
-14.2575
-20.1373
-34.5347
-11.7214
3.59002
20.342
1.01288
-4.30691
-11.2555
5.82577
20.7416
46.2534
38.5532
35.0876
52.3603
29.7009
15.0927
15.5903
41.4379
64.1555
9.28112
-49.0854
-54.3838
-43.2541
-28.1408
-25.027
-29.1109
-6.49974
-21.3581
-38.0023
-11.1963
15.2203
33.9034
32.9469
49.7211
60.487
-4.14735
-82.2602
-26.6766
-15.9743
-32.4351
-9.35125
3.61012
-22.8065
-27.0181
26.5274
20.3126
39.8683
14.6637
-35.5707
-15.732
23.549
102.488
1.25004
-65.8449
-29.538
17.2475
44.2455
13.5638
-7.99953
-4.12687
-17.0058
-5.82212
14.1809
-2.95508
-10.2593
-7.21596
-39.0333
-24.7965
-4.23544
-5.98876
60.8325
12.7449
29.0183
51.7715
-2.20812
-8.40102
-0.319423
-10.2201
15.0821
7.36837
-1.55362
-20.5523
-33.5154
-47.1135
-37.0539
-27.8899
-3.32612
-0.190615
-4.12501
17.7592
-37.6693
-47.6523
3.91939
17.3788
-1.95339
50.4316
53.8858
40.4845
30.2848
38.1263
31.0403
-11.1182
-31.4701
4.18757
-4.34909
-1.77935
-21.3699
0.348887
50.6055
28.0888
-9.91262
-15.8166
0.0812594
22.0682
8.91989
-16.3351
-21.0724
-39.4985
-34.599
-28.9278
-42.4685
-52.0821
-33.5305
-16.6528
-4.18964
6.30388
28.7364
53.4651
39.4322
25.502
31.921
20.2148
23.9331
33.3767
26.9411
-34.0048
-19.4513
-19.9211
-35.9561
-25.1672
-23.9385
-6.1055
-10.1088
-29.919
-30.1512
0.918134
1.95469
0.939484
10.112
34.4469
39.3635
18.5193
23.334
53.7125
-25.2992
-29.1367
-15.9147
-5.10143
12.4441
6.33318
-2.94988
14.0088
-4.98194
10.4498
18.3426
-17.8045
-20.4669
-28.2548
-6.90407
28.4749
12.786
-2.55562
0.456847
-24.4952
5.52455
62.841
93.3502
78.7607
34.3058
-14.5959
-60.1439
-116.549
-137.402
-117.481
-67.4131
1.83245
60.7941
67.1738
16.4738
-73.9549
-62.8077
31.3973
69.5367
55.2438
29.4405
52.105
21.9803
-17.0539
-13.691
8.83917
22.2472
47.3254
32.4877
30.0677
59.4216
-5.11495
-50.6034
-30.4331
-19.0717
17.612
28.6246
-13.5551
20.0738
10.3809
-65.2594
-81.6372
-23.456
22.0793
16.1191
-39.4038
-26.9921
-22.1462
-28.9747
-25.734
-11.6522
27.6796
2.8306
-9.27163
25.5543
-8.65144
30.9883
4.46911
-40.7298
-5.34371
59.5218
23.5978
-23.4374
-14.2684
4.15691
43.9089
32.1835
17.6958
17.6493
12.3764
-23.0877
-50.1131
13.0164
49.6398
4.68186
16.7308
7.04471
-1.09207
-10.1655
-35.5648
38.5567
65.3398
-2.89138
-37.8991
-27.1225
-9.24431
-22.0252
-36.3179
-15.3558
-3.15227
-17.1183
-4.2325
-16.6766
-26.2715
-24.9534
-37.4138
-4.84081
46.7883
53.6617
69.8931
18.1446
-36.563
-30.7257
-50.784
-11.2896
25.5024
12.3085
25.3686
23.8949
3.68818
-8.95684
-17.3103
-27.8248
26.4251
41.825
45.5568
44.976
13.4079
10.3683
-6.28518
-27.707
-49.9696
-9.00918
35.5678
14.107
11.8846
-1.22039
-47.7267
-117.257
-82.5127
-33.6886
16.8734
44.941
12.7268
6.86168
18.1077
31.7848
38.656
27.2172
32.6596
46.2649
13.4348
-18.1967
-33.8739
-13.2254
18.9408
-43.8196
-30.8209
7.54931
11.3512
30.9652
-9.76623
-43.9604
-32.927
-19.9442
26.3424
32.1085
17.631
28.8029
30.7939
0.967397
11.366
3.67509
-36.0535
-32.3258
-14.3595
-44.2526
-31.1193
-17.6372
-42.936
-34.0892
4.64347
-8.47347
14.2676
20.27
46.5136
107.933
55.844
23.2467
16.8983
-4.39579
10.571
40.4151
2.78876
-23.6261
-55.483
-64.0754
-56.9618
-45.089
46.2936
116.721
-29.7004
-50.6758
-40.2634
-16.6234
-30.3917
-27.9101
33.6635
79.8577
24.1367
1.01733
-2.20769
-5.84444
28.0486
32.3046
26.0531
50.467
-17.717
-69.7181
-72.0516
-71.6152
20.1744
46.8649
35.4983
3.30313
-60.3351
-35.9261
0.170967
0.995513
41.962
78.1709
20.9597
-36.2609
-53.6838
-56.9436
10.3012
22.2489
42.1693
38.0584
-30.2457
-62.4493
-19.9056
-2.72133
36.5419
40.4256
16.1218
-3.49713
-9.7459
-2.53474
20.5469
9.31325
27.2676
-5.27181
-22.0161
-16.4156
-14.9397
-8.83935
-3.23389
22.9351
44.6242
-11.8625
2.39731
4.0512
-7.75037
-7.3268
-24.0512
-37.0748
16.3236
36.9813
2.39969
-27.6271
-36.1779
1.41938
15.9483
8.36954
-15.1347
6.23999
31.6134
8.0069
-18.2201
-27.2458
-16.6732
25.195
23.0349
-32.9554
-5.07834
5.11495
-4.47529
9.33411
12.4928
-13.7552
-17.7992
-21.3183
-15.074
16.2144
5.80732
-6.3967
2.29755
27.6483
18.234
32.6661
44.6671
44.9355
28.8098
-15.4533
-62.52
-34.5651
-16.9347
-15.3259
-28.4339
44.3901
52.7559
56.3942
19.4227
13.8288
118.199
133.805
57.8152
-0.022356
-57.9281
-96.5412
-143.825
-201.065
-163.474
-28.7204
22.922
26.4547
-16.2745
-19.9651
16.6915
11.7465
24.2963
26.3684
-56.3142
-92.506
-95.3602
-125.432
-52.0831
-1.07237
15.0895
37.4933
96.1703
111.2
84.1984
59.0646
91.1731
105.734
132.224
123.939
88.6997
44.2489
-24.4448
-33.9186
43.2218
37.9245
-2.06593
-25.3197
-62.119
-69.4326
-71.8018
-54.8164
-11.0372
-5.27853
11.4384
28.4499
-8.0225
-19.1226
-28.1255
-17.122
2.4272
-19.4195
-42.1057
-36.7462
-55.2697
-34.2664
-46.7785
-75.5227
-67.704
11.9264
45.3778
18.7713
-9.46463
-22.9444
8.00599
16.8461
-0.221627
-21.0904
24.0439
40.8251
36.6306
47.9081
0.727225
-30.9093
42.3331
53.9819
49.5917
53.9832
14.5142
-58.3381
-74.9086
-51.5325
-17.2801
5.1003
21.4422
15.4758
1.49092
1.04301
-0.933782
20.7291
34.5912
41.3027
81.6496
61.9643
10.3153
-52.9985
-29.159
21.9532
-6.94916
-46.521
-47.953
-57.8376
-59.2156
-12.735
0.77775
19.2621
36.4965
34.3913
3.76377
-1.51581
45.4957
0.721982
-24.8386
-1.54911
-4.35523
6.65637
-10.6356
-27.6605
16.3439
-9.67547
-30.8186
-4.69536
31.6917
12.7736
-19.8443
-15.2964
10.5617
-16.3981
-50.5536
-33.0353
-17.8096
17.1686
-7.16208
-21.9655
21.3699
19.791
20.1552
38.8302
12.7616
-8.85977
-48.0603
-18.5043
91.8851
70.4959
24.1877
16.2366
-14.7999
-7.74636
43.8204
42.1828
8.88598
16.0202
34.6812
-8.31178
-83.977
-118.896
-58.2864
19.2814
3.50849
-16.3085
23.7751
-22.2097
-61.1795
-32.0885
-7.35417
10.5983
21.2579
24.6546
88.1331
58.7762
13.8672
-24.8199
-51.843
-7.78253
1.71341
21.8528
44.3475
1.31759
-8.39604
7.97711
-26.338
-22.6809
-36.2434
-36.4513
9.27635
16.5359
-7.28163
15.0821
13.6253
6.91035
17.4673
13.4099
17.7081
-10.4057
-14.1893
4.26998
-26.5165
-29.1736
-4.53255
-4.84464
-86.1392
-107.706
-39.003
96.511
165.25
24.7903
-18.5289
26.1393
36.5848
23.2783
47.0073
16.7476
-67.316
-10.8321
20.6199
-6.7857
-2.27031
-9.46095
-60.6709
-30.5702
36.4886
66.4667
50.5092
-33.8422
-88.8012
-18.0255
-19.6781
-46.4288
-16.7953
8.68997
17.5334
41.5622
51.8276
42.877
43.3503
21.9093
-9.75522
-30.7195
-56.9271
-103.311
-46.7388
38.4753
17.1267
-16.791
-39.6085
-0.171661
-11.4811
-32.0172
0.898275
60.0561
35.4255
29.7936
45.9431
18.9123
10.395
4.0424
-3.77679
-14.5077
-12.5164
28.1026
-3.85101
-53.5083
-7.73271
58.7566
35.5986
-17.5225
-7.95709
-3.74254
-30.2783
-64.7547
-4.68669
34.6083
52.4226
40.5049
18.9844
25.6871
12.9415
3.37442
26.6007
3.7675
-19.0489
-33.0194
-63.7062
-124.332
-121.697
-10.7883
48.66
30.6115
23.1514
25.5433
17.0557
28.6969
27.5005
35.5743
-23.605
-25.6922
-24.5084
2.66194
-10.8862
-4.04612
-25.6051
10.6286
23.4377
29.4869
20.6535
9.66873
-9.46132
-18.8383
19.0246
57.2275
27.4772
2.26517
26.4875
14.0793
19.4977
10.0803
-3.90247
-7.8718
-43.313
-68.6307
-67.9628
-42.9744
-76.4472
-13.8448
74.6609
57.5653
27.1246
1.76544
-59.4034
-27.415
18.315
60.3927
68.3387
22.3004
7.49026
-46.8942
-118.919
-100.839
-37.7076
137.501
38.174
-76.2873
1.33837
37.1572
13.2726
51.4812
52.3398
31.9486
42.4955
11.3883
10.6803
-0.906049
-50.0655
-44.8778
7.91336
29.3838
60.1814
60.4001
10.2752
-74.4672
-18.8999
-1.50568
-8.25923
-14.3604
-31.0274
-36.3499
-46.589
-81.9361
-46.2041
-12.3145
11.8485
72.0473
-6.40615
-39.0683
-6.96498
-8.71641
10.5122
-9.72668
-75.9833
-7.17127
83.748
106.355
84.5249
21.5993
6.11917
-5.42085
-11.9514
35.1142
37.0319
11.679
0.621321
-50.8879
-22.8944
0.897144
12.9831
35.9329
40.6305
44.6893
41.0446
-54.4746
-82.3985
-79.312
-82.9418
-64.0429
-47.1153
-19.0699
2.6016
-11.4551
-2.50428
-10.4862
0.357057
49.2846
71.2177
61.0558
24.8338
26.426
11.2704
30.7087
39.0305
13.7672
-17.7327
-46.4014
-57.1554
0.634413
-5.69618
-7.74821
0.59501
-5.87856
10.0796
12.1443
39.0035
3.63417
-15.4793
-29.7924
-38.1302
-31.0265
0.880917
8.14586
43.3987
35.1537
20.2274
22.0246
59.1092
61.3027
43.6119
-17.6831
-28.2259
-21.3547
-30.2062
-13.7443
-4.31719
-19.8201
-67.997
-125.392
-84.7097
-49.9252
28.1907
72.9562
17.9244
-30.7578
17.1492
21.8132
-32.0772
-65.6851
-31.5928
63.757
49.0276
20.4231
31.6588
30.9951
10.8446
-15.3159
54.2783
117.51
66.2568
14.8755
-9.06676
13.6689
-9.26215
-97.8927
-84.3866
-12.0738
2.67538
1.80221
-4.53938
-32.0339
-9.58117
-4.1642
2.68245
17.3935
50.9681
54.5652
29.3384
0.0976732
10.7649
43.8831
19.2073
-50.8116
-28.7728
5.95491
-60.9237
-108.354
-78.5819
-41.8785
-35.9301
-0.663105
-28.7689
-5.51547
120.811
109.393
64.913
29.2796
0.715087
-13.2172
-3.40328
-2.08056
-17.1235
-14.2572
-20.7741
-4.41139
10.6656
12.4068
-20.2513
-16.4654
25.3393
11.2496
18.6673
-22.26
-84.4489
-87.5981
-47.2029
85.3711
123.403
72.261
20.6948
-36.2556
-61.1019
-39.6762
-42.3309
-9.88084
2.39297
-20.7211
-2.86149
19.2045
-3.10938
0.399594
25.8386
39.6332
33.913
44.6843
29.4798
-12.107
-3.27221
13.2652
27.2031
4.79575
-5.40001
42.9263
21.4455
-30.7328
-55.0058
-66.9509
-58.8222
-33.2959
-36.6817
-11.4287
46.9398
66.1939
10.3433
26.2717
36.519
13.4411
-2.77389
-20.767
-43.576
-10.7034
9.88963
-38.6601
-27.8483
-24.4732
-36.6364
-16.4032
-10.7676
10.2595
41.0149
37.6817
20.5898
-3.88808
11.5826
24.8553
4.63183
3.34968
12.2896
13.4956
11.8065
-3.23719
-6.62458
-5.26426
-22.0149
2.63552
12.458
27.1778
34.1869
1.0289
-26.6294
-20.9551
-17.7931
-21.2772
13.6261
62.7639
82.6159
29.549
-42.117
-73.2397
-19.4019
-21.6697
-61.828
-31.1566
0.914315
-20.3311
-38.8054
-35.1271
-23.9169
-23.6148
5.61741
12.3499
12.6782
16.9025
16.9053
36.1008
13.6203
-7.45599
58.7433
78.8737
46.8562
33.1681
6.94697
-4.84885
17.347
-15.3327
-0.00323921
-8.42856
-31.3172
-32.8096
-23.0031
6.91501
31.1014
17.0054
-1.47169
-7.86679
-5.80762
36.8207
29.1222
11.742
-20.1569
-51.4754
-65.396
-59.8413
4.48797
1.82511
-31.4035
-49.9552
-32.6272
21.6897
30.9838
13.6077
23.5853
83.6215
72.1276
-35.0158
-122.077
-116.615
-67.647
-72.0999
-27.8274
63.6523
123.324
126.183
68.0776
17.4462
3.43665
-4.91124
-18.7087
-21.2248
-1.19253
16.2913
34.9317
3.10348
-38.2983
9.07286
66.7636
92.0018
101.364
64.3265
21.6958
-41.1212
-54.5326
-60.8965
-102.645
-75.6554
22.8306
59.5779
-21.9422
-59.4402
-69.742
-68.1029
-53.1681
-55.9667
-76.3805
-4.4813
73.0831
71.5156
48.7109
58.581
34.4652
9.38446
-31.9579
-35.5398
6.13699
-12.0301
-48.3426
-68.6734
-11.9546
34.74
11.2548
15.1879
57.5054
24.3929
21.3707
32.7376
45.3839
79.7437
30.2262
-32.3096
-6.32562
5.93319
-4.89478
8.73087
13.9592
-2.43707
-37.9675
-61.7148
-45.4664
-25.306
7.80639
-0.760663
-20.1949
4.3239
22.2568
16.5448
3.48151
-34.8898
-11.4958
75.297
42.3131
-16.4684
-40.4542
-22.3169
-0.785014
2.87174
-6.44746
-15.6025
14.4125
4.83725
-10.1257
-12.9525
-34.3304
-32.1224
-21.3873
23.1381
47.2214
48.482
36.5395
2.39093
-23.1927
-21.6909
-12.6862
8.19434
51.9106
12.9664
-10.9399
-30.5997
-42.6871
-15.9767
-2.51935
6.20349
43.0162
22.4143
1.42968
-2.18292
-4.6066
1.28124
-25.2287
-23.2791
25.4295
31.7949
47.6442
27.5756
-21.1237
-36.7211
-51.8854
-61.3146
-28.2799
23.0331
30.0708
37.1609
20.6962
10.6367
-15.0207
-24.0286
-28.531
-0.129933
31.2539
-7.78444
-20.1618
-13.0075
-12.755
9.95183
14.297
4.42625
18.3472
-1.04825
-16.0692
-19.7255
-3.96645
2.57487
6.6663
5.59086
20.7196
78.9843
61.2509
52.2531
32.8109
12.9785
-27.3082
-31.2389
-48.9345
-21.3362
-10.9442
-2.86324
-8.3077
-6.0947
-78.9002
-76.466
-41.4179
9.41584
1.41798
-10.0987
-29.6
-30.0026
-18.1282
-16.5103
-2.77715
33.8274
24.457
20.9175
23.0741
41.8682
63.7703
64.6791
47.7894
15.6471
29.9019
34.6754
-21.3734
-44.0809
9.36318
38.1617
-17.7545
-31.7985
-19.336
19.8657
5.61043
-32.8333
-31.6948
-6.51693
-6.08652
-14.7978
-17.5234
27.2763
18.2093
-20.6112
12.2988
54.8257
37.7155
-18.4013
-82.1705
-34.592
-43.7669
-37.5673
-26.095
-41.7736
-21.0832
-21.2932
-3.2972
29.902
25.293
18.5551
24.6439
-13.4489
-13.0589
35.9706
18.594
14.3413
29.6528
65.7993
59.9659
4.02391
27.5459
36.1008
13.379
-30.5524
-48.1177
-24.6636
3.53801
43.6332
39.716
-1.82771
-38.1275
-56.9915
-2.28016
30.9814
-1.42862
-12.7339
-23.1136
-26.3831
-29.4435
-62.9674
-17.0341
-27.0384
-39.9296
-4.57863
-6.1504
14.4439
59.8749
-10.3858
-15.9729
19.5958
-66.656
-99.7781
-23.4811
64.0621
74.0338
55.7492
45.5784
50.9498
43.1085
35.6082
10.56
38.9497
57.4938
31.0347
-5.30048
-41.0862
-91.1436
-102.79
-5.71686
16.4552
55.7663
87.1945
50.2232
-7.59859
-16.1218
-23.0972
-43.2099
-14.2342
-6.60962
-12.8901
-12.492
-14.9801
-33.0368
-71.5018
-52.8074
-48.1912
-12.7995
28.7818
19.4733
35.5457
15.8624
1.29272
18.8315
10.0095
14.3426
21.3562
-4.71697
-22.5464
-23.755
-15.2218
27.1694
3.55884
-14.3323
5.52287
6.81973
-1.0629
-0.626696
23.3239
18.0128
-12.2652
-6.51841
13.9579
13.4839
11.2488
25.044
12.534
-11.9027
21.8227
68.2645
46.9975
13.3661
-2.09334
-12.7282
-19.4846
-45.2065
-21.2604
-1.57508
-29.2761
-57.203
-59.4047
-18.5576
24.8667
0.982524
-21.2937
35.8199
47.2365
26.3091
3.71548
-16.1604
-22.2484
-7.18055
34.118
14.0766
-37.5052
-57.5587
-62.2105
-46.7807
-16.8644
4.72163
26.8121
19.1703
42.7551
86.9918
77.0373
29.3754
24.637
19.9526
-12.3808
-38.1991
-40.6627
-2.66371
-29.0978
-54.9182
-26.0211
-3.9133
-2.35081
18.1301
9.80912
-21.2854
33.3702
71.2152
33.6816
34.5318
8.31653
-36.0242
-49.4056
-59.7345
-19.5767
-5.30885
11.2784
4.62072
-3.23722
-20.3248
-8.00865
24.8287
52.7451
9.09671
-17.4891
-4.78266
-16.4637
-27.1784
-10.2189
-29.6517
22.8587
44.7141
50.145
47.1476
11.386
-1.62997
-28.9112
-48.2649
7.79024
8.40462
5.43406
-23.4673
-43.9595
-63.7178
-53.4333
30.5535
79.7599
74.3381
37.1867
-20.6898
-119.55
-59.7343
38.8079
21.9848
16.6134
19.9303
37.6634
23.5913
7.81093
4.05656
6.86025
-8.26019
-34.3078
-5.32792
30.7371
18.3744
-23.1669
-32.3688
-38.783
4.71928
38.6861
5.90957
-4.80325
57.8168
84.8116
48.8948
-8.36236
-37.8958
-63.2237
-66.5811
-60.3197
-21.4659
-16.2342
-13.1592
-7.48936
-34.6108
-22.7411
-12.3243
-7.41482
64.67
103.017
80.5833
33.1317
0.282472
-42.034
-44.4249
-44.2266
-18.2943
47.7635
20.9052
3.07654
-17.4395
-17.9118
11.4496
18.7267
16.3867
-10.3123
-42.4916
-29.4248
-59.4298
-24.2845
32.6812
62.0029
37.1422
-33.9135
-42.7862
31.4824
59.06
19.0658
-8.86211
-26.1043
-48.7945
-42.2415
23.7356
74.3458
11.386
-0.0558679
-0.954534
-7.01133
36.9724
36.0887
45.0409
35.0595
-17.4583
-10.8709
-1.26809
-24.6248
-24.2679
-30.0593
-20.6282
2.53261
11.262
-27.845
-52.8806
-64.9111
-31.8862
-3.29652
32.8502
-1.09843
-17.4764
9.2756
30.3874
11.9394
9.07293
2.85511
7.86904
-18.337
-34.911
-6.14398
58.4378
79.5023
5.9822
-21.4455
-33.4118
-36.4901
-9.46599
-1.53193
12.8346
44.3818
45.0459
38.6142
17.7368
-16.5125
-23.9428
-22.6791
23.6157
32.2637
22.3348
14.2951
-29.7018
-58.7662
-52.7643
-38.0721
-5.96726
-2.58503
22.3109
45.1014
11.6445
-21.3301
-23.9764
-3.61522
52.8382
41.9891
33.9772
27.2131
-1.4361
-35.5641
-59.5329
-60.9076
-61.3561
-51.6565
7.09404
77.6437
45.7273
14.1844
-17.663
-41.826
-34.4931
-26.7279
34.9681
28.0644
-5.47512
1.77905
24.3385
25.3047
-4.66151
-0.217423
71.7471
71.7095
25.5581
-17.6374
-75.6386
-68.2607
-47.4776
-14.6057
26.0132
63.3174
58.818
22.1897
-8.43695
-32.295
-55.6254
-15.4962
15.4915
61.1363
35.5941
-0.159307
-6.23724
11.8823
-64.5481
-136.575
-81.6586
1.96993
17.8839
2.35114
-17.5424
-2.92007
30.6265
35.3353
36.6738
81.9649
99.9645
54.5711
19.1213
-29.7362
-19.8089
-22.7104
-50.1762
-39.6737
21.8368
65.8578
26.3045
-28.3168
-66.5014
-39.4284
-24.1942
-55.1506
-16.5057
-22.7437
-24.764
-27.6469
16.7257
66.0358
49.7631
-7.04039
18.9521
24.8506
15.9969
23.0543
17.2126
7.07371
-29.0286
-86.4275
-38.5872
-13.934
24.0886
98.6507
67.1821
25.3114
10.7439
17.5723
17.5886
-24.6986
-26.2578
-20.0545
-30.1971
-23.4582
-40.025
-69.1095
-29.846
27.4149
22.6719
3.7357
4.29997
20.2527
-9.3723
-23.2927
-20.7525
-5.56557
53.0767
41.8798
17.2164
15.2047
9.49634
9.74984
7.31926
-25.3953
-22.9765
25.69
21.0399
-33.6977
-18.5087
-14.7164
-17.0055
4.68671
-6.38999
-22.1939
25.3342
36.7431
23.8974
8.56317
-8.36817
-3.21944
-11.4444
-34.5071
5.27478
38.6204
54.6177
12.6794
-51.4581
-66.3676
-63.3569
-37.4659
34.1843
40.1276
42.4533
10.8798
-73.1645
-53.9992
-14.9931
16.1721
-12.9498
-0.200658
34.8058
43.8498
25.762
25.6767
-2.58514
1.18684
-10.6663
23.4207
11.4945
-19.7852
-20.9935
27.4542
6.93978
3.7823
13.9816
60.0421
90.6183
43.6608
12.0505
-41.8497
-85.748
-40.4633
-40.4277
-28.6255
-25.8563
18.2435
40.3809
14.3094
7.41152
-19.8518
-52.2988
-50.6491
