-7.50926
-47.3358
-63.1072
-42.4252
24.5901
95.3368
142.238
134.126
98.6111
22.5765
-55.4921
-97.781
-42.662
4.75813
66.8206
131.638
189.705
184.771
152.659
75.0285
-55.2566
-147.991
-190.404
-219.189
-251.938
-243.399
-157.832
-63.4015
-10.8186
100.603
157.793
109.609
13.0717
-95.7421
-204.167
-263.646
-254.115
-174.667
-46.7777
82.6695
177.242
257.318
291.739
285.885
213.14
93.1155
-20.5264
-41.8032
-50.5328
-59.756
52.5248
195.681
290.657
300.009
226.008
48.1505
-156.855
-230.917
-233.9
-210.846
-144.502
-118.775
-124.24
-116.616
-13.4001
54.76
9.90454
-16.899
-38.0524
-92.9811
-135.116
-174.642
-152.803
-74.4316
-33.3838
84.5592
171.704
148.571
104.815
58.473
26.1302
65.4978
41.1889
15.7968
57.3554
75.1675
9.36807
-37.8039
-0.717647
17.5073
34.1256
74.4406
71.0142
34.751
0.550653
-44.1239
-69.0472
-55.9387
-12.2571
4.9774
-16.1708
-81.0272
-159.603
-110.408
20.9361
131.699
206.074
129.893
-3.63828
-20.8981
-6.93911
-88.1944
-193.577
-170.477
20.5875
199.509
273.379
205.868
114.365
34.2997
-121.022
-191.914
-114.321
-70.9985
-45.4617
-88.6018
-81.0335
14.3138
82.7796
26.3178
-80.593
-87.9945
-85.8603
-115.881
-75.3481
-20.5833
48.7721
103.722
87.0466
21.6001
22.4824
31.5281
55.1016
67.7407
24.4964
64.9567
121.329
133.08
123.764
55.7248
-66.5825
-84.8044
-78.6525
-148.435
-233.88
-290.601
-291.059
-251.306
-120.268
115.439
302.766
345.352
275.847
200.193
104.918
-8.85681
-71.4128
-48.0455
76.2666
197.18
191.337
102.096
49.1054
48.059
8.96335
-32.3711
-61.4291
-91.1111
-213.725
-393.145
-290.832
-120.993
62.8715
189.326
235.395
137.362
-63.8966
-222.016
-274.383
-280.104
-184.989
-54.644
30.5945
30.0602
53.5098
138.825
182.524
161.986
132.397
185.888
173.167
39.0406
-63.3467
-86.2689
-123.538
-66.6134
60.602
133.064
107.897
78.7599
64.3651
30.6029
28.0351
80.9794
40.878
-105.814
-199.385
-124.631
-1.30735
28.059
-64.4818
-93.192
-62.2305
-100.752
-149.601
-173.153
-154.711
-49.1545
57.0759
152.046
248.911
254.227
88.58
-57.8633
-35.708
55.9454
125.547
65.61
-0.719949
-10.9436
-28.1205
-31.6304
-69.7665
-125.624
-94.1091
-29.3218
-25.3617
-52.0726
-43.1222
-29.2782
-54.2617
-75.9295
53.7214
178.577
214.333
223.536
171.788
55.0467
-32.1699
-35.4757
-19.4344
-8.79926
-55.6903
-151.58
-263.164
-279.747
-250.87
-37.0474
202.091
226.953
218.538
150.888
26.435
-36.8499
-84.5683
-136.218
-105.312
10.517
67.823
11.8874
-55.5237
-9.07393
1.05954
-0.470925
83.4595
184.886
158.63
3.58737
-59.4333
-65.0145
-56.0726
-9.10645
-7.53481
-55.8669
-82.5294
-182.144
-202.463
-116.247
49.7253
148.027
168.011
139.958
209.6
301.415
190.645
-1.67618
7.52192
-70.4997
-190.033
-212.525
-211.539
-121.556
40.8862
103.848
81.0342
93.2231
9.55836
-80.6079
-188.424
-197.651
27.4611
164.047
93.0325
23.8334
-49.7807
-138.407
-245.724
-374.427
-261.786
48.6767
284.494
362.493
223.479
99.0181
63.2883
41.1372
53.6179
29.1838
-14.446
58.4762
77.3486
2.01441
-29.3909
-24.5458
13.9957
-10.1259
-18.1711
109.036
114.779
32.4119
-33.7584
-58.8576
-28.7203
-36.3855
-64.6093
-86.4777
-128.315
-81.1361
4.94635
-55.0741
-127.32
-53.5242
-4.15674
-29.5069
47.5366
123.14
131.69
137.247
25.8659
-133.745
-257.17
-259.197
-132.259
44.5044
131.432
181.671
176.956
195.042
142.372
112.435
140.063
25.801
-176.979
-325.061
-361.126
-125.546
99.2717
186.214
212.853
199.244
77.2393
-113.203
-204.941
-136.212
27.9653
48.4544
-1.41207
-129.133
-190.055
-203.312
-149.346
13.7142
215.773
445.133
528.647
379.745
171.916
30.7948
-150.825
-270.523
-175.673
-71.0796
-61.0304
-167.361
-234.712
-125.573
-112.071
50.8919
262.714
258.124
42.2688
-76.6641
-89.6398
-129.411
-113.359
-33.3362
-19.1425
-91.0734
-102.322
-82.8826
-153.487
-75.6174
189.347
373.155
301.557
93.0423
14.6438
-91.5574
-215.43
-233.773
-164.827
-69.9685
8.42253
45.8378
37.236
49.9654
172.248
150.442
44.4388
81.3998
217.063
224.368
77.6209
-101.282
-251.354
-163.618
-25.5596
14.1623
24.8912
74.927
159.463
151.577
15.8671
-40.1244
-37.0732
-99.3955
-162.423
-7.87238
64.5105
34.4159
-80.4625
-186.119
-176.378
-86.5976
-11.3296
-36.0121
-104.861
-214.842
-246.077
-97.256
58.0569
65.9633
139.283
98.3061
53.702
47.8808
45.4407
193.121
342.788
253.982
57.3185
-16.4512
-87.7648
-160.463
-127.835
-40.7721
146.756
382.359
420.392
247.227
57.709
-87.792
-247.813
-195.474
-86.4894
-48.5185
-40.7324
-224.178
-309.651
-279.72
-131.817
46.4075
80.6636
13.9164
50.6105
235.08
214.6
22.0094
-215.36
-391.577
-466.938
-445.008
-270.585
-88.3176
-39.5732
49.1868
251.08
382.31
356.422
253.969
270.358
211.238
179.194
295.583
320.586
241.113
125.719
-104.967
-194.34
-58.1145
113.488
285.603
226.19
-44.2572
-216.69
-231.32
-326.589
-311.662
-47.6975
97.5982
41.6359
-123.532
-245.086
-363.303
-407.769
-396.88
-277.686
-95.9991
-29.5936
-2.27542
48.7786
151.241
365.076
532.751
542.54
325.634
-52.3784
-284.92
-333.458
-274.034
-164.428
115.314
261.534
230.234
170.795
159.508
155.959
137.564
42.9596
-124.8
-228.726
-310.471
-202.526
77.1373
185.995
258.41
156.957
-127.093
-184.201
-1.23257
109.496
-7.30384
-99.3655
-163.552
-209.552
-240.392
-235.808
24.4278
370.78
424.144
169.614
-114.432
-178.136
-137.025
-30.0408
29.4764
248.466
431.996
272.981
49.2272
-37.9013
-152.835
-235.018
-216.89
-108.021
-188.961
-232.202
-235.065
-210.399
-96.7548
9.74868
159.8
139.969
-8.75662
-72.6489
-35.8441
-47.0176
-14.2922
0.528987
-22.2546
30.864
255.478
395.608
482.335
434.325
212.633
124.623
74.8784
-24.2699
-82.0423
-10.8001
15.4406
-105.112
-256.096
-345.365
-452.493
-394.842
-232.87
-21.1098
120.19
136.328
76.9877
-23.6037
-81.2922
-71.6501
62.9632
153.608
159.177
209.34
139.83
-50.2661
-235.68
-363.537
-454.912
-332.587
-61.0042
364.919
531.318
303.248
105.513
-95.2986
-260.849
-244.009
-109.365
85.0827
249.658
226.407
87.819
95.3158
327.819
479.632
438.185
286.923
145.648
-34.458
-139.246
-294.101
-388.644
-391.444
-349.99
-253.956
-256.371
-189.114
-52.8067
-51.5449
-63.7024
31.8519
-14.1391
-271.705
-256.128
-71.6574
62.2964
173.986
303.89
328.106
262.704
179.924
170.29
186.566
197.85
219.563
161.438
11.234
-133.461
-260.685
-391.811
-320.891
-38.2855
122.021
51.0446
-95.5568
-51.486
70.6615
78.1831
113.528
-16.1647
-180.519
-205.099
-91.6939
-77.11
-23.1017
102.333
232.499
176.308
121.454
184.17
-0.32947
-183.646
-185.084
-131.612
-7.96456
2.93473
28.7353
127.132
71.6031
75.6494
91.4911
72.5141
40.5881
-6.6367
-136.284
-240.643
-261.707
-193.575
-115.095
147.685
413.558
423.102
469.164
335.735
-38.5603
-492.718
-650.347
-479.668
-261.318
-50.4318
220.408
229.384
80.6296
-46.6414
-172.979
-111.934
102.229
206.764
211.49
14.9104
-147.351
-151.898
-105.175
23.6526
166.458
344.314
342.215
202.082
79.0605
-4.53804
-82.2342
-105.905
-175.628
-171.68
13.6451
94.7169
-5.77952
188.68
322.959
100.392
-110.353
-288.099
-371.147
-441.065
-307.388
-111.7
-110.298
-96.6343
17.0253
76.2279
52.1208
67.2349
172.753
367.506
317.739
189.912
84.3638
-139.997
-345.753
-220.494
-17.1314
85.3456
134.093
151.222
213.607
268.557
355.1
444.063
275.808
-57.7823
-466.074
-767.907
-633.684
-385.624
-150.891
15.9933
124.179
101.814
123.277
216.766
278.929
251.277
134.919
8.86546
-137.967
-217.385
-397.767
-514.664
-341.454
-65.8958
249.394
418.892
294.995
121.211
57.5823
115.162
212.289
403.775
408.289
254.125
43.8617
41.0512
57.8618
-160.284
-399.762
-331.331
-78.8768
64.8366
11.841
-90.9442
-186.567
-96.3797
9.46313
19.1205
-84.4185
-315.822
-410.339
-384.644
-266.406
-201.418
-129.485
-41.6081
55.9563
267.809
443.999
540.009
566.943
324.713
83.2436
57.4507
37.3981
78.0867
35.6404
-195.626
-297.62
-275.537
-281.072
-279.415
-197.094
-73.2514
20.0788
143.858
116.206
172.608
279.529
190.943
73.4867
77.5118
136.993
128.822
193.171
193.712
77.0678
-18.3621
-65.5189
-93.1355
-35.6619
21.4666
73.1332
-47.3706
-147.006
-216.05
-217.494
-241.012
-229.518
-140.657
-132.075
-166.504
-234.767
-194.092
-95.2509
-86.5799
-7.31876
213.455
376.304
425.723
245.675
61.1768
-120.703
-125.845
-2.86835
125.969
206.376
139.264
-55.6175
-193.059
-179.156
-28.7568
100.517
128.485
151.523
162.018
61.685
21.3443
13.2918
111.714
180.489
79.6378
11.4384
-148.036
-479.029
-528.338
-260.35
-78.1817
-63.3138
32.698
122.092
22.0938
-50.5758
-106.977
-95.4225
59.8434
270.758
303.636
235.741
141.626
63.4464
34.5251
86.3427
230.974
377.868
233.475
-94.9786
-325.152
-261.133
-210.97
-257.54
-240.461
-93.724
141.383
198.917
144.292
114.198
-12.2784
-157.553
-320.579
-309.574
-277.086
-390.548
-276.108
-34.6323
124.628
228.682
427.816
574.326
505.646
350.223
281.657
158.201
-160.743
-424.114
-395.03
-241.2
-171.384
-90.3688
-7.86107
-152.158
-246.704
-111.294
-14.4555
105.838
193.745
168.483
83.1262
-69.0449
-110.77
66.8698
146.482
168.719
297.006
384.142
271.814
41.0056
-48.436
-99.4449
-148.279
-113.504
-151.243
-114.023
22.7813
-23.1488
-112.802
-140.297
-176.694
-169.607
-36.2922
98.7503
178.342
245.541
97.4049
-99.9676
-251.66
-203.039
-50.2024
11.0662
117.691
140.81
2.14744
-104.032
-64.2665
43.8128
124.957
137.977
82.4491
-3.70976
-175.035
-286.348
-256.007
-198.67
19.4411
201.288
166.71
83.8827
121.464
223.773
129.205
69.2568
228.064
241.277
-2.24954
-190.285
-218.925
-235.224
-110.769
-50.6197
-73.3963
-128.87
-94.515
-12.9998
42.0361
4.8609
-113.154
-134.288
14.691
231.827
397.374
336.269
226.526
89.2782
-110.049
-239.586
-214.026
-2.03626
91.21
65.967
79.4075
163.359
102.847
-90.4041
-153.805
-171.542
-146.024
-122.52
-192.33
-274.99
-311.206
-133.427
4.12596
79.7725
210.494
305.517
209.488
63.5058
86.5356
187.333
114.086
-73.0304
-144.887
-85.375
-41.863
66.9338
240.296
276.298
198.932
-24.4416
-78.9556
-85.9535
-158.512
-208.786
-281.182
-177.922
-40.3216
-17.9004
-37.3844
0.994174
69.1038
142.489
56.1993
-131.283
-127.439
-64.6118
13.8554
130.53
128.121
26.1269
32.3115
162.161
220.355
163.241
57.5592
-68.7838
-247.902
-349.392
-306.695
-289.606
-171.22
166.476
377.385
358.883
240.768
139.403
25.0032
-131.16
-145.172
-24.2148
40.3454
54.7222
124.817
164.368
136.238
82.1472
40.8517
-24.3917
-56.8647
-70.3944
-204.981
-362.985
-324.698
-128.617
25.7684
-44.2982
-115.965
-93.9841
-158.437
-72.2359
-3.5136
-10.5593
37.5459
78.8296
209.187
207.422
127.968
138.205
131.545
211.866
366.939
361.299
260.364
93.9571
-126.55
-220.288
-169.542
-16.9137
102.816
-51.5711
-204.227
-344.109
-553.121
-396.379
-63.1171
113.525
243.413
207.312
111.186
61.9022
34.1356
-14.6216
-80.7482
-160.97
-399.963
-495.858
-365.068
-190.708
48.2025
238.896
343.663
411.216
472.312
414.08
235.265
118.564
-70.4639
-206.317
-59.1629
201.32
396.483
379.573
193.557
-0.135734
-84.729
-107.875
-298.353
-649.273
-629.48
-327.327
-207.683
-78.81
63.8259
89.0541
96.2987
263.747
312.421
291.241
211.909
-36.7971
-231.408
-227.392
-69.9907
-31.9913
33.8123
201.889
230.734
262.614
159.081
59.2219
65.089
-57.5748
-178.136
-125.506
-116.189
-311.133
-267.517
-133.464
-81.197
-16.5289
-89.3509
-258.68
-288.051
-95.4383
60.3954
92.3472
347.378
382.43
133.11
-34.2692
-138.379
-136.836
115.94
147.265
67.4737
53.136
103.477
158.737
237.843
199.342
33.4232
-215.447
-483.376
-311.375
127.36
204.231
235.392
521.921
615.509
424.682
133.049
-72.2916
-177.556
-183.942
-191.429
-270.431
-407.835
-521.334
-606.216
-509.986
-256.491
92.3066
474.895
478.559
235.039
201.192
70.6835
-206.405
-372.625
-319.228
-218.097
-275.442
-288.978
-239.928
-42.4631
192.959
299.531
382.295
338.042
302.936
251.276
186.836
112.512
103.167
184.094
252.204
206.342
57.6197
-97.3189
-228.391
-125.024
64.7585
78.718
25.0014
-164.932
-204.992
-46.8467
19.4198
22.2279
19.5728
-28.7368
-89.048
-187.443
-317.573
-374.876
-342.642
-168.154
175.01
392.288
400.562
195.851
-20.157
-156.467
-308.982
-236.416
-80.909
-3.89255
84.1357
12.8756
-145.721
-38.2256
132.689
190.763
229.26
137.287
-45.5893
-103.829
-31.0911
63.519
164.762
345.206
438.417
354.457
273.601
188.804
-96.408
-406.516
-511.922
-328.809
-113.909
22.6878
45.0454
36.6642
-32.177
-145.85
1.15497
-1.96911
-196.355
-223.503
-199.368
-248.51
-230.775
-53.8337
183.808
113.772
-15.0282
5.41677
170.929
202.931
135.44
57.4488
13.9485
2.8424
89.2959
162.881
225.288
170.022
212.223
362.761
221.574
10.1955
-44.381
-185.713
-627.939
-649.4
-115.768
106.657
-94.4756
-278.242
-134.291
36.6109
62.1943
62.8206
131.593
240.682
265.192
333.433
209.898
-43.5326
-97.1689
-111.768
-190.938
-281.306
-124.637
191.763
333.464
401.766
318.666
174.487
-24.4977
-310.679
-381.891
-226.133
-176.501
-147.997
-136.675
-94.7506
-14.6578
-68.1836
-165.696
-169.599
-62.6381
166.168
463.895
545.166
276.06
-16.6923
-158.3
-125.691
-186.478
-226.699
-295.359
-419.265
-162.753
20.0778
-14.7592
-63.378
-137.223
-76.8002
111.492
289.713
447.526
458.722
446.511
357.955
298.568
348.399
378.533
196.193
6.04495
-96.162
-347.644
-415.72
-507.59
-503.269
-336.902
-213.492
-88.9159
-131.419
-70.6936
62.227
140.663
134.468
28.1214
-201.08
-413.255
-428.756
-149.899
2.47468
70.0518
109.92
349.964
501.151
493.556
472.441
368.781
237.906
44.1766
-51.1686
-88.2764
-110.315
-84.7533
-182.424
-366.364
-534.637
-454.731
-122.635
104.703
238.463
257.408
247.419
193.189
229.608
237.912
16.594
-322.063
-586.102
-552.964
-321.775
86.8306
428.361
391.279
335.755
271.228
216.305
137.349
-73.2798
-300.93
-506.208
-482.072
-321.405
-145.541
-8.10978
65.5605
106.135
159.43
280.742
441.05
529.718
356.686
148.556
49.3156
-64.3489
-136.442
-199.427
-263.468
-289.734
-194.841
118.959
278.428
193.638
128.404
1.32359
-189.547
-180.381
-101.986
-15.4021
-39.1505
-130.666
-226.31
-289.9
-299.514
-269.009
-127.805
128.758
200.645
157.052
125.901
151.758
41.7151
-80.8158
11.7334
145.569
29.0873
-20.543
141.948
182.285
-6.99649
-143.535
-79.0982
-7.30071
-21.3319
129.143
376.285
517.283
606.019
653.652
513.562
134.278
-307.842
-576.831
-733.08
-894.922
-786.486
-506.046
-209.35
-56.3093
36.5859
110.904
82.2856
-26.0495
-0.935799
124.414
166.268
132.062
49.7487
-139.139
-199.156
18.0171
320.887
658.81
747.192
573.67
279.033
71.25
-160.804
-359.573
-247.234
73.781
78.0075
174.926
170.148
-38.9522
-267.795
-444.164
-471.097
-439.924
-446.11
-450.122
-254.105
-161.439
-58.0417
175.482
464.813
561.84
412.089
124.857
6.57112
-48.0582
-9.91229
-59.9916
-118.547
-106.939
6.37579
13.1062
88.9239
162.959
153.201
110.725
-76.614
-186.348
-73.5373
94.4369
129.464
40.081
54.3311
144.291
2.63404
-160.391
-113.976
-60.7926
144.915
293.39
151.832
85.7043
-91.1489
-69.0847
15.5804
-61.4812
-197.159
-289.346
-281.728
-185.483
-95.0986
23.3507
267.235
333.942
181.08
77.7939
-85.5335
-251.883
-310.658
-298.047
-179.762
-49.0216
-30.8399
-100.195
19.5155
154.322
358.472
471.737
366.773
250.7
160.85
-18.5226
-202.345
-217.921
-202.268
-228.183
-96.368
86.3736
22.2929
-234.803
-302.563
-158.901
-27.963
94.2467
116.115
307.54
457.117
365.764
101.175
-119.455
-132.973
16.6936
70.8698
61.2238
14.5561
-73.8839
-167.97
-206.56
-228.754
-93.234
57.8355
15.8332
-5.26648
22.4027
43.072
37.0093
62.9731
206.742
156.843
-199.035
-520.798
-456.544
-266.764
-84.3881
150.523
207.439
239.855
199.357
129.551
174.391
257.946
155.046
99.6111
82.3285
45.6856
-66.7052
-221.371
-321.009
-197.308
48.4369
206.887
190.201
179.513
156.276
103.303
62.7791
-126.212
-351.731
-431.332
-343.347
-218.298
-81.8064
-24.4563
-24.4118
-3.89214
-17.8126
97.0505
250.098
274.441
232.455
117.038
-40.8377
-127.655
-114.038
-122.3
-87.0899
66.376
208.584
358.041
340.808
174.827
76.0576
1.92429
-83.4501
-83.409
15.2901
157.261
56.8764
-194.66
-303.008
-149.68
-61.9545
-166.047
-174.663
-103.172
-91.4155
-106.318
-39.9354
22.1676
11.3942
-41.3891
91.463
235.267
211.397
-57.311
-229.984
-290.746
-233.854
-113.031
-58.7175
-146.528
-212.147
-192.618
-66.9564
129.527
346.826
488.87
546.495
496.971
397.333
296.597
71.39
-18.7235
80.9768
124.715
-77.3761
-322.751
-319.151
-99.8724
99.2452
166.539
185.542
159.981
27.5268
-209.608
-375.688
-416.294
-432.348
-328.2
-236.909
-192.115
-78.0211
-7.98952
-82.9326
-30.503
149.143
236.636
128.535
-54.5375
-241.522
-314.688
-104.21
209.197
405.547
470.547
375.326
260.693
108.121
9.17042
13.9729
25.2171
-57.4838
-212.705
-159.953
46.2861
85.8071
63.2992
122.696
222.679
254.707
150.425
-25.1145
-67.6826
-23.233
55.4241
72.3496
-150.078
-345.877
-514.182
-600.672
-506.434
-271.36
-14.2148
148.291
170.898
241.812
241.047
178.838
197.655
219.65
241.443
164.192
25.9976
-182
-281.647
-234.541
-92.4077
90.1607
189.541
64.2039
-31.1043
-64.206
-61.4004
-23.6967
-42.3833
4.22084
139.557
162.743
7.29509
-133.265
-42.5781
-64.4354
-90.6834
-50.4131
-19.2431
4.24469
-112.501
-35.7635
141.01
229.467
231.4
106.845
-14.1616
-55.7549
-39.0398
-52.8728
-69.4658
32.0108
148.231
197.856
144.329
84.4264
71.954
87.5238
-11.8474
-45.6382
-67.2894
-32.9975
-28.3945
-91.4918
-157.072
-163.829
-142.267
-237.779
-385.397
-346.226
-195.947
-157.041
-156.926
-31.2764
132.71
208.751
147.06
91.76
67.7979
80.9749
281.955
359.985
270.223
276.334
215.425
76.6736
-87.2937
-147.95
-140.804
-138.667
-227.151
-140.078
89.7003
312.686
378.072
164.559
-150.222
-388.44
-290.077
-194.433
-213.592
-172.244
-40.1534
26.3231
42.6149
112.611
170.893
263.848
402.115
336.434
156.478
77.3742
51.2419
0.556081
-178.2
-230.163
-317.946
-434.036
-497.012
-398.129
-70.9203
175.667
312.87
411.288
380.658
244.179
149.778
-14.175
-162.882
-245.321
-339.462
-324.171
-212.99
-131.91
-1.87168
115.489
172.445
253.125
224.399
205.408
153.295
-38.8233
-153.431
-205.512
-140.765
28.303
-4.25689
-80.6126
-40.8527
88.1475
185.476
182.391
112.052
16.7978
25.8518
29.21
-39.5143
-39.8674
112.415
52.0378
-6.34226
141.68
236.737
164.118
-36.9727
-164.233
-127.409
-73.7303
-189.961
-289.146
-175.166
-126.722
-161.462
-279.736
-358.664
-184.278
127.802
446.908
509.056
410.279
231.796
-41.0634
-349.513
-439.831
-377.946
-284.573
-25.5842
284.843
409.81
424.127
396.501
165.616
-59.385
-70.1492
-1.78337
84.4541
218.514
145.203
-11.0135
-86.5466
-280.521
-500.861
-468.791
-250.562
-66.0378
14.2415
83.9593
86.4457
159.535
261.722
269.55
272.239
175.104
-13.427
-81.3718
-128.889
-249.614
-319.801
-295.438
-449.412
-387.538
48.0501
430.988
601.571
519.156
299.583
123.24
-38.934
-15.8014
-39.132
-177.648
-174.85
-97.3683
-118.877
-231.767
-157.318
-32.4502
36.1106
48.0723
266.994
382.48
210.48
-126.812
-363.472
-335.783
-176.79
-56.3487
81.2859
169.834
122.632
85.9341
227.643
245.484
170.199
131.457
-55.7912
-275.326
-277.769
34.5745
120.846
-28.384
-196.784
-205.865
-118.097
-172.758
-228.233
11.0977
241.623
126.046
4.47247
-97.6971
-356.463
-291.743
71.2199
183.821
233.511
340.393
236.238
-47.5739
-89.7197
129.671
274.109
359.673
357.474
327.887
173.326
-171.113
-369.869
-355.577
-455.86
-496.971
-238.289
6.57029
120.822
229.077
354.935
320.034
215.843
69.9843
13.9129
-133.703
-321.699
-356.755
-308.715
-197.721
-17.4523
28.1539
-78.2936
-97.9146
144.218
487.254
596.854
410.946
50.1815
-286.769
-794.345
-1119.11
-582.993
-84.8028
224.481
381.957
407.491
373.681
305.755
93.3048
-35.8866
72.8876
167.144
78.8916
-15.6576
-35.5873
-110.29
-119.412
-10.5294
202.91
458.611
608.118
323.633
109.283
-30.2281
-143.596
-126.89
-146.11
-138.738
-31.3966
-64.7561
-224.968
-323.646
-342.774
-78.4354
200.738
108.692
-15.3243
-138.281
-282.08
-412.155
-479.782
-485.018
-481.26
-279.937
37.9918
165.606
200.128
296.706
521.942
589.262
376.643
170.516
200.993
131.783
-54.2762
45.8181
134.633
67.137
34.6196
159.957
291.862
184.368
167.805
96.4502
-7.70233
-84.711
-240.192
-296.604
-227.141
-85.2203
-49.1614
-112.068
-131.948
-286.849
-425.838
-463.591
-430.738
-290.93
-48.8774
242.331
425.963
421.623
204.69
-1.72248
19.5836
99.0841
189.712
125.611
55.5031
0.959699
83.4702
185.184
213.265
193.461
-36.7813
-156.792
-244.669
-221.435
-70.2021
16.7905
167.08
304.403
220.889
93.7953
-106.125
-397.791
-549.627
-427.086
-191.294
35.0369
169.859
191.792
-12.5517
-202.36
-34.6861
143.168
149.296
185.898
272.641
283.132
238.993
36.7168
-66.8553
-157.492
-214.8
31.8864
230.663
99.6622
-233.06
-351.729
-289.857
-323.054
-119.95
128.586
204.106
241.565
342.571
204.187
-44.1053
-174.969
-245.757
-175.379
-52.2769
122.399
294.198
278.663
92.9746
-29.5159
78.153
84.0291
-131.024
-169.5
-3.64588
96.5523
-72.2232
-253.138
-166.812
93.2316
166.01
67.2478
-47.9431
-112.677
-143.812
-183.741
-252.347
-282.817
-153.529
-7.54423
76.49
208.578
386.751
354.651
78.2561
-112.066
-134.126
-139.482
-12.1086
226.85
236.816
108.943
0.104879
-5.21939
78.1924
159.89
70.5075
20.5121
40.9788
-48.7262
-117.972
-117.215
-265.089
-220.678
-56.6974
-83.3413
-102.243
73.85
86.604
-22.1944
-81.4908
-99.9847
-82.5847
6.69117
75.5613
38.0266
87.0321
116.621
101.254
154.132
160.54
97.5049
90.8369
84.4232
-75.7901
-64.3418
-24.779
-189.371
-261.818
-118.557
50.8698
269.018
351.73
72.3912
-139.843
-167.455
-177.822
-145.381
-90.2762
-66.8934
-143.818
-131.162
12.6205
184.14
199.575
118.414
124.86
104.921
4.06438
-214.594
-225.211
-218.796
-237.002
-62.5457
109.266
63.1548
95.1133
257.382
312.287
337.093
259.901
3.0635
-284.823
-462.088
-346.78
-155.297
77.9218
282.992
224.12
119.654
106.35
41.0187
-50.374
27.2744
157.457
250.797
140.724
-137.748
-330.486
-378.139
-255.541
-108.523
43.9777
130.674
123.048
119.071
104.541
69.0894
60.4104
25.35
-72.8046
-105.986
-71.9004
-97.5454
-180.984
-272.413
-249.155
-161.691
36.5687
202.396
162.777
49.1972
73.8853
0.296664
35.9941
214.796
332.352
293.744
192.706
80.7642
-24.2257
-93.6806
-129.015
-148.5
-186.284
-39.9746
85.9429
87.419
31.9546
-108.991
-191.151
-207.14
-182.924
56.5792
97.4647
-63.2433
-175.136
-128.302
-37.0078
37.9346
61.3837
44.8365
73.6683
-47.287
-79.2378
79.1953
220.185
174.256
160.581
272.418
260.097
238.572
173.985
-57.5171
-184.876
-180.056
-158.405
-206.834
-267.271
-241.726
-187.981
-27.4718
102.119
158.99
78.6105
-31.4956
-30.8867
81.2206
93.3443
9.62476
17.4374
65.0859
138.862
109.818
-38.3607
-218.012
-297.067
-237.266
-152.842
-234.546
-272.425
-114.333
45.9008
225.531
446.329
439.948
285.142
225.132
110.148
-88.2782
-243.479
-263.548
-154.338
15.7821
142.227
206.847
257.15
241.888
166.156
148.628
120.202
-40.182
-188.867
-131.803
-56.8171
-179.586
-281.632
-269.271
-220.35
-170.491
-71.1316
-30.8896
-71.2656
-116.207
-96.4044
46.395
157.61
166.4
160.065
224.561
105.993
-220.761
-310.979
-302.141
-324.57
-287.203
-10.1159
279.433
432.661
564.987
526.368
336.294
163.067
28.3183
-139.018
-138.025
67.0754
116.646
49.9549
6.267
57.5546
26.5564
-218.042
-293.56
-69.4906
120.439
-30.9918
-190.523
-114.038
-183.301
-262.289
-278.63
-266.963
-92.9396
43.0238
6.42066
-47.6436
1.98561
64.1732
107.95
207.305
292.828
324.059
257.492
61.7763
8.05691
5.47032
-105.992
-264.242
-244.066
-24.4087
127.539
57.3557
-149.299
-169.617
-85.8754
-70.2079
43.6549
251.527
164.278
-34.2909
-21.424
116.979
153.849
141.558
101.78
77.0419
102.985
92.1259
11.4306
-152.768
-215.222
-73.9878
77.5345
92.3839
8.53341
-115.701
-201.172
-205.844
-163.829
-231.568
-205.274
36.4919
181.997
105.311
107.718
182.313
53.2271
-95.1249
-81.2329
22.5792
83.2888
145.107
218.865
186.273
99.5079
21.8368
-141.691
-321.802
-397.096
-179.19
-103.881
-96.1511
-11.9979
116.547
68.4506
-56.8422
-139.863
-32.8551
127.705
148.329
103.882
2.13621
7.73767
123.052
203.801
312.033
469.927
539.035
360.963
9.51112
-217.456
-467.933
-437.732
-124.989
17.0962
-27.6546
11.4896
-5.85852
-209.398
-270.464
-144.33
-147.74
-332.219
-403.11
-319.162
-271.256
-150.981
-61.2924
206.37
481.958
649.331
664.106
500.214
40.8742
-344.183
-247.166
125.768
221.088
148.094
142.482
109.578
40.4877
134.427
260.663
142.092
28.3924
-160.103
-377.914
-496.329
-535.126
-420.522
-233.735
-251.757
-141.381
108.739
120.755
23.6884
21.2886
56.3431
38.3249
-31.5792
6.33467
-14.752
49.3632
130.446
-25.1255
-32.9924
175.524
335.27
386.431
311.775
296.699
303.263
138.129
-1.98259
19.8813
-64.0304
-193.645
-165.852
-101.194
-68.8523
-89.3888
-83.1715
-46.2284
88.7559
116.897
-25.6045
-112.224
-65.9747
-36.9582
-72.8061
-104.5
-297.366
-474.528
-347.026
-228.135
-123.448
-3.86488
111.415
94.7146
68.6273
139.204
265.825
178.5
-7.6152
-88.9734
-43.7441
34.6881
98.553
143.35
33.8758
-190.077
-175.457
87.0592
353.251
326.651
74.9635
-90.0026
-145.988
-34.8202
224.218
508.78
461.537
224.808
120.849
30.0665
-168.126
-303.209
-325.661
-175.883
46.4642
120.132
100.822
3.86315
-211.149
-379.027
-374.944
-166.54
-60.9317
-215.995
-202.394
-181.541
-169.174
-32.4155
35.7326
3.64718
88.6515
208.595
163.552
14.7925
-47.1488
33.4745
71.921
49.5559
123.63
151.341
204.271
247.961
169.815
123.429
13.487
-98.6306
-102.461
-65.9052
-7.61759
71.1945
138.375
33.935
-119.878
-128.755
-99.2577
46.8158
257.452
237.533
-49.4846
-162.349
-18.9789
13.953
-4.71154
29.6275
-7.99544
-115.119
-148.519
-132.245
-165.471
-99.3818
-137.046
-175.744
-214.324
-119.399
72.8069
-0.798875
-30.7946
29.6367
93.6483
179.349
149.781
128.499
171.208
154.636
81.3041
-30.7308
-10.2556
67.7893
84.7352
227.184
282.094
75.8858
-195.08
-500.612
-548.092
-256.357
-9.57896
165.906
255.634
248.053
204.4
79.8287
-80.9003
-99.9697
-140.333
-151.237
-91.6133
-76.094
-15.0654
-61.9183
-182.559
-5.03092
328.293
522.242
461.597
214.148
-1.38114
-153.161
-206.478
-294.903
-444.679
-379.902
-119.311
125.795
306.767
387.984
356.099
165.393
-234.89
-533.914
-378.411
-61.6626
129.254
189.179
102.857
47.9297
68.434
101.375
62.9081
1.56578
-91.6526
-278.662
-327.076
-195.684
-65.2146
-7.92639
-52.1807
-44.3625
228.676
387.065
353.467
260.01
162.307
137.466
140.885
29.1653
-147.904
-250.382
-315.374
-131.846
124.057
202.734
157.436
104.369
-34.1141
-192.201
-294.108
-242.215
8.61839
183.336
153.608
80.507
47.6132
-39.4525
-134.111
-27.8166
13.0036
-128.047
-307.621
-486.607
-322.345
77.0309
208.564
158.054
117.726
77.2623
95.3568
135.361
96.8465
19.3817
-19.4749
-48.5569
-14.8024
33.7162
98.7438
63.149
40.0036
199.396
340.474
375.059
131.593
-149.277
-133.81
-140.951
-206.021
-107.53
18.3191
118.088
169.233
176.456
131.627
87.5634
12.7372
-293.262
-430.905
-385.122
-484.037
-535.973
-258.097
73.4673
241.949
265.38
207.913
123.456
188.096
217.659
173.005
108.109
10.8605
-84.0123
-245.757
-434.823
-428.007
-13.0989
254.542
254.686
288.896
311.341
216.831
90.2549
-140.267
-173.844
1.40695
93.1499
41.8651
-38.9905
-97.4628
-168.41
-156.907
-155.128
-91.5449
209.256
430.337
299.338
158.357
160.048
94.1144
-97.9914
-129.091
-3.99327
136.69
42.9519
-275.274
-433.794
-349.521
-226.184
-159.466
-69.5303
-1.63342
125.129
196.623
126.667
-71.4301
-209.329
-191.193
-130.428
-22.3972
120.738
347.019
318.077
125.206
77.6634
124.344
133.396
-33.7467
-179.373
-217.68
-119.983
112.851
117.274
13.2941
-81.3051
-20.2049
85.3462
88.2273
-106.298
-165.289
83.2019
23.0405
-33.3145
57.8945
99.0951
48.8673
-75.0132
-34.716
83.1578
126.105
95.6825
-83.0021
-115.211
35.301
158.705
141.265
42.7438
-88.7309
-65.3758
-109.983
-357.137
-458.728
-338.067
-253.514
-58.6656
173.894
384.189
443.721
324.77
160.501
18.3348
-145.273
-181.155
-107.085
-114.566
-88.3177
-3.66796
80.4495
116.789
160.625
357.152
321.568
27.1525
-144.098
-253.546
-219.32
-159.386
-213.023
-257.912
-243.667
-204.91
-131.319
115.905
322.384
352.727
329.103
401.521
325.111
98.489
-24.8661
-100.494
-165.318
-343.545
-265.995
-64.2805
93.5534
201.573
292.288
342.656
205.477
-94.2193
-381.797
-451.997
-337.034
-217.698
-150.949
-110.578
-55.6621
-110.386
-301.77
-252.276
77.2356
370.102
455.336
395.394
181.771
-36.2426
-192.337
-138.084
165.895
363.529
419.41
235.063
-53.2738
-219.543
-201.204
-120.169
58.5948
303.408
429.376
336.026
183.883
73.1658
-131.976
-486.559
-734.769
-817.577
-590.83
-351.72
-300.489
-109.085
205.359
348.536
358.504
326.732
179.762
-34.7947
-77.695
-22.1398
57.6979
26.211
-24.1186
77.5903
137.582
202.772
304.236
452.011
401.156
207.003
32.7337
-135.359
-294.809
-408.842
-298.898
-87.8868
30.714
80.7195
32.1351
1.35629
72.3063
129.765
56.5584
-188.72
-357.099
-397.975
-272.969
68.8214
331.451
387.605
435.057
381.804
152.78
-131.637
-410.784
-427.598
-360.972
-272.774
-171.801
-136.375
-184.439
-222.558
-182.175
25.318
285.914
454.504
508.929
454.025
323.78
67.2871
-178.609
-318.194
-370.741
-215.276
75.6978
148.426
159.242
207.81
129.106
74.0285
142.711
199.102
202.606
191.395
158.31
3.83265
-273.886
-497.822
-575.982
-391.8
-104.248
188.405
378.844
369.41
164.774
-75.2427
-254.764
-321.228
-308.946
-225.27
31.6322
187.685
154.471
139.917
128.706
35.376
-50.6853
-114.603
-111.409
-58.6355
-116.708
-82.9378
2.65874
64.6066
83.8437
24.1001
246.927
441.133
287.808
35.1311
-176.052
-409.518
-582.643
-489.149
-187.794
154.252
402.405
401.524
334.837
242.333
162.635
-15.101
-188.948
-96.4621
37.5803
121.015
163.509
171.206
137.173
90.62
24.3318
15.2024
28.4087
3.30162
-35.0569
-88.4221
-169.608
-262.616
-381.267
-442.21
-376.559
-166.364
138.999
166.068
68.7703
-44.2206
-283.021
-444.045
-116.121
279.15
419.314
341.238
234.717
147.824
-145.1
-232.916
-103.829
23.1292
122.042
226.366
320.354
228.432
100.692
79.4215
100.897
130.337
46.6547
-142.164
-304.247
-387.962
-369.558
-181.712
5.90688
94.4041
197.302
244.726
169.512
116.37
63.0714
-2.35163
-74.3489
-109.04
-71.0972
22.2109
86.5763
81.8419
163.518
127.798
-168
-393.559
-244.972
46.4545
134.206
103.332
61.4202
18.2551
-87.7796
-185.111
-156.416
-90.8465
-92.9706
-129.276
-111.257
-102.634
-39.1446
135.172
156.983
150.095
206.063
191.162
11.9152
-125.841
-22.9324
79.7455
150.72
112.479
135.185
191.698
202.481
114.822
-48.0976
-108.929
-237.071
-282.035
-286.306
-292.779
-286.383
-145.985
113.034
418.571
487.745
224.786
-128.685
-333.045
-363.746
-228.086
-55.8393
5.04927
-41.8145
0.899317
170.404
323.687
402.712
391.465
315.055
166.989
91.3239
-19.2249
-128.564
-241.201
-323.825
-187.263
44.5072
112.148
82.9505
-10.7221
-134.329
-252.132
-314.337
-276.779
-102.655
-19.7741
-94.6331
-154.363
-168.304
-53.4514
155.627
336.821
413.081
284.29
83.7208
-95.4502
-113.585
-30.5577
75.697
106.064
35.8064
-27.9319
7.48186
96.753
112.521
130.319
129.084
15.9634
-136.395
-325.63
-391.931
-242.506
-98.766
90.285
160.812
168.124
94.9821
102.807
162.409
60.3858
-3.83115
9.22634
12.2804
-0.767287
2.22864
-62.8206
-53.6457
59.309
142.132
168.044
131.499
-109.808
-471.61
-580.229
-328.285
-75.337
47.4336
146.859
163.326
99.7538
125.991
102.706
23.6509
0.608529
107.868
171.908
115.265
11.9168
-8.42481
0.0205301
-189.212
-418.952
-116.502
303.576
204.333
121.539
281.631
111.87
-67.9119
-3.57188
30.4751
84.9032
172.069
115.359
-63.5466
-194.961
-197.187
-160.194
-201.23
-163.661
-52.8537
38.0855
-32.2471
-160.288
-67.5226
-110.356
-185.726
-14.1816
86.9798
123.141
110.654
116.573
139.376
73.9109
-62.95
-130.294
-149.907
-73.8025
99.6618
213.838
263.477
365.307
277.736
26.2926
-63.4826
-51.255
-120.387
-147.277
-93.6573
-57.0396
-153.725
-287.79
-243.272
-42.9954
87.3136
128.88
210.709
221.16
94.3175
-24.5182
-78.9877
108.394
210.477
86.5964
-106.609
-232.769
-230.354
-164.38
-169.882
-177.836
-66.8886
103.173
215.6
246.738
211.73
142.957
71.9158
-22.2071
-86.5942
-93.1394
-52.8214
-187.533
-359.331
-344.347
-69.8038
209.373
275.193
205.143
113.732
7.39768
31.7248
117.622
106.727
118.462
130.348
107.647
23.8221
-50.2304
-147.298
-237.94
-201.759
-83.5207
129.01
231.43
177.773
68.432
-18.068
-73.4738
-44.8483
-6.94596
-143.409
-308.028
-408.351
-447.884
-364.501
-143.02
129.763
257.625
348.932
372.798
377.821
300.184
155.305
81.9608
-2.85127
-124.44
-286.496
-329.166
-109.047
34.8228
79.5442
164.283
243.737
164.107
102.903
27.3977
-127.594
-129.055
-15.1417
73.6197
54.3287
49.3121
39.5484
-98.2406
-327.495
-230.135
-21.6817
11.8983
-65.7446
-53.5594
63.0999
105.251
64.9866
50.2674
18.8253
49.0736
46.2304
-81.6999
-213.146
-234.782
-206.749
-253.906
-151.335
135.21
372.989
393.407
397.926
425.1
217.991
34.8006
-0.864179
-57.3628
-156.864
-175.086
-201.495
-421.258
-433.394
-85.0095
112.6
155.877
194.635
267.274
161.481
-1.5042
-85.4721
-88.1146
-85.6161
-121.64
-111.477
-49.0072
-13.0836
-11.5307
31.7755
53.5336
27.466
86.9939
126.488
70.8115
67.3171
98.9733
80.9041
40.6338
23.4721
-11.1323
-12.1002
-61.7911
-160.918
-199.051
-183.65
-177.757
-146.78
-26.1862
139.578
226.108
199.696
152.062
24.323
-121.169
-87.9922
-132.286
-248.664
-171.68
-44.2125
56.4847
134.542
137.984
144.558
178.754
171.514
139.012
20.3561
-70.0957
-71.1395
-71.6968
-64.0424
6.18884
147.795
183.011
87.997
23.9319
23.9956
-10.511
-7.38513
66.7656
77.2501
-41.2844
-212.219
-252.47
-110.029
-66.4774
-143.339
-189.108
-204.781
-174.724
-84.2125
117.756
168.378
-23.8851
-36.2694
-10.7032
-54.8649
-97.7079
-6.75537
58.7238
28.8827
34.0517
172.579
278.33
259.751
240.849
318.046
297.296
142.92
17.0116
-124.332
-280.444
-352.282
-229.558
-197.195
-225.467
-123.098
-28.8075
-14.7354
100.485
237.629
344.604
252.157
50.9876
-27.7056
-59.1208
-140.926
-112.281
11.6417
68.4605
59.9264
6.89234
-7.43535
11.2303
16.8443
64.3753
95.1242
-85.0597
-276.402
-468.366
-456.275
-283.932
-48.9656
97.0828
94.5351
79.5563
142.851
109.165
-30.6028
-29.8522
153.237
304.1
303.438
141.678
0.937633
-23.0878
35.5021
160.493
177.487
105.108
-60.0952
-99.4261
-101.783
-87.0162
-103.769
7.06034
131.055
122.429
-55.2181
-276.044
-207.677
-173.945
-143.588
-2.71459
43.8471
-17.1402
-90.8638
-48.2981
108.786
89.1393
30.8974
32.1764
14.9563
-52.6224
-16.6544
37.3204
64.642
78.6384
110.901
140.994
43.3468
-45.4409
-42.4414
-19.0514
27.1291
45.2775
6.43646
31.5093
-72.5582
-84.1494
73.236
218.996
237.255
144.362
87.8115
-46.6577
-203.428
-261.123
-231.949
-169.632
-220.94
-216.333
-96.9915
-82.4085
-110.541
-35.0717
-55.393
-98.8357
46.4175
187.555
218.129
149.024
104.439
89.9042
87.6674
111.203
189.611
258.888
172.675
43.8985
-12.6906
30.2555
-0.978221
-65.318
-87.0933
-52.7003
21.8751
59.1799
80.6679
94.0487
-99.997
-279.953
-274.023
-235.754
-203.479
-155.132
-116.48
-69.1909
68.2431
224.108
242.888
65.4005
-84.2272
-70.3989
-102.146
-147.314
-172.577
-187.699
-115.534
32.9469
197.09
287.622
375.389
406.451
202.782
36.7834
-76.1558
-85.0072
-9.6429
38.5527
36.521
-24.6425
-5.46563
91.8682
153.21
46.3443
-72.7016
-161.965
-184.014
-62.4531
102.351
84.4461
-55.7819
-200.682
-256.508
-207.544
-130.206
-98.0835
-83.2141
-33.3006
46.3501
90.927
68.9186
0.446849
0.321103
120.225
195.806
318.844
157.064
-171.579
-281.531
-203.987
-233.213
-160.565
3.93478
28.6437
65.0574
175.431
271.513
283.124
202.109
155.089
150.201
127.282
101.362
19.9333
-26.2484
-87.9867
-116.816
-157.348
-139.409
-157.145
-167.101
-68.0528
85.4743
112.122
108.646
85.8447
-21.9901
-151.158
-221.71
-231.602
-313.65
-274.229
-188.118
-159.186
-67.8267
83.4479
183.502
243.15
213.632
82.9735
43.181
109.693
149.178
191.691
170.925
83.5375
26.8193
28.917
81.9315
205.437
282.026
142.723
-28.7395
-8.7643
25.8164
-70.06
-184.797
-350.421
-373.819
-197.91
92.8316
195.911
96.4031
23.1759
-46.3238
-234.472
-373.673
-348.438
-352.591
-307.402
-37.2727
158.506
166.243
68.1435
133.66
250.494
268.581
284.938
220.356
154.094
148.411
94.7906
46.7823
77.5389
52.5687
45.9542
39.7575
-93.0233
-189.542
-146.923
-47.7683
41.2352
105.795
161.845
87.8039
-93.821
-200.624
-239.012
-248.164
-284.349
-412.201
-317.611
-65.6278
43.7431
164.96
365.599
434.947
366.756
255.676
35.9747
-228.767
-283.905
-258.232
-298.145
-211.657
-34.5716
189.916
389.818
459.857
340.648
95.9909
-134.505
-337.697
-370.154
-345.857
-226.773
-72.7248
124.493
278.68
280.789
205.614
158.914
200.559
271.301
270.36
245.174
122.001
-48.9523
-162.159
-161.513
-143.311
-250.356
-439.016
-458.718
-201.119
25.7271
100.968
101.661
47.8869
42.5515
31.154
-36.8089
-125.518
-85.8253
-100.198
-137.156
20.2639
196.913
195.968
121.981
35.0277
-78.0765
-160.676
-261.092
-154.836
37.4535
163.201
138.692
2.74166
-57.25
-11.4206
42.881
114.116
135.232
127.364
80.3045
-0.135671
3.63008
97.5743
205.695
381.572
482.765
445.011
300.446
-4.23291
-346.732
-486.162
-429.573
-173.943
-1.91539
1.86598
-0.220825
74.9969
127.999
52.6454
-193.417
-458.207
-530.119
-655.794
-639.654
-429.579
-188.137
56.7756
293.434
346.125
255.061
314.574
350.558
316.667
271.433
117.664
9.21096
13.8124
-56.687
-127.979
8.37552
213.293
308.122
441.902
403.241
229.69
87.3793
32.0825
17.434
-109.073
-202.568
-319.641
-379.51
-334.617
-222.135
-130.605
-66.8672
-95.3486
-62.6709
19.8296
64.903
-12.0889
-116.31
-208.103
-161.455
-107.972
-74.0149
-24.6856
21.9409
116.471
185.944
246.379
334.507
281.197
143.842
108.131
42.5515
-84.21
-178.733
-153.114
-171.174
-184.732
-105.475
82.2045
162.428
164.866
261.774
303.862
149.02
-12.8228
-98.4047
-133.134
-162.112
-168.903
-175.643
-201.807
-180.455
35.9573
281.028
400.898
419.044
280.455
-79.7712
-557.318
-797.855
-495.818
-146.092
-74.7997
93.4177
204.373
126.279
-47.9207
-56.2679
98.7266
257.68
334.872
258.875
-5.21857
-202.24
-200.011
-79.777
130.243
254.508
377.936
550.176
393.136
32.7953
-119.593
-143.318
-174.172
-203.857
-109.099
-66.9364
-93.4497
-219.19
-306.115
-176.636
-95.191
-165.968
-200.741
-115.255
-50.1362
104.181
180.345
51.6584
-81.3018
-125.245
2.80618
113.612
141.751
137.57
79.4886
-7.11425
-110.994
-52.1508
138.93
214.108
147.855
150.453
102.002
-41.1154
-88.6294
35.5729
185.006
171.951
101.255
72.9638
-21.8362
-209.057
-310.003
-184.947
-137.977
-181.616
-87.0698
64.1065
118.154
56.7385
37.822
50.5647
51.3357
27.317
-39.6964
-38.5985
52.1086
61.6015
-84.5041
-142.314
-165.054
-255.367
-172.07
21.6659
207.514
225.676
171.104
142.964
121.678
89.7857
85.4804
40.206
-61.817
-89.5764
-1.93627
4.2316
-110.505
-114.882
37.7659
61.3165
34.39
45.3573
55.8675
-7.0237
-64.321
-65.7586
-98.0563
-126.097
-143.606
-135.422
-63.6892
35.9346
104.505
135.171
105.883
29.6109
5.04752
36.8572
-20.13
-94.0688
-38.3225
97.346
156.107
106.435
-10.7615
-100.205
-17.8888
3.0873
-61.4244
-123.601
-105.798
-86.3235
-69.3659
-40.5006
-16.368
67.9638
157.359
240.919
247.316
221.07
154.79
84.0462
-93.1766
-307.656
-340.999
-185.357
-82.8065
22.7202
139.777
159.726
30.0495
41.2497
253.594
321.322
156.543
-80.9234
-258.578
-419.396
-522.183
-326.676
-8.19505
124.302
-4.98212
-71.4355
45.4106
222.223
265.499
79.7322
-125.644
-120.157
-19.1507
28.4628
-45.682
-81.2724
-16.1351
132.807
211.453
139.72
0.817846
-22.1097
-28.1069
-43.3219
132.598
344.423
319.836
240.167
149.311
50.8679
-93.1777
-189.839
-64.3423
-48.7012
-92.6919
-86.0839
-44.4061
-102.11
-177.863
-220.573
-265.579
-280.254
-223.295
-159.363
-49.1046
39.3475
164.949
185.641
103.846
43.3326
49.6932
22.4838
-33.46
-34.2941
-128.386
-96.8719
19.0835
31.59
62.7478
110.786
215.439
225.629
151.835
172.487
106.345
28.022
-23.693
-140.935
-166.098
-70.8202
68.0951
163.785
125.235
-13.7062
-100.638
-243.108
-307.19
-137.047
104.412
214.128
200.583
154.759
84.0516
74.6031
110.517
92.2873
34.7039
-32.3352
-135.117
-224.343
-379.006
-459.225
-331.644
14.8519
281.364
307.662
207.6
73.0166
-39.0861
-39.074
44.8291
42.5759
3.91684
-52.5458
-99.764
-123.965
-146.547
-142.414
-102.207
-5.09808
151.879
274.189
237.158
84.7629
-26.9296
-24.2879
-10.8169
-75.7873
-136.815
-1.67616
152.76
43.0422
9.70984
87.9959
58.5949
-48.5383
-209.274
-317.888
-123.506
94.2359
150.025
51.8631
25.3103
38.2856
-23.769
-126.574
-81.4618
148.298
324.652
282.788
187.31
147.741
15.7857
-133.934
-114.748
-53.1216
64.7668
192.15
154.188
43.4726
-46.8002
-94.3396
-236.738
-387.768
-364.856
-198.649
-52.8369
-52.5011
-100.257
-122.052
-83.0328
-1.63712
42.0885
31.1776
43.5704
96.1059
167.607
207.029
187.718
138.134
88.4262
-11.16
-116.351
-178.471
-192.549
-155.651
-47.2226
26.0104
150.501
319.093
394.593
363.374
277.826
147.39
-31.7569
-190.75
-327.746
-320.083
-316.299
-305.526
-148.687
96.0287
172.631
182.623
332.239
375.619
124.277
-93.3659
-280.191
-473.525
-535.256
-363.047
-134.864
97.3756
292.096
384.786
317.642
142.658
-4.38927
22.5503
81.7533
110.569
145.616
124.827
-2.53964
-165.394
-218.138
-277.555
-312.622
-117.738
32.9738
2.71595
7.55394
1.39305
32.6336
33.7652
8.25183
31.2827
152.886
155.088
73.2529
14.3795
40.5235
38.8525
-13.3992
82.7485
159.027
172.518
110.663
-80.2822
-118.743
-42.8463
-48.1974
-98.2197
-116.319
-107.998
-50.045
-21.1595
-71.2739
-97.6115
-61.5561
-28.0995
32.0359
112.492
189.091
175.914
94.9055
-31.1732
-87.0209
-211.185
-395.785
-411.363
-314.618
-155.882
40.1423
189.462
310.488
421.86
411.459
309.32
145.961
46.3168
8.64181
-41.246
-143.386
-153.779
-67.9138
11.7205
63.1642
95.1726
82.6719
-2.84317
-140.765
-201.098
-122.865
-33.1273
4.15083
-63.6169
-83.042
-36.4784
35.957
80.0322
59.4286
47.2272
31.2316
-2.04054
-34.0923
-3.46242
88.1827
89.0266
-0.812013
48.7767
149.133
111.467
-46.2592
-135.929
-181.914
-129.32
-2.06696
23.9657
-29.0803
-89.5917
-184.764
-272.51
-404.364
-473.44
-147.367
224.115
324.772
416.462
499.315
397.608
266.938
213.573
104.521
18.7498
60.1982
54.5892
-48.28
-155.697
-182.705
-143.652
-119.426
-76.5704
66.8953
152.35
-14.2539
-153.099
-191.916
-169.324
-70.9516
-79.626
-206.486
-190.831
-182.304
-242.466
-235.115
-125.171
4.70892
99.6928
196.523
243.624
300.707
405.447
429.504
339.447
223.574
87.5757
29.709
45.5435
8.13778
-54.025
-70.141
-77.4533
-134.68
-180.12
-154.232
-60.389
-111.474
-177.598
-209.873
-115.514
80.1833
194.064
204.677
109.003
-8.37679
-91.3044
-150.391
-203.452
-187.935
-61.6708
-17.5337
-133.314
-51.4493
124.905
87.8998
-41.8795
-154.351
-206.529
-33.5679
102.881
124.495
171.43
210.886
230.864
231.659
160.686
-29.1719
-118.699
-50.8115
-7.72897
49.5921
147.378
145.436
97.0426
79.272
29.7757
48.1242
36.9847
-127.7
-276.686
-210.495
-168.619
-181.874
-89.9938
-68.606
-76.8591
62.9405
217.829
257.822
141.582
61.2307
0.990969
-84.7224
-121.109
-154.171
-79.7655
44.1164
75.9985
-54.7818
-169.258
-170.357
-114.782
-69.5327
-22.5552
10.0641
56.6294
109.412
67.7563
-33.5711
-41.1529
39.2726
133.993
180.784
159.566
101.348
12.3848
-42.586
4.74073
123.586
212.009
113.501
-63.629
-123.371
-104.553
-74.015
-20.0852
18.2231
1.74654
-19.359
1.81376
-8.36321
-113.957
-229.072
-229.601
-164.906
-158.875
-125.364
88.1426
348.065
454.209
339.917
248.858
161.168
19.9221
-120.167
-235.467
-274.883
-272.405
-321.706
-346.627
-242.113
-50.7462
143.194
243.501
246.654
227.311
212.138
118.253
10.3827
-80.529
-139.097
-161.488
-184.703
-188.957
-129.486
-33.9552
121.899
256.902
318.765
316.634
236.01
131.459
26.863
-64.3493
-15.8653
26.8216
-3.76538
-36.6884
-89.5824
-81.8925
-64.2304
-133.852
-177.16
-68.3649
69.9518
104.226
-20.4224
-117.279
-82.5764
32.3843
80.5353
-20.7713
-97.5646
-70.0175
-143.1
-220.171
-171.435
-26.4647
-35.7331
-124.319
-114.936
-5.93446
279.827
435.73
396.625
324.989
251.442
71.2449
-66.6755
-170.835
-222.847
-164.304
-135.88
-230.255
-103.889
115.875
141.527
104.613
99.3531
16.7229
37.7405
152.091
86.5079
-76.0719
-154.643
-269.149
-434.88
-485.828
-367.025
-89.2663
195.867
353.668
391.701
413.479
344.104
228.781
154.314
49.8944
24.4533
56.7058
25.6981
-65.7055
-127.79
-130.707
-111.298
-38.4889
79.1504
200.255
193.991
71.0356
-59.3418
-83.7289
-86.5441
-115.505
-167.788
-220.756
-282.407
-325.842
-308.468
-213.074
-107.197
-78.8074
-54.3962
4.48932
49.8324
109.734
174.536
223.846
225.802
166.145
73.1336
30.4006
38.5199
74.152
82.9681
67.1053
75.3278
86.2289
81.1632
56.0596
16.9806
-0.674534
-31.6891
-46.7115
-38.506
-19.2856
8.49867
26.1209
25.6798
28.3376
11.2212
-42.7806
-59.8614
-45.2949
-39.783
-42.1258
-30.5863
-27.5529
-26.9988
-2.71479
-5.04324
-20.9061
-34.8875
-50.5836
-48.9097
-44.3568
-16.5713
28.3617
31.899
12.3272
0.573003
-17.4474
-21.9985
-21.9614
-12.1005
9.5615
15.6768
12.6376
4.4856
-4.88291
-15.1643
-28.4519
-16.4495
12.6957
19.6004
18.565
17.1672
4.97569
10.0971
3.58884
9.40317
46.729
53.397
52.7135
58.1842
35.8989
7.62812
-12.3574
-9.21398
-3.11261
-7.71837
-4.4838
-1.98506
-14.0644
-21.9825
-14.2726
-11.2751
5.5715
2.72921
-8.21838
-17.3229
-46.5538
-44.5399
-28.8314
-25.1412
-23.7222
-6.51264
5.55709
-15.8991
-34.4262
-33.1156
-13.3825
19.2525
65.74
131.954
170.174
145.931
75.4307
25.1238
-3.28348
-56.3404
-112.434
-116.501
-105.266
-60.9324
-28.7359
-21.9311
-12.678
-7.95529
-1.54286
21.1519
26.1904
36.9247
16.2137
-18.5312
-41.4861
-56.4007
-62.048
-36.0848
-42.5206
-22.2786
44.995
121.98
185.801
131.701
29.9742
-35.328
-70.4198
-85.9404
-115.336
-119.305
-74.0123
-2.93155
43.4832
57.3083
36.8374
41.1885
81.1512
109.058
110.791
92.4008
54.3828
-4.6905
-28.4888
-38.6771
-3.94181
18.3606
16.7564
35.7094
49.4795
27.2439
-26.2293
-118.402
-142.474
-144.004
-113.862
-67.7307
-48.3875
-18.2626
27.9814
59.0439
31.9355
5.16242
-12.328
-32.1553
-55.1976
-79.1648
-7.58583
49.0476
69.0691
29.5873
14.0935
29.4327
4.63224
-32.1851
-31.8482
2.57818
59.2714
64.0091
39.1529
-1.61839
-19.3069
-24.3542
-31.8023
3.23384
82.3581
119.936
75.9245
23.8023
5.22949
5.14361
-0.72132
-11.7912
-16.6564
9.05998
19.0483
-0.293898
-31.5293
-48.162
-35.7753
-14.4389
5.02009
38.2001
18.4455
-14.3288
-42.2507
-18.4061
-4.78856
-4.58842
-14.1795
-8.4122
-2.56861
-10.9506
-2.93787
1.58408
-5.54119
-15.8878
-38.2361
-34.2241
-10.1909
-11.7903
-0.854905
29.1908
39.6437
27.0955
-14.8864
-72.0508
-117.129
-147.809
-123.147
-12.1779
69.6352
84.9599
87.2615
63.1242
63.3849
84.3919
70.7755
30.3722
2.22164
-13.5437
-7.70268
0.803227
16.2606
49.9212
38.4663
47.1165
64.8706
94.2448
84.4745
45.8843
-0.316059
-48.1469
-98.8397
-88.9414
-76.377
-109.72
-114.435
-78.518
-51.4625
-19.3206
14.3938
0.467021
-20.5458
-18.5665
11.9096
25.9842
44.4616
41.5781
-19.6684
-103.398
-110.951
-40.1142
63.4583
83.2255
64.2347
74.9531
84.6897
54.9989
52.7455
43.1643
26.4698
-17.0287
-39.6384
-30.3248
12.9035
4.00912
30.253
55.875
111.533
127.091
79.4166
39.0415
-54.1506
-164.259
-199.263
-178.172
-128.69
-95.0325
-79.714
-27.8226
23.5013
26.317
39.8876
69.4012
68.073
79.3103
38.0609
-34.9569
-23.7926
-72.0884
-20.7687
66.9636
77.4544
34.4823
29.3956
72.4713
0.656743
-106.394
-147.632
-68.5394
112.428
179.192
100.621
75.4824
143.896
144.03
103.761
1.21405
-187.283
-266.454
-258.535
-191.117
-196.905
-126.051
-83.2266
-125.985
-123.571
0.0956379
217.636
335.758
284.032
149.013
20.6978
-38.807
-63.0326
-8.59864
67.9816
99.2927
180.099
225.159
227.638
125.959
46.3781
-46.1975
-81.371
-40.9251
57.6599
92.1468
3.66383
-107.117
-177.37
-297.752
-248.523
-180.012
-257.575
-385.388
-389.949
-173.919
58.149
249.64
265.912
60.862
-53.34
30.8094
174.943
268.033
233.638
137.63
49.6642
-84.1026
-217.166
-177.915
-87.6485
-10.6111
65.35
153.473
176.976
91.8319
-38.8815
-132.507
-182.07
-40.814
142.373
254.395
253.646
198.595
118.862
29.7464
-52.4103
-171.174
-190.639
-51.6942
-52.5005
-40.7411
79.2077
162.4
219.177
166.127
141.852
11.6804
-179.834
-284.116
-290.873
-302.038
-242.123
-223.183
-201.337
-115.769
-88.097
-26.8393
173.641
326.733
339.214
289.853
4.33798
-254.643
-257.872
-124.234
54.1906
103.316
132.897
180.214
133.848
33.5789
-61.3597
-68.6675
-45.9227
-29.436
109.481
323.514
266.087
123.845
26.6398
-71.7718
-103.387
-77.4822
-146.841
-231.871
-210.063
-73.6163
63.3764
98.5257
41.623
0.929168
-31.3454
2.17371
34.0523
6.17993
-19.0148
9.85323
114.336
72.17
84.4351
-8.28119
-143.949
-224.356
-334.545
-345.386
-167.959
60.9094
190.379
269.664
251.536
138.492
44.2946
6.64993
-14.6598
-47.2704
-17.1931
-6.67272
-114.977
-199.794
-74.897
33.2514
83.4373
192.626
231.605
199.15
60.7782
-60.7934
-70.0905
-52.5648
-10.6209
47.3611
30.2545
-11.6429
19.8825
125.703
110.645
20.5989
-22.7611
-125.462
-351.79
-295.722
53.2747
329.13
482.995
475.543
46.6616
-435.889
-560.738
-489.163
-282.54
-79.0594
112.809
175.644
100.099
71.2525
43.0775
-19.8006
-94.1472
-56.2328
191.743
196.853
-15.4219
-317.946
-428.471
-383.134
-233.958
122.862
364.222
427.157
336.666
258.371
162.677
34.9025
-50.1176
53.3054
264.482
262.36
177.082
56.2352
-170.596
-300.165
-266.637
-142.751
-0.706758
235.616
406.524
263.038
32.4324
-175.646
-331.162
-438.085
-377.03
-176.561
9.14145
-3.0303
-36.6915
85.9785
142.762
-24.4655
-273.643
-332.324
-202.749
2.82313
143.671
162.522
191.967
228.689
145.579
18.7973
-4.99582
13.7045
-47.3709
-152.24
-154.93
-113.144
-115.69
-70.2616
84.4997
240.07
326.059
453.367
494.445
379.837
193.797
-62.1102
-234.329
-300.381
-162.45
-33.7656
-2.83512
-5.93502
-48.2354
-167.862
-243.086
-142.748
-66.3817
-4.6894
-75.0431
-65.0782
-58.8698
-91.7525
-67.761
1.42742
79.3332
82.5367
31.9951
-64.3243
-172.92
-131.035
-36.7768
-5.17961
1.90562
96.2444
292.854
312.013
178.372
-131.577
-393.731
-398.453
-71.2502
102.253
51.9406
70.4934
86.2768
47.5365
7.61623
204.756
382.614
310.584
150.864
71.1903
74.2464
85.4768
57.0148
-64.7859
-75.3719
58.1689
132.877
103.184
-27.5241
-47.2052
-83.5235
-218.454
-276.368
-284.163
-197.431
-209.402
-150.096
-71.1847
-46.4051
-93.8073
-164.881
-165.587
-138.846
-19.6168
107.039
153.615
39.6003
-135.512
-69.2217
-21.47
0.363807
109.543
280.349
370.301
360.569
207.289
13.8579
-65.2455
-45.5948
189.008
253.14
125.606
-54.2563
-254.202
-278.433
-153.494
118.663
321.982
208.339
45.5237
-31.1605
-76.0469
-157.947
-123.766
-85.6095
-107.186
-120.802
-88.2486
-65.5595
-93.6187
-59.0563
29.4184
91.6993
162.887
68.4889
-22.2632
4.58942
26.2804
-68.1424
-28.6084
69.1745
11.1893
-237.565
-378.536
-327.829
-156.203
14.2227
78.065
118.296
139.065
179.223
231.977
142.144
21.733
42.013
85.9241
59.7691
-6.89296
40.8931
37.497
-26.1685
66.8554
284.604
299.785
138.824
29.9457
-42.2409
-142.78
-161.365
-114.411
-107.076
-134.226
-156.503
-215.466
-233.857
-162.533
16.0786
200.191
289.942
197.875
51.7371
-117.625
-258.239
-190.842
-110.007
-36.52
52.4202
103.383
68.0773
27.7921
34.8123
-9.68487
-30.7706
22.5787
158.759
150.913
70.1191
53.7742
-103.578
-307.314
-390.972
-301.88
-72.7663
112.989
281.427
347.514
296.333
333.689
275.496
81.4479
-48.9659
-25.9485
8.58473
94.5733
49.7829
-79.3644
-248.205
-376.503
-256.361
-107.854
27.3166
84.4492
100.008
85.2254
97.7109
71.1093
-104.634
-252.778
-213.682
-43.2982
105.397
84.2206
25.7599
-209.797
-359.572
-255.071
46.459
310.853
190.613
5.19422
13.655
45.5922
-74.5647
-111.14
-37.8547
55.7101
168.248
252.643
246.684
115.422
24.8407
85.1555
149.086
236.056
217.161
117.759
-22.3258
-132.926
-66.2989
72.3734
40.8862
-22.9433
-1.97985
-32.7068
-151.859
-282.602
-306.588
-342.381
-346.086
-299.247
-266.386
-234.151
-32.9606
104.082
131.664
62.2248
19.2698
-18.3074
35.787
204.992
325.619
354.301
195.784
-30.5815
-94.0044
9.8069
122.111
176.531
227.482
211.314
108.678
64.673
20.6816
-145.226
-343.524
-285.61
-197.389
-181.969
-108.352
-20.0107
62.2958
69.7915
121.277
173.433
187.073
157.098
87.1025
-11.7769
-91.1666
-104.75
-20.829
11.6562
-69.9796
-45.7737
3.49743
-46.4598
-102.754
-67.5588
-18.884
19.4858
26.3513
5.0402
-61.4845
-92.1881
-41.6346
-22.1895
-52.1366
-77.4012
66.8785
180.678
119.548
-74.6522
-204.09
-266.513
-267.28
-99.4716
147.62
263.079
234.583
144.774
61.3483
56.5063
117.825
182.494
160.538
173.873
314.231
288.141
-7.56342
-329.99
-446.95
-510.315
-451.627
-59.4779
258.786
214.479
70.3525
29.9715
19.3768
35.6474
50.4999
36.8881
83.1347
115.705
-13.3528
-175.002
-316.609
-181.996
59.3725
201.927
159.567
260.663
245.378
-97.571
-325.512
-232.33
-137.547
-88.1706
-22.3642
-32.6791
24.1272
185.643
210.203
121.568
53.5301
6.21574
-114.257
-339.413
-411.52
-226.672
-21.3713
70.9959
168.789
226.393
313.325
294.436
218.64
178.05
99.7583
9.1563
-182.261
-356.492
-387.986
-231.142
-32.6716
40.3127
86.3157
192.616
287.689
314.733
283.908
174.71
25.7137
-182.685
-370.717
-322.519
-141.341
-54.2066
-2.92341
56.3937
122.574
89.3713
110.435
99.1417
-29.4615
-92.5337
-151.484
-145.728
-238.082
-305.427
-225.872
-154.911
-1.76386
276.164
405.667
370.54
283.12
225.284
174.891
91.7023
-36.1589
-129.525
-191.759
-292.57
-284.834
-252.006
-248.883
-166.307
17.1071
231.858
296.509
250.914
157.384
96.1673
119.038
44.3436
-76.4451
-152.108
-160.828
-162.343
-150.256
-49.372
117.864
142.433
31.8934
6.33481
15.315
-54.5314
-85.407
-63.0884
59.9825
204.426
202.184
157.035
106.776
4.5916
-88.4664
-68.7418
-94.0127
-147.069
-74.6629
-6.85246
-116.115
-107.715
42.2453
158.325
286.43
380.099
274.169
-8.82788
-336.785
-502.72
-369.397
-141.111
-36.6581
99.9489
148.265
-54.0261
-324.87
-278.546
-31.1333
-25.4424
-60.2866
15.8596
107.737
200.748
244.287
299.528
267.128
194.324
168.607
99.2597
-65.1468
-167.896
-87.2982
-90.7575
-95.471
24.0186
192.229
236.056
69.7195
42.3776
53.0471
-98.5895
-140.227
-148.499
-134.785
-83.6123
-46.982
-90.6621
-122.374
-86.8366
-70.8737
-73.9959
-113.346
-55.6728
69.3617
63.7398
29.9865
30.2382
34.3282
96.9462
211.874
401.605
359.665
152.264
-86.9644
-415.24
-641.86
-649.063
-378.484
14.5734
198.015
287.315
289.411
195.528
70.2019
42.5619
141.951
226.369
280.575
98.2944
-177.013
-289.907
-206.091
-55.3134
127.754
248.738
270.503
288.521
155.744
-5.50149
-55.2446
-95.482
-107.875
-94.0801
-83.859
-71.5433
-80.481
-141.066
-238.676
-160.414
-30.0148
-47.5754
-140.064
-259.793
-297.919
-219.313
15.1812
220.797
292.6
259.097
217.88
117.113
27.9725
-13.6386
-57.4939
-66.0334
8.08386
63.2435
55.3864
-20.3755
-57.9273
-28.7106
-6.29197
14.4708
48.3593
181.59
189.111
54.5823
-21.2831
-12.4477
-32.6901
-25.1818
90.9607
120.178
144.748
150.088
-70.6982
-255.697
-280.194
-268.475
-222.281
-121.523
30.7505
217.416
349.039
226.374
65.0554
-58.6812
-198.281
-256.551
-107.268
67.1565
56.6188
63.5261
40.2818
-72.9065
-108.466
-108.751
-55.1726
7.80054
78.8475
149.445
113.765
25.8273
-116.014
-158.924
-139.202
-76.8991
24.5461
86.119
90.684
87.4913
120.399
130.302
208.884
230.917
167.715
-20.9359
-263.402
-331.912
-347.897
-250.78
-78.1985
76.6802
165.584
178.554
197.624
221.258
202.122
82.075
-34.8406
-170.017
-317.42
-349.331
-264.305
-50.5549
148.782
267.068
348.865
281.705
193.1
95.6137
-18.2695
-132.851
-167.316
-73.4241
-4.98732
-33.1256
-15.22
-67.4555
-276.939
-363.462
-225.74
-74.2754
-60.1694
-10.1435
105.271
214.086
247.429
265.837
202.552
1.57372
-124.158
-123.927
-52.6939
-0.228221
29.9786
108.563
153.129
179.895
246.149
211.402
-29.256
-329.942
-410.935
-298.215
-264.428
-145.9
32.8165
152.227
177.155
232.682
274.71
233.442
108.688
30.5508
26.1348
-42.1495
-205.791
-260.431
-236.302
-198.565
-172.861
-80.9327
-23.2386
-129.347
-132.283
-3.55873
112.213
152.083
206.684
241.849
304.997
362.398
266.444
15.7016
-162.77
-217.217
-198.044
-163.109
-92.5444
-6.07979
74.1193
161.575
155.519
159.582
127.734
17.9057
-109.696
-143.455
-109.348
-153.211
-255.758
-217.501
-85.2973
-12.3365
60.9072
126.93
185.498
189.852
157.851
16.5493
-90.1664
-191.842
-157.426
-173.682
-200.73
-140.821
-80.0201
-23.0519
21.8721
63.5746
163.262
162.115
85.5834
17.1582
-25.9139
-14.6402
-64.6124
1.2277
159.047
238.111
204.074
132.793
137.161
232.709
241.924
139.197
57.2634
-46.8045
-198.538
-181.34
-102.519
-91.8559
-143.322
-192.983
-457.342
-650.814
-470.009
-142.59
114.258
357.478
427.918
427.282
217.043
-61.4829
-173.026
-96.273
-1.71774
67.075
158.046
151.574
50.8883
-77.1767
-49.0824
35.0765
149.287
225.999
186.798
62.1085
-146.738
-256.36
-145.098
-0.569144
-25.166
-4.85897
101.896
84.6256
-29.6979
-146.677
-221.88
-239.078
-208.824
-141.256
-105.489
21.5597
210.575
275.765
285.054
304.916
241.504
82.8631
21.6439
-45.6663
-130.745
-241.942
-304.623
-228.271
-29.6615
117.331
227.119
136.066
-97.1329
-223.38
-204.921
-147.417
28.5316
239.565
221.37
21.4781
-176.635
-302.308
-407.388
-232.064
182.544
469.01
496.895
334.831
145.277
68.8884
-22.7655
-123.734
-114.378
-74.6683
-61.6745
-9.76769
8.44587
29.8481
56.5653
58.4187
42.9525
71.8571
121.896
62.3639
-25.621
14.7964
24.1348
-80.6769
-192.601
-269.946
-269.255
-122.345
31.9965
85.0008
99.1631
62.9076
-14.9583
-103.269
-174.955
-187.897
-92.28
19.161
105.657
144.187
157.183
76.9699
-35.4376
-136.464
-169.201
-138.906
-112.788
5.70611
10.5185
-5.56611
-23.3634
77.8741
242.832
257.042
164.936
85.8896
46.0671
51.6914
75.3717
78.7185
21.0703
-10.9955
37.1391
162.857
235.987
198.592
112.303
47.1311
-29.5356
-132.37
-102.984
-84.4265
-164.002
-281.086
-275.992
-122.694
-44.5138
-99.427
-193.033
-280.377
-260.072
-61.6729
53.5199
114.212
166.116
127.131
-41.5705
-259.93
-129.371
98.6637
155.744
173.791
212.683
185.687
115.243
-44.916
-20.7878
39.91
67.8352
105.137
91.6121
12.4955
-36.0858
-52.8818
-61.7695
0.914599
147.199
240.631
153.686
65.6467
32.9168
-54.6738
-146.326
-135.372
-43.0228
-0.254271
-2.50745
-8.78762
57.4478
3.7257
-140.717
-253.149
-301.008
-371.407
-346.317
-148.314
88.72
201.118
148.077
96.0755
67.2983
21.3836
-14.0508
27.965
105.152
191.359
201.723
160.257
49.7541
-67.474
-52.2864
34.1852
137.026
194.078
103.476
-22.8422
8.75862
-59.275
-141.819
-124.262
-93.4025
-73.7897
-74.6299
-28.8983
-60.9103
-95.6026
-77.6053
2.83548
50.5167
125.318
142.323
66.4169
34.8966
39.4605
56.7169
70.9246
6.36558
-5.6188
26.1297
46.9753
73.2568
49.9694
-14.5947
-119.94
-206.764
-280.837
-248.963
-181.585
-74.4131
-10.3104
22.28
21.3813
13.9281
98.2873
148.987
146.172
97.9229
162.136
107.345
-77.9645
-241.518
-290.871
-302.54
-251.234
-19.1056
179.135
175.78
217.087
273.583
280.829
222.493
147.673
102.007
57.1871
54.1743
5.76778
-44.1062
-82.8453
-28.9998
41.3153
53.761
12.9757
4.05763
34.3521
17.0416
-54.3881
-112.529
-124.265
-157.651
-183.639
-164.286
-146.619
-130.059
-35.865
4.85934
-41.4783
-103.992
-176.322
-224.355
-153.779
35.536
179.607
185.622
156.283
121.559
67.6823
45.8435
50.6958
85.8907
121.412
139.35
105.013
43.7099
-24.7286
-112.208
-109.647
36.8225
203.408
287.028
223.504
-60.9674
-315.25
-410.257
-237.383
-10.2167
188.287
305.503
216.637
-30.2157
-262.112
-349.848
-249.137
-62.2507
6.09936
51.851
137.476
129.934
63.2535
37.7716
70.5114
160.635
287.614
345.313
195.013
-44.715
-214.739
-257.809
-236.426
-129.426
148.57
256.119
66.3387
-169.104
-242.747
-224.329
-224.07
-222.657
-188.4
-51.8494
20.9003
-5.41773
-42.49
30.684
133.664
156.281
215.26
184.684
74.6841
-1.7633
62.46
161.079
225.173
161.455
-40.4041
-267.551
-465.782
-461.121
-260.562
-51.523
87.2488
216.013
309.931
295.839
211.797
140.34
135.254
130.152
164.825
209.797
-7.82309
-262.092
-408.733
-353.899
-165.653
2.10589
181.542
207.41
140.701
25.895
-36.5539
43.5005
45.4487
-24.1466
-109.301
-171.839
-172.51
-151.831
-72.9287
-37.0976
-64.3987
-122.288
-73.2015
54.7001
124.032
161.503
216.718
219.831
108.736
23.9498
-43.191
-128.401
-78.9555
19.208
16.0659
11.5831
-87.499
-138.955
-246.461
-202.762
-122.05
-48.1513
67.9839
123.205
201.539
329.787
318.244
204.438
104.657
2.29272
-115.202
-144.089
-147.112
-97.4061
-92.5588
-93.4821
-77.8012
-12.1697
86.8401
67.356
96.2091
141.568
148.923
127.49
30.6539
-25.121
-35.464
-50.8525
-48.9439
-12.6976
3.93294
-61.5991
-167.638
-266.623
-261.937
-138.981
-4.12984
109.164
171.714
93.3058
-19.106
-14.5653
-35.848
-87.2213
-58.1821
2.0349
96.5511
289.732
423.074
220.589
-85.3471
-331.829
-483.863
-530.824
-298.647
110.063
261.673
206.478
161.15
214.079
228.826
141.217
73.1173
74.6976
58.9927
25.586
-29.332
-107.303
-164.787
-85.441
41.4252
164.544
186.127
184.319
193.742
92.9196
11.8766
-100.556
-173.528
-226.997
-237.41
-177.736
-104.157
-41.6
-64.3453
-152.542
-168.076
-158.018
-107.16
58.6096
238.833
287.472
185.303
-63.6433
-317.241
-352.739
-170.672
24.9706
140.877
110.873
70.0908
29.5042
-1.64896
8.54758
135.743
243.088
249.547
65.7903
-114.261
-106.421
-86.426
-12.2155
177.71
367.634
428.212
272.66
55.4488
-67.7047
-128.694
-81.1946
-59.9061
-30.5933
5.94476
-24.2092
-132.326
-185.405
-181.118
-156.581
-159.916
-152.722
-117.406
-102.174
-60.3707
77.8792
156.824
137.858
26.8794
-27.5825
-89.722
-174.307
-197.577
-212.608
-174.215
-109.739
8.68224
107.132
134.416
262.232
292.991
71.5577
-150.605
-169.945
-58.6134
75.6281
99.7532
73.1321
134.963
193.84
229.317
228.845
186.21
184.2
157.727
140.984
138.995
61.8635
-58.4445
-232.033
-352.237
-311.962
-123.705
43.2525
90.1074
82.3185
85.7031
-63.9667
-234.16
-314.292
-313.981
-304.931
-185.986
-11.0169
163.695
167.073
26.5746
-38.3371
-88.1806
-107.441
-43.4445
49.8911
77.7636
72.3646
132.315
119.483
134.242
189.238
191.054
62.8075
-52.2263
-36.5546
-46.3974
-128.535
-145.598
-57.3837
18.4407
11.895
-0.820969
90.2569
227.746
268.911
232.888
140.715
33.438
-63.9354
-163.974
-158.144
-109.813
-38.895
37.7403
102.154
138.523
206.246
133.322
-116.783
-322.552
-362.022
-316.638
-251.886
-212.93
-112.493
-1.5271
25.7844
23.6419
32.4696
8.24058
3.91397
21.705
12.5907
51.7981
81.5667
185.344
258.021
154.191
97.4296
93.6134
73.0811
42.8515
-28.298
-11.1169
-11.3529
51.0184
78.7031
1.52565
-92.6741
-57.8832
-60.7401
-127.312
-61.4253
83.9842
176.036
88.0398
-130.671
-219.295
-191.991
-34.6585
50.2562
68.9777
12.5444
-43.0906
6.0792
41.9124
26.2881
26.1472
52.412
34.5538
-35.5491
-54.9695
-73.2739
-129.047
-123.495
-55.9115
36.2827
104.659
108.925
37.6688
8.57991
59.1912
157.574
150.464
33.8925
-32.7187
-0.559008
22.5062
19.7158
-60.0487
-135.108
-173.566
-174.058
-172.244
-125.003
-34.546
39.5616
107.885
210.682
264.737
195.142
85.1622
-34.9586
-110.031
-128.377
-130.489
-84.6959
-66.2832
-47.8414
-65.0843
-15.314
110.524
214.651
282.995
204.946
51.2967
-71.8175
-110.192
-84.1813
-122.556
-122.166
-121.997
-107.929
-88.6191
-0.0900189
60.5275
61.6662
87.2279
119.456
124.564
133.883
100.12
12.6803
-26.1506
-72.6356
-61.3508
-24.2812
-49.0966
-177.753
-286.844
-200.599
10.3988
164.736
232.883
244.868
154.658
30.9204
-21.2589
-98.4306
-147.57
-204.04
-213.646
-83.5202
-0.762263
20.9741
-23.6861
-38.2559
-25.5451
-83.0591
-114.061
-0.851132
102.94
166.579
183.808
181.732
186.053
173.342
119.281
71.0329
73.8148
71.172
78.8627
38.0568
-128.649
-220.248
-154.199
-73.684
-46.1531
90.6468
218.781
143.285
20.349
-77.9984
-163.31
-224.576
-240.697
-196.145
-123.014
-58.8495
-9.76182
58.3039
93.6332
27.6614
29.76
75.3196
47.7004
-10.8471
9.38373
54.6739
15.4837
-21.2187
-39.8216
-42.3334
-13.9316
12.2774
-15.1847
-63.2959
-83.0423
-40.1249
70.1229
171.369
189.633
136.171
75.5939
29.7578
-55.1103
-94.9507
-58.3366
-17.5878
95.2514
142.01
126.655
54.1826
-71.9976
-163.578
-135.424
-78.9642
-54.8097
-4.3144
47.4808
10.7741
29.9663
116.674
95.7088
-12.8628
-55.4414
-100.061
-113.96
-47.735
-87.0376
-212.922
-319.645
-273.344
-90.2868
96.8504
226.538
263.599
221.078
160.25
93.2657
139.216
160.047
108.434
63.88
14.7029
-22.5542
40.9808
90.251
73.5935
78.3729
66.6302
32.9454
-25.4846
-84.8345
-184.981
-220.886
-155.685
-87.5541
-94.755
-148.591
-192.202
-262.163
-302.088
-182.822
14.837
132.668
145.326
104.478
57.9873
71.0575
121.156
158.648
168.043
174.91
142.418
69.9339
-21.9494
-59.6287
-20.0792
-10.6841
1.7267
25.8836
32.3717
14.0815
-50.7768
-103.038
-84.0669
-26.3694
35.7217
30.4249
17.8893
36.253
22.2819
-17.4582
6.58545
2.90673
-25.6087
-64.6132
-38.2707
45.705
92.1502
80.4775
111.681
59.8339
-57.7777
-62.9599
-39.9967
-26.5495
-66.7565
-101.374
-115.463
-189.949
-112.243
12.3344
64.0212
32.5735
-75.9535
-20.8148
48.7941
1.06571
-83.1512
-27.8712
54.4712
60.5293
184.11
249.487
208.81
94.2754
2.20386
-70.9086
-74.9591
13.3648
33.2832
27.1707
-10.9831
-24.096
44.7413
37.5121
-42.4819
-44.9812
-24.9831
-73.7107
-157.337
-144.303
-80.4806
-25.3785
-5.41309
14.5065
131.826
154.542
9.55027
-139.288
-139.784
-120.274
-117.761
-74.9577
27.9226
46.025
37.4717
54.9425
70.4921
147.069
178.401
137.881
74.61
-42.1043
-124.732
-163.774
-191.989
-71.6115
108.182
276.242
280.025
197.129
114.617
-19.9794
-138.49
-178.424
-172.119
-134.204
-48.9057
-25.2377
-98.557
-102.005
-58.591
35.1164
143.177
179.442
112.77
59.1653
-14.7502
-97.4947
-119.778
-80.6891
-84.9527
-37.8837
4.07966
24.5801
28.6108
60.4773
93.7648
48.4732
78.203
77.7965
1.15372
-1.54399
27.0956
60.5454
32.3965
-103.966
-138.203
-145.318
-163.763
-156.152
-77.9976
40.6007
112.444
133.24
106.405
44.7364
53.2584
163.04
155.634
106.806
40.5643
-77.7314
-253.801
-327.949
-193.049
-13.1432
94.2281
123.081
184.279
166.205
64.0969
-50.5673
-100.741
-45.316
40.4748
70.4655
6.07146
-45.4187
-56.2206
-69.0564
-58.2424
-50.6619
-51.7907
-79.3592
-108.946
-53.6904
22.5753
107.237
134.343
123.737
93.4888
97.0315
126.079
94.8505
-6.49448
-109.083
-187.334
-170.375
-82.3913
-9.09798
49.9289
87.2288
101.32
97.4149
7.48164
-21.5654
13.049
68.8536
34.9676
-28.3728
-51.7602
-65.572
-23.5903
78.2322
50.2712
-28.6202
-84.1252
-292.144
-389.447
-216.637
15.3671
76.5417
156.205
175.335
104.518
34.8346
49.404
73.216
70.2065
52.3257
13.8975
-29.3052
-55.5142
-61.6861
-13.5309
32.0716
89.2612
155.6
216.02
219.455
172.079
76.5884
-80.2374
-131.509
-115.985
-118.446
-132.908
-124.246
-87.6792
0.807481
51.2086
72.5087
29.8994
-166.387
-270.952
-148.133
-56.6706
-1.03407
21.738
-26.8973
-55.8605
-5.50196
55.6507
80.7895
127.295
213.614
174.894
72.7346
-5.45498
-95.4144
-176.993
-176.183
-101.076
52.3751
165.601
135.138
82.5504
34.2302
15.1733
6.83973
-33.9249
29.7341
113.668
69.2693
45.1443
-39.6044
-169.01
-239.55
-215.544
-115.21
87.8103
189.933
163.134
93.354
-3.03052
-88.1906
-45.5576
4.73108
19.3492
-55.3223
-109.149
-37.8322
-5.63324
2.73544
-5.17405
77.9414
176.679
272.412
263.071
93.0133
-69.9366
-185.82
-288.763
-300.15
-137.305
40.1794
99.2459
61.9607
-7.35039
-45.3264
-53.066
-153.877
-46.0777
166.596
214.908
65.0307
-26.6271
-110.197
-180.49
-147.741
-6.23903
124.751
200.492
258.457
252.307
159.238
41.2094
14.5548
13.1926
52.7007
57.2637
59.3217
-81.8053
-228.394
-323.85
-350.76
-252.512
-63.6395
27.3822
48.279
12.8157
25.4049
22.6583
-27.6505
-45.6149
-46.0106
-144.996
-137.777
-10.6012
54.3096
72.088
70.3268
88.2035
116.911
164.294
209.437
219.308
160.894
164.592
223.351
181.49
74.1561
-59.7082
-191.423
-271.527
-241.856
-99.3349
-57.4005
-52.9445
15.5366
100.836
89.764
12.6763
-102.16
-177.896
-232.064
-258.364
-174.86
7.53754
91.8999
96.2742
34.4233
-13.7098
4.6144
39.3608
111.369
224.981
288.842
198.932
61.1874
-106.089
-256.457
-248.593
-146.903
34.9642
248.73
336.823
209.607
11.2729
-169.182
-283.561
-298.021
-164.277
-50.6707
-34.5614
-75.6598
-98.2456
39.354
200.675
290.351
273.056
216.087
134.435
114.444
33.497
-42.763
-29.5363
-70.3565
-163.147
-142.481
-28.7458
67.1112
48.7292
-1.9522
-69.5498
-101.383
-153.285
-223.107
-223.549
-173.376
-77.9697
17.9902
62.766
103.127
84.4499
-17.5989
-74.3817
8.77483
78.0956
90.2609
80.3073
95.0299
128.752
154.928
205.014
193.463
142.276
76.2616
-8.69523
-110.209
-170.12
-193.408
-144.632
-104.621
-47.7351
59.5531
86.9773
23.6217
-100.512
-136.529
-126.81
-129.395
-74.3292
30.3212
100.134
105.821
81.6355
-6.32068
-65.7049
-70.6228
-10.4817
87.7934
101.858
132.511
93.7143
7.10962
-67.5685
-126.588
-55.3253
16.2517
94.8643
177.333
178.127
71.4985
-76.1895
-128.014
-91.4659
-19.0075
-68.3427
-79.2578
-24.1105
-0.901771
5.31146
19.3777
9.07834
-29.9032
-37.0957
-22.3259
6.3659
104.52
174.119
123.337
7.54378
-57.1171
12.1052
16.4424
-45.0576
-72.0544
-11.9392
85.1477
106.775
45.486
-54.714
-237.932
-290.047
-175.821
-139.36
-62.6219
29.5
80.3792
61.0375
-38.3208
-153.847
-166.745
-113.577
21.6573
208.241
304.203
311.256
213.925
80.17
-31.6644
-141.17
-134.945
-1.9491
122.24
189.307
216.579
151.68
54.1303
27.5378
119.389
172.621
55.2189
-81.3295
-207.295
-359.572
-446.225
-384.798
-265.51
-155.301
-13.2381
119.54
197.19
217.278
130.168
79.142
102.971
139.222
96.2163
-11.5839
-105.936
-142.151
-86.4684
29.2124
48.3676
24.529
-29.8662
-93.538
-101.399
-26.6013
97.2048
227.149
238.497
112.638
-25.887
-133.067
-245.954
-283.372
-164.613
34.9734
167.12
191.769
227.493
123.638
-56.2496
-101.225
-71.5987
-90.7843
-140.525
-126.284
-95.2968
-99.8298
-66.2371
23.3101
102.164
99.0429
107.128
140.285
122.581
82.6487
35.5125
74.3801
57.2002
23.6183
45.3684
35.9258
39.261
42.9728
88.4822
114.603
61.15
-25.7348
-74.1795
-109.361
-159.976
-160.433
-101.989
-46.6162
-81.4661
-209.527
-282.111
-241.365
-229.929
-217.611
-65.9984
103.896
193.48
271.981
256.508
231.647
209.485
185.702
98.8467
-43.2936
-126.443
-70.2172
20.3056
67.373
79.5076
92.1972
96.2279
55.7289
3.77892
0.235669
-12.7664
15.8859
110.788
120.084
53.2259
-114.066
-286.569
-359.06
-369.058
-249.742
-39.8863
56.8049
6.61944
16.351
17.4261
47.1486
80.9538
97.8451
118.189
100.431
114.875
103.282
25.3042
-25.2374
-116.136
-160.249
-72.729
48.6547
161.791
209.627
201.076
157.018
92.2155
-47.0139
-92.2952
-146.813
-221.855
-258.448
-181.803
-36.3151
62.1935
68.1826
20.7868
41.2011
116.667
125.19
124.304
44.317
-33.9604
-86.4004
-82.623
-48.392
31.2304
46.7944
31.3564
36.7348
-14.9314
-75.966
-46.6077
50.3696
53.5559
-56.9903
-103.636
-120.268
-96.0596
8.55134
62.2027
80.5961
81.1327
109.931
20.9933
-71.5234
-126.529
-125.075
-102.943
-62.5273
47.808
182.846
224.076
143.807
52.6371
6.79249
-32.2657
-11.9773
-6.54219
-53.0272
-19.0186
7.71957
-95.4429
-206.811
-133.701
7.38356
60.0259
84.3901
30.7071
1.7668
39.3527
73.7112
86.8553
71.267
45.0592
52.9574
49.0296
-39.7944
-135.279
-153.085
-133.98
-78.1424
28.7157
104.703
75.3997
19.7273
-4.41148
33.9997
85.2118
51.1959
47.7735
24.4395
-44.4673
-78.7339
-39.0951
-12.9236
18.1555
46.2218
65.9419
29.2228
-52.1099
-104.667
-136.433
-115.363
-53.7689
-9.37921
5.43083
-28.8599
-35.3399
-6.92898
1.54048
-17.4803
-2.64148
18.5451
67.1691
108.598
74.9733
-14.3151
-106.201
-23.2557
85.4882
114.196
167.74
184.089
132.232
76.953
71.76
42.1793
-35.1431
-139.462
-203.768
-177.22
-105.296
19.1369
172.01
98.3872
-14.6383
-94.6048
-212.186
-370.994
-441.221
-187.87
73.4731
144.018
128.969
142.209
116.417
34.7025
107.037
242.462
267.496
238.132
127.462
-74.8395
-279.25
-253.75
-89.4749
35.1365
188.036
281.606
315.86
168.454
-16.4991
-122.101
-229.721
-277.378
-191.196
5.27826
60.161
-20.0435
-114.062
-126.425
-30.4201
-2.74186
-34.4831
-47.119
-38.4138
-18.8818
-6.1362
-9.10947
-9.86397
9.94705
51.2818
77.9742
66.6291
53.1009
-13.5898
-106.343
-90.436
64.6117
125.838
46.3908
-153.747
-207.962
-131.898
-24.7272
51.2685
137.587
169.06
177.253
180.406
159.838
111.206
72.0569
53.9771
-38.5535
-102.907
-79.3477
-26.865
-31.8464
18.3562
87.1023
164.533
185.696
88.6096
-23.5101
-107.862
-145.169
-121.963
-43.8549
-19.03
-91.8222
-93.1689
-96.9606
-108.896
-96.19
-63.099
-113.509
-274.062
-357.399
-238.739
-87.6979
37.5821
181.465
381.685
473.584
299.599
52.8106
-62.361
-146.546
-259.788
-203.355
-70.6477
3.41266
83.1199
170.267
250.104
276.598
275.151
212.879
47.6342
-141.292
-196.88
-131.879
-124.441
-85.4982
45.2377
140.263
145.509
88.4909
63.6689
-19.7405
-89.6868
-15.2517
41.0584
31.3039
-76.2518
-98.9934
-51.0727
-9.58599
-11.8996
-0.936312
5.69626
-76.121
-165.52
-203.299
-151.28
-94.5071
-42.9482
4.88568
41.6973
54.0529
17.3141
-29.2874
-2.31748
48.5222
40.885
2.86513
-8.69644
6.55762
69.8855
176.338
221.838
173.939
48.2592
-89.9487
-217.342
-224.924
-142.211
-7.39685
107.302
148.42
170.308
218.245
113.777
-36.0462
-40.0307
-59.9963
-143.711
-240.658
-189.808
-144.133
-139.307
-62.6049
74.2931
106.098
115.193
214.841
320.366
303.011
238.217
121.638
-117.298
-377.135
-355.848
-149.275
18.5964
91.1795
58.2796
36.7221
31.8971
86.3198
100.831
67.2633
-44.285
-100.178
-94.4661
-111.953
-110.316
-74.7793
-12.5828
82.3327
181.748
236.324
121.662
-79.2471
-228.981
-276.352
-159.811
-34.8417
0.909192
-8.53046
15.6189
24.7451
24.081
52.814
79.4233
60.7788
-47.6005
-140.627
-136.263
-81.499
-14.4572
47.1728
112.671
153.123
179.842
247.415
249.369
163.7
20.2445
-121.271
-211.88
-245.053
-223.771
-138.01
-62.481
1.32684
12.6961
24.467
43.1312
88.721
113.703
96.4562
108.575
101.035
14.706
-78.0242
-67.4149
15.0501
68.9288
91.5328
119.537
68.1913
6.42215
-48.9446
-60.553
-99.2155
-102.29
-77.584
-65.6636
-92.7713
-49.6034
2.0908
7.20478
11.1218
-9.75563
-80.8052
-135.969
-105.652
-60.912
-48.6366
12.1212
117.019
234.989
260.227
165.381
51.4865
-69.2396
-164.399
-174.86
-126.02
-81.2907
73.7348
165.425
180.949
122.908
0.542148
-83.5659
-144.445
-141.612
-30.8928
35.6111
45.4111
11.6521
-3.29652
50.7954
120.105
154.157
131.835
-11.9052
-113.239
-157.15
-224.157
-230.282
-176.333
-57.1886
93.7028
179.021
203.473
179.464
137.18
43.4551
-16.1879
-20.7861
-7.16894
-22.3337
-32.7797
-3.35497
31.9021
83.9268
67.0831
16.1353
-48.932
-64.4287
-67.6536
-80.0742
-54.0584
-33.9492
-1.70406
-20.5835
-43.6112
-29.2521
-26.5775
-56.9024
-87.1608
-71.3869
-11.3585
32.9852
50.1231
65.7788
56.2168
32.5802
4.98338
-20.1878
-22.3055
-16.8129
33.6334
58.4185
47.025
46.2181
9.73724
-8.25438
-2.92209
-14.9998
-6.75038
17.0345
20.9742
25.9777
32.7845
17.2189
8.78002
5.49489
9.00459
37.0652
24.6231
-15.1195
-29.7077
-40.3615
-54.8237
-58.2781
-40.6841
-5.78582
-12.9276
-0.14706
28.3756
29.4516
-23.1303
-16.5094
12.9323
1.75374
40.9407
88.794
70.0646
8.35363
-54.5703
-55.2173
-105.376
-97.1675
-43.2708
27.4359
48.4001
77.8341
142.245
162.625
104.419
12.8391
-140.383
-315.816
-318.596
-139.107
-16.3992
55.4382
89.5191
126.851
108.491
57.5743
40.8956
37.2046
43.7726
-4.77224
-28.9316
-35.8754
-68.9252
-76.6252
-75.1777
-4.92768
153.406
277.616
293.081
171.43
46.1232
-112.759
-188.702
-209.074
-177.402
-87.2457
31.9287
64.693
45.4823
37.3658
4.14937
-36.4262
-34.2116
3.10661
86.6442
108.366
133.041
94.7964
-29.6599
-158.789
-272.807
-265.429
-168.165
-114.431
-11.1082
92.144
133.675
107.797
66.5624
48.3323
49.5542
32.3189
-2.83911
-94.1202
-127.161
-25.9341
53.3975
99.0058
114.539
91.0946
83.2836
72.6196
39.6697
58.8127
68.3496
-11.4673
-103.391
-138.13
-150.358
-92.5991
-30.2999
-20.8353
-28.9233
-3.76549
-26.4472
-86.5038
-66.3582
0.974394
93.2535
147.619
168.999
167.397
152.47
119.272
42.1868
-10.0686
-46.7778
-32.3791
-49.3609
-82.7604
-55.9944
-46.9293
-33.7032
10.1219
54.1506
112.018
12.7065
-111.869
-185.117
-185.556
-159.698
-135.38
-149.081
-95.9816
-30.0256
31.1599
112.376
125.358
142.811
180.803
167.546
114.809
-8.32642
-102.765
-88.8778
-95.2132
-68.055
1.5765
47.059
53.7556
108.136
124.71
120.566
99.3725
92.4953
67.669
-9.98633
-100.975
-79.484
-91.7926
-157.911
-131.28
-60.7113
-40.7505
-57.8088
-38.2996
48.8055
131.844
97.3696
16.2601
-91.7085
-136.508
-136.037
-96.0312
-1.04147
68.4926
86.9908
119.623
102.479
93.3483
86.9584
58.4057
84.9018
103.924
33.3109
-88.9098
-141.75
-113.866
-38.0793
14.4443
37.3704
35.5046
52.7764
3.6281
-74.5341
-104.535
-81.0104
-41.4635
-23.5835
-41.41
-16.176
58.382
107.61
94.3975
86.1767
45.1205
-58.9118
-198.693
-196.764
-68.7415
55.0312
127.037
113.406
44.4064
3.78911
66.2082
136.375
89.3506
65.1308
-17.3725
-126.184
-198.252
-255.261
-210.01
-152.325
-77.0523
47.7797
154.447
198.919
197.805
184.534
150.302
82.5916
21.3662
-49.9677
-156.729
-192.646
-142.489
-81.8615
3.09458
76.9633
98.3021
124.231
175.88
223.542
190.062
76.6976
0.346072
-115.524
-262.074
-330.62
-238.355
-51.9343
111.576
137.644
47.4261
-94.4801
-187.572
-171.281
-20.4293
77.8308
121.391
93.1573
-4.53406
-69.4679
-70.2133
-7.01331
88.4874
178.496
254.519
132.355
-17.2676
-131.621
-202.039
-153.074
-52.5376
107.502
263.572
240.106
94.8743
-85.6753
-237.021
-257.996
-126.765
23.4937
101.725
69.9933
-1.62437
1.07866
0.879154
55.0713
100.777
115.021
57.4001
-52.3822
-116.225
-122.581
-56.6955
56.7984
95.556
134.285
100.757
-13.2307
-136.131
-163.226
-113.001
-110.706
-190.098
-202.069
-58.7673
138.014
229.82
232.039
180.862
89.3789
-20.6786
-106.679
-149.195
-226.566
-262.316
-144.092
59.2706
175.791
190.145
164.505
126.586
143.158
151.358
114.599
8.33624
-46.35
-68.7874
-79.3966
-47.5242
4.32309
82.3192
105.832
22.7646
-76.654
-105.209
-77.6075
-57.9764
0.31634
50.3255
42.9514
-14.0932
-67.1833
-1.27855
27.7303
-12.4754
-93.8048
-184.451
-258.552
-279.611
-179.034
0.4765
171.041
196.61
180.751
175.483
119.235
33.3827
-0.849407
12.107
-19.4813
-113.6
-110.169
31.6435
77.7803
0.50801
-59.2242
16.2774
97.882
167.076
174.144
75.9087
-24.9309
-15.806
14.4917
63.1797
66.4264
39.2216
27.9271
-15.8763
-75.5014
-59.1872
-50.3069
-96.5886
-106.752
-51.5658
-7.51723
-25.155
-68.7737
-168.859
-147.03
57.0308
130.009
95.4101
2.05792
-143.258
-249.065
-252.727
-139.252
34.35
182.507
199.66
138.682
4.24451
-34.0695
83.5087
117.438
67.4591
75.3491
79.117
-40.6448
-213.438
-162.276
46.866
191.085
252.981
250.041
132.622
-1.00093
-49.8919
-48.9457
-5.78922
-11.7557
-26.5642
4.20807
1.03709
11.8842
3.22379
-19.0393
21.0497
79.1755
57.2682
-35.3829
-185.718
-254.433
-230.813
-168.307
-81.6938
-22.9439
-40.8169
-81.1232
-77.4253
-22.5344
5.53125
-6.13099
-32.4638
14.5566
102.821
149.654
187.879
161.155
111.289
1.00178
-47.8424
-54.7146
-36.7926
19.7169
67.2335
50.5808
13.9086
37.1112
28.2004
36.5501
76.6997
85.7654
45.7634
-35.5573
-148.937
-171.784
-130.775
-65.1085
3.60573
74.9359
81.7355
81.2196
36.0146
-59.2624
-138.949
-122.084
-81.7275
-23.3948
72.9522
192.14
168.171
75.9794
-97.2544
-234.36
-199.673
-82.8574
82.9448
180.642
164.307
110.196
92.227
69.2646
69.8547
91.8601
122.461
87.79
4.22745
-117.65
-153.118
-161.363
-106.664
-37.339
89.6852
162.092
118.523
-6.50039
-152.015
-221.87
-235.335
-221.629
-216.575
-184.618
-123.5
-42.9322
83.8821
128.026
124.399
102.504
80.8185
55.4428
52.7457
61.908
38.1534
59.1904
114.951
204.985
208.484
132.78
80.4931
-23.1742
-181.496
-227.829
-149.257
-77.0201
14.8121
81.146
121.572
151.755
70.6608
-34.4322
-44.3152
-115.68
-200.611
-215.783
-134.392
-52.9919
-7.89334
50.5026
92.6928
197.594
342.629
339.965
205.947
30.0769
-159.953
-222.479
-206.957
-144.752
-54.4074
-54.3524
-167.866
-163.97
-12.9829
95.2385
89.1662
31.2662
4.39177
-6.60313
6.86357
8.86173
-12.3905
27.4867
55.6096
55.7765
55.6624
33.6944
-0.101108
-51.9019
-88.3351
-64.977
10.3429
68.1315
87.227
71.3043
12.8804
-49.8915
-82.6551
-81.2765
-77.7719
-56.8487
1.8615
53.5726
142.727
188.852
164.299
93.5924
-49.2019
-190.759
-243.588
-158.615
5.08089
108.045
92.2627
43.4181
30.8012
44.458
49.8428
43.1751
-34.3847
-118.138
-141.862
-140.898
-213.689
-209.847
-62.5885
134.21
255.36
245.718
238.381
196.057
91.4605
-7.26275
-49.4582
-50.3448
-37.3402
-44.3527
-46.0964
-30.1177
44.8997
151.488
154.188
66.4044
-28.8198
-114.959
-197.985
-281.302
-226.809
-60.9667
26.2658
-1.57773
-67.3866
-62.18
-16.6508
96.4491
123.572
62.3437
-59.897
-157.236
-156.063
-49.4519
78.925
117.906
101.62
119.202
123.187
133.321
134.454
122.686
89.7245
56.0668
3.80085
-37.437
-71.9457
-123.922
-96.1044
-46.4839
9.06038
33.8424
24.7627
-27.8242
-78.1868
-69.4746
2.99478
52.0365
68.8245
37.938
-60.6899
-143.095
-104.73
21.4315
109.751
76.6143
10.5627
-67.6512
-134.622
-152.028
-105.436
-5.92615
41.9751
-3.12466
-21.3414
32.1288
80.9416
79.0419
32.425
50.2652
76.946
85.2315
45.8056
-12.6542
-40.8251
-33.6669
0.0977931
-6.85774
26.5001
109.653
105.499
106.973
137.148
105.598
-5.42148
-70.4419
-145.4
-209.117
-191.285
-162.914
-132.896
-106.587
-58.8896
-32.7136
23.7153
89.455
114.326
172.518
194.059
142.574
98.3467
11.8369
-92.7271
-194.745
-228.342
-205.833
-63.9687
110.75
187.866
136.618
76.3866
35.4155
-11.6639
-49.1548
-93.8185
-80.8833
-5.21822
11.2573
38.6978
69.8335
62.5871
-11.0361
-26.9731
20.3968
56.151
49.6034
42.5986
50.8056
36.2626
16.8441
-7.34401
-10.4472
7.10794
33.7812
17.0138
-63.0616
-121.963
-122.218
-111.073
-70.9539
-13.4862
27.5691
1.89276
-21.6492
13.4578
13.5391
-24.4225
-48.2935
-34.6513
41.0487
77.9837
84.6034
55.3059
-25.0232
-53.2178
-55.8635
-51.4098
-24.0326
-12.9912
-7.55259
7.91105
55.2807
88.7583
108.614
113.221
112.151
63.1135
27.8359
-7.06593
-51.8864
-69.2272
-79.012
-140.551
-177.68
-107.397
-1.70705
86.7479
116.752
92.8419
24.8662
-8.75999
-14.8697
-12.7612
16.8222
67.571
65.7754
-3.31006
-4.34083
12.1957
-10.5972
-13.2635
-12.9622
39.0732
89.9825
56.8669
27.9978
12.2956
-45.4081
-119.943
-158.558
-132.104
-104.588
-135.146
-113.884
-63.2293
-8.48845
55.6653
57.4057
70.3452
123.053
129.542
80.2632
23.3362
-40.1068
-124.689
-139.329
-64.3576
31.1902
63.3894
73.1343
67.7466
106.1
141.825
127.534
131.985
112.327
59.5948
-20.7358
-86.73
-147.539
-179.651
-92.1892
2.28347
87.2042
134.297
112.005
30.7593
-9.19642
-0.567583
-20.8107
-37.0792
-94.5205
-118.075
-92.3151
-103.271
-79.2543
-17.3358
-57.9666
-108.25
-68.5489
2.35265
17.9138
27.5468
74.2277
170.743
222.029
127.166
24.7581
-88.756
-213.278
-330.61
-308.838
-140.773
13.6346
59.819
82.4915
134.431
180.707
178.383
145.94
131.219
117.643
103.926
75.3865
29.0727
-1.24413
2.04599
7.69227
27.3171
72.4784
127.616
126.541
51.5315
-23.1912
-77.8453
-136.795
-200.767
-201.586
-184.251
-167.658
-120.3
-84.6464
-77.8351
-58.8448
-12.6681
-1.55518
-1.96014
4.98946
36.2381
83.3111
120.382
89.7409
58.6478
16.6338
-3.08878
0.747103
15.2178
58.6619
73.345
83.697
113.461
114.072
89.2421
26.8724
-79.8671
-183.68
-238.472
-249.555
-183.836
-113.501
-21.2768
101.426
152.934
121.83
111.197
158.997
169.628
104.47
40.9902
-6.41893
-75.3367
-130.082
-108.953
-50.0533
-15.8546
21.0926
74.5016
117.716
141.383
110.865
45.8823
-2.69075
-38.3773
-55.0753
-84.0435
-131.981
-138.861
-111.259
-59.1594
1.51955
15.9178
-12.1238
-64.8747
-93.415
-77.0394
-51.4031
-16.5129
21.8887
13.7609
44.6784
74.2128
66.295
39.3056
24.021
15.8146
12.8459
42.9462
60.2664
62.6673
31.6673
18.5048
38.2911
53.1138
33.8187
10.6186
16.2821
15.2422
-6.78285
-29.2359
-57.7975
-98.8668
-99.2277
-42.3024
13.6047
21.142
21.1492
5.37967
2.10536
-4.07665
-22.3667
-9.00609
25.488
30.872
33.4207
40.1563
30.1141
23.9158
8.96598
-11.0316
10.1124
15.4954
-1.62475
-30.3007
-63.0838
-56.9279
-52.5753
-48.4758
-41.9495
-27.3096
-3.82924
0.494079
-12.2049
-5.04185
7.69114
13.5774
18.6072
22.6954
19.2753
29.7633
37.2429
30.5636
20.3723
10.7834
8.64445
15.602
6.81456
-4.63178
6.55239
-6.34104
-33.6035
-39.8821
-23.3033
1.12327
18.635
45.8046
49.564
3.61918
-16.2622
-11.7248
-5.02983
-10.3678
-56.7673
-102.607
-83.8905
-11.1735
50.6697
61.8972
52.1871
56.5437
44.2702
32.7747
36.9271
19.881
7.53079
0.585395
-4.04051
13.5155
6.98414
0.991188
-1.11688
18.9707
46.5616
49.9333
6.9998
-61.0288
-104.416
-118.962
-104.333
-69.5585
-50.7122
-17.056
4.17477
10.9804
15.1322
31.1254
40.7897
53.5481
54.9476
2.59567
-74.0428
-112.361
-62.9581
15.4519
50.314
56.9967
79.2602
91.1705
60.4715
43.6692
48.2219
31.159
-6.89637
-46.7597
-68.6791
-62.0682
-44.5559
-7.46796
16.7217
26.5992
32.647
37.9385
10.2338
0.549057
-12.8944
-12.423
7.13256
20.9133
23.2224
-11.8816
-48.4176
-39.1823
1.85502
14.9085
14.0674
-6.72521
-20.6916
-28.2688
-29.2613
-28.0105
-23.4605
9.3387
-3.99667
-3.8678
40.3847
62.7667
25.422
-10.3629
-19.9215
1.79154
10.2811
3.62163
-11.9271
-10.2893
-7.84424
-19.6396
-27.7549
8.14227
60.4089
80.5962
66.8418
26.6579
-6.86814
-68.1676
-166.446
-161.817
-86.7706
-12.8201
30.6989
52.7677
65.4257
48.5947
49.6366
110.324
98.2838
59.7881
23.5054
-32.9666
-75.4725
-124.213
-153.431
-84.8874
23.1731
95.1512
130.537
107.301
61.1338
31.4431
10.1699
-3.53557
-21.2226
-22.4381
-25.6005
-55.8628
-47.1991
-21.001
-7.50432
-8.99483
-3.17733
30.8068
88.4426
63.5376
8.301
-29.5504
-39.4458
-60.0872
-97.5888
-122.77
-75.1022
-11.4528
5.97453
2.22208
-3.84121
2.18026
11.1073
7.59893
15.715
30.2653
26.0435
42.9674
62.8625
60.193
37.3309
17.6941
38.0196
40.0735
41.6909
44.9376
9.41545
-36.8129
-25.8672
-14.1848
5.40519
19.8772
12.5965
-10.5779
-42.9178
-72.5557
-105.358
-143.07
-124.962
-68.8846
-10.7405
33.9721
44.0062
35.8846
43.8394
66.7043
82.1385
67.4143
37.9541
34.5415
48.4015
34.104
14.69
19.016
15.7747
3.3841
3.49285
19.1003
15.9921
-5.37709
-22.1633
-59.2899
-53.4017
-31.1685
-36.8341
-24.5765
-33.6511
-35.7047
-21.2455
-16.9254
-40.6759
-60.0037
-51.7347
-1.41177
25.7232
32.3685
50.1134
75.4507
68.6028
41.0518
15.0039
10.2344
10.8411
31.9902
11.2983
-20.5929
-26.81
-25.9896
-26.0822
-37.2004
-41.6019
-29.4743
-13.3629
-28.9124
-12.0221
21.4928
36.1113
37.8124
33.8109
17.0453
4.96208
33.4443
18.2991
-8.7801
-5.32205
-7.84867
-12.5261
-24.7803
-22.3363
-4.36191
-0.802505
-4.5918
-3.18167
-2.42888
0.333337
-3.87542
19.4255
28.4182
30.3559
33.7445
35.1291
11.9052
-8.44006
-14.9736
15.8939
5.03218
-35.4877
-36.659
2.55101
-4.08931
-62.8691
-105.617
-85.123
-23.8614
40.5674
51.402
35.3503
32.4073
26.7557
20.3063
11.9733
-8.57844
17.172
24.6632
-5.14723
-11.34
13.368
47.1767
50.2212
41.1087
66.4924
83.1855
40.7743
-30.6751
-106.278
-99.1996
-60.5184
-72.2057
-76.9676
-47.6262
-32.0988
-11.7308
11.5687
19.8385
28.9309
34.5735
10.4182
-32.0656
-81.2702
-97.5944
-43.5212
24.3555
65.3112
78.0722
78.1278
65.1288
52.7912
55.9776
58.2381
37.2021
27.737
29.5229
12.2201
-23.4476
-38.8243
-16.6737
-13.3512
-17.0559
8.2915
29.9842
5.07706
-19.2466
-31.8136
-41.3216
-17.7583
-18.4894
-42.6067
-33.1358
-15.5354
-17.1881
-28.1459
-29.6656
-24.5242
-12.5688
-4.00447
-14.4437
4.13859
28.6849
20.4151
26.6421
29.7365
5.06749
-5.50377
2.23331
-3.59649
-9.84602
-13.391
12.1908
25.3134
19.3676
13.2331
24.425
26.6805
8.76275
5.40552
38.8236
68.14
42.4683
-8.83122
-40.5175
-60.1683
-85.643
-103.728
-78.1504
-5.64205
47.1486
47.2783
38.1513
32.9817
29.7274
21.2029
11.9885
2.79362
12.9236
21.2737
6.48496
5.69232
22.3266
15.8038
12.8384
13.8648
22.9762
30.8695
19.9203
-19.5187
-57.4706
-46.8209
-28.7111
-25.418
-38.5996
-50.2332
-47.4809
-46.3639
-51.7082
-40.9431
-36.0232
-24.2756
-12.4556
-1.87875
31.8762
49.462
51.6614
51.3526
40.9236
3.77261
-16.9412
-12.1252
6.30136
34.2858
45.4367
52.5147
41.3392
24.091
24.0688
13.2401
-11.6071
-27.0425
-6.5109
16.2599
2.16628
-9.54344
9.64745
21.1129
11.7648
-6.13993
-1.72726
1.66938
-25.3186
-43.7842
-48.5978
-39.5948
-19.2235
0.223969
20.2623
38.4285
20.3994
-10.9966
-52.5134
-78.1406
-90.0889
-76.6764
-21.1875
27.2963
44.3166
56.2345
55.5053
39.5181
30.4543
28.8211
40.1888
58.3468
28.7781
4.11246
-16.6396
-45.6375
-63.271
-55.4005
-15.8968
30.0816
51.9412
49.4144
23.8637
11.2981
13.7361
4.61109
-12.5617
-34.7894
-27.7438
-31.6689
-23.6517
-22.6999
-15.7161
-13.1756
-11.9877
-15.72
9.50609
30.3468
35.311
39.7286
33.3821
15.8945
-3.17477
-17.2113
-35.8829
-53.7384
-33.5754
-14.3788
-7.49158
1.48537
8.06462
2.0142
10.0113
11.3209
19.4749
25.0202
28.2985
23.9268
5.56435
1.02482
5.9473
3.7283
12.34
-0.262907
-0.930444
10.4348
-0.417661
3.95533
-5.56282
-39.2334
-31.8943
3.33154
-0.642855
-8.43706
-24.7456
-22.6348
-9.82729
-1.21279
-17.9234
-10.2609
30.4073
33.1428
14.2907
13.1702
15.6634
17.8235
9.67275
-9.00563
-17.1365
-29.0288
-62.0142
-71.3219
-31.8008
14.414
13.1878
10.6532
19.6694
16.1609
32.2407
41.3871
40.1604
61.1829
51.1177
34.4132
31.9515
19.19
5.00733
-7.75636
-39.2295
-50.7666
-43.0858
-13.0297
3.94918
13.5027
15.7011
5.31903
-3.92696
-1.27421
-5.63124
-23.3913
-53.7242
-37.0769
-29.1023
-36.149
-33.666
-18.9673
-9.90872
-7.47134
14.2111
30.1608
26.4229
16.1904
-1.87501
-3.54341
0.178582
-25.3303
-39.0276
4.55505
43.5777
93.9463
78.5877
36.1224
35.9035
36.5292
29.1192
31.1534
3.85549
-25.1112
-62.2804
-116.046
-151.283
-101.358
-28.835
-12.4294
0.906009
40.8676
57.4738
43.256
14.8747
-17.9084
-11.3287
-8.96877
-26.5264
-26.5182
-70.7582
-119.667
-75.9664
15.2956
117.122
201.715
233.745
194.275
136.628
109.233
121.323
92.3041
35.7522
-29.796
-53.3837
-48.4373
-67.3479
-109.028
-134.205
-142.809
-116.117
-88.1114
-63.7147
-42.0449
-40.4328
-38.9338
-56.0668
-92.1902
-72.5539
-58.7478
-68.614
-87.0952
-131.96
-212.085
-274.051
-174.252
-2.64322
153.796
234.391
245.255
232.212
262.341
308.618
291.089
192.369
131.528
120.523
90.7011
21.3788
-4.36055
-8.05069
9.26686
34.7892
55.1455
55.8337
-35.2516
-137.166
-188.762
-161.009
-124.623
-76.0409
-84.1797
-131.629
-157.339
-139.701
-124.253
-87.3542
-80.1316
-93.9269
-110.033
-107.479
-52.2134
32.2665
100.87
186.016
207.105
198.315
185.882
148.32
99.2341
17.7284
-38.8849
-100.48
-153.449
-98.2065
-20.9565
-58.5835
-115.057
-111.676
-12.0527
57.5443
52.7463
58.9144
88.8498
88.8971
119.016
136.933
83.2358
-39.1675
-169.951
-275.448
-233.502
-74.3492
63.0801
89.0269
98.2678
150.749
180.312
182.381
109.016
42.9412
18.0268
-16.6105
-34.3911
-42.2046
-60.6948
-75.8229
-43.2146
29.9421
128.337
221.357
192.628
91.6433
-0.903528
-64.5803
-81.3918
-62.5766
-71.0421
-123.983
-168.339
-185.206
-174.927
-151.668
-129.031
-101.432
-139.041
-160
-165.26
-157.1
-128.857
-46.4806
72.7607
141.457
175.841
186.912
140.869
112.963
153.11
179.65
171.414
137.693
87.2869
59.2712
73.5098
72.647
55.3138
42.1333
38.4726
6.49323
-1.07988
19.9677
-8.71652
-66.5555
-113.852
-129.316
-98.9784
-69.6735
-39.2509
-20.4385
-20.291
-4.77528
11.7641
-11.4292
-62.0514
-115.042
-98.413
-60.1233
-19.8639
37.3905
88.2721
105.758
84.3926
71.2704
52.3982
-2.27299
-75.7698
-100.307
-107.87
-100.306
-86.3238
-46.0711
6.42264
30.4434
30.6913
90.1202
141.358
106.138
54.7513
28.0426
0.417116
-23.6769
-16.8254
-25.6193
-24.5121
-11.8096
6.2572
21.7884
27.1023
22.571
12.3519
3.72419
-14.0071
-12.9686
-8.4395
-23.0833
-68.1886
-129.35
-153.781
-90.4372
-5.19248
1.38796
-20.0779
-14.3363
31.6054
95.7236
100.453
79.4369
114.758
235.087
323.269
233.923
44.4829
-88.5989
-164.854
-186.904
-126.215
2.79003
65.1984
58.1274
-7.74763
-63.9496
-131.124
-176.837
-144.496
-69.2833
-27.6602
-37.6857
-65.5554
-129.787
-197.367
-136.923
-8.23015
97.8957
162.356
178.578
169.504
121.802
82.3921
69.1825
-29.8974
-81.6583
-27.7376
70.566
110.06
55.6043
28.0671
20.7163
35.9823
-2.79907
-17.2714
-5.65893
6.9882
4.63515
-9.37279
-47.4579
-107.056
-69.5174
-27.1102
-50.8547
16.2987
78.3834
78.6462
37.8577
-37.8536
-21.6327
71.9788
80.7272
-14.0759
-73.93
-98.101
-101.993
-51.3688
57.2251
183.973
171.191
45.1722
-164.333
-344.788
-293.401
-103.922
84.9449
176.937
145.138
87.3781
6.37909
-134.725
-154.741
-58.8093
28.9619
82.891
92.4651
10.9584
-80.2261
-141.013
-109.37
26.2762
181.082
268.286
250.723
124.989
9.20573
-36.5021
-62.6844
-65.6489
-66.3861
-39.8039
49.27
134.68
152.281
121.373
74.37
41.5213
-40.941
-91.7112
-78.6398
-98.6817
-116.15
-41.1632
-1.4759
-23.9001
-51.9736
-58.924
-37.976
-33.0435
-29.1138
5.8874
-19.0903
-121.461
-167.486
-169.159
-121.656
-45.5779
38.0948
66.925
59.7032
43.5053
37.0392
12.1991
-9.19162
30.6007
67.0663
155.061
312.346
406.195
307.237
53.1637
-292.184
-498.118
-372.341
-191.381
-64.9782
-3.27224
27.353
85.2761
135.322
178.584
166.004
161.487
167.01
149.642
79.9732
-6.35599
-104.29
-157.5
-112.068
2.57728
153.366
220.049
138.685
38.2188
-37.6078
-102.257
-135.476
-198.879
-244.461
-217.232
-141.597
-96.128
-90.7
-59.1435
-5.78021
-6.26006
-12.0303
-27.8974
-10.5715
37.9788
113.246
152.766
87.4641
24.5466
29.9969
74.7905
88.5663
57.3039
6.56729
-67.0211
-50.2261
3.27225
11.7398
-11.9805
-13.0366
-41.1933
-68.8573
-82.323
-78.9192
-17.9339
78.7309
151.81
156.161
123.909
82.2048
63.8639
76.2845
115.749
134.423
99.0929
5.97599
-132.449
-259.775
-336.374
-259.963
-90.941
36.8395
104.418
149.737
152.518
79.8229
13.7738
-21.0691
-32.907
-42.4247
-34.0689
-41.9132
-29.5925
-7.71432
-12.6718
-15.5329
8.57173
13.909
-5.9736
-90.3184
-180.461
-143.96
-77.9522
-37.1996
3.54664
39.5718
119.143
144.463
107.454
45.2844
39.4239
32.8441
-4.18019
-33.7219
-6.28034
40.3521
81.8519
115.845
149.045
128.495
64.0493
-32.0341
-34.5942
3.21481
-26.2221
-70.0845
-77.2276
-23.1922
10.1624
-48.5617
-203.823
-309.128
-295.225
-151.258
4.01853
78.209
99.2096
112.426
136.177
117.267
104.674
108.603
111.037
59.1901
26.9996
25.1296
-17.1365
-73.7951
-62.4934
-20.0938
6.16485
37.8694
42.2613
13.8951
15.0818
30.7287
30.955
31.0919
1.34498
-3.37575
15.204
-21.5886
-66.0255
-94.438
-130.974
-133.71
-133.894
-125.474
-50.2827
-0.0483446
46.9632
98.5091
91.2871
58.7068
43.612
11.4964
-16.8509
-3.11843
42.7774
47.3466
1.76914
-8.97406
12.4458
41.6292
95.8507
157.601
153.779
16.9818
-149.432
-154.26
-112.101
-115.547
-50.2583
44.0565
54.3149
35.3134
27.9675
-5.64396
-44.7648
-52.8618
-23.8116
-27.9124
-37.1804
2.52467
41.4085
81.9475
88.6017
88.7164
70.6639
1.03107
-34.9789
24.852
62.7734
16.142
-26.9908
-59.2858
-56.6807
-45.3476
-52.3017
-34.715
12.2124
37.2134
36.7091
1.76269
-28.6829
-72.7927
-85.0989
-30.6822
21.7465
39.2069
33.6326
-21.4395
-69.8573
-61.1845
-71.5739
-55.7275
-49.6998
-11.6016
55.569
60.1105
40.363
37.4009
48.9459
88.7567
106.713
86.9521
34.4702
42.3635
90.3374
140.675
148.857
134.27
99.041
26.5159
-53.9529
-133.912
-168.725
-185.852
-171.006
-147.73
-158.432
-130.269
-138.925
-163.736
-113.727
-95.7731
-23.1996
4.28726
-15.0007
-4.77987
50.3418
93.6662
112.299
133.294
163.668
179.419
144.874
149.814
185.263
193.132
198.32
162.724
69.446
-52.5244
-208.832
-294.456
-287.204
-194.418
-86.6038
-54.0505
-6.24133
83.1019
103.244
61.3523
-21.3223
-75.9718
-23.834
37.5444
33.9775
65.4537
71.1785
32.6286
-32.5031
-41.6823
-6.26146
66.3477
80.9265
40.4403
4.50536
-41.0595
-57.3816
-52.9236
-47.702
-33.0745
-4.79937
-1.93697
-43.9963
-126.057
-151.822
-149.402
-131.878
-92.6416
-28.9133
19.9692
58.5732
69.0562
110.57
127.118
108.107
151.636
138.28
40.3159
-59.1168
-154.351
-106.412
40.5009
94.4694
130.621
123.04
71.9245
16.4285
-34.6359
-41.0016
-21.0679
12.7248
6.05984
-27.2775
-50.0294
-46.0215
3.59296
26.4708
33.0713
60.6883
78.699
76.9229
58.775
15.4284
-61.1465
-119.699
-138.971
-118.503
-100.586
-70.0413
33.6346
107.342
117.979
53.0841
-29.9802
-104.256
-177.002
-188.005
-132.725
-66.5506
6.75628
-15.0519
-36.3176
23.1219
93.5318
122.298
155.081
138.451
116.726
114.119
85.0992
27.3174
-51.1836
-96.5813
-111.458
-118.872
-13.7637
82.2439
91.2283
58.9288
46.3759
25.2847
-19.2202
-36.4482
-44.0084
-40.284
-67.3491
-93.8822
-103.693
-55.1042
-46.8156
-35.1085
36.5788
82.3787
160.598
230.578
191.65
103.038
15.2935
-16.1058
-5.71273
-22.2621
-52.5467
-76.0323
-87.4178
-80.5431
-95.7201
-66.0056
50.9251
84.1892
-17.0215
-74.0028
-63.1326
-29.3504
-14.0659
-21.7462
-74.2218
-88.0646
-58.9834
-36.8085
-43.8055
-19.4153
7.60306
40.5766
64.7479
70.6317
112.554
151.372
84.9504
-8.82667
-13.6242
10.2
-14.6336
-18.778
-20.1693
-15.3984
-19.7502
-21.5588
14.5473
41.6866
45.3007
38.3514
62.8022
110.899
82.5078
-4.84967
-61.6439
-95.0187
-107.641
-110.604
-91.417
-63.666
-24.8764
-5.39292
-8.01225
3.55712
28.0042
60.1666
98.2762
137.152
116.607
61.6358
-78.7096
-151.447
-83.6766
-37.8279
-41.0055
-50.9648
-37.4079
-9.48381
-4.59478
-60.8867
-62.2991
-4.36387
48.8446
110.829
141.328
115.22
57.8661
6.4994
-16.5288
-23.2501
-6.33038
-27.7963
-43.0875
0.871073
56.962
82.778
54.2074
15.9611
29.7051
43.295
14.545
-8.29128
-69.1708
-147.909
-177.009
-144.547
-104.599
-94.6915
-66.9211
-29.0482
24.2722
50.3179
18.8992
23.9702
67.7749
135.09
168.801
114.712
16.9355
-2.69459
0.739626
-8.48
-12.4545
0.432763
45.7105
75.7836
23.7502
17.1351
-6.44343
-22.7922
-3.0766
-14.5949
-73.9525
-116.032
-105.53
-81.0518
-75.0375
-13.2565
62.3796
83.2974
64.2344
20.9219
6.49863
45.6312
78.3766
97.5658
90.9143
-17.4707
-117.384
-166.972
-115.792
-30.8419
2.95418
71.5753
89.1214
59.3994
10.1786
-37.6195
-73.0238
-89.1962
-54.8847
25.2373
89.8337
48.7332
-38.469
-108.058
-120.571
-86.6486
14.4699
124.623
125.258
96.1069
106.998
51.5848
-66.949
-190.09
-146.965
-34.5546
64.2606
162.082
184.088
110.303
50.7104
28.2771
18.5447
-0.415709
-21.2599
-45.3369
-122.897
-219.659
-195.643
-76.3839
19.5285
59.5719
74.2636
132.696
140.466
103.896
83.2696
34.5829
-4.85948
-39.0645
-74.8255
-113.795
-114.882
-56.3304
-1.31089
56.0595
103.559
91.6324
-31.7345
-82.5806
-77.2404
-88.903
-58.9891
7.85796
42.0295
22.6404
-31.2863
-75.8843
-79.6963
-21.8462
58.2477
98.0024
70.1974
2.80461
-4.99497
19.343
21.0265
62.0907
89.5802
35.3844
10.7074
25.8693
25.503
-36.8819
-67.8369
-28.9051
30.6048
94.8344
120.538
82.7298
16.3809
-50.4624
-92.8396
-110.811
-151.455
-186.322
-154.022
-11.5919
145.59
169.369
103.952
7.74163
-58.9097
-45.7272
-37.8128
-38.4843
-30.606
-62.9146
-80.9577
-71.2265
-17.547
71.3276
94.3979
85.4794
73.219
71.2392
83.8441
48.361
6.33643
-38.3111
-40.8242
-16.4767
-39.3368
-105.728
-64.6148
0.368163
-15.8016
-32.4953
39.2303
161.8
212.071
153.754
31.9707
-103.585
-144.403
-129.133
-41.4231
60.691
89.4967
86.4494
52.5818
23.4062
44.499
49.7826
-22.5681
-91.5172
-120.696
-178.692
-239.404
-221.832
-160.249
-74.9335
17.6835
72.0252
110.319
176.583
167.986
80.3759
21.9112
18.3067
45.6725
46.7269
84.515
136.302
104.792
37.5791
-12.1212
21.3909
48.9828
-0.797653
-82.9046
-118.1
-99.5262
-57.134
-33.8925
-46.7414
-64.5499
-66.9143
-77.8881
-93.2135
-105.514
-146.614
-98.3669
49.0543
140.496
177.434
207.17
175.62
63.0603
-54.4144
-68.5882
-45.2111
-56.7065
-68.1629
-32.5484
48.0013
83.6887
53.1637
-20.7266
-25.5913
1.34413
95.8838
149.471
71.5339
-48.1286
-90.6398
-101.331
-26.5918
58.8153
48.2533
0.915315
-29.6638
-39.6632
-0.825805
9.22918
-54.5243
-57.7254
6.12774
46.0223
21.3231
-28.7176
-24.5456
-48.8489
-73.0444
-29.7371
-21.4625
-38.4132
-51.8941
-25.7469
27.1232
56.8348
69.7412
97.9243
-102.044
-64.1183
-31.9623
-11.7984
31.1959
62.0981
75.2872
84.3185
87.7498
79.1822
53.5025
6.11249
-18.6134
4.35597
67.2421
93.2458
73.3005
33.7691
-50.3317
-67.2815
-68.3911
-105.099
-123.361
-146.902
-172.95
-133.096
-49.8601
-2.80204
25.6004
83.0525
84.7401
76.42
77.7874
48.2463
-1.15526
-19.7976
-32.896
-15.8529
32.6093
46.4849
18.1697
18.1141
50.6087
79.432
96.7443
49.7211
-36.8906
-69.1526
-65.213
-78.6138
-76.0196
-122.715
-150.872
-129.253
-94.9771
-50.0964
65.8632
172.649
227.906
189.019
144.761
131.16
103.359
65.9983
24.6461
3.14113
-23.7376
-73.0389
-142.839
-189.125
-161.592
-87.8663
-49.3617
-3.65418
91.3702
139.05
102.888
32.6813
-37.3583
-95.3187
-132.71
-126.046
-114.686
-72.1048
-34.3157
-10.5652
41.8537
129.533
125.758
46.6032
-24.1144
-67.2785
-5.44734
55.64
36.9747
49.4512
68.502
69.0028
20.6766
19.4358
37.1889
16.3295
2.70857
-2.88481
-37.1099
-36.5891
-7.83725
-20.852
24.957
95.3324
113.887
99.751
41.6724
-45.8548
-97.5671
-84.0813
-34.9249
-28.6908
-36.6716
-69.7731
-87.6627
-69.1608
-44.1973
-21.8497
-5.70394
17.6303
20.5193
-10.0815
-31.5181
-37.0015
-28.6681
-7.22989
-22.2904
-13.0253
23.5474
2.52611
-11.2783
30.6499
57.9907
54.8053
45.058
24.7729
-37.2512
-143.109
-92.2141
55.8752
158.672
181.235
113.285
58.6378
40.2489
10.8273
-49.5799
-100.38
-63.3039
-7.96052
-27.1535
-37.412
50.6281
94.4697
85.7021
80.831
104.147
126.524
67.9881
-46.5235
-142.082
-130.841
-50.8919
-35.3701
-77.5213
-80.6838
-58.8006
-57.151
-99.6662
-115.026
-83.3954
-25.7537
-11.1838
8.35392
10.524
21.5293
58.1583
143.507
152.02
83.9968
40.4488
-5.63836
-31.7439
-51.6663
-69.9006
-83.6473
-134.406
-149.865
-135.312
-70.087
-12.6537
17.7206
80.6811
128.471
148.588
152.175
113.318
22.5986
16.4523
25.329
22.2848
48.0788
69.841
85.3088
159.28
213.798
228.631
175.426
103.563
27.1755
-53.2775
-125.988
-200.099
-231.966
-235.643
-234.353
-203.759
-144.328
-136.902
-143.831
-133.27
-96.5427
-74.623
-33.573
8.53682
48.2692
86.4283
112.707
106.869
95.0109
99.8286
99.3747
78.5062
60.3811
58.7141
46.4795
12.1377
-7.89785
-52.1454
-72.5247
-87.2968
-83.508
-13.7119
56.7402
64.1389
80.9569
96.7267
92.1232
87.3748
53.5072
45.1116
74.0888
72.2661
-2.18489
-89.5018
-152.43
-101.054
60.5562
163.889
140.355
69.9527
-17.5105
-82.4706
-101.923
-119.54
-144.724
-167.462
-148.326
-67.0536
-10.1647
-15.3669
-48.2669
-41.4823
-0.842345
50.1734
80.9806
51.8249
-32.8094
-77.5954
-53.8427
31.8237
84.6968
90.6821
62.8666
53.907
64.2408
43.0397
5.12255
-22.7862
-43.6987
-10.9212
25.4486
-10.8936
-41.8018
-48.7843
-47.0765
-14.7191
30.5237
77.2658
123.128
155.538
117.672
34.3252
-18.1789
-46.8804
-96.8971
-89.5755
-67.596
-73.4891
-51.2939
5.75378
38.2941
88.0514
117.616
117.747
119.985
70.8424
9.29963
-41.5195
-126.051
-189.401
-208.007
-204.654
-156.638
-71.5424
-13.6854
21.9252
47.907
76.3126
55.1893
-6.772
-47.6528
-66.3809
-59.3749
-3.05121
71.4759
145.794
184.963
189.571
155.526
46.0184
-10.9646
40.7663
77.8616
57.9565
48.7845
16.4532
-15.8348
-53.5996
-63.9492
-75.5774
-79.6326
-76.3413
-90.7814
-90.2114
-87.1923
-106.526
-145.124
-151.98
-74.6046
9.14728
74.9506
100.677
100.004
99.9832
75.2836
63.7973
76.9035
108.22
134.072
101.223
36.091
-13.465
-32.5072
-39.7997
-61.5612
-83.1163
-109.178
-136.614
-167.028
-141.39
-55.8986
-12.0024
-21.0592
10.7455
58.16
90.7433
48.8943
-4.10825
59.8457
136.922
190.743
206.189
152.536
43.4213
-41.6384
-101.147
-94.4214
-27.9724
33.2528
76.8474
46.3229
-17.5712
-54.0767
-76.3986
-125.017
-184.768
-165.937
-117.467
-67.6001
-16.7983
-16.393
-23.8954
28.7283
63.3954
81.1865
106.557
95.4814
64.2479
48.8487
21.7392
10.4015
33.8373
60.6615
14.8497
-26.0323
-21.755
9.13435
12.3639
-72.5756
-128.696
-102.282
-64.9606
-4.97727
28.1042
8.44372
-26.2448
-34.9189
-8.13729
2.44707
33.5699
90.982
127.379
151.406
190.532
175.161
134.234
66.0199
-23.5213
-103.886
-148.145
-162.272
-142.984
-144.953
-128.868
-80.3603
-30.6042
-0.796273
-19.5051
-7.84879
17.7646
-6.89845
-46.1265
-52.846
-20.5427
57.2971
127.62
159.857
80.2529
-35.9149
-98.5582
-153.363
-124.641
-10.7128
43.7153
102.311
146.297
180.8
180.897
130.435
61.3531
-11.5694
-81.7585
-109.336
-115.882
-125.955
-114.729
-42.5715
96.9767
162.433
66.1663
-1.71958
-4.07388
-32.1005
-42.6529
-34.1247
16.9501
15.3707
-32.7933
-35.285
-19.2292
13.9707
52.227
31.3559
-32.7948
-52.9663
-50.3778
-46.3033
-20.7337
6.27554
33.3062
55.9168
32.8733
-34.0956
-65.4318
-90.9302
-130.534
-101.579
-9.85689
27.5611
24.0173
36.7132
61.7818
77.6817
92.5172
58.5459
-21.668
-92.2414
-119.237
-31.1469
129.225
172.427
146.619
98.1535
71.8808
45.8102
13.6163
-14.4168
-66.5716
-110.741
-67.7233
-13.8494
3.85534
31.3081
13.3615
-19.2185
-8.0414
-11.7555
-41.4948
-94.5961
-137.95
-107.282
-39.7518
23.1868
60.256
47.1939
29.0483
-12.695
-10.1927
43.8041
60.644
35.7298
-6.68849
-88.177
-110.576
-84.671
-73.8955
-15.9227
68.5486
116.848
138.882
135.318
92.6711
97.7383
101.533
137.51
152.08
87.0455
-2.70602
-93.8773
-153.792
-178.454
-175.31
-139.584
-103.82
-43.3907
40.5775
39.9044
-23.1159
-56.5453
-111.727
-127.116
-90.9919
-43.1091
6.11795
-0.475571
-10.8372
76.1098
136.34
157.794
146.077
111.927
95.122
55.0172
11.1897
-74.9764
-197.213
-183.156
-87.4749
-42.1969
14.5395
94.995
143.126
123.22
108.926
80.4214
53.321
7.91601
-0.500308
1.38965
-42.3858
-77.6964
-78.5181
-38.6473
-12.3183
20.509
61.0647
26.0949
-0.132733
22.6186
49.2806
40.3831
-21.5176
-74.8121
-102.237
-96.9358
-76.8056
-45.023
-19.3492
31.8378
54.9292
23.9746
-28.9378
-40.635
-32.7614
-26.7205
5.75635
42.3851
30.2262
-23.6104
-36.2342
-16.1591
14.035
28.6404
17.1194
1.12878
-1.239
-19.58
-16.1218
-16.0758
-3.35743
21.2324
30.0934
9.03324
15.9442
55.6992
89.9409
80.1067
62.9182
81.3284
86.3975
19.3719
-53.4065
-58.2571
-43.4038
-30.0598
-21.7349
-9.89547
-15.2845
-30.9828
-43.4294
-39.6018
-14.3225
1.66267
-9.20021
-16.8167
-8.63342
-14.0741
-62.4107
-81.0433
-77.9999
-66.5014
-33.8993
-3.5326
31.0061
73.4331
68.2349
64.7149
55.5978
38.8835
24.4388
2.46801
-10.0543
18.8869
41.6348
43.788
61.8986
50.5617
24.7233
7.67615
16.1198
27.644
13.1497
-33.5551
-65.2056
-86.0971
-113.429
-157.138
-147.289
-74.1705
-6.03316
38.4091
70.6886
57.3555
29.709
39.0706
47.801
70.7678
82.4694
50.1858
22.8769
38.7246
34.5752
-0.958376
-34.8353
-39.9878
-36.0646
-13.8893
18.2616
18.8937
-4.99069
-3.73877
-12.8125
4.47671
15.25
20.7839
14.8591
-1.82142
-50.0043
-68.4719
-67.1324
-79.1034
-165.413
-222.459
-140.117
25.5585
165.373
212.805
179.547
79.4867
27.2176
35.1762
24.4982
-4.65911
-7.54227
-18.8323
-32.4249
-8.085
77.5498
100.781
39.2879
-28.6374
-19.7356
52.0035
29.8823
-57.0009
-102.034
-83.8211
-48.5384
-8.67622
-13.1266
-25.4817
-25.7837
-37.3935
-54.6262
-71.5336
-73.3864
-57.7978
-8.8655
57.8414
74.7943
84.0741
113.244
119.525
105.148
64.7962
-12.1168
-39.9553
-10.2916
1.08112
16.5785
19.7183
1.90567
-16.6359
-35.3007
-52.6971
-32.7298
-2.02746
8.51982
12.1787
8.3897
-2.72318
7.21565
5.89942
-33.1672
-62.0674
-53.3662
-80.9777
-169.49
-195.961
-122.141
-24.9064
35.8188
110.1
184.886
189.57
145.921
88.0761
28.6402
-37.3191
-84.3901
-58.908
43.1402
130.602
133.167
73.7854
43.8889
25.9675
19.9545
-11.644
-76.4093
-71.4785
-20.121
-33.3764
-83.0181
-89.5726
-81.9173
-63.0548
-66.8082
-40.747
-18.9468
-50.897
-101.371
-98.7669
-38.7268
37.5761
73.347
91.7883
109.254
113.647
61.746
-20.6783
-73.0702
-52.4937
52.6199
149.902
169.348
144.112
87.7899
24.8421
-0.634488
-61.8376
-81.5082
-72.6734
-93.9884
-111.373
-114.424
-74.1884
-34.7939
-2.18291
48.4255
41.3929
33.6906
15.189
-32.2676
-55.7018
-60.3187
-90.6811
-56.2072
1.95142
78.919
122.282
138.857
99.5862
61.544
25.3701
8.7686
-20.8435
-15.5515
49.3844
57.9923
14.8769
-21.0624
-24.657
-37.4716
-61.1755
-82.9107
-48.3335
-44.2175
-38.2726
-33.6186
-24.1043
-57.4013
-65.1229
-39.1675
-1.75213
50.8994
81.5437
89.3483
109.366
148.422
130.303
56.1102
-21.9914
-56.1708
-44.8306
-20.0623
-23.0371
-83.4399
-110.784
-97.2418
-97.3643
-129.392
-101.11
-65.268
-29.1356
5.44054
76.2294
141.833
132.817
83.5857
88.4724
94.9538
62.1418
-0.195844
-47.2911
-69.4992
-77.2704
-33.4979
16.8265
41.2988
81.784
97.8557
69.678
41.7017
-2.81564
-34.4581
-73.3632
-103.57
-164.476
-178.599
-146.88
-55.8832
75.2306
127.28
91.5736
101.947
161.19
142.648
73.085
54.0142
56.8903
56.3494
12.8379
-37.3548
-29.2622
-55.5804
-97.2644
-95.4027
-47.7817
-45.1218
-83.7513
-106.839
-165.409
-186.162
-35.1243
61.2785
43.9504
30.2239
9.14033
2.59861
8.80656
34.6879
39.3233
36.7516
30.2534
47.592
47.6399
1.64716
7.1796
29.5808
55.1201
81.5653
138.931
154.121
63.8056
-35.4309
-93.4381
-83.8478
-63.6083
-51.0327
20.4312
56.1343
24.4022
-3.20919
-23.1741
-25.3067
-9.64552
-22.3438
-51.4124
-50.8542
-33.5212
-16.4954
2.61923
29.2123
7.42453
-8.5636
-11.4805
-6.26274
-10.6212
-68.3284
-105.902
-111.244
-86.3918
-62.4978
1.63194
45.5098
88.5421
129.445
118.149
97.2824
99.1955
87.5968
27.7987
-31.2369
-43.4339
-25.8595
-18.8207
-33.8377
-16.6616
7.08201
1.77481
-0.555357
17.9747
45.752
13.8317
-38.8657
-57.7486
-47.6111
-46.9941
-75.2093
-128.317
-160.81
-113.157
8.07944
119.468
208.398
265.451
274.347
180.565
101.005
7.06074
-82.7756
-63.5183
-27.3747
-51.7638
-90.3242
-131.338
-137.893
-92.3735
-38.071
-32.5038
-24.3927
-40.1855
-37.0677
-61.1694
-111.041
-130.572
-87.3607
-4.08424
68.337
125.472
152.588
108.855
80.3994
119.674
140.223
86.2535
-15.5203
-96.1452
-83.455
-52.8934
-16.0488
17.8681
-18.5568
-96.0694
-133.164
-85.1223
1.91452
103.861
108.229
44.164
16.6753
7.87223
-7.51787
-11.5049
8.83091
25.2926
62.4537
69.7494
83.0374
128.09
138.825
68.3604
25.781
74.884
93.5653
60.1868
-2.68291
-103.774
-140.372
-145.758
-160.268
-177.327
-201.13
-201.087
-148.431
-87.2338
-47.7902
-11.6138
-6.43088
13.263
-5.71739
-5.57995
-1.27062
-1.38921
-5.649
-51.888
-54.5091
15.4684
106.083
162.717
190.624
162.162
132.814
119.32
98.3896
82.8304
89.8628
72.2768
50.8805
46.4172
66.7122
70.3055
25.6771
-19.496
-42.0684
-46.6521
-47.2049
-58.1514
-101.377
-106.596
-92.9861
-77.0125
-54.3676
-65.9972
-100.127
-130.837
-133.419
-86.5786
-42.4177
-30.0451
-42.402
-22.4928
3.43099
-37.3439
-32.7786
60.2622
97.6603
89.485
91.8649
80.2306
43.246
22.5692
15.6719
14.3295
50.2479
125.528
146.194
114.917
81.0069
36.0515
-1.68113
-20.2041
-19.1419
6.21176
0.932545
-64.6632
-102.328
-77.5893
-62.1897
-47.8954
-46.3728
-38.4497
-20.7844
-5.76804
-0.777624
22.5124
26.9309
9.28215
-23.6793
-62.9438
-75.6538
-48.8214
-29.5276
6.7199
13.67
0.690206
-14.0007
-40.8808
-9.21208
46.6177
84.5827
122.372
97.1518
60.1797
31.0709
-0.256989
-21.3666
-23.6381
-18.822
24.7573
15.2103
-15.4368
-16.5341
-23.9503
-28.4532
-34.6376
-71.4932
-85.8619
-117.866
-123.409
-86.1144
19.0939
149.905
201.978
196.823
148.242
95.394
54.3593
-15.2163
-87.2449
-119.115
-163.023
-168.467
-91.889
-26.7302
0.130282
48.9118
63.2525
81.9252
100.08
78.4153
8.11344
-55.125
-69.2465
-52.474
-19.8195
10.1268
46.1353
90.0827
98.251
77.1399
45.2914
18.3948
-74.8169
-85.8683
-16.4812
50.6578
95.1694
74.325
12.0916
0.14576
-52.912
-107.771
-149.076
-158.896
-154.045
-149.031
-135.511
-98.6899
-61.4182
35.0718
123.378
171.45
186.151
143.759
78.0568
11.0365
-15.1351
11.3533
29.5223
36.6778
25.9351
-13.4261
-40.7142
-82.4057
-132.798
-103.024
11.0326
61.4333
76.5238
96.8388
134.122
118.851
46.4834
-46.7518
-14.7191
49.6873
12.6745
-42.4576
-38.2548
-24.8599
-1.24855
10.3913
39.1909
40.3683
1.33383
-63.0351
-123.547
-123.753
-74.7101
-64.7641
-65.4135
-26.7721
42.4205
106.095
87.8123
41.5384
1.23748
-30.1275
-77.8118
-142.475
-166.575
-113.274
0.784656
98.5736
134.747
112.055
68.8266
10.9705
-13.7717
15.501
64.1488
38.107
-12.604
6.84906
-52.2679
-56.6423
105.158
163.321
150.699
125.486
111.829
85.9266
7.55559
-54.7415
-77.883
-105.893
-143.831
-159.782
-149.185
-112.314
-119.777
-123.416
-95.3806
-71.5163
18.2791
33.824
-32.0066
-38.7047
8.94237
66.3889
102.878
110.352
108.835
102.389
109.521
115.452
107.85
95.6731
66.4365
7.38382
-21.5415
19.5049
46.9938
33.669
1.58859
-55.1595
-109.914
-147.012
-162.484
-127.105
-70.5446
-43.6727
-23.9741
0.597484
54.6956
74.0704
39.9982
9.75139
-18.5346
-33.7518
-16.9571
-10.7307
-24.8329
-20.2777
-0.877017
29.7384
50.2321
68.8846
65.028
50.804
42.3758
51.802
18.9587
-26.3394
-100.614
-143.838
-94.7563
-29.7561
10.2343
53.9114
46.3392
-8.22232
-12.9448
11.0952
31.5245
31.7399
-5.38619
-15.1505
-3.45957
-3.44002
-13.5513
-16.5309
-35.5732
-45.7569
18.8241
106.198
104.506
87.6849
137.81
151.377
132.586
110.004
65.4516
-59.6202
-221.357
-315.852
-269.941
-146.043
-69.8774
-69.6041
-89.7319
-98.323
-46.969
64.6361
156.077
200.41
187.945
159.89
134.994
71.7953
9.21601
-23.1321
-23.5205
-13.2218
-20.2108
-14.6262
-8.43639
-52.1217
-72.9353
-58.7863
-34.1175
-6.25239
-15.5682
-44.8808
-60.8206
-84.2865
-68.9093
-27.163
-32.158
-47.1112
-63.065
-55.8673
10.2868
92.9537
129.494
134.637
83.3506
-4.44443
-21.0891
40.3185
67.1167
74.3775
89.5889
90.383
38.2424
-7.95033
-26.1518
-36.7714
-56.2256
-39.2171
-11.0624
-3.41248
-65.4635
-143.408
-131.178
-34.9057
46.3122
91.6795
88.4091
80.0104
77.837
31.9028
-10.4328
-46.9109
-55.6911
-24.7145
-0.116798
19.4216
3.93019
-35.6365
-56.6693
-43.2073
-12.1937
38.4258
43.8935
34.0741
7.0309
-34.7731
-6.8205
13.5792
-24.7241
-31.7883
-13.2956
-29.4568
-37.2247
-53.2654
-75.7445
-101.984
-82.3638
-32.5553
0.458285
3.35723
-9.60696
-11.4999
23.9107
64.9226
150.913
247.352
240.743
199.066
165.101
95.1858
-25.5582
-137.578
-115.984
-24.147
26.1026
51.4804
21.2116
-80.6161
-149.868
-176.598
-180.236
-110.591
-60.1455
-94.4869
-137.311
-80.5565
-11.585
0.359445
4.1159
25.3553
58.6696
126.327
108.188
71.7916
54.5295
27.1458
14.2534
24.8804
40.5954
82.1075
142.413
142.471
122.337
116.557
52.5305
-77.1921
-198.083
-246.977
-208.722
-129.539
-55.576
15.689
70.8573
78.7167
88.2982
97.7327
112.991
111.372
86.9358
26.7018
-33.6325
-98.3684
-111.598
-81.6438
-39.8287
-45.595
-46.4753
-20.0571
0.140122
9.99209
32.6219
24.4819
-62.6193
-135.886
-165.583
-163.718
-131.219
-107.528
-22.9804
94.1214
187.635
187.398
151.297
95.8631
100.614
167.224
182.09
131.39
58.5412
-17.8601
-96.0333
-174.833
-243.759
-232.12
-110.989
-16.6373
27.2947
78.9072
94.3478
83.2674
81.5555
111.651
111.907
82.2746
9.29468
-81.6669
-103.286
-84.8438
-78.6637
-60.0521
-10.208
51.6375
102.425
79.7208
58.549
79.0842
28.1257
-35.8411
-84.7768
-168.26
-207.003
-180.829
-105.818
-55.0442
-61.2707
-35.6949
26.389
70.6329
107.306
280.446
195.153
124.47
26.9562
-36.0368
-6.59055
19.6338
9.12735
-8.23578
-0.574605
-7.88632
-49.2574
-104.683
-103.157
-89.918
-88.5281
-53.4919
-5.85661
-26.0695
6.52726
25.8544
-6.49483
-11.3591
14.1208
39.525
74.5782
95.4491
123.67
193.202
258.891
231.49
175.877
83.4905
-47.5575
-93.4598
-85.3415
-136.324
-207.328
-205.934
-215.453
-194.98
-138.813
-80.8616
-43.3892
-8.34923
-4.62659
-20.9122
-75.9897
-133.706
-149.692
-56.0368
26.5213
60.9158
113.368
153.731
174.544
182.43
158.791
103.948
66.9734
70.666
112.846
88.0304
64.207
33.6715
-14.5974
-26.0552
19.4853
66.1769
62.4784
-33.3407
-135.549
-177.638
-179.102
-117.042
-72.0541
-70.0824
-29.351
12.8776
39.5268
51.4136
71.9276
108.54
67.7503
-36.4923
-84.7721
-74.1615
-8.94747
-3.66468
-39.3952
-36.987
-23.6828
27.292
54.2526
37.0048
29.4905
-10.4712
-42.4833
-3.16785
5.2983
26.1247
6.33543
-68.6441
-84.4301
-45.1646
-13.6829
23.1148
7.2251
2.2411
66.1596
155.963
177.741
104.03
74.8946
49.5451
-36.7834
-113.297
-156.492
-158.937
-175.274
-191.794
-125.673
20.3139
138.544
176.904
149.443
119.598
104.616
57.9653
30.1562
4.03485
-38.2553
-65.61
-53.1288
-76.5891
-90.0851
-40.6862
-2.77491
21.0781
65.7569
90.7562
58.6896
-0.0813359
-17.4968
-11.933
-10.1793
-6.99085
-19.388
-42.0978
-108.28
-190.141
-183.377
-69.8207
18.7298
78.6588
131.717
193.145
219.735
204.179
207.92
171.737
63.8055
-76.2157
-142.06
-131.577
-119.191
-139.092
-171.767
-172.86
-171.03
-89.1684
1.70739
35.9112
26.8959
10.0939
17.8813
11.4365
-0.672485
21.174
24.3164
29.5246
22.7002
77.6743
93.1371
70.0763
79.4595
109.223
111.384
92.3815
68.5394
31.5832
-11.4784
-73.2063
-170.858
-234.438
-157.688
44.8047
207.659
182.736
70.3018
-83.4189
-199.713
-158.18
-23.5776
38.1642
6.39359
-32.6052
-36.9238
-39.5573
-28.2599
-4.80799
-2.33793
36.7413
121.183
144.674
60.448
-71.9204
-117.246
-78.7694
-49.0905
-13.6094
37.5722
9.26766
-96.2252
-138.575
-57.3344
43.8314
105.256
134.902
148.754
136.228
112.367
92.0966
46.0544
24.379
6.82179
-40.6321
-88.5625
-95.7174
-66.4959
-34.8911
-10.0423
-25.534
-59.406
-74.3527
-38.4227
16.3867
76.9251
104.994
110.397
58.5615
-1.79526
-76.3947
-157.717
-141.684
-48.4742
6.59327
-11.2709
-30.6793
1.05827
56.7683
94.3367
131.406
119.816
60.809
-47.8749
-119.66
-158.188
-195.339
-203.047
-136.568
2.6265
128.701
185.109
170.734
156.251
156.094
89.1108
0.644648
6.97198
30.9022
40.9284
-35.3661
-74.4494
-66.2805
-61.0616
-111.609
-172.369
-77.1565
48.8339
30.3582
-5.74507
1.89311
46.4061
66.6497
1.24056
-59.8801
-30.4865
-12.5425
-30.0793
-38.7445
-29.0631
19.5529
80.408
128.716
161.371
161.439
122.063
47.1259
-44.9204
-92.6405
-83.6469
-115.317
-194.897
-147.998
-19.4329
121.318
165.674
117.209
47.3431
-1.84898
-28.5858
-10.0444
-4.22729
-33.4795
-51.4505
-58.0222
-63.5456
-74.8943
-78.1847
-14.8408
7.43626
8.32644
2.28446
-32.3948
-67.2426
-118.057
-100.845
-12.2237
15.1049
49.8861
75.1051
63.4915
70.2799
90.1799
90.8856
105.086
104.55
88.4917
72.9444
70.248
58.3937
48.6522
63.9264
50.7916
-69.3218
-162.247
-163.245
-119.825
-100.164
-67.4484
-47.1738
-12.4035
43.8159
72.8783
69.1774
67.7673
60.7982
4.24926
-65.5793
-151.646
-186.396
-122.024
-43.5866
-1.02265
62.5023
93.2074
87.2772
104.877
117.45
106.136
90.1064
35.9802
-26.6867
-50.2499
-86.0471
-150.007
-156.516
-61.8828
21.2115
56.9949
80.6515
55.7639
26.6149
-9.47009
-60.0669
-92.1427
-113.947
-139.535
-141.01
-124.884
-17.5063
23.6276
-20.8329
-40.4494
8.35101
131.077
230.197
265.85
261.609
244.546
191.044
118.992
58.2729
43.9778
45.1712
4.31528
-65.7789
-62.7714
-22.7374
-31.1127
-91.8485
-77.259
-56.5345
-67.2885
-89.1959
-126.562
-169.479
-226.871
-208.517
-98.355
-49.7967
-36.5462
-22.5989
-34.6972
-22.7636
6.59648
35.4191
49.1003
46.9186
61.2249
72.3865
64.9648
78.0298
89.6335
65.535
50.6378
50.672
54.5991
45.7819
18.891
9.25745
14.8904
24.4597
19.4713
-3.27701
-15.2378
-20.8408
-14.4122
16.8038
44.3758
33.859
3.96929
-15.0566
-19.1318
-7.26564
-59.8639
-117.383
-101.001
-73.9837
-17.2752
88.4594
157.44
159.558
115.623
40.2379
0.348924
-21.813
-78.1887
-85.6496
-63.6671
-39.4535
-83.6496
-116.138
-110.929
-50.6403
6.26518
45.9344
75.4099
117.703
49.0243
-52.0614
-120.574
-139.194
-109.118
-53.1721
-52.2309
-44.8127
-29.5832
-40.5056
-12.7278
59.1762
106.069
92.8896
134.801
190.32
187.173
182.058
145.044
65.7706
38.508
2.11995
-32.6531
-86.2244
-96.2764
-34.5764
20.4309
51.5824
16.0503
-53.0553
-85.2992
-145.172
-133.768
-15.9062
45.454
-5.30521
-41.0131
-53.5463
-53.5261
-10.4398
7.28348
-2.00612
-5.78905
13.1879
14.2204
-8.26066
-8.95876
-20.2863
-27.1376
-13.1406
-16.9593
-0.327519
20.0044
24.3241
21.6976
14.5333
20.2755
19.471
1.21582
-34.7807
-66.0608
-83.3953
-58.4893
9.14756
6.44583
4.60899
64.052
156.13
240.111
200.468
49.9402
-61.7954
-79.9105
-26.7186
13.5214
2.34908
0.737687
-1.91376
-44.3993
-68.8761
-49.1787
-25.4947
-51.1095
-92.0332
-27.1943
79.7029
83.1461
43.7218
-8.28298
-22.9383
34.8194
74.7262
90.5014
87.4724
34.4449
-22.1363
-80.8663
-132.825
-171.202
-178.867
-75.2156
6.06077
21.6306
23.3985
8.42518
-55.0649
-119.321
-113.574
-32.6654
52.9106
78.9212
121.199
135.773
61.4946
-38.2282
-105.7
-103.966
-60.1006
9.78998
58.5116
12.3447
33.4112
129.707
194.864
181.452
136.322
120.68
74.7043
-3.29389
-36.7363
-44.1163
-45.8581
-45.2792
-63.4873
-65.8407
-28.6056
34.2889
72.2507
83.0257
13.6663
-76.5104
-154.92
-206.44
-185.469
-123.427
-82.5946
-57.6485
-13.1796
46.7005
84.3323
101.833
36.4275
-29.5877
-70.2216
-28.6251
48.3637
33.6727
-22.4341
3.9014
81.9745
161.281
187.819
168.65
95.1067
11.8968
-74.4439
-123.566
-122.764
-84.641
-26.7416
34.2933
99.7374
99.4108
26.6209
-80.3912
-147.413
-149.819
-155.175
-133.877
-61.4657
5.21508
21.6479
37.1452
65.6911
91.8451
128.884
165.003
121.032
38.5686
-35.3064
-84.7043
-83.0357
-37.8452
41.9249
100.143
62.7642
6.77389
-10.8853
-72.0965
-140.768
-141.187
-36.9967
71.0593
92.7556
105.479
96.6913
109.192
103.037
36.484
-47.8277
-79.7221
-125.675
-133.964
-99.3335
-64.4703
-26.2154
20.3008
69.2597
89.2818
90.4808
21.9765
-55.3901
-78.7007
-46.8147
-45.1131
-27.3212
-47.816
-56.1237
-29.1067
16.8267
57.7612
53.2661
3.8047
-15.2623
-15.1026
-10.0739
20.9308
54.1549
30.9247
12.2193
89.8823
155.883
96.8212
-2.66997
-72.2948
-111.449
-132.718
-137.209
-84.9944
36.7504
102.248
108.288
107.808
48.2803
29.4762
68.8344
90.6795
11.2492
-115.351
-212.324
-185.483
-71.4923
3.38829
18.2087
28.8133
64.3881
56.786
27.8756
36.2078
22.0231
-10.5001
-9.82923
4.82443
47.4032
61.4042
44.336
-9.0888
39.8633
177.882
231.763
113.016
-96.511
-188
-202.108
-216.29
-206.789
-169.032
-113.383
-66.1803
9.10923
55.2918
70.847
36.9766
31.8685
60.8919
46.0473
11.7317
2.61818
-9.38204
-18.1998
0.485944
24.257
56.435
83.7254
129.96
171.819
196.879
176.398
124.367
11.6308
-82.6648
-119.286
-131.739
-125.747
-110.349
-92.2188
-69.5327
-61.8992
-46.3489
-1.66042
40.0307
35.1443
-32.5537
-85.2775
-79.0734
-65.1237
-39.7066
-2.05827
-16.3739
-49.3298
-55.2272
-51.7824
-32.6004
7.9044
72.5972
146.616
183.724
174.675
139.058
99.1385
58.0192
6.69781
-21.4305
-16.8095
15.0113
12.8574
52.3949
73.286
77.9419
75.4301
28.9584
-30.6158
-50.4419
-92.3402
-135.305
-142.029
-146.143
-134.997
-76.667
-34.0882
-52.5375
-83.8371
-44.2065
22.6876
6.37015
-28.2746
-82.2773
-98.307
-58.3677
5.71398
30.7444
55.2689
91.7098
126.031
116.865
94.1123
90.089
78.5831
67.9554
20.5115
-22.499
-24.5773
-12.1429
41.8892
87.9889
85.9251
44.5759
3.64554
-15.8638
-63.1885
-90.6022
-70.6002
-6.77658
60.1007
68.6801
25.7775
3.97879
-22.1945
-8.01933
24.6385
23.0525
4.88176
-50.3809
-116.033
-151.022
-172.848
-148.839
-83.0996
2.20666
94.4978
140.935
114.529
86.9444
18.0095
-57.1092
-111.533
-170.613
-136.125
-54.8864
9.81293
66.978
66.3068
80.7737
99.0896
93.7124
100.02
103.174
84.4329
-1.46268
-65.4659
-36.1023
4.84877
18.2016
24.3838
20.2486
29.6667
39.8263
16.7491
-72.1388
-111.416
-91.4886
-35.9511
16.4126
80.36
120.365
147.36
135.69
84.6042
37.2459
-33.8656
-88.6466
-92.8216
-117.279
-126.068
-99.3735
-108.818
-139.255
-80.212
-25.8034
-42.8638
-101.808
-88.3577
-13.4923
4.11994
-2.47955
-4.79035
9.39518
29.1004
50.5874
63.7239
51.5591
88.5305
132.604
145.947
120.641
108.661
121.749
72.9265
3.21053
-16.6185
-14.264
9.1656
5.70089
16.935
47.48
43.4145
-12.64
-83.6294
-101.726
-102.461
-77.8912
-72.626
-49.0416
25.5588
94.8414
103.905
108.014
68.286
7.58071
-46.4794
-67.3266
-35.9297
-31.2948
-115.753
-168.551
-182.603
-170.114
-158.832
-128.776
-64.721
-6.46014
47.1906
77.2992
60.2566
62.603
92.269
94.5863
50.34
-14.0707
8.84978
100.063
116.124
116.262
90.2574
-3.59648
-92.5431
-82.8344
18.8023
84.551
119.16
142.107
191.301
209.012
137.316
23.7662
-111.148
-182.78
-140.601
-189.375
-179.27
-81.1714
-28.068
-44.8271
-124.624
-180.68
-141.493
-84.0455
35.1466
185.485
264.187
177.248
29.8667
-82.5448
-141.823
-93.829
58.5063
138.916
126.124
136.755
120.313
52.2987
-48.8154
-30.7386
98.1925
95.8342
-67.4901
-218.023
-224.916
-191.966
-142.803
-59.3941
-14.1169
24.4518
40.6326
21.1914
15.2161
43.9634
78.3299
151.302
167.488
103.486
87.1429
22.7309
-55.2845
-44.945
59.6344
155.146
88.5041
-45.387
-128.232
-162.141
-149.641
-146.78
-117.564
-96.9808
-95.622
-95.5954
-111.758
-96.4601
-55.9288
-19.0262
30.0905
37.98
47.5044
117.19
225.26
299.125
270.664
161.477
58.7323
19.9894
-29.5626
-88.8679
-68.7912
-43.2721
23.6108
64.4698
47.9734
-5.46057
-130.058
-150.466
-34.6702
10.4151
25.7956
20.1218
-16.6113
-80.6297
-124.704
-101.922
-41.723
8.18022
61.163
127.929
117.847
70.13
-28.0052
-94.5851
-62.6023
-1.63983
35.5803
11.8971
-40.3352
-45.924
-16.4572
19.9493
40.5772
41.7285
22.1466
21.6177
-0.685417
-45.9013
-78.6771
-94.729
-85.5545
-35.6912
32.0106
64.7589
30.1617
22.9801
85.8259
129.464
82.2396
30.6507
-39.6767
-70.4568
-87.1333
-63.2987
-57.5311
-47.3036
46.502
124.42
21.8411
-68.8794
-139.63
-147.289
-97.1979
7.98056
190.698
287.257
235.667
145.5
74.8078
38.6461
19.7903
-20.3141
-64.0533
-124.392
-156.958
-169.535
-144.713
-101.943
-31.1099
50.989
116.279
101.684
12.7843
-65.4048
-95.0835
-17.9857
70.002
80.7792
23.3077
-28.024
-44.0655
-33.6144
8.77987
63.1599
89.7175
69.9865
-26.4816
