-8.70187
-9.99194
-10.4715
-9.49354
-5.9064
-7.29276
-5.31346
-0.354884
2.20233
-3.5392
-2.16334
-0.188195
1.25788
-1.81765
-3.59971
-0.282939
2.97271
9.2365
2.35587
2.65659
6.0739
2.33
7.91222
11.9394
11.3072
7.50686
-22.7194
-34.9905
-24.4496
-21.2026
-15.4642
57.8301
60.0292
26.5104
11.0838
0.39153
-0.807749
-4.62898
-18.9383
-40.8375
-66.0847
-58.7663
-16.6501
86.9547
173.651
83.0237
-17.0407
-57.452
-82.9682
-73.4962
-52.1849
-61.4392
-53.9955
-31.2956
-7.66311
24.2659
63.7081
74.234
110.001
140.646
89.6538
-39.4151
-119.065
-147.648
-155.56
-38.5423
77.1206
130.157
111.83
-33.7226
-94.5474
5.20976
56.9964
29.0333
-7.25363
-18.1862
-39.9763
-33.8335
-22.2478
-89.1455
-86.5485
117.188
178.292
-8.53659
3.19465
43.5064
33.7982
26.9724
41.7756
76.1067
73.1505
-12.3586
-140.166
-161.39
-78.0928
-14.766
-11.8838
-21.5695
-27.3785
22.2482
73.6619
28.5809
23.0624
67.6728
-16.8997
-104.506
-133.071
-182.209
-158.685
-13.3002
75.4731
70.0289
116.153
159.499
120.391
46.7316
31.0875
18.889
3.86066
57.1788
60.6801
-38.3444
-47.3646
-89.4382
-155.057
-32.6247
157.763
198.879
141.2
16.821
-54.6798
-74.8076
-60.6931
-66.7936
-77.4004
-60.427
-43.6891
-15.6031
6.13217
-18.5892
-7.23237
25.0431
-15.8585
11.4973
42.4863
-10.4676
-91.3763
-73.1946
-11.5635
33.6571
58.3768
27.4997
-21.4547
-61.9584
-20.234
19.1864
20.259
65.8493
62.6565
-27.9337
-48.2806
-19.2978
-7.21531
60.7243
138.26
99.4622
-77.1806
-225.251
-101.497
21.6841
52.5914
133.231
224.52
43.5312
-33.5089
42.8419
12.7949
-85.61
-101.124
27.5689
40.6095
-6.63865
-20.8938
-30.1571
-54.1123
-36.9871
-6.39217
47.5699
24.2948
37.3152
11.2741
-117.624
-171.261
30.7544
123.108
63.8052
38.9488
-16.4424
-45.3283
-72.3644
-81.1861
-79.0709
-16.0424
40.5319
35.9631
-13.2875
-14.6916
-5.95427
-23.487
-33.4002
-22.4903
85.9892
132.037
45.3155
14.9315
41.8388
94.2275
97.4242
-18.8963
-42.5367
-6.83015
13.02
-8.54442
-33.5118
-38.5967
-25.8224
-1.83966
28.0204
17.1535
-22.8187
-26.5004
-52.1661
-65.1751
-7.23272
-32.157
-33.6872
21.5564
39.955
62.5379
38.6247
-11.8113
-32.5879
-64.7054
-72.4323
-50.5618
-34.3643
26.3719
68.733
22.266
-20.9254
4.69478
7.62483
39.3358
160.539
40.1918
-106.397
-169.729
-66.9274
30.4373
35.4641
38.9094
34.3359
28.5918
56.5259
36.9499
-32.0708
-59.1805
-30.8602
30.4161
219.679
222.44
12.4037
-74.1526
-139.541
-124.524
-83.767
-27.8262
-18.1503
-45.438
11.693
61.7696
-10.744
-4.31172
23.3078
-13.6034
10.9839
10.4048
-6.97376
-18.8692
-147.759
-70.0904
80.4648
60.5633
40.6591
66.6308
69.5756
46.6364
67.0583
-3.08015
-63.8493
-36.5741
81.2553
68.3509
9.3433
21.0682
15.9519
-40.359
-31.5722
-8.49298
-16.6381
-84.2469
-205.35
-258.073
-161.799
15.2241
98.6521
126.176
88.6277
69.9635
44.2004
-32.251
-64.6182
-17.6164
-16.7624
-39.0416
-4.63166
70.4585
44.2581
13.2871
35.8104
49.1018
190.538
222.342
110.308
-4.98348
-58.2199
-73.8881
-82.7589
-24.8613
3.6685
4.92944
-29.3856
-74.5169
-70.4701
-27.7532
-2.64948
-3.95896
-31.7654
-46.6674
-44.3246
-58.0173
-60.5929
-46.0438
-36.8338
-23.1413
10.1752
122.268
182.548
26.0294
0.12058
-5.73573
-19.8555
-38.4088
-32.2845
17.1126
49.6561
54.6649
69.95
62.7472
-10.9677
-40.2441
-135.746
-138.453
9.26143
86.1672
147.927
41.0635
-103.115
-22.2911
-8.80628
-66.233
-90.7684
-13.5258
19.0662
-10.3753
30.2878
59.4048
81.0227
117.673
77.7827
48.3111
85.858
49.6905
-25.7338
-82.5576
-144.152
-144.427
-95.4206
-4.52933
88.125
105.986
39.3652
-25.0109
-105.727
-126.929
-100.41
-83.7044
-81.9229
-73.8083
-7.27393
42.0588
90.6307
127.791
104.384
109.974
71.6763
-6.20295
-6.70232
-37.1975
-101.72
5.38946
81.2662
53.4056
53.3036
66.3343
29.5605
48.9368
99.0309
42.1897
-91.7699
-200.291
-197.8
21.1764
127.044
-50.0604
-17.9551
58.4934
-48.1459
-67.1598
26.9583
99.6286
48.1281
28.5696
37.7195
42.9409
24.3173
-15.8944
-51.6513
-59.0655
-41.8987
-32.0714
-5.54965
-82.2242
-146.203
-29.9891
-30.1573
-36.4405
56.8492
71.4566
-13.4075
-12.8323
104.351
91.0257
-34.3403
-164.009
-322.768
-274.955
-125.891
54.9562
190.958
285.008
266.551
164.306
144.574
188.03
169.619
128.367
116.41
54.8122
-59.6893
-153.181
-130.48
-102.994
-57.2378
-6.94192
18.4815
-36.7121
-87.3739
-56.269
-29.5809
-71.1193
-59.5475
-20.3357
-34.5018
-92.066
-166.789
-161.088
-52.5916
54.4574
16.4689
-82.0803
-92.9606
-25.7288
29.4565
8.83171
94.425
186.158
336.941
150.132
-122.626
-64.6291
-0.0704957
12.6026
-6.02163
-32.751
10.6073
21.9853
-0.9864
7.75556
58.2733
87.2659
89.5808
77.2776
54.4605
76.0682
92.3923
40.2941
-124.053
-124.331
-23.5951
-21.159
-10.1073
-99.4005
-85.9919
-26.5234
4.46265
8.68169
-30.6405
-54.6663
-42.9301
-52.685
-56.1056
-56.22
-37.2634
39.2954
49.5876
8.28392
-7.60065
-47.0067
-46.8422
-1.86268
-32.5278
-11.5962
85.0829
152.097
92.808
78.1563
69.8446
15.8858
-45.6575
-6.05258
18.3833
85.6014
45.6592
-58.7117
-116.601
-128.414
-175.506
-113.488
274.485
203.959
-30.2862
-66.3544
-19.9499
158.472
174.596
-97.0215
-176.801
-93.1359
-23.6138
14.2751
-22.8545
-67.418
-16.4471
121.143
151.616
-9.15671
-179.36
-239.178
-302.911
-111.181
93.64
136.302
77.3257
-52.4196
-75.0595
55.137
143.251
156.079
168.318
128.355
32.3131
-78.9206
-44.0686
-15.8052
15.4065
114.213
187.945
173.361
47.036
-90.0411
-151.707
-89.7338
59.2897
17.0346
-140.429
-65.797
-21.3268
-7.04215
-41.5434
-65.2746
-17.0216
76.1856
142.123
46.5421
-48.2317
-25.2661
2.84883
12.8273
-40.7698
-81.7108
11.2947
-19.0883
-153.289
-163.279
-53.4854
-15.6182
-23.6819
-43.4891
-15.4429
3.86872
27.7745
57.3155
-47.7647
-175.575
-100.567
34.1186
140.569
198.682
247.349
202.38
64.5067
-43.7864
-132.539
-58.7794
28.4263
29.1044
55.1608
47.0544
8.15243
103.682
50.7784
-54.0664
-57.6091
30.5137
70.8676
33.6857
-89.9327
-157.421
43.1067
66.9734
-58.3205
-44.4995
21.3266
83.8518
161.401
168.222
56.4597
-56.2073
-119.853
-178.047
-119.244
-141.385
-167.654
-71.2825
-60.3294
-85.9496
-21.6551
44.918
-92.9264
-156.371
16.4714
140.019
146.199
201.013
1.73963
-242.119
-196.901
-67.896
59.8797
83.1937
89.0665
123.389
180.29
190.225
152.937
102.458
48.737
-29.5709
-89.8181
-19.3926
77.2742
85.7516
-22.2187
-184.562
-132.371
28.4815
49.6119
30.5661
37.0295
32.6964
8.78044
-9.77217
-39.1873
-58.32
-57.6471
-50.8283
-31.8698
8.84179
-65.1537
-131.159
-8.6825
123.085
166.822
71.0584
-33.8554
-18.1172
-11.1743
-52.9952
-55.7591
-98.0595
-4.11562
208.022
36.4531
-85.5121
-281.974
-299.453
-188.333
-8.21709
139.948
208.529
56.0056
-49.0043
-27.759
-48.1556
3.63336
75.9978
150.613
194.882
168.17
111.692
-18.2828
-67.2924
113.33
87.5186
89.0319
93.7908
65.0525
-73.1857
-161.083
-150.144
-124.53
-142.138
-109.62
-53.0668
56.3501
186.239
74.3583
-51.7128
-61.4027
-66.8278
-60.4016
-59.8686
-52.9675
-19.7202
51.2495
41.3276
-1.66727
20.184
26.602
5.04492
23.3596
-8.16055
-36.4719
10.4923
17.2544
-45.6817
-51.8361
18.26
-0.000856751
3.34614
11.9836
-47.3656
-23.6515
46.0424
130.266
117.483
54.6954
15.9925
-13.373
3.74389
36.7508
85.1967
35.5815
-74.9748
-172.912
-203.48
-97.4398
176.931
279.377
96.1723
59.8988
34.1024
-58.6736
-99.3405
-76.8401
-1.0237
22.0968
40.1492
21.3484
-25.2473
-126.543
-194.106
-123.241
-121.978
-52.5947
-18.3591
-7.69593
-62.8667
-60.4653
42.1206
33.5277
42.9152
167.261
187.769
174.814
134.123
43.7671
-59.6909
-78.4337
-69.2237
-39.022
76.9673
190.617
69.4274
-45.3057
1.02226
36.3458
-53.4801
-96.6791
7.09414
6.0436
-78.0068
-209.034
-173.698
-58.5919
-57.0231
113.455
10.2543
-221.998
-27.2828
130.543
84.0763
-50.205
42.0012
127.218
80.7321
44.4434
18.5904
5.30693
24.0787
43.2452
0.7326
-40.9799
-149.328
-75.1867
223.343
14.9164
10.8963
175.75
98.3523
34.1927
18.3515
-25.0685
-0.889125
36.3328
5.06721
-34.2175
-61.651
-77.5691
-85.2086
-110.803
-79.8369
29.8319
59.794
-137.098
-271.48
-68.6284
109.137
182.321
62.3721
10.3287
35.3023
40.3288
15.1018
-8.40886
-36.5813
-69.0394
-77.2191
-50.0633
-12.8273
20.8356
35.2651
34.1852
90.4032
98.9303
9.92205
-25.0327
7.78277
37.8569
-43.0248
-94.3796
-43.6917
-12.7362
-4.85629
-3.72977
65.5735
14.6621
-38.8434
-129.442
-87.6533
14.4094
45.7736
88.299
131.74
143.503
73.5381
23.9588
-16.5145
-0.983112
48.3081
25.8619
34.2476
44.2239
90.7733
45.9282
-63.2953
-81.7521
-84.73
-54.7278
-67.2551
67.6908
227.029
-7.00747
-180.694
-213.848
-168.534
-132.925
-150.597
-85.3771
36.6923
82.7227
11.1223
-26.4
-17.1907
-43.1537
15.0094
131.358
163.993
111.552
44.9795
-54.007
-133.507
-30.5909
43.2022
118.015
84.2784
12.4348
11.103
-9.36909
-27.3173
21.4444
73.825
51.237
-34.1547
21.3536
-1.18821
-51.4633
-58.7033
81.9246
210.15
120.209
-38.6592
-30.9175
13.7883
-34.3602
-52.3175
-90.4754
-191.346
-130.292
-12.4448
8.54106
-37.1521
-37.5002
-139.446
-87.5027
162.395
201.466
-33.5892
-222.082
-91.5081
57.2688
21.6194
18.0916
76.2179
123.115
59.9546
38.1047
10.6138
35.7277
7.49904
7.50726
78.4601
166.963
189.041
64.1679
-119.612
-123.015
-24.9718
16.0295
-62.2379
-186.885
-147.061
-91.3263
-21.2382
45.2157
29.6601
36.1931
34.7236
-44.8619
-118.772
-83.6094
-70.2611
-52.7386
7.92536
19.4107
-12.2411
48.9154
258.401
207.871
51.0925
22.4015
29.9644
46.1571
23.323
-40.6923
-139.281
-126.283
-7.81091
72.247
57.4125
-19.3312
-36.8291
7.70669
27.788
0.674997
-25.1766
-28.797
-121.611
-29.4456
72.599
95.046
197.744
153.063
82.6456
-1.38873
-135.959
-191.98
-207.907
-139.023
-70.7414
-35.8913
-9.56612
43.9282
115.176
43.5805
2.7514
68.2684
62.0067
-3.55904
-28.5303
-79.3207
-74.8449
-11.954
-52.6684
-49.8511
99.8413
163.339
107.058
62.6911
60.3343
65.1054
19.7944
-80.7818
-103.544
-62.5284
-55.4629
-85.6988
-22.2566
46.7133
58.3475
2.88114
-83.9453
-118.494
-60.3076
85.1138
158.053
47.9815
-9.2015
65.5575
209.779
108.568
37.7968
-2.25714
-48.1421
14.449
-134.174
-174.032
-185.008
-201.517
-128.367
-49.534
38.516
142.554
97.9143
-8.4119
29.0382
17.7398
6.50737
14.0486
-48.7969
-8.73586
23.2537
11.0813
17.665
42.0225
136.816
126.179
94.7583
87.3504
40.0458
-3.59859
-102.6
-127.891
-22.4532
45.8936
2.31369
26.3784
10.3653
-50.3098
-80.2877
-52.2896
-49.9447
-66.0828
-63.5799
-73.5516
-23.5915
3.03077
33.7558
119.781
146.504
140.651
80.4299
11.5125
-49.3042
-24.7657
13.4454
-39.8683
-115.473
-120.325
-142.924
-137.978
-101.511
-6.9935
41.3239
44.3104
60.8697
15.7794
-20.0828
-13.6923
-6.16641
21.51
88.6457
118.518
133.921
140.953
43.7037
-114.754
-58.2197
90.1544
264.973
225.289
30.1377
3.53969
-54.0428
-121.235
-146.705
-137.821
-108.195
-58.5839
-33.5483
-23.8299
-88.4372
-95.7256
-32.576
-47.783
-67.1735
39.8678
65.814
8.80759
-70.3588
3.04009
126.155
82.7178
-20.4588
-210.442
-180.709
-52.1741
0.114145
90.093
115.038
132.018
156.475
113.888
97.0671
93.6068
55.1979
81.0785
59.165
14.2912
-67.0359
-49.6573
18.6372
-46.2556
-66.6004
65.9275
78.9094
51.3851
15.0611
-106.037
-167.603
-171.428
-135.302
-112.154
-94.0707
-75.5373
-6.49523
59.411
70.6238
75.3229
82.2553
161.452
70.2771
-64.6756
-64.6843
4.432
50.669
-11.4473
-94.3475
-79.776
-11.1408
3.62916
4.51926
12.4972
0.207798
-9.18861
-14.246
-38.7015
-24.2854
0.766773
82.0603
133.907
12.5381
115.603
150.057
44.7647
-60.0657
-62.1201
18.6223
16.0772
11.8359
44.8359
-19.1352
-52.2339
-26.5195
-24.4197
-24.2434
-5.7079
-3.13225
-35.9182
-127.504
-223.673
-70.9336
-51.139
25.5627
176.879
195.601
54.7798
-167.437
-127.246
-59.844
-35.8938
33.9808
80.9546
70.0482
95.9332
66.4527
-9.9345
-17.9387
52.0786
28.0116
-15.782
-13.5106
-16.5192
-70.8542
-91.6488
-53.6956
10.9087
164.256
200.033
170.739
108.24
72.1724
24.0839
-46.6378
-120.566
-141.491
-87.3685
-61.2693
-90.2117
-71.7195
-69.6093
-63.2805
-58.0601
-10.917
-28.4082
-5.84919
73.1409
64.2721
-15.1764
-36.7917
36.5452
15.6651
11.7006
8.64687
20.2903
67.0083
89.5566
15.5375
-114.114
-91.2813
138.488
161.503
12.2507
0.777134
-5.65671
-31.226
-26.1322
-17.1343
-43.5684
-48.3555
-82.9267
-52.8331
-16.1948
20.244
32.1295
25.9165
14.4322
33.5578
105.057
64.8513
-86.0878
-94.0565
-21.0802
-23.4905
25.4861
39.3084
23.6672
8.81232
-38.9074
-28.4383
34.2367
55.6278
47.7263
7.35663
-10.552
26.0153
12.2102
16.9829
48.2804
-88.8363
-123.91
-0.543737
98.0599
119.223
17.0656
-147.087
-114.954
-16.1147
-3.84725
65.1093
2.89269
-52.9661
-76.9355
-70.9453
-61.8467
-60.3945
36.9172
190.114
223.295
193.868
104.159
5.87773
-84.0152
-143.407
-118.99
-8.48023
32.3542
-3.06949
-14.4598
-96.4038
-114.932
-79.3292
-36.9789
45.1132
60.8796
-56.2169
-96.2778
-114.207
-36.7812
205.017
16.405
-90.9349
-19.7203
-32.0379
-5.63095
115.374
211.821
168.351
43.784
-51.3396
-7.82257
53.4618
46.3224
22.1988
50.035
118.308
99.4792
11.3642
-92.3763
-185.586
-104.64
-40.2943
-18.6011
19.8992
26.9147
-13.8999
-91.2852
-61.7628
33.4462
79.5445
44.441
-32.3271
-25.7074
-36.485
-70.9733
-41.8008
-13.3671
-28.7057
-49.0769
-43.2819
23.2691
37.8408
8.52423
-0.78969
-9.14283
-36.5386
37.3364
110.104
108.966
88.8342
-11.1507
-24.1006
49.58
20.7316
12.4967
-34.7464
-93.3559
-113.502
-103.397
-22.3089
117.466
155.16
16.7874
28.4576
14.9287
-35.9503
-126.205
-177.192
-151.604
-92.402
-13.5921
34.4922
41.9425
112.372
135.524
95.4182
81.1602
93.367
57.9919
13.865
-18.8025
-23.7597
48.0727
37.0355
0.467427
-75.404
-147.651
-112.207
-5.59215
-0.259478
-60.1816
-25.3504
108.18
222.224
9.05006
-81.3645
15.8181
108.295
96.9274
-20.5264
-98.3567
-117.303
-46.8614
16.091
37.2266
1.06226
12.1829
10.6352
-26.3618
-55.1129
-6.00348
-15.0835
-116.911
-177.582
-69.1954
12.5757
-4.35433
44.0637
119.688
73.1639
11.4379
-51.5947
-106.068
-97.3236
-19.1099
66.5221
78.7421
110.245
103.704
142.49
158.879
91.8491
-6.14594
-62.3683
2.86341
36.0705
2.92275
-49.6844
-91.3052
-70.1751
-68.5513
-50.9876
-4.80194
-6.14059
-0.664206
55.48
56.4204
16.7424
-36.2737
-81.5493
-107.588
-15.4927
38.5673
18.6998
16.0117
-118.798
-182.657
-51.6251
81.4947
98.5616
83.154
59.5964
-22.1518
-44.9921
-46.294
-19.626
34.0546
26.2831
59.5999
71.2536
30.508
-63.9555
-81.5312
-24.838
164.492
303.139
129.056
-14.1231
-102.467
-99.1296
-94.7223
-60.6781
-9.47314
18.0919
80.9843
67.9816
-10.9227
-75.7226
-95.5352
-59.7982
-1.97829
5.65
-3.56516
-36.465
-93.364
-65.5535
21.5654
-6.77382
-48.0054
-30.2269
5.69909
42.5583
61.9943
33.9451
-10.2356
26.7686
135.725
113.231
38.784
-76.5212
-96.9136
-54.5133
-25.5848
-14.5565
-35.5498
-14.9625
50.9751
10.397
5.91793
39.6409
74.344
67.7335
45.6953
24.1367
22.7403
39.4448
-12.4727
-52.1538
-53.1381
0.575849
17.823
-4.42912
-9.2129
-37.189
-81.0697
-91.3538
-75.4375
0.806067
74.8815
30.4539
10.9095
22.9576
18.3586
-20.0436
-41.6415
-60.1261
-135.208
-172.62
-87.9432
92.398
118.069
164.898
117.215
34.0739
-5.6114
55.5796
204.866
-71.6809
-166.507
-43.2739
-13.2651
-43.8207
9.22948
85.1674
95.7769
73.6509
79.4078
145.809
4.61759
-137.173
-65.4823
-51.718
-101.599
-92.8571
-31.0696
-24.9626
-76.4912
47.2489
73.8434
50.6274
17.3287
2.10104
-11.6155
-6.27007
11.4334
4.2788
-99.0074
-153.664
-52.8418
-22.4494
27.1947
23.6193
14.1875
42.2936
36.2835
32.2499
32.0781
67.7639
36.4324
-4.33661
-18.5542
11.2726
42.3398
18.8794
-17.525
-29.0979
23.3345
42.224
4.57526
-12.0955
-69.164
-106.514
-14.8578
80.3416
104.335
59.7819
5.34632
33.345
34.9246
-35.4376
-4.63164
24.5729
-2.51128
-32.8242
-61.5888
-71.5916
-34.4976
0.829296
50.6495
12.6633
-80.6998
-108.082
-111.735
-73.0559
10.0494
112.647
184.204
-14.8477
-41.8104
13.605
22.3522
22.9878
25.3573
-4.10896
-42.2528
-27.0897
-1.62816
34.0205
95.1492
146.531
77.5371
14.4147
7.85538
-40.871
-107.913
-143.002
-155.14
-53.6807
-35.1262
-38.2792
18.1967
43.0477
23.0172
7.76718
12.2211
-39.0164
-70.5865
-64.283
20.6021
102.686
138.693
154.598
79.0014
-31.3461
-91.5136
-117.799
-33.9959
86.3016
149.171
227.332
81.8919
-146.098
-108.4
-31.7572
-23.6656
5.28295
36.3472
16.6677
-61.0926
-132.201
-88.0775
11.9079
95.3296
114.316
50.6713
-40.7949
-90.0817
-69.9701
-68.8613
-44.8161
31.727
44.3094
-58.6116
-69.7966
-9.5728
58.6434
120.115
95.5541
19.3829
-14.7104
-4.69434
-65.5112
-86.7005
-57.4103
-8.90712
60.876
49.3895
58.4157
89.0212
69.2608
-14.4365
-32.5638
-66.1073
-54.2834
-0.375046
-3.49899
-55.8075
-89.7525
-77.5311
-53.3885
87.063
44.1269
-69.4514
-5.9247
225.487
202.129
-13.8893
-31.1079
-79.5666
-131.297
-111.503
-35.4104
21.4947
40.7342
22.0241
26.4723
49.1728
10.428
6.62612
42.6169
-31.3387
-11.9616
60.2682
59.7888
-8.34952
6.84247
49.4987
-9.43503
-103.7
-111.89
6.37839
81.3465
90.2442
63.6045
5.41603
-81.6537
-92.9027
-23.6944
45.0776
16.5984
-17.8639
-8.31546
17.7205
4.75722
-55.4497
-44.1199
17.7381
6.35968
14.6309
1.07153
-57.1692
13.2446
4.82488
-74.3099
-75.6949
66.0504
167.968
162.931
78.2757
-6.64075
-155.797
-236.716
-83.1864
43.6205
3.1727
13.1423
38.0839
21.4128
62.8542
123.555
61.6451
-88.3051
-116.949
-15.5586
69.0088
-17.7502
-160.655
-177.878
-1.82161
135.29
101.413
214.635
172.084
28.6877
-12.3639
-60.2503
-80.7387
-58.2908
-30.3145
-40.2148
-15.6477
37.763
72.3816
63.9028
29.9191
4.40668
22.6887
89.0066
26.3086
-84.4737
-138.982
-179.332
-157.339
-117.582
-73.1481
-18.6562
30.4799
67.2086
39.9829
51.7494
82.7647
102.051
98.4956
46.5404
-2.09588
-19.3433
-29.1645
-57.6795
-108.585
-104.937
32.8718
101.787
87.1016
94.5567
62.4681
-36.0729
-89.9362
-43.8319
11.5901
26.3738
83.9439
82.3977
37.5812
30.0246
-28.5213
-47.8523
-42.042
-49.8227
-78.0717
-49.8361
79.0558
62.9221
-10.1367
-41.3717
-41.6893
13.9762
50.1811
48.6309
9.32237
-80.5423
-170.025
-190.979
-19.7111
78.0311
19.7873
-1.52305
13.8787
29.9312
15.9214
14.616
12.0691
34.1755
58.879
68.6548
61.6433
18.1097
-96.9028
-81.6728
-8.54596
31.718
235.832
209.356
25.1262
-58.6396
-14.4711
-8.80922
6.60802
-77.9957
-49.5834
-14.428
-56.2106
-138.073
-181.612
-127.644
-53.4664
5.58846
90.1439
64.9897
38.1899
42.812
-65.1852
-42.367
-1.9629
69.7864
95.4037
49.6558
-28.7932
-20.924
-41.5244
2.25571
121.273
103.187
78.9925
47.4798
1.1799
3.32246
29.2467
59.1609
55.695
9.95236
-30.3676
-45.7705
-76.9416
-123.564
-85.2794
-30.6682
-25.5966
-3.8967
-74.5036
-203.908
-194.387
-18.5742
61.3695
81.1725
159.63
122.527
97.2659
8.94
-66.8558
-42.4298
-57.6888
33.5298
52.5769
2.43703
-13.8272
-5.50798
13.8722
38.527
76.2896
105.085
55.8294
12.6875
17.7494
7.79037
-63.1466
-78.3968
-112.989
-107.594
-30.1367
44.9949
49.0495
27.2125
12.9985
-8.37948
-14.3147
-29.0326
-19.8269
-14.6455
-13.0997
47.3061
79.9061
52.1355
27.9356
53.8916
90.6741
75.9786
3.49066
-32.109
11.3815
-2.4374
-63.5178
-115.957
-102.214
-153.871
-176.799
-48.6796
90.0025
211.639
75.1138
27.7455
22.8987
51.3201
46.5449
-102.899
-209.47
-149.268
8.03192
87.8822
88.4924
-29.5793
-62.9725
-18.4738
-25.83
-17.9022
79.9859
65.4175
37.708
-17.5865
47.9579
22.2075
31.0409
103.741
152.292
57.1538
-42.5226
-108.496
-107.902
-26.3049
-17.3493
4.83195
33.5533
23.7216
72.6665
92.5072
47.593
-3.04143
-65.8462
-135.651
-66.7889
-37.6077
-49.4638
-93.9927
-86.4392
27.9289
96.7028
112.116
89.3392
21.4465
-47.091
-37.1097
1.12332
23.8868
63.2429
75.4868
-34.612
-107.19
-80.0106
-32.3883
-6.53485
-3.25127
-24.9178
-50.9434
-53.2329
-8.01286
67.798
150.563
100.98
25.9915
-51.6085
-81.5731
-69.1012
-47.3339
-29.2717
42.6338
152.901
186.649
118.397
20.5417
5.09889
68.0621
-9.27567
-79.0307
-136.483
-139.579
-137.926
-123.976
-51.9095
-23.5476
-41.264
-3.99287
13.8715
-1.01417
-57.7674
-80.158
24.6626
106.412
96.0097
60.2494
11.1897
67.4151
266.404
127.852
-18.8599
-103.734
-133.157
-66.4633
22.1681
51.8782
110.211
116.019
65.8243
15.0752
-25.8285
-46.9984
-64.1341
-77.1681
-65.7732
1.55478
-40.2506
-151.799
-180.701
-74.4939
18.5735
116.591
28.9255
14.041
-43.6466
-1.65569
113.144
84.7105
60.0071
58.4555
62.9262
51.764
-74.0667
-155.944
-78.0997
-57.3196
-49.1922
-33.9833
-61.9233
-14.9434
24.591
71.3579
154.656
119.577
104.903
58.9827
-3.75161
15.1679
38.0372
29.8029
44.2126
24.8884
5.92791
-28.2052
-78.45
-73.8024
-23.523
-17.8406
-33.2412
-14.2446
-37.2141
-69.3337
-52.7979
-9.43518
-21.089
-71.725
-50.6497
-30.84
-65.8184
-64.2006
-25.3785
-29.1053
-19.6365
18.0301
90.1553
158.934
94.3453
46.4187
-28.4691
-37.9116
8.63094
20.9694
-9.09192
-53.8758
-21.8341
114.287
191.892
21.7058
-0.128204
14.4727
10.589
17.3136
42.661
39.9622
-22.5203
-85.7287
-76.3078
-65.1236
-15.474
82.8164
49.0216
-6.59481
52.3829
20.9532
-36.3614
-147.922
-237.621
-108.471
-5.66578
48.7927
63.2825
71.0701
53.0144
105.827
106.129
97.4499
38.3551
-62.4543
-119.826
-109.508
2.34601
42.4477
-151.725
-233.677
-80.283
21.8184
58.0676
193.173
174.39
4.86441
-73.9311
-92.3904
-90.7002
-61.7629
-20.7206
17.1945
119.249
164.532
135.276
71.0497
24.5383
52.8724
163.758
203.51
112.25
-19.3398
-104.453
-188.715
-192.457
-105.162
4.39722
-24.4386
-100.272
-170.851
-32.173
14.5323
-40.5577
-46.0951
-45.559
-42.9543
-46.7745
-31.1914
29.4496
-3.69947
-95.2488
-72.7178
61.9933
181.9
34.2992
70.468
108.01
140.919
149.644
112.752
-23.3286
-30.6756
45.0145
18.9131
-6.68616
-23.0841
-57.5746
-67.3126
-32.5832
17.486
88.228
102.118
-5.32478
-91.4073
-12.8243
-6.7458
-103.278
-195.983
-133.446
-12.8196
75.375
65.6849
-4.9404
7.57679
27.306
24.2867
13.4851
4.62119
9.82013
23.1565
0.886035
-25.7398
-51.732
-8.30167
50.9419
25.986
28.7669
77.3239
79.9629
8.68455
-111.543
-131.058
-108.171
-32.291
53.9957
76.9104
-61.0633
-90.3732
-32.4001
64.8936
36.5503
34.7107
48.8117
20.8978
-16.1912
-33.9963
-22.7976
76.62
131.6
76.5505
33.4796
-0.882177
-48.5817
-96.9348
-62.7726
-24.3125
63.7238
123.967
101.237
13.9648
-46.5526
-108.046
-114.121
-77.1534
-25.4989
-56.8648
-55.3018
-46.8668
-54.2684
13.7339
62.4134
123.355
202.379
192.128
60.2332
-1.32732
22.7226
-61.3735
-177.566
-183.235
-71.0971
134.957
97.2235
-28.6311
1.43822
69.6521
30.9579
-45.0122
-99.119
-121.458
-127.604
-93.7385
-78.5546
-33.5088
19.2706
24.9815
20.2576
43.2368
8.82928
25.8672
73.6281
57.6197
77.3792
107.753
73.9013
-6.04412
-11.1999
34.644
38.5881
46.6509
40.1521
12.4991
4.0957
-40.1046
-61.9024
-53.9657
-40.2644
-22.5202
49.9519
59.9419
13.2447
-65.9986
-50.4714
11.1684
7.22292
-83.5043
-78.7288
-32.0694
43.8777
46.8601
-31.9268
-34.213
-26.7323
1.72782
17.0941
3.10174
6.38454
30.7482
35.5638
16.185
-18.1906
-60.2027
1.15309
68.709
5.83439
-33.0144
81.5137
22.5696
-38.164
-11.8991
18.473
-33.7409
-50.0371
-43.4068
-20.7176
14.7209
27.7886
38.0241
93.5929
138.32
110.584
16.5479
-92.3124
-174.985
-109.621
-0.402351
-36.9997
-63.5623
-21.6077
11.3409
-1.32296
26.7398
16.3686
28.3523
31.4561
55.1798
104.572
59.3346
9.72727
-49.5967
-57.4437
-4.81928
16.9889
-3.68552
13.9287
41.0523
-50.0153
-86.3443
-139.543
-67.225
103.464
56.3293
57.7129
26.3978
-9.40924
-21.3843
-41.0366
-33.1898
-22.7248
-30.5154
11.5622
41.7264
16.9018
42.645
43.8074
82.8542
81.1041
98.0673
47.9498
-117.648
-148.082
-71.6237
-15.6305
17.5838
-30.2697
-75.7599
-36.169
21.1884
67.8596
64.7808
83.7434
127.686
84.7679
-35.3243
-178.655
-258.467
-200.682
-89.0889
-12.2575
84.2599
128.586
121.467
103.374
77.5512
1.11249
124.287
140.532
26.1694
-64.6408
-116.516
-149.774
-128.189
-53.2553
29.2881
99.2672
115.702
65.1282
-6.20896
-27.2953
-9.36045
-13.9032
-13.4843
28.6137
33.4724
29.1933
-88.1211
-107.766
-36.6305
12.3957
17.4002
4.08254
-17.3384
-35.2839
-41.2861
-44.2627
-22.5473
0.659437
-0.14983
23.226
48.9212
46.5021
33.3921
44.7987
98.3988
105.696
9.78815
-30.6001
-15.0022
20.573
11.4238
-58.9491
-98.3199
-93.4077
-20.2231
144.53
84.4158
-11.3639
-18.7336
-29.5533
-35.2999
-65.6397
-103.391
-94.67
-75.1078
104.569
155.113
10.0228
27.8014
-11.3606
-38.5255
-4.2511
33.7109
68.9982
31.9533
-69.9613
-97.8919
-66.641
14.8621
65.0271
142.065
112.611
-111.692
-262.936
-141.603
-50.8366
-55.7167
35.8753
109.156
190.232
121.45
57.5362
39.6335
8.27537
2.48149
9.10692
67.5014
66.249
4.29616
-14.3608
-67.516
-60.7057
70.0052
150.156
67.7337
-69.535
-45.003
35.1931
5.63245
-101.966
-137.416
-150.205
-137.809
-99.3445
-59.7781
-42.5917
3.18002
21.9898
18.4051
14.0515
-20.6506
-13.4164
74.6322
115.82
60.3873
-4.82479
-31.4747
-34.4806
-41.5471
-27.5288
4.11675
33.4018
33.8717
70.5033
104.775
65.1719
89.372
115.402
-15.8778
-99.9144
-68.9223
36.3645
111.446
112.494
54.9433
-12.5256
-71.8485
-101.226
-100.004
-58.2257
-3.1439
26.2381
-9.34065
-32.0553
-50.2822
-39.5208
-44.9268
-59.5571
-23.3826
19.2812
20.2287
3.86018
-19.692
-5.49376
16.7444
25.7357
139.426
148.013
-27.7813
-202.401
-125.259
-140.534
-77.9763
7.99144
195.649
234.499
60.6504
58.4696
104.076
75.6334
17.6775
-48.4373
-61.7443
-49.3427
-63.6158
-84.5531
-113.695
-94.1316
10.4574
89.0971
48.4997
58.0035
30.3993
-33.5083
-142.586
-153.683
-57.5167
-40.6614
-11.8592
43.7912
102.222
149.98
96.7355
52.327
-35.2074
-1.18919
56.9147
103.198
53.7043
33.5955
-7.72745
-94.9291
-84.1156
-31.8252
11.4804
-11.2271
-45.405
-70.037
-87.0046
-72.5654
-28.4811
-9.53682
43.0898
112.94
170.209
101.472
-20.7537
-124.241
-122.865
-47.4996
10.7612
89.812
95.389
60.6991
-21.9916
-44.7837
-16.9721
-36.2924
-47.9549
-23.1972
-11.4585
-4.92435
28.8158
-16.3244
-17.1019
6.99205
2.0442
37.6729
79.8233
65.0505
19.2757
20.0005
-10.631
-47.9573
-33.2049
-90.5775
-91.2312
-19.0349
24.6751
37.5408
17.387
-7.24142
-26.6486
-25.5668
9.76755
15.0714
11.4256
11.0087
34.7743
45.1531
38.2768
24.9369
-33.6885
-60.5381
-85.2299
59.4687
137.585
134.282
126.392
122.086
74.3039
-38.6682
-177.277
-256.888
-238.007
-160.174
5.5892
209.663
89.3081
16.1376
15.606
25.7791
42.9974
12.8115
-31.6898
-81.0701
-90.7669
-71.0398
-20.0926
-0.292686
-74.1659
-78.4721
66.6335
94.3878
76.7379
58.0354
-17.6842
-110.819
33.7214
70.1272
20.3476
19.9034
7.36423
56.927
93.6648
-8.52365
-63.6557
10.3814
19.5588
10.1004
68.6923
37.6979
-10.557
23.3214
59.6453
15.5131
-40.5005
-31.3441
63.9542
80.9196
-72.0796
-199.205
-226.101
-141.121
-14.3777
98.92
109.715
39.3486
-21.2886
-45.2743
-12.7226
66.1759
83.9351
77.1412
1.54978
-17.1946
-7.43315
-63.3499
-124.673
-116.923
-19.3824
115.712
222.324
143.923
10.5412
-32.0605
-37.5158
-54.4366
-73.4932
-119.964
-126.081
-51.6234
42.9154
83.4033
21.9381
18.8058
30.9585
5.80959
4.75239
20.6205
51.5077
12.5088
-55.9489
-103.291
-55.1473
63.0295
52.6395
37.7515
23.009
20.5702
33.6711
35.6102
4.38998
-22.5108
31.2049
56.5428
20.8662
2.87367
-12.1258
-25.0063
-1.2884
11.7401
23.147
19.3818
-45.1265
-99.2213
-58.1836
-27.7997
-26.6286
-15.3858
0.356615
-14.5225
-69.0843
-107.612
-54.501
63.3816
215.72
71.222
-72.9511
-59.4413
77.4767
82.4501
17.3662
-12.8733
-47.2954
-77.8611
-35.5356
42.358
32.6136
17.1389
-6.17885
-51.9284
30.2823
139.198
146.843
-5.28005
-259.886
-200.555
-19.1644
92.7126
32.2604
-23.3669
29.217
72.8309
54.1327
85.2918
41.6863
-95.819
-48.9139
51.251
140.083
149.225
71.5277
-41.9107
-78.013
-42.8031
60.62
87.9203
12.8598
-105.584
-167.288
-136.371
-122.286
-112.815
-85.658
-98.2334
-71.8359
-30.9537
-5.33772
21.8944
32.2905
66.7667
70.7661
53.0885
-29.4985
-48.3922
16.1358
80.8317
101.135
83.4456
58.1916
78.9085
163.404
138.386
110.972
34.4515
-28.0121
-27.4287
-33.9247
-70.823
-105.697
-111.862
-105.088
-56.7073
15.1001
98.6133
120.925
-13.4378
-62.4526
-69.1064
-52.38
-38.7353
-72.5967
-19.4669
-35.6302
-32.8981
-19.8537
-16.0062
0.496067
42.4522
83.7732
87.993
51.8789
16.0773
0.55236
-34.7942
-62.0597
11.3134
26.9972
20.2024
-1.2938
-26.3133
-36.3707
43.6269
178.131
-41.3669
-54.771
40.0495
0.575866
-20.6246
-56.7857
-84.7002
-49.1941
-19.812
1.38454
6.03704
-15.2976
-9.14179
19.9647
28.953
93.965
38.8108
-62.9707
-83.5561
-107.623
-27.0615
16.3966
3.85337
7.98631
45.0751
45.2166
44.9784
40.9617
44.2056
56.6466
97.6176
74.1658
-55.0292
-67.3745
-12.1077
-56.4663
-14.5907
53.5602
43.8218
23.2203
86.9757
31.4545
-42.4384
-20.8898
-55.4845
-72.728
-85.8157
-23.684
75.7489
102.447
-1.05739
-132.556
-115.865
-79.8077
-52.0418
-19.6259
18.1779
24.5002
-15.0972
-31.0965
21.4251
43.5712
55.2842
44.272
19.3629
17.6915
21.7059
-41.0593
-80.2615
-71.1695
-29.7909
81.4449
168.767
136.221
60.7262
12.2722
-13.674
-8.30253
95.0361
65.9784
-21.5501
11.7233
-80.1956
-155.333
-135.883
-94.4514
-56.5561
-24.531
-16.9206
-9.47522
13.095
47.5854
77.7525
87.8803
42.5412
10.9464
17.3186
16.5572
-69.8639
-78.355
-53.3591
-104.262
25.3331
171.295
146.197
66.3524
-70.7764
-222.948
-197.385
24.1181
286.878
111.83
-26.2464
19.3644
-20.659
0.829069
56.9362
0.613718
-148.277
-140.907
-8.40056
121.612
86.5421
-12.0275
-51.0658
24.2095
115.912
148.882
116.445
-51.6634
-238.027
-149.584
-120.103
-113.603
8.76333
26.7563
4.23742
55.8273
142.522
152.949
13.5703
-139.338
-128.874
-98.9816
-50.6068
-52.8024
-16.8967
69.3869
105.863
71.9097
7.46332
85.966
156.091
101.485
80.6345
10.9706
-66.6318
-96.8889
-44.0916
-10.0865
33.722
86.6088
48.3152
44.1962
70.6627
69.2662
55.0473
5.44748
-140.058
-261.042
-260.656
-189.7
-128.526
-109.991
-72.541
-18.251
-1.3748
4.61642
-5.61893
9.55528
67.9677
97.4719
130.744
133.481
101.013
98.7536
165.832
219.624
162.982
69.9616
-14.4946
-70.9633
-131.88
-134.782
-58.8196
26.7877
168.477
120.67
9.65477
-72.3609
-89.6419
-92.5084
-90.0088
-108.873
-171.846
-247.411
-334.24
-269.095
-97.7292
56.5222
330.897
391.466
224.663
157.76
82.0244
70.5946
-54.6379
-169.81
-106.434
-18.7158
70.0587
79.9399
29.5082
-0.195727
5.3381
24.9182
58.0563
28.2014
-19.9998
-46.2975
-96.8597
-82.929
35.7247
29.4102
-25.6727
-30.3718
22.6811
167.731
196.909
38.4299
-131.014
-150.087
-89.6219
-57.7368
-42.3904
-8.49859
37.2957
98.4043
160.077
95.1979
-166.631
-252.07
-156.352
-31.2711
15.2232
-34.3205
-30.78
15.6627
-1.14352
24.4621
14.6762
-48.9579
-48.2944
21.9
132.382
137.793
76.032
39.8702
-6.58476
47.6042
99.711
156.072
154.815
10.1901
-47.2317
-70.5759
-87.3679
-82.717
-78.2548
-32.0622
8.96272
33.1814
38.5978
2.16567
-66.4798
-44.0708
10.8755
-9.19299
-14.2792
23.6135
20.5318
-40.8903
-76.6096
-120.921
-115.721
-32.7921
8.08364
21.7271
24.5197
4.3659
42.9526
47.8092
21.4733
23.2983
2.85796
-19.6176
-24.6291
-8.40966
26.8137
-11.6893
-19.0904
65.1394
117.289
109.599
39.6336
-8.15423
12.4423
159.469
42.0673
-135.919
-58.0501
-11.1167
35.0507
49.6089
-6.50853
-18.113
-32.0176
-77.4811
-125.061
-104.803
-54.5117
-70.1552
-52.9626
25.5436
79.4333
87.6887
31.7659
-95.3521
-118.955
-7.39687
52.6506
135.522
140.019
51.7866
28.5623
49.8001
22.0958
16.316
25.2343
5.48172
-47.8096
-125.508
-49.5914
81.6729
33.4514
-58.122
-92.3856
-104.378
-21.589
49.9
-16.6911
-84.2919
-125.461
-85.6766
9.65356
54.4791
13.6818
42.6266
66.2606
86.9571
121.771
121.246
22.0035
-39.7568
53.3023
27.6177
14.7902
-7.63977
17.9631
58.9681
11.535
-10.4192
7.92485
24.7557
-47.3769
-129.886
-105.432
-23.5992
13.0507
-12.2177
-12.5675
10.3008
25.8504
-13.6586
-133.729
-51.4576
19.6127
-29.8826
-23.149
-6.0295
4.85907
0.401208
-7.31935
4.70569
100.21
51.1459
1.64976
26.8726
20.9272
52.4164
103.965
90.4566
22.2462
-67.7441
-72.2463
-70.4517
-51.8083
36.0252
-2.4145
1.56189
222.778
84.7009
-135.324
-89.0016
-84.7443
-37.1452
28.3948
-15.2214
-25.0024
-29.3937
-77.8064
-84.039
-51.2188
-14.3222
58.314
67.4012
62.5614
162.566
165.586
54.2801
-135.616
-108.571
-26.9482
-40.4567
-51.6443
-4.64146
91.2434
83.1096
0.644118
-20.0509
-45.525
-35.509
26.326
108.698
74.5335
-72.4705
-115.048
-111.449
-22.5724
1.79083
-51.7443
-2.27897
58.8723
27.2405
-9.63231
5.52738
-10.8934
-33.2615
6.64955
-6.67624
-9.5611
20.1684
52.5251
154.394
114.494
94.3535
70.605
-55.9788
-129.298
-127.325
-120.087
-45.1841
36.9588
22.9856
11.8604
19.5905
11.5
6.36542
33.6671
81.3539
136.413
104.336
-91.6369
-219.697
-119.746
-54.5414
-64.2634
-76.9366
-38.5967
24.415
41.0888
35.4916
27.5377
57.6074
99.3038
76.8144
18.9519
-7.53552
-17.1153
44.0446
41.9525
-0.0551385
20.4611
-4.62061
-3.024
56.1464
42.4247
49.0984
-61.383
-85.8421
-33.7859
-20.425
-22.1741
-18.2659
-13.2066
-67.2131
-121.496
-92.3407
19.0971
172.471
101.151
-63.0019
-39.7655
-48.7705
16.4168
-25.814
-92.5311
-36.6363
51.256
53.407
20.8721
6.41016
-6.48259
-12.4658
-32.8429
7.42234
93.722
139.234
37.7338
-103.281
-27.4354
103.339
128.519
112.504
13.5331
-6.57165
0.0194016
-39.0805
-21.147
-15.3733
-40.9779
-69.3711
-70.4751
-52.8801
-56.2369
-58.2212
-30.1362
-34.9504
-35.7271
-73.3733
-54.935
-10.3272
-40.6065
-41.5589
-33.7528
76.229
172.638
131.109
63.9121
48.7195
39.3685
29.2814
23.1595
26.3573
23.8504
12.528
-8.22692
-43.7716
-15.655
-12.9939
-11.0997
44.8454
34.0308
-56.0111
-81.7497
-45.3134
-51.0599
-71.8637
-59.1265
-21.8562
61.4847
119.203
52.4646
4.60543
-14.6428
36.2495
65.8106
9.33866
-36.5153
-21.5803
-69.8235
-90.4295
39.9672
77.071
95.5767
15.6411
-25.4241
-26.4719
-14.558
-14.3158
-54.4477
-85.8675
-49.2295
2.26525
23.6942
4.83822
27.2761
40.504
8.0981
-87.7657
-144.77
-33.0979
87.0928
146.817
24.306
-128.649
-122.93
34.0847
142.204
162.542
76.9926
-35.9118
-100.03
-111.277
-83.1954
6.79727
200.084
214.109
4.94852
-4.28805
57.2302
3.0287
-87.4201
-85.5316
-11.9129
80.3074
75.4736
-29.5155
-109.571
-122.297
-58.2734
67.0992
83.614
11.9998
-53.5323
-115.38
-186.235
-132.147
6.19259
53.2816
71.4967
63.2229
55.4266
27.7114
47.9292
104.972
80.8893
-15.1264
-36.9908
-20.9017
-4.09372
-3.37026
28.2145
114.781
123.713
9.87174
-106.94
-115.617
-13.4076
-13.5763
-28.0024
18.5115
-9.36548
-38.4738
-27.1263
-66.8934
-100.894
-24.3943
70.4986
56.876
-17.9232
-78.7259
-79.1159
-71.1259
-47.5104
20.7036
30.3016
31.2652
38.6299
62.7364
96.9394
68.1268
55.8439
62.2799
18.258
9.36971
43.907
22.3346
-3.65486
19.5962
-9.33601
-10.0015
12.2458
0.794449
37.678
114.544
91.2443
-49.6661
-38.6737
-101.825
-187.683
-183.898
-111.865
-21.6713
-8.87913
-27.8248
24.2487
73.7319
36.2783
6.78263
35.0829
22.3375
-6.42972
-30.8601
0.88275
26.4681
0.502858
52.9098
64.8454
99.1595
89.0475
6.75987
-96.4845
-124.012
-42.1079
191.003
106.093
-120.013
-145.004
-68.4724
68.081
17.5148
15.9836
51.1235
14.9685
-38.7844
-18.1604
25.4777
0.633995
-38.8965
-40.5325
-9.99439
14.8076
62.6477
150.795
27.9357
-140.64
-136.964
-98.5472
-100.61
-125.289
1.75775
134.635
115.986
18.8708
-51.7416
-67.8668
-32.1226
27.3448
59.622
86.9272
72.6998
67.929
26.8076
-32.8463
-42.8387
53.8512
119.516
81.821
16.1093
-20.2856
-31.5684
-75.8826
-73.5808
-42.3067
-1.58279
84.4419
58.9675
-29.0756
-26.5687
0.277961
3.99432
-21.1031
-21.2743
-56.1481
-69.071
-4.00303
40.3419
25.3085
4.11161
-9.29843
-16.6269
-65.8328
-89.4689
0.851604
98.5322
73.3914
31.9541
-5.74391
-55.6758
-66.0759
-48.9366
4.66891
9.00743
-6.66823
-23.1117
5.31995
32.4981
30.013
15.1133
15.6827
-1.30077
27.4712
104.267
48.1904
-30.3838
-53.4667
-41.8158
-4.18406
32.0723
64.8422
112.223
59.2367
2.55465
-62.1501
-147.31
-131.86
-27.3278
15.8847
31.7594
43.6993
32.3295
-0.639174
-36.9308
-73.6497
-92.1863
-44.3888
10.7431
46.0878
43.7335
43.9218
14.5078
28.3982
12.9368
33.5187
83.8743
84.8692
17.91
-15.2125
-17.9804
-29.6993
-27.7187
-23.1272
-52.8678
-10.9856
1.72364
-23.7828
-20.7085
-2.71735
7.76772
-4.60388
-19.1217
-11.1295
13.8999
-0.366992
-8.03984
-18.0871
-25.629
6.7678
119.168
123.321
-19.3459
-120.054
-23.1279
14.1545
-26.6615
-38.324
-27.057
-71.9628
-59.3559
-4.5805
7.24309
76.2989
96.1546
85.3651
37.0516
-10.641
-14.0315
74.3809
39.7535
-151.674
-90.6071
-33.4768
-8.37388
98.3937
106.743
57.1372
12.373
62.4202
132.596
35.8247
-7.36146
1.52962
1.80038
-49.6803
-102.838
-166.181
-202.517
-209.603
-187.616
-58.6134
88.5197
156.361
84.4901
-5.32289
-4.05296
8.21195
50.7943
60.8344
19.6621
39.1771
-30.4626
-112.232
-39.143
60.2884
138.816
188.464
184.855
93.8452
24.5707
28.4143
-34.8402
-61.1978
-86.3482
-111.852
-96.8479
-49.4132
14.5085
82.741
12.5092
-34.6517
-4.51055
-3.1965
-43.2331
-62.2633
-19.9278
23.1901
45.1252
-1.04656
-31.7145
0.708219
5.32112
-2.407
-12.1463
-12.7284
-3.00011
-18.8229
-89.6453
-96.3293
8.72289
44.465
20.1391
41.365
34.2104
23.1049
-16.1572
-43.7254
-30.3069
8.26835
7.33936
11.2387
11.6042
36.5388
53.1987
58.0342
42.8338
37.7661
36.9889
-15.8969
-57.6013
34.4267
144.028
45.7593
-30.9518
-46.7348
-1.96074
16.5054
-27.2473
-70.3991
-87.1099
-0.487807
31.047
-9.05146
-104.885
-98.7214
-7.90114
2.25957
18.5092
40.9565
27.4694
10.3094
27.6327
-148.801
-116.982
-35.5807
22.7278
59.5253
44.2792
80.0122
103.633
43.4788
43.6491
99.1015
82.5208
18.2529
-40.5198
12.7167
23.4557
-29.4098
-5.32794
-79.3625
-132.721
48.2917
80.4269
31.0482
8.48088
-65.1979
-143.343
-92.7453
-36.4285
-39.9306
-50.8154
-40.9278
32.3972
56.6758
2.36096
-95.8247
-102.622
-55.2544
-20.6255
49.4883
88.8967
121.224
93.789
62.7899
25.2747
62.3772
146.326
107.219
61.1374
24.9185
-17.5217
-50.0497
-35.3546
-23.507
-5.31456
19.0794
-3.24238
-25.2177
-50.4418
-71.9009
-88.2194
-53.7531
-32.9698
-28.0747
-31.3839
-42.9224
-24.531
-18.9262
56.388
46.475
-13.3304
-34.6561
-27.0214
0.537602
28.2855
54.2629
72.1473
49.5042
18.0565
10.3229
-4.09279
-0.0102897
-5.93779
-31.1905
-30.7518
0.878502
12.093
-14.7545
-79.7899
-15.2932
87.4528
7.73752
-35.8344
9.75371
30.9701
78.4374
42.6093
-50.0491
-75.5573
-56.5855
-19.3291
18.9625
72.5379
87.434
2.28037
-29.0823
-84.4582
-52.0754
16.7219
6.56184
7.29722
29.0829
6.16698
-14.0795
-20.5222
-23.6976
23.8775
125.712
129.683
54.866
-25.8075
-125.596
-258.589
-16.3734
167.492
32.6791
33.4386
29.4317
-5.54263
-50.7776
-94.7128
-33.0566
-35.2855
-42.845
-9.80156
-8.76849
-11.7954
22.8622
66.4598
33.642
51.3754
101.247
142.387
-33.3964
-114.607
27.3605
42.5791
18.5247
-10.8232
-19.8272
-13.8512
-15.4108
5.87847
4.97376
-4.26749
-19.3605
-45.4931
-98.2365
-109.906
-65.6407
-47.5263
43.9236
51.6803
-4.4219
-4.67869
-7.57616
-1.26088
-2.13403
-8.40387
14.9766
19.9096
5.69418
2.56758
-9.99993
-1.72175
12.7237
94.0364
87.5649
28.1253
58.5709
68.9129
-2.30448
-2.58498
-7.90442
-5.65049
5.54428
17.7658
18.2257
-9.01851
-7.32883
2.84362
3.99478
2.98037
22.4521
11.556
-25.6535
-77.1545
-68.3138
-51.2296
-76.7108
-46.7084
-15.5491
17.0129
34.4699
33.9818
26.2075
-4.09322
-44.1753
-65.8218
-47.1305
-15.3671
16.7775
37.3088
32.274
0.563529
-43.5558
-56.7831
-24.3566
34.2994
60.0484
65.9702
57.0533
63.7064
19.4193
-5.54174
-4.59872
2.9421
20.0638
28.4112
21.134
2.05145
-38.4507
-56.9304
-39.5633
13.93
96.9245
62.0831
-12.0447
-26.8411
-0.266674
-36.0555
-55.3895
-27.8788
-10.7226
21.3576
43.9933
-69.601
-45.8253
21.7433
-22.2667
-88.6048
-43.2446
-13.2769
25.1533
55.253
41.6298
58.2347
66.5339
-90.0574
-215.972
-125.555
109.243
243.401
118.209
16.6753
-4.07455
35.9694
29.54
-33.8495
-37.9165
33.0895
62.7214
-0.515079
-91.478
-67.9951
-43.5688
-20.5487
-36.4754
2.1473
68.1095
127.125
51.0193
-88.6843
-4.19841
-38.6171
-68.1533
14.0324
3.67796
-26.0569
-12.7493
-24.5648
-57.847
-17.9309
9.64056
-20.9015
-33.2635
-16.8576
28.5223
87.7428
105.272
23.7537
-51.8061
-34.1277
-2.526
31.495
23.1219
-19.6407
-13.8642
34.5976
42.8484
47.1075
16.1933
-62.468
-58.9281
-33.0608
-32.8531
-20.8745
-10.5686
26.6807
57.3128
76.2665
90.5089
0.373263
-42.6326
-24.3325
-11.9396
4.75331
1.12719
-15.041
-9.90055
-16.1598
-12.3809
47.6792
42.2226
-9.3645
-33.7185
-31.6652
-11.1454
0.0106911
-2.34462
-46.2
-90.8725
-68.024
-33.6892
-9.82553
12.2862
40.833
58.5799
47.2261
33.2196
0.974082
-36.441
-15.0139
36.2413
46.7334
22.5426
-1.34285
20.5645
24.0617
8.33404
-31.5303
-51.2419
-15.8889
14.8519
29.039
4.14595
-9.31709
-6.90037
6.80441
30.3567
24.4343
-71.9448
-60.2824
8.38754
101.629
158.771
83.2486
-5.63523
-15.4951
-31.7513
-47.0764
-37.7423
-36.0839
-50.0757
-70.0194
-54.6127
-45.6021
-51.6438
-52.1649
-41.1236
-7.94702
56.8223
59.0215
-33.1694
-115.865
-110.814
-22.8782
125.705
182.039
104.337
55.8075
20.3826
-0.150167
6.03269
26.2801
32.3315
17.6304
14.3182
49.6045
35.2117
-103.953
-53.0485
-0.0715389
1.89862
12.9539
-19.7759
-49.2866
-88.2902
-49.6384
168.414
75.3347
-94.7847
-118.626
-98.0911
-50.0866
-0.195978
25.8852
28.6704
15.6611
19.0614
97.5735
111.844
75.0037
45.7953
1.83941
-21.5288
16.0421
-0.663993
-78.6702
-135.683
-59.7984
34.9537
65.8058
60.5897
42.5782
35.5332
-0.8774
-43.2099
-68.5975
-67.5522
-31.3285
-35.7504
-58.4763
-34.2967
-27.3895
-5.97751
32.8747
26.866
26.3482
-17.924
3.93476
61.9649
78.7623
58.28
19.5176
-13.6314
-24.5364
-18.1296
-18.4179
-18.097
0.719873
-2.78794
-2.12461
-2.7668
17.8384
54.4115
40.091
-39.3779
-45.0904
-45.0423
-6.50952
83.8298
53.7334
23.2348
2.31769
-14.2447
-18.65
-25.2002
-29.3431
-28.1517
-9.40309
-2.11965
-0.469299
13.6464
8.11937
-40.3971
-54.5508
1.23635
22.5563
17.8013
22.8017
-1.27269
13.9674
33.0885
33.7168
8.63652
-27.1779
-2.40226
-9.86532
-3.17697
-6.25822
-3.37885
16.3471
-12.0549
-45.3193
-35.2805
-11.4343
22.6601
56.3566
68.4233
-62.5461
-161.605
-41.6508
62.6952
27.2133
-41.3024
-25.0334
-6.07957
27.4988
32.6716
17.6295
47.9656
88.3071
71.6712
68.959
64.4457
51.8477
58.5593
14.1885
-94.3488
-154.913
-141.85
-85.2125
-19.5933
-6.62361
16.284
28.7797
3.18081
28.9369
61.7466
34.6594
-9.66437
-55.2456
-34.6781
38.7062
39.4757
-49.262
-64.2485
-35.1523
27.5037
115.7
122.169
18.9283
-64.5313
-37.6833
26.0536
47.198
28.3892
-7.99509
-48.0994
-45.4063
-42.6532
-41.3637
-37.5474
-57.2693
-59.8909
-5.51751
1.0791
-10.5733
-21.1852
22.9135
67.1235
51.0466
16.7402
9.1241
23.8196
9.03995
-8.95476
-11.5157
-12.4763
17.2161
23.7229
19.1225
19.5296
-3.01049
-14.0648
-4.40315
-55.7576
-97.4561
44.5987
163.412
279.92
100.333
-40.7813
-15.0543
-4.05284
-23.3615
-25.786
-73.9704
-160.591
-131.501
-58.8676
-38.9062
-30.4538
-20.9216
-14.2943
11.3992
44.0722
65.1632
13.0812
-28.9887
-114.472
-52.6811
14.0367
16.1946
19.3256
61.2476
96.5808
68.2768
57.6337
12.4406
-72.5856
-80.2236
-40.0635
13.4424
82.191
56.5546
69.6271
89.0854
48.7356
11.407
-47.8923
-59.056
-51.7926
-57.6853
-78.8892
-103.408
-44.4612
47.9848
107.593
100.736
69.6291
28.6138
-37.124
-72.5105
-36.7859
-14.4876
-67.7267
-12.286
6.8438
-23.919
-26.9582
8.5071
34.7022
27.5331
29.4226
32.1011
-22.244
-47.2718
-35.2856
-18.6732
7.51882
22.1088
34.4536
32.8581
-16.5067
4.35122
52.6628
14.5762
6.11926
18.6644
2.593
-4.6443
-12.074
-14.2057
-1.17078
4.79075
-13.9894
-23.4829
-17.0431
0.540694
22.7841
14.6966
5.55703
-4.59172
-22.1019
-22.026
-9.2614
-20.6059
-30.7782
-9.86944
10.9404
27.0509
43.7155
34.8657
1.95472
-13.0982
-15.2202
-14.2002
-13.4897
-23.5223
-27.6194
-5.21526
13.0947
10.3179
-10.4426
-17.2483
20.1284
63.209
57.8982
38.9921
24.1135
37.0739
37.1567
12.7359
-7.10471
-32.5134
-45.1987
-45.0926
-50.0734
-45.54
-32.9926
-31.151
-27.3108
-16.4167
-23.3654
-29.2529
-34.5482
-48.5075
-25.1932
-5.91171
-4.17253
8.85993
23.8201
32.593
60.2751
86.2172
73.6846
59.4717
50.3022
43.0254
39.5298
24.512
8.19791
6.56933
3.22387
0.425043
-0.33941
-14.526
-23.7132
-28.9292
-29.4246
-28.2459
-29.1541
-31.2326
-28.0511
-12.4087
-9.79316
-11.8786
8.41368
17.7498
12.5034
10.8036
0.8376
-9.15246
-19.306
-36.1407
-58.5179
-44.3183
28.821
9.89614
-16.9217
-14.4571
-12.869
2.08909
9.56165
14.8465
38.6952
51.1025
31.8798
15.4238
-26.8265
-44.988
18.0738
19.2959
1.16982
3.14551
43.658
36.7189
-14.7461
-10.0823
9.67151
15.2576
19.8668
6.18274
-21.3688
-70.9682
-90.7419
-61.7159
-8.00611
41.7416
8.73769
-4.63018
-8.0397
24.9184
65.9925
66.9403
47.1075
31.4266
-13.4381
-29.9506
-23.8968
-14.4697
-9.01536
-5.68168
5.85061
27.7536
27.1702
12.2028
15.3768
-10.568
15.1158
1.52794
-78.2316
-97.6627
-48.8013
-1.21367
2.58252
2.31627
14.9049
29.4715
31.1753
17.452
12.151
15.1435
16.8075
10.7981
-3.31638
-22.7472
-52.4756
-54.0999
-14.406
21.8846
39.608
37.0328
10.2178
-3.3659
-12.1442
-26.0347
-18.5518
-0.396786
18.8539
32.5934
29.3036
17.9109
17.1889
25.8938
18.8497
-2.52414
-28.0441
-33.3175
-18.0218
-7.83868
-3.296
-4.41975
-19.0137
-17.8365
6.96803
18.9469
22.2858
10.4902
-0.948158
-7.36127
-9.98687
-21.2859
-30.1329
-30.0047
-23.6389
-14.9195
-13.9817
0.668118
16.2428
24.0415
27.6682
31.375
38.7547
29.8536
7.97855
-17.15
-28.8562
-15.969
-13.5044
-18.0095
-11.1922
12.6453
22.5662
44.4609
37.4885
13.8622
1.71299
-1.26915
21.5813
49.3286
20.9667
-10.5867
-25.154
-44.5263
-50.0899
-48.2095
-39.5014
-27.3014
-16.5771
-13.8768
-19.7946
-24.3245
-13.4968
-10.0672
-9.9629
11.7776
24.5283
10.8112
-0.0551071
-6.5965
14.7964
41.1707
50.988
59.4134
73.2625
59.8551
46.5586
38.5996
26.0954
16.702
8.03095
-8.84112
-31.0418
-50.4211
-67.266
-69.5198
-62.2656
-45.4318
-46.6081
-60.9433
-61.3707
-50.2934
-36.6204
-28.9722
-21.3148
9.9105
45.1897
66.0813
79.7914
97.1312
82.4446
64.6851
53.6276
37.4523
42.9831
43.3749
39.8132
8.04212
-31.7839
-51.5401
-69.5007
-79.8151
-86.2901
-85.8887
-67.1846
-46.684
-33.9845
-14.6537
0.77462
25.0027
58.3814
52.9453
17.5973
0.417079
-36.1451
-47.8181
-24.5416
32.2803
80.7664
61.32
30.9079
11.2348
23.5551
50.4937
95.6253
158.118
91.3039
-19.1557
-87.2956
-110.223
-101.702
-74.5393
-59.8266
-11.4603
39.9885
61.305
66.358
89.8068
97.8242
150.331
160.663
6.7177
-171.444
-254.708
-274.267
-268.49
-176.286
-47.1325
-7.85689
-63.2003
-69.4695
-27.8567
32.2099
71.5409
102.562
109.303
70.3298
0.667552
-44.7457
-54.1504
-18.6306
79.3155
152.724
155.209
105.17
43.8192
26.6895
13.7982
27.3032
48.3254
53.0116
65.6098
83.6588
78.8602
21.5703
-42.984
-76.3686
-66.1075
-34.4644
-37.0186
-13.91
7.62306
-1.23767
-16.065
0.298977
61.4915
85.092
69.7834
48.2366
1.11339
-42.4937
-57.3742
-84.7292
-130.533
-137.591
-134.613
-146.998
-179.873
-183.564
-166.683
-158.31
-87.4604
37.2619
115.97
161.127
172.938
192.64
152.27
107.732
113.924
100.42
77.9292
60.8047
39.5823
-11.2235
-54.8932
-32.801
-22.8617
-23.2028
4.80407
23.6472
21.8262
24.0002
38.948
14.4385
-53.8665
-136.944
-136.288
-124.572
-90.5083
-55.1397
-53.1886
-52.5808
-44.0803
6.48541
100.843
196.578
253.073
207.655
102.01
0.302201
-32.1925
-70.3877
-102.26
-92.976
-86.443
-80.7082
-70.3355
-36.535
-14.2204
6.57201
14.4584
-2.27948
-13.0218
-17.2527
-40.2873
-55.957
-34.0927
18.3771
85.4989
130.667
148.426
183.162
159.33
87.56
16.8283
-52.4334
-81.9349
-77.0037
-86.62
-134.178
-167.924
-139.229
-90.8151
-19.2447
74.9377
101.848
83.9925
84.9836
91.2394
-10.3418
-107.88
-55.3427
5.27673
-21.5336
-43.4341
-11.3069
57.3536
69.6767
47.2469
0.26508
-20.9359
-26.7405
-16.8209
-11.6086
-6.48782
-31.8664
-51.9731
-52.9291
-88.6777
-8.17814
70.5864
22.8428
-21.2541
27.5146
91.6847
96.1216
30.4205
4.39603
9.67971
28.051
76.5704
120.998
151.425
162.617
31.3609
-81.7628
-133.729
-137.66
-128.082
-109.261
-97.7586
-92.738
-68.732
-38.6938
-38.7596
-22.4999
2.31496
6.9345
27.3224
65.0305
69.8879
21.1194
-30.1228
-43.4942
-9.91606
48.9347
136.926
122.642
54.8792
8.36776
18.8007
49.0997
79.5698
52.7353
-6.28405
-63.5714
-79.0436
-84.8132
-47.2994
14.4793
56.4478
81.1629
79.7526
-14.0778
-32.2292
-71.4399
-123.433
-94.1012
-81.9872
-101.046
-106.148
-127.583
-144.24
-93.9941
-17.5839
33.6051
74.7043
98.1244
75.2306
3.92644
-67.8409
-74.0551
16.1861
124.407
122.877
210.088
239.195
88.031
83.5864
234.262
265.998
244.188
149.679
-7.07797
-102.178
-140.324
-186.653
-186.454
-163.286
-96.8529
-42.9613
-65.2879
-166.887
-218.194
-202.525
-202.778
-166.912
-61.1139
-27.2036
-83.4353
-92.1056
-51.7298
14.9003
70.0357
122.279
221.131
248.815
151.5
52.1149
34.1884
93.5925
178.07
243.931
191.617
143.788
67.0368
-7.09041
-57.1933
-61.1713
-40.6505
-41.1111
-112.689
-173.462
-135.557
-100.37
-93.0132
-50.9215
-5.93937
-1.82547
6.66362
-44.5291
-180.753
-196.065
-39.9657
158.928
467.27
327.405
101.674
83.3107
40.7272
-156.37
-300.121
-333.387
-285.075
-128.413
59.0764
371.633
419.126
240.4
163.341
39.5985
-18.4377
-102.051
-198.688
-286.049
-496.693
-540.25
-444.688
-312.986
-50.3586
277.656
310.513
196.189
193.482
186.812
402.134
433.661
-49.3332
-155.882
-94.3058
92.471
194.219
89.3554
29.0643
3.55632
-83.8267
-9.64229
198.343
279.639
84.4056
69.6405
183.799
116.524
-66.5268
-281.816
-482.073
-618.605
-389.089
-165.422
-61.8044
-57.6145
-32.4131
159.379
467.029
243.748
-48.9006
78.4951
133.318
-1.81968
-0.274911
-42.5106
-82.3307
71.138
175.661
166.817
-81.6629
-238.415
-83.2492
68.7896
90.1686
187.199
275.297
90.6153
-275.694
-137.248
6.10765
-251.602
-387.589
-234.07
40.8806
128.638
228.997
71.8099
20.2788
48.7549
-3.8847
-183.827
-210.294
-169.34
-165.171
-155.389
62.5106
371.731
385.811
381.59
306.066
308.381
240.304
56.1457
-135.19
-332.617
-544.703
-402.173
-323.955
-235.199
22.0399
289.674
109.521
10.116
102.318
320.468
327.81
139.335
-189.298
-414.422
-302.523
-20.5577
246.116
284.724
-14.3727
-194.439
-55.3942
102.542
244.271
376.376
265.141
-148.858
-409.35
-375.111
-154.52
153.722
403.194
126.729
-235.531
-380.512
-287.002
-353.134
-316.55
-76.9293
297.011
358.693
248.594
186.108
120.443
74.7266
-67.9597
124.478
441.879
416.221
159.963
-263.195
-698.027
-571.559
-71.5448
185.125
161.803
91.8882
-220.704
-413.592
-187.751
320.781
445.269
506.74
363.104
-69.5341
-62.3336
-156.827
-133.437
96.6115
47.8568
-207.813
-364.097
-297.857
-63.1937
108.597
192.604
216.221
203.655
233.66
52.864
-328.598
-489.844
-611.082
-420.203
22.5392
393.18
527.29
263.023
-174.106
-172.311
-166.46
-124.756
176.235
239.663
159.676
-110.503
-277.663
41.6774
248.487
106.875
74.576
359.782
450.961
315.929
71.7107
-225.996
-251.14
41.2721
167.455
-20.3496
-173.138
-151.729
-43.547
6.07456
-98.731
-144.273
-177.661
-150.702
-165.003
-239.659
-329.758
-276.206
-71.409
115.34
181.589
71.9151
-1.92507
13.6774
23.7676
162.856
241.839
213.782
86.1695
-338.402
-466.383
-178.886
482.438
1003.66
527.977
-28.4327
28.0565
266.215
311.919
-68.9429
-203.284
-177.332
-166.514
-304.597
-426.745
-455.664
-377.962
-470.905
-453.508
90.2121
436.589
881.25
584.297
-161.317
-355.859
-223.057
-166.931
-338.455
-328.437
27.0047
270.419
233.733
365.625
554.613
60.1472
-282.41
-187.333
-3.67789
51.9652
482.753
835.611
11.0234
-460.606
-572.805
-441.651
-178.618
-64.0713
-26.3734
-49.11
120.952
184.247
344.076
179.055
132.215
259.497
103.68
-48.4835
-183.817
-336.699
-583.786
-542.713
140.204
275.231
269.985
285.49
229.051
137.666
4.54316
-134.433
-342.764
-403.528
-447.783
-342.884
-249.672
-93.8849
95.3652
232.232
456.712
389.328
531.476
220.607
-250.677
-47.7439
368.747
375.605
339.288
81.4512
-267.22
-458.494
-334.569
-388.081
-106.053
218.363
143.958
90.7235
-81.3069
-141.403
27.2644
245.046
287.817
428.211
510.475
-3.67645
-617.117
-763.865
-348.197
34.6622
-32.8385
31.1683
-15.772
20.7825
-338.283
-600.396
49.776
861.378
940.462
519.019
84.9355
-303.759
-794.938
-1009.47
-874.247
-475.973
-257.404
76.7723
295.42
304.852
448.253
434.231
44.4458
-310.753
-478.963
52.8213
650.475
730.037
849.318
729.437
596.962
630.236
384.348
-32.3635
-361.525
-221.848
-307.464
-508.015
-697.621
-769.254
-1030.19
-542.629
997.265
2010.88
1478.19
367.99
-637.768
-1071.32
-1045.32
-845.55
-711.889
-529.509
-120.9
-59.3297
-213.536
-179.944
27.152
306.447
64.6641
-185.84
-93.9816
-60.3921
-508.946
-576.759
533.657
840.221
703.622
666.98
469.355
459.302
549.897
76.9284
-344.795
-142.601
263.861
502.968
454.077
-56.4957
-514.538
-604.144
-75.4332
945.559
767.606
-102.761
-525.979
-131.43
-245.924
-554.136
-401.928
-232.675
-467.804
-266.653
-132.549
-168.774
-175.814
-281.981
-254.478
-34.1772
15.1507
512.036
783.824
66.4943
-209.097
-327.903
-636.925
-878.954
-677.303
107.01
1078.55
817.391
401.85
463.057
372.584
259.095
142.702
-40.5375
100.854
383.779
461.084
219.094
-368.056
-1105.58
-1403.09
-742.277
359.844
1435.65
1804.74
816.92
-267.862
-533.266
-478.977
-562.576
-561.616
-330.629
-354.449
70.079
559.935
678.005
489.325
172.912
-11.8637
-109.813
-184.047
-134.643
-405.876
-940.253
-1194.12
-1027.93
-773.47
-353.534
-77.0089
355.279
757.787
523.964
436.835
334.003
-5.22024
-73.5875
164.358
288.951
318.189
338.247
243.533
321.676
816.753
354.131
-147.191
458.048
452.213
41.704
-364.031
-632.153
-497.776
-234.429
493.524
937.208
346.138
-58.4344
-187.821
-318.444
-354.014
-329.041
-270.372
-441.472
-820.342
-691.894
-423.163
-482.978
-306.623
73.1851
464.529
416.589
-1.54829
-12.0673
-11.5436
11.1422
-62.1835
-331.969
-268.467
218.754
659.655
639.28
357.675
-79.045
-414.721
-169.062
164.531
-250.823
76.2317
1563.1
1842.44
1227.28
569.479
29.8632
-467.419
-1058.75
-970.265
-678.347
-501.909
-409.558
-289.035
20.7504
394.678
299.969
-75.257
-291.207
-277.982
-76.2
-336.727
-942.196
-873.337
-551.133
-287.946
-146.98
-271.968
-294.938
254.723
908.585
719.218
461.862
402.477
508.287
704.201
622.474
492.309
330.53
101.605
70.9608
-36.9612
-500.191
-540.616
-249.935
118.685
192.952
262.786
281.662
-2.05507
-211.413
1.87129
-12.4095
-147.873
-280.795
-392.234
-402.119
-470.524
-427.743
-302.561
-53.251
289.204
271.955
183.498
175.312
-49.3553
112.437
125.563
-100.706
150.736
61.7508
-38.1311
-104.279
-165.654
-313.854
-110.969
420.988
685.53
428.214
83.3213
-15.9471
-105.693
-86.7457
-219.95
-278.897
-64.7575
150.683
136.494
66.8982
-226.11
-418.328
-258.611
-84.6575
-44.3242
48.7869
-427.805
-621.857
-351.703
405.249
626.589
9.69333
-22.9404
586.879
857.643
677.905
276.464
-114.485
-146.199
-136.985
-315.217
-487.326
-544.414
-210.845
500.605
472.04
129.037
573.813
685.35
-64.428
-316.565
-95.9367
-279.864
-791.032
-1026.38
-629.73
-44.1419
48.4645
300.989
274.136
470.058
490.655
196.669
39.7822
-153.553
-380.706
-139.689
-149.458
-196.887
-163.305
-119.431
32.7962
100.079
-3.06773
-86.8836
-236.046
-128.553
97.5261
326.231
704.22
368.959
75.884
327.416
391.459
55.3883
-64.0493
22.899
-177.671
-249.232
-124.375
-50.6918
-41.8049
-274.859
-302.089
89.2445
454.52
404.886
137.205
-258.706
-385.28
-241.013
-71.5955
-19.8008
-192.334
-291.991
-60.1464
180.071
-4.35047
-70.3068
-38.5547
-162.689
-176.235
-128.09
-82.7472
261.877
299.256
411.68
702.474
368.826
-119.589
-145.921
-18.952
-39.8475
-266.499
-352.803
-401.953
-471.304
-202.822
158.184
596.254
515.552
393.167
291.397
117.192
-278.512
-647.945
-614.862
-593.154
-453.518
18.8915
323.762
374.397
361.194
554.365
302.07
208.183
234.394
191.343
-103.6
-395.427
-408.44
-266.983
-103.771
174.641
387.475
277.95
-21.3592
-147.492
-226.156
-381.642
-168.982
-33.3331
-38.7011
-32.6121
-69.3334
-61.9815
149.714
207.305
76.4278
-71.6771
126.503
425.009
407.156
75.0481
-221.814
-381.108
-147.006
101.808
404.012
311.81
-94.7818
-256.234
-178.988
-324.436
-176.451
213.479
94.8871
16.4411
137.439
-175.965
-200.139
-306.964
-274.258
39.3648
112.868
-22.0358
-302.946
-171.577
-52.0234
57.2071
103.049
113.373
82.7536
66.691
36.032
10.8804
251.684
204.642
199.324
323.458
57.337
4.6832
165.809
104.106
27.358
156.173
75.717
-136.85
-270.706
-341.079
-362.203
-347.112
-285.468
166.576
466.122
423.662
377.105
138.924
-376.442
-159.686
479.42
396.798
20.2833
-211.52
-250.542
-169.635
-161.727
-224.104
-270.715
-206.399
-152.294
-201.759
-114.462
-154.197
31.6765
-90.9898
-322.651
-277.53
-73.9616
-29.9526
-187.393
76.4531
546.711
700.123
660.561
361.13
-150.595
-352.911
-276.247
53.1852
264.705
756.895
960.213
740.145
498.752
-141.267
-644.297
-699.016
-200.988
29.3071
-352.261
-469.496
-496.425
-441.529
-323.971
-17.6068
273.802
222.207
100.499
-254.315
-263.9
-209.561
-251.893
-341.812
-282.741
184.32
391.052
465.391
359.744
205.454
240.182
-29.169
-302.309
-112.415
-180.741
10.4091
489.003
615.705
292.734
-58.7537
-116.283
-275.741
-130.249
272.74
239.783
28.2005
-111.631
-322.416
-264.44
22.9846
96.1992
337.823
503.431
275.238
59.8979
-159.913
-378.958
-413.183
-297.374
-37.2318
-19.0001
-37.4042
-192.353
-398.346
-408.13
-124.742
223.055
283.478
-98.7756
-432.024
-403.047
-355.867
-13.2701
14.361
167.092
438.985
626.015
521.687
373.936
358.018
319.368
192.528
-151.801
-554.605
-390.435
36.9824
225.465
265.525
438.497
281.881
359.157
380.198
-31.8286
-217.447
-315.132
-504.953
-735.129
-594.315
-222.237
-33.731
-9.94849
35.9788
125.492
134.698
-102.022
-312.606
-294.538
-127.398
-85.3598
22.3099
14.0567
-106.013
-100.997
319.218
665.936
507.705
357.349
196.879
19.3534
-32.9823
-28.0164
24.5363
171.844
166.296
13.4492
-59.4977
-117.939
-85.8798
-98.2101
-54.096
-23.3284
-58.2811
-204.832
-375.806
-390.919
-317.577
-391.031
-166.975
-222.01
-136.683
896.391
1303.47
953.155
523.901
7.0336
-386.389
-331.973
-191.653
-279.735
-276.856
-162.104
-192.21
-298.408
-381.728
-376.837
-266.861
-130.331
101.023
424.775
443.904
-247.604
-543.328
-161.708
99.5848
120.645
255.294
30.6
-101.136
46.2212
283.911
749.368
504.558
389.098
466.387
270.988
224.855
147.527
14.3409
17.3897
-140.326
-503.838
-781.739
-1073.3
-689.341
-35.0286
179.878
317.669
259.269
156.872
-49.5036
-359.683
-64.2329
15.0416
-150.714
-34.9934
213.324
323.069
226.755
-48.8687
-119.098
-151.506
-92.4382
74.545
33.9661
13.612
-20.4074
-86.2284
-46.4573
9.5811
205.343
339.124
342.163
124.554
-30.7076
36.7216
-68.2603
-256.594
-148.753
82.7764
169.009
140.879
86.7586
54.4319
-55.2016
-209.291
-216.18
-76.6032
-30.6939
4.74525
-86.6714
-322.16
-307.869
-7.12701
-46.7917
-188.966
77.6134
461.355
539.558
323.492
86.4727
-108.816
-202.134
-119.044
-120.432
-6.5303
61.0276
-122.508
-41.9741
225.076
133.972
-185.277
-303.433
-262.203
125.528
313.761
-33.6026
-17.4758
42.3334
27.5702
14.489
160.715
116.747
-35.8049
46.1793
7.62553
-127.746
-275.647
-179.575
-65.9823
-139.784
-68.6902
69.1213
234.193
149.059
-26.4757
70.7832
164.278
-73.4624
-141.459
-10.9524
8.60959
29.818
-42.3709
-187.167
-162.107
91.1073
353.206
262.439
255.365
343.813
265.927
81.1542
-101.562
-38.6564
-171.576
-399.551
-374.095
-189.389
-86.8543
-88.9067
-106.635
21.5266
138.265
154.094
51.5538
-108.206
-242.792
-194.943
-167.187
158.025
400.18
99.4475
25.2428
-73.1057
93.5299
373.006
5.79769
-302.082
-314.364
-191.736
-166.443
-328.214
-54.3399
394.478
329.663
403.668
609.519
305.564
-99.4707
-260.211
-391.692
-188.098
73.5982
113.469
-68.1155
-237.494
-246.583
-176.493
-50.7919
-105.862
-92.9539
-0.147454
142.053
636.984
633.421
132.15
-137.265
-213.321
-81.0287
-121.619
-134.439
81.0232
39.8245
-155.441
-174.562
-56.7187
79.1727
101.918
93.5115
89.3064
16.2664
113.01
-24.8149
-543.454
-525.172
-232.619
-76.4417
192.36
137.819
81.3852
119.261
26.0062
-120.705
-160.903
184.225
499.344
472.837
283.641
-121.863
-105.554
67.8995
205.173
170.498
-58.2907
-57.5105
-18.2741
-101.567
-242.052
-331.789
-362.439
-109.009
162.552
326.489
258.761
-24.0424
-328.507
-353.833
-241.866
109.926
264.612
49.406
-25.808
-16.6544
-123.056
-95.3205
-134.104
-81.145
73.778
239.975
191.733
-102.022
-167.478
-209.002
-93.6252
160.875
344.059
271.42
138.709
85.9061
84.7806
82.1913
-105.675
-278.619
-201.625
27.9225
70.1313
74.1897
287.797
257.683
100.757
43.5868
-22.7002
-4.67109
21.3507
-124.279
-398.877
-450.929
-339.775
56.1869
218.162
93.3448
57.4056
-61.9138
-85.7941
-53.6042
-118.531
244.306
280.345
-56.6516
-151.76
-60.58
-28.4764
-101.019
-58.1022
-61.9171
-2.79447
52.3699
143.693
52.458
131.658
414.604
158.202
-57.3113
-200.674
-235.66
153.157
-10.5169
-179.888
-53.6279
21.996
94.0575
117.615
89.2405
-38.8304
-154.762
-180.613
-8.72996
326.411
404.337
30.0108
-303.973
-293.955
-133.284
32.0305
2.83007
-60.9889
7.68576
129.985
-48.0292
-43.0029
50.4643
40.6197
124.648
47.6998
68.69
205.838
7.39446
-331.217
-490.251
-420.125
-169.608
79.2537
186.264
133.099
91.0821
-75.0121
-151.392
74.3118
462.962
289.783
178.91
-39.135
-85.1417
-44.883
55.472
217.505
562.563
348.135
-174.774
-276.754
-185.101
16.6949
98.8021
35.8777
-96.0377
-284.094
-375.001
-568.94
-413.881
114.975
-78.1912
-27.9735
131.997
266.109
201.308
-35.6244
-280.197
-157.6
-138.523
83.8126
205.278
293.131
395.046
106.769
-98.2171
-55.2251
-19.1136
-23.929
-56.2229
27.9857
79.8327
-0.618901
-4.03986
78.3865
30.9679
60.6023
178.261
125.144
110.593
46.3495
46.1751
24.2041
-58.8753
-6.0098
-94.0843
-202.345
-208.178
-38.7688
172.174
-50.6055
-351.958
-299.411
-140.218
-93.4173
-96.4247
58.0544
109.197
0.470543
-66.2542
29.8823
120.775
114.478
265.18
413.359
-22.4686
-137.172
-15.1082
3.10923
-53.1264
137.946
220.809
12.2228
-44.5903
-17.8932
35.634
-28.3342
-183.65
-191.18
-212.649
-263.951
-318.104
-29.9698
517.336
254.432
165.367
170.197
127.171
-46.6139
-313.403
-411.402
-278.864
75.5053
192.462
81.4602
-65.3379
-65.9482
27.519
69.2071
128.136
177.63
187.794
17.019
-353.279
-127.406
296.134
380.592
340.086
143.251
-186.758
-339.422
-206.054
127.85
274.957
-86.2511
-134.26
-144.55
-177.901
-52.6446
10.6603
-35.9018
-90.3758
-242.182
-422.536
-154.61
142.718
359.304
283.095
279.91
307.795
178.956
-26.5608
-337.898
-353.04
-116.626
-69.4294
-21.5439
6.1865
3.40479
50.0398
222.681
286.203
238.037
0.584555
-224.021
-405.396
-500.722
-166.894
194.151
421.953
470.805
249.198
70.7489
-56.2596
-85.3283
-187.284
-151.273
-62.13
359.031
466.246
-132.861
-286.371
-174.009
-136.283
-34.6988
-108.264
-258.693
-269.902
-222.042
-48.4386
104.026
149.915
-6.16512
-96.2252
-48.9128
-6.93216
131.383
271.398
60.7412
-4.62649
234.34
311.379
185.893
-10.9688
-124.624
29.9715
379.796
179.54
-396.496
-459.499
-155.463
487.391
347.178
16.9518
-35.9193
-152.33
-147.848
-10.1616
-213.042
-181.976
16.3827
-100.455
-37.1135
126.053
-35.2289
-33.2611
-124.912
-62.3806
105.857
36.7217
-217.353
-539.82
-362.848
-160.552
32.3259
235.811
244.631
336.571
186.115
-311.442
-475.874
-241.949
352.872
678.143
757.554
572.475
202.675
14.384
109.909
56.2301
-94.6051
-309.524
-246.456
-88.21
38.7034
191.357
29.4557
-329.976
-320.229
-97.3944
-39.2831
-30.7897
-315.27
-463.311
-263.193
-95.2386
36.2302
91.2818
12.6548
-32.8063
96.8835
89.1349
50.6055
-13.1744
-9.08755
109.096
372.056
435.42
312.791
66.6221
-59.2148
150.522
594.864
409.41
-94.7013
-327.084
-317.179
-293.284
-141.49
-65.2937
-35.1824
-19.0086
104.926
141.288
-64.1288
-290.974
-444.724
-421.566
-134.199
99.9583
190.233
-12.473
-415.792
-417.392
-125.433
107.756
44.6231
-104.383
-141.848
58.5848
292.605
367.861
357.359
349.294
309.059
248.419
32.4057
-196.154
-86.5531
201.893
150.369
4.96166
-159.686
-57.1208
12.3229
-134.226
-182.512
247.925
411.928
173.184
186.335
49.2627
59.6823
391.536
144.312
-76.8261
-192.869
-347.02
-535.318
-526.781
-361.878
-156.081
-51.5612
-91.5916
-109.361
31.0865
103.924
-94.5964
-306.687
-194.008
-301.743
-187.094
-24.6654
-22.2462
107.363
199.439
240.556
298.821
318.322
343.924
470.782
193.977
-59.7221
174.624
370.622
136.912
-61.9735
-156.506
2.27874
97.1632
245.764
330.682
-233.01
-675.944
-532.214
-274.76
67.8552
29.5143
83.2646
41.5972
-40.9583
120.755
217.456
54.6668
-224.746
-330.713
-290.65
-178.736
-73.342
-108.572
-150.61
-26.2771
395.906
514.358
322.035
142.942
-33.5948
26.4293
4.68702
-47.5325
-72.5019
-105.909
-160.039
-178.404
-137.656
-67.8565
10.2669
10.7938
88.7056
349.733
261.252
24.2803
-114.09
-96.4928
33.4432
23.0792
-95.8394
-163.732
-281.771
-303.313
-157.729
253.14
465.252
-16.2094
88.1418
509.067
340.25
73.6248
-31.7839
-185.853
-261.981
-233.141
-245.581
-221.618
-135.568
-135.598
-118.944
29.0175
29.1211
32.9386
153.329
252.99
151.16
111.468
-28.0137
-118.758
17.3749
93.4385
40.7127
-6.62063
13.0478
31.8618
29.8277
-19.7285
-9.57052
11.1311
16.9591
-0.776313
56.5776
122.136
40.9258
-163.588
-246.752
64.8506
176.603
-58.9646
-137.544
-26.4553
-7.33769
-156.704
-261.368
-224.512
-14.5014
158.41
200.871
238.093
197.485
92.9901
106.788
39.1324
-110.791
-316.643
-362.96
-4.1082
24.2587
-92.3927
65.9941
411.853
652.5
199.349
11.1799
139.667
-4.20743
-504.426
-613.236
-452.993
-136.302
239.735
344.152
302.527
103.457
18.4859
21.8594
-105.868
-183.978
-43.2048
7.79149
-134.047
-288.859
-89.9207
10.5645
-100.17
-20.997
187.477
173.049
91.6062
64.8289
-35.1966
-87.4306
-88.1203
-29.0074
-23.0656
13.7011
112.108
399.677
645.668
385.111
-98.5725
-337.587
-169.492
-112.178
-145.548
-149.748
-42.6536
6.28427
-35.7249
-121.541
-97.1238
-35.9735
-47.7377
-117.411
-52.8253
113.166
159.947
164.001
36.8644
47.9906
10.4602
-58.8824
38.1702
137.423
-13.3973
-208.559
-264.199
-192.669
153.264
296.518
68.187
101.682
72.2305
103.975
78.7049
-70.34
-163.114
-267.731
-351.909
-309.718
-135.928
-4.7752
51.8727
98.6781
227.851
305.094
378.961
333.49
55.987
-168.161
-216.612
-313.144
-178.437
49.3629
238.729
312.71
196.459
-28.6443
-162.65
-168.495
-130.695
-106.873
-127.273
-195.094
-68.9115
87.0169
244.22
263.976
124.384
-23.7678
9.72898
1.04997
-22.2643
6.56345
-173.449
-345.894
-244.87
7.90819
151.7
336.862
358.933
166.043
-151.913
-291.194
-187.817
80.228
366.787
175.201
-70.4189
-201.468
-171.423
-102.483
-87.9248
-161.134
-69.6353
109.315
172.024
163.492
54.5375
-167.862
-100.248
-15.9735
137.894
173.837
53.2927
-55.7739
-319.61
-142.427
30.3572
-89.0531
-209.191
-134.088
219.509
599.996
576.172
315.729
3.48667
-292.986
-214.738
50.5743
27.028
-72.8812
-97.9414
-147.828
-356.995
-492.074
-433.691
24.6429
560.516
444.79
187.203
99.6584
-125.461
-385.332
-336.134
-171.896
-67.8015
9.47223
48.1377
96.3413
123.095
133.34
68.442
253.62
443.975
414.815
225.503
-76.9972
-312.293
-81.8929
104.75
71.2991
-1.4799
-80.7595
-168.908
-233.514
-266.907
-174.164
78.8546
111.819
77.69
188.026
148.384
-87.9508
-283.085
-324.448
-108.023
-18.2948
-121.056
58.9046
193.499
153.35
55.427
-30.2301
-29.3428
-24.4267
-7.86174
-4.80996
-94.8142
-71.1973
99.1555
142.802
33.0405
-79.0043
5.43437
136.246
133.562
123.515
-6.91455
18.4057
82.6922
126.372
88.6383
30.7047
-8.23757
-103.366
-165.722
-200.414
-290.533
-457.591
-528.264
-157.431
469.446
620.782
505.704
358.482
115.294
-59.3345
-148.603
-212.073
-181.898
-179.737
-165.575
-90.6993
-20.9012
86.3016
160.456
112.03
91.8838
104.093
2.28463
-75.2882
-124.785
-22.5918
57.5442
-23.7732
-219.485
-325.306
-207.482
-88.1712
153.842
307.151
116.175
-63.2645
-122.498
-10.9781
174.083
344.6
284.654
102.092
112.845
193.273
110.637
-42.4379
-28.0787
-29.1591
-79.1209
-100.414
-88.7168
-107.761
-378.113
-449.765
-48.0243
200.778
181.106
87.7508
-60.9187
-223.466
-216.615
5.66489
79.9813
-114.167
-230.338
-190.301
-205.844
81.9281
423.622
260.944
122.801
115.952
255.761
212.237
117.818
-12.1275
-67.8137
-32.6379
-5.21872
41.2646
76.5444
22.9221
-14.3266
-99.6811
-190.685
-26.1785
116.89
-91.7134
-177.061
-14.4742
0.188788
-25.0193
-47.2367
-9.36099
-17.0146
18.301
40.6956
-37.8117
-96.5636
-12.7337
-69.1988
-34.4388
74.7955
148.698
124.73
-11.1811
-168.816
-220.933
-57.9928
56.5254
79.1182
68.0512
26.7732
10.4019
-172.647
-301.584
-38.3057
490.51
904.209
533.54
64.1289
-40.9882
-109.515
-90.4706
-83.712
-112.527
-113.185
-80.0827
-184.835
-275.783
-250.341
-127.635
-106.969
-211.798
-183.61
-26.1463
-82.583
-389.353
-425.017
-169.194
302.716
457.022
190.573
-88.5745
150.476
507.358
387.566
259.439
140.749
69.6659
17.6649
-63.6312
-32.5594
69.689
176.845
236.168
109.708
-120.9
-414.028
-420.503
-221.198
-109.671
-28.5128
16.1169
-101.108
-221.415
-81.9899
-33.7587
-71.5101
236.686
347.656
174.024
58.8476
-84.8567
-124.336
-52.5349
66.435
260.16
279.466
36.9819
-116.912
-120.609
41.1105
38.5505
-50.9279
-149.982
-248.076
-268.793
-203.388
-219.97
132.313
394.576
325.165
300.328
223.376
42.6929
-124.498
-266.546
-289.537
-145.523
-76.1611
-68.3439
-30.2975
51.9977
36.7086
-30.4515
-14.8407
3.79627
157.247
189.651
-96.2343
-158.861
-82.1551
-35.0188
-18.1968
52.854
162.653
218.323
101.356
71.8819
12.9238
-164.926
-259.187
-163.153
-53.5383
258.743
638.449
632.137
235.509
-156.9
-313.027
-381.69
-392.509
-307.373
-146.66
-23.7435
70.5934
5.64263
-123.606
8.28045
145.813
405.401
243.365
25.7986
-43.2572
-188.525
-358.487
-330.508
-137.889
59.6555
-9.2581
-70.4288
-53.8765
109.69
385.523
244.063
20.396
28.5926
10.8626
58.4691
-58.7888
-148.176
23.687
89.9281
37.6683
-111.702
-174.154
-75.361
2.0527
27.842
222.368
276.058
182.944
49.3674
-229.794
-207.062
-68.0914
2.04844
90.4123
-53.7365
-96.6916
-54.8918
24.8407
64.2234
-14.3716
110.223
340.818
156.011
-43.8611
-143.151
-197.701
-167.029
-99.9219
-116.49
-79.8365
15.9559
142.56
145.901
9.47926
-147.785
-169.011
-87.8818
57.1119
152.706
216.371
-19.5283
-389.921
-384.832
-274.299
53.1478
536.184
444.404
325.677
227.308
89.5464
-70.0135
-231.275
-278.179
-113.294
120.157
228.355
112.925
15.5362
-90.9954
-154.764
-133.561
-127.167
-54.9888
29.9145
-27.574
-232.234
-162.458
-11.5943
56.7636
278.634
326.219
-39.1626
-123.149
19.9599
117.31
197.394
68.2054
-110.45
-216.157
-176.005
-17.8595
109.417
97.8396
-36.4577
-166.143
-94.6641
-27.5866
16.3319
-13.4317
-139.854
-136.007
109.929
319.646
332.821
134.079
-174.752
-135.33
-71.9809
56.0589
106.768
84.7064
27.8485
-35.0727
-115.853
-111.173
-94.7386
7.58378
29.9973
-46.4819
-97.0168
-94.3624
-80.0222
-58.7608
52.1721
165.815
186.4
196.163
251.959
127.015
-21.8701
-89.2566
-18.5506
49.6797
98.9502
-102.071
-368.336
-380.903
-106.464
219.365
60.9183
1.76142
-2.21467
-55.6485
-38.5631
-12.7607
-29.1003
-65.5666
-70.8045
-37.8162
38.659
62.4623
63.2847
68.0255
28.1797
-109.876
-73.3597
179.044
249.419
117.931
284.51
163.982
69.6473
-30.7986
-161.758
-200.162
-112.808
-117.122
-113.655
-62.7699
-44.2614
-48.924
-8.70762
-12.8365
17.6025
91.8956
69.1959
-38.4002
-172.503
-111.078
19.7286
121.518
75.9203
39.0262
-34.8527
-106.265
-67.7021
-70.2514
-87.7801
-41.3598
40.4545
35.3893
-19.7932
-3.96212
294.314
481.25
202.129
138.624
80.897
46.7501
4.32381
-168.736
-211.223
-170.89
-7.50835
121.159
81.0228
-8.72604
-80.3873
-69.0473
-24.1366
-29.1802
-164.283
-279.955
-120.186
-8.12729
-125.71
-166.374
49.0838
25.517
-223.277
-112.774
91.7781
87.8747
-40.0713
-36.0016
73.6621
161.729
300.777
367.34
303.49
166.575
114.607
162.822
-28.192
-191.153
-86.5406
-145.492
-423.746
-557.7
-388.16
-40.8714
299.97
789.974
733.175
60.9104
31.6259
-1.86527
-88.0262
-145.722
-237.271
-200.435
-128.935
-82.9548
-195.884
-102.354
205.106
232.292
52.0078
-64.6401
-61.0378
-258.797
-378.529
-563.572
-415.45
110.734
188.489
187.28
158.917
129.161
139.076
154.581
203.824
266.985
230.6
80.2792
-49.734
-7.50639
105.874
149.897
103.532
140.758
69.7881
-77.0891
-117.343
-104.778
-179.791
-94.2404
-4.65022
-41.4707
-122.446
-139.531
-105.424
-19.8009
67.9238
128.888
-45.8918
-252.754
-97.739
120.34
63.7868
57.6687
52.4577
122.832
59.3178
13.7581
-45.74
-90.8879
-112.332
-51.2667
24.5815
74.2905
36.7665
-54.2938
-72.7599
-149.599
-93.4317
45.4015
-0.617905
-65.355
235.218
330.575
-70.251
-293.943
-91.739
60.568
13.835
57.1328
97.7448
91.695
125.264
120.028
125.75
96.4006
-21.5593
-61.3831
-36.6455
-136.091
-255.481
-149.278
-130.121
-196.663
17.9078
159.711
60.25
6.94837
119.262
114.376
132.92
145.216
-15.1445
11.855
116.741
-75.3906
-152.344
-194.758
-117.725
110.004
75.9589
-311.084
7.97665
528.019
469.686
229.073
37.4918
-76.7589
-169.827
-228.216
-317.175
-367.156
-234.995
-251.535
-230.708
103.167
270.516
258.225
170.122
-75.9112
-24.7999
209.733
-54.8175
-296.512
-185.23
-66.2014
34.1812
124.031
217.622
193.624
51.4467
-94.6228
-140.127
-93.2863
-41.6355
-31.8828
44.5692
297.563
350.299
193.336
90.2185
102.729
-48.0372
-189.382
-122.513
-177.557
-202.895
-92.6377
-6.03389
52.0976
167.173
227.419
197.199
89.6615
-24.4457
-71.4194
-145.589
-267.371
-312.392
-76.5578
175.283
223.743
131.848
-45.6101
-198.384
-251.703
-154.204
-53.3006
40.0285
212.035
151.39
-74.4879
-188.081
-14.0549
334.129
137.861
-60.3006
-125.114
-100.104
-46.205
-38.8443
6.87911
-72.3459
6.87063
83.8651
69.9449
133.035
90.6107
-53.5283
-188.036
-126.452
61.3253
117.695
-21.4199
-196.641
29.1002
303.421
409.156
213.84
-58.0539
-99.9416
-34.4981
-52.7098
23.2148
106.745
93.3707
-21.5282
-122.697
-154.641
-200.348
-179.893
-54.1279
23.1931
5.22173
-42.4535
-70.6121
-157.606
-164.213
-4.34639
103.108
74.4448
11.2967
-73.9166
-110.419
-56.2796
45.8084
198.635
257.545
286.625
155.425
9.34927
-79.6526
-55.159
-19.9952
-54.1631
-72.3972
-86.4864
-102.746
-45.9055
34.4234
97.3592
187.222
277.122
158.981
-13.4244
-22.7821
-105.159
-170.026
-239.214
-240.621
-137.748
-31.1433
-45.8989
11.8439
266.872
310.225
82.5092
-81.8989
-90.3904
-104.076
-208.483
-143.773
63.3648
72.762
-3.99634
-11.4715
-36.5566
-34.5748
68.1919
106.315
98.2614
190.624
215.918
60.0598
-227.58
-248.435
58.4732
220.061
61.431
-41.4718
-134.02
-231.58
-131.835
-2.19796
85.3997
111.124
88.2877
-15.9025
-146.282
-11.2365
134.605
12.1302
31.2391
88.4466
103.773
59.0914
-92.6965
-157.032
-53.4303
209.616
227.364
-172.681
-149.454
104.528
-44.3618
-136.818
-117.094
-91.5614
-5.89055
-22.5929
-150.162
-168.242
-104.939
-22.0918
4.63344
178.722
229.066
144.912
156.69
99.8181
122.419
228.834
21.555
-198.245
-117.301
-89.375
-84.8428
-22.9202
-7.34738
-21.1259
-18.3137
-21.6127
-13.8852
33.4725
18.2808
-37.7162
-14.179
30.7672
-12.6547
-122.607
-96.6121
70.5612
78.3303
-12.0505
-4.34262
7.93831
33.1346
121.449
106.511
-114.983
-185.62
-99.9737
72.1847
573.667
354.522
-94.5333
-107.986
0.994232
129.497
159.343
-34.4183
-155.309
-292.697
-343.851
-167.757
102.384
178.811
-43.3385
-188.001
-352.825
-215.719
128.737
125.124
-188.228
-100.98
-109.572
-256.721
-198.438
250.676
649.438
178.42
-70.0954
17.5028
200.203
327.087
114.023
-8.46356
118.201
115.117
9.14351
-131.231
-118.354
166.967
57.4063
-77.9561
-95.127
-138.128
-69.055
-114.608
56.8815
247.112
-6.75424
-23.0504
-270.279
-531.922
-189.771
-21.2781
0.209567
53.3982
294.765
350.172
133.517
-152.065
-249.585
-202.181
72.7101
331.878
337.122
81.2348
-339.587
-149.705
142.933
59.9144
48.9586
114.731
-40.4943
-80.6822
-91.806
-41.4248
116.321
88.0574
-40.2524
-96.2856
-176.674
-111.735
-5.44622
-38.9961
-11.3089
74.3683
-87.9634
-99.0546
92.5946
124.143
118.849
88.461
-127.937
-301.554
-179.269
-140.152
-8.81484
312.368
481.136
301.4
214.322
198.978
93.2527
-28.0294
-193.076
-388.732
-369.177
-238.964
-197.99
-127.423
7.06671
334.171
453.745
171.8
112.203
121.661
56.855
-92.469
-177.228
-166.799
-165.146
-183.715
-191.855
-62.7577
71.0472
15.5186
-133.881
-60.7777
105.192
143.995
122.48
-56.1403
-121.752
104.561
89.1511
49.5069
60.43
-13.5721
90.875
365.504
213.115
-24.9403
-88.8133
-125.304
-273.499
-272.412
171.242
441.737
261.02
8.39499
-119.933
-190.306
-196.882
-126.616
-85.5232
23.8548
19.664
-127.857
-298.421
-422.005
-150.228
78.6893
45.7442
35.7398
160.179
183.413
-28.9391
-144.127
-60.0552
68.2557
261.036
270.605
183.39
145.245
4.75591
-134.623
-156.413
98.6254
481.815
242.227
111.759
132.641
96.256
54.4166
-18.1486
-74.5613
-201.669
-295.027
-249.642
-180.906
-279.322
-310.091
-291.297
-218.502
-39.5757
120.312
231.588
147.752
-142.275
-73.9167
-10.191
23.2839
161.242
291.362
320.226
190.04
100.995
90.5285
-40.0836
-177.008
-341.607
-313.118
-6.67876
194.734
292.469
396.691
308.368
159.867
-70.8576
-182.543
-203.657
-208.407
-184.251
-221.031
-237.173
-89.6599
17.1831
7.83947
19.8315
33.1024
92.0314
171.336
155.073
43.9767
-47.6948
-147.174
-187.178
-140.954
-50.3026
57.5325
123.285
98.9911
73.6345
36.5062
1.89681
34.0956
53.8814
-7.19569
-12.0174
80.6466
177.027
135.269
75.5841
116.258
-6.09826
-41.0048
-44.8528
-163.991
-249.225
-342.091
-206.905
290.422
439.351
229.855
72.8421
-5.91199
-3.41525
36.3226
36.4106
-82.8505
-202.756
-188.525
-180.899
-239.638
-269.136
-194.145
-15.7416
77.9032
85.2808
187.017
178.235
-45.9588
-128.663
-53.5189
3.52962
46.8289
22.6771
50.7477
76.5907
63.0432
-41.422
-131.469
-181.157
30.3305
593.325
449.932
97.0773
191.621
94.6494
0.759524
-83.191
-162.37
-103.561
-136.51
-185.233
-208.261
-168.709
-150.646
-43.0814
48.387
157.366
366.165
435.779
100.105
-327.821
-346.264
-171.576
-100.043
28.8288
69.165
51.5271
-52.9728
-76.8636
-34.3125
-15.9837
-62.049
-176.789
-153.682
-80.3192
62.0569
205.33
229.427
188.962
134.394
-1.4335
-48.1149
-32.9385
-102.123
-131.624
-56.5825
30.0579
227.353
88.2839
-47.8894
-46.6147
-13.0847
38.2952
30.2835
32.7761
170.728
148.709
75.6753
-38.1682
-115.618
-111.009
-108.47
-110.797
-32.9688
57.6085
21.4933
-75.6722
-221.39
-117.398
100.82
165.141
191.029
370.868
296.647
30.7123
-115.799
-145.329
-233.088
-270.877
-205.711
-216.492
-115.365
-49.4663
-142.71
-190.015
-90.7361
13.0119
194.43
387.255
93.7233
21.7158
79.7991
-83.1567
-5.01869
222.407
155.348
52.809
36.3797
40.467
262.352
341.903
152.85
7.37219
-40.9572
-38.161
-10.8105
-24.8942
-241.528
-384.44
-157.211
-7.8724
-35.8714
-131.877
-203.253
-247.138
-240.835
-146.206
-27.342
73.1054
13.6962
7.92456
102.355
139.686
150.655
323.67
215.019
112.593
128.407
-130.876
-236.789
-196.018
-202.044
-102.277
124.79
234.671
212.225
235.341
260.914
137.334
-21.161
2.00917
21.8613
3.40002
5.03709
-129.022
-132.098
-91.9246
-108.272
45.8763
12.6541
-123.936
57.9248
135.19
-63.3503
-240.874
-177.565
-115.683
-189.069
-148.69
-54.8896
-57.1752
-31.0343
14.6899
59.4589
97.4481
219.508
269.174
103.922
9.32343
86.0372
-16.8125
-224.367
-234.403
12.9999
363.964
190.838
51.9744
227.348
211.123
-74.0197
-281.572
-223.184
19.9682
290.403
104.746
-94.8522
-146.185
-124.017
-120.432
-113.092
-64.5089
20.3809
41.4742
-83.5701
-239.301
-108.107
100.786
59.5199
14.8185
8.28737
157.438
182.557
21.7125
-158.227
-46.0081
45.1427
33.7862
2.85276
-58.682
-4.74543
96.6571
98.471
120.388
100.216
-69.2032
-94.2333
-167.741
-220.157
-13.4136
154.712
76.4412
-3.12461
29.2957
35.2841
10.7994
-56.9598
-102.207
4.32196
181.515
224.959
157.553
117.064
90.9105
18.5395
-13.6746
-23.1618
-84.9059
-272.705
-463.652
-306.327
-188.883
-150.918
1.47723
-43.5018
10.7257
161.486
259.249
198.777
142.378
147.605
185.07
148.709
59.2858
32.5671
72.4459
3.11682
-61.408
-18.0842
31.2926
26.3141
19.9881
-2.05966
-155.93
-287.291
-270.788
-197.163
-63.1874
176.576
137.337
71.2995
82.4429
21.9813
-27.8733
-86.0911
-112.037
-68.2016
-5.33928
3.53735
-22.345
-34.298
-26.7841
-56.9503
-100.594
14.6885
169.896
166.911
214.289
230.114
28.6046
-64.4518
-63.5198
-109.833
-205.033
-196.913
-41.2558
-7.22224
34.5718
113.119
155.763
164.131
175.587
181.964
142.073
123.848
30.0323
-25.6342
-171.771
-260.175
-183.599
-195.768
-88.4776
17.9927
-44.5127
-113.926
-141.675
-79.8157
-39.6327
-8.43275
47.872
141.754
146.133
137.015
187.056
204.086
133.482
34.674
-99.1887
-242.403
-94.5106
72.0258
50.4499
-20.4038
-47.6767
7.51181
47.0459
80.5123
102.121
5.73258
138.527
30.5261
-203.751
-182.72
-150.063
-188.935
-171.026
-102.681
-46.4628
-24.0609
-24.246
-13.5957
35.0989
81.6557
218.993
205.804
96.6309
48.1001
35.3122
110.473
-17.7591
-105.904
100.142
96.3895
-1.18916
9.64375
-29.0536
-62.2964
51.712
60.9005
98.5674
119.088
-118.376
-298.066
-300.81
-157.059
-82.647
-123.524
-96.102
-72.7666
-82.795
59.7536
245.056
304.307
219.818
125.751
78.4135
61.2259
-12.9231
-29.736
-32.493
-33.7296
18.5135
99.5083
44.2134
-101.293
-166.4
-32.2596
108.693
196.097
265.793
86.6663
-244.594
-328.915
-294.086
-292.405
-260.6
-16.5802
178.309
197.287
343.843
256.518
48.7149
18.9555
79.0562
102.87
102.298
52.4762
-117.594
-263.357
-375.316
-336.409
-240.771
-202.582
-22.6521
146.25
234.37
141.668
22.5872
22.5253
-37.7443
-49.6307
4.80267
69.2113
174.262
220.993
171.214
81.8111
-40.4497
-139.852
-130.944
-27.3733
52.9649
162.131
198.173
95.0212
45.934
15.7269
-46.9328
-85.5226
-127.243
-40.2946
80.4113
-13.4028
-120.955
-237.342
-271.188
-67.7609
226.746
284.026
94.203
76.6282
208.287
68.2886
-103.417
-134.709
-203.561
-216.52
-68.1929
-31.8843
-100.703
-26.1496
48.0693
97.5052
80.0936
33.3734
-1.5817
-137.417
-234.295
-153.375
-16.4247
53.3458
46.1677
112.234
128.436
107.997
84.1792
26.4436
-26.6415
34.7721
120.175
65.0555
-48.8093
-62.7817
-4.75569
105.739
111.089
49.2121
-18.9176
12.6817
50.4755
-0.34899
-38.587
-79.7591
-32.4726
65.1062
7.32304
-70.4785
-126.048
-71.7882
44.5099
67.8357
13.2912
-66.1614
-141.174
-130.622
80.9507
262.162
289.521
93.4847
-135.433
-228.913
-251.551
-155.881
-86.5627
-65.2647
30.3361
84.4381
82.5057
22.4818
2.61945
-8.7194
-56.6979
-8.71323
81.5877
70.6097
-26.3017
-87.426
-66.9285
-40.7797
50.878
119.772
112.877
114.748
78.2224
51.2816
109.485
172.344
153.547
58.8103
-165.356
-263.796
-121.876
-8.4472
-5.2718
41.7443
105.521
9.74051
-192.96
-275.446
-167.6
-158.697
-127.363
257.721
444.853
162.502
95.7716
54.3058
-1.81827
-34.9853
-45.8209
-88.2735
-99.5822
-86.3103
-69.1293
-11.5547
8.96093
22.1965
56.4799
71.0942
40.8432
-33.2914
-97.4898
-268.562
-309.98
-109.553
-20.7023
69.6076
93.0103
43.9305
32.974
93.0687
185.606
224.052
179.918
155.582
51.5818
-101.063
-115.805
16.0508
60.6375
46.9371
-4.42211
-141.365
-168.893
-58.4934
-48.0172
-42.2636
42.8203
85.2866
154.778
191.666
110.597
74.9566
53.7607
-116.379
-255.118
-203.188
-88.1008
-36.3241
-3.55985
49.6122
110.154
163.477
107.607
-51.1094
-2.01148
-74.0979
-130.475
-57.651
-114.383
-186.74
-188.219
-211.656
-212.68
-61.8497
116.308
162.281
106.774
121.485
263.838
307.276
208.743
53.6916
-13.8139
63.6272
2.66532
-69.2575
-199.814
-220.041
-73.9696
137.504
217.285
196.002
116.83
43.7412
-11.5403
-16.6231
33.0231
-95.2072
-287.574
-265.15
-236.155
-141.426
61.7447
231.705
208.717
151.712
193.478
115.412
78.7735
-35.0581
-202.132
-314.381
-317.786
-271.204
-192.706
-20.1391
20.2839
119.785
153.02
127.729
160.617
131.131
13.7326
-45.4095
-51.7504
4.1187
-11.3765
-72.3274
-83.0002
25.4298
331.12
263.903
158.589
77.2017
28.2614
3.48793
-50.4969
-103.282
-44.4851
69.4353
37.338
-59.5469
-150.81
-294.382
-352.846
-284.334
-130.601
143.368
243.408
232.699
19.1511
58.6381
252.24
250.92
80.1806
-90.597
-97.5014
-73.4662
-85.4387
-142.91
-150.852
-168.123
-141.68
18.8201
150.765
228.193
245.52
131.582
-39.2294
-205.884
-207.465
-165.067
-227.592
-61.7538
234.994
331.598
250.369
124.029
28.3886
-39.5333
-86.2004
0.631667
106.99
43.8933
-62.5184
-145.048
-207.888
-173.687
-118.862
-11.0894
83.7183
111.93
92.3846
-7.376
-175.316
-226.308
-158.243
-25.0427
173.026
293.744
247.06
202.559
124.715
128.779
65.022
-111.688
-139.642
-83.8873
-32.612
-103.366
-153.062
37.5216
78.5809
-21.5748
25.7
91.9109
-4.09037
-177.62
-338.152
-361.951
-183.091
-32.1349
18.8457
247.678
390.35
347.047
259.106
107.306
-46.6155
-72.8988
-46.4412
-138.948
-107.947
-30.1585
-6.73346
-16.8688
-15.1175
59.0143
86.3606
71.0782
44.0122
-48.4357
-100.774
-126.453
-127.683
-77.2132
-20.916
49.0408
60.5474
19.7871
-60.5876
-78.3933
-4.48436
88.4576
175.349
166.472
115.048
95.4391
76.0631
-42.3484
-68.1422
-66.2432
-99.563
-145.409
-178.452
-233.673
-72.0897
81.5746
219.762
218.09
152.669
84.3473
41.2393
-101.205
-262.555
-296.884
-204.432
-172.7
-136.735
111.061
319.707
270.582
182.367
115.584
176.505
232.141
108.04
-31.1575
-106.431
-126.537
-223.788
-297.688
-198.024
-53.5411
46.1116
118.369
169.418
165.873
100.334
15.5102
-73.788
-68.5594
-66.391
-103.468
-108.011
-28.4931
-50.3335
-65.1097
-73.5477
-12.7747
73.419
145.39
196.582
138.579
69.9698
40.4119
-19.6792
-18.7637
-37.6791
-40.69
15.4194
1.80872
-51.7828
-79.3197
-123.091
-136.361
-169.724
-193.192
-143.057
152.729
350.062
244.787
43.2347
164.574
184.121
44.8577
-18.0992
-72.08
-76.3482
19.2272
18.1481
-98.9909
-126.239
-83.6952
-11.4952
-159.094
-379.479
-228.766
-3.1799
83.7788
308.491
430.553
281.376
-27.3872
-227.687
-232.769
-95.8558
31.5034
78.2077
-4.05754
-72.9605
45.94
184.149
112.035
-83.3653
32.4705
284.185
292.936
241.115
7.01623
-303.982
-357.213
-255.721
-137.34
-83.5
-76.126
-172.026
-149.456
94.0438
228.807
70.4936
89.8374
167.669
49.6993
-7.95099
97.3642
163.247
61.7488
-116.895
-190.377
-176.337
-109.224
-37.0179
-19.4459
13.1598
69.2428
127.971
154.371
113.045
18.4452
47.4881
26.6868
-46.799
-56.6801
-104.906
-270.325
-248.917
-102.322
-55.2217
71.9286
183.645
27.0837
-64.7504
-7.34536
48.1663
48.9809
132.29
162.323
94.1831
54.8368
64.4126
-8.89191
-32.3792
46.672
120.73
83.5991
-1.63742
-40.3103
-13.66
-124.068
-193.89
-92.1074
-14.0541
6.6086
-17.217
-59.2234
-79.9737
-27.4293
17.0292
-16.9278
4.57663
31.5219
-58.0769
-146.333
53.9848
417.105
350.579
115.113
-13.4742
-92.3586
-120.49
-53.6083
-17.297
-29.0303
-14.0559
11.9302
-61.1606
-208.31
-335.877
-282.015
-173.516
-74.5093
51.3531
177.416
149.403
49.988
73.3202
104.808
104.878
90.7369
91.1204
109.484
106.79
48.551
-24.6683
-71.2731
-45.283
58.7077
141.379
97.2503
25.1907
-7.48414
-28.3889
-43.4296
-113.07
-209.831
-165.124
-39.1665
116.927
194.111
149.388
16.8168
-193.89
-304.707
-297.067
-28.9539
228.744
348.872
396.35
224.21
-35.6133
-193.018
-246.575
-269.093
-235.61
21.8285
234.842
141.752
-48.4188
-141.503
-131.918
-86.1115
19.2412
84.0804
102.567
22.1591
-97.0806
-208.431
-259.065
-165.71
-23.0496
91.8693
139.191
249.633
316.702
168.749
-11.4384
-75.0485
-65.3414
-28.0577
36.1425
103.364
150.386
150.328
161.622
116.174
-6.24999
-186.339
-330.166
-278.282
-221.986
-156.21
20.9473
335.372
446.124
299.615
225.078
141.346
92.6087
-78.0344
-195.838
-238.197
-249.883
-211.01
-138.666
-106.396
-85.7272
-30.9624
13.1271
72.5499
126.419
67.6736
-43.3439
-276.457
-486.409
-440.572
-241.947
50.1912
114.816
116.88
197.033
293.893
333.605
368.857
337.41
215.165
106.088
43.4197
-3.80221
-63.3443
-114.066
-241.536
-300.051
-128.65
224.383
391.776
215.183
51.2944
2.53703
-10.2098
-62.2157
-145.172
-187.208
-226.685
-265.192
-150.806
79.7854
78.785
112.397
130.1
105.583
156.316
111.245
-77.5547
-224.07
-256.471
-200.697
-170.5
-107.918
-46.1922
-63.315
-70.5519
-69.7207
-41.2744
176.8
357.003
193.661
112.553
4.88975
-47.4547
1.22771
33.3978
83.369
187.903
176.95
22.9607
-54.4723
-55.3829
-58.8801
-64.3686
-26.3741
77.421
95.2651
66.8464
-79.4659
-240.687
-180.276
-7.36341
25.5511
-38.6266
-3.8908
84.7741
136.943
51.0082
-28.0728
-128.438
-207.848
-90.2717
204.858
288.595
189.611
20.8694
-21.6472
-95.0309
-195.19
-196.855
-111.706
-75.208
-7.41537
81.1832
56.7085
22.6121
-36.2235
-104.134
-52.8389
45.7917
56.8836
2.99686
-66.9119
-75.3929
1.65786
84.4915
56.9501
114.091
191.375
165.503
5.93946
-42.5079
87.5099
53.8815
0.144285
40.6725
100.83
21.4382
-29.6261
-21.9691
-28.9046
-67.2398
-157.25
-160.665
-138.51
-133.12
-137.295
-88.3946
-53.6696
-99.2384
-22.878
69.974
87.7406
107.052
103.548
95.8886
190.588
267.591
57.2278
-33.8691
-72.3226
-184.633
-140.9
-5.5205
28.148
145.995
263.038
227.837
66.0773
-92.2511
-245.215
-265.69
-170.998
-67.1232
-19.4452
-15.2293
-145.232
-271.725
-143.789
151.889
327.489
355.775
180.235
-23.4256
-127.501
-105.462
-20.4041
-12.8241
39.1383
132.567
173.944
72.8884
-136.094
-203.596
-104.127
-134.762
-50.5831
283.917
301.353
20.8412
-110.89
-60.2228
20.0606
73.0443
146.147
-23.109
-249.998
-228.9
-131.186
-38.9577
58.8701
142.412
117.823
64.2634
59.4949
67.3161
-14.7906
-274.795
-326.104
-144.345
61.6659
174.21
170.481
29.5758
-160.393
-239.773
-156.685
61.9295
336.357
226.601
82.5954
14.0743
30.2442
89.2635
35.1954
27.2116
85.1488
44.528
0.681694
-55.0047
-144.996
-205.391
-235.728
-123.002
82.2423
327.38
311.626
80.5636
-134.786
-111.339
-79.8103
-67.2184
-24.3126
8.4549
-24.8325
-59.0049
-145.776
-157.158
-11.7464
114.058
81.8164
109.077
170.959
154.271
-1.50809
-195.225
-64.2192
158.428
94.4793
47.7021
12.305
-87.0099
-173.081
-157.075
-85.9251
-36.4958
25.9209
113.309
126.049
8.93393
-52.6549
-129.252
-196.814
-110.344
102.043
289.499
61.9112
-259.859
-247.111
11.8189
138.538
207.523
185.691
124.58
68.7397
47.8799
58.4631
46.2343
-9.54115
-48.4743
-58.0358
-108.345
-121.455
-59.096
39.3864
20.6864
79.1741
200.919
134.106
-113.268
-187.857
-167.455
-124.636
-27.8087
40.3389
-40.0525
-52.2704
-82.2657
-83.8398
26.6868
168.904
175.087
133.83
71.4678
-14.7128
-68.8376
-44.6834
-69.2014
-78.3342
-49.0643
-24.1927
-27.2116
0.676547
-28.4028
-23.0208
37.1189
26.1109
36.0872
46.9852
-3.67367
-15.2708
62.9162
138.343
96.685
41.7125
11.9309
15.2695
-8.78427
-38.2027
-73.2329
-70.9386
-63.8357
13.4073
67.0212
95.1861
164.112
193.055
57.0254
-242.219
-378.948
-310.183
-140.681
-35.1266
-51.7261
-92.3579
-18.8005
11.6298
-55.947
-11.3651
135.024
273.981
338.533
236.721
177.209
175.8
80.9158
-77.695
-25.23
27.9916
27.9525
4.062
-53.4186
-121.437
-37.3373
30.0217
-8.4124
-111.871
-153.559
-277.769
-288.586
-116.394
-109.613
-143.67
-127.77
-112.375
-80.4843
30.2085
125.571
290.786
463.236
315.207
-76.7417
-40.0453
237.59
189.272
64.8569
64.1769
19.418
52.0839
72.1917
-7.31812
-105.267
-130.541
-76.6192
-104.507
-198.403
-155.072
-126.431
-82.2691
-113.9
-59.9241
107.017
45.7387
-182.55
-239.804
-126.67
64.8188
229.349
278.347
178.423
38.2674
8.93403
38.0957
-25.6506
-26.9917
83.7409
107.178
88.8806
81.4982
-86.22
-221.338
2.77114
206.945
127.716
82.3169
63.0336
-0.47248
-153.349
-240.805
-154.975
-166.106
-128.708
-82.221
-62.754
-11.1373
-1.37815
-39.3426
-41.5227
43.8153
315.828
314.74
149.855
19.7881
-65.2139
-31.1481
28.788
-5.06569
80.2509
146.488
51.6258
-29.2721
-70.4827
-89.6879
-85.1741
-112.779
-98.8274
29.1346
55.6779
78.5891
259.232
148.369
-31.9326
-138.612
-121.007
-118.19
-154.025
-142.839
-101.572
-61.6239
-47.3422
-27.684
10.2016
-1.64807
3.31153
73.9846
92.9173
22.5509
-4.12896
-34.1535
-184.019
-108.684
-114.673
-71.0955
51.8892
166.933
186.847
131.182
96.4551
87.0498
75.7346
80.4427
96.4971
104.366
46.5612
-11.8664
-18.9589
-67.3565
-85.1394
-78.4132
-47.1008
69.8851
162.37
133.262
44.9296
-23.2331
-149.664
-173.736
-92.6591
-26.8967
-11.2892
-42.2899
-66.9773
-24.9965
-10.4562
-28.0622
44.4578
61.0539
75.5756
23.4846
-170.256
-186.768
-134.858
52.7817
126.068
-25.8804
-15.836
-43.5213
0.642383
38.6371
50.4263
95.2048
120.119
93.4304
58.6386
25.8693
-30.6636
-45.3784
-21.1998
11.9765
17.0889
44.6304
106.138
-13.7162
-81.8844
-30.7978
7.65102
78.3337
31.41
-30.0314
-47.3692
-51.1316
-40.4175
-8.267
-14.4852
-55.5864
-39.3709
-18.3621
-41.85
9.70921
21.4166
8.97107
9.74757
-50.949
-70.7373
-38.5322
-10.0501
30.6784
27.8982
10.0991
5.49892
18.207
33.4307
-2.21641
-8.97063
21.2427
27.5563
54.1306
109.246
85.1339
52.3028
25.0121
-5.3559
-61.2392
-84.4936
-83.1342
-56.6811
5.65267
-32.0628
-0.695878
38.8041
40.9337
16.0876
-5.69888
-12.6122
9.66868
-21.1119
-63.8779
-55.0626
13.3255
95.7617
93.4369
38.9458
-16.1819
-39.6109
4.68787
96.8669
178.264
103.692
-49.0547
-104.503
-155.522
-259.639
-173.381
-96.5675
-41.3921
40.4888
73.6457
52.2834
0.636137
-20.3968
-3.86175
35.2228
90.8109
106.752
75.7435
10.7984
-61.2546
-27.6719
31.1294
30.9752
38.6901
110.407
105.809
93.7852
69.2894
1.34128
-102.098
-218.729
-109.08
3.89656
22.089
11.7144
-16.3392
-42.8609
-57.3721
12.5751
-7.7547
-60.6861
-108.556
-139.219
-17.2567
93.6789
86.0627
53.3487
57.1248
62.571
101.802
133.293
61.0279
-4.5183
-18.2787
-7.28731
-11.6009
10.8451
36.3887
-44.1581
-81.4866
-40.6275
-3.9357
12.9075
-17.3639
49.4444
8.04013
-67.0502
-94.8846
-85.5064
-32.4876
8.16532
-54.2103
-103.984
-33.5234
-1.28365
15.9085
43.2746
37.161
6.57153
-11.3269
-0.607331
53.9579
127.434
105.904
29.0212
-39.2568
-25.3403
49.9711
67.1262
33.2895
21.1739
-4.5287
-20.5663
-41.3133
-81.5635
-63.0722
2.83754
131.195
164.572
41.384
79.9269
43.2829
-135.546
-289.092
-215.541
-5.14143
70.9609
21.3166
10.9459
31.4161
23.57
-31.353
-6.9528
-9.53336
30.59
53.9489
47.9168
-11.1558
-62.5474
-25.9059
-85.3321
-136.442
-39.6217
144.315
125.49
35.5957
-60.2302
-81.5589
-14.4587
3.0493
112.192
120.366
45.987
42.5617
64.9708
12.7782
-96.5815
-124.562
-51.5439
50.2325
140.622
202.613
99.6089
21.1701
-19.2691
-3.44587
-17.5634
-18.2637
-102.363
-176.522
-246.272
-229.201
-0.904722
50.1061
8.14964
114.284
147.411
22.5806
-139.283
-280.886
-205.801
-76.555
12.2104
56.4992
73.2506
-19.3102
11.1324
47.6238
139.717
360.924
268.622
169.605
44.0028
-22.4959
-38.0973
-82.3512
-45.2656
47.0974
126.598
133.296
17.9106
-78.8976
-161.786
-160.57
-70.5175
75.8228
172.853
56.2691
-29.4143
-225.41
-207.442
-35.1913
-49.9994
-82.7358
-64.2348
-64.4099
-26.5751
67.9915
29.1006
48.9819
23.2224
-1.17315
52.8839
37.892
15.9946
-18.9748
-57.7601
18.9793
39.5797
6.57125
19.1375
-7.38587
-61.3798
43.3359
106.437
-2.52078
-100.729
-83.4805
-40.2651
44.8929
54.4326
60.0366
98.169
42.994
-30.3326
-37.3969
44.4772
175.091
121.918
35.9311
-55.514
-158.406
-225.331
-161.894
91.7501
297.742
134.981
-1.42412
-27.7585
-22.3679
-1.92982
54.7802
71.7919
9.0347
-100.757
-186.187
-136.859
-182.707
-211.608
-158.614
-2.32936
93.1758
173.514
114.266
-63.454
-113.049
31.3759
28.1361
109.575
133.802
25.241
-23.7741
-15.884
21.4501
73.4781
117.567
53.0682
-27.061
-90.3052
-47.0104
105.634
116.5
19.837
-0.578894
-57.1965
-98.8877
40.8051
56.9581
-99.6579
-118.267
19.9347
65.9011
38.0011
11.2888
3.21382
-2.66115
-36.1379
-65.2429
4.72658
49.6354
-5.4103
-8.4663
27.3662
1.65709
-20.2326
-49.5189
-101.094
-76.9156
-4.80078
18.8753
-36.9609
-70.7902
-30.8068
17.0262
50.7643
68.6446
35.2417
38.1814
127.721
153.965
69.8152
-92.1419
-144.833
-55.8555
-58.0946
-35.5438
35.0688
36.6885
-7.15269
8.93952
155.251
125.537
-23.8511
-4.27587
-24.5157
-58.4788
-66.4094
-118.857
-154.212
-130.539
-98.843
80.8359
188.904
188.033
110.791
-61.4319
-54.5505
109.904
190.803
111.337
19.6068
-94.4659
-128.34
-131.932
-24.4374
-3.92377
-117.715
-79.3851
-11.7184
-1.28558
9.63116
6.30074
11.6699
-16.6985
25.8736
80.1847
41.9642
-3.53694
-44.4362
-55.6328
-105.405
-37.2073
129.286
87.7726
31.3464
-43.8877
-15.5064
42.6785
-44.8622
-34.1412
30.2259
36.2746
43.6613
38.0772
29.6076
17.037
-49.8654
-18.5781
86.8164
92.926
-1.7591
-34.4334
-74.999
-41.8435
-47.1183
-21.8121
18.32
-13.5427
36.07
5.89449
-18.4477
26.3955
50.5396
21.355
-36.8421
-55.7698
-54.3014
-40.5654
-47.7594
-76.9775
-48.1225
-17.016
54.6891
93.0654
10.6906
12.2624
36.1255
34.7144
30.9988
42.0564
31.6942
47.4094
-5.01272
-108.472
-75.3048
45.6861
64.5002
-14.1878
-37.6493
28.831
-61.4386
-79.2877
-58.5299
14.0905
70.0874
26.9188
8.43221
-2.26912
1.10746
-15.7027
-40.6274
-33.8865
10.1888
64.9032
86.8632
136.341
146.794
-16.7802
-182.208
-177.871
2.6407
202.462
184.516
-26.231
-83.4638
-100.45
-92.9493
-28.1421
18.6654
16.0609
-20.2571
-83.1037
-90.397
-46.3997
-27.6945
-29.1076
-6.71543
40.1144
125.36
140.909
61.4504
-75.0887
-128.562
-76.5537
-45.024
36.6567
172.485
167.133
56.9714
25.4686
-20.5307
-29.1512
20.4157
-22.8211
-70.3508
-71.5417
-20.0659
58.4322
-25.1976
-66.8546
29.4873
35.0705
-28.5927
-70.4553
-46.4273
26.0592
-16.7614
-82.8415
-28.8955
42.3081
111.263
122.907
-55.4672
-39.3154
36.2748
15.7861
-45.4615
-58.5838
22.0542
42.3486
0.466739
-0.16744
38.1343
101.236
87.8385
20.2813
-44.2554
-86.9522
-107.708
-93.7521
-47.82
-34.4718
26.8797
41.0977
33.3889
24.4185
-14.346
-16.4641
16.7435
169.175
128.79
-125.827
-89.8065
54.044
96.86
50.871
-68.9841
-117.349
-35.0172
3.68242
14.0896
-4.92781
-4.77544
-28.5707
-73.9119
2.09251
43.9157
21.6501
4.48412
-84.916
-79.7224
60.6474
67.0832
21.8143
-96.7412
-162.663
-17.3507
157.686
106.901
33.0808
10.4158
36.2525
64.714
78.6979
57.7883
16.849
30.9937
-3.54569
-80.6773
-129.342
-85.6398
-83.7299
-88.6469
-114.929
28.4692
261.772
126.818
20.2496
33.7739
54.2144
24.3594
-3.97363
-53.2811
-71.5146
-20.9272
-79.4224
-154.81
-32.2
80.1216
34.258
-4.89854
-1.94583
6.0515
10.3523
-13.4308
-68.1223
7.57045
25.7363
30.4226
11.7764
-42.4764
-88.013
31.8098
160.11
163.884
92.936
41.9668
-71.3005
-187.407
-148.893
-34.7855
37.0646
83.324
67.3492
-1.01674
-46.8923
-28.8175
-12.3226
-8.41353
-28.5341
-11.691
22.311
21.3855
-98.3189
-149.071
-61.2006
172.822
331.36
182.117
68.4109
-25.7787
-42.2624
-18.9059
9.024
-11.8447
-94.1858
-138.202
-138.215
-101.322
-43.7954
-35.3121
-17.9993
20.6932
57.2586
138.688
74.0234
-112.117
-168.887
-58.5589
54.6508
93.7785
80.4842
29.3185
-3.99302
3.71837
40.7234
77.4507
58.8118
21.1203
-5.06257
8.23748
19.9012
-6.42154
-3.36994
-7.95831
7.91456
-12.728
-66.9736
-14.0248
-4.8182
1.58916
-12.2968
-24.0776
-34.3723
-28.8994
-31.8158
-34.1468
-21.7543
29.2552
54.4008
83.9744
125.333
-216.747
-339.372
12.997
92.1997
72.9146
97.3836
103.868
53.1175
47.8452
54.8135
-9.34982
-101.277
-76.9539
59.7392
38.4987
-5.26317
-45.7136
-86.7338
-77.4601
-40.2918
253.4
385.456
-44.8222
-111.282
-30.1858
-90.9491
-160.095
-151.677
-42.7625
36.7997
28.7246
17.3326
14.1715
-28.2414
27.7807
41.9806
22.2444
37.3163
20.4531
-20.8506
-29.9428
-45.3189
1.7737
12.4196
-17.434
-1.98977
101.437
132.834
41.3463
-17.2379
-13.4585
7.9208
-38.86
-104.172
-75.7112
-30.9158
-12.9133
8.27441
-3.25011
-44.7271
-41.0727
-36.5593
42.0809
14.7052
7.41639
41.7412
58.0827
48.7549
2.1609
-14.0666
-13.8172
19.5446
39.2282
39.2542
11.9726
-5.78652
-32.3981
-41.7712
-15.9054
110.222
108.098
-36.55
-94.5399
-98.6323
-2.9931
53.4237
24.2003
-20.4349
-51.1542
-71.077
-48.4976
-0.245674
51.4892
72.5119
44.2539
13.9837
-38.694
-66.7463
-29.5643
-44.0597
-49.9984
26.5182
33.0028
68.1545
47.0388
1.69171
19.7915
26.5958
34.191
26.828
-60.4644
-17.9086
64.4351
45.0679
-28.9794
-111.712
-78.2307
-10.4746
11.4593
-11.6043
3.08141
42.8067
44.9614
35.4876
23.4712
14.3847
-23.3377
-47.3828
-77.5582
-133.713
-61.2522
-18.0931
181.011
379.335
137.104
-86.49
-77.3601
69.4107
-68.6404
-160.317
-90.0918
-17.8734
47.1161
15.4371
-46.9308
-65.0373
-12.839
-14.1313
-62.2228
-7.29417
131.62
141.963
-72.2089
-266.641
-167.34
9.31349
69.7318
19.2218
71.1137
92.0176
65.8788
38.2059
-46.8982
-10.154
38.6309
36.6108
14.5319
33.4651
87.2215
120.029
55.7818
-37.7608
-97.372
-103.814
-41.8418
71.0251
92.4873
32.1358
45.6103
32.5951
-32.7613
-57.7399
-63.7389
-37.572
-22.4645
-6.61415
-11.7058
-25.5022
-13.887
-16.2276
-42.31
-68.3471
-105.182
-92.8961
68.0558
123.13
62.5103
49.8325
-8.85394
-66.6246
-104.858
-100.61
-29.8556
13.3825
55.228
59.7696
39.6777
32.0169
41.9455
47.1977
36.4436
39.1211
34.7613
34.6738
62.4082
-1.38166
-126.194
-98.3091
49.8426
149.116
97.3123
-15.1415
-72.7162
-34.1462
-31.7585
-43.6378
-21.533
13.7635
28.5178
18.581
-62.0446
-113.973
-76.4715
158.372
128.159
-126.623
-11.0987
14.0253
-31.7305
-62.7579
-3.9592
47.3273
31.2497
-18.2841
-25.5851
57.9293
48.4388
9.86005
2.38997
27.4584
75.5685
12.04
-147.272
-211.4
-189.189
-53.7286
8.84796
19.9418
125.082
142.562
84.8842
97.7319
55.5846
-37.2774
-23.0847
83.673
82.1691
6.30262
-28.7376
-42.4135
26.9656
48.9825
-9.78337
-152.099
-73.0271
84.4877
75.4076
27.9178
-64.4976
-89.1422
-50.9442
-65.9677
-49.6385
74.2773
63.0944
-105.536
-56.4963
29.6
-17.0309
-29.6981
-51.237
-0.876733
94.3009
88.596
43.1938
57.1619
67.6867
75.473
9.25401
-28.7739
-64.2606
-83.9376
-84.6686
-76.935
74.5157
48.7265
-40.74
-29.4674
16.6162
11.0585
-31.8258
-10.0242
30.7571
90.3652
86.2008
33.4065
-21.8137
-80.739
-84.7287
-42.2199
48.5089
105.648
131.027
78.6475
-42.5322
-74.3339
-68.6197
-76.9924
-33.2537
1.84987
3.6569
-16.8514
-26.2947
-65.8882
-40.8567
173.689
78.3439
-32.6831
4.88935
16.5142
-27.596
-118.879
-123.006
-54.7212
-31.7484
-7.33758
37.9367
84.2988
106.68
99.4702
52.6553
71.753
105.117
-25.6536
-102.281
-174.802
-87.6351
-13.9961
-20.7552
-16.6928
34.5449
110.488
122.959
45.6833
-7.70562
20.1992
109.164
84.4051
48.2696
-30.5001
-147.335
-229.678
-162.103
-4.2125
30.0718
-21.0909
44.8975
26.0913
-21.1949
-9.13584
43.4343
84.2443
85.4019
21.8276
-97.3521
-77.9487
-50.1051
-40.7992
-46.455
-18.7868
45.9152
86.8529
57.3527
15.8822
24.4688
10.9857
-38.4383
-25.0854
-15.4242
-7.02417
39.2829
72.5214
64.1792
50.9807
17.7712
-39.9369
-67.6147
-39.5946
-23.3074
7.16005
36.9056
32.1366
14.1828
-3.41932
8.03763
2.89136
-27.7627
-21.8843
0.719432
6.03728
-32.4116
-40.2133
-25.9952
-58.1884
-19.9996
38.3488
91.4507
90.434
-24.8396
-28.3845
-11.8187
41.6066
-0.902949
-175.608
-189.968
-94.2004
81.9887
188.257
37.4704
2.33876
-16.3533
-35.7681
-19.7849
69.5928
116.801
77.3421
-2.45727
-40.4267
-7.05646
-3.36255
8.89131
-3.41933
-21.5197
52.462
60.9832
15.0111
-75.9662
-126.944
-40.9807
-17.4736
25.1504
36.0066
28.013
32.2275
-10.6484
13.3779
14.1815
-27.6046
24.2282
36.1201
37.4466
4.34074
-48.897
-54.7219
-47.8063
-30.0371
-48.3549
-36.8885
26.6671
-3.32167
-20.1537
-32.6329
-3.5326
71.1062
75.3498
15.5711
-7.25372
-14.5623
2.11464
-65.0204
-206.752
-129.463
99.7969
223.333
132.348
10.2197
-0.0983211
96.4984
135.731
10.6854
-31.6012
-3.76317
-24.9654
-78.2193
-43.6464
-16.1783
-27.7591
-16.286
-29.2687
-6.90786
54.7279
38.562
-28.7436
-50.5769
-16.7218
8.91625
-9.35884
-72.78
-61.259
33.4157
48.2897
25.8717
17.3914
-19.7582
-52.2479
-53.0029
-18.2184
15.4011
10.1724
32.455
89.3927
80.2287
22.8969
-20.6567
18.0181
60.6266
30.7634
-68.6503
-165.147
-151.066
-61.3373
12.4849
47.4184
99.6922
143.969
131.632
45.3617
-73.6968
-144.501
-98.3997
-0.24041
65.1925
45.44
25.3585
39.5669
54.1221
13.6211
-74.2075
-14.4485
-6.22889
-20.5971
-28.5586
-24.1948
-46.7957
-142.617
-188.445
-115.566
107.181
485.102
343.623
23.1927
-110.027
-66.2467
-57.2135
-102.586
-133.242
-105.415
-24.8496
14.9878
65.9312
60.1675
27.1587
15.4187
25.7803
65.4495
92.9424
51.7693
-62.457
-258.492
-239.083
-41.1872
51.3062
40.5903
77.5442
84.6313
39.7753
4.53253
-81.6271
-49.4191
74.7261
25.6527
2.96291
-2.31057
-0.465187
32.9976
67.2147
90.2564
84.0462
13.1141
23.3242
9.87478
-56.2333
-124.312
-123.169
9.82385
68.6694
-42.825
-49.767
18.6521
66.6697
86.0841
10.2266
-84.4013
-76.3497
-8.00164
-1.68897
-15.0038
-17.535
-54.1473
53.3921
60.3892
33.0098
22.5774
9.21135
-30.6428
-41.2947
23.1826
89.3313
39.0353
-51.6849
-63.6362
-12.1078
49.1187
55.3719
22.4987
-6.84639
-19.7643
-44.5021
-74.4119
-67.7421
10.7516
114.877
84.0848
25.0713
-52.5354
-62.176
-36.9311
-6.1139
-20.8336
-59.0484
-48.7695
-22.7216
2.64762
5.62944
-1.53104
3.07878
9.60072
25.9831
24.1114
4.38573
8.34265
-0.734176
24.6006
13.9868
-32.1716
-30.1839
30.9878
49.9897
70.3729
49.0372
47.3844
43.006
26.058
-24.6016
-37.269
-31.786
-96.7873
-103.455
100.529
107.042
35.4453
93.0852
-19.9191
-37.7898
-22.8529
-13.8984
21.4956
48.266
-7.20848
-52.0075
-141.248
-179.904
-74.8888
-4.2436
13.0659
45.9979
97.5665
74.3
-71.326
-80.4811
-39.0997
-91.9355
1.5683
42.2917
56.5437
45.4316
3.21238
-21.8527
-19.7287
56.9576
120.131
108.191
41.2341
10.0726
-5.21512
14.6697
91.5849
48.1263
-37.3556
-57.9395
-58.1696
-81.1977
-43.1061
-12.1361
3.21853
7.96602
6.88858
7.62332
5.33635
-29.092
-13.9881
25.8722
-10.3146
-19.7063
27.0036
-3.12615
-97.1807
-67.9064
-10.0106
-6.75375
39.2102
-11.9453
-9.27568
4.74052
14.8644
19.2732
35.8384
50.2387
-9.88762
-78.153
-46.4364
36.4241
106.249
92.7918
12.5717
-5.134
2.76817
19.8041
19.5905
46.841
-13.457
-54.7607
-46.9811
-27.9136
-8.88396
-11.4438
-16.7176
-18.443
2.84955
22.5861
27.6018
7.56605
-22.2531
-9.21115
28.3225
66.4553
44.8431
-9.91539
-108.572
-139.607
-74.3668
23.7458
10.9298
-65.9366
-68.1159
84.7083
133.815
36.322
9.55801
8.68379
-2.69088
8.26657
72.5035
33.7073
-20.9382
-58.8719
-81.178
-22.4442
53.2775
92.665
56.4583
-6.24817
1.41484
36.5809
22.1552
-67.0816
-84.9453
-7.01529
15.5238
27.3387
-11.4318
-95.2319
-97.6565
-22.0678
8.71055
-9.40782
-17.948
2.72172
19.5914
45.8717
149.083
112.178
54.3751
20.0655
-7.31955
-23.534
-36.9318
-53.9447
-56.4299
-53.5794
-11.0468
33.248
-18.2154
-57.3962
-46.2638
-21.5077
35.4612
60.2514
42.8222
6.21392
-60.4705
-51.0455
-26.1776
1.14578
19.4629
-5.35952
-6.60982
17.0245
49.136
38.8186
12.8744
21.339
21.8175
60.0087
73.8423
-18.2163
-75.3113
1.9284
-12.6294
-144.423
-38.7241
70.2173
108.583
41.1503
8.36509
-17.3605
-47.2861
-37.7915
19.6473
-44.9655
-8.49344
2.45059
-37.7634
-51.2173
-44.7204
27.3046
86.8242
60.1415
49.0894
78.9024
-22.5331
-70.9783
-54.4412
-4.25842
37.4096
31.2665
-32.7186
-61.5569
-111.994
-11.9064
19.0092
-5.50054
11.4806
59.887
62.8822
43.1309
40.9572
-3.59448
-28.662
25.487
4.6553
-1.21155
-4.94669
-56.8074
-52.9348
-12.5931
12.0478
31.934
41.4238
25.9007
-0.638402
8.7475
-72.8973
-83.7261
-24.8092
22.3755
68.4104
61.2652
30.9014
-55.7037
-132.197
-103.783
-1.49682
132.182
52.0825
-13.8392
-2.33346
2.93236
-7.69078
-14.2315
-12.5683
15.018
55.6016
93.6851
67.3514
15.5272
-2.03889
-18.603
-2.38014
38.6451
48.2731
2.40543
-67.0528
-85.3763
-7.51779
25.7798
19.6619
-35.4041
-83.4484
-70.0983
-56.957
7.92763
52.5283
-25.6698
-102.876
-65.889
-27.1806
-4.08241
38.381
83.5595
75.7361
42.407
15.9754
-5.07403
1.73749
-0.223959
9.28899
24.1781
61.1221
27.5036
-12.8382
-10.1292
85.5848
189.045
-6.7776
-108.014
-55.092
30.497
-5.06167
-44.0313
-71.9464
-8.63837
81.1761
29.5867
-103.426
-167.205
-147.672
-13.0781
39.6553
58.0087
52.757
18.7178
-29.1485
-143.243
-11.3802
172.459
129.062
17.7356
10.0913
1.68126
-2.66325
-17.0842
-45.3347
-37.3811
13.2608
44.9589
34.75
-7.07969
23.3056
100.422
95.1435
-64.2836
-139.561
-63.2321
-9.47579
-48.342
-39.9123
30.0222
39.157
21.6329
24.8435
-68.6991
-103.443
-51.0444
-5.44433
44.3378
78.8214
45.7177
4.50594
2.96106
7.54637
32.222
52.9671
31.8163
62.1656
23.9454
-18.6044
-44.9482
-38.1367
-6.1648
30.7391
90.3029
2.86077
-42.3949
-18.9253
1.52951
-9.17663
-30.9926
-36.6208
-54.5448
-48.1024
14.5132
25.5661
7.90153
30.0907
11.8478
-24.9456
-78.1068
-93.2713
-76.468
-27.2981
-14.8236
9.43435
55.5922
60.8786
40.7013
38.0786
21.7831
16.8884
-10.381
-42.5137
-22.3886
24.1714
77.0979
33.2316
-12.1413
-31.8471
92.7271
195.332
48.2802
16.3513
-17.1979
-30.9866
-47.8197
-53.9715
-63.7529
-58.6055
-19.7895
-3.35591
-28.1843
-15.8858
-17.0853
-107.026
-78.0736
-5.36289
2.26029
35.529
-35.5406
-101.771
58.2858
180.632
175.715
88.2336
-10.2733
-72.3362
-57.5414
-11.6833
-18.1634
-49.9616
-46.4033
-8.51156
38.5256
78.5978
93.7164
75.7641
14.1904
-80.9082
-138.689
-76.3
3.1898
-7.25681
-19.6865
2.65779
36.1639
53.5123
43.9044
21.4978
4.0365
6.41387
8.69978
-18.7093
-22.4198
-2.62459
-65.5363
-70.449
-11.3461
57.396
90.2332
65.3476
19.3674
-54.2703
-87.3942
-56.4723
-19.4759
69.1937
109.396
1.27538
-47.8123
-42.6998
-13.7303
6.55257
10.7465
9.59516
-17.1458
-28.8843
-19.025
9.67105
31.0908
21.6014
-7.20607
-38.8105
-15.2573
29.8095
15.1402
48.8427
30.6152
19.5037
-17.3645
-51.794
5.29639
78.8278
24.9517
-14.3013
-30.6717
-31.3953
-14.1024
0.295566
17.5301
8.45284
-8.69936
-43.9778
-70.7941
-66.0206
-9.74055
-22.9513
13.3488
66.418
55.0089
5.89554
-91.3174
-103.409
-0.804193
152.197
192.43
93.0906
-101.839
-215.88
-19.0076
49.4387
23.6333
36.1347
52.6859
56.5886
52.9664
10.6183
-42.7459
-47.5576
-22.6716
30.3401
55.1694
23.2392
30.3354
-26.3389
-132.365
-125.596
50.6874
182.97
64.6837
-11.9927
-43.8968
-64.136
-62.6593
-33.3167
43.9496
-22.7199
-81.2732
-54.9763
-13.3644
9.03891
20.4854
3.40555
-21.7558
-66.7676
-49.6835
41.645
92.3489
109.687
15.5611
-31.8457
-8.96095
12.8511
21.0582
-4.94659
-92.8107
-80.8312
-33.3932
87.2582
158.627
-6.86087
3.67678
24.6249
-5.33518
-26.45
-5.85316
19.2213
31.6515
13.3833
14.0468
61.3766
59.4871
8.85009
-32.0636
-75.1994
-86.3743
-47.9929
-0.724302
-41.1114
-74.9199
15.9541
37.1172
8.65017
-20.8787
-0.0593284
84.8271
71.6712
-2.4336
-43.8755
-67.9457
-43.2709
-5.26983
32.7609
55.1229
51.3389
19.3602
25.9436
15.9095
-21.0551
-58.7943
-19.9558
-5.07963
115.316
172.467
40.3629
-42.5922
-146.162
-245.217
-74.3587
22.8252
22.2473
-16.5544
-2.24108
4.1943
12.3723
-18.8033
-56.809
-2.5276
-14.936
112.905
192.992
91.0482
-32.5515
-78.4729
-28.3751
-22.5857
37.5599
104.45
9.1147
-35.7326
-39.0165
-31.3062
-20.6391
11.035
26.8148
46.2479
36.24
-12.7042
-3.68191
-28.5236
-57.0577
-80.9446
-121.613
-164.119
-114.733
-17.5763
50.1376
98.7082
68.8728
68.3386
76.3378
62.8931
24.9849
-18.7901
-45.5318
-18.8126
188.893
196.376
85.5353
11.431
19.2081
73.2427
-64.9206
-128.632
-84.0773
-146.028
-142.499
-102.632
79.7083
132.549
-34.1798
-66.1469
-41.7353
-31.5617
-5.08975
13.5258
-45.2926
1.9353
14.8502
-11.4166
-41.493
-39.0843
47.2829
104.672
94.3222
87.7784
84.2813
83.9177
-35.0753
-87.4224
-15.5831
15.2794
27.3031
36.3084
44.7613
37.1047
-109.367
-245.987
-160.599
-98.7308
-67.7191
41.9163
124.197
134.078
75.4001
38.7236
16.2905
-1.88367
48.4083
72.1287
93.1398
33.4431
-77.421
-109.549
-81.5192
-36.6253
-15.696
10.1277
8.13531
-11.4759
-8.8137
-24.0269
-7.5043
30.0231
61.8122
34.2393
-9.35315
-42.8245
-85.027
-70.0574
54.4791
162.898
107.971
50.4854
0.146805
-18.7008
-2.30999
4.56332
-19.1696
-32.3703
-60.4215
-82.302
-95.6109
-99.9449
-94.6899
-24.5435
55.3452
101.277
94.0654
78.1717
-14.084
-105.483
-98.2002
26.6243
141.707
99.9411
-48.4545
-89.9106
90.9107
152.916
-49.7181
-35.0697
-2.94313
12.6475
34.8541
34.4093
-9.19555
-58.3805
-111.014
-138.866
-49.3515
135.95
160.875
96.5345
-7.68832
-57.6316
-7.5182
56.2129
-20.8427
-112.409
-83.7636
-101.084
-45.0423
25.723
61.6971
38.3451
55.8671
99.0452
69.2283
17.3618
-95.905
-177.682
-40.1092
3.39481
-15.1743
7.10396
33.1599
18.2734
-31.1562
-25.8531
86.021
88.9353
51.0684
13.3229
-31.8777
-42.2228
-65.0902
-51.0415
62.2231
149.011
128.196
23.6871
-36.4009
-59.6911
-71.3349
-40.546
-15.0235
-72.0645
-103.167
-110.058
-12.0822
117.077
77.6263
55.9786
83.0279
64.1951
29.2972
-17.6758
-113.715
-131.004
-48.8139
-6.34207
-14.0846
10.7273
44.2242
19.9073
-21.0366
-31.0287
-4.7445
133.093
124.077
22.5648
-11.9139
-49.3128
-50.0206
67.9562
-40.9587
-108.464
-4.50676
31.6336
49.4814
114
86.1987
11.7721
-22.2888
12.7033
56.911
45.0494
-21.916
-77.2921
-143.846
-157.901
-36.147
39.6578
34.0516
-121.944
-8.91391
53.406
-17.0164
-52.001
-48.423
-58.8671
-19.4117
10.3025
5.64906
29.9738
54.86
82.3443
88.8759
20.8456
7.753
-18.5385
-27.2633
-16.1076
8.59932
79.9289
113.513
126.239
84.8019
-51.2804
-48.0925
-45.1738
-61.9632
-40.6278
-49.6768
45.1839
49.3687
22.6325
-43.6707
-72.2732
-32.6395
-2.90831
2.8356
28.9137
56.8038
2.00672
-32.6447
-75.9646
-99.6874
-32.9629
-37.2299
51.4247
118.441
109.551
43.2349
-117.903
-184.142
-124.343
0.374729
55.2872
65.6598
58.3724
41.0443
-4.97699
-28.7215
2.5271
26.8421
76.6657
61.3848
37.5008
57.2043
7.03811
-120.045
-117.977
-20.1167
84.9138
130.259
65.8013
33.7088
-10.2882
-47.2314
-37.7107
-58.0444
-33.7404
10.7905
-14.9609
-31.1183
-33.1134
-47.3261
-8.8069
33.0922
-14.6035
-20.0374
42.3675
81.1816
-18.7892
-53.7136
-29.6282
-18.9344
-7.03711
11.5359
-26.2355
-49.0674
-51.8566
-60.1635
82.4246
71.9102
59.2147
99.3135
65.9632
-13.093
-18.7587
11.8467
-13.0013
-22.5323
7.44529
32.3481
28.3146
-57.8462
-94.0531
14.5668
85.2869
119.843
21.8057
-134.089
-258.832
-139.81
16.0726
100.96
105.597
4.3618
-8.29289
79.7612
85.0505
31.7685
11.9449
38.3492
75.5067
-39.9257
11.7008
-26.4227
-162.564
-80.6954
2.23157
60.2013
85.1512
52.3539
-12.4032
-56.7688
-17.4394
26.2369
11.8284
-29.885
-62.4589
-59.4733
-37.4104
-29.8176
-30.4015
46.3473
-4.39297
-33.8532
38.7632
16.1964
1.0032
34.1789
35.2179
-13.1835
-30.0728
-26.2399
23.2524
124.35
88.3809
34.5007
-5.38776
-4.91496
-14.3739
-53.4757
-53.1578
-16.435
-38.4748
-21.2201
13.9411
6.47297
-4.45679
9.98161
31.3447
44.2785
34.0736
6.33929
-19.9921
-61.5611
-72.6293
-3.34699
2.47349
-19.6232
-20.3496
14.6288
46.6074
28.5211
-18.6925
-30.7197
-46.8322
-0.55826
65.6099
44.8665
13.7505
21.6594
38.5368
-37.1262
-21.6236
54.5545
58.0996
-2.97208
-68.96
-90.2756
-73.2455
-16.4513
38.9221
21.8506
28.4933
33.9799
26.6597
7.79227
-20.9056
-0.314972
22.3948
34.2618
73.7368
42.7295
9.55717
17.6358
-126.314
-197.385
-77.5649
29.4097
40.1001
20.0305
9.21393
11.7486
2.56253
25.3446
66.1521
29.3412
-22.7887
-0.863322
-5.29728
-11.4687
-25.6664
-46.5418
-45.6528
-47.855
39.882
82.1266
55.6977
19.0619
5.53654
-4.04907
-4.6808
-2.55918
-17.5047
-26.4129
43.7251
111.063
106.823
31.3559
-163.85
-167.312
-82.3848
-11.8511
-71.0771
-146.133
71.4097
171.695
76.9445
27.5374
-15.659
-39.5766
-49.5844
91.1169
178.898
125.65
92.5369
-15.7713
-76.7801
-128.929
-124.452
-109.368
-60.3658
-55.815
14.8665
97.3161
9.47987
-50.7056
-13.9267
-0.411057
-23.5389
85.7319
87.0944
169.249
128.813
-57.938
-196.902
-204.761
-101.113
45.0081
151.135
129.728
32.7079
-9.24065
9.37228
27.8134
-11.6329
-11.2108
3.49737
3.82544
15.657
-35.1799
-19.0483
-155.097
-164.688
-23.6041
12.5088
90.7284
105.717
31.9963
48.1019
74.45
32.6804
-2.34178
-3.78261
-17.9155
-71.3508
-84.1918
-28.5311
0.913898
32.2804
-0.125721
13.5905
28.4885
-38.5889
-23.4602
-13.0926
-40.6679
-47.2867
31.9318
77.4192
74.9665
58.1194
6.97803
-19.7738
18.0422
50.5521
16.6057
-53.1133
-85.5533
-50.471
-29.3698
11.5408
-21.875
-8.58808
17.9334
27.007
20.4461
5.38845
12.5344
29.022
17.8064
-3.13682
6.68324
16.6974
8.08565
-10.0351
-8.81442
-26.581
-58.1113
19.5355
105.204
12.8189
-52.044
-54.1078
-34.2157
-6.4026
2.13739
23.4151
34.5039
-19.2952
-75.9978
-22.6817
63.998
115.483
28.34
-29.1535
-50.836
-44.4762
31.0827
-17.9932
-101.896
-53.4681
60.0842
268.902
-21.0324
-121.03
19.5842
-48.5898
-49.5045
-17.4132
21.7244
8.24915
-14.9575
-49.5414
-40.0879
-7.22507
28.679
66.6289
62.2513
43.3647
13.2138
15.6973
-2.84577
-79.0971
107.072
138.597
-22.556
-81.3817
-129.811
-88.0913
-26.6366
-20.1478
-4.74022
32.8723
40.246
37.3482
20.1752
-16.9854
4.41281
-14.105
-13.0093
25.6801
-13.6127
-70.3625
-3.13864
15.9633
-5.58741
33.7723
112.587
161.153
67.6087
-5.95313
-71.4498
-105.77
-75.6008
-64.2361
-23.9863
44.5649
42.3858
38.5916
5.86746
-28.6322
-35.8241
-43.6986
-23.4334
-87.5028
-69.0523
51.9646
87.1984
70.6093
10.2421
-28.179
-56.6454
-41.9024
-26.6597
4.57865
36.3871
65.534
51.4223
41.6602
34.2601
30.2307
30.8546
-13.1071
-15.3846
6.20372
-29.618
-97.1192
-82.7362
-38.5324
45.9362
49.5358
115.382
138.37
77.921
-93.7712
-187.648
-213.322
-49.0223
151.029
83.6024
31.8695
9.92919
75.2027
49.2968
32.3853
29.4935
5.54163
-84.9603
-183.256
-146.864
9.93509
140.637
-46.7285
-42.6686
91.4068
84.9394
66.2079
-48.2161
-129.796
-54.3615
-25.5831
-45.7299
-102.397
-40.0723
55.5981
76.5623
67.2217
73.7837
63.0746
59.8468
-0.685437
-98.7773
-23.8798
-12.1307
-12.807
29.8751
79.7672
95.5871
86.9211
46.2175
3.41058
32.7364
3.34288
-128.747
-77.5637
-17.2409
-26.3939
-19.0359
-26.3269
26.6402
45.1234
-40.0796
-13.9956
-5.15779
6.33965
13.9016
-2.99766
-40.0112
-24.1138
53.1098
30.353
-21.0796
-81.6673
-93.2461
-55.1505
-2.99788
11.2804
32.1065
34.6057
-24.3903
-16.6463
36.9153
27.6289
35.7131
-10.6384
45.3233
100.247
74.3003
5.31528
-44.7959
-33.9717
-18.1177
29.5716
119.62
78.5
15.5343
-6.87424
-27.1054
-36.4093
-48.3323
-77.3166
-90.8207
-46.794
-5.26223
24.6581
-41.7521
-74.7059
-100.591
-37.6147
14.0551
3.5528
-10.0015
-13.8638
25.1697
41.3013
142.165
144.288
40.2327
1.49167
-14.2094
8.5249
-18.9665
-62.5289
-77.625
-63.993
20.704
152.938
32.2198
-105.069
-95.2973
85.1951
207.284
56.6235
41.0057
35.0088
-37.2914
-56.0017
-45.7211
4.64384
15.4845
-36.8489
-85.3191
-104.697
-94.5087
-26.9693
-27.263
-103.392
-13.6825
21.8908
23.2378
6.58929
-20.05
84.9492
114.518
87.0758
15.4141
-38.8134
-4.22294
64.5012
54.772
-0.516369
-32.891
-18.3561
6.19997
0.699072
15.4798
1.85818
24.7985
24.6636
-14.7633
-75.349
-65.644
16.8645
30.6681
-36.672
-106.941
-36.7035
20.9899
-20.7183
-0.839674
115.179
183.318
62.7847
-72.6621
-19.6338
-47.5959
-49.8496
-1.83341
10.5016
22.6726
23.9544
-10.8904
-52.0231
-95.9577
-53.3047
19.48
41.5206
41.1576
24.7911
31.266
-54.6015
-142.162
-1.29849
138.368
140.83
71.8583
0.674948
15.6643
0.335036
11.3636
-6.67963
-56.0629
-83.6633
-91.9532
-53.4976
25.5078
14.5221
-14.1532
-28.9762
-30.9089
-8.32113
32.5593
45.2881
30.8037
-21.4944
-20.3692
-0.680379
-17.1553
-9.1351
-8.83884
-12.7389
11.1934
35.8073
34.6134
18.5357
78.313
134.373
51.8665
-15.3734
-62.4763
-63.4171
-33.1403
-19.7007
-25.5526
-40.4332
-26.6055
14.6537
32.2768
40.1222
-13.241
-84.2919
-59.9173
-6.4894
54.8385
77.1478
-9.32517
-135.706
-129.327
-63.9786
195.463
238.156
17.7014
11.2262
-1.05301
-14.0349
41.0987
31.5719
-34.6343
-98.2894
-157.098
-46.1034
85.6299
60.5889
37.55
9.64167
-5.97473
42.2604
61.8102
32.6862
-135.067
-165.56
-15.7154
16.3742
14.4739
-7.54103
-1.4418
23.0619
40.9957
47.4107
33.1393
-36.6996
-120.021
-62.3892
42.7711
72.2811
40.8844
44.901
63.7271
51.5111
-30.8364
-49.1862
13.3086
10.4566
-34.2075
-12.2357
39.7171
-50.3197
-108.004
-35.955
125.569
121.618
58.1358
18.0564
-44.1443
-60.5736
-41.0055
-43.3221
-23.0258
-7.56197
-37.037
-43.65
-26.0693
4.32487
38.0863
-18.0575
-106.604
19.1595
133.502
103.862
10.4353
8.48365
6.2564
3.08328
10.8377
45.6316
7.65022
-121.38
-75.0444
-10.5791
48.1007
51.5018
-34.7542
-96.5986
-107.243
-5.45761
100.415
38.3812
11.0691
37.9503
79.3461
91.2255
53.3481
5.43903
-132.746
-152.333
-76.6056
8.68398
27.2217
35.1022
14.7829
17.7262
66.8831
80.3318
85.6132
41.9221
-26.3352
-31.4488
-56.8846
-75.0865
-48.4024
-13.5509
46.6658
-8.54487
8.20968
68.4564
33.282
4.20192
-38.6733
-42.0747
23.7301
34.0741
-66.939
-93.195
-49.3158
69.896
177.269
-17.138
-76.1002
-61.8124
-55.4972
-51.9828
-56.6148
2.70433
51.9423
6.14624
1.20087
45.0413
39.1176
5.87417
-30.4063
-44.0858
30.3682
62.2892
39.7316
-48.1606
-130.3
-30.9084
-10.8155
-0.501606
32.1706
62.0225
32.2246
45.2158
52.1065
57.3686
83.5841
49.5457
8.88365
-60.7152
-90.907
-3.33378
37.9234
70.6528
114.534
6.93396
-154.108
-115.811
-32.873
6.20327
-4.42711
-37.6621
-23.9667
31.7275
65.8932
51.1736
-57.6329
-92.814
-34.3842
-4.34854
-56.2342
-61.7253
64.1713
93.6835
18.1126
-6.03616
26.8773
56.3216
32.1667
-6.84017
-14.0696
12.6334
29.0804
10.4403
-33.7825
-135.242
-112.219
85.3878
147.771
74.1769
44.632
-5.5754
-58.2508
-108.836
-102.564
-81.6446
-30.343
32.575
32.9921
30.7819
30.8853
17.661
15.9082
0.615149
-14.5115
47.489
94.532
14.4428
-32.7319
11.3321
26.7214
11.9944
-21.9937
-30.6122
-9.3436
29.6984
14.1679
-28.7075
-44.4406
-22.8163
77.144
44.3657
-49.0006
-23.0272
9.89565
10.1441
15.4209
-18.9001
-68.3208
-36
-12.2188
-35.4942
-40.145
-15.3907
45.5215
57.7954
-2.67543
24.51
79.5825
53.5936
-42.3218
-100.059
-85.4723
-58.8203
-3.22575
24.1852
48.9615
62.763
63.0382
75.0165
28.1201
5.11313
-49.5868
-88.0959
-40.0513
-14.6028
76.7552
103.583
40.8109
-35.5906
-105.383
-60.2588
24.7251
18.0594
-17.5054
-13.5902
48.3087
100.42
3.95445
-31.9875
22.9803
34.3535
25.4046
6.4432
-109.531
-127.691
-65.5038
20.6778
128.655
-32.5428
-31.9681
27.5695
56.259
62.9225
40.0556
4.27688
-85.2856
-196.176
-126.57
-38.826
-7.75005
4.27677
80.5308
118.324
82.386
48.811
-0.199991
-60.4404
-76.4814
41.4136
56.305
25.7474
8.30537
-9.95753
1.04605
20.2297
58.1636
117.905
53.5071
-64.7067
-78.6523
-33.1812
70.3612
55.9986
17.3291
9.51811
-69.6967
-153.451
-183.953
-90.6855
-18.0204
28.4457
47.9112
48.7273
34.3449
8.12411
-8.79054
-8.4865
46.6634
137.772
53.3629
-49.1532
-120.115
-88.6805
44.8032
110.983
85.6757
68.9008
41.1096
53.0022
28.786
-17.5183
-55.2207
-36.3751
22.3284
11.3018
-41.6125
-99.2724
-104.319
-118.906
-60.4085
11.7719
1.17291
12.1208
40.8019
-5.62989
-41.0414
-29.7031
-52.8593
12.4268
59.8987
33.4256
29.4548
27.5506
13.9791
37.5535
55.5796
81.4248
110.995
83.908
46.9554
19.1108
-18.3804
-50.9811
-87.8097
-81.2944
-27.0096
-12.7639
-4.81575
-39.1078
-51.7292
-18.5189
75.0695
48.8842
-21.5372
-25.4168
-6.61502
-21.2089
-62.6608
-25.8197
40.6427
74.9693
3.51471
-50.6377
-145.715
-96.74
7.58705
5.97067
22.175
65.5163
174.356
44.373
-40.8519
-13.0089
-2.11224
-18.6502
-10.603
3.63451
96.1607
149.279
51.5546
-98.4885
-116.474
7.69667
37.3649
-29.9355
-87.9528
3.30973
91.0231
46.0091
-70.2426
-14.6791
-21.9797
-40.3147
24.4328
57.7602
14.522
-5.29663
-42.5382
-70.7444
-53.0303
0.308483
59.3345
25.7489
28.7348
20.556
-3.69331
-21.5858
30.5089
-4.12039
-24.1002
55.2372
66.2403
-3.82482
-76.1315
-129.269
-82.8044
-0.810742
12.4136
-13.643
-0.335772
31.9121
28.0509
12.4958
15.415
42.6283
119.067
42.9362
-48.7188
-42.5382
-30.0468
-9.01191
-17.8136
-20.4588
-40.6672
-12.1505
77.3419
170.953
73.0772
-17.828
-8.54385
-34.3893
5.48615
1.55532
-46.1071
-74.7057
-88.2577
-42.0965
-37.9056
-13.4269
14.1972
-5.21441
-2.37204
35.5924
33.1006
20.7457
-22.8202
-94.7741
-30.0715
100.624
63.8563
35.7832
-3.75857
-22.2734
27.6137
47.8406
32.7581
14.4018
-11.6705
-25.6856
-33.0745
15.235
69.6442
35.8989
-19.6889
-83.776
-55.0052
-12.3471
-18.5556
-67.356
-46.1813
-9.52255
13.2418
26.1013
31.412
46.6655
32.9547
2.21217
-2.84273
-31.245
-44.5544
-42.4863
-45.3987
66.5172
93.9064
96.0136
62.4071
7.40489
3.51582
-7.02692
-0.162293
10.4033
-38.6316
-110.955
-92.1603
3.16396
76.4605
82.4838
54.0438
-40.933
-102.117
-90.4374
-55.5452
-52.6017
-6.13226
46.938
34.6613
29.2407
37.5348
43.5669
29.4289
-15.4224
-55.7076
4.73202
3.54
-25.5392
-35.1756
-21.1102
-18.8267
52.4195
90.4542
74.714
36.6218
-3.65506
3.66232
22.5286
19.8895
-16.7242
-62.15
-80.733
-25.7766
99.3308
81.2148
43.2399
53.5546
27.0483
-42.2658
-123.26
-137.464
-108.495
-31.3236
21.1323
6.38152
8.23269
-7.53103
-10.2155
3.49174
15.0639
20.3664
25.1536
12.841
-30.5103
3.20027
29.8191
48.2182
28.6245
24.7575
15.0927
-64.8471
-36.6268
30.3165
73.6956
40.1073
14.1828
44.6186
29.428
-0.816092
0.72294
0.357593
-16.058
-43.7285
-76.0548
-46.0403
-51.1503
-51.1514
-57.899
-64.0755
145.744
200.14
40.7161
-18.7815
-60.9509
-34.6304
-18.0096
-25.1077
-19.6164
-10.019
15.6569
42.1165
28.7058
-15.5591
-82.3539
-89.8789
-37.1096
-7.54918
3.21658
51.457
13.5519
17.7789
58.6857
-22.6204
-63.2008
-24.5452
17.3743
31.838
38.3611
26.7057
1.89726
-16.1845
-17.0293
30.5722
141.467
170.421
61.5355
0.136708
-17.792
-65.2676
-133.94
-73.5016
3.47483
6.52159
-8.12627
-4.23706
-12.7511
-64.8219
-67.0018
54.4815
104.895
69.6363
-4.74111
-59.6953
-100.268
-96.0832
-22.3976
18.0454
-8.7189
-0.864101
-12.8061
-5.15528
29.0579
47.623
55.085
37.9505
10.1285
25.828
22.7621
-73.5936
-98.8662
-56.4171
15.0876
79.331
3.53641
-18.6596
-14.157
36.575
50.9772
33.3745
18.9893
5.87064
17.2136
21.9249
27.416
4.24075
-39.9067
-0.293281
28.867
32.5964
68.5778
-35.2266
-178.809
-172.706
-5.51964
67.4769
57.1596
12.8374
-4.05052
-3.17077
24.224
11.8719
-0.124807
-23.3456
-31.9501
-0.604695
108.425
60.642
0.732524
-19.4418
-49.3087
-3.40159
67.1831
57.7269
9.7213
32.7486
39.1885
-40.5466
-89.1755
-126.449
-123.439
-60.1366
-16.4481
5.94095
15.2503
1.38931
-25.2675
10.1338
53.6502
68.4852
46.5011
37.8038
60.2592
58.2894
25.8027
-11.3356
-27.973
-27.2917
-2.71303
6.81642
-4.98559
-2.50149
