-145.355
-76.8844
-14.5438
-14.7019
13.127
74.1343
120.183
146.667
130.246
63.0515
-22.992
4.57533
24.1194
8.03625
80.6608
52.4938
-55.6803
-46.1961
-24.2928
-70.7745
-121.266
-185.226
-220.157
-142.907
-90.1739
-84.8381
-55.0524
-46.1153
-42.8221
8.56477
85.6927
91.4389
105.123
70.3616
-35.6332
-60.2697
-17.0613
60.7721
126.239
125.413
124.455
123.281
107.093
40.9388
-40.9298
-64.2825
-32.987
-43.0778
-72.5234
-132.075
-169.31
-138.927
-126.185
-65.9718
11.4441
63.002
90.623
95.214
104.865
110.889
119.858
72.1735
16.9491
24.4925
51.0426
81.513
102.865
142.654
114.832
26.1161
-51.6576
-86.242
-82.2725
-70.5759
-134.23
-147.746
-102.387
-92.6561
-109.859
-88.357
-44.1421
74.8342
125.327
63.1965
-37.0419
-94.8043
-91.2733
-94.4846
-74.1432
-49.2174
-125.789
-145.39
-92.3855
-65.763
8.00395
125.339
245.022
331.854
290.185
226.219
128.39
2.44161
-74.8676
-55.7125
13.6747
39.1966
58.6813
28.1429
-25.2684
-44.8835
7.4861
45.3675
24.0226
-55.4908
-122.843
-78.3619
-83.4196
-82.2773
-117.327
-116.225
-89.3454
-51.0975
-1.45104
54.4267
120.391
117.818
-0.498381
-122.238
-179.538
-125.048
-16.2971
43.7544
139.305
231.114
232.059
150.969
44.3582
-72.2047
-88.0452
-98.0945
-85.8196
-93.0813
-99.8783
-70.7773
-46.6646
-21.957
37.8543
136.699
202.864
196.573
129.337
48.2208
-45.7837
-76.1921
-67.6626
-158.239
-130.813
-19.8511
21.5082
30.8599
13.9625
5.00086
-1.44791
-66.2138
-120.273
-68.0876
-35.9506
-22.8397
-25.3124
-103.679
-97.5633
14.4775
62.8616
78.6834
67.418
125.868
167.453
91.941
62.527
65.1595
85.9293
87.2734
15.1631
-45.2838
-33.5773
-39.773
-41.8384
0.773787
29.4617
87.4402
78.708
-7.42785
-25.6243
-36.6975
-57.8227
-58.8039
-67.2917
-86.4236
-109.249
-119.236
-66.064
-35.6706
3.27755
34.8914
-4.23612
-47.8731
-72.478
-118.825
-90.655
36.9416
80.65
54.7622
43.57
82.7341
152.452
125.995
51.7212
1.31603
6.68367
43.0335
20.5916
6.70184
13.1126
16.0999
40.0288
-17.9218
-96.5042
-96.6635
-41.434
-7.19791
11.7532
67.3571
23.2992
-95.152
-128.378
-61.6951
-84.7228
-151.286
-72.23
86.5763
93.7871
64.4061
85.6734
139.605
200.215
159.428
76.8053
-12.0908
-54.7516
-97.9488
-115.275
-123.231
-49.2226
89.7416
159.564
132.659
103.829
87.497
-30.666
-133.321
-162.863
-157.074
-146.565
-147.108
-108.836
-64.0733
-22.8149
31.8712
80.5888
106.303
160.066
209.917
99.6819
-16.3877
-97.9618
-137.641
-124.613
-56.6899
8.11262
34.128
56.159
54.1783
56.3455
40.2943
-23.9205
-22.9197
2.8444
50.7701
-9.15756
-56.2468
-67.682
-64.68
0.559013
49.3136
62.4553
63.6451
17.9441
-7.27169
-13.1298
-30.1162
-11.5769
22.1891
12.3622
4.22231
-12.9303
4.26717
29.3201
69.167
98.5683
29.2929
-22.5129
-83.0333
-89.4783
-88.2424
-75.569
-52.9997
11.9351
47.0727
43.5029
14.8963
-36.8096
-57.8373
-1.08498
-15.1942
29.0799
68.4608
21.6266
-37.3249
-48.0184
-40.124
20.8706
76.5577
19.378
-16.378
19.2625
41.3174
34.6778
30.3062
37.2601
72.1884
102.457
95.7251
31.1723
1.08721
-90.0848
-178.911
-121.341
-13.1314
19.9791
34.2384
12.6743
-0.536528
21.9508
-32.2213
-135.426
-166.529
-92.3787
40.6809
104.787
142.668
71.4604
-30.0681
-80.6276
-94.1741
-30.7848
158.478
276.298
176.01
-36.1652
-204.833
-216.454
-148.818
-99.9875
1.08338
43.3684
14.2817
61.9717
54.5716
10.6414
-93.9568
-129.391
-54.8862
36.5632
101.639
133.829
108.533
39.2772
-16.7412
48.3255
242.528
223.54
87.9156
-28.0055
-102.343
-42.5867
-19.7073
-128.206
-179.377
-142.126
-82.3622
-17.2553
-7.20842
-4.95766
35.3141
27.1242
18.0266
48.7704
12.3141
-42.9955
-34.3592
-7.05306
8.20302
25.8715
21.005
55.9673
168.607
232.946
152.857
-9.25774
-126.225
-97.3306
-84.4727
-146.316
-195.827
-132.102
-124.863
-138.232
-61.1421
68.7712
124.948
103.207
42.5552
31.4521
78.376
6.99663
-101.049
-151.45
-121.316
-33.3237
13.1292
115.707
162.009
97.4716
65.4378
34.6356
36.6079
50.2458
41.8492
59.7754
31.553
8.35167
24.0843
3.24205
-26.8916
10.612
18.7495
29.3804
50.3898
69.0264
35.1437
-50.8718
-99.8913
-96.9278
-53.2338
-15.1075
-28.8083
-79.2782
-90.8825
-103.715
-123.004
-48.7812
31.3225
110.989
179.64
147.063
56.0922
13.067
-6.96658
1.73393
-30.7108
-132.422
-103.881
-30.4118
-14.6555
-27.5448
-47.7831
-28.7127
23.827
114
119.836
2.92856
-67.5323
-75.9262
-109.519
-95.5472
-22.0988
40.9818
116.698
143.016
143.501
172.921
88.4966
36.3788
-4.49603
-117.085
-125.905
-37.2837
8.77464
-76.9528
-104.872
-49.2658
-34.1744
-39.3268
-22.946
-18.263
-12.4061
0.638339
-33.609
-91.8065
-21.7468
34.216
77.226
105.227
129.761
207.414
213.442
78.9716
-12.4232
-48.27
-103.459
-102.921
-57.2916
-35.5938
-68.5299
-89.5356
-9.96682
56.5341
47.6485
78.4886
90.6817
24.3733
-14.4463
-65.9939
-101.938
-94.2783
-109.558
-98.2227
-60.0088
-8.94553
34.6307
133.179
235.804
202.977
94.985
30.1413
-28.4735
-71.0951
-78.0011
-102.696
-162.273
-145.383
-30.1371
34.2379
35.1611
6.62067
-20.1309
-62.5234
-62.2508
-41.9189
-13.0837
-36.4059
-72.8492
-28.3476
76.7283
123.742
62.2734
18.6906
63.2538
134.745
159.863
142.237
8.72269
-51.686
-100.098
-102.455
14.9092
143.977
175.092
130.881
47.7769
-53.4092
-123.405
-143.835
-142.912
-130.092
-80.6255
-19.0581
-37.2128
-69.3979
-51.1082
-9.62852
44.063
93.2775
121.038
122.014
68.1657
-33.2698
-147.521
-177.836
-139.05
-39.1226
76.1001
127.674
187.374
248.839
163.483
-25.5184
-109.992
-107.422
-89.6151
-70.3429
-79.3728
-44.8477
-28.0164
-57.2114
-61.6074
-15.957
46.5097
69.4511
51.1117
18.36
-8.12092
-13.1154
-28.6079
-66.9185
-43.0682
30.9401
49.4987
50.9166
10.346
-27.8358
-14.3391
9.2783
77.3425
146.466
194.403
224.326
135.486
24.8162
-34.4017
-92.4691
-144.911
-220.434
-231.517
-103.376
-47.333
-1.60905
37.6911
42.2377
35.3056
-3.5608
-34.2327
-52.2831
1.72099
-3.29383
-73.2629
-91.5417
-55.3662
-10.6631
51.9117
59.4154
45.0371
107.415
152.564
98.1705
132.753
131.824
96.28
51.9785
3.93674
-97.7524
-87.0472
-41.7454
-51.2583
-53.2084
-58.7285
-97.7698
-98.8361
-139.065
-145.334
-93.0138
-30.1583
15.82
7.80786
-8.48828
17.6101
47.5815
73.2309
49.1608
61.0764
150.554
147.8
78.5815
17.8078
-29.606
-13.531
4.67224
38.5368
72.933
78.6674
42.1097
11.7963
3.54138
2.85837
26.5389
34.2256
-44.0777
-119.945
-147.874
-104.405
-10.5641
-11.5695
-31.5894
-4.07184
-15.2355
-35.8747
-63.7076
-91.6
-50.8786
-35.1038
-25.1037
-2.90831
-63.561
-135.614
-140.745
-122.315
-40.5698
26.783
92.0474
144.228
169.01
221.959
191.675
112.225
71.9778
4.3284
-45.4899
-0.766146
89.3581
164.031
145.5
43.4669
13.2484
-23.1745
-41.9936
34.5002
93.0434
85.7729
24.9834
-63.4189
-147.475
-218.503
-223.548
-203.184
-128.958
-51.9492
4.52117
6.21447
-25.3877
-58.9078
-33.05
15.6019
7.0116
9.92353
-26.1135
-114.759
-126.352
-75.5809
-61.383
28.0728
117.319
107.235
134.005
147.764
118.4
96.4928
85.9769
69.1907
38.1251
5.70751
79.596
108.651
82.1131
74.8321
38.3118
-7.85036
-52.0893
-84.0148
-43.3555
-76.8597
-109.113
-61.9387
-41.2654
-23.8622
-42.3187
-149.325
-126.163
-46.9479
2.19349
16.0485
-50.7747
-64.5063
54.9619
135.294
127.194
8.36139
-38.7789
-12.8195
-21.2911
-22.5366
-30.8697
-33.2491
-13.1702
-8.54256
-9.37547
103.122
168.965
177.83
140.16
17.1175
-71.2475
-107.691
-125.304
-107.934
-102.61
-50.0941
-11.4299
23.9238
49.8515
30.8316
26.9872
66.781
51.8016
43.312
36.0268
-84.5765
-250.259
-198.315
5.17093
111.599
113.34
97.5691
84.3361
55.8722
43.1173
60.0252
58.34
-16.565
-35.0653
4.92154
35.463
42.6761
66.0366
39.9969
15.6211
43.2836
31.3799
-40.9535
-142.377
-180.761
-131.019
-71.3064
-7.38377
23.5145
-22.761
-60.1576
-40.5977
-11.7067
25.0079
40.8207
56.1423
30.5898
-31.3744
-52.1528
-55.9451
-66.3988
-9.76923
14.7316
17.1594
59.4386
72.19
44.4208
-44.7292
-126.178
-147.179
-62.3332
51.6798
95.3526
58.7493
49.9559
71.4739
135.881
177.244
148.622
113.098
91.2723
43.0543
-17.0612
-68.4075
-70.4282
-74.2808
-103.228
-71.3317
-22.5656
43.3554
40.9412
-26.8941
-37.6431
44.2829
11.6256
-75.1181
-132.345
-143.281
-88.927
-16.6398
39.545
96.6974
49.7562
-22.279
-59.7453
-89.2487
-86.288
-82.2727
-62.2497
-36.9738
4.66325
37.6914
73.5055
70.242
74.3105
77.7181
96.3273
84.0439
68.4922
103.428
105.219
73.2509
31.4895
-20.3227
-69.8839
-147.07
-155.906
-54.6428
16.8199
77.6438
68.1192
12.5701
-0.920517
-16.6491
-27.1138
-53.6673
-60.3045
-60.1353
-22.3043
-21.147
3.89398
-1.59931
-18.8258
-8.26423
61.8912
162.737
175.093
126.218
79.2487
-1.10931
-44.2225
-50.7792
-82.2356
-148.251
-199.412
-175.504
-127.785
-65.2533
-51.5776
-40.4238
35.0606
136.35
150.432
127.369
76.8479
71.054
100.524
-1.04981
-104.335
-92.8834
-74.3823
-68.8447
-41.4416
-16.2557
39.5938
55.8345
19.0568
-5.02594
-24.6847
-34.1108
-34.8847
37.5094
134.284
110.421
48.5266
46.4427
33.2983
18.1802
34.2885
32.2298
47.9887
53.6368
12.3745
-23.5696
-36.6135
21.1344
41.1309
-56.4549
-126.378
-116.336
-113.287
-128.933
-107.66
-27.1309
123.136
181.245
106.737
14.6305
-56.6534
-70.0354
-85.9611
-90.476
-41.4711
-28.0881
-11.2037
-10.8075
-40.777
-67.3527
-63.1232
11.0566
76.6702
24.3311
-6.06988
35.0137
39.4192
3.51713
-17.5904
4.6737
57.0252
62.1759
74.4099
95.002
80.8047
85.3269
50.7062
-9.89285
62.0979
241.604
279.14
181.181
8.62202
-196.002
-353.303
-322.255
-206.236
-89.232
-82.7358
-62.1863
-40.3212
-59.2931
-49.7212
-27.6484
24.6768
102.857
131.483
154.59
137.927
55.5597
6.79719
-125.961
-181.997
-23.5753
111.987
115.174
35.6475
-54.2158
-32.2245
17.3996
60.9079
75.8426
79.9099
41.4431
-10.3361
-65.3269
-59.8369
-46.7095
-87.7912
-102.117
-69.9512
-3.35445
51.8523
39.3216
-22.6622
-84.006
-119.024
-89.9099
3.85795
54.1604
127.627
166.129
86.2896
41.4281
68.0603
79.6185
25.8198
8.29808
-3.75219
-13.9613
-29.6754
3.44597
6.42004
-11.066
5.3836
11.3531
12.9674
-9.10639
-42.3943
-62.909
-114.043
-125.166
-59.8042
-27.9309
-15.1788
-47.5659
-57.6565
-52.4429
-56.3183
-25.3056
19.2926
27.812
112.196
207.597
150.966
83.6723
99.3413
81.0356
-51.7299
-96.1415
-41.5374
-18.8921
-30.3034
-56.9424
-93.2198
-31.6552
107.749
92.6097
-30.1232
-42.6839
-2.00388
-15.7777
-53.3844
-91.7767
-36.876
7.68122
-31.679
-45.6817
77.7352
132.525
109.403
83.1408
73.6745
63.8545
25.1845
-11.0496
-18.182
-42.2635
-44.1253
-97.7942
-160.651
-111.767
-49.4077
-15.8232
28.534
69.778
34.8606
-11.2239
-21.6806
25.1262
25.3457
12.3386
-7.06729
2.42692
11.0021
-1.20547
-108.002
-141.084
-53.1324
60.6864
153.216
248.265
245.578
255.023
193.694
13.7056
-95.7451
-130.61
-129.32
-163.759
-134.724
-92.1486
-90.8102
-88.6214
-71.4496
-83.1442
-45.6559
11.2527
8.97442
2.59058
-63.11
-132.42
-138.014
-105.894
-14.3273
52.0295
105.611
174.618
201.951
211.481
122.936
55.3698
27.6298
-4.74424
-0.634013
21.728
19.4756
24.3852
59.5392
71.9677
43.2071
-34.5887
-73.149
-121.123
-138.049
-54.6987
20.3269
8.1354
-19.8403
-47.4483
-61.2654
4.0253
50.9122
23.4172
-24.2981
-17.787
-33.3689
-42.785
-11.1963
-23.5106
-24.0076
-10.5929
48.1504
93.0656
120.328
102.933
38.0565
-31.8826
-85.1012
-48.9523
22.6996
56.8905
116.458
166.82
92.8383
-34.1804
-91.4019
-111.153
-134.255
-147.427
-107.183
-71.4458
-86.0585
-113.7
-83.5259
-28.1107
3.5556
44.5913
60.626
42.4578
27.8757
-60.073
-162.766
-129.991
-4.35207
141.376
211.376
227.603
203.752
181.738
161.656
127.993
68.1934
-6.89044
-72.9794
-96.8004
-75.7954
-43.8808
-32.7197
-53.9834
-81.3618
-62.4234
-16.7312
26.7664
62.447
16.576
-28.7423
3.50843
3.55988
-31.0782
-68.5619
-58.6216
-129.139
-188.956
-146.476
-58.4346
15.9052
56.9662
118.759
201.096
184.285
148.37
114.585
60.3961
-32.4097
-130.33
-213.971
-185.692
-106.846
-103.632
-103.433
-55.1975
70.0331
89.8025
9.92389
-26.5809
32.248
60.2494
68.1672
44.7524
77.6841
122.71
158.963
88.6868
13.1824
110.122
140.013
57.5158
-13.7497
-16.133
-15.1693
-59.6028
-127.214
-114.649
-32.4978
-19.3351
-61.1203
-62.2395
-79.0781
-103.928
-108.857
-147.407
-152.323
-58.799
-27.2821
-53.1424
18.2841
85.753
160.692
230.788
215.664
205.112
191.659
128.064
30.5388
-39.0928
-81.6906
-128.547
-145.116
-102.775
-76.2402
-63.8194
-72.5183
-69.6396
-13.7339
-9.92364
-8.21336
22.3596
-11.4579
-27.0288
11.6877
34.3554
29.2481
35.2292
39.0491
36.0531
30.1057
17.4691
31.252
13.3573
17.0081
56.6376
55.9913
-9.498
-72.3956
-63.7802
-1.10227
-8.42716
-28.382
-17.7178
5.45836
15.8723
33.3199
54.8694
22.6224
-34.6591
-112.082
-65.7253
1.9042
-3.78908
-15.4073
23.8168
48.5732
15.2701
-15.4905
-19.5952
-20.9909
-2.31362
-8.90645
-84.7841
24.8533
156.281
184.126
148.678
133.999
64.2011
-8.50125
-77.1583
-96.8465
-126.242
-134.948
-134.084
-88.342
1.40552
59.2745
20.7907
-12.6506
-21.7404
3.27868
32.265
-30.4056
-120.466
-144.467
-105.313
-84.254
-7.04352
89.986
111.229
100.447
131.263
124.069
72.3302
21.4005
32.8063
60.1982
69.8153
80.9844
32.0794
-42.7577
-100.591
-150.128
-126.228
-137.992
-93.2286
18.2195
91.9195
128.66
148.901
107.5
78.9374
23.2141
-71.0968
-139.013
-129.368
-51.3851
9.61824
-73.5349
-104.742
-14.3858
65.7311
69.8879
26.8208
35.6834
28.5384
-4.51156
-5.31803
18.7244
22.5637
-36.4167
-106.218
-73.4117
36.938
96.2545
90.2099
43.6092
62.3683
139.208
102.525
45.4277
19.3676
-16.6309
-70.1618
-109.624
-134.087
-112.61
-14.5673
-18.5775
-29.7592
-8.04959
-1.65312
-6.6461
-16.3819
-20.3335
29.795
48.0727
-38.793
-64.9484
-19.8832
-14.0675
-28.0054
-28.5632
17.7286
54.7343
57.5954
46.1513
-14.3699
-25.1983
-40.3197
-44.6639
-18.2131
10.2265
39.8933
76.4745
74.8451
84.0605
110.665
74.4029
39.4979
-2.54447
-51.7036
-85.0707
-64.4305
-21.7584
9.3269
11.8274
-36.834
-44.4057
-5.85892
25.0679
25.0671
17.2914
11.985
2.78781
-54.1955
-54.9341
-47.9447
-30.14
-14.1427
11.2265
65.662
75.9176
11.4238
-38.4745
-36.8467
1.7197
58.3299
35.5545
-31.6062
-96.0824
-135.935
-16.974
88.6096
133.068
106.845
39.2189
-6.38237
-11.6282
-56.5887
-43.9723
7.28657
12.3634
-3.17283
-14.339
-36.5069
-49.6395
-71.8424
-71.1261
-3.9528
54.366
77.4338
36.6431
19.3027
-16.5607
-37.8543
-30.6284
-18.4531
48.6708
59.6369
-1.39571
-27.3123
-43.4688
-99.0282
-107.848
-19.5012
84.2026
94.7477
110.503
84.6484
62.2464
64.2321
-12.9279
-105.221
-74.4587
-54.5281
-34.4479
3.55437
1.33367
63.9131
99.8928
22.8548
49.0395
112.418
105.717
41.1119
-48.7356
-81.0043
-96.9452
-107.743
-37.8019
-0.752681
1.36534
-18.3606
-82.2964
-92.6304
-75.6406
-55.5361
-43.8519
-4.54473
7.62681
25.5665
42.9195
56.968
52.9177
-4.84771
-35.8001
-24.4878
22.7434
33.7295
47.4905
110.901
196.766
208.059
100.213
15.9205
-33.1021
-117.6
-133.187
-99.4199
-69.3837
-52.2642
-80.38
-70.921
-34.8238
-15.5908
-46.9535
3.8922
24.7191
22.5165
-7.19511
-55.6114
-102.204
-58.7423
12.4359
83.0109
122.964
184.859
144.219
21.2185
-51.9257
-1.19623
29.9953
30.382
30.2983
20.5712
5.55679
-27.7172
-57.0774
-42.4586
-0.878459
2.07158
-34.0423
-83.0566
-91.213
-83.95
-79.1835
-86.214
-32.0394
96.6351
225.338
225.02
175.318
101.66
16.4765
-118.712
-201.193
-216.58
-198.476
-79.2021
44.3486
152.917
200.242
168.722
143.994
149.277
78.0303
-34.1219
-193.422
-293.592
-312.373
-266.71
-164.825
-61.3269
21.2574
148.576
197.223
158.1
129.68
66.8304
6.61059
-21.1132
-50.5145
-46.0419
-40.0398
-103.106
-118.987
-40.0194
53.649
133.892
145.42
128.241
133.713
116.941
90.3038
74.2358
89.8929
56.9496
39.4641
26.157
-39.6271
-103.617
-128.429
-115.888
-75.3297
-30.5355
-4.46905
27.7318
26.4706
-33.3067
-81.6591
-94.3579
-72.0737
-90.2237
-96.6934
-43.5495
-7.49869
-7.78037
-24.6842
-61.0073
-76.2467
-22.5761
30.7806
22.6512
11.7521
24.3798
52.7751
97.864
145.736
125.298
87.4869
74.0834
-41.9862
-55.5386
34.7067
28.0758
-55.9502
-51.9213
6.80195
27.9745
34.803
-7.01361
-16.5253
0.250358
-23.6919
-20.8314
42.2688
93.7563
109.735
111.44
-7.74101
-166.547
-169.946
-105.115
-91.9882
-66.815
19.2632
102.011
82.6883
62.0854
40.5944
20.3063
-23.4274
-55.3957
-11.0145
40.6195
14.2701
-40.4671
-67.1023
-66.2853
-9.97304
30.8647
24.3191
-2.92053
-23.3936
-13.3632
4.24515
-12.559
-16.7789
-15.4163
24.0447
45.4378
12.3313
-11.764
9.34124
2.86044
-3.60439
-28.3409
-49.5088
-64.0189
-12.9686
64.8565
107.017
90.9562
30.7303
-21.8766
-38.1645
-10.1662
39.0935
101.494
65.8033
-7.44672
26.9915
5.72587
-68.6043
-118.441
-85.0952
-35.3604
-18.3743
38.7367
81.0993
65.3982
12.2688
-14.4403
5.9086
10.4592
39.9197
31.4249
-41.3573
-77.0418
-64.8414
-48.8188
-58.6429
-38.8709
4.59528
0.705875
-20.5386
-35.4312
-34.1627
-64.2484
-73.4476
-38.7958
41.3549
70.7291
81.2176
81.2537
40.3546
36.5939
72.2625
21.2177
15.0841
60.33
82.5301
96.2019
93.4276
96.8619
59.0826
-54.3162
-210.737
-286.479
-208.461
-117.805
-42.9818
5.66874
49.479
94.4304
71.4119
68.6142
63.4791
45.22
22.2936
-9.81472
0.580421
68.7749
12.2182
-27.6697
-34.1775
6.65817
106.5
159.982
105.105
26.9724
-53.2269
-145.896
-241.664
-200.207
-74.1221
-37.7409
-58.8705
-28.9865
4.83883
15.6558
-16.3582
-3.49276
38.7069
69.1208
72.2746
66.4633
90.5518
97.2793
75.7583
66.3491
41.3254
59.2674
42.8392
-13.0976
-75.5553
-80.0185
-40.1882
-32.753
-47.1788
-2.30671
70.1685
37.4453
-18.7686
-76.4042
-165.87
-214.006
-142.409
1.64361
43.8732
80.825
125.368
216.98
304.654
250.186
120.196
-29.5152
-161.815
-216.882
-175.574
-152.254
-177.936
-173.548
-62.9965
-7.18039
57.9311
121.614
110.981
40.1944
-10.8633
-51.054
-62.139
-79.3881
-17.1809
25.8233
57.4417
98.8269
136.946
135.208
74.9839
41.0341
11.6485
12.2815
31.0218
43.9274
61.4041
66.2412
31.3795
-17.6274
-24.1371
0.397416
-12.5728
-80.0809
-156.386
-165.729
-156.412
-125.034
-97.8224
-49.689
30.3168
88.0715
113.755
87.1048
24.2316
-31.1629
-54.086
22.4641
43.5901
31.9054
55.2107
31.3618
-19.3523
-62.5382
-61.5312
47.7179
114.04
140.934
113.354
32.2391
-21.8911
-97.8929
-124.256
-111.739
-86.3262
-32.8275
2.01747
-14.4347
-3.41359
28.5724
-20.6843
-87.1775
-45.8474
57.012
65.0761
31.1631
30.071
16.4812
38.6301
56.8032
0.581172
8.5795
6.54835
-53.4708
-85.7943
-58.5004
-13.8715
36.4539
60.2898
66.2318
72.4763
110.602
103.766
24.8799
-17.3368
-36.5483
-46.4119
-10.0074
20.5795
49.9518
43.4515
8.04996
-24.2129
-32.7635
-4.52041
30.7556
13.3402
-21.2469
-28.4083
-36.4322
-33.0096
-80.0367
-127.784
-97.7728
-59.5603
-40.6469
-27.2232
-48.1754
-58.332
-34.7132
-18.176
-29.0468
-8.01313
34.9043
74.9748
73.5358
73.5547
42.3083
-0.607815
-85.9369
-109.144
24.2127
90.2022
83.0008
52.3566
33.0893
86.9472
182.178
203.58
155.558
117.532
53.0085
-1.41563
-32.2193
-37.3728
-70.9601
-135.058
-184.47
-187.102
-120.357
-62.1741
-88.784
-88.6086
-67.3452
-25.3507
9.40323
-21.4894
-90.4513
-72.4723
-12.3415
54.5432
115.879
102.094
102.257
116.78
104.86
107.948
92.2141
85.3479
45.6515
-9.02401
-25.4367
10.7879
38.6623
-0.0805016
-74.4166
-71.0572
-60.6756
-67.9667
-71.4316
-83.0402
-43.1951
17.3106
35.384
-5.58817
-60.3597
-43.6138
-8.46385
0.952145
75.1244
146.337
129.886
55.7904
-27.2782
-46.5217
-54.4613
-113.608
-87.994
-48.4866
-60.556
-37.0824
-4.89802
-0.612187
12.7148
13.2996
19.2657
52.0703
91.3645
77.1351
46.3362
6.88424
-0.0132213
-14.218
-55.1529
-59.4429
-42.6443
-29.6133
-33.4731
1.8102
40.6015
79.0256
80.7243
65.3799
26.0441
8.86243
40.8186
-13.6593
-85.491
-100.863
-63.8227
-41.8436
-43.1261
2.63878
73.6271
69.0666
69.4624
61.1372
15.9857
-16.7422
2.55315
37.2015
29.6958
-26.9667
-53.9015
-89.1799
-86.2989
-68.9178
-59.5108
5.76199
-54.1463
-64.0754
27.5063
138.375
175.717
111.399
19.2724
44.8035
31.5129
4.25262
-48.7103
-74.3633
-96.0241
-93.3406
-85.2804
-13.8376
22.8405
48.6358
86.4345
60.6088
58.0219
45.2491
-9.84778
-85.5513
-87.9362
-9.6619
64.3747
62.6222
38.5262
2.32487
15.7326
-38.4663
-94.8429
-42.301
0.581481
-18.741
-34.0283
-16.8027
-17.2037
-47.8858
-40.0074
2.44703
14.7327
20.843
10.1619
22.4632
24.7238
24.9425
21.2156
-1.32466
-3.06009
5.17464
1.59584
-0.591673
8.96416
-7.73074
-12.9664
3.8101
67.6693
115.063
131.214
86.8488
34.3418
3.74539
-19.5535
-35.7698
-67.3846
-75.8809
-63.0909
-60.2101
-69.4099
-97.7766
-80.8013
-25.0153
45.2101
57.4919
59.404
55.4846
-52.0462
-43.3966
12.25
30.3215
37.5278
17.1785
50.6309
83.0689
76.9423
18.6822
-36.6062
-36.4764
-79.2542
-159.555
-133.602
-51.2745
-30.7467
3.24187
-0.683667
5.68909
91.2809
87.3323
43.0245
49.4697
23.672
-22.1025
-61.7238
-57.441
0.845447
44.9809
74.1835
85.3451
114.118
147.726
114.987
21.0554
-50.9643
-69.4052
-13.9741
-9.29312
-134.307
-176.872
-127.857
-78.6988
-4.12302
43.5942
21.177
-21.302
9.86148
35.8512
14.9151
-10.6901
-63.7274
-82.8952
-45.6537
-32.2282
-23.5996
61.6876
199.655
325.72
407.871
296.957
21.6956
-169.174
-229.719
-234.152
-161.031
-107.565
-143.277
-145.216
-85.7948
-45.6076
-1.47826
31.2447
77.0692
76.0116
61.2615
3.64886
-103.268
-177.32
-165.202
-68.7163
82.8314
165.659
179.327
139.973
47.2545
-25.605
11.8864
54.3531
72.5754
99.0407
107.253
109.971
66.9842
25.7029
11.3471
-18.0296
-85.8987
-158.35
-104.975
-83.133
-56.1659
-9.9683
-82.7748
-111.183
-31.3799
17.0178
8.77417
28.6688
74.8774
44.5642
26.1166
23.0798
-7.21568
15.6866
35.6995
13.044
-4.07467
55.3767
38.3038
19.1149
-20.9237
-47.756
21.0594
36.3066
-22.1979
-19.1256
8.47034
-13.1837
-75.218
-100.904
-105.668
-55.3183
-1.12426
-20.3054
-24.7987
-11.5262
15.444
3.36369
-3.59889
22.8791
75.6436
80.8982
38.962
36.5807
33.5159
18.5306
-47.6248
-82.0184
10.4644
101.565
86.4503
52.2872
34.8846
22.8548
19.7722
15.2141
-2.53842
-84.368
-160.649
-125.944
-49.5023
9.56316
63.9449
139.058
173.943
78.7968
19.8416
-1.01836
-24.7633
-37.499
-22.4021
-15.031
-2.71879
-54.957
-126.966
-130.738
-147.358
-148.167
-128.854
-28.3312
85.3301
103.039
137.592
170.45
143.331
131.525
68.3231
-22.5011
-90.0066
-79.1574
-48.9114
-38.3265
-55.8912
-17.9893
27.6826
39.5299
43.3021
46.8059
112.307
62.1371
-41.2848
-82.8329
-115.901
-137.075
-126.639
-106.928
-48.6068
60.0766
75.1796
14.3843
3.28399
15.5261
53.1947
110.021
116.458
119.045
136.669
130.943
80.2028
9.94622
-67.6046
-117.1
-149.794
-171.454
-125.155
-11.0684
52.077
42.6307
26.7304
36.6822
37.5777
-15.3039
-66.2935
-89.4344
-86.9318
-66.7433
-52.5372
-64.6536
-43.8292
1.4712
51.4684
89.8326
106.9
120.241
133.452
120.19
115.214
52.9785
-15.4913
-77.321
-58.5669
-83.3291
-133.295
-101.999
-7.96463
37.9219
12.6694
22.3682
40.6796
9.3743
-0.0274307
17.1502
15.6743
-9.71557
-53.4499
-46.6369
-37.224
-37.7612
-23.3025
1.30968
14.8807
58.5567
107.662
142.522
82.8628
30.1727
28.2909
19.9325
-14.6282
-66.1825
-100.969
-89.0924
-60.9844
-49.543
-56.8976
-92.1471
-127.412
-80.9458
-31.9378
-27.9068
28.8401
108.142
102.95
39.5675
33.5137
74.028
110.64
107.195
34.7947
-11.5353
-79.9763
-117.386
-65.5231
-13.2358
18.2514
67.2786
90.9206
50.5542
0.707279
38.2283
11.1996
-17.2781
-13.037
10.2869
34.0481
0.721255
-0.0785271
1.93209
-36.0733
-71.2016
-38.0507
20.7385
-2.02114
-46.66
-63.5261
-17.0846
-21.8718
-8.03365
26.3989
44.4243
50.0285
5.78631
-34.6343
-43.5714
-105.687
-129.796
-98.9543
-5.55367
114.047
190.546
151.283
89.2826
54.4749
48.4107
33.5874
-56.7379
-142.324
-161.958
-108.208
-95.3762
-54.1987
38.9463
38.2573
24.7967
118.704
149.168
108.181
10.7174
-30.9965
-1.75849
10.7878
-17.2925
-50.1625
-33.1863
30.8163
5.90717
33.4512
-0.818786
-52.9052
-5.46147
4.86392
-31.4707
-12.291
-6.25277
38.8259
105.044
30.8747
-49.9904
-86.6298
-102.287
-51.5774
12.7951
40.4941
22.1362
41.8399
5.31915
-0.280305
17.4861
19.3137
-20.7887
-68.9864
-107.529
-82.4169
-1.87765
20.0211
-16.4807
-10.1101
67.0623
102.827
88.4236
76.7546
22.13
8.24506
-30.8005
-135.314
-126.343
-57.6066
34.0937
73.1061
48.7943
105.949
185.937
196.939
108.119
-7.59015
-91.681
-131.807
-136.029
-99.6484
-77.0149
-67.6611
-47.615
-32.729
-7.21114
25.527
62.4846
99.4356
92.42
48.4226
22.0817
-13.175
-77.4495
-134.401
-283.786
-345.705
-176.704
31.111
130.254
168.962
189.322
146.006
107.793
83.6621
38.8539
55.4908
87.8819
56.9737
24.5216
17.2789
17.2202
-19.9483
-43.5406
4.00045
105.489
133.399
59.4302
2.30761
-26.4808
-87.7649
-150.091
-154.346
-127.58
-74.4031
-27.6763
-74.4817
-52.648
-8.85261
20.0219
42.7757
46.6902
72.5794
87.2206
-1.12025
-43.9127
-81.0753
-95.9518
-72.1658
-40.5769
65.6748
105.974
94.9736
60.4095
-14.2351
-47.0586
-50.3726
-43.9831
25.1901
89.2013
67.5096
-11.2179
-46.9469
-35.8926
-35.6911
-25.2507
-1.03829
-43.3544
-49.2958
39.2415
6.17218
5.30181
27.6402
39.4265
57.9065
67.0285
71.275
84.4658
0.0300789
-53.5453
-46.0951
-19.3873
-62.2108
-85.2691
31.862
179.162
196.164
148.079
64.7857
-44.8524
-119.347
-148.727
-117.49
-54.4363
-20.3912
9.38713
31.817
26.3513
-9.09605
-68.8262
-111.088
-145.513
-119.901
-142.963
-202.091
-103.23
46.8536
119.602
209.966
201.334
144.719
115.024
89.5707
53.9515
32.0998
6.58129
-18.2833
-31.2991
29.8279
30.8168
-24.9883
-25.2301
-57.7406
-56.2597
-5.7493
-26.1796
7.17573
87.1633
52.7941
-65.0367
-83.649
-63.7941
-36.2397
-34.3884
-64.142
-64.3152
-27.0206
-27.9895
-29.496
4.25087
88.8576
167.934
182.357
254.938
224.747
81.851
-60.3513
-177.494
-239.249
-215.273
-239.372
-149.999
-53.0482
-8.78946
42.7734
53.3904
28.5268
17.5087
7.49823
78.0818
117.407
76.2911
39.9865
9.71673
6.54003
28.082
8.17612
-48.7423
-5.52892
44.5292
16.4472
-8.1709
-1.13675
-0.423365
34.3579
50.1154
32.9578
60.6962
18.8276
-65.4005
-82.3391
-54.4831
18.1019
34.8487
5.6437
-43.4639
-77.1372
-56.2068
-81.4038
-59.9408
50.5297
63.5798
12.9324
51.9462
13.9417
-43.6595
-60.5071
-64.1224
-14.036
5.19285
16.6009
71.0074
72.5702
15.4645
-15.9739
-23.2793
12.2752
26.7092
22.7066
37.5119
82.3392
17.107
-13.843
-31.4033
-41.2042
-49.0189
22.0465
94.3796
75.6269
-17.992
-115.504
-165.316
-147.05
-85.7891
-20.1567
6.23062
17.2206
38.554
78.3623
136.445
92.6613
69.6254
35.9941
-20.8392
-15.9526
22.4475
55.9977
24.0837
-4.80875
4.33444
-14.1652
-18.8969
-48.3978
-92.2163
-18.0681
59.0196
44.5122
7.86235
-52.7761
-91.722
-62.4516
-25.8303
13.6033
17.2498
17.9533
34.4853
-5.85331
-56.9476
-66.5787
-51.4597
31.9212
85.1258
67.7416
41.4953
-31.7354
-80.7268
-45.3046
10.2407
38.9437
85.2487
130.696
33.702
-15.216
14.2631
25.3081
-43.8384
-137.23
-112.461
-25.1648
47.8896
71.4079
16.664
-1.149
67.1436
54.8457
16.1009
19.9297
-7.96923
-42.1997
-62.7127
-90.2877
-36.0479
-20.2284
-43.0176
-44.7598
28.4621
105.188
87.1895
50.6382
54.2006
32.3228
7.59143
5.19915
-23.9509
-37.9822
-120.811
-179.591
-102.887
-47.606
-122.119
-131.804
-19.6006
71.7028
113.726
105.829
137.252
166.659
153.275
89.0074
39.0573
22.6156
70.8265
86.4626
43.4055
4.99973
2.79479
0.00846105
-35.1403
-59.4516
-25.8767
-0.0533081
-31.1035
-80.9459
-98.9377
-64.621
-46.2671
-52.5228
-48.332
-16.7383
-80.609
-169.051
-223.524
-185.429
-87.0959
-5.9789
81.09
138.668
113.513
111.846
148.166
152.639
143.503
119.059
84.1599
86.159
-19.6343
-85.2264
-113.64
-121.203
-60.419
22.104
9.25851
-22.2483
0.492243
5.70693
43.7812
62.6138
64.4579
52.6529
22.1873
-24.7867
-59.2965
-27.463
-43.1104
-145.382
-171.978
-146.636
-67.3539
45.2471
126.275
211.347
328.006
263.001
130.236
49.1408
-98.4808
-291.219
-316.893
-212.58
-69.0334
24.4628
24.7913
18.5018
37.5634
71.2854
108.047
26.9713
-34.5949
-61.0238
-72.4582
-54.5673
-46.2863
11.9005
109.466
169.976
157.381
128.216
40.5376
7.06182
9.86769
15.9116
12.7142
-15.5948
-84.2843
-117.141
-75.1802
-32.146
-39.148
-86.1475
-90.0609
-110.829
-142.165
-138.89
-128.538
-128.244
-42.6103
96.8709
221.424
216.58
88.5418
11.7864
27.9935
-5.96306
36.7697
73.8466
82.297
106.463
77.5092
80.4513
110.207
78.1541
53.4406
25.4807
-72.7504
-139.439
-100.059
-19.7114
2.81887
-44.1433
-68.9082
-85.0505
-137.875
-139.659
-69.4206
27.868
57.7654
71.5772
52.93
32.2712
-4.12614
-15.9692
-22.769
-42.659
9.58435
124.491
140.661
102.773
12.4193
-46.9746
-5.85588
55.4116
43.1806
43.4529
88.1654
41.1277
-48.334
-102.349
-98.6002
-127.053
-153.862
-163.638
-132.351
-51.6703
-32.3816
-39.1899
-28.8987
-32.6361
-1.6314
32.9469
63.7142
51.4609
48.7789
55.7996
31.1162
21.1651
47.015
58.1756
99.3613
91.9747
96.1186
128.941
145.837
104.023
-25.0665
-102.114
-23.1674
18.3077
-8.97198
-46.1792
-147.035
-147.37
-37.2239
16.5285
7.94888
32.5748
36.6316
36.9774
18.9327
3.39602
-13.7146
-40.5875
-90.7916
-128.996
-10.4959
27.0368
-40.0311
-56.22
4.64742
64.0474
75.8268
88.0349
140.636
76.843
-9.74618
-14.7169
-5.89422
-53.8523
-88.9543
-100.418
-62.8371
-32.0295
-33.5154
7.55711
-4.80026
-33.8853
-53.1308
-34.6819
-21.2582
1.3646
37.0021
-2.67851
-62.8458
-39.9046
-13.1161
-30.7838
-4.57408
70.7399
105.134
135.602
140.191
100.918
83.9097
78.8081
51.0198
35.4359
31.75
53.6844
6.53795
-59.4602
-73.2298
-38.7751
-13.4892
-0.923563
-35.3731
-75.1939
-123.787
-95.917
-57.3623
-29.1949
-38.0343
-38.7701
-39.3862
20.9166
39.5471
50.2399
25.2595
-17.1335
-3.76825
5.97744
-1.97635
12.329
-54.1361
-52.1194
-13.8881
-9.20386
35.9102
51.0783
85.8565
161.05
163.225
150.309
59.8347
-49.5335
-50.9936
-70.9497
-82.0277
-72.1504
-25.6756
4.74952
-35.5402
-176.459
-191.236
-90.0967
-31.5601
51.6577
87.8702
75.2619
45.1629
-37.3565
-145.025
-152.71
-44.5081
13.0866
59.6951
109.76
124.085
102.33
71.9701
71.6191
95.6533
137.708
120.177
71.9434
58.5691
27.7048
9.46785
-12.6735
-48.4911
-73.1314
-60.7435
-47.948
-29.0391
-36.6449
-67.8745
-69.2467
-58.4128
-69.1633
-96.3796
-90.4553
-71.8663
-29.8518
15.6622
-5.46737
-7.4159
-23.1789
-58.1912
-68.8335
-5.45629
77.387
154.505
190.848
131.827
60.1492
15.067
-16.9918
-92.1368
-115.417
-25.8597
18.331
13.9152
52.4223
97.0666
101.343
44.1086
-71.3224
-46.3561
20.9842
-46.3093
-108.087
-94.5168
-94.4995
-54.5107
-7.01318
41.8604
51.6357
89.1349
88.2112
68.4244
57.9767
40.8217
10.8895
6.78696
-37.972
-56.9865
-67.8894
-121.969
-98.3601
-38.3455
0.0908992
26.7507
13.6042
8.26706
18.318
14.2839
50.0823
82.0629
124.351
128.168
136.807
52.1563
-82.5438
-146.103
-67.5087
2.40577
53.7965
-6.45104
-114.431
-106.974
-44.3538
-17.9917
-17.2767
-13.1068
-11.6442
-20.0826
-25.3633
9.6223
9.64436
-38.0663
-86.3479
-84.5645
-6.23072
65.3457
42.7257
14.1953
116.629
247.531
279.377
230.246
114.293
-24.6054
-110.635
-152.262
-92.2691
-87.9349
-98.4305
-102.021
-104.984
-104.923
-104.445
-67.7153
8.62313
15.9865
-7.50643
13.8177
10.6366
-11.0235
-22.129
-95.2948
-134.743
-31.9536
68.2411
115.285
105.402
117.233
165.682
133.023
59.6357
51.4058
97.1836
198.731
160.998
38.617
-71.0717
-173.355
-238.689
-178.939
-94.7053
-16.7707
-35.9918
-106.946
-86.1444
-3.95643
43.8728
28.8517
-1.86952
70.0099
172.5
152.831
93.3748
11.1086
-70.7918
-92.1819
-86.8245
5.14749
18.2643
5.56707
-44.8509
-50.7896
-13.3196
0.156747
-14.6422
-38.2419
-56.9067
-34.6981
-34.4817
-50.1733
-52.8877
-24.1621
-19.9984
-24.7206
-25.6341
11.6101
107.971
116.166
83.972
-33.1728
-50.5245
27.1412
103.485
139.904
123.477
87.3609
44.4975
3.41501
-18.5886
-37.9625
-64.8395
-72.6059
-68.3221
-21.5509
58.7965
75.0458
17.4832
-39.3423
-39.6757
19.8334
23.7105
-10.8544
-50.1144
-54.6525
-23.2197
-30.9394
-64.0535
-51.1099
-23.4247
-29.0912
-34.2938
-25.4602
-10.8165
2.05653
30.1569
55.0379
78.2686
65.6849
-18.6166
-79.0686
-48.9691
-29.4045
-9.61581
10.8718
-13.5234
4.95974
43.5393
29.9626
5.21488
2.37843
5.38728
-4.19336
-45.9113
-91.2088
-40.4736
14.3631
48.9414
82.3056
168.508
164.781
89.4353
11.968
14.4522
46.0367
9.54015
-37.6317
-52.9374
-54.8164
-45.7498
-31.3977
-45.3342
-10.8818
18.4814
-18.0566
-69.1825
-83.0481
-129.337
-181.753
-147.624
6.21782
115.974
157.715
139.818
99.4553
112.01
88.6829
22.5397
36.2071
-21.5397
-182.715
-211.816
-139.622
-95.535
-1.81841
56.3959
30.7429
81.3969
127.732
115.913
80.7289
73.1587
72.3539
46.8267
-4.69487
-75.2898
-76.9517
-17.4399
-57.215
-76.1299
-29.6076
2.26048
-50.2905
-61.436
28.0425
106.024
98.7425
18.0007
-3.92587
-6.57572
-29.7117
-85.2443
-132.858
-104.967
-76.578
-21.9432
-7.59055
-0.27709
51.0811
125.038
212.564
228.454
90.9099
5.11492
-44.2882
-101.251
-85.5325
-68.3556
-34.4964
2.0263
-15.8996
-22.3185
-20.5006
-27.8337
-20.1501
-26.4225
-43.7663
-12.2771
31.9604
12.3489
-15.8971
-52.7683
7.05078
87.5182
97.6689
86.5382
78.3632
49.938
28.9022
-24.6026
-48.1263
-25.4586
-2.7662
-1.98798
-15.9434
-33.0867
-29.8746
-41.7092
-135.952
-137.604
-46.9288
30.6177
82.9791
67.3763
22.5693
11.6429
13.3213
54.2288
61.9344
82.4326
91.4608
18.8015
-66.3845
-61.0748
-72.9825
-47.7431
-25.1333
-34.0721
-5.22383
8.66212
-3.02666
-3.20412
-4.62656
-5.89963
-18.3272
-48.6115
-36.1657
-21.777
-40.9729
-62.0479
-5.63798
52.5194
67.125
37.5718
52.1488
71.2124
111.951
123.659
95.4689
99.5382
65.0676
41.4293
31.5736
7.2587
-67.9856
-185.197
-188.665
-127.068
-90.3942
-54.7804
-98.3437
-105.268
-21.0614
39.6928
58.0175
89.8966
66.9983
42.1107
51.4871
29.6732
7.85255
-21.6055
-94.0509
-122.764
-20.6781
62.7887
69.4642
53.5402
67.309
112.534
160.217
164.307
111.47
93.0591
63.3328
-39.0805
-105.178
-135.939
-156.798
-167.108
-233.017
-283.384
-135.012
9.46813
69.7704
98.4785
71.1393
29.8886
8.05336
-23.8294
0.392742
24.7235
27.1835
1.84811
7.12396
40.7374
46.8684
7.17098
68.4965
123.38
168.719
185.458
91.4932
-36.091
-180.356
-184.946
-46.7245
12.4787
47.8172
69.4743
-5.68049
-40.2051
-33.8363
-25.7498
16.5607
-6.09463
-9.38142
2.0748
-26.422
-49.3554
-32.4913
-29.1172
-8.58188
4.21292
26.5335
37.2558
3.36899
15.3332
25.906
5.26052
7.48609
33.656
18.2756
-29.7292
-75.0201
-54.6816
-57.6004
-50.8384
-38.3969
-24.1857
43.6521
70.8334
67.914
52.7945
43.1488
52.0723
35.5931
0.43047
-93.9847
-89.7732
-45.5658
-43.2336
-45.6642
-80.8301
-130.665
-74.8453
13.5693
105.205
134.653
117.504
40.2446
50.8631
67.5566
76.9203
58.1346
41.6661
-11.814
-25.3519
12.3188
17.8268
-10.9358
-51.7484
-56.0683
-10.1593
67.904
67.1066
67.8384
44.318
2.28985
-30.0781
-74.364
-166.628
-173.605
-98.3367
-30.202
-102.999
-85.3173
-10.8991
57.714
72.9825
96.2479
145.566
156.572
140.893
79.4412
21.5945
-67.2918
-120.269
-133.734
-92.1157
-25.5421
-0.220869
-9.6558
-10.5114
-14.45
16.694
19.3547
32.1427
7.38183
-18.8102
-60.4269
-51.1874
-29.3878
-46.7606
-54.3021
-32.1564
-78.4705
-12.2917
51.5334
40.2609
79.2114
111.189
89.2723
68.1843
123.583
126.66
74.8527
17.6242
28.6544
36.6707
12.2746
-89.6044
-111.242
-78.1725
-30.6736
9.69271
77.6531
37.3285
28.1911
55.4743
14.0195
-19.5219
14.6114
-1.78298
-39.6142
-26.4374
-50.3608
-111.161
-132.367
-143.67
-129.386
-74.201
-50.8619
20.5552
79.4808
41.8298
-19.5579
-67.2347
4.0511
-15.4592
-128.079
-59.1979
33.1273
74.9091
44.2294
14.5588
65.1608
123.319
73.5332
54.1943
69.9371
74.1232
61.6554
17.204
-21.3729
-12.6179
71.2493
120.845
74.8572
51.4379
83.0652
31.7054
-50.9836
-72.4701
-73.5763
-34.5918
71.0734
41.4098
-29.7623
-37.6158
-47.6859
-60.1128
-106.53
-167.87
-131.997
-133.81
-116.189
-48.1158
-13.8215
25.5381
72.338
57.9317
23.0123
-28.2337
-4.25188
31.8132
9.12328
29.6736
98.0545
119.853
124.691
96.534
80.8164
72.7879
23.9329
44.4326
71.6557
15.8909
-3.90965
-42.0663
-103.882
-116.591
-119.571
-93.8686
-93.293
-93.2635
-144.223
-138.117
-61.2697
-36.0986
-12.8681
20.2788
57.2894
89.4941
59.7291
-22.6619
-53.6088
25.8305
49.7847
83.3149
159.835
167.608
128.662
103.284
56.621
41.3983
41.0238
33.6827
-9.36363
-76.0821
-142.522
-138.306
-90.3857
-10.835
25.2209
73.045
93.1883
45.4311
-21.3506
-74.5089
-82.9277
-5.78436
31.9968
29.403
21.7821
-12.6628
-77.4815
-72.1922
-37.1718
40.9827
67.4519
53.9568
62.3153
59.5624
35.8638
-21.9941
-180.542
-393.89
-294.819
-86.0769
21.917
41.5257
51.716
51.7073
71.7989
84.1834
153.105
153.103
90.6283
31.5023
7.53198
9.27723
0.239314
-21.908
14.9219
30.6426
80.0241
158.59
108.208
41.8285
23.0881
-22.791
-50.4825
-24.208
-39.6459
-76.9185
-135.755
-164.288
-118.174
-65.9456
-28.6845
63.4794
109.202
10.1063
-60.8486
-36.2286
24.692
81.2845
41.8303
-32.4653
-26.2383
10.5774
5.78444
-50.9067
-27.1234
34.3098
1.63231
-66.2782
-109.456
-58.1413
29.8157
32.9135
39.6331
99.5946
142.368
127.45
79.7269
40.2028
27.7697
6.0294
-45.2306
-72.7051
-73.1731
-30.6632
-42.8478
-37.3333
14.1563
52.0386
66.5583
41.1284
-4.02176
-64.4228
-120.114
-67.0313
-56.1536
-22.9787
11.7594
33.8821
4.37527
-24.9649
-61.0305
-20.3552
38.9181
45.4115
40.5655
-5.2247
-45.0527
-19.1742
36.8248
19.3686
-29.6172
15.6491
61.1927
22.833
11.7123
25.0975
19.5089
4.7744
52.5849
61.8558
27.1984
6.00326
41.4842
48.3421
38.4313
29.7319
7.25259
-2.86156
-15.7413
-55.8651
-60.7555
-74.2171
-75.7612
-67.9526
-62.0879
-103.915
-85.8285
-33.9273
-30.1238
-33.6882
-18.6128
2.5739
20.1684
57.9855
82.1265
92.6905
136.976
175.35
113.674
49.4493
20.4673
-44.7979
-69.5471
-80.8849
-84.5187
-63.4471
-55.3748
-61.7559
-61.334
-39.5383
24.0643
37.9157
14.2753
-10.0199
-28.156
-26.8511
1.50851
-4.40675
-36.6787
-39.1224
2.59883
33.7002
41.7909
55.9018
64.6439
81.067
92.7911
73.7724
54.4209
12.687
4.16688
16.4891
-17.9508
-63.3911
-98.1974
-98.5231
-46.5478
-21.4193
25.2419
107.568
186.288
151.53
39.5378
-12.9147
-30.7587
-61.2004
-63.6101
-78.7628
-222.571
-286.144
-198.494
-72.6774
15.9512
53.9904
85.1906
93.1335
51.9423
27.7771
40.1121
27.6715
5.99425
4.13327
31.2072
47.9724
47.5683
55.8687
58.4381
73.7142
112.175
160.173
48.4332
-57.1019
-85.489
-51.2621
6.37883
38.9867
40.9105
52.7192
29.6704
-11.5889
-113.16
-155.584
-124.692
-89.3169
-89.2579
-92.4031
-85.2433
-21.9069
36.7867
62.41
57.4935
19.1482
-11.331
-27.1024
-56.2213
-43.6283
-60.6423
-60.4754
-19.5572
1.47869
8.25618
32.3039
44.3573
107.175
146.968
132.818
88.4002
134.497
178.032
102.085
55.6125
66.044
4.27723
-44.9353
-72.0828
-111.973
-119.689
-132.524
-140.529
-107.871
-43.6593
-15.1889
3.34545
-23.4225
-39.2265
-8.78924
30.27
-20.5744
-33.925
45.8403
65.5905
19.2174
3.49673
-11.175
18.3772
28.9033
63.4487
60.7102
64.642
34.6534
-46.5609
-82.1589
-65.7325
-63.3199
-16.7955
57.9691
83.5318
113.208
80.7486
11.483
-35.6894
-108.248
-122.952
-31.9661
64.2966
73.3843
33.0163
-14.3841
-43.8295
-41.2044
9.00752
35.3776
38.1519
-106.695
-183.922
-108.495
-27.4175
-32.1738
-26.3714
3.69318
43.3382
79.4028
125.872
110.18
62.284
42.0438
46.0657
43.5573
25.8484
-15.8247
-45.4576
-8.58909
4.12702
71.6626
101.365
45.0883
2.31158
-72.2384
-108.144
-62.2786
-38.7464
3.74302
16.8837
24.1221
16.8904
11.6632
16.0462
46.6796
-69.248
-156.634
-115.454
-49.1089
-58.7062
-66.2601
-30.4873
34.7328
76.1484
91.2804
108.536
46.9516
1.70346
-55.9165
-87.4448
-77.6089
-59.6951
-62.1834
-52.8963
-27.5128
86.627
159.141
119.911
81.3703
90.0131
154.074
96.2179
-61.2715
-125.427
-84.9413
-120.347
-174.478
-40.2928
208.745
325.859
220.955
42.245
-40.2771
-48.6441
-71.512
-103.934
-114.774
-71.4729
-58.9078
-89.2569
-95.8006
-60.8207
-43.9346
-73.1675
-99.4981
-20.8513
154.903
139.1
-5.85052
-85.4354
-51.9788
37.2417
93.3221
73.384
41.9561
30.708
70.9267
76.1808
47.3673
35.5825
14.2599
-24.5496
-25.9652
17.2611
27.6132
15.8567
-14.2529
-49.0164
-96.6681
-121.457
-130.142
-82.4065
-65.4676
-52.2866
-40.1889
13.4086
66.0694
68.7607
56.4234
75.3692
64.4932
60.9438
62.048
47.7317
49.752
44.0989
26.7128
18.5975
-5.15692
-17.526
-17.4616
-78.482
-99.8815
-95.2438
-75.2451
-11.3636
-24.1528
1.24414
95.4112
147.882
181.098
180.656
72.9073
-17.1088
-67.773
-98.5901
-165.122
-286.77
-280.067
-150.865
-58.6311
9.65182
83.2281
93.3103
100.829
90.0956
85.317
81.8175
29.0612
-24.7311
0.366583
6.29318
20.3245
-6.92357
-7.56887
45.5734
76.1633
109.592
79.8412
27.9396
-0.689231
-11.3397
11.7993
13.2644
-9.87518
-26.003
-38.86
-47.7614
-35.275
-47.5348
-76.8353
-79.1535
-41.5207
-0.543047
0.114794
-16.2783
31.4493
56.6006
49.9918
12.4488
-25.4811
-18.6487
-22.2972
15.6264
89.2847
80.103
31.118
-49.7857
-117.947
-120.179
-125.535
-67.8801
14.882
43.8674
36.645
9.70352
-17.1713
-28.1376
-29.8713
-42.0509
-12.5257
125.628
150.244
86.8232
79.1413
106.77
64.6424
56.433
44.5816
63.9324
48.1893
-58.331
-131.031
-142.329
-116.764
-73.9657
-65.9197
11.2157
64.0846
39.7933
12.6465
-67.0448
-78.2177
-35.8901
-76.1556
-92.2427
-28.2969
-28.1275
-6.32803
-15.2791
-6.21146
43.9741
57.8743
60.3835
71.1949
98.6834
101.396
96.4733
90.0759
102.704
108.274
44.0608
-53.3483
-84.0818
-58.235
-50.7613
-37.8035
-10.4409
-15.2671
-20.8286
-48.5142
-55.4268
-1.19344
32.3053
12.813
-10.7209
7.78833
10.5187
-70.2316
-151.15
-105.054
-42.5003
-8.40439
33.3481
42.3272
22.1722
13.2097
-43.214
-66.7875
12.8554
50.9625
58.7467
34.9033
41.1228
52.8433
3.47206
-19.7632
-32.0645
-15.5735
57.5945
74.5025
72.7043
101.2
1.10073
-109.809
-79.7007
-40.2311
42.4616
86.3169
62.4436
62.9492
66.771
67.7564
57.0357
18.066
-27.0776
-47.4443
-51.5696
-53.4566
-66.6071
-91.8086
-131.828
-197.772
-212.331
-118.083
-32.0668
19.9097
44.4569
45.0672
1.90892
6.90476
65.9276
45.9614
24.3608
46.3578
77.8977
76.6474
57.2755
45.5051
14.7979
34.595
47.3713
89.3952
171.948
213.525
176.692
83.3001
-70.6869
-121.313
-73.2633
-90.4892
-126.85
-137.002
-139.593
-135.171
-126.131
-79.263
-20.0578
15.336
63.6514
69.7782
38.7941
19.9079
31.3738
-27.6581
-74.117
-47.38
12.1917
40.0857
38.3784
16.0418
-30.8914
-56.5973
-57.7907
5.36757
83.8215
78.8227
69.4626
67.9038
54.7902
9.06517
-16.4042
-11.9852
3.95598
-4.51475
-20.5325
-22.4624
10.5702
14.0892
-35.0332
-21.1537
7.03056
34.7311
53.5256
35.3466
23.5426
-0.683811
-46.4194
0.345802
8.53283
-8.82147
-2.9266
1.68679
-25.9546
-46.2546
-54.3489
-5.25353
-11.75
-38.431
-52.863
-19.4015
10.5844
9.40988
-12.4382
-15.4756
23.7876
81.2577
69.0692
34.3928
32.3391
22.4476
-30.6288
-68.909
-97.6376
-30.0629
42.1377
49.7083
77.0365
95.5525
64.5623
8.46634
-21.0119
-26.7969
-46.554
-60.2264
-94.6856
-68.2583
-31.7889
-50.2138
-78.2288
-92.949
-77.3575
10.513
94.585
86.2158
23.6859
11.4706
45.8374
65.5596
106.497
110.822
55.3229
32.3733
33.8254
15.9477
-13.9318
-69.5142
-75.4026
0.830056
51.7363
35.5251
33.1868
-6.69166
-35.6735
-47.2575
-46.2661
-60.3526
-76.6288
-50.3005
-64.5815
-39.9477
7.80729
41.0292
52.4291
27.819
-0.611013
51.858
69.5821
-23.2043
-122.292
-106.471
-15.0196
24.934
31.259
66.8801
63.8012
47.7447
31.8604
-3.56107
0.0502248
-15.4763
-26.3213
-1.32423
15.7707
45.972
61.3668
7.44118
-11.8245
-16.5661
-2.30263
8.96402
12.4723
35.6957
22.8436
-15.1515
-56.0526
-105.731
-97.7294
-64.9139
-7.29629
3.74118
-11.1651
-43.024
-42.0619
-9.0319
58.1694
83.1443
72.1468
74.916
78.7414
48.0891
2.50367
-57.5703
-76.5596
-37.0258
38.4353
71.5005
77.6971
59.9965
-21.2465
-38.4207
-34.5217
-32.1818
-31.6824
-47.7653
-32.7359
-28.7233
-43.5005
-55.6072
-47.5313
-6.48347
9.99647
26.2313
89.2901
38.5037
12.7871
41.2007
17.8244
-29.7352
-111.356
-201.356
-79.7451
18.3916
60.4863
72.9419
41.6333
12.3872
28.0421
54.5568
83.0252
98.1437
77.3395
58.5708
7.5212
-12.169
-32.5916
-34.0919
-9.65863
-20.9212
37.879
122.043
68.9139
22.4633
-13.7517
-47.5215
-79.005
-120.401
-101.291
-21.1706
-20.4583
-12.1449
21.9846
16.2516
-12.5614
-70.3427
-125.215
-110.755
-30.4445
21.3022
79.3174
150.387
88.2395
-12.8127
-13.2792
-11.091
-43.8744
-53.3884
-47.1083
-39.1903
8.94276
38.4413
25.7531
25.694
100.859
159.376
146.298
73.6734
-28.2193
-49.2495
-60.5857
-92.148
-48.8548
38.5734
75.1795
61.8433
28.5003
-59.706
-111.613
-89.5889
-15.0202
4.18484
-67.7951
-139.057
-60.5209
7.27576
-16.2703
-58.0412
-86.5962
-72.5847
-25.3415
-2.49324
24.2601
29.2372
16.266
44.621
136.199
263.22
312.388
276.3
180.846
53.3732
-7.41839
-35.8868
-158.72
-183.947
-177.35
-165.926
-112.464
-74.3619
-14.8553
40.5716
48.6471
91.1862
77.2815
25.9506
-51.4593
-135.304
-178.718
-173.019
-81.2176
25.4159
44.6186
75.2632
52.4306
20.5031
79.1971
128.697
143.469
109.337
26.702
-4.99503
-43.309
-98.8829
-107.856
-112.953
-114.193
-33.4223
31.1382
8.9074
-4.32594
-3.18744
37.0121
36.8742
1.5781
11.3368
90.4856
126.927
165.882
156.103
71.4465
0.243764
-34.9155
-108.302
-156.138
-173.842
-155.959
3.2688
124.116
152.002
74.1499
21.5237
5.84404
-34.2287
-33.2075
-41.4881
-73.1709
-71.4026
-84.4739
-74.892
-27.3258
-21.6405
-12.8983
66.9107
100.401
125.467
122.72
0.197259
-77.7055
-121.225
-204.218
-229.767
-115.449
48.4419
154.095
183.12
152.299
140.4
87.6962
5.52088
-10.3981
-29.3414
-44.0377
-70.1739
-57.6556
-3.40179
28.7326
12.0664
44.6622
30.9073
32.5776
71.8261
79.0583
44.9575
18.4037
-82.5805
-133.2
-133.071
-94.0638
-48.014
-31.5773
-51.8701
-45.8214
-24.538
0.208647
16.9113
70.5042
125.265
116.04
91.6492
44.0801
26.113
9.10966
-13.6932
-15.2411
13.795
-11.4953
-41.1699
-48.7918
-40.9243
-25.408
11.525
10.4747
35.4905
68.5827
52.0818
16.9379
-40.9063
-107.543
-91.7919
-40.2582
-54.3406
-41.3748
-22.2453
-46.4613
-47.7179
-15.114
3.1781
15.8439
25.6573
62.2998
86.3861
117.947
87.1157
22.5252
1.35827
-10.8316
-46.4204
-46.8368
-2.22543
46.698
45.2163
-7.26608
-45.4747
-46.1218
-27.8845
33.8223
68.8678
61.3182
26.1429
-15.7029
-51.1414
-88.701
-112.36
-52.5204
57.9617
87.8382
116.132
73.683
-7.32735
-30.5851
4.16569
14.7957
41.0845
60.9553
55.0249
7.1433
-54.5044
-150.561
-232.17
-320.787
-281.667
-65.185
92.561
129.067
81.077
63.6248
43.7494
-3.46021
16.0503
74.8164
70.7814
65.6496
73.6441
62.495
105
139.734
107.17
57.8196
105.858
146.844
121.877
23.7958
-51.317
-86.0507
-112.688
-149.705
-92.5103
-57.3768
-51.1951
-59.5961
-83.4083
-104.83
-120.904
-159.166
-154.537
-91.6485
21.7245
43.3105
57.8513
85.3508
105.404
86.7355
41.2796
-13.6353
8.00171
19.6964
-7.85452
2.39407
15.2051
3.58871
-7.16342
-4.25814
37.0663
32.5936
18.9447
-13.905
-52.3718
-19.0003
9.74607
98.0725
165.863
135.164
91.8631
66.4714
6.50595
-41.9855
-100.901
-78.3862
-41.0018
-50.5931
-49.7738
-46.6752
-70.5121
-43.3257
-47.1989
-23.7698
12.5045
53.3396
62.3899
27.9829
-46.4707
-154.718
-182.61
-116.052
-43.4961
78.0671
137.714
154.752
178.787
180.086
129.571
45.7612
-66.0619
-122.178
-60.9183
-35.9955
-35.8145
-16.7949
-10.0112
-34.6008
-40.714
8.62431
62.304
113.304
84.0332
-5.78614
-64.2181
-81.3374
-55.4334
-18.4657
-19.6168
14.4411
23.119
15.7557
12.6908
-42.145
-122.759
-113.221
-97.1176
-48.1631
-32.8861
19.0753
71.0379
55.7123
84.4395
56.1032
-23.4289
-5.19845
-42.8099
-29.8407
50.6653
82.6497
105.055
144.986
108.002
113.4
164.337
168.935
121.858
58.2026
12.6198
-114.215
-268.784
-413.957
-401.838
-241.741
-103.777
-71.4029
-35.3576
-58.8237
18.4324
125.536
174.157
209.097
170.905
123.586
94.3015
58.5433
29.2056
-48.9681
-49.9105
51.5631
114.736
173.449
146.314
58.975
-1.75659
-129.449
-201.555
-166.281
-196.057
-238.802
-258.53
-176.941
-36.1822
52.5297
74.8781
122.443
173.369
220.552
166.802
78.1848
30.9154
26.1207
44.7282
88.688
110.769
131.254
83.5347
47.8574
29.784
17.3143
-27.1998
-190.883
-372.621
-420.712
-287.73
-208.232
-142.874
-19.2794
66.5669
92.46
122.257
138.363
160.741
130.215
102.309
81.3369
73.9255
49.3653
7.23253
6.6165
73.5967
116.217
149.462
93.7929
20.595
-3.81372
-18.9884
-56.625
-103.437
-121.832
-92.4628
-69.3093
-112.526
-116.368
-83.8304
-36.5561
-10.6304
8.62637
14.9424
5.73031
-0.902619
-6.06276
-23.5837
36.1781
75.7308
70.2734
56.75
26.0716
50.1987
72.9651
54.3949
0.806612
-19.7553
-17.7784
-91.4341
-189.657
-143.008
-61.1427
16.8199
35.1008
79.3324
98.4068
122.52
118.97
62.805
30.0966
13.9258
-45.1018
-14.4175
29.1751
44.7848
59.0339
25.1192
-18.7169
11.89
70.1929
53.4474
-25.1778
-48.7347
-78.1139
-107.515
-99.3309
-53.7723
-66.6962
-112.373
-147.497
-103.557
-28.3733
3.69076
23.1467
48.5027
63.742
56.2476
23.9944
1.7227
47.9995
93.4367
58.0339
-22.8492
-45.4338
-78.7648
-107.427
-86.8913
-53.5714
38.2413
88.8644
60.2287
39.9319
23.8851
20.6332
18.7477
6.46056
41.9663
60.3007
84.4021
73.4478
42.512
47.9865
35.2637
22.2556
54.4354
65.8871
35.1245
7.03867
-50.4611
-67.4581
-78.9658
-93.0059
-62.3771
-53.3522
-44.255
-37.8389
-44.7675
-32.8582
-33.36
-29.5406
-15.4403
-29.4535
-28.3107
-7.82099
13.8416
37.3854
31.139
28.168
53.5464
83.5816
111.707
105.641
54.2053
2.98457
-33.6157
-53.9779
-76.6358
-60.5254
-20.8504
3.54311
-35.2691
-56.3224
-47.4453
-17.9822
-2.60629
4.12296
-13.2557
17.4217
11.1562
-15.2525
-25.4574
-14.1459
-4.52075
-1.382
-4.26782
59.3397
51.8166
21.5484
12.2083
9.17509
4.78047
1.38136
-10.0971
10.605
19.5339
32.9717
42.5767
34.7771
47.3731
38.0082
-23.3323
-33.7058
-26.4576
-23.3189
-8.31861
-5.96355
17.9902
11.3296
-13.0191
-84.2898
-95.9582
-3.60436
68.1327
37.8086
0.704545
-23.0896
-14.3205
-16.1541
-44.3852
-19.4799
18.1907
-7.50246
-55.6907
-43.4711
-12.5819
-18.3343
-33.9592
-4.14389
48.5144
82.6024
95.8958
67.6777
29.4067
23.3419
20.1122
66.8977
87.0706
48.2319
-11.6784
-56.6173
-55.8211
-60.2357
-65.8424
-31.4608
-51.5965
-62.2963
-36.9673
-17.4882
-14.3688
-6.65073
-14.1799
21.0422
30.1799
15.4914
16.8205
-10.5154
-8.54208
38.2434
72.4607
28.6607
-27.811
-5.6827
61.6918
70.3332
48.4792
25.9808
4.95554
-35.1527
-87.7133
-71.1768
-12.4405
-27.1937
-19.5598
1.82753
15.4902
1.79562
-29.2621
-74.5556
-54.8135
-26.7767
1.24496
16.1618
20.5791
27.4627
39.5074
28.6895
63.5474
32.2795
-30.6653
-78.6102
-96.5134
-70.3595
-90.0548
-72.7904
53.7023
176.981
212.352
158.395
74.0262
60.569
27.6283
-24.7505
-11.6604
-2.42272
-22.6188
-78.2615
-144.505
-121.94
-42.3434
21.578
36.597
39.8664
120.453
141.907
96.043
-9.03248
-120.086
-89.3981
-37.5403
-62.8242
-40.3362
-22.2943
-43.3022
-88.6294
-70.6289
-6.88168
54.0524
35.462
40.7836
55.694
35.6304
0.614216
-34.7992
-27.1431
-51.438
-90.0894
-47.7014
-9.82812
-8.94001
-8.8098
12.2897
80.3727
99.8536
107.894
81.6911
34.5096
12.7603
15.6886
41.1831
53.5343
-20.9124
-86.3634
-83.1406
-99.8825
-106.01
-40.9326
-19.4578
-47.6636
-72.3252
-51.4642
-27.8783
-11.6222
10.5488
35.4813
112.091
152.311
177.751
210.768
163.378
156.993
172.667
185.527
106.339
-74.6595
-200.203
-232.502
-231.911
-201.41
-228.223
-226.075
-75.6106
17.9096
-10.7239
-20.6642
7.32572
62.2073
21.8666
31.6831
90.5027
93.5679
81.4986
62.7617
125.928
234.413
121.727
-45.8303
-159.258
-236.578
-159.976
-25.3278
-4.80895
-25.605
-82.1205
-137.666
-81.682
52.4058
110.648
113.18
119.295
84.0752
31.8799
-115.064
-194.027
-74.1626
67.5975
102.773
149.733
100.04
11.1904
-10.0882
-14.3721
-38.8178
-23.4395
18.4636
18.0789
-44.0542
-36.1096
-20.8828
-72.563
-120.779
-111.104
-13.4444
16.9895
-107.655
-66.1432
58.9425
136.946
211.297
261.468
238.062
188.783
88.5491
60.0609
67.1854
-38.8985
-139.522
-170.679
-178.7
-135.357
-124.931
-52.1244
35.103
56.6946
65.3193
33.1124
-0.980422
-17.9926
-3.79795
1.585
-45.917
-111.497
-84.5811
-53.4461
-54.4862
-65.7726
-42.5468
1.84412
-10.0769
-16.8592
9.09332
12.8823
29.5122
-22.2921
-6.63817
12.4017
59.5301
86.9925
68.067
69.6181
66.2614
55.2664
94.9107
78.4224
46.8901
5.9894
-34.6995
-68.4782
-57.5743
-57.2532
-38.3279
-51.2152
-69.3885
-31.4243
-52.042
-60.0804
-100.244
-11.3917
158.797
194.922
195.89
152.951
24.1503
-15.3575
14.2869
24.8529
-25.7834
-150.752
-196.339
-195.34
-153.674
-90.331
-80.9596
-42.7631
34.0331
135.729
211.58
73.7107
-128.832
-222.503
-192.471
-89.0623
-25.4386
45.8921
102.446
174.577
141.315
129.736
135.762
167.662
205.27
231.102
174.347
102.775
-17.8539
-165.474
-207.393
-166.003
-74.8034
1.70935
-13.339
-43.6014
-40.292
-70.1696
-119.803
-145.891
-84.098
-9.39789
-18.7858
26.8805
56.4325
-2.03235
-9.17786
-15.7877
1.47837
24.685
7.05486
49.9153
79.4288
91.0724
47.7413
-10.2612
13.0061
51.2066
43.3939
35.1787
36.588
70.7757
47.9439
-13.6643
-54.8933
-60.1582
-58.8337
-74.1352
-59.9185
-29.8497
-77.4738
-124.25
-68.5478
-18.5223
-8.65033
-3.90945
29.9185
57.1837
43.7219
38.818
59.2488
39.3106
61.1694
-4.47999
-123.394
-91.324
-26.0696
30.5114
14.7499
-17.1828
53.3561
82.0207
27.3339
-22.4466
7.02383
0.851994
-22.9279
-27.3269
-19.0919
-35.3888
-23.3647
-10.0932
-5.61128
50.0182
121.171
82.9701
38.9987
-3.11438
-52.7648
-76.1429
-46.4742
31.7153
74.9946
24.7669
-44.7584
-25.2684
-25.8871
-36.3632
-12.4243
7.75782
-6.86046
-14.2307
-28.3661
-35.1875
-34.6846
-16.689
11.2731
49.045
155.948
211.108
122.92
-12.1794
-70.4658
-51.4887
13.0829
35.1021
-34.2549
-15.5047
-39.6932
-32.0103
-17.3462
-59.3272
-61.7127
-78.7601
-120.991
-91.4071
-41.9612
51.5189
101.204
94.2108
72.8944
55.0601
55.7065
68.0956
31.3697
-15.7118
-12.0467
-51.5773
-68.1002
-58.8196
-28.4505
28.9105
75.8414
19.9598
4.18774
-11.7627
-36.6182
-76.2195
-111.127
-126.719
-33.5166
6.64933
-8.08028
27.4834
58.2994
23.282
24.1121
23.3721
65.5989
72.8974
19.1989
-5.75271
-23.8071
-8.18122
34.6611
24.0789
-28.9453
-35.6382
-34.4255
-30.9788
-87.9647
-81.1962
-51.9994
-49.8988
-23.707
54.8527
124.746
147.721
192.411
236.558
168.6
18.1095
-101.515
-85.5751
2.89169
5.63559
-1.84348
-15.9082
-23.8162
-69.6256
-93.3695
-115.039
-90.7221
-61.1538
-57.2407
-26.1156
-3.89518
-44.4088
-146.504
-214.025
-103.715
15.5641
101.701
130.497
93.2799
98.0526
117.667
98.6149
120.422
150.768
146.859
118.221
68.0103
36.7571
3.11846
-56.5043
-120.591
-182.124
-177.258
-187.591
-291.56
-251.291
-100.535
-7.78249
77.7096
130.734
137.727
134.071
139.87
158.8
166.114
106.753
102.089
99.6704
24.4048
-57.5295
-68.3515
-9.65179
-27.7147
-58.2264
-18.968
-14.9763
-9.5195
-37.0271
-115.636
-132.724
-104.326
-104.543
-115.533
-92.7483
-73.2511
26.0987
48.3535
28.3779
53.4108
80.5293
102.801
89.5771
104.356
126.248
126.771
97.2108
15.0821
-14.7526
-51.2329
-75.7461
-59.2979
-57.0918
-52.7358
-20.7732
-15.6067
-39.9554
-76.3987
-106.522
-39.8387
30.3659
-8.56419
-67.7005
-72.1755
-25.3151
20.5479
26.1969
30.8595
102.272
132.974
104.293
100.748
123.929
83.1801
37.5248
40.762
32.5162
24.7625
-33.269
-90.1169
-124.161
-126.202
-104.303
-98.0975
-84.002
1.26218
45.3094
53.9078
40.3988
17.601
-16.6145
-92.0283
-115.042
-112.913
-124.907
-121.412
-74.6659
6.27519
136.241
153.629
225.427
355.819
352.507
229.599
106.894
11.9696
-227.154
-201.394
-177.565
-103.16
-123.205
-121.571
-98.1499
-108.224
-74.5313
-55.5199
-50.1042
-59.9591
29.1234
61.7897
119.877
142.31
151.633
138.228
102.051
26.7904
-28.4528
-30.8773
-28.8831
-63.1307
-73.22
-71.7614
-41.743
-51.3772
-56.1342
-20.8958
56.9578
67.2989
26.6667
67.1084
90.6869
62.4106
4.8953
-68.5764
-46.3597
0.103459
-5.57904
3.3333
-10.5091
-19.0045
2.00138
22.4823
84.314
49.0185
-6.79327
-61.3826
-90.9177
-67.7887
-82.3594
-131.835
-103.143
-29.7637
-23.8641
3.26522
-10.0017
-30.195
5.57294
57.0001
62.3798
87.1133
145.519
144.898
113.699
173.332
187.744
77.9816
-8.88531
-63.8584
-111.893
-60.278
-70.2348
-109.608
-76.4229
-30.0191
-19.2469
-16.5009
-29.831
-16.9433
-8.55782
-15.1066
-36.8097
-60.4152
-79.2015
-110.012
-145.025
-64.1646
16.8797
49.0075
44.8046
35.3756
54.874
39.1605
20.503
91.69
99.2849
113.154
137.613
145.205
139.783
48.8062
-49.1392
-67.0576
-71.8998
-83.6985
-35.2508
-19.83
-21.6572
-0.551525
-0.747143
-42.1754
-50.2766
-35.3773
-47.5229
-99.4127
-71.6662
-27.1271
14.6342
-7.70233
-9.11987
63.2149
71.0961
6.48423
-44.3651
-34.2721
-21.4351
-32.6147
-57.0565
-49.8084
22.7262
81.0843
89.0866
59.1936
55.3453
62.1446
40.0143
-36.2167
-28.2989
3.52924
5.97042
-4.83678
15.4162
41.858
49.9585
36.6969
24.3445
-13.0492
-19.8844
-22.2267
-22.9995
-9.54596
-46.2478
-54.148
0.438202
-6.44081
-48.8884
-66.2414
-88.8869
-96.4989
-52.7173
-49.5076
-87.5594
-55.0099
55.0742
140.31
117.063
109.652
70.0902
118.873
221.609
209.05
152.065
75.7027
-16.2789
-90.2966
-88.6188
-55.935
-82.1305
-132.478
-117.396
-103.039
-64.0965
-45.1135
-75.4053
-93.5499
-82.8892
-83.1467
-68.6053
-76.181
-124.022
-120.821
-75.0651
-14.9889
80.0534
207.745
327.445
386.177
296.375
152.503
40.6739
-6.6551
-28.7371
-54.765
-85.7453
-138.88
-104.594
-65.849
-18.8608
-39.506
-73.4454
-62.9515
-23.0549
31.6204
14.0729
-20.3674
-59.6169
-100.688
-98.6576
-85.8758
-77.2545
-31.8783
25.0536
67.4209
100.428
149.033
127.216
164.238
177.189
126.063
31.8661
-38.1971
-64.8403
-37.7511
-27.9309
-61.2126
-127.276
-145.584
-98.7849
-58.1045
-2.30948
31.5699
44.4743
52.9258
73.0035
78.5673
66.1009
23.0431
-1.21905
-23.7733
-33.8857
-33.2651
-49.0107
-64.5144
-67.7571
-82.4524
-69.6362
-59.8392
-33.246
30.2425
57.9248
76.8694
105.459
156.657
128.64
100.772
78.6992
3.92015
-61.4839
-81.1362
-66.1733
-47.5077
-56.6796
-58.1413
-33.5695
-32.9731
11.4405
26.6119
6.4295
-23.028
-102.306
-94.6183
-29.4857
-40.851
-61.1245
-99.2044
-71.3915
13.2948
116.01
159.924
115.153
108.065
95.5404
55.7837
24.4341
33.0653
63.339
41.826
2.22255
17.3662
39.1054
15.1817
-43.6869
-96.6545
-100.119
-77.0769
-71.5832
-45.758
-32.1504
-14.203
43.9912
74.3554
55.9056
38.2669
18.6344
-38.8592
-67.9035
-34.0598
0.573162
26.1552
21.8088
-17.0939
-39.7154
-55.4749
-8.91236
24.0485
-10.6169
-43.9278
-46.8942
-29.8347
-29.5605
-66.2201
-17.5475
21.5252
15.8439
40.3582
9.01905
-8.45007
36.075
18.5578
52.2471
102.091
81.2641
80.1812
51.6587
23.3361
-1.70008
-52.4152
-49.753
-20.3597
1.41803
31.3734
29.4712
3.71903
27.2488
42.5938
44.5045
62.9273
3.96053
-14.1052
-30.847
-63.5754
-45.8116
-54.9382
-103.935
-139.71
-111.89
-18.0639
-11.6739
-39.2046
-40.5948
-23.1743
18.2881
78.8868
66.3187
79.698
104.055
45.2512
28.2934
0.0384303
-28.2592
-41.523
-49.3096
-28.0484
24.5294
63.4542
100.925
56.6787
-8.68453
-11.3557
-22.7139
-39.0342
-30.4469
-58.6612
-63.4301
-59.0962
-67.2033
-48.9724
-36.6704
22.78
38.0331
23.5749
33.4707
39.2405
37.6247
42.4168
-1.3107
21.806
86.2008
100.682
102.189
46.7035
-22.5094
-14.0341
16.191
-6.60899
-69.0952
-46.7396
-32.7243
-52.7396
-35.8631
-40.9635
-47.0181
-14.6022
8.03484
55.3024
56.7512
-10.4304
-25.9802
-19.8768
27.303
61.8438
-3.73426
-60.8561
-55.2494
-56.7778
17.4665
31.2302
26.4502
8.58443
-52.8481
-43.4875
-28.0155
-32.0289
-30.4757
-51.0805
-20.9402
19.3558
6.73624
78.9186
82.5072
8.61626
-2.82462
19.1421
25.9482
32.6654
9.28043
-20.4801
-38.5377
8.1729
19.9361
23.0595
14.3533
-29.5223
-52.1497
-21.1952
9.42452
28.0721
63.4986
22.4952
-9.84419
56.2823
127.778
84.5723
0.366577
-79.0386
-80.3681
-51.9574
-31.3333
-35.7812
10.5133
43.4523
53.5661
26.098
37.8504
63.8981
48.9567
33.9769
-8.35597
-68.0436
-116.423
-177.926
-184.166
-133.766
-112.126
-65.838
-35.4759
8.24303
32.2248
20.3968
60.7082
75.0487
47.195
82.6402
66.9404
16.1903
30.2122
55.346
29.6416
-2.31141
5.32155
55.1735
104.27
106.465
85.338
75.3107
50.4724
6.09432
-10.4402
25.0498
-14.4758
-67.3479
-78.9795
-100.38
-132.838
-176.17
-185.865
-103.236
-53.1392
-29.6648
22.4314
96.8928
145.067
175.755
137.653
99.9243
74.5473
22.349
0.123618
-20.5204
-44.5448
-68.2993
-50.8001
-22.1673
-25.4027
23.8981
-7.8531
-103.811
-131.181
-92.1193
-60.2556
-57.4249
-79.9718
-73.8396
50.6178
178.913
191.052
188.13
128.977
42.3645
-9.36291
-47.7124
-94.8692
-55.2853
-18.0215
-9.86195
2.11189
17.4441
13.4555
-9.82853
-51.7897
-114.544
-98.0688
-82.043
-100.778
-124.91
-78.7894
-37.5829
55.5816
143.936
209.62
245.628
278.936
226.06
131.823
30.1561
-11.0618
-77.4593
-75.3869
-20.2801
-30.6589
-40.8256
-77.9487
-119.718
-127.745
-141.307
-115.839
-104.239
-104.144
-96.0399
-71.5196
-17.1934
38.4671
36.8129
18.334
91.9716
155.676
153.794
126.808
92.7891
74.21
51.6891
-3.60416
-48.7843
-31.9087
11.4404
-10.5493
-22.4845
-36.7236
-59.5837
-72.4775
-80.6544
-92.6888
-27.4032
16.1461
4.06146
-5.88841
23.8847
28.3261
-12.2753
-43.3863
-76.356
-10.6117
40.2182
41.0046
13.9498
-2.97224
19.0886
45.271
114.697
236.164
193.265
65.568
-46.0002
-49.0965
-65.3485
-71.9198
-94.9307
-63.1869
-52.9335
-38.5434
-23.7084
-42.0202
-33.6003
-22.344
-30.1215
-33.4809
3.3553
45.0578
-11.6944
-97.5916
-93.7334
-42.5096
-13.869
11.312
15.5999
22.9527
76.7984
68.8135
45.8941
56.6803
83.1469
74.5055
49.7885
34.2713
47.5519
24.8248
-4.43193
-28.1119
-35.0502
-94.6859
-131.872
-89.4818
-15.6049
36.4083
83.4088
67.1618
60.7131
82.7005
101.88
111.279
96.1223
29.4182
-13.2756
-66.0816
-104.119
-104.884
-142.188
-127.838
-67.6414
-53.6642
-3.98846
16.5856
-3.20343
-20.7981
-49.4636
-74.2177
-87.5359
-53.9653
-43.6757
-37.4799
-23.1732
-4.65486
28.1363
48.0906
41.8845
79.0419
122.79
144.552
130.527
129.315
146.267
157.445
121.795
55.1363
-45.0518
-72.2625
-61.9876
-99.854
-79.5306
-71.9459
-71.3072
-56.9631
-56.9139
-40.7172
-3.92543
-43.0826
-52.4719
-67.1263
-76.4177
-61.2484
-61.1219
-36.0594
35.5345
70.668
101.774
90.8351
57.6817
15.5232
-35.7414
1.10164
22.5012
24.7845
36.0632
41.7297
4.6057
-34.2203
-68.9918
-90.9226
-40.9016
24.9082
70.8493
74.0477
109.227
204.978
227.092
112.625
-24.7675
-86.4897
-115.639
-125.554
-109.059
-90.8639
-41.9279
-4.79725
5.72192
-12.0919
-41.9315
-52.3341
-57.7459
-57.4137
-61.771
-98.5987
-117.059
-155.234
-148.69
-57.3253
28.5282
59.0236
76.0454
49.424
106.461
123.726
130.712
106.784
106.385
132.373
145.519
122.773
68.3051
24.8166
30.1369
3.46368
-56.1725
-95.4242
-90.3263
-52.2193
-30.1903
-15.2558
38.0651
51.0884
30.1592
44.6248
27.2818
-0.829243
-32.963
-68.1878
-43.3669
-6.14004
-36.6246
-64.4615
-124.316
-151.007
-163.326
-163.885
-94.6764
-54.176
1.32137
97.8992
198.911
277.953
277.263
186.14
34.8171
-82.2367
-127.019
-106.151
-103.385
-106.373
-119.492
-122.798
-22.7587
15.2525
21.0559
36.0838
9.68592
27.6649
21.7744
-5.35031
-25.0873
-78.2365
-93.8949
-62.1443
-4.89382
53.0539
88.1394
91.5253
123.725
140.455
140.74
114.282
59.3208
79.6895
91.8117
84.4717
74.2782
96.146
100.041
55.3205
-46.8641
-123.078
-169.365
-173.934
-155.939
-147.565
-92.908
-38.8481
-61.8267
-93.3745
-79.7143
-37.7487
-29.7832
-44.577
-51.0147
-10.8734
29.491
59.2791
112.507
119.281
57.1215
13.8189
-27.3014
-15.1285
19.6902
28.103
-11.9668
-62.8489
-55.0946
-11.5028
14.2377
66.4587
55.8633
60.8659
59.9796
35.9808
-2.19358
-36.7858
-81.202
-120.495
-61.4328
6.12934
31.9145
45.2728
49.2693
74.22
79.1682
82.9079
62.0425
34.5044
52.8218
24.8408
-21.1529
-66.4478
-99.8731
-114.428
-121.155
-111.455
-29.2526
53.1043
60.6626
90.9781
176.241
198.158
151.883
46.132
-15.7026
-56.8593
-83.1706
-97.5843
-111.628
-118.139
-101.283
-79.8163
-16.0516
-20.2567
-32.544
-33.6251
-70.083
-97.7206
-120.843
-147.228
-113.812
-85.3973
-20.9172
74.0088
123.577
171.963
200.034
190.301
178.364
169.276
113.147
84.5614
48.3505
43.8406
40.5203
40.8347
5.34249
-47.2437
-63.7878
-58.3794
-103.004
-113.077
-106.964
-75.8777
-36.1551
-55.8072
-79.0434
-30.7323
-33.0324
-54.6638
-29.3054
13.0404
22.4297
17.4033
-1.79843
22.3411
27.2429
67.8827
128.451
123.983
50.9716
-26.005
-106.333
-98.9447
-147.065
-118.468
-48.4716
-3.71298
49.4103
59.6782
124.523
246.81
278.444
290.99
188.596
6.00823
-121.062
-188.792
-241.841
-236.882
-148.665
-100.09
-59.7973
-46.6391
-7.04834
20.034
19.8702
-23.7784
-50.8683
-9.99603
-11.9126
-86.7895
-127.027
-131.332
-63.4706
-16.1708
70.5576
180.394
188.262
153.482
119.252
118.57
122.24
81.8825
89.9247
88.823
46.5084
24.506
14.4836
-4.49901
-31.8019
-80.9335
-99.5104
-87.0455
-79.5096
-76.0709
-40.8141
-50.0183
-23.4304
15.6507
1.65025
14.3425
44.6446
27.1936
4.85993
-25.9732
-40.8065
-55.2134
-64.7529
-78.0837
-102.202
-51.0694
14.0207
20.6792
51.6611
77.8294
47.2098
40.813
51.4886
34.9272
59.7511
48.0179
-4.89358
-20.6954
-29.4602
-16.486
-34.6552
-81.1225
-32.6551
14.2206
21.9008
2.86154
-17.239
-33.321
-34.7661
-23.5607
8.70401
-5.76867
-21.71
-2.22224
-16.5269
-34.1758
-20.6517
-4.00353
45.7293
74.1709
94.3521
114.441
81.7222
78.079
116.162
48.7821
20.1458
43.2055
17.8219
1.34917
-41.9145
-77.3762
-83.0039
-91.6322
-106.857
-75.8035
-22.7161
5.90399
-10.592
-13.5881
-17.1094
-18.9961
-44.8097
-87.7781
-81.5272
-43.7445
-24.3726
-22.9761
5.95045
51.5602
64.3935
56.7222
130.246
140.414
127.044
68.3929
18.5558
17.4318
6.06366
-31.2186
-58.0156
-50.5243
-27.7514
-45.9132
-75.199
-62.9602
-58.4401
-77.6047
-78.7847
-44.2979
18.8
58.6153
49.0868
37.2503
9.76274
16.0645
6.0847
2.2723
53.4757
90.3658
59.1992
24.2005
23.7273
38.6729
35.609
26.0627
-16.9098
-13.3137
38.9708
29.2992
11.2156
-7.53023
-69.7288
-104.294
-118.367
-86.8163
-39.2543
-21.2352
-26.2421
-42.6986
-10.6071
19.3382
-9.55721
2.75899
36.9493
20.5335
27.7275
20.6917
17.616
23.8447
-30.332
-34.4517
8.45519
40.8196
88.3525
82.7377
23.4865
-16.5106
-17.3774
76.513
124.028
98.9865
65.4041
18.5114
-23.275
-37.8982
-61.2307
-70.6934
-81.3999
-50.1691
-53.1313
-63.6695
-93.6484
-100.478
-82.4547
-60.5073
-45.681
16.2377
25.6756
-20.828
-28.6147
-12.9292
8.76924
39.8108
48.1056
39.7626
52.5904
93.9619
76.0225
36.3589
28.5881
24.4048
23.5202
10.8365
-1.64093
43.9315
39.1914
28.6277
34.1268
29.1857
18.0543
33.3968
72.2751
42.7585
4.05933
-3.5316
-27.7384
-77.86
-100.073
-126.183
-69.9502
-37.0803
-28.1492
-10.2483
2.74078
-24.3203
-24.7413
-56.1584
-65.746
-27.7681
-40.174
-44.0748
-79.07
-96.5901
-83.1561
-44.0447
6.35682
54.1039
143.536
178.349
168.518
177.35
149.341
91.623
34.0674
-17.7141
14.2998
21.4192
-7.64042
-50.1222
-45.6085
-40.9258
-58.2981
-78.3106
-10.9758
22.103
7.15518
-3.88905
-28.0248
-51.8656
-76.9068
-121.771
-61.7223
6.19102
52.2331
51.0856
23.9638
12.9535
-7.90873
-1.25907
47.8128
62.8948
18.7897
14.6049
-23.2765
-19.8342
4.5038
-14.3394
-51.6547
-20.957
37.7528
52.3367
8.44208
-24.3595
-46.6962
-43.9453
-56.9161
-56.9675
-18.4736
-29.9188
-42.4744
-26.6978
47.3431
129.985
148.546
115.602
151.498
115.366
57.7426
-4.72179
-69.1277
-74.9537
-89.9928
-119.454
-61.9655
-35.4964
-24.5891
-11.5059
-23.8354
-25.9935
-39.7795
-51.087
-17.9237
-20.6632
-35.4189
-30.6947
-51.231
-35.2519
-17.4857
12.1688
73.316
89.1814
85.6138
82.6675
44.672
40.1337
17.8906
39.8182
69.8456
69.2915
58.3682
53.6802
44.6646
80.8942
90.9681
46.8231
-38.7249
-60.8143
-45.6821
-86.696
-122.944
-130.963
-125.347
-87.2717
-60.3688
-52.7421
-3.31047
-11.5276
-38.6765
-59.9826
-84.4057
-89.7168
-75.2803
-40.3521
-37.377
1.1396
60.4623
76.7507
63.1198
62.1036
33.4727
28.2971
44.842
142.424
158.699
160.259
172.668
185.93
158.834
112.305
53.6264
7.59081
-65.2482
-134.184
-155.572
-161.065
-152.214
-125.235
-126.221
-93.4243
-30.5153
11.1661
0.098243
-44.5355
-56.8591
-36.5511
-45.1653
-81.7502
-80.7186
-15.4394
17.0864
34.0784
46.2132
54.2664
89.1133
79.53
76.4246
118.146
123.348
105.357
73.7741
54.0019
55.7822
9.10633
-10.8873
27.1376
-16.6321
-60.8224
-109.606
-163.391
-175.101
-164.832
-112.248
-62.3225
-47.6158
27.4074
93.8086
79.5674
99.4141
91.0823
65.5146
45.1233
21.7847
28.7938
12.8759
-47.6179
-56.0582
-33.7415
0.59525
41.603
144.506
157.645
132.435
78.7224
23.1893
-51.7779
-137.291
-190.927
-142.702
-76.0074
-73.2976
-53.9994
-29.2874
-19.3539
-25.3364
-42.0133
-40.5859
-1.38325
76.1927
87.4594
54.1191
36.9331
-3.70716
-10.7607
1.08283
-29.0185
14.7511
12.697
-0.966783
-4.24665
31.5529
95.8199
119.552
105.639
76.3908
34.7543
15.5972
-13.8352
-59.7745
-79.2368
-105.474
-76.701
-4.42581
1.63091
-3.38445
15.535
-15.4503
-21.3102
-48.2838
-70.0819
-61.1581
-67.6828
-74.4325
-55.6502
-7.34295
61.9251
99.6689
102.793
102.362
92.2927
114.046
101.567
20.4351
-38.7564
-54.9658
-37.9816
-37.3426
-34.3847
-7.86181
7.33956
10.6199
-23.8041
-45.9557
-70.4688
-91.1949
-92.6378
-39.5284
-2.81484
0.410885
-11.3748
-35.4167
-15.8493
21.225
65.1764
90.9768
82.0497
54.0699
55.5862
56.6126
53.4913
-6.54585
-37.0397
-0.0101556
-0.417048
-3.75782
13.1465
22.6807
20.7086
-20.9001
-33.9739
-61.3139
-64.1643
-37.8062
-56.2029
-58.6751
-36.7895
-3.76221
54.3071
63.0006
44.3552
108.727
89.5529
38.8371
29.4739
11.1271
-16.3714
-59.6725
-94.0833
-90.3518
-67.3075
-11.9285
-28.176
-20.6291
-0.758201
-10.587
-11.6548
-5.82211
-38.8625
-16.9136
10.3331
10.879
35.2846
68.1549
106.563
44.2219
-35.8798
-22.0532
7.11141
29.9079
39.4372
23.6919
26.1646
14.2318
-9.16256
14.3376
13.5121
-1.20751
-8.82566
-47.9733
-46.5633
-50.5562
-58.3191
-61.0833
-40.2132
46.0583
88.4901
79.5923
58.4622
25.1073
-4.75919
-43.5098
-68.2971
-28.6664
-2.30989
-13.38
-11.0193
-3.85046
-2.05189
-13.7004
-20.3696
28.3023
62.3765
75.0824
35.3855
-22.3464
-34.4596
-57.6473
-82.2188
-56.5157
-8.26114
-2.59045
2.21572
-15.0052
-4.78161
3.62079
20.1441
15.6671
22.7557
58.2036
19.2936
-48.805
-54.8544
-51.3172
-15.7903
30.8848
41.1069
90.6573
195.209
188.592
103.454
43.8142
21.424
-5.43915
-33.8742
-77.9351
-72.9833
-61.5204
-65.7843
-101.139
-87.3764
-89.3295
-124.603
-155.113
-95.0906
-57.6043
-18.8243
-25.2577
-60.8436
-21.3224
16.4935
60.033
146.145
189.825
191.396
173.209
111.453
61.1816
34.1821
7.62936
32.5822
12.2428
10.8499
1.41682
-46.4995
-54.042
-82.1656
-62.9879
-60.5163
-104.856
-91.8999
-36.8143
-49.8751
-71.1
-80.2208
-41.5426
58.0376
78.9552
81.6012
77.8993
59.04
72.4525
89.5725
54.2409
-2.89011
17.1104
16.7284
-24.4203
-51.7037
-56.3204
-55.8158
-48.2961
-70.5071
-84.4194
-68.3449
-12.2834
-19.4332
-4.26566
19.27
21.5831
-5.09151
-31.222
-52.4552
18.8533
86.9089
23.9298
28.6409
65.7851
97.2576
157.305
171.686
118.955
64.4992
14.8009
2.79419
-33.5081
-102.523
-133.745
-150.044
-113.529
-55.5899
-34.8074
-22.6779
-35.6542
-57.6688
-35.6269
-27.7001
-70.9343
-44.3744
0.5985
-0.291201
11.8305
18.1193
42.2496
46.4185
37.6823
25.6902
62.8448
101.428
81.4803
44.4293
31.4417
38.2787
32.2177
-1.96783
27.9959
45.3816
62.5667
76.1977
48.2048
-7.20898
-80.8608
-116.719
-67.3071
-49.585
-43.2276
-12.7943
-4.99534
-7.93234
-21.9497
-58.6861
-46.6074
-56.3098
-54.1441
-37.2117
-30.7373
-13.3409
-31.1681
-61.1247
-35.3827
3.45337
40.5766
48.7972
17.4808
18.1862
13.2766
-3.14164
46.6502
57.1827
42.2233
65.6859
64.6418
72.9749
70.9191
75.3175
45.4821
25.2419
31.0575
-23.306
-84.9196
-71.8686
-42.9571
-30.3844
-39.9403
-61.7327
-65.3429
0.20858
-5.7665
-36.0576
-13.369
4.14499
12.2323
22.4643
-5.00694
-26.365
21.6212
28.561
32.0279
31.9153
4.70057
-2.96197
13.5075
37.532
63.9085
51.2428
27.5629
-34.9292
-68.5362
-51.759
-58.449
-37.4603
-8.86755
-18.5554
6.63002
30.5577
34.7619
22.0221
-11.1726
7.0245
-9.52368
-32.5857
-21.539
1.09078
-15.6888
-36.2652
-41.399
-33.0673
-11.8531
11.9055
36.6856
50.5878
42.1656
46.8729
49.0605
35.9753
11.6016
21.1025
17.2311
-16.7245
-45.6403
-46.2028
-23.4323
-32.0905
-15.9762
27.1757
37.2355
51.2431
45.3221
26.8925
9.15768
-40.6173
-67.5226
-37.0274
-30.3731
-30.8029
-47.9002
-46.8377
-21.8822
-10.8962
8.23694
-3.46343
15.7852
68.265
53.3877
67.668
73.8015
42.483
7.3919
-37.9164
-34.6969
-4.05479
11.0496
-6.51235
-10.4416
-25.4156
-35.2058
-34.1364
-22.3713
-27.7023
-0.577322
39.1249
10.9485
-8.47734
-10.1522
-13.6717
-11.5276
-29.2782
-27.8451
24.9144
33.2912
27.6966
4.81558
-24.0411
-39.2979
-46.5928
-33.7784
19.7447
59.3951
96.6986
88.5384
98.8631
118.331
57.5018
-4.62226
-9.17748
-43.8131
-35.7562
-39.686
-62.6308
-66.2325
-66.9172
-38.2282
-25.0027
-25.1861
-8.79825
-10.9083
-31.6276
-61.5006
-95.0039
-43.0486
2.62279
17.7028
47.3964
56.968
50.5792
80.9917
75.4454
14.7178
-53.7077
-27.8111
-2.52551
3.67248
6.57354
16.8727
19.9138
12.0779
-16.4558
1.94149
31.6432
4.71826
-23.1471
-40.6999
-35.231
-0.582844
2.39119
-21.5803
23.1335
88.5687
111.535
79.346
54.9853
23.7352
12.3596
-15.5503
14.1343
33.4307
-4.88127
-51.5756
-85.1965
-91.9824
-110.063
-124.728
-69.9105
-43.5096
-39.7075
-25.4498
-34.9684
-39.6612
-34.5949
-26.9061
11.0905
31.9593
62.9688
82.1873
72.3077
78.364
109.643
129.61
89.1349
49.3654
54.5
30.6629
-32.6025
-58.4628
-59.9304
-19.4377
-2.5205
-17.9865
12.0804
-6.38277
-39.7429
-54.5887
-85.1901
-91.0547
-117.68
-92.5733
-7.62019
2.67525
34.5861
65.7027
80.0623
114.452
105.257
67.5798
7.00845
-60.2029
-62.6889
-13.3065
29.1955
36.401
-14.1499
-20.7324
4.12067
33.5466
53.197
22.1326
-39.3835
-58.3064
-80.7375
-78.9867
-58.9698
-47.118
-31.193
3.93479
27.6775
43.8605
19.4622
-9.25023
-60.8669
-27.5516
36.8929
57.4295
52.7986
56.6643
59.0098
62.1824
42.3333
15.3677
59.4269
64.9631
2.21219
-45.0819
-56.8476
-52.8679
-40.7891
-54.8447
-57.2706
-24.4302
-19.7712
6.8071
3.82666
-26.8067
-56.5106
-77.4678
-67.6799
-3.06756
16.6304
50.9227
73.7412
102.509
146.525
152.638
103.236
58.1638
-8.79596
-45.4606
-51.3522
-57.4141
-39.283
-70.5211
-93.8636
-50.2413
22.4739
24.0192
-14.8306
-64.175
-78.5368
-66.4219
-78.4702
-111.618
-119.715
-51.4602
6.08757
40.9038
76.3333
101.452
104.498
74.8841
58.4177
69.347
77.7514
63.7585
32.7674
34.5473
31.5652
-21.2589
-28.7678
43.4573
40.4961
25.5502
-9.85281
-71.4034
-88.9029
-87.5894
-58.4937
13.8144
59.5831
58.9661
45.73
26.9099
26.4362
10.0988
-24.9819
-60.4768
-38.1558
-9.5786
-17.0288
-54.4707
-46.2981
-49.5566
-63.9012
-99.6621
-121.207
-58.1487
39.1504
46.089
14.3162
28.2491
44.7751
56.0924
82.5125
72.6986
68.2485
58.1558
44.4691
49.2545
51.6838
14.325
-18.8389
-54.4295
-46.6215
-42.7723
-18.6798
-32.3159
-52.0219
-43.9112
-17.4216
-22.6274
29.1499
66.4245
34.0421
-1.31936
-6.22923
7.03262
-10.1371
-41.5066
-9.00705
-20.8224
-17.9423
1.2531
12.1765
31.5312
37.0922
10.7976
14.6509
-0.150892
-7.67797
4.85039
-14.1815
-35.7722
-32.9182
-25.9169
-13.0788
42.9725
54.5696
37.0439
8.28128
-5.00691
-2.23693
-4.46175
-50.65
-33.0049
32.0097
56.4562
59.2152
66.4127
42.8384
4.69863
-42.5262
-73.0028
-44.211
-18.3068
-40.7533
-62.6544
-52.0998
-30.7574
-23.6735
-27.8834
-3.92405
45.5736
85.8137
80.8017
50.2431
26.2235
-20.7294
-56.1762
-54.3476
12.6094
19.0372
7.46682
-10.5071
-13.556
0.993329
1.86576
9.90049
36.8121
7.37298
3.41642
-2.13597
-21.4519
-36.2967
-54.258
-51.4549
-8.40532
3.37752
53.2296
40.0458
26.266
48.6887
69.736
54.4794
16.3305
8.38663
5.37741
-44.0839
-54.976
-28.5231
-6.45731
-4.21123
-21.8365
16.2949
40.8071
15.9574
-7.73733
-36.5126
-56.8143
-69.7547
-102.504
-35.3095
-16.4271
-7.7958
37.7287
52.5275
44.8022
39.4318
-6.71264
11.1671
25.6172
25.2777
36.1506
29.0323
32.9866
25.8067
-26.1239
-6.47266
-10.5863
-2.47638
9.96665
-18.0539
-29.5137
-27.3798
-38.9691
-53.7351
-19.4297
63.5251
78.4669
39.2029
23.1142
14.2571
13.854
-6.38433
-62.2331
-86.387
-52.9516
-35.8863
-1.90072
24.9503
37.0434
23.6003
11.8003
-25.9723
-4.96181
58.81
42.9036
23.5588
6.19058
-8.03917
-16.8101
-40.06
-45.0574
11.7356
31.7121
32.1741
16.8824
0.874426
-15.461
-37.4182
-19.015
-26.1727
-31.7208
-1.29293
6.31796
-17.2609
-24.0173
-53.9738
4.23129
26.9217
29.3
38.2466
24.6387
-8.98305
5.07312
-1.42704
19.6527
28.2544
69.4037
66.1973
12.6759
-15.6362
-13.0841
-4.80921
-0.634031
-46.0334
-26.5888
26.7934
10.9836
11.9777
2.71123
-3.92143
-10.0592
-46.4768
-53.0914
13.173
5.29918
-9.06614
-47.1838
-35.4803
-12.2581
-26.7647
-26.8405
26.2316
18.1556
23.6583
-6.34456
-22.0656
0.708033
-13.4662
-26.6628
22.324
60.5507
42.2585
35.3483
18.2397
16.5019
7.01612
-3.83143
-11.6164
-0.46731
31.5432
35.959
5.06755
-10.7463
-30.1759
-50.5783
-54.439
-75.1451
-12.8854
39.6305
15.9797
29.5467
62.7488
104.778
113.21
43.0376
-17.5803
-1.93046
25.7918
-7.52805
-56.6638
-82.7437
-96.1909
-77.6599
-73.5186
-19.8736
-4.2154
-8.23504
-15.1877
-16.1197
-11.1442
-27.6642
-48.9479
-27.4508
-14.351
1.60606
21.8999
16.8853
20.6927
8.93732
5.63379
45.0223
44.0412
71.5212
109.2
94.9547
67.4802
49.4676
11.4653
57.8084
52.2757
16.0087
5.28127
-44.3564
-72.5648
-50.8903
-38.7762
-68.7314
-72.9569
-33.1765
-5.59096
-21.3367
-26.4449
-37.0113
-38.818
-62.8957
-78.4796
-15.6857
-3.98477
-39.9042
-28.0367
-5.07523
28.9721
53.5345
61.83
112.288
124.798
83.3547
59.3387
69.1135
77.2354
41.3305
-0.932731
-40.8845
-56.252
-24.6517
-27.4258
-59.3856
-57.8219
-66.3262
-65.0298
-86.9896
-65.1993
-24.0558
-30.2879
-40.3706
-32.3175
2.42089
11.2728
-18.7794
-2.28799
49.2699
65.2159
72.4075
72.864
58.5209
60.1116
44.8112
20.4912
2.93184
8.86667
33.196
24.6316
-18.6366
-30.8008
-14.7994
-8.76969
-44.0349
5.08247
45.9541
29.3313
-5.26375
-15.4206
-20.8844
-24.4383
-47.5968
-4.50041
4.87615
4.16903
-5.74591
-21.9869
-18.4312
-23.0254
-45.6433
-18.0723
-19.873
-30.3078
-5.54673
-34.6988
-43.6653
-47.943
-49.1013
15.3026
44.2649
57.4119
60.5226
50.6813
71.6935
90.1685
65.8879
39.405
58.4306
38.2248
24.5449
-3.88221
-38.8462
-51.3282
-37.1889
-59.0998
-83.6625
-13.987
-2.61782
-46.3021
-41.9043
-26.642
-17.9238
-14.737
-25.0424
-45.8356
-37.5369
29.2063
10.5753
17.9421
32.3432
28.3394
25.2693
36.7731
32.5437
68.4838
44.2999
-0.793188
-8.8192
3.48739
3.19388
-16.1347
0.518403
18.8165
11.5609
28.4081
39.5324
-8.12268
-22.5561
-47.3195
-44.437
-12.4158
-21.7132
-16.9735
-3.87954
-40.6945
-55.0097
-71.7065
-46.6402
59.8052
137.405
131.062
76.3159
13.3417
-27.6648
-35.8255
-29.5691
-45.7748
-35.6085
3.95795
1.77185
-19.9527
-9.91791
-12.7656
-6.77569
-25.4163
-7.64489
34.1341
26.9621
-21.5358
-59.198
-55.7373
-37.6591
-44.8649
-6.75707
33.1825
40.6677
52.7902
48.9459
29.4918
30.0619
3.72783
11.7322
22.4174
16.0723
26.3881
37.1
23.3753
24.1782
-16.2776
-54.6654
-7.27875
37.883
26.0814
3.72096
-27.6541
-40.8887
-42.5958
-42.7685
-60.3667
-34.1106
-7.77398
1.53792
-10.8373
-8.16865
3.65098
21.655
16.3978
-33.4698
-23.0468
41.7923
27.4909
8.56524
19.5551
24.3368
27.763
22.4988
-27.5776
-13.5207
5.72466
-2.22157
-2.4535
-10.5704
-9.45929
-23.4018
-10.3655
36.2337
32.5842
54.1981
23.8799
-23.8225
-37.4926
-64.0827
-29.3416
-11.2022
-36.1411
-24.1749
-3.62956
-3.03767
37.3879
59.1104
85.3396
99.9741
87.1418
57.6489
10.9643
-37.1318
-51.99
-65.5514
-76.1719
-21.6247
-2.94046
-3.64481
-16.425
-30.6385
-22.6613
-36.973
-51.8557
-77.1404
-23.8149
-3.65832
-19.7651
-29.314
-29.4106
-10.5451
13.5056
-24.0612
24.1831
88.161
82.9552
37.2117
34.1113
85.5173
127.678
119.96
118.43
89.7768
50.4249
15.5178
-40.7951
-74.3432
-95.2217
-111.558
-125.598
-107.79
-34.8579
-7.95928
-26.4344
-41.1006
-22.5814
-31.889
-53.1025
-65.6854
-33.5255
-36.8279
-38.5496
-17.3494
23.055
44.3761
26.2361
9.93488
66.2181
97.5606
102.336
103.082
63.5861
61.296
59.7024
61.3514
29.3259
10.7717
-3.63425
-39.8363
-81.5948
-63.5241
-50.4506
-36.3297
-23.822
15.5066
16.1501
10.3803
-15.7745
-25.2289
-21.1959
-40.9597
-58.6888
-12.2667
-25.5158
-43.9467
-19.3595
-4.99116
10.7715
-5.35064
-26.023
2.50606
1.7018
15.8077
41.3892
42.5699
41.0471
10.6297
-0.403469
82.179
94.7065
87.5492
50.6132
-14.1443
-32.9708
-49.2821
-66.6918
-35.1435
-11.1472
8.77196
2.54647
-24.0369
-29.7078
-34.7691
-33.9474
-49.3836
-34.2504
2.23453
-12.9802
-67.9851
-47.4048
-0.946018
45.271
62.0656
35.8005
58.2333
97.3828
48.9377
28.8847
29.5392
11.8044
-2.54016
-13.7882
-12.4485
-14.2242
-39.9564
-51.1819
-22.2864
-0.996026
-18.7625
-34.3226
-19.3891
-11.0264
-13.9643
10.197
12.4844
8.98931
8.36707
-31.9394
7.83501
53.5052
52.4739
55.083
27.6518
39.6167
43.1876
-8.47426
-59.4017
-56.4505
-56.5978
-56.7434
-58.8655
-21.6735
26.5051
58.3779
48.371
18.0764
58.4461
80.7543
42.3625
-21.4155
-49.0461
-50.5805
-44.9366
-66.395
-45.2749
-9.02308
-4.89133
-15.8091
-14.6704
6.01219
0.0455425
-40.3588
-23.2028
-20.7551
-27.1539
-32.1499
-37.9188
-13.9638
-8.13662
10.8388
69.3224
71.7026
67.9933
66.5715
64.679
63.7469
23.0218
12.04
58.1357
68.5834
64.5713
47.2373
-6.19134
-26.5714
-35.9006
-47.8063
-91.4754
-66.4304
-36.7847
-40.8257
-47.9893
-29.4857
7.61164
23.663
47.3298
50.4843
93.9755
98.6621
19.1259
-44.0648
-82.4158
-85.7954
-85.5077
-91.1504
-93.1292
-18.3106
-2.97061
-28.0821
-29.2288
-5.81781
-7.32954
-21.8477
-18.4472
30.4677
15.1409
10.318
16.1707
12.502
11.7942
13.1965
42.1027
82.4113
67.6476
59.1303
65.4885
40.8406
28.5828
-16.5421
1.80921
22.0086
15.7921
20.7263
30.0467
20.9232
14.4685
-3.95483
-27.6856
-11.776
-8.09604
-1.47103
-15.4957
-46.4965
-49.0681
-37.9912
-41.9888
-52.2396
-5.24834
11.593
-11.6024
-39.5124
-59.501
-74.0701
-100.567
-87.4917
-3.12507
28.9391
68.1994
86.5569
79.4997
52.9956
5.09048
-22.9835
20.4863
33.6554
39.4675
33.1967
19.0213
32.9596
22.003
8.00124
-17.8656
34.957
27.114
-7.86978
-32.6193
-36.5654
-49.0294
-70.0934
-87.6318
-25.8843
48.2867
57.1517
26.4547
11.1607
21.6974
20.8379
-5.68881
-30.453
-32.6468
40.9747
52.3483
26.8201
32.7472
19.7316
-15.9251
-26.0029
-58.2643
-51.4225
-8.80391
-7.02907
-21.0788
-2.97851
10.1165
-9.57924
-25.2782
1.2637
-3.66847
15.705
24.6395
-1.86032
13.4134
-7.39568
-1.0542
30.3256
8.41588
-6.84895
-1.98046
-8.48179
-12.2753
-41.655
-20.5561
25.6742
16.1771
20.6785
19.3819
10.0837
13.1061
-17.5839
-2.53228
18.3721
22.9229
7.9354
-1.24578
-21.4991
-16.6772
4.65277
29.038
47.9335
42.766
19.033
-21.5156
-65.7083
-92.7358
-75.6987
-28.9546
-37.7287
-18.0506
45.6771
50.3607
2.8681
2.84739
14.069
19.7638
17.2242
5.18262
-24.6658
0.229048
21.6778
1.80009
12.8114
20.764
30.1036
48.5031
22.3883
3.15752
36.9702
30.1305
11.8206
-8.27832
-28.3443
-33.125
-41.1262
-50.5045
-18.2309
-10.7535
1.0208
-10.414
-38.1316
-21.5772
-17.2037
-28.3837
-24.4432
-16.9431
1.65177
1.23989
-0.284046
9.07855
-3.43253
16.9343
101.915
125.008
117.462
64.4817
-8.69931
-31.2059
-31.5106
-67.4942
-64.9472
-44.6256
-33.8491
-22.519
-24.4198
-13.5857
-10.3337
-35.8806
-8.46261
6.09442
-5.13534
-5.77711
-36.7347
-40.6304
-13.5682
20.3974
82.8859
92.9205
71.6012
61.2004
23.9324
-0.546104
-7.67539
-19.9442
8.48614
5.76656
9.28888
30.4545
-4.41692
-30.3844
-42.913
-68.2728
-75.5704
-6.12404
-3.34776
8.77846
-7.13626
-12.8727
7.442
32.3639
-8.36963
-10.9776
39.0063
35.6685
-15.4788
-41.2225
-30.1155
0.203051
2.26378
-16.2168
5.21213
60.02
53.1501
6.8649
11.4664
12.8187
-6.16192
-9.71121
-29.6366
-25.5178
23.1077
9.14137
-13.0503
10.5616
28.7954
25.7109
-22.6241
-6.48257
23.0099
29.0908
29.5054
-7.65504
-23.4347
-43.4535
-69.6263
-25.8936
-15.7119
-14.5011
-7.77387
-6.68138
-10.9467
-10.211
-25.6337
-21.1771
27.4948
38.7257
54.2614
32.1111
-1.72095
-1.17353
-16.1036
-23.1051
13.3649
1.3105
14.8523
-5.29703
-13.0741
-4.6428
-0.573421
-14.3115
34.5603
45.0562
31.4279
3.96957
-33.453
-21.0215
-20.0838
-7.91643
37.1437
40.56
45.0623
57.7458
50.0372
43.4017
0.677713
-88.0047
-79.4972
-68.296
-55.5142
-16.7663
10.8322
39.7767
18.4878
12.2603
13.871
43.2816
30.9766
-7.02659
-73.6293
-87.6
-81.2729
-114.175
-110.503
-21.2657
33.1623
78.8611
90.1038
103.22
94.7874
51.4096
-34.1124
-47.3378
-40.5739
-38.5171
-18.1347
-9.46624
14.6842
35.3379
37.4538
16.2409
46.8455
93.3135
52.7656
-14.2577
-10.5747
16.2774
-14.3679
-69.0776
-29.7669
25.7641
0.997617
-30.0187
-22.2302
-10.9893
-25.8416
-38.97
13.8501
11.649
7.14253
44.5741
61.4687
54.0885
32.1187
-8.33822
-14.5318
-42.4084
-45.1808
-21.8123
-41.1673
-67.8621
-70.2789
-37.0108
13.3671
30.2843
19.5916
8.22982
-22.4529
-27.9032
-19.9854
-43.393
-32.6541
8.70616
20.5858
25.1295
19.5496
29.5952
40.3133
46.4959
34.2823
3.85217
55.4438
77.9642
33.3536
17.5508
17.631
10.9084
3.15315
-0.858207
-25.0818
-5.65053
17.0579
-20.9516
-49.5898
-51.917
-48.4718
-31.2624
-26.1491
-0.645635
74.3486
71.6356
36.299
-1.76837
-12.4067
-50.6282
-99.5638
-70.9778
-3.44693
3.36052
11.7443
1.81193
-31.0892
-39.3589
-32.766
-21.2342
31.4851
39.5868
31.9312
17.3537
-26.273
-13.5595
-15.357
-18.3175
33.8782
65.4485
72.6644
50.4134
9.54958
3.67096
2.62991
-6.60228
-5.99352
4.40722
32.8316
38.4904
-0.310132
-14.1047
-19.3233
-49.4271
-56.3047
4.54871
4.57601
2.40496
-13.3678
-13.4356
-17.6277
-42.0999
-36.5345
-20.7696
-3.87312
42.1864
37.5501
13.8913
21.4238
22.1635
53.2457
42.5356
21.4263
17.3379
-2.31227
-39.3038
-39.5557
-61.5781
-28.4973
-7.93284
45.4916
42.7681
5.72694
-12.7291
-16.7631
-28.7887
-50.0499
-76.5069
-31.4517
-8.22484
-23.6845
0.0365075
19.8988
32.6266
39.6405
38.0931
47.8375
102.476
83.1364
27.2754
-19.4806
-15.542
-13.1723
-8.72907
-23.6134
-42.1553
4.4067
2.30812
-45.1891
-78.7726
-65.2438
-41.8639
-35.8498
7.56497
49.4978
38.511
15.5981
-2.44345
-15.2036
4.29031
-19.5942
35.4666
34.9184
26.5248
40.9973
46.5978
11.2676
8.73694
-26.5839
22.3068
41.5056
5.85596
-0.53084
-11.5978
-37.3117
-33.3824
-24.4439
-41.9553
-16.8931
-4.11564
3.78742
-15.7445
-12.9942
11.8821
20.4538
-2.92662
-46.0562
6.06435
51.354
31.6997
-2.45875
-0.850328
-0.836652
-31.2654
-52.0289
-11.5554
8.49842
6.31705
-12.1654
2.25207
19.7363
1.31968
-23.472
5.61098
53.214
46.8951
43.0564
21.9745
12.5627
-9.03841
-25.9419
-43.3764
-40.1487
29.1673
21.1484
-3.76278
4.10027
7.92695
1.38433
-5.9791
-37.8819
-33.2137
39.0156
-3.72056
-36.2071
-14.6302
-1.5435
-9.59037
-11.503
-16.4214
12.2387
31.1889
29.1983
9.91368
24.3305
7.84444
1.94779
6.7058
-35.6708
-15.8812
60.4806
55.7219
9.00043
-17.135
-54.7589
-62.97
-66.0798
-37.2874
5.56418
24.0716
24.2518
21.0533
26.2868
21.9279
12.1121
27.749
59.9108
36.8549
26.2733
-6.64655
-29.5473
-33.5712
-47.4253
-41.3181
-4.87159
7.04652
19.7525
5.87785
-19.1783
-21.3994
-55.4425
-54.1901
-0.478961
-5.76365
-11.5191
-18.6797
-34.2331
-18.0898
12.6964
13.7761
5.64496
6.67704
67.6734
68.8048
41.7647
47.9778
39.6498
33.252
20.0708
-14.965
16.8758
30.6167
-27.6541
-49.2486
-43.097
-37.3312
-31.0947
-6.74338
36.3357
55.3855
99.9809
81.9585
12.7912
-29.1943
-57.7028
-57.168
-41.8947
-44.4689
-34.8135
-13.3223
-53.785
-62.3209
-35.4737
-6.83345
1.72539
-11.7208
50.1561
59.9935
36.5668
10.973
-36.5488
-42.2966
-39.8831
-44.8504
-44.1577
9.70485
21.353
9.02324
6.87539
31.3054
26.8716
15.6406
23.4217
3.28748
9.9727
56.9331
14.7192
-10.8134
-1.45676
42.8235
46.8361
20.1434
25.9256
95.1301
87.8742
39.1076
11.8039
-7.13507
-23.5532
-56.0513
-43.0902
-11.9533
-66.2386
-63.399
-40.2644
-43.1992
-45.0597
-59.6218
-60.0091
-1.45032
-12.555
-4.69279
-5.79633
-18.3693
-3.25418
-26.8235
-0.861417
45.1486
47.4923
55.426
51.5178
38.7878
53.3353
27.5562
-12.2641
-9.06879
-14.9381
-5.16478
13.5975
-9.49991
-9.17783
-10.3748
-37.7382
-74.7651
-36.9017
58.559
37.3696
4.8771
12.5981
11.4228
10.8394
-0.0101135
-15.3761
6.5172
38.7113
32.9548
6.07414
-4.70232
-31.0133
-47.0153
-27.0325
-24.1239
2.53346
18.8311
15.6391
-8.59898
4.54539
7.44258
-13.8533
-28.561
22.686
35.272
43.0692
36.2053
13.1514
-7.95893
-23.9846
-24.8607
2.51165
-18.3857
-34.0681
-15.648
-4.9466
4.87577
-8.57591
-51.2713
-9.91241
13.0961
20.7352
22.4238
-15.1937
-24.2107
-5.2164
-2.95743
-16.7956
2.16214
32.8239
41.3788
19.6903
6.03713
8.35817
3.1566
-13.2682
34.9812
35.6234
25.4331
-0.545887
-10.1376
-1.65354
10.9407
0.845365
30.0669
17.1896
6.24525
1.20681
-29.0732
-39.8285
-35.0317
-62.3926
-50.1972
-5.50815
17.2357
10.7463
-18.1291
-19.9251
-13.1797
-8.37181
-42.5708
-28.3402
39.5788
44.04
14.6634
8.62801
12.7836
26.6629
7.60026
-21.6076
-29.3937
34.9747
36.1524
4.71047
2.4834
19.0175
11.7496
6.94448
5.64322
-26.7616
7.24821
23.6715
-16.1148
-24.5897
-23.7319
3.8773
9.16557
-7.33853
10.0875
39.119
21.4764
-22.2418
-27.3531
-17.6587
-1.0356
-0.432404
-3.18481
9.98108
6.71354
34.2633
36.2134
4.33995
-9.76649
-17.6546
-24.8886
-27.7998
-13.5748
-5.883
-46.2282
-22.5781
19.5405
-5.54403
3.00935
-2.47564
-19.3432
4.81515
38.4421
44.139
43.5913
21.4205
-15.5716
-22.4514
35.3674
42.5029
30.542
11.1927
-17.7459
-21.8095
-16.3133
-47.1792
-83.6441
-37.6319
-69.8653
-62.5732
-10.0575
9.05217
5.58389
-7.7078
-14.2492
15.3933
49.3169
110.592
47.4764
26.8024
29.7878
21.9824
8.11151
-4.11163
2.6772
34.6887
35.4304
18.2108
25.7878
14.7974
-0.761173
-5.44971
-33.7064
-13.7049
-21.6105
-42.6348
-49.5907
-68.4342
-60.0144
-44.0913
-62.9465
-45.2274
41.8886
48.6832
36.365
11.8902
41.2258
37.3234
27.5835
3.75267
-31.2374
-40.9779
-21.5032
-2.36001
2.36896
15.1944
27.6317
15.1782
3.17671
-19.9947
5.73701
23.2134
-2.79174
1.89195
12.8461
18.2182
20.2105
18.0272
66.8889
90.5441
53.4636
1.38815
-21.6389
-51.6005
-43.2105
-62.636
-54.0544
-25.368
-19.2264
-17.7464
-28.3078
-41.0839
-34.5778
-9.60498
21.3221
45.1619
24.915
0.0974297
-35.9503
-37.6844
-12.8331
-1.86928
-25.2197
2.18157
19.2902
42.2796
49.5173
20.9933
20.123
35.136
21.9617
6.18087
41.005
36.7629
3.16225
-30.8087
-21.0699
-14.5586
-11.3537
-22.7393
-43.7717
5.52385
45.4182
19.8314
10.0154
-5.12449
-21.221
-18.0338
-32.2856
-9.66928
27.9647
24.8227
-29.1521
-27.6455
-7.03409
-27.1732
-46.8087
9.8112
18.9169
13.6569
24.3892
6.56536
3.46916
-5.95558
-28.7161
4.18413
22.2759
7.99441
28.5105
27.4193
13.415
10.3417
-8.21849
-33.422
-19.578
30.1402
23.6252
-7.8865
-13.2021
-12.8965
1.82623
-3.37697
-30.4735
-26.1136
44.0101
24.1836
3.4616
1.36322
-2.92533
-10.0304
-36.4452
-17.4427
1.365
7.42932
-3.57892
-28.4689
6.96409
9.2908
-15.5082
14.3589
25.5985
17.0099
27.4605
17.871
-11.9557
-33.696
-61.4543
-11.7834
27.666
32.3242
45.9235
36.4937
14.4577
21.1702
-9.93525
-10.3675
20.2768
-4.82104
-16.5059
-24.9782
-22.466
-39.5851
-43.0886
-32.0542
-39.4943
5.25799
28.0781
-9.38226
-14.2837
-7.62287
3.1852
3.88173
-31.5189
7.11642
49.3776
51.8828
42.0842
39.0901
37.2348
10.6354
-16.1827
-17.6864
-4.57877
42.7226
31.0565
-2.30673
0.0883158
-2.5056
-10.7674
-23.0874
-47.817
-13.625
4.6532
11.1011
18.1065
1.17651
-38.0193
-63.9844
-56.1358
-12.7413
10.0926
16.9387
20.7713
-9.60051
6.20765
4.41252
-5.72481
21.7388
2.98624
1.98583
14.5057
2.49383
18.9692
6.70571
-24.7775
-24.4142
6.32149
10.4207
3.81015
-7.0714
6.90133
38.1263
45.9072
-1.97052
-16.1483
14.3244
23.4765
-15.019
-15.8034
-6.03296
9.33881
-15.0802
-29.2614
-6.13718
-11.0163
-10.4819
-21.7939
-14.7895
5.73746
6.19909
-11.6462
13.4305
14.8152
23.0846
24.6233
9.13719
-7.8133
-16.4552
-18.0771
-44.1471
-6.12483
39.5907
24.3957
2.88195
6.24751
5.50708
17.5286
2.85219
-31.9716
16.9
42.3444
-6.09985
-15.7851
-8.75298
-13.0294
-22.848
-24.1352
-30.069
-4.18553
15.186
-7.82052
-13.4209
15.0972
9.75959
18.0753
9.53213
-35.8607
11.6493
38.7704
11.945
1.40561
-17.2181
-30.9202
-30.4132
-34.0634
-5.6429
26.9347
35.5776
29.1302
29.1597
15.3243
-6.98576
-35.9105
-1.00672
28.5012
22.9446
33.3701
7.78315
-3.53443
-34.018
-53.0427
-7.31902
7.68474
14.2893
18.8519
1.20972
9.86838
1.12017
-11.3432
3.96214
-9.77581
-17.4289
8.14893
-10.3062
-20.0997
-15.1724
-32.4354
-22.2738
45.7114
41.4675
25.8118
2.53087
27.0282
43.182
31.143
-13.9064
-32.3344
22.1785
31.7788
13.7889
6.1028
-8.26855
-23.776
-38.9673
-46.227
-54.7761
-14.273
4.18929
-31.5855
-18.5211
14.9689
14.1315
-20.2111
-55.7208
-14.1844
6.01213
14.8226
7.28446
-7.3841
-1.25685
6.17176
-0.664796
39.8187
9.4282
4.75558
26.488
18.5503
32.8559
28.9819
7.29787
-15.1489
5.8578
13.5929
17.5766
-12.3736
-7.46215
-13.8979
-21.6809
-25.6262
-50.2196
-3.33853
25.3777
-4.05807
17.0324
30.3194
30.8
12.6721
-31.5026
8.75744
6.298
5.67519
-10.0737
-16.0643
-6.90341
-16.7489
-27.0612
2.36918
24.5622
23.2025
31.3514
7.50328
6.2057
-8.64465
-42.9622
-2.05795
-2.61223
-5.42411
-8.70626
-25.8933
-7.77833
4.21038
-4.97151
16.4617
7.84279
21.3286
26.4713
-21.8148
-46.1279
-43.5718
-35.95
1.84463
71.2526
64.5653
50.3813
3.93822
-8.87464
-6.61044
12.0909
2.87375
-3.19688
8.69402
-18.9232
-31.8123
-2.03145
2.84743
-6.76185
-13.9503
-33.6596
-14.4864
31.1108
32.4026
-10.0274
-15.1572
-15.416
-23.7136
-15.4154
1.92072
11.1295
15.0941
-3.55305
-7.46148
15.9064
13.4064
0.274946
-36.2252
-13.8425
15.4567
15.5847
14.9528
3.96155
-15.6916
-27.4741
-36.2726
21.4658
25.0604
24.0468
22.3143
11.0748
-6.67575
-8.80356
-15.815
-14.8755
8.58135
39.7833
55.0789
44.4763
25.8718
9.36676
-1.59163
-6.6105
-50.6399
-50.5966
12.5953
-11.1757
-21.9204
-6.84479
4.90937
3.84969
2.42847
-13.8778
-13.6739
-12.1889
-20.4614
-29.6371
-17.3548
-10.1584
-5.04399
-9.70459
21.1756
15.7061
29.5519
27.4286
9.71097
-0.196066
-19.7673
-15.7948
17.6202
19.4324
-7.39625
-3.37406
8.73038
17.2249
2.24046
-12.7542
-29.1439
17.6564
25.0865
38.2695
10.0539
-4.87589
-0.21793
-4.06655
-25.5748
-51.5767
4.72363
23.2634
-2.65155
15.3069
22.8448
17.8615
2.23032
-1.60622
-30.8312
-43.8754
15.4028
-16.5195
-34.3717
-8.79079
5.01009
-4.60547
-14.4399
-19.5557
31.2244
35.0006
14.3352
3.09153
-1.17874
0.300736
-18.1387
-34.6269
-14.9965
-8.29725
27.8436
38.6839
10.4999
20.0774
16.4985
-2.27208
10.8482
28.7617
32.9649
18.485
-4.46011
4.28582
-13.8598
-42.9986
-3.87527
-14.0117
-20.3187
11.5447
9.55297
6.25166
3.82802
-22.4106
-43.1066
-8.69376
14.5887
11.7209
-10.9284
-15.8551
-10.9934
0.984396
-14.8828
-22.8464
6.99193
24.1705
-8.32293
-15.4255
4.77303
10.8508
-2.70594
-27.6005
-24.7375
30.9497
44.6303
13.648
7.8495
14.2377
-6.04633
-8.47291
-18.3617
-22.63
20.5724
46.7962
36.8306
30.0156
-3.10941
-12.5007
-11.9676
-21.9394
-2.22248
13.1489
6.56116
-9.42023
-20.807
-31.5324
-39.2574
-49.0568
-0.427811
-0.793486
12.007
35.1649
26.7856
12.4409
-2.5999
-12.2169
-12.5981
2.29681
-7.84388
-19.2205
-17.4407
9.50013
32.6909
17.4221
6.78761
12.9399
57.5281
38.7192
-3.4956
8.27959
16.7756
9.2918
-25.6377
-7.12553
-17.0489
-9.29051
-12.2629
-20.5054
5.92799
22.6717
-10.7588
9.42925
-5.45687
-14.1972
-12.513
-17.8075
-36.273
-35.9412
-39.1338
14.6276
13.8683
2.0803
1.66677
-21.3168
-19.2978
-3.81292
-1.46567
45.1023
28.899
22.3293
14.271
-9.87291
-11.2768
-3.05667
6.19734
-8.14008
0.351436
43.9175
32.6467
5.7073
9.14212
7.17615
4.08859
-6.97134
-23.4393
-3.14293
19.1142
-6.25692
-12.7554
-11.1068
-3.26551
-18.7272
-32.2665
-46.6683
-20.3459
2.24702
-4.34037
6.05705
36.8957
25.2713
-0.189516
-46.2723
-5.6435
20.8665
45.1428
30.9627
21.2106
7.49826
-16.2193
-34.3675
20.3418
20.359
13.975
26.4399
9.60558
-7.84389
-13.9785
-39.8687
-6.80506
-18.1597
-14.9832
16.5468
6.87388
-2.75477
-13.3641
-29.5613
-75.123
-45.2953
34.084
35.9519
-6.77751
16.6563
26.268
24.2685
33.2675
15.3065
24.4752
17.4535
-11.4921
-12.3317
-0.0450203
0.592657
-29.4383
-8.39607
27.4178
11.8045
34.6292
14.36
-16.3463
-8.72852
-38.8905
-25.0989
-1.50776
-1.45174
-11.3535
-5.95398
-11.8781
-14.2537
-37.6451
-49.5343
-6.03614
57.0071
36.4537
12.7069
-8.46586
-11.7944
4.44102
22.0602
18.9306
37.9501
34.2911
-5.74955
-26.652
-9.63174
-3.47229
8.1349
15.2045
-1.74159
-5.86898
26.5597
6.75838
-27.8866
-16.9873
-17.9656
-18.5005
4.28269
-7.85376
-11.3948
6.61177
-10.3688
2.75349
-1.64673
-3.53441
-6.8488
-22.2486
21.5858
10.5335
20.6964
26.2274
-2.08233
-20.1054
-40.5788
-28.3957
37.6559
31.47
31.1991
45.2291
14.4525
-19.8824
-37.9694
-40.5484
15.8192
12.245
3.96954
10.9919
-12.34
-3.72793
-11.9184
-31.5031
12.1838
11.0771
7.87342
15.6459
-10.7058
-14.78
-21.6009
-43.5041
-58.1669
26.4718
42.7679
35.082
1.87489
-4.5911
-10.7355
5.86905
-12.4129
-5.2977
33.8539
48.3484
19.8225
18.1442
13.8665
4.70939
-33.3113
-51.9967
-44.7919
8.1228
28.4928
-11.0326
16.6215
47.9405
32.7918
15.1061
-6.58832
6.31891
-4.37113
-21.9631
-26.5949
-18.8729
-30.2251
-43.5335
-48.7776
17.3846
18.2565
24.4524
15.6727
-7.52699
-8.58738
-31.4703
-17.3645
-11.9799
-22.3758
7.41184
27.8043
11.1174
11.577
14.4085
-1.00997
0.200928
24.6894
54.7935
46.3075
12.278
11.4117
9.68984
4.10816
-19.2871
-8.08069
24.6387
-4.91654
-32.4652
-25.7172
-12.7228
-6.11992
-39.2548
4.74369
19.7314
-2.03881
-1.20314
-5.77816
-8.73684
-1.39642
-30.9062
3.67324
13.4228
12.4474
12.4512
-4.13738
-29.0597
-48.7293
-30.5897
12.6816
-3.546
-0.32845
30.3809
17.6831
16.7764
9.80242
-19.5859
18.9396
19.3214
29.2315
28.2988
5.27413
-2.50541
-3.73107
-0.515758
-23.9467
-22.6558
34.3476
21.7093
-8.95172
-10.4592
0.245091
19.1789
9.55373
-31.6504
-60.0316
-12.3222
19.469
9.93059
-7.01378
-23.6746
-32.357
-12.0393
-4.5742
-10.9481
58.8699
47.2417
7.05458
1.75183
0.401327
10.7267
1.95382
-39.4073
-26.0842
-2.27628
36.8245
26.2115
-21.9372
-12.6965
-18.7716
-32.0438
6.50764
10.9967
16.9439
19.2885
-7.98394
-0.943111
-12.284
-23.5987
24.7904
29.7094
5.96393
10.2916
-1.32545
2.47865
13.8283
12.2156
-11.1016
-23.656
40.4651
45.9388
9.96504
-8.21914
-13.4115
-3.87548
-28.4207
-54.3344
-5.66842
1.45796
-24.4416
-23.1603
-5.29979
15.1796
-22.7517
-30.8537
21.688
13.2131
-4.40649
4.08359
-17.9049
-6.37521
-9.06257
-15.1975
3.88175
-0.588563
35.112
59.9764
34.7978
30.668
-6.77275
-23.9902
-0.357942
9.79528
12.6866
14.5168
-2.57248
-1.80826
-7.99292
-29.7983
-15.5167
24.444
29.7886
30.2425
8.34871
0.580445
-16.1305
-18.0843
-21.4233
-29.4233
-6.3567
23.7127
-4.88434
-22.5685
-13.7535
-8.1592
-18.0593
-13.8321
-27.2677
-6.48004
16.2768
2.08656
9.09771
10.1527
3.04178
9.71369
-26.3223
-36.8467
26.1135
44.0738
28.9781
-0.85811
-6.77617
-4.4937
-19.6963
-16.835
27.4079
24.3837
21.7192
10.3073
-19.3539
-20.7814
-30.8942
-16.5031
7.73889
0.252294
9.68556
27.2863
2.49525
13.8793
-7.78446
4.66535
23.4951
27.2259
24.5031
16.6011
-16.4651
-20.0412
-6.907
-5.49961
-20.1404
-6.05158
32.816
20.9446
-8.66776
-9.84428
5.56109
1.55101
-40.4912
-34.7217
-5.39215
-34.0121
-47.702
-32.2114
2.03852
7.48606
-18.8142
-30.0731
10.535
54.5473
51.9759
32.8779
7.83777
1.60536
-3.12946
-4.89118
7.73663
36.4372
11.7083
-7.95601
-5.81106
16.4635
20.3818
-11.2073
-12.1435
-3.1483
0.466321
31.2466
24.8274
-10.281
-27.1434
-52.6425
-35.3558
-1.8201
22.4762
35.6357
24.7405
-0.0734387
7.36785
4.6995
-7.0626
-25.7515
-7.71127
-9.5794
-20.4473
-26.6706
-11.2377
7.12686
-2.32536
-19.0509
0.604987
12.2486
19.3766
15.562
-2.75557
-13.2154
-35.6091
-34.0138
24.5718
20.9424
7.00604
13.9989
-2.32114
-9.41307
-17.1443
16.1674
84.3786
52.4933
9.39381
-7.55454
-37.832
-25.8374
-33.6052
-37.4492
1.04644
2.4687
9.316
2.96796
-19.922
-8.93371
-12.6986
-20.9995
9.2328
37.8849
41.3711
16.9638
-22.1406
-26.7376
-5.38099
29.5229
22.8705
24.7022
41.6482
12.5433
-3.08542
16.517
15.7022
8.49037
0.590138
-18.782
-29.8039
6.39825
-1.82167
7.35917
18.4258
-0.383919
-30.6335
-34.5905
-57.2953
-36.7581
13.9923
8.89022
-9.4876
-2.82794
-18.2536
-8.08265
-9.18153
-7.0102
-14.1378
-5.63643
9.55444
-1.17341
-21.8885
-29.748
-33.126
18.4649
16.833
20.6333
29.3619
16.9922
8.42626
-5.23062
-42.5164
11.7023
10.7799
45.0052
40.5872
27.5708
12.7177
8.09684
8.88202
-4.81438
0.490483
43.383
20.0667
-27.2851
-19.7282
-6.16523
19.5263
-4.02138
-33.5636
36.1963
43.2676
5.29401
-8.15425
-46.8636
-44.128
-53.6371
22.7472
63.9547
31.2474
9.84787
-10.9779
-52.9288
-25.9405
-27.2186
-12.7606
20.3241
-4.19252
-4.27783
7.8505
-12.7171
-4.69096
-16.4536
-20.1032
-0.804496
31.7565
28.4024
-11.9337
-39.144
-31.0765
-7.91034
1.91534
-17.3089
-9.57027
25.5638
3.12653
-13.7416
-3.61856
3.53539
22.993
17.4663
7.00168
18.3912
74.5033
37.9171
-1.26115
11.7097
-0.309142
-8.65656
3.1333
-4.31132
-39.5962
-5.20596
15.4693
-10.3504
-5.04124
-6.25379
-4.35539
1.95971
-20.2231
3.01471
23.973
10.8644
-28.2808
-27.3901
-5.39703
-25.3709
-30.9889
20.9186
18.7508
23.8438
40.6102
18.0536
4.03839
-11.6216
-2.83764
-3.63749
-5.86627
8.25403
22.4747
-2.70979
-19.9062
-23.2213
-48.7383
-51.1116
-11.3692
46.6806
29.6621
-8.72296
1.5769
2.84017
6.97747
-4.41042
-18.0126
25.8762
39.7779
6.39978
-1.72696
4.2066
14.9894
-6.91775
-20.606
19.5171
20.9255
16.6633
-3.52579
-23.2666
-17.6488
-23.9564
-34.3644
-4.95257
4.26734
6.77619
2.16114
-14.2586
-29.2061
-6.8759
16.0941
3.66323
23.9394
14.7532
-2.96336
-22.7505
-4.92291
9.94951
-3.44138
-40.4519
-35.7928
19.5103
51.8834
25.7642
23.3815
8.21648
0.94571
-11.2221
-7.83142
-16.2567
-10.649
22.8199
-3.33966
3.49936
32.6709
22.3694
9.09528
-20.9146
-36.3451
24.4738
28.354
-2.90397
-8.24619
-7.37992
1.67955
-0.738893
-9.03039
30.7487
8.33139
3.75544
-0.971952
-18.598
-22.3703
-51.6162
-56.3836
3.25234
-7.35316
19.285
37.899
8.09166
10.7192
-28.1344
-29.8757
22.8459
15.3005
21.0495
35.1223
2.14591
-5.41982
-6.98447
-25.6247
-16.7078
32.1596
28.3719
22.979
-6.20431
11.0216
13.0364
3.00686
-35.6977
-14.0899
28.4187
23.9305
-15.0749
-40.2465
-48.6136
-23.6711
-35.8749
-52.9447
-16.1981
50.9802
36.7012
12.913
25.8463
7.54491
-10.8523
-2.74799
-18.2734
2.21986
32.3422
12.8632
-7.48787
-15.6345
-19.893
22.9529
0.434871
18.2591
4.55239
9.0435
5.70657
-10.0235
-14.9741
-49.8378
-57.086
17.8612
44.772
18.1032
20.1812
7.67352
9.05417
16.2675
-0.964105
-10.5177
14.293
4.80246
32.5978
31.7562
27.1062
18.3011
-4.36131
-54.4377
-40.0586
13.3305
32.8441
4.58277
-17.8858
-7.2459
-7.87958
-22.4953
-37.1913
-16.4617
-11.6942
-10.4188
-25.3275
-18.8297
-1.57114
-21.434
-16.376
31.2591
23.2395
7.10055
3.70344
-6.48633
-2.50232
-20.2718
-15.2673
21.0917
34.2951
44.0725
41.6425
8.87547
1.15741
-0.844458
-15.2434
12.9012
14.4192
7.76358
6.6001
-12.1405
-0.534511
-11.9265
-36.2073
3.73643
12.0482
10.0817
2.10762
-8.58797
-12.2128
-14.0856
-5.59693
-32.3237
3.51541
31.3834
16.0179
-2.81373
-12.1399
-22.6157
-12.6078
-6.62136
-18.3065
0.77672
64.4453
15.3394
6.74679
15.8043
8.13678
-5.38313
-13.7732
-50.77
-20.8301
31.5427
3.88215
-13.3201
-18.2773
-5.63359
13.9056
-9.81259
15.1585
28.4139
6.6863
16.023
-5.29103
-20.3371
-38.2595
-74.5864
-10.0542
31.1749
36.9442
51.9376
21.1255
-2.49269
-6.75379
-25.5509
-2.03089
25.3425
5.19622
8.50053
-3.06429
-21.3312
-6.82895
1.69681
-6.54679
-26.1842
8.45109
50.0367
9.97485
-25.6852
-26.5722
-7.29585
-0.224932
-16.3927
19.2474
24.9652
9.393
-12.0914
-14.0127
0.599761
-14.6805
-14.478
43.4877
34.7078
13.5893
17.2908
6.91792
8.1367
-30.441
-40.6282
19.6287
10.1725
1.31118
15.3992
1.27861
5.12613
0.204162
-31.5054
-56.78
-23.4923
2.80603
2.37821
4.58593
23.8915
22.161
21.8552
-5.41882
-26.0411
-4.00765
25.464
-19.7181
-20.1887
7.66681
24.8051
2.5052
-8.76286
-28.2285
-10.0709
22.2777
7.1742
2.99643
1.43393
-22.7814
-34.2366
-50.8524
-6.55571
22.5585
28.9893
13.2008
-0.936223
-5.68312
-14.3937
-35.625
27.085
28.9376
34.0405
37.4787
18.086
14.7684
-1.43289
-13.7636
36.1075
16.1904
4.75922
6.95642
-10.5859
-12.384
-18.2267
-20.5762
13.1327
7.363
11.4771
-1.08121
-47.6449
-28.6784
-20.1146
-18.858
4.5442
49.3352
22.7027
15.2843
-10.8525
-15.0992
-17.4661
-15.046
-26.615
-5.74443
16.6858
8.41236
-23.9165
-20.2246
0.872925
15.9202
-21.4412
-56.8344
18.7416
39.277
8.54819
-10.3161
7.78949
11.805
-4.47388
-24.9869
-27.9882
55.405
53.539
29.7146
22.74
19.8836
2.62558
-11.7562
-21.6159
22.8966
12.4348
13.2218
-25.2197
-14.5567
33.0877
27.7496
-20.9724
-17.0484
-23.129
-10.0543
0.290013
-35.9448
-23.9222
-35.0236
-58.0696
2.66187
37.0034
31.7544
31.2567
-4.64089
-5.48254
16.2967
2.65978
-28.8159
-24.2334
-32.4363
3.07845
4.26678
-1.95255
9.39008
1.48745
-25.2119
19.1311
27.8893
42.4112
26.89
26.4114
18.6145
-11.6873
1.32006
16.9942
16.1343
2.5086
1.57059
-33.3634
-38.7145
-31.9074
5.65403
14.7405
9.05911
13.3988
1.15327
-25.4718
-35.3111
-51.0142
-1.46007
18.2655
15.137
27.0885
8.1342
0.757971
-0.0755003
-34.8424
-5.64632
44.7617
25.7732
21.1431
-10.5429
-12.4699
0.723093
23.9347
21.1127
-24.3639
5.1751
19.0504
-26.7224
-46.2866
-25.5875
-6.11773
-9.04017
-18.4299
-46.0319
-19.931
47.0209
32.9689
21.9635
28.223
19.2514
0.554193
-14.4634
-52.068
-9.67346
41.7806
24.6935
26.515
5.49899
-6.59995
9.25438
-9.6079
-13.6074
17.1129
26.4036
23.0359
-8.36404
-31.9362
-30.6318
-43.6311
-13.5697
0.94103
2.55681
27.3045
-3.68842
-35.5097
-16.5943
-22.051
0.0883583
33.5336
20.749
30.0857
21.5051
7.89682
27.6341
20.7426
-28.9353
-19.6939
-19.819
-2.3583
-11.0023
-4.56186
6.65758
-4.99747
-5.79795
31.7379
8.9227
10.125
-7.94704
-23.7836
-17.3585
-29.015
11.1127
22.7125
13.5958
4.21478
5.82398
-18.8592
-13.6308
-23.788
-8.24174
38.2088
20.394
23.5955
12.6394
-9.61657
9.39846
14.5938
-13.5556
-27.7659
1.86194
16.3264
3.30182
-17.4576
-21.5294
-6.72861
-4.73423
-31.7508
-42.6353
41.517
23.3565
-9.70865
8.24897
7.57434
-7.14222
-21.2233
-15.0236
20.7562
61.5724
29.2153
-3.54477
-1.85354
-14.8836
-26.1813
-27.2472
-30.9986
21.0888
20.398
30.971
-4.92028
-8.23451
-13.2531
-43.4551
6.51916
23.4373
17.9196
10.7354
1.99548
-10.5074
-7.50109
-19.5894
14.6976
10.6627
17.1939
13.066
13.4086
-16.8772
-32.0539
-30.2389
9.95679
20.8636
5.70915
20.634
-1.83924
-2.08255
5.15026
-11.7115
-15.7127
6.36148
9.25267
4.00558
-7.18207
6.995
-2.89063
-5.30573
-18.8759
-9.48076
34.271
26.8448
-6.25451
-9.43605
-5.49833
3.77101
-3.63043
-14.3026
-2.70701
4.22231
9.19347
-2.2289
-1.80394
-14.7317
-42.1392
-39.5536
-32.3076
-10.6709
51.969
35.5714
17.9431
29.87
9.89357
-3.2049
-12.4996
-8.77584
29.5644
28.705
8.08066
0.808414
-11.0247
-27.531
-34.4708
0.761684
20.2143
12.2582
16.6423
17.3841
-2.46851
-12.753
-40.4183
-31.8872
25.7546
24.9144
15.1753
4.88356
-31.2961
-25.0553
-16.0635
-3.22195
-19.5937
2.11533
9.46103
8.36437
1.67712
-5.84607
2.13098
5.24452
0.0128404
33.6446
45.0564
37.3099
-14.8561
-18.1293
-7.30049
-27.7212
-20.9286
2.89874
0.628153
8.8668
21.0549
-2.61806
0.302793
-16.8101
2.90978
10.7766
-2.90281
-8.01637
-16.0238
-26.1371
-18.0195
-29.9311
-7.62524
3.51919
5.738
30.4406
21.8296
14.29
11.1117
-13.5148
-22.9844
29.8538
22.6767
24.7827
12.3267
7.98296
10.0383
6.31388
-5.19426
-35.0227
3.43172
37.5158
3.35061
-12.143
-10.0948
-7.07164
-6.0251
-28.3808
-58.9766
-2.88099
19.2749
-25.1417
-8.01938
1.74984
-6.21765
8.0535
-16.8425
-41.5688
36.9644
41.1097
24.5518
25.2763
12.782
-7.01039
-8.32218
-24.9243
-1.4834
20.2226
26.9967
1.14413
-4.82659
-2.05348
-7.5035
-22.9251
20.6383
18.1163
23.2615
35.4113
-1.10565
-4.10638
-25.429
-64.7793
-26.637
-22.3407
-12.0908
8.12617
5.9171
3.58863
20.9094
14.9742
1.16789
18.0808
27.2924
26.4728
-12.2257
-26.2914
-7.3753
2.14509
-34.3917
3.00065
3.98182
-6.31357
-20.1413
-6.7069
1.25052
-14.5118
-22.8821
27.4641
26.2073
16.6015
23.1408
-3.41901
-7.8712
-13.5787
-34.3278
9.96328
23.6937
16.0318
18.1541
-6.94998
-4.47249
23.5811
12.0035
-22.8925
-46.4453
18.5735
38.7281
0.484232
-6.50558
-10.1636
-0.698192
-3.5057
-15.1044
3.38271
3.15667
9.22157
-11.1858
-11.9344
-5.16569
-12.5442
17.7468
33.5148
-9.80908
11.5242
23.0249
-10.5014
-30.2038
-36.7771
-19.207
-6.09154
-30.9675
-6.64136
18.8076
17.1726
34.2292
16.6988
5.69177
-15.8162
-50.1502
5.8785
27.9222
13.5072
26.2376
17.6749
7.5724
1.09201
-10.7496
16.2768
8.55986
-3.12463
6.95015
-7.56855
-27.7144
-15.8521
-20.8496
-24.3408
12.7715
31.2227
31.7493
33.9078
-8.98669
-20.3661
-22.1503
-53.9904
-42.1751
9.7473
46.6782
30.9451
7.83231
3.23518
3.0576
2.52911
0.946091
-18.3989
12.176
24.9671
8.55763
-16.5611
-18.8537
-24.4424
-43.9191
-26.9722
1.9737
23.221
40.2856
16.4528
-8.74288
-3.79939
-27.2118
-15.5563
15.5911
17.6519
5.80476
9.07888
-3.96562
3.18361
-23.2059
-34.9541
23.6695
23.26
9.5213
9.74823
16.7358
31.7183
-6.32188
-22.5461
6.32151
8.63444
1.19069
-0.886274
-13.1476
-8.4778
-4.2046
-27.3701
-24.6776
25.4595
19.7551
15.4276
-2.53101
-1.49049
-0.110503
12.8156
-23.0005
-61.0691
5.09904
18.1228
-17.4226
-7.80672
11.7742
19.544
13.1093
-1.64827
-20.9819
42.9114
23.175
-9.56249
1.77893
10.708
-4.67178
-8.31171
-29.9623
-12.214
20.9476
36.7984
6.35101
-28.5789
-21.6292
-9.10232
-23.7696
6.61229
19.3242
11.9769
25.9181
-4.18989
-13.5461
-25.5256
-39.0929
-27.2167
32.928
33.8489
40.7264
17.3484
-11.7851
-5.28682
-6.45915
-10.99
-24.7272
1.36304
22.9324
6.48477
-8.98667
-6.43539
5.55633
5.89051
-17.1089
-38.5322
34.1715
31.6534
-12.8759
0.785889
6.61482
3.53613
8.55682
7.144
30.0174
17.554
9.0942
-13.4286
-15.2719
-15.3978
-45.2937
-49.5144
1.56593
10.336
18.8736
19.2257
-16.2395
-11.9653
-24.6467
-50.848
-3.14525
59.8016
43.5946
34.1348
4.18988
1.62407
1.90864
-8.20654
-34.3473
-27.61
21.2157
21.3563
-8.64853
-15.9495
-4.2764
5.45718
-7.15318
-23.1587
-1.0327
50.8147
19.2036
-26.9523
-24.9722
-12.8904
-13.4909
-19.0889
-21.7451
11.4145
79.3278
49.5811
2.81617
-0.943256
-2.77697
-4.84544
-29.7664
4.53246
27.0711
25.4222
2.64001
-21.4025
-18.5094
-18.145
-29.9626
-4.02026
3.02059
13.3334
29.9578
6.22812
-19.2639
-28.6636
-29.7842
1.04614
-5.09657
-2.7531
25.5425
12.8326
-11.767
-24.653
0.680527
40.8977
30.2221
17.9228
20.6664
0.416134
-9.41352
-31.2193
-47.9528
-8.44859
21.1909
36.5086
32.0425
18.4853
8.52214
-3.43068
-21.6849
-42.8421
-6.3352
15.6838
-1.22951
-25.0439
-21.5567
-17.0743
-26.7467
-38.4497
8.3518
34.0002
44.5248
21.9477
-8.34246
-9.1294
-7.27564
-15.9447
-27.6476
-22.4093
61.731
58.7694
17.9403
5.74171
5.14618
-6.52614
-26.4385
-14.4748
24.5807
19.4076
-6.90625
1.72695
7.7324
-17.0513
-34.5401
-49.0602
4.99881
57.1867
37.4356
-1.54008
-41.0688
-23.477
-16.1211
-11.0165
-41.0829
-15.5856
41.3733
22.3423
5.99961
12.0369
-1.76624
-7.47634
-14.7045
-20.7101
14.661
52.3927
14.6329
-15.6195
-2.92778
13.9036
-0.335822
-21.3037
7.78852
14.4392
23.5521
0.0601895
-24.9023
-20.515
-16.2904
-40.0447
-3.86581
12.8625
39.1704
51.9306
25.0554
1.82562
-20.8199
-37.4234
-4.60492
6.01781
0.314677
10.2013
-17.5846
-8.98757
2.95158
-38.3363
-16.6445
25.3545
16.8224
24.8408
-4.15975
1.18323
-1.1573
-18.2514
-36.5859
-24.8895
13.6369
13.6524
1.82602
11.4435
3.65441
10.0619
14.0276
-1.1194
-10.0557
47.8138
44.0911
2.47928
5.13258
9.24931
5.78554
-7.5113
-32.2231
3.33449
4.05623
-2.22521
-11.1734
-20.4718
-19.4962
-14.8793
-38.2188
-4.12641
-1.64899
-4.02895
-3.72946
-12.2205
-21.8153
-31.3147
-36.5659
0.891669
35.929
39.1807
36.318
8.92099
1.98193
-2.30397
-24.0803
26.5311
27.2866
17.4542
20.6497
-2.93955
-2.86118
8.08798
-9.58247
7.10693
31.667
31.8789
31.0647
5.63568
-25.7135
-52.349
-63.9886
-4.84281
25.0808
17.1174
20.1802
-12.236
-17.1874
-15.6665
-31.8522
-21.8201
8.48267
9.50603
22.7317
-1.81553
-20.5562
-18.5602
-23.1116
11.7351
10.9736
15.8747
33.9211
-1.07209
-12.02
-3.71234
-22.2364
-32.7619
28.2852
25.2008
32.4749
24.7097
9.6624
4.49371
9.42765
-11.1593
-21.2594
11.4948
11.8264
-8.75957
-5.20723
-3.75231
-7.86521
-21.9124
-35.8054
-21.4932
16.5886
31.2384
-7.60588
-0.381745
9.31376
-6.14763
-24.2663
-38.712
-22.5209
17.3483
24.6638
6.42249
16.3715
10.896
6.04013
-2.20656
-0.729437
26.7298
22.2032
15.2488
9.42325
-3.54596
-11.474
-35.8742
-10.6635
6.88913
5.11562
15.0211
10.7232
-3.67887
-26.3295
-52.8259
22.235
27.7844
16.6767
24.416
17.0627
-6.57135
-10.1524
-23.7708
-12.0318
28.1595
0.442512
-5.47721
-17.709
-24.2676
-19.9167
-3.51881
9.28811
-12.9954
13.0675
37.7395
-19.5375
-30.4739
-18.5835
-5.13255
-1.214
-16.0808
18.0465
31.9267
18.161
-14.0791
-9.11155
8.98234
8.50344
-14.9652
-39.8596
23.5482
41.1965
30.2133
13.6818
9.88883
6.55786
7.74625
-7.80927
-42.4636
2.45234
31.3609
9.96766
3.66077
-4.5081
-13.3982
-16.4158
-28.2777
-31.9977
13.45
50.2887
2.75516
-12.2923
-12.8364
-13.3909
-8.10168
-44.8808
-34.3197
29.437
41.1312
17.1167
8.26317
1.02581
-3.86764
3.74938
-24.0629
-22.0826
24.283
33.4253
21.0174
4.6598
-11.7139
-17.1902
-24.7259
-20.711
20.2938
29.3111
9.69504
-29.4546
-18.5029
-13.0839
-1.7751
25.8282
32.1394
6.47884
4.3468
9.80123
5.98573
-0.571134
-31.4062
-20.7228
12.186
2.21054
14.0673
9.38569
-19.1587
-5.33524
-26.1642
-30.1733
10.9851
3.64571
-0.434727
-14.2994
-18.1481
-2.65894
21.521
13.0973
9.54098
19.1896
14.8451
3.79527
-14.3081
1.69758
20.617
24.6004
-2.22555
-0.535075
48.5664
26.9397
4.19575
-10.6145
-28.1689
-30.7705
-28.7661
-30.9669
-45.3811
-8.70018
9.16863
-0.540657
6.30853
3.32061
1.31433
3.36534
-31.9962
-30.9701
18.1819
33.3283
23.8324
19.5858
11.6176
8.93416
-8.89864
-11.9465
13.0952
20.0555
26.6056
10.198
-9.95727
-12.5118
-23.5116
-37.6266
1.24072
26.3974
27.5587
9.17067
-8.92229
-10.9347
-19.1804
-28.4578
-38.4109
-0.519036
37.4788
29.6066
19.207
22.3075
21.7535
-0.179284
-22.7527
-32.7464
-6.56164
10.2604
-12.9537
-28.6103
-14.343
-8.67235
-32.6506
-24.7624
12.2565
39.3497
49.6802
24.1512
-2.60628
-8.06545
-29.1248
-23.8974
1.97989
5.70515
14.0143
27.2051
23.0152
26.9129
-9.16704
-23.8217
15.2438
8.30019
11.0596
11.0063
-11.442
-17.1271
-25.8696
-33.4505
-7.6827
31.3752
30.0352
8.97233
-11.7403
-8.80308
-11.4727
-26.6009
-20.2882
18.022
5.70733
3.67962
-1.18827
-1.91256
-3.07587
-1.97803
-30.4236
-49.5298
35.524
51.2683
32.5343
7.2783
2.06149
8.03459
-2.67163
-24.6162
-5.9529
19.8296
7.74112
-18.2638
-8.50242
-5.68237
-17.4117
-36.3019
9.28008
32.8217
30.9663
29.2001
-17.5295
-25.8262
-32.2906
-27.0642
1.35887
33.6441
16.4229
13.7228
-0.466299
-5.08428
1.07915
-33.3068
-26.1285
26.4499
17.5956
32.7364
2.23975
-16.7472
-3.89134
4.89379
-34.5078
-36.285
3.73968
30.7041
13.5855
-8.21997
-0.669531
7.20045
3.31825
-12.2314
21.8567
40.1457
30.9174
1.22984
2.18922
1.39697
-16.0711
-41.8074
-5.00639
4.20515
18.0783
20.1324
-4.77538
-22.3839
-46.0987
-52.4192
-18.5673
49.0422
51.2328
28.09
-13.1382
-15.5587
-9.83
-34.0517
-42.1146
14.5014
36.2435
37.1967
21.503
13.4864
3.61037
-6.12153
-48.5724
-33.0253
22.8652
18.6563
16.9828
-14.0505
-13.5954
3.00283
-23.7678
-33.4435
6.70653
15.4392
39.3201
4.55186
-5.88942
6.28618
-8.92128
-24.9974
-27.358
21.4238
32.4633
16.6091
-0.772314
18.6512
9.77096
-37.0679
-57.7645
8.46598
22.2401
35.1434
17.8072
11.4763
2.15199
-33.908
-36.2551
7.95021
1.95179
9.41736
19.5892
2.1968
18.1216
2.01329
-14.0347
2.0778
-10.415
2.15859
22.4276
-10.7884
-12.9741
-26.9126
-50.0197
-14.5064
26.9225
32.7539
26.5093
6.69793
6.79432
-6.04088
-23.3675
-48.9205
-22.4224
18.4972
20.6154
3.16352
6.43397
11.8412
23.1453
17.0781
-14.1789
6.80096
52.9989
14.6781
-18.0689
-9.02009
-15.1178
-28.3716
-15.9609
-0.186992
-2.76006
29.9612
21.0147
-12.0331
-23.8675
-23.9144
-8.57705
-9.19136
-50.4837
9.05344
56.0132
31.6206
-2.25697
-10.0923
-15.5168
-17.2282
-31.7044
11.806
18.4733
28.6263
40.2346
15.0221
-4.68602
-25.1766
-58.5667
-19.6062
23.616
30.0458
29.2937
-9.0696
-2.24354
9.76286
3.96554
-33.7582
-49.2664
13.4325
58.0334
17.1165
13.1055
14.2043
2.98239
-18.2392
-38.9423
10.0352
40.1753
13.0733
-16.2928
-12.574
0.756202
-26.097
-36.1937
-12.9936
-13.8674
1.23849
15.4239
-1.38796
-6.73414
-22.8007
-46.397
-1.27352
12.5543
20.1366
35.2122
13.2774
23.5047
4.54677
-13.8931
17.4501
16.1651
17.5877
21.3831
5.91969
-0.248554
9.10207
-24.1461
-38.6007
6.36055
6.3576
3.28108
-15.5609
4.55192
8.4705
-5.2536
-37.9815
-5.09143
25.3759
27.6088
-15.4431
-31.1244
-23.2565
-11.4316
-13.1071
-20.2556
-24.6662
44.2754
54.5502
7.56954
2.11117
22.9993
15.8487
1.76903
-20.1395
-13.894
18.963
2.82527
-6.58841
-3.54265
-0.537262
13.6671
-4.86712
-15.4351
-6.85844
5.80831
18.7067
6.29531
2.23014
-5.85428
-15.2601
15.9537
-1.36143
-12.3604
-6.95206
0.10033
-5.27053
-16.09
-41.9586
-39.9402
-3.61636
24.7611
52.4193
34.1961
6.71254
8.20104
0.241285
-20.049
-45.4721
-20.9119
29.8452
13.8186
1.58068
1.61608
4.10405
-7.4614
-33.2856
-8.73345
54.4238
38.4802
8.92312
-5.87981
-25.3966
-15.612
-23.5351
-15.6138
30.2409
26.3995
25.4058
3.30264
-11.1005
-6.34024
-14.3874
-28.7115
2.07021
26.6405
42.8444
18.6212
-23.0078
-21.2117
-10.8792
-5.24673
-31.6323
-28.4443
20.5809
18.5189
-5.32654
-2.13062
6.64488
-1.05757
-6.99019
-19.4645
-42.6693
-14.8595
15.1254
5.41835
15.6053
26.0664
24.4426
23.6711
11.0876
-9.47173
24.7808
30.2965
4.62741
-5.98295
-18.9472
-19.4857
-25.4604
-41.825
-10.6848
12.6722
30.0942
30.7954
5.37253
1.64245
-10.2948
-33.4022
-11.6262
-5.31938
-3.94743
5.51966
1.79065
-2.32957
-21.1026
-35.1862
14.6356
9.1086
20.9057
41.7134
19.5448
5.91333
-0.414493
-25.1522
-22.0264
44.5062
36.8652
30.5898
-5.68396
-21.2861
-28.5438
-34.4888
-55.2396
-2.4781
30.6313
37.7097
-0.227817
4.43678
-3.68657
-10.8196
-26.5562
-39.4603
15.1392
35.2213
8.74237
-31.6148
-12.2883
-9.00672
-20.5914
-19.9126
-0.28964
25.8639
49.6487
16.1212
-3.77045
10.383
7.05755
10.2023
-7.92616
2.60888
16.8415
14.5304
1.21301
4.22394
3.97604
-15.6268
-45.9539
-3.61687
13.4422
17.3718
-2.52834
-18.2541
-12.1111
-16.1807
2.72361
13.6785
12.8291
22.8364
20.4691
4.10995
-8.35173
-10.0494
-22.3713
-47.345
2.82766
10.0724
13.5035
-3.06066
-9.00666
2.36576
9.84656
-2.9473
19.7433
20.389
-6.91582
-3.72791
-16.3295
-25.4608
-11.091
-23.4959
1.13549
27.6658
13.5943
18.9866
-6.39923
-8.99112
3.02008
-21.7176
9.17668
18.7844
9.38941
15.6097
-1.75583
-9.23453
-12.8504
-29.0611
1.4768
-0.80788
5.4224
20.9818
5.70456
-10.4009
-18.5952
-11.0408
-2.34034
25.3865
31.1957
30.7732
15.3595
-1.86193
1.18912
4.44161
-21.0093
-22.198
29.7139
17.1237
-13.3058
-14.4446
-0.827007
-1.94059
-16.0696
-21.5411
-28.8995
22.7504
35.1446
-9.0573
-21.1657
-11.7978
-12.3
-1.28723
-20.007
3.22847
25.1672
10.386
-20.6357
-14.627
-10.3212
-15.4697
-25.6033
21.4116
20.134
11.9633
33.9291
9.84539
-11.611
-22.5052
-25.4707
20.5166
22.6014
19.6465
35.405
27.2376
9.94077
-2.66301
-30.1285
-13.3106
17.3128
11.7657
5.20647
-5.77452
-1.86388
-5.45224
-12.1709
-17.2212
-15.0177
-10.4716
1.12827
-11.0746
-18.6792
-20.9506
-31.5766
-37.8185
13.4733
16.5357
19.0462
17.6643
10.4153
11.0961
-8.34036
-30.0403
31.6453
32.1018
37.2233
21.1616
-2.4565
0.583767
-10.673
-20.0582
24.7671
3.8823
8.24757
11.0943
-20.8322
-8.46851
-22.0342
-37.9655
-0.299098
17.6273
43.1621
45.6596
-6.91621
-24.2698
-12.8435
-22.0833
-45.1545
-42.1491
44.4759
20.1744
-14.5741
-5.80617
3.68541
8.13752
-9.05889
-24.8039
12.2259
12.5995
-17.2493
-21.0976
-11.2684
-21.3807
-35.733
-34.4901
54.1325
110.08
103.961
59.3095
-9.52366
-12.5775
-40.9892
-55.657
-12.5145
6.87606
-3.91753
3.41691
-7.89499
0.955455
-17.3513
-39.3971
3.87527
3.80907
-3.1001
9.56571
-30.0754
-47.9055
-39.0464
-29.733
24.4981
39.8005
36.1274
43.4791
18.216
-0.359706
-10.0263
-42.4252
-4.29655
51.5056
36.8013
36.9916
8.41183
3.18704
6.42674
12.5432
-38.7205
-38.9827
18.6708
26.9907
-11.3741
-4.07974
-4.39752
-4.87321
-7.87215
-35.1775
-13.0211
38.2979
8.33894
-24.9633
-22.2952
-14.4495
-25.569
-46.7511
-50.0176
16.4415
65.471
33.2141
4.95815
23.5703
16.5332
2.52404
-5.47198
-17.0775
-1.65148
-3.46221
-3.54153
5.73443
5.9236
-7.33335
-17.2073
-18.3332
30.6702
56.6612
42.3654
-7.19582
-28.1132
-29.2575
-56.9288
-67.3895
-30.8631
29.2348
70.851
62.7197
28.0161
22.4601
5.43628
-1.09529
-31.272
-58.7345
17.3629
35.0222
-9.67706
-12.2147
3.76241
-2.45516
-8.36523
-25.8813
-0.0333274
48.9559
9.46033
-23.7083
-47.1247
-22.2016
-8.10156
-24.0404
3.28226
11.9919
8.51789
24.0476
0.485601
-1.07391
-18.0437
-33.406
30.2943
29.7766
1.83517
18.6178
37.8582
31.9049
9.27415
-12.5261
1.94374
-4.4775
-12.9771
-1.03582
-7.2764
-8.06069
-7.57217
-19.2829
-23.5394
11.8951
11.023
25.9216
-11.8672
-18.6067
-5.74101
4.71156
-9.99587
-29.0129
-22.5153
21.9771
8.81988
-0.316068
-2.09283
10.9699
4.4507
-7.36806
-11.2799
15.7269
40.2735
4.99648
4.70512
1.55839
-13.1103
2.2922
-12.2534
8.13112
13.6785
8.05193
-0.664873
-24.7752
-20.6989
-24.0637
-34.4087
1.33826
-7.09347
2.21212
38.2635
47.935
13.7551
-24.7161
-24.2362
17.0333
3.55637
0.97565
18.8609
7.46156
-5.64582
-19.0233
-21.789
-1.62843
12.9552
21.1703
26.8968
11.6003
7.63586
-0.054917
-20.3833
-56.6727
-60.0284
21.2769
36.953
7.66445
6.55244
10.3482
26.8739
10.6093
-25.7432
15.1521
15.7882
-14.6538
-36.0155
-23.5851
-6.38972
-5.81728
-5.67417
29.3261
25.5162
21.1967
-0.51066
-25.9024
-23.3776
-32.4272
6.34239
9.99451
-8.38898
-5.0943
10.0438
1.04414
10.8346
-14.8776
-12.6689
40.7585
43.7972
28.2434
23.893
-9.67588
-15.6527
-11.7716
-16.2011
-40.4615
13.6907
36.5187
0.00954779
-19.8551
-19.8947
-13.9284
-0.96894
-13.541
-46.2679
-22.201
8.99999
27.4453
12.3883
17.5354
26.7141
9.23253
7.68139
3.71439
-2.46025
23.7532
-15.204
-19.0772
-7.35967
-1.45096
2.67809
-2.81769
-13.5275
26.1259
42.7211
40.095
12.2292
-40.6178
-37.9186
-60.9627
-74.7019
-1.57756
36.677
30.2784
35.1506
22.4714
7.70985
-4.30469
-17.7785
11.2035
6.94891
6.07009
16.4081
0.765448
7.95543
-5.29136
-19.8639
-29.357
2.89768
33.1232
27.9696
-15.3535
-24.941
-10.4674
-3.67332
-21.1697
-36.4162
-3.18974
17.8174
1.49391
-0.282802
-3.66044
4.40459
10.5878
-7.78502
19.9432
50.3393
24.6788
-1.80979
-12.4994
-1.31745
-11.3922
-37.3576
-37.6867
23.447
9.6484
-4.2702
-2.65637
-9.5421
-13.3981
-9.96675
-23.0057
-9.23404
10.213
24.0109
16.7004
18.5454
32.7647
14.0749
-27.0871
-24.89
16.85
18.4898
18.4748
-8.9108
10.1099
22.8121
5.80868
-13.6536
-7.33008
0.281432
4.96874
2.44118
-15.3918
-16.8931
-30.9746
-58.0004
-45.7372
20.0665
42.9739
44.5376
12.6844
9.46696
9.9313
-16.6482
-12.9053
6.80853
-1.6878
5.04282
1.04019
7.26857
15.7644
-5.9193
-12.8302
26.523
4.99861
8.70583
2.75785
-19.9074
-3.99273
-37.6523
-43.9473
6.27483
1.95993
-14.7163
-25.3565
-11.4702
20.4551
23.0798
32.8112
39.8833
28.9092
15.3396
-0.0704075
-11.6859
-11.0053
-7.02212
-24.7266
-64.5316
-13.9899
30.7993
18.9164
13.9854
16.3352
11.006
16.3034
-24.0351
-43.8686
12.7617
-9.05536
-25.321
-14.5964
-4.38199
13.897
39.5723
43.7615
8.54687
-5.05217
26.8129
3.44472
-10.3949
-7.17263
-21.329
-21.5265
-19.5984
-21.9281
25.4668
13.8169
-14.4769
-10.3167
-9.19949
1.33614
0.346553
-25.3668
-6.10254
-0.45973
14.5708
34
24.6813
11.3129
-2.36313
-30.045
9.20864
17.0241
14.7
15.4365
-0.747075
7.08584
1.76485
-22.6259
-40.8643
8.48925
28.6447
21.3104
-4.87091
-6.02281
0.60518
7.06109
-15.6541
-14.6323
20.1733
14.6863
-24.7708
-26.2297
-3.73642
0.655572
-31.7698
-8.04891
-3.04569
6.3598
21.33
-1.08775
-6.15386
-4.18075
-43.2873
-3.2447
9.49941
11.3895
21.3858
15.6029
-1.23571
-7.19856
-35.6483
7.92609
33.8274
25.6756
32.7118
9.16106
-17.0243
-5.64098
-18.0747
1.89696
38.891
28.2348
16.4616
-11.8072
-18.2088
-19.3334
-9.40758
-19.6319
-35.948
22.5226
37.1237
8.21963
-12.0018
-2.24284
-2.52874
-9.48788
-35.8922
-42.2688
2.98664
25.0716
-1.6743
-0.446594
3.84465
0.0985287
-1.39868
-8.61541
-23.9806
1.3139
41.4893
26.6961
6.23406
-8.59056
4.1968
17.3831
-16.6582
-8.85701
28.8216
28.2668
15.0954
-20.4844
-32.6872
-29.1231
-24.031
16.231
19.2956
20.0963
15.0878
3.12548
-7.85989
-28.0622
-43.9225
-31.0367
-8.52272
-10.2867
29.1539
36.2129
38.1376
30.5086
15.1121
-24.2071
-15.583
26.966
23.0608
-7.66375
-11.022
-13.0313
-13.9395
-29.4684
-46.982
9.94324
39.31
29.3871
-4.67525
-9.37403
-14.5613
-36.7634
-32.6667
16.7168
8.96837
10.1492
9.80197
4.32371
21.8715
-3.64969
-39.8604
-19.3417
27.2248
21.8944
27.0769
17.5019
23.8568
19.7987
3.97519
-17.9333
-30.9692
30.6754
10.5476
-23.6975
-18.4996
-5.20331
-6.92284
-41.3337
-48.472
-23.5228
43.4702
37.6008
10.2436
6.9651
3.55213
-3.02562
-7.18711
-33.0736
6.83924
31.6831
41.4043
9.08743
2.96122
-9.05768
-5.42548
-17.6979
2.77377
11.0627
6.5218
-4.72035
-15.6192
-16.5172
-30.977
-40.2345
9.57884
6.56644
9.35473
16.5944
-16.2045
-15.4837
-9.46972
-29.5666
20.2026
42.2235
30.199
24.6079
5.50846
4.69052
-0.272407
-24.8219
21.7566
19.5217
15.7613
29.8299
1.54622
-19.7493
-32.4835
-33.5873
-9.49149
11.9647
7.34611
1.90762
-13.5545
-21.5535
-13.2957
1.29502
-9.38181
-36.105
6.84472
52.6293
9.67929
2.51922
2.48657
3.10067
-9.79095
-28.3232
-23.8925
46.352
42.1686
1.41316
4.96543
-8.7822
-23.3285
-13.6398
-13.6162
-26.4339
11.9999
34.7103
2.812
-11.2091
-0.917862
13.496
18.2082
17.64
32.1965
14.8013
8.0763
-16.5369
-43.2558
-31.8322
-27.3247
-29.1163
7.69593
2.55331
2.44969
9.79035
-14.3389
-9.60111
4.37093
-14.7467
-34.9302
14.3405
47.9117
38.3629
12.6657
23.4473
22.5434
1.47372
-8.06005
-17.4308
3.39475
25.8126
-8.67536
-11.9103
-5.4925
2.8797
-6.79719
-29.4757
-0.396018
22.934
11.3763
-17.8926
-35.7521
-21.7499
-19.0608
-37.7625
1.82422
27.1484
18.3502
29.7127
16.8379
6.4706
-0.801998
-25.9413
8.19877
9.40599
11.3916
27.5483
8.63165
-3.96406
-7.46304
-38.096
-13.5542
10.3724
14.3407
28.3159
14.3668
-5.18767
-20.689
-62.5461
