27.6392
66.1255
40.9653
-48.4618
-100.663
-175.631
-179.8
-89.5198
9.64072
31.6314
-43.468
-101.362
-82.8599
-35.9184
-15.8247
32.7515
122.402
185.501
152.818
52.2493
0.449358
-2.69485
-50.0845
-132.623
-122.168
34.5441
94.7872
74.7514
9.20092
-50.8407
-54.9408
-32.5858
-83.5687
-106.014
-152.796
-162.447
-113.359
-86.5683
-18.0662
66.3185
175.431
262.861
286.009
278.997
213.299
66.6931
-54.3244
-130.105
-159.577
-118.543
-35.6215
45.6239
121.736
110.103
34.7635
-39.6033
-22.9014
1.03012
-94.4412
-179.598
-199.789
-198.367
-163.835
-50.8302
52.4071
55.1095
19.887
-24.3951
-53.4914
-33.191
41.3192
81.8899
105.89
82.4476
109.211
171.011
191.287
118.169
38.6099
-62.7525
-116.42
-145.584
-121.234
-15.3503
65.5853
72.8143
56.7947
22.4937
-28.6303
-15.7949
26.5678
23.5331
-40.8732
-81.4687
-85.9414
-103.788
-147.315
-118.207
5.04766
92.7359
103.281
98.6296
125.857
67.9308
-18.3064
-12.5712
1.02465
-17.8017
30.3714
52.0383
-19.273
-129.123
-148.942
-76.1396
14.4219
49.0337
43.9027
80.0823
95.9691
48.3992
25.6151
0.0853829
-73.0683
-81.3666
-47.7788
37.2438
16.1766
-29.4301
-16.4264
46.337
76.6623
83.6192
-27.3619
-81.5694
-92.3073
-102.061
-122.711
-116.354
-88.0023
-29.4963
48.3753
131.67
188.003
134.972
11.5082
-89.0155
-58.5522
5.54734
0.750895
28.0442
119.74
181.486
165.653
133.603
86.5786
69.0864
37.1527
-38.1794
-109.182
-132.325
-163.832
-180.691
-102.189
-36.2446
2.72335
6.52786
29.8543
37.4936
-21.6313
-75.6186
-117.253
-171.484
-170.354
-125.891
35.7376
172.176
223.369
177.079
179.299
226.084
107.48
-23.4005
-49.7655
-71.6368
-65.9247
-75.322
-107.587
-115.523
-122.975
-122.047
-107.122
-14.2041
107.143
153.384
24.0321
-76.1609
-99.2151
-58.6488
45.2668
96.5187
138.266
117.843
72.7732
30.729
-55.8406
-57.5723
0.225501
88.2995
173.891
224.772
155.877
11.6529
-108.768
-166.834
-130.516
-139.733
-131.181
-92.3949
-44.9867
-4.23457
27.9604
97.931
93.9861
88.4204
111.496
61.3393
-1.64927
-43.302
-97.3658
-127.105
-118.278
-152.788
-128.635
-47.8468
-21.226
-21.3584
-38.0563
-81.2648
-79.6335
-6.42063
119.239
156.203
86.7734
65.5417
91.3053
133.905
174.221
130.707
37.8946
5.82763
6.22165
53.2472
107.263
-1.8486
-103.584
-102.012
-125.019
-104.974
-69.8631
-84.3806
-78.1177
-23.4765
11.2008
-37.3475
-86.4014
-54.3105
-19.3806
-16.2219
26.3402
65.5311
195.947
214.966
120.166
89.1833
79.7297
28.0305
3.21473
-4.08057
-61.5305
-124.024
-198.181
-238.82
-161.234
3.78767
152.196
188.421
205.71
152.033
35.1254
-86.8114
-262.639
-262.085
-149.358
-86.9049
-49.5421
28.9781
177.269
216.93
196.412
93.0911
-84.9325
-158.803
-162.275
-135.224
-110.338
-53.0576
1.67199
93.155
145.723
166.469
133.318
91.484
46.5917
0.452447
5.29362
25.6842
-3.92732
-11.1694
0.181558
10.8305
82.1267
62.7719
-36.819
-87.1329
-34.8416
-14.5543
-91.962
-129.307
-86.0192
-44.1315
1.9169
56.0185
24.3353
-5.48484
64.1848
76.0119
-33.6587
-21.9936
29.8697
22.5074
-2.83054
-12.4455
-72.94
-95.9755
-92.6091
-44.1063
-0.778445
38.9629
97.2848
114.63
81.4957
-18.8881
-22.0818
-12.4306
-45.3342
-24.1303
16.4696
-39.583
-102.999
-74.9593
-9.90136
13.103
105.459
199.049
193.742
92.7393
17.5869
-41.6284
-70.0081
-62.602
-131.826
-124.267
-9.57984
32.9845
10.7288
-56.5801
-97.6829
-100.692
-66.5557
11.3029
114.283
229.158
274.338
170.047
-5.84187
-77.2518
-43.1742
65.616
44.2896
-56.4026
-71.9747
-93.1931
-115.443
-82.3096
-41.5661
-33.9502
-71.4516
-37.2677
10.187
35.7033
49.6567
8.15188
-58.6939
-99.2807
-53.6221
-34.4588
-5.94277
63.9548
47.2925
57.8902
64.4124
41.2759
31.4257
85.505
54.8102
-65.9238
-58.084
36.1411
77.1519
16.6496
-53.0998
-85.8271
-74.8087
-41.238
-35.9774
-11.9545
28.9729
84.9708
145.207
90.6757
-26.147
-83.0258
-25.5753
4.98306
-13.7214
3.80298
10.0304
-27.6431
-13.5875
30.0523
114.028
138.573
111.76
57.0509
18.3312
48.5533
42.0401
-70.8334
-167.173
-189.851
-109.315
-49.2907
-93.7158
-124.961
-83.183
-9.34626
68.305
41.9649
-26.0389
-100.796
-163.688
-164.122
-78.8011
48.6823
85.2566
63.6636
100.11
152.061
150.557
169.691
214.79
252.165
158.252
43.3606
-9.54096
-56.4648
-69.4169
-51.3773
-94.5408
-83.024
-46.8354
-54.2897
-54.9833
-0.258244
-26.4975
-63.2747
-136.14
-208.559
-99.6979
-11.554
-7.77796
12.5041
80.9632
88.5695
25.2573
-23.3691
-5.75491
1.18823
-7.41697
51.9186
79.825
80.4253
19.8029
-40.2979
64.8865
140.733
117.612
42.0639
-80.402
-117.294
-55.6733
33.729
80.9373
76.7154
98.942
136.335
91.0965
8.10617
-29.9545
-114.201
-240.43
-197.244
-58.0918
-29.9717
-108.366
-154.7
-127.257
-30.8308
78.9422
90.6623
56.2154
-47.051
-127.812
-167.595
-182.386
-119.717
-3.83823
100.773
204.081
230.29
246.108
222.898
84.566
-3.12468
-20.4868
13.5101
112.874
210.107
169.76
109.705
80.6706
-31.4355
-84.2585
-58.9797
19.1373
64.8103
-56.2214
-308.332
-404.368
-329.373
-161.358
34.9048
192.545
249.393
225.363
103.008
-96.8376
-206.066
-203.228
-132.475
-27.1744
75.2208
107.51
59.2972
30.3057
-50.3478
-112.479
-34.9227
65.842
116.501
-30.1937
-173.766
-213.173
-165.658
-55.8328
59.2407
155.82
191.513
200.329
143.607
45.8325
-45.5997
-68.6104
-30.8825
-7.76136
68.8411
137.395
176.409
168.138
84.9675
87.656
94.0795
66.3397
1.93948
-44.9301
-38.1197
-64.7298
-166.507
-148.534
-22.5554
-2.51206
27.0599
9.98224
-68.4676
-175.996
-176.525
-90.6076
-57.9795
-84.4421
-19.7021
52.1236
27.4954
-86.8306
-138.533
-124.344
-123.813
-102.447
-29.7215
-9.87223
-16.0323
66.0619
191.143
250.191
209.317
135.74
53.1263
0.449704
74.773
163.095
57.1448
-75.6473
-50.0528
64.2044
125.187
65.7176
2.55185
-7.08327
-6.76008
-20.4153
-58.9029
-81.846
-81.8984
-61.2929
100.238
228.486
169.283
24.8394
-87.0305
-95.585
-80.1354
-113.036
-112.585
-66.4383
-25.0948
-9.11993
-113.112
-163.063
-108.092
-78.8353
-62.8793
-59.3466
-107.633
-123.317
-116.516
-90.4597
10.095
111.968
149.196
121.598
166.326
264.376
273.938
136.191
14.0903
2.99985
6.83759
-14.871
-31.7877
-45.9053
-12.9047
121.196
202.81
156.74
23.7145
-84.2747
-108.89
-83.2644
-72.7905
-107.025
-136.377
-155.575
-181.902
-74.3312
-17.5478
1.3066
91.788
105.289
99.3758
131.541
59.4289
-87.8797
-125.112
-97.9393
-13.2764
105.272
162.961
167.759
96.3707
-41.7815
-107.791
-103.772
-121.228
-136.27
-105.202
-86.899
-33.3371
33.4133
14.0636
-5.79926
-15.5078
51.0456
89.6808
185.858
147.979
-94.6152
-156.22
-112.489
-78.6892
-44.6407
1.89633
33.6486
110.649
162.425
214.149
176.786
80.1386
43.1654
53.3864
-13.2302
-89.4215
-80.2065
-38.7924
-114.732
-128.565
-32.3189
-34.3367
-36.9281
-5.17148
36.0562
79.0357
103.442
75.4556
67.4468
-10.7372
-79.4022
-129.579
-138.051
-69.8406
-17.1817
-14.7727
-58.039
-32.9479
-5.18579
-64.5455
-48.5249
-21.0972
5.23683
61.1869
69.3801
38.3653
19.7978
11.5093
-34.2248
-32.1776
24.8437
90.3449
85.7631
63.6037
98.4175
133.877
150.841
65.713
21.698
20.4438
-22.0961
-35.7044
-80.6139
-156.184
-161.445
-49.0229
-11.9457
-43.6458
-75.5331
-87.7454
19.9561
92.0411
38.0493
-60.8118
-65.2207
19.4313
60.0099
-15.7825
-74.2662
27.6159
180.696
215.533
101.515
-9.06448
-63.9508
-105.688
-185.071
-228.34
-157.204
0.0976425
35.2958
65.2701
140.962
140.122
75.0976
66.3597
34.7054
12.3167
-1.83857
-56.184
-91.8173
-119.337
-54.6422
9.12443
19.3088
59.2249
92.3414
118.116
100.478
21.5158
-59.2832
-167.621
-171.037
-86.6267
-26.6109
3.13285
78.7153
167.284
230.657
213.37
121.167
-4.08747
-119.205
-146.979
-133.469
-158.499
-132.12
-68.0218
-36.9177
35.9408
111.393
166.624
112.136
45.0021
38.484
-38.7219
-57.5768
-75.2374
-160.646
-102.498
-64.205
-105.395
-61.2232
9.12597
101.57
115.743
134.869
164.028
179.52
100.93
-9.40774
-58.1572
-62.5788
-109.532
-169.656
-199.96
-227.206
-180.921
-15.8503
89.3977
91.4862
79.0371
82.6548
73.4785
9.48346
-31.3239
-55.2599
10.1347
116.326
215.264
291.647
313.905
236.343
76.1399
-10.1187
-44.631
-108.832
-227.562
-271.673
-258.162
-226.44
-53.065
77.595
77.099
6.66393
5.05714
61.5548
48.9795
-102.251
-251.318
-253.519
-188.134
-19.6143
232.759
254.973
208.063
159.812
118.987
43.058
-31.479
-35.7598
-56.4617
-90.4819
-77.4714
-52.1051
-14.7559
13.7015
34.3939
58.1741
72.2649
27.8271
-41.5836
-126.971
-162.647
-63.6083
-22.4547
13.8567
19.4651
52.492
153.672
251.063
259.375
141.142
72.8608
84.4601
64.9653
-23.1536
-143.523
-189.714
-162.855
-221.037
-234.22
-182.093
-169.807
-104.882
10.0819
103.186
163.894
163.84
123.815
73.5018
-22.6341
-114.388
-158.849
-104.717
-52.5677
-37.7708
61.2077
195.084
250.969
277.204
194.067
112.624
65.6475
27.3786
-19.6173
-119.475
-106.445
-105.879
-170.999
-180.681
-102.514
69.1417
173.225
62.6595
-58.7682
-141.024
-228.437
-255.527
-228.667
-76.4474
99.2183
132.929
144.397
127.257
57.1315
27.7537
51.0048
72.4871
70.5768
66.6086
74.0877
54.6612
-3.13367
-35.497
-24.1514
116.084
156.751
97.7312
94.179
7.55749
-56.6656
-39.7912
-80.1831
-144.372
-105.175
-47.9407
-62.0572
-101.98
-153.317
-186.493
-101.001
-20.0364
15.6805
106.478
183.504
109.711
99.3408
160.446
41.9569
-82.1106
-123.913
-108.953
-35.8389
38.2517
90.9097
56.7127
12.9168
13.5265
1.89955
21.1561
49.7278
34.0583
9.94769
-56.8002
-143.249
-111.354
-55.623
-27.011
35.9127
126.468
126.697
49.4201
-34.2052
-101.839
-163.511
-126.145
-98.2971
-46.5187
62.6164
109.749
83.3982
63.9836
77.7867
162.058
185.4
87.5825
-15.3898
-104.717
-105.171
-56.3067
-36.9022
27.9942
124.47
133.53
53.9829
-31.2294
-32.4037
-84.4453
-125.784
-67.5821
-54.9035
-61.5439
-33.655
-56.0905
-62.7949
-42.5222
-34.5053
-82.8785
-62.8647
-13.3561
20.376
66.0452
46.3053
33.9056
59.7543
63.4293
35.4301
75.2676
99.2744
39.459
23.6009
36.9742
27.8038
-12.4121
-25.0288
-37.9264
-60.5489
-68.1613
-90.8412
-82.142
-5.81543
80.6743
179.31
181.234
124.447
88.1106
108.334
14.3937
-101.106
-121.156
-69.1868
6.50696
74.1044
107.457
59.994
-26.9102
-125.779
-156.337
-193.999
-218.747
-260.982
-256.918
-182.401
-11.6059
66.1364
38.6043
23.7
52.7181
151.608
140.601
2.50241
-62.6023
-21.8861
14.6378
-5.88112
51.6272
153.326
225.667
263.279
261.886
216.884
124.107
-41.6479
-200.636
-213.175
-120.223
-42.9083
21.7663
54.0455
63.7608
105.274
76.9074
-40.3509
-138.333
-104.623
-103.063
-137.816
-27.0424
52.172
51.0208
108.55
82.9757
45.2681
32.2804
18.0904
10.9031
-34.8097
-128.577
-207.597
-245.755
-220.466
-174.638
-145.719
-92.4031
37.8326
171.223
219.797
180.474
174.494
146.576
92.4484
10.4875
-127.35
-172.65
-105.473
-43.3676
-28.8122
-9.63349
28.0704
63.5112
53.3115
96.3859
146.275
159.712
75.7401
-34.1553
-28.4803
13.9331
-40.4029
-84.4501
-83.1152
-19.1524
87.5126
172.678
146.056
122.029
134.248
101.434
-38.8913
-116.39
-166.236
-197.62
-138.33
-74.5528
1.68631
21.6858
-43.8213
-96.5513
-37.9671
3.97696
-10.2886
-16.9178
7.40373
-65.9318
-106.007
-103.282
-107.929
-77.6954
68.6256
169.281
125.146
48.6247
-12.1923
-16.0119
-18.8886
31.5916
96.3414
67.9103
-25.2821
-90.0917
-112.26
-29.2801
91.1431
196.478
190.576
81.7143
16.5653
-0.905643
-37.0514
-116.6
-72.2409
98.0265
181.323
121.48
41.5479
-48.9383
-143.86
-197.237
-191.178
-62.8202
39.796
57.2837
129.96
107.189
-16.9977
-17.2102
17.8008
24.7911
-82.3174
-147.877
-81.7418
-99.5521
-104.323
-4.47524
24.2488
82.9234
179.301
133.33
67.0292
5.46326
-43.4818
-124.72
-197.656
-135.556
-5.02307
31.6445
59.7417
51.4885
59.28
104.638
151.754
145.206
-50.508
-214.172
-171.414
-126.308
-126.182
-37.2308
108.254
237.466
263.468
180.283
76.2726
53.1377
28.3338
5.11374
3.65826
-41.4977
-97.3486
-134.225
-132.4
-120.308
-32.695
23.984
26.0672
80.3673
52.6576
14.0125
-46.0111
-183.904
-244.27
-145.105
-45.003
-20.9647
9.34464
37.2792
40.6873
26.7429
28.3549
69.6818
121.489
137.063
146.153
162.284
166.853
90.1352
15.4456
1.94293
-2.91421
1.27485
5.17914
-12.1272
-85.9355
-103.342
-123.132
-125.313
-89.4456
-24.9722
71.7475
101.555
4.85346
-72.1666
-146.204
-154.46
-111.369
-97.7913
-92.2754
-89.7911
-85.928
-28.8438
5.2882
167.678
337.312
298.648
263.449
215.096
147.677
45.0223
41.3375
17.2985
-227.449
-322.264
-170.182
-107.761
-122.032
-88.3258
-41.1383
36.9805
53.06
-20.8007
-65.4876
-92.9167
-100.413
20.3629
169.23
153.245
33.1886
-3.40955
-8.89193
9.34029
101.815
133.468
142.765
81.503
0.0221128
44.7116
81.038
50.6361
56.9835
71.8771
67.6614
-25.9143
-168.413
-265.765
-249.96
-174.283
-86.6585
-9.7729
-61.4356
-91.1377
-1.42178
52.9704
-22.6399
-30.269
45.0398
131.47
105.509
1.56722
-56.2014
-46.3443
-67.4436
-79.3164
13.6994
77.7689
25.1032
40.8961
84.0054
113.494
130.417
125.454
152.494
113.694
51.1419
-6.81733
-112.144
-173.137
-99.1797
-21.8311
47.2141
98.4905
72.5094
3.27777
-44.932
-85.756
-70.4453
-71.3753
-34.4702
-38.1896
-91.326
-127.573
-87.9965
-18.4038
-14.549
24.7317
136.464
124.329
18.9379
-31.8202
-96.5544
-121.565
-22.7729
46.4403
7.32163
-19.7171
-24.4104
-91.8511
-130.492
-32.6931
88.3542
160.538
135.861
124.91
191.456
264.67
157.528
-25.2206
-64.8119
-30.8233
-33.2597
-37.7487
-8.9926
-25.3805
-51.2294
-48.0868
-46.0525
6.71243
31.7303
10.9418
-8.31036
-25.4632
-25.4447
-43.3627
-109.439
-225.449
-216.185
-75.7302
-29.8349
-39.5051
-22.9137
42.4457
100.202
69.5685
53.5442
85.5936
59.8007
10.6856
5.52175
34.1146
154.186
214.53
98.9236
-24.6116
-12.5582
9.75539
-59.8896
-198.247
-159.073
-8.62727
57.9416
41.1602
71.6246
104.062
102.173
35.7686
-1.31788
-20.0062
-13.0836
-54.1266
-191.969
-218.404
-158.238
-85.2647
-22.1933
-65.5679
-52.1904
99.2382
209.248
233.45
187.408
104.146
-15.0597
-44.5608
0.809456
-19.6004
-9.03724
-24.2705
-62.1527
-83.7284
-0.246001
37.6846
-3.15806
-51.4325
-124.85
-84.4512
7.0799
2.05446
-3.99051
-7.71507
12.5768
56.5806
51.2237
57.0862
-4.60418
-18.314
12.4178
19.3334
-4.02182
-14.1394
-34.2118
-12.7757
102.835
146.527
145.682
184.913
131.534
35.6135
-79.9612
-139.832
-172.713
-198.264
-158.732
-110.593
-58.8425
25.2348
55.2222
75.4969
98.0643
44.8644
-26.4148
-71.5644
-101.582
-104.05
-81.3427
-17.9979
51.6001
59.5357
6.04551
-19.5247
-43.2951
-62.1483
42.5446
99.5369
121.385
131.495
84.8422
76.1337
95.0293
132.672
91.8368
19.1193
15.0168
8.26003
-34.5188
-68.4366
-117.731
-120.41
-118.043
-145.098
-75.4808
22.0464
25.725
-31.0459
-28.704
23.7241
35.0271
-4.86215
-1.15887
-20.0331
-45.1857
-39.8446
-63.0746
-26.4984
13.6794
-115.936
-171.284
-54.4514
86.3753
152.326
166.604
125.708
136.315
182.766
166.199
44.4217
-19.4589
-20.4061
-56.9723
-42.8698
10.7486
30.6823
11.7759
-8.44968
-59.4423
-58.0603
-39.5758
-61.3185
-65.6713
-65.0837
-9.37883
37.8903
-51.1069
-108.916
-76.1137
-66.7984
-86.9137
-53.468
68.8329
161.39
138.984
93.4508
19.16
-41.1756
-27.694
19.6001
31.5605
7.53716
-47.9796
-49.5717
1.56511
-9.27011
-3.45097
-10.5146
-115.324
-123.292
-21.8731
55.7347
41.3271
43.1327
104.385
115.727
16.3553
-105.628
-141.791
-38.0963
84.0541
127.793
86.2454
62.5226
62.2647
107.27
140.203
137.994
182.085
141.317
12.324
-28.3796
-159.057
-339.777
-434.711
-350.549
-143.086
44.0625
138.766
164.978
150.861
143.042
87.276
-25.4513
-86.4681
-83.3099
-130.043
-192.084
-222.794
-156.827
-10.2826
26.0805
37.6178
102.212
188.628
233.101
175.785
56.2814
-16.6743
-115.864
-139.536
-109.343
-13.1042
113.992
168.797
138.119
139.526
150.405
67.6146
10.1851
-13.9971
-94.6238
-114.969
-45.0056
-11.3595
-63.6337
-91.0423
-47.2615
-19.7132
-3.75382
-36.4706
-68.187
-20.731
132.135
281.573
215.294
71.2659
-54.2761
-77.8605
-67.6822
-80.3083
-45.7338
30.4308
58.7724
37.215
-35.5704
-116.64
-190.861
-217.705
-193.258
-122.323
-36.8214
-42.7831
-143.682
-164.361
-77.0836
66.2993
164.545
122.908
111.05
140.51
80.5912
56.0193
37.5876
12.1175
60.4132
162.615
224.468
165.59
80.0279
27.8001
35.6928
3.38459
-48.2542
-154.26
-206.295
-182.467
-79.6383
56.0652
135.262
142.955
115.171
22.8085
-54.8594
-105.341
-94.6722
-31.0915
14.0557
111.572
122.467
8.52297
-14.3401
61.4439
24.3014
-46.1973
-106.625
-146.13
-164.948
-131.668
-121.069
-117.029
-122.217
-127.083
3.7506
117.399
113.05
40.4168
0.321403
-21.8271
-4.05091
63.9778
110.305
121.441
72.5387
-10.4297
-0.463875
1.48429
-19.8878
1.96255
52.1094
85.7529
99.0955
111.944
45.96
-43.5153
-67.653
-41.4251
-4.29924
36.0457
85.3703
109.774
19.4733
-8.85414
-26.9557
-8.58813
-1.57698
-12.6213
6.45577
17.1075
-51.5815
-159.609
-171.648
-116.122
-100.651
-98.1018
-88.7246
-87.5556
-73.835
-30.5117
29.5434
112.538
104.575
9.07162
-18.51
-46.8444
-47.0896
35.737
105.002
169.256
218.401
201.278
154.96
198.437
175.448
23.7973
-91.9378
-88.8355
-66.9284
-50.0899
-96.4289
-205.92
-233.208
-132.918
-86.0135
-49.1355
14.3074
43.2591
44.7144
-19.8267
-77.4361
-83.5811
-75.4256
-150.422
-76.9912
69.5781
159.083
212.945
116.602
-0.136049
-20.9006
-24.2856
5.6803
75.6363
85.689
108.463
140.655
137.511
85.2866
23.9965
9.04748
14.0928
13.7316
-26.5692
-81.2426
-86.1955
-72.0137
-31.794
53.4138
18.0484
-61.4795
-84.3309
-171.969
-238.777
-171.3
-25.3666
22.7524
-21.7591
-14.5546
58.7953
46.4292
50.2399
125.546
101.61
15.6414
-39.3343
-59.2044
-120.779
-81.0474
-11.4347
-0.266082
48.2461
159.997
184.86
121.952
-51.0473
-112.146
-75.9851
-20.7471
-16.4277
18.4326
46.8979
73.0925
131.473
80.0216
12.6723
24.4862
52.0164
10.977
-32.5752
17.2468
71.0525
101.242
-13.7966
-79.7021
-12.91
-13.1713
-11.7366
-68.2118
-143.044
-199.087
-154.316
-66.8689
2.42979
88.7695
124.011
6.14136
-128.703
-119.142
-70.9116
-44.1334
-59.6831
-32.3153
78.7433
149.979
139.411
77.3377
51.2886
43.162
50.4091
24.5743
-44.7232
-131.681
-195.202
-126.389
-19.9212
65.3097
79.3282
74.0239
69.6668
69.0771
113.017
110.327
98.7013
8.36757
-50.469
-23.1008
-33.0107
-56.3098
-20.5485
42.5893
136.665
170.685
36.932
-55.3486
-47.0891
-26.987
6.20183
10.5876
31.8675
40.4431
-65.0863
-203.756
-240.023
-167.257
-108.387
-57.4451
-10.3077
75.6353
142.341
97.9412
10.2189
5.2484
-23.4864
-123.102
-108.267
-15.5169
23.9855
-2.19778
-0.040135
10.4616
17.8315
48.0196
68.4478
56.2219
72.4915
36.8561
31.5334
2.46275
-84.6014
-83.2133
-51.6022
-55.142
54.2425
200.595
180.418
68.7919
-27.0644
3.14234
76.0633
118.996
71.1654
-4.69498
-9.78762
-2.75624
-38.1611
-1.65212
-52.0676
-111.321
-135.315
-43.6418
43.5337
34.371
18.3301
-6.49824
-26.7601
-70.3993
-62.7644
-79.0164
-123.429
-156.644
-131.594
-86.8509
-9.64978
53.6348
78.2128
49.0015
11.8134
14.2644
17.7884
-57.2326
-63.9773
42.9047
129.672
100.483
96.5388
144.112
150.062
42.6588
-75.8492
-103.081
-43.326
10.5394
48.0356
28.6358
-23.5593
47.0731
157.849
153.104
154.349
161.195
78.2081
-55.5562
-134.738
-145.837
-243.137
-285.512
-217.092
-84.0194
39.5403
62.2239
44.469
74.0721
16.0828
-39.5181
-20.283
-39.5374
-50.9657
4.44751
11.9893
3.53741
43.826
44.408
6.83635
-39.0217
-13.624
22.7387
37.9138
56.5815
56.421
17.2132
6.60883
-35.72
-13.7497
18.7714
-4.24561
-25.981
-47.668
-82.9815
-116.977
-110.072
12.9014
143.498
165.506
162.415
149.709
86.0935
31.7967
44.6651
95.1477
92.1744
2.14119
-99.7035
-170.641
-94.6168
51.3029
109.825
85.7091
52.7811
-11.6544
-50.0304
-162.433
-266.196
-294.437
-216.011
-139.017
-90.1325
-35.8698
11.8847
36.2938
71.4976
118.831
155.133
196.317
180.426
66.6035
-15.9508
-67.4195
-63.3494
-20.3638
21.5607
37.9868
63.8879
60.5051
-18.9544
1.36485
77.8012
70.9976
5.27187
-23.0505
-67.8558
-94.2226
-94.5011
-114.152
-71.0122
-19.113
21.765
63.3034
72.8953
100.102
148.774
199.232
211.622
124.065
80.1957
-19.4312
-132.25
-148.176
-150.019
-174.118
-161.364
-157.977
-154.887
-102.719
-78.1307
-59.5436
-64.942
-32.0569
15.8934
67.834
105.912
51.8696
39.3813
118.149
114.049
91.8361
82.8301
31.1814
-51.4954
-64.2473
-12.7212
93.2012
192.815
175.855
95.4798
67.5524
80.3524
44.9919
-67.4725
-174.21
-224.407
-196.285
-124.495
-55.7667
2.96441
31.7557
1.86303
-17.836
11.5005
-9.19654
-33.1857
-38.7202
56.9224
139.217
105.121
-27.1991
-120.852
-180.189
-79.983
91.5001
181.45
199.4
151.12
28.6299
-47.7835
-96.635
-98.93
-91.4185
-113.06
-32.6702
27.627
13.439
-12.764
-40.2349
-15.8049
70.4051
149.334
187.812
141.435
11.6116
-125.052
-157.234
-162.37
-170.736
-204.553
-146.859
1.4088
84.2149
94.1817
88.8389
113.978
114.656
36.2011
-10.9939
-6.45787
-29.6361
-5.79798
54.5132
97.3903
101.531
68.1765
22.7858
-9.24845
39.7777
102.47
116.211
24.2964
-24.1015
6.73517
4.7341
58.1132
24.9698
-149.961
-238.42
-223.676
-174.572
-78.2018
-23.5176
-65.85
-38.8398
3.74283
24.7864
73.4009
100.959
89.2137
14.6907
-47.988
9.36505
14.0604
-57.4265
-102.708
-43.4473
97.6896
158.087
83.8393
-9.86449
-112.082
-103.152
44.6258
83.4707
58.1843
10.9968
-41.2752
-28.7476
36.2275
99.9438
127.798
74.2612
81.8352
48.8176
-105.186
-168.528
-81.3733
39.8389
111.188
115.249
60.9189
-38.5186
-96.303
-99.2519
-84.4277
-89.9365
-103.849
-51.4259
-5.00307
70.5125
117.668
52.2627
-64.7735
-72.7749
-66.6238
-44.2971
-47.2307
26.7543
71.294
79.8944
74.8832
33.6371
-18.7614
-26.9509
-30.2434
24.883
63.005
50.1613
42.9368
42.7674
1.99322
10.9094
11.3354
-73.2777
-100.923
-106.882
-120.804
-93.1898
-7.76115
-23.6469
-12.5398
77.3587
112.4
76.1243
52.1027
70.0507
113.437
143.113
156.406
73.2281
-35.5056
-76.0379
-65.0092
-29.8903
-0.558944
-23.6972
-81.1582
-150.836
-105.636
43.3194
98.8758
-23.9599
-183.4
-195.69
-97.7844
-16.6427
-17.5607
-22.0756
-24.9889
-61.2379
-36.5786
-20.4069
-17.681
44.2211
140.021
209.923
209.389
162.084
91.9036
36.2823
6.56427
11.3211
85.0132
161.509
96.3562
-54.3625
-120.197
-134.477
-133.09
-42.9503
0.387541
8.04994
34.5191
37.9359
30.1946
3.64158
-59.2896
-142.971
-176.189
-155.174
-138.86
-102.574
-25.6574
-16.6448
-25.1997
-1.91298
56.985
104.744
133.367
113.974
170.815
241.672
163.588
101.61
80.1347
44.393
-4.21197
-97.8244
-131.808
-119.927
-114.269
-122.979
-95.7576
-76.6237
-14.5083
20.1996
13.112
-45.8989
-86.3407
-2.53569
31.5053
-23.7317
-46.4435
-48.7864
-43.3563
-35.7755
-12.8168
25.0239
59.0318
94.6468
101.604
126.737
98.6205
63.0043
105.722
138.178
82.1201
-22.0402
-91.3007
-110.387
-174.1
-231.133
-142.732
11.2445
98.0009
128.959
120.666
75.2013
44.7634
-1.10679
-39.7342
-78.1898
-78.4158
13.5399
65.4422
1.97553
15.0088
130.183
142.491
18.1008
-50.2404
7.2817
58.9525
21.0945
-94.0078
-173.578
-126.946
-30.993
-73.761
-90.5368
-1.69693
93.112
126.378
19.209
-70.4254
-32.029
-55.0402
-113.756
-165.408
-210.83
-236.599
-142.467
19.8869
88.0697
152.775
260.14
246.247
194.872
193.826
143.219
44.4723
-22.6007
-83.8645
-95.1876
-106.923
-79.7927
-15.5815
-11.3456
8.35663
130.944
189.982
80.5856
-77.6663
-127.348
-132.479
-34.7733
147.501
188.847
123.918
82.5121
71.4664
16.733
1.11777
0.662437
-22.7724
-78.2413
-129.281
-144.086
-106.042
-30.5364
8.84601
9.98032
3.24141
-47.7138
-107.536
-225.836
-338.64
-305.51
-175.294
-85.4894
-27.7641
67.8862
154.315
139.599
82.4512
98.5014
113.844
165.632
198.265
164.154
115.995
78.6429
37.1885
14.0866
61.6272
137.899
107.228
82.0842
79.1859
34.77
-4.1709
-21.1009
-73.1891
-132.173
-140.738
-124.988
-36.9999
22.5712
-17.6651
-92.4862
-87.0962
-62.3522
-4.67302
4.31821
-61.3904
-137.105
-118.878
-113.265
-141.4
-116.155
-39.34
32.5966
80.5853
164.844
213.88
198.152
122.522
-8.70584
-40.4117
-28.7914
2.23239
32.8062
-1.91884
-15.0309
-2.15733
19.9075
10.6562
7.1919
57.5256
75.5312
27.7733
14.0247
17.0391
26.6755
61.7706
26.0381
-9.30687
-16.1901
-56.8213
-37.1243
-78.7668
-129.548
-115.313
-85.5198
-31.8346
12.6569
84.0905
99.7596
64.273
27.4372
4.81337
-16.817
-77.1404
-122.078
-136.575
-75.6291
3.08091
42.284
30.5228
43.4541
99.5551
87.9407
103.958
122.641
118.811
157.048
83.0702
-17.0308
-102.264
-155.356
-190.827
-229.673
-176.693
-61.9614
38.3117
71.0666
-26.0132
-146.65
-171.857
-95.907
42.1508
172.108
219.704
288.739
316.495
67.6179
-139.766
-179.675
-97.6142
-21.9734
48.9105
110.964
148.422
187.048
171.687
64.1658
18.702
29.8927
7.18769
-55.1575
-155.486
-237.185
-280.924
-323.87
-255.647
-114.659
6.68018
58.5889
103.301
142.32
147.251
128.981
71.0078
22.3999
-12.9628
-6.1309
-2.57809
28.7997
64.2437
43.3016
-10.9807
-70.1006
-79.1858
-71.6777
-106.804
-68.3548
-1.40211
60.0864
121.888
192.98
176.079
110.773
56.3034
-26.5257
-172.763
-231.559
-136.019
51.6165
194.427
158.005
-4.16017
-55.4508
-47.3279
-81.5087
-101.939
-93.9841
-35.8437
-23.5135
-42.9921
-76.2199
-91.2175
-55.4358
8.52718
115.155
183.17
197.811
180.156
94.9105
-4.7109
-51.404
-0.0831646
55.1216
24.7194
-44.0223
-97.0553
-66.2955
-48.2166
-71.2607
-82.9819
-36.8072
-6.11426
54.8294
28.7998
-38.2033
13.2482
-11.5804
-114.869
-152.668
-188.758
-124.959
15.7232
149.152
270.054
342.782
303.459
129.053
-57.7916
-121.75
-105.646
-98.636
-36.2872
-20.8551
-29.4145
-51.6209
-84.4086
-68.4557
-30.2824
12.3958
101.007
146.033
153.038
71.6937
-88.571
-272.716
-298.185
-211.451
-96.0107
57.6133
121.525
25.5277
-40.1691
-9.07184
64.4933
146.76
190.304
239.809
262.904
176.545
87.9946
11.4914
-95.0789
-107.646
-65.3137
-76.2361
-115.065
-88.5335
-18.021
-64.7023
-146.868
-118.197
-30.462
22.7825
49.5627
7.7165
-58.4037
-60.0553
-51.5443
-50.1134
-23.519
-5.93436
2.37054
-25.99
-18.5452
56.758
98.8274
93.5019
106.16
136.584
134.22
82.9354
13.799
-19.0237
-15.7947
-14.0903
-27.4154
-15.5492
44.1395
19.5702
-57.4123
-51.4918
-9.25125
-129.966
-160.386
-38.5118
57.4283
61.0601
-47.218
-73.3663
-11.5
72.5773
98.6771
77.2231
60.728
54.5485
9.38685
-94.9533
-170.994
-112.648
-58.9501
-62.5544
-14.4538
99.5931
88.9165
43.4384
50.0425
75.0482
153.362
153.986
85.9376
22.0729
-44.3801
-114.776
-175.277
-160.425
-111.419
-51.6435
-7.57666
23.4029
45.2516
35.6962
8.8907
33.4912
37.4883
19.8966
14.1966
-15.9738
-69.3521
-71.3567
17.9223
99.4069
66.1458
-32.1167
-106.749
-70.2304
4.36475
56.4078
17.9804
29.4227
87.8592
59.7738
45.5574
-0.542675
-47.8474
-64.8515
-45.3939
10.5481
115.72
153.819
91.2738
-28.6781
-49.4477
-1.02426
23.301
0.280645
-21.1791
-54.9526
-3.13199
5.93975
-82.7865
-117.037
-140.539
-159.966
-116.936
-24.9583
42.7847
51.6261
4.17824
-44.0859
-59.0347
2.12372
71.1755
91.842
85.0103
31.2587
22.2249
29.6368
41.712
97.5118
141.427
140.839
75.1472
8.67627
-11.9356
-29.3862
-113.762
-83.9897
52.2552
137.559
81.0407
-41.1003
-116.688
-108.44
-18.0931
24.8793
0.592072
-0.999398
-13.647
-58.1934
-154.255
-134.523
-0.322228
124.086
140.051
53.0565
-30.5844
-127.756
-186.799
-189.854
-127.631
-22.1621
43.8755
73.7211
47.0906
8.11803
18.2827
16.575
-18.0823
-63.876
1.71497
93.5486
167.191
221.284
177.279
94.619
46.1041
4.93484
-85.2307
-159.299
-117.99
-5.62262
13.1715
5.94247
40.5785
76.8993
15.9169
0.741823
73.2484
190.648
223.454
114.925
-36.4796
-101.735
-92.8927
-116.545
-105.891
-37.4442
-18.0739
-79.2264
-155.405
-189.122
-133.818
-29.7896
-62.7709
-82.1996
49.0299
119.448
27.4411
-66.5448
-70.2934
-24.3585
81.5584
93.7839
84.7317
93.377
57.1134
-7.14159
-73.594
-95.8061
-42.9974
18.5719
50.274
36.9975
75.2504
140.793
62.5782
-26.1013
-15.5586
-7.24783
10.5172
20.2879
-3.00346
-112.916
-192.607
-126.309
-23.7409
56.0991
141.634
209.868
240.216
223.439
133.527
8.19801
-7.54674
-52.5028
-73.2332
-70.5986
-36.8583
17.8508
3.40438
-67.1496
-221.758
-259.372
-187.777
-137.854
-99.3655
-25.8346
8.0947
58.6164
62.9362
98.8063
77.7539
32.7513
-14.0195
15.5245
93.2005
103.506
87.1085
1.05742
-53.2971
-85.1099
-46.9421
102.743
193.965
165.408
127.596
34.9592
-83.1666
-194.87
-244.057
-269.443
-223.697
-53.9431
64.3042
54.0669
68.9738
66.7574
48.9125
76.2891
69.5827
65.4863
73.565
63.4016
31.4506
-34.4536
-55.6726
40.338
158.997
193.252
134.75
35.6002
-22.937
-72.1155
-111.704
-56.9376
-29.1412
-9.66044
25.7188
20.8179
-53.4645
-157.621
-161.367
-142.524
-28.7422
34.3795
-48.1785
-139.601
-138.462
-151.123
-146.126
-75.0278
124.797
266.549
245.448
176.736
103.061
25.9019
-30.1
-56.7751
-60.914
46.241
156.714
124.836
33.393
48.0448
77.1546
22.6166
-46.2319
-27.9163
-40.0713
-87.9663
-150.377
-173.323
-98.6161
-23.1777
-41.5148
-51.2897
-24.7879
-8.87932
-12.9867
-27.3718
-5.5957
22.8648
18.1524
40.7348
106.9
193.942
170.39
94.5477
85.7803
106.687
85.3635
42.0099
-35.1492
-92.4397
-102.245
-79.2632
-126.067
-157.557
-40.2057
-18.5988
2.50367
65.9674
26.5686
-105.979
-163.146
-143.059
-55.9799
48.8246
136.584
177.127
182.321
148.291
42.4915
-55.0989
-43.6466
-22.9583
0.978638
52.3337
51.1802
37.3759
-17.9597
-81.1976
-93.8235
-39.5379
-41.067
-66.3684
-125.808
-183.583
-159.094
-157.397
-151.409
-56.4097
71.5722
130.916
112.483
33.9973
-32.0103
-16.2886
39.5499
148.857
224.79
230.517
233.916
195.286
145.71
119.915
111.867
69.0707
-40.9345
-116.305
-174.845
-203.631
-152.374
-90.9175
-94.5751
-48.5185
34.5206
49.2082
38.9607
-21.1606
-107.381
-145.989
-152.558
-84.6807
-29.4858
-42.1223
35.2567
118.61
122.336
140.467
115.328
16.3049
-96.4484
-144.353
-139.14
-57.6818
43.0588
91.3038
97.6656
52.1865
10.61
23.1686
30.8068
38.5045
51.9338
13.173
-99.6613
-115.159
-76.1625
-65.5022
-63.9338
-17.2394
42.1767
41.678
68.8862
121.365
141.546
94.5497
2.53502
-18.256
-2.50988
-41.0412
-79.559
-118.289
-109.666
-50.3347
13.4054
146.221
165.336
182.068
164.351
40.0292
-19.886
-60.207
-98.614
-157.249
-215.555
-157.292
-2.61118
69.4392
92.8217
75.054
8.35212
-36.2159
-76.0186
-76.8694
-66.5717
-142.701
-71.9231
31.7742
18.6091
-11.8434
14.5843
83.0563
124.139
148.443
135.259
91.1575
23.5817
-79.2714
-67.1395
39.2116
69.7867
39.979
-15.5175
-10.3402
34.8483
-35.3376
-104.284
-101.998
-40.2295
57.527
101.554
87.3548
41.8074
-47.5096
-36.0429
-54.3494
-68.9609
-35.649
-72.6763
-105.456
-26.3533
47.4243
80.0159
49.8699
22.7202
-12.3322
-72.3612
-169.885
-139.448
4.11919
44.3569
9.04828
42.5304
106.492
79.9153
42.3734
29.8555
61.5407
45.9223
52.4713
50.0549
31.5578
30.9192
-25.0691
-81.6243
-68.3003
-113.238
-138.503
-99.7067
-23.8355
108.188
168.948
184.468
168.183
86.2045
49.6501
36.0106
-39.6181
-88.8647
-152.056
-125.653
-94.2466
-80.3862
-27.0392
-56.6219
-92.4961
-18.4457
101.518
148.245
101.291
14.513
-6.12915
-16.533
-58.5479
-30.3732
9.51577
-35.1665
-82.4193
-33.0105
65.7123
14.2833
-18.8402
1.70814
-39.5444
2.66635
101.902
130.841
59.4787
-36.3129
-76.7764
-126.203
-144.759
-62.7804
40.7991
36.1664
10.2628
64.1291
132.204
91.0003
-10.4424
-28.7747
37.3602
36.0809
11.7128
41.1029
47.7054
17.8303
-20.01
-73.7638
-122.766
-59.275
53.5213
119.731
86.8679
38.2781
-44.2639
-127.629
-130.237
-54.2232
2.85604
56.7762
45.1677
50.6857
73.3346
31.0269
21.2426
1.60875
5.07095
26.7609
16.3949
-10.8858
-68.1852
-95.7374
-102.7
-135.522
-151.331
-92.2559
-69.3539
-55.6484
3.24302
-6.66773
21.0835
52.7633
80.0826
97.5467
79.9071
101.619
142.603
116.057
28.1956
-29.8651
-40.5091
-30.8227
-9.5834
-8.00889
35.1367
74.384
145.441
174.751
143.398
141.518
134.13
57.4574
-63.9883
-103.186
-134.671
-182.941
-185.246
-156.462
-207.328
-250.119
-206.871
-134.983
-42.3173
44.3032
84.6881
131.367
92.8221
-42.1228
-83.5681
-46.1072
15.2884
87.3148
105.165
147.255
176.522
93.7116
-42.0288
-50.6097
31.355
52.3093
48.8604
28.9748
11.3753
37.8778
73.711
33.609
-16.5752
-64.6012
-109.389
-148.376
-156.167
-98.9143
42.2014
54.5794
26.694
44.6869
77.1421
118.241
116.655
106.958
37.6218
-30.7789
-41.9298
-57.3428
-67.7723
31.4606
73.7983
71.5439
49.5628
-16.6298
-81.2498
-74.2069
13.1243
-28.1954
-129.639
-167.454
-105.338
-95.6125
-56.8503
43.4607
71.2952
20.9392
-8.95097
29.1057
94.3562
82.3109
-16.1358
-60.4233
-54.6896
-61.1782
-7.85675
12.7527
-51.6749
-80.7005
-0.200155
89.6023
96.9837
93.3013
108.783
92.7887
87.9251
38.603
22.7844
13.6415
-53.5577
-97.7133
11.6042
84.591
9.63887
0.671744
-18.6263
-63.1565
-105.762
-88.926
-49.2069
-24.9158
-2.39824
9.42545
-12.7468
-24.1477
-25.7429
36.7123
56.0356
3.42112
-16.1911
-67.8709
-68.4231
-11.3619
113.314
194.313
224.847
147.743
92.218
-6.0302
-105.547
-132.128
-96.224
-53.871
-8.00221
62.5064
92.8549
-31.2657
-129.536
-159.414
-179.823
-151.985
-101.415
-28.1014
43.937
89.2363
123.15
82.8562
-21.144
-2.36856
0.798023
-7.32936
-36.1399
-43.8059
-71.4552
-94.3364
-50.3386
40.2076
85.0164
173.664
250.406
212.048
156.489
131.554
78.2976
-19.1482
-149.817
-202.832
-162.643
-128.674
-17.5907
89.7624
80.9784
28.9775
11.5479
32.7031
16.5876
-6.48269
-36.1021
-48.488
-55.7069
-6.47202
-15.0363
-72.1075
-81.4327
-74.866
-99.1007
-117.726
-51.9707
59.9008
90.6647
63.3104
61.4791
75.5627
97.1798
84.9576
20.8956
-30.5844
-123.253
-229.912
-230.222
-133.917
-24.4544
22.9957
108.015
200.765
236.802
291.45
313.51
272.227
211.672
112.962
-2.3628
-126.182
-281.708
-308.027
-240.485
-170.169
-53.9017
32.0801
83.1364
57.9703
22.2221
-17.0064
-103.402
-159.496
-177.53
-212.434
-235.635
-188.532
-119.23
-33.0503
59.8641
166.277
251.381
292.553
256.641
175.562
154.74
201.829
160.443
47.366
-31.0699
-31.7792
-17.5061
-12.3219
-21.1121
-59.2237
-145.286
-214.457
-169.312
-103.466
-76.9261
-95.4672
-34.2027
2.52233
3.64321
97.0487
174.364
184.972
110.65
34.1187
9.52666
-26.4837
-84.0614
-147.69
-60.0187
84.9336
139.784
61.4127
-17.2554
-38.0972
-36.9047
-9.525
-33.3988
-68.4885
-65.0812
-14.552
-8.37441
-81.8098
-113.926
-56.7138
-5.87825
0.999853
2.84947
52.8199
32.684
20.1068
56.6064
83.9706
55.6079
26.6473
-23.0764
-42.4347
14.7221
17.1327
17.9487
6.9456
23.8419
58.8836
104.107
80.5247
-1.18775
-43.0998
-14.8432
-24.0894
-23.3676
-95.1156
-142.927
-35.1533
57.8929
82.5717
117.43
163.168
82.0229
-21.3959
-86.6393
-190.379
-193.431
-104.056
-2.80803
53.5142
38.4657
52.4945
60.9333
31.1672
-11.8086
4.49461
26.5159
-12.9564
-99.7626
-120.361
-85.5534
-63.3827
-56.0387
11.8291
121.536
181.17
132.974
59.0751
4.08102
-19.4084
-1.55541
11.6444
47.6833
21.1047
-44.9186
-34.8151
-26.6855
-44.7016
-1.95009
-17.7498
-48.5426
-15.9681
45.449
75.2953
27.7415
-22.0804
-42.375
-87.9178
-67.5019
-5.5043
62.4005
46.2474
-61.8898
-117.757
-73.0149
6.42566
82.8329
140.426
157.12
158.935
92.2217
-37.194
-93.9438
-120.958
-117.419
-65.9173
-7.23677
46.8808
40.3187
39.9675
0.187871
-25.8046
-51.3816
-51.7852
-18.6284
-1.74517
-2.39669
19.6818
66.8163
47.9843
4.00591
-9.07795
-31.7
-14.9081
36.983
63.7692
25.0907
32.3421
63.6573
42.2815
34.8382
29.3379
53.592
70.136
8.64896
-39.2522
-151.755
-265.673
-301.077
-233.766
-101.05
68.7366
148.574
154.388
147.051
146.678
142.465
24.604
-85.8287
-133.9
-129.794
-119.461
-155.095
-131.055
-2.12858
88.4763
134.417
155.911
162.813
163.278
124.688
49.2494
28.6358
5.47329
-70.3342
-119.634
-138.288
-81.2038
28.2753
119.811
138.768
99.6677
127.07
88.8516
-12.858
-33.9166
51.3907
69.9311
-9.53697
-98.1492
-114.211
-115.472
-155.926
-180.491
-123.834
-71.201
-47.6239
-28.0843
-43.9357
-75.2854
-62.7256
-32.3772
-36.4165
-86.917
-48.9717
22.6379
78.9513
96.0347
39.878
98.5392
147.872
156.76
125.664
98.3999
90.9846
72.8337
56.9971
34.9611
19.5443
5.0866
-3.98192
-6.62413
45.5922
102.636
44.702
-72.1278
-155.235
-140.294
-94.3858
-104.42
-62.998
-13.9674
35.4671
23.7778
-10.9599
44.8304
78.5754
43.3506
-9.93124
-25.4108
-82.4019
-90.2258
-47.8309
-6.1547
-11.6184
-39.0342
-90.3902
-100.564
-54.7855
-54.8014
-70.7335
-38.2555
23.4068
35.4718
35.8522
37.4617
89.5866
101.425
73.693
99.3116
221.787
214.775
49.994
-32.0504
-74.1374
-44.9128
21.9738
60.382
57.9378
35.0873
-5.35097
-56.8068
-83.5868
-109.753
-93.1663
-114.637
-161.656
-154.441
-97.9583
-38.1855
-37.3763
-7.53877
88.2515
112.925
86.395
128.955
201.643
184.524
114.455
77.743
9.1896
-67.5998
-105.564
-85.2854
-40.0855
-47.9176
-34.0075
23.0178
79.5081
32.5127
-68.6026
-140.19
-153.909
-71.5281
14.7184
-15.4214
-40.149
-37.2515
-45.0954
12.7309
69.8608
75.963
14.5632
-55.2562
-69.3812
-32.5782
-2.9269
12.9627
44.0763
61.9671
85.8972
105.219
54.9946
-27.3375
-39.9007
-27.7133
-81.9559
-61.1679
-4.17967
-59.5202
-49.1844
16.2608
83.3262
155.706
207.93
205.835
155.308
119.937
65.3958
-45.0775
-104.232
-121.755
-103.279
-73.7039
-51.3216
-58.6058
-89.7719
-85.3008
-4.56246
-12.0222
-15.6614
-13.9903
23.0126
71.1657
78.9706
48.0548
-45.5624
-138.026
-184.458
-113.376
-32.0216
-35.0754
-34.9033
2.17775
24.1579
42.0735
65.0032
88.6663
106.667
149.168
89.8479
-28.5515
-129.628
-151.328
-156.67
-186.865
-122.17
21.7304
101.757
121.515
139.238
154.437
178.97
165.167
116.37
114.031
106.539
22.3174
-60.8253
-92.1176
-115.019
-68.1894
-29.7944
-60.5938
-85.3898
-66.5019
-14.3743
43.5717
43.3538
3.98617
25.7754
103.686
110.171
10.4404
-90.3789
-189.93
-193.631
-136.671
-154.392
-131.173
-57.2032
9.90905
90.4768
144.269
140.813
124.606
73.915
-8.48966
-32.4227
18.6546
45.3115
29.1834
-15.4606
-11.6751
38.8815
81.9334
33.2993
-60.5843
-67.2451
-47.5606
-61.8068
-70.2851
-67.2201
-50.2962
8.78934
75.1412
126.951
115.875
87.9965
82.5659
19.0159
-116.2
-147.724
-58.1038
-29.3123
-47.4555
-68.2997
-50.5946
-23.2873
27.8152
64.5419
73.4974
99.6365
120.121
93.761
94.9882
99.7164
44.2591
-35.3004
-136.43
-167.082
-108.476
-56.1782
-15.0313
16.2175
47.7525
84.4252
96.1589
65.1811
-5.99831
0.00163428
-29.6739
-70.5382
-46.4735
-8.20024
-51.0588
-59.1942
-35.9216
-61.4842
-93.7483
-74.5506
3.71
29.1285
11.1416
-30.4561
28.6967
115.181
119.707
46.434
-4.17019
-12.7788
31.6893
-13.9994
-96.2994
-150.417
-121.44
-58.2059
-5.65081
64.5223
104.173
69.7747
32.7619
39.4935
61.6711
81.7093
55.1934
33.2043
46.3414
74.2521
68.7236
-13.2682
-72.4641
-55.1614
-49.7108
-5.67208
32.6648
63.5946
99.2192
55.5662
-25.717
-103.257
-132.767
-81.8019
-32.15
-54.0421
-67.081
-32.8525
84.8271
156.892
94.7709
10.8411
-37.637
-55.199
-133.146
-100.08
-13.9828
7.4451
-8.2097
-0.111756
7.83849
55.1565
126.887
90.1238
30.7952
-19.76
-108.551
-190.238
-214.749
-130.844
4.07469
55.3013
13.9502
26.3738
65.7125
41.865
4.29736
-30.022
-62.7619
-40.1637
59.2831
163.419
147.934
93.565
83.8244
96.4199
79.0255
48.5694
-12.0193
-13.8034
42.3909
106.152
103.7
11.2914
-14.8176
-12.5225
-52.124
-117.859
-108.874
-86.0048
-41.8086
-21.9695
-11.4342
22.3598
34.8681
38.4644
25.5775
-16.6777
-110.988
-190.821
-237.354
-240.475
-134.836
3.62572
82.8504
111.574
73.2538
52.7932
53.4926
58.2205
43.0113
6.3345
17.3626
17.0237
-7.17492
-40.6171
-28.6331
-9.59348
38.5102
25.2783
-44.2722
-28.8293
34.5153
106.083
121.596
100.385
98.5518
122.782
134.798
90.9396
39.4101
9.06991
-24.427
-79.2692
-115.151
-107.739
-100.701
-82.2867
-7.14749
122.96
166.821
77.0838
35.3532
-61.3505
-212.831
-230.576
-168.672
-164.03
-153.126
-89.1569
-42.6851
11.9068
73.5999
110.558
97.9227
27.247
34.2217
80.1406
38.4461
-55.8079
-60.9345
44.8866
87.1321
108.314
159.867
129.176
67.4211
45.3543
2.43012
-15.962
1.02494
8.44578
-2.68406
-34.6355
-68.5638
-41.7269
-30.645
-49.4246
-68.6635
-58.7777
-76.2158
-122.359
-124.056
-55.7425
57.1131
90.1888
105.015
141.903
153.287
113.018
49.6487
-50.9691
-124.897
-132.25
-37.5273
17.3981
22.583
-23.0305
-48.8191
-32.4613
6.29058
22.3671
-12.9273
2.35258
-35.3459
-86.0084
-93.9767
-119.435
-131.695
-75.0814
-2.97077
67.1497
112.58
145.473
171.111
170.323
100.925
62.886
63.895
38.8101
32.5791
9.48591
-22.0002
-36.6892
-33.4387
-17.5384
-30.9666
-58.8851
-36.3937
-11.7755
10.2443
46.8993
82.2985
57.47
-39.1918
-95.8353
-81.6644
2.92835
18.7206
-32.971
-40.4821
-30.1195
-67.9175
-98.1493
19.7169
79.2182
57.8987
5.64951
-59.8904
-79.0737
-74.5048
-64.3596
-71.7322
-43.8658
45.4026
58.7327
-2.47836
-104.322
-146.516
-107.281
-50.146
41.4351
124.966
158.08
112.173
72.2579
71.9721
100.953
122.409
127.58
86.2546
50.0813
78.6473
84.8254
23.3518
-16.1002
-41.838
-52.7065
-46.3302
-41.8396
-63.29
-41.6217
56.446
150.294
108.174
-2.65998
-71.8281
-102.995
-108.063
-143.026
-142.535
-160.726
-210.982
-200.096
-112.292
19.8966
68.1491
103.741
106.874
63.0916
51.7392
28.1744
2.79432
-48.1637
-121.316
-77.7159
47.4734
141.423
125.303
23.0547
-3.59064
51.3349
87.4238
77.8626
22.4219
-16.1494
27.6308
18.7741
-25.5509
14.7699
59.768
36.7525
0.543406
-26.7502
-30.7527
-12.3067
-33.1037
-40.1491
6.74658
88.0981
105.637
45.1245
-57.5255
-113.695
-78.2696
-23.5587
-7.50025
-1.05126
10.7868
7.36559
-24.0663
-45.8935
-77.5456
-55.1538
-22.1883
26.5827
85.0787
114.67
114.022
75.9435
-4.16804
-30.615
-21.2168
-46.4796
-82.3703
-140.437
-135.846
-78.071
-41.6595
-9.8555
28.5526
35.4218
4.43591
21.349
101.706
89.5763
5.40059
-85.4597
-101.584
-49.6339
-8.91736
10.6085
42.6746
80.1069
108.473
115.191
128.22
150.897
141.307
40.9434
-40.6418
-73.4909
-71.4768
-70.511
-94.4018
-95.1643
-77.3502
-20.7881
11.6198
-24.8
-52.2961
-52.0654
3.8102
67.1079
73.7138
54.6293
28.1625
-18.1327
-40.3195
-12.1196
-5.94842
2.3299
13.8947
7.19262
23.7516
30.8431
-1.7671
-13.9116
-8.35063
-7.67062
-20.8862
-13.0186
-11.134
-36.1397
-86.9653
-86.5513
-70.8465
-42.7984
-3.70957
36.3934
67.993
39.3207
29.2896
33.8257
19.048
13.509
14.4508
18.7942
56.8628
115.355
141.152
110.474
50.4127
-84.782
-132.832
-88.7184
-55.619
-53.6042
-54.8741
-24.3518
-15.1816
24.2274
11.7438
-14.1589
-1.50939
-3.11693
37.3525
52.3916
38.51
1.83776
-27.3307
-44.5635
-21.3996
20.0183
52.0274
38.5781
-10.3469
-41.3954
-28.0814
2.70211
12.9316
-7.61326
-10.5769
-14.6298
-32.0893
-51.3764
-48.9793
-42.4321
-46.139
-24.9135
20.0886
54.4034
57.9188
72.9968
62.4821
93.0627
86.2762
42.038
19.2892
10.367
11.7944
-12.8789
-44.4479
-58.8122
-52.3018
-45.038
-29.2799
-9.49756
-7.02216
-11.3054
-6.69561
-9.48078
-13.6861
-8.67465
-12.4623
-35.626
-33.9968
-7.48127
-5.12416
-24.5943
-26.0623
-6.97438
10.8901
21.9434
38.305
39.8145
39.256
26.4868
16.8304
8.93183
-7.95685
-9.27627
-0.866716
-16.6726
-10.7092
4.59742
16.1786
31.7891
36.6099
48.3257
59.3791
36.0977
13.0742
-12.6215
-15.6406
-21.3191
-31.6132
-33.5636
-5.98763
-8.6789
-17.4799
-26.4488
-38.8764
-22.3441
-7.0012
-7.24571
-6.36901
-8.00798
-29.9057
-59.5445
-62.5327
-28.2136
-13.308
-13.6442
-34.4312
-18.8978
42.2215
40.7303
23.627
58.3986
99.8739
148.173
133.933
45.9915
-15.7451
13.2301
19.7125
-27.0495
-62.9839
-44.998
-9.15079
41.1653
29.7306
-19.2101
-15.7555
-20.0928
-43.1915
-48.5274
-50.3794
-47.8227
-48.6712
-58.6864
-30.4163
21.8453
37.6813
8.4213
-13.1263
2.98446
17.8666
-0.124227
-17.598
-42.3978
-26.0204
8.05698
18.3334
23.4846
27.2415
27.2374
35.1748
37.8573
6.39339
-2.60093
-0.119284
13.1124
12.9684
2.99884
1.7699
7.22098
20.7696
2.74415
-19.713
-23.985
-19.7879
-6.80703
-4.25569
5.09528
1.20111
0.148135
0.233187
-0.566825
13.5977
12.2253
5.37631
27.8857
25.8143
16.2213
3.66123
-6.10377
-15.0493
-19.5699
-26.4761
-12.3397
-10.3318
-10.7664
2.75981
-6.33718
-12.7562
-14.4532
-19.3201
-11.1441
5.29413
0.0463383
-6.23655
-11.1098
-5.64605
-4.18012
-7.84759
-9.69862
3.77483
0.504013
-13.6553
-27.4619
-10.482
1.61009
-4.1073
-16.2846
-12.9755
34.1143
51.7107
28.6475
11.6474
14.4197
18.6923
10.5298
-4.62385
-7.0758
-1.63588
-3.47229
-14.0424
-10.0069
-0.444997
-0.801221
2.12461
28.309
47.7345
34.1398
29.3429
7.6045
1.17088
8.55033
10.67
-0.778062
-2.63269
15.0301
21.5222
9.29722
-4.99286
-2.67768
-2.59533
9.77757
10.5826
6.68651
-7.62523
-32.9324
-22.1994
2.11291
-12.722
-32.2842
-29.9251
-26.0183
-30.16
-33.4877
-41.5284
-42.8836
-34.4308
-19.6525
-16.0553
8.64786
9.9551
-5.19531
1.62574
10.4915
-5.93438
-17.5949
-22.6277
-5.4702
18.2207
21.9125
52.002
55.0221
37.0287
43.4886
72.844
108.45
109.922
70.4106
31.4699
-9.18837
-33.8966
-58.6279
-65.2341
-56.5728
-34.7405
-20.8909
-11.5623
-24.6284
-32.0979
-27.0399
-38.2975
-34.1495
-5.89457
-0.894199
-11.7003
-25.7271
-40.7898
-22.5858
-13.3484
-18.6508
-11.8467
15.014
6.98625
-18.8181
-30.8909
-29.4103
-16.9769
-18.9444
3.42617
38.3017
48.1609
34.811
18.1547
53.3841
75.7192
45.9012
27.8085
29.0715
29.8459
20.1892
18.6839
15.9636
7.50991
1.34409
-14.4305
-42.0967
-34.8544
-32.3463
-11.7075
4.25643
-9.25755
-6.39561
1.50854
4.89358
16.4173
-0.988553
-29.2256
-19.418
-5.97457
12.3428
11.4193
2.53623
16.6223
5.7779
9.13665
7.7523
-12.312
-10.8423
0.0219778
-11.3296
-11.3957
-21.0134
-37.8538
-51.5907
-60.3006
-22.9355
19.3475
30.3391
15.5674
0.0440292
13.6449
9.01843
8.87107
35.3726
37.7147
35.7901
38.209
25.0892
-12.4649
0.622866
0.852389
1.4329
1.33668
-24.5558
-40.5202
-27.3379
-25.5595
-10.0483
15.3573
18.7074
8.65731
13.1087
36.6128
33.4556
8.35857
16.6366
22.7405
12.0541
6.99417
-15.3747
-31.5042
-23.5253
-18.6598
-12.8294
2.29146
20.1085
-4.88799
-37.2434
-33.0302
-27.3568
-31.4747
-23.6406
-43.2189
-59.8183
-40.1716
-24.1261
-7.07851
17.9278
52.3672
78.3717
62.3056
56.3454
39.1108
11.8841
-13.0326
-24.9468
-33.7779
-25.8374
-4.54958
26.7921
34.0886
21.3866
-0.733217
-10.5845
-9.93123
-31.6195
-40.4198
-28.2921
-42.6939
-49.7437
-35.4241
-4.08937
66.9635
92.6298
66.2133
81.3826
72.0218
44.6608
-0.736172
-32.5037
-20.3755
-21.3327
-23.5014
-0.922303
12.9753
21.6637
14.6464
-3.41455
-6.54323
-7.74664
3.78613
10.6828
-1.65381
-15.5126
-31.13
-61.4659
-64.9807
-36.8762
-24.3065
-29.1962
-45.9433
-48.6864
-3.09616
34.3713
13.2874
-13.6204
1.58011
33.3327
37.1961
17.1325
12.5362
15.2238
26.5977
42.8535
52.0179
44.0188
41.8336
25.2915
7.2824
12.9302
13.3366
-5.5223
-43.4487
-77.5618
-61.5558
-29.8948
-5.93193
-7.3539
-29.6147
-33.8989
-36.2507
-36.8224
-29.2705
-0.95146
6.05774
-11.2878
-21.4957
14.807
45.5153
45.8262
30.5092
21.1016
37.3366
73.4321
69.2791
15.9718
0.866364
4.73199
-15.8494
-38.2848
-53.7455
-77.0419
-92.8243
-83.8254
-59.7242
-24.8072
52.2139
86.051
99.8753
90.6354
102.658
92.1361
50.1301
13.7817
17.5148
42.48
18.2503
-19.6103
-25.0457
-11.0237
24.7106
45.2553
25.9987
-15.7781
-52.9385
-82.8977
-120.43
-145.15
-141.569
-130.489
-129.496
-132.438
-100.58
-47.2435
-9.95942
11.519
52.4713
74.4273
87.8673
96.8985
94.6233
95.0864
88.6391
74.1925
108.711
156.486
136.945
82.3902
3.86532
-31.219
-15.5563
14.0137
-9.77967
23.6198
128.392
33.5595
-89.2401
-149.888
-138.3
-132.331
-171.993
-128.838
-99.1229
-55.6689
-6.84878
1.88928
-29.4746
-49.1707
3.63946
99.1571
116.116
73.2406
76.0339
62.8387
-12.0145
-43.044
-51.485
-20.9911
64.774
157.786
185.62
142.225
74.8564
0.652145
-57.3667
-71.3714
-72.001
-98.4093
-126.615
-159.008
-101.91
-8.37789
74.2527
75.3104
10.8231
18.5194
45.8939
70.3682
11.5889
-23.9739
-12.3231
-14.0069
-3.1892
-13.3211
-48.1139
-66.5529
-35.6625
40.3026
39.9792
-5.70003
-19.0429
-48.1797
-101.035
-146.623
-143.921
-72.6996
20.1633
58.9293
48.516
-9.50169
-63.2473
-24.9531
50.7883
127.084
160.722
146.507
168.089
172.527
159.789
147.257
192.985
210.653
123.083
39.5749
0.592272
-45.3649
-108.112
-153.414
-91.4458
-14.1103
-98.4024
-247.981
-287.987
-230.079
-136.701
-69.457
-83.6659
-59.0357
-16.8333
-29.7552
-101.752
-124.166
-52.027
-27.5654
-73.2228
-62.7913
16.4306
95.2927
113.26
126.732
199.478
225.888
203.542
173.96
101.724
44.7963
84.4373
109.931
115.099
5.61752
-108.35
-175.078
-165.785
-90.606
-59.7448
-49.3006
2.75846
-2.40613
-46.1271
-19.3224
45.5757
47.3202
-41.6061
-42.1025
12.5901
22.1469
29.4527
33.75
-13.4667
-24.9697
35.5543
126.814
174.506
160.824
188.78
72.6449
-94.7664
-106.714
-168.215
-271.676
-237.867
-59.1459
98.2495
20.9223
-89.6432
-79.1473
-116.964
-189.182
-162.9
-10.6807
77.472
8.62244
36.6004
151.006
160.565
69.296
-68.1491
-108.517
-48.7242
42.8348
113.791
126.711
101.808
73.0279
74.8179
48.1402
2.19096
-26.7687
-27.6807
-51.2446
-76.5177
-38.6187
-43.0668
-35.7731
16.8554
123.264
184.38
143.883
116.205
111.562
127.084
24.7362
-17.1877
-2.64947
71.7765
146.794
98.1524
-30.3781
-82.8178
-82.1256
-118.741
-216.693
-326.799
-408.771
-372.219
-177.621
22.6074
104.685
152.143
121.17
56.3084
24.1207
-12.877
-55.3604
-122.632
-157.623
-104.432
-35.4129
10.3677
42.3065
54.2282
72.5594
108.599
139.029
137.765
141.608
113.424
52.713
-0.809138
-5.2425
-28.7961
49.3543
64.2729
41.3932
28.7585
34.9281
105.119
155.397
203.267
167.818
74.0826
14.0841
-61.1431
-123.872
-144.47
-126.871
-118.626
-99.3921
-120.063
-90.9916
-39.8812
-75.8863
-92.0022
-56.4265
7.68323
32.005
-14.3744
-30.4795
0.989605
37.6904
85.8783
102.049
46.0393
-1.07824
-65.489
-175.212
-197.361
-157.262
-91.4475
-72.0062
-93.477
-15.5673
65.4386
96.8294
87.1812
83.1989
87.8625
113.129
99.2972
5.08858
-9.17011
57.1034
94.9951
103.623
98.8135
100.906
84.5642
65.1692
36.936
19.6086
26.5624
-18.1504
-46.4041
-26.7138
-13.9381
-4.27812
-53.8338
-126.412
-81.586
-31.9251
91.367
152.131
106.376
43.6602
-41.7687
-8.01189
26.7352
89.4933
38.4355
-103.905
-170.316
-101.845
-49.4501
-57.4996
-142.606
-306.081
-294.291
-219.52
-294.756
-279.373
-147.793
63.0175
225.467
251.424
279.867
229.802
137.434
55.499
114.514
143.82
59.9468
7.71214
34.5838
73.875
61.2802
109.925
165.921
84.6791
16.6868
4.67256
-104.271
-146.21
-117.045
-126.433
-155.016
-152.462
-12.9279
83.5495
104.729
145.491
162.899
80.6618
12.3983
-0.0822368
28.4247
23.2007
-3.76625
7.67748
64.0179
119.712
87.6602
-67.2099
-149.495
-128.477
-123.37
-116.211
-122.901
-102.426
-94.581
-120.967
-93.1382
-64.3348
-27.8068
-4.28562
11.0379
11.1672
28.3166
84.3374
173.682
153.476
3.38053
-94.67
-79.1604
-19.2443
52.8972
49.1986
12.1463
-10.432
-65.7571
-22.7815
117.559
255.887
223.758
98.6876
47.6193
75.3399
61.435
-44.6189
-104.927
-83.9351
-87.2896
-126.581
-124.446
-71.9471
-53.1936
-93.5805
-127.54
-124.534
-77.1348
-44.7264
-35.9102
6.24966
57.6485
97.9611
211.902
307.367
232.718
110.413
-58.9627
-208.656
-249.309
-143.41
-126.54
-134.495
-2.05003
157.046
224.873
290.438
357.768
252.433
29.0727
-159.826
-167.696
-52.7642
-124.392
-220.267
-152.403
40.0771
176.428
133.828
86.111
23.9832
-19.8297
-19.4683
-64.1503
-68.864
-96.1638
-177.005
-274.802
-276.69
-170.56
-76.691
-15.4794
-21.7157
-3.21785
55.6209
104.215
105.851
88.7889
51.9082
115.115
110.603
88.4253
78.2502
70.5407
62.8871
45.5424
79.6429
87.245
173.864
233.384
158.73
1.86668
-87.6542
-79.9202
-71.3872
-114.928
-93.5308
-68.1808
-30.1236
-56.2175
-74.1842
-80.3035
-80.1007
-87.399
-75.7255
-31.1555
-51.2748
-70.2632
-59.68
-61.2572
-33.4042
22.5784
86.4557
130.653
105.012
52.5266
-22.1965
-24.325
45.1178
44.8822
5.2923
-50.6509
-88.9876
-20.9712
51.7946
123.595
68.4787
-6.16213
-22.9289
-13.7985
-38.4846
-19.3246
27.1766
56.9043
53.5291
95.5793
47.6498
-75.5977
-136.211
-122.483
-46.8874
67.1603
88.9119
29.9965
-4.8841
-52.5375
-18.757
37.0544
22.9041
40.39
55.4237
-4.45433
-10.0839
-28.203
-45.171
-90.983
-122.974
-89.6323
-17.3251
90.4944
123.933
120.303
141.837
154.667
94.1699
-40.0637
-124.234
-177.113
-206.136
-210.888
-142.692
-43.5817
-4.61954
44.3947
70.8237
37.0055
-4.61076
59.2324
131.052
122.777
132.63
96.581
70.6095
77.6201
38.452
-93.9243
-132.471
-94.5317
15.4717
67.5623
84.5177
133.314
88.7764
54.9337
19.8008
-33.2422
-51.6851
-53.1966
-14.683
-53.3497
-117.955
-100.364
-108.507
-175.743
-164.854
-80.8284
-5.67508
63.9315
113.663
84.2064
4.94896
-106.462
-164.298
-216.324
-197.052
-38.0697
94.5368
148.735
147.415
128.047
109.46
97.6992
80.8859
-4.77571
-28.6151
12.6631
122.485
264.372
226.322
112.164
35.8369
28.9098
28.8548
-8.05554
-45.4805
-57.2592
-38.1049
-97.5697
-162.721
-141.617
-95.3026
-85.0922
-71.2017
-1.3382
80.1338
95.7474
45.2681
-97.0711
-148.843
-70.572
-16.9846
-5.87251
18.0027
29.2126
34.3797
59.4512
55.744
42.4486
21.6053
49.0502
64.7994
8.28822
-48.8798
-39.7573
-65.1993
-93.6245
-108.432
-135.964
-144.499
-131.911
-78.5514
23.2596
105.399
110.021
107.896
110.624
135.322
118.277
88.3337
52.6357
112.823
140.608
28.6822
-106.77
-153.155
-99.4827
-83.0614
-63.2697
-34.611
-7.24742
31.5114
9.92345
-49.671
-18.5181
34.586
56.2997
56.9676
91.2797
108.316
23.6729
-68.1141
-65.3727
58.4869
181.076
171.782
77.6631
-7.58158
-40.2503
-53.8936
-91.5097
-198.616
-201.865
-166.929
-123.809
-110.381
-67.5928
-34.1643
-32.24
-73.7192
-77.7028
-44.0323
43.545
119.101
92.3556
68.1767
100.862
108.397
57.249
45.0607
78.9362
122.823
119.026
99.0272
85.7191
49.8965
1.53178
-67.0721
-97.9872
-44.152
-8.95068
-13.7876
-8.31318
-69.8561
-114.557
-79.9036
-31.5456
-41.3403
-28.4803
-14.9445
29.3734
30.8103
-48.8059
-30.8023
25.2678
49.9597
103.255
137.108
149.788
25.4407
-92.8757
-54.6697
24.3897
73.0359
44.5161
-12.9418
-65.7545
-122.416
-120.914
-107.647
-135.497
-119.25
-72.7546
-49.8908
-11.7267
1.94371
24.8384
-23.3538
-90.8042
-67.7546
59.12
143.381
148.267
109.721
119.13
101.952
85.394
121.867
63.833
31.6431
25.6623
34.6957
65.7332
23.8238
-38.3279
-56.1081
-81.3618
-35.2917
34.205
30.3539
-11.9461
-56.0765
-121.227
-133.397
-138.718
-103.748
4.8713
51.2321
5.55164
13.325
71.6569
120.234
137.019
89.5678
-24.6293
-79.7002
-101.209
-112.161
-77.7971
31.7017
47.7636
32.0462
142.759
201.246
203.909
93.8176
-90.4118
-173.265
-193.739
-221.467
-263.632
-258.324
-199.04
-91.7418
-10.3059
3.65267
25.363
136.878
193.603
105.488
57.4296
19.3679
-14.3619
-8.36081
-5.26778
27.0829
41.8895
21.219
59.1672
123.742
173.42
218.537
198.049
155.481
163.858
133.737
50.5868
30.2757
-11.421
-71.7848
-126.924
-156.698
-164.5
-188.923
-183.313
-106.222
-46.9335
-45.4141
-27.4815
75.4739
119.276
38.2254
-70.6757
-145.078
-136.023
-30.0888
3.3424
-10.3143
-37.9673
-47.4742
39.4452
6.97364
-84.0574
-105.426
-67.3522
-42.674
-37.5671
19.3488
78.8331
39.7235
-17.5955
6.07685
80.0588
166.23
200.134
132.829
99.3581
23.6627
13.3975
65.1403
72.6706
62.627
40.0208
38.5008
22.802
-21.3917
-6.80428
17.9913
-43.8455
-76.9743
-53.4688
-65.3881
-96.5663
-106.975
-81.7503
-91.7412
-95.2425
-121.11
-65.273
11.9351
6.38041
32.7443
72.1023
83.7575
52.8522
5.05635
42.1292
212.214
295.911
180.378
1.4211
-109.231
-151.351
-142.608
-187.734
-190.181
-123.341
-86.1346
48.9829
105.034
96.0264
126.006
70.5168
13.2803
0.786115
-4.04412
-45.1063
-142.434
-156.43
-99.6186
-100.261
-49.8964
39.2999
57.3136
59.295
147.387
229.116
212.357
80.4023
-24.325
-44.6362
-70.0409
-71.443
18.8178
90.7255
87.0907
102.717
17.3459
-113.079
-192.695
-104.703
-38.848
-47.0861
-38.4368
0.0397988
-11.7256
-51.93
-61.469
-62.3922
-20.9193
-35.056
-14.602
55.7135
133.347
209.219
214.665
159.682
97.5224
29.4257
37.871
22.6589
-45.4117
-61.1111
-88.9356
-111.221
-115.509
-116.579
-25.6729
14.7362
49.7677
46.6667
-37.6092
-24.3337
53.1154
-27.2083
-120.868
-119.451
-91.3987
-30.2779
17.4954
14.9673
14.1894
8.09218
-19.881
-26.9025
-6.93261
-5.95293
-14.1963
-24.4922
-91.3912
-110.753
-42.9754
1.72124
-50.5328
-47.2794
61.3136
84.6213
169.387
221.776
197.158
149.127
151.84
144.424
97.5642
56.5595
7.40312
54.2463
64.8861
10.5941
-26.127
-27.0917
-37.9473
-49.1961
-59.2844
-63.8875
-107.735
-145.087
-220.594
-213.144
-146.861
-86.0328
-76.7843
-90.2504
-32.9811
3.00169
-24.5218
-67.5651
-65.8753
-28.6531
17.5083
71.1156
125.356
157.213
107.58
56.8583
44.3189
56.2167
105.38
115.933
98.4145
101.678
91.55
44.5191
23.4924
53.3252
54.8469
-8.21371
-48.5197
-73.504
-79.0691
-66.0881
-52.71
-82.9387
-121.811
-92.9066
-11.0317
51.2033
53.5378
-29.5118
-92.1269
-67.066
-9.13238
41.0217
16.436
-33.5836
-15.4349
-18.957
-55.2062
3.85614
85.1726
212.249
287.356
150.064
-39.8054
-114.714
-171.331
-241.173
-243.322
-166.396
-106.252
-96.6501
-120.941
-70.9564
60.6899
228.6
337.604
345.806
308.151
212.825
12.1863
-158.936
-234.083
-168.687
-15.0613
70.111
66.9475
100.807
88.4477
-49.4879
-90.7407
-71.8244
-25.8823
-17.0252
-57.0735
-131.666
-167.18
-100.393
-49.577
-49.5602
-46.0047
-31.5089
-19.8736
2.67514
23.2318
40.5117
108.382
124.265
106.212
128.855
122.351
138.312
152.328
156.221
104.252
5.75971
-84.4485
-132.119
-140.374
-125.085
-67.3573
-71.1439
-59.6866
2.39828
46.8329
77.0481
95.1281
57.3362
4.45853
-23.5664
-43.1182
-91.5732
-152.373
-147.864
-134.074
-102.4
-52.5113
-40.3596
-52.707
-44.7701
-3.55246
55.9569
112.335
113.486
48.5785
-64.5078
-47.5024
68.7317
67.095
61.8509
143.165
152.687
99.5527
56.1922
77.0226
73.2065
9.9967
-36.8306
-28.1038
-5.80241
-19.3136
6.12681
-27.635
-128.857
-122.454
-65.9662
-52.6907
-46.5915
2.86741
17.6624
25.4476
17.2615
-19.132
-27.7751
-44.8969
-106.146
-102.162
-53.1947
-44.4658
-25.7378
78.0985
136.979
131.918
187.298
222.413
150.144
74.0023
85.7075
63.5092
-49.3298
-208.023
-231.61
-181.7
-109.159
-97.9266
-58.8463
-17.0139
-14.9136
-46.4749
-37.5086
-14.679
-51.443
-15.523
144.421
217.531
92.7504
-10.4705
-88.57
-88.7048
6.34042
64.9622
77.2562
71.2557
5.59807
-13.2127
40.4636
42.3756
10.9734
13.1142
30.7611
17.3068
3.35757
-2.81706
-60.6164
-106.264
-36.4662
-17.9745
-50.9576
-19.3637
64.8582
127.692
137.789
76.654
26.6851
-0.85258
-24.973
-15.1113
-54.331
-44.339
-1.22127
19.4351
28.384
48.1214
-3.53155
-7.44148
27.0131
-29.9003
-126.086
-170.499
-214.707
-189.756
-94.2024
-76.6701
-99.8404
-74.8255
-11.743
34.0892
130.201
142.105
71.9568
40.3447
11.9091
-22.1779
-31.2419
0.379382
70.4904
153.378
187.126
169.168
236.556
232.079
106.124
66.0226
27.5454
-16.2611
19.5783
45.907
-13.4088
-106.865
-171.112
-210.118
-193.437
-147.608
-95.6864
-131.264
-169.552
-116.808
-26.0899
58.4701
25.6079
-53.9384
-54.375
-3.83602
59.82
79.0267
41.7665
34.4757
46.7394
36.8093
46.904
71.1117
69.283
63.6444
85.5549
89.451
34.6369
-0.663612
-23.2789
-34.2958
-15.492
-14.7074
-19.3981
-40.4009
-24.1426
-13.327
-62.2196
-77.8851
-14.2737
107.223
212.175
204.623
131.396
72.3857
-11.105
-78.1743
-13.148
-10.6719
-29.0991
-95.52
-205.572
-231.832
-203.794
-171.559
-129.72
-100
-98.6886
-63.7677
17.5818
89.1135
102.806
71.0144
16.505
-37.1624
-7.81239
46.8752
89.7084
128.123
152.288
196.267
183.91
122.759
124.138
132.422
74.082
10.0609
11.1393
-3.7615
-50.7777
-80.2921
-86.2321
-37.4137
-19.7403
-42.8587
-130.789
-164.085
-190.367
-167.208
-120.988
-106.097
-53.1662
66.5019
168.065
193.674
148.501
84.8201
19.4704
-19.4159
-42.2229
-81.1592
-127.724
-127.186
-66.4295
8.42772
26.0399
26.4506
50.4519
29.6542
37.3919
75.7092
82.481
65.5792
16.3408
-12.2701
4.94475
5.82191
43.836
92.3277
60.6417
9.59958
23.7346
34.2805
1.28933
17.0474
21.4336
14.2567
-34.8397
-62.2216
-64.1979
-49.6711
-49.3676
-104.022
-156.799
-175.995
-95.0575
30.3573
12.5136
-53.7915
-65.0883
-56.2176
-74.5219
-98.9934
-52.1607
13.1487
96.804
191.135
204.656
174.397
136.087
38.3629
2.497
38.6511
71.1802
82.291
59.7254
40.8417
43.0431
14.5087
-42.8278
-45.4207
-20.2462
20.1183
-12.3312
-62.7706
-61.3121
-68.3365
-53.2373
-51.8026
-68.2001
-30.4673
13.3782
-19.1374
-43.9757
-34.0158
-19.1647
-5.05724
-3.6599
17.8445
54.5506
38.2653
1.32163
0.300224
20.816
7.68986
-9.9278
0.852429
10.261
15.6221
20.2555
19.0247
22.7506
51.3289
58.2329
9.69777
-14.1279
-36.3358
-48.5458
-60.3783
-54.4707
-38.3571
-59.4137
-73.9897
-53.2759
-33.4989
-46.184
-65.2374
-41.6804
-20.0173
-11.1335
29.0727
83.5814
92.3591
68.0062
79.1023
44.0766
27.6741
80.8934
80.2076
40.6027
86.5909
91.21
30.408
20.8853
-12.1964
5.4874
129.815
149.431
9.19223
-88.7118
-95.615
-93.3299
-109.131
-101.908
-75.9493
-87.6784
-113.363
-114.013
-74.1618
-63.0474
-82.5412
-42.7924
14.055
-7.67226
21.1858
-2.86653
-108.433
-76.7406
73.8935
183.781
190.676
97.8845
23.956
20.2471
51.2175
107.858
149.384
74.9392
-31.0984
25.7314
57.2545
48.0422
57.3521
-3.94885
-38.4689
-73.3631
-108.423
-106.45
-97.2096
-102.625
-88.9272
-12.0606
24.5895
2.60225
-35.7904
-56.2078
-55.4739
-11.5738
103.382
125.423
67.7369
22.92
8.88356
21.8232
1.07467
-22.087
-26.4955
-30.2091
-12.6095
-16.9404
-46.0682
-15.2104
19.5045
-1.02821
-26.801
-37.8402
-82.8659
-82.4044
-66.3524
-64.6543
-48.9693
13.2813
94.6415
108.842
126.575
190.378
155.306
83.1037
69.9595
45.651
-2.25146
12.8593
66.1571
68.8608
11.5223
-48.3338
-27.7103
-39.82
-114.588
-176.729
-151.046
-108.226
-75.4666
-33.7257
-53.6042
-26.2234
18.9688
19.2649
-78.9099
-118.91
-2.21785
45.1965
1.76606
27.3439
64.6356
71.9832
124.636
171.405
163.425
105.067
8.54349
-96.8881
-126.662
-73.0549
-41.0457
-65.0988
-37.8911
0.867812
38.3921
44.7189
49.1344
22.2362
28.2315
42.4275
26.5109
-17.7062
-46.8808
-75.2888
-88.5507
-37.1046
31.6631
28.2511
25.7846
56.5656
63.8235
27.4853
-1.57617
-27.2646
18.8049
72.7722
4.66754
-50.7746
-62.1371
-72.3794
-69.2494
-100.087
-144.977
-10.6406
153.96
152.525
114.54
103.459
57.8399
-40.3038
-114.77
-98.5547
-51.6207
-41.4679
-24.2533
9.87457
40.8316
43.761
24.2491
64.2753
69.0332
70.5873
32.497
-69.9591
-110.407
-93.9575
-67.685
-40.8683
-32.9544
7.91682
72.2345
65.1423
18.626
21.2982
9.04188
-26.3302
-38.7317
-18.4066
-30.4419
-40.9248
-41.1383
-20.1911
23.5917
-1.86268
-79.797
-49.0016
38.9491
49.1001
23.7462
43.2612
87.9454
80.6706
15.0228
72.8978
123.055
77.3328
82.5307
68.2138
20.6173
-45.7385
-83.5549
-28.5578
34.951
-5.69711
-8.87013
6.3849
-24.5021
-71.1572
-105.425
-162.87
-195.784
-138.505
-48.066
-9.27517
21.5061
50.7458
10.7972
10.6602
20.0045
7.35184
8.73176
-13.1504
-28.4181
7.01721
54.5433
69.3368
59.3898
36.5384
55.3319
95.3989
85.9678
80.1888
56.0872
-2.09696
-49.1991
-19.567
6.26811
18.7865
36.0438
-3.02117
-26.652
-13.1627
-32.1741
-44.575
5.55688
16.4408
-68.2992
-85.2125
33.6525
93.8428
-24.351
-102.75
-73.8551
-33.5521
4.70995
-15.5138
-58.5491
-46.6007
-50.5645
-28.4349
68.782
82.0931
-2.66031
-52.5476
-91.0172
-51.6349
70.3256
138.764
63.4252
-10.2452
8.52442
1.96604
-4.66319
-0.200663
16.3328
53.6555
35.147
-4.11214
-17.1094
-32.8541
-24.648
-17.9029
49.6581
110.62
50.6285
-4.11796
5.18979
44.187
30.6563
26.7038
49.4078
66.6113
46.466
67.3594
21.173
-91.7343
-155.794
-207.555
-163.897
-46.7903
-11.0479
-13.6612
-31.683
-18.5024
6.69638
-21.2193
-71.8168
-76.4373
-2.00348
31.6405
76.7675
121.357
119.488
81.8406
-22.7448
-65.499
-15.6665
61.8056
39.6886
-11.7255
25.1652
30.9785
-15.5442
-26.9402
-7.49683
2.73555
-27.2942
-50.1671
-40.2729
-16.9691
-10.4831
-10.5347
10.543
-6.22596
31.3595
82.9923
118.041
129.058
89.5985
54.8715
0.363929
-30.6352
-12.1856
-30.6696
-56.2273
-32.4034
-42.4237
-61.9225
-86.942
-89.7693
-44.3168
-14.9467
-64.0931
-107.948
-107.776
-78.8657
16.3757
65.8264
68.3301
74.191
98.6446
85.1282
75.1568
110.856
84.8334
-22.9991
-40.4488
-46.9618
-25.8749
-30.8287
-36.2539
-22.5875
-0.960995
9.1173
14.8937
64.6522
65.7321
-39.6824
-115.185
-126.695
-67.6678
31.9708
126.885
127.629
153.542
182.616
114.795
10.0335
-118.789
-174.007
-164.108
-112.74
-19.8536
1.89461
-12.061
7.50163
25.2281
10.2042
-6.18051
-36.2622
-94.4615
-66.4993
5.4417
-40.6235
-82.6897
-44.3023
27.0312
52.1459
105.081
139.045
16.0537
-29.0419
-26.4389
-1.72577
77.8651
45.5872
-56.1607
-42.9559
47.9962
95.6692
95.2509
22.0657
-65.7687
-20.2074
46.928
6.23549
39.0247
130.476
166.642
136.8
51.2064
-124.009
-178.242
-177.554
-153.817
-93.0933
-68.0186
-23.656
10.5498
54.5359
88.7527
63.7704
-7.77781
-99.2636
-121.559
-113.313
-146.244
-147.619
-100.29
-19.8964
94.311
174.464
134.401
113.133
91.9533
76.4665
58.6916
75.1737
110.347
100.09
33.9966
-10.0414
-53.0342
-88.2731
-96.7738
-41.371
12.524
45.5076
24.4913
-22.4592
-17.5184
-0.333371
-3.10877
43.7567
25.5664
-14.7227
-33.7322
-86.9953
-106.023
-84.7198
-18.4453
-9.46661
-20.2843
-6.62367
12.8238
51.1988
77.3657
31.9615
-64.9675
-72.7921
-22.5854
20.9169
16.3306
-29.7956
-31.7457
-7.03392
96.0679
170.695
121.537
33.6771
-11.9087
-26.471
7.57468
32.4736
-12.7028
-53.5456
-122.853
-131.51
-37.7794
49.1649
17.2076
9.21665
20.1037
-7.84991
-58.1481
-66.5511
-27.9373
17.8483
65.4875
97.8553
127.87
123.986
77.0994
-6.00412
-86.0315
-124.923
-61.235
41.0261
46.2197
4.78634
-8.87685
-12.9921
-54.526
-49.4074
4.76022
3.21751
-37.8061
-74.4571
-42.4026
5.20384
31.6154
13.4969
-23.3646
-49.6954
-42.358
-24.8359
-20.053
-14.7357
-19.6888
-21.8105
46.222
62.6517
88.2544
134.092
172.344
186.191
142.099
78.7942
45.7398
-45.783
-140.228
-178.404
-156.722
-54.6557
16.4478
-5.52225
-29.3455
-72.3021
-84.7325
-57.4006
2.52718
32.2553
64.27
63.4644
49.3213
5.55133
19.8124
24.2495
-37.9698
-76.7201
-103.316
-80.9131
-11.0726
4.51781
15.728
40.4386
13.5996
-20.5636
-35.9389
-36.5899
-38.3635
12.7625
31.4881
44.5241
57.649
46.0125
-10.1799
4.01437
60.1585
77.4292
84.2728
63.4652
5.42187
-12.6447
-3.74575
6.98167
15.6488
12.3724
-11.1009
-9.83909
-15.8924
17.6412
77.5707
28.8933
-68.2013
-62.0664
-29.6825
-26.652
-5.72342
2.06109
-46.0343
-81.4814
-28.9524
31.6827
45.4288
33.1917
-7.33243
-42.9181
-57.9838
-74.3121
-66.1667
-55.5238
-67.8203
-74.323
-17.8211
53.7428
57.9555
-26.4416
-40.0104
31.7093
139.301
186.282
163.201
82.9956
4.1758
-6.04625
-25.5254
-24.5608
-40.9775
-30.1622
-56.4163
-124.858
-109.128
-39.0397
-23.2759
19.2971
121.055
173.259
87.3968
-25.3091
-37.6297
18.7046
-34.8291
-54.2556
-16.7061
-8.77844
-47.9411
-108.216
-49.6711
32.5371
78.6069
117.525
96.05
71.6231
60.7833
19.0507
-100.486
-151.765
-126.261
-104.897
-62.2371
-84.1623
-93.7686
-13.5799
5.83388
23.8042
179.309
311.634
305.067
196.53
110.823
77.9388
33.8951
-55.5388
-116.527
-189.311
-180.128
-96.2078
-44.8173
-67.1115
-149.676
-142.745
-99.9604
-113.427
-90.56
-79.0362
-21.7784
44.0753
11.1384
20.9065
70.1293
72.1238
58.6311
66.5317
141.761
166.336
122.577
58.0002
23.9753
44.0246
46.1337
69.939
101.04
52.3726
-23.3486
-54.4469
-92.8747
-119.364
-128.915
-114.231
-81.0173
-63.0164
-20.6275
51.8742
83.1685
48.5056
17.4429
3.65032
6.258
71.7535
107.394
33.4129
-37.4676
-13.5175
5.89632
4.5259
-41.8033
-96.1637
-82.3922
-65.147
-83.7029
-47.4974
-19.1039
-79.0447
-82.2161
-48.9666
-12.5148
117.147
184.043
54.2611
20.9556
49.006
43.9726
20.1716
20.3212
3.59807
-24.9657
-37.3662
-9.34428
15.3472
17.3826
7.34245
15.9573
74.6536
39.9209
5.18372
-29.1098
-73.0113
-53.07
-28.2007
-25.8739
7.22508
27.6683
12.8875
-37.5497
-34.7551
-4.5374
33.9434
50.7666
55.7861
37.4722
-23.2991
-51.2109
-13.4724
19.9734
30.3055
25.947
6.92961
51.0434
100.417
-3.38378
-121.092
-104.271
-77.3283
-52.9024
-4.31894
27.9661
21.8714
-13.6075
-37.6862
-14.7517
36.5765
30.6897
2.3907
-28.3985
-21.8878
56.6048
94.3873
17.0505
-61.9891
-20.7768
63.7737
79.8861
65.8476
45.8667
-0.971498
-65.3014
-69.0662
-97.8989
-126.96
-96.1493
-67.355
-29.6072
27.635
89.289
108.6
87.9277
55.1606
-38.679
-104.869
-94.4983
-1.93317
58.0266
99.4672
135.005
133.886
100.737
-8.08348
-25.8523
-21.8396
-75.387
-110.349
-56.4852
1.26766
21.9838
38.5292
62.284
17.7306
-88.4965
-83.1717
2.40177
34.7189
7.16744
-46.3621
-75.913
-49.4769
-22.1016
-21.7127
5.81591
19.5077
14.8804
-8.22049
-12.6319
15.4492
6.221
-16.6136
-19.8984
-27.6394
-42.3951
-96.2763
-87.7387
-43.7297
30.7476
93.1128
146.256
206.055
216.784
167.094
98.4292
13.1302
3.39403
-20.2019
-69.6085
-79.7339
-50.4255
-7.96094
10.2276
14.0637
24.89
11.4857
-42.0351
-131.013
-155.484
-94.338
-7.92999
-6.437
-101.499
-142.958
-106.466
-77.265
-40.0017
44.1462
113.322
147.097
53.0043
24.7472
73.0594
104.327
110.043
60.7619
9.26817
27.1316
5.65853
-108.52
-189.857
-151.221
-64.8385
-27.335
14.8527
114.697
140.573
141.459
99.2371
70.9442
111.781
57.8777
-26.1792
-98.0716
-135.497
-94.4274
-58.5179
-83.3719
-50.9441
13.1201
67.1958
83.7449
42.5645
14.9516
12.6235
41.7768
24.3154
-20.1248
46.8015
17.4444
-103.819
-151.372
-170.133
-84.6986
1.83108
7.84467
19.5369
20.3952
48.2416
69.9933
57.2778
22.8426
19.24
34.6312
-13.6463
-30.1305
-44.531
-30.9248
-60.4083
-53.2749
49.3413
119.795
178.972
115.268
3.79145
-61.5717
-102.302
-89.8288
-44.463
19.4827
72.8335
49.8725
47.2992
79.2179
76.6369
31.6931
-30.8991
-100.403
-181.679
-159.792
-53.8036
-18.8101
-38.7472
0.302188
17.5395
34.6747
102.729
92.7268
13.5568
-2.27802
-14.8956
-21.984
22.587
37.357
-0.768631
-53.7246
-64.5892
15.0284
113.036
88.8681
-14.2192
-68.5772
-64.4837
-69.3476
-68.6422
-48.1159
-52.7031
46.8253
157.717
184.717
216.291
205.395
106.228
21.9027
38.6916
11.5962
-77.8584
-169.543
-206.975
-226.575
-188.976
-114.216
-89.4938
-75.1531
-22.1627
11.9625
0.480744
-48.5574
-69.8605
-37.826
-15.7154
-16.5997
-50.1291
-46.9062
8.38869
62.6547
160.933
202.261
146.281
162.776
191.846
167.984
157.098
148.357
111.528
95.3798
70.7255
-6.48717
-72.7158
-144.562
-219.029
-196.154
-132.338
-82.0243
-49.9402
-50.5314
-70.0837
-31.1595
-14.3147
-35.1718
-46.0591
-61.4485
-54.6224
-16.5663
5.86526
-33.1953
-47.4342
15.0942
48.1498
-1.07333
-36.4422
-57.3601
-36.3994
-0.52699
19.664
75.6294
99.3265
115.81
158.336
140.886
81.0486
98.0783
92.4758
18.1913
17.5799
59.1237
32.297
-58.5104
-135.396
-110.813
-28.5355
26.5844
51.5549
42.8052
-55.3394
-151.062
-168.686
-140.889
-94.8921
-52.7191
-10.3111
-24.8595
-22.9704
49.7002
63.4951
-8.80333
-46.258
-31.4453
11.9963
28.6366
33.7297
16.8982
-2.76353
22.881
100.749
148.227
97.1059
64.4365
50.4782
36.3357
10.3411
50.525
75.3486
-7.90066
-35.5625
-19.4925
10.7438
32.6784
47.9991
17.2959
-81.6972
-155.013
-114.145
-64.3551
-35.0205
48.4068
108.219
34.9087
-73.0263
-133.053
-97.6221
-31.9432
-82.1946
-121.635
-135.54
-96.7648
-36.5142
-23.0525
52.0231
169.855
214.607
235.729
193.901
90.0077
-16.8072
-101.645
-92.3086
-52.8236
-54.9309
-57.2017
-31.9926
-50.9441
-64.1035
24.3827
60.6415
60.2928
80.0907
79.632
74.0584
35.4222
24.1962
34.0822
14.5646
-39.0479
-57.0998
-36.1106
2.3903
69.5721
52.9784
30.8543
63.9421
-8.5933
-88.258
-96.937
-18.8497
38.5992
43.911
-38.5839
-141.515
-169.702
-144.988
-61.7212
-18.3839
14.7026
84.6096
75.3181
-56.7686
-104.137
-5.4018
51.569
-12.8496
-26.3809
40.1376
69.937
45.2836
20.019
38.3712
33.0109
38.9788
89.4142
94.5783
22.8092
-2.82198
7.93702
-32.9544
-48.2994
4.46683
30.6159
41.1723
37.8278
1.37898
8.73191
20.1055
-12.5577
-19.461
-47.1021
-77.547
1.14358
33.9894
-5.2899
-25.6668
-6.74045
-12.6418
-40.3682
-6.33138
57.6909
89.7473
41.3494
-77.5893
-138.324
-147.228
-165.528
-109.114
-13.6015
19.0148
50.2379
116.749
133.248
204.21
222.874
91.0221
-3.03026
-67.7792
-88.9899
-73.6137
-95.5896
-119.121
-100.439
-54.7864
-16.3782
3.60892
28.9424
47.9661
28.6713
22.4948
8.2137
10.6732
35.5306
-28.4983
-29.8332
42.7967
43.0955
48.7782
59.7571
31.4532
0.533268
22.8149
27.4385
-19.4588
-0.5067
-4.28445
-5.87492
57.6862
125.714
85.9255
4.50047
-72.8595
-111.267
-151.621
-215.717
-212.291
-137.813
-72.4549
17.8402
102.862
158.851
115.012
43.4502
19.7596
36.7229
91.6868
107.36
79.4775
8.95348
-73.4177
-72.2639
-32.1878
-42.7669
-46.0689
-56.1549
-19.829
39.6121
76.1418
40.6662
2.43524
-1.77096
-18.1375
-17.7502
50.2136
24.6121
-25.1559
-29.7363
-74.6964
-88.375
-39.5826
18.758
62.5815
120.469
124.353
123.628
94.2804
18.2312
-16.7272
-1.00194
32.5325
24.6657
-22.1807
-40.7163
-57.956
-67.3242
-58.3087
-55.3095
-81.5204
-125.787
-111.387
-111.775
-134.847
-132.736
-93.0507
-37.0987
-2.52712
53.6156
65.0778
27.2042
92.9036
218.1
208.637
169.796
102.744
-4.98613
-19.5589
-24.953
-35.175
33.8678
85.6755
49.2996
0.0490104
-36.8545
-57.3403
-45.6832
-63.6963
-82.7391
-18.2101
66.9778
15.5097
-89.5557
-67.8827
-5.88862
22.7971
44.475
71.1893
82.6403
63.6947
-36.1056
-77.955
-50.2811
-7.10903
14.2754
13.1068
-23.5579
18.9787
141.506
152.376
-0.524764
-136.289
-143.414
-65.0537
-55.0769
-59.8394
-41.8004
-50.1485
-77.497
-108.473
-55.5984
3.10394
58.1156
102.876
98.1784
50.4285
32.2503
44.5389
-27.5808
-97.1472
-7.9187
28.9763
-23.6181
-57.0238
-14.5025
46.8111
72.4954
70.7757
104.324
201.673
245.499
199.764
74.144
-55.2707
-96.5744
-108.872
-131.572
-128.802
-87.2273
-56.202
-42.0099
-9.50231
8.63565
12.6256
-8.76294
30.9776
32.6333
-75.6067
-136.202
-141.399
-171.018
-153.903
-82.4075
23.3879
81.8285
82.6896
92.952
72.4377
63.3884
79.3594
86.8145
73.6518
38.8974
-5.86719
-36.4384
-74.0609
-72.5242
10.3435
27.8902
5.6229
7.28788
27.2729
58.8703
51.7162
40.0473
36.3988
56.7652
101.904
100.149
94.8387
111.755
83.2058
19.3993
-30.9888
-48.2515
-56.3141
-78.9474
-87.5902
-117.857
-152.611
-164.293
-161.939
-148.292
-116.93
-88.5272
-51.5216
9.96721
11.465
13.9655
-4.01457
-36.5473
-53.173
-23.8419
34.0554
86.2655
112.347
104.989
99.8038
105.656
130.898
140.415
129.615
101.629
59.785
43.3597
66.3628
64.3905
0.202787
-36.3926
-35.2129
-66.1321
-16.6962
15.1862
-64.1837
-124.23
-132.572
-119.754
-86.2724
-29.902
14.6908
24.8221
-33.7185
-85.8344
-109.218
-99.5649
-74.069
-44.5109
21.6104
76.1764
86.6105
94.2864
92.5403
110.947
130.981
108.146
68.6936
36.311
4.51176
-54.4803
-105.53
-125.294
-103.254
-61.2912
-26.1328
8.26599
96.2897
114.955
49.4174
29.4471
17.9078
-43.8328
-63.0025
-80.7232
-66.3427
-3.20349
73.7576
50.0065
-0.531513
-49.3884
-82.2007
-6.08216
51.3243
62.8737
58.161
50.5786
6.00758
-41.715
-36.8299
-36.1512
-72.3171
-95.0253
-94.2515
-2.75326
79.8544
-1.79722
-69.9617
-19.6483
16.9272
40.4524
78.1196
76.621
85.3365
84.1463
61.0586
30.0224
-37.2967
-54.0987
-60.3017
-92.0421
-59.664
35.1008
108.035
107.089
101.799
93.0079
-40.0605
-45.7335
15.9956
54.7059
26.0134
-26.5982
-60.8157
-37.1061
14.7696
-3.90978
-37.55
-46.2768
-53.9939
-55.3728
-48.8581
-65.7574
-110.557
-141.616
-146.433
-102.719
-12.8619
2.88472
-11.7978
-12.7023
16.5124
51.129
44.6876
8.89137
4.27333
58.5808
111.832
152.241
178.082
157.818
97.1091
83.4808
75.153
62.7493
17.4889
-12.9064
-29.2027
-44.9119
-41.1852
-25.4932
11.8136
6.12117
-28.147
-54.8149
-93.291
-150.491
-169.725
-90.9383
-64.5309
10.0008
104.527
114.208
83.0287
30.0076
-23.0633
-8.21219
39.49
85.2283
50.056
-35.675
-86.6566
-56.8388
-11.4783
-34.5162
-70.3882
-87.4884
-129.419
-115.509
-29.9096
11.1519
-32.0908
-30.2441
53.463
58.1179
101.868
151.141
180.309
101.454
62.5629
6.47348
12.5182
-23.084
-75.0947
-90.1329
-118.067
-44.9337
32.5212
23.7027
13.3731
18.1472
78.2616
75.3045
5.42698
-3.48131
-41.4393
-112.348
-100.22
-42.4964
32.5712
151.786
112.119
46.6033
59.7896
50.4896
-14.5511
-26.1265
32.9355
30.374
-19.2108
2.53839
-4.09986
-27.7731
-43.3247
-58.0431
-58.7355
-112.535
-187.638
-172.69
-111.895
-67.3662
-48.7053
-37.0958
-7.37694
60.7281
152.42
178.847
148.347
137.965
147.117
119.335
54.6046
-5.10081
-58.622
-87.9972
-88.2383
-52.1163
-1.86535
74.9737
100.31
51.283
0.979336
52.3664
76.1454
39.9776
-18.1165
-112.584
-152.013
-136.588
-97.7047
-106.134
-112.827
-113.667
-97.2267
-36.659
17.3852
71.1601
99.018
64.0524
47.1099
66.701
76.3329
-1.75002
-71.1374
-40.6886
-18.6645
67.6612
138.687
96.883
34.0868
-12.0535
-19.6182
19.5163
43.0051
32.9738
55.5899
69.3798
42.2439
-60.717
-120.811
-117.511
-51.7549
52.6054
81.7353
32.9031
34.4457
24.133
-6.00788
-7.56957
26.201
20.5672
0.928918
-82.4847
-131.576
-106.427
-73.4383
-39.991
-6.36567
-23.601
-56.1893
-50.6625
-63.6081
-67.7272
-17.5849
10.4336
22.1556
23.2191
0.0943206
14.0421
40.5481
14.1326
55.5156
166.138
176.768
140.843
129.726
87.3507
56.9819
65.2131
32.5263
-3.06631
-7.65034
-45.4509
-115.997
-126.525
-82.5946
-48.7858
-56.2595
-83.8743
-107.03
-120.806
-60.3282
41.4433
96.2949
72.484
-17.4077
-89.909
-59.746
8.07106
23.2787
27.7364
22.2055
31.5232
120.139
138.295
20.7466
-40.3836
-36.1541
14.8137
57.5718
67.9287
-23.7634
-135.883
-126.981
-53.3764
-24.9433
15.1313
57.0967
93.9778
51.7567
-18.0415
-29.8503
-54.3081
-98.2407
-84.5845
-20.4237
1.78679
-5.19602
-22.7976
-27.2111
-9.89783
19.4499
26.4536
85.8608
165.248
211.66
171.863
118.912
48.7565
-34.8015
-78.7577
-80.9719
-76.8868
-79.8812
-34.7032
1.45651
-15.7137
-49.3489
-83.3583
-47.1288
3.70829
14.4719
-13.6943
-64.2641
-79.4955
-67.0872
-24.9999
-43.8222
-117.784
-69.1641
3.33949
69.4752
161.175
142.233
99.614
104.411
134.736
148.771
107.268
-34.1421
-118.829
-140.869
-100.87
-15.6803
-25.7032
-83.6184
-138.865
-101.136
14.9985
89.4961
123.605
56.7451
14.6124
54.3304
6.02353
-24.4601
7.97958
41.7943
52.765
27.7342
-24.9022
-41.0754
-54.5553
-96.0131
-67.0251
13.2969
27.1537
5.48962
-33.5609
-20.1927
62.5224
91.0219
23.7578
-63.2235
-65.1048
-23.543
24.9438
3.80999
-16.6262
21.9936
89.9827
84.3449
35.8413
-10.753
-75.9694
-81.9831
-30.4311
-21.0982
3.79001
6.44267
-25.4806
-30.8206
-23.5279
4.21606
8.77435
-35.8297
-83.8193
-58.3818
-62.5264
-57.608
5.18834
107.677
162.561
155.842
190.596
212.458
135.981
96.2574
73.4104
-10.3884
-97.983
-146.271
-183.27
-135.756
-99.3653
-70.373
-38.6698
-33.8214
22.4606
37.4107
-30.2785
-6.47536
35.965
-16.6353
-98.0301
-105.287
-64.229
-31.297
-13.5868
36.4263
82.6411
99.2278
78.0341
20.2397
5.28152
-52.8277
-57.9626
-3.27949
9.55732
14.974
-11.0103
-64.1939
-16.3857
89.3848
212.554
208.87
149.379
59.1839
0.853445
-72.0306
-139.063
-143.187
-112.316
-49.4872
37.5157
53.1474
5.91448
-84.3592
-133.254
-80.2153
-39.4616
-19.6299
-20.3774
-14.8468
-26.3806
1.66764
59.3965
53.8045
16.7816
50.1681
134.575
156.824
114.612
23.0022
-86.1791
-71.4184
-7.21465
81.7436
77.9679
30.6992
34.5743
47.2849
40.7821
50.6657
23.5911
-23.6422
-111.644
-143.902
-122.209
-124.722
-133.291
-128.767
-131.822
-132.771
-72.1643
57.4928
135.814
106.459
56.44
82.8927
119.703
108.784
-1.78801
-108.817
-79.2855
-24.4441
16.3429
21.5201
12.4076
-17.0376
-31.7666
-12.5096
61.0465
205.693
281.582
206.566
52.6929
-73.6751
-62.4852
-95.7001
-132.208
-141.621
-49.8008
14.1282
-51.6577
-75.2315
-22.1134
15.2167
28.1188
9.01608
-18.8428
-37.5609
-25.8439
-78.4097
-119.941
-95.7016
-55.97
-16.703
-5.09683
97.8665
256.218
261.59
129.228
38.1068
13.2246
-51.1205
-123.523
-123.177
-86.5245
-47.7099
-11.9242
47.4862
85.0722
97.7293
52.1809
-61.5351
-106.893
-29.58
49.6632
71.7157
17.7798
-30.4751
15.6165
43.8827
3.3825
-32.2985
-37.847
-3.16231
22.6111
17.7148
14.5173
-2.24498
9.66253
-27.1924
-75.2746
-40.7409
19.1437
-10.0827
-6.96758
-10.232
-89.2688
-102.005
-110.494
-119.451
-54.3231
76.3
137.449
111.681
104.835
91.5066
60.1407
-7.83584
6.9925
66.1257
58.1997
-8.29858
-32.9021
7.1966
-11.071
-64.5921
-81.4287
1.28415
54.4071
-16.3811
-93.2558
-69.8104
-55.5261
-40.3659
4.23542
64.8804
94.4002
103.883
25.1532
-35.7232
-48.7577
-58.0942
-23.8921
63.4725
61.8819
36.5755
52.246
-0.934396
-55.8356
23.3648
110.661
20.5459
-25.5925
7.85792
-30.4439
-65.0177
-73.2874
-51.5818
-74.5659
-92.591
-33.5579
30.1399
24.2086
-13.1152
-37.7552
-30.748
-30.4691
17.9449
59.4466
15.8651
11.442
62.7779
63.523
40.7053
49.0539
71.5161
116.829
87.7493
-22.5174
-80.2748
-76.0665
-50.7764
-5.39241
14.5496
13.6414
27.2664
24.8918
-35.6334
-51.7066
-26.2391
-34.1665
-42.3878
-7.54607
-10.6732
-55.9364
-91.6316
-90.1357
-34.5634
60.4429
105.968
64.323
-3.78297
-26.3396
5.98304
-9.60457
-20.0389
-31.0223
-0.516621
51.7087
82.1139
67.712
36.1043
17.5902
21.8465
73.3946
58.627
-37.4859
-112.928
-103.71
-33.8297
1.28499
12.664
-46.4152
-92.7414
-31.3329
19.1153
-4.61129
-7.50002
87.085
147.737
141.607
106.52
66.4346
14.2247
3.42166
42.618
8.35705
-108.89
-159.074
-157.057
-129.03
-69.7431
-26.2507
0.183938
-5.08217
-19.5389
29.6268
104.842
68.6389
-8.13081
-20.4456
-19.0625
-32.9266
-50.0134
-66.839
-53.9967
40.4048
134.806
109.638
59.4946
24.815
4.86352
-24.4805
-57.217
-62.7344
-37.8077
29.0222
36.9234
-15.5471
-19.8316
-19.281
-5.52011
36.6886
59.8421
68.397
15.5535
-12.9342
-2.91443
63.1072
99.6355
83.1027
22.4843
-11.7915
2.90224
41.667
68.9211
13.3076
-55.2008
-100.879
-116.489
-109.542
-114.204
-112.392
-114.449
-117.13
-100.996
-72.3077
19.2799
82.6199
60.7483
48.5969
107.996
168.953
154.006
89.0606
15.395
-4.94217
-18.7379
-31.3288
-56.8351
-84.0177
-86.2569
-67.7454
-55.5398
-62.4095
-59.6405
-43.395
5.88135
57.109
63.7524
93.0474
168.441
226.845
197.368
87.4693
36.9448
-38.3542
-84.5638
-64.8295
-31.5576
-11.771
-32.5461
-28.374
15.8163
68.7962
53.2697
-16.5816
-71.0108
-117.14
-125.542
-136.816
-166.204
-233.783
-205.381
-110.471
-88.6073
-8.65247
72.0509
124.416
129.599
124.458
139.873
145.935
94.6386
50.2259
92.0525
147.941
103.141
7.89899
-28.5946
-12.1617
-17.0815
-44.8911
-40.2512
-26.3364
18.2686
19.0133
-1.60704
-32.8105
-27.3226
-30.2872
-35.2786
-39.4634
-5.05205
4.71524
-16.502
-0.608744
6.3024
20.5674
49.2015
98.9635
104.014
64.0561
35.0566
2.36749
-88.9706
-131.524
-94.8215
-117.246
-184.095
-129.537
-50.3348
12.242
11.7086
14.1586
2.18777
-44.5596
-52.9766
-38.7376
-43.9825
-66.0672
-73.3729
-10.5912
38.3042
61.1494
110.047
161.281
138.862
72.8711
66.5378
106.463
134.707
126.19
100.804
92.574
115.703
132.506
141.723
141.186
85.9009
-29.028
-159.741
-244.745
-200.343
-194.697
-165.054
-112.918
-160.997
-90.3915
0.766467
-33.1915
-63.1263
-71.5835
-115.094
-99.7184
-88.2882
-101.18
-102.903
-62.2844
9.09838
80.6395
176.237
242.519
171.734
128.162
57.3276
-18.4735
0.561961
115.12
170.106
97.3547
93.4712
97.2515
74.7064
9.08411
-43.0714
-44.5553
-26.0191
-72.1055
-105.734
-90.7505
-44.5998
-25.2752
-51.8613
-75.9701
-37.5722
39.4722
108.448
116.13
72.4672
33.3313
-53.841
-84.0142
-42.8331
-35.7324
-35.3025
-35.9105
-86.7461
-75.7506
-4.10391
11.2115
-27.5175
-110.104
-108.763
-65.2762
-31.6473
5.22461
28.2793
8.90363
-1.37011
32.0894
49.3193
12.0975
-10.6936
36.68
71.4211
99.2831
120.993
85.7797
22.4396
13.6056
39.8873
95.6952
99.8616
92.1054
54.7443
-16.1472
-20.1373
-58.5939
-78.166
-45.1648
43.7454
81.2394
-2.02026
-48.0385
-49.0922
-89.3564
-124.092
-121.075
-102.815
-71.4767
-71.9534
-85.5421
-68.6004
-8.78779
74.4487
94.1826
42.0785
14.6441
18.4655
47.7401
21.6674
-1.30529
43.8235
68.3265
45.2247
23.3835
60.6984
88.8042
75.5524
22.6253
11.5736
-1.37161
-12.4945
-33.2199
-71.9952
-76.6531
-74.1188
-88.4594
-83.0503
-72.2883
-64.5003
-41.3932
-23.7334
-15.3222
29.9882
43.9253
78.3691
85.461
94.5388
70.2113
-1.46196
-36.4341
9.41015
1.64044
-51.1105
-40.2457
84.4616
191.51
165.781
15.8891
-50.8163
-17.7333
1.27218
-19.9043
-12.6888
5.50944
-38.127
-93.9432
-99.0611
-33.5201
-27.7298
-43.154
-70.5893
-76.7733
-49.7921
-32.9557
-75.765
-97.6502
-68.9125
6.42507
52.7821
80.8672
124.819
135.768
132.887
61.225
-43.1714
-34.2576
-18.712
-36.259
14.5739
45.6304
63.6698
88.5229
70.6945
43.6858
7.7155
-16.6476
-25.2307
-5.57776
-19.8874
-63.2217
-88.4582
-92.0546
-80.2879
-47.7486
5.17055
59.3604
147.248
169.999
78.7381
52.8251
-18.3477
-113.582
-116.882
-62.8606
-53.6563
-42.6674
-43.103
-40.9663
4.72699
12.8759
-14.3343
-26.4646
-36.474
-48.9378
-33.9755
-24.9336
-31.4422
-41.708
6.32283
29.1205
63.8797
143.265
160.638
114.812
56.6299
39.9062
41.6262
40.3532
30.1439
-10.2855
-24.3275
-60.716
-76.7205
-54.0014
-5.81076
-3.3465
-32.3657
-26.4718
-53.0506
-84.4813
-90.3445
-73.9421
-25.0975
14.8457
29.223
37.0005
43.8012
59.88
45.6213
21.5456
-22.3619
-43.0066
-19.5201
18.2132
25.4265
28.8574
32.6308
30.4457
76.4121
101.9
89.1839
59.1237
-23.6844
-89.0421
-103.008
-93.412
-90.0911
-91.2618
-62.7467
12.0538
73.7464
91.2611
70.1961
20.936
-30.3041
-38.6029
-47.6859
-28.5797
-3.90277
-39.0243
-60.7532
-16.1144
32.5808
91.3332
129.528
49.3879
-11.8569
-12.5289
-25.8224
-5.71039
32.9192
58.2525
23.6121
-37.6239
-41.4816
-38.4657
-78.9511
-82.3712
-52.0404
-30.0476
-30.9742
-2.65864
36.9574
20.2172
-1.19125
36.1647
61.1249
82.3577
114.626
119.406
103.688
-5.65859
-88.9477
-47.8858
9.92918
10.5241
-37.0496
-93.9338
-118.48
-75.7811
-35.2883
-36.0408
-45.0695
-10.4252
-25.3995
-46.8065
10.1953
56.3071
36.4679
34.2204
35.5213
57.6913
87.061
49.3326
-0.0586037
-36.9518
-22.9032
21.094
2.92078
-2.46924
25.4902
46.7267
18.4778
-2.77362
8.05244
19.0085
3.82333
-71.1614
-77.8661
-60.112
-38.1214
10.9421
31.6305
35.9818
64.8127
79.0109
50.8612
16.1985
-1.26681
-7.92673
-26.6211
-69.1794
-43.6746
16.8278
39.4626
36.6771
8.58121
-41.2954
-77.7967
-100.066
-75.5665
-33.0806
-18.5156
0.441791
-6.52343
-3.21118
9.3255
37.0415
93.3028
90.863
15.3258
-32.4024
-68.9324
-92.6482
-61.4323
1.72876
27.6057
71.8118
86.5895
59.8032
27.8053
14.5434
50.3597
32.0746
-32.8139
-65.6523
-47.6475
-52.0445
-60.018
-48.9154
-22.0597
6.53385
34.5434
46.3519
30.029
26.8572
67.567
74.8136
49.7216
36.872
30.1509
-7.50871
-35.6916
-20.5168
17.7178
-4.8186
-11.7884
-7.15873
-30.2438
-55.482
-11.6416
35.4411
65.8164
53.9307
9.99724
-20.9114
-26.5047
-49.9264
-78.5694
-68.3534
-69.1412
-70.1304
-69.7729
-82.5794
-65.8095
12.7323
53.2544
49.3354
72.1518
42.3302
-6.17918
-18.1941
-68.524
-106.991
-71.1991
36.2652
127.484
160.496
171.093
155.784
100.855
51.4647
7.47959
-14.8849
-36.2239
-79.9206
-98.538
-86.3698
-71.81
-26.6611
-0.526221
34.1414
30.3861
32.0218
31.9367
-25.0999
-76.304
-61.8552
-63.6761
-60.1446
-17.6137
12.5294
36.6053
45.9451
52.7511
49.7204
8.9508
10.8621
21.3933
18.857
28.818
15.9987
4.96072
1.41488
2.18236
4.04619
-6.64733
-11.1775
-8.85755
-24.1583
-26.4231
-29.4938
-35.1473
-45.1511
-37.4511
-28.7169
-34.2373
-2.02119
27.2742
28.975
28.3646
40.7775
33.8602
20.7922
14.9077
-5.52608
-22.0656
-31.5126
-13.3298
14.8881
20.9782
20.7787
48.0661
42.5546
18.4347
10.1739
18.5476
-9.28472
-52.1209
-55.3622
-35.712
-29.5402
-14.5381
1.44538
16.2609
16.1881
4.45586
-15.1381
-21.4513
-11.798
-10.7671
-13.7797
-13.416
3.21449
-4.61112
-7.71128
10.6221
33.8889
41.614
29.2309
0.77109
2.5914
17.915
28.0545
36.3038
33.4636
18.1945
11.7147
-0.92775
-7.16818
1.81484
-4.23485
-18.3451
-16.477
-25.2638
-46.9867
-65.8232
-59.8127
-34.6927
-16.07
1.31985
6.23956
-11.2993
-0.0705341
4.38954
-6.49122
7.525
34.8105
51.0445
40.5833
44.5401
45.2466
15.6112
-10.477
-8.84401
13.6134
23.0504
-1.50815
-10.4765
-14.192
-15.7551
-13.267
-17.157
-39.6318
-26.2407
1.4089
6.59465
12.7638
8.48122
-18.0661
-31.4928
-59.538
-62.3632
-25.5973
11.8459
31.0654
62.0836
79.7954
47.7513
27.4834
15.284
0.0965841
-2.28619
-2.5465
3.49375
20.6101
16.8588
-1.57012
-12.3448
-30.3693
-29.045
-25.3437
2.72291
5.1936
-38.975
-75.9924
-84.0375
-72.3391
-33.6531
7.92271
43.9968
61.6854
75.4387
82.735
57.722
36.8092
53.0855
16.7153
-19.1477
2.34975
14.8707
19.591
26.7109
34.6308
60.094
54.1396
-39.926
-151.485
-174.337
-132.898
-88.5485
-41.8275
-26.2143
-14.7905
4.84514
14.9828
25.5703
48.8194
68.1844
50.6792
23.3095
22.8323
27.1197
13.7461
-5.70186
-3.38613
37.0059
68.9021
68.0736
46.5455
-0.908999
-17.0053
13.3107
30.7652
13.6929
-19.0051
-36.3543
-30.798
-35.5078
-20.4541
-19.2308
-5.99742
-7.66184
-13.4301
-28.0413
-27.0307
-27.7341
-15.4505
-0.0721179
11.4994
-12.9246
-27.8213
-26.2031
-24.8613
-30.0519
-32.405
-5.42381
24.847
25.9261
22.0885
15.9559
4.56576
28.7962
37.5053
13.8658
11.7382
28.8997
43.7233
38.5531
6.18756
-6.41738
-18.932
-35.3725
-44.1419
-14.2523
5.33295
7.81251
1.96272
10.5186
29.6728
38.096
20.5503
-0.326956
-3.38154
-13.1741
-14.5376
-17.4759
7.38338
27.0353
12.3252
-4.09066
-14.9221
-24.5539
-30.9965
-9.39847
7.51089
-10.0531
-35.5189
-40.6816
-25.1257
-6.31652
-6.83502
-7.8349
5.72297
28.1287
20.5592
3.18698
-18.7738
-10.3702
0.719834
22.7397
42.3449
17.1756
-7.75989
1.76419
-20.2235
-22.4333
-9.48136
1.44488
4.65949
18.8707
48.3656
43.3613
32.4874
17.2892
12.2309
-24.2604
-61.2597
-43.5539
-1.62564
-3.32669
-1.28109
55.3746
103.527
95.5488
48.9976
12.6142
-4.37821
-40.1881
-67.3496
-56.4574
-80.9784
-98.387
-82.2611
-88.2028
-72.5705
9.37479
135.224
72.4334
-7.21016
-21.0992
-3.16095
2.27583
-22.1193
-42.5314
0.200955
26.881
40.2545
37.9736
18.6532
33.9984
61.4132
29.3524
-3.80232
14.1959
31.4945
11.8315
-28.086
-20.8539
-7.05746
-10.9736
-30.4642
-27.0441
-16.5429
-16.5481
0.259471
6.80492
-12.7042
-4.95132
35.2043
36.1692
13.9436
7.7442
27.1956
30.3933
1.03799
-17.2024
-39.8739
-42.5737
-30.6799
-12.04
-5.49975
-16.3536
-29.7873
-1.38215
3.34906
-9.59495
0.913565
9.27601
0.15138
-8.56045
15.5023
33.6688
34.2801
21.274
40.6533
44.105
-2.83688
-30.6049
-41.1979
-30.4052
-14.8017
2.31848
-5.94626
-6.04819
10.775
16.5038
2.11292
5.41381
19.4157
-1.31749
-12.8573
-7.66244
-9.55541
-24.1307
-41.1199
-17.4744
0.902347
7.30745
26.5444
34.9774
-17.6088
-33.8665
3.1518
79.8283
110.489
55.4089
26.1728
-3.1008
-72.2553
-69.2502
-48.9137
-48.9767
-62.2199
-15.1351
103.556
90.1994
17.5809
-7.66804
-29.9751
-73.1975
-76.4363
-26.1024
11.2628
-47.2688
-60.1959
10.0638
48.8693
54.1943
74.8861
65.58
38.8147
0.153988
5.76169
-63.2315
-117.442
-99.4409
-76.8464
37.0885
114.697
120.768
114.622
79.3863
51.5952
20.1908
-38.0472
-69.4878
-39.0359
10.5013
17.194
1.22368
-1.19826
4.62958
4.81127
11.6608
-27.4901
-35.1209
-3.16828
-53.8679
-89.9238
-92.0358
-60.0482
-50.0871
-63.8843
-15.2555
32.1554
38.1229
4.55486
-15.54
-4.69346
5.88176
14.9267
31.4169
45.2072
61.0061
57.9997
57.7867
57.3984
43.4131
21.713
14.808
8.22517
3.77502
9.89821
-11.7605
-21.1503
6.87471
35.0406
4.0119
-21.3473
-3.72366
-10.9044
-32.5249
-7.54635
17.4631
26.7938
4.36665
-13.4555
-35.2509
-36.0982
-27.6397
-18.2684
1.80924
-26.9996
-29.2301
-37.8932
-51.6147
-55.1445
-47.0728
-11.7272
15.265
-0.918344
10.8056
8.58313
-23.9338
5.74808
21.1992
6.58765
15.4124
17.2632
33.9303
51.0853
44.3086
36.4265
21.5303
10.1067
4.91795
18.0488
39.1267
19.7538
-4.30156
31.2349
32.0604
0.404483
-8.53481
-41.7942
-39.1036
-33.6147
-35.3589
-10.5399
-14.4188
-7.66795
106.963
69.8044
-0.601139
-24.3089
-28.3885
-15.7448
43.9816
24.7205
-30.7176
-58.4438
-41.1036
9.4755
49.4465
7.5248
-38.2668
-30.4676
-69.7215
-88.3155
-31.6813
-21.2789
-92.6519
-89.8419
-48.3374
-6.75066
26.8471
23.6607
-25.7716
-16.6909
75.2478
213.704
192.442
93.2668
-13.8967
-52.589
-13.4724
-67.7397
-20.238
95.4438
-33.1097
-84.0824
32.3219
111.354
51.8606
7.89103
39.7277
89.3773
70.1418
28.3338
-58.9592
-108.734
-110.103
-99.6193
19.9907
146.473
-5.97512
-66.0724
-34.362
-40.482
25.118
49.1331
-54.4862
-102.331
-63.5415
-42.4758
-71.7086
-100.905
-44.046
9.08876
27.9297
21.8951
50.2809
68.5284
12.3583
-44.0623
31.5326
97.0631
61.2834
-22.1504
2.85549
40.5529
35.8663
29.093
31.7216
45.0466
13.6316
-17.1996
-26.855
-7.78195
3.90649
-32.5886
-35.802
-14.7704
4.0237
15.9976
6.19163
6.08513
19.6925
-5.97286
-38.2058
-69.2266
-70.8013
-10.4508
9.91585
-33.5442
2.74703
53.9817
70.7379
61.3005
26.3612
13.1345
6.88636
0.670312
-50.0716
-126.86
-125.303
-56.7078
20.1246
104.079
114.098
62.7907
22.3822
0.57875
23.5232
51.7216
37.8951
19.4165
-16.7585
-38.7326
-0.692427
-26.3892
-78.0675
1.23857
67.9915
-18.8148
-12.136
-19.5044
-22.605
-48.6426
-106.686
-116.988
-62.7942
-22.2945
16.6793
53.0399
92.4444
45.0907
-23.805
8.60985
97.4675
142.46
110.986
13.3113
-34.3252
20.626
37.2716
-11.4407
-36.9856
35.4403
14.6339
-22.3344
-53.837
-98.1836
-97.802
-79.1668
-86.4509
-64.0715
1.73747
25.4819
-24.4207
-61.9025
-8.90919
40.8341
-24.2167
-10.1987
75.4441
115.599
62.5602
-21.8094
27.0932
60.288
55.9997
55.1504
42.3046
32.4989
38.8638
38.842
16.9778
9.402
-5.57233
-2.63396
-32.1905
-67.5526
-57.6339
-63.5529
-68.6046
-54.2992
-43.0905
-43.2596
-1.63512
26.0764
14.8708
18.3824
33.808
50.2228
39.7338
28.7861
44.0533
12.5393
-46.6743
-51.726
-68.1742
-69.4094
-12.5245
4.52064
-12.5436
10.9492
46.8676
18.273
-35.2415
-51.8363
-7.21916
33.0292
2.35398
-17.2205
-3.45268
12.994
26.9049
24.2398
16.2977
7.72586
9.06472
22.6044
47.3397
35.9742
30.3711
31.1282
3.94271
-7.57671
5.92701
8.18093
-1.42548
-15.1273
5.25415
17.524
-23.9488
-45.424
-47.0314
6.63222
62.5712
69.3802
75.0096
47.7171
20.0483
-8.95572
-60.8352
-113.764
-146.951
-163.78
-150.17
-107.67
-38.5906
-13.5723
-15.8161
3.53617
55.9087
95.7821
78.6023
42.0778
42.9966
65.3449
47.1157
33.7703
10.4709
-17.9777
37.0384
71.268
59.5659
95.052
97.6626
64.2445
22.9472
-16.4794
-34.2996
-30.0225
-38.2029
-30.3837
-18.8781
-28.5194
-55.6375
-85.0092
-81.5985
-72.2845
-28.8565
16.0174
8.31945
-11.0714
2.28075
-6.63861
24.1353
50.6621
35.565
13.0079
1.48143
-3.63709
-20.4764
-46.3416
-68.8395
-59.3149
-11.373
29.1091
31.7358
3.9411
5.04718
28.635
24.741
20.6177
18.124
34.7201
42.3136
8.8212
-19.7849
22.9208
35.1129
10.3939
-13.7958
-11.5549
27.7665
44.9272
8.26499
-18.0001
-45.4155
-81.3529
-57.23
-12.9616
-34.667
-14.546
69.8423
76.8819
38.6943
-12.0242
-44.9626
-47.3173
-42.6528
-32.4243
1.56793
35.3921
16.1274
-16.131
-15.6509
14.1129
45.0929
40.3078
38.6222
63.2488
35.5328
-50.1148
-91.852
-83.0424
-54.3236
-25.9154
2.40871
11.819
10.4893
24.133
41.8683
55.2111
52.1273
14.2211
-16.0303
-17.1195
-18.995
12.3322
4.10674
-38.9355
9.68891
37.8464
-14.1775
-22.3261
-1.37946
12.3303
12.097
26.9737
41.7507
50.2448
11.924
-36.5443
-18.3043
16.3295
1.53147
-29.8248
-8.84972
37.4681
23.8881
-19.2066
-31.8328
-32.9977
-4.23634
10.763
-39.1749
-22.0178
43.7416
54.8525
17.74
-42.0196
-67.1174
-37.6922
-38.8458
-46.1033
-28.8256
-7.45707
-17.2396
-50.1841
-38.8257
-8.85523
-13.8656
2.49878
15.0757
5.62348
44.2523
55.9397
-1.94864
-54.1777
-58.736
-11.8287
43.0113
63.61
48.3548
66.2672
75.3308
56.9971
50.5399
57.7012
66.4379
48.1197
14.0745
-12.2179
-15.4151
2.64543
-4.82204
-39.5399
-32.9089
-13.7343
-15.1906
12.1353
14.2231
-26.991
-26.6102
-33.5631
-19.5045
24.0194
50.6296
18.0475
-48.9056
-88.5381
-75.8452
-57.9426
-53.5738
-42.5316
-2.87129
10.1679
-20.6437
-36.0031
-18.4832
-20.7049
-10.3145
8.87616
-8.80604
18.0646
63.1267
73.8337
53.1678
26.457
21.7473
17.1682
20.207
46.7478
36.2775
-0.932865
-15.258
6.23233
28.8944
31.8408
4.00886
-26.3411
-44.0644
-33.1924
-21.6978
-19.3437
-11.6564
3.2628
-1.64239
11.5842
44.097
16.0108
-18.9799
-35.0137
-21.6472
-20.398
-6.72719
22.5678
45.5342
46.9363
10.6208
-18.4531
-13.0286
24.0387
30.5958
-1.04049
-52.9076
-71.3423
-51.9349
-45.6802
-51.4361
-17.0119
-0.228546
-4.31162
25.44
43.0807
9.66067
-31.1485
-52.7253
-20.4177
43.5618
86.8001
67.9941
24.8995
5.73183
-31.4044
-24.0099
3.81646
9.21855
20.5294
25.9431
5.67909
24.2379
134.972
209.099
25.4353
-62.4109
-70.8358
-78.533
-52.9765
-54.7618
-66.958
-44.8598
-25.494
-17.1519
-14.9137
-6.96344
-0.54227
-6.94819
-2.64048
3.67758
-13.5466
-28.0663
-54.267
-103.999
0.383095
49.9378
41.6468
14.7606
-12.9926
18.6112
63.219
102.629
80.6252
60.9088
70.3496
53.8708
15.713
-0.47446
-33.8175
-35.5614
10.079
40.0557
-26.0315
-102.879
-52.3964
-24.4841
-39.3668
-38.2906
-41.0738
-86.7214
-114.014
-153.244
-123.86
-19.1839
56.0215
85.4987
91.252
113.006
161.264
152.732
96.7451
45.3415
3.05081
-22.4724
-42.4934
-52.444
-36.7633
-21.0957
-28.3341
-19.1523
16.0183
38.362
15.3134
-17.0797
-2.95984
-10.2043
-49.9379
-50.4602
-30.9596
3.35786
2.93869
21.0487
32.2504
12.6001
24.1485
34.3082
0.975954
-28.2306
-19.9991
39.6959
82.9867
79.2158
62.3488
6.14773
-55.779
-74.0706
-65.7845
-50.5219
-76.1314
-94.9172
-71.2758
-75.7248
-71.7383
-37.9653
-15.3554
1.20518
36.598
52.8614
65.7699
41.8439
30.6611
77.5386
148.153
133.46
57.7147
14.1182
0.98388
4.73811
4.62382
9.90609
-29.126
-54.306
-53.6786
-38.8542
-35.6943
-36.1987
-22.5449
-9.15689
-28.5635
-21.0169
0.091584
-24.9491
-83.7787
-56.986
-1.24933
27.1092
107.146
147.983
74.8918
-31.7066
-38.5962
-31.4475
22.3429
-3.34294
-20.751
16.7317
26.1862
10.4055
14.5815
-1.05327
-56.6917
-68.113
-43.9458
-28.2608
-5.08376
17.6151
-12.9473
-38.5159
-31.8245
14.2183
62.2961
88.6562
56.5797
31.23
-5.45784
-51.4425
-32.5824
0.758294
9.78953
-5.36184
-20.1038
-25.3064
-4.83599
27.4098
21.9973
-5.04648
-21.0618
-57.0876
-56.3125
-7.70793
15.9535
28.0013
26.5164
21.6867
42.5615
44.6425
22.3064
20.8464
54.3931
53.1283
45.3804
12.9155
-47.2449
-74.4463
-35.867
-7.14371
-25.1658
-55.0594
-43.213
13.9642
23.3224
18.0082
14.5242
-8.87896
-37.4804
-26.6341
-32.4214
-21.6962
-25.7309
-34.9792
-14.916
17.0829
38.6418
47.5786
28.461
28.4175
31.8977
44.5961
36.9515
-1.22418
-11.6463
-24.916
-59.4717
-30.4639
23.767
-1.85683
-22.6852
6.08069
36.6275
22.8811
15.411
37.7367
47.9344
39.1535
7.26721
-29.1765
-23.7888
-14.4726
-47.9883
-86.3554
-88.941
-70.8762
-37.9312
-4.09979
34.8584
65.614
56.6924
12.5511
-21.2798
-16.5003
9.79206
8.73594
-14.5477
7.78287
59.0591
54.9202
12.0884
-2.47986
38.5982
65.6201
50.7751
-11.9109
-38.0198
-38.7333
-51.6409
-51.0869
-23.2715
-33.5625
-42.9856
-0.257351
24.7502
1.94642
16.5118
35.3438
44.9404
40.8774
6.39866
-24.2048
-44.4169
-46.2964
-35.4708
0.576303
20.1508
9.43683
0.408978
6.15689
31.1407
45.0685
14.4721
-26.8278
-26.7397
0.285484
-6.25326
-28.9553
-51.747
-31.8903
-3.34571
21.1139
39.5702
30.5635
35.4588
51.473
44.882
44.4672
26.5395
-16.9067
-62.3025
-54.2789
-4.28633
18.2446
-2.78801
-17.2339
-14.8509
-11.1165
-13.1783
-23.7689
-23.668
-9.72201
-39.5591
-9.7892
22.0052
13.024
19.0271
16.5598
5.24515
13.2221
-17.9544
-39.5854
-10.6909
5.27169
-26.7144
-27.0954
33.0655
108.306
111.265
80.4924
97.0171
65.5236
32.7015
7.91364
-35.5742
-75.665
-93.4315
-123.193
-118.187
-78.0203
-49.8104
-49.6592
-39.1413
3.34558
34.335
26.1821
-4.33339
-59.0547
-76.8174
-51.7005
-11.2054
38.9503
60.4841
62.1725
78.8155
86.7603
108.232
119.395
82.0303
48.2691
54.4441
30.7269
11.8381
-14.3689
-57.7549
-72.0196
-62.3139
-50.769
-15.5817
12.7435
-4.6608
-8.21297
8.26044
-16.9989
-18.6189
-5.15209
-11.0974
-36.1016
-45.8617
-60.8343
-75.3817
-50.5298
-15.2203
-5.14936
-5.01002
44.164
73.658
68.8977
26.4389
-0.258791
23.5966
46.7601
15.3706
-39.8911
-67.2505
-81.0837
-46.7863
7.23681
35.1032
41.1502
54.0602
57.2714
35.4203
26.5299
-1.15943
-55.1363
-71.3505
-48.5615
30.1898
43.0815
-28.167
-64.1392
-38.6667
25.6836
54.5983
41.4016
18.6781
9.70794
29.9919
63.3286
63.5309
36.1864
9.80172
-17.7253
-21.3903
14.7845
21.9057
0.763068
-28.207
-37.6072
-37.2771
-40.0797
-13.5384
-10.7193
-40.9748
-37.9943
-20.129
-13.7229
-34.8065
-72.5273
-64.4071
-1.16623
25.544
18.829
49.8333
67.7829
47.6889
20.3437
2.82992
1.94948
21.9924
54.5189
70.7955
25.6312
9.04846
-8.02785
-25.204
-47.7751
-62.3996
-40.1525
-33.6282
-44.2286
-56.181
-44.8974
-17.5755
9.98255
43.3422
39.864
18.3902
40.0909
42.3862
31.317
48.5373
91.249
123.749
101.369
21.6357
-46.7539
-82.7116
-100.862
-79.2397
-52.383
-50.3242
-40.0586
-27.9339
-27.3444
-41.5609
0.121451
16.8686
3.64352
-10.7047
-19.0161
-53.5421
-47.2876
-48.8303
-37.7431
1.97546
33.1586
37.8784
66.2082
80.3668
67.3716
80.7473
94.7274
83.7912
82.3349
22.8572
-29.368
-4.82248
28.3532
18.2534
2.49336
-38.2865
-77.511
-71.9456
-55.2256
-43.2078
-41.321
-36.2048
-18.3726
15.1054
20.8534
1.89452
4.3894
-13.3049
-13.8353
8.63368
2.49203
-23.1346
-50.1062
-47.2509
-23.4478
20.4168
21.7459
18.2532
20.6837
48.0209
79.2513
100.659
86.3717
23.9422
-31.0028
-34.9386
-50.2088
-66.0418
-71.8042
-38.1241
27.3205
-3.0703
-52.87
-30.3796
-25.3618
-31.2044
-9.29363
25.7975
16.7352
-2.41827
-15.5334
-17.0367
-18.6169
6.24578
13.7659
11.7372
56.5531
88.556
86.4936
46.5084
3.81385
6.82942
22.0197
27.7804
0.47354
-17.8395
-20.7952
-34.475
7.78881
50.1955
25.8512
-0.917313
-8.95831
-24.4832
-35.7739
-52.3254
-73.4347
-58.9696
-57.9868
-40.244
18.1065
34.4275
-12.7554
-19.0856
22.8057
36.9022
30.5376
17.2723
-43.9174
-74.7905
-37.1414
-6.44587
38.2469
70.4573
76.3224
44.1196
16.833
21.3328
54.6646
83.3534
56.5733
15.1757
-5.06355
-32.1068
-31.6913
-13.7517
-44.8983
-82.8548
-82.38
-72.0548
-37.2994
11.0224
-2.47177
-50.4827
-74.6959
-30.2241
24.8924
21.5259
28.3648
34.9355
-16.3706
1.74825
65.8523
76.0945
21.5312
-19.8055
-38.903
-10.6057
12.5117
7.01665
-3.29534
-20.9582
-2.97905
48.2967
90.4074
52.0413
3.71431
8.06115
16.894
-20.1823
-2.13107
-2.41989
-32.069
0.796967
35.605
59.3512
38.5635
11.8598
16.942
23.7931
-12.2326
-41.1451
-38.8482
-36.978
-64.72
-60.2182
3.41135
6.80598
-29.4094
-39.726
-43.2713
-43.3611
-39.1282
-57.1992
-35.3692
-30.3739
-21.8087
16.6896
17.2378
-3.38204
20.5534
35.9343
30.66
59.2096
78.742
58.6655
42.4522
27.8903
2.07536
25.0524
64.1337
52.9414
36.2101
18.0655
22.681
18.9511
-9.20916
-45.4385
-81.2882
-80.6429
-69.8808
-40.3233
-24.3123
-30.385
-35.8248
-34.4573
-42.9886
-8.17175
42.8529
11.4221
-34.55
-19.1706
18.3993
14.4769
-0.493776
-0.526178
26.6515
77.4567
88.8098
82.28
68.4662
22.3139
-0.284519
-23.0109
-23.0861
-8.80785
-6.30587
-36.322
-63.0144
-50.2502
-28.7761
10.4235
11.5313
9.15292
10.2415
20.821
32.7777
33.1637
24.6778
18.7045
4.74476
-22.7623
-45.2146
-54.4281
-76.6954
-77.878
-49.5873
-53.5742
-43.9649
-9.89593
8.36233
24.0314
60.6312
95.4492
94.3842
94.8996
63.8397
30.2995
34.4418
27.9278
-7.6588
-16.3597
-0.911886
-26.809
-67.0797
-74.7589
-58.901
-25.4888
-24.7422
-31.7029
-36.5321
-21.33
18.7286
40.0753
35.9227
17.2591
-14.0666
-14.9663
-16.6058
-47.0008
-46.0038
-22.057
0.455004
11.7466
10.8225
40.2291
81.229
76.1816
55.7295
35.6648
23.344
15.091
31.9119
39.5298
-5.58826
-28.3548
-2.86388
-6.5273
12.9957
40.7653
30.1628
-2.46791
-58.4623
-73.9262
-41.3809
-43.9904
-76.8994
-79.9741
-49.2766
-6.57278
14.6071
-2.77775
-35.652
4.4145
66.0774
45.542
12.0768
-18.1312
-53.8443
-47.1942
6.48939
7.36007
0.823692
16.8161
8.42661
34.977
83.7329
69.3068
10.7519
10.4981
44.8933
62.2333
0.452416
-83.2314
-83.3568
-22.2925
13.8054
19.4688
10.8888
3.89013
8.14167
20.3487
27.9104
16.9447
23.5216
25.5908
0.566622
-13.2662
-2.44483
-17.5929
-40.0423
-19.1713
3.1897
-0.262471
-21.5558
-25.5116
-32.1962
-9.84694
-3.79394
-28.5319
-31.1587
-16.9883
-6.228
-6.47831
3.20403
-12.0847
-24.0879
5.48866
23.3778
27.3493
12.68
-42.0577
-42.8662
0.076522
19.7631
21.8604
11.2343
5.06796
58.6207
104.878
85.3947
54.4827
26.3822
7.32913
-7.93706
-14.881
-28.0888
-24.1184
-35.801
-31.6663
-16.2649
9.80682
15.8873
11.3354
-14.0489
-8.4107
-12.679
-44.453
-58.7543
-22.5266
-8.63297
-29.9876
-49.5106
-45.7116
-43.2981
-12.1096
37.3097
37.6295
49.1221
37.6491
12.2059
19.8425
21.9818
9.58268
2.12144
-15.4339
11.3407
61.7833
52.478
-27.4628
-64.2873
-37.725
18.2527
48.5199
59.3597
34.8551
-4.61412
-21.3733
-34.89
-37.8056
50.0247
73.9225
-3.23292
-61.2245
-64.8151
-14.3432
7.80859
43.0684
81.1575
49.4293
41.2557
88.7664
80.4552
-12.7314
-79.165
-123.188
-153.594
-139.241
-96.5406
-60.5214
-101.636
-102.373
-26.9817
40.1228
48.4463
31.675
42.5086
7.28551
-27.6182
-14.7338
10.771
31.8271
50.2329
85.95
108.408
104.386
119.771
114.319
60.0885
26.0046
-1.02056
8.40234
31.4481
20.8411
0.348096
-20.7727
-41.8601
-50.0548
-35.0823
-29.212
-46.0354
-82.391
-99.5119
-62.0153
-6.37827
-3.34293
-37.109
-30.0682
5.61596
58.9253
88.3131
11.0656
-16.513
30.8087
12.9082
-39.2664
-31.5151
-36.3478
-68.5319
-58.3473
-17.6027
-32.2862
-25.4234
-14.8975
-16.1762
46.0753
117.091
124.146
125.573
67.4571
-7.641
-10.9747
-24.2638
-59.5456
-27.6615
33.2133
12.0983
-5.3008
8.59561
-1.76235
-11.3517
-9.19587
-15.6737
-17.6335
-16.3741
-29.2833
-41.6206
-74.49
-97.0816
-60.7424
-42.3298
-4.67419
33.0295
23.424
37.6044
51.0851
48.2941
49.2689
56.4648
61.2379
54.6481
20.0613
-9.94474
-17.0006
-9.04187
-20.9224
-30.4167
-18.7098
-13.0556
7.09995
47.8243
63.3572
51.6024
63.5429
56.406
41.295
27.8254
-11.8943
-39.7829
-45.6945
-13.6009
20.4378
-33.2635
-84.7825
-93.5279
-78.3204
-54.1006
-45.4128
-68.4583
-27.339
-3.75545
-35.6508
-27.7974
-12.3862
9.7801
-3.23023
-13.338
3.89914
9.031
-3.88897
-6.55414
-2.77127
41.2089
88.6302
85.8266
67.1475
54.9428
35.183
12.1962
-3.41679
28.5047
64.4915
47.2818
2.62307
-38.8305
-44.2941
-15.3829
3.62296
2.48926
8.32562
-13.5372
-25.4917
-17.714
-6.18701
7.91314
18.6261
9.04769
17.4217
28.0036
5.59118
-30.1833
-50.4176
-44.8328
-10.6963
-13.541
-16.2784
-22.7513
-29.5025
-21.9021
-46.6494
-77.0628
-68.6198
-34.1538
18.3399
47.7065
27.7697
-7.47193
-2.3054
33.6897
68.2127
41.1989
52.2106
76.8662
58.6613
63.9867
55.4944
26.3637
12.7374
3.51228
-27.6849
-53.5117
-48.5349
-11.6699
-38.3382
-69.4764
-66.0121
-54.7104
-17.2247
12.6504
1.24152
0.652708
8.17024
6.72359
-5.49519
-6.05682
16.7892
27.5755
-5.6141
-1.41991
29.0807
64.3425
54.3191
2.8918
-4.36171
2.73194
3.34464
-16.8002
-20.0272
-14.1182
-27.7185
-35.2878
-37.2604
-9.76553
9.60033
19.8322
19.9354
2.53713
8.038
15.3188
-3.72886
-8.87458
-21.4991
-24.2415
2.02196
64.7027
114.48
105.008
23.0847
-58.1457
-89.3683
-64.3038
-30.6537
-33.2018
-45.5636
-46.9758
-37.3259
-4.23848
-16.2836
-12.5042
9.9358
26.2651
23.5059
20.3539
18.6872
-20.3128
-65.9375
-55.309
23.6921
64.8183
57.3249
43.6873
38.7819
36.4677
46.3559
57.6405
43.3299
11.6448
14.2743
7.52787
3.75656
-8.56716
-27.5004
-38.9292
1.25626
-1.1253
-37.5049
-64.6231
-54.8375
-12.5385
-21.3688
-12.0988
15.264
8.75359
-16.696
-0.772956
29.4559
66.2282
52.2278
-7.41035
-53.673
-58.3395
-3.56954
24.4716
-30.1055
-83.7529
-71.4637
-26.8271
-24.3604
-38.3651
17.9891
48.2651
43.5149
46.5333
50.1791
64.2864
56.2374
15.5489
6.16453
36.9031
32.4866
-0.279799
-17.2755
-46.2904
-69.7195
-47.4163
-12.0116
40.5931
60.1904
15.2695
7.6094
25.1314
11.5298
-4.14164
-8.81516
-36.0628
-44.5518
-47.8479
-61.7825
-24.2685
9.45769
19.7336
0.584999
8.80513
30.6183
65.5895
54.3469
-15.1575
-26.7427
-0.481382
-0.489804
-50.6408
-84.88
-77.06
-45.9151
-10.5079
20.83
38.4784
44.9058
61.9762
121.343
177.2
135.9
65.5407
3.19879
-64.009
-91.5728
-93.7328
-93.7539
-46.8277
-39.8664
-27.0388
-7.66606
4.26982
10.4459
-25.2397
-56.9516
-23.1416
-20.2508
-49.3212
-78.5585
-104.451
-34.8502
25.8888
49.1749
65.4777
75.781
80.1826
75.7783
60.3685
26.7461
0.0764585
13.1942
33.9077
36.0384
46.5431
37.0267
27.44
21.3293
5.36014
-35.943
-84.0021
-83.9836
-17.0857
24.0763
21.5767
27.4593
29.2614
2.59363
-58.6023
-61.8177
-7.84786
-7.34982
-37.5663
-59.1017
-60.7627
-47.7322
-40.7819
-15.0285
29.2048
71.3993
82.1519
67.4193
28.7847
43.3546
49.5943
-6.87931
-30.5489
-11.9361
-23.4427
-12.52
-12.5987
-9.32496
-6.4325
-25.1666
-14.4898
-3.56781
-0.491182
9.41205
-11.9308
-50.1657
-40.4796
-41.5514
-55.0026
-58.1335
-53.5572
-19.0218
5.09292
19.3115
60.3964
92.0096
70.683
54.2005
79.1828
86.3463
67.438
74.2068
58.5857
20.2708
2.39545
-9.92564
-15.438
-21.8541
-29.2986
-51.5887
-69.8502
-54.459
-41.777
-31.435
-14.1257
-3.80633
28.1293
40.3331
12.9426
-13.1357
-27.6772
-39.1662
-37.8279
-31.0133
-4.41591
11.6762
-5.6251
-2.38471
-9.30153
-25.7041
-26.7331
-35.138
-17.3635
1.44555
10.868
31.4123
32.6023
5.14783
-5.32608
8.52901
12.4125
3.67223
17.3142
17.1707
-9.35738
-8.38458
10.1479
6.53417
-13.2165
-8.01212
34.8224
58.1463
38.8162
40.9624
45.4857
16.6086
9.54896
57.27
75.0062
52.1063
6.23652
-64.5342
-96.4926
-65.7113
-23.2875
-20.616
-41.2492
-61.9608
-46.6866
-34.1772
-37.8879
-44.473
-33.3594
-14.0703
-19.7112
-20.8994
17.1708
11.2465
-12.1016
-46.1171
-14.3377
72.5974
83.4349
43.2156
33.3438
34.335
28.4194
22.1871
12.7367
42.4651
55.2482
35.0648
11.8296
-1.52168
-3.43339
-11.5351
-26.4944
-24.5271
-8.01606
13.8716
28.7964
39.4552
68.199
59.9448
18.7495
-2.14704
-10.8664
-19.2344
-24.4685
-51.7904
-41.2797
-52.6108
-88.0975
-118.036
-122.696
-93.6992
-55.5149
-41.5908
-38.4527
9.25507
47.8718
54.1711
39.1524
36.0731
26.3406
2.14805
-9.58197
-3.04028
6.4831
22.417
12.2346
32.7179
52.6309
86.1134
128.342
120.471
71.3743
21.739
25.1603
16.7929
-13.9111
-44.569
-48.6009
-30.3515
-20.371
-32.8285
-50.3198
-43.64
-44.6843
-48.8644
-37.361
-7.68669
25.7436
28.3405
14.0886
0.000368936
-30.2393
-33.988
-29.3695
-20.8378
-6.7636
-6.09989
2.02811
-0.841138
1.4699
27.5425
68.4302
84.2351
85.7167
54.7726
2.83601
-58.296
-94.3785
-56.1311
-28.3422
-31.9031
0.466626
24.5269
36.4468
69.416
45.9763
-22.1268
-47.8054
-58.7805
-50.6574
-28.2855
-46.5406
-46.1769
-33.7856
-4.80089
5.82541
17.5251
43.8827
34.033
18.4901
-2.35473
-4.07461
17.7845
31.0535
15.5599
-1.01627
8.92622
30.1688
33.7261
34.0161
48.162
37.5825
33.7069
21.9512
-1.10557
-1.76081
9.99042
-1.13939
-27.7272
-29.3582
-9.24861
18.3133
9.65805
-7.25409
-7.4407
-33.2627
-21.3173
-20.0041
-27.4124
-35.9291
-50.9335
-39.5436
-4.46057
-11.2699
-8.70297
-2.40427
-13.5477
-31.357
-19.515
-18.6354
1.25051
32.6199
33.5715
-5.55616
-48.3485
-1.42754
38.7159
87.0871
93.9735
67.9744
60.31
27.2329
-27.5168
-58.0154
-82.2862
-76.5831
-65.3513
-50.5742
-36.3263
-4.158
-3.55027
-3.42047
61.8316
101.451
77.4989
44.7859
20.1864
-9.06619
-17.4888
-30.164
-11.184
15.5048
13.6688
10.7791
12.9653
46.8009
47.7037
26.141
11.0568
-0.617368
-24.9245
-54.4033
-88.3905
-70.3565
-37.0649
-26.4353
-37.0383
-57.4852
-35.3093
-7.79785
9.4732
18.8898
17.5645
35.2668
65.1507
91.8186
119.644
130.771
67.6955
-12.1239
-39.3743
-45.2787
-62.5189
-82.5855
-75.7665
-72.1407
-47.4512
2.33779
34.6817
13.1225
-52.8237
-58.7981
-27.9972
27.2861
62.5949
1.97323
-32.1101
-29.6977
-16.67
15.0896
38.5322
41.6881
69.2336
111.564
104.643
92.1853
65.3306
-2.76998
-87.6695
-108.486
-56.0288
-55.6903
-57.0465
-72.0675
-87.2882
-49.4972
-32.1604
-26.692
-0.532309
27.3136
29.1718
29.0434
19.3586
20.2326
28.0489
30.9079
36.6663
61.725
71.4783
37.2157
17.9342
30.0597
32.6383
20.1844
-6.65239
-24.2847
-1.13107
1.09023
-5.99288
9.66778
19.6854
25.0084
-1.23638
-53.5115
-49.34
-38.5908
-41.0716
-56.8423
-58.0125
1.65567
40.8999
37.5983
31.1381
-15.6691
-46.3058
-54.9141
-72.3448
-63.7222
-69.5203
-64.2658
-16.1973
11.9689
10.5361
32.8762
49.9904
53.3558
85.4409
121.798
131.65
74.0047
16.026
-28.1202
-35.6559
13.6692
7.7452
-11.0907
-34.896
-53.7823
-38.4562
-21.4645
-36.1215
-37.1786
-36.9592
-47.8037
-33.8619
-8.83183
4.22068
-26.5295
-34.3617
21.3184
93.6904
115.633
104.176
88.3106
99.0996
65.6231
2.44936
-44.079
-54.3949
-45.4118
-49.2467
-40.7162
-44.6835
-41.7629
-38.2525
-49.808
-49.8692
-14.1117
11.5457
-21.7916
-58.5975
-40.962
-30.1865
-47.1179
-30.2687
4.36941
39.8557
67.8262
67.4336
52.6806
38.7842
28.5629
56.3573
91.7652
85.1698
60.8766
17.5736
2.42619
2.7213
-9.76386
-16.19
6.25754
15.259
-29.641
-67.5371
-61.2614
-32.9588
-15.2955
-16.4158
-33.9995
-57.9515
-69.4987
-82.9057
-84.5433
-40.7239
5.76238
7.95116
-10.3959
31.6435
63.8113
55.9984
21.744
47.0649
69.3423
38.7106
16.9422
8.03672
2.47866
4.36817
-2.00819
-22.454
-41.8126
-23.7773
-11.1433
11.913
34.6755
71.0416
88.2694
22.3472
-24.0219
-18.4258
-39.725
-92.8209
-60.1725
14.1106
42.7579
38.0503
34.7763
29.0796
34.8895
33.7498
23.592
37.1246
30.8371
-22.9473
-82.8988
-86.3268
-69.2678
-44.8678
-60.8545
-80.1725
-63.0513
-42.5391
-30.372
24.028
45.954
-12.4487
-28.1379
-22.1354
-4.94635
49.8661
98.3042
75.9658
43.3421
40.7699
55.6498
51.4061
41.6237
48.7998
15.7563
-4.64559
18.055
16.3419
-14.8285
-68.5292
-30.5565
51.5002
23.3539
-8.13706
-14.6223
-22.8249
-37.2946
-31.9709
-1.39803
-13.1441
-78.3879
-103.51
-71.725
-19.7426
6.74167
52.156
51.4721
54.8784
82.4086
37.0805
-15.8598
12.802
40.7665
30.9958
-1.17643
-58.5514
-99.2924
-86.437
-65.7421
-25.0416
34.0295
43.4602
24.6811
1.23233
19.4544
39.6677
14.7524
-9.34963
-24.7575
-66.619
-104.871
-82.6445
-6.03207
49.9531
68.8618
42.7357
52.5484
83.717
108.559
81.8611
47.9456
49.2452
46.444
22.5915
-0.270049
-36.7317
-101.049
-144.892
-115.748
-53.6342
-5.68859
-5.20628
-20.7394
-28.5638
11.1813
108.629
161.582
124.724
31.7438
-33.5399
-41.0459
-36.358
-57.1415
-43.4299
-27.7517
-40.1504
4.90289
37.1257
9.45808
-3.41487
3.32382
-11.6665
-30.3384
-37.8303
-2.8499
-13.6096
-78.499
-94.6588
-55.2759
-1.23182
33.198
15.5555
-2.96271
-10.9128
-28.1985
-1.22715
28.4064
18.7303
14.546
29.0376
46.8194
69.5129
86.2417
63.0363
24.0276
14.3143
34.3749
32.6795
22.8061
42.1118
31.8324
15.9804
22.4246
17.6379
19.1986
4.91886
-54.363
-80.8733
-46.7047
-25.5056
-59.9179
-92.8899
-96.01
-64.4188
-20.1422
1.43743
-3.1873
16.7614
27.2692
-19.0927
-33.2211
4.74886
39.9696
27.6497
24.3042
43.3341
65.9506
40.0366
13.3097
9.6264
34.4453
48.5703
13.3922
-27.2987
-57.538
-72.8045
-64.3504
-58.8925
-47.9196
-24.5384
-12.0391
-17.9749
-2.89425
54.7496
88.5956
76.8791
57.0117
42.2969
37.269
-0.531297
-51.296
-60.6069
-41.2759
-33.154
-35.9881
-57.024
-32.0029
15.9196
22.9827
28.4201
42.0758
50.2654
41.6849
37.6586
30.0684
53.7539
44.0226
-22.0661
-66.7325
-45.7033
-17.0518
-23.3998
-5.97396
18.0359
16.9857
36.6741
39.9998
6.51742
-13.5908
-5.55873
-35.6575
-64.5429
-51.1495
-58.2071
-76.3066
-98.2867
-55.2543
6.09721
13.8782
14.148
40.4885
75.8361
63.0641
24.3868
29.5649
50.3858
53.8241
67.8941
61.4575
55.079
57.5585
31.7007
-24.8758
-47.7078
-71.7082
-100.233
-64.7761
-21.1428
-1.61902
2.24288
5.1908
-0.875812
-15.8313
-19.3166
-4.18138
37.9276
28.9093
-20.3559
-47.4451
-33.1881
-8.34146
22.8917
19.5179
23.3714
31.6071
31.3604
-11.5182
-20.4276
-18.2566
-7.08272
19.2127
-4.19755
-2.88999
1.74291
-26.0011
-60.2687
-43.9635
-1.14164
-4.5025
-37.4572
-37.0224
-3.35313
48.0183
52.9789
48.4311
27.7331
19.4581
19.8594
21.7951
-2.46085
-41.7639
-35.1853
-12.021
4.55058
-7.1383
-12.2914
-1.16686
12.0174
43.664
58.3667
43.2736
28.5325
29.3892
47.627
88.8585
99.4884
83.1653
23.7031
-27.7401
-80.4523
-107.445
-94.5652
-79.0381
-72.0158
-34.702
-21.7974
-41.322
-32.7284
-17.9235
0.250512
14.6519
9.22537
-5.83256
-21.3641
-33.5517
-41.5779
-44.2533
-24.7544
-16.6676
2.38863
33.4158
41.7928
22.9636
4.32341
15.6672
29.9499
28.8542
46.0338
57.6904
40.0485
46.9792
44.9728
40.0175
33.8494
-21.2287
-71.8205
-30.8279
17.335
36.0255
34.3761
27.0921
30.0679
40.944
42.8431
19.3421
-13.4159
-26.7039
-49.0305
-72.4886
-67.8563
-66.4206
-65.1143
-78.9895
-67.9843
-11.1353
29.5426
19.9921
6.89521
-1.19021
-5.34564
-22.0031
-55.4437
-68.7982
-50.0705
-17.0871
16.3218
19.4462
32.4876
68.4053
90.8073
81.8116
71.5147
71.9104
54.3525
20.598
0.0209436
8.22911
8.83056
1.73101
7.80531
0.889944
17.4775
24.7356
1.32498
-19.9543
-16.4144
-29.2207
-24.244
-17.4574
12.9806
2.34235
-45.7054
-73.7182
-55.0751
-35.5143
-34.2482
-35.9621
-9.83555
32.4902
76.9883
86.0461
53.0758
26.3619
9.28162
-7.82782
-53.289
-87.4641
-98.233
-84.5815
-71.9162
-37.9723
-7.05097
45.4269
85.062
79.6233
48.0539
6.47965
-19.5333
5.84141
12.4139
-6.23626
-6.93498
-19.1868
-13.6483
-5.40394
20.5659
37.832
25.1182
-2.81936
2.56418
37.9655
63.0719
49.8339
0.042179
-12.2287
15.9825
45.4862
26.1876
-18.172
-91.8656
-99.7762
-73.2177
-28.0488
10.5986
38.3407
72.2938
82.3491
86.5682
67.0665
25.7931
-20.3957
-48.1746
-68.2385
-75.7634
-69.864
-73.6535
-53.686
-26.0463
-16.8136
18.9582
62.702
88.1156
72.0765
27.2057
2.42113
-26.283
-28.707
-28.8123
-46.7577
-62.8351
-58.9814
-58.6991
-13.727
33.076
51.0481
45.9224
31.1596
18.8798
26.8692
-15.991
-64.5228
-75.6293
-84.0585
-44.4523
-7.463
35.5064
72.3105
76.1627
85.1048
119.933
103.561
57.3448
31.1761
17.1893
-11.7484
-21.117
-18.4763
-7.19137
-5.64472
-20.5717
-44.6746
-29.0563
2.34501
-7.64056
-53.5578
-80.9567
-70.8232
-28.4269
1.19369
31.0667
41.8559
42.1924
28.6678
-18.7809
-28.5595
-5.08427
3.97987
-20.0128
-56.1625
-33.1653
9.29772
20.3907
32.6295
33.2036
12.6723
8.67548
0.368022
-8.65251
-23.2121
-45.2244
-34.4911
8.30756
27.3046
31.5369
11.5913
-22.4213
-22.6133
-14.7244
-11.5586
25.152
18.0882
1.02036
-9.32643
-7.05339
41.138
78.207
63.2878
46.8099
62.538
67.0892
47.7143
-1.61836
-67.9487
-69.2118
-56.0464
-59.0725
-60.8674
-18.0415
30.665
17.8929
-9.89198
-11.6045
-16.2006
-32.1188
-60.8453
-83.5218
-76.3235
-32.6402
5.23008
8.39169
4.67114
26.9327
38.9158
28.4471
39.5069
42.7796
46.9368
7.86497
-0.389809
50.7989
99.5719
66.9269
43.5561
43.7001
4.32378
-18.2572
-20.8945
-17.4211
-21.5358
-36.938
-51.3609
-54.9273
-44.1406
-37.2266
-0.412215
42.5327
38.3153
31.1661
-8.81036
-68.9171
-75.2656
-49.7155
-28.5983
-25.354
-0.475115
29.1576
20.7533
16.8412
9.5695
2.13784
6.53643
-4.3104
3.22027
22.54
0.210877
-58.9772
-85.3434
-80.8341
-34.82
39.6647
68.7034
63.6499
62.7934
59.5046
57.6738
77.725
68.0117
41.7704
21.2781
-8.2324
2.95845
28.1463
29.6759
41.0623
69.9935
60.6285
25.5811
-14.2621
-54.1725
-97.1879
-118.634
-121.171
-110.945
-96.9508
-101.78
-80.4193
-47.928
-29.9407
-20.6818
9.49192
55.0863
69.4676
43.8298
23.9937
32.078
45.0498
54.4817
35.3021
11.9369
-8.70147
-21.2007
-8.49362
-6.6074
9.29348
22.8995
40.5132
61.8314
17.6745
22.3311
45.0985
57.6473
62.0278
25.7783
-46.1986
-56.3964
-56.3255
-31.1288
14.2471
4.68939
-8.32721
-17.1371
-20.9076
-25.0756
-52.7691
-76.0236
-77.9068
-61.4955
-47.2223
-29.8629
-13.5896
-14.2766
8.38105
59.9686
90.5237
40.9118
23.287
54.0989
56.0849
47.3181
53.6063
55.1847
53.8317
45.178
20.2865
6.23765
-14.6165
-43.6331
-42.5998
-54.0674
-63.0174
-51.3466
-62.2267
-47.7721
-24.3087
-17.3142
-23.9748
-52.8984
-28.1747
28.6036
35.2915
23.5491
25.4972
33.0611
41.246
55.5732
62.8614
48.1595
24.2114
20.656
6.16573
-6.67529
-11.942
-3.68035
44.8049
67.5345
43.2151
13.0427
-34.9443
-102.285
-112.307
-92.5352
-95.1089
-78.9825
-47.47
-24.3664
-26.7671
-32.5642
-32.4621
-6.75018
26.4999
25.9535
42.9375
52.4205
16.9035
5.12887
13.3003
27.7618
33.1841
79.438
93.0899
63.0674
46.9832
48.9417
45.1823
10.4572
-29.0129
-15.9873
11.5813
-14.3371
-34.2432
1.86572
18.9832
7.40112
4.99227
37.2086
25.4933
-38.7835
-63.6678
-62.8417
-60.0746
-63.1395
-46.5878
-56.0195
-35.9861
9.25136
5.54312
-3.57519
4.77131
44.6315
55.2922
1.34587
-53.8325
-44.6639
-9.95996
2.15728
-8.81172
-4.10272
23.1091
1.46304
-39.0122
-43.3302
-27.7104
1.39183
2.69828
10.8715
67.2468
92.1706
118.408
117.635
77.5416
57.9707
50.238
12.7464
-18.0132
-49.7543
-57.904
-47.9113
-37.6671
-25.288
-31.7701
-48.6069
-58.7087
-51.8282
-31.2214
-24.5468
-12.6478
-12.5599
-43.8342
-78.8624
-61.9821
-18.2772
14.7569
10.1325
20.0403
55.3678
89.6172
116.319
108.523
79.0319
93.4111
102.584
51.2258
-8.42228
-37.3287
-39.7843
-29.2693
-36.0518
-54.6321
-62.4734
-75.348
-77.9952
-60.8385
-60.4694
-65.8705
-57.8294
-4.03706
36.1759
40.9813
29.0497
20.4825
36.663
34.6213
32.6009
31.3182
-1.44088
-22.8489
-25.3341
-21.3425
24.4697
34.6852
11.3374
9.49512
28.5551
38.0599
15.796
3.01205
25.0262
48.1461
43.1308
15.976
-20.3757
-33.5845
-30.4011
-37.5859
-41.2104
-40.3362
-10.131
21.4091
5.92941
-14.6635
-35.6381
-51.1853
-58.4437
-42.8857
3.61394
0.0932035
-27.4295
-17.4415
-14.6682
-0.291703
32.4725
56.5083
58.1805
20.8152
1.35335
8.15539
-1.44902
-9.05146
10.5952
36.5021
80.9967
97.6661
113.487
75.2865
23.9699
-23.4419
-65.2793
-66.9723
-56.9703
-68.873
-78.6434
-71.1075
-39.7285
-7.18647
5.38733
43.8419
-1.97987
-42.2078
-30.9004
-16.7028
-33.0935
-37.4323
-32.2278
25.1005
85.6858
104.027
93.9279
48.4601
3.93528
-12.7428
3.27472
25.2619
-4.30615
-24.7469
-18.9193
2.48025
13.2178
-7.66482
-47.4609
-57.0034
-38.8316
-27.5222
-9.82546
1.32771
-32.5272
-46.5382
-5.18412
37.0901
41.9999
25.5411
12.8921
4.34567
-15.6006
-4.97092
9.93314
7.1302
13.1132
6.55705
0.221915
45.8795
66.5954
60.677
39.3058
20.839
20.702
11.2627
-8.08452
-45.9349
-50.2136
-26.68
-10.4826
-24.6741
-34.4014
-35.417
-9.10083
25.6277
42.295
32.4293
-23.3649
-44.0578
-58.5297
-74.8275
-55.5879
-34.612
-14.2515
-12.4962
-12.396
30.9013
19.3162
-7.68932
1.83414
31.9318
50.8391
40.3945
-12.0097
-8.05433
30.0577
32.8376
38.6428
38.4766
44.6562
35.5257
21.3523
16.7289
21.8082
39.2786
55.2868
16.4795
-24.8433
-49.6911
-46.2516
-27.232
-30.7756
-35.1021
-38.6638
-68.9837
-90.9955
-61.2564
-17.9755
11.4103
41.9238
51.4113
35.3358
12.8085
-6.94668
-17.8056
2.60508
-0.692165
9.85801
21.57
-23.1316
-24.8068
-21.9578
-9.50473
48.6836
85.9588
36.9121
3.3799
9.18027
1.52294
25.3226
29.9431
38.3214
32.7568
-13.1281
-52.7674
-74.8019
-70.9414
-32.4076
-9.6964
28.0547
-1.05166
-18.9481
-9.31195
-7.97363
-11.3353
-5.24477
-9.48216
-12.8542
-9.5596
-27.9979
-27.5951
-22.5032
11.8046
34.0407
30.3527
17.6601
11.9703
20.2683
27.4713
31.6947
51.4023
66.7062
47.3502
18.7625
-2.96544
-9.83849
16.4448
22.0943
-6.23165
-29.3388
-19.6422
-37.6298
-67.792
-53.8775
-25.7802
-3.6912
0.793304
16.9394
39.6877
33.2262
66.1687
54.9131
-23.953
-77.4587
-78.3164
-39.4001
-2.28146
-2.9665
5.52765
12.2117
24.5124
-2.04903
-46.2567
-58.2188
-75.1791
-72.4728
-7.16404
49.3789
60.344
60.3066
19.1002
28.9092
89.0094
87.4897
48.3773
0.941026
-29.5424
-29.5202
-43.2993
-37.3534
-36.3355
-34.2986
2.84448
23.4572
21.7837
14.9927
-19.3847
-43.6804
-40.5866
-34.5906
-48.7275
-43.0542
-12.654
-0.928595
12.4719
37.6151
72.0788
93.7617
84.4578
70.7554
49.4803
39.5302
1.41039
-24.627
-12.3432
5.05546
-5.6128
-36.0096
-76.6225
-103.786
-36.2396
30.7886
39.1068
58.0616
77.4689
54.417
3.9826
-29.0299
-29.5031
-60.4098
-101.076
-99.2057
-85.4687
-71.2973
-57.8621
-73.6971
-74.5597
-23.7296
36.7474
95.7308
120.909
100.002
71.9347
36.3285
27.1202
46.5088
75.1884
62.7256
31.2567
10.0043
-4.10359
19.1759
34.5681
29.4222
23.5635
32.7048
18.1116
-28.8923
-59.4225
-41.7182
-44.3134
-87.0158
-97.6642
-82.3384
-70.4682
-75.7587
-89.8275
-93.3073
-79.5962
-39.7301
-3.13508
33.3812
74.1004
85.3498
65.2243
62.7156
69.3205
65.6522
73.7165
58.352
6.70296
7.56588
31.0221
57.1415
24.1055
-22.8239
-39.1992
-8.65308
-8.36925
-2.94642
21.0185
39.2416
12.0909
-10.2937
36.3409
55.3533
25.5919
3.19684
-18.006
-61.6127
-73.8087
-81.0102
-98.5661
-78.7219
-33.7866
-11.4115
-2.88139
-2.39041
3.41483
21.4089
34.0271
38.7766
41.7822
21.8908
-47.2465
-96.237
-72.3808
-44.0967
-30.4749
-12.3661
2.16656
37.2471
77.9605
76.1249
111.676
97.2082
39.7843
-4.59751
-24.4361
-20.8135
-9.01656
-7.17388
-10.4132
-20.0323
-18.4524
20.8147
40.8793
15.5169
0.517654
1.47021
13.7244
10.5123
11.7308
1.76595
-31.437
-54.166
-46.884
-5.86934
23.198
10.4279
-13.9967
-22.5145
16.9743
53.9228
8.83116
-46.5283
-36.338
15.4715
19.736
15.5427
-16.2177
-42.1928
-46.8459
-50.4972
-51.1726
-30.5724
13.8317
37.7954
28.4625
17.8011
-2.93659
-7.76096
-21.9498
-40.3914
-42.1043
-10.8792
11.9734
9.91252
43.6953
54.1028
53.676
66.1101
76.0312
74.8695
53.5054
25.2336
-25.748
-72.2008
-86.0847
-51.4642
-7.56788
-5.91649
3.46439
47.5606
74.0279
76.6281
68.9733
33.8641
-17.7548
-52.6601
-65.0012
-76.6643
-64.5937
-31.3274
-4.62373
9.48868
22.3677
15.4284
21.6632
16.4412
-8.53158
-40.1844
-65.0381
-80.8434
-86.5017
-72.0339
-47.6433
-3.77454
50.4873
50.8696
36.3169
32.169
0.799446
-21.2942
6.91681
35.8878
52.7405
35.6412
15.5741
11.8703
39.6408
66.7174
31.4962
-15.5072
3.70195
8.57404
-3.05806
-15.1774
-30.8588
-27.3049
-21.5812
-30.929
-21.7144
1.91829
8.36551
30.6616
73.274
81.2032
46.0392
21.4673
-25.8107
-73.7048
-74.4167
-47.2212
-33.8355
-39.204
-34.3515
-9.63072
-7.39222
13.313
43.3151
43.0209
31.2226
-7.32044
-28.5254
-23.5487
-42.8588
-22.8643
22.2725
44.441
28.3801
21.1394
49.4402
50.226
17.5025
31.2457
18.4025
-8.31718
7.96324
7.58518
-24.448
-42.8067
-40.0489
-27.2502
-27.1936
-33.0042
-42.9287
-35.0347
-34.2419
-40.3503
-29.0488
-23.676
-29.6209
-17.859
-9.43462
-26.3555
-9.70202
7.32464
18.7869
34.8622
75.7592
106.479
130.175
110.776
54.0232
-1.65818
-23.7967
-5.78489
30.4142
5.88995
-34.0072
-59.4114
-57.6595
-17.9525
2.98611
25.5367
27.8843
8.99421
1.48954
31.3107
50.2664
19.441
-29.8257
-43.2769
-12.2415
-11.5302
-48.2173
-65.5692
-79.0921
-64.1117
-37.9131
-25.9495
-9.24769
20.3202
32.0211
27.6401
17.5692
-8.79018
-33.579
-50.5008
-35.2989
-7.41594
-2.02369
-1.15858
-3.18107
19.3163
35.5111
47.1714
58.0932
75.6255
84.4728
111.597
109.039
14.8911
