-1.3806
1.671
1.16923
-1.6734
-0.981795
-2.86551
-2.23583
3.31531
5.24124
4.59245
5.49797
8.14889
3.56025
-3.96363
-7.22988
-6.58699
-5.78045
-4.86889
-3.08601
1.6427
3.12966
-0.103234
-2.18644
1.54778
0.751756
1.88617
2.59166
3.76558
5.96382
7.02235
-0.150878
-4.19442
-3.42177
-1.10059
-2.78586
-1.29868
-0.232162
-1.14364
-1.67232
-5.1611
-1.37757
4.57527
5.84925
3.06554
3.44301
-0.657894
0.681122
0.650472
-1.93228
1.30438
0.0341055
-1.71357
-1.21128
-3.3172
-2.1058
-3.64275
-4.43324
-3.82103
-1.46076
-2.14647
0.106511
-2.34496
-2.02947
1.76998
4.38295
6.83254
6.52338
5.16547
7.23477
7.31254
0.281247
-0.440494
-1.00278
-3.05737
-1.87985
-1.8826
0.600359
0.487873
-4.62085
-6.98806
-5.69412
-5.26187
-3.75166
2.49744
5.77946
6.83577
7.92082
5.62452
0.354184
-1.67755
-2.23597
-0.952699
-1.78902
-0.712229
1.56847
-2.04187
-5.25482
-6.32884
-4.22843
-4.19132
-3.85879
-2.4952
-0.501118
-0.645838
-0.555033
1.33695
0.231216
0.47628
4.87897
6.84671
9.46955
9.02493
4.04384
0.400735
-3.76235
-3.90309
-4.59365
-3.939
-2.39785
-1.9743
0.146207
-1.63044
-0.158148
1.75873
3.02497
2.1253
-1.80517
2.3053
7.41068
6.26474
4.23751
1.70907
-1.01732
-1.25795
1.80159
3.5722
1.06448
-3.34107
-3.82335
-8.98985
-10.3558
-6.57748
-4.45652
-0.269669
1.77041
3.05882
2.92853
1.84112
0.172349
0.670144
-0.689749
0.886383
2.67843
-2.04905
-3.45572
-3.34827
-4.65606
-2.69832
-0.291738
3.08943
6.07311
2.84897
-1.0568
0.556932
0.031161
1.38284
4.70722
3.38591
2.29211
5.47811
5.54933
1.04103
-0.536924
-1.70284
-4.14946
-8.08456
-6.17281
-3.7056
-1.80985
-3.66056
-5.40421
-2.83323
0.0332984
3.74264
3.67899
4.35161
7.07563
6.85879
4.642
0.377394
-2.53987
-1.09544
2.34909
1.98604
0.720428
-1.07909
-3.93444
-2.38988
-3.71132
-6.01303
-3.87598
-1.33282
2.15079
0.315014
-0.863167
1.74708
3.43998
1.94203
3.29662
4.80506
7.09371
3.98
-0.127033
-3.01313
-1.6262
-6.45519
-6.91086
-4.37393
-5.68239
-6.15428
-0.270712
-0.310313
-4.27758
0.0468301
3.1016
2.65695
6.4284
7.01163
6.1991
4.45945
2.99025
0.949098
1.09032
0.210902
-2.93391
-0.843321
2.9671
-0.511556
-4.54622
-5.40108
-6.49304
-2.72587
-0.835114
-1.11958
2.89057
1.32527
-1.41233
-1.47812
0.254629
3.07642
1.5263
0.417753
3.75113
1.63954
-2.34536
-4.85808
-4.55842
-2.36452
-0.6555
-1.81279
0.114487
3.98084
3.97229
3.8062
4.3343
5.25647
3.07361
2.19628
1.40304
0.696337
4.15636
3.59693
-0.46236
-4.15753
-3.27674
-3.47196
-5.98588
-4.13173
-3.53932
-2.98294
-1.6468
-3.12628
-4.72618
-2.18124
-1.90924
0.120869
1.56952
3.35205
3.59308
4.40206
0.610977
-1.10713
2.75607
1.91017
3.68066
5.41792
0.447819
-3.78412
-3.14909
-5.00243
-5.90513
-3.61758
-0.947012
4.27281
1.85564
2.65899
2.27488
1.10995
1.1249
1.91715
2.34582
4.93323
5.48603
2.15024
-2.7725
-4.34536
-3.56007
-2.047
-3.39614
-4.90686
-2.30848
2.06591
-2.46012
-3.62385
0.0079411
0.896672
5.61398
3.56407
3.64055
5.9139
5.37402
1.31331
0.04281
-0.115821
-1.98144
-4.85848
-4.93053
-1.4641
0.881944
-1.75719
-8.35119
-7.29855
-6.05301
-3.06695
-1.52146
0.62652
5.49778
10.2099
7.09978
3.82326
2.24678
-1.37989
2.02912
0.911958
0.922904
3.30539
1.37206
-4.14427
-6.7706
-4.80499
-3.13062
0.720649
2.51132
4.43164
4.64991
7.76164
8.4531
0.882475
-1.93649
0.220231
-0.991607
-3.55925
-3.58688
-0.272673
0.966848
-5.80001
-7.63739
-6.83572
-5.90547
-3.26578
-2.07093
-1.07267
0.5657
-0.731763
-0.620197
0.439334
-0.376211
0.0758908
3.80375
7.00881
8.79826
5.3849
1.12963
-2.61016
-3.30105
-0.259243
-1.44994
3.6064
5.12792
-1.55514
-2.65754
0.861093
-0.935354
-0.43775
1.55796
2.77798
3.37839
1.04785
0.163062
-0.527508
0.583784
-1.26826
-0.0770642
-1.83833
-2.99732
-2.84709
-3.44754
-3.66753
-3.59006
-3.28749
-6.90176
-5.48492
-2.38301
2.49465
6.60836
7.46425
2.78282
2.04116
3.95856
4.23206
6.62423
4.50683
2.74316
2.92795
1.09953
-2.7901
-2.8986
-4.55021
-5.46406
-4.15841
-0.61193
1.75575
-0.0922219
-2.18311
-1.83913
-2.32971
0.75442
2.75304
1.43165
3.68258
4.8714
-0.479421
-2.50319
-3.80138
-4.50759
-2.29245
-2.33442
-2.22368
2.0825
-0.0811509
-3.14642
-4.13891
-4.46349
-1.01269
2.3043
1.23498
2.21078
6.11032
5.13909
1.76636
1.07778
1.39709
2.35675
-0.417231
-1.41776
1.28492
1.37439
-1.10972
-4.32518
-4.52345
-4.29226
-2.11692
2.05559
5.65179
2.88424
1.74821
2.57439
3.00208
3.92749
5.08959
7.10269
5.40538
3.73401
1.32054
-1.46577
-5.96511
-6.39494
-5.68548
-3.4146
-2.68029
-7.89879
-6.89873
-7.47943
-8.19519
-3.16847
-1.1278
2.89862
6.34974
5.07916
1.53005
-0.0512268
-1.8459
0.434446
1.20813
-0.703231
-0.186043
0.294095
0.726412
-2.16028
-2.96469
0.152748
2.43136
4.00005
3.34348
6.12501
7.71097
9.15503
2.99132
-0.533185
1.99837
2.66241
0.375439
1.14839
1.43721
4.62089
1.31326
-4.50518
-9.97693
-10.7255
-7.38962
-5.57168
-1.57196
0.375913
-1.61497
-1.18992
-1.61808
0.694616
-1.02706
0.400741
2.20522
8.21247
5.9634
3.20611
0.254744
-4.27809
-3.83405
-4.97209
-1.33886
1.98855
-1.64079
-5.57477
-6.14712
-2.7545
-0.167625
0.917074
1.75486
1.55803
5.58031
8.04052
3.53386
1.99374
1.69538
1.41277
0.329979
-2.85286
-1.49758
-0.459028
1.12279
-0.306878
-0.384039
-3.63203
-3.04143
-1.53647
0.499098
2.75982
3.37682
2.01971
1.86718
4.14245
4.5891
5.37889
6.29378
7.1689
0.541971
-2.5237
-3.84038
-7.97723
-6.33673
-3.36377
-3.75524
-1.44341
1.71001
-1.32502
-5.01866
-1.53639
-1.64832
-3.31797
-1.81159
-0.717977
0.855876
2.64525
1.99702
-3.51149
-2.08349
-4.26727
-5.41175
-3.2901
-3.16916
-3.5304
-1.69471
-0.110648
-0.403674
1.36246
1.95166
2.54317
4.73213
7.01133
10.7974
12.0057
8.06425
4.14165
-0.374347
-0.922973
3.65157
2.33113
4.4828
3.86199
-2.69391
-5.43721
-6.25663
-6.52212
-6.35916
-5.06016
-1.41773
1.93127
1.59091
2.06436
-0.234855
-0.9723
1.01232
2.22216
3.63133
3.41425
0.458574
-2.51558
-3.67169
-5.15544
-4.28002
-3.49085
-1.15065
-1.18118
-1.96143
-2.357
-4.08005
-4.08983
-0.468281
0.459416
4.43791
4.4567
5.88933
6.49666
2.3843
0.266005
0.4208
-2.00726
-2.72284
-1.41614
0.349115
2.30457
-1.46853
-2.27631
-1.03973
3.12063
-0.85302
-0.190311
-0.560921
4.93663
3.34265
-2.08517
-0.731427
1.78959
0.829349
-0.766647
1.39673
1.82878
0.243626
-1.77667
-1.5027
-2.9763
-3.86793
-5.91807
-5.2962
0.375973
-1.55466
-1.87642
-1.08292
-2.02658
0.856602
2.0291
1.16724
7.9821
8.80933
2.26548
0.1874
-2.05222
-1.79329
-4.76811
-5.58528
-4.04679
-1.81192
-0.0456148
-2.77046
-1.74795
0.917816
4.51635
7.66865
9.45573
9.33285
8.68564
5.2055
0.823174
0.178156
1.22966
2.50136
-0.279333
0.113458
0.124784
-5.036
-6.76293
-7.6876
-7.96934
-6.93216
-5.02976
-2.63089
3.23392
4.48197
0.0939891
-3.68787
-1.0831
1.5391
2.36413
4.37014
5.36636
1.49991
0.33573
-2.22858
-1.47025
-0.17351
-0.236187
-2.01853
-2.37201
-2.55105
-5.03041
-4.761
-4.26692
-5.24342
-1.37085
1.42906
0.892241
4.70304
5.42897
2.38969
-2.15746
-0.0493864
-0.97829
-0.587706
-1.77529
-2.27912
0.184635
2.84869
1.38822
0.541023
3.4284
5.33851
5.62648
5.59236
9.38211
12.9488
8.68054
2.64329
1.47997
1.15034
-1.9032
-1.69236
-5.047
-6.46711
-8.92738
-8.60609
-9.66095
-9.04649
-11.3678
-7.23933
-3.90571
-0.450657
1.25424
2.50884
0.116944
1.99326
3.32844
3.39117
4.22121
7.11863
8.71065
6.81733
4.29943
0.670196
-1.84816
-2.64238
-4.66992
-6.53862
0.0298511
2.82336
0.456608
-1.93436
-0.0932627
1.1862
2.00154
1.62361
0.460808
4.55486
2.05562
0.198891
-2.75251
-2.14937
-0.838058
-0.768359
0.104259
0.634896
0.894385
-2.31912
-5.9938
-5.6151
-0.0671619
0.413611
-1.69308
0.34135
4.18895
2.44066
1.13981
0.210799
2.03445
3.92514
2.44167
2.04533
1.55871
-1.42536
-2.61485
-4.96745
-3.82926
-2.85838
-3.66902
-3.13398
-0.891064
-0.0883085
2.97571
4.88391
1.7856
2.06626
1.29841
1.50216
1.51006
1.37223
3.57903
4.7237
-0.669611
-3.54874
-6.18239
-5.17659
-5.03566
-2.9895
-2.22479
-5.60134
-3.30617
-2.23805
0.425452
0.729681
1.90135
4.39141
8.39412
8.19471
6.78029
4.59159
0.353629
0.723953
1.67814
0.491163
1.20529
-1.77542
-2.12582
-4.77403
-5.48756
-6.45858
-3.40703
-3.55235
1.56112
2.50012
2.21718
4.38822
1.49344
0.294093
0.296777
1.09622
-0.0827987
1.5747
3.36784
3.47369
-1.66459
-3.43293
-2.00724
-3.42932
-4.18331
-4.41042
0.66179
-0.037572
-3.71396
-2.57484
0.910213
3.28843
1.49557
1.1139
5.77183
10.9963
5.56679
0.681071
-4.36272
-5.08436
-3.66348
-4.14411
-4.19536
-0.65813
0.155771
1.55489
0.797133
-2.98392
-3.61363
-2.07037
0.845606
3.67507
7.87545
10.2121
5.36225
0.881187
0.17731
0.388494
0.36478
-0.644843
-0.621945
-1.55246
-2.24205
-4.35218
-7.24747
-8.7959
-5.19861
-2.4382
-0.384161
1.07987
2.05708
4.27029
1.42478
-0.535068
1.49129
-0.493449
-0.118827
0.991518
2.51659
1.75517
-0.492614
-1.94964
-4.40124
-5.68673
-1.16458
-2.83543
-3.59185
0.431865
2.49833
3.94125
4.04294
4.85568
5.24336
2.83876
4.41985
10.1497
7.58263
4.47907
4.42816
0.64669
-1.32396
-1.9744
-0.0779987
1.74031
-3.1733
-7.3569
-6.6689
-6.82317
-4.22141
-3.18895
-3.24765
-0.743698
1.6774
0.60808
-1.9101
-1.95719
-2.79068
-3.25687
-0.157599
-3.85331
-6.08994
-3.07593
-3.24951
-5.49344
-4.83086
-2.21468
0.762247
1.36196
2.80403
7.16566
10.7102
10.1524
7.6443
5.57353
6.33009
5.60338
3.88381
1.57158
1.43509
0.28279
-4.75273
-7.94782
-10.4752
-11.5001
-12.1786
-9.20969
3.43423
5.38761
6.60148
15.3653
14.6088
3.36254
-0.315266
0.456646
1.68021
2.28585
-0.853411
-2.21293
-3.11227
-4.45052
-1.88995
-3.41715
1.42762
4.47596
2.82549
-1.88207
-5.87363
-7.46422
-7.29978
-9.99803
-9.44785
0.661542
5.07747
3.76275
4.40904
6.29273
7.20298
5.71846
1.05358
-0.549098
-0.827634
-1.83666
-1.62484
-1.41939
0.410047
-0.064705
-3.67617
-0.957403
-3.16412
-5.2173
-3.72614
0.883973
3.19945
4.63819
3.73821
5.39125
2.88392
0.189032
3.24749
1.75111
-0.254798
-0.0293491
0.844259
3.71079
-0.477355
-5.83815
-7.52002
-7.40521
-5.2255
-5.02691
-3.66335
-0.75452
1.38474
-5.28164
-8.35211
-3.03389
3.49934
-1.81655
-13.825
-4.90227
10.1209
2.91092
-7.20557
0.24955
7.54314
6.08375
13.5632
25.62
20.9991
24.9834
91.3359
94.64
67.9278
72.7901
60.8213
9.892
-60.8596
-105.843
-115.52
-150.102
-158.786
-97.8108
-39.1714
-25.3616
-23.1537
7.44858
24.9364
5.6328
-16.4024
-35.2647
-75.6026
-75.3872
-47.2547
-24.4176
190.674
167.2
149.301
133.563
86.6098
30.9503
-19.0951
34.98
96.6442
99.7878
54.62
20.2764
-27.1455
-92.5544
-16.7809
111.333
5.49209
-193.412
-259.971
-290.123
-288.433
-56.6331
310.323
244.757
41.2526
-114.946
-142.218
-173.626
-18.9001
291.151
577.464
466.811
253.051
51.7413
70.2575
-35.8984
-151.948
-129.71
-215.617
-255.176
-242.684
-282.859
-313.467
-332.404
-368.828
-367.874
-398.76
-44.0227
375.01
645.014
479.226
223.017
242.836
100.592
-211.448
-218.345
-43.3712
6.35822
25.2713
57.633
83.63
64.9338
-40.5941
5.65214
137.076
226.108
256.584
118.264
-50.5941
-364.345
-472.721
-190.394
38.0919
246.423
242.76
128.174
92.0522
211.622
309.448
222.131
102.063
-4.30401
-151.777
-172.284
-41.7449
135.083
192.64
26.0864
-264.621
-382.317
-445.015
-404.282
-332.43
-254.625
-205.562
-149.621
38.9586
198.989
220.375
161.577
230.99
457.316
282.196
-7.78459
-144.542
-211.962
-294.111
-378.267
-391.278
-229.047
38.9918
258.244
313.182
429.662
724.374
691.376
350.705
-77.8846
-225.363
-147.463
-224.983
-425.006
-350.471
-128.604
25.7382
63.9899
245.619
358.131
212.776
52.1582
-40.8196
9.11624
-43.824
-265.709
-472.463
-454.113
-307.815
-148.942
-27.6719
19.9962
93.5429
92.932
132.494
228.283
248.635
205.858
123.797
27.9169
1.23506
-43.8913
-83.4772
-220.666
-243.36
-6.72055
113.664
68.3554
107.823
167.017
145.33
129.506
68.4387
-61.24
-73.8535
8.17513
10.6631
-6.78374
58.9216
95.9411
14.9762
-126.771
-184.18
-162.552
-108.049
-146.863
-167.362
-65.1237
16.8191
63.862
102.374
122.352
255.156
251.035
61.6572
-73.2694
-122.198
-68.3338
-71.4238
-65.2207
37.0145
91.079
59.8623
-69.1739
-156.757
-118.559
-30.6958
13.1728
-17.473
-0.0612267
28.7666
-41.1987
-241.36
-279.08
-150.551
25.952
246.395
301.086
406.32
336.261
231.107
239.3
148.689
38.7001
-36.5612
-101.448
-226.128
-330.016
-335.304
-315.349
-280.565
-163.854
-10.6059
120.165
151.171
97.3701
28.3403
-27.6797
-142.816
-111.465
9.35454
62.453
129.009
163.701
158.421
156.765
154.803
117.214
43.3693
-36.5582
-67.1851
-40.6189
-29.6847
-32.1677
-60.3898
-91.2854
-91.0819
177.8
423.374
341.225
78.8071
-120.895
-162.146
-143.473
-163.723
-207.636
-205.151
-105.95
-26.1909
-0.136885
8.10418
65.1028
91.6449
36.6756
-53.1273
-93.1484
-87.7859
-166.038
-315.523
-295.257
-73.0774
47.0342
24.1177
44.9951
84.2089
214.684
332.777
259.832
177.511
189.107
168.708
173.28
88.0536
-26.5089
31.7028
83.0301
38.8466
-86.5543
-168.136
-181.839
-235.696
-279.379
-216.691
-116.373
8.61304
46.7349
23.6058
6.85813
-19.9499
-20.3848
-0.404977
-36.4062
49.8227
126.105
91.3644
91.2105
95.483
167.764
59.8075
-23.1735
-31.1763
-50.6548
-96.6363
-112.561
-94.3178
-56.9298
23.2113
107.871
126.52
151.227
275.788
233.659
-72.454
-261.352
-225.45
-147.467
-103.284
-160.302
-121.416
-19.2147
33.3073
58.3167
115.337
121.499
107.979
8.70459
-133.295
-145.123
-113.972
-72.2304
-33.4317
-34.4105
10.5849
68.0583
110.353
121.264
73.8959
85.7435
222.939
278.795
169.235
52.7247
-34.9245
-142.817
-179.861
-138.49
-142.109
-114.865
-59.7735
-85.444
-153.52
-132.326
42.0758
153.073
146.034
109.568
239.37
339.822
-12.1506
-251.524
-265.144
-154.158
-4.4025
94.789
74.0934
-33.0846
-65.9635
-59.0183
-46.7245
-29.5913
-76.9112
-54.8629
77.024
158.118
35.0421
-32.7812
-94.2848
-203.925
-115.672
7.73253
146.132
191.789
129.002
46.0228
7.58493
89.3201
201.042
181.074
51.7796
-32.6611
-110.503
-135.98
-167.351
-196.986
-73.5145
10.0366
-39.4876
-85.916
13.8387
33.2579
15.7917
39.3504
45.2801
51.0681
57.6821
41.149
46.6485
47.2968
16.495
-0.0395253
66.5044
70.048
12.7456
97.7851
113.654
-98.2737
-230.023
-236.354
-120.237
106.084
103.321
-23.2638
-29.8963
-4.19288
17.7416
-59.8669
-59.6224
-13.588
-37.7523
-58.5909
-85.0947
-33.687
25.9933
6.6083
-7.71771
48.6071
69.8666
25.2493
-46.5537
-154.169
-117.35
86.3688
220.607
210.395
169.181
128.168
-6.69211
-145.738
-146.25
-125.929
-98.4385
-0.87064
59.8302
115.482
240.108
342.834
188.928
43.4253
46.5952
50.5533
-44.0914
-192.849
-226.764
-158.589
-105.747
-63.3749
-67.8417
-31.7846
43.8089
77.6315
35.0377
-65.9575
-129.667
-192.91
-208.617
-165.355
-35.8289
26.8453
18.3369
-8.23058
58.9461
110.721
101.88
36.3907
-3.11859
64.759
94.2559
54.1383
61.3225
179.105
325.676
233.697
21.6299
-143.24
-225.438
-205.023
-94.059
-9.14755
14.7018
17.4351
66.9316
74.4207
-69.6542
-128.78
-137.222
-117.599
-90.0965
-17.4017
10.9306
-80.872
-94.9427
-44.6706
-32.3511
75.3521
186.455
181.417
156.881
165.463
137.099
59.4548
-17.3124
-54.3696
2.10785
68.9451
127.884
132.45
33.0082
-11.7215
-0.39848
-11.6835
-126.605
-158.185
-90.5514
-103.512
-169.498
-195.174
-157.363
-155.834
-97.9372
97.6875
138.696
67.5676
-8.76955
-19.008
19.0179
28.8677
47.8488
47.008
65.4288
144.035
104.004
45.4175
32.428
-6.04864
-55.8452
-54.1708
-46.5239
-55.445
-65.4054
-33.2462
60.3219
63.5421
44.263
27.9917
-44.2522
-121.085
-122.455
-114.012
-93.5642
-42.5604
-19.4947
33.776
117.703
165.454
144.161
118.828
89.8616
78.3291
53.1209
-17.6806
-49.0561
-6.2338
71.7544
94.8286
55.2265
26.284
14.7273
-13.5354
-92.1531
-184.171
-151.526
-111.131
-66.4875
-22.9529
16.468
30.9542
18.7101
-18.8546
-56.8499
-78.3421
-79.4138
-75.0102
-87.6451
22.3315
127.886
190.342
143.668
72.7039
75.1448
114.186
252.355
114.949
-104.651
-160.562
-186.194
-181.408
-187.136
-131.068
-36.2601
-22.4132
-36.0412
-4.56852
31.5404
-9.90355
-42.8914
-47.9427
29.4529
67.1428
69.2353
70.8688
48.9061
95.6603
158.449
189.166
203.969
96.0717
31.4277
-17.2118
-61.2831
-81.3937
-88.8081
-75.411
-59.2203
-54.9513
-26.7699
-15.3775
-42.801
-36.9539
-26.2398
-56.0518
-143.963
-116.873
-57.9327
-13.5156
52.1886
99.9289
99.3949
66.0662
50.9052
24.7594
4.19569
6.57236
19.9304
24.0688
19.9486
-3.48467
-11.3808
20.9836
37.0654
-1.52131
-42.299
-6.60966
10.7927
-135.365
-255.179
-205.672
-66.6998
51.2618
97.9085
154.025
215.139
303.45
356.868
161.843
-48.3609
-133.787
-155.339
-218.56
-289.257
-275.733
-181.8
20.1653
114.083
166.171
227.559
184.206
54.3952
-6.96287
-36.0654
-70.2376
-54.5526
-79.7285
-146.189
-105.742
-19.3685
44.2775
82.0308
143.674
171.318
151.111
79.3854
-26.1942
-103.554
-123.112
-149.401
-144.696
-56.4282
29.3779
60.6386
45.8565
29.6131
-5.53249
80.417
112.761
6.85052
-67.0024
-66.2008
-27.4855
85.6224
92.6465
-99.5095
-209.755
-145.759
-4.42413
36.0203
51.4966
30.3462
36.644
165.072
224.181
105.025
1.85438
-123.495
-175.657
-148.323
-110.2
-20.6341
55.355
50.2482
102.956
132.081
153.162
94.3829
-0.911245
-24.9233
-31.8084
-50.481
-81.3161
-164.293
-192.222
-159.738
-116.216
-73.4583
-1.20174
85.6293
137.916
127.121
89.6782
53.4102
41.9114
92.2183
55.7048
41.5548
20.75
24.3124
62.3154
69.5754
16.7894
-69.7178
-84.707
-60.4218
-66.6742
-101.396
-65.6033
57.8047
103.92
27.022
-74.149
-165.746
-176.069
-7.70591
-12.3684
-73.6956
-70.1045
10.7742
91.6623
180.809
204.044
66.117
-1.1426
22.8853
16.9959
27.2762
48.1892
27.8509
25.0514
122.68
149.189
56.6078
-47.3726
-139.276
-138.174
-78.455
-57.3354
-126.596
-163.385
-172.452
-143.033
1.25007
23.7676
-27.9752
6.00897
47.0028
58.9536
29.3821
17.3041
12.0292
-8.63598
24.0957
66.6785
75.2577
72.4652
84.6758
103.865
112.604
72.0756
40.6154
34.6631
-0.901714
-19.025
0.0428278
21.2307
19.2368
18.6675
-14.7909
-69.8022
-91.2903
-87.7504
-97.4121
-147.194
-62.6899
69.6554
60.8916
28.4211
-102.875
-152.868
-96.0873
-45.1381
-30.0953
-31.2492
-5.03616
53.5787
118.474
77.4597
61.9563
99.9797
73.4207
106.194
165.719
140.723
39.3145
45.4853
115.671
2.39283
-52.4521
-69.7954
-104.954
-92.115
-74.6141
-57.2165
-83.1712
-132.563
-155.902
-138.754
-128.793
-109.961
-103.203
-20.4957
112.972
154.526
112.544
15.3242
-42.2148
-8.72172
32.162
8.45373
-45.1336
-75.391
-67.6707
50.622
236.595
319.527
211.067
165.555
217.167
173.042
54.7124
-52.619
-128.796
-175.595
-233.139
-293.408
-268.65
-129.548
-4.39505
58.8567
85.5516
99.526
114.024
100.114
113.818
28.1256
-36.2668
-41.4605
-54.8674
-68.4844
-72.7428
-64.2376
-57.8575
-11.1722
39.9469
88.0485
109.983
48.5223
-1.38704
-32.3687
-24.9553
-22.5265
-15.301
-35.4677
-117.213
-93.4462
-78.4435
-67.8203
-70.6496
-96.9314
-47.9313
12.9234
69.9239
125.433
152.874
135.22
98.3369
94.3439
98.6988
60.1649
-8.31511
-24.6994
36.3347
113.588
65.0637
-39.5837
-54.9333
-64.326
-103.93
-80.4853
-51.9223
-36.9253
-75.7189
-80.3385
-53.8766
-36.4403
48.5394
122.204
198.213
168.114
78.3726
19.8479
-98.6526
-279.176
-328.256
-165.68
9.06057
119.772
186.595
116.581
89.58
26.0999
-17.9053
-15.049
31.9498
64.2286
4.08344
-71.4733
-121.797
-103.017
-59.7642
-49.7106
0.153839
55.5502
42.2581
-12.872
9.86536
52.839
53.9998
102.76
56.8956
35.3208
66.0178
27.7439
-93.528
-145.006
-130.102
-92.8818
-92.0662
-81.1467
-65.732
28.4134
148.668
166.746
206.672
202.31
109.094
-15.5543
-52.1021
-39.6912
-23.893
-22.3207
-4.18736
-1.60132
-8.04676
-53.644
-37.2585
16.2572
43.5016
55.0984
39.4027
-21.7448
-73.4103
35.0391
25.6463
-94.6654
-97.0118
-82.0522
-95.9313
-62.9239
-30.4685
5.55957
-19.5055
-77.6998
-103.727
-108.924
-102.859
-71.3716
-17.4505
90.9899
159.164
152.841
92.2906
-8.3792
-23.0119
15.2486
11.3156
-8.08967
-2.00251
20.0976
44.1717
59.7203
130.305
193.739
191.324
194.95
131.987
37.8638
-37.4918
-120.187
-176.656
-157.125
-46.4227
37.3267
32.8383
9.37759
-33.7062
-28.3418
-13.9228
-27.1505
-27.7561
-68.8619
-123.326
-117.063
-91.8953
-75.3736
-73.1226
-38.1724
48.6277
96.4801
132.663
137.366
94.3897
-66.5573
-147.654
-112.136
-52.493
-31.4412
-50.0627
-41.9092
3.69751
42.1751
42.3489
61.764
133.235
187.346
152.343
80.9573
-68.0308
-168.232
-190.763
-257.299
-295.214
-197.93
-2.45804
129.887
165.622
158.411
175.234
246.672
323.615
249.824
112.437
82.1959
36.8372
-45.0058
-109.309
-110.064
-55.7181
0.949753
37.2525
67.6186
42.1747
31.788
-47.0076
-158.297
-183.763
-155.87
-150.339
-191.623
-252.586
-209.65
-45.2883
75.1105
112.627
122.159
138.627
50.0066
-41.2032
-53.62
-74.2031
-89.1176
-41.1936
11.9041
61.2362
124.337
153.508
121.285
86.0923
32.5659
-34.0833
-44.5518
-42.6593
-49.3743
-47.0173
46.598
68.2894
2.73426
16.3241
72.6964
93.8457
35.5731
-4.48544
9.25885
17.809
83.3089
50.3746
23.5853
20.1337
63.0355
80.2342
-3.35236
-28.2985
-47.8492
-79.6696
-103.443
-110.81
-60.4118
-37.2738
-80.0987
-118.681
-74.3599
-39.8661
-46.3545
-37.6199
-77.6089
-104.241
-86.5465
-56.5719
-24.3777
50.2978
98.7515
99.3363
149.964
280.319
166.921
-3.3296
-37.4261
-29.8524
9.27887
53.7758
79.7627
48.6049
2.88729
-26.1331
-60.0856
-39.3252
11.8473
60.2177
31.2149
-39.7124
-50.6592
-81.0941
-161.174
-257.308
-264.417
-104.937
96.1709
221.258
274.881
329.305
258.977
87.3689
-74.0437
-107.162
-15.4741
74.9873
-6.84798
-110.318
-167.148
-176.739
-160.284
-183.341
-194.533
-119.401
77.462
188.367
142.383
82.8795
35.5905
8.24769
0.86078
22.0163
74.6181
80.6276
41.5517
-13.9783
-8.30072
-12.7781
17.1534
34.4728
45.2377
65.2031
34.7175
70.8841
102.659
-1.32754
-53.9067
-82.6302
-147.881
-145.779
-110.927
-76.8085
-26.7168
-1.5064
-32.6899
-43.5528
-6.23301
45.5117
80.5193
91.0297
110.831
106.117
91.8133
-8.7842
-171.91
-211.563
-122.309
69.4265
91.581
-2.00235
2.33388
50.4419
52.4971
12.7837
-51.4582
-114.412
-80.0799
0.517273
47.4154
67.8828
66.6099
70.1032
101.343
87.0646
71.1982
89.6887
57.1841
-15.2176
0.468624
-6.40813
-10.928
-6.41071
-24.1088
-48.1818
-81.3374
-72.2764
-88.2921
-101.419
-140.38
-155.346
-63.8703
19.1189
5.58182
-21.3874
27.2501
179.448
374.931
306.329
120.71
14.5437
-31.6831
-106.205
-228.599
-257.624
-197.833
-130.052
-110.67
-67.3309
21.8419
95.1738
131.575
113.286
47.5499
7.1546
-11.3305
-57.9341
-153.153
-208.775
-118.254
38.2546
144.837
182.081
249.59
320.492
304.936
187.699
17.3123
-121.901
-190.145
-172.965
-160.043
-138.197
-46.2762
24.806
80.5556
91.6723
-67.9802
-137.311
-102.664
-77.629
-14.1541
89.8904
129.665
68.457
70.6378
120.771
120.198
96.1451
47.1343
13.2786
-18.6037
-80.0072
-109.537
-145.573
-181.872
-186.125
-132.184
-94.7978
-105.762
-113.644
-85.886
-44.0274
-15.0078
-5.53405
-11.5333
55.6177
240.732
371.985
267.003
127.682
60.6099
64.0832
76.9171
29.0712
-22.3284
-57.3874
-39.9422
17.1619
79.5332
60.5683
-31.726
-115.633
-134.121
-101.309
-129.598
-176.206
-171.029
-108.156
80.7882
218.815
190.134
169.081
220.687
139.109
-103.294
-235.316
-222.613
-146.959
-69.7492
-3.13622
32.7096
56.2112
61.4362
-4.24622
-61.5037
-99.1825
-155.614
-190.93
-145.258
-80.4277
17.0387
135.327
109.229
99.2062
190.675
225.964
201.182
145.375
80.1897
19.4573
-4.60099
-11.8536
-54.0731
-51.3624
31.917
80.6828
135.123
161.54
103.88
-9.88726
-102.839
-178.984
-224.23
-173.565
-70.0751
-103.226
-128.207
-112.506
-99.9369
-72.1746
-55.6793
-42.1368
3.48093
31.9344
35.7864
84.2264
90.3222
37.9703
38.0566
47.6271
35.7527
34.6871
111.706
62.8103
-55.8546
-49.7486
13.3768
153.635
210.226
121.654
2.88038
-77.3279
-107.619
-96.3727
-113.036
-180.645
-180.917
-100.474
-17.7015
33.2097
58.8587
21.7757
-30.1649
22.7706
102.242
169.228
163.652
70.4817
-21.8303
0.124237
108.921
125.641
49.4215
28.1301
71.1663
115.837
97.0212
20.3555
-85.7541
-153.148
-134.23
-95.9025
-150.272
-164.834
-136.109
-110.364
-120.785
-159.25
-163.486
-127.522
-105.604
-12.2809
125.751
173.323
120.816
90.1199
113.041
141.823
112.173
71.6643
53.7466
23.0564
115.372
152.171
16.1291
-91.1802
-116.471
-67.5771
18.2911
39.0737
62.1444
69.9723
22.3748
-38.242
-88.854
-116.771
-122.859
-129.356
-140.298
-89.3704
76.346
238.194
85.1234
-62.0444
-10.1425
91.169
122.764
77.9936
106.899
109.366
58.6854
10.9795
-55.7864
-92.5093
-50.9466
2.71432
-12.6854
-50.3746
-35.8682
-34.7821
-125.012
-182.104
-136.995
-86.7395
-31.3317
-22.9025
-25.4839
-41.3083
-52.9059
-29.1977
-23.6963
-9.685
25.9099
70.5535
145.13
188.353
164.235
138.049
172.259
239.757
104.292
-125.375
-181.323
-138.045
-77.0027
-14.8251
46.6526
40.4664
-9.17512
-43.0193
-73.7413
-62.3704
-16.7016
-4.01623
-14.0643
-2.58753
33.9394
29.8722
-5.30216
-82.5886
-79.5073
-14.2623
55.7739
77.6519
44.2659
16.6477
-9.61157
43.4504
101.479
10.5242
-81.8302
-85.4531
-60.9592
-29.4291
11.5618
61.88
109.801
93.3772
-4.0662
-90.6129
-106.67
-125.377
-116.702
-35.4595
11.8349
15.629
24.5176
17.4122
-42.3164
-24.258
28.4905
30.7567
45.6998
63.0123
21.6611
-43.1324
-43.8825
-66.7275
-69.4656
-7.26397
104.312
199.417
307.826
371.581
239.975
91.1552
26.3129
0.227488
-88.8419
-148.042
-174.858
-206.087
-197.864
-205.034
-244.995
-245.991
-169.095
-48.5037
-2.86004
33.6269
90.3575
127.197
-15.465
-91.0723
-9.27554
2.01756
-47.0207
-19.6995
106.28
180.967
205.842
204.326
168.28
151.77
107.162
-9.05757
-38.4452
-39.9153
-59.3326
-59.001
-63.1961
-82.011
-59.0307
-21.5183
2.19468
2.91294
-32.1874
-65.0081
-12.9231
13.346
-32.3648
-12.6424
17.7062
2.50769
-5.30994
-6.81755
54.8149
156.579
262.568
186.872
29.9078
-28.223
-74.1781
-104.016
-98.7169
-93.5368
-128.242
-179.091
-187.128
-141.756
-68.1411
-69.3917
-42.8681
3.57088
19.8311
-5.23906
-47.6589
-58.1614
-17.2711
95.8304
149.951
185.84
191.416
139.191
72.803
46.3335
48.5416
36.6131
40.1244
49.979
62.0471
81.4528
50.5481
-15.8697
-40.7149
-42.0176
-34.8864
-49.5423
-96.4183
-78.0003
-7.06767
-22.4926
-75.6477
-119.875
-112.839
-80.1904
-39.2063
-5.47265
10.0261
18.1514
-2.02205
-18.3969
0.903722
15.9371
16.5822
58.1996
84.9238
52.9124
38.1116
87.6237
60.1877
3.91664
-30.5722
-64.5335
-92.2621
-116.608
-145.128
-158.602
-126.214
-21.5599
107.977
221.67
181.433
143.594
92.3374
44.4369
43.0095
17.4996
-63.4707
-133.364
-107.168
-53.6748
-9.37545
68.5856
121.084
136.003
139.283
131.675
129.027
52.5633
-30.6746
-79.0504
-77.2606
-103.144
-147.749
-152.087
-139.707
-139.595
-117.141
-94.8836
-38.9663
104.05
161.484
73.0627
-2.10538
-15.4695
-18.4866
-12.5785
-27.8504
-29.8183
14.2706
20.9486
7.95891
2.33684
28.1833
16.0997
-25.3886
-17.406
-3.65749
-4.73005
13.1377
-6.44032
14.957
74.5307
72.0146
9.05096
-2.04611
-4.76852
-45.7091
-20.9238
109.119
143.463
111.539
97.7069
90.9224
21.3614
-69.7141
-82.5526
-91.8459
-104.99
-110.179
-121.167
-52.7484
6.71626
9.11828
-6.23501
-17.6306
-5.05191
29.3358
45.7012
11.1804
33.0502
167.513
300.862
177.552
-2.04925
-44.1035
-78.4734
-119.172
-133.946
-155.815
-231.332
-242.099
-201.297
-139.118
-7.23641
81.5422
117.781
139.811
125.663
62.2441
29.2945
-65.3963
-162.628
-87.3346
34.6066
142.388
183.267
151.256
105.915
37.443
50.6269
73.6255
79.7863
58.86
98.0607
165.562
47.625
-97.3297
-204.998
-230.725
-161.9
-79.8176
-72.6644
-40.993
2.10407
-2.92146
2.86054
26.9418
37.0417
69.574
56.4875
16.6471
17.6489
27.6207
-20.1962
-99.2694
-64.4324
34.7575
93.5091
21.2776
-97.0587
-151.302
-133.662
-99.0591
-32.3016
29.3083
64.0388
83.3084
65.3187
95.1286
205.625
234.695
120.845
37.0217
-66.1147
-121.429
-72.9074
-42.7886
-20.1069
7.63582
-6.45476
5.45511
53.3102
48.8305
-34.8602
-137.319
-155.85
-118.575
-73.2769
-19.1256
-50.367
-122.026
-94.0577
-9.46151
49.9344
56.0721
83.3417
140.495
110.173
77.4643
47.9695
11.5446
-10.919
41.0994
31.3699
1.29143
43.5893
57.5477
58.551
23.3474
-16.1056
-29.7922
-13.1231
3.89029
10.0814
-33.9897
-84.1093
-91.2519
-71.9142
-56.8196
-9.93463
14.4648
8.40746
-24.0848
37.4772
113.415
79.7548
21.0799
-30.376
-40.9568
-13.601
77.298
27.7623
-48.8033
-45.187
-4.46027
26.5208
-13.2628
-47.0101
-51.4282
-22.6036
16.8945
-24.8341
-94.1157
-132.462
-88.649
-52.396
-13.8358
30.7215
43.8283
106.872
86.7181
108.203
160.976
96.9329
27.709
-27.8302
-99.1583
-86.7818
-53.8618
-56.2134
-69.9436
-23.6037
67.4514
135.548
112.004
23.1391
9.61559
42.062
34.8889
-39.4
-102.033
-55.8915
-41.8439
-9.73795
12.8549
7.18604
19.727
19.7651
30.8808
43.4795
45.2397
39.21
20.5912
14.8582
105.895
136.166
65.5342
-76.837
-139.346
-176.533
-190.835
-160.623
-100.575
-52.9553
-33.1969
-14.0262
14.4589
52.3216
78.2874
81.9697
67.589
62.8397
43.9325
-12.1031
-99.794
-114.82
-96.6046
-57.2669
-30.9595
-33.2363
1.66456
3.10996
-0.359285
61.1913
112.172
173.457
252.801
188.622
74.6144
-5.70395
-80.6646
-88.8799
-27.0766
41.6132
34.9912
19.8324
16.7523
24.8393
16.5788
-21.9944
-29.4034
0.722025
-29.5519
-35.2762
-13.6243
-45.3986
-95.0417
-72.0289
-35.0907
-3.2647
27.9873
4.34718
-38.9446
-69.47
-110.235
-164.083
-165.454
-113.085
-29.4651
102.904
132.377
119.278
170.15
200.397
85.3073
-32.6332
-49.2929
-9.34369
16.0314
6.27389
-4.30273
-80.8361
-119.868
-68.4041
11.3293
73.8487
51.9088
42.521
32.0014
-33.4976
-5.47146
81.4805
45.6357
-63.5367
-30.4927
37.4442
35.048
45.2397
73.3494
66.032
32.47
27.189
30.8508
-17.3652
-81.6444
-80.278
-44.6112
-29.7699
-5.95316
5.93996
-26.9235
-75.1375
-99.7741
-112.063
-76.8521
-33.55
-19.8224
-14.0717
-25.9168
-10.752
38.0783
80.0349
77.591
42.838
24.48
26.285
42.106
52.123
40.9537
51.1702
57.4177
16.0589
-35.7866
-20.0987
3.76116
2.90817
-34.8124
-65.0576
-43.0064
23.4318
49.7503
55.4423
62.8747
50.8245
135.372
138.031
0.569666
-74.8865
-55.832
-51.6042
-114.467
-131.596
-95.042
-40.6912
-16.8103
-40.7083
-19.4772
10.2436
-16.6901
-54.9549
-70.8706
-98.7439
-90.1935
-43.0731
-70.5171
-66.5789
40.5566
119.932
136.041
141.69
174.2
169.042
134.544
26.9019
-65.7853
-25.5027
24.1666
47.2703
44.1952
17.6712
10.3606
18.4771
13.1405
2.11614
-22.8586
-44.1645
-27.2749
-30.9036
-97.6801
-171.419
-188.297
-114.908
-46.2213
28.5863
105.942
130.42
131.86
120.895
57.2619
2.8259
-26.6881
-18.8928
-16.9256
-85.8528
-135.782
-119.846
-70.6456
-16.4193
41.2569
88.402
105.352
146.828
123.261
-47.6488
-161.085
-156.808
-58.4445
-27.149
-42.1314
-3.2342
21.1272
29.381
41.8261
76.4839
97.1123
80.2577
44.5963
4.00804
-23.4811
6.97304
40.5111
-6.3785
-36.1185
75.7801
116.671
21.7397
-107.343
-162.932
-104.441
-28.3693
14.035
15.7543
6.50672
20.7128
6.23787
4.56087
21.2752
16.3622
-10.1188
-33.6951
-51.9238
-69.0527
-32.3181
20.3567
46.7877
69.2849
73.3591
49.6445
32.1773
4.16825
-12.8527
-28.7751
-48.4787
-61.7322
-11.4078
68.3657
160.482
262.543
150.24
-15.9621
-91.8749
-145.725
-145.503
-149.14
-165.457
-131.57
-136.27
-125.929
-42.952
54.3803
91.3054
85.2066
107.511
113.155
66.5644
-2.51816
-67.4199
-106.017
-27.3749
40.664
36.7808
21.8417
22.4885
32.602
62.0939
55.6824
59.6429
77.1235
52.873
-2.20265
0.68926
40.2398
49.0019
75.311
93.6646
18.8452
-63.1211
-115.054
-142.202
-118.335
-73.4168
-65.7559
-79.5927
-50.6889
6.13913
48.6163
59.7621
59.5184
59.4034
45.0107
-2.86256
-45.5361
-71.0994
-124.683
-107.58
-10.0459
25.7459
-45.5094
-50.7422
-43.6788
1.12298
172.912
271.08
194.392
46.175
-36.281
-24.6714
13.8148
12.0267
-10.1625
-16.8363
-30.7068
-54.8879
-32.6471
-52.5319
-84.1298
-68.6174
-11.5264
58.3441
85.3424
92
8.01521
-59.307
-19.4539
68.1032
71.0724
16.0375
-22.9765
-50.4303
-64.8898
-57.9168
-52.2025
-31.7792
-9.93814
-9.65064
-0.770704
-9.53482
-26.9134
-41.2944
-44.996
-61.2615
-60.5317
-54.3597
-49.971
0.978449
67.7535
102.221
142.604
158.088
99.3364
72.441
45.8006
-4.72454
-19.8581
-43.8586
-58.9052
0.294241
83.0721
50.6902
75.3515
138.076
150.599
8.20571
-92.4696
-170.847
-180.184
-142.537
-173.694
-188.525
-83.839
19.5524
61.7104
74.8092
78.7102
83.0657
85.2136
38.5797
-24.0133
-17.1856
-52.5604
-122.298
-136.774
-31.4823
56.7505
78.0037
70.0063
88.3149
101.136
95.6489
47.3334
-5.65769
-15.1852
-13.8999
-9.54452
8.00151
24.0908
47.6851
55.4952
28.0257
-4.46795
-23.7227
-40.2941
-77.5475
-137.142
-115.406
-76.6971
-101.091
-93.1954
-20.1211
74.9456
212.469
223.478
80.8336
-17.8859
-88.4035
-170.929
-238.49
-212.204
-73.3442
101.58
227.726
190.225
141.055
106.545
84.726
67.8769
57.1525
46.4429
-4.98957
-82.1085
-176.698
-168.734
-55.7944
4.43948
60.8262
86.9085
79.798
33.9776
-40.8185
-108.73
-158.779
-174.507
-103.667
8.27923
72.0931
74.9574
74.9821
71.0085
41.2964
28.7031
11.7951
12.6045
25.0728
6.7794
-3.9604
29.3852
48.0868
40.7274
17.714
-30.8126
-57.9918
-34.5586
-12.1389
-3.17462
-1.2899
-5.88401
27.1362
71.4151
82.1869
56.939
-1.91856
-90.998
-147.438
-121.964
-117.657
-117.704
-88.5257
-11.4267
77.5222
155.264
223.593
91.0804
-43.4408
-52.1153
37.8149
168.566
122.52
-19.0647
-64.355
-57.8386
-57.7425
-40.3786
-17.3014
-10.6094
-42.1754
-52.051
-60.3457
-104.917
-125.831
-141.558
-152.263
-4.79649
125.592
185.065
136.014
37.318
26.7313
75.3673
65.1537
-23.2372
-96.6281
-78.6251
13.7059
109.69
203.65
224.981
174.233
130.885
51.3391
-39.9595
-115.475
-121.334
-135.331
-168.567
-164.023
-180.726
-173.961
-106.42
-14.7067
87.6264
203.901
231.601
122.452
21.0695
-55.1363
-91.4706
-81.9819
-70.524
-73.4036
-76.0129
-89.7838
-97.7816
-53.0681
-6.38706
83.0677
168.823
126.395
63.287
25.909
15.2392
-8.04444
-4.67015
37.5438
45.5517
38.0864
25.3725
8.10426
3.47907
24.6173
40.0792
29.1463
33.6189
62.3277
36.114
-46.7196
-61.4577
4.64103
24.6534
-7.27498
-69.4547
-90.3296
-76.898
-58.9071
-76.1344
-85.7267
-53.8004
-24.296
-34.6775
-13.4053
25.4143
45.6672
33.2894
26.7691
34.2585
-5.87067
4.15071
24.9617
49.8948
105.027
79.6457
-7.36761
-39.2958
-27.3476
-27.5464
-43.7571
-43.11
-83.9154
-14.318
129.473
71.0211
17.3663
35.4488
42.7093
31.2993
12.7519
-43.8295
-57.3977
-51.6632
-71.392
-26.2573
34.1501
49.243
36.9085
34.5336
53.3121
48.5788
53.2933
-20.6104
-105.406
-51.7858
39.512
56.6756
-27.7489
-59.2626
-47.4374
-82.2416
-101.147
-63.3284
-5.85101
33.495
13.2508
1.96578
37.4487
106.506
144.576
98.8428
76.8475
17.4262
-47.952
-54.1802
-89.7026
-85.5482
-30.9487
-20.2652
-14.861
-27.8755
-34.1243
-42.4932
-72.5354
-91.5409
-101.069
-55.291
-11.5743
-36.8537
-19.3008
51.4917
87.1048
129.32
156.171
166.761
180.924
246.485
203.674
63.3761
-32.6264
-40.1578
-25.9435
-50.5825
-66.8764
-49.4934
-22.1815
-53.8098
-106.238
-95.9867
-88.9916
-69.3797
-30.7645
-74.8223
-130.585
-130.775
-138.49
-191.014
-144.954
-50.0908
13.3951
31.1732
75.6177
205.066
272.308
244.632
243.441
232.674
130.938
-9.09556
-72.9542
-71.9776
-66.7706
-39.2107
-56.3681
-97.8696
-118.848
-85.6131
-93.6212
-129.418
-64.4211
36.4806
47.8567
-31.504
-75.2262
-54.0906
16.095
129.289
143.143
125.686
99.7776
47.0436
20.9828
58.1423
78.9497
26.3625
-26.4617
-90.7613
-46.2685
50.0915
23.3381
-25.2928
-12.7568
9.43071
-35.4327
-55.0637
-85.7293
-157.918
-132.776
-53.0948
-2.00457
0.853865
-15.3748
-20.9546
-6.49543
39.402
64.0172
67.6511
85.2246
91.5846
78.7531
46.7708
-18.3979
-78.5871
-54.3394
34.798
46.1263
-50.9465
-91.2216
-43.8535
21.7287
45.3833
40.1183
24.6104
7.15512
13.9275
23.2141
13.7849
41.2973
57.7975
38.4227
26.1429
18.1797
24.6915
-8.11481
-136.946
-212.844
-173.559
-65.9615
2.61931
-6.30598
-46.4362
1.87418
45.8221
49.6523
67.9421
75.5436
45.6876
-24.6118
-32.21
-10.2646
19.5553
38.8168
22.6945
41.0673
125.845
294.919
316.702
132.514
-26.8679
-79.1378
-123.564
-129.223
-102.367
-118.734
-152.362
-147.797
-117.01
-55.1182
-44.52
-58.5226
-45.8163
-9.09389
17.0449
-2.20308
10.1378
50.1674
78.9194
112.514
58.239
-62.9354
-120.019
-186.019
-238.968
-208.199
-55.359
99.908
117.799
123.488
168.333
206.071
190.435
147.882
134.69
139.142
87.7288
-18.0813
-10.6542
50.3269
63.2696
70.3319
96.571
84.545
44.1649
-14.2668
-112.483
-176.74
-124.432
-83.756
-75.9455
-121.222
-135.411
-25.9204
14.579
-14.0852
-80.4634
-154.933
-148.855
-121.709
-90.0797
-49.9695
-8.5005
30.0108
64.2046
111.105
108.194
57.786
26.8237
-19.4633
-44.1175
-7.36912
-9.31548
-57.7968
-56.7351
-21.986
31.8697
49.4186
39.1696
86.1305
131.05
149.687
142.84
146.891
154.228
128.407
67.7833
28.5624
-1.07009
-22.0306
-59.7966
-119.332
-140.016
-166.135
-204.49
-193.128
-97.2042
50.6326
170.305
133.382
52.2043
-4.81263
0.25363
9.50887
-14.3012
-51.2492
-59.1719
-98.2357
-121.284
-98.4994
8.96435
113.032
129.116
168.669
146.502
63.7656
-12.3045
-100.417
-178.056
-167.355
-110.202
-34.5488
21.3027
1.67018
-8.05616
52.5013
74.1418
70.4778
61.96
46.2227
-51.9993
-144.573
-98.9389
-23.6066
54.8689
116.333
102.212
70.5733
64.6524
71.6173
50.9975
13.6347
-39.2514
-52.3923
-62.3793
-95.2872
-87.5538
-25.5697
42.7667
86.2361
120.328
123.784
94.0852
16.3314
8.27166
28.8561
-0.208122
-45.2516
-103.683
-150.379
-159.112
-101.621
-76.2885
-83.061
-13.6814
41.8834
79.6499
114.892
183.7
220
100.68
-1.48381
-65.6061
-127.807
-173.343
-161.177
-118.245
-80.1963
-76.4032
-44.2512
20.0197
20.0851
25.6381
82.6703
117.671
100.716
55.2452
-9.97025
-91.3942
-133.539
-72.1771
-14.3592
32.8995
89.6931
116.892
108.001
78.9444
62.1843
68.0273
49.5842
-25.15
-41.1234
-20.8062
4.51066
53.4508
58.973
29.7136
7.29146
-21.6555
-44.9759
-19.6523
24.1781
-2.80967
-72.9526
-91.8818
-71.6364
-50.5815
-47.9132
-29.5386
9.79428
51.5358
70.5867
62.0967
37.6713
-43.5523
-84.5579
-62.931
-12.7445
26.4301
-39.0879
-69.4513
-73.0605
-48.9733
-22.1396
-17.691
4.53309
21.0109
11.4203
-6.65842
7.72719
49.4706
59.228
36.9557
37.0367
43.6414
4.94551
3.04724
43.7604
21.0127
27.5008
59.3578
67.2299
62.9252
35.4873
-8.47876
-37.0704
-42.0272
-59.2738
-75.8726
-64.3114
-27.7024
1.46146
28.7195
33.9876
15.0249
30.7651
41.3897
19.7906
-7.44366
-30.1986
-36.1202
-9.83096
19.9364
19.7158
20.5281
4.58841
-11.0152
-18.8817
-16.9538
-6.93992
25.7489
4.25253
-25.9652
-47.7031
-64.5365
-48.7966
-76.4258
-128.041
-153.635
-35.6026
105.829
82.7207
38.4087
32.4568
27.8578
15.4173
29.5857
66.9974
91.7782
61.0195
59.2273
61.6417
22.0799
-48.0714
-69.3562
-27.6872
43.6431
160.786
279.961
137.428
-51.825
-73.3069
-123.526
-203.72
-214.146
-201.966
-159.186
-77.768
-14.9627
24.467
23.8388
8.86721
22.9971
45.8565
40.2834
38.0417
44.5612
27.741
-6.07266
15.6034
27.9788
45.5176
72.4593
89.5568
48.5344
14.2588
18.3139
25.3865
70.4442
100.509
36.0907
-50.1141
-69.2783
-53.6569
-57.2192
-70.5516
-96.4092
-156.777
-167.241
-54.1979
38.244
36.7561
56.7879
124.678
161.291
166.137
134.24
75.3926
2.31688
-45.6786
-64.8415
-33.1148
-24.9613
-55.0498
-63.5406
-36.3499
-26.9451
-56.7886
-106.393
-56.6369
-16.8486
-4.80326
-27.3892
-39.4647
-29.4738
18.6068
107.738
173.686
48.9001
-81.9427
-105.05
-68.774
-25.641
2.50028
23.0557
14.3427
12.8093
34.9247
26.3139
-56.1814
-68.64
-10.9538
40.2417
58.4
85.7063
93.0954
63.1872
-17.9134
-81.3025
-84.1405
-19.6417
-3.11066
-69.2083
-67.1047
-14.1199
44.3855
124.703
192.338
162.474
34.7599
-10.863
19.7622
29.5122
29.2066
20.1356
-21.5275
-73.3363
-96.4131
-24.8632
43.1599
31.3695
9.99087
43.6688
39.4543
8.05441
-12.0676
-62.7719
-122.223
-117.677
-83.893
-100.748
-128.24
-126.524
-140.211
-163.54
-115.882
-38.9329
19.9933
98.6278
163.874
174.371
179.323
202.715
231.289
196.771
94.5871
27.9034
-15.5143
-46.586
-84.528
-146.248
-176.461
-153.897
-107.819
-55.4129
41.6882
79.7471
15.97
-1.44394
0.960196
-6.37315
-26.1152
-27.2592
-27.0342
-36.1601
-15.3878
5.50902
20.4114
47.5324
84.9244
110.71
118.953
110.755
109.099
97.7992
26.7344
-54.7971
-64.5111
-73.6685
-99.442
-145.417
-142.077
-75.5953
-28.5634
26.5215
75.1888
93.1011
113.955
136.096
160.52
132.782
38.0306
-70.7135
-125.376
-144.78
-167.125
-208.399
-177.227
-77.0847
14.4222
31.5969
3.83088
-24.1945
-50.2152
-71.7891
-44.921
-14.5628
-15.1544
-6.42986
19.8212
87.3233
193.981
277.024
262.711
193.768
98.4469
52.571
28.7156
-30.1547
-122.594
-150.884
-129.634
-131.375
-115.53
-59.5264
-19.8305
-16.155
-15.2851
0.178698
-6.55033
-52.7734
-38.5776
-1.73872
-3.39457
9.6104
21.0387
25.796
61.6611
70.7109
100.018
143.434
100.888
43.6833
21.445
20.2596
-11.2826
-63.613
-65.7712
-91.9685
-98.4342
-78.3909
-84.6034
-72.0934
6.60311
65.6541
90.2838
84.8383
52.4835
30.7114
4.79124
3.72538
21.5779
31.0054
-3.70459
-64.0794
-117.726
-97.3275
-47.738
5.49377
57.7644
94.2026
71.3051
1.55743
-55.0621
-66.3288
-48.6338
2.29369
-41.314
-125.939
-146.507
-65.4494
51.9637
83.9607
98.2235
80.3921
76.8938
79.3549
49.9333
-11.4861
-90.2142
-155.112
-163.693
-100.874
-61.9365
-88.6429
-117.845
-41.7583
115.173
211.12
259.928
270.013
274.486
217.205
58.5056
70.9116
207.745
42.8675
-162.305
-136.487
-19.9017
69.4574
119.286
38.5741
99.5471
149.101
152.44
92.4542
-94.1266
-256.286
-310.779
-401.809
-542.94
-381.199
-215.945
-286.163
-326.419
-163.824
35.8533
151.01
78.1979
31.9597
33.0429
56.3485
26.455
101.582
196.974
167.591
153.425
177.374
149.163
133.725
153.113
91.4467
138.259
230.399
124.622
34.6056
74.512
90.5752
-7.63835
-65.8719
-92.022
-89.0634
-95.0795
-87.4336
-100.896
-103.258
-19.8593
70.5029
90.5126
77.8145
79.1734
24.3975
-25.6408
-67.8558
-80.7467
-47.647
-77.3005
-124.412
-61.8145
-26.878
-11.6342
18.1031
15.3881
-23.6579
-50.843
-30.5168
-68.5748
-105.796
-93.471
-83.1359
-95.116
-75.2661
-28.8278
46.8438
86.5829
202.332
321.587
220.94
166.934
69.9891
-5.33202
-60.9024
-125.686
-159.867
-161.372
-156.894
-131.882
-66.6422
-22.886
-10.4559
-6.24828
-0.0893898
47.2665
138.53
104.654
121.136
129.234
174.268
91.0346
-82.1573
-132.361
-98.1549
-51.5993
-14.0433
16.0905
47.4203
105.726
99.0402
69.8068
77.2643
76.803
25.3062
-54.978
-141.856
-105.964
-134.392
-240.394
-258.793
-169.751
-29.4954
26.3879
48.0154
71.5594
120.758
122.843
117.957
112.02
98.411
118.128
107.99
92.2994
92.5396
58.2844
-13.06
-38.714
-98.4445
-155.358
-146.19
-85.2404
-13.4915
10.3431
-6.71961
-13.2081
-11.3728
4.90956
-14.3683
-33.9812
-6.6227
38.0677
82.9606
28.1195
-64.6472
-99.6101
-106.136
-68.748
-16.901
107.626
139.657
23.7489
-12.1297
-30.7177
-44.5254
-42.4652
-49.9729
-42.4819
-48.6791
-34.4855
-5.5221
-0.138813
-25.2622
17.8315
78.3945
81.8522
53.1087
25.6744
-3.3177
-64
-106.988
-30.775
38.8358
57.9357
59.0759
39.7337
100.017
178.572
161.678
88.2523
38.0813
-11.0914
-59.0769
-95.6303
-120.848
-114.035
-93.6269
-41.8619
38.4682
37.7813
33.502
119.018
149.316
208.906
185.939
8.00655
-132.58
-152.254
-107.285
-84.4173
-103.403
-132.905
-69.49
47.3337
-35.0026
-119.62
-8.4902
115.813
40.937
-50.3665
-94.2099
-144.507
-159.548
-168.249
-119.907
12.8608
69.7192
32.3377
40.0346
65.9356
97.2877
144.539
143.828
104.572
133.646
162.089
101.279
-16.8314
-52.167
-51.0767
-46.7158
-26.29
15.9135
-5.3356
2.66361
33.5993
32.5862
1.82131
-11.0456
9.98016
20.1762
-3.92546
-36.4137
-57.6019
-21.4559
-8.14033
-46.8211
-61.8904
-28.0279
20.1182
67.1564
66.5993
-13.586
-42.1554
-60.43
-79.2575
-84.4116
-89.2257
-93.5233
-70.1957
3.43906
159.099
247.361
146.099
48.6877
-8.67314
-42.3348
-62.7722
-93.1048
-115.16
-115.49
-127.239
-98.1338
-60.592
-5.15587
41.091
57.0642
43.5608
92.0081
177.299
132.736
-29.0643
-153.877
-112.574
-25.8453
33.8434
93.7361
134.715
9.41686
52.3161
190.228
105.279
187.281
376.717
334.924
73.2072
-116.492
-181.594
-218.449
-264.847
-223.253
-94.1028
-46.5882
-92.2068
-107.435
-71.3565
-90.2235
-76.0366
12.9325
-44.1368
-131.524
-89.5315
-138.551
-237.058
-224.406
-66.7562
61.1724
165.521
261.586
203.344
106.922
34.8054
47.9934
154.605
197.329
128.093
93.0077
64.9883
60.8091
37.0706
24.2099
77.7678
58.6661
-8.35428
0.362609
13.7306
-17.626
-63.923
-174.157
-169.483
-80.8897
162.091
344.036
161.415
15.9966
-27.5554
-96.3377
-150.379
-140.659
-141.408
-230.656
-256.413
-201.955
-161.904
-122.649
-72.8428
-43.4617
-19.7382
-3.05528
29.6688
64.7832
-52.4731
-84.0023
135.788
195.923
209.363
272.815
267.305
263.948
168.65
-39.6552
-60.9987
-75.3838
-135.205
-126.671
-60.7846
-4.48658
37.8103
142.841
225.41
505.199
498.981
21.3135
-291.367
-386.38
-363.937
-339.8
-326.659
-294.628
-211.199
-49.5425
47.7955
102.655
115.482
76.0377
65.1453
76.0978
45.8011
66.4563
107.877
-118.536
-289.913
-185.957
-17.6551
144.21
232.002
195.614
92.1728
55.2985
94.0718
127.763
78.1307
23.5627
23.4856
74.7992
68.087
-11.1276
-46.4951
-90.342
-157.802
-236.426
-214.462
-59.8643
20.4216
15.1194
5.43335
-3.17687
5.98454
10.1942
15.0048
84.4075
129.011
99.4329
61.5241
72.9576
48.9053
43.8247
59.3105
68.0212
-33.6012
-100.235
-52.2964
19.2853
-63.9596
-86.3744
-72.8619
-4.0044
104.58
13.8592
-44.1321
-108.274
-202.667
-183.904
-103.275
-70.4
14.2934
83.3986
75.3211
-33.7587
-45.1393
-33.3548
-103.403
-116.993
29.2129
227.049
301.63
456.105
322.234
86.1194
-8.28265
-49.1956
-65.7828
-91.9045
-157.401
-209.675
-264.6
-255.283
-94.6881
33.3965
260.606
329.344
89.7261
-48.6576
9.35411
-49.7547
-172.17
-265.565
-154.384
9.06091
42.0799
75.0443
94.0887
84.14
78.651
90.6262
180.49
279.059
187.012
-12.4425
-174.742
-218.521
-63.2428
24.0612
-15.6986
-64.9537
-42.7838
-172.527
-215.107
-73.5695
-33.1216
-14.7495
16.659
58.1055
147.394
208.761
225.574
129.762
-17.4289
-45.1505
-118.737
-175.788
-106.729
-63.3355
-12.3162
44.77
88.8905
45.7932
-54.653
-99.1562
-135.385
-165.036
-106.087
88.3952
250.162
257.269
23.4946
-138.928
-100.399
-30.8206
8.05804
36.3406
30.312
31.0672
-0.580553
-68.8192
-128.648
-68.5034
83.988
171.134
195.769
219.742
245.582
182.29
128.718
150.369
151.141
-43.5114
-221.682
-248.376
-282.087
-250.392
-111.797
-172.048
-251.002
-196.583
-88.4971
23.345
-12.0688
-64.4727
-59.4709
-3.39682
2.85103
-68.8485
-154.111
-192.103
-7.01028
293.701
299.804
250.385
282.263
356.897
368.397
324.207
176.657
76.2194
-2.43103
-72.8699
-85.3438
-108.208
-98.7787
-159.645
-139.48
-69.2618
-147.92
-262.711
-318.904
-264.684
-89.1608
-11.9632
15.6749
-27.1356
-76.8283
-20.029
73.6465
133.529
154.168
143.975
103.166
74.0764
112.06
275.431
333.283
80.846
-72.7095
-110.554
-135.386
-147.59
-90.9397
-53.5349
-32.6854
-75.4606
-154.909
-157.833
-143.357
-205.804
-234.355
-90.109
263.275
505.75
487.867
216.305
-66.8685
-82.4821
-5.88527
82.9578
58.2943
-81.147
-106.661
-35.3661
-67.3142
-163.997
-174.862
-124.896
-91.2142
-39.4577
15.82
-0.99877
-85.7456
-126.97
-118.109
-64.4902
-31.6173
103.632
126.761
-25.502
-4.30532
80.1208
107.245
102.201
128.624
252.692
370.77
329.861
76.6937
-143.586
-208.881
-232.362
-195.43
-72.5918
161.414
572.298
549.277
414.879
126.491
-60.6124
-201.781
-315.19
-319.01
-354.827
-400.96
-416.415
-405.661
-258.119
-40.4153
103.957
189.035
262.253
79.4436
-198.261
-358.962
-495.994
-355.829
-263.856
-111.842
68.6422
179.108
296.223
395.285
458.372
404.917
279.452
176.581
190.351
316.141
366.301
264.15
112.545
78.0196
5.51812
-149.744
-259.271
-300.64
-323.146
-171.158
56.6081
220.875
276.403
40.2805
-151.55
-179.501
-169.904
-176.588
-210.53
-177.365
-146.793
-138.261
-93.1155
86.2616
157.866
127.544
18.9007
-132.645
-173.04
-118.97
-228.583
-333.462
-239.151
-53.0075
130.757
416.973
514.762
398.886
281.396
267.575
428.169
459.015
131.893
-199.303
-377.634
-406.296
-324.227
-60.4207
-85.4465
-205.183
-244.144
-250.924
-322.519
-177.542
115.015
354.694
325.299
317.011
347.727
182.462
-71.0718
-139.346
-155.794
-196.001
-129.65
-102.405
-155.035
-144.26
4.95468
78.0184
115.819
132.774
164.07
195.972
23.9244
-264.228
-312.175
-258.075
-177.8
-21.2228
64.3686
-15.2418
66.9786
294.189
479.99
365.742
203.733
222.368
299.974
374.637
378.359
243.976
-31.7519
-222.817
-124.649
-78.7638
-223.851
-419.349
-509.596
-518.229
-505.774
-348.006
-134.86
-209.509
-241.195
-109.956
-2.61
-72.1688
-71.6237
-42.4568
25.7147
142.519
234.421
211.614
19.2532
-115.547
146.805
382.415
293.241
262.618
210.004
138.128
146.785
236.726
298.787
395.181
404.184
175.727
-73.8917
-234.092
-365.32
-414.603
-279.478
-127.123
-62.8937
-64.4802
34.8792
167.613
218.553
112.428
157.448
59.143
-171.219
-329.806
-480.693
-486.045
-316.057
-153.281
-151.757
-173.56
-98.16
19.8919
53.3595
47.501
52.1292
32.7934
126.529
108.158
31.6591
42.5191
73.6457
222.41
329.445
251.937
215.432
228.9
106.399
84.529
151.298
96.6246
35.1462
-5.72715
-31.6062
-91.0388
-117.427
-81.3369
-159.952
-157.249
-67.789
-101.381
-266.324
-239.3
-95.5895
71.9366
150.449
81.2307
58.6544
92.6073
88.6551
132.367
153.22
6.7352
-165.461
-91.4074
91.0207
102.15
-27.0139
-171.228
-121.729
-38.5792
26.0122
53.4512
73.4549
-1.62382
-83.1503
-151.815
-205.552
-234.402
-191.326
-33.4758
91.085
192.594
178.076
15.8879
-133.831
-99.5524
-75.1748
-21.1969
3.17514
-13.6531
-9.71531
-42.9999
-10.7298
163.341
264.921
261.089
156.913
93.4172
117.446
69.9455
1.67135
30.6612
168.657
278.255
152.071
-57.912
-105.643
-98.3337
-52.9469
205.74
438.367
215.883
-141.549
-384.871
-501.929
-471.06
-406.337
-156.022
143.655
162.27
24.7019
-102.287
-126.878
-171.237
-75.0871
-14.7058
-45.2281
-48.7891
-92.982
-195.309
-256.7
-132.369
51.6892
296.915
421.237
302.592
104.407
-86.5203
-257.814
-255.738
-41.0528
237.26
563.402
442.786
199.463
283.094
382.251
291.67
116.555
-83.5462
-244.606
-275.335
-272.189
-373.204
-395.003
-178.542
125.414
213.468
174.799
152.906
-8.16765
-146.74
-314.541
-311.736
-244.435
-217.935
-204.322
-170.28
-88.5408
-11.4495
91.1465
251.544
420.075
401.671
314.895
207.603
203.41
77.6768
-126.073
-231.901
-248.714
-197.617
-162.535
-75.2837
139.019
114.863
-22.4692
78.1735
100.134
109.089
249.795
195.288
6.62911
-27.2926
-130.889
-281.779
-348.919
-287.196
-83.2474
61.3316
106.342
46.4578
-12.7505
2.69261
43.3312
123.251
218.435
173.969
123.493
-42.4161
-223.926
-151.32
-88.429
-125.025
-53.8894
148.649
130.123
-6.03744
-124.486
-165.433
-65.0247
7.97242
65.5931
115.524
36.4508
-9.40226
80.9409
134.065
51.089
1.47863
-41.5826
-118.028
-143.941
-54.9612
72.8153
63.6494
52.4503
85.1496
128.839
134.375
67.2623
20.6035
-33.517
-72.7901
-92.7546
-24.5593
48.2873
30.1297
-111.498
-256.171
-292.045
-174.789
15.8336
154.469
314.828
425.65
474.958
317.667
41.8903
-148.62
-230.612
-217.596
-206.187
-72.0983
-84.9155
-127.393
-146.107
-203.86
-130.516
20.8747
142.747
110.489
-72.1464
-196.599
-283.28
-331.807
-310.288
-148.051
-1.52752
94.3893
162.975
221.671
251.138
226.126
225.563
164.864
126.555
164.367
263.121
324.662
186.595
36.7769
29.0608
-8.3365
-144.356
-97.6444
54.1949
35.3493
-61.638
-64.1572
-73.7826
-106.985
-93.7723
-89.288
-13.0015
-40.0326
-267.084
-332.628
-173.642
225.785
585.142
416
30.8873
-139.806
-204.48
-270.795
-367.194
-311.446
-148.004
-32.7994
6.82167
63.2358
113.177
16.2919
-128.788
-148.481
-52.4502
22.4166
27.3749
-47.6554
-163.669
-95.239
75.2011
157.641
195.289
186.721
159.191
181.942
198.036
164.849
191.105
181.06
114.856
68.9493
42.6544
5.05307
-49.5739
-91.6891
-136.324
-217.378
-98.9617
226.108
346.141
38.9507
-127.618
-125.018
14.2255
301.06
262.589
-38.6037
-204.797
-281.125
-287.912
-153.147
-59.1719
-204.611
-232.76
-113.984
-46.8163
-79.8413
-258.274
-434.923
-406.615
-100.861
141.842
117.294
-42.7725
-122.41
127.079
386.479
464.08
378.402
275.819
227.737
179.725
211.659
120.738
30.0776
-10.3495
-46.049
-75.503
-32.5662
13.3342
15.4092
-15.5747
-38.2879
-52.4824
-99.1987
-104.544
-101.009
-130.338
-109.403
-48.991
-70.2006
-134.82
-81.0607
21.1647
39.8337
52.9514
106.138
119.848
76.0969
1.13817
-59.6854
-59.4424
82.2853
204.061
188.814
64.4235
0.923089
-127.685
-165.884
-147.686
-132.013
-37.2135
53.9456
9.97661
-91.0476
-135.555
-192.252
-218.218
-164.455
59.0978
255.033
376.869
380.061
287.94
70.4228
-105.826
-157.161
27.4543
68.1121
-132.419
-156.792
-30.2189
1.26811
-16.3284
-15.6614
-33.8337
-34.6196
-49.6491
-68.7307
-136.026
-140.171
-121.888
-125.268
-72.9121
110.543
192.094
168.425
119.997
90.0161
106.251
13.5273
-66.7633
-27.0105
43.0892
82.9477
101.114
73.4448
44.0669
54.0791
22.9596
-38.8598
-34.6789
-39.7887
-126.502
-164.032
-125.982
-27.5555
-31.1446
80.712
215.224
69.7505
-118.052
-119.654
34.7759
210.36
239.392
47.7401
12.7853
83.1059
103.739
233.087
146.669
-143.438
-367.473
-459.06
-388.79
-278.242
-157.744
-147.672
-194.623
-100.617
39.4812
102.195
112.532
142.562
210.145
294.757
220.896
67.4848
5.88303
-4.51651
-51.8485
-12.5285
78.9283
141.607
103.314
49.9316
16.3103
-21.0535
-0.575111
75.7237
74.1907
28.2582
-22.7894
-110.815
-124.196
9.23961
-24.5256
-186.986
-245.476
-239.591
-60.1611
52.8241
3.31095
30.1968
178.09
343.694
405.015
215.762
90.7409
69.0639
-14.1006
-95.0277
-155.241
-238.685
-274.431
-290.466
-223.144
-83.1097
54.8738
174.328
97.1694
-43.8331
9.71724
11.5158
-71.0175
-151.512
-224.896
-190.425
-139.792
-81.5004
39.1101
178.446
203.125
246.752
336.192
387.592
374.643
339.262
274.105
316.005
83.6055
-166.578
-219.835
-307.515
-383.126
-407.513
-374.568
-238.214
-118.058
-20.1184
17.1874
-89.3334
-122.274
-92.1874
-103.283
-36.1079
55.2885
85.3343
111.666
72.2754
76.3946
152.288
152.786
142.915
230.251
199.529
127.214
123.628
57.8781
-51.5741
-108.003
-46.6405
-3.67451
-64.8563
-129.997
-163.386
-117.619
-24.3977
18.006
-126.358
-96.7412
72.2112
192.175
140.663
-36.7652
-55.5799
133.968
209.105
164.684
125.063
44.8402
-1.05066
-88.5863
-190.715
-285.956
-325.259
-229.252
-119.947
7.93476
97.7953
42.6445
51.7901
184.49
232.109
56.5879
-43.9268
-91.959
-157.626
-158.583
-148.457
-119.57
-102.411
-25.2039
99.9492
155.658
106.027
4.37124
-29.7426
-74.1164
-63.6246
41.5586
79.9436
-29.2078
-34.8211
186.183
311.905
135.402
33.899
66.838
88.6847
210.265
339.615
330.547
186.598
71.4469
0.0267169
-77.0973
-152.688
-246.66
-386.55
-393.074
-333.775
-294.778
-292.256
-221.88
-182.911
-114.757
0.222595
111.17
238.235
249.082
256.98
274.475
180.092
12.501
-75.0197
25.7987
113.951
-26.7314
-136.085
-68.9064
-29.0943
-58.7297
-13.8731
-2.87151
-6.84083
12.258
15.2986
-32.5619
-123.949
-133.709
-128.786
-75.4842
115.352
265.933
272.184
148.862
30.7735
35.147
21.6551
-19.4846
-11.1061
-36.4199
-13.0174
33.9793
30.4672
81.2758
190.258
187.21
99.6669
-50.5043
-184.004
-276.513
-296.43
-202.526
-79.6498
-54.7553
-70.8267
-33.2732
36.4174
78.0913
62.0969
40.9974
-8.49046
-98.025
-170.035
-174.39
-125.115
11.2541
119.027
209.407
277.076
308.632
389.202
302.202
39.4392
-95.1579
-147.843
-170.451
-165.68
-80.7144
-29.7279
-22.4881
9.85501
33.7587
54.142
0.873083
-112.147
-173.815
-175.674
-172.885
-230.11
-215.438
-167.987
-40.2507
104.395
172.551
207.465
230.674
221.046
124.119
87.7469
116.159
89.4377
48.9045
28.9346
8.80302
-61.8479
-141.754
-189.091
-205.345
-123.874
-26.22
51.1462
136.821
230.605
311.382
318.581
191.003
26.2665
-52.3592
-143.091
-219.189
-251.641
-181.902
-57.9041
-13.0419
98.6635
223.955
160.573
31.0528
-90.0779
-230.254
-328.59
-325.028
-254.431
-209.923
-198.998
-128.979
-63.1303
18.2631
134.873
192.146
164.641
159.263
183.714
150.364
86.3272
68.3589
251.598
317.771
180.863
109.985
79.8314
-15.3533
-137.467
-210.266
-209.922
-133.27
44.9673
221.934
242.852
146.475
108.682
35.7904
-123.636
-172.646
-192.293
-240.588
-282.812
-259.015
-185.731
-134.675
-88.8317
-11.5357
70.8979
113.842
115.005
101.563
24.8719
-84.8953
-31.6515
109.363
149.947
125.831
109.094
91.8266
45.2154
-18.3443
-78.4066
-74.5591
-14.7002
67.4064
130.046
165.694
195.144
257.558
172.264
-37.2507
-184.244
-244.23
-228.684
-157.388
-72.8172
19.7625
52.7708
40.2021
39.2188
1.44486
-48.0219
-65.2062
-65.1437
-87.4572
-144.626
-169.576
-161.012
-174.003
-90.2225
35.8882
104.838
102.405
23.6398
-32.9971
-34.7112
-47.9719
-36.1818
6.23907
46.4668
185.66
294.369
294.672
267.881
228.272
167.551
92.5032
7.43762
-76.1546
-97.817
-56.9371
-32.4555
14.4994
52.4961
13.5125
-38.1137
-130.95
-163.918
-112.358
-69.1993
-72.4064
-100.988
-127.643
-93.2376
-58.7779
-62.657
-33.2695
-2.77952
-14.1093
17.901
39.2277
-3.54273
-51.7882
-43.6871
35.4522
63.7876
73.3398
115.061
58.8793
-42.1571
-88.6783
-111.41
-98.6142
-48.8469
8.40729
46.0739
82.1465
161.828
189.325
126.706
64.1994
76.9931
82.0891
55.6329
72.8487
149.014
66.2853
-88.5311
-153.079
-172.936
-168.79
-61.2353
215.587
208.595
-46.8054
-134.705
-189.567
-214.34
-151.381
-76.8172
12.887
71.9091
54.0647
2.96919
-62.0597
-130.798
-73.1895
36.3226
127.687
138.32
91.9151
0.0274872
-148.873
-149.51
-27.9648
-28.1503
-14.1919
65.018
88.5663
95.1333
143.261
195.373
181.611
195.905
112.726
-39.4597
-72.9258
-95.1613
-133.336
-93.186
-53.4687
-39.9419
-84.4854
-90.8116
-6.94416
54.9837
102.793
85.036
-11.959
-88.6765
-126.83
-162.011
-157.345
-145.417
-61.0707
47.3557
49.009
41.4177
115.428
288.951
390.612
253.563
39.8549
-78.191
-115.829
-110.823
-84.4804
-96.5635
-92.876
-56.2694
-29.8961
-116.262
-171.695
-127.269
-71.0039
28.7489
137.277
203.061
140.854
-51.0278
-176.248
-130.106
-23.7998
68.0839
109.111
106.439
80.6244
33.9265
34.7938
33.5349
-1.99003
48.801
79.1161
20.5108
-23.6897
-66.8552
-64.5421
-27.5746
-9.69858
-1.55315
-29.8028
-10.1014
60.7237
96.8946
52.9614
-26.5705
-119.776
-123.902
-97.6791
-12.1119
65.2536
52.6155
88.975
136.117
71.9984
-4.92851
-61.9772
-105.913
-129.428
-136.85
-138.463
-138.93
-122.559
-120.811
-49.9989
123.542
258.415
208.72
165.125
143.441
37.8366
-69.9444
-113.855
-84.5868
137.521
326.73
271.981
146.361
19.8936
-57.3448
-74.1148
-69.868
-19.1785
9.92924
-31.5971
-156.076
-244.607
-216.226
-180.405
-205.761
-199.926
-105.757
-44.0706
-29.2019
-113.479
-169.644
-65.2493
64.7602
111.572
113.707
122.43
147.661
146.537
164.748
192.892
235.158
226.867
189.289
134.534
103.904
108.01
81.4127
12.8297
-67.8025
-137.504
-154.137
-74.8729
-79.4273
-78.0459
-48.0496
-49.8097
-78.2112
-177.654
-238.473
-178.89
-135.245
-83.3029
-10.2487
60.3605
121.394
164.09
246.991
265.365
123.104
-17.9233
-125.63
-180.674
-165.65
-79.1582
-52.7259
-82.9479
-34.7429
35.3141
31.3104
-0.613235
-24.4425
-13.2458
27.3876
51.5542
15.661
-26.8814
-44.6337
-35.2058
3.66498
10.9342
39.3026
38.23
24.8931
37.7094
76.8052
106.786
140.267
176.909
166.924
116.82
42.7611
-35.8972
-64.5597
-83.2471
-32.5654
29.2021
-1.60271
-43.441
-41.8039
-19.4693
-53.4659
-121.837
-154.136
-150.292
-106.782
-76.275
-71.1591
-69.4927
-41.724
17.7372
105.23
144.805
107.327
1.38866
-105.8
-190.534
-198.505
-122.728
24.1874
147.389
185.834
144.672
128.915
122.859
163.536
330.939
286.87
76.8298
-25.0294
-103.394
-151.833
-164.248
-168.873
-135.096
-92.4921
-43.6414
-37.5212
-62.4258
-53.6858
-74.8608
-82.0996
-28.2193
14.359
22.2878
-25.9942
-98.4281
-93.1687
-64.8284
1.63339
84.7346
117.021
109.542
132.56
191.479
252.757
297.347
215.178
51.6905
-66.7091
-95.3272
-120.01
-136.707
-157.713
-141.728
-139.535
-187.255
-153.501
-33.676
6.52339
34.5279
27.2323
-11.3135
-3.49166
14.5076
2.30081
-41.3068
-2.14169
93.9508
135.584
84.309
54.6045
56.2292
52.8387
47.4734
37.3955
-9.05488
-46.6309
-58.5132
-60.3078
-67.8908
-66.8829
-33.5385
-48.9917
-76.686
-43.0991
32.9363
56.4272
88.8385
85.3571
93.475
103.964
91.6128
48.4708
4.95905
-23.2131
-42.6552
-72.0199
-32.258
89.4661
115.146
7.18613
-56.7253
-49.5166
4.73873
-36.6153
-120.142
-139.138
-176.57
-191.439
-130.722
-36.9349
-15.4306
30.481
62.8882
54.6855
23.9098
69.9101
173.574
129.119
45.8745
75.5911
69.487
13.211
-40.4197
-24.1527
0.225755
22.6948
22.6413
9.79015
-1.13644
-21.5912
-17.6261
-13.9116
-8.11198
-2.92785
-7.50211
-18.286
-73.2212
-123.291
-116.123
-50.6654
13.295
34.7365
50.8839
36.9307
42.0113
23.3117
7.01436
39.0766
49.6441
22.8448
61.6492
130.537
148.655
78.2258
54.4392
10.253
-50.8267
-96.3334
-109.318
-43.6925
-13.7955
-43.9244
-63.7646
-82.4525
-96.97
-35.2316
5.91286
-26.4112
-56.381
-65.2175
-84.0754
-78.9967
-56.6215
-3.01927
31.5747
30.9692
24.1559
37.4042
68.8552
50.5587
141.277
321.46
225.654
75.8782
11.4244
-18.6359
-62.3974
-56.8038
-14.445
-28.781
-86.4934
-166.477
-173.393
-128.224
-80.3483
-44.3581
-15.5886
33.7941
75.7293
82.6667
-16.2686
-97.5413
-24.6737
42.9427
44.6795
14.5051
21.3543
30.3683
59.7285
137.924
104.691
28.7111
56.9058
153.713
142.547
58.7682
38.8447
32.5969
-51.3483
-154.78
-219.676
-227.178
-124.945
-82.4805
-94.0451
-59.2105
-8.13667
7.49033
10.8842
-7.04083
36.4784
82.9339
69.1201
20.5114
-16.4212
-3.84053
-13.6332
-37.4718
-42.5945
-24.6298
6.31949
13.0888
5.87562
38.1069
91.161
118.209
156.351
154.929
83.4645
-4.83291
-27.9117
-30.5766
-58.6068
-70.4443
-20.5605
48.5001
107.432
37.2952
-57.7421
-62.7376
-40.6475
-107.872
-172.433
-127.786
-68.5137
-45.0532
-32.5514
57.1453
137.549
141.175
96.4101
35.3131
-14.3844
-72.8982
-116.72
-145.403
-176.426
-148.298
-66.3962
75.5566
180.488
153.391
115.788
85.8262
63.0435
67.2101
55.0272
-18.3622
-79.6122
-90.7501
-58.9192
-8.14179
23.5945
77.2225
137.33
112.724
59.9926
57.3081
19.6901
-60.4254
-136.57
-125.17
-54.511
-25.2267
-74.1452
-97.9848
-46.4742
-10.4398
14.0115
75.7022
136.511
146.893
104.644
15.9899
-90.8919
-151.133
-186.779
-157.377
-77.7981
-2.5008
53.1685
149.947
269.315
225.878
105.05
26.6026
-29.7511
-81.7362
-160.559
-192.371
-181.226
-158.633
-137.395
-86.035
1.90373
86.9174
191.954
280.304
198.82
52.6977
-33.8541
-110.978
-195.662
-173.925
-25.6859
125.129
158.703
159.851
156.797
82.0297
40.9345
3.8979
-54.4838
-95.4287
-101.201
-104.555
-91.462
-92.8375
-78.4989
-48.9962
-38.4921
-23.695
-7.4174
68.6335
44.6388
-32.3878
-52.8956
-31.396
15.5545
127.974
187.038
201.319
197.084
141.494
71.7778
29.607
-49.3005
-136.224
-92.474
-52.1938
-23.1593
31.5573
3.08582
-64.571
-68.8948
-95.7282
-147.478
-154.31
-107.527
-111.114
-106.957
-87.0065
-59.2367
6.28119
29.4722
44.397
25.1722
25.4278
76.354
88.9842
85.5316
107.081
105.726
74.6444
81.553
84.1482
79.7602
54.7975
53.078
45.1489
-16.7315
-45.3791
-31.1364
39.3824
66.4818
52.3856
16.7666
-41.9686
-50.3177
-39.1689
-58.9533
-86.421
-93.9192
-84.5948
-51.0296
-32.4872
-20.82
-26.5607
-59.6266
-66.6493
-55.27
-21.189
8.20687
-17.8781
-38.9349
-55.6001
-73.2963
-37.4427
44.6579
130.269
163.048
163.168
139.504
86.5252
37.8563
-1.17435
-39.5703
-96.0975
-113.872
-67.0785
42.345
151.119
107.697
32.4789
16.3594
28.0724
42.4673
27.7972
-23.7077
-72.8518
-83.4791
-73.8232
-62.2419
-53.7888
-50.8458
-52.19
-41.187
1.36666
25.5365
9.65798
-59.6488
-125.293
-58.3397
45.9566
60.5943
20.8219
0.379652
23.6276
6.71578
-15.364
-1.66805
5.7756
0.544785
10.2213
44.7948
101.689
142.992
174.228
122.664
25.4342
-18.1124
-1.21664
-40.8581
-152.232
-169.397
-114.935
-52.8508
-0.581913
28.0354
38.927
62.3505
38.2852
29.5051
11.6009
-9.74965
-3.45142
-2.01659
0.135026
65.3965
90.3909
31.4558
-57.1795
-121.295
-147.811
-129.297
-73.5276
9.93166
100.055
78.8521
45.5152
18.9419
-22.7878
-15.4471
24.2483
33.8311
29.0215
35.0892
10.164
-51.0657
-59.5631
-39.2706
-39.9121
-0.210254
52.475
73.3661
57.3165
9.86973
-44.9691
-44.6019
-54.4679
-47.1963
5.73799
34.3293
18.5764
6.03187
0.501188
7.37883
10.6424
18.5903
-15.8415
-1.06629
77.39
89.8184
52.6478
34.0769
18.8777
19.6452
-17.4698
-35.8552
-28.2302
-41.2208
-61.1843
-71.0592
-25.7423
-2.6833
-11.4041
-30.034
-34.2414
-72.3302
-122.546
-132.441
-97.2415
-8.68569
51.4284
130.323
240.41
236.827
168.149
69.6543
-26.0258
-97.4035
-115.606
-87.4337
-50.7236
15.0419
162.752
295.477
150.969
-28.5026
-42.9432
-57.6176
-116.295
-152.587
-142.12
-158.941
-197.337
-192.953
-156.979
-81.9142
20.3554
112.459
148.992
143.695
102.627
29.9185
-38.1057
-90.8688
-20.6548
84.9341
122.843
128.767
93.2902
68.4835
68.8936
42.9855
3.17391
-28.0337
-75.925
-60.3936
-23.6229
-5.11415
61.2347
81.1923
59.2287
66.3878
-1.30753
-110.688
-112.083
-80.7348
-51.8821
-10.6707
21.4941
-10.1215
-30.7534
-33.5782
-24.9346
-6.55995
12.2877
14.6545
9.0438
-13.8383
-41.7544
-81.4915
-75.2553
-63.3761
-58.4196
11.6535
59.558
33.9091
50.6017
54.2024
104.861
199.994
119.595
11.244
-25.0184
-41.1201
-34.4183
13.3068
23.8821
-13.3032
-53.8372
-76.569
-87.9099
-138.397
-176.287
-141.412
0.650485
99.2578
145.819
208.461
189.74
55.2907
6.02201
13.9721
-7.64867
-23.9971
-15.3407
-48.5256
-70.4527
-42.2002
-29.3677
-19.2432
-3.25945
20.5259
47.8135
41.0053
-30.0707
-93.5291
-116.947
-125.089
-119.763
-41.796
52.4335
131.755
165.878
164.074
111.868
63.5481
20.2535
-22.1504
-50.6299
-57.1457
-27.872
12.8949
16.0982
-35.5086
-59.7421
-18.0996
13.4449
-17.7433
-58.4129
-74.6033
-19.7993
49.6199
29.3483
-16.0965
-31.1889
-19.9231
37.7658
139.562
164.371
84.3217
-23.7731
-54.7375
-63.9521
-83.8478
-85.3569
-44.5255
-2.24643
1.5989
-6.53391
-13.9133
-55.2856
-122.695
-140.856
-140.06
-83.6556
-22.1469
17.4114
71.95
100.999
116.492
151.528
145.755
130.905
129.527
96.1379
53.2793
-32.0986
-102.727
-115.915
-89.9752
-56.8707
3.04932
82.7343
139.653
162.72
166.819
193.917
101.246
-47.8326
-89.6937
-112.799
-182.701
-226.81
-205.307
-139.967
-38.7062
43.6414
53.9772
20.9897
6.76244
18.0852
-47.4967
-93.6389
-83.9445
-103.008
-111.258
-140.005
-123.607
-35.9607
40.4805
90.0997
151.917
188.556
173.077
149.632
95.1761
45.6652
11.2067
-13.5921
-57.2122
-80.7402
7.584
126.395
85.5854
30.9353
18.346
-8.94886
-0.286367
6.34267
27.3259
41.4644
65.9407
72.128
22.4488
-43.8115
-81.7753
-71.1907
-59.6435
-72.4031
-71.5687
-52.3224
-67.414
-117.788
-97.7353
-67.1126
-46.2312
-8.95547
44.4717
56.1241
29.1464
27.0366
12.9748
-8.93918
-1.84158
14.4828
57.963
72.3427
44.7162
37.893
59.7514
39.2526
-9.31516
-44.8958
-15.3888
31.1921
-8.75493
-126.565
-182.409
-78.4391
26.5911
51.3952
61.793
79.5551
81.8026
96.6518
69.2235
29.4878
110.243
204.664
125.664
-3.9265
-63.0333
-93.3644
-97.3068
-100.893
-109.151
-124.187
-125.56
-104.525
-78.8107
24.1887
46.3544
-19.6042
-16.556
-5.8534
-24.818
-13.0119
-19.5406
-37.5058
10.3841
57.6011
60.319
49.2578
72.7287
107.431
102.531
100.931
77.8908
29.0406
-5.73286
-69.0396
-90.6169
-55.5016
-39.1773
-44.2935
-67.1011
-74.383
-74.2821
-80.797
8.24341
109.653
122.35
103.645
42.3656
3.59286
67.0433
98.4139
43.4849
-31.667
-68.9269
-61.8811
-53.1611
-28.864
-18.4331
-25.9705
-21.168
-19.7445
-62.9499
-104.037
-126.315
-113.084
-49.8017
12.4577
88.2273
191.389
238.767
178.021
97.4194
61.6243
22.1281
-34.0716
-30.8926
-0.62822
-23.8587
-85.3551
-114.084
-119.219
-65.0153
63.2625
61.6043
-18.0461
-57.1824
-72.1677
-66.2931
-97.7433
-155.236
-158.876
-101.197
-12.5126
62.3226
100.247
143.391
118.697
72.5411
64.4098
80.9194
94.278
69.7033
10.2661
38.1749
51.1044
27.4452
9.9694
-10.6512
-51.6859
-65.0525
-8.9435
33.5406
18.1981
2.6138
-18.8066
-56.5822
-57.6006
-5.12405
55.9531
51.4389
31.5826
30.9417
-10.3124
-62.1898
-66.0773
-61.8232
-16.0922
16.0681
-21.7812
-62.0846
-40.5946
-1.02611
18.7187
13.2733
-14.3983
-35.3861
-21.7069
19.3068
12.9832
7.31824
13.0486
14.5155
-9.87384
-48.169
-48.7688
-44.9566
-46.1108
-26.2941
27.8431
54.8462
34.06
-3.46343
-39.7649
-24.3053
106.61
247.415
231.304
107.331
44.8296
14.3519
-10.4209
-21.8905
-68.7868
-81.3514
-55.1734
-34.0207
-61.5446
-92.4687
-96.1391
-93.7759
-53.341
-11.6944
-2.73973
-20.103
-78.107
-125.257
-89.1614
-12.8184
28.7642
51.9926
44.2763
33.5156
72.8155
85.4771
71.7629
71.9402
103.724
96.6209
48.6008
15.9255
-1.40455
-25.4478
-29.4659
-2.60156
-23.0285
-44.1415
27.3239
92.7681
77.388
50.0121
25.5766
-1.49791
-21.4988
-34.7764
-46.7694
-34.955
-11.227
-3.21211
-39.788
-60.3358
-49.8055
-17.3457
-28.6167
-79.5599
-76.3799
-101.21
-152.009
-148.567
-42.5002
27.891
13.0563
3.86602
18.1071
100.283
200.747
165.256
57.4432
9.12033
25.4732
33.0748
9.63127
-4.51102
18.6558
32.3794
17.4313
20.8687
36.9011
68.8759
52.4339
65.393
157.527
135.8
-7.55406
-127.693
-198.836
-208.715
-193.657
-155.766
-116.862
-79.5176
-34.9756
-17.3444
2.03802
19.9683
28.5528
48.3498
48.0954
17.2109
-12.44
-35.7938
-52.1143
-4.89263
92.5746
126.25
107.167
117.099
113.02
67.139
43.0746
28.092
40.9686
41.7085
51.741
74.0096
40.9261
-28.3777
-76.6994
-101.965
-88.5059
-69.2123
-86.8588
-85.7867
-58.6505
-49.7176
-53.065
-49.2188
-20.7735
17.6082
42.9867
65.9903
81.3873
70.5062
9.57877
-62.1557
-91.1776
-103.854
-77.8136
0.0336454
110.019
136.535
55.7882
26.6282
40.7598
24.4941
-21.8535
-78.6471
-72.0962
-62.3707
-71.8109
-63.3586
-49.405
-14.9601
90.8203
194.368
168.41
99.7477
41.1954
-32.6821
-117.663
-137.693
-83.572
-46.4646
-18.5136
12.4168
30.3071
43.1167
47.3668
38.777
43.0984
43.1366
8.92382
-32.1721
-53.8109
-46.8382
-15.1672
0.8859
-9.14479
0.105658
4.50241
9.4655
26.6811
25.4652
6.95676
20.4772
37.1373
26.7438
-11.0666
-33.6934
-34.7622
-35.0347
-6.74801
32.2735
61.8103
50.7845
34.9925
-5.39314
-35.9981
-66.9389
-60.5876
0.00371489
33.2532
80.9555
74.9398
-21.043
-60.6354
-47.5648
-42.4063
-34.4083
-32.1377
-35.218
-30.7713
-41.7212
-104.259
-125.217
-49.0556
39.4134
69.1847
60.9178
18.5836
-0.460191
44.7187
42.2775
-0.0618291
12.2029
40.4929
60.3095
72.0098
66.4202
58.1169
39.0512
7.93553
-15.5037
-15.9876
-10.0908
-24.799
-18.7075
3.37724
0.343116
-12.7616
-35.7763
-76.736
-76.653
-28.199
17.8452
48.6721
55.638
76.845
141.426
160.977
60.4888
-12.295
-27.126
-36.7878
-56.259
-63.7019
-45.2547
-47.3101
-48.0016
-46.6982
-94.4901
-132.892
-112.574
-48.5832
-38.2164
-61.2853
-26.9302
-2.58352
-18.8032
-86.6674
-56.2728
27.0168
135.504
144.604
64.8627
41.7246
44.5479
50.4199
70.7431
85.0598
99.5487
94.4712
51.3825
8.04653
3.81502
16.7251
16.2588
-15.4297
-28.4209
-36.2537
-66.9565
-86.867
-80.5843
-49.3158
16.5659
30.173
5.40545
2.28811
20.2575
16.6457
14.2104
3.55691
-24.2288
-30.5155
-3.1283
5.75005
-9.77166
-0.532742
53.9338
89.6611
42.0773
-14.3747
-77.2652
-95.0737
-80.2362
-74.1792
-87.5996
-77.2589
14.2729
79.8143
56.4577
32.973
58.0193
58.6782
-21.8673
-69.5745
-43.6522
-36.8506
-83.6092
-79.8169
23.5027
86.1671
48.731
0.651611
-12.1487
36.3163
159.04
166.33
48.4307
-16.87
-15.2275
-10.7157
-38.0436
-40.5435
-3.2468
32.844
13.2802
-8.82771
-34.503
-32.1596
-9.48121
0.839406
16.9061
34.7627
15.598
-28.8439
-73.2684
-75.9682
-69.6965
-40.1154
20.6298
36.1547
17.9112
3.54794
31.0454
64.8567
61.8453
24.9977
-30.6643
-46.1666
-33.6139
-23.3257
-12.5614
-3.68213
31.1652
35.9604
10.3498
28.8422
22.2056
-27.0838
-56.5886
-57.5593
-43.894
-27.4857
-21.43
-22.3927
-30.9448
-10.9928
16.2872
32.8489
52.5078
61.2339
31.5139
12.1516
-4.85923
-2.01601
5.75407
25.2696
56.0718
64.2219
57.0192
63.1615
44.5113
15.7195
2.07877
-20.4198
-31.9289
-45.1257
-64.1355
-72.3834
-74.0999
-89.5911
-104.392
-106.286
-73.1864
8.80375
45.6419
17.2722
13.4394
182.91
317.694
154.641
-29.6655
-92.3587
-98.9269
-77.6639
-68.0625
-90.8068
-93.7286
-70.2029
-43.7477
12.0469
61.8677
78.9
95.3401
58.2247
15.9216
7.80682
9.83427
-92.5771
-182.976
-76.085
61.4899
107.617
81.8559
19.9081
8.69497
58.0537
86.2126
70.8151
26.7504
-13.5227
-12.8179
-6.10654
-18.7357
-40.1309
-33.1333
-14.8318
-22.7509
-48.3045
-57.4989
-24.5596
-0.526242
14.4574
19.9308
12.8751
15.7874
11.972
23.4014
47.3075
52.2777
28.3236
5.88886
-0.400892
-13.6122
-32.2321
-36.7962
-33.1358
-34.6405
-47.4134
-58.3506
-36.693
-18.0343
-12.9544
-4.81407
-2.37029
1.13552
8.47872
-4.9048
30.9179
37.4997
21.5234
15.9127
-3.73037
-4.45718
0.202936
3.31339
18.2798
57.2217
40.6693
18.0833
13.9618
10.0064
9.55007
10.5041
15.4506
-1.9379
-18.4664
-25.1383
-53.2413
-36.3162
-31.0086
-31.8807
-22.6527
-4.60964
29.6691
38.1129
25.2771
-14.9716
-52.0078
-60.4292
-7.90887
90.1488
72.0882
4.23579
-16.6028
-16.1082
-17.6231
0.180361
7.70293
20.9157
71.1827
74.5943
38.5782
2.66414
1.59362
83.1988
85.6992
-16.9455
-64.8587
-95.8409
-145.625
-173.493
-66.11
24.7127
3.14522
-6.14534
4.06484
27.4729
40.8955
23.6969
-28.4426
-47.208
-27.4163
-11.4495
-11.8874
-65.4143
-85.7179
-40.0832
20.2086
111.01
188.753
133.978
47.2875
52.1814
59.3341
30.256
2.21308
-18.6065
-30.8218
-64.1389
-67.3391
-36.7376
-19.5746
-13.9278
-12.1086
7.55592
45.142
60.0714
77.2036
53.1991
-22.5185
-61.712
-28.8426
-18.4948
-13.9432
-1.26649
-4.45202
-21.2972
-54.2163
-52.9154
-30.9453
-2.87384
-8.3756
-40.667
-59.7918
-53.6691
29.8152
81.8688
34.8824
23.4778
61.6475
53.2247
17.1518
-21.3223
-0.0491937
31.883
29.4243
3.12253
-19.5142
-9.61387
-3.13625
-11.6126
8.07479
17.4015
14.9577
-1.06955
-59.4528
-71.7183
-36.4327
-26.9056
-18.5535
23.7766
5.93556
-14.1047
5.81801
9.47738
-1.20391
-14.1548
-21.8979
-27.0528
-42.8889
-31.7133
-19.171
6.05501
33.3605
51.2442
63.9042
94.7272
169.244
182.667
77.8825
-10.8412
-48.3037
-49.1069
-55.4649
-74.6491
-81.1186
-65.9262
-17.2332
18.9329
12.4341
3.89592
25.4492
31.1068
-3.90182
-38.5358
-46.8372
-71.8538
-105.85
-86.4727
-48.3209
-24.0445
-2.02591
13.2093
1.82697
5.44789
45.0856
66.8291
57.7528
52.864
51.5456
51.506
59.2644
59.7976
63.9172
14.0591
-40.2426
-47.3356
-54.9032
-64.3769
-40.5759
-8.86848
9.84794
4.78491
7.02738
4.96045
14.8005
36.7057
21.6791
-4.95916
-36.0104
-43.2913
-25.7888
21.9983
59.8031
12.985
-23.6922
15.7714
67.3356
56.1465
9.03662
-36.3507
-57.9551
-65.2481
-52.2949
-37.7162
-37.3639
-39.6479
-27.6643
-9.09202
7.95371
-8.07459
-22.902
-7.94252
-33.4719
20.5292
79.9633
62.8278
10.0753
-5.11287
26.1779
44.6524
47.3824
54.5819
34.4555
6.87454
-2.01117
9.39574
4.05178
-24.4651
-14.2629
1.51883
-26.5871
-58.3119
-39.4108
-12.1855
-2.26751
-5.29513
-19.1443
-32.6149
-34.8839
-8.81153
15.031
26.8479
33.8311
8.36575
-24.0569
-22.9089
0.757426
10.226
21.8599
21.0173
20.7696
79.5375
143.005
119.457
55.4773
-18.1577
-59.3661
-69.5884
-50.8242
-47.9816
-30.3769
-30.0485
-50.0749
-2.09018
4.84165
-60.1594
-99.1094
-90.4985
-73.6288
-45.0801
-20.6413
-57.236
-93.0752
-54.0891
12.6234
96.2697
205.829
192.89
138.598
96.6795
22.4169
-5.26551
3.04197
-11.8438
-19.1877
4.31779
36.9468
50.3169
45.3836
7.63426
1.58033
-19.1154
-58.9052
-87.3736
-87.1686
-72.1758
-99.9741
-84.3157
-42.4207
-14.645
8.74359
37.5825
29.6908
18.9378
27.3115
19.1978
-6.79242
-8.62345
-3.07177
19.3991
32.8696
36.8525
56.8665
71.969
43.8897
14.5494
6.43997
5.49652
-7.8905
-14.872
-22.8294
-55.3055
-71.4574
-77.6008
-62.1612
8.03598
137.977
206.131
104.68
-12.0387
-36.1367
-61.4033
-113.249
-119.12
-102.061
-66.7024
-45.264
-10.3032
91.2216
177.75
139.675
72.9106
22.3912
21.4499
21.386
-49.4567
-148.018
-193.233
-132.431
-47.0217
-20.3228
-23.4738
5.4798
31.2651
36.9161
29.4946
-3.36969
-26.4137
-38.6146
-44.7497
-26.2723
8.71037
60.0053
108.062
150.237
139.033
89.4737
41.256
17.8036
-0.153168
-10.1547
3.69386
17.7009
17.5895
28.1891
27.7058
30.8719
10.4934
-84.154
-105.085
-64.3259
-71.1874
-75.367
-82.6333
-101.414
-64.5705
-14.4199
44.9362
226.362
349.245
248.574
123.091
-18.0844
-127.613
-166.914
-176.383
-186.263
-176.488
-139.812
-105.14
-60.7769
-40.6512
-20.2338
19.9125
29.1469
43.3682
59.1025
29.7321
-53.9141
-118.721
-89.6973
-49.5222
24.114
88.6874
117.551
137.376
154.837
160.426
156.584
144.648
117.859
98.8993
71.438
28.5646
-6.92789
-30.6771
-53.3911
-57.5902
-106.191
-140.719
-108.923
-64.4704
-18.094
7.89676
0.554486
-5.76652
10.9722
19.7732
-6.91845
-53.1528
-56.0872
-36.1498
-31.3734
-31.0422
-24.4572
-28.5885
-48.284
-47.2426
-42.5715
-39.3649
-10.7253
65.1327
81.5858
74.0693
92.1907
74.9446
10.1718
-37.3416
-34.148
-36.2769
-54.5367
-47.5929
-34.4308
-24.0821
27.3281
129.655
156.421
94.8415
33.0174
11.3043
-5.39129
-36.5409
-38.4424
-48.2876
-74.721
-68.3382
-46.4871
-10.4195
13.3743
14.3761
26.9995
53.7151
65.6541
40.3248
-6.95915
-61.7841
-76.076
-52.891
-35.1445
-13.6419
8.36617
2.39989
-5.42626
-17.1235
1.40481
31.6245
30.0111
32.4384
39.6461
67.2421
81.6305
65.201
27.8589
-5.88197
-16.4065
-29.5797
-6.85292
82.3101
110.465
-1.18723
-74.2208
-79.0108
-61.2946
-44.8976
-66.912
-91.4405
-78.6744
-55.9397
-37.3052
-56.4688
-74.5174
-36.8663
0.0765683
18.9239
34.3961
22.9212
11.403
-9.07992
-11.9008
35.0786
74.6336
62.2657
36.1788
25.3109
20.287
21.8662
56.2157
176.707
217.32
126.015
32.1976
-21.1847
-55.0219
-78.4651
-82.5435
-68.1551
-73.8664
-107.665
-111.556
-75.6636
-60.6357
-42.7668
17.9093
76.2516
93.6977
91.8621
41.4429
-62.1786
-91.3737
-46.4108
-10.0242
-5.19826
13.489
30.3635
13.7442
-6.24754
-6.73617
-21.0482
-27.1174
-27.8464
-14.8746
8.24275
23.6236
46.6485
59.9365
21.3931
2.86345
-20.7569
-47.7058
-35.5611
-10.8622
33.0326
67.1374
93.6842
155.164
178.328
61.0739
-49.9585
-78.6895
-65.9359
-57.0791
-70.6968
-97.9955
-100.972
-83.5326
-53.7381
-26.9136
-20.603
-19.1005
0.598926
36.9987
42.045
19.1374
-0.584472
-42.9408
-71.9116
-8.61383
57.6615
65.1038
48.8341
24.051
-22.0643
-50.6175
-28.4186
77.1096
160.717
124.425
39.7623
6.19836
1.2763
-6.43077
13.7941
37.2027
-7.75998
-93.8518
-90.2595
-20.0272
-33.0059
-37.5019
0.115273
33.9828
64.5253
75.6365
39.7448
-44.3864
-93.0494
-79.2681
-51.1298
-18.0863
-34.3096
-11.0035
-10.0544
-5.96088
13.9475
22.6682
24.8878
11.0551
-1.21686
-13.2585
-34.8396
-53.712
-49.4708
-1.84414
4.88799
-12.6556
-0.920544
39.5237
69.4164
69.547
42.0347
39.1944
58.3763
51.3508
11.3629
8.1172
48.1579
38.9069
1.87775
-9.84127
-13.0163
-20.1408
-25.3463
-46.0095
-40.3086
-9.84651
-6.45628
-22.147
-36.3783
-50.122
-67.1794
-59.5038
-48.3671
-33.5161
-1.23911
16.2558
10.5669
11.8886
17.8323
31.3551
57.9
47.8015
105.82
176.077
126.101
86.9898
14.2025
-56.3892
-102.914
-114.373
-107.548
-92.3186
-66.0672
-46.6824
-34.3328
-32.0176
-37.8242
-39.2805
-12.0014
5.99827
-10.1337
-2.01237
-33.5427
-80.0057
-54.2205
-13.0585
41.8701
110.616
155.833
165.132
151.959
107.122
70.0366
44.6604
29.7786
5.23742
-22.8191
-38.4301
-48.7595
-40.0439
-33.757
-25.3075
-54.2588
-80.6675
-63.981
-56.7352
-43.5513
-15.461
29.8993
49.3874
10.8549
-22.333
-25.1945
-19.7073
-22.6932
-0.712455
38.1782
15.4128
-1.35275
17.9828
59.9908
89.4428
32.814
-47.6843
-83.9826
-82.2014
-52.065
-24.0836
-34.1323
-57.0588
-45.7066
78.8452
178.138
179.488
120.582
11.1459
-55.0603
-51.2808
-51.4652
-67.8411
-91.8451
-76.2504
0.441521
12.612
10.3761
18.2332
14.2467
-10.5121
-27.0093
-21.1911
-13.7098
-62.523
-92.0528
-57.0015
3.1673
55.2216
73.0408
89.3746
92.4853
81.0314
61.613
18.0293
-26.0008
-6.97982
21.8166
35.4809
26.4224
-10.5462
-25.4064
-10.6194
17.2499
10.2085
-16.5484
-32.6679
-18.4792
20.7604
12.7283
-15.8567
-10.5855
-4.33707
-2.79134
1.16359
-0.164453
3.9502
-31.1375
-65.4527
-14.1975
19.8433
-8.08909
-35.5011
-20.5883
2.11792
-14.7045
-43.5987
-60.3665
-68.264
-53.5957
-29.9704
-27.5736
6.65803
55.9848
56.4856
28.2475
0.551712
-12.6335
-6.8969
20.2727
191.341
290.006
137.587
-9.58679
-78.7902
-94.5286
-77.9757
-50.2642
-40.2318
-43.1594
-21.5803
-0.409107
-11.8729
-44.2436
-45.6732
-12.9498
23.4548
52.5133
56.4866
10.4113
-85.7314
-120.257
-43.6106
22.6848
40.2896
33.1301
20.381
18.5157
32.9162
40.7038
37.5904
27.1272
18.7373
30.0356
50.1698
46.6832
36.9986
-15.797
-49.0735
-25.3602
-52.4285
-82.6839
-24.394
8.53231
18.3147
33.9242
14.5695
2.36891
7.86185
13.2262
-1.6049
-0.450368
3.02985
1.1948
-15.5872
-29.7908
-46.1032
-39.613
-41.7211
-76.8167
-108.936
-73.209
7.80655
27.46
18.0411
20.9152
49.7511
46.4708
17.7031
0.706738
-0.726504
4.34498
20.8603
74.8987
169.536
191.604
72.5426
-9.65437
-4.29452
-15.4336
-63.8767
-98.6757
-127.25
-121.996
-98.4788
-60.1835
-13.8934
3.19754
19.4606
78.9912
176.867
212.661
100.211
-43.5844
-123.897
-147.028
-95.2495
-41.838
-19.7477
-12.3641
-0.395302
5.77289
1.99503
5.75772
2.08208
1.08256
0.356629
14.6132
32.1729
31.0239
-1.48766
-22.5769
5.48042
6.53611
-25.9637
-32.7796
1.93313
31.9557
37.1732
39.1632
45.1116
43.1551
38.1248
28.5491
23.5819
19.2517
5.54807
-16.1534
-45.8838
-57.6013
-52.9422
-58.5204
-29.3118
-1.41131
-0.611535
-1.56599
27.4045
61.9946
29.8759
-5.73546
-15.3086
-18.2918
-32.0959
-16.9084
5.31153
-14.1301
-20.7949
-15.9076
-8.38914
-19.0835
-29.6036
-27.6167
-21.2067
-11.99
-11.8883
-6.21652
28.2799
83.7463
74.8074
32.7952
25.856
26.1731
17.1949
-6.5511
-18.2066
-27.486
-12.3623
9.97268
24.1692
25.2949
22.2947
0.995656
-41.8113
-62.4732
-39.669
6.8677
54.7761
60.1165
3.61344
-23.647
-23.8589
-23.0353
-2.65175
22.9248
0.342082
-5.58022
-18.7928
-22.8397
-14.6474
-30.5349
-53.0208
-50.2542
-0.1813
53.8106
47.8679
14.3041
-31.514
-57.7975
-5.22245
28.0974
28.386
30.9853
29.8632
21.2324
25.1332
35.2948
18.485
-5.60273
0.456014
7.38613
-10.1274
-13.3885
-3.62248
-0.500386
10.205
9.6488
-9.92008
-22.9199
-8.54564
-7.01741
-6.7675
-12.2509
-16.2269
-22.089
-19.677
-8.47164
10.415
3.78015
10.7581
31.9941
26.0286
24.1379
18.3246
-4.61127
-24.4438
-24.4735
-40.52
-51.1966
-40.044
-35.9026
-33.8696
-21.5625
-1.2622
46.8788
80.8621
53.7365
39.4912
34.4278
-7.72473
-49.7981
-21.8206
-8.34475
-13.4289
53.6514
99.6389
76.4273
80.5469
88.7559
37.0572
-14.2372
-82.5304
-114.919
-108.341
-98.3094
-92.3815
-33.3068
3.05463
24.4804
127.481
135.239
32.2474
-33.0355
-37.9047
-58.3343
-57.226
-44.6806
-67.3818
-93.5599
-64.8613
-3.22795
46.4208
70.852
66.7108
45.0008
20.0216
0.0537569
-16.0786
-35.7906
-84.0072
-91.8473
-46.9098
-9.8884
40.2342
129.255
128.313
54.3802
43.0687
43.6542
40.3443
40.8215
33.6066
47.4776
65.8345
33.9063
-11.9917
-43.9887
-44.9628
-21.7814
-19.8923
-7.00895
19.6079
30.4914
-4.50462
-89.1986
-104.762
-50.5593
-46.0458
-54.1715
-41.2101
-25.2901
-4.90333
-12.119
-40.3488
-44.454
-11.3596
16.0684
20.0437
17.107
13.0156
28.022
39.9927
39.1671
14.9523
-30.6865
-28.6095
-5.99372
-19.1232
-14.1367
11.0036
39.0361
67.8347
76.087
88.3323
144.973
188.76
94.6308
-26.8185
-74.7941
-90.0856
-89.5215
-82.0053
-82.0781
-71.9626
-56.827
-47.8574
-13.7994
12.0802
12.8442
3.28251
1.31582
-16.6771
-34.2412
-37.8402
-72.3293
-122.035
-89.4098
-35.7078
-28.7247
-12.732
31.554
78.0968
167.76
245.868
258.045
234.039
112.767
8.30993
-28.1421
-40.8009
-88.2412
-102.389
-82.3098
-75.3672
-90.2349
-93.5968
-58.2134
-4.56102
26.8559
-0.378218
-58.4151
-96.8882
-127.207
-104.943
36.0047
141.671
145.982
118.989
67.8402
10.6148
-4.74254
-21.4764
-45.2976
-39.3635
-26.7567
-14.3747
6.17192
1.43631
-0.245086
16.546
28.1186
27.0849
1.97783
-49.0277
-104.667
-135.299
-75.9481
31.3515
60.8826
51.953
54.4333
73.0031
65.5047
33.2937
6.81853
4.55262
4.62904
21.7091
32.4994
29.1299
34.1924
36.8299
24.2094
-5.45031
-60.1773
-83.6957
-56.6162
-62.4446
-48.5209
0.107015
19.003
9.43544
15.742
36.1788
27.7073
-0.532455
-18.9466
-9.93722
9.47383
5.92134
8.45071
22.9286
24.6296
9.30062
-22.2443
-60.8266
-50.5942
-32.5873
-34.739
-33.5236
-22.4553
-19.9419
-22.1923
-9.20929
15.7555
32.4397
50.5805
38.0494
16.2848
44.3657
41.5243
16.3382
26.712
28.869
5.57747
2.64541
-9.45619
-28.4876
-9.10888
10.9952
22.0283
40.7892
41.0769
26.9922
12.0601
-13.3228
-41.626
-39.6661
-29.7016
-40.9905
-39.3254
-34.5689
-35.1298
-25.026
-15.5724
-7.7946
-0.689982
-9.10243
-16.5569
-7.17992
19.4825
14.2759
-11.0287
5.11017
70.7028
114.759
116.267
61.4154
13.5218
-23.6936
-35.8946
-29.7043
-29.5024
-32.3576
-44.2425
-34.9871
-22.6213
-12.9014
5.12704
2.99906
-37.75
-56.4399
-35.1119
-39.5643
-57.2259
-58.3092
-41.1236
-8.25641
4.69117
33.1209
71.6352
76.4947
78.5731
77.3228
70.921
55.2233
52.6254
29.8627
14.3688
4.46822
-0.425556
-8.33199
-35.7578
-49.7884
-12.9117
-4.85527
-32.8599
-10.2789
9.47259
-9.96052
-37.0926
-46.9754
-50.1015
-35.0636
-12.6528
-5.37381
-3.63348
13.1681
18.4838
18.9835
16.1361
20.1209
32.3401
22.0827
-19.8054
-34.2381
-19.3965
-13.5687
-4.98834
8.2274
17.1384
26.5945
29.908
27.0529
22.4886
11.154
-5.72879
-5.64548
4.91416
-1.15393
-16.3093
-6.27002
-4.56118
-18.2942
-26.6237
-6.96145
13.0013
15.4631
24.7425
32.027
7.02193
-29.8446
-48.4097
-59.7726
-61.8616
-49.751
-14.5998
46.1144
60.1419
37.6971
18.2444
5.16077
-7.77042
-10.7198
-2.64479
-12.1705
-22.0634
-11.7606
-3.19944
-8.48711
7.67423
23.2271
25.84
64.3884
67.6041
44.0761
8.72237
-47.901
-50.2966
-19.3326
-19.3947
-17.9236
2.57672
13.215
10.7976
13.623
34.3221
47.3427
81.7192
170.593
175.904
37.836
-71.7252
-135.558
-150.245
-144.995
-137.21
-123.925
-127.199
-127.096
-96.6026
-56.5528
-7.81937
88.894
184.087
178.782
120.308
59.447
-11.0156
-102.051
-121.782
-33.75
37.6328
58.1693
43.2235
24.1412
50.7442
76.3528
86.8411
89.1301
93.9813
88.7083
66.303
-16.6632
-125.846
-164.803
-172.126
-140.273
-90.5389
-61.4116
-28.4289
14.4223
60.387
62.7675
79.6856
144.644
140.846
86.2412
33.0974
11.6095
2.48331
-21.7196
-46.2874
-58.7405
-62.0201
-44.7374
-21.1287
-19.1968
-31.7293
-57.7805
-69.5096
-47.5259
-25.2666
-3.13275
7.84302
-1.50666
-8.98591
15.632
44.5346
48.0775
29.3003
9.72865
7.15464
-0.279493
-7.173
-6.64182
19.2947
39.9777
35.9617
26.8879
19.6784
1.73112
-27.9934
-34.9202
-16.9921
-12.9
-10.8271
10.2661
50.7624
45.6903
6.92966
-15.1893
-34.5477
-31.0171
-30.1966
-18.7533
-17.1224
-39.9141
-27.3736
10.6247
34.5796
53.1499
69.0001
67.5904
59.0731
44.9731
-3.44876
-39.9361
-71.6813
-70.8472
-44.6031
-32.1541
-22.8966
-26.7593
-33.1487
-33.1463
-13.0395
14.4763
5.1737
0.565658
7.62916
24.497
38.5501
31.6447
19.9982
2.54964
6.83854
5.71693
-12.825
-9.01222
4.65348
19.1128
23.264
17.6693
-18.6729
-29.7681
6.2845
39.5812
59.6361
40.5343
33.7278
29.4694
8.8805
4.6437
-3.29624
-5.96522
3.92597
-14.5294
-53.1547
-63.2787
-72.9446
-52.5905
0.73746
46.5077
48.858
1.31845
-45.4667
-61.5165
-58.0374
-49.4323
-39.1206
-27.9068
-18.8962
4.69692
18.6682
13.1142
7.20444
8.87381
13.9335
56.8657
111.336
100.655
29.3441
-1.35817
18.927
32.4948
16.732
-11.2484
-14.5775
-17.5733
-23.3589
-20.7243
-10.9126
-11.5987
-19.1821
-29.1246
-10.4193
20.5252
19.9303
-8.3417
-24.647
-17.0855
-0.517845
-12.4637
-4.99831
7.6149
1.57976
-6.70545
-25.6929
-27.5254
-15.1158
-21.584
-13.0427
36.9482
45.8445
30.5702
30.14
42.6389
43.8131
14.9366
-11.0847
-22.9263
-18.7434
-23.6438
-23.5226
-10.1135
-4.15206
2.20148
10.0098
8.39702
5.41632
13.8776
8.86719
-34.2825
-71.274
-93.073
-118.876
-109.524
-22.4175
104.807
138.233
101.231
52.4172
13.1507
32.4231
19.8258
7.0397
5.46913
4.86437
-2.47523
-14.6624
-25.1334
-25.4522
-15.5273
-11.5206
11.2451
35.1798
40.9461
34.7054
23.7967
79.5556
107.658
40.2567
-18.4546
-53.8699
-49.2876
-54.893
-72.3661
-73.3341
-55.4113
-46.875
-42.3263
-33.8447
-36.8476
-20.837
6.24477
25.1393
29.9155
2.78599
-47.8921
-94.2254
-96.2801
-44.0791
14.6049
42.2029
61.9574
86.3897
80.8701
58.5185
12.9641
-32.9113
-34.1005
34.0951
112.158
145.288
122.357
68.9975
33.1344
-3.14676
-35.1491
-57.3064
-59.811
-22.6501
-7.10995
-24.9923
-54.1323
-80.4305
-83.0045
-69.7893
-21.0226
19.97
31.0382
53.0875
72.4627
53.1219
29.1358
14.6726
-0.107768
-11.0161
-35.8182
-66.4746
-87.1887
-73.174
-62.4215
-40.0753
-12.632
10.978
29.7624
53.8133
48.5001
39.9762
34.4768
-26.8405
-73.0234
-60.658
-29.0844
-2.67498
23.6878
45.8531
10.5416
2.89459
76.2541
106.958
50.9981
17.177
18.02
29.4471
18.325
8.97932
6.94603
9.73962
15.3646
-0.592058
-36.5682
-44.2584
-34.0195
-22.9246
-28.9955
-36.9624
-11.9788
-7.38229
-50.8832
-49.7917
28.6675
28.5987
16.023
3.1389
-19.7632
-29.7589
-31.077
-14.8145
8.21718
10.6256
-11.4785
-23.8555
-6.66554
22.7311
45.2312
49.9862
49.6022
42.1629
18.714
-17.3555
-42.2961
-31.8109
-17.7354
-20.773
-11.1514
9.6765
25.991
47.0524
23.047
-5.15835
-0.0783703
11.309
16.2569
16.4299
1.80418
-21.0003
-20.7569
-9.1417
-13.5032
-22.4306
-27.1375
-14.6467
-13.4022
-13.8821
1.79815
13.3876
27.9652
18.9178
15.7836
51.7325
48.1323
-11.3933
-51.3055
-61.3884
-48.8625
-19.2252
-5.18521
9.90342
22.2455
21.2211
12.8462
-0.795396
4.97146
2.86178
-12.5318
1.04013
19.9805
6.04934
-2.00123
-26.0068
-25.4321
12.0977
30.9728
27.8321
18.165
9.49816
3.57541
4.68925
7.89256
5.6479
4.71956
-1.0777
-13.0589
-19.3666
-21.3832
-38.223
-34.1875
-19.4881
-18.0207
-16.2913
-4.51903
-6.29179
1.10309
22.3538
30.9637
16.5419
5.56266
1.64321
-7.91333
8.04375
39.1233
29.8551
10.3933
9.76384
15.8983
21.0884
-14.0602
-36.2243
0.0657185
15.0024
14.6208
16.1441
-3.37514
-5.50196
-4.08788
-8.5893
-13.4626
-17.3963
-23.6154
-38.1374
-43.9028
-23.5123
3.43459
2.04911
-4.20253
-0.967439
23.9451
24.8436
14.4314
4.40677
-7.18183
-2.67196
9.05392
1.94519
-2.5532
4.80983
3.26825
-1.65783
-10.9332
-9.34065
10.1036
18.9333
5.322
-9.32899
23.6807
63.2922
25.9212
-17.3249
-23.2849
-23.4709
-13.9196
-0.838799
20.2862
26.476
21.2681
11.0325
-11.8372
-22.8582
-8.83673
12.0161
3.30886
16.1945
12.2524
-3.62758
-34.648
-55.6036
-24.8659
1.80004
2.0089
-0.742798
-0.393777
-2.08347
-13.1673
-17.4496
-15.9594
-4.85404
12.8339
23.0984
0.677677
-18.4004
-20.8098
-39.502
-7.08445
28.8687
31.2704
5.27401
-10.2272
-2.12045
2.49149
8.5985
11.2162
14.5655
15.6637
17.5461
19.7098
13.6134
10.454
8.54009
9.93852
5.18879
-4.23951
-8.0202
-19.1871
-15.6593
-13.0648
-26.6547
-26.2637
-9.00599
20.1249
42.9375
47.5188
29.4805
11.1246
-16.2085
-28.9324
-13.7923
1.06553
-3.19519
-3.59355
5.13576
7.07805
5.10523
0.573601
2.7418
9.16715
-14.7405
-37.6614
-24.7367
-4.08489
26.1381
4.28877
-24.7759
-23.1497
4.70732
21.2988
26.7155
15.9589
17.8092
17.9589
3.71505
-15.2132
-31.0915
-33.9268
-38.2512
-38.8984
-16.3146
7.42032
-3.05052
-24.1233
-38.4107
-26.4716
7.38959
29.2731
30.2438
18.7169
6.06699
10.642
19.8571
15.9814
12.5446
11.2019
13.7419
21.8955
37.1949
31.5042
16.8267
5.09088
9.03158
12.4271
-6.94561
-10.0591
10.1084
3.54777
-7.43273
-2.71853
-3.40929
-11.7786
-7.56724
11.272
0.138934
-14.8125
-18.2524
-25.1491
-34.5708
-34.2185
-6.71828
20.8396
-7.34123
-24.271
1.02115
29.1511
6.55898
-19.0464
-14.6854
1.31568
2.83659
-31.4952
-16.2412
39.3816
34.827
15.5255
7.08894
-9.14733
-21.3166
-22.485
-30.7423
-30.6682
-5.9809
-4.70934
-22.2539
-14.2207
20.3375
36.0224
29.7817
31.1998
34.976
42.2751
17.6649
-20.2486
-17.9442
-0.292639
13.4021
22.6635
26.5521
15.7612
3.05242
-3.6773
6.21145
14.9973
10.0566
-7.13497
-18.3608
-26.4634
-23.6653
-8.75594
-26.6874
-38.2308
-22.4605
-2.37899
-3.51869
-12.9554
-15.7624
-11.3669
-1.50339
5.72366
17.2672
30.8537
21.8695
11.3245
10.9318
4.99299
-4.30688
-0.537788
-11.1555
-19.1621
0.536089
21.1133
6.53234
-19.9715
-15.8426
1.21571
11.1181
18.8154
0.747326
3.38882
2.48584
4.1534
-4.85127
-13.8245
-15.564
-17.9505
-14.7355
-7.02646
20.4158
38.7201
56.822
37.2614
18.8215
-4.44152
-17.2287
-13.9937
-18.1922
-24.5242
-15.3915
-11.947
-22.2177
-35.8918
-14.754
4.7016
7.11
6.15191
15.2328
19.7118
8.45735
-23.2226
-27.117
-6.30613
2.7923
9.24615
13.4935
20.8208
23.0584
11.7965
-2.12027
-3.85066
-0.593805
-4.82799
-3.94917
4.39118
2.4472
-2.15981
5.64083
14.6283
6.57083
-0.151769
-6.39185
-0.457011
-1.49499
1.04561
0.0691065
-8.91675
-11.1828
4.30379
15.8913
6.05019
3.71204
9.72299
2.03117
-15.9779
-14.3187
-6.92374
-24.6998
-41.5876
-13.213
54.2295
54.8422
16.1774
-6.36317
-19.9893
-21.7906
-17.0826
-18.819
-26.2115
-14.6384
-6.52927
-6.04516
-2.41411
2.33416
0.213578
3.49778
10.1958
26.0504
36.2115
14.7369
-12.6732
-16.887
-6.87058
-16.4965
4.82338
48.6439
37.369
7.77206
-3.6684
7.49888
18.2262
7.3907
-14.7712
-22.5931
-19.4101
-13.8682
-8.64488
-0.642758
7.06488
5.85859
-16.7688
-17.0053
8.42289
20.6925
4.47963
-20.7374
-9.38846
1.17745
-2.51262
-17.8815
-26.835
-7.85824
15.5494
12.5848
17.4722
4.30725
-1.29222
14.0262
10.3678
14.6237
10.6958
1.46707
-9.10311
-10.0467
2.07362
-9.72958
-18.6859
-4.62669
14.1121
4.47376
-10.4236
-14.7325
7.1764
18.9866
-5.3853
-13.0836
-9.89593
-2.83419
15.3722
7.90663
-2.35968
2.50618
14.6723
9.5899
2.23776
1.97116
-0.935328
-2.15807
-7.07465
4.67379
7.95127
-4.49123
-20.0599
-14.5357
-2.54675
8.92893
9.4722
0.176569
2.05071
1.42743
-9.81211
-12.6408
8.36483
14.462
-2.11269
0.738021
0.823199
-11.5586
-19.1216
-8.14673
-9.92556
-11.0027
2.44574
24.7201
23.5344
11.5214
4.39426
-7.22686
-7.17491
17.0198
16.4384
3.33152
-10.8007
-14.0411
2.51502
4.23936
-8.14571
-4.60255
2.8203
4.97918
11.6041
10.8781
-5.41455
-23.6707
-28.0249
-9.56581
-6.37879
-11.8596
-12.8493
-22.886
-11.9635
-0.681309
3.66652
27.6356
36.8641
15.0345
9.72153
2.62487
8.65453
14.0016
9.46618
9.97991
2.30452
-0.57972
-4.18559
-8.02734
13.56
22.0131
13.6295
6.65391
5.03104
6.97358
3.69961
-22.5215
-35.307
-10.3571
8.79729
-0.897459
-36.5558
-38.004
-7.30869
-15.0312
-14.2438
-13.4085
-23.8685
-14.0085
2.40494
37.6915
49.5976
12.9946
-12.8608
15.0831
32.0808
6.99979
-2.94963
-6.25862
-5.70929
-2.58448
5.33815
-1.23061
-11.3108
-2.59746
-19.4348
-16.9546
8.17906
20.6429
9.85835
-8.44348
-10.9245
3.09944
11.7076
-1.05318
-11.7046
7.57719
16.9546
15.7482
5.81081
2.87588
12.0956
8.30411
-6.44861
-5.50446
-1.49488
2.65621
4.95811
-2.34584
-6.61566
-11.8321
-13.194
-11.8116
-10.234
-3.64945
0.170742
0.279133
-2.90324
-15.3861
-29.0465
-25.2208
4.12458
36.372
29.8977
33.7389
21.0855
8.67859
2.84196
2.51419
6.63745
-7.84273
-13.3602
-5.95548
-2.63681
-7.14776
-12.4674
-6.47842
0.988077
8.1296
18.6007
14.946
-16.799
-47.9819
-40.5251
-26.239
-16.2213
-16.8373
4.27018
14.874
-10.7944
5.64463
40.1229
47.4356
37.4821
22.0858
16.0972
10.8885
7.22641
-6.69299
-16.7488
-12.8835
-0.734623
8.79403
-5.34029
-18.8093
-10.4489
3.82309
25.157
8.81085
-12.9167
-24.5319
-30.945
-25.0791
-13.6419
-0.717263
12.4133
15.7992
5.03328
2.64227
5.15591
7.48158
-7.65135
-8.077
20.161
23.1011
13.718
0.682279
-22.9547
-6.27902
22.3457
17.7457
0.12823
-6.29831
-8.10762
-10.767
-4.78046
1.70778
-2.51915
-11.1567
-0.0712102
16.9023
9.63799
-12.5833
-27.7625
-35.4376
-36.511
-22.1803
1.72993
4.43748
11.6545
16.4867
13.6346
12.3136
15.3008
15.1635
19.3831
10.5881
0.135062
8.00922
16.907
4.557
-4.07274
-0.688524
4.75199
-5.97978
0.157083
20.3718
-5.3747
-25.8005
-20.8022
-9.64742
9.04994
13.5504
13.0875
10.855
0.942383
-3.70159
0.349368
-6.42393
-23.2145
-2.19562
8.38721
-6.68732
-18.264
-24.189
-29.0374
-13.8367
18.7859
23.2789
11.8575
6.80381
-1.89607
-5.104
-6.03268
-3.69064
-3.35279
-1.87543
-2.95924
7.4244
14.953
-3.66343
-14.7922
10.9179
25.995
18.1467
14.1519
2.24081
-15.035
-17.5411
-3.39184
1.38956
-2.82773
4.39126
7.30521
5.47281
4.62438
0.356093
3.8571
1.65299
-4.2401
-5.66964
-16.2441
-26.3967
-6.84472
8.46254
12.5735
0.718192
-12.8506
-9.44624
20.6368
23.9829
-8.01044
-21.45
-12.5271
14.9115
28.3454
24.8448
5.99688
-8.07113
-11.4941
1.435
12.1572
-8.76702
-30.6122
0.775125
6.84408
-7.65254
-5.48694
1.14817
-15.7819
-17.8141
0.152667
6.64835
-0.649609
1.31063
2.79205
-5.11664
-1.5747
13.4811
21.2835
16.2546
6.95012
5.93296
15.3301
-6.61636
-14.5486
-0.30887
-15.4714
-7.51368
5.59489
-8.93889
-4.16101
8.30882
-1.0703
-21.9402
-12.2286
9.99659
17.8607
31.8467
9.58919
-9.36526
-2.01179
1.17231
-10.8864
4.46587
-4.57256
-17.0084
0.222775
-4.69236
-14.2065
0.0555307
11.2981
4.22919
4.15627
3.00134
-2.90482
-6.67896
-12.8156
-11.8609
-5.31592
2.15331
13.8498
10.3898
-3.82501
-9.56343
12.0148
13.6062
12.2963
2.51172
-1.70894
-1.1319
3.42302
10.3024
13.3011
13.3982
5.70872
-1.04529
1.3825
-9.04905
-18.3662
-18.07
-21.0564
-22.6096
-19.6545
-6.36193
7.33659
10.6137
8.31684
6.48925
7.50286
6.21637
2.62398
5.87026
9.3393
6.13208
1.89317
5.37266
4.7387
-0.278298
-1.38077
-5.524
-13.845
-7.17935
-1.51277
-18.0724
-16.3981
7.25025
12.9788
2.24479
9.7856
12.6216
3.06844
-5.17715
-1.38156
0.407031
-6.60153
-2.6469
-2.22721
-11.5062
-4.51655
12.0943
1.33141
-0.0439816
4.92755
11.328
-3.03014
-1.71016
9.97826
4.08128
-9.10505
-13.9946
5.01751
15.0337
12.5894
13.3163
11.0853
2.83023
-1.62199
2.43073
-3.67099
-16.1502
-9.95028
-12.8669
-6.89218
-5.12473
-8.68338
-21.2033
-20.7605
-18.8682
-14.3091
-10.5473
1.5642
30.7515
19.4817
1.46211
29.8899
39.8855
26.8618
20.3197
16.6761
-0.492681
-7.67337
-4.47714
-6.01638
-13.0603
-24.8924
-36.5433
-33.1799
-2.6264
9.85174
9.43811
-4.4929
-19.9612
1.42852
6.84141
-7.73291
6.19847
4.74171
-2.80129
-5.70951
-0.377758
7.6853
12.1237
9.71158
5.27812
5.46206
0.513613
-3.45343
-7.29368
6.40025
18.6154
24.8405
10.9665
2.43422
0.400775
-19.2395
-17.3972
15.0732
16.7723
1.79671
-2.1589
-0.99069
-6.30252
-8.22757
-14.2641
-11.9522
-6.59445
-1.13685
-1.66835
-11.8552
-10.5901
-4.13633
7.03837
-0.614363
-5.61036
3.7781
-2.34878
-17.5629
-2.60761
18.4746
20.1383
2.09228
-10.8002
-7.91947
11.8862
14.6913
1.80959
2.13921
-3.45981
-19.1453
-15.9031
-3.38037
24.3687
29.3047
29.1121
21.1857
8.41107
-9.33638
-22.7042
-25.6278
-20.4078
-7.49137
0.814729
2.2576
-9.13299
-12.7573
-8.41462
10.8361
28.1108
12.5619
7.86762
-2.43072
-26.4021
-16.941
0.451643
8.97501
-1.2458
-1.24143
-2.56598
5.13602
17.5128
15.7598
7.84425
14.2048
14.0262
6.09859
-3.30556
-18.8169
-22.5989
-5.93015
2.92918
3.54247
-3.04715
-9.92185
-14.0301
-11.8438
0.207129
-5.59537
-12.2478
-3.42124
15.1996
12.1276
4.51663
-10.554
-20.5573
-10.8581
3.30211
31.778
26.9418
4.92259
-3.5137
2.55037
12.9615
9.98725
-2.62143
-0.440925
8.98194
7.02739
13.039
-2.28142
-26.7692
-13.188
-5.23233
-12.9237
-12.4961
-0.880037
-5.39154
-41.5149
-35.6441
23.4376
28.3694
14.6971
-0.792734
-0.159791
6.29381
-5.03199
-17.6176
-16.1959
-2.91834
22.3743
43.3088
46.6245
27.8239
17.2703
9.42741
-8.48403
-13.1819
-5.4687
-4.67776
-15.8996
-14.7367
-16.7419
-18.1708
-14.9132
-14.3386
-8.93803
21.4447
28.0081
6.63912
-5.11086
-12.9506
-24.123
-19.4733
-6.86314
-8.44446
-3.77262
4.82847
3.25409
5.61981
-4.24239
0.480141
4.03495
8.21951
7.62609
10.3823
11.8668
-6.43635
15.5381
43.227
24.4572
-26.7207
-43.8072
-8.2071
14.5814
7.69477
-6.33356
-6.22376
12.3168
8.39171
-2.97158
-4.67837
1.81316
7.61455
-2.17254
-20.0767
9.31428
40.4954
16.6818
-13.0271
-29.202
-9.02037
22.7092
7.67849
-20.4848
-17.9289
-9.64606
5.25286
-13.1604
-26.3661
-21.988
-22.2987
-16.5148
16.8062
45.8555
53.5542
20.8249
-6.73257
-15.1912
-6.21209
4.05104
-7.55826
-25.5933
-29.4136
-16.7423
3.82325
13.6564
1.77311
-5.84208
5.45293
13.1055
18.5853
22.1387
10.1405
-16.4258
-7.62155
4.65476
2.92847
9.92213
9.95653
8.53269
1.25158
-2.96394
11.4551
11.9538
-5.94675
-29.2264
-38.0683
-21.7388
2.34474
39.8536
59.9364
26.6526
-5.21836
-10.4723
-13.9598
-6.19225
-3.65814
-9.67555
-15.2496
-10.2889
-3.46598
1.72347
-7.59204
-18.5815
-15.9717
-17.3962
-23.7059
-17.9565
-6.80232
-1.62519
4.21192
-0.46287
-8.50704
26.7294
44.3194
11.1924
5.09387
20.6189
21.6539
6.27293
-1.98309
-4.96609
-11.5617
-8.6305
-0.28923
6.23217
2.91798
12.8228
14.4655
-5.94935
-16.0582
-0.596712
8.0512
-3.96777
-8.56344
-4.60266
-16.3811
-9.197
14.3142
20.1607
11.2584
2.78833
-4.0824
-1.27989
2.06211
5.51209
7.92856
-3.6457
-20.5345
-39.742
-27.1308
10.9907
17.0919
14.4181
1.06434
-0.607664
11.3184
6.96344
-10.4663
-12.5677
-5.8624
3.06705
6.36175
-0.880351
-4.87577
-7.22792
-2.55826
-5.71779
4.93907
3.69213
-20.1018
-13.9631
11.8551
1.74344
11.6161
11.2493
-0.877638
1.17662
-1.32247
3.94166
9.94365
18.4337
19.7332
15.1771
7.68395
11.6745
9.05192
-4.45272
-11.2996
-13.2321
-8.43812
-14.1227
-20.621
-14.0413
-11.3044
-0.598469
6.58275
0.305119
-9.63543
-6.60948
-0.789542
-5.69651
4.66263
4.10844
-0.427339
5.75025
8.84426
4.73286
-5.57549
-6.24396
3.69019
2.89948
-0.0961508
2.98671
2.56308
7.97963
-1.0697
-11.816
10.5487
33.0549
32.7324
10.4121
-24.4416
-22.0161
-1.30301
0.883358
-6.98163
-6.31205
-8.12608
-5.71067
-10.3838
-23.4731
-21.5471
-19.337
-25.0386
-9.27334
20.7392
36.1943
11.3595
11.818
37.1784
45.3927
30.6823
5.44135
-8.97778
-9.54062
-12.2349
-20.1968
-18.7866
-6.1992
11.4322
5.08102
-3.83865
0.795005
2.70433
15.6864
38.3162
15.7942
-3.72772
-27.397
-49.7148
-43.2404
-20.1209
-10.8838
-5.6584
1.52948
-10.8167
4.71897
20.6877
-11.5342
-47.5521
-61.336
-58.0374
-23.3924
28.632
79.0508
63.4861
45.3574
45.9461
36.5824
15.1831
0.86696
-6.21881
-10.458
-10.0163
13.9801
51.9979
40.1682
8.56563
-0.894292
-2.44387
9.45062
14.668
-2.26255
-31.3328
-58.3356
-54.1178
-24.1075
1.74144
5.18193
-7.40186
-14.3184
-6.32145
-8.45227
-23.6579
-43.1408
-50.7993
-39.0207
-25.2524
-5.82089
10.608
36.2756
41.8067
34.9722
28.2936
20.3422
21.7209
29.079
-0.249406
-13.7728
10.3199
21.1322
13.2714
16.2089
17.021
-5.01717
-15.5654
-18.5139
2.67852
23.8641
17.3636
7.34807
7.75548
5.97625
-2.97274
-22.6979
-22.1107
-18.5179
-17.1217
-13.0872
-17.2579
-27.3103
-24.9086
-14.96
-7.80608
4.48407
16.1585
5.37802
-4.1666
-12.2065
-2.26825
34.5778
45.9554
34.4029
7.21894
-19.7435
-21.0362
3.16678
15.0342
3.11994
0.573298
-1.30495
-8.33303
-18.2845
9.76071
31.0441
6.22435
-11.8822
-17.7683
-3.59427
3.46766
-9.37971
-10.1175
-5.11548
8.32773
6.06933
-7.36616
-18.3539
-10.5391
10.2113
7.17954
3.96409
8.96529
2.73024
-13.0569
-25.1113
-14.9259
-4.30273
4.37646
12.0279
12.7333
8.69388
6.59946
9.97595
12.6304
27.5907
27.5265
9.05376
-8.37237
-15.8069
-29.8936
-35.8666
-22.7122
1.72407
14.175
21.0227
25.1738
29.5017
4.85065
-29.4366
-8.18303
12.0223
-2.51066
15.4193
25.1054
-3.381
-18.7718
-8.85574
-16.9585
-11.9552
26.0052
12.2638
-4.1556
-22.1378
-74.1371
-110.599
-86.1131
-49.5279
-10.7195
51.045
100.272
104.713
91.3442
50.7503
17.0291
4.5339
6.87359
3.32149
4.13934
-3.71376
-25.8575
-11.0864
5.31953
-0.363039
-0.866006
4.50053
-5.43835
-9.45657
-6.82061
-13.802
-51.1635
-68.458
-49.5208
-26.8091
-11.7209
0.772922
6.74729
0.693782
5.87083
15.7913
13.5118
26.0738
23.9138
17.6659
31.0258
45.758
35.6213
19.055
14.57
-5.4198
-30.3917
-28.3336
-18.0046
-9.22587
0.474822
6.89605
-1.58003
5.85966
2.1441
-3.90073
-1.30682
-8.636
-17.1522
-14.36
-9.80802
-1.83488
10.3864
33.5605
48.4042
26.9619
-2.85641
-24.1522
-39.9085
-41.7094
-17.4582
-4.18326
3.43744
10.8771
18.4624
13.2762
3.06789
-3.34239
-1.08907
8.41811
9.82826
-7.39489
-19.5665
-17.6613
-15.3371
-12.7451
-10.0144
-8.88508
0.191203
3.41321
0.915806
8.67548
12.1322
3.4661
3.60353
5.5139
6.01837
2.26748
8.16588
15.1699
26.4319
31.4351
12.0947
-7.66689
-25.6099
-21.438
0.612786
12.7489
7.60308
3.43579
-8.84342
-24.877
-34.8565
-23.5631
19.3372
22.4842
24.9059
33.0117
8.19456
-15.031
-20.9433
-11.5435
-0.628333
-4.09122
-10.3531
-4.12929
-6.27457
-4.82446
5.50065
8.80022
9.59202
6.13552
7.35641
9.09294
-11.8749
-21.2484
-17.2449
-13.4198
-13.9108
-26.0783
-5.82743
25.8382
35.181
14.9406
-0.966544
-3.98375
4.2631
21.0909
10.5699
2.00176
-0.669525
7.27422
13.5437
5.11095
-9.38012
-21.2232
-24.6856
-9.09972
26.4099
32.7237
7.48943
-20.9165
-27.4562
-22.8956
-14.3135
-2.65687
-10.8695
-19.4349
-11.1786
-3.53596
11.4513
22.9876
26.4505
10.2593
3.16149
40.9009
51.0809
9.18029
-26.5024
-21.3406
-3.86801
-12.7641
-18.9869
-9.84134
0.0494153
3.27359
-4.70536
-8.17848
-5.10224
-1.08135
0.0625937
-5.67147
-11.4848
1.89253
8.42919
-4.7438
-9.74709
-13.7889
2.78912
14.0978
16.1964
23.34
32.3868
21.4508
0.152207
-11.225
-11.9536
-12.8223
-8.75118
-4.85952
-5.38721
-1.44546
1.1453
2.65484
0.8702
-7.09033
-7.18285
2.10216
3.14847
5.95717
-6.61317
-20.4137
-29.0893
-17.2264
-0.430472
8.8343
8.38505
9.62532
21.6553
21.1816
8.17198
-0.997926
-2.94248
3.33274
9.75548
5.99059
5.41372
1.22403
-13.2916
-12.4503
-11.1369
-16.0293
-18.0746
-8.95165
7.94285
12.5826
9.50728
20.1984
4.9493
1.10503
18.9573
10.7896
9.37599
12.4458
1.03528
-15.2562
-9.19415
-3.2791
-2.73407
6.43631
12.5245
9.50841
-2.7608
-20.4324
-33.9209
-30.458
-23.8447
-28.3995
-4.74981
10.9601
1.57492
8.74882
10.9571
1.50815
8.58423
17.1972
9.0355
14.6475
13.459
-0.448392
-6.43417
-5.08245
-1.33635
-0.2992
-1.12405
0.142271
9.25148
8.24213
-1.14081
-15.4963
-21.5146
9.59107
24.2019
12.8389
14.9852
9.52998
1.70614
-4.79298
-9.98788
-11.4815
-16.8702
-12.1446
-2.523
-2.47129
-3.87425
-1.22346
-2.55244
-8.04742
-4.464
0.0934901
12.3713
-6.97715
-14.2531
32.7997
41.7868
16.3557
-10.9446
-14.8445
1.26034
1.07164
-1.00415
-1.7679
-6.51006
-7.03564
-9.57228
-11.5844
-13.0261
-5.72427
11.0718
18.3533
11.3469
0.0716535
-3.54778
-13.2437
-19.7359
-15.3554
-10.3995
1.26319
10.1416
18.9947
18.1572
4.25573
1.27596
-3.22902
-10.8829
-11.8922
4.74995
12.4773
8.79092
4.20044
2.52889
-1.19641
0.481475
-1.7016
8.3803
8.77585
1.79847
11.5395
12.9076
-11.1021
-25.9398
-11.5069
1.99446
-0.692959
0.699092
0.62567
-11.0378
-12.454
-2.77395
-7.50593
-3.50659
6.91131
5.39614
-0.733516
-2.18344
2.86891
15.1814
10.2133
-10.9199
-7.11045
-2.37772
-4.64568
-17.9058
-9.73161
11.4836
39.9643
30.3602
3.10245
-9.73918
-3.13096
7.8546
9.5498
0.770998
-11.192
-13.8407
-5.94682
-0.477197
-6.76778
-7.38574
4.84185
1.95281
-2.67831
0.000399603
-3.23766
-17.5288
-29.1465
-10.2479
11.5582
7.74074
-1.50349
0.953719
4.53658
2.91929
4.4722
12.1032
19.9504
24.8397
16.6332
4.97154
-12.3952
-16.0607
7.68995
14.6468
7.38937
-2.43382
-15.8026
-15.0797
-17.1593
-15.1321
-7.93029
-4.19872
2.74134
16.2595
15.2187
-9.44563
-5.76683
4.3523
-9.66222
-16.7395
-7.17842
8.03095
-0.939377
-6.64311
-4.02274
2.39797
13.3939
20.9362
7.59012
-3.36818
1.8597
2.82943
-2.38387
-0.755296
5.33049
16.3983
3.82648
-4.96214
8.11725
-5.14226
-5.69543
7.16992
2.77905
-0.625091
-8.88478
-15.7191
-12.0792
-13.027
-7.88314
8.40633
-0.799563
1.36566
-2.90928
-7.08493
3.82975
11.0247
10.3116
-0.594672
6.89217
11.4034
5.38859
-10.5691
-18.1827
-9.81876
-1.0543
-8.87863
-14.9204
-11.0856
2.46721
17.5635
22.0075
18.9179
19.0214
13.7402
2.63445
-0.262799
-1.61316
-6.75478
-9.98102
-1.05727
7.2198
-0.224221
-12.7831
-13.174
-3.71061
-2.13459
-9.97383
-6.36454
3.06285
0.244124
3.3289
-2.92753
3.79284
8.09283
3.91798
3.31007
7.53311
6.47606
-2.98782
-4.37903
-6.80986
-8.91356
-0.804303
-1.09171
-13.4665
0.468782
8.19257
7.96779
0.773198
-8.97594
-6.67293
0.30637
-2.27502
-5.3134
7.09865
10.1972
1.11478
-3.26096
3.15288
8.97997
3.36998
-1.36394
4.58845
17.2361
5.64506
-8.35104
-4.23941
-16.8703
-17.6809
1.81581
2.57985
-0.211862
12.7668
12.4717
1.62197
-2.52997
2.13247
4.996
6.42718
0.218278
-7.43757
-24.4994
-29.4082
-12.6089
29.9369
5.91396
-14.4243
21.3328
40.5878
11.3912
-4.26026
-5.81423
-7.65616
-8.71852
-14.8541
-16.5243
-9.27206
-1.35629
-4.90474
-6.83137
12.0979
23.2237
16.8383
-6.65402
-21.2294
-2.66203
0.0961478
-14.3669
-30.2689
-16.4701
19.6609
23.3644
11.6125
8.19549
4.7799
10.5284
13.7708
4.41632
4.36059
-0.156738
-9.00146
1.11073
6.86028
3.5585
-6.42075
-3.85655
-2.06405
-3.34362
-8.20316
-8.55075
-13.1492
-7.11892
-0.856069
1.10385
7.42255
6.40063
8.67153
10.4739
3.60188
-5.38067
-20.0548
-21.9165
8.72317
18.1993
15.2937
31.1299
21.4482
2.53108
-7.52189
-11.0149
-14.7616
-13.4532
-9.5913
-14.0031
-12.1122
5.37567
1.90326
-6.34005
-2.49344
-0.608165
-5.84712
-4.83008
-7.81835
-18.9102
-32.0581
1.07755
22.1677
-6.20973
-5.23133
25.9308
27.7174
23.5141
18.6813
20.9325
22.681
10.7206
0.063842
-9.08754
-8.46038
-5.40981
-1.74461
-0.368724
-0.633536
4.5255
1.47134
-33.0143
-41.1116
-14.4793
-4.6412
-5.73579
0.718427
4.46402
4.52555
0.486066
-1.11132
-0.947762
8.57015
15.504
16.9029
3.79077
-4.30607
12.7
19.118
2.40782
-5.01339
-6.57434
5.69141
11.6287
-1.83083
-13.4886
-12.5126
-12.8945
-0.189883
8.99022
-0.344266
0.611668
3.4445
-5.7494
-12.5386
5.64549
11.5036
-17.4293
-29.1975
-9.77966
2.33631
4.74457
-1.92708
-5.20535
-1.8686
20.3886
13.7012
3.5753
-0.0567298
1.68872
1.1843
-4.86872
-3.57597
4.19549
3.5223
-0.30236
12.7937
18.2678
-2.23392
-10.1594
-6.68701
-13.7476
-15.8325
-4.5402
6.01893
-2.56186
8.52242
12.3573
6.9526
4.66452
8.63898
5.03235
-0.17697
-4.49854
5.1275
20.1088
8.14516
-4.77084
-19.938
-18.3654
12.3368
8.96054
-5.55485
-4.50668
-7.83207
-17.0705
-9.12618
1.66797
-1.02311
-1.89944
0.957613
2.03762
8.38272
12.0519
-1.0815
-22.9291
-14.7298
17.1615
3.10577
9.92677
3.20802
4.19489
16.7375
1.75889
-4.50823
-8.63624
-13.467
-10.1945
-2.46698
-7.74148
-9.8391
-8.7756
0.946386
19.9109
27.3597
23.1868
4.00041
-15.0357
-2.46577
-5.54835
-17.1865
-18.9543
-22.0338
-4.3738
5.63812
2.56575
6.49227
5.01404
-2.4289
7.07619
24.7785
28.6743
14.7376
-5.42176
-11.2801
2.62288
18.9701
10.4352
-9.33964
-31.2132
-26.7468
-11.3415
3.1244
19.2951
20.7335
13.7292
17.7386
-4.8015
-4.4113
-1.01698
-14.628
-17.3869
-6.09498
-0.000424434
-0.210491
-2.16365
-4.32754
-6.46477
1.39256
4.78347
-0.767864
-11.0998
-18.9695
-25.3492
-15.4116
0.84154
7.24901
9.94453
6.69454
6.20422
10.83
15.2452
13.4261
9.92479
7.90005
8.55508
1.90267
-2.68743
-1.51999
-2.30132
4.65588
8.11534
-3.292
-9.17183
-6.85557
-12.2367
-20.6685
5.48304
23.5868
15.4113
11.3425
5.26155
6.32122
4.64402
1.18122
-8.19022
-18.4178
-8.85884
-1.37016
-2.26856
-6.24172
-11.9702
-14.3319
-13.367
-12.5763
-14.2761
-20.6416
-18.0728
10.8823
44.108
36.9514
30.0129
17.7047
11.42
4.53012
9.02869
-0.503986
-7.38597
-9.59907
-15.0498
-19.7688
-17.8477
-14.7554
-5.24663
3.0838
-5.4178
-1.68189
4.27884
-2.55003
-16.6063
-18.1032
-4.43574
14.4547
11.8802
-4.88221
-11.1834
2.24886
17.3793
29.3083
23.444
11.6351
3.86385
5.76015
1.67085
2.80068
12.1845
14.1002
5.87564
-8.66773
-18.3065
-9.26914
-1.38457
-11.9201
-12.7602
-2.11089
4.90579
-4.867
-13.7457
-18.0963
-8.39929
-3.75962
-2.73573
1.568
11.0511
11.0655
-0.199934
-13.3525
-18.6436
-10.0305
16.3791
31.6379
-0.901726
0.468264
18.6163
14.8072
8.73269
2.26447
-4.90977
-9.6307
-9.909
-3.06367
3.20917
-2.75566
-16.4728
-19.6584
-17.9082
-0.577077
21.9758
19.4868
1.1538
-12.6938
-7.87599
-5.54708
7.27989
18.8949
12.5026
4.22043
-2.38307
3.98828
12.8408
1.45106
-9.66233
-13.2928
-15.6897
-5.56103
20.4724
27.5302
15.5581
-2.76219
-8.6493
-9.10785
-5.05839
-7.22076
-9.25981
-10.2083
0.312664
2.28997
-6.46441
-3.80562
-0.214561
-9.28214
-6.53603
3.14746
3.76468
3.99878
-0.140347
4.50462
2.43275
-12.9677
-14.9315
-0.342538
5.59732
4.56307
7.09462
1.19173
-0.969035
9.31327
7.5797
-5.35891
-6.93079
21.2613
12.6397
-24.9401
-16.3748
21.6935
21.3304
-3.95196
-2.57676
18.1024
16.7033
2.16817
0.979084
4.62897
-4.30856
-6.37243
-3.71295
-7.05676
-5.18253
-8.09889
-16.4244
-17.9122
-12.9817
0.0968617
-1.80707
-18.4334
-22.4194
-8.5473
-5.58693
8.78232
29.8095
12.1152
6.41597
6.58684
7.35577
1.90147
0.807543
5.1384
7.87684
5.24257
-0.841896
1.77753
19.7988
19.8299
-0.459414
-9.34787
-3.50497
-10.2527
-12.6504
-6.19907
-1.56898
16.2463
4.02859
-14.3995
-15.2884
7.91149
8.88499
2.26192
-13.1073
-11.1936
12.7982
13.9514
-3.56094
-4.6291
-7.71248
-21.6778
-21.4224
8.86942
18.8259
12.021
-4.7888
-15.7268
-0.711672
7.79576
1.58501
-9.95349
-6.26205
-0.759099
10.5198
11.8016
-1.08251
-9.50573
-8.62346
-1.51574
5.23689
10.4843
3.71884
-11.4471
-10.7338
3.87729
10.4842
8.82933
7.43409
13.5923
12.0396
11.8755
18.246
10.4365
-3.172
-1.83813
-10.2485
-23.7467
-12.6809
12.4868
9.42026
1.52286
0.661745
-10.1829
-20.4004
-24.5068
-2.05923
9.73065
7.0701
5.505
5.532
-1.59826
-6.51117
-3.88091
-6.16277
-9.89042
-10.1808
-3.99299
-8.52618
-17.3705
-12.0328
-3.16774
1.02565
-0.565028
5.57286
8.31058
6.95869
4.58994
5.77914
14.1488
25.8678
21.7466
2.27727
8.89441
25.0332
16.072
-6.74251
8.38232
15.055
7.34559
-9.56473
-21.7134
-24.0815
-9.8391
8.0774
-7.06398
-34.2438
-22.5694
0.540371
0.422247
-8.61783
0.722088
17.6317
14.7081
1.91174
-1.16065
4.07113
-12.4666
-24.3942
-23.3105
-18.3145
-3.50018
18.6146
31.0189
13.9169
-4.70052
11.9949
27.3862
12.9643
3.15598
-0.554775
-0.803548
11.0426
-1.75121
-18.726
-17.6935
-15.2156
-24.051
-19.2509
2.66006
15.8087
23.8147
8.12478
-3.63685
6.76254
14.0631
6.47649
-4.89149
-9.05178
-2.37404
3.76248
-4.76034
-16.7555
-11.3959
-3.698
-2.23236
2.3693
12.8426
11.7792
-6.77765
-8.81365
-13.5115
-8.1322
-2.82379
7.86242
19.7796
12.8497
5.14247
12.0563
22.4504
17.1682
1.61925
-7.58316
-4.60422
2.21997
2.14384
-3.38912
-8.13073
-11.1944
-15.33
-19.8103
-34.6878
-11.1882
27.5017
12.4428
1.63334
9.0176
9.20386
-2.02064
-6.24677
-4.68313
-6.67109
-4.31246
4.91017
-2.31638
-9.40071
-12.5884
-3.88354
13.8707
7.05424
-3.48751
4.6031
16.3997
-11.8235
-16.6469
-0.538181
17.8992
12.1077
6.78425
2.05896
4.5429
2.65312
2.02486
-5.09016
-8.69171
-0.681536
11.2904
17.6983
2.70318
-5.22919
4.3059
10.119
-9.05369
-18.2982
-0.633822
-3.72198
-14.6988
-12.1652
-12.1209
-6.28454
2.28732
12.9495
11.1778
5.237
5.01689
2.04905
8.02678
3.18757
-2.05426
-4.77796
-12.1502
-6.55103
0.0376142
-5.37005
-6.94712
-2.54388
-3.38099
-0.266775
2.85134
-1.57548
-0.9216
5.54684
7.28765
10.6207
9.01219
11.4886
-4.78445
-18.599
-29.7437
-12.8488
38.9045
53.158
27.2303
-3.65149
-15.4791
-12.9646
-7.5142
-5.31453
0.314943
3.76694
1.41739
-0.600919
-10.4494
-10.9498
-9.20161
-10.8977
-4.90201
-9.62771
-9.68079
10.6066
-5.88361
-25.3456
-16.7578
-1.29089
3.14204
12.2088
15.5692
16.4592
12.2783
9.80292
10.1852
10.7371
0.672059
-0.326889
7.2182
6.03348
-1.76449
-0.413834
11.8247
-6.29931
-15.7099
-8.00124
4.14211
3.73678
-3.4049
-5.58393
-5.91495
-0.871626
-3.98988
-9.86303
1.65364
13.3987
22.8076
24.1539
6.76954
-6.56661
-9.00056
-5.6154
0.626381
-7.98133
-21.8097
-29.0991
-28.0734
-12.358
1.65889
-1.01251
3.37127
10.5495
13.3668
13.8354
10.9849
0.317339
-9.97295
-3.76127
3.29643
1.48358
-0.402961
5.14449
19.3398
7.23349
-2.08835
6.55323
-1.19625
-4.67381
3.10574
-2.54422
-11.0471
-10.2117
5.0346
17.4461
13.1674
9.35559
1.92344
-4.21994
-6.6546
-0.719804
-4.29018
-13.1266
-3.59735
21.6517
7.42897
-15.113
-14.7303
-14.5054
-15.0998
7.58938
9.19695
-2.58546
-12.7156
-16.0926
-8.08204
17.6982
36.4112
13.0392
3.00547
-2.44363
-6.11965
-9.97467
-17.7078
-12.6969
-0.221667
11.551
8.97136
-13.6697
-13.018
-2.48875
16.4374
24.1319
17.9591
12.5865
1.44272
-16.1295
-35.9307
-30.3687
10.7568
31.2657
22.6338
17.8112
3.43175
-13.9969
-15.9337
-16.2908
-8.91481
7.298
7.09507
0.00215405
-11.2245
-10.5212
-0.191701
6.93019
4.07775
-0.359523
7.49803
20.5381
13.9994
6.13945
-3.80103
0.202293
-4.73976
-8.77612
-7.81797
-8.43936
2.22777
10.7316
-1.60872
-4.19296
-7.4381
-9.23139
-6.60719
-1.15252
6.66987
16.3356
10.1582
-3.00317
-19.1489
-15.7065
-0.943788
-3.22924
-10.1523
-10.6472
3.07017
4.16374
-4.85505
-5.27758
5.83513
8.40171
9.97166
14.7999
19.7532
0.657316
-7.94479
17.1603
23.7982
33.0108
12.8567
-22.4562
-16.525
-10.347
-8.42637
-6.15814
-14.3837
-18.3649
-17.4934
-14.1165
-1.81418
12.4171
3.28145
10.1632
12.509
7.50661
9.28837
-5.82599
-13.2385
-15.7646
-4.95297
1.86203
1.50095
-2.79781
-2.88041
1.52001
-0.345876
-2.16462
-1.35206
-5.33515
-2.39906
5.81804
12.1106
0.325915
1.75038
17.5913
25.5695
4.74921
0.300632
23.3332
14.8395
-2.83542
-14.0937
-12.1286
-6.31475
-3.1803
-7.73943
-22.7996
-24.9516
7.94057
19.5822
-0.141624
-2.77852
7.77523
1.07366
-5.28415
-12.606
-6.13366
-1.44513
-12.0954
-10.1396
-14.5017
-15.3027
8.50991
30.0284
19.8779
13.6224
9.4354
7.6278
0.105152
-7.49155
-2.36391
13.367
2.39837
-16.7059
-21.1192
-15.2999
21.5731
24.385
-8.91397
-15.9295
6.54777
22.6955
0.771166
-19.8308
-11.9811
-10.8882
-6.10851
-2.38076
-6.89882
-2.67249
12.8612
-8.3943
-14.3499
18.1434
29.982
35.2432
7.75366
-14.58
-14.0124
-1.3993
7.00823
6.30048
-0.49801
-6.03755
-4.64333
-5.22633
-3.79418
-3.53801
-2.42767
-6.51639
-13.7548
-0.483561
9.28989
-4.35425
-8.20013
2.1408
0.863916
6.62507
7.68461
4.67323
7.2655
23.9668
18.5988
-2.1137
-16.2363
-17.6262
-14.4065
-11.4784
-11.2856
-14.4587
-5.66612
7.33701
-0.566703
9.96233
21.4223
-18.7934
-18.0685
11.6647
17.949
17.884
11.0077
3.20442
-3.93867
-14.244
-15.2789
-7.49873
1.64857
10.3092
10.6786
7.0551
-2.31731
-9.19147
-0.834047
4.90323
-2.92818
10.1055
18.166
-1.41583
-14.4935
4.62354
2.29779
-21.5254
-14.7275
11.3324
12.5711
19.9513
11.195
-2.96142
-5.12468
-4.0423
-5.75055
-6.7303
-3.04209
-3.81067
0.683923
4.30235
-5.99229
-3.64027
2.10802
-4.95853
-6.20007
-5.88368
-6.94748
-8.79845
1.26726
-5.03103
-4.62856
1.89996
7.20303
0.708518
4.73774
7.33638
8.77231
4.38604
0.453427
3.60146
6.34102
-1.20802
2.01702
8.11053
9.1263
0.899927
-13.793
-21.9628
-0.614035
8.84826
16.2545
13.5247
-2.42979
-12.2991
-18.2179
-3.85156
10.8988
9.37495
0.296058
1.44061
0.320954
-1.43237
-3.49511
-9.69292
-15.7271
-2.37125
12.4625
-5.39614
-8.74814
2.74552
-10.8891
-22.3289
4.52833
27.4232
18.2809
5.38827
6.27972
3.99789
-0.289526
-4.82806
-2.68423
-1.92199
-2.11493
-4.54739
-7.46194
0.976158
-1.51691
7.6572
11.7176
5.49139
-5.60546
-11.0399
-11.4545
-2.69083
11.6564
-0.65297
-12.7792
-0.237186
13.2559
15.0012
14.4039
13.7896
8.1758
2.76083
4.29553
-6.02983
-7.2616
-3.15147
-14.5177
-19.0516
-9.63376
-6.95854
-6.43864
-16.3051
-19.2579
0.710343
15.108
6.01852
15.2968
18.151
17.2192
-1.00718
-19.7981
-8.24011
3.27307
2.57875
-3.7676
7.77542
1.87442
-11.1988
-10.1698
-0.541915
2.79229
0.899417
-1.08341
1.1017
3.47905
4.18529
-5.26428
-10.2114
-9.29854
21.6647
31.3391
14.5504
2.2976
6.04575
5.44897
-11.9433
-19.7543
-14.8333
-3.26639
8.75097
8.80711
5.71338
0.660737
-11.1055
-19.1694
-3.70365
1.99854
9.80243
2.9285
-5.14489
-2.03904
8.32844
4.85099
-3.5862
-9.86831
-5.26147
-5.07529
1.99583
0.137801
-9.98596
-6.92381
0.715893
6.03563
1.2833
-9.86367
1.65275
34.0593
19.2984
9.8171
-0.535208
-5.92579
-10.0856
-8.19495
-9.6793
11.2392
26.0633
11.9986
-3.39174
-10.5283
-12.473
-9.12471
-8.11703
-6.22649
-4.63806
20.3456
16.7124
-22.2108
-22.4215
-10.5386
4.65256
10.4443
9.53093
8.21389
3.37554
-14.9581
-19.7776
-4.52051
-0.481037
-2.51413
-4.34212
-2.59721
-5.06686
-6.03623
8.00636
10.7174
3.20502
1.60199
15.4669
19.0554
10.5305
0.92366
-11.2532
-13.6703
7.81272
26.6449
12.1016
0.626955
5.76685
2.79946
-2.16594
-12.2391
-13.577
-8.10952
-1.6725
-0.710044
-0.195736
-4.1023
-14.7594
-15.2453
-7.16817
2.90242
9.57
4.50591
-3.99506
7.01071
13.9319
-2.0017
-6.82875
-10.4271
-25.1262
-12.6046
19.8197
33.1057
32.5469
7.84652
-7.77692
-6.53249
-3.08033
-2.45027
6.87112
3.36002
-7.70355
-5.09911
-13.12
-22.7129
-22.7657
-14.6328
-9.58092
13.6097
24.4773
7.50929
-8.18735
-18.6907
-15.9144
2.22025
15.579
15.0293
18.2183
11.3262
2.97672
25.9908
25.7749
16.4051
6.26441
-11.9979
-14.8682
-4.77801
-4.64614
-15.2235
-12.5751
-3.65335
-7.42382
-8.74431
-1.75488
0.544499
-2.87626
-8.23009
-7.11409
11.3604
9.126
-13.3492
9.35971
20.651
12.0283
-1.25435
-7.00986
-8.16239
-8.5695
-5.94265
3.47904
-2.78641
-8.4662
-9.24225
-4.17189
-0.3796
-0.107666
1.90125
3.30859
5.84695
11.3903
11.1534
-10.955
-8.59197
0.197902
16.7947
11.2912
8.46474
10.7844
-0.856815
-13.7205
-11.7972
-9.04062
-9.09697
-8.49671
-1.70756
0.637021
3.14593
4.77597
5.68912
15.0029
20.2191
0.170971
-9.32817
-5.42777
-5.06099
-7.03614
-7.12735
-16.5063
-19.0885
0.328263
22.5701
15.7398
7.82219
6.14946
1.34378
2.08474
-0.0808148
0.844395
5.38384
-4.33318
-22.8978
2.15129
16.2753
-8.09644
-31.1878
-14.163
13.1173
13.583
11.5758
3.068
-5.16759
-1.22886
1.60426
2.69797
0.91505
-0.225347
8.11453
18.0887
12.8575
-1.46982
-0.553471
-0.173753
-2.64573
-3.59736
-5.10152
-6.0408
-8.9602
-1.52941
-3.18181
-14.0216
-12.2256
-5.29118
-5.11365
0.402784
5.87273
8.48415
7.33779
-0.368475
-8.6779
1.17015
13.5053
5.39434
2.9129
8.39136
12.2188
5.61689
-10.0186
-27.3431
-24.073
1.06481
-3.25766
-4.02308
13.1866
19.1502
22.8142
15.5508
4.59795
-5.72474
-2.70761
1.65588
-1.55558
-7.9819
-11.1974
-10.361
-5.98667
-8.46328
-7.92695
5.26104
3.96903
-8.53584
-6.41558
6.18833
-2.80694
-5.98742
-10.7379
-10.4067
4.01058
6.49244
0.852201
13.851
14.6839
13.7927
10.893
17.3619
22.1635
9.03069
-1.43886
0.298614
-2.22581
-9.89293
-10.658
-10.8012
-7.19264
-9.43453
-8.83688
-2.24291
-2.66958
-0.380015
4.38943
-3.40263
-0.26967
1.77785
2.13997
-6.82235
-12.3917
-7.08256
4.38328
1.24476
-1.62317
4.05621
0.356478
3.71152
5.81764
7.734
5.26259
-7.35894
-3.84413
13.4864
6.16423
-4.92015
5.0753
8.02019
-4.59963
-6.35497
-5.61995
-2.41877
-5.92305
-0.566586
-1.88606
-6.73248
-6.21534
-6.18033
-8.85195
-13.0635
-10.5548
11.8913
21.6421
14.0118
20.4914
20.286
7.31054
-2.81036
-2.22501
-1.89469
-4.20654
-7.29762
-0.0593375
4.60624
-0.949663
-8.06953
-10.0143
-5.86977
-5.23493
4.48782
5.73367
2.02285
-3.95783
-11.0417
-12.6077
-7.0272
-1.86878
8.42402
14.8989
1.98939
-8.32768
-7.2129
-9.9112
-7.53418
18.5524
27.6252
13.1529
0.948558
-2.46118
-3.05474
1.54203
0.303068
-2.30805
-2.39527
3.29172
3.44735
-14.8166
-24.4862
5.83492
20.0111
5.24036
6.35787
5.67799
2.96618
-10.7601
-27.6101
-23.2168
-5.57766
6.76762
-3.99651
4.86331
16.4132
10.1344
4.55064
-5.95985
-5.15783
1.54132
8.47193
6.07694
10.6324
12.9057
2.79069
-5.17678
-9.55105
-13.6381
-10.6417
-3.03286
-3.4144
-9.87036
2.16373
1.26091
-3.29572
3.91913
4.62494
6.64087
8.54153
7.73341
7.55934
3.67335
-3.28963
10.1901
8.58449
-8.75956
-9.31366
-2.67248
-4.7067
-6.64413
-1.81648
2.32491
3.27725
1.1998
-1.14536
-6.77877
5.39151
9.00988
3.36053
5.73275
-2.27016
-14.2199
-13.245
-13.4138
-8.50629
-8.60792
-7.86768
3.26688
18.1655
16.5451
10.4358
6.54093
1.04933
-5.98432
-9.4711
-2.13664
-3.54476
7.30329
10.0638
10.4471
9.94819
16.1424
14.8209
0.267427
-9.9702
-10.1117
-11.632
-22.8788
-26.6579
-22.5588
-14.091
-8.00455
-3.78678
7.96814
21.5229
19.7708
8.61942
1.65729
10.1646
15.299
6.31454
-6.65874
-9.1747
-8.5755
-0.971582
18.9843
17.9968
4.60432
9.04278
7.83561
-8.57038
-26.6675
-24.1438
-1.3357
4.97958
10.4811
8.47401
3.96507
2.92654
2.59153
-6.26905
-10.4171
-10.2766
-3.13415
3.34165
-14.7296
-18.4963
-11.5217
-9.14659
-2.53606
4.89742
5.87442
9.00457
5.98256
-5.04375
-5.12535
-1.10625
-1.91266
3.96318
18.8128
26.3284
22.5732
7.29132
-0.0732628
17.0546
22.312
8.51053
-2.52736
-7.78722
-11.2973
-9.29036
-4.51675
-5.54647
-13.6246
-8.66245
-5.89279
-3.91177
-1.74806
-1.2305
-12.4496
-0.484545
3.30739
0.570536
-4.71568
-19.4857
-19.0663
-9.20454
1.52275
-0.0756816
-2.40034
3.9693
7.56549
4.9789
-2.38422
-8.32764
12.4488
41.4626
37.8921
14.1737
3.70629
-16.101
-17.9163
9.62166
15.6861
2.02018
-13.3522
-10.8534
-4.71157
-8.75537
-11.9229
-11.7697
-6.05762
-8.37783
-1.13334
21.0131
14.7886
-10.8662
-18.3659
-7.43762
6.97563
15.4035
4.50451
-7.17973
-10.4239
-3.6716
-5.33929
-7.55131
0.703562
17.0489
5.79769
6.2286
5.39014
-1.99137
3.89437
10.8638
-1.56238
-4.88826
-1.909
-1.43633
-3.46793
1.96592
6.29611
-2.67635
-1.14887
1.56615
-2.46007
3.17003
14.8399
13.3382
-3.49096
-22.9183
-18.1888
-4.0608
-3.30348
-9.82806
-1.92604
-2.02505
-12.3034
7.32079
25.1696
15.2183
0.32948
-1.39931
-16.2757
-17.6047
26.2279
47.3608
12.4776
-15.1776
-9.24183
0.778344
8.7713
5.8332
-4.27353
-13.6113
-12.785
-9.24091
-5.68388
-14.546
-25.283
-20.0492
13.6217
28.9117
18.5338
8.71426
-20.5836
-29.8125
-8.51974
0.826216
9.80626
17.9179
5.22642
0.678276
2.66181
-0.935323
0.97411
10.5089
16.2738
19.8424
12.5702
2.49557
-13.7502
-21.5633
-10.8697
5.8307
8.27691
1.81454
-11.829
-16.246
-12.4796
-18.0846
-12.2736
-5.63416
11.8194
12.4506
7.47842
10.4741
11.9846
5.79278
8.69284
11.6749
-1.08544
4.22287
12.1957
-4.79537
-18.5419
-26.6716
-19.7237
-17.695
14.5499
25.599
10.2169
6.69515
3.89174
5.78576
6.54883
-0.900954
-4.37842
1.55641
8.45447
0.779337
-11.2423
-9.00272
-4.69694
-6.60538
0.571939
15.7774
3.39871
-8.64894
-29.4447
-34.1048
-17.6403
2.22576
19.0346
11.4052
9.14152
4.82978
3.48748
1.74725
-2.59402
4.70084
8.64714
12.5013
13.5034
5.90164
-3.73841
-16.55
-9.31391
1.91007
-7.78169
-16.0222
8.37775
25.9759
1.82113
-5.36324
-4.01405
2.96436
7.51209
8.4575
9.3163
0.998719
-1.5003
0.0276018
-0.774746
-3.08923
-8.70304
-10.3876
3.78078
-0.994397
-27.0498
-23.7782
19.4161
