54.5796
79.4683
23.0994
-98.6798
-119.195
9.17596
197.493
173.078
82.1624
50.641
12.6964
-10.3386
-21.3532
-22.9455
-57.405
-61.5576
-48.2485
-59.0388
-94.6476
-169.951
-205.952
-148.886
-41.8503
41.6884
133.608
152.629
-70.882
-164.266
-44.3672
35.9625
50.6189
68.677
92.4824
160.522
183.189
139.329
80.5437
33.5617
15.7639
-22.5775
-40.3347
-12.9167
6.05054
-44.0434
-139.986
-165.475
-103.573
3.68934
79.7262
101.826
19.7233
-59.7833
-37.3638
-15.9038
-23.1917
-1.57429
2.91355
-6.67976
-18.3711
34.7995
137.354
114.221
-1.87463
-35.4601
-26.4566
66.7728
174.42
57.218
-36.4639
-56.2681
28.4341
57.7142
-28.3893
-86.3396
-124.682
-180.982
-193.692
-107.261
22.7007
90.9185
130.198
232.366
189.243
3.89507
-111.239
-202.639
-263.565
-155.387
-70.662
-39.5937
-34.2031
9.0038
56.1218
77.4117
88.7837
87.4536
80.4973
8.53734
-87.3688
-95.147
-85.1955
-80.2274
-7.72279
125.967
175.342
108.805
46.9658
41.7146
17.9372
24.8945
64.7913
94.2138
154.8
191.741
173.715
135.606
66.2055
20.0889
10.397
-29.8271
-103.735
-186.179
-184.879
-158.693
-159.92
-142.382
-114.933
-79.3423
-36.7182
-39.9527
-85.3766
-101.354
-112.856
-90.9267
-19.3352
-54.1511
-82.4769
17.2246
56.6591
16.801
18.4514
40.6506
178.913
404.202
304.526
109.933
56.9345
56.079
38.7508
30.59
-17.9741
-58.6594
-87.2232
-114.397
-91.655
14.8946
91.8956
50.4185
-4.24917
-36.6555
-99.4094
-127.956
-130.151
-110.356
90.2198
160.266
36.4742
-35.0499
-9.085
-42.2484
-81.354
-83.7318
-71.3797
-53.3989
-30.5955
6.64053
24.3356
29.5286
43.1505
77.6528
61.353
16.766
7.5282
-48.5646
-80.3907
-53.2705
33.1857
115.202
80.5446
49.811
80.3935
120.628
134.294
71.0356
-49.1894
-104.067
-71.3306
-45.577
-20.9744
5.43187
68.7289
84.1273
17.6375
-48.924
-77.677
-85.5238
-70.2494
-59.6698
-30.4381
33.22
18.3402
-78.2618
-180.891
-134.234
-38.052
-14.8459
6.81739
48.3141
87.996
85.1006
78.8201
97.9099
91.9665
-11.7723
-144.544
-119.708
47.9125
232.757
130.71
-107.162
-60.4944
43.3644
110.594
111.478
94.0139
94.6554
24.6618
-147.986
-210.621
-153.715
-147.778
-111.284
-18.2316
59.5195
107.102
70.4128
-62.1806
-174.556
-97.5111
65.8298
94.7775
102
134.39
112.709
32.6242
-8.14634
-63.4098
-31.336
-9.03592
-32.1446
-5.43402
25.0397
-22.4613
-40.343
-10.1055
-9.21371
-40.858
-69.7298
-27.3546
52.7522
86.4738
40.8513
-42.7387
-59.4044
6.81486
31.0153
60.6157
98.8259
109.339
100.598
99.8466
32.4482
-31.4948
-64.6069
-119.687
-166.34
-125.659
-31.6927
158.946
195.69
54.9408
5.8646
-9.54098
-42.5174
-103.746
-135.988
-103.466
-53.583
-30.776
-41.0277
-60.8105
-14.9123
32.0596
-28.6227
-41.6864
34.5865
71.5387
3.65317
-77.3724
-58.3841
-0.260734
-8.47471
20.7734
66.6581
67.356
40.0304
11.9555
11.3423
1.37355
-53.2033
-55.8744
-25.5953
21.8857
96.6372
211.954
352.662
341.716
164.603
-51.6515
-127.725
-113.249
-88.6995
-62.7489
-60.2026
-34.0677
-12.6877
-20.5074
-51.476
-97.3751
-154.629
-180.427
-122.663
41.1233
153.013
39.238
-131.385
-163.108
-75.2631
5.77794
-23.8824
-95.5522
-122.663
-72.9668
20.8282
60.794
103.139
151.292
153.669
144.828
175.389
161.149
78.2878
-46.5541
-68.7669
-15.9032
15.0731
26.0229
8.74542
-42.7436
-44.1547
1.98391
53.8765
28.2233
-50.2459
-99.8703
-93.7875
-32.3412
29.6653
74.7904
132.073
150.996
97.6759
-50.3875
-154.092
-79.5215
-50.4935
-108.859
-131.156
-129.434
-92.7733
-22.8803
43.8294
107.25
133.51
109.482
37.9135
-21.9553
-95.4051
-170.021
-177.206
-157.823
-113.062
-20.308
145.606
299.115
305.97
165.862
-8.26102
-70.7732
-92.861
-79.3819
-2.4406
27.8714
-5.98253
35.5398
92.4992
66.3926
38.2486
23.1634
0.263869
10.9908
-0.0831041
-43.0919
-139.521
-262.71
-248.476
-82.7138
56.0261
62.5506
57.1207
136.067
273.4
296.725
134.07
7.56041
-57.0202
-52.449
-15.052
14.734
2.87955
-78.6921
-134.219
-93.757
-71.3271
-80.6209
-95.156
-77.2118
-11.9954
22.7933
16.2508
-38.6493
-119.381
-106.599
13.5971
57.4724
49.9911
24.9486
4.51775
35.149
101.011
172.428
178.852
108.3
67.5084
39.4161
-13.2475
-121.473
-163.544
-50.8025
59.4459
43.7924
-80.4195
-185.192
-156.245
-101.565
-68.9226
-24.4604
35.3333
86.0452
113.191
119.773
134.271
146.38
56.1966
-28.3434
-51.3895
-6.39669
53.2712
-7.25575
-86.8642
-5.39493
178.103
343.647
138.478
-153.486
-207.255
-90.3691
-27.6002
13.8871
-2.59622
-109.077
-202.754
-212.698
-164.533
-111.101
-52.3534
49.3354
119.999
123.179
108.161
46.9591
-45.4692
-119.704
-30.7507
72.6812
53.9281
-80.3313
-137.686
-94.761
-33.2141
27.6769
54.241
86.395
163.11
191.749
177.004
137.002
146.015
122.909
36.212
-40.5856
-98.5566
-140.611
-46.9092
64.4898
117.024
116.014
57.727
-35.8705
-89.2349
-94.9751
-73.956
-93.2997
-120.666
-145.968
-110.115
-43.9665
-73.2835
-122.846
3.5929
103.825
47.3342
-53.8833
-102.826
-93.2764
-63.9878
-32.4019
6.64436
-5.37564
62.3838
215.502
208.606
88.3729
5.76042
7.2867
26.3454
-1.45038
-50.4866
-70.9393
-117.74
-83.3667
95.1063
258.826
162.024
60.5824
37.7636
29.9074
10.8517
28.4826
9.37072
-87.9928
-105.132
-41.0102
-7.47829
-7.9561
-74.3684
-117.951
-91.2617
-17.1158
5.74982
-35.5342
-74.1156
-107.736
-37.7773
29.4807
-9.70864
10.3298
93.9649
101.459
61.1992
47.619
61.3241
90.2259
85.8608
68.6479
35.9505
-4.61424
-44.7126
-39.3277
-59.3203
-83.9659
-120.957
-126.939
-47.1571
14.1588
88.6712
115.205
100.688
121.744
121.619
75.2203
94.7465
35.0657
-98.6761
-236.041
-251.997
-134.403
-36.2768
-31.2406
7.31831
29.886
-7.90691
-43.3271
-5.08308
70.1564
78.3024
23.5813
-50.0554
-115.611
-124.032
-96.7354
-92.8226
-117.467
-67.5767
46.1479
255.668
466.663
416.044
325.677
289.159
142.708
-47.4059
-187.917
-254.603
-241.904
-204.986
-161.886
-119.532
-90.0913
-98.1457
-111.034
-36.3634
69.4594
61.6008
54.0771
11.8334
-116.927
-140.605
-91.4571
-56.2862
-28.5707
19.1649
78.2694
145.022
164.452
136.999
85.6551
65.1289
85.5154
126.234
129.456
68.7512
64.8237
128.294
97.3485
-33.2726
-176.472
-200.451
-154.495
-147.117
-98.756
-38.5202
-8.2046
12.549
14.0712
11.5277
9.57506
-18.9023
-67.1825
-103.813
-87.8434
-52.5415
15.1949
29.2925
35.2891
35.3951
20.0179
16.5077
-10.6952
-52.5225
-44.5259
15.4627
83.4901
121.045
86.1168
46.956
43.8313
63.7163
77.5085
66.877
7.34008
-86.087
-121.326
-68.1829
-4.75805
-39.6722
-146.47
-130.691
55.8327
217.4
274.508
186.789
128.078
10.269
-108.022
-155.757
-145.159
-107.66
-79.1796
-70.1738
-39.0668
-20.9995
-56.6074
-75.3741
-57.3389
18.1331
96.0667
125.173
79.0118
18.5225
-24.1439
-63.4528
-148.873
-113.816
35.4111
114.813
83.1766
-4.59592
-17.9399
16.9222
38.3883
37.9347
-4.23694
-23.2511
-10.6836
54.1044
110.816
91.5703
35.2524
-16.4226
-37.2025
26.1326
78.301
56.1232
28.4752
45.8235
53.8681
-0.184934
-90.8124
-134.295
-130.52
-74.2159
-8.04155
33.5655
24.0022
-64.9912
-91.408
-39.5009
-59.9906
-99.0836
-97.3815
-61.1286
-5.07739
30.7086
-4.73013
-79.294
-99.1241
39.8765
234.233
420.48
351.187
24.2883
-154.275
-108.264
-38.1394
-1.08476
31.9177
87.4997
127.603
40.9917
-63.8804
-95.6678
-107.247
-79.4713
-6.35225
65.3112
86.7176
33.25
-71.2323
-207.551
-234.066
-112.08
-41.5672
-120.248
-199.804
-144.784
-47.7007
82.7693
157.709
224.412
219.59
81.0999
-27.0527
-40.8161
-19.7014
89.7647
184.462
181.14
125.177
39.0641
50.479
121.395
135.576
121.034
89.2896
19.0886
-38.7429
-138.003
-237.585
-289.609
-249.144
-147.819
-61.8511
5.6938
31.3886
-19.1243
-64.7244
-39.0821
-3.1059
19.6777
-2.86864
-31.1356
-99.3328
-125.91
-4.26827
211.943
388.6
229.26
50.2614
-4.55032
-58.2218
-94.3745
-88.1975
-65.0295
-56.0161
-27.1751
59.7758
-18.8672
-85.9039
-83.0945
-48.6994
44.2305
199.36
293.886
203.303
-117.61
-392.053
-318.027
-214.764
-154.513
-64.6848
37.6871
129.047
176.499
206.974
196.694
120.96
109.986
62.7615
32.1697
69.7
58.8959
-2.8488
-62.9624
-70.5497
-23.5381
-23.1098
-45.5303
-39.8945
6.29037
70.6452
107.187
76.9247
11.3713
-46.1696
-110.969
-140.757
-104.413
-87.6413
-112.054
-82.2675
-22.454
8.13894
15.7526
-12.8231
9.98918
35.4161
34.6873
42.523
65.9026
104.179
117.258
63.5605
-14.6907
-101.891
-177.359
-251.032
-243.225
-103.535
40.4158
116.133
136.161
148.882
119.061
72.6222
52.6796
66.7863
80.1162
149.333
94.1902
-55.8606
-112.417
-64.8433
-50.0984
-58.6257
-23.7357
21.692
208.111
309.083
65.7274
-160.562
-213.293
-179.117
-113.255
-34.5314
-2.58333
10.8935
-21.5156
-66.7291
-31.3438
0.278338
-18.2328
-63.8037
-65.0985
29.9489
105.505
132.37
39.2554
-97.088
-52.7923
27.8636
14.8713
-57.2091
-79.4129
-22.9478
50.8562
59.4852
59.7605
1.88631
-55.8236
-3.08835
64.5121
138.949
177.054
134.858
67.587
22.2355
-7.69333
11.8848
57.0896
57.7721
4.28484
-103.492
-196.822
-245.525
-247.317
-249.184
-240.603
-38.0901
305.041
489.357
403.857
99.9476
-83.1024
-141.882
-134.526
-114.532
-108.611
-100.991
-55.9831
-25.9552
9.63703
80.1512
146.823
139.42
72.9897
39.2881
42.879
-2.12131
-153.518
-259.785
-207.25
-61.1759
13.7078
-11.6115
-56.0209
-79.417
-91.2794
-48.7189
38.7919
66.7449
106.187
136.413
113.723
49.2273
11.3928
68.0504
202.365
157.13
14.3206
-79.3192
-52.1218
6.00993
46.6646
86.5117
119.19
120.996
54.3567
-26.6609
-82.0627
-85.5687
-83.296
-5.93307
94.2499
114.061
45.1684
-84.0832
-225.448
-303.182
-314.176
-275.007
-200.841
-57.1227
94.5078
265.945
303.247
209.915
135.904
73.417
20.2337
-14.7099
-24.7169
-62.3083
-198.702
-278.001
-172.338
35.892
228.177
235.251
244.857
200.449
69.6721
-36.0731
-140.473
-265.823
-288.224
-195.04
-97.597
-19.5654
52.5037
133.882
160.814
116.866
86.4533
113.668
101.518
-11.207
-170.658
-172.661
-109.05
-36.585
38.4805
77.759
85.3639
81.4418
73.5908
85.0824
71.2841
52.2927
-2.13132
-63.7478
-76.0667
-71.3867
-42.0973
78.7328
212.151
210.601
85.4939
-21.9567
-109.41
-171.758
-162.553
-67.6486
-35.5469
-25.8952
-12.0942
-4.54331
4.04635
-39.537
-68.3003
-48.1127
-61.4827
-63.1406
-27.7183
-43.7461
-112.05
-135.406
-112.865
-76.1818
-21.5065
122.345
280.846
321.27
330.343
234.52
99.0046
23.7501
-16.9163
-42.7877
-70.2134
-125.231
-218.019
-268.045
-227.945
-117.783
79.7352
240.872
221.34
218.911
240.822
191.282
37.4399
-81.3737
-168.317
-236.535
-265.924
-230.491
-155.539
-122.918
-76.8881
35.6352
128.187
173.057
173.965
106.701
-13.9351
-120.703
-57.0327
-6.60552
-25.1481
-35.0513
-20.9978
-16.0183
-8.90946
7.60745
27.8596
31.3447
33.9975
40.7293
132.798
152.45
103.465
81.9792
80.1771
64.6319
55.6481
61.4501
27.7282
2.66854
-39.1373
-167.045
-276.226
-300.329
-260.6
-150.914
20.2526
189.779
297.99
281.925
108.352
-67.0852
-120.483
-115.345
-98.4588
-109.128
-131.627
-78.5898
10.7743
49.4227
76.9614
94.9111
100.619
69.3334
58.9334
86.2631
69.2954
-11.8453
-90.5999
-59.3192
-57.5364
-90.5646
-62.3148
-47.5285
-63.3626
-137.066
-184.508
-108.432
47.1644
351.124
457.016
321.963
215.099
151.293
14.0735
-136.193
-196.051
-182.587
-168.144
-139.761
-61.2825
19.8714
62.3377
34.1456
-47.02
-3.80219
-5.43578
-39.3188
-64.5297
-207.526
-242.66
-120.803
-59.9867
-46.0493
-29.9248
13.4766
88.1811
124.083
121.514
152.452
246.84
270.365
142.672
59.8631
101.265
123.713
55.6916
-47.8865
-160.429
-198.237
-161.346
-109.393
-71.1442
-29.2295
53.4758
106.206
73.4914
16.2511
-65.3907
-151.984
-220.515
-188.415
-29.285
92.1643
113.379
102.488
101.204
49.3278
-15.3656
-40.2885
-67.8071
-83.2701
-73.435
-19.701
100.167
193.771
118.018
45.1508
-5.27649
-72.6811
-4.6012
177.06
307.794
155.272
-53.7736
-164.789
-174.001
-165.982
-141.796
-121.233
-42.2583
23.5969
-10.1396
-92.4238
-104.702
-120.024
-138.475
-117.243
41.3641
150.049
112.49
13.6364
-79.5683
-11.9852
100.034
134.481
92.2404
60.653
109.63
124.289
61.9667
24.4428
80.6103
154.004
116.063
53.3239
53.9677
23.2932
-66.8992
-126.422
-162.746
-190.106
-218.215
-160.127
-60.8946
6.15352
61.4504
103.375
85.6199
54.6767
56.4118
40.0827
-56.208
-146.212
-132.955
-75.9674
-27.846
-17.6804
-4.55007
42.5821
19.4379
-15.5448
30.6117
100.03
92.5377
49.9732
72.89
101.441
72.2928
31.1763
9.59213
-12.557
-59.86
-79.7762
-93.5371
-104.08
-92.2022
-66.98
-20.7698
-42.3597
-63.9474
5.50761
137.046
268.788
138.04
-12.6242
-38.039
-15.7738
-12.0913
-19.3562
-20.2998
5.16294
53.8272
21.3088
-52.0337
-60.251
19.8928
84.9992
75.6037
31.1355
-10.6266
-57.0131
-172.588
-284.761
-190.977
-54.0562
16.2852
45.3473
100.492
156.69
109.382
15.7992
3.38334
64.5929
65.182
31.3795
8.37165
9.40473
6.6648
57.7684
90.3149
54.5257
-6.34476
-43.4818
-35.3821
-31.8525
-51.0836
-128.847
-149.098
-165.277
-155.865
-59.1851
33.0894
74.1657
101.884
116.717
115.537
120.879
50.121
21.7076
74.4592
73.5629
45.2424
13.7823
11.2795
-16.1705
-72.4553
-113.787
-165.426
-194.883
-126.107
-33.4899
52.4461
113.554
93.1017
65.5049
54.0087
11.1101
-36.1851
-44.7486
-62.4876
-83.8107
-25.4025
78.6433
111.298
132.687
107.422
94.1834
103.566
45.574
-113.776
-236.764
-207.624
-131.236
-54.83
-15.3
-0.0663389
18.6297
33.602
-28.3613
-25.3758
122.261
344.562
314.898
127.271
34.3752
25.2966
-38.9922
-171.127
-197.83
-58.2865
97.6507
109.148
34.0117
-69.3308
-137.314
-161.082
-172.352
-136.54
-83.5827
-131.945
-238.516
-324.195
-247.01
-50.5292
76.2261
222.174
376.302
382.469
244.606
117.401
72.253
53.0439
13.5371
-18.3443
1.86616
96.2038
139.184
144.753
193.779
255.208
115.179
-118.227
-279.563
-298.583
-192.746
-103.915
-135.869
-199.535
-188.915
-103.411
53.6402
244.012
198.622
56.2957
-0.0776675
-89.5804
-137.672
-124.643
-104.11
-80.5087
2.44786
49.7097
48.8401
77.8312
86.8899
5.67382
-30.8356
60.5966
152.69
117.431
-9.48588
-97.9243
-35.2121
76.2958
90.1859
26.8221
-45.0724
-89.224
-144.043
-96.8268
27.6293
104.922
128.002
70.0774
-74.591
-95.0642
-47.9039
-21.0978
12.7375
32.7638
-6.00578
-92.7461
-91.6213
9.63212
83.909
129.274
156.451
181.581
193.189
113.294
12.2149
-61.1208
-94.0746
-77.2371
-36.1674
-49.2917
-82.8325
-47.4253
-7.34838
-1.92256
-36.395
-95.9244
-132.609
-140.121
-158.38
-132.249
-30.4111
95.4851
205.225
250.055
148.932
-38.4764
-224.664
-260.92
-42.6632
220.745
202.92
76.5726
8.58391
-37.5609
-49.644
-74.6082
-101.026
-35.2555
-0.004064
20.1773
60.8422
44.4602
-48.2835
-135.687
-147.423
-14.381
180.075
232.94
107.29
-66.3814
-52.3351
-1.03277
8.25454
37.9496
22.7983
16.9669
73.0847
91.2073
112.27
92.107
7.30203
-38.7407
-67.3969
-77.4262
-23.3798
61.7537
92.9436
95.8523
72.9514
-13.9585
-147.201
-194.259
-136.377
-123.146
-109.361
-64.186
-42.0164
-12.4671
21.9724
20.7089
-0.206443
-27.0341
-1.06388
39.7958
61.6793
33.2561
22.7497
8.41768
-56.4937
-76.136
5.72209
94.5736
78.1728
28.9213
27.6642
116.993
276.283
188.935
-125.772
-290.409
-217.661
-79.5388
-6.34858
24.8034
65.8437
111.999
41.8438
-109.002
-177.444
-131.311
-25.2927
26.1508
51.0622
144.638
179.027
95.3587
-34.6398
-69.4818
28.6839
93.8463
36.6075
-77.6499
-100.473
-69.9848
-53.4974
-66.4651
-7.82314
85.9672
114.993
36.9694
-31.7746
3.29866
62.7897
87.7011
102.715
71.6696
11.1494
22.6461
23.789
-45.338
-118.41
-185.466
-171.085
-112.655
-65.9974
-16.4367
9.33947
-16.542
-25.9028
27.318
49.4318
100.607
81.5163
9.75776
-44.3737
-85.3369
-86.3706
-12.5551
101.804
177.296
192.206
174.857
129.859
41.0906
-82.4137
-133.51
-83.3585
-24.8096
-13.312
-29.0171
-17.6801
-94.3026
-65.6435
4.83334
-24.6119
-54.0635
-46.1155
-65.5802
-102.254
-125.86
-86.6128
-40.4711
-3.41764
75.4031
166.968
201.377
212.855
153.626
21.2283
21.2316
214.299
297.232
56.4118
-126.127
-176.161
-201.538
-213.298
-216.17
-187.602
-113.869
-16.9533
21.8389
11.3385
20.2079
67.5525
29.427
-56.7171
-37.3409
37.6905
33.9425
-61.2404
-119.121
-34.628
-25.7346
-38.5824
60.4775
141.162
150.656
143.84
161.514
184.976
250.87
222.729
112.043
39.377
8.02575
-24.6565
-14.9261
-17.2287
-102.932
-281.69
-408.022
-397.784
-161.885
68.7264
132.28
66.5939
-5.5114
33.7873
101.296
59.2906
3.67447
2.85264
-3.92699
24.9192
-46.1686
-112.003
-94.1483
-53.4982
-33.9487
19.7198
118.004
163.852
84.1184
25.5235
26.0856
2.8874
-28.2237
-76.3313
-123.944
-153.284
-152.531
-127.058
-60.0935
31.117
152.407
263.095
260.685
120.724
12.9472
-59.3864
-71.2875
-71.8426
-87.8736
-43.0562
21.9165
107.521
167.147
184.712
143.769
53.6364
-33.2645
-97.0545
-180.086
-213.108
-180.557
-149.822
-80.9323
23.695
86.7321
137.951
146.852
164.2
147.127
90.5394
33.9181
2.32754
-58.257
-152.076
-208.026
-177.359
-105.066
-28.3261
44.3823
-15.303
2.46513
28.3334
-9.07223
4.53871
29.2981
3.48182
-26.5341
-15.4841
-49.3318
-49.1469
17.5303
79.4277
126.406
193.83
204.563
157.153
52.1558
-80.3183
-101.539
-66.3568
-139.948
-150.536
-42.2754
96.1232
200.092
141.413
19.2437
-47.2889
-64.2917
-108.984
-222.428
-342.509
-355.308
-197.197
74.8906
337.755
338.005
221.289
117.264
22.4257
-8.30406
-49.0878
-71.6101
-119.156
-210.334
-169.509
-59.7127
13.9588
41.2027
45.6294
119.417
183.423
229.845
174.959
75.0518
-20.6519
23.0884
105.104
61.0643
-35.4954
-80.1099
-66.5355
-57.22
-47.8168
-36.3047
-19.9143
-7.02508
53.2018
77.6713
-15.4558
-85.5933
-93.0564
-100.159
-102.595
-105.056
-118.73
-101.209
-15.7092
81.3953
150.217
169.454
135.173
18.1618
-83.8908
-100.344
-31.8607
27.0744
13.6964
7.60066
0.975406
-39.8486
-42.5627
-71.5543
-68.1946
-38.7369
-3.89233
17.8659
65.4838
126.93
167.461
118.353
-7.90691
-42.8953
-14.6371
-14.5668
-65.848
-164.683
-254.046
-188.83
65.9267
343.157
341.808
254.326
184.632
82.8834
-89.4822
-240.464
-268.061
-230.973
-204.359
-140.566
-40.832
37.1329
118.499
180.751
163.834
146.251
124.867
53.8602
-85.4307
-238.744
-175.164
-38.295
20.787
59.3845
97.8433
93.0574
55.7804
1.20744
-31.2791
-1.9124
44.7038
36.5881
-1.30112
-37.1044
-2.94049
44.5588
74.5994
96.8779
104.229
52.7207
-1.19132
-34.0483
-68.8383
-128.592
-188.16
-211.462
-234.403
-175.319
-70.2701
-64.4418
-7.4609
86.1248
132.543
107.971
79.5336
91.5238
117.672
101.782
77.7188
-12.903
-65.2899
-72.044
-71.0267
-48.7342
8.85275
118.153
201.833
157.859
80.0664
49.1281
-10.5014
-90.5211
-145.899
-122.414
-69.0657
-35.4365
-60.8594
-44.3173
-51.0647
-41.3779
-22.5415
-14.8012
-71.7657
-75.1905
47.8596
232.455
255.262
103.228
-57.7123
-107.078
-65.9662
-2.60508
8.75128
21.4299
-28.8069
-119.923
-55.989
137.032
347.177
262.794
66.9017
-20.3382
-21.7873
-55.2089
-119.164
-158.782
-128.893
-68.4736
-45.8232
-52.751
-78.5686
-120.414
-121.918
-84.7465
-7.80585
86.928
114.369
17.8042
-116.822
-74.5335
27.3789
67.887
115.213
129.859
85.7912
18.6646
-36.8263
21.2716
81.7822
54.5155
-21.7849
-80.0639
-41.2443
62.5219
45.7416
6.48039
-18.4373
-44.37
-42.8998
18.66
34.5452
-13.117
-106.501
-216.971
-143.872
-2.41347
25.7241
-13.4935
-16.3167
53.8531
151.696
210.157
197.939
190.057
205.102
108.499
-27.3441
-122.103
-156.753
-131.076
-60.3179
16.6832
86.1086
134.555
68.2931
-49.808
-106.746
-177.548
-256.763
-259.483
-164.875
-61.3565
1.49147
-38.2272
-79.3923
-32.1809
58.5135
249.866
380.138
231.71
97.0378
28.9509
36.854
19.2713
-109.186
-136.956
-78.6317
7.75024
112.903
161.644
89.0794
6.28606
-78.4102
-127.636
-117.497
-85.6479
-105.238
-195.355
-240.99
-151.582
-95.5131
-41.1456
-10.9335
40.2481
123.559
144.944
157.269
231.197
240.233
120.401
47.0522
105.117
131.73
65.8646
-23.9457
-18.8682
19.4917
-66.5457
-161.998
-173.38
-143.165
-113.029
-41.5259
32.943
35.8847
-24.7423
-107.277
-119.047
-32.8854
42.4683
107.322
145.659
152.194
152.212
126.957
-6.94782
-164.861
-255.75
-241.994
-140.25
-10.3401
59.4268
67.37
92.9051
142.648
154.527
171.849
133.096
64.7438
61.0308
19.0048
-76.5346
-146.657
-157.754
-108.167
-31.9862
33.5857
63.1048
16.3647
-17.2258
-47.2506
-46.6008
-53.8258
-57.2783
-69.7773
-88.5264
-126.559
-167.272
-115.787
87.3129
325.868
273.462
115.87
31.9395
7.75795
-42.1744
-85.4155
-84.0863
-75.3281
-65.5913
-17.6537
26.0125
50.922
50.0342
18.6521
36.5999
88.4366
130.256
117.553
12.7725
-137.141
-233.162
-267.387
-211.122
-112.521
32.951
171.146
261.22
216.175
126.443
65.4813
27.7533
-27.5313
-69.6647
-59.9086
-37.8314
16.6116
91.4152
129.319
84.3809
-52.9107
-154.622
-177.761
-170.221
-89.0942
-2.46047
115.949
243.881
303.561
258.321
102.036
-20.8202
-63.3814
-77.5352
-59.5083
-75.8602
-141.618
-185.534
-219.855
-241.516
-217.136
-76.8836
76.1523
107.66
44.9986
2.60125
-54.4523
-152.058
-171.821
-83.6643
33.5573
70.7318
11.41
-61.4329
-19.274
174.203
407.902
308.69
159.907
138.065
45.0634
16.9747
27.8481
-16.4328
-45.7477
-42.6815
-7.5024
-1.45974
-15.3876
-33.6434
-40.4873
-29.3606
12.6726
56.8256
40.9847
-60.8622
-165.077
-121.905
-45.2841
-25.1858
54.9265
142.492
138.444
93.5738
-48.4345
-216.57
-238.878
-151.004
-38.1361
13.6498
-38.0388
-83.8489
-24.0157
30.1766
19.2621
-52.9491
-83.1286
-36.6895
20.963
79.3911
129.468
129.287
161.776
220.956
232.006
199.345
56.2039
-60.7818
-80.1489
-57.4465
5.04471
112.555
227.236
218.756
48.0875
-142.481
-298.643
-318.955
-251.075
-260.816
-246.946
-218.589
-202.392
-132.892
20.6761
178.414
231.69
170.595
97.3735
62.6158
48.8351
17.0305
-59.8143
-60.7293
18.2279
98.0908
132.895
40.7117
-114.062
-106.233
153.98
355.663
239.1
82.41
19.7814
-18.3741
-70.6666
-109.238
-162.563
-217.137
-189.083
-149.498
-149.099
-110.538
-6.19275
107.165
223.673
313.702
333.016
222.855
-79.571
-285.648
-246.765
-189.793
-147.291
-66.8173
23.9748
112.643
182.121
193.053
129.292
38.293
3.83354
20.4125
32.0122
39.0712
-42.7703
-148.303
-159.078
-104.907
-78.6626
-74.4551
43.5983
216.597
214.314
59.35
-67.332
-115.392
-105.653
-78.5119
-44.1837
-4.45471
2.11963
-36.6414
-22.0102
9.51129
0.479938
47.4882
57.4809
-3.94754
-114.684
-144.962
-79.2763
6.16625
27.7093
62.4678
87.1976
29.7094
-24.2807
-1.99204
66.5646
97.5118
84.4294
63.4278
42.8538
9.60222
-32.5693
-43.5279
-8.22723
48.3069
43.1304
-59.5265
-160.567
-169.573
-74.4649
62.6488
88.9399
101.21
97.7274
82.3879
42.2876
10.6769
-17.5385
-44.106
-48.8479
-37.6072
-14.5421
21.5479
26.2755
-16.5413
-17.2106
62.536
115.102
33.3911
-57.8798
-89.0199
-45.728
15.2685
41.535
12.3828
-61.8138
-115.995
-114.157
-60.3158
-63.6415
-51.941
71.601
240.096
278.22
190.499
53.7927
-28.4479
-55.4486
-129.513
-169.86
-190.531
-166.76
-101.287
-119.787
-195.902
-130.633
50.5758
281.983
328.623
152.99
13.1691
-78.5112
-174.884
-170.431
-27.3644
170.819
227.116
194.258
134.372
70.5155
8.13454
-64.2668
-136.783
-118.943
42.019
87.7034
12.9414
-108.11
-142.166
-112.569
-92.1033
-102.627
-79.0513
-43.9864
-81.9853
28.1904
150.994
135.6
99.321
86.7212
97.4473
129.631
157.478
185.798
186.404
134.004
9.73206
-124.089
-159.801
-104.238
-97.871
-95.6368
-113.745
-118.238
-92.1677
-112.013
-115.385
-69.8552
-5.397
76.7337
122.487
79.0043
-43.7583
-73.2141
-86.978
-70.6427
-20.6909
24.3601
55.9552
92.6412
92.2496
56.7611
5.47675
4.86795
64.9525
59.1093
17.4027
-21.238
-40.5698
80.9403
163.734
36.1455
-31.3118
-76.4325
-84.6066
-62.2192
-85.7723
-143.465
-154.553
-75.4109
23.6777
97.1347
126.228
105.906
39.3126
-94.1204
-139.539
-103.454
-41.2897
-55.6961
-78.6076
35.6042
121.311
174.583
169.057
113.71
83.3264
68.3493
23.9752
-10.5183
-3.63293
31.0839
67.8548
64.5727
70.7953
82.9008
67.7539
59.7579
37.3081
-29.2394
-155.468
-218.781
-188.274
-197.968
-204.589
-220.137
-225.649
-98.7978
10.5757
167.803
355.699
242.619
-2.69378
-119.674
-147.652
-88.7878
-0.218849
101.101
185.088
127.613
25.1349
9.97388
24.4261
29.6943
31.4782
39.4665
82.4653
53.0084
10.8274
-62.7492
-157.958
-122.483
-52.7456
-20.5239
-15.9658
-0.587462
-1.79627
-26.9759
-63.7948
-57.2797
7.62704
27.391
-30.7465
-64.0279
-68.9649
-3.34031
40.0928
71.6293
127.965
113.124
27.3602
34.2985
108.781
140.983
111.548
28.799
-52.8295
-94.062
-117.457
-126.676
-69.4308
37.1243
104.952
105.055
70.509
51.8684
41.0822
-8.45351
-53.1096
-75.2012
-60.916
-74.4379
-120.672
-194.647
-184.516
-84.7789
-8.34571
-92.2985
-136.274
3.24031
28.8042
5.6678
82.5477
120.531
91.2727
84.8028
184.081
410.589
399.699
143.108
-73.0144
-164.278
-134.688
-99.2053
-87.634
-90.5954
-15.1788
177.746
138.772
-62.514
-81.4673
-37.8714
-37.8018
-51.9905
-84.3847
-93.7229
-124.859
-247.545
-256.489
-173.793
-142.094
-71.2892
58.0884
144.907
154.808
120.245
49.5473
-52.1661
-25.2812
55.9244
138.7
174.864
149.61
135.422
166.816
135.411
65.4101
-8.61953
-26.9367
34.5867
108.082
135.525
80.0894
38.7622
-14.2641
-72.9898
-174.18
-218.779
-98.2887
53.1059
-59.4556
-197.604
-268.362
-239.513
-96.8391
-49.674
-18.6589
11.4963
5.92165
44.0892
81.973
96.4738
40.9047
-2.41626
30.6668
36.5729
27.161
-12.2967
-12.6734
69.5725
156.305
152.839
125.016
66.9518
-66.9957
-76.9178
-43.126
-77.5872
-53.5404
-8.79259
-3.62692
-25.9196
42.8527
107.144
25.5565
-14.4311
1.13661
6.90153
-86.5761
-222.394
-188.247
-65.9121
-5.28483
40.9187
117.766
147.386
135.291
114.744
77.5084
47.1435
18.7002
-9.40173
-72.2822
-139.984
-86.3919
-9.43353
37.4878
85.6144
113.622
50.3746
-15.4825
-57.7043
-53.4355
-27.9581
-40.4316
-21.6323
-5.11687
3.11284
-22.5066
-128.439
-111.949
28.4155
224.237
311.351
198.757
60.4539
-46.2529
-127.616
-196.862
-200.082
-157.664
-125.483
-76.6067
-34.4809
-52.1116
-88.9964
-88.0334
-38.037
1.32253
81.2714
133.936
82.7508
-53.4498
-120.978
-24.5497
81.6707
136.804
171.604
206.644
293.543
327.045
188.606
40.4778
-65.5249
-170.988
-174.613
-130.375
-81.6056
-78.991
-65.1923
-37.9087
-17.0581
-67.861
-133.267
-119.922
16.2206
150.356
155.144
95.0724
-42.767
-111.598
-39.5332
-5.2613
-45.6299
-67.4727
-61.952
-18.4012
-15.688
-36.8132
-18.1622
-0.00771851
-0.286918
-31.3873
-59.3408
-18.2286
77.2782
263.741
268.434
113.734
8.58725
-32.6473
6.46141
23.7167
1.27632
25.4172
6.79292
-69.6033
-60.9537
6.50032
9.0186
-23.1504
-42.9238
-18.757
29.0193
18.0666
-109.14
-317.965
-332.726
-179.384
-38.7569
52.5735
68.5842
76.5548
68.6545
100.273
109.188
103.433
115.384
104.926
32.112
-23.1383
-58.0663
-46.5263
64.2108
221.241
194.104
48.4404
-19.806
-45.3262
-106.747
-147.515
-137.415
-70.996
52.9403
158.72
201.087
181.228
60.6846
-65.4246
-94.064
-147.788
-222.849
-225.735
-150.032
-72.8456
-11.0674
53.9426
35.9446
45.3071
102.259
83.7372
34.2945
11.2181
14.4226
-20.6794
-70.7119
-99.1416
-113.739
-70.5947
7.41774
79.398
157.874
186.42
154.792
92.7856
3.82844
-44.5683
6.67033
64.461
28.3914
-60.1569
-88.796
-122.507
-174.509
-167.067
-119.886
-77.4593
8.95045
110.381
161.681
162.153
148.734
116.717
-16.4423
-224.768
-312.248
-242.514
-129.848
-76.6914
-3.38521
208.159
469.31
533.623
326.249
147.328
27.2428
-23.9684
-81.9421
-125.944
-149.998
-152.761
-102.771
-45.605
-80.2057
-133.283
-151.111
-95.8554
-25.6842
46.943
125.216
148.201
-33.1957
-221.454
-219.397
-131.316
-20.4749
45.0574
66.3827
60.7218
48.6155
4.24232
-84.7284
-178.027
-140.017
52.287
223.331
219.424
181.828
161.216
87.4954
10.1052
-17.6335
1.75084
13.645
-0.802151
49.6319
71.7955
90.9216
106.648
120.377
40.7746
-64.0447
-126.705
-135.488
-152.782
-123.894
-152.577
-233.741
-244.825
-193.306
-129.211
-69.0968
46.8457
206.63
230.044
92.7978
-21.5416
-38.6406
76.7964
257.284
271.869
235.727
226.435
209.803
135.777
15.1435
-72.499
-122.063
-150.091
-124.615
-182.915
-228.534
-223.681
-177.318
-126.042
-78.5247
-18.5851
38.8325
1.88799
-105.916
-57.8906
47.5534
106.954
102.805
69.0879
56.6436
66.2086
86.1514
49.1162
-43.416
-76.8393
-102.331
-99.5269
-53.3643
16.1779
123.134
231.941
280.276
243.815
103.73
-22.5048
-94.9281
-107.701
-82.6072
-21.2127
16.3549
15.7518
16.3535
5.92368
-29.4371
-123.212
-160.986
-121.984
-98.667
-49.7139
16.9477
-67.1603
-155.843
-144.975
-46.6284
102.015
199.167
191.711
147.985
35.271
-118.894
-102.149
-4.37436
45.0386
51.558
92.4566
114.617
56.7014
35.9681
83.3633
195.132
211.908
-5.78531
-121.32
-144.6
-148.21
-173.444
-155.548
-102.344
-14.2976
102.12
115.8
78.8217
48.8998
-15.7535
-48.8486
-52.0391
-25.0115
-3.13128
-16.3098
-92.7169
-73.449
17.0585
2.26501
-53.9197
-93.5982
-87.8791
-50.5911
23.1155
47.8973
9.00792
-27.2058
-68.6551
-60.3332
22.2147
76.4795
95.1221
121.833
111.47
69.8105
-1.09972
3.69122
148.366
202.79
110.334
33.4103
16.886
-1.22802
-66.8588
-87.0703
-10.0315
41.8327
38.7734
-3.70493
-43.0731
-60.6833
-55.9469
-67.4354
-64.9995
-62.0744
-86.3861
-124.222
-198.665
-236.363
-105.519
65.1272
130.497
138.841
72.7327
-49.7246
-83.7952
42.7996
224.144
159.501
31.9095
24.4969
76.1354
90.5144
48.1477
-20.8625
-56.7016
-57.2539
-60.8531
-81.3364
-130.707
-132.237
-53.3017
17.6762
80.5258
129.4
127.382
58.7866
-15.1831
62.1828
100.165
78.3826
47.5665
-5.87334
-46.7013
-121.274
-184.212
-135.276
-88.9481
-48.9583
10.8911
53.2697
64.6854
58.3992
90.0697
135.278
98.9561
-6.60386
-143.502
-175.655
-109.35
-62.371
-6.15511
41.3928
125.622
217.347
159.551
5.26113
-64.1751
-52.802
-15.0268
21.5659
-19.5445
-56.736
-89.4493
-126.26
-135.529
-146.742
-126.178
-62.4633
-23.0194
45.6277
73.8572
37.2254
-7.5969
-38.3136
-14.596
18.2343
86.2816
186.15
194.351
48.2105
-17.881
70.8389
260.518
273.056
121.986
31.8021
-1.3901
-38.2357
-49.2263
-78.274
-96.9018
-72.7542
-92.4232
-109.386
-99.1777
-75.8237
-80.6384
-103.342
-101.438
-52.2345
-75.3414
-107.651
-106.238
-22.5757
95.5198
139.622
154.434
181.162
136.826
39.5098
-46.4991
-58.844
-27.4796
-12.891
-9.50605
-45.558
-80.7196
-73.1877
-40.2907
-3.56598
53.1283
98.8116
20.1342
-39.3289
-12.475
29.5196
28.1742
-13.5219
-46.6125
-75.48
-101.4
-33.7558
25.4741
97.4002
221.567
352.136
322.309
143.067
-8.36781
-73.3626
-91.2874
-120.538
-135.335
-131.487
-117.953
-131.539
-144.245
-129.137
-42.3505
30.7687
67.1437
21.6113
-38.9462
-115.05
-165.398
-148.943
-141.358
-115.708
-3.9231
171.775
391.051
322.334
160.116
107.894
104.355
110.436
73.2824
-36.0369
-129.328
-103.228
-24.7782
-47.7983
6.94189
61.6219
7.67249
-103.988
-127.97
-85.4043
-58.5147
-77.5483
-144.009
-120.636
-40.1838
41.1243
83.5221
92.0126
115.21
142.677
117.936
54.1583
48.7286
74.6466
21.9377
-14.0256
-17.0458
-11.0479
26.5827
78.3758
86.4607
4.36402
-113.333
-168.297
-176.047
-160.355
-133.664
-132.816
-126.755
-86.1195
45.3427
144.857
164.507
225.722
232.282
125.866
6.14141
-48.979
-76.1414
-142.874
-186.56
-133.89
-83.6716
-12.9271
-44.4579
48.6683
76.7527
23.4675
46.7145
179.618
303.094
286.726
115.365
-115.294
-206.177
-176.433
-115.971
-67.4207
-70.163
-50.8025
29.0164
58.9735
85.209
78.8539
32.5559
-23.059
-23.3206
-9.46511
-52.3722
-106.307
-137.184
-182.19
-179.853
-101.949
24.9814
235.447
387.838
210.658
92.8921
75.154
-25.7785
-80.1872
-102.938
-54.3038
51.3621
77.6225
2.90944
-23.4723
-6.98433
-44.6859
-92.1641
-83.72
-24.8867
45.177
54.2361
5.30809
-66.1525
-20.283
55.2282
36.6705
-16.7547
-63.8044
-73.7573
-91.2226
-170.509
-125.251
29.05
76.4654
22.4373
10.4593
73.9068
97.4804
98.1069
76.2131
135.627
168.391
109.683
77.5791
38.2148
8.12949
-2.85677
-16.2736
-38.8522
-100.408
-102.73
-82.045
-70.5798
-72.9298
-53.6813
-25.8382
-56.7336
-124.343
-149.862
-171.325
-207.493
-182.186
-76.413
82.3146
173.127
162.332
140.851
138.163
121.234
141.657
152.825
91.4807
47.0169
56.1491
67.1742
57.655
19.7034
17.0567
42.5694
58.4472
14.6773
-75.4858
-161.174
-163.172
-108.215
-71.942
-86.6213
-123.809
-135.023
-33.9849
146.416
257.792
70.1063
-63.8348
-67.3484
-83.6487
-55.3161
2.25865
22.6691
58.5495
62.0457
-1.59463
-43.845
-7.59471
-1.25435
26.4358
84.3428
134.325
109.406
2.5303
-133.544
-208.471
-105.729
-20.0758
-28.505
-31.7748
26.9235
65.1294
27.2888
-22.1759
-1.70423
4.57953
-10.3306
-25.9597
4.14569
56.3586
111.468
142.944
162.849
137.255
73.5077
-54.0818
-124.532
-168.022
-205.917
-151.197
-87.6069
19.4848
219.697
279.78
152.282
25.6984
-42.9368
-86.5101
-117.513
-134.143
-148.14
-140.356
-100.218
-70.313
-49.1472
38.1353
158.942
202.733
178.686
99.7562
3.09399
-92.0313
-195.748
-195.007
-101.046
34.519
110.776
107.724
113.337
80.2581
-11.3859
-77.3567
-96.0988
-79.7229
-63.0783
-4.19476
77.6625
117.749
61.3719
50.0089
56.7227
6.86039
-19.6364
-53.2278
-93.86
-68.056
83.3902
340.057
457.488
230.833
56.3759
-18.6856
-78.0168
-157.424
-211.042
-186.6
-139.214
-108.143
-116.214
-185.783
-277.378
-275.117
-173.757
-65.7164
27.8819
36.8727
43.8823
1.99175
-73.3237
-16.4028
102.855
205.228
244.666
251.184
222.992
143.242
64.9107
16.3975
41.9941
69.9514
94.5096
94.6521
24.4171
-46.3277
-92.5004
-96.1151
-104.128
-165.346
-149.189
13.2457
162.221
252.18
182.248
4.40093
-91.6518
-108.868
-130.739
-128.263
-99.9453
-86.5794
-57.305
-69.4783
-98.936
-75.9761
-39.253
-18.0769
-18.0587
-53.8021
-59.8099
-17.9403
-21.4564
-65.8537
-51.2969
38.344
120.195
104.613
111.17
120.845
138.581
138.375
129.265
139.034
93.4222
9.63687
-60.2627
-71.3241
-14.3831
24.5817
-28.7964
-79.0078
-178.094
-245.733
-116.365
129.68
366.664
235.229
5.14918
-50.2532
-36.2915
-24.3195
-30.7916
-45.0258
-33.1754
-14.4277
-7.0335
-43.6893
-132.435
-155.404
-90.2655
-32.6482
-6.99422
-0.803831
1.15347
-42.1237
-136.722
-50.8725
102.205
121.671
93.4384
66.479
-4.02303
-88.2695
-28.5747
42.7801
83.7358
96.4162
87.1403
71.3206
53.1829
44.7669
61.6587
66.7526
32.7459
-16.6452
-86.2932
-90.2576
-67.6285
-35.6534
-9.90467
-29.9217
-71.6131
-51.1026
-28.4234
-14.4621
19.8901
42.6615
55.9471
112.19
128.825
36.0621
-42.5237
-51.8633
-89.3346
-118.081
-113.823
-59.2
-22.9432
-38.4783
-49.5424
-14.7639
61.6632
131.234
87.2281
12.1749
-38.0585
-25.8132
-23.0898
-91.8994
-152.504
-134.635
-52.0393
69.1647
152.667
99.5606
38.2757
29.1787
54.5212
135.146
137.092
100.106
79.4561
79.992
58.6528
18.4748
-8.47365
-27.5927
-65.6651
-50.8666
-39.2027
0.703899
18.2676
-34.4207
-128.053
-186.667
-208.672
-110.182
60.8089
158.663
55.9593
-20.7712
-49.8673
-40.8939
-27.9768
-26.0035
-27.0477
-15.8191
3.95253
2.16436
24.6253
49.5123
72.5286
64.6011
51.6131
78.1098
62.4564
21.6113
-97.3142
-198.727
-70.6978
-42.988
-64.5561
-55.6434
4.68601
65.4329
117.403
139.872
138.608
85.4353
51.746
26.1221
-16.5062
-44.0831
-40.8857
3.21887
79.7775
75.1887
12.8092
-28.9143
-49.3256
-33.6592
-15.2871
-28.9749
-37.7737
0.638254
20.5559
18.4086
1.38438
-20.5765
-87.6823
-122.072
-99.7629
-110.495
-94.2562
-67.5389
-30.7258
-20.0565
-3.38465
4.29002
5.74282
49.7191
96.2409
79.77
22.7863
-6.95729
9.67136
27.658
18.4296
-23.8123
58.6235
146.688
122.461
142.344
135.231
59.5518
-22.6
-136.548
-157.449
-84.5653
-38.9398
-10.8154
-8.2996
-13.96
-13.1714
-0.68663
-1.59563
-66.8208
-95.064
-1.38535
159.456
314.361
196.603
4.15041
-55.61
-1.08068
13.1482
1.64675
-67.4108
-144.065
-185.732
-211.54
-165.545
-12.8845
115.624
66.4592
-37.1418
-84.3588
-95.1472
-48.2433
-58.3261
-124.545
-34.9111
82.457
88.9639
62.496
17.2006
35.8472
105.659
144.912
178.264
204.181
155.688
47.8806
-40.152
-36.7376
-1.99246
36.4736
54.812
23.5528
-60.4894
-147.249
-164.112
-177.927
-148.313
-88.0082
-9.49296
42.0768
33.8535
-12.1928
-27.2523
-26.0977
-3.26442
4.98662
32.4967
109.309
132.491
128.057
93.8197
8.39724
-115.676
-211.886
-189.519
-98.5993
-14.9663
47.435
121.772
114.483
70.4626
63.8468
53.4985
53.1117
53.9998
28.2248
-24.6148
-125.481
-174.253
-60.6054
129.211
273.429
161.229
75.6943
60.5795
-16.8726
-133.574
-192.341
-214.815
-145.605
6.70574
100.186
12.3061
-140.237
-164.209
-98.7837
-51.2374
31.0285
120.6
93.5592
14.525
-66.2942
-6.9822
55.6272
69.6969
81.9879
109.725
89.6731
63.6563
25.7882
-7.23623
-24.3526
38.0475
130.236
142.155
49.5177
-19.427
-57.7862
-109.098
-142.313
-211.815
-256.171
-127.878
-24.5967
28.1568
61.0654
97.1613
99.8339
105.506
123.436
69.0397
-47.8078
-103.832
-94.5886
-72.6895
19.7409
78.9305
100.23
70.4875
25.1835
5.58117
7.46997
15.2326
13.9448
-16.3604
-18.3475
17.4448
45.6581
13.4819
-99.5442
-197.324
-242.89
-213.628
-105.863
94.2205
268.38
174.038
41.9507
23.4316
20.3687
33.3827
48.6848
20.8998
3.54377
23.5488
67.7316
65.8226
26.9826
12.9764
52.0083
53.0615
23.1885
-29.104
-115.07
-204.232
-316.064
-284.772
-160.105
-23.5997
50.7217
112.407
219.992
289.426
192.218
22.1666
-12.8132
10.1187
-36.8926
-42.3774
-11.4062
-14.3693
15.0294
88.428
135.073
78.1083
14.5126
36.6678
5.4025
-42.6432
-58.7712
-138.089
-220.871
-241.058
-159.165
-25.2975
-15.0265
7.354
56.9926
30.8612
25.3139
79.554
101.176
99.0528
86.2708
55.9493
43.1735
52.3016
74.1242
72.1061
42.1747
21.1276
-10.2053
-57.9745
-65.2641
-43.1794
-10.9272
-27.8811
-31.5611
-14.6284
-55.2259
-114.869
-124.575
-118.141
-106.822
-71.5116
-30.6107
34.8037
89.5528
98.1836
81.5228
51.0511
35.0835
40.2284
57.238
63.5296
57.7177
8.65472
-24.5669
-19.6643
21.0525
57.5296
79.3659
92.5812
24.8697
-167.051
-345.818
-357.203
-103.166
208.985
435.79
432.105
317.263
133.599
-27.8757
-87.9581
-138.578
-166.819
-164.378
-196.957
-241.231
-204.547
-126.816
-92.4057
-8.05523
102.083
169.603
89.0473
-65.1449
-157.514
-225.823
-156.531
-73.3525
51.6658
163.304
183.085
177.769
175.386
182.896
181.283
148.574
95.1221
58.8611
58.4706
59.1774
76.8674
99.6139
96.8645
-5.63612
-122.898
-219.272
-239.66
-209.036
-172.681
-109.879
-61.9792
-55.8902
-38.3326
-7.31318
6.40217
29.0212
53.5725
66.0965
42.4299
-31.0434
-107.396
-108.845
-47.038
-24.7692
-108.909
-150.427
-61.3726
95.2465
324.124
386.814
193.188
132.576
165.598
116.101
20.0627
-41.8481
-102.461
-168.498
-177.388
-142.344
-84.1261
-40.4605
-37.4828
-41.0422
9.5977
58.8187
44.7902
-5.07821
-103.312
-161.316
-118.034
-99.4465
-94.0825
-53.4546
31.8003
161.949
318.512
377.563
297.202
171.445
139.244
134.708
59.112
-46.2186
-128.203
-191.453
-234.737
-238.448
-243.285
-189.592
-69.4247
-18.0616
-37.5162
-51.8181
-42.3888
-35.1233
-66.7241
-42.9869
18.434
85.773
187.522
198.398
118.914
30.7803
-25.8887
-19.4057
38.7046
35.8313
1.25129
6.51137
29.75
33.8529
17.3063
-1.51696
-24.782
-82.007
-104.509
-29.7731
33.4595
98.6865
82.8122
18.1641
28.5839
74.1346
126.399
117.397
68.5891
24.047
-30.0844
-75.0619
-92.892
-110.668
-65.4557
-54.313
-57.3319
-84.7768
-146.551
-269.321
-313.239
-205.179
-16.9906
232.032
260.371
188.034
128.7
96.4139
59.0169
19.3467
5.84469
11.401
-3.43398
-48.0017
-148.274
-131.084
-59.2106
1.97131
85.0291
201.388
326.12
300.574
107.859
-54.5633
-89.3332
-148.325
-137.181
-62.0242
-33.5493
-14.9793
-42.5333
-73.5033
-27.5535
37.483
40.5631
-31.6496
-101.061
-94.8582
-32.1984
25.2277
28.0664
-3.32502
-53.7784
-154.788
-118.413
36.0638
78.1882
61.2346
54.7187
26.7641
31.1552
34.6819
20.1421
52.4019
108.551
165.593
194.556
126.995
10.4227
-48.5321
-71.8279
-123.456
-157.249
-140.804
-110.457
-67.7874
43.8211
117.247
109.073
112.263
88.3362
25.7694
-55.7013
-143.512
-130.213
-43.7548
109.078
101.246
-8.26275
-92.068
-104.647
-3.75233
54.4898
0.19705
-58.6937
-61.7772
-104.506
-130.815
-105.764
-71.4928
-4.636
69.4289
113.154
127.55
112.521
65.0371
-53.6811
-42.0186
52.896
63.8856
12.1659
-43.7678
-47.1067
-28.5983
27.3043
94.6623
114.097
118.258
100.369
-13.5875
-78.2122
-18.8913
72.6974
109.854
1.24983
-81.0455
-101.802
-43.7151
20.9519
52.1256
33.9552
-17.1915
-69.1464
-39.6229
11.4235
-67.0283
-153.655
-104.391
-3.64805
67.1062
58.2199
-6.84889
-72.4896
-94.5562
-41.305
-11.0136
-14.0149
-39.5247
-110.516
-126.152
20.6182
245.96
345.996
200.151
88.3303
76.3837
77.805
-8.33861
-76.5451
-84.079
-90.2905
-159.148
-205.403
-203.443
-140.802
-62.3928
17.4513
165.98
319.519
272.413
33.7324
-187.146
-204.441
-69.5501
6.98368
-0.0992774
18.5244
38.377
47.8048
46.9554
34.9283
90.233
227.711
217.433
51.1263
-68.8871
-138.814
-233.755
-261.7
-157.944
-24.7695
61.13
82.0084
108.308
65.5505
3.49555
-16.911
-13.878
-13.2729
15.1652
38.1728
41.9069
-15.9436
-34.3268
-4.6217
16.0564
36.5946
87.2073
59.9892
2.46482
3.3091
-21.699
-65.5786
-87.831
-58.568
3.54721
-15.2136
-71.0214
-94.3246
-98.5772
-95.478
-91.606
-66.0592
10.6824
120.143
154.004
109.075
19.5482
22.6766
114.955
262.28
232.327
17.2567
-95.6569
-181.025
-232.376
-211.939
-145.675
-59.9153
74.0776
258.214
293.151
149.878
13.1954
-37.3054
-39.3885
-26.1387
-29.6261
-74.1718
-128.9
-194.944
-196.632
-73.677
26.5203
116.64
171.54
159.872
126.191
56.051
-37.7488
-124.844
-138.184
-60.4857
66.879
115.89
54.8144
18.4759
47.9945
27.5798
-19.4355
-85.239
-100.042
-103.68
-124.917
-117.072
-73.7516
0.229603
52.6361
91.245
98.0974
67.2309
45.4198
34.8117
-11.9517
-37.232
16.5901
68.1745
65.5176
50.0498
19.2493
-28.1748
-21.4699
23.4115
35.1199
30.9789
-12.3603
-67.6206
-32.1917
11.7809
20.1385
-6.58558
-23.9799
-10.2692
24.9274
48.2509
26.6127
-23.1007
-65.4293
-67.8928
-57.854
-51.1018
-52.2446
-68.6967
-60.1832
-15.3777
84.4814
170.849
181.856
195.951
194.754
70.6028
-113.772
-225.599
-275.565
-254.576
-167.628
-83.1922
-48.9168
-9.51441
43.4615
75.9917
68.8898
80.4651
113.942
122.419
107.95
61.9835
5.63334
-51.6593
-83.4866
-37.6907
49.8966
108.8
115.428
51.5687
17.7475
-4.00482
-5.85469
-5.05723
-20.6198
-22.4137
-2.66075
-39.303
-115.052
-132.837
-30.6971
161.369
190.051
26.5134
-67.3199
-83.1238
-40.5514
1.67417
24.5469
10.7389
-57.0076
-115.195
-146.111
-146.705
-124.932
-117.783
-82.0134
41.7598
168.172
211.404
163.22
51.1655
-54.9982
-101.811
-51.3185
27.0686
65.9772
69.2359
57.0993
68.5674
86.3529
127.72
125.554
88.4656
61.3514
30.3809
-10.7486
-36.7136
-52.6221
-77.871
-109.853
-161.594
-142.094
-55.7568
-45.851
-34.034
-19.7467
-14.2924
-10.7913
7.68257
28.4527
23.9924
35.5366
60.0322
38.0972
18.1619
11.2695
2.77361
-0.590678
2.91142
-27.6425
-73.8236
-77.0845
-28.8494
-19.2415
-26.7096
3.42339
44.5493
86.0677
97.6748
52.793
-39.5066
-84.5631
-120.687
-148.291
-108.317
-1.07489
165.662
244.454
172.175
104.54
81.7272
30.6569
-23.3449
-77.4877
-69.8781
-9.77675
-9.14812
-31.0408
2.98108
27.8864
52.9662
61.3131
58.1294
59.8308
25.5722
-42.3774
-134.914
-176.704
-128.553
-92.7836
-83.9032
-43.7828
-0.454099
31.7805
12.837
-54.451
-52.7712
-27.5175
-19.5549
18.4043
55.2508
68.3995
88.2434
94.4024
56.1272
27.844
-10.9454
-21.504
3.11841
16.9749
19.4183
19.6875
-10.2114
31.5521
77.3061
89.4968
67.1357
-15.8474
-155.155
-270.534
-263.319
-68.9983
235.911
330.625
167.432
72.3995
30.4813
8.18319
-11.3525
-48.346
-69.1423
-69.3036
-40.6234
-38.4234
-41.5422
-21.6357
-20.1906
-29.3788
37.5506
95.8765
57.4107
-62.4025
-216.117
-248.71
-115.685
-8.61748
117.948
199.773
135.805
70.8263
67.4734
75.3823
49.5898
-21.2031
-78.2636
-140.803
-175.808
-104.738
-16.3636
32.5257
95.9905
84.5198
4.53464
-9.86773
42.4835
52.4295
-31.3358
-102.511
-73.3774
-21.0218
3.81761
33.3815
55.9464
82.7101
89.595
94.3637
100.717
83.1569
51.6067
46.4036
12.7655
-24.1572
-60.1725
-57.9685
-39.1896
-52.0639
-63.727
-73.4644
-71.0116
-43.7605
-52.8017
-74.375
-50.851
-11.3434
20.1886
43.5513
27.9264
27.19
17.5057
23.6224
39.7346
23.6601
-5.64372
-22.2418
1.88812
-7.13167
-47.3368
-45.7349
-12.6773
9.24224
18.3143
24.7465
42.7812
49.9895
23.0692
10.0714
14.4502
21.0362
19.5248
28.0468
53.0492
70.616
41.4524
7.03011
-45.2443
-55.2805
-41.1407
-40.1376
-30.5677
-23.0642
-14.0124
-10.9588
-16.9301
-14.5434
-9.08694
-14.1034
-2.80845
-10.714
-9.58105
-1.58597
-18.0465
-8.75895
9.85275
1.63509
-13.277
-18.4785
-2.79649
16.9124
29.008
24.4836
12.2943
-12.4439
-11.1847
-8.06435
3.55914
34.0001
69.9001
73.9523
24.9029
-7.68973
-9.31763
-17.1539
-14.6839
1.07321
27.8645
24.094
-16.388
-43.6102
-47.759
-40.8439
-26.6975
-7.60977
-3.51357
-0.643276
-12.6232
-20.549
-30.7829
-44.0471
-28.6743
-4.67002
30.2352
31.6947
15.533
13.9235
4.93646
0.622055
3.02863
-17.1146
25.117
56.2889
41.8136
35.0922
84.2606
118.636
112.156
62.2848
17.762
-46.9086
-126.49
-135.893
-95.4044
-63.5793
-45.6013
-37.6238
-34.0382
-31.651
-15.2007
18.7489
11.5366
-12.0192
-8.86748
11.2179
20.0942
8.63812
-12.3382
-25.8799
-2.28235
49.5733
81.5612
40.5814
-19.7308
-37.4776
-29.483
1.16212
69.4826
148.232
156.703
49.5557
-44.2813
-40.7085
-20.4998
-28.0282
-62.4365
-80.3419
-68.414
-63.7884
-61.3428
-33.03
15.1293
52.1857
68.5298
67.8885
50.5228
39.8035
-26.5877
-60.4052
10.0056
132.13
139.39
17.8167
-117.707
-207.449
-215.363
-155.1
-73.0942
-13.6511
29.8085
35.4084
23.5773
27.8764
50.8103
87.7585
99.329
78.7157
50.4755
25.9195
-8.69509
-41.2021
-39.6958
35.3053
102.802
126.708
112.426
77.4432
38.1981
-37.8802
-78.9521
-60.277
-52.5289
-57.2174
-76.9348
-123.671
-89.8346
28.8471
88.5306
46.4681
-20.2921
-30.6121
-5.7747
-54.5727
-112.142
-61.6056
-7.00341
-20.7155
-11.0071
42.4684
10.5098
-58.2841
-46.2287
-43.3703
-29.9091
47.3757
96.018
33.0113
43.2205
91.5493
148.508
126.473
48.9312
10.687
5.73006
-50.3563
-147.217
-139.074
-60.3821
81.2457
216.01
153.091
67.2755
68.8342
87.6531
134.487
174.263
56.3637
-169.856
-320.812
-376.437
-361.411
-258.202
-138.087
-24.3209
20.6537
46.6047
81.9452
124.279
131.19
122.26
169.462
186.927
143.61
36.0172
-138.163
-321.74
-282.667
-78.2277
74.9246
140.664
204.345
213.779
166.841
106.761
79.8657
63.627
10.6261
-65.538
-152.078
-220.287
-176.495
-121.547
-89.372
-0.122591
63.6623
60.3645
57.1084
90.4065
67.6934
14.275
0.762136
19.5025
38.7086
-5.41305
-31.8275
-20.1316
-23.7079
-44.4414
-62.7223
-60.5743
-49.3379
-45.3535
-2.73898
19.7749
-6.83607
42.6028
20.9758
-74.3953
-111.7
-103.616
-46.7754
36.3371
155.339
193.384
150.047
146.329
238.97
217.211
93.2929
-16.8786
-58.1953
-57.5764
-131.871
-192.706
-190.496
-181.004
-124.265
-67.2169
-55.3933
-11.0261
1.0211
-42.5074
-61.7947
14.5273
75.5215
92.673
53.6866
-6.60545
29.0181
72.2692
43.1125
47.2897
42.0426
27.2635
72.1189
106.674
1.46744
-74.3724
14.163
110.787
93.7983
-12.608
-162.132
-236.717
-92.4643
32.3848
-0.122174
-78.169
-104.175
-26.8319
71.5189
123.307
141.519
60.8278
-6.0508
-21.9694
6.94957
18.8762
-7.60758
-44.9391
-64.7851
-47.5707
-44.738
-3.1223
5.43951
-111.338
-164.408
-46.9582
58.861
80.6349
81.3637
6.36826
28.6355
68.4624
19.1055
-0.0406773
79.7524
171.608
108.398
-28.0706
-81.3147
-63.7837
0.203492
34.6971
-38.6488
-90.7346
-65.8845
-19.3912
62.4244
156.363
90.3529
12.6058
23.1254
-3.26771
-13.5417
-28.8194
-21.9165
-19.4382
-43.7198
-69.3634
-63.631
-48.3449
-9.35766
-3.51595
-4.58441
63.2807
72.6336
42.599
-43.1956
-126.942
-118.15
-59.5621
-63.9902
-18.8607
47.732
44.1908
41.2942
25.7419
48.3399
81.5284
61.1025
80.0332
69.405
-0.86751
-65.6903
-75.8212
-52.4249
-30.6425
-17.5969
-26.5379
20.8711
11.257
-45.5572
-8.19176
54.5285
75.883
35.0907
-28.4719
-5.85435
4.17837
-20.9723
-44.9445
-61.3407
-13.9992
35.4004
59.9466
50.4211
4.53285
-54.5407
-86.3718
-57.3193
15.8595
46.0033
15.9171
-14.8773
-3.19635
20.6162
14.1776
-12.8549
-36.2011
-42.9879
-55.8045
-13.286
80.7754
172.463
172.177
132.903
72.216
52.5529
2.01346
-74.3271
-72.0885
-44.2627
-10.0036
-20.2713
-65.2701
-73.054
-69.7958
-73.6041
-66.6344
-27.0994
25.3186
24.0556
8.17566
-14.0303
-51.1401
-96.9804
-81.188
-44.9528
10.4964
74.5246
67.9815
43.0432
-22.1402
-64.773
22.7928
106.595
99.425
47.7444
68.9116
44.4629
-17.3549
-27.4054
-8.69893
-33.192
0.223338
17.829
-48.987
-68.6279
-26.4684
12.8113
35.3955
59.0605
132.876
177.947
87.6344
4.19126
-1.14488
-18.0711
-100.527
-72.307
-37.1127
-44.2802
-46.3635
-49.5918
-68.5906
-58.8662
48.1242
38.0163
-71.7982
-133.571
-111
-78.4014
-42.843
-21.6974
11.7777
14.779
12.9493
16.3391
40.2538
57.4705
66.4481
60.8681
32.5668
39.7694
49.5432
25.8257
11.3704
34.1528
61.2682
56.4135
-4.17286
-52.3255
-81.3993
-108.304
-127.018
-87.3197
28.8289
183.581
200.28
131.413
115.729
125.571
61.5936
39.0514
15.4918
-10.1944
-21.2835
52.8877
57.4814
-1.79521
27.7862
38.8074
-59.5794
-174.041
-240.429
-255.155
-222.109
-230.261
-256.85
-245.184
-196.595
-156.975
-72.4494
-4.42604
73.6734
175.824
222.428
211.693
199.899
169.076
133.913
114.452
150.043
177.327
173.094
122.998
55.8002
58.2977
135.618
180.446
212.671
96.6153
-78.8838
-170.364
-182.34
-178.175
-165.933
-184.137
-159.966
-104.856
-134.005
-196.85
-243.905
-267.996
-223.004
-76.2979
73.6956
128.227
184.624
214
130.781
69.3292
2.29215
-11.7727
57.9692
118.429
105.237
33.3102
6.60901
61.4725
68.7469
18.001
25.489
107.694
143.645
65.1702
-34.7164
-65.8315
-69.34
-91.4737
-84.9038
-2.82466
63.7904
-30.8677
-158.248
-155.352
-94.8664
-38.2313
-49.3599
-83.9502
-28.28
108.865
187.214
197.181
143.88
29.3601
-56.2047
-91.4604
-80.568
-69.2521
-115.761
-184.577
-109.641
-29.9492
55.7142
126.684
71.6046
41.7995
96.6226
157.927
70.712
-27.204
-104.623
-138.961
-32.72
108.506
143.301
131.621
117.155
63.1091
-13.7666
-43.9679
-21.4771
47.6552
33.4648
-49.7135
-98.3357
-202.705
-275.658
-284.081
-173.89
15.7154
93.0013
121.231
153.512
146.273
126.844
116.715
112.472
86.1299
66.3054
63.5778
8.81015
-36.6727
-63.2739
-127.575
-136.164
-30.2613
42.474
55.4285
5.16157
-102.937
-73.0305
24.5294
10.5421
-34.5213
-78.3986
-136.007
-190.566
-171.796
-110.225
-26.036
32.6327
64.271
30.9768
-8.94435
86.877
221.011
263.784
191.313
187.218
202.023
148.304
47.6025
-34.6807
-99.5919
-119.821
-32.4912
31.0952
42.4456
40.4557
11.0487
-66.2429
-85.5014
-67.84
-82.8023
-113.249
-133.423
-206.55
-175.638
-97.9535
-130.99
-147.805
-82.641
-17.3208
27.4639
87.8516
79.5128
75.5532
123.54
96.3664
79.9985
178.377
219.974
132.92
113.958
66.2284
35.1098
107.072
104.012
74.4581
67.2507
49.8335
-64.001
-188.328
-231.568
-276.151
-297.2
-281.749
-141.021
22.5216
62.0597
40.8095
34.2494
131.706
181.201
129.001
63.6333
19.2293
-121.189
-235.644
-214.982
-156.714
-68.9299
94.3241
177.191
161.067
157.393
170.957
91.8613
4.35122
-2.45588
30.2137
31.3283
10.2458
44.9291
123.039
94.1946
-21.3284
-36.3458
-11.2077
41.3419
83.6982
81.2892
40.8301
46.9995
49.4813
-77.2463
-222.273
-270.175
-206.06
-112.381
-41.6742
-64.6865
-117.066
-137.292
-105.786
-74.1683
-33.7509
4.90805
20.7335
26.3238
62.4924
91.3286
82.8974
82.4951
135.224
192.982
182.878
107.181
67.5584
-29.4459
-120.863
-94.1766
-65.7417
-69.2471
-73.6116
-40.0589
5.61914
63.0712
81.0552
82.4478
6.77697
-60.7782
-67.5452
-68.7216
-54.8463
15.2473
78.3397
88.1716
70.2421
77.6556
-15.8764
-49.8247
73.4559
141.95
75.3109
2.09715
41.5035
82.5937
21.6558
-28.7967
-41.4558
-122.003
-159.532
-110.305
-29.3813
-31.1123
-54.9607
-83.4745
-187.679
-168.402
-48.6379
31.519
11.7033
11.6474
90.2167
180.568
190.134
161.784
200.836
157.265
40.3219
-0.399836
-21.6232
-78.499
-122.579
-147.305
-168.028
-178.637
-126.557
-142.65
-112.016
-75.5259
-89.5396
-78.8435
-58.5989
-54.2932
-54.1135
0.707471
53.2057
138.616
245.739
302.744
284.777
235.511
169.11
173.192
220.663
255.922
171.288
21.5502
-129.512
-244.648
-259.521
-233.705
-171.171
-76.4769
-46.7888
-60.4482
-94.423
-166.844
-178.139
-86.9285
-13.9955
63.6704
100.068
87.2616
43.551
8.69987
43.9679
80.1152
77.1889
96.724
90.7335
54.1777
-0.23482
-106.543
-175.505
-180.448
-152.411
-148.542
-133.472
-114.577
-61.1712
-3.52706
33.4238
55.324
31.6165
35.6125
116.757
235.447
301.481
241.958
130.887
56.6775
68.2127
87.173
140.688
128.233
13.1993
-76.1472
-71.6493
-36.727
-70.4687
-138.708
-267.293
-306.869
-197.451
-25.1872
75.4437
64.344
2.7634
-91.7479
-109.144
-23.2987
78.863
72.3223
26.0235
20.565
62.9729
114.526
81.4893
-25.2205
-151.994
-193.869
-76.9563
26.4562
20.4865
-8.08436
-1.44392
8.07115
11.735
52.2203
97.3146
106.105
52.7206
40.1434
34.8598
-29.9424
-80.1951
-23.0175
68.0457
134.594
202.34
179.145
122.117
140.316
122.618
-28.7293
-132.49
-160.736
-176.074
-136.745
-79.0406
-59.7039
-111.732
-146
-102.319
-71.5075
-17.1182
13.8501
-0.481876
9.91618
21.4705
-64.0857
-128.21
-136.82
-81.2044
-0.818815
35.9015
114.798
192.554
165.443
113.174
68.7245
98.7259
129.082
79.1193
47.4467
56.3236
96.6549
89.826
21.5761
-66.6621
-131.444
-250.011
-372.995
-390.171
-245.121
-22.5522
132.091
131.566
123.431
167.232
138.126
26.3386
-24.91
-41.2035
6.49639
103.696
137.23
147.248
188.723
191.358
155.55
129.055
121.142
90.257
-63.8847
-229.255
-289.98
-200.24
-119.204
-134.886
-164.072
-169.753
-136.793
-65.9009
-0.447083
-12.6984
-60.0246
-71.4118
-40.8901
-3.25165
57.5921
152.005
198.254
185.315
161.826
85.8549
64.7319
24.5642
51.4766
148.505
142.632
70.4144
-39.0821
-162.447
-239.727
-208.721
-154.972
-97.2159
-78.7543
-98.2562
-48.5753
12.8415
-4.87358
19.2182
161.134
239.209
171.72
114.667
81.8524
-33.1033
-112.105
-76.5137
-14.5065
9.79329
1.59302
-44.1159
-82.2028
-155.373
-174.919
-85.7506
38.4378
138.027
212.38
230.146
154.191
71.5108
-0.572572
-72.6739
-174.098
-233.466
-190.642
-103.698
-23.6847
60.9419
156.875
218.05
207.24
164.574
66.8026
-27.1603
-89.8332
-80.716
-89.2269
-163.04
-162.61
-91.0523
-55.0121
-26.3674
64.4552
151.362
176.775
136.162
81.5239
66.6911
23.8565
-103.074
-212.853
-211.259
-88.2357
58.8102
97.0485
41.7215
-0.907143
-15.2388
-73.3411
-116.275
-121.676
-157.691
-147.404
-89.859
-11.4675
32.3714
117.595
177.164
227.076
341.707
424.175
340.131
202.093
51.802
-54.1307
-146.91
-248.981
-278.292
-240.764
-198.594
-125.155
-1.13072
43.4422
37.6495
9.79566
-9.05212
-74.5086
-109.916
-82.126
-54.0295
-21.999
50.9839
8.49343
-80.2787
-79.0836
-37.5251
-74.7032
-90.7444
-0.73229
113.055
231.73
333.178
367.69
297.77
205.816
122.544
-18.0818
-144.309
-259.632
-366.83
-357.06
-231.258
-90.4689
71.1127
210.663
311.279
356.671
288.341
101.04
-116.536
-266.569
-317.099
-310.527
-262.252
-133.985
2.37261
91.6741
118.225
124.254
98.2666
18.4795
-43.9726
-56.1896
-61.3419
-92.6095
-161.127
-115.448
49.579
188.948
206.565
207.505
251.211
198.608
82.6523
-62.492
-144.969
-106.079
-23.2398
74.6827
192.794
163.26
60.9241
-2.70847
-55.7482
-116.33
-134.318
-141.659
-136.499
-122.435
-70.6457
-14.4789
-51.9029
-87.6369
-61.2859
6.1239
19.1294
40.7411
32.2086
-26.2106
-41.1974
24.7212
42.3175
-7.05665
-42.2188
-8.90974
51.7633
88.1606
58.1412
-11.3287
-43.7505
-81.6551
-136.332
-90.5074
17.8604
103.185
136.976
147.261
158.102
145.314
21.6943
-102.88
-130.507
-87.5646
-21.6831
22.0449
42.3966
16.1995
-28.0169
-62.4059
9.57755
69.4372
118.508
158.719
76.4538
-78.0348
-116.95
-74.8399
-33.1854
2.44906
-12.3357
-53.1753
-62.6756
-36.3328
19.8579
16.3315
4.98757
69.9108
123.775
142.917
60.5189
-57.2113
-168.706
-293.035
-258.969
-153.628
-46.7937
31.3276
60.206
76.3825
120.328
137.661
129.558
117.989
119.446
102.379
-41.9019
-183.939
-125.509
61.2679
206.11
216.646
164.547
162.178
155.42
145.179
34.3343
-142.333
-319.307
-393.456
-374.466
-292.583
-219.717
-117.098
-12.1127
69.5316
169.47
237.497
155.068
-36.4423
-144.358
-74.9888
50.0978
71.9951
70.7835
93.8693
79.6458
51.5519
74.399
98.9252
126.24
130.495
59.9288
-53.4506
-133.294
-137.555
-89.4497
-17.8838
12.612
-48.3413
-125.142
-163.325
-99.3111
43.5319
68.0716
-43.5421
-8.86307
97.619
131.105
125.978
128.757
137.163
74.9157
24.2674
-43.6166
-157.702
-231.35
-245.456
-243.04
-205.51
-127.771
28.8422
123.901
120.891
111.857
206.606
251.279
190.198
165.547
70.6586
-21.6068
-3.44233
152.197
168.48
68.018
-9.30215
-48.7519
-45.0654
13.1027
65.7107
53.9062
-17.3664
-97.2343
-122.875
-99.7195
-148.846
-267.45
-314.338
-290.081
-191.431
-68.1075
-8.71943
-9.0583
19.0991
62.285
80.0299
65.6082
77.8708
60.3347
37.7867
67.1886
50.7108
15.1923
19.1508
59.0097
72.6445
73.2549
67.1449
45.8907
0.907892
18.9083
21.2721
-14.8168
-30.0078
-16.1757
7.2946
66.6731
53.4497
-10.9833
-56.3973
-32.7863
55.1207
81.8644
14.8827
-12.5262
42.0079
74.5461
101.843
113.882
73.7856
-72.8686
-207.475
-153.581
-8.41027
113.123
220.663
236.489
124.207
-82.5086
-218.948
-278.289
-340.225
-341.898
-317.683
-350.011
-260.391
-24.7688
232.035
420.183
436.834
298.306
219.612
133.31
66.5577
-13.9228
-78.1941
-148.425
-178.792
-96.1117
-12.8437
-63.2739
-34.933
52.5625
75.6036
110.805
142.773
95.0337
-91.7994
-273.092
-268.103
-150.191
-133.67
-128.771
-103.494
-68.1381
-87.5223
-6.89614
152.289
300.072
393.095
428.671
377.932
312.156
224.569
55.4593
-55.4965
-152.768
-240.702
-268.932
-238.363
-220.342
-126.134
-36.8083
-2.61411
40.0721
100.882
95.5998
49.0479
2.73912
-109.177
-167.125
-192.292
-210.334
-140.59
-28.4178
-11.9922
39.7284
187.648
304.18
290.608
215.076
39.2288
-96.4448
-87.6279
-35.6506
-0.498548
66.8041
147.28
140.238
118.803
77.1666
-18.8094
-78.3105
-70.4482
-115.237
-227.606
-329.763
-369.564
-335.297
-254.925
-150.448
7.76268
116.484
187.583
213.568
194.454
157.644
82.7268
31.703
74.0803
147.816
221.179
211.159
129.757
94.4843
33.9703
-64.6127
-164.152
-206.373
-175.263
-114.74
-60.3965
-0.0195382
28.7902
50.9084
113.302
93.1681
-1.03362
-10.5415
70.3641
128.085
85.488
-7.46554
-119.298
-152.662
-118.384
-67.3417
-7.08747
11.4204
33.461
96.097
146.612
120.82
-10.0508
-144.025
-234.73
-223.006
-168.957
-131.916
-112.142
-104.7
-87.5439
-14.0411
113.339
177.508
172.481
166.346
247.685
266.758
154.458
39.5493
-17.3277
-39.4341
-64.6783
-124.392
-173.871
-212.07
-171.673
-69.3784
12.9188
34.3849
74.3328
120.387
132.484
187.924
226.331
118.403
-74.7824
-228.886
-250.858
-147.225
-0.399421
81.0869
103.523
114.595
105.811
106.233
81.5095
49.6708
40.5133
7.18987
-118.046
-219.999
-242.12
-200.478
-128.792
-74.7412
-53.8044
16.268
122.908
152.531
126.303
62.0057
-37.0548
-87.3335
-71.7702
-76.2849
-19.6334
24.7456
12.4716
0.111629
13.1918
31.0803
67.3233
44.5945
25.4766
54.7987
77.4642
96.9729
112.375
148.393
178.994
144.399
151.912
135.484
46.9821
-20.468
-88.1028
-224.963
-380.017
-413.072
-380.022
-354.93
-313.116
-279.301
-150.368
174.545
419.477
492.595
456.252
326.295
131.469
1.73321
-49.7104
-76.5611
-67.7433
-32.06
-24.6697
8.39668
81.5763
122.15
159.259
132.161
90.2948
63.6817
-33.7642
-161.873
-232.114
-312.573
-374.477
-364.864
-297.74
-228.02
-156.087
-6.8948
156.572
272.991
335.296
318.699
287.542
291.36
260.323
198.373
118.606
34.6682
-94.8754
-235.717
-248.836
-115.668
5.93056
-75.8311
-118.44
-49.0355
-11.9746
-11.0104
-82.2404
-188.184
-237.084
-111.39
69.9143
116.563
56.0971
30.7948
29.6966
23.5668
95.2909
171.266
155.834
18.9041
-87.5753
-17.8186
24.6302
40.2895
26.9806
-6.65774
42.9593
119.124
136.026
0.932151
-191.11
-282.646
-193.138
-64.6584
16.1985
63.5344
79.4906
33.0539
0.0968635
25.6331
62.2559
68.4017
89.2343
134.894
82.0044
3.5663
-50.4104
-73.8535
-63.6256
-3.51082
36.9394
5.80716
-52.4253
-17.0041
107.889
175.647
87.5858
-54.7811
-131.142
-230.563
-259.818
-182.136
-118.224
-72.0955
65.3653
138.761
115.794
88.9137
65.4064
20.6811
-106.444
-181.486
-71.8443
23.2249
6.34352
-0.544726
55.4203
153.554
145.181
138.803
48.1975
-105.372
-175.188
-144.14
-59.6253
42.7775
80.3102
62.8671
76.5152
119.299
157.462
178.214
94.7259
13.0745
-84.5549
-220.43
-213.188
-118.401
-16.0191
100.651
168.906
244.087
277.801
148.645
22.8759
-73.7665
-231.278
-371.329
-324.073
-178.648
-0.0382715
88.2989
95.6729
50.4593
-25.5913
-6.08963
61.2181
83.0112
54.5112
45.2803
72.6981
71.4887
46.4891
-16.1693
-97.5301
-208.378
-194.728
-68.8732
22.378
51.3141
52.9737
100.514
111.998
62.7593
9.9447
-19.1942
-78.7668
-185.201
-240.239
-152.601
2.34309
70.2094
69.8832
116.156
146.606
214.189
303.803
288.866
115.358
-70.781
-134.212
-154.452
-170.621
-180.235
-114.152
-18.1016
8.73974
33.4576
32.9112
-62.1887
-109.211
-67.2322
-50.3992
-36.9118
-37.4118
-50.7119
-44.871
19.7282
141.544
179.432
113.727
64.8471
59.1887
56.0948
26.6922
-68.3807
-154.896
-82.8558
76.2435
200.248
283.221
314.01
262.764
168.086
61.4983
-55.7032
-159.023
-228.889
-269.235
-309.38
-332.451
-326.28
-295.071
-176.359
-8.36855
112.938
141.152
59.9949
-10.5865
-23.4805
-84.6728
-115.041
-31.7291
99.9692
231.613
324.083
345.568
252.102
109.611
68.1273
-39.7245
-111.406
-75.4468
-19.4681
-20.6402
-48.3521
-9.31342
32.4491
50.9201
76.5854
41.7214
-81.6049
-188.668
-170.676
-110.885
-161.604
-136.822
16.2809
117.886
162.486
249.947
292.233
165.376
-50.5519
-150.446
-120.155
-69.6825
-24.1282
-45.1084
-121.073
-147.146
-83.3207
-0.514409
-25.2978
-71.6761
-6.36831
14.3078
-35.961
-113.448
-131.955
-78.414
-51.0539
21.676
179.866
242.708
248.667
203.109
149.831
146.535
127.2
69.3577
-8.91517
-83.0713
-159.257
-237.481
-231.195
-164.767
-68.4542
82.3112
144.98
126.782
123.413
48.2669
-98.9616
-203.339
-190.138
-98.6737
-47.2358
-23.4479
11.8993
-6.66816
72.5933
223.05
307.709
304.797
296.597
251.594
72.1855
-74.7771
-159.891
-210.833
-261.559
-234.597
-163.351
-94.5515
-51.4707
-74.3723
-139.933
-149.343
-148.735
-26.5747
30.604
4.30629
-7.8078
55.2192
96.4896
47.6218
29.1182
-19.3032
-12.2612
42.318
93.2589
142.992
138.887
112.11
119.258
133.701
163.149
162.481
140.183
25.8395
-49.3595
-76.6701
-137.929
-182.094
-197.854
-241.253
-273.099
-213.76
-93.8678
18.2208
65.2001
26.5467
19.1848
51.2939
84.7371
192.458
297.384
270.681
220.213
148.556
23.3303
-111.463
-139.962
-135.106
-81.4553
43.2848
158.66
129.104
-26.7157
-110.058
-135.312
-113.853
-42.4612
-13.2789
-54.1747
-138.905
-251.348
-249.869
-158.244
-32.1024
-14.4276
7.92237
81.2443
75.8484
11.5987
-45.0676
-30.3397
53.6508
126.147
149.804
242.933
237.479
114.228
9.93366
-92.4712
-145.682
-120.022
-142.033
-277.143
-335.271
-203.895
-47.8843
68.4124
198.398
258.135
309.014
310.29
244.319
209.248
177.195
82.2074
40.9028
55.968
82.1817
72.1313
7.17956
-30.5403
-75.1005
-69.2332
-25.3773
20.9385
32.4527
-42.1112
-168.805
-257.802
-263.917
-228.229
-184.148
-172.623
-213.919
-217.329
-133.683
-70.9646
-73.2205
-30.9201
37.6079
52.687
146.501
315.547
344.773
174.557
5.96223
-30.8439
-22.1083
13.4149
59.6177
65.5351
47.8569
59.2809
55.3927
15.753
-45.3771
-93.7858
-86.676
-39.8919
-59.0439
-104.793
-125.984
-155.143
-91.5125
57.9214
172.515
195.208
189.035
210.779
169.687
33.2227
-60.586
-93.6082
-54.8888
-0.725708
43.0442
72.5601
98.9276
97.6398
131.589
178.021
145.435
53.9752
-48.3531
-117.486
-213.726
-279.157
-226.741
-162.156
-87.5835
-3.19126
-82.5285
-187.692
-203.89
-140.065
-93.3322
-32.0799
23.3905
54.6076
30.9793
-30.7279
-52.7651
-18.3136
49.7969
89.6206
72.7952
69.8201
26.382
-11.6165
-17.7264
56.3349
212.517
371.286
430.729
340.009
224.638
56.2487
-112.498
-183.148
-176.537
-108.97
-63.3782
-90.6361
-119.353
-91.8322
-29.7098
-52.0525
-61.1972
-72.0064
-28.8672
41.1068
68.6287
31.2332
-5.74923
-52.4131
-90.8018
-69.9674
-39.0267
-39.6926
4.30182
77.7118
140.968
158.001
74.8731
-41.064
-68.5256
-50.4617
-86.1934
-158.932
-226.73
-251.504
-195.59
-92.3891
-7.85445
50.5613
90.5146
102.425
164.782
193.048
162.162
160.522
207.491
140.207
86.4178
94.7585
24.6207
-12.9962
40.9592
17.974
-31.603
-10.977
-6.40051
-32.702
-54.3295
-57.5141
-111.723
-180.319
-226.74
-145.966
-79.0683
-123.615
-170.577
-62.6943
50.107
91.2887
149.534
165.576
142.406
167.014
208.293
221.985
129.542
6.00495
-36.1817
-42.868
-41.8751
-31.8101
-50.7418
-112.204
-162.39
-203.243
-249.252
-211.306
-148.996
-90.053
-38.4248
11.5229
46.1332
87.197
78.2818
11.9664
35.17
61.9341
30.4961
29.3354
121.947
227.971
279.845
254.223
205.801
153.096
83.7086
-31.1073
-126.739
-168.744
-179.619
-148.396
-136.702
-114.977
-105.077
-109.386
-68.9203
-12.8089
3.86762
29.2334
71.712
72.6227
29.7694
-22.5667
-37.6894
-92.8042
-141.617
-82.2505
21.8001
113.177
192.072
183.608
165.841
139.95
110.608
59.2677
9.60272
-42.7612
-133.589
-198.599
-169.089
-112.361
-67.1591
-78.434
-111.173
-50.6212
70.4305
141.276
163.394
100.62
-22.8564
-79.2008
-71.9543
-26.3
54.5294
27.5895
-50.7995
-86.187
-40.9488
26.9899
26.4937
-9.82014
-9.52472
23.4986
58.2028
123.275
134.119
25.4662
-77.7708
-133.539
-131.032
-82.2054
-87.2254
-28.9267
90.3401
105.858
126.534
196.557
235.452
187.093
122.728
112.427
82.7089
74.9866
29.748
-133.977
-290.669
-284.843
-232.094
-163.676
-94.4837
-79.8358
-69.103
-91.1897
-193.191
-150.766
-6.76015
104.821
128.55
32.876
-100.208
-114.71
-5.51893
-25.1628
-29.017
106.807
238.55
281.029
310.813
292.766
176.306
113.503
86.7144
26.5574
-64.0856
-72.1085
-62.8311
-78.4385
-90.6049
-59.3415
-52.3944
-100.287
-178.617
-142.831
-104.058
-63.2667
-5.19159
60.8318
41.0464
2.65605
20.44
93.1258
188.815
182.764
30.1636
-93.3115
-117.244
-133.832
-172.069
-157.268
-67.5805
-35.0353
-62.514
-50.7546
49.8993
118.353
46.8902
-66.823
-88.868
-9.12955
129.605
162.575
16.6764
-75.794
11.8794
99.7703
92.6371
109.364
127.01
138.184
180.617
166.832
62.5631
-70.1471
-207.514
-254.703
-181.547
-117.242
-99.5202
-98.3873
-82.1551
-69.106
12.779
94.6366
153.594
144.327
63.8364
-62.7125
-102.009
-83.0882
-100.875
-27.5401
115.296
186.872
210.759
215.965
275.021
330.952
324.148
277.485
53.8668
-253.673
-401.537
-415.031
-396.723
-359.703
-330.256
-286.249
-212.393
-144.078
-91.0578
-69.7855
-29.7233
24.5953
97.809
123.478
131.949
130.527
79.779
3.47404
46.14
163.884
239.286
280.181
300.016
251.618
210.129
183.695
144.212
91.9456
46.1617
-15.5118
-36.3251
-19.2956
-45.6868
-87.4783
-229.112
-396.001
-443.143
-389.509
-255.13
-48.7613
113.177
46.994
-71.4359
-97.8747
-95.2668
-113.012
-7.05015
136.047
202.878
230.693
216.232
273.407
299.893
250.34
179.576
103.03
-2.41316
-69.5336
-141.146
-200.773
-211.52
-106.862
84.9171
199.984
83.3603
-48.184
-176.443
-272.897
-282.942
-189.348
-127.369
-164.208
-256.303
-314.75
-176.575
46.0061
249.961
393.083
311.104
184.428
155.647
205.876
162.783
106.3
80.2485
46.7333
15.4936
-29.7543
-149.179
-243.278
-213.905
-171.761
-67.5515
84.3876
160.904
185.293
217.684
227.845
321.661
275.32
50.9198
-189.938
-273.009
-235.959
-198.155
-189.513
-143.193
-107.935
11.5906
151.777
176.393
128.271
89.7992
59.9639
-27.5447
-81.9558
-175.025
-321.03
-395.838
-396.383
-294.076
-148.01
-42.1248
66.5841
217.938
338.973
313.373
260.726
225.901
154.548
131.575
156.667
112.837
38.6394
-120.184
-300.038
-361.823
-244.23
-94.0508
26.9783
53.3703
-24.9266
-64.5115
-39.7468
84.2072
285.677
422.787
301.868
135.908
78.1027
90.9373
117.837
114.225
147.763
436.147
467.455
128.019
-170.697
-314.902
-428.321
-484.821
-429.111
-410.394
-363.164
-314.3
-324.397
-351.401
-193.625
-33.9907
4.42683
-20.6681
-33.9311
10.9417
55.8996
-21.2715
11.6559
164.142
235.344
255.982
322.043
386.124
423.404
396.473
251.023
125.04
29.2544
-14.9032
39.7732
57.2011
0.369243
-92.2816
-55.0526
-6.4893
-132.69
-307.106
-298.914
-127.526
29.0851
85.5876
26.9548
-60.1113
-63.1502
54.7706
169.233
14.6821
-112.868
-123.089
-102.688
-41.2651
-20.6325
-48.741
-129.97
-139.927
-62.9956
-11.5415
24.0954
74.7294
99.9223
118.996
138.457
141.156
123.163
36.734
-144.088
-200.61
-152.071
-81.0746
-34.7473
1.65127
-10.6661
-45.3499
-23.5652
55.284
120.411
85.011
-19.6608
-69.64
-83.3559
-71.1386
-1.58032
94.715
197.311
226.819
147.728
110.281
73.3512
107.669
165.678
90.4375
26.3507
-2.50123
-109.403
-264.362
-306.729
-305.921
-265.02
-134.113
65.2195
267.782
218.534
131.146
8.10131
-144.083
-139.247
6.03458
87.8813
34.2973
-68.7839
-116.909
-49.305
54.0242
105.701
83.0182
8.35848
-10.554
25.2419
59.8709
-46.0826
-226.298
-169.252
-46.9092
5.67656
70.7134
132.233
49.5437
-34.3814
-57.8732
-62.6442
4.83464
91.0302
146.963
168.352
184.457
218.924
187.18
53.5802
-70.0228
-94.1251
-103.137
-97.7891
-71.3161
-29.7067
-19.8378
-3.24594
58.9785
20.4072
-131.403
-240.415
-216.721
-191.726
-175.544
-115.604
-13.5305
29.0433
23.798
27.2881
65.1531
201.715
244.681
113.138
-7.87757
-74.8644
-39.7006
25.8007
183.967
267.499
101.24
1.84033
-21.6669
-73.1634
-88.2166
-90.5453
-96.6777
-95.2378
11.476
103.084
10.7011
-142.919
-106.871
45.1177
148.485
118.722
-53.4394
-102.63
-105.167
-72.3096
61.8599
115.019
62.6704
53.063
21.4695
-22.163
-10.5328
62.469
50.3395
-10.0507
31.7741
45.5615
11.521
32.3704
-48.3077
-110.484
11.5995
116.14
115.527
85.3415
77.949
62.2961
-11.0651
-143.881
-227.97
-240.948
-289.681
-336.388
-236.341
-89.1863
19.9792
70.3497
96.2761
72.1685
-4.23472
3.31824
79.7787
68.957
84.6293
159.069
279.151
298.306
192.775
101.426
20.9772
-77.7687
-137.208
-157.673
-144.059
-78.1568
-62.605
-66.3264
-77.1229
-52.835
48.5318
98.2606
58.3836
-0.638768
-114.253
-149.038
-115.469
-45.453
70.3902
238.518
321.364
238.458
110.466
-11.9447
-87.0997
-22.7321
75.7209
164.441
99.8399
-17.446
-19.0664
0.606387
-31.7509
-57.7573
-57.4957
-96.8698
-149.963
-187.538
-187.449
-193.532
-192.786
-117.308
-11.1995
108.92
112.607
2.76378
-92.2696
-151.644
-52.215
109.068
149.815
105.199
13.3395
-0.383722
139.363
205.791
55.2181
12.466
40.8155
10.6892
-6.01454
34.5763
50.789
-24.2246
-85.7719
-105.281
-112.699
-82.0928
-45.3144
-60.1134
-57.8684
-41.2809
-9.89515
8.49446
-9.63737
-13.011
55.273
31.3351
8.76647
57.3019
142.542
209.123
226.431
230.791
228.249
179.884
125.776
30.4635
-72.4807
-103.1
-116.929
-99.6291
-31.4938
-101.437
-217.766
-250.178
-182.148
-113.926
-89.873
-52.798
-22.0071
-72.1784
-98.1082
-96.3042
-83.2808
-47.1189
-61.5513
-145.339
-180.95
-155.617
-55.8209
59.9701
141.926
224.414
310.744
393.858
425.125
379.857
291.47
138.942
25.2288
-57.8194
-98.9674
-132.206
-130.573
-87.2643
-43.9507
-7.48366
-27.9731
-34.6275
-12.9624
5.52359
74.9658
54.5808
-226.73
-362.939
-201.863
-53.8974
-19.882
16.2985
-9.63581
-68.5807
-108.357
-143.195
-191.481
-174.327
-81.7393
27.1021
139.477
240.849
262.567
184.896
50.4861
42.492
137.751
131.488
52.922
27.8568
50.3162
27.4119
-0.921757
22.6461
53.623
84.4769
97.6558
89.7654
86.8012
46.9599
-34.5751
-129.154
-223.411
-279.856
-311.228
-293.709
-208.787
-160.734
-169.544
-144.35
-60.3627
91.3174
292.314
466.766
402.668
292.541
209.402
90.5013
-32.6222
-65.1187
-11.3487
26.0335
-16.5053
-55.8999
-57.9378
-78.0608
-40.0483
-26.0583
-110.563
-151.742
-124.437
-106.143
-96.5455
-76.9376
29.6681
115.559
152.853
186.078
243.933
220.142
-82.1581
-291.664
-317.056
-239.415
-135.229
-30.0903
40.9785
82.3693
133.613
144.038
101.114
17.3058
-49.3284
-64.7595
-45.331
-29.5554
2.75263
25.3791
-12.149
-43.8316
11.7051
-3.7844
24.4096
109.254
109.811
57.4964
85.4743
126.057
83.2097
6.29473
-3.79834
49.0015
72.7637
49.509
5.48535
-54.0528
-143.711
-206.051
-213.756
-163.348
-57.3206
37.957
52.1151
-8.52246
-48.8263
-33.3381
-71.0115
-67.4599
55.4934
211.563
271.311
142.652
-45.7497
-136.847
-120.43
-17.0027
75.9332
117.025
103.677
134.755
244.342
183.937
-40.7956
-154.392
-147.664
-107.801
-77.2578
-80.6362
-148.397
-230.821
-273.497
-269.147
-194.554
-62.0264
91.9112
149.774
154.804
115.37
36.8606
-33.2446
-42.8957
36.3718
185.387
255.124
229.051
139.855
26.9757
-48.3252
-86.2107
-74.1406
-54.3234
-23.6541
-42.1765
-72.3088
-64.3511
-14.5907
45.3979
98.342
131.082
97.4571
57.6469
76.0355
112.43
10.4683
-89.3644
-83.0663
-34.6374
-1.96855
45.6787
80.0781
81.3215
58.5927
45.7683
32.189
-36.4425
-104.916
-157.928
-211.876
-225.663
-189.741
-154.926
-123.32
-62.8241
41.5865
85.3242
52.8347
35.1282
33.2293
12.5504
-37.9646
-48.282
9.46101
51.9371
-5.07627
-30.5331
-5.06809
5.7187
37.342
82.4811
108.895
125.416
126.925
78.2442
58.2058
-16.2261
-77.15
-39.7243
3.21096
25.8782
46.4797
77.069
113.317
111.638
92.6904
5.31657
-125.658
-115.842
-56.2584
-31.5072
-49.358
-54.1741
18.0577
118.789
143.667
153.407
92.9344
-2.63813
-20.4789
-30.6265
-100.505
-242.849
-363.98
-351.939
-228.662
-103.945
-7.8046
9.86362
43.1039
87.1703
123.96
101.557
52.9365
-6.89482
-46.3505
-0.478446
105.349
171.211
201.867
155.859
73.554
62.2418
99.112
96.1998
-0.116866
-84.216
-91.5755
-67.2477
-27.0792
30.937
91.0152
76.7073
-33.6056
-114.331
-92.8428
-62.046
-68.2649
-110.516
-191.157
-191.881
-91.1083
-0.780629
94.3018
162.364
151.526
118.758
143.541
183.449
121.541
-42.9713
-175.49
-164.464
-98.9727
-70.789
-25.3941
-7.07215
-17.6045
-12.1837
4.51855
48.1245
50.2565
-37.7166
-76.0845
-44.0041
23.6341
60.0036
67.9821
25.0823
-51.544
-66.1059
-83.4624
-90.1188
-61.3394
14.4581
67.1471
122.053
179.07
195.009
214.466
230.709
197.562
107.132
-39.1148
-143.301
-155.118
-106.344
-90.859
-124.235
-153.016
-144.858
-121.35
-107.737
-37.008
6.44988
50.2655
79.8022
53.3131
-57.3226
-156.856
-204.548
-158.115
-69.0872
-18.3598
47.5392
168.418
238.138
306.918
337.349
265.721
156.861
17.0583
-53.4516
-117.435
-152.888
-137.644
-149.151
-147.331
-94.857
-64.2856
-57.0278
-86.4235
-82.0323
-11.3301
66.6924
63.5168
9.42071
-74.2188
-102.859
-43.825
13.3756
116.526
149.22
97.6738
33.4855
-12.3426
20.8206
83.1779
122.86
139.028
120.159
75.5655
54.1698
3.14441
-98.1638
-136.255
-106.946
-91.0552
-58.3781
27.0335
101.837
105.123
88.1014
71.5378
20.3474
-71.5541
-221.999
-284.424
-224.133
-130.607
-45.773
32.5754
104.062
155.203
153.346
177.96
146.961
20.82
-88.3847
-155.17
-204.632
-211.632
-150.524
-91.3524
19.3405
133.032
221.977
226.841
157.362
43.1534
-33.6128
-95.8787
-89.9415
-20.2875
-7.08742
-137.441
-237.146
-167.592
-50.8773
-10.4968
81.513
190.428
243.769
274.587
277.345
207.513
136.754
49.6425
6.93646
-30.946
-47.1212
-18.5412
-8.00793
-61.9828
-123.617
-93.6574
-15.6751
-59.4152
-119.246
-98.8115
-86.0473
-108.043
-139.581
-168.638
-213.948
-231.778
-178.144
-52.2669
17.6409
81.4367
150.14
203.236
211.217
184.867
154.866
73.474
39.2418
106.035
145.212
130.422
68.7991
7.66663
-30.0174
-39.9526
-45.4288
-34.4327
-21.3044
-39.4848
-17.702
-11.58
-68.6183
-137.601
-151.228
-112.083
-46.6936
3.91824
31.7567
40.8752
13.8582
-9.42434
-4.10976
10.228
22.3166
58.9568
66.7511
52.684
32.6642
-15.6553
-51.9266
-70.9549
-84.8715
-71.7236
-38.2574
1.35016
14.1197
15.6031
10.3289
31.1536
81.789
141.962
161.925
114.94
22.8458
-76.6631
-127.011
-157.654
-158.925
-112.28
-91.1191
-61.1919
10.9785
88.125
106.124
100.101
94.1414
74.0751
43.7172
51.3455
86.603
138.866
140.729
43.077
-54.8885
-68.3702
-22.0438
0.671486
26.3335
60.7812
43.3814
14.6812
-5.56538
-34.7858
-50.3194
-68.8154
-87.1192
-120.902
-168.665
-238.646
-248.542
-223.024
-151.444
-11.3327
102.397
98.7501
24.1548
-20.9215
-9.44375
6.82759
55.0239
83.0556
80.9348
89.6009
68.6013
39.5331
45.2371
67.8897
65.7738
20.0188
-7.82676
16.5809
47.302
87.3496
142.658
175.697
164.97
125.03
47.249
-31.982
-74.6665
-75.4239
-106.734
-119.138
-96.258
-60.5675
-89.2825
-80.114
20.3523
107.247
102.715
3.96246
-89.4575
-133.674
-129.928
-126.105
-102.629
-42.1238
17.6725
87.1107
129.447
167.226
165.577
73.5158
-23.0573
-67.5373
-38.2302
3.41199
47.9991
47.0973
-53.9562
-151.355
-190.875
-147.831
-60.2468
-42.5768
-57.3303
-71.6106
-98.4617
-83.47
-33.922
22.3839
100.342
145.819
128.494
68.9648
59.1246
121.124
126.689
107.309
121.519
87.643
70.4375
98.1556
85.2813
108.866
155.597
176.306
131.464
50.5752
-147.467
-322.359
-316.986
-204.542
-90.2862
-23.2189
-22.8606
-73.4701
-157.615
-200.415
-190.903
-137.293
-82.448
-65.9446
-55.4577
-3.81999
70.8576
115.278
110.174
98.0776
132.269
157.623
116.504
64.7816
33.3438
23.7372
37.2916
-0.959966
-19.0172
-1.90627
22.0664
47.2865
69.7062
55.581
1.98056
-48.5069
-105.655
-90.179
-11.925
29.8316
78.6802
115.427
73.0363
21.5347
-20.8711
-41.4862
-41.2256
-39.9591
-21.5955
-6.8352
-6.08003
8.08333
10.5026
-7.50358
-29.8731
-38.9175
-35.8562
-50.8305
-69.1545
-71.6751
-58.0039
-51.8243
-27.6403
-8.13923
30.0804
39.0839
6.6844
-31.5423
-35.7151
6.36771
57.9435
94.3157
106.198
101.866
103.328
91.3359
57.2273
8.29134
-39.5131
-83.4007
-77.3178
-49.2749
-21.1407
-25.6374
-48.1508
-9.06446
60.4367
67.721
47.9987
2.88893
-43.3514
-92.0647
-184.341
-201.949
-148.178
-131.254
-118.918
-76.358
18.2261
145.923
230.58
228.346
175.82
162.065
183.524
161.051
85.6177
40.7831
15.2598
3.74375
-3.8272
-15.9878
-8.66526
-24.2554
-68.9993
-54.2496
-25.2344
-15.6403
-1.04049
-28.4415
-105.021
-138.752
-131.95
-146.634
-228.222
-266.452
-208.157
-79.0667
12.5715
46.9667
54.2922
112.582
239.834
342.96
347.454
248.094
109.826
-2.68509
-87.9574
-139.499
-135.888
-135.679
-144.915
-137.482
-97.0247
-65.5974
-49.6015
-39.3461
-5.21452
38.0974
76.605
94.4362
87.861
29.0285
14.1366
41.7091
56.4167
61.2604
43.2871
38.6816
59.2657
73.5694
78.0132
93.5946
109.728
111.781
98.15
58.1864
-23.8683
-119.283
-153.426
-163.389
-171.969
-177.94
-227
-294.89
-230.54
-115.126
-32.8595
28.6152
69.3919
130.486
203.91
246.968
220.45
136.21
62.6862
2.86149
-28.6332
-5.653
-7.45639
-41.967
-58.2329
-39.6547
-10.16
69.6975
110.518
98.1243
67.2935
23.7756
-20.1325
-5.28736
29.5699
-48.9904
-113.872
-111.771
-97.0896
-74.2627
-50.9725
-49.6443
-46.2513
-42.8736
-72.7071
-53.46
-0.491624
36.7043
100.94
149.897
146.109
103.018
14.3992
-82.7783
-171.52
-183.131
-119.827
-30.6973
41.1084
80.4422
65.0677
52.2885
72.8131
128.439
162.945
157.824
172.561
144.902
-2.94707
-116.519
-146.442
-137.474
-87.6123
-47.4239
-38.0043
-7.03415
-12.6795
-15.399
-29.0064
-44.7451
-20.5997
11.5693
17.5446
-5.89
-14.7559
-45.8967
-92.7712
-73.7149
-41.4659
-50.1399
-41.6658
-19.3055
35.7598
39.7013
19.8832
35.3481
88.746
103.893
92.7063
70.5376
58.2242
70.6972
47.6353
8.40563
-31.9574
-47.5408
-31.5011
1.45791
38.5746
37.3168
15.8554
-23.6966
-43.3772
-50.009
-47.2531
-35.6915
-25.3175
-29.301
-19.5459
2.12988
15.6358
3.10781
-39.8789
-62.5649
-42.8412
-37.3514
-55.169
-49.268
-26.5793
1.34886
14.8606
22.8952
26.7861
40.6981
55.3427
63.5285
62.41
46.577
4.48602
-24.6728
-34.1565
-44.2937
-7.27444
35.2718
63.0851
80.4928
56.5818
51.8801
54.87
61.4094
43.1252
21.1658
-18.5627
-30.963
-32.5218
-31.6161
-20.919
-15.0203
-16.0259
-30.5968
-34.4339
-46.2651
-79.5602
-89.3905
-104.321
-103.691
-82.8337
-23.7143
83.6076
91.6677
15.394
-28.1396
-14.1226
-15.4689
-65.0227
-101.181
-99.7506
-77.9607
-59.2914
12.5302
140.831
257.874
368.792
424.072
350.343
200.334
86.0116
-50.0898
-199.704
-234.441
-199.767
-144.4
-122.84
-133.413
-118.129
-82.5064
-47.2439
-59.7909
-49.0089
-52.2978
-100.933
-138.96
-171.016
-190.403
-111.586
-8.4226
59.4325
112.716
153.453
191.552
212.973
180.583
152.378
154.584
156.914
170.893
157.531
127.688
100.386
69.4869
20.7029
-61.3341
-159.6
-200.499
-205.168
-191.461
-165.084
-131.563
-105.001
-85.5053
-57.2895
-57.8976
-26.3979
18.392
57.0352
73.3913
112.633
155.676
179.35
169.979
46.2787
-81.8053
-125.886
-147.913
-170.682
-140.496
-86.3188
-64.4029
-68.6499
-0.233811
72.5664
98.5193
95.2025
97.3676
119.565
85.9219
36.1817
-4.25403
-39.9637
-76.4385
-59.8377
7.12276
65.0497
74.4873
117.387
156.821
162.304
112.283
69.6859
43.5682
43.9622
7.2739
-94.7788
-206.663
-231.862
-184.742
-154.793
-138.618
-130.667
-117.718
-62.7488
27.2739
89.2865
122.541
154.149
183.156
127.164
43.9744
-10.078
-74.8
-141.189
-142.975
-98.7966
-33.2425
2.01949
1.99539
-22.962
-29.071
5.15972
37.3544
49.773
34.1924
40.062
61.3348
36.5066
-3.71728
-15.5667
-16.4807
30.2089
62.2747
84.6251
130.288
139.362
140.224
113.836
78.7515
50.5361
8.28148
-67.253
-124.128
-135.789
-75.853
-55.7631
-96.7098
-144.077
-184.298
-156.145
-50.2571
23.7079
26.0217
-4.03171
9.32787
35.3514
29.6999
17.9417
4.51928
5.65869
35.3062
54.1738
56.1985
93.0323
64.3203
32.4495
36.9302
35.5986
28.4823
52.7157
82.6534
64.6664
27.3916
45.2328
17.1676
-59.737
-67.02
-48.4751
-93.7662
-149.59
-168.659
-138.709
-67.9014
-24.3347
-0.52422
-23.0426
-69.7114
-74.0387
-35.9782
-9.86332
-9.25712
-8.91264
-22.9936
-66.3958
-51.3096
37.7588
101.27
75.6754
114.618
181.269
220.977
232.895
204.113
131.981
63.6572
32.4024
49.2284
48.8705
15.8555
-41.4891
-69.1076
-29.4055
-8.83778
4.62535
-2.71043
-88.3618
-161.714
-150.325
-101.941
-83.6534
-90.1647
-68.939
-36.6635
-58.4101
-63.6972
-57.9697
-79.8218
-103.187
-104.646
-61.7541
-25.5022
-42.7154
3.43357
59.8666
82.7891
150.214
166.213
124.647
62.8807
9.96831
-4.29492
-26.0601
-38.875
-17.5445
1.78977
26.8666
49.2062
45.9999
13.4802
9.99747
48.9036
74.857
63.0123
36.0027
30.4415
39.1646
27.0211
3.83137
-24.6236
-26.1891
-11.3401
-13.5039
-40.7748
-72.2301
-107.257
-89.3983
-53.8757
-5.92187
61.2393
108.719
109.811
121.408
119.348
129.14
90.9651
-31.7145
-130.404
-187.414
-242.018
-244.056
-158.418
-47.8414
35.3356
73.6692
87.4368
81.7532
71.0503
49.7944
19.1908
-13.4229
-33.7938
-65.6669
-93.6333
-113.928
-86.7637
-24.728
27.666
69.5386
120.191
134.331
85.5776
39.844
5.25056
-41.7954
-63.5927
-37.2572
-14.4425
-37.6344
-34.0678
-3.51843
-3.26909
7.17709
36.096
54.122
52.835
66.1844
100.188
96.826
86.7216
124.972
133.822
86.8815
2.25323
-39.6925
-72.6883
-131.706
-154.611
-136.342
-148.826
-190.473
-204.879
-123.35
13.2233
96.3512
132.396
155.157
109.383
68.2029
66.4136
37.3396
2.17682
-35.7281
-44.2833
-32.4586
-12.4923
5.98502
18.9552
50.0873
117.781
136.7
68.4068
-33.215
-148.129
-268.502
-323.204
-280.664
-167.001
-78.3323
-3.42654
43.475
77.1466
134.08
203.934
301.179
385.432
323.667
135.625
-6.00828
-117.863
-155.674
-82.0692
-50.3272
-53.1572
12.8185
85.8508
101.721
59.4684
-24.5059
-124.541
-184.146
-184.846
-129.4
-101.894
-81.6105
-82.1363
-55.6459
-3.19028
-0.135421
1.94359
51.6548
92.2398
113.053
118.646
135.746
97.1553
5.98832
-40.244
5.38857
43.8938
30.7095
-0.0801771
-58.6944
-68.8969
-72.6495
-75.3759
-31.7286
44.4089
123.15
173.947
159.782
-10.8284
-138.629
-146.473
-146.334
-108.731
-40.3098
12.054
31.6363
20.6454
49.4779
48.7943
-1.22886
-58.848
-118.144
-162.286
-96.5408
-19.4974
23.9465
59.5478
98.9333
216.139
303.498
243.856
136.152
32.1096
-39.005
-101.664
-103.617
-66.9131
-62.7955
-78.6834
-80.2816
-43.9797
21.2357
65.403
8.8931
-56.5664
-95.7219
-79.0713
-63.2239
-34.492
-3.55
9.06538
-5.98531
-29.3688
-69.5054
-58.7691
-23.9576
37.3363
96.7907
126.173
129.513
137.967
117.129
128.45
137.178
93.2544
-2.83044
-100.179
-153.41
-205.6
-267.007
-267.343
-174.953
-42.1814
64.8126
123.16
142.238
76.7132
-15.3275
-16.9121
-13.3766
-52.8902
-14.3023
52.1237
66.5493
78.5289
116.984
124.043
63.8619
-91.6801
-74.9188
-31.2265
-12.0906
-14.464
4.2419
54.5661
97.021
92.3701
75.397
48.0902
23.2141
26.4153
56.6072
63.7411
38.706
-4.40588
-89.8173
-168.235
-176.389
-173.559
-163.105
-99.5838
-8.77676
22.8149
-19.7101
-73.476
-64.431
-5.23049
30.8644
43.5874
101.034
113.82
90.3938
82.8728
6.64215
-29.7379
4.60084
1.41438
-30.611
-39.5263
-41.0796
-32.3118
-8.69196
19.435
45.4818
39.6732
37.2729
50.927
72.3889
96.271
54.9413
26.9375
32.8825
-11.1916
-51.5815
-56.5097
-45.3601
-24.78
8.21377
36.5984
24.6096
-14.6467
-27.9698
-13.2995
-29.9018
-53.0815
-82.9006
-106.452
-80.2052
-63.3592
-49.1177
-44.2863
-42.1901
2.60229
86.2656
137.803
122.936
114.5
87.1307
65.2881
19.3381
-74.2764
-118.909
-102.689
-70.6091
-48.9357
-31.7823
0.44978
53.8865
140.595
211.871
241.291
192.325
65.4846
-44.8763
-129.15
-170.452
-203.096
-174.221
-104.891
-45.6333
46.0036
127.751
127.321
41.7319
-7.44782
-21.998
-55.7686
-114.526
-221.194
-277.669
-239.976
-123.318
-17.0914
53.3255
114.366
164.108
207.227
192.948
138.449
113.549
118.09
135.29
129.285
140.457
131.581
58.7244
-26.0672
-47.5644
-40.3129
-84.6683
-139.882
-180.89
-167.826
-133.074
-68.7615
-7.07301
4.14846
4.71692
-8.37843
12.7929
29.2474
-24.7871
-100.043
-85.8377
-15.4119
36.8512
60.5143
42.8902
28.0489
3.64161
9.57222
57.3666
74.1115
97.9231
118.389
83.679
-1.89844
-69.5599
-83.0655
-103.176
-91.3688
-46.1006
-8.77753
-16.5323
-28.3137
-4.18722
8.16162
0.486938
4.53775
-5.01934
-17.1748
-34.9303
-35.2844
-25.2169
-19.8852
19.0368
83.606
124.735
111.659
77.9657
46.726
13.7707
14.21
46.4252
71.9424
48.1902
8.85988
25.8012
31.3211
30.781
-4.52669
-61.856
-90.8624
-100.355
-129.946
-154.64
-173.322
-122.55
-37.4423
22.3463
44.3536
55.1335
107.231
89.7408
-2.1919
-77.3976
-113.141
-122.55
-92.2226
-24.0945
36.8342
79.3427
116.342
82.1758
51.3032
45.5533
13.4213
-14.6272
31.4282
91.1105
44.4438
-55.6765
-112.701
-82.5335
65.784
265.803
345.055
203.738
27.0407
-72.0245
-76.2165
-51.0183
-42.0713
11.7839
52.4956
5.99281
-1.42342
-15.4022
-90.2823
-141.05
-127.674
-90.4458
-80.7896
-75.7254
-115.95
-186.114
-176.323
-82.1117
10.2191
45.0743
13.2963
-23.0708
-44.9637
-54.2682
-43.9424
9.81217
69.891
99.2702
112.511
122.62
117.909
129.856
108.831
81.1054
81.0771
101.266
101.725
96.2041
80.3374
55.2014
18.9868
-62.8157
-118.227
-117.651
-107.716
-80.9135
-33.4843
2.76849
-1.87846
-73.5455
-76.2522
-38.0297
-4.89669
-12.3134
-42.8866
-63.7122
-45.1415
-16.566
19.5527
45.3028
33.6936
28.7714
32.5293
31.0074
36.4559
34.4912
17.6359
-13.9388
-25.4737
9.89364
36.6059
30.2363
16.6394
-3.55326
-45.66
-72.4336
-76.9342
-52.6118
-29.7324
-16.2696
-2.33641
27.4902
45.5019
34.6562
32.0184
34.8163
38.3677
35.3764
24.6659
31.3043
32.4521
-21.0435
-38.055
-22.9144
-14.9264
-13.7457
-10.5512
-15.1201
-7.31269
3.40316
0.66293
7.08698
14.2491
15.6117
3.09175
-4.86674
-6.00266
4.84578
-11.3479
15.1207
11.8596
1.94111
-5.30367
5.19989
21.8715
29.12
1.58804
-2.56172
-12.157
-33.7212
-49.4318
-59.0661
-61.933
-45.7012
-19.7918
3.82514
4.9059
-16.3581
-4.38556
-2.70675
17.4629
51.0963
39.0324
20.751
18.9815
-19.0966
-20.7688
7.86057
33.6454
42.6392
54.2707
67.3079
67.6396
36.8422
8.09008
6.81481
13.1114
13.9995
-1.28703
-24.0839
-30.8236
-39.4093
-40.34
-49.7787
-52.5465
-31.5681
-32.6147
-34.1371
-34.7795
-26.3233
-3.10812
7.32896
8.60114
25.7138
38.2559
45.0488
23.5646
-0.890939
-0.484245
-7.22747
-18.2562
-20.6856
-21.1395
-10.2649
-3.03206
-27.1763
-25.5225
-12.2337
-5.73086
7.4043
19.2592
24.5458
21.7399
25.8543
16.2066
-8.60491
3.8705
19.1696
24.6464
23.872
8.19006
-5.88203
4.89972
1.30338
-9.20856
25.3644
52.4395
33.9803
18.6699
8.63141
-11.3065
-40.6614
-44.8081
-39.7759
-44.9941
-37.5909
-14.6015
16.6252
33.2843
20.9718
20.1658
8.11781
-5.84922
-19.3739
-22.6356
-14.6064
-17.4033
-40.1298
-45.7605
-24.5322
7.79823
59.3598
81.6816
43.3193
-26.8294
-82.4583
-76.0443
1.32956
60.7253
55.0052
27.1171
23.5817
42.0077
64.5453
16.8232
-16.918
-26.0945
-13.299
-3.7804
-15.0279
-35.2355
-29.6855
-37.3091
-21.0913
22.3941
53.3569
47.4626
-1.78137
-37.6208
-14.6676
-20.8491
-13.2398
-16.4122
-21.5237
-3.74459
-1.17334
-4.76852
16.3903
20.758
-10.9541
-14.785
-13.5325
-9.64164
-0.035651
20.9752
51.3794
48.1743
21.5847
-3.5818
5.61375
20.6937
0.164421
-24.8713
-26.6846
-16.8231
-0.521248
2.69597
-21.81
-45.912
-19.6901
3.46694
18.2207
34.4804
41.4636
45.556
17.6791
-15.2236
-28.1032
-33.1837
-54.5405
-60.4545
-37.236
-13.6831
-14.0552
-17.8778
4.24501
24.3665
39.3432
37.4801
36.5347
47.4386
33.3563
-1.6271
0.662282
3.12511
7.95638
16.4219
12.7364
17.3728
20.5342
21.4638
16.5117
-7.7743
-9.97256
1.01952
-20.8139
-34.4811
-35.9337
-24.8543
-23.9311
-35.3741
-43.4357
-27.9664
-19.5795
0.0934198
28.5389
34.7297
-2.27009
-19.1062
-19.6177
-2.4862
18.8574
31.7631
31.4915
42.634
52.1624
41.6073
15.5097
4.99885
1.32364
-43.3618
-74.6978
-51.3461
-45.6984
-41.19
-21.0178
-1.24488
12.2058
-7.97636
-31.9715
0.503951
85.7507
87.4977
44.2998
15.9989
-8.89285
-22.5382
-9.70954
-4.47838
-0.523736
25.993
19.1111
7.38694
19.198
9.82077
-10.7542
-14.5998
-7.8151
3.18069
4.78137
-4.1462
-39.9321
-29.8418
-8.3991
7.0558
2.78791
-10.2921
10.0164
8.73903
1.24603
10.4605
21.9415
-3.54466
-38.9729
-41.757
-32.9007
-22.2789
-11.7496
-2.61646
20.5917
27.1054
-3.37612
-29.5495
-28.8637
-22.2698
-28.204
-23.8049
0.577198
27.0605
42.5714
45.4877
64.0386
94.6204
82.3661
66.1361
46.8398
35.1843
37.8717
15.9706
-12.2887
-40.6721
-59.8856
-52.7223
-64.917
-84.7532
-72.7336
-34.0166
-19.7078
-13.4165
-36.3954
-74.6116
-60.2894
9.92459
39.5078
15.4987
5.48108
-12.4547
-19.5988
1.60064
22.5133
23.9259
21.1939
28.0785
53.8749
56.8257
37.4562
17.2478
-22.7504
-6.26503
49.297
76.3574
53.513
5.73621
1.37435
10.5728
10.8789
9.11127
12.3912
-5.90562
-49.7472
-69.1915
-89.4669
-83.0414
-15.3376
23.7243
34.5352
39.4459
34.0652
-3.43543
-65.663
-64.0022
-20.1995
-33.3329
-46.4812
-7.74664
54.2568
54.027
5.48583
47.8195
132.906
134.672
91.8861
53.8605
37.0555
1.40582
-52.9967
-106.495
-156.188
-153.396
-96.7235
-73.093
-90.2574
-156.291
-192.053
-117.819
15.7065
154.453
279.686
301.136
175.577
27.2525
-30.7957
-30.5857
-32.2102
-48.5988
-44.8339
-34.8565
-12.0809
20.3639
83.9877
93.4783
19.0195
66.153
152.221
101.455
-37.4593
-160.121
-223.12
-234.997
-179.155
-88.3431
-23.1357
9.10871
43.69
36.7659
8.34257
2.7064
100.153
156.641
108.548
64.9049
66.4876
58.3603
47.8372
75.8848
109.112
69.1408
-41.5098
-73.8132
-36.8862
-45.101
-107.175
-118.864
-45.6451
40.5758
165.459
229.124
211.569
157.676
6.11476
-132.956
-228.27
-300.084
-310.414
-275.963
-249.135
-180.333
-127.739
-120.383
-66.1524
47.2373
212.694
308.176
208.654
124.649
62.0952
10.1622
-37.8117
-79.5793
-86.7303
-41.6228
23.0454
148.203
236.237
213.903
184.742
170.895
164.082
119.118
34.7188
-22.3821
-56.3815
-165.904
-253.375
-253.595
-198.73
-142.564
-78.0885
-48.1216
24.4507
85.6826
123.518
151.448
186.927
202.344
165.654
165.896
108.924
-1.10459
-46.2383
-68.4041
-131.859
-197.855
-240.622
-226.87
-222.041
-215.989
-246.813
-239.203
-115.992
54.992
136.088
123.906
72.7556
41.2258
19.9861
-42.5321
-24.9211
42.3609
96.9894
110.862
124.813
165.025
205.226
190.771
137.707
93.7671
80.6262
103.448
87.2401
-8.03151
-62.9123
-79.1457
-116.488
-174.67
-189.62
-151.395
-76.5532
-10.805
1.62356
11.2868
30.7199
55.2363
61.585
36.9891
38.722
68.9236
63.2809
49.8
19.9504
-7.84406
-9.81208
-50.0854
-86.9835
-100.794
-111.516
-115.37
-87.3237
-12.9096
59.316
80.2529
74.9371
65.7826
23.1118
7.94968
13.59
35.8209
25.7092
3.38797
-10.2657
-18.1133
-8.48869
7.239
-61.421
-155.343
-164.186
-71.9601
7.38396
5.5369
-1.92427
67.5545
96.1875
39.7116
27.0775
19.033
17.7674
53.6791
84.7599
30.0242
-15.7807
8.58224
34.7744
-0.174469
-40.1874
7.38809
36.7221
14.1726
-8.20231
-12.7161
-36.0135
-74.9784
-74.7842
-41.3611
4.30679
43.0325
56.4458
27.2635
-10.6668
-33.1361
-43.5808
-26.1779
-22.8712
-24.7925
38.7833
101.728
118.69
73.622
18.8402
-7.34874
3.43652
11.902
0.118621
-0.0449782
5.77231
15.8288
-4.03496
-40.231
-82.3686
-68.1083
-16.7287
-18.8825
-31.9366
-29.1418
-5.12675
8.69742
-8.85765
-15.9036
-12.083
-5.21328
-11.3468
-14.9899
7.10732
19.6538
38.004
66.1314
29.919
-26.6746
-29.3858
-13.7611
-16.9817
16.5805
56.0676
106.323
106.597
41.591
-9.39162
-35.6636
-48.5955
-77.6912
-116.809
-117.6
-115.509
-97.536
-69.1672
-34.0693
13.6193
43.1745
50.552
67.027
69.4324
35.8437
2.34309
-16.5807
29.5618
69.5038
88.4803
107.982
115.948
116.367
98.4213
39.0134
8.24571
12.8355
0.281084
-33.816
-55.6509
-71.0463
-65.3663
-65.3051
-72.737
-75.2782
-56.7728
-45.4481
-54.8007
-40.9871
-21.2514
-46.7495
-88.042
-108.637
-47.7912
73.007
98.3966
53.9822
42.3482
44.0949
32.3646
33.4541
38.7318
29.882
5.4546
-0.883581
-4.53845
-29.7742
-41.3809
-36.2512
-19.1091
0.304902
-0.289336
40.6209
105.513
108.82
94.501
107.673
108.721
70.328
8.8875
-26.856
-20.4929
-27.4703
-61.7575
-93.0843
-115.878
-110.409
-101.217
-95.0947
-77.5858
-42.3259
-32.9584
-42.6645
-71.2895
-82.1623
-20.8509
38.5737
42.3673
39.0251
62.9263
61.5722
35.0556
55.3994
90.678
102.039
84.5702
41.8174
-11.336
-51.66
-32.3419
-14.2684
62.3289
121.903
101.644
42.4274
-6.04758
-25.6909
-39.5868
-57.6299
-59.0466
-39.1835
-11.12
23.8564
57.6271
33.9732
-37.4688
-109.129
-92.4039
-64.5585
-71.3838
-47.2248
-9.25092
30.756
21.2524
-10.1094
-44.9051
-71.9763
-67.8053
-37.475
-9.90195
2.16712
-0.693077
-30.1702
-51.2933
-11.7345
49.8309
102.488
98.0163
81.3646
107.79
174.342
167.35
103.079
104.945
93.3298
19.376
-42.1135
-54.6983
-2.01342
-0.948045
-35.4806
-61.3939
-83.8395
-102.984
-107.517
-99.7183
-76.9936
-47.6731
-4.05071
19.407
-11.3912
-13.4458
22.6308
43.2503
2.93125
-64.0277
-86.0243
-97.1691
-103.571
-85.8129
-70.1142
-38.7803
-3.26529
15.2232
23.093
29.303
46.3951
149.591
266.723
261.297
161.093
31.3017
-75.282
-132.273
-92.1072
-34.8221
-29.903
-19.1195
12.9977
93.8897
143.375
131.624
115.294
41.8723
-41.9133
-58.7529
-40.4326
-90.4364
-155.369
-158.154
-168.811
-161.459
-136.283
-70.1661
-1.37886
70.0154
150.557
191.079
121.807
6.55867
-51.2422
-69.1426
-68.5211
-23.9526
15.534
66.2626
93.8875
83.2699
46.3797
10.2504
14.3161
22.6621
11.0249
-37.841
-80.4222
-71.4529
-73.0422
-74.3999
-49.5318
-1.73051
32.3467
37.8637
52.3901
70.844
104.089
85.473
41.7387
-30.2434
-103.252
-96.4583
1.3349
85.765
118.497
116.134
92.7151
25.5948
-57.0382
-111.91
-71.5107
-25.3422
-36.1488
-51.3996
-69.1449
-80.4022
-90.071
-86.6915
-41.404
-16.3149
17.6913
34.2833
8.73876
12.3391
29.4557
2.17184
-21.7982
-18.8546
24.1763
47.0758
26.3385
9.62346
27.7122
45.6889
59.7314
77.1895
55.2296
40.5991
40.374
37.9212
31.275
-0.161241
-30.7473
-28.5302
-14.3134
-45.2427
-65.6512
-33.2438
-5.05486
1.39621
-3.82368
3.90581
18.8709
35.0443
8.20695
-4.09686
-36.189
-111.829
-166.701
-105.74
7.42837
74.8385
116.026
122.428
92.8809
36.4148
45.21
94.7791
93.1547
63.9128
35.292
-65.1371
-121.912
-122.445
-123.873
-160.819
-165.558
-110.417
-10.5136
46.2217
32.0976
10.8034
-9.72247
-55.8875
-103.25
-65.6661
-26.0637
-13.1305
28.2713
53.5617
69.7717
124.426
158.911
171.028
177.67
159.26
147.638
122.762
28.9967
-48.9303
-77.0277
-24.1657
48.1134
52.1205
23.5013
47
11.4839
-91.0015
-137.439
-138.818
-135.424
-119.241
-129.858
-133.012
-115.233
-59.158
-18.8848
-25.6339
-55.5017
-48.396
38.2112
46.5622
3.82412
-13.6555
29.6233
52.7193
95.8441
112.3
86.3746
39.8345
3.50947
-11.4191
3.70201
28.9379
53.4215
29.762
1.44358
-15.9411
35.5726
108.978
59.1641
33.5242
78.22
85.2846
-2.6355
-92.1554
-121.074
-43.3923
-24.3385
-47.1049
-57.6555
-24.7617
12.2405
30.6839
26.2864
-7.22722
-53.1482
-32.2689
-21.9096
-85.1747
-138.892
-199.588
-228.253
-114.093
38.6652
145.553
203.748
190.238
134.245
88.471
24.8301
16.8106
60.0691
83.6121
27.3254
-21.7349
17.9744
62.5754
75.106
51.6153
40.0465
9.601
-57.1664
-139.632
-179.914
-193.958
-175.053
-131.469
-65.6388
0.169603
80.0001
118.817
119.755
40.731
-16.5602
22.8128
110.054
164.821
131.083
49.1545
-56.9798
-120.813
-121.408
-76.518
-21.5613
-11.3603
-79.6287
-120.021
-59.8618
56.725
109.343
108.746
129.873
137.755
56.7745
-41.296
-112.51
-157.254
-123.989
-30.8784
80.9876
156.842
129.191
44.6862
-25.4689
-22.805
2.91185
-1.07234
-23.8968
-63.4683
-125.953
-145.706
-146.773
-135.636
-47.2137
35.489
65.8967
112.341
108.714
45.9844
19.4649
49.6987
91.814
83.7919
21.8183
-8.70249
16.3146
65.9113
91.3695
28.8973
-18.3865
-37.912
-79.2053
-88.6265
-54.4023
-14.1386
-16.4066
-78.5623
-122.137
-107.079
-53.7508
-18.4983
36.3099
162.587
272.576
201.793
111.325
30.3277
-29.9448
-66.9191
-76.7792
-87.9654
-124.082
-130.36
-104.746
-83.1178
-26.3959
43.0864
109.898
186.19
139.213
-9.28133
-109.084
-160.365
-144.608
-57.0507
-33.5491
-2.33005
22.4631
37.3348
66.5643
44.3599
20.9172
-27.2091
-33.6969
30.787
102.4
117.983
36.418
-8.65841
8.55142
57.8668
79.1938
1.45513
-90.101
-97.0974
-33.5668
-0.305877
-30.9249
-34.1392
-21.8642
35.2465
89.7618
116.315
103.594
63.7347
-31.538
-101.296
-67.3941
-28.2434
-49.1624
-28.4641
15.5233
13.2784
-46.7033
-85.4974
-78.4809
-53.7941
-1.263
57.5953
31.6825
-12.488
8.4106
83.5264
88.1321
48.0342
-11.5629
-41.9783
-41.7734
-84.5303
-99.4306
-93.1409
-82.0396
-52.071
18.5961
84.231
144.34
130.668
62.8837
39.6088
33.2486
29.2795
0.757058
-22.7804
-2.21098
29.2382
65.6198
4.42285
-113.915
-115.057
-31.488
-27.1165
-36.3167
0.243527
51.9563
65.2247
26.2567
39.6321
93.9899
60.3637
15.3813
-8.46904
-28.2511
-30.9383
-31.7573
-64.6005
-77.0788
-26.4958
16.5291
-5.4858
-32.6573
5.62748
36.0437
18.1805
-2.30744
-52.6277
-156.719
-200.524
-83.7406
58.3972
172.272
227.076
178.567
37.5973
-55.9948
-54.616
-34.5996
-27.6848
6.98855
45.6201
32.6184
-11.8049
-66.944
-85.223
-65.6785
-10.1886
52.8031
60.9328
16.8749
-2.13173
-44.023
-70.3576
-44.8613
-12.9448
-10.3788
-22.3988
-15.2891
51.7148
129.58
103.51
67.0284
61.2638
43.1067
28.8179
19.2722
-15.3817
-19.7102
-16.633
-48.0061
-82.1129
-77.7685
-70.3689
-67.3659
-66.0753
-37.6417
-34.1308
-56.7933
-3.4038
119.48
208.202
221.219
177.065
98.4727
37.5784
-36.8679
-89.5449
-108.474
-106.389
-96.3231
-109.511
-126.745
-170.661
-188.083
-138.506
-45.2155
76.8958
166.131
195.774
170.253
114.078
23.8548
-43.515
-41.2646
3.46169
31.1888
33.3588
24.6291
11.4224
-18.7395
-23.0671
14.7171
51.0573
64.8895
59.7902
8.33927
-40.731
-49.0159
-100.338
-163.251
-158.375
-68.9395
38.3807
101.701
132.658
74.6482
57.6146
49.6853
56.0168
37.4338
-12.487
-53.2036
-88.1535
-98.4507
-35.4209
32.7346
75.2364
80.1905
52.586
7.78889
-21.3213
-19.3304
-31.8141
-65.2283
-76.545
-66.1327
-53.6082
-56.305
-49.647
-31.7558
-7.10548
21.5288
18.3634
1.60261
10.4759
31.047
35.985
-13.9927
-22.0109
20.7928
45.7537
26.0299
21.8033
65.642
118.667
165.34
166.693
124.021
9.42044
-119.24
-160.275
-65.8505
28.2568
63.5578
101.629
88.2681
-46.0055
-146.933
-171.82
-180.828
-137.319
-24.585
32.6807
32.8663
-21.4825
-111.697
-125.189
-43.1067
69.421
96.8323
59.5511
-8.9423
-17.7359
1.85516
-22.7398
-37.2609
-4.45409
37.6574
79.9562
110.272
132.386
100.94
38.2905
41.7255
78.7272
91.7123
61.6602
9.84148
2.77582
9.32014
11.8867
-35.2852
-107.706
-153.385
-153.656
-124.994
-37.9325
36.2832
69.2066
62.1801
52.9248
41.4372
9.96886
-87.6821
-147.508
-128.227
-53.9715
-29.7032
-74.9489
-105.672
-108.963
-41.9697
80.5239
145.42
126.201
123.246
107.645
47.1461
38.6274
47.8489
24.6759
-11.4517
-16.2916
-22.716
-10.0162
0.0119736
21.506
49.9076
50.4812
51.606
74.5383
112.223
77.8738
27.8486
26.3154
-61.7168
-128.145
-105.054
-77.894
-62.3612
-51.1175
-49.6689
-52.8786
-26.7834
-23.4425
-39.3543
-82.2304
-79.2152
-18.1532
16.7726
-5.42622
-50.1521
-94.1789
-76.8004
28.6144
146.867
155.902
110.996
46.9512
20.4518
8.28954
12.9588
20.3169
-16.0071
-34.0553
-7.4553
4.05457
28.4802
18.1606
34.2157
96.7353
117.671
114.245
95.3418
23.8797
-29.5627
-44.8335
-68.7402
-42.7379
-32.3904
-85.3067
-110.381
-59.084
-15.305
-13.5287
-20.1915
-80.0664
-179.065
-160.823
-31.559
73.3317
141.107
157.692
111.04
-4.9874
-88.7875
-98.5404
-68.9102
-47.6925
19.3706
83.3548
86.8627
31.3599
27.2489
91.7302
118.727
103.364
107.151
85.6717
8.62565
-82.1
-125.992
-131.026
-151.372
-162.299
-120.829
-33.7539
21.4941
8.01394
-22.4729
42.5005
146.357
141.174
68.3736
-20.8697
-79.3067
-42.6712
62.6768
63.0081
33.7144
59.7105
64.0281
29.37
29.3575
7.96429
-24.08
-40.7444
29.9499
33.1428
-18.2258
-88.8128
-158.971
-197.866
-92.7029
50.3261
151.259
205.167
185.105
83.5918
-42.9441
-146.99
-193.368
-183.877
-119.966
0.0400398
64.2325
49.2731
8.39914
-0.582727
10.7139
6.2515
-9.99533
26.6993
43.1549
24.4292
13.5357
-18.4247
-49.9194
10.3301
61.7446
41.5739
-0.775243
4.41511
28.6839
13.3153
-20.211
-62.6905
-109.498
-122.573
-11.6373
151.443
199.914
187.03
161.921
71.6719
-30.918
-43.8299
-56.502
-58.1929
-52.2003
-31.4388
-43.6822
-79.3467
-81.2799
-73.896
-56.1005
-0.190054
42.5094
66.0537
26.6868
-55.543
-61.892
-27.388
-41.8389
-50.8032
-42.7593
-11.9664
29.0342
62.7511
92.3914
119.246
153.039
181.489
122.167
24.0816
-7.58034
-46.3066
-94.5525
-73.7761
-77.364
-95.6902
-84.4922
-65.1758
-53.4332
-13.5947
-16.2025
-74.4718
-155.612
-197.248
-93.8249
14.2351
49.4538
108.2
144.908
142.521
127.192
86.1943
76.5993
102.602
91.0245
-12.5815
-112.951
-90.5413
-5.89327
39.7686
32.561
44.9674
94.4854
107.539
35.6626
-23.4467
-83.4248
-180.517
-204.255
-153.18
-138.269
-89.1487
7.52287
44.2521
50.0869
72.3715
115.251
116.945
60.0819
18.8243
40.2265
63.3083
60.2002
76.0079
90.4196
41.688
-24.5158
-63.9125
-66.3425
-39.5822
-4.7288
59.2803
38.4157
-16.1217
-26.0627
6.53938
-18.9335
-71.7265
-88.3774
-52.4213
-20.1394
-20.8446
-30.3192
-53.0023
-113.638
-161.271
-136.219
-85.8873
-35.611
34.9218
43.5535
30.836
37.4555
28.8246
-12.9672
-19.8723
100.214
228.996
231.358
160.685
92.6982
-1.85626
-89.4371
-68.2827
-20.4892
14.3647
101.032
146.391
82.4678
-13.5436
-31.1681
-29.807
-68.9786
-138.872
-145.517
-109.39
-59.3002
-54.0138
-63.7135
-79.7128
-41.7971
-18.0152
2.54937
35.3722
76.6476
91.1178
46.2482
-5.34548
38.2875
83.5622
77.4607
49.1524
56.372
78.8949
94.7072
102.444
46.9092
-44.6519
-107.832
-116.511
-122.727
-126.07
-65.1565
-57.04
-99.6079
-67.0723
-19.3924
20.9645
23.6843
35.4111
48.9809
46.3207
45.8011
51.3334
23.451
-37.3065
-51.2907
-9.11196
54.0478
74.5573
44.388
36.6932
27.7896
-2.04033
-31.7207
-29.0313
-25.9919
-24.3666
-39.1074
-54.5071
-40.3301
-70.6114
-118.084
-17.0063
119.765
175.34
146.702
100.977
42.6185
-29.8886
-92.4081
-66.9568
-28.1395
-27.5736
-15.5819
-3.15029
-2.61097
-13.2589
-28.1083
-10.2866
51.1143
93.1621
100.1
66.8164
26.9535
-29.0216
-105.16
-94.5152
-61.9954
-66.2861
-55.9151
-18.8101
7.84383
42.9903
82.8957
59.1359
26.6426
18.6959
41.2478
26.7613
-36.2636
-75.1815
-93.4035
-113.081
-84.9986
-9.78757
65.3084
58.4531
1.18592
25.0457
93.9208
66.8982
-2.39552
-32.5995
-50.1121
-67.4332
-77.2127
-71.6455
-38.3477
29.7424
86.4238
88.1201
83.5058
48.2561
5.90749
-13.2225
-32.6997
-33.7486
-8.2787
6.41765
19.5349
23.3086
13.9371
11.8199
37.425
97.4888
90.1452
62.8353
37.9713
-11.9468
-55.9163
-50.4611
-22.8398
-0.161338
-10.1309
-44.555
-52.07
-57.2226
-43.7934
-19.3819
-17.6664
-30.2495
-37.4574
-69.6957
-153.467
-202.013
-117.698
30.6049
136.32
159.685
152.631
218.531
237.317
157.874
83.4871
39.0511
28.9322
-17.9006
-113.391
-151.435
-145.452
-136.511
-130.097
-116.613
-62.4102
-23.9413
-8.69176
-31.6944
-66.0428
-74.8331
-68.4514
-73.5369
-48.2471
5.44352
27.7063
34.3894
32.8965
35.2091
88.1956
149.199
169.983
177.845
188.342
169.844
118.675
74.7616
9.83953
-42.4948
-27.6209
14.6264
13.2051
-45.4011
-50.2161
-18.8531
-46.3604
-50.8755
-73.1395
-107.925
-102.48
-118.063
-121.299
-44.9651
16.2442
32.407
45.8903
44.1405
10.7849
-14.6681
-35.5832
-61.6431
-73.4254
-60.3986
-73.4858
-51.7523
9.56566
60.0545
73.763
80.486
100.403
98.5693
57.1401
-10.1062
-64.895
-64.937
-31.2162
81.9115
239.27
223.95
27.3647
-92.6618
-79.3505
-34.8202
-31.0028
-45.4852
-44.0953
-81.7769
-149.027
-143.185
-107.402
-64.357
-20.9216
7.38002
24.8318
54.4147
67.1538
30.8299
-44.8654
-46.7249
46.188
122.717
116.583
90.8944
138.817
144.246
73.2522
6.53013
1.29549
-2.89456
-14.497
-27.1562
-25.045
-48.3468
-54.267
-39.8285
-38.7072
-46.352
-46.8503
-48.7991
-12.0939
25.2102
10.5094
-68.2095
-135.062
-172.311
-167.179
-79.5174
120.491
224.427
194.998
142.449
109.324
51.9121
-7.96987
-44.5662
-43.537
-56.462
-80.7536
-84.3529
-96.1082
-108.438
-49.1865
13.7305
14.7933
49.7544
90.9614
95.5714
72.3857
98.5197
103.591
70.5374
2.05983
-31.9859
-22.9112
-29.7497
-68.6879
-98.3413
-96.3555
-63.6901
-30.8927
-19.357
-24.0947
9.07694
34.4076
44.5701
66.5516
79.0031
24.1151
-42.9578
-65.406
-85.5467
-59.6835
21.0446
59.6747
66.6196
90.7115
83.1599
62.4599
56.5649
32.5595
5.7467
-41.0477
-87.4081
-112.014
-83.8485
-6.19201
-26.9507
-101.06
-140.625
-113.407
-18.6547
64.8651
128.804
150.325
118.301
79.4971
66.5448
58.7803
17.6603
-0.084273
-19.2369
-37.2831
-23.9034
8.79996
6.39938
-16.9518
-11.1456
0.608659
-4.14146
-49.0444
-105.293
-105.974
-76.1003
-44.2404
-33.8351
-5.32703
40.1396
39.9707
-20.1348
-87.4597
-99.7524
10.4596
143.169
213.744
188.699
175.109
155.394
57.0961
-65.1953
-104.09
-108.094
-95.3081
-66.6586
-63.1217
-70.3855
-43.8665
-22.3055
-19.09
-6.89067
19.585
17.0433
-41.4744
-85.8219
-85.303
-39.4194
-36.7248
-61.6057
-60.0569
3.8559
100.634
164.491
167.003
100.38
47.5196
38.6338
4.59226
-44.0943
-54.2147
-4.93132
31.8684
48.7943
84.4522
87.1315
57.0644
17.8967
-12.1323
-13.8857
5.63797
11.7032
-18.0187
-62.4234
-95.5393
-91.5072
-50.1432
-0.106466
-20.1646
-46.3388
-55.8127
-49.0369
-9.41634
46.4084
29.9859
5.45501
16.2182
-2.554
-25.0812
-17.4511
-12.9055
-12.188
-5.75394
21.3165
45.5972
37.5839
-27.608
-51.4096
-29.3663
22.097
69.3597
76.0253
63.593
10.1162
-31.5334
-64.0998
-135.381
-144.355
-87.9528
-28.2358
58.1007
157.242
184.872
116.83
11.3037
-58.7625
-82.3843
-112.899
-119.788
-85.739
6.93181
122.294
171.181
180.386
124.396
65.7945
62.3217
50.1564
-6.05115
-72.7435
-114.117
-136.932
-133.559
-79.3149
-25.0269
13.0098
62.2078
90.7253
96.3503
28.3761
-85.4539
-133.874
-140.346
-131.178
-72.6429
-4.58672
21.6778
40.5307
23.7636
37.3966
77.6261
91.7284
86.8999
79.7269
84.6674
50.1031
14.5909
16.3596
9.10104
-16.1774
-49.4252
-96.2108
-83.8923
-56.8562
-53.1056
-56.47
-58.1143
-69.346
-83.8883
-60.4616
38.095
155.881
216.728
225.979
191.075
115.032
4.62319
-55.9074
-81.6946
-85.5983
-44.0456
6.49997
-10.6158
-73.4388
-98.6379
-94.073
-51.3478
29.945
59.6631
42.0073
-24.44
-91.2874
-133.056
-152.733
-142.032
-72.8799
-0.148942
48.6397
66.0803
57.2319
41.8661
36.9262
36.7321
64.11
76.7674
75.9013
84.3433
44.7811
59.4715
55.8019
6.99328
-48.4979
-64.6032
-38.2935
-26.7351
-30.4017
-9.4288
11.2222
61.2914
96.2606
78.9601
55.7759
48.3099
45.4834
2.89599
-57.1986
-93.8953
-81.9305
-50.0605
-22.1811
-34.549
-47.4266
-27.6718
-16.6309
-19.318
-15.3169
-15.1439
-17.3863
-14.3915
14.0909
25.0229
-64.7047
-129.469
-73.587
43.5228
129.33
121.036
51.3586
6.87903
23.5737
69.9464
59.907
19.7371
14.8389
31.8615
10.5932
-11.3913
-39.0473
-77.5223
-92.4906
-79.5587
-42.5254
-15.0885
-19.2713
-26.8767
-53.9186
-30.4264
12.5525
12.7922
7.46695
6.21789
15.2145
30.4928
4.0059
-11.7701
15.9178
49.5835
63.6004
65.6736
53.4763
46.0108
51.5726
71.5096
59.0909
31.0134
11.0047
-7.54164
-15.1042
-11.6952
-29.0523
-93.3582
-107.531
-100.529
-80.7288
-43.2034
26.9868
86.5552
74.2072
14.9643
-58.0206
-99.164
-47.9441
7.29058
40.4899
50.1191
30.8413
40.6378
68.8279
56.2789
24.2114
24.9421
16.1195
21.6149
-4.03113
-56.2613
-107.062
-130.068
-121.476
-71.7781
-6.16022
26.9049
14.9036
-6.73833
-20.1716
-11.4653
49.2172
79.2016
51.2372
-17.93
-96.0203
-90.949
-18.4904
52.1633
125.071
189.088
189.419
89.438
-14.7126
-26.9469
17.9355
51.9647
15.5922
-42.0332
-76.5799
-92.3308
-94.7888
-87.5713
-71.257
-31.391
-0.936984
7.50077
-34.3464
-71.5721
-70.8426
-75.1637
-65.4298
-17.6053
65.2106
120.932
100.473
50.3635
17.6979
3.59176
35.4557
88.3576
110.437
113.764
116.438
122.285
91.0921
26.3615
-26.9823
-76.0534
-105.042
-90.552
-97.3517
-93.6619
-67.1296
-68.267
-77.4833
-53.3603
-5.6877
44.9113
5.77452
-54.7422
-66.4164
-50.7474
-66.2987
-65.0408
11.7067
88.2663
94.0437
63.9663
37.638
6.2864
25.0121
59.4237
73.8992
51.5461
31.7438
36.5955
47.3589
-1.97077
-42.6062
-65.6855
-102.107
-142.683
-123.511
-86.6972
-50.2013
45.5938
138.731
130.213
53.6132
-14.0422
-49.2489
-21.8007
5.07787
40.525
101.197
131.578
68.5786
-16.5227
-48.0876
-46.6218
-62.1322
-64.659
-70.1092
-21.8952
16.7789
18.8212
33.7753
43.8902
52.2365
58.4226
54.8939
41.3083
6.73181
-36.5655
-81.1339
-101.138
-67.6722
-1.83553
26.7164
20.2567
24.9923
-0.0668138
-5.05037
-33.0599
-62.9409
-85.9275
-75.1723
-11.7223
68.3224
143.286
175.539
103.227
-10.5751
-85.2586
-115.526
-93.8426
-60.2252
-29.2398
-0.0307857
7.46172
52.2692
126.868
103.752
64.2966
71.3177
53.4189
-14.8415
-75.6706
-119.107
-149.007
-138.281
-85.3498
-30.5548
-8.61547
1.7157
-16.5724
13.6652
63.7571
66.4204
70.3935
33.7182
-21.3551
-12.3085
-5.84576
-18.5089
-11.0238
21.8391
41.6965
48.1227
57.1112
-7.445
-76.7869
-25.1051
69.8617
115.287
127.981
122.665
78.42
54.2574
34.4735
10.9045
-34.5321
-118.641
-144.169
-103.676
-72.5494
-50.8078
-11.8976
10.6954
-52.6011
-65.0492
-35.0006
-44.362
-84.6636
-108.757
-88.4721
-43.0583
-7.64591
17.6017
-5.32004
-13.5925
5.19746
69.6887
130.909
128.99
103.101
68.7456
19.8784
5.98735
54.6277
110.39
138.686
135.877
138.159
132.469
89.35
-4.8945
-126.03
-192.374
-170.364
-123.321
-69.178
-4.39573
-11.8409
-46.5525
-85.5389
-94.9136
-47.3436
-33.0356
-73.2896
-110.721
-133.862
-146.317
-84.8734
13.9963
69.8304
133.329
214.337
217.178
159.68
92.1731
21.5269
-55.1059
-61.9125
22.7377
28.873
-19.5446
-21.9264
40.9091
100.36
104.728
98.0637
48.3652
-42.9976
-128.482
-160.568
-173.499
-146.206
-113.851
-73.4126
-27.7395
-6.31614
32.996
65.3861
52.4633
94.0162
129.42
108.562
98.8529
80.0103
47.3658
29.0983
35.8234
28.8731
11.1454
-62.7585
-162.572
-221.558
-171.998
-65.7535
31.3293
116.835
159.781
129.575
66.1476
-3.7994
-37.054
-52.5981
-86.0724
-108.343
-106.197
-95.1851
-37.2932
-8.53262
0.884803
38.618
87.7679
120.42
102.395
55.8565
8.31091
-33.7407
-69.2339
-82.0536
-58.6839
-27.6602
-33.9795
-52.1075
-82.8783
-69.4438
27.2482
111.265
175.129
229.221
183.413
110.773
107.014
101.684
15.3144
-44.1624
-59.9805
-83.1728
-103.776
-118.368
-143.639
-148.12
-143.882
-99.4738
-16.3815
13.1903
-27.3488
-47.958
-82.7796
-135.348
-98.6772
9.33472
88.1702
149.626
204.542
180.043
124.953
105.893
111.964
65.6497
22.6193
11.8763
-4.74235
-43.9833
-72.7996
-36.9575
-6.72486
-23.863
-33.0523
7.00854
15.9175
-6.54563
-28.9809
-34.3777
-23.0438
-15.9085
-51.1609
-90.0218
-101.189
-89.9123
-123.148
-132.14
-28.4404
72.422
99.4259
129.669
198.451
187.451
82.5136
-4.80535
-57.799
-80.9541
-60.9784
-39.2127
-56.4908
-69.6155
-31.9982
16.9666
16.4896
45.923
99.6286
117.974
104.904
80.5819
42.1433
-17.6779
-111.674
-196.426
-198.776
-99.6036
20.97
30.6007
-21.2883
-46.051
2.40008
42.0078
48.569
56.9537
68.9457
82.9193
97.5036
100.146
54.6075
-1.10503
-34.0846
-47.2605
-66.5605
-36.0503
20.1822
18.7359
-13.0945
-22.3138
-18.2435
-28.3545
-6.29522
13.7455
4.07545
-37.9041
-75.6126
-98.4965
-125.522
-161.409
-127.569
23.6968
167.792
227.534
281.955
307.519
219.827
57.7495
-31.0245
-52.5074
-118.419
-166.727
-178.001
-183.079
-147.249
-69.7796
2.54623
17.1365
10.2589
-5.5785
-30.3201
-70.4846
-80.1084
-64.6723
-59.6784
-10.5744
57.8487
79.9739
45.0457
28.9352
80.2479
118.899
70.7984
43.4266
25.6086
-16.6873
-47.1006
-8.46455
46.9104
75.3289
98.9179
119.408
84.8721
23.2043
-13.8365
-47.7389
-66.611
-43.7306
-16.3449
-3.21895
-14.4103
-32.1284
-24.3788
10.5143
16.1721
12.3491
18.5276
29.0239
39.6733
37.7871
-11.2224
-92.7248
-133.026
-143.226
-126.747
-105.564
-63.6913
-19.0131
7.08339
13.5835
-12.8601
-27.4071
3.25395
39.4407
55.7178
42.7949
16.8264
-16.114
-24.3389
90.0809
228.551
272.907
231.548
148.33
-1.45587
-120.34
-154.205
-174.075
-141.379
-119.629
-92.5716
-74.3569
-58.4299
-49.3389
7.40223
61.3635
68.0896
96.3641
119.338
44.1601
-47.9105
-127.877
-141.416
-80.8726
-22.9832
18.4389
58.5787
95.0413
69.8291
48.7746
60.0695
78.6817
95.4432
91.9341
32.6714
-17.1235
-15.06
-64.331
-106.738
-49.7318
13.865
22.9661
-24.6253
-63.5497
-43.9795
-1.86984
31.3691
50.6141
48.2669
40.2118
17.0237
-15.833
-63.6305
-88.5348
-67.3841
-26.9799
8.41719
46.3554
44.8663
-15.78
-98.7711
-111.375
-14.9397
77.2177
115.278
122.187
72.6458
-16.878
-86.4737
-96.1144
-68.5276
-45.8612
-34.7904
-31.7372
23.3039
111.858
154.272
157.146
153.373
49.3424
-80.3686
-127.939
-127.551
-118.806
-104.934
-90.8977
-52.3187
-14.7754
34.6808
48.0268
31.3651
36.4755
59.6647
73.4447
36.3034
-12.2401
-39.8685
-56.3461
-49.1346
52.2186
174.378
172.303
114.729
58.66
10.5196
-37.7981
-74.9664
-60.3742
-28.2974
-33.0943
-50.6193
-38.5313
-33.4291
-47.013
-62.0853
-78.3676
-81.5481
-55.5112
-37.2441
-58.329
-70.1686
-37.5922
-17.748
-3.12556
19.6644
53.9386
77.2194
92.1549
89.4478
77.0562
82.1581
72.6858
69.8578
60.4257
40.9171
21.2062
5.56537
-31.8645
-45.4098
-27.2732
-34.788
-32.6105
3.80012
57.303
66.8009
27.7556
-39.0815
-49.8645
20.0192
36.8355
-20.7627
-49.1932
-87.1781
-144.848
-182.272
-152.534
-52.4716
44.6298
94.2902
160.043
162.608
63.7196
-40.6691
-95.2815
-83.952
-37.6846
9.71403
13.2647
-3.62775
30.7212
47.887
27.7302
19.7404
39.8189
57.4171
79.1059
47.5839
1.74078
-22.295
-75.9096
-77.5504
-26.7664
7.74943
-16.5211
-34.1873
-19.9301
17.312
4.55187
-43.1355
-47.8156
-14.1287
7.26656
27.3198
45.0747
63.1383
34.0924
-18.203
-25.3771
-52.4161
-72.5317
-56.704
7.11498
74.433
122.996
128.12
122.522
100.069
53.7779
48.558
46.674
8.08192
-35.7699
-78.7591
-107.513
-120.279
-142.029
-164.078
-114.261
-16.3368
20.3157
13.7945
10.7651
2.92867
-15.683
-25.3494
-35.4436
-40.6459
-16.4396
-25.2421
-38.6863
-15.4249
5.11014
40.7478
95.5706
131.428
143.354
148.15
111.631
57.1272
18.0173
8.48483
-8.72501
-37.3924
-72.5348
-100.316
-116.613
-92.2849
-7.39332
73.3872
135.142
206.928
188.443
74.9846
-15.4749
-48.4049
-93.9549
-119.286
-131.3
-103.448
-60.7328
-40.6234
-33.3019
-33.0856
-23.4789
4.21058
34.8185
2.32485
-51.3525
-99.7664
-126.83
-122.893
-36.9447
52.2269
66.7714
57.3814
65.8994
70.7998
60.3546
23.7041
10.2296
22.0567
25.4332
20.4181
25.5627
33.7475
39.1382
73.8594
77.964
37.073
5.9647
-51.8985
-77.0629
-75.8502
1.36744
118.535
183.651
150.395
80.0207
-6.68663
-62.3601
-101.04
-134.428
-150.732
-89.9371
-16.1524
-25.6662
-76.8223
-101.256
-81.0104
-50.3217
-15.7133
-8.13943
14.6627
33.1702
-7.1072
-73.9123
-62.7294
-8.53023
34.5163
58.4531
89.9882
129.801
136.632
81.7156
4.88017
-9.07023
13.2818
37.0563
42.8108
39.0718
68.0181
77.0423
60.8231
23.2166
-20.9709
-39.9011
-51.3559
-73.2453
-71.7416
-64.9516
-89.7567
-100.726
-117.302
-136.358
-88.5092
20.5351
125.92
182.992
169.437
132.828
57.5495
-6.66943
-17.1371
-44.2308
-95.1562
-97.6733
-75.2326
-50.0573
-34.015
-12.4963
6.58379
11.4348
38.3145
81.1662
66.0197
2.07242
-33.2258
-63.2758
-68.6285
-72.0898
-64.4075
-36.883
-3.94145
32.3794
55.5229
46.9372
33.0516
24.5458
65.7708
62.7823
56.1995
107.571
136.213
69.9644
-16.0229
-77.9495
-84.4003
-50.5351
-8.83418
7.64983
13.4656
14.0232
2.63451
-16.1495
-35.4115
-51.9778
-54.7727
-22.5597
9.0064
7.00368
-13.2504
-72.8646
-109.437
-78.459
-18.4317
32.9197
23.6936
-9.8343
-31.0864
-21.1991
4.23498
10.8053
-10.1895
-32.4197
1.08497
41.22
49.6462
56.6186
38.2257
39.0337
67.875
83.7007
108.789
140.793
101.483
23.5208
-40.5619
-65.9535
-65.2946
-45.3672
-19.3909
4.06704
5.40153
-6.65109
-19.618
-20.9499
-5.46311
-27.1971
-75.5105
-97.9594
-85.5199
-57.2942
-30.4491
23.467
79.624
72.7248
-9.74498
-45
-32.332
-14.3775
-1.21822
46.3298
79.1445
39.8665
-43.6187
-80.7145
-80.6273
-54.2482
-40.0415
3.98594
67.6462
71.387
19.8485
-29.3787
-31.9861
-13.621
56.1289
120.224
97.2357
31.6351
-24.1855
-75.5003
-68.5457
-30.8157
-8.9569
19.8589
41.5907
57.7529
76.071
79.3271
60.2026
43.9138
30.0252
-16.9066
-38.8577
-27.9773
-37.501
-77.8123
-80.8859
-58.4034
-28.0682
-70.1029
-92.5894
-54.1129
-5.49687
29.0156
67.3524
90.6764
103.484
69.2951
31.4966
10.5
-25.0806
-41.0677
-34.575
-14.9344
9.8425
-9.34807
-25.5426
-25.4767
-33.1598
-28.9152
-34.6848
-30.9155
-5.20601
9.12784
-47.0112
-128.856
-156.914
-71.5784
28.4528
116.546
247.589
319.582
244.774
135.26
41.7074
-9.82142
-52.3943
-96.001
-112.567
-90.6438
-70.8762
-72.1373
-47.6707
-13.8448
26.5647
44.0313
51.1978
16.2505
-32.5386
-58.7494
-116.844
-167.9
-123.122
-65.2108
-34.956
-4.92111
16.8413
32.6701
7.651
-7.67109
55.7656
147.011
141.46
48.7725
19.5151
48.92
55.568
29.8635
2.74265
10.5981
32.9283
60.6739
57.0092
-12.8308
-26.8907
-8.59232
-29.5814
-45.1221
-1.16118
32.9724
-10.5679
-55.7976
-69.5922
-48.0726
-14.7073
24.4793
46.0161
21.3332
-29.5659
-76.5926
-80.7823
-102.061
-134.938
-88.9998
-59.5023
-46.9815
-6.71209
30.267
71.7622
96.2132
121.113
143.94
151.459
109.569
30.7942
-71.1357
-117.863
-77.4376
-13.5551
26.9507
47.5091
82.4843
76.8104
-3.58612
-20.1635
-0.482355
6.90251
40.5521
45.0254
9.68309
-37.9364
-56.2985
-34.1303
35.7802
82.818
53.6632
-9.52192
-49.0844
-87.3759
-147.979
-224.204
-257.643
-140.723
78.4359
140.874
78.6232
57.6487
44.7852
-0.431321
-34.7956
-47.8905
-51.9459
-23.7864
-8.97849
29.7971
104.117
139.641
137.94
152.945
123.814
59.5073
7.03663
-23.0571
-38.8106
-43.0842
-30.3009
-37.0857
-48.1544
-21.9438
12.7932
30.3773
-9.83091
-64.7973
-82.437
-84.9319
-78.1478
-59.239
-51.6671
-6.71014
53.1227
77.95
55.3224
32.3373
17.6851
9.38149
35.1321
47.346
18.3422
-3.01076
-8.16371
-16.075
-25.2481
-28.8088
-13.5185
-29.8052
-63.3883
-46.2424
-18.0084
-26.3837
-29.7179
12.4967
75.8506
68.7768
12.3328
29.3662
41.8016
30.4709
-1.93279
-59.3621
-70.5678
-11.3301
43.8608
105.592
184.835
210.341
112.468
-33.186
-90.516
-121.726
-155.705
-184.221
-150.403
-49.906
3.38398
-20.5085
-28.7176
-11.7371
13.8239
37.7909
36.153
16.5818
0.976208
-24.7687
-69.9889
-78.0612
1.14592
86.3147
103.453
48.2392
28.0619
44.5973
37.7223
7.28317
-3.47671
-0.390606
4.40907
21.4611
42.9816
89.4137
108.714
61.2153
-3.10905
-54.317
-67.1725
-62.2657
-38.1207
-8.20405
-12.2683
-13.3824
-0.190177
20.7962
7.03399
-1.39481
10.4927
30.8755
-3.50395
-35.5379
-50.7508
-58.3782
-47.0055
-33.9647
-12.2135
-7.15231
-32.2109
-41.1575
-29.4362
-13.3491
26.8645
19.2731
-2.58304
-7.94824
-1.82504
-16.8735
-18.6876
0.137739
27.5722
34.4339
31.9083
16.6199
6.82842
0.543578
-8.62648
-1.82805
29.1583
53.736
77.012
72.0487
31.6795
4.26794
-12.0603
11.8767
50.3128
28.5384
10.949
24.7666
35.395
29.6851
22.7871
-12.6384
-44.5578
-38.5463
-34.5105
-62.984
-123.197
-161.48
-103.938
-33.5174
-27.173
-15.4054
-2.95719
-6.98708
8.68163
21.0648
19.0481
10.0308
16.5887
31.4882
28.0382
18.2101
22.6872
20.8288
17.2525
41.2694
59.8344
56.0098
12.5978
-2.30325
3.53686
26.0219
46.483
16.5293
-20.0046
-12.8281
3.42836
-1.52667
-24.4404
-34.071
-34.85
-43.3186
-56.8499
-52.0168
-13.5821
13.949
34.8743
25.3667
-30.0671
-72.2714
5.38676
120.415
132.953
136.556
141.732
67.1222
-46.0666
-124.613
-128.638
-80.2927
-69.7884
-30.7903
-5.28007
-4.2231
-17.864
-23.1512
-19.0847
6.62583
44.2604
27.5234
-21.3138
-60.5062
-72.3224
-73.4849
-83.9014
-43.4786
23.8896
64.9621
71.7255
43.3863
19.3832
-10.8414
4.25721
16.0288
46.8658
108.558
133.819
73.3692
-11.5963
-42.2114
-56.4772
-65.0844
-24.8189
-9.05146
-15.4118
-20.4558
-20.0311
23.3708
78.5914
99.1756
96.9723
59.2423
-2.02981
-52.4149
-82.3202
-98.6208
-88.6231
-32.5225
29.7383
45.3777
12.2667
-17.8859
-22.8389
-13.8161
-9.84783
10.9624
27.6798
11.7941
-28.1862
-43.9367
-34.053
-18.0532
-14.3271
18.6803
50.1996
6.53365
-46.9169
-45.9615
-38.612
-26.2616
10.9804
0.437665
-24.8116
-19.5639
-16.8864
4.61018
41.4809
59.1386
66.615
69.6558
103.304
117.623
91.8337
53.1436
-4.54504
-34.6806
-41.2318
-44.5908
-35.6426
-51.5832
-64.033
-46.0291
-25.7354
-22.1898
-12.7451
-31.7209
-36.3429
-47.1283
-52.7482
-49.988
-55.9918
-43.9937
-6.35674
27.4502
48.386
55.9593
50.605
52.2158
30.3054
-6.02564
-15.2424
11.5265
52.3857
117.617
145.837
97.4084
59.6522
82.106
39.4679
-50.9517
-31.8919
-4.04536
-80.9149
-147.164
-138.326
-132.925
-121.782
-89.3675
-21.9963
51.6218
62.4204
31.1307
-2.69071
-21.2541
-33.1065
-5.0835
2.18304
-30.8163
-31.814
-11.0041
-19.9526
-18.3849
22.2931
48.1322
49.2313
83.3645
105.796
97.0396
87.7296
42.8266
20.7357
19.0586
16.1281
-2.39238
-5.75038
14.9758
34.6396
24.9632
22.0768
-2.61818
-46.1852
-64.3091
-35.4631
1.7117
9.24142
-30.622
-63.5226
-95.0359
-101.731
-58.8676
-13.8066
22.6564
35.4263
-2.10507
-19.2946
-34.7184
-66.4183
-69.591
-63.4755
-15.7808
11.211
17.9436
51.6366
53.5994
54.4606
57.5088
72.8956
93.3729
79.3043
50.6218
37.2155
0.158244
-52.8498
-76.0586
-100.244
-90.9134
-64.7855
-42.3796
-12.7854
-9.39588
8.40633
90.2607
117.574
88.837
63.8945
71.8883
42.7066
4.0412
-15.8005
-30.018
-39.4721
-49.8396
-39.4395
12.1208
36.2376
14.0692
-5.88828
49.4569
95.3972
98.562
120.955
75.8976
-61.977
-171.175
-209.223
-201.723
-150.601
-108.358
-69.6548
-19.5407
-4.64183
6.5196
26.8948
-17.2368
-27.6915
9.9001
51.1662
22.7478
-4.49014
12.6954
25.0643
19.6224
66.4015
111.198
113.56
103.837
63.0332
46.0323
31.6551
24.4893
20.6363
14.0367
5.76286
-5.75883
-22.0982
-47.9372
-64.3473
-57.5324
-37.7585
-32.3998
-57.151
-54.2241
-6.48397
16.7423
4.94391
-7.39115
-3.69519
17.855
48.9974
48.2629
17.7924
8.45369
40.5888
82.3895
96.1799
104.994
76.1995
-20.7838
-87.7966
-88.5745
-107.576
-162.932
-166.771
-89.0356
-0.31589
37.9533
38.3566
-16.8948
-109.538
-141.009
-46.8007
74.331
62.5667
8.51858
3.36545
5.19625
18.2938
61.0023
87.799
82.1877
79.3048
93.3639
90.1505
60.1924
5.60774
-21.252
-21.3531
7.86099
61.0886
74.8797
0.372213
-94.1146
-130.032
-122.917
-60.5418
-1.56168
36.7629
95.3343
96.767
34.7228
-2.39688
-26.396
-57.1888
-51.844
-43.6565
-32.9794
-24.3489
-29.6804
-15.9759
10.4974
4.56338
1.08312
9.26426
14.8433
-9.50971
-39.9032
-54.887
-89.145
-67.116
-9.9299
12.6405
42.6609
63.3444
63.0983
89.3533
83.6174
80.7825
64.6965
19.8224
-13.0597
-30.1507
-25.6994
1.91202
-9.12795
-47.6442
-46.1894
-35.01
-15.3445
17.8245
14.488
-22.8493
-6.82613
48.6551
119.936
98.2437
35.5014
-14.3309
-45.1343
-49.704
-34.6432
-8.14671
-14.9509
-29.6216
-33.7799
-70.4729
-123.523
-139.829
-82.0816
0.908763
45.026
40.7036
13.2309
0.712322
-23.7359
-24.0025
11.012
31.5097
45.887
60.8022
58.4734
40.3849
33.124
30.8912
47.4531
70.2181
93.4463
126.095
65.4856
-21.4537
-50.2769
-33.495
-35.4926
-50.579
-64.1975
-73.1354
-77.8862
-63.4577
-51.3521
-38.6613
-23.559
-13.2416
22.004
50.3129
49.0328
44.9296
46.2139
24.5176
21.3187
9.21111
-0.83761
9.02606
24.04
-10.9595
-37.8483
-41.0636
-37.8116
-17.931
2.10992
9.54836
12.1294
12.8427
23.574
15.5987
18.3603
16.4727
6.5197
-6.6597
-39.1139
-78.806
-78.5536
-32.2888
-7.77784
-5.68614
-10.3514
18.5017
35.9631
27.3928
32.0778
25.5013
10.0472
8.38075
-19.9444
-33.8309
-26.2907
-14.4748
-8.52136
7.18454
23.5254
34.2506
40.3481
7.61481
-28.5101
9.11472
33.8512
24.5319
41.0908
38.397
15.3699
-1.9538
-6.26226
-5.72078
-1.99784
22.3275
30.825
31.9822
18.0124
-2.97272
-11.9108
-21.284
-16.4464
-1.64042
-25.3177
-42.0194
-34.0128
-33.5371
-47.6863
-42.5788
-7.50635
41.2675
30.4446
15.4492
13.9677
-10.4064
-32.1141
-48.8064
-48.4694
-28.2396
-26.7787
-10.6893
-3.66111
0.278414
18.3291
12.7552
-15.5414
-50.4058
-93.4087
-73.6911
-0.397046
44.6097
56.4013
41.8517
63.6048
80.8845
54.4112
40.141
36.2852
42.6281
56.6663
48.3539
42.3868
57.5167
71.2687
22.9191
-11.049
-21.9854
-32.4322
-49.1726
-71.27
-56.7525
-11.0994
-28.4121
-9.70255
63.6095
74.9637
45.2182
27.7891
-28.9222
-49.4223
-36.9796
-89.7734
-134.728
-124.893
-72.4793
-27.8503
-12.1244
12.9575
23.9315
-26.6527
-84.4493
-70.6969
-5.29683
-2.37667
-27.056
23.3729
90.5269
106.162
92.4028
52.8521
11.4118
49.7044
136.695
166.262
114.323
49.5057
7.36029
-23.8446
-51.5494
-60.2919
-62.1019
-53.144
-36.4885
-58.0235
-70.5975
-66.0972
-58.9679
-53.2983
-21.5372
12.7826
43.3501
49.6209
-14.0617
-48.2914
-5.60493
40.8259
73.4859
84.5546
67.6126
61.869
4.59728
-47.5894
-38.9442
-1.55111
23.1561
20.4308
-8.81584
-12.2873
-31.0274
-34.1084
-45.1387
-63.7104
-85.6212
-92.13
-73.2606
-31.4271
-28.7439
2.82207
44.4694
41.899
69.4803
99.4804
113.805
97.1445
41.3501
18.9604
6.1277
-11.9068
-20.0147
-25.8188
-23.8751
-1.26589
20.5557
27.1717
7.43316
-31.2014
-28.395
-28.2187
-28.0072
-15.3674
-5.77666
-2.88844
-23.4148
-56.4151
-69.8548
-36.9763
