18.3799
17.9695
42.2232
63.2016
65.5774
37.0111
31.837
29.2735
38.1662
14.6247
-18.5585
-6.98045
7.57149
4.31326
5.64789
-17.0625
6.95318
36.7803
1.31137
-5.28417
6.90934
-14.1786
-38.094
-71.9146
-31.2949
30.4356
18.8171
-0.262787
-7.61265
-19.6982
-26.6736
-33.6604
1.69999
9.17045
33.4576
47.5582
28.294
13.079
3.82551
-28.6921
-16.5058
-25.8184
-14.3874
-2.00142
-41.967
-83.6867
-66.0604
-28.1658
30.1587
68.9004
32.1403
6.04016
-1.47355
26.8082
39.4478
13.6857
12.8897
17.2738
23.0826
40.7186
40.2883
33.2067
20.1844
18.4764
-6.02843
3.93244
45.0327
20.5228
-17.8699
-53.2863
-42.5668
-8.1193
-22.936
-59.7247
-20.2685
25.9307
-8.17972
-30.7478
-36.65
-46.3121
-64.0096
-64.154
-58.5236
7.4943
43.5066
35.0065
20.0959
18.1278
12.6122
-3.89923
-20.8425
37.5256
45.0121
45.6013
29.8164
22.6852
18.3289
-6.08625
-28.388
20.9045
40.2999
20.2606
6.86126
-17.6896
-17.0014
-8.43317
-36.7407
-16.5306
-12.5024
6.71249
40.4747
16.9743
0.743479
-37.3962
-67.0119
-85.2462
-12.398
54.6269
73.9789
54.9066
44.475
44.1437
34.6312
-10.1329
-34.7366
30.0841
-9.13523
-47.4225
-25.2399
-17.9277
-14.3622
-34.6599
-20.3444
19.5156
14.9236
12.7068
-24.6402
-43.6591
-38.3104
-59.1745
-42.5882
4.02012
13.0532
34.8435
51.3078
15.5061
30.3364
-3.05862
-14.1576
32.8686
18.2618
2.5858
0.237008
-5.32461
-0.380846
-9.95898
-4.02239
14.362
14.4662
16.1525
14.568
3.4296
-0.355188
-3.9208
-25.0549
-71.8493
-9.75814
58.1576
13.4007
-41.6035
-22.8767
1.53453
17.6002
24.535
-5.41134
21.2055
29.7732
23.0886
15.4446
8.30602
-0.598544
-22.3907
-21.8588
-28.3779
-19.374
47.6877
61.4277
19.4877
13.9064
3.31248
-6.80049
-27.4116
-54.3771
-18.2028
17.0098
0.204887
-27.361
-43.0172
-29.8333
-30.6764
-48.6835
-5.53359
-6.70553
5.25819
35.0386
28.0678
9.96187
1.06771
-25.5645
18.7322
51.0348
54.9702
51.5679
19.3881
-2.36874
-26.4485
-35.6912
-41.554
-43.6478
10.3073
-7.98523
-47.0016
-1.43628
37.2315
46.5678
13.4056
0.473964
34.4715
29.5376
-13.5026
-26.0563
-18.1401
-8.38316
-46.9054
-9.45917
53.4414
32.5926
22.3245
26.8924
6.51942
18.0585
-8.03184
-50.9826
1.56318
27.7976
-5.40603
-26.3024
-30.1638
6.33304
11.8152
1.07253
-28.8033
-12.1903
8.28903
-26.3371
-67.488
-60.0129
-35.5859
-14.0885
-16.8825
-37.0203
38.2954
133.046
81.1584
32.2588
29.0092
30.8196
25.8147
22.8617
-11.4239
3.35798
18.7571
-3.36449
-8.3225
-4.01014
-19.1515
-22.5467
-34.115
-13.4524
-17.46
4.89792
-10.5393
-44.386
-46.3719
-33.9703
-16.5392
9.8544
44.5989
18.7378
14.4375
-2.25439
-9.77353
-30.182
-66.5564
10.9441
39.381
39.6342
29.0043
14.0562
14.2298
17.0153
7.35928
26.6889
16.5283
10.0647
15.3266
-1.48857
-24.6298
-12.826
-25.769
-41.9399
12.0876
61.9831
63.8093
3.56247
-16.7761
-32.0497
-41.1601
-54.2788
-67.1776
-33.6688
-8.60735
-6.12967
3.31098
18.4688
35.5746
16.7576
-37.1028
15.9595
59.2384
38.1387
-3.56168
-17.9456
1.60674
0.0736443
5.00744
2.47514
22.8581
52.925
43.8178
32.4522
10.9756
-35.6438
-59.1287
-92.2356
-56.3007
-5.5899
28.1502
8.26934
-4.47303
12.0682
6.17718
-25.7269
-0.0666535
25.5961
18.439
25.6513
18.913
-3.38039
5.37555
-11.5149
-57.3832
-39.1931
44.4917
59.2288
24.1967
-0.350839
1.55776
-13.3649
-22.1519
-50.6177
-20.6098
18.0416
9.27286
-10.169
-0.297359
-0.077423
-29.1214
-48.6031
14.2203
24.9808
51.6546
38.698
-5.01842
-1.93388
-15.1998
-32.6655
21.0853
47.6862
33.7335
47.2202
20.5602
-2.8172
-25.033
-60.4395
-37.4787
-36.4074
-23.5721
-14.9361
-44.5755
-1.11467
36.9147
0.129797
17.9214
28.3822
15.963
18.3644
-3.11559
-17.8827
-13.2147
-11.2805
-17.6952
19.8777
42.6044
14.5097
13.8169
17.4171
6.35001
4.09364
16.7537
3.27478
0.101952
36.5723
11.0736
8.59517
2.66674
-2.8577
-8.66028
-2.89149
-4.55577
-26.633
-18.3478
-102.092
-99.8276
-29.0156
-29.3785
-41.6891
-56.6363
-35.0589
39.3012
54.1828
43.7509
26.7084
28.2858
45.2996
48.3789
81.6296
57.9521
12.8887
-16.7732
-35.0257
-70.3814
-6.60444
25.3433
55.0851
58.1524
58.2394
91.6632
92.0322
7.39818
-61.8426
-96.587
-85.9888
-81.2294
-74.3848
-101.93
-134.27
-104.549
-70.2835
-32.7336
-6.26455
-1.55692
94.7598
143.459
115.621
77.7928
57.2103
26.9722
-28.361
-42.7706
17.88
-5.18589
-2.4597
47.5221
98.5008
130.577
115.866
86.9578
123.723
113.22
99.1266
47.1374
-107.684
-222.884
-227.157
-194.16
-113.434
-130.925
-112.937
-65.8107
-33.4734
-32.2106
-101.866
-148.78
-122.185
6.10041
79.2921
105.255
91.9784
70.1838
73.2408
78.4762
24.8863
-44.8361
-44.3649
96.4567
149.881
170.883
139.924
19.7148
-58.6437
48.0244
96.8265
134.914
146.641
85.5384
0.78756
-71.9044
-127.701
-149.268
-175.129
-90.8323
41.6399
71.6397
38.1177
-47.483
-108.259
-79.3702
-54.0877
-29.161
30.8705
17.1602
-0.0674137
-22.6591
-36.6232
-70.5913
-88.1842
-36.6577
-39.0664
-36.7669
41.6258
70.0764
6.77136
13.7954
19.9048
14.3933
50.473
39.0376
34.0119
41.5313
-2.92129
-50.5138
-19.9959
-15.8693
-37.5004
22.619
98.188
26.7634
-27.1633
-6.9861
14.8526
13.5051
7.36226
22.8851
45.167
45.7003
16.6492
19.3522
72.1821
126.598
110.508
64.4986
39.8289
-53.782
-141.555
-129.26
-73.9734
-58.4325
-80.6035
-28.8104
-2.70367
-4.36086
27.8108
-15.2889
-118.735
-192.796
-249.068
-148.117
-60.749
12.9784
107.595
137.894
146.402
179.8
207.647
146.043
18.661
-9.9724
102.407
97.4109
48.7248
15.0503
-13.3865
21.2504
69.1087
72.0681
53.7768
-78.7192
-105.623
-159.59
-198.588
-202.509
-175.541
-116.828
-79.5992
-63.068
25.9089
78.3912
76.7681
104.116
92.051
18.8171
-19.5371
-41.7525
-4.01458
7.77408
53.8471
108.084
92.5255
80.5368
22.8621
-12.8501
23.8437
4.95233
-4.18175
-30.78
-75.3073
-44.3409
-77.3461
-141.208
-59.5676
84.1834
138.837
152.496
65.7603
-3.7567
-32.1638
-68.7595
-152.852
-141.198
-57.9521
56.8675
85.5639
110.018
92.5514
58.1508
41.8934
21.1968
42.647
59.3072
-54.5785
-90.3693
-43.5485
-2.38332
31.5171
45.832
-2.4365
-33.9299
61.301
91.3924
43.4372
-24.6517
-76.5776
-77.3366
-91.6889
-171.499
-193.812
-178.865
-124.546
-48.609
23.7762
14.3226
-9.56401
47.8827
82.4019
63.2722
92.7016
112.97
70.5115
42.4741
23.1931
0.32099
58.2434
34.5494
21.4883
108.433
169.887
180.45
132.777
77.364
78.8745
34.6827
-46.0634
-124.113
-160.597
-144.97
-111.102
-26.6106
-14.965
-2.86221
9.41228
28.8928
-62.7555
-125.971
-183.311
-259.387
-208.705
-6.38425
102.431
110.547
65.9718
26.3669
24.3909
1.88569
-8.20526
9.63744
71.1686
61.1877
20.2025
-19.2706
15.2281
-4.39226
-119.809
-131.385
-6.4889
148.635
209.448
143.322
87.9935
44.2714
40.006
83.0651
95.3155
87.7335
33.7979
-66.9334
-176.685
-269.585
-197.234
-70.0757
7.00406
67.1249
123.927
135.593
102.276
58.9541
6.18613
-53.0187
-111.675
-95.2884
-12.1569
-42.4044
-62.6548
-36.9074
7.55801
37.9844
59.3081
95.5876
90.5561
31.3992
-68.5745
-92.6472
-2.7967
45.3563
13.2922
7.99877
-7.04206
-88.8482
-126.827
-182.76
-186.74
-62.7455
4.75171
24.1304
93.6252
178.566
195.373
129.216
7.7625
-53.9007
-14.2771
29.1979
66.5388
-18.992
-73.8559
-129.498
-171.194
-86.7905
49.4041
122.341
153.464
152.843
165.828
161.965
69.7601
-43.5691
-148.974
-187.546
-92.0934
38.2565
112.216
74.4032
20.146
6.1974
-5.56328
-4.66283
-36.3476
-112.892
-79.0279
3.88443
-23.0043
-23.2395
-20.2622
-38.0497
-31.5156
-10.5727
56.2685
121.215
54.0799
-36.8703
-93.631
-107.004
-88.9576
-10.3793
31.8711
105.825
90.1109
48.4153
-7.55167
-6.63572
-46.2476
-157.303
-199.022
-89.8064
20.0707
76.9926
85.6853
69.3854
27.2931
0.815806
-19.9808
2.16673
37.7556
114.943
90.0477
36.428
45.1203
61.6937
59.0304
16.2026
10.2729
45.347
-34.5998
-101.089
-78.6655
-35.4879
-43.0451
-87.6795
-80.8383
-33.7576
-35.966
9.51082
52.052
73.286
81.7109
13.516
3.78426
-76.6085
-170.548
-119.184
-9.11176
82.7472
139.033
110.767
117.744
126.37
136.871
175.205
93.2802
-39.3389
-73.343
-189.461
-407.914
-408.95
-180.136
7.77689
113.582
237.388
241.233
168.839
58.7056
26.175
39.6989
-49.6233
-137
-168.347
-142.695
-119.434
2.28676
53.9323
51.3607
117.905
208.283
180.665
69.8218
-39.4975
-42.7779
33.9122
71.2206
35.1034
21.2369
-70.3827
-136.622
-109.844
-69.3985
-30.0897
-30.5446
35.806
69.4769
24.7831
38.1846
23.7171
12.5126
-23.7899
-98.9089
-113.603
-31.5805
-35.358
-25.5151
-33.8864
-123.651
-123.654
-34.9221
113.515
154.521
90.9694
15.0995
16.6107
-36.5732
-87.2928
-115.146
-42.4401
32.0063
86.5787
67.7008
72.5929
109.712
54.18
-81.0747
-165.398
-46.5728
116.487
133.873
89.7542
100.661
118.938
62.3996
58.5457
37.9379
42.0306
31.5032
-23.7324
-13.9591
45.5988
59.5369
25.8356
-166.988
-229.752
-204.43
-101.801
-63.6176
-84.9308
-48.2867
-26.3033
9.34247
51.0624
58.7974
25.9032
-2.70257
-1.24225
22.6766
6.88062
-22.0925
-54.4673
20.3904
79.4123
95.8386
54.3816
26.3518
61.8279
35.5773
42.9485
40.7462
17.1302
-32.6168
-76.929
-85.7735
-100.856
-119.988
-118.378
-60.3838
41.9003
66.634
77.7542
31.2569
10.3823
7.06082
-8.83359
30.0625
48.1057
51.5803
22.6927
-7.33406
-43.5119
-20.7555
-20.4108
-19.3105
41.9806
57.5362
-9.39623
-59.1921
-61.2807
-24.4029
24.1029
20.846
12.6092
79.8619
106.788
149.123
134.038
39.5834
-119.428
-232.247
-247.464
-132.718
-2.02075
21.8232
85.6009
115.855
74.4913
-28.8209
-133.913
-75.6934
10.7665
68.9727
96.0729
65.7702
25.6045
-56.3057
-77.9092
-53.2202
2.06219
65.3153
141.648
127.689
78.709
70.7724
-3.10848
8.46385
52.2289
34.8156
21.2701
-47.2587
-157.747
-240.78
-255.992
-151.993
17.9774
110.951
109.301
90.4903
74.6343
55.4314
-1.98815
-78.787
-80.5812
-82.2433
-88.6786
-64.3893
5.6268
123.817
143.328
110.336
113.776
97.0162
44.9262
-43.4148
-71.7684
-77.5368
-70.6475
-56.8947
-43.9088
13.7909
-66.5117
-92.6522
-93.2823
-79.2378
-17.9245
26.4777
52.7618
69.2055
124.205
98.5219
31.4736
11.1179
61.4297
53.0989
6.61501
-7.74636
-52.0177
-52.616
66.8814
32.1496
58.1999
73.5409
1.72145
23.9597
17.2746
-26.5229
-28.5774
-63.0438
-105.115
-142.295
-128.664
-22.2282
64.4306
96.891
124.728
93.638
92.16
55.7255
-94.5207
-149.66
-149.942
-113.314
-48.5798
-67.4774
-73.2369
13.3225
47.4311
45.9173
14.0839
18.8317
52.5515
68.8771
61.5449
44.231
32.4953
44.5702
64.0269
62.1296
66.771
47.0641
86.1025
53.9598
-39.7289
-159.401
-201.184
-175.505
-146.725
-69.8955
49.4705
102.861
105.805
57.8958
12.2121
-7.94024
-50.5167
10.1906
40.3013
11.944
-23.4068
10.0464
43.0677
22.7835
27.6819
149.957
190.332
99.2542
-19.1534
-102.698
-182.471
-174.239
-148.246
-35.8195
64.5033
74.0209
21.8861
-37.9834
-94.0005
-130.851
-130.211
-80.5503
-24.1529
71.9968
100.907
107.951
105.027
107.176
132.163
118.28
89.7765
5.96032
-16.57
-59.7575
-130.772
-72.0649
9.4007
-8.62732
-86.8196
-67.2164
-2.76489
35.2952
64.5422
52.0948
55.4781
-7.2065
-56.0467
-72.579
-88.8209
-14.1425
66.7172
109.335
115.543
48.7767
19.5612
-12.4884
-66.4764
-94.5165
-69.3712
-55.5928
-36.7556
30.264
-1.59263
-94.7544
-199.112
-136.865
44.32
67.0884
47.1519
62.7593
72.2001
83.8869
37.0497
-8.41382
50.4683
52.364
75.4051
105.568
132.758
119.133
40.497
-83.5315
-90.7565
-5.3765
79.759
49.9143
-66.6777
-85.6511
-51.8491
-33.8061
-56.6832
-60.9811
-109.376
-158.743
-187.161
-101.886
-23.6164
3.05981
29.8746
91.0372
125.015
93.0566
49.6433
10.0548
17.978
16.9913
1.92332
35.6181
63.505
47.7369
43.5028
41.1185
75.6185
113.801
108.474
9.74452
-90.5859
-76.6234
-76.8321
-132.536
-133.386
-71.3361
-48.2812
-24.4622
-0.55361
-20.4348
19.3743
38.4062
27.4923
-1.98885
-3.51379
54.5701
82.1657
65.8462
-3.70629
-68.38
-87.6201
-86.8856
-37.0226
65.643
118.179
50.695
82.631
169.846
130.961
25.6405
-111.974
-174.365
-256.518
-347.797
-265.809
-22.2121
197.432
239.919
181.331
176.194
181.93
102.436
43.7176
-2.88678
-54.9767
-41.0785
-116.984
-231.521
-138.25
-23.1554
-7.41527
53.9927
169.33
249.902
189.133
13.5492
-117.526
-151.177
-156.754
-89.8741
2.94188
48.3651
5.92741
-30.3422
-8.54685
9.80102
5.85417
6.86186
51.0325
58.6852
86.7035
40.8356
-48.5053
-52.3275
-29.6699
-95.1098
-128.629
-31.626
25.6655
8.68802
-51.7456
-47.8078
19.6478
24.719
-62.7083
-79.0078
-15.0634
52.9036
31.7301
-4.22514
36.5634
75.9893
95.2452
108.995
101.067
75.9417
59.871
80.4416
101.245
44.76
-38.1981
-100.03
-146.573
-138.99
-69.5408
-37.054
-16.262
-1.99075
-11.7036
26.1758
7.45739
20.7363
65.7189
3.5421
-31.4456
-8.36392
-1.09624
-43.1871
-42.5031
-30.1641
52.2522
105.502
85.2916
11.7921
-55.1819
-27.5348
-23.3741
-49.6766
-14.2661
-37.8475
-61.3645
-77.9189
-79.9154
-24.8071
29.2749
20.419
49.3693
41.825
47.779
73.4672
57.0816
43.4721
28.9436
-10.8402
-17.539
-55.533
-33.1784
17.5979
3.97253
25.829
56.6431
19.981
-25.2155
-16.7702
-57.9167
-25.3862
46.9824
42.9643
-15.295
-60.1796
-105.069
-90.7289
-54.9845
21.887
108.987
104.39
52.126
-2.84369
-50.3808
-7.11178
44.1686
137.152
198.592
79.1423
1.00913
-99.6032
-203.324
-208.822
-165.687
-71.0953
19.0143
-10.5304
-3.34239
67.2302
101.708
143.536
126.921
116.271
80.6552
29.0368
-36.1145
-96.2635
-116.835
-99.9461
-60.0721
48.5246
66.6377
60.3084
30.1903
-27.2628
-76.3053
-64.6907
-112.493
-107.754
-40.4486
6.75955
36.8689
8.65308
13.6464
38.8236
69.1154
13.9302
-36.751
58.6937
20.5591
-37.2751
13.3153
22.6751
7.1326
13.5289
47.9277
100.042
146.734
80.2868
-52.3694
-94.7751
-48.4966
-28.2602
-62.4149
-64.8911
-73.3646
-97.732
-55.1967
-21.6625
21.2078
39.8077
40.0705
30.3542
100.138
156.45
95.2925
-26.3609
-124.151
-164.629
-90.4104
-41.6456
-54.0618
45.1415
165.633
151.052
129.487
99.4337
24.6969
-43.6081
-77.8359
-101.421
-73.2834
1.89371
21.9442
-12.5305
-46.7945
-35.1528
46.554
105.655
60.9719
31.0117
19.687
-54.7336
-107.4
-116.191
-119.614
-75.0098
-7.92112
99.4127
138.677
45.7907
-32.4712
-63.9739
-61.8356
-46.6976
-29.9505
16.5112
28.3593
-4.12521
-2.7378
-13.858
-39.7216
-16.1896
-20.5546
-23.2958
-8.08693
52.6377
136.292
136.708
93.6768
75.8911
-38.8831
-109.518
-117.69
-193.741
-115.062
44.0031
131.301
182.345
174.433
70.8639
54.7734
70.4278
10.8108
-5.67727
24.5399
32.8863
-38.8603
-135.659
-180.091
-168.371
-119.49
-52.8421
53.7591
140.689
123.051
57.9364
17.8488
-35.0936
-35.1059
54.171
34.304
-52.4555
-61.233
-51.3914
-35.9373
-26.4318
-57.9881
-52.3546
7.54586
74.4879
118.464
85.4587
-19.4758
-56.2024
-64.3686
-9.25762
-19.8918
-31.8273
-57.4472
-92.4589
-86.5619
-114.112
-33.7057
46.3096
55.6377
79.9831
128.7
151.338
126.312
65.2488
-44.2234
-128.047
-75.8115
10.5078
78.1251
108.83
105.595
75.7768
29.4097
5.56907
-66.4517
-82.3741
-105.911
-66.9644
-14.4966
-32.9498
-37.5973
-28.3376
29.0407
82.7956
74.58
63.3448
5.34853
4.62742
39.4844
8.8706
2.49252
23.8989
-30.9396
-57.8971
0.200176
31.9358
30.6361
-50.1083
-88.6083
-10.2753
-37.858
-80.9334
-89.3551
-88.1208
-29.1638
34.6231
46.809
60.2961
88.8627
-14.5764
-98.8266
-117.587
-66.8247
-31.0391
-41.2991
-39.3595
90.3025
168.985
139.007
23.7062
-60.4084
-55.0178
-19.2023
-17.3377
-10.9726
96.1441
141.292
85.7444
-2.99886
-64.1404
-60.081
-15.6302
6.54251
11.6505
89.8703
148.222
112.467
44.6335
-3.2919
-87.3491
-172.482
-111.316
-31.6905
20.3074
91.2138
65.7727
21.2297
-8.21213
-56.8112
1.12094
51.087
9.60592
-62.6071
-58.1208
-20.4538
-25.847
-116.538
-122.689
-54.8034
60.2291
133.667
100.27
46.8149
29.4669
-21.8189
-110.297
-170.545
-117.801
-68.7979
-13.2199
20.6948
40.5512
132.09
125.101
38.1864
-33.8283
-116.294
-109.657
-74.0483
-67.0689
44.464
109.122
134.588
163.274
209.008
199.457
102.99
-2.2214
-15.447
-38.5701
-84.7371
-116.767
-88.4651
-66.1061
-2.18796
59.1441
54.6942
24.9059
8.31789
-18.2753
7.22394
-21.7893
-151.355
-134.547
-59.4993
-34.831
-2.52572
-12.815
-104.487
-131.761
-60.9499
12.6534
69.7367
99.6461
78.7813
37.2133
58.5931
61.4031
35.7463
55.3523
51.1874
-0.790879
14.9592
-9.41103
-48.2985
-11.6035
40.5127
58.4247
102.475
23.0987
-27.6666
-62.6178
-112.184
-129.145
-114.933
-53.7569
1.90017
30.0759
61.7234
16.589
-15.6256
13.6275
36.2394
57.6824
37.4126
-14.4978
8.17861
16.2011
4.05798
54.309
55.9604
85.8475
119.594
84.0835
35.6275
-18.121
-94.9677
-145.895
-198.18
-162.481
-33.2421
36.9771
21.6108
-3.34646
-26.4733
-22.9473
-27.7199
-25.9373
-28.5179
8.99375
88.0492
83.914
27.3523
11.9619
-2.81411
15.6671
64.0168
78.9124
96.0414
105.367
20.6016
-37.7166
-4.431
-38.8982
-81.045
-69.6191
-18.7099
47.1597
51.4185
8.95851
-40.083
-17.5775
-48.3953
-91.2393
-92.9827
-89.3389
-49.7279
4.47807
42.1978
45.106
12.1498
-8.32597
-30.4543
-94.3426
-57.0206
14.9666
43.5434
35.5547
77.0731
101.935
62.8218
23.9594
22.6628
62.6074
51.8782
35.3682
-46.3142
-85.1051
-24.5008
27.6164
46.8665
32.801
41.9941
73.8048
37.1321
-30.2191
-79.3746
-117.69
-97.3487
-27.8853
-32.7121
-53.7498
-43.7595
-44.3007
-24.402
41.6426
120.959
130.563
39.8955
39.6583
53.5643
55.0764
37.058
-19.3867
-50.5089
-21.7425
-62.6008
-55.4274
-17.9973
-25.5451
-10.988
-7.06459
27.0903
81.3836
52.6914
-3.85313
-84.4149
-105.086
-130.269
-128.018
-80.3774
-62.6381
-12.9582
78.0495
116.156
53.0631
15.2917
30.2597
51.5351
34.5574
19.1179
77.4056
71.9602
12.4259
-14.9972
-70.6066
-25.0084
56.7282
64.6684
-30.6085
-21.0573
39.8619
24.6689
12.5517
42.24
65.605
89.1272
43.4322
-1.96797
-116.326
-177.207
-149.987
-134.838
-98.1621
-53.4548
-5.62507
-0.113001
42.3753
86.2465
130.987
112.944
109.675
93.4923
-6.17839
-49.0896
20.5966
76.4767
60.9031
-39.4722
-81.2824
-67.9089
-107.169
-161.039
-152.167
-10.9973
75.693
91.5702
41.5165
6.78117
-9.84068
-54.0081
-126.234
-53.0851
88.3339
91.8804
41.9805
-25.8693
-51.2608
0.284905
69.7236
155.187
116.572
111.067
121.226
63.2951
46.1745
21.5462
-33.1328
-19.5566
-39.9179
-79.9496
-130.993
-225.268
-214.962
-195.937
-154.254
-24.3688
39.8238
75.802
182.606
207.759
185.996
107.583
-20.8307
-83.736
-91.9067
-55.8799
-22.448
-19.5769
4.58994
40.5977
32.954
-19.0082
18.8682
95.2324
84.6733
18.6017
-39.6875
-107.637
-149.135
-186.28
-156.952
-31.4991
78.7246
119.239
110.868
95.062
90.1658
110.94
131.887
31.3384
-30.6649
2.31646
4.0688
1.87132
-32.3615
-55.4412
-44.0134
-83.5177
-77.0991
51.4721
131.984
109.771
46.467
-26.0598
-74.8227
-115.667
-106.221
-59.0233
-86.3254
-59.572
3.6618
60.3025
40.8247
-9.58849
-15.2426
23.318
56.9098
87.0783
69.9047
-35.4263
-75.8363
-64.1572
-75.9375
-97.0055
-24.9094
3.81002
14.2123
11.0071
7.19573
22.1089
66.4796
69.3124
84.6525
61.8377
57.8292
35.093
31.1811
58.475
10.3798
-41.0084
-72.3565
-91.9658
-25.128
60.0929
53.6854
44.1031
-42.5172
-115.926
-73.0004
-47.7919
-1.29438
59.7345
67.347
43.2522
6.52888
-27.4037
-67.7579
-38.3089
13.203
-16.9845
-22.7844
16.7916
43.9698
33.0796
-35.3721
-50.1984
14.4724
-19.8183
-31.933
65.6279
101.395
50.4869
-43.1075
-89.5135
-111.447
-102.496
16.3293
49.8025
2.8419
0.887827
50.3471
98.7592
117.355
94.3721
103.071
80.7329
-11.4844
-37.6114
-54.7236
-93.0677
-117.222
-145.043
-140.553
-10.005
36.4277
41.6797
49.9447
60.1668
32.24
-3.23881
37.6827
18.0225
-33.5456
-53.05
-16.896
21.5336
-4.75894
-60.976
-3.2627
27.9852
40.2742
20.9229
24.0199
25.3571
12.9842
-25.8029
-72.1647
-76.7685
-14.2437
86.7474
63.4967
39.3053
28.7559
-22.8884
-106.6
-64.2958
35.3134
131.428
115.241
30.859
-47.3967
-86.1192
-96.2359
-112.811
-95.7457
22.6807
68.8371
56.1758
72.5264
96.0071
86.0592
45.5748
-42.5033
-4.65677
32.1394
-51.1504
-115.748
-82.9401
-55.2307
-31.3584
-1.4293
118.85
212.374
160.413
99.9195
21.8339
-17.7896
-66.9961
-128.182
-115.14
-120.476
-133.565
-121.358
-102.646
-21.8891
55.4091
55.8608
57.8601
69.3875
19.9571
-0.099876
-14.768
-43.4917
-72.7693
-76.9785
-7.12064
55.6527
53.1727
84.6714
50.5658
51.3457
30.0771
9.97378
2.48625
16.9374
-2.36478
51.7736
26.9124
-7.58903
36.9362
22.3669
-30.865
-54.8605
-61.5436
39.6731
72.9469
35.3885
54.6856
14.5784
-18.7222
-34.7585
-30.7894
1.06191
-16.7643
-12.6501
-13.777
-88.4741
-116.168
-144.943
-68.5348
88.4281
142.405
147.791
123.354
36.2784
-55.5713
-106.093
-81.8746
-25.9499
6.93164
10.9031
3.44468
0.240768
-62.7583
-132.462
-79.4583
8.59819
91.6469
102.657
60.1925
9.68772
67.9568
86.671
60.7879
44.6171
-7.80326
-35.416
-100.909
-163.88
-162.731
-102.869
-72.8068
-91.3965
1.82909
109.214
219.427
203.812
92.4339
43.5801
42.3139
28.3186
-49.8966
-35.8537
38.9133
42.0476
39.2573
40.3822
13.3345
-26.1713
-46.1648
-49.2727
-48.0598
-29.1202
-46.8006
-47.4788
-62.5964
-94.8703
-107.985
-24.9644
-2.84513
6.85952
24.9035
13.8344
36.3276
61.6044
47.5523
5.44179
-47.7649
-42.5069
-38.2009
-46.6026
-6.90884
102.487
160.064
80.3377
26.2222
69.8546
61.7187
1.87894
-61.8071
-111.389
-89.6689
-123.959
-67.4567
60.417
72.2599
96.9767
114.05
80.7265
20.1031
-93.4907
-100.669
6.6235
-6.91788
-42.9072
-62.6691
-78.0114
-28.3695
59.2403
107.396
82.1295
11.3429
-12.7785
-21.3945
-39.419
-20.664
-16.0026
-2.94761
29.5705
55.5863
50.6455
86.1136
-4.7296
-44.2564
-46.8874
-34.3157
-20.3978
-19.4368
-74.3916
-48.2721
-10.2456
-16.3773
-60.3188
-88.5429
-73.479
-59.1558
-37.3695
73.4203
85.1238
70.4435
108.088
132.53
130.907
102.768
14.5718
-49.5208
-111.186
-157.532
-129.09
-107.848
-49.2942
19.5519
64.0014
109.455
72.7954
59.1894
61.365
28.5464
55.0464
45.4184
47.7992
64.0395
-3.59234
-20.9194
6.11717
-10.2599
-23.6015
-8.78001
4.14555
-7.27139
-70.2036
-52.8803
-20.4811
-87.7637
-100.633
-74.8523
-64.3252
-48.5171
19.2677
61.8296
50.2313
26.6516
10.312
-36.9135
-89.901
-97.6292
11.0887
116.269
61.4991
-17.4922
-22.4641
-28.1158
22.819
95.0949
101.259
112.025
88.348
13.0833
-11.9884
2.00844
7.53273
-45.3408
-95.1226
-82.6804
-43.6446
-32.2615
59.016
123.782
139.628
49.6605
-30.5365
9.44643
14.0175
-51.2877
-101.619
-109.548
-101.815
-97.2126
-131.682
-81.0724
-25.9634
-32.9259
38.077
79.7272
95.518
118.615
73.2887
-7.87673
-47.2303
47.0199
148.017
129.204
29.0708
-4.96203
2.17099
-20.2144
-5.33124
35.7514
-31.1853
-95.5161
-87.2856
-61.6517
-41.9165
-19.6831
20.1083
32.1914
-3.75649
-14.6978
17.1165
48.3006
24.4462
-52.7196
-60.5241
-27.692
-34.9148
-42.7094
-62.1954
-71.276
-3.56596
74.4612
106.638
134.058
131.862
117.139
69.4638
-0.307509
-74.8417
-205.309
-222.794
-160.477
-55.6982
24.8541
49.9296
37.9387
74.5567
93.4535
97.9059
105.605
74.9596
24.1582
33.0585
26.9044
-5.55088
-43.7579
-34.1865
-20.183
2.46585
30.1189
47.554
81.0152
22.6156
-78.132
-92.5423
-83.8831
-132.471
-136.718
-97.7895
-19.4501
-8.48206
-6.10121
2.88618
-15.1328
-3.96022
44.9519
98.585
94.2025
64.6993
117.8
115.487
10.9699
-32.7413
-14.2675
32.2032
17.2846
14.3969
8.01568
19.8879
32.2109
51.746
-14.7494
-139.302
-180.229
-137.856
-87.3031
-85.1423
-58.2094
-64.7952
-53.3477
26.3887
-5.98036
54.2528
103.615
106.927
96.6501
65.0926
55.2048
44.4705
-11.3609
5.98338
43.9677
73.32
48.7161
11.2981
3.42024
40.0252
72.4258
80.4097
58.4811
-68.4181
-153.249
-164.512
-93.0819
-63.4845
-74.5518
-2.0286
47.3317
40.2423
-32.0356
-83.2765
-63.4919
-33.7888
7.55999
52.4795
94.9856
28.0569
22.9096
37.8528
12.7106
-5.79442
-61.8952
-122.6
-122.668
-48.5606
56.1463
58.4756
42.8228
102.512
98.5234
44.3289
35.712
34.85
109.064
123.944
46.6283
0.383645
-20.0292
-45.6881
-96.7239
-94.7176
-43.8409
61.0624
87.7585
13.3116
-72.6258
-62.422
-45.6177
-12.9926
-12.6998
-15.1694
14.1716
-23.0488
-115.152
-172.56
-208.272
-202.525
-81.8872
36.8592
144.509
172.71
113.343
97.5243
132.319
169.898
118.282
7.92152
10.5433
12.9403
-144.299
-231.073
-158.249
-14.1969
44.4089
105.89
154.879
116.189
77.7595
64.0912
41.0245
52.6531
91.7171
40.3002
-59.7352
-105.631
-27.1225
20.6665
-50.9104
-80.5403
-39.1154
-44.2646
-109.249
-150.39
-72.2909
16.3983
59.9247
31.8358
-40.732
-42.4556
-20.9719
0.170647
73.6911
83.0504
50.9105
-39.8608
-122.763
-169.615
-196.923
-135.795
111.54
223.441
212.897
180.341
127.269
75.901
26.5813
-31.648
-38.1405
-36.525
-84.9103
-109.848
-136.29
-105.39
-31.5718
49.4318
54.787
86.6716
162.971
130.514
37.2164
59.071
119.655
126.721
59.6557
-31.3204
-135.826
-210.927
-208.801
-193.802
-92.0931
2.14687
30.8625
3.40134
-44.1075
-59.8206
-16.7953
0.120457
15.1266
43.5188
48.6936
41.9669
15.344
24.5346
73.2535
97.3902
80.0606
129.422
130.806
114.454
30.691
-60.5124
-53.5637
-28.869
3.60621
-37.7789
-88.9154
-43.233
-54.1374
-13.6055
7.97893
-59.6824
-114.351
-123.381
-89.8218
-30.8591
25.3271
88.2597
107.006
117.169
40.8523
-91.0174
-213.243
-197.904
-141.565
-79.6397
-15.265
110.025
201.317
151.074
87.9525
62.1424
42.8357
38.6074
14.2352
39.9321
66.0064
81.9506
3.7247
-102.152
-38.6236
66.1824
80.236
101.574
86.2388
75.0798
81.1804
1.07691
-86.0324
-149.917
-197.453
-105.676
-70.6876
-73.5976
-105.056
-109.382
-45.4183
4.16614
50.1446
61.1861
69.9419
113.685
121.574
15.962
-67.2939
-54.8046
-13.2091
-22.489
-59.1253
-53.9913
28.1057
23.9042
-31.053
-54.7533
2.36656
32.2687
27.3427
-52.7629
-29.5604
41.767
0.0882075
-16.0861
44.8002
74.5858
60.9028
76.6823
130.075
104.485
101.244
72.9256
20.7257
-32.2544
-94.6383
-62.5143
3.03108
-38.4082
-40.61
41.5281
2.71524
-64.5958
-113.616
-122.069
-14.7461
2.18123
-7.09104
-33.1648
-140.282
-174.192
-140.925
-66.8845
30.4933
113.685
238.676
224.365
114.884
56.6029
20.0979
5.06271
7.58881
-8.70898
-6.34748
-0.745827
-57.9019
-54.0911
-24.2445
-68.5539
-72.3669
16.9205
47.3731
24.9509
-4.50296
-10.6055
18.9085
9.73461
-104.638
-47.5169
30.852
53.7615
50.9806
52.111
68.4069
44.2133
-11.5366
-30.8846
8.04291
48.0615
56.3985
27.8362
-10.8067
-8.0961
-43.4106
-60.802
-45.2112
-95.6917
-94.0192
-74.099
-49.1623
-35.8386
-49.4286
-72.1483
-59.5254
10.0301
40.6561
45.0102
68.2211
89.1414
76.4914
80.177
98.033
79.3752
71.21
28.2969
-5.96946
42.7025
129.95
94.0983
-22.4558
-120.976
-91.1719
-58.9028
-63.4538
-86.1324
-63.3414
-16.1586
-23.3517
-31.8314
24.915
-7.63245
-62.3884
-95.2565
-85.2974
-9.89637
31.9244
41.3179
65.0814
73.6679
101.298
138.252
116.713
52.4639
-60.3818
-100.978
-31.453
-32.4015
0.764991
16.927
-26.7908
-3.00173
22.56
0.912464
-23.9455
-30.4711
-42.9531
-54.2101
-85.5239
-85.025
-58.5044
-32.8521
-55.4571
17.5825
170.953
162.037
86.0373
73.9669
36.0413
12.3196
-92.8288
-208.897
-161.564
-0.483387
117.746
37.5836
21.1995
78.4373
98.8848
96.0165
71.2708
36.1179
39.0811
48.7856
-32.8914
-126.09
-171.214
-145.881
-113.216
-35.1116
131.527
194.597
143.162
12.6294
-72.7355
-16.8781
10.3456
-14.4154
15.1098
-27.4055
-81.5982
-76.6949
-81.1147
-103.004
-36.2865
83.9695
92.1327
59.5692
56.1798
1.79734
-87.9963
-72.5331
-28.9469
21.1247
15.1405
45.6221
41.0271
84.0717
71.3724
29.0936
-4.38783
-66.6462
-82.4249
-1.96661
80.3369
73.9122
-32.6364
-100.961
-118.311
-95.5527
9.62807
42.2725
34.1136
68.4787
90.1183
76.7083
60.5494
3.02794
-41.7856
-117.473
-128.029
-43.7162
7.4349
3.10085
-29.6614
-15.2699
61.6644
91.7211
116.533
97.79
64.249
64.7673
24.397
-35.3189
-104.034
-104.339
-69.7694
-104.24
-159.594
-90.1298
36.0583
81.7213
119.32
91.9858
25.7176
39.528
36.0676
18.5398
-9.08765
21.9602
55.559
22.8796
-54.612
-76.7281
-41.2773
-116.345
-145.032
-82.6411
8.67919
93.1582
94.4869
103.352
76.7048
44.6078
22.7462
-25.4416
-55.3218
-87.0341
-102.56
-33.6352
-30.001
8.63214
48.5826
56.3986
93.3529
71.5654
22.8886
21.1886
-34.2187
-24.5369
14.1426
19.7343
23.9408
-11.6568
-104.917
-113.947
-48.2413
21.8958
97.772
63.3807
11.9323
-51.7873
-63.7173
-31.7001
-2.33152
77.3486
66.5636
53.6399
77.1778
75.4598
45.6873
-25.8867
-90.5133
-112.361
-43.954
-0.284073
-5.26241
8.29131
19.3487
-37.429
-51.4375
23.8899
17.4417
-25.2327
-90.7335
-85.7079
-35.7086
-21.3497
-29.6604
-51.2865
9.98828
53.3537
111.2
149.796
155.678
124.269
87.6959
25.4721
-2.95935
-35.8428
-71.9714
-87.1677
-39.578
-27.261
-60.2935
-112.826
-90.0464
-74.0917
-30.3439
-2.30339
-41.7984
4.07509
75.4712
124.613
149.209
133.508
81.8671
45.5133
-58.0318
-95.7881
-119.327
-109.775
-27.3116
10.5969
-34.1752
-32.0566
34.9521
60.7455
56.2205
24.8519
50.8497
76.2326
-8.78804
-31.3525
4.78094
14.7567
6.48828
-76.3588
-77.367
6.15346
47.5654
31.8004
-5.00109
10.1705
63.7324
35.2213
-0.00153504
-46.5505
-26.4273
9.99088
-47.2239
-100.811
-44.9795
-70.4274
-85.7227
-45.972
-0.136004
64.1425
59.5483
36.7829
56.2055
60.479
37.6232
-20.8999
27.1984
102.189
50.7253
-41.3519
-96.4337
-77.778
-72.6019
-119.331
-91.298
58.2583
108.386
69.6347
17.7776
28.962
64.0874
80.5985
31.5897
-20.6945
0.0759625
10.9812
-24.6928
-54.6954
-107.16
-80.6
-37.479
24.1302
71.2011
93.685
71.5378
39.2609
-2.15224
-69.0835
-51.1251
56.8757
76.312
42.2209
79.4776
77.8435
16.9554
-32.5509
-117.805
-99.909
-1.56744
42.7977
48.7514
19.229
-3.81024
15.4881
-41.3887
-153.365
-206.469
-140.271
-102.065
-88.8036
-45.5057
-25.8991
9.06687
41.716
29.157
81.2479
144.982
132.348
95.7108
70.8701
50.0524
30.4053
25.59
49.485
24.4249
13.782
36.0466
11.4799
28.0494
-17.5612
-61.7077
5.97951
-15.49
-33.7663
-29.8449
-73.2772
-80.497
-90.2717
-72.6289
55.8167
55.2805
1.15109
21.697
-4.9681
-8.26703
32.0319
52.8528
7.54129
1.77756
36.53
36.1347
-50.8208
-73.6533
-52.5896
-63.5804
-37.5251
13.5563
78.0296
98.6061
-17.3873
-42.1689
30.7813
-0.0897768
-37.7235
-14.3131
-42.9863
-27.4033
42.2427
71.3736
71.1379
62.2056
35.258
-50.4728
-86.3192
7.00172
-42.4478
-79.0061
-10.1445
44.6979
69.2738
64.2498
-3.94571
6.81421
-2.4516
-2.45616
2.04483
7.56005
-8.74624
-88.2923
-66.2863
20.0359
20.3503
24.4467
15.9293
22.2753
92.5828
127.568
36.9248
-58.6243
-66.2008
-122.85
-158.685
-90.5964
12.9734
20.9827
-1.73851
-34.3695
-18.0782
95.3074
47.6104
-22.1727
9.01051
55.6621
66.8268
-4.78444
-14.2919
67.2334
51.0418
-5.9612
-29.3955
9.54719
33.5608
-52.1332
-91.6177
7.34385
79.5228
75.5796
36.8508
-53.1592
-85.5707
-89.1746
-66.1203
-40.8871
14.7957
29.248
27.4186
-1.60386
-16.6136
7.42505
34.7296
9.21909
16.2423
64.7855
103.099
61.9337
20.4733
-9.85702
-34.9751
-69.5432
-38.3712
3.0116
-26.5791
-49.9531
-53.4392
12.468
32.9973
-20.6664
-33.6325
-15.1109
16.0215
55.1173
42.7542
13.7074
28.3056
35.6776
-0.109413
-14.2783
-22.0804
2.71473
15.7331
-19.27
-21.907
-1.88699
-31.7279
-9.41274
6.27651
-25.1256
-73.4438
-91.7931
-112.674
-52.8845
17.457
109.191
127.848
121.041
56.7925
3.61177
10.8907
-18.8719
-43.5417
-9.88378
-29.2157
-44.8132
28.3172
15.3245
-29.7948
-24.6191
40.8783
115.14
86.7535
49.8037
4.08011
-52.0946
-64.0375
-55.1468
-32.5718
-23.3142
-1.31638
-8.9604
15.6109
-24.9343
-42.4122
-20.221
-6.2923
-28.8459
-56.0071
-4.821
62.7695
24.7783
-17.5694
2.09992
45.5394
25.0317
9.60518
54.7916
88.0555
63.1846
-38.5682
-68.1305
-84.7981
-79.7262
-7.60651
103.856
71.2281
38.7962
22.0497
-25.0653
-60.7213
-79.5172
-65.6797
7.09507
63.8717
43.0639
-22.7111
-69.1827
-27.464
24.8859
18.8192
48.3837
91.2465
79.0814
77.6505
42.7022
-21.8397
-72.6172
-54.2817
-85.4445
-50.694
26.8948
26.6202
-14.3282
-78.8799
-102.21
-91.6782
-127.791
-108.224
-57.4164
43.5525
101.287
112.161
112.494
71.5859
-5.24626
22.2383
59.3928
66.7461
85.9074
61.2102
27.0782
37.4601
-3.58931
-8.66791
-10.7795
-3.50974
-0.381338
-26.4802
-34.42
6.26436
-54.0134
-134.924
-191.565
-146.889
-66.4562
-12.2698
26.2463
59.2681
92.815
106.884
72.093
88.8978
89.335
65.0438
48.8943
-2.93133
-29.6253
-25.5392
-15.8188
-63.3213
-57.3421
-7.56558
78.0151
59.7169
47.0899
13.2227
-34.5324
-69.6072
-109.075
-68.9999
-19.5998
15.8929
20.1635
-27.792
-27.2723
8.17349
-26.8065
-14.8023
-16.1705
-64.5002
-67.7731
-52.3836
10.1504
48.8112
60.7597
42.4178
34.2491
82.1677
98.5131
30.0172
-10.8919
-50.3437
-37.765
31.8264
18.0318
12.2958
48.9036
75.0453
85.3494
99.1368
133.762
82.4118
-35.349
-125.454
-235.598
-227.175
-134.515
-109.676
-109.341
-32.877
37.6897
59.8028
38.2062
34.4758
51.762
18.863
-11.078
35.7194
83.9746
112.425
114.412
104.231
74.2335
57.4862
-1.44955
-79.2223
-17.2874
-14.8406
-36.7129
-68.3618
-69.0091
-31.389
-3.14949
-23.7905
-89.3908
-34.8062
33.7811
-25.9262
-73.1735
-66.8549
-60.5314
-55.5942
-49.6128
-25.5404
109.874
156.746
48.3909
21.1884
94.5315
112.743
76.6614
15.825
-7.26841
-20.1425
-19.6319
-55.8786
-76.3814
-44.5401
10.6824
24.8344
-13.9424
7.63056
27.1336
2.97713
0.191626
35.4316
-15.9289
-42.4506
-32.4922
-28.0078
-53.3288
-23.7971
3.90347
5.80969
27.1565
6.88677
-16.142
20.2035
-22.2104
-34.1552
28.3305
68.5111
80.1679
76.3368
55.2388
55.2625
64.6763
-13.1642
-64.2688
-39.3184
-24.7287
-90.5202
-137.278
-64.5025
-26.3823
43.6276
77.8887
11.3083
-16.2717
-20.9011
-29.3608
-6.11469
-16.1875
-12.5341
-24.29
-36.3054
-2.45894
66.4218
61.5956
-10.38
-24.433
37.9385
75.1565
28.2099
2.2296
-12.2622
-3.4203
-42.4234
-85.1554
-29.824
-7.06325
-75.8185
-27.404
55.5104
91.3538
83.1535
41.4543
22.2159
32.8371
40.3357
37.5538
8.95311
-39.2638
-76.8419
-72.5556
0.699767
43.4044
71.6663
96.0418
62.3575
43.7187
21.0395
-54.6852
-39.9234
-50.5955
-47.9109
3.71209
34.6817
-14.1502
-53.4857
-47.8087
-91.4003
-129.257
-173.701
-179.832
-113.502
-27.1991
23.4562
17.1824
41.3997
80.358
167.163
180.509
114.28
80.0679
72.0087
57.6243
50.8535
42.5561
-0.962995
-6.54339
16.6589
36.8546
41.8587
62.7994
-23.6114
-132.821
-95.2008
-13.0313
1.32766
-29.7044
-71.7355
-61.6356
-29.2781
-23.126
-7.71625
-44.9988
-83.5991
-69.294
-49.3787
-67.2335
-87.9455
-59.3077
54.1921
161.359
169.952
137.273
58.5742
28.8523
14.6092
20.4007
-27.1391
-31.0976
-30.0453
-83.4173
-66.1087
23.8694
101.719
121.695
109.014
62.9882
70.4477
-20.7438
-138.411
-146.15
-73.4223
-13.2105
-3.4164
17.9031
53.5369
28.2378
-15.091
-30.076
-74.0013
-45.6943
-26.1976
-67.3988
-39.6875
-14.751
-6.04606
15.1597
39.2851
109.325
167.952
129.029
80.3511
15.2207
-42.3534
-46.2111
-63.6361
-90.2428
-83.9169
-63.5935
9.32886
52.9995
9.52607
-4.4346
-27.2195
-46.0582
-58.2336
-61.4101
-60.2492
-7.5109
4.62679
13.5733
32.123
46.807
12.0512
1.29157
48.1
67.1442
108.448
100.698
30.5442
-37.8605
-62.9988
-62.1816
-89.3482
-81.2605
-1.34301
37.3777
72.1071
80.2269
98.0292
87.6591
33.0771
-2.19418
17.4603
53.3323
-27.7661
-73.8675
-69.6766
-55.5307
-50.0199
-34.7953
-66.0783
-82.5844
-59.778
-54.1344
-42.5993
-26.5764
34.2214
91.4687
58.8724
36.6908
2.22106
17.282
29.178
-33.7919
-35.3907
9.21084
14.8193
1.40263
19.4699
62.1374
74.7443
63.4663
42.9557
34.2906
-3.87587
-30.8036
-66.3684
-46.2398
-31.6288
-19.7841
-21.8337
-20.6099
10.6118
-4.73672
-26.4179
29.2396
24.0812
50.3519
46.4631
-14.4235
-50.5987
-70.1221
-110.225
-73.2411
-66.5658
-65.9337
-32.7343
-7.21105
64.9219
58.7661
9.59537
40.2908
29.0413
28.0501
54.2737
93.3669
117.462
59.7444
8.6418
21.3543
34.6841
60.2391
81.8761
48.0738
24.5672
24.4278
-29.1939
-74.2895
-83.6045
-88.4791
-48.7792
-46.9791
-45.805
-34.258
-25.3288
-107.508
-162.662
-66.8274
-8.07642
-7.70157
21.7585
23.8417
38.5609
59.7936
55.1102
25.7941
37.3091
67.6961
62.5084
61.1992
41.6166
4.98915
-35.8915
-62.9237
-125.88
-228.104
-166.843
-37.3858
7.47476
46.4895
84.806
122.287
135.683
110.868
108.714
89.1063
15.1233
-19.5564
-1.3042
5.26627
-18.5107
5.18186
59.6543
93.8334
82.0215
110.426
68.7573
-39.8699
-64.6556
-89.831
-92.0561
-62.9014
-45.4565
-71.8517
-98.4264
-71.3601
-33.473
-59.1064
-87.3937
-88.7891
-13.4453
-18.8508
-43.0876
-49.2238
-14.5546
38.0986
65.8632
34.1923
84.0239
110.996
57.4224
-32.0672
-107.618
-55.4921
-14.0851
20.3102
104.994
84.0779
22.1773
-1.97501
-15.6914
21.0447
42.4241
11.1351
47.0815
105.546
90.3432
30.3109
-46.3416
-62.0408
-32.5137
-25.9904
5.73246
48.8218
32.5962
24.03
-13.5086
-30.4627
-23.5644
-10.1516
-26.76
-13.2501
25.9647
87.6116
77.7904
17.7099
-46.3013
-121.791
-224.623
-285.973
-282.398
-181.05
-33.0452
63.1209
149.658
185.986
174.006
138.452
65.669
26.9794
82.6624
50.1327
28.2691
-0.0411356
0.130454
15.948
9.9926
17.5231
92.8951
123.716
131.506
95.1862
15.9839
-82.373
-133.105
-151.435
-124.85
-95.3405
-72.4508
-68.7746
-84.1115
-78.5925
-63.7099
-57.5693
-62.6942
-18.7649
30.9673
59.3902
72.4075
104.978
80.0877
39.2138
-18.0892
-37.5739
33.4054
57.9296
42.231
31.4639
44.0136
57.8693
1.85238
-47.4116
-3.84928
-9.78445
-12.3412
-4.25144
27.5569
73.6866
36.8106
-37.0588
-3.37679
-29.2307
-44.7863
-75.8629
-85.3347
-20.364
-1.13902
-7.80809
30.8484
31.7521
55.3879
85.685
34.5345
4.68577
-57.344
-110.339
-87.7894
-18.89
10.6239
57.7304
61.7424
79.5803
54.235
27.3644
-13.808
-63.4924
-14.0632
18.3001
13.3767
-13.7818
-53.9671
-49.2858
-28.5191
-13.6261
16.1257
63.557
84.1324
33.3834
-4.85994
-27.5076
-36.5667
-48.0163
-73.0369
-30.6633
-24.9912
-45.4919
-55.5558
-55.0196
-39.5175
18.106
45.4873
82.6291
79.3217
84.6541
102.918
49.452
-25.1572
-77.1315
-110.135
-70.373
-41.1623
24.4945
117.501
106.872
37.6816
2.92397
-57.3568
-14.4973
27.4914
56.191
46.7841
-20.4919
-25.6588
-9.42615
-53.4127
-81.273
0.296709
14.8982
85.8573
127.886
84.0086
26.4874
-9.96303
-75.0895
-118.038
-109.226
-98.3451
-80.2823
-61.1532
-63.9688
-31.5974
8.69973
-9.36427
37.1361
125.179
120.987
37.6191
50.1734
55.2019
19.3299
14.5927
-3.58058
-54.8858
-1.39755
6.62431
-28.4773
-29.4899
-47.5153
-59.0185
-38.8285
-18.0302
0.446167
17.9194
69.4522
88.4681
75.7571
39.6277
-33.8548
-93.0623
-82.8017
-62.1649
-52.5032
-33.918
-30.5666
20.764
65.6734
76.943
112.708
93.0812
43.5697
12.785
-0.512921
-1.4267
-56.1452
-115.907
-64.1696
-5.42462
45.349
81.5238
67.4614
33.289
13.6398
10.3868
42.5114
0.991326
-7.95111
9.32469
-22.5823
-65.6188
-109.687
-99.45
-89.6621
-79.2304
-79.7333
-46.72
-12.5173
-1.41949
-1.27939
-17.9897
12.6549
63.2346
97.4801
105.834
71.2166
91.2894
49.4994
-15.7256
-7.44279
19.0941
34.6934
11.4976
-45.9966
-47.281
12.9482
13.885
22.4676
36.9932
14.1991
19.2094
-0.278831
-31.6823
-51.7326
-25.0798
-39.8758
-59.824
0.950631
64.2658
49.6381
32.5543
14.5775
-9.59258
41.1386
18.9249
-65.4102
-63.7513
-65.7143
-71.1055
-94.1748
-106.322
-70.2701
-42.0162
23.064
88.1728
49.9297
61.7709
74.0241
46.1156
23.138
8.85256
34.6881
61.6728
29.2722
-0.0703435
-18.2063
-12.9308
-9.46537
-27.7702
32.1907
65.088
50.3666
38.6482
-0.137772
-70.9297
-36.4951
-16.4084
-57.6822
-22.5344
-27.5349
-64.4448
-82.9886
-27.0084
38.6216
74.461
81.1195
30.5713
-22.4671
-20.5867
14.6308
64.7773
41.9665
-12.8636
-20.217
-47.6193
-65.8845
2.76175
5.75392
-58.0343
-46.6747
35.6371
72.4088
32.7213
-65.3934
-78.9344
-24.8215
22.2231
46.7963
46.3832
55.9594
34.4212
-30.4091
-12.8107
39.8758
37.9822
7.69013
-19.2938
-28.3792
-81.8875
-80.1165
-27.8998
-11.1986
22.6043
77.7959
68.9026
73.6783
86.6279
89.5425
41.4836
-29.8074
-87.494
-66.6248
-5.78759
-59.338
-88.1224
-44.8655
-38.434
6.25274
64.5853
25.8047
-28.0343
11.3061
40.7366
43.4094
4.86992
-105.239
-161.302
-111.153
-19.3445
24.5546
10.1277
6.88507
24.514
59.8276
125.586
119.237
111.705
107.839
61.635
45.8385
24.6191
-24.5707
-60.7164
-74.1661
-45.9246
3.61064
0.36554
-31.419
-51.4942
-35.2582
-11.9968
-43.4385
-65.7448
-9.86143
30.9609
7.50738
-30.3821
-43.3976
-31.3012
-12.7398
-16.1736
-28.1014
-11.9546
-18.7228
-13.0993
16.9921
84.3166
77.7495
19.4111
-28.9866
17.4603
86.4693
74.8578
3.97125
-54.6208
-38.8815
-18.4153
-40.8213
0.58532
10.0698
27.8437
12.2712
-5.01276
19.3267
25.6126
25.788
16.7509
10.1354
38.8666
18.7392
-36.9571
-52.1976
-22.0441
-2.62201
-4.65215
13.4343
30.5532
21.1529
-4.7352
-51.4175
-62.1103
-6.0803
2.71829
-28.6744
-9.52604
2.97346
9.42627
15.458
-42.1182
-80.0796
-37.3989
4.43133
3.94573
12.9368
17.0654
11.952
14.0716
34.7235
38.4568
14.1211
1.95523
41.1182
33.3224
30.396
48.5813
49.8475
16.4388
-22.661
15.3439
81.6201
50.7188
1.3613
-57.3691
-75.9117
-55.4673
-72.8774
-86.1369
-51.8888
-56.3093
-44.0816
-50.4897
-64.2947
-28.435
25.5664
80.0322
133.299
90.8259
20.8877
-14.0959
-19.391
-54.1882
-92.8765
-56.6028
1.74855
50.8243
88.6962
54.8837
15.9119
37.0855
55.868
44.4691
-1.39064
8.55623
34.4806
-15.8322
-74.4933
-42.2424
8.80098
51.8686
64.3809
35.5589
7.56515
3.72748
-19.8696
-51.8448
-81.3601
-103.524
-67.1729
-39.3071
-25.015
46.5177
129.262
97.3076
22.8251
-39.6019
-83.2654
-87.3667
-129.423
-124.394
-41.4721
38.8151
103.177
93.4476
71.1088
62.5212
46.8542
70.3452
37.8488
22.8142
19.273
-22.3424
-60.4663
-71.3973
-89.0976
-58.8544
-25.8248
29.2828
71.7648
56.1027
2.2936
4.82508
19.3639
16.3228
-9.80681
-16.137
23.8625
29.1113
24.4825
21.4697
27.6273
12.2475
-67.2898
-82.8489
-4.43852
10.7856
-8.16543
-10.2777
23.4865
5.32767
-68.3514
-20.3715
17.5939
-6.69265
-36.5419
-72.7666
-76.0049
-44.9228
-45.483
2.02877
55.8663
66.9893
68.1731
46.7366
37.4308
44.717
38.603
37.5314
65.6784
68.4755
49.4901
-6.16903
-34.6611
-35.7748
-27.4048
-40.8852
-61.2863
-18.4729
27.0864
-6.20561
-27.0459
-26.6717
-13.6422
-21.4788
-53.9568
-59.5117
-4.63452
44.6695
10.9544
12.2089
39.8783
29.232
18.0129
6.9817
-21.2343
47.1439
39.632
-12.5713
-25.8752
-12.2657
-10.092
-10.7132
25.2628
39.0223
23.7001
9.31721
-13.4693
-38.7357
-27.0766
-45.2518
11.2297
10.0888
-26.989
-18.5158
11.7343
5.5104
8.81058
-37.3146
-38.8441
-54.2973
-54.6794
-46.9002
-42.6317
-8.62572
39.2018
42.4764
12.4536
85.4413
172.836
156.833
118.192
99.2828
63.4895
-68.5518
-160.526
-196.044
-166.575
-146.584
-186.726
-119.819
-58.8589
79.9851
166.932
189.099
193.969
171.662
108.424
20.1592
-60.698
-104.202
-186.22
-299.375
-210.505
36.1524
209.86
260.539
225.768
216.904
254.949
232.114
164.576
50.0352
-24.3508
-110.247
-165.529
-195.41
-174.449
-196.713
-254.871
-189.387
-34.5062
70.7618
58.2051
6.66006
-26.8757
-47.7503
-33.2077
-63.455
-96.5501
-103.247
-86.0261
-69.3442
-85.8355
-110.851
-54.5386
32.9101
92.5706
93.0085
144.304
159.365
85.5802
71.1687
48.7258
4.23259
-22.5656
-28.1388
7.34229
49.3093
83.7716
88.5179
66.0649
35.4554
28.0494
68.1758
115.605
74.1032
38.1187
45.9396
79.3655
77.8172
12.1195
-8.55582
-14.6081
-86.7232
-148.965
-97.8107
-93.027
-107.454
-87.3444
-40.0198
34.0918
44.2791
51.6089
26.6543
-53.6511
-64.2204
-37.8845
-48.8002
-42.6706
-27.6991
11.2059
0.667348
-69.8399
-73.1739
-2.33174
12.3485
28.7146
11.5958
-51.9944
-58.6884
-19.8991
-6.7798
30.3086
80.969
47.2266
-2.42546
4.3089
4.21494
20.9215
40.3909
73.3244
102.023
103.263
106.497
65.0191
34.9005
50.5
67.973
17.0286
-75.8525
-166.759
-182.534
-229.149
-276.763
-222.486
-67.4131
107.53
190.301
153.859
151.168
105.603
96.4585
130.965
121.05
76.9977
28.5133
-2.36269
9.57491
45.6299
-3.96176
-41.6213
-19.1617
-48.8439
-14.9827
0.0967488
-15.7276
-98.6177
-157.522
-206.227
-182.251
-87.0432
-54.0707
-29.7267
2.48015
14.4367
6.57738
-39.874
1.69705
31.7873
49.9183
75.9511
51.3775
76.8952
96.165
66.9786
68.9475
28.1925
7.88627
17.1114
-11.0347
-54.0241
-49.0392
-54.4187
-34.8286
40.5057
72.0469
92.308
54.0811
0.91278
14.5566
57.7562
67.5486
116.615
66.7914
27.7431
-37.2684
-112.99
-152.03
-136.205
-111.609
-81.0523
-9.44125
68.7509
128.685
104.669
51.4503
-0.442336
-49.9509
-138.531
-256.239
-176.484
-72.3718
-20.6501
21.9274
41.9686
30.1901
47.7943
93.5116
93.3137
146.838
141.06
108.911
74.1694
-26.9063
-83.2249
-58.2818
-27.7593
-9.98168
6.37395
51.6445
6.72233
78.2598
211.39
196.406
23.0637
-98.4332
-161.001
-212.049
-169.933
-199.411
-224.924
-129.177
-26.0463
53.1006
38.5014
15.4383
21.0057
38.0478
81.1898
134.462
91.4472
10.1095
-51.573
-47.579
33.0425
94.1426
111.587
96.358
42.4036
-37.5756
-26.7547
30.9204
6.46066
-15.7721
16.337
14.6314
-0.725049
-21.8508
57.3963
104.8
67.3817
-29.8127
-160.634
-179.581
-155.76
-164.095
-67.8453
82.8371
170.73
200.148
156.934
50.3949
-8.90088
-75.544
-174.232
-200.992
-138.178
-77.2411
-75.2773
-61.2461
-15.6106
21.6999
34.1331
83.1297
148.088
167.99
118.701
43.5394
-5.2366
-10.4541
30.0615
13.3353
-6.29342
77.8521
155.673
155.197
71.7454
-33.987
-69.5698
-57.59
-70.8456
-94.0406
-111.23
-111.166
-92.2864
-4.2566
38.5572
-13.7927
-59.9769
3.36405
35.219
40.5474
3.87713
-95.1824
-112.003
-62.2216
-23.6602
55.9302
39.9898
-10.1485
-8.64735
-28.9353
-42.4412
-58.9933
-5.62341
97.7402
135.874
159.868
125.2
29.8239
25.4627
11.5156
-35.0329
-38.9278
61.1283
74.1192
3.93043
-21.0757
28.8388
12.4456
-30.2023
-15.7593
-9.97954
9.14383
-59.7914
-158.981
-154.13
-114.982
-59.3721
-8.77492
-9.3689
19.0824
126.278
154.978
45.9861
28.1332
38.3755
-34.0508
-67.7359
-51.7417
-21.206
37.6759
48.582
18.3121
12.9849
-8.97873
-47.9105
-47.1337
-79.1217
-30.6287
23.8323
15.8923
-10.2605
3.90426
14.7126
5.45393
29.1782
101.761
81.5324
70.3079
39.0544
-20.2709
-39.7771
-63.117
-39.7431
73.9095
113.309
80.1579
60.3706
-16.0672
-94.4593
-111.495
-90.7471
-90.3995
-65.4252
-93.6376
-63.248
-46.5487
-0.321451
40.7743
63.4427
48.3722
91.2684
106.526
77.8982
-8.17348
-56.0205
-57.0183
-33.6591
6.34586
27.9291
-44.2977
-55.6854
-35.1329
5.74249
52.6955
47.3192
69.1208
56.4862
16.3468
-12.8094
-9.90684
-37.2224
-28.801
-30.3638
-39.0428
-13.2196
-1.82724
48.2453
65.0311
49.0767
38.0067
-19.2617
-1.57604
52.5701
19.3096
3.94342
-21.55
-42.3335
-42.9329
-34.7015
-57.6227
-53.7072
0.0703516
-4.49545
-0.239294
-20.5544
-36.1602
-16.2956
-22.0265
-43.3558
4.25746
47.4944
16.2501
-31.6201
-2.29655
28.5412
32.192
-25.8965
-99.0442
-63.1971
36.2931
53.4247
51.1116
89.5951
82.0054
64.8391
80.2261
74.0054
73.5044
25.5181
-13.8763
-49.1976
-32.8269
-22.9575
-102.038
-89.3385
23.4869
65.0096
88.4642
50.2371
-17.3993
-65.2599
-94.9019
-65.8064
5.90572
23.0004
18.7246
-4.62139
-15.5506
11.0954
-8.45353
-51.7975
-106.216
-121.243
-46.0158
-31.6601
-67.2842
-46.6647
2.55969
91.6096
115.34
107.206
148.618
118.858
13.2405
-31.8974
-54.1129
-59.2629
-79.9959
-39.7481
29.1309
62.7469
66.2004
39.027
46.6941
18.6925
-34.7718
-28.9672
-8.3872
-23.3306
-26.5612
-8.55434
-28.0983
-55.6764
-41.5042
-16.3764
-26.1507
7.03167
61.8332
46.3285
25.4651
41.3337
61.5327
75.4399
61.5388
44.873
-5.75153
-13.0836
-95.6544
-42.9413
-57.5127
-114.757
-93.0667
-43.0901
-64.3452
-49.4382
23.4139
25.7393
35.5811
73.3121
75.317
22.6775
-53.3393
-68.6059
-36.9123
-28.578
2.41242
52.3711
171.877
128.037
86.5295
173.256
135.072
-36.615
-136.137
-120.891
-71.8638
-60.1489
-79.3497
-39.8195
-31.954
37.8037
113.808
55.9631
-28.3109
-77.3866
-74.895
70.0215
24.1214
-156.758
-167.508
-140.394
-110.507
-54.216
-53.3247
-20.0162
152.45
218.052
201.941
160.336
56.6297
-60.2766
-69.5532
-78.6349
-106.711
-45.9339
17.625
-59.6774
-39.1137
52.3683
38.9967
38.9794
106.47
267.725
336.177
260.507
104.261
5.76132
-42.9389
-100.498
-110.261
-101.069
-116.199
-84.0063
-32.6393
2.86437
19.4833
-57.1717
-147.663
-201.511
-117.547
-40.9444
-69.2585
-16.5228
162.878
125.029
-152.387
-474.952
-313.455
-17.3468
-144.227
-176.449
-2.70284
163.332
344.967
471.882
255.523
245.196
259.763
164.539
39.8539
-186.913
-225.277
-222.242
-215.363
-168.607
-99.9449
126.102
64.0493
8.91076
142.373
150.417
101.901
120.009
80.7466
-12.9285
91.5494
33.97
-62.2391
-15.3969
53.4258
136.712
51.5516
-16.293
-53.0705
-83.1168
-118.704
-75.1101
-64.4608
-170.767
-88.2812
202.561
214.461
44.4382
-108.47
-225.008
-279.748
-305.595
-122.734
-11.2066
-16.6672
51.7777
89.9352
-56.4475
-158.083
-48.7756
110.036
266.81
252.173
165.784
77.4979
-43.7449
-53.1799
-24.6346
-16.4078
-23.6397
25.6807
13.9383
-45.0683
53.8981
124.098
71.798
45.9253
131.045
125.142
114.075
159.405
72.0443
-15.9559
-150.592
-152.775
-144.153
-191.694
-251.873
-158.843
-43.4877
-0.122231
71.0044
70.7494
-31.3694
-91.6768
-43.5836
-13.189
-32.9423
-38.6599
-77.3629
-114.246
-128.329
-126.468
-5.64832
117.971
139.752
188.019
243.215
217.871
137.28
19.8941
13.4185
99.8173
143.747
168.332
81.3728
-23.9258
-98.2122
-91.2155
-84.8054
-40.4401
67.2316
113.899
72.4636
-13.7551
-100.159
-187.324
-174.437
-130.486
-26.9468
63.2751
86.8516
25.3405
-43.6143
-91.7643
-120.777
-57.6151
-31.3255
-57.109
-22.4045
7.35689
-13.7447
-36.1622
-25.8082
2.78001
67.1006
20.9666
-50.1258
-53.6268
-61.0754
-20.1965
-33.3744
-33.8259
93.9268
162.16
150.244
90.3467
120.76
82.7031
-51.4828
-165.724
-247.479
-267.634
-232.426
-55.8204
89.6384
152.719
241.871
339.483
292.794
233.04
181.82
136.104
-40.0239
-107.517
-132.247
-139.312
-154.572
-130.872
-95.7084
67.916
143.622
132.617
148.098
115.829
-1.42621
-91.5924
-187.104
-287.955
-285.135
-261.831
-150.718
-73.2507
-58.9135
-61.3609
-13.5136
79.223
110.093
140.587
187.685
110.214
33.9942
44.0983
50.4036
32.2436
20.7847
48.6613
50.8035
3.43495
-33.1364
5.32843
-28.7022
-80.0412
-1.06833
12.0011
0.714545
22.9241
56.8885
79.7389
69.3843
30.4011
-8.39857
13.2506
27.8118
-3.64766
-20.6495
-4.11413
-31.7266
-70.5666
-73.9991
-23.7725
-17.602
-1.90957
6.839
2.13067
-39.875
-77.6523
-59.8207
-84.7294
-120.226
-98.9974
15.1604
50.2455
41.7296
78.8744
55.4935
0.371643
35.483
64.6432
100.631
54.8968
42.9158
47.2741
38.1382
167.886
252.199
97.8301
-2.02438
75.7497
60.8876
-103.068
-261.74
-250.111
-293.847
-285.369
-139.141
28.7722
89.4499
104.529
35.3633
-6.52094
-57.6112
-87.3153
-29.8289
-127.988
-178.566
-66.7357
54.9336
75.94
59.4851
124.378
222.381
182.118
140.027
109.779
26.4532
51.5592
57.015
-21.6908
6.93192
46.2511
73.3401
32.6531
-53.5142
-68.0009
-53.9072
-7.5617
12.3147
-20.4288
41.144
27.2344
-46.2788
-15.123
21.618
13.6402
9.49374
-50.9232
-81.1507
-86.4665
-80.0365
-107.272
-130.704
-115.571
-13.4874
34.1716
-8.1411
23.1152
-18.6118
-128.788
-169.35
-95.6333
85.7572
154.05
141.837
137.965
68.8217
-5.49852
-4.9096
23.6701
-8.49042
-3.75527
41.7418
88.4333
51.5549
-9.59313
-40.451
23.009
185.88
265.955
176.599
126.885
-18.754
0.990768
20.5507
-76.9879
-114.797
-149.139
-108.824
41.9956
30.097
-98.1212
-177.656
-118.173
-38.4958
-113.435
-60.4808
75.5304
-90.0309
-233.742
-294.621
-419.424
-260.737
-128.576
61.1039
202.439
279.867
309.187
212.196
107.889
190.111
305.196
253.838
86.358
56.214
82.0624
62.6779
-51.6565
-42.3067
-0.12492
109.88
221.69
252.676
133.785
-40.0369
-230.102
-298.679
-196.203
-119.114
-220.761
-214.781
-140.058
-63.251
-73.4813
-183.599
-132.089
-27.9781
-92.3882
-103.836
59.0684
226.485
291.786
65.7981
-90.4211
-101.226
10.1764
23.0544
29.9873
49.6736
53.591
35.9381
-16.2576
17.4569
68.7385
27.7097
-3.69452
-42.0169
-21.6204
111.989
152.594
100.609
82.4791
42.4205
-40.3375
-13.0558
61.2488
144.344
84.6361
28.9507
-3.96717
-71.3774
-90.3338
-186.376
-154.184
2.41301
35.9164
-28.1139
-59.8668
-41.6051
-25.2005
-28.8586
69.6164
98.6601
-2.84693
-56.7935
-116.892
-94.7611
-41.3486
-95.7524
26.3931
95.8519
63.9555
80.392
25.3371
-33.2201
-49.3163
-43.8537
-106.376
-9.30004
129.314
164.241
51.5444
-28.6928
-37.1564
-19.8782
-185.492
-393.009
-186.662
100.432
97.9373
-29.8042
60.803
210.155
302.889
208.609
190.808
282.139
224.784
-0.333292
-165.844
-202.766
-159.451
-75.0798
7.97288
33.9932
100.65
130.255
-45.177
-199.103
-169.343
-74.3548
-131.649
-146.981
-66.9341
-51.8927
-53.6171
-53.5568
8.703
7.38698
-22.1224
-88.486
-86.8341
43.4685
131.212
135.362
138.251
95.1231
25.0896
-17.7152
3.80591
79.0752
67.2607
44.205
22.9134
0.657609
-21.6984
-29.5173
5.6766
34.5443
12.1554
-5.56435
-87.6102
-122.543
-28.2257
29.7485
96.3778
145.815
92.1145
81.623
-68.3721
-173.228
-89.9513
47.8468
13.6511
14.6435
46.9594
44.5522
5.63417
-10.4338
44.3251
36.1419
-71.8452
-146.804
-95.212
-54.9531
-34.15
-23.2389
-26.7133
-15.596
78.168
47.4361
-55.591
-47.9325
31.7513
32.56
-43.047
-103.088
-25.5906
-26.7191
-48.6939
32.5216
118.486
105.093
34.664
52.1306
46.6754
66.756
14.7065
-63.4276
-13.1155
72.2838
91.771
6.57557
-52.4747
-62.288
14.7756
27.9158
-43.4235
-43.7821
-69.9806
-70.3487
55.6293
119.393
82.0296
9.98668
-17.9207
-35.8488
0.708539
53.1601
35.6114
-14.7971
-42.2924
-86.0306
-115.981
-68.6657
-48.2257
-53.8637
-5.79608
-30.1181
-59.0794
-10.2988
-16.2011
13.2108
33.3784
9.34692
22.8396
82.51
132.733
109.682
72.7399
88.6702
113.508
59.219
14.5857
-17.0558
-84.6473
-113.468
-80.4321
6.09103
23.0289
8.5938
-10.4912
-15.9881
-49.6047
-73.3801
-31.4367
-48.5398
9.9478
159.018
134.812
-77.8621
-180.861
-139.251
-117.088
-107.393
29.0785
171.069
155.521
68.3462
-8.48198
-100.402
-110.007
-74.6417
-24.702
63.9686
64.7356
108.542
126.013
1.44807
-78.4064
-7.72938
35.542
51.8318
53.5852
8.35194
-31.1463
-42.9069
-47.3843
-43.9076
-11.3238
36.237
29.2746
4.99145
91.4264
104.934
26.4611
-92.2954
-179.916
-126.404
-48.1777
18.3548
58.1467
61.7232
39.705
64.5798
24.7262
-25.7238
-16.1988
-24.3592
-0.341209
8.48402
41.6416
108.101
55.2848
-13.7713
-31.3467
-54.2101
-51.885
2.48201
-6.70542
10.0886
-10.0813
-63.3554
-71.9835
-58.7378
-27.1806
-109.17
-118.547
-3.58233
48.4012
73.7566
46.7397
4.32382
80.1338
78.3602
108.543
89.5029
50.3841
6.42673
-34.8432
-40.5047
4.25862
33.1258
48.3996
75.9834
17.025
50.7341
57.6678
-57.2103
-142.053
-132.845
-60.6737
-118.03
-173.794
-110.858
-102.381
-58.6258
-41.5175
-78.435
43.8244
122.372
147.454
158.129
117.5
154.641
164.109
141.748
151.351
96.9109
91.9184
47.1882
-86.4685
-180.84
-244.436
-165.933
-136.167
-72.7955
10.3146
-9.75714
-30.2321
-25.7271
-31.5369
-85.1132
-74.0573
-19.8935
54.1884
93.3442
84.1441
94.1815
52.0499
-23.3373
-142.771
-78.7016
34.8821
-49.4755
-84.2187
43.6601
34.9337
42.6607
82.744
59.7283
93.7323
108.185
103.763
73.9243
122.994
86.4709
-57.8849
-121.036
-53.5562
64.197
150.894
68.7344
-40.7419
-31.7527
-17.2051
-98.0184
-124.926
-93.9146
-100.832
-52.7468
-85.8285
-102.474
-113.623
-129.187
-168.324
-112.131
-15.1634
54.3737
63.6858
24.87
8.09294
115.91
179.297
91.2305
93.4517
186.034
164.981
41.3124
-123.654
-115.398
189.689
313.972
129.334
-70.3012
-158.524
-126.854
-144.72
-137.946
-115.808
-39.0554
45.0342
56.5126
17.6438
4.67721
-12.3231
-45.5427
-29.9718
33.6594
106.199
135.087
-25.6071
-149.634
-174.141
-132.673
-52.8167
-86.5073
-56.447
64.6495
61.3481
-20.7094
4.66547
56.93
59.1058
96.0828
131.242
137.517
131.23
122.372
97.3487
-16.1923
-170.949
-179.739
-51.0967
42.9105
15.2903
61.6686
117.859
103.271
98.5358
48.9637
-31.326
-113.206
-189.534
-168.715
-104.537
-75.1669
-46.5661
-28.8533
-38.7927
-56.3015
-3.70991
-24.2855
-7.84212
-28.734
-126.542
-103.195
16.8388
-20.7178
47.8607
284.743
317.961
190.638
130.238
67.2702
1.77529
-87.5851
-43.0427
-18.0987
0.347135
14.7492
-9.84573
9.58857
4.59754
-36.9819
14.0479
18.7155
-84.0328
-146.83
-143.706
-232.842
-186.448
18.3008
153.189
83.4766
20.1978
13.3485
-11.7676
-52.9138
-85.187
11.3567
6.53522
14.7079
89.8925
117.909
134.794
101.39
53.7745
49.8394
-23.9724
-85.6391
-71.826
15.5904
87.5687
190.445
242.829
131.176
-27.7433
-105.431
-119.587
-138.897
-91.0378
-60.5647
-77.5688
-71.5769
-81.9976
-64.5334
-31.5458
39.331
27.0036
-15.6581
-16.9132
-66.241
-103.036
-111.053
-139.913
-46.3904
36.8917
104.861
83.5452
25.7927
7.89623
4.00128
34.3886
110.937
140.04
168.161
203.931
163.261
72.7619
-8.49636
-86.0241
-131.256
-161.888
-96.4657
-26.0454
-22.7025
-13.4835
31.7846
73.4016
21.9743
-34.5404
-27.0153
6.48411
3.61201
-20.1335
-61.8832
-86.3939
-172.224
-121.391
37.1176
90.6805
36.1512
-12.7549
47.4374
199.017
238.667
116.851
18.9901
-27.7234
-60.2888
-112.925
-150.355
-94.1992
-3.87719
-18.9142
-73.5891
-19.9804
30.7348
56.5365
68.594
33.4704
16.2044
-1.29871
-65.1977
-117.051
-123.136
-78.4728
-28.149
47.678
97.9667
62.9927
54.7142
92.9577
33.3977
20.7982
-25.9822
-123.311
-113.21
-3.43212
110.436
165.176
148.045
180.822
153.359
-32.2771
-151.515
-127.423
-99.1643
-65.1601
-20.8749
73.2487
96.7995
19.5593
-19.8228
-11.9207
8.93737
-21.0774
-17.7701
-14.5368
-105.42
-121.063
-92.8383
-80.4841
-82.0006
-60.0187
29.1104
88.7039
71.2702
35.0527
-5.00662
-3.31108
0.106247
-39.4842
-23.1301
19.986
47.9905
94.9172
129.573
63.9023
-2.0899
-13.5351
5.59979
4.62079
22.0479
31.6107
-35.9921
-78.6456
-76.0873
-35.6313
-7.28097
37.4237
100.509
55.131
9.28875
0.170954
-16.6409
-6.44605
17.7878
-36.0745
-82.797
-44.465
-95.1927
-42.0541
2.2115
-11.9295
-5.09351
17.8838
69.7006
96.9646
98.8747
61.7481
12.6643
43.3976
38.3447
-13.519
-41.0785
-79.8942
-129.723
-87.2445
8.1756
13.6146
35.429
-47.7356
-93.8931
-100.207
-80.2637
86.4806
146.466
130.514
135.002
136.995
135.145
74.0558
-70.7919
-161.536
-109.861
-63.838
-66.5153
-56.9004
-5.00634
7.30925
43.017
43.5144
-45.1299
-31.3079
30.495
-23.5646
-125.025
-251.339
-125.302
-46.0534
-12.8714
-5.44692
63.1374
150.819
143.571
98.7912
173.225
198.577
107.228
57.2407
22.6332
5.7755
-12.3483
-75.9952
-54.5367
-53.4194
39.6047
82.9544
-54.0137
-134.006
-168.428
-122.523
-24.2462
-10.5186
-23.5993
28.1775
11.9931
18.4869
-1.20642
-19.8597
-34.7539
3.14557
77.9465
107.551
73.3393
43.0817
-0.976841
25.21
11.3439
-49.7079
-62.0889
-8.19927
8.89095
36.9985
22.1532
-18.1494
-38.496
-86.4379
-107.402
-16.7772
46.3
14.9208
-22.7341
26.1975
62.5977
36.4638
11.6877
57.8241
22.8909
-15.0748
-24.0246
-30.8951
-38.9907
-56.0558
-68.5536
-3.16558
40.6635
30.3786
8.19517
6.40697
4.42864
-36.7084
-39.7474
40.2834
34.0116
47.1654
38.6091
-30.6675
-26.3669
-58.7919
-52.6904
-7.75768
24.4374
72.1203
127.381
71.3642
8.66449
-13.0292
-22.337
-88.7834
-88.8071
-21.0264
-24.7951
-25.9097
56.702
50.7012
37.9464
56.2999
140.224
227.771
139.564
18.4653
-93.7035
-169.559
-154.964
-127.361
-64.208
17.4058
41.4533
14.6252
-3.78298
12.254
31.2248
-61.2146
-172.587
-208.139
-123.078
-27.2105
57.9902
39.8884
2.22894
-35.2225
-44.3088
-103.44
-54.662
104.504
210.719
137.277
74.4855
54.157
45.1198
4.7356
37.474
105.134
155.8
157.941
81.293
-3.87919
-109.976
-128.805
-91.5883
-11.5019
44.6616
169.74
124.693
-47.5828
-176.064
-170.617
-75.17
50.116
11.3375
-74.0432
-128.231
-82.9693
-73.2431
-84.6807
-51.5536
7.27364
-32.1798
-28.0013
47.8508
91.3727
93.7441
71.224
61.6487
58.4147
38.7615
0.95247
-36.7669
-78.255
-74.8784
-49.315
56.8212
94.4538
55.6585
87.1573
88.4704
30.4642
-55.5381
-116.008
-126.182
4.06856
76.7432
74.8632
60.3764
28.8895
-28.5562
-81.537
-132.464
-188.298
-52.907
72.8652
87.5454
82.2513
110.742
106.818
48.0208
33.4679
11.3676
0.102251
28.4339
-54.5169
-73.805
-39.2205
-29.4963
-26.1682
-32.8662
-3.97446
42.6899
62.7358
27.2945
23.7429
7.05251
-61.5808
-133.937
-115.019
-51.0998
-47.2927
11.3914
61.2851
38.1122
-16.9558
-59.3475
-88.3811
-66.6322
-71.2658
-36.8359
24.4652
75.3991
136.273
141.905
170.596
198.421
120.228
35.6659
-34.4
-22.5938
2.93348
-23.8509
8.40007
-9.71726
-110.149
-143.257
-81.9077
-99.6954
-70.3229
-38.5533
-144.701
-94.6939
55.4447
90.3197
63.6706
18.6284
35.1913
71.1596
82.1958
22.2875
14.273
26.5243
-18.8968
-17.2587
29.6191
66.6706
73.8479
85.291
79.2461
77.4185
122.498
67.3188
-47.962
-194.309
-287.144
-360.786
-316.922
-153.211
-8.25708
94.2862
96.4702
104.751
158.479
168.666
134.147
102.871
95.3061
46.0537
-12.7981
-40.8635
16.3918
3.34699
-18.2861
12.8757
25.5587
92.4925
120.973
20.4269
-113.592
-177.514
-169.076
-101.95
-57.9723
-8.86028
60.2439
-4.98161
-62.3964
-57.3645
-54.5832
-36.5809
-16.4686
-23.6447
-46.488
7.17366
53.8895
60.1885
62.5809
96.9886
113.158
126.739
24.9276
10.0072
17.8384
5.01541
-11.8885
-19.8135
-68.4942
-36.2638
47.2311
27.7607
12.5071
22.0725
0.778925
-28.3795
-68.9325
-96.035
-27.6452
-7.48597
-19.7947
-23.3431
90.3872
104.548
22.1053
-41.3004
-13.4609
101.159
39.3536
16.9965
-26.9045
-64.3167
-72.5825
-84.0561
-54.656
-17.3968
-26.0384
-35.8458
-43.7863
13.3259
52.2043
-8.68802
-51.9741
2.99907
70.2417
122.982
145.465
92.1432
110.036
53.1999
-13.6988
-45.6322
-83.1165
-88.7887
-106.61
27.6822
127.923
80.4608
14.3631
-88.828
-280.599
-151.398
49.0807
-0.00676841
-88.0032
-43.7108
-33.5989
-84.7632
-80.3291
-46.3654
42.5431
89.7728
111.568
120.131
125.918
40.49
25.1939
99.8488
59.1368
73.4427
162.768
43.5661
-78.5254
-95.6244
-77.8556
-61.9771
-59.3723
-31.0689
13.5827
16.3712
-5.78669
14.7992
60.732
87.4102
31.8346
13.5531
-0.247086
-73.2011
-62.9757
-31.1069
-11.1947
-64.1574
-117.751
-90.7116
-52.5381
-34.9607
24.5048
89.2451
101.356
102.997
34.7076
-25.5345
6.78933
-28.7144
-95.4953
-148.695
-70.6865
47.995
56.2367
-31.9144
6.16934
64.7614
146.74
124.519
39.0187
-104.769
-132.175
-46.6331
12.8234
-17.4245
2.47076
83.1096
42.6045
33.867
41.6671
7.40337
-31.5613
-22.8079
-10.4155
46.932
103.225
102.915
1.95688
-9.64083
68.2482
-9.70858
-193.941
-203.245
-128.988
-81.0523
-77.3764
-65.0468
30.5394
26.9783
89.0347
207.444
175.581
103.849
67.1448
19.5043
-38.4287
-96.1222
-146.886
-71.9966
48.9069
98.5227
98.3132
-6.1226
-101.573
-59.4066
6.83911
-1.68642
-84.7617
-28.7333
43.1496
21.136
-12.3826
-65.195
-108.978
-111.983
-70.2571
73.6333
112.003
83.4812
33.7179
6.25014
16.6138
45.7261
23.1372
61.2411
32.389
41.2847
91.4819
140.647
98.1755
-99.9358
-208.996
-31.6539
82.0482
57.2211
-60.5241
-141.754
-67.6423
-69.7744
-130.947
-66.4916
-15.6849
6.75874
52.2364
33.9904
51.8418
18.8309
-52.5343
-74.1927
17.6886
75.6982
90.6674
-7.0236
-71.3769
-13.3049
66.4967
29.5979
-15.8926
-39.5204
30.8392
94.6751
127.361
120.674
84.6758
60.7863
31.0727
-6.03745
46.2544
26.7634
-73.2809
-96.2986
-127.275
-177.897
-161.176
-180.173
-51.2873
63.9811
52.3467
26.0427
-24.7581
-67.0848
-0.822927
85.5643
40.6191
61.0433
59.6522
51.5735
-12.2241
-35.4892
-43.0099
-41.5945
1.2045
81.1709
105.153
109.912
28.0243
-15.2582
7.47804
77.4518
88.7999
64.382
-14.8795
-121.668
-128.256
-221.853
-226.123
-60.2003
34.5337
44.773
117.879
130.271
95.5709
0.766445
-89.6965
-63.0775
-21.6594
-24.1732
30.1913
17.6355
-59.938
-34.1092
22.6056
66.0387
72.1504
64.7544
156.853
126.048
76.2332
-14.0841
-106.967
-90.5404
-49.9458
-73.0603
-6.04668
24.496
-13.0533
12.5704
22.1485
-28.7778
-16.2257
37.8475
45.5635
-45.4501
11.1116
57.6808
-25.0837
-103.749
-142.923
-104.841
-73.9513
-12.3711
48.0276
70.9196
102.012
104
-4.91928
-99.122
-128.569
-75.9986
-18.7231
-32.598
-10.8767
51.4354
52.5775
32.29
-2.67643
27.6343
81.473
85.8371
27.8316
32.1938
89.8121
67.5184
17.3235
-28.0744
33.9265
75.7991
43.7395
43.1107
43.2928
12.3902
24.3858
42.4527
9.68946
-41.4021
-95.7621
-124.731
-160.316
-219.764
-211.255
-153.802
-85.5529
6.10513
23.749
48.2509
141.771
99.7903
47.9995
33.5424
41.4623
38.2643
-25.3753
-43.2991
-72.4119
25.8137
106.247
105.354
99.3708
126.298
122.553
69.7421
-26.2087
-42.8046
45.1858
28.5091
-87.4712
-131.172
-122.286
-61.768
-21.6974
-0.917667
-30.2278
-30.4144
-22.3793
-87.5086
-48.7468
0.0910688
67.3329
72.7471
68.7645
55.7907
90.2143
34.0703
-98.7546
-139.642
-165.367
-92.2568
-35.4097
-50.4251
45.8166
108.712
128.425
81.346
69.7419
94.2049
84.859
34.0752
-28.3932
23.7557
34.3374
-39.3331
-118.534
-203.666
-169.802
1.36618
111.234
192.931
191.219
97.3727
-35.6589
-32.8207
-19.5917
-52.5174
-78.7115
-61.5143
-7.9417
27.2803
-41.1723
-69.5643
-63.2228
-71.9716
-69.1535
52.8288
69.0136
36.1168
44.2099
28.1665
4.20912
25.4365
26.2272
-39.901
-72.6193
6.08669
107.44
63.9717
-33.7196
-136.587
-156.906
-170.189
-124.941
40.9395
169.687
203.227
201.591
106.51
23.7125
-14.9218
-12.7055
18.1962
31.6993
-20.6611
-65.3621
-76.4068
-64.61
-63.1551
-33.8842
11.5408
81.0979
119.219
124.805
41.9602
-31.3647
-23.457
-63.144
-109.603
-49.131
-8.29237
21.7918
38.4911
-31.8631
-93.491
-47.565
-24.7648
-26.7304
44.9654
44.9576
12.381
-52.129
-110.489
-126.602
-79.7305
37.9748
69.6377
52.281
145.138
147.754
85.7127
-16.1391
-106.914
-66.9965
106.106
114.502
18.2756
-34.8168
-137.201
-103.236
3.90141
36.2999
76.2165
112.294
60.985
11.3009
13.7946
-10.5686
-30.0908
-9.94261
28.7667
37.8404
-9.75297
-48.882
-107.378
-178.346
-238.597
-138.94
28.7509
111.178
50.9965
52.0968
64.3184
109.728
127.046
89.2946
14.8951
13.6597
38.1665
19.0883
-17.4641
4.40798
34.2349
-48.8306
-146.842
-117.725
38.3562
102.27
75.418
37.2878
59.731
22.5056
-95.6909
-190.303
-148.315
-109.849
-77.6199
6.3253
-6.14346
-56.4391
-4.80628
76.617
99.7036
127.572
98.0202
53.4291
51.8401
67.1204
75.7384
-2.1207
-52.7407
30.0844
136.539
81.7603
-81.0443
-152.418
-119.803
-100.768
-78.1524
-5.80452
-57.4412
-40.9256
-65.3268
-123.708
20.5202
190.16
181.786
61.3811
-36.685
-30.1238
59.7924
1.53504
-78.2466
34.0773
128.161
128.78
85.5486
14.9829
-68.8284
-95.4093
-83.2362
-114.842
-98.4599
14.0799
38.144
-45.024
-66.6114
-93.3684
-83.4559
-95.4125
-106.272
49.4702
131.535
97.3619
105.733
22.8994
-21.5893
39.2927
66.7186
50.1084
84.8611
62.8079
105.794
101.905
61.9908
71.7111
60.7756
37.5933
-52.5052
-89.1667
-99.7813
-143.266
-107.83
-107.874
-64.6506
-8.75375
-8.29278
-8.79616
5.67165
-89.9702
-81.5178
6.24621
16.4646
57.6287
82.959
71.8671
32.5929
21.6579
73.3207
67.2435
1.24793
-108.73
-101.492
-105.639
-204.318
-215.861
-63.8145
66.7836
92.2359
93.0056
94.7999
170.079
189.55
76.14
-3.28188
-28.9275
-38.9704
-19.7359
-9.81624
-16.4312
5.68055
40.5814
60.2277
74.468
99.8285
117.776
16.6832
-81.7458
-25.686
23.543
-7.15102
-77.0587
-83.3792
-54.6473
-80.0036
-92.7102
-31.8565
-79.0643
-72.156
-17.5881
40.9937
40.348
-32.5729
-52.3424
14.8332
15.6751
40.8347
24.0568
-9.06741
57.7134
32.1463
-54.2921
-13.6946
25.04
34.6534
28.9482
9.14096
-6.59154
-73.1825
-62.6581
-36.7468
34.9182
62.1746
37.3525
44.5051
126.856
106.134
57.9839
29.1295
40.6711
34.6059
-27.3528
-137.263
-148.769
-112.5
-53.9911
-31.2445
21.2382
150.449
153.223
97.2506
40.6793
-30.3661
-88.5462
-86.6025
-124.148
-157.723
-93.013
-74.6494
-62.2402
8.14693
73.657
122.395
164.189
124.007
44.6594
-22.6864
-69.486
-105.636
-51.5682
-5.68137
0.141837
-20.9927
20.6791
43.5027
58.5744
40.1685
-0.479475
19.275
-6.22052
-50.3819
0.696811
27.9002
10.3391
-24.5625
-15.5453
14.1185
58.8019
71.8031
26.3498
-30.1266
2.0107
57.5374
86.1733
30.5841
-33.1069
-22.1937
-5.57197
-31.2314
-44.1716
-15.8098
-69.483
-89.8701
-78.8036
-49.3334
-38.4405
-54.1137
-76.1549
-31.7416
-26.2599
-9.09521
-24.9286
-15.5826
9.5064
24.9118
39.4899
54.1628
40.0246
55.6385
78.3801
52.5321
50.3378
47.384
56.8326
61.2501
68.0404
68.825
59.1684
33.5499
15.5901
-48.7039
-21.2752
12.3853
28.1425
5.20889
-4.79783
-31.0922
-77.9958
-127.896
-125.984
-120.601
-81.2893
4.91598
-61.8058
-81.8818
-32.9154
3.05325
33.1568
45.9498
44.5847
46.7364
41.0606
17.2638
12.2541
31.488
28.7475
32.5999
75.4605
99.3436
37.2343
17.7179
-29.5734
-54.6827
-5.14371
-11.9052
-68.7426
-47.899
31.8633
79.4085
100.968
93.1322
-28.5344
-48.488
-77.5758
-137.327
-86.9958
41.4525
2.07134
-146.54
-198.87
-75.1082
46.2684
-35.9547
-80.631
86.2846
125.236
92.1078
68.8773
27.224
45.2416
130.966
91.3131
17.3064
109.36
262.687
142.8
-75.3277
-127.703
-77.9377
-21.741
-93.8353
-135.239
-36.779
84.2424
54.2851
68.7043
51.3942
16.6338
-131.587
-306.742
-297.829
-200.358
-38.4887
-49.0313
-107.634
-46.3251
68.9323
110.721
110.298
235.519
249.579
177.082
120.33
89.6717
19.5286
-69.515
-171.607
-272.955
-98.2944
99.8024
101.961
174.335
140.557
51.7052
96.8834
6.2784
-114.597
84.8332
121.581
-26.2344
-31.4553
-59.0147
-168.082
-293.172
-317.524
-157.196
77.3858
251.44
208.231
35.3409
-42.6832
-79.2161
-117.802
-106.958
-195.882
-67.9442
112.238
66.2892
92.7742
16.7834
-39.2797
90.1183
149.007
141.453
130.662
84.6675
-0.579357
-82.9987
-83.4802
19.3609
44.7003
-1.5574
2.84679
43.8323
58.7558
53.1064
3.29561
-83.6023
-109.224
-33.7592
-84.1197
-122.224
-64.7182
13.3689
17.7383
-17.5322
26.0688
57.2406
41.013
1.28776
-52.3742
-5.3841
6.9727
-49.4026
-12.8588
15.6744
-47.8416
-67.7451
11.0587
83.7143
165.046
100.451
33.3584
48.4844
46.706
12.0495
-58.0539
-81.7014
-108.269
-51.0425
19.5598
-64.6884
-69.0567
-64.2217
-100.256
-94.9431
-62.246
-8.51633
77.406
205.079
379.526
375.128
203.82
25.7108
-85.9041
-150.828
-186.259
-164.344
-106.986
-73.8357
2.79091
33.2158
-43.6531
-95.3917
-110.044
-112.83
-156.273
-30.798
100.116
63.3952
26.4579
3.95252
-5.71366
3.01161
-29.417
-77.7255
-8.60101
64.5086
129.68
120.966
86.4702
106.579
112.793
58.6449
12.8892
83.9255
173.489
97.493
-45.0374
-142.017
-245.727
-165.208
-60.5675
-52.9417
33.6642
170.338
171.914
84.3442
-9.78759
-68.2242
-102.146
-97.3875
-60.8323
43.9015
90.6083
7.52116
-45.1443
-127.862
-164.018
-145.985
-175.796
-176.003
-73.9674
61.2689
105.485
30.3458
11.1979
40.6029
70.293
137.203
103.03
78.1711
153.618
183.783
61.2296
-40.7559
-21.1821
-23.0532
-30.8433
-19.8954
-5.25601
-20.9528
-15.7742
-37.7669
3.76124
119.112
135.67
82.4854
4.9084
-81.0413
-104.706
-97.8343
-111.244
-158.531
-136.785
-60.3062
43.4738
116.187
75.4468
4.45394
11.662
89.1578
64.1704
7.05387
-38.5818
-93.0098
-104.224
-80.1793
31.8218
87.3923
137.12
89.743
-23.3195
-62.6606
-54.0552
-72.4125
-137.947
-100.59
-27.1376
-36.7021
-31.8405
-12.2547
39.9451
115.398
167.387
135.609
85.7803
116.976
28.5797
-61.5276
-84.6335
-41.4616
33.5963
101.131
169.055
122.844
38.2177
-57.4509
-122.433
-86.2711
-146.166
-201.524
-89.6539
-31.9255
-22.5537
-4.8928
0.177929
-37.6056
-36.6102
-17.5573
36.2972
96.7281
84.4377
39.4351
35.641
91.0878
153.951
131.552
41.1458
5.29009
-6.9682
-86.9952
-133.151
-115.394
-87.2169
-32.0263
-30.6572
-39.6526
-21.1675
43.2153
-24.5355
-137.331
-182.765
-91.4555
-1.98935
2.60041
13.5727
109.135
245.403
240.858
101.831
48.5453
65.0513
71.6538
61.5173
-13.6839
-97.3476
-129.333
-170.476
-209.675
-116.023
121.598
241.657
240.449
132.06
36.2554
-13.8285
-103.088
-172.19
-173.3
-65.7389
84.1775
57.8569
19.7997
-24.7087
-21.6066
2.48831
-18.9927
4.89444
72.8617
5.24694
-108.489
-167.364
-187.038
-140.991
-24.9905
45.0307
66.8773
82.748
30.3824
43.6031
-9.02057
-27.5983
-0.667645
36.32
60.45
86.4372
92.6992
93.7591
117.496
82.8541
34.4509
45.6413
20.1851
-28.4069
-50.9299
-82.9919
-128.624
-105.172
-1.29988
100.564
136.652
109.127
63.6006
85.7353
80.33
28.1719
-68.7496
-141.011
-189.83
-159.901
-127.258
-82.4874
-48.1318
-3.685
-7.46266
-30.7158
-30.0131
-84.8293
-93.9143
-4.87993
21.7425
-17.6035
-23.6602
-4.19877
59.1367
138.531
185.188
153.545
94.2923
97.1816
-26.037
-145.263
-142.117
-140.524
-70.2264
61.7123
164.82
211.616
189.341
160.036
27.6822
-56.0104
-122.197
-151.35
-106.402
-14.194
-12.177
3.17384
57.3709
110.609
148.196
93.236
7.67918
38.9864
-4.70681
-94.2504
-116.82
-109.033
-90.6684
-184.169
-198.713
-87.1278
-6.35215
-7.29767
-103.939
-117.52
42.1938
61.525
-37.6429
-74.0953
17.7474
132.316
219.761
215.993
192.564
164.97
68.8343
-25.1135
-10.4416
-15.8883
5.53336
-0.827745
-32.0081
-54.825
-27.1188
-80.0839
-128.193
-70.3098
9.31617
-13.5002
-21.3443
0.241717
-9.69473
-35.7845
-58.3783
-83.9815
-25.9097
52.7359
41.0933
33.5491
62.5263
98.0634
91.7179
29.4042
30.61
42.7011
-26.4743
-61.1893
-27.9062
2.1904
35.5265
-12.2288
-12.1711
4.24158
10.8133
2.09477
-66.1125
-99.7443
-52.7466
-11.7094
25.3543
9.94677
51.1284
56.8078
73.1128
69.5208
44.9117
25.3314
-32.4454
-69.4371
-135.49
-211.56
-84.523
53.7867
42.0193
38.5898
48.8866
46.958
42.4036
25.4735
53.4057
4.54028
-73.6359
-133.114
-174.391
-156.092
-91.2169
65.2831
225.34
239.779
275.32
313.858
98.6939
38.8709
76.5635
-69.0843
-136.495
-134.61
-190.405
-283.824
-256.244
-106.108
73.0418
140.58
121.171
88.2516
75.4525
21.5261
-58.2366
-94.2366
-181.288
-153.268
17.0846
-0.269652
-23.7439
101.586
150.946
47.6116
-2.58333
56.0662
11.7108
-2.97152
16.9769
94.5111
100.24
64.2721
45.4396
-3.74093
-53.8189
-30.8635
2.63809
4.14843
-77.9217
-165.017
-253.506
-215.191
-163.885
-84.2676
222.417
325.643
304.056
195.09
88.7032
38.0405
-7.92661
-8.86399
-16.6658
-25.3987
-23.6357
-73.7967
-103.547
-89.4012
-136.885
-58.9309
53.9991
109.169
136.138
138.946
-17.8125
-110.177
-152.289
-117.178
-127.447
-153.953
-169.423
-125.978
-27.5657
54.4902
73.9062
105.664
141.474
278.812
283.576
121.564
4.56012
-73.6457
-181.012
-223.711
-222.068
-87.0566
139.712
110.346
122.126
158.019
146.023
86.9483
36.949
-35.3456
-59.8853
-92.397
-94.9147
-146.801
-104.693
-31.1612
26.3207
73.4243
138.647
213.095
128.806
11.4732
-59.565
-59.1523
-86.8443
-119.554
-136.371
-58.8971
-3.07024
51.1537
33.542
8.91863
-26.2519
-97.8331
-102.607
-26.6002
38.3111
33.5936
29.1738
37.3332
22.936
-6.4962
-52.1028
-61.0003
-98.1166
-19.308
55.3416
116.529
47.4104
-52.9029
-44.6408
25.2984
55.9356
136.486
185.368
228.115
155.162
24.61
-38.6134
-93.0136
-129.486
-165.598
-160.466
-91.0761
-3.80247
7.47416
40.0279
8.48455
12.9104
51.4949
30.7739
-23.512
-109.598
-82.3893
-33.8042
-103.439
-59.5059
44.046
33.6838
36.1917
73.1012
57.5002
45.9295
46.461
30.2133
66.4376
126.578
114.484
112.733
71.1341
-46.626
-112.88
-63.2945
-96.1233
-113.405
-45.8236
-45.6939
-112.176
-35.901
-24.128
-84.3221
-70.2925
-45.3457
-44.3169
156.739
214.37
52.9194
-59.2734
-46.9721
38.0829
96.565
62.7129
96.3019
140.781
48.0404
-89.1379
-129.157
-94.5184
-125.108
-101.514
-0.854745
49.3389
38.7639
50.1614
7.36446
-28.031
-2.95914
84.4854
87.2612
-17.0301
-68.3934
-79.1074
-114.464
-114.833
-67.9592
-37.5484
76.7999
183.06
174.671
120.129
63.4266
18.0669
-57.1125
-35.2368
-51.1323
-63.0778
51.2206
-20.9023
-110.421
-80.0963
-11.2019
81.5978
98.1236
21.2304
34.5147
93.5863
66.7302
-4.07979
-10.8582
5.73879
44.7577
37.7065
50.4627
12.0674
-74.6656
-129.818
-193.072
-303.579
-245.084
-131.096
14.7935
90.4845
115.069
91.2029
33.6724
-23.8828
-68.382
-84.2032
12.476
51.6896
85.1741
175.165
159.602
85.0325
68.3182
51.4772
15.5983
110.301
136.403
77.16
21.9111
8.24836
-31.9281
-87.2737
-90.0485
-84.9243
-33.6008
59.9763
32.2429
-39.8986
-102.659
-129.252
-118.549
-97.4746
-101.847
-45.2712
-26.283
-51.9074
-56.0167
-20.361
-9.01033
25.7942
90.4103
229.04
343.596
227.234
-6.46812
-139.612
-179.288
-170.832
-90.3368
34.6036
74.9067
87.5603
110.473
53.7483
20.4926
29.9496
34.9966
2.03039
-77.2227
-208.734
-203.517
-123.884
-124.293
-81.2652
-19.2646
51.0953
151.016
204.554
177.44
70.0474
27.24
2.13256
-69.2381
-84.7523
-33.6651
3.3336
18.0104
34.736
29.4709
61.0646
46.1189
-69.4619
-94.0383
-15.7331
29.1321
-29.6614
-45.7494
37.3861
55.3739
-0.137212
-21.0757
56.761
88.8585
59.9464
49.5989
69.6681
37.7811
-19.8571
-25.7781
-45.8777
-55.2186
-29.6254
-105.54
-132.502
-71.1041
-3.98247
-4.97979
-26.7018
-18.9548
-36.7322
-67.5251
-86.3842
-39.7201
88.9467
130.52
87.7282
8.02489
-42.2065
10.7734
100.542
73.708
7.90908
-11.994
13.8781
26.0193
-38.08
-41.68
8.61515
-20.255
1.36448
30.7465
42.7833
11.1372
-61.5669
-55.3174
-0.519614
8.8985
19.2895
39.3238
47.0517
-1.63326
-36.6569
12.5296
84.3255
28.7847
-4.6941
-4.289
-33.6434
-44.0463
-89.0242
-84.1084
-81.4824
-87.146
37.5028
94.7631
131.418
98.781
49.8206
12.2126
-30.3262
-47.9923
-54.9996
-11.6314
10.3641
-12.7463
-26.7961
1.37384
32.9967
20.5645
-9.99244
-4.93001
30.8738
-10.0735
-1.56091
7.48188
-60.4994
-70.5245
-19.5299
19.2681
47.3628
58.8372
42.5251
-27.533
-69.1677
-92.7603
-115.914
-75.0546
22.92
44.1709
0.580755
8.97133
75.1946
105.072
19.9787
-23.7317
-28.6913
-37.4076
14.3526
55.7524
67.6795
81.5783
72.4026
104.113
94.7931
79.0169
54.981
9.09959
-63.4891
-74.7898
-67.0957
-51.0311
-83.2552
-122.229
-77.4841
-42.1098
-16.5342
13.2628
7.1516
3.575
-24.2273
0.721073
37.9898
-14.679
-45.4171
-69.8133
-44.5604
-28.1945
-64.114
-82.9039
-21.29
60.9898
24.2722
-5.23456
29.3416
81.5365
92.7351
41.8909
3.35857
126.505
186.11
94.4555
-9.72095
-9.60839
-9.51077
3.54388
-5.17312
-31.2194
-27.0746
-41.3756
-76.6332
-69.2229
-21.9529
24.5107
-9.4485
-23.758
-15.7513
-1.44556
22.6701
-12.0618
1.99165
10.0596
-19.9258
-15.2598
31.8735
-32.2523
-38.0084
-55.6213
-68.0838
-20.2002
47.1379
67.3857
18.6292
22.4075
41.1957
28.4884
37.8212
55.1904
36.3219
-34.4029
-65.5963
-20.6879
9.33261
19.2666
-42.927
-44.4192
-46.6605
-4.79245
52.4308
43.2175
34.0706
14.6396
-7.29811
-42.5474
-56.3552
-78.2092
-58.4678
41.3073
66.1986
63.6619
27.0361
-42.4065
-39.1701
3.61832
-5.85159
24.8365
72.7977
39.6868
5.76946
1.1273
-16.4219
-47.0639
-45.7609
-32.6859
29.3017
79.7158
56.554
-23.5916
-71.1582
-47.7656
-45.1311
-55.2566
-2.53846
57.7672
100.941
104.689
54.1377
6.02807
-69.3731
-70.3673
-12.2723
20.3353
26.3575
25.4565
44.2041
45.8252
-15.1435
-129.41
-195.851
-118.549
-38.3367
33.4757
37.9143
-7.8212
14.0862
54.3797
24.9055
66.643
107.803
114.115
80.3616
37.6531
-34.0354
-75.4418
-56.8371
-28.4544
-18.8509
7.94335
66.4006
-19.1236
-73.3993
-76.7598
-58.444
-37.7692
16.1775
65.1267
72.0761
62.2916
40.6398
5.54772
-20.0613
-19.6889
2.12948
42.4649
-25.3561
-85.6699
-63.0665
-31.8868
-26.068
-44.5832
-31.989
33.5103
85.0118
22.1209
-20.0415
-38.1733
-30.622
8.56616
48.3932
16.4425
39.0278
72.5409
51.049
15.8903
3.05927
-19.4745
-2.87731
6.85617
-5.03513
-7.74305
44.7867
10.3599
-70.9663
-101.14
-86.3823
-94.9489
-10.7436
16.6656
20.8398
58.1933
52.0621
0.707723
-7.25756
-32.2139
1.17086
64.0037
73.4516
113.908
122.51
61.7395
-32.231
-57.3953
-59.3357
-31.4797
-70.2752
-75.4179
-44.2027
-15.7089
-23.3322
-17.5753
-51.2258
-16.2799
36.2227
51.175
43.0922
37.8272
34.4783
1.32367
-22.6669
34.5705
8.94066
-49.1123
-37.3713
4.0739
-9.97868
-22.4474
20.1786
94.9981
66.58
63.6577
50.3436
-69.9504
-98.3475
-112.005
-73.2979
42.4913
33.8407
1.3958
-8.92158
-9.47472
16.1885
8.60447
-21.4989
20.3728
77.9703
53.6032
-5.49924
-58.6924
-64.9732
-65.2157
-49.4373
-14.5511
25.3331
100.972
19.4071
-81.7897
-52.6475
-2.53924
12.7708
-1.76708
-3.3069
36.6776
109.718
119.314
35.3054
-6.48027
-37.1072
-46.6996
-15.2354
-4.03896
-13.5647
51.1133
59.4446
0.624331
-17.6597
-62.4069
-75.7872
-85.6057
-102.306
-42.4548
29.1314
82.669
68.8251
-10.6911
3.46092
56.2512
56.7366
70.0537
32.5279
3.18976
14.5094
4.6363
-36.8083
-29.5251
-31.7197
-12.1489
51.7134
49.9366
66.89
37.426
28.2177
-13.0542
-46.2351
-70.1193
-88.3484
-66.7959
-89.0241
-138.286
-105.773
-62.3331
-59.3778
-56.7284
13.2007
111.425
117.982
109.675
50.4624
-17.1447
-22.9736
-24.5386
-4.88457
59.6455
31.2762
25.1267
60.9652
77.974
102.77
85.4093
24.7796
-6.48317
22.8413
-14.1722
-18.0007
-38.699
-31.6385
-26.0331
-45.3487
-43.8821
-39.8424
-21.0468
-62.8651
-100.278
-86.6611
-22.0185
57.2726
37.2943
-11.8068
2.97321
30.8469
78.5474
20.7773
-26.1597
-42.2599
-51.9158
-28.4215
-41.9419
-3.69875
92.8597
100.707
73.5431
63.3813
70.3473
66.4064
-8.03482
-46.4219
-13.2486
17.2935
13.6788
13.408
-39.5533
-63.6728
-68.2958
-54.2809
-25.0952
-7.07157
13.8391
1.75854
-28.2853
-47.756
-97.7055
-61.097
11.0198
63.8833
79.7654
44.1538
-0.124643
-31.8189
-60.1577
-23.5164
-26.4301
7.67535
123.065
175.788
76.7506
-22.2525
-74.0548
-62.0538
-36.4309
11.6053
46.1151
34.76
-27.9445
-52.1224
-9.55065
34.8356
44.6672
20.6735
-25.3572
-51.1628
-44.351
-24.0689
-17.1174
-22.5806
-17.7862
21.4708
50.8591
11.0485
-12.8052
-93.7463
-123.492
-32.0923
42.3761
40.2931
3.53763
21.2308
55.2535
73.9969
119.208
115.387
86.3381
72.524
23.2711
-42.7617
-40.5662
-40.2836
-32.1701
-46.1867
-70.5448
-45.1056
3.99418
-23.3133
2.37264
14.3018
1.44897
-35.3203
-70.7507
-65.7631
-68.7118
-48.3853
-38.646
-1.03104
45.5725
77.0238
68.9524
54.9972
41.6836
45.631
73.4779
48.712
21.8197
-10.7948
-94.1431
-56.8012
-26.765
-56.3551
-62.1088
-38.8532
27.0898
61.6162
37.4882
-1.5945
-3.25252
-23.9185
-58.1576
-64.4646
-53.6113
-55.1203
-42.1137
59.4186
103.804
71.5516
43.7098
14.5828
51.6627
46.8437
26.2985
26.5428
11.7941
-19.4932
-1.76885
-8.06979
-12.0021
-32.8261
-7.04286
23.6745
42.4355
71.2162
80.4891
70.4768
9.13114
-19.1578
-65.3435
-121.012
-110.099
-69.4512
-33.1097
-9.0374
-54.9674
-109.829
-44.5976
-17.3033
-39.5419
27.9261
83.063
109.653
88.6541
39.091
-52.7439
-76.6704
-67.8659
-10.244
43.7918
75.4561
48.8989
42.0502
24.7842
38.2058
61.0848
93.151
74.5796
21.8978
-42.3526
-93.7457
-128.622
-79.9729
-36.9426
-0.0822171
56.4531
51.8601
57.8139
43.7594
-27.2377
-102.134
-68.0262
-51.9256
-37.7844
-34.4613
3.41986
13.0039
-14.0068
-43.8643
-77.3154
33.3642
125.966
47.1721
31.9746
46.0095
24.4228
1.52855
-13.4401
-40.824
46.3843
100.345
17.7502
-34.8365
-18.9998
3.13766
-15.2513
-52.8347
-17.1691
42.2801
112.604
59.0598
-22.7284
-24.2302
-41.4695
-88.2512
-63.7646
-41.8487
-18.6039
-11.269
-3.4301
24.7244
50.5859
67.1753
80.0546
50.5824
3.25202
-1.70304
-23.1256
-22.2638
-21.2434
-57.6443
-68.1098
-64.209
-32.5183
-29.7371
-26.4955
-24.4899
-19.0554
-4.06678
18.9392
5.81558
-57.3638
-12.1491
27.5571
13.7024
16.54
47.4766
55.7503
75.004
14.144
-48.0881
40.052
80.4553
72.0138
91.3644
61.8906
19.108
-64.393
-126.064
-79.41
-36.4344
44.0806
78.0061
73.9973
59.7936
24.3902
38.7609
26.0837
-15.6596
-49.7319
-54.3234
-75.4732
-56.0796
-70.1634
-39.0649
-1.63697
18.0088
23.5548
-20.8706
-106.227
-86.0826
-70.4889
-150.435
-139.799
-59.1425
27.1179
63.6411
55.6064
46.0549
88.2674
104.706
70.5037
57.413
124.976
156.14
112.493
-22.4265
-7.11033
77.7978
24.9689
0.906223
51.1519
59.7024
33.4663
-27.0958
-98.6122
-171.556
-189.051
-187.495
-85.3424
57.6545
59.2637
8.66399
-37.587
-56.4128
-48.6965
28.1326
31.7697
32.0203
74.7329
27.4298
-17.3842
12.6806
16.3878
15.2889
-27.3641
3.22071
56.1664
61.4639
26.8654
-11.1174
-1.55282
21.9028
-14.0081
-48.7299
11.3057
41.5568
35.8134
6.125
-27.129
-21.3237
-24.0374
-19.8577
-38.9638
3.01437
42.1598
42.2981
24.2308
28.381
31.2349
-44.8296
-76.9439
-40.4841
-32.2011
-30.7114
-38.4726
-12.3861
-10.9654
-21.8216
37.6061
41.0791
13.3278
2.3866
-4.81247
-7.35482
10.5996
-31.6038
-14.5801
-3.08649
5.72678
11.4093
-9.84938
-36.1076
-43.2342
-26.9036
28.8481
58.2548
47.5083
46.3271
48.8322
83.4596
84.3602
40.7889
14.0078
12.9194
28.7522
32.4111
-20.0452
-20.8859
-23.2411
-35.43
-34.512
-59.8899
-24.1081
-5.28929
-81.4266
-74.1874
-23.5694
3.12678
12.1848
6.38602
-34.2729
-45.4819
4.83649
-61.2751
-54.8669
-19.6006
-0.506923
32.8857
9.11006
-2.16989
54.5083
60.3211
49.4768
54.838
76.7746
82.4354
60.6803
-4.63762
-48.3665
-75.4634
-41.0769
6.24081
6.86119
39.9112
39.854
-7.92992
4.46913
-48.4189
-104.363
-103.289
-57.7344
-61.5993
-95.8415
-23.1306
110.045
109.498
69.0015
88.8802
73.578
27.8873
3.77838
-1.2436
-18.5735
31.3569
32.8205
2.39699
-39.2692
36.8522
106.183
70.9246
27.0663
39.37
-18.3876
-160.038
-253.614
-184.068
-89.605
-65.3069
-4.51264
58.1849
70.5601
49.0562
13.4477
-39.8766
-11.3886
92.8375
163.522
104.922
53.6692
44.3116
8.28852
-8.32066
-24.9022
-20.7707
-61.8247
-81.8127
-55.7184
-55.6625
-94.5064
-52.3194
23.7089
52.0818
24.5755
21.884
32.5118
17.6691
-9.20486
-10.4392
-28.6596
-47.7526
-68.9911
-16.9935
71.7718
112.02
100.272
71.8177
72.6024
109.261
90.5516
-10.4681
-121.66
-110.193
-64.3755
-61.0016
-61.1772
-35.4821
-14.2963
1.05449
5.86036
57.1773
48.4358
9.65075
-23.9321
-37.0626
-33.0036
-77.0389
-66.3844
14.0882
17.6105
37.373
56.6899
30.8459
11.4626
-1.63035
12.3707
49.1526
36.354
35.1062
28.2395
-5.89059
3.53362
-0.371037
-4.00797
0.05251
-42.5127
-65.8131
-38.4141
-39.9015
-23.4685
1.62586
14.5998
2.28273
-13.0126
18.1534
-25.4616
-53.8147
-39.4997
16.6072
82.2566
76.8803
25.6119
17.8419
29.5794
2.70558
12.9764
72.4628
44.4004
-27.5745
-53.1113
-51.4873
32.1019
78.929
60.0191
-12.6981
-44.8755
-77.1853
-63.7801
-48.9176
-33.6819
-18.1003
-20.2724
-101.668
-148.142
-25.0987
55.6777
30.3022
18.2164
24.7416
13.8273
23.0446
-3.10155
-2.81276
37.2595
5.64554
-17.7335
81.1876
67.8441
16.0465
-5.9076
18.7958
82.6684
121.378
123.506
63.2829
27.4886
6.49984
-32.1744
-56.505
-58.9216
-87.9486
-129.856
-102.477
-10.346
21.1891
41.1985
19.2577
22.7982
-10.2093
-60.534
-47.7516
-16.243
-15.7447
-16.1894
-33.385
-52.9667
-55.238
-21.6048
43.0923
61.3246
50.3535
27.6667
-6.42311
-21.335
33.2024
46.2652
60.7504
42.1472
12.9508
28.1921
16.2832
-11.5075
15.5624
32.3501
-51.3292
-28.9703
-49.0574
-152.874
-134.836
-22.5607
52.6404
76.898
74.1778
28.6775
21.8758
75.3968
19.8293
-2.19663
4.39239
-19.4105
-63.4282
-64.5486
-23.4207
10.0203
112.084
99.8765
68.6426
87.2729
44.039
-4.72494
-36.2906
-77.9703
-63.7094
-34.7661
-42.593
-79.8486
-82.3164
-59.162
-34.5778
-27.3733
24.4327
45.4319
29.6267
14.6407
-28.2704
-30.4355
5.61206
9.38203
27.3551
51.8807
55.1964
84.567
70.7882
17.9241
-5.60666
-26.11
-72.5375
-57.6678
-8.19957
60.4019
21.0057
-43.9263
-52.8619
-35.7641
-16.7949
-47.3765
-23.6884
51.2187
40.076
10.4409
37.245
49.8669
20.0185
-16.8034
-31.3315
4.41998
18.2932
3.50637
6.43667
23.3474
40.1047
25.1218
-2.16021
4.83124
-28.764
-34.0571
-28.9406
-18.6684
-28.3489
-64.3558
-71.0023
-20.3331
-3.83771
28.1492
49.5074
39.2506
40.9605
15.9441
-13.9759
-2.71355
1.82179
31.7691
56.0621
35.3883
37.9595
43.1982
10.2394
-38.1163
-23.3047
-2.40701
-79.2443
-166.741
-180.984
-81.1583
-46.3448
-59.6714
26.3018
79.9765
136.913
60.9527
60.1254
111.445
79.9607
18.3795
22.1016
28.0424
34.7935
33.9429
12.1967
24.2007
47.7684
11.6915
-9.05975
-58.4062
-33.6197
22.7145
-19.7611
-55.9799
-87.8838
-62.8886
-58.2858
-100.564
-68.5349
-25.9808
-40.003
-31.587
-2.6367
25.289
23.8062
-27.3651
-26.3566
45.644
81.0094
108.828
102.154
65.6323
46.1116
52.602
-25.6831
-80.231
-44.7396
-9.15634
-18.9499
-1.05461
21.0963
17.5749
23.9587
28.1492
61.3417
35.2702
12.6204
-3.2799
-18.6823
-52.3376
-73.6603
-91.4206
-48.6628
-34.0156
5.36813
39.9571
23.9956
7.86705
-9.83996
-58.3731
-29.1712
25.7513
41.131
20.7722
-18.1289
-7.96161
11.4926
21.1615
12.148
12.4194
45.7021
58.4936
31.8473
10.5145
0.443163
-14.6303
-50.7993
-91.8257
-22.5939
37.5018
16.4149
5.31851
-11.5267
-17.1677
-38.5081
-26.1769
-31.9372
-9.0688
50.3199
27.9087
20.8269
45.4749
43.6236
38.5612
-21.7103
-49.4981
28.0673
60.4198
25.7955
18.6594
-7.51435
-53.7204
-92.026
-68.8999
-6.60771
10.9634
24.5048
16.365
-3.37325
-2.62531
-38.0351
-63.1128
-17.1432
-10.6269
40.3701
75.8701
37.8448
21.5357
-17.8084
-7.01945
2.24327
-15.41
-21.9844
-33.6219
-34.5227
-16.454
-1.38139
7.5722
87.7852
95.4404
64.9509
29.1931
-22.8049
-7.96183
-11.599
-35.4532
-63.6832
-24.8294
38.4443
-10.4042
-22.2065
-14.1445
-20.188
-38.3293
-57.318
-46.5785
57.1701
119.574
54.8987
21.0622
12.9572
13.3601
-38.7029
-71.533
-43.221
39.0366
36.6165
-1.11476
-16.7213
12.8831
27.3306
30.512
42.8223
63.259
39.8475
-6.03023
-79.5635
-114.918
-141.335
-145.099
-66.1794
-23.0267
7.8282
28.6816
21.1283
23.7327
38.6453
9.26631
27.4336
95.6154
107.242
84.5662
61.026
34.602
-3.02788
-16.418
-38.8864
-48.5942
-3.97273
33.1691
-6.70719
-12.9153
11.0723
19.2124
18.5009
-28.2768
-11.2189
39.0974
27.162
22.3456
-33.2261
-69.1414
-55.7771
-34.5521
2.21475
37.9586
7.56409
5.93752
7.12976
12.4378
-25.7253
-139.215
-151.723
-74.5044
-75.5226
-104.069
-41.9281
21.8179
44.4015
33.234
134.992
155.315
123.146
107.776
80.0673
41.9705
33.2448
-32.4324
-108.825
-44.6876
41.5441
121.951
109.071
51.8213
43.9272
56.5415
-10.131
-103.542
-116.869
-100.607
-113.164
-100.857
-43.4334
-0.877139
15.24
-33.0538
-91.4663
-54.1568
50.7828
0.418427
-2.31422
62.0729
87.512
79.8718
50.072
37.1822
36.0209
0.76528
-50.1356
-93.9998
-79.8742
-34.7065
-39.1174
-31.7754
17.5731
58.2776
93.5343
50.422
17.0568
9.29831
-26.6962
-25.1319
10.5253
-1.99911
8.89509
32.1741
17.0742
29.4454
41.9034
14.058
-39.0401
15.4257
29.31
-7.06404
-55.039
-60.8098
-22.9861
12.2395
-15.3728
-37.2593
1.84179
-9.07202
-36.9945
-35.7819
-5.11444
7.41998
-10.8515
-9.95276
50.323
54.57
39.6142
-3.79779
-5.42368
1.33934
-21.0139
-30.9502
25.409
31.5719
18.373
17.4533
7.47799
15.6888
-16.076
-59.2721
-3.23105
61.4888
46.581
19.9886
-38.2098
-15.5838
-4.15633
-43.3454
-66.8993
-70.647
5.74593
21.3204
-23.4499
-19.6032
19.0604
30.2392
25.5083
2.18743
10.4446
91.3831
63.8847
15.1753
25.4363
41.3832
10.7111
-8.45075
-34.2857
-13.7975
22.3612
-25.8388
-98.4663
-57.9818
-6.33966
9.50982
-24.0344
10.5984
21.4247
29.4055
25.7486
-7.69948
-35.1686
-59.0988
-74.5863
-20.8054
17.1632
24.9964
26.8245
12.9554
-8.08958
2.62685
-7.77649
49.3157
47.8024
19.2347
6.1312
-9.78128
-17.5122
-8.56366
-0.435445
0.923253
-4.76425
-4.94732
35.3063
36.7968
4.71711
-29.7973
-48.0241
-56.3143
-39.0293
3.52756
29.2317
-4.60406
1.68292
26.1616
30.0222
16.4355
26.2507
87.5215
91.9068
29.5591
-17.3239
-42.7742
-54.5686
-81.4745
-89.2003
-49.4973
17.2392
25.0115
48.3484
64.6738
40.4711
-11.1901
-78.6334
-101.917
-27.3854
39.2574
25.9745
-39.839
-34.071
7.90651
-11.0723
-33.341
-24.183
17.0597
50.1041
65.5031
58.7477
33.9758
42.5831
17.8379
-16.2881
-27.4619
25.6936
60.9383
13.7446
-34.1116
-8.17756
-8.20641
-63.8597
-92.1398
-17.233
43.4479
16.2285
12.0719
10.3874
-14.1046
-22.7288
-15.1453
-21.581
30.9962
43.4144
13.2835
-20.5182
-42.2048
12.0058
42.2342
35.4748
49.0948
65.1783
65.7602
23.5006
-0.882193
2.70488
-59.559
-39.8077
18.7753
-0.357497
-41.5964
-100.436
-127.357
-112.35
-106.13
-34.989
47.5643
45.7708
13.0286
38.51
51.1835
11.7979
-28.7229
-38.515
-18.6162
67.4138
109.995
86.6871
41.5426
21.9215
17.0674
16.4564
-27.1736
-28.7779
22.3636
9.67354
36.7545
61.2847
6.06577
-84.2212
-113.202
-128.842
-120.475
23.5523
69.9793
56.9999
73.4499
27.9242
-20.2784
0.696718
19.8843
13.6565
49.5316
60.9443
50.7011
31.8842
-16.3167
-63.0723
-66.3366
-53.0433
-30.8259
-16.096
23.8346
-40.515
-67.8714
-55.2224
-59.4681
-11.2679
97.5604
67.7968
67.1209
75.535
40.6869
27.8198
17.0361
-36.7908
-64.2405
-54.7958
-60.958
-46.4272
-8.83865
42.6507
52.4929
20.5224
-15.386
-51.5057
-18.1229
16.3468
-15.1994
-3.65808
27.7545
5.75969
-7.15183
-6.56854
11.2192
69.4675
46.7732
-40.9936
-29.9179
-33.4618
-43.7671
22.4465
14.5007
-5.66081
4.95259
29.6703
27.7285
-28.7589
-13.2697
24.8091
18.2137
36.831
42.185
42.889
38.41
-11.2476
12.5274
46.7439
15.0517
-4.11048
-34.2407
-23.1265
-3.17211
14.7523
11.1467
-25.5809
-14.2533
-19.019
-63.5581
-81.5713
-87.5346
-85.2208
-83.3402
-81.9081
-73.5148
40.9607
62.8221
39.2852
12.1823
5.71954
32.3013
20.3474
23.4729
-0.320505
64.0642
88.8226
46.6356
33.2131
2.82031
-10.8467
-25.4722
-43.6616
20.5475
42.3795
-1.61104
-53.1414
-70.0484
-32.0036
26.6898
27.5581
41.1445
75.9337
82.0524
61.4768
15.71
-18.0306
-35.8623
-62.9792
-25.5639
10.1701
-9.82607
10.2748
12.4213
21.0945
31.6934
-1.49985
-9.59571
41.9393
45.3962
37.3282
-4.48627
-53.2014
-50.118
-14.1237
-38.4895
-45.8077
-11.661
5.50291
-20.0416
-41.2945
-0.941878
9.28104
-55.1704
-71.789
5.46906
14.6444
7.20343
-18.1939
-3.97002
17.8539
3.26967
-43.5783
-36.7044
14.0408
2.6281
-18.3507
-54.7064
-42.0991
-24.9207
1.14296
2.30099
13.9399
59.6702
79.2163
63.296
39.0814
11.4862
-19.8718
-22.1114
-16.7763
22.0752
50.5152
51.1338
-3.05622
-33.9053
-41.1999
24.3705
83.5769
87.6455
125.834
110.588
82.5288
47.642
14.658
-11.3116
-47.5097
-73.4564
-7.39885
-10.1687
-19.614
-19.9682
-11.9152
-22.6181
-47.6598
-35.6453
34.5916
-5.01106
-51.7854
-82.2268
-118.156
-108.122
-122.798
-127.497
-60.4816
-59.4815
-25.9118
19.5062
-18.9045
-10.6964
-9.11824
-3.49697
79.8878
78.8589
87.435
76.911
19.6463
-18.5655
-40.5133
-2.38062
53.1619
52.0784
77.5826
86.0354
59.9605
50.4651
21.2033
-6.4886
-2.78806
39.5192
51.4322
20.644
-42.5922
-24.4332
-21.6711
-12.1007
6.31561
21.9795
76.1568
48.1561
-52.092
-102.416
-65.8254
-31.18
-47.9693
-55.1354
-32.9525
34.5833
80.439
54.4363
44.5904
19.5758
-3.59793
-22.519
-36.5089
40.3674
39.4197
-2.29448
-34.3403
-40.6247
-21.7942
-11.019
-49.5262
-11.1639
-0.722895
-29.149
-39.8187
-49.9085
-52.01
-37.5679
-44.4514
19.433
33.3253
25.1494
43.5075
8.75034
-40.371
-16.3554
8.56395
-13.9495
-9.24242
68.9865
111.599
69.0235
27.3881
27.1393
21.565
-32.3002
-80.3982
-39.3632
24.467
-31.3092
-52.7187
-22.4744
9.49208
-5.92309
-22.3831
13.1983
76.2618
96.7654
91.764
68.5026
41.2605
25.6897
-4.33376
-13.6467
-16.8013
-25.4798
-16.8406
-36.4041
-79.8672
-100.028
-111.602
-56.2349
39.8809
61.2949
79.3055
50.8356
-5.57938
-7.65707
-10.1314
-11.0397
-9.9778
-45.9665
-34.6114
-17.4586
-9.60102
31.6697
33.5898
4.85922
-4.12892
41.4338
12.3682
-47.5103
-70.6727
-38.7545
-14.2452
-13.9733
-37.7954
-25.9375
-1.33032
38.5281
46.6779
40.2952
70.9292
81.3202
75.303
45.0502
-20.2415
-31.1826
-30.3516
-56.6216
-4.99223
-0.21987
-19.6016
7.52604
40.9835
61.4901
63.361
41.4925
-3.41168
-11.9546
8.28149
18.4267
-35.4031
-54.0192
-74.632
-102.095
-80.1799
-73.4432
-46.3853
14.9929
40.644
82.2674
110.06
63.1681
3.25766
-43.6428
-50.0345
-25.4037
-14.1172
-81.6508
-119.124
-19.6993
18.8041
3.7169
15.2524
60.9573
78.8303
81.4021
64.8635
81.833
66.2923
44.1608
2.249
-14.4244
4.6848
-42.7237
-86.31
-57.8887
-51.468
-32.784
-32.1521
-93.0611
-78.454
1.75744
54.5818
72.4502
67.8701
75.0684
74.3636
23.7434
-11.4513
-23.5102
-44.5665
-29.9741
84.3322
110.956
75.6827
-18.1051
-139.21
-175.973
-111.257
-91.4936
-49.8401
36.1165
85.5864
71.1537
32.5597
-24.7615
-12.3113
6.80091
15.2817
-10.8311
32.4163
30.7668
-24.5265
-15.4826
25.3946
46.3645
74.4348
77.0928
92.1698
72.0774
43.7794
-27.9145
-75.7922
-94.5594
-86.4236
-57.0279
8.71754
-9.25916
-16.5173
-8.73477
-15.8677
-3.80771
-38.4638
-72.3192
-37.5816
3.45916
59.2016
97.1121
66.1246
52.6918
15.4081
-91.8848
-66.9217
-24.3267
-41.8419
-65.2357
-84.7291
-71.8193
-51.2563
-35.2271
31.9892
77.6191
68.8819
104.938
112.345
86.3352
88.0223
53.4487
-44.3613
-43.9447
4.18729
35.2471
7.74149
13.8433
58.0413
94.8172
25.4535
-39.5924
22.4121
41.428
-9.14315
-61.4076
-88.3871
-91.4222
-106.304
-157.551
-106.094
-1.67307
30.2997
27.3627
11.0272
7.19822
-5.99352
-38.3177
-7.47622
30.1762
38.83
51.0709
20.5177
17.1573
-4.70034
-30.8728
4.8785
5.35097
14.1478
61.3184
28.576
-22.8678
-64.5262
-103.799
-39.3204
18.7766
28.1281
52.483
53.9585
35.6753
33.7268
44.9837
20.7145
23.1142
42.8956
31.7891
14.3583
22.1661
17.4224
5.97939
-34.684
-100.228
-73.827
27.3324
-5.49774
11.6372
30.6059
17.45
-11.5842
-88.4947
-62.8002
9.66364
19.6411
13.3348
-20.663
-15.2872
-24.7095
-50.5042
-50.829
3.84798
44.401
61.2708
51.881
8.07265
15.8778
-22.5487
-5.085
7.72325
2.68846
27.6865
4.76251
-16.0238
-20.894
-56.3025
15.5277
52.905
27.8332
27.8189
8.32722
-28.7117
-15.3169
-3.37165
-24.1492
-12.168
6.26884
-24.4379
-55.5058
-37.0251
-24.7158
-0.689047
4.42181
-16.3704
35.2801
110.469
54.551
11.5771
14.1195
29.5292
15.5306
-36.097
-81.4962
16.2341
77.2437
30.9445
-13.9828
-2.87136
3.18383
-1.13276
-6.4285
23.8419
45.3968
6.26845
-61.9632
-80.3702
-81.7972
-77.7035
-74.417
16.9368
42.7653
23.0796
-3.72823
-25.3017
12.9453
17.5866
2.77405
60.0568
75.5926
34.0192
21.2473
25.8126
29.1344
31.9297
46.0859
17.4557
-47.0916
-1.46325
30.4464
-96.8729
-184.336
-141.132
-41.0297
-23.9958
-68.6929
3.33086
105.424
101.251
69.9797
48.2877
38.9092
15.1889
-12.6023
4.46765
34.784
17.0345
27.8185
17.4809
-14.6152
-1.97822
19.193
41.2107
72.5698
39.7079
4.8557
-12.2003
-23.7643
-38.2768
-43.9024
-44.6836
-86.0146
-94.798
-87.1422
-100.112
-85.096
-25.4475
-1.48676
-24.6065
-15.1485
7.61668
98.3732
182.358
110.744
31.4738
44.9353
33.2306
-3.75482
-29.9291
-14.3904
29.6553
24.3322
-6.41623
-12.1537
28.5433
35.2577
-14.0826
-24.1418
13.9136
34.8686
50.8749
-0.808102
-91.9597
-94.4445
-66.4231
-16.097
23.1604
11.5671
1.02669
-13.8735
-30.6206
-3.21474
-5.2295
7.63384
14.0421
-47.1729
-44.6514
-23.095
-15.2549
7.66225
23.7037
43.8492
37.4323
15.1325
45.6126
21.6419
-47.0058
-17.4202
16.292
11.3476
-1.12576
11.5933
37.7545
12.1542
-46.377
-37.0497
-12.1842
-14.3112
-25.1213
47.3694
74.0963
71.3422
64.8523
40.1896
20.0686
25.1714
-43.3634
-63.3343
-27.2796
-28.7132
-27.9309
-32.9016
-16.6853
-11.7694
-61.119
-79.3055
-8.8045
89.4695
88.3362
31.8048
-7.71433
-28.4796
-25.4502
-16.3759
-6.99053
13.4861
9.74442
-14.8612
-23.9302
-17.7952
-20.5265
-7.56743
20.016
48.9323
75.7024
64.4368
25.5333
-25.5125
-55.1688
-112.377
-81.3965
41.2901
83.1216
29.4597
-20.9684
-37.3229
-42.7031
-57.1925
-70.5819
-59.6735
34.2577
86.7936
40.1328
1.16274
0.874322
19.0905
19.0194
-16.9629
-22.128
32.9819
86.1746
37.7734
15.0922
40.2159
38.0912
29.8332
91.9362
74.4728
29.6522
10.6127
-63.8216
-121.974
-166.408
-155.197
-15.8258
58.1994
54.2087
26.6634
-2.80063
7.49826
4.36243
-32.056
-20.3473
-17.9768
-14.471
-14.3693
0.746369
19.218
5.17593
-34.5205
-36.2233
12.3143
60.9932
89.0899
30.8115
8.21536
-3.98503
-15.0284
-34.3066
-95.9297
-92.0817
8.15142
21.7911
26.6149
32.4801
28.6842
21.786
13.9429
25.4699
13.0693
0.117602
-17.2691
-37.1667
-9.81697
32.6771
54.5725
25.8388
-5.62603
46.333
97.0583
54.7281
-20.5197
-46.7962
-16.5374
-19.1052
-69.4383
-81.8067
-88.713
-92.4478
-7.34792
28.0054
16.4363
36.3271
12.8435
-7.87608
-17.9695
-29.1041
-6.44503
24.3672
47.1228
52.1541
40.6105
6.21954
-11.8625
59.676
51.1958
-21.0813
-31.5702
19.5339
20.0643
-2.71919
-29.8236
3.29952
62.9022
48.4444
25.891
-9.94528
-35.2799
-60.0246
-99.5602
-73.8788
-24.5948
-17.9974
-33.5241
-67.3535
-2.05554
39.5363
14.3505
-1.48343
-33.6323
-23.6182
37.8162
54.3336
33.8568
7.00338
-35.4179
24.207
128.276
107.439
76.4881
-1.5532
-42.44
-3.53993
27.1746
-6.96614
-20.9826
-43.5061
-43.0837
-28.7747
-18.1968
-36.7824
-56.192
-66.2943
-82.8429
-3.13558
63.9211
66.4717
0.156627
13.8428
47.2118
52.0399
3.68489
-32.9828
-25.0079
-1.48099
15.4271
38.1613
45.8752
28.8211
29.5227
8.22567
58.3295
80.3728
26.023
-54.1138
-93.8634
-104.414
-112.061
-140.071
-80.7566
-31.5844
8.94007
31.4388
22.4691
12.6804
-0.242362
18.3656
73.1003
51.6556
54.7849
87.5563
65.4744
34.6397
19.1714
-50.6004
-84.0266
-74.9832
-49.0471
7.32809
15.1067
7.92456
-15.2986
-11.6402
-15.4516
12.9258
42.9471
84.1005
79.6085
64.7327
5.75159
-41.4555
-86.5538
-94.0941
-65.5983
46.0282
92.9657
126.552
121.088
55.3876
-37.0983
-59.8567
-48.3329
-52.0313
4.00233
-35.297
-86.4383
-113.848
-101.598
-64.4826
-35.3945
-18.7829
5.10243
72.4218
73.3686
10.0101
-39.0716
-35.9324
0.568124
21.2016
18.5153
64.9245
83.5363
80.2194
32.5119
13.4946
30.9626
32.1408
5.74791
27.8185
43.6971
41.7144
22.5657
-34.908
-52.1362
-46.9371
-37.5117
-103.201
-66.2699
2.86369
-5.64495
-39.9629
-41.6173
-13.7023
18.4179
14.486
9.58455
37.7697
23.0856
4.28797
-11.9982
-38.5197
-63.2935
-77.4004
-6.06865
54.9639
79.6451
82.0786
16.7047
-30.205
-31.3823
-21.3281
34.9557
16.21
-9.7697
-5.34137
10.1581
3.443
-6.19885
-44.8235
-9.29294
37.5902
69.2241
89.7925
73.1929
31.4222
9.45615
-5.47711
-0.183339
2.597
-62.7268
-91.3331
-70.1697
-25.661
16.2554
29.9805
9.11754
-18.0427
21.8055
33.3462
2.95893
1.17624
-2.73898
-10.3152
-18.1925
-33.8335
-72.9892
-60.2553
-11.6267
-13.8377
43.4522
61.3552
-7.30505
-34.4854
-27.1048
-10.7739
-21.1786
4.57996
17.7502
36.3395
40.819
23.9242
8.408
-7.68801
-10.8125
30.9213
40.0757
40.5108
11.1035
19.8725
30.4386
6.94334
8.63604
32.5351
-13.0866
-55.5873
-41.5499
-56.5919
-65.9526
-92.4283
-78.0364
-29.2689
63.3211
84.9801
41.9441
-11.5113
-18.5824
-19.404
1.35685
26.2621
66.8897
98.5807
35.0112
2.30923
20.7119
53.768
42.5304
-0.409272
-11.2854
29.179
19.2425
-25.5936
-110.374
-131.564
-112.161
-140.306
-60.8291
41.8128
41.3807
21.9362
42.4225
56.1285
58.3605
32.8022
16.2331
27.788
23.6392
36.8204
9.76314
-14.7614
-29.4565
-69.121
-115.81
-75.1013
8.8534
96.7201
73.2024
14.8309
-8.46321
1.31938
-0.94745
-68.176
-57.9094
5.47834
52.9269
46.4196
35.9085
9.27031
5.35561
16.7855
16.3566
58.5052
133.958
88.5108
15.1647
-28.3641
-44.366
-92.2681
-121.051
-108.278
-31.0867
13.3561
25.7383
0.289257
-33.2175
-24.792
-23.8338
4.97816
29.306
-13.0917
-14.6406
12.1008
13.5139
-2.8869
-23.4883
-27.359
8.20988
34.3497
62.1483
78.227
49.7746
42.0127
33.4316
2.46516
-15.4415
-68.3606
-83.6194
-88.4989
-38.0856
11.2209
-10.2624
-26.7457
24.2907
69.6047
93.8596
79.7785
62.4191
44.2069
21.2097
-10.3551
-62.8171
-59.3847
-21.8449
-43.8494
-49.1255
-31.9528
-15.3602
6.45324
-19.4539
-24.7116
49.6204
25.7783
-38.4384
-27.2073
-3.74227
16.6582
-29.1952
-29.4568
36.8585
50.0269
26.6158
2.99618
-25.7953
-13.5367
-0.69603
32.1576
28.6875
41.0149
57.0149
9.47539
-55.4476
-27.8704
4.24152
2.18505
-31.5041
3.4353
21.419
-6.67411
-43.2206
-38.6625
-13.2247
4.23977
-18.9759
-30.0576
5.48641
49.4374
45.2566
43.2312
14.6793
28.896
31.2461
-13.9232
-40.4722
-12.671
-12.3949
-3.45565
16.4022
15.9974
-17.6161
-25.3956
-17.7449
-9.14846
-26.503
-15.7399
-3.10755
3.49693
21.1768
8.24364
1.00174
28.2068
47.8307
46.0644
17.5091
-35.432
-34.924
-43.5035
-19.7211
14.4572
5.93895
8.64931
-5.89693
-4.04339
17.6072
1.13026
-13.5981
6.50573
4.39001
-9.17215
-22.9045
-36.5103
-21.9289
-30.9103
-4.1142
38.3631
23.046
-10.3344
-16.7761
4.28401
6.42861
-60.4511
-92.5734
-96.1826
45.226
136.119
118.924
58.5406
42.9673
52.9588
58.4591
33.1355
-35.9565
-17.8323
-15.382
-78.9768
-69.3205
-24.851
-23.4751
-48.2159
2.23287
93.8457
139.38
100.382
4.19999
-13.1656
-8.02932
-17.7208
-53.8241
-82.8919
-76.3028
-66.2334
-15.6175
15.6606
6.66563
13.8131
6.66217
6.70751
34.3217
25.1941
3.36612
-16.6285
-32.4078
-4.16384
-29.9879
-79.313
-67.8473
-78.017
-67.718
-29.0229
14.3353
41.0248
67.0519
50.6569
13.3525
60.0112
84.173
51.2464
26.1048
27.9556
27.0372
15.125
-11.6575
29.3072
40.68
25.519
-16.431
-8.23631
31.9696
33.4399
-5.24763
-6.30301
-21.5045
-30.4417
-15.763
-39.3296
-47.482
-70.6618
-84.7071
-33.1568
-12.713
3.01685
25.252
17.6164
7.61916
14.6141
-1.8771
1.36377
59.9819
-7.84352
-113.842
-124.117
-31.3526
48.649
60.9899
-1.4008
-37.6195
54.8616
106.072
75.1965
61.2414
54.8573
59.9571
36.7216
-8.39255
24.4866
42.3891
6.23714
-58.9441
-42.7255
13.7811
16.5457
-48.7644
-92.1713
-40.0937
-29.5139
14.1385
-10.4479
-54.3899
-93.3246
-130.567
-101.149
-7.02378
32.2518
55.3061
36.4607
16.0877
9.89173
-2.71564
8.31713
77.7186
73.359
58.8322
47.008
24.3147
51.1058
30.3538
0.993997
34.5919
26.8097
34.8832
7.69487
-63.4883
-88.0717
-78.6393
-108.583
-50.9771
32.3407
63.6291
73.3087
17.6128
-15.4101
3.11796
29.4278
-11.2122
-41.5754
-25.3316
-49.0746
-66.5105
-16.0408
23.5895
39.4921
-8.1835
-69.7339
-2.9623
53.7239
54.8638
42.2262
31.5117
16.7954
-10.4029
-4.12869
5.28459
17.7639
-3.75992
7.30522
9.89781
20.438
14.9846
-0.951858
-39.2298
-5.64246
15.716
38.8165
12.2643
-8.30747
-30.1407
-63.4981
-84.8038
-4.66542
37.6015
41.8806
-6.67922
-56.2837
-55.6449
-39.0613
-37.8251
6.55437
31.193
55.6545
58.4809
19.3665
15.0611
24.2954
-5.57036
-30.9703
-10.7317
33.8037
40.0044
11.7883
12.9121
8.0509
-18.5541
-47.2326
-4.94534
10.9286
2.38876
-24.3499
-49.8957
-83.2115
-110.686
-120.892
0.537775
83.7946
97.5318
101.84
67.875
34.5792
45.2056
13.043
34.2777
42.8822
2.13818
-23.2701
-48.1627
-47.1311
-13.0524
-17.7964
27.9376
79.6455
98.7037
87.3731
21.3817
-19.2533
-29.0642
-52.7924
-57.1128
-41.4106
-68.66
-101.095
-109.665
-69.0679
-5.0281
26.6279
46.0209
38.5923
7.81954
59.7291
61.7435
5.42857
-24.1919
-43.7707
-42.8214
-16.4659
-8.1433
-20.3857
-10.2144
-23.1315
19.8613
70.3512
59.2964
37.7203
3.68845
-38.133
-60.9439
-57.6866
-17.1516
-43.0681
-94.7666
-63.1034
22.7881
95.3211
123.603
93.67
68.6491
92.0314
86.6379
66.5481
24.2303
-3.62535
-1.46269
-31.8445
-24.7637
26.4163
31.4988
13.2685
-6.60041
-26.4781
-32.0598
1.64037
-55.9315
-59.3842
-59.735
-75.6023
-78.2413
-74.5819
-91.6458
-26.7847
-3.39686
6.53956
6.95676
-29.1101
-63.1291
-32.5515
26.5033
85.2577
52.2685
17.1536
13.0495
-10.9146
30.3505
30.7094
-6.91883
44.5141
66.0321
57.6421
40.8644
-2.78801
2.91737
4.36313
-6.14645
38.0933
60.1356
34.4351
-5.47435
6.37207
6.86799
-28.1508
-68.1612
-12.217
2.88616
-23.3173
-38.5188
-82.7021
-69.2769
-0.629494
16.4275
-34.6616
-7.57992
29.1559
6.98889
-21.9651
10.2968
49.4259
84.5777
56.2405
9.80264
64.2856
79.8863
-15.3922
-60.9518
-49.7539
-19.1355
2.13363
-3.85727
-51.326
-26.7559
-0.497299
-22.9571
-50.1491
-42.4548
-11.6547
6.59707
-27.096
-10.5345
5.13476
53.5173
22.3147
2.80597
4.5756
-16.3201
-23.0577
20.2804
8.41589
18.4706
44.8155
32.662
24.7595
-5.32493
-32.7406
24.3904
31.9615
-52.978
-84.3535
-70.0252
-49.2063
-31.4077
24.4377
31.8334
14.5392
64.3193
87.4327
57.2092
54.1359
32.1419
2.70834
4.3652
-15.9328
-15.2384
34.5157
-4.91507
-12.3299
22.438
18.3256
-48.394
-84.5419
-70.4989
-20.1296
5.68712
15.1061
7.17418
0.369729
-20.7651
-41.7662
-51.1893
1.19674
22.0992
49.9685
59.9375
7.10627
-12.4357
-16.6412
-8.60325
10.4136
34.6327
62.1122
36.4308
-16.8467
-15.695
-29.7326
-82.1774
-108.065
-18.2473
19.8981
45.6124
26.8367
12.9152
-7.56964
-28.5786
-18.949
-17.0623
22.1905
47.8108
3.64505
-30.3023
2.94034
34.7695
4.65179
-26.4361
-14.3171
49.6289
68.5832
6.87931
12.8329
22.5239
6.12717
-24.2385
-38.9671
42.7987
59.1974
63.1287
16.2794
-11.0716
34.9909
40.0619
-37.6539
-38.1341
-49.0407
-52.8888
-66.9843
-111.833
-118.744
-97.3085
-52.5551
-10.8389
-16.7466
9.20694
52.4305
56.8732
62.6917
58.1028
35.9293
64.4657
60.0331
49.7992
44.1066
12.8504
1.49293
13.8214
0.969787
5.5402
26.9976
66.983
61.4072
-4.19866
-33.1457
-35.7795
-29.6005
-69.2806
-103.088
-84.3921
-61.4699
-17.912
-14.6041
-12.8316
-34.0491
-23.1624
30.7308
40.3306
84.0542
73.648
-45.3344
-98.9149
-125.085
-84.5054
-10.9774
-16.9635
25.2505
66.7275
94.9754
100.612
101.574
56.1767
42.7489
18.4589
68.2549
68.1098
7.13135
-20.4979
-46.1798
-34.4205
40.025
11.4895
-9.77198
24.86
29.671
28.5814
-7.0007
-43.049
-65.5547
-86.2393
-80.9882
-88.4251
-51.7489
-1.48379
-23.6599
-40.1953
-27.8699
1.56802
18.5835
0.087754
24.5026
63.5845
47.4854
1.85832
-40.1103
-27.6493
-8.83242
-30.8899
-28.634
17.7548
29.3555
12.0399
1.87804
-8.49676
-10.8301
-0.110979
28.5318
25.5584
22.8389
47.2915
64.2978
53.5605
49.0742
-7.70163
22.6423
84.3186
48.7211
18.6227
-22.55
-75.8177
-61.4884
-50.0177
-30.2568
23.3137
27.1831
5.57037
-7.29882
3.56085
7.35973
-2.93147
-26.1194
-58.76
-32.3961
-5.75829
-65.4854
-109.849
-93.7201
-49.7149
-13.0516
-3.71387
14.8109
70.9903
122.968
57.8143
4.92633
4.38061
8.54178
16.3677
26.8601
13.7931
18.4156
11.53
0.587753
2.3145
18.8616
25.2811
12.07
-6.17196
2.76786
-4.29688
-1.18997
5.99425
-13.2316
-32.4482
-53.4812
-51.1228
-4.35799
21.7325
17.5614
6.43715
-11.1
-38.2154
-89.2213
-96.6007
-2.56403
98.5183
97.6528
91.905
79.2828
57.3135
-1.02867
-45.6908
-64.2465
-48.271
25.9444
32.8024
14.4791
-4.10901
-13.5554
18.8238
4.15544
2.24307
58.6204
68.8592
27.4471
-47.7429
-54.7465
-53.1466
-66.0012
-30.9046
-32.0093
-74.0434
-73.1315
-13.6652
24.8933
31.4608
-42.6114
-76.2814
-2.65406
3.26475
-12.4668
0.277035
1.97378
-0.353838
5.59352
-3.57112
4.13342
66.8135
101.37
77.6071
81.2634
91.7069
83.2056
52.0848
-29.3793
-63.1903
-2.35352
57.9669
-4.80313
-23.2397
-12.5803
0.411256
18.0595
51.2494
21.0848
-0.765569
-11.8334
-55.1328
-93.2356
-89.782
-59.9035
-38.3983
-62.7267
-40.4482
-58.3713
-47.5233
-36.4875
-28.0418
-20.6476
-41.8062
-6.63404
46.9582
51.3251
55.8935
51.0612
26.1508
26.1022
8.25195
55.6169
61.4326
39.5974
42.8804
51.7204
20.8182
14.1565
9.99833
37.7939
30.828
20.3642
45.448
34.1143
-27.3425
-67.6673
-118.746
-147.614
-82.838
-42.3878
1.72027
19.3986
-2.1339
-20.5765
11.7744
-1.65087
-45.4155
29.3177
53.2059
28.3213
17.2572
21.7144
28.7341
14.768
1.47715
46.5816
87.3079
80.9545
36.3567
23.3446
-2.46153
-36.956
-28.4272
-39.0754
-59.2104
-90.5602
-106.334
-139.268
-111.801
-39.1154
0.810433
-6.25059
31.1987
43.6457
42.5896
27.5587
22.8966
42.5428
26.3328
-29.9323
1.2464
62.675
59.1708
79.1772
70.5335
71.3465
72.0571
31.9849
48.5028
48.0336
-4.29965
-14.5969
-37.989
-48.134
-43.74
-53.4425
-47.9788
-6.40546
-19.393
-39.2768
-63.0819
-70.4023
-42.0747
-43.6846
-71.2492
-10.0534
42.8841
63.8639
5.49352
-74.2243
-67.7392
-47.6527
-64.0952
20.9563
75.2146
94.5204
86.2844
46.6011
51.8515
67.5386
40.496
44.3037
15.7706
4.85025
22.5381
12.9814
-15.1434
-42.4142
-45.9291
-4.56064
-6.96693
-4.10604
9.38511
-14.2998
-54.6531
-84.3729
-96.2816
-44.1529
63.2435
81.8636
46.1123
-24.7347
-19.5797
-0.694793
-15.449
-45.7823
-39.2483
54.6413
71.4272
40.9919
21.5315
25.9315
55.4856
27.5943
17.5939
23.1557
22.0941
-10.5544
-73.6343
-66.8093
-54.2182
-74.9087
-85.6398
-40.1713
-16.8798
10.8168
38.0836
47.6256
56.6972
1.64804
-53.3878
-2.4284
13.1392
25.3396
38.4613
9.48464
0.792889
-5.23934
0.750374
41.3147
38.3554
18.5334
8.97147
-3.8655
8.03741
-3.61866
-17.991
-23.3575
23.4653
32.4744
58.6651
16.5542
-12.2885
-23.1331
-9.80199
-35.9113
-34.1891
1.66286
16.2669
-4.80013
-29.5373
-33.7495
-14.8228
-44.4282
-3.74422
30.5912
24.813
-13.2292
-72.6832
-109.363
-103.103
-100.304
-29.5985
54.5782
45.9118
82.7495
98.1164
86.1499
61.8647
37.8244
38.043
51.6403
29.5853
18.3553
2.58177
-6.34512
-0.393917
-2.9571
-22.5188
-45.5299
-6.24943
60.5626
47.8585
10.2623
-13.1797
-13.5078
-5.805
-27.6088
-70.8379
-77.7813
-63.6325
-52.9726
-47.3045
-52.2166
-43.7544
-36.2286
-26.0809
3.52071
62.3139
110.368
71.5762
53.6408
35.6561
10.3554
21.696
-3.03664
20.7881
43.409
32.3868
25.4456
9.12502
9.44756
-3.02737
-53.5133
-70.2778
-74.4476
-33.488
-10.5051
-7.3715
15.8904
7.72537
-8.64232
15.5398
-27.9416
-27.7701
12.3289
0.527791
-30.3356
-38.1584
2.89067
42.933
31.3582
58.5885
122.532
107.915
69.514
17.0013
-54.9442
-56.6541
-26.6972
7.82834
-20.6406
-134.066
-131.815
-89.1576
-57.417
-34.369
61.0076
98.5772
68.472
37.9807
19.5005
8.41396
-10.9798
-34.5731
-24.889
23.7066
30.5014
-9.13525
-36.2664
-4.06072
39.5651
72.2264
20.6747
7.53095
1.109
-24.1429
-38.948
-17.0005
-15.9062
-15.5693
-37.6392
7.08396
39.5625
51.7424
59.0078
17.9683
7.55953
-29.2473
-50.1018
1.73652
-51.5001
-70.5237
-9.47346
20.3529
41.2552
55.4021
6.5943
-33.7553
20.8515
59.9565
71.8639
29.9818
-10.3079
-37.2143
-52.4843
-94.5852
-84.2226
16.5953
43.021
-17.9772
-42.5504
-46.6296
-26.558
-13.3963
-27.4702
38.6768
49.4012
55.7134
27.3131
23.9581
40.6016
23.5007
19.9217
81.6931
58.3017
43.5937
32.6652
-23.6193
-43.6669
-74.015
-85.9603
-10.8384
25.3022
14.1671
7.98733
-43.5946
-70.422
-87.4907
-49.7331
4.64098
21.7878
30.9151
32.3066
-9.28388
-14.7073
6.91352
4.36926
17.7444
51.3797
36.4121
41.969
11.5173
-6.01419
-15.4534
-24.5262
-59.5254
-51.9524
36.9724
23.1892
-11.7421
-14.3477
-22.8584
4.63842
7.86372
-2.83737
42.4029
84.9775
26.9117
-18.8281
2.14216
9.83053
-10.7024
-38.0651
-11.6557
11.4128
9.46381
6.38482
-21.8103
-38.6689
-55.5736
-56.2686
4.16039
-25.8036
-16.638
16.6027
10.6952
31.34
38.8123
40.0618
89.0296
105.548
87.8885
43.6828
-46.9089
-68.5727
-53.9803
-59.9092
-73.8115
-25.4805
17.3453
42.2133
5.04108
4.73925
-1.26657
-2.55956
-9.62858
-32.2902
11.4118
28.6744
-50.538
-77.5757
-43.8487
5.7502
8.9327
-20.618
42.7633
76.393
54.0376
-1.34272
-25.4194
-8.16429
2.11801
-14.1265
1.26238
35.9098
14.7857
-7.99218
-24.6667
-22.9738
-13.8678
-18.2291
-3.36255
32.3915
51.7917
32.536
-44.1557
-60.0337
-8.62897
9.32731
-11.6732
-11.4506
34.0232
59.1571
13.1916
-77.2995
-75.1749
4.63377
36.4665
-3.42657
-58.2495
7.50005
63.6912
18.9351
-42.1299
-3.68878
60.3037
73.9744
46.9804
13.8133
55.1872
66.3316
-10.9129
-49.1082
-24.3287
35.9943
38.2213
-32.2674
-47.0131
-32.4277
3.36384
-7.87542
-38.3153
-41.8375
-30.1986
-18.7901
6.55622
-0.483466
-27.8315
-14.5204
-12.3979
-34.0581
-37.2221
-7.11145
26.2323
-4.99051
-37.9291
-40.1404
-24.5736
-4.34539
-6.58391
25.5412
71.1111
111.682
110.431
74.8203
-0.815721
-15.1232
8.27748
-1.14784
-58.8165
-100.448
-67.5659
-21.6662
-1.59357
62.9273
97.8114
66.7172
20.8388
4.5147
33.26
18.0063
-41.3328
-70.5359
-45.5058
-37.0462
-35.7961
-30.1565
-24.1321
27.6932
26.5643
26.7818
41.5425
23.0817
-22.2505
-39.1929
-51.3543
-17.5142
26.207
37.6433
31.4643
12.0584
-19.9296
-56.4779
-58.9971
-15.331
33.6496
10.2274
11.0563
17.3301
55.2862
73.952
19.2182
-10.9324
4.1572
-26.7532
-33.9325
-31.1419
-32.259
2.70966
26.0136
-12.3544
-56.5913
-1.89101
48.3419
36.5574
9.2395
31.1638
42.5809
4.26888
-34.6188
-35.2893
16.6973
9.69095
-5.25699
-8.2243
-28.2953
-42.7712
-74.2882
-89.2105
-16.259
35.7348
67.032
55.9948
54.6083
36.4638
-5.04062
-4.76481
25.7742
18.7968
14.0201
19.0028
-11.6674
-52.6701
-87.7695
-53.9865
22.345
33.8889
33.1468
35.4376
1.77182
-3.13569
6.52096
-13.9822
7.21186
24.5445
23.2837
-5.19884
-54.0802
-55.9105
-65.0119
-106.36
-105.197
14.151
90.4333
79.5961
62.3358
66.7683
66.9091
48.1382
16.7292
-11.4968
5.83419
36.7718
-5.54357
-53.9972
-64.7419
-29.6345
-5.1764
-0.749382
1.48784
38.8244
31.542
46.9406
12.3655
-15.9326
-31.6837
-67.2703
-105.132
-51.4827
-15.7307
10.1228
24.4843
3.23941
2.93835
16.6517
-5.29908
28.8495
39.2542
53.314
63.5977
62.8292
74.5717
16.4797
-43.0684
-54.7095
-35.0194
-20.0083
-32.6405
-81.4273
-56.7045
-6.98416
4.90856
-25.4479
-31.9615
57.2898
95.6925
70.1176
22.5624
-27.05
-43.708
-53.3687
-4.29691
-8.14191
-46.8854
-62.7323
-31.5562
35.0096
76.656
52.8198
24.0463
30.3477
-7.56221
-21.0395
5.61562
-0.688492
4.10609
-42.7993
-53.8717
18.0208
37.6627
47.1071
21.8599
-7.11607
22.0524
40.5384
10.3769
6.71287
12.6303
-10.7232
-37.3894
-67.596
-38.1674
16.3302
11.2922
-66.6112
-29.2237
-11.8387
-14.4371
-47.1227
-20.5877
26.0098
30.6805
22.4968
7.81293
81.1324
107.397
22.2705
-19.2231
-5.26608
-25.4589
-54.6923
-51.7518
-43.4585
18.8588
38.0109
35.099
43.5248
51.2545
55.1216
34.4307
-18.8139
-8.71313
-10.9807
-31.9655
-77.7828
-95.0335
-57.1388
-13.8178
-21.6858
26.0578
66.0331
30.8992
46.496
58.5855
48.287
-20.786
-87.7838
-44.0348
-8.14539
-2.5467
-12.5424
-65.6148
-60.9975
1.07775
42.8819
6.2706
40.5788
92.727
98.8534
53.5341
-16.3207
-40.0943
-43.6721
-50.4131
-60.079
-47.7336
41.7321
23.9684
2.68962
8.16211
16.3551
10.2085
-15.7832
14.5183
27.2108
8.37185
-15.6643
-53.7629
-29.8232
3.96967
22.5898
40.3727
45.5359
11.3889
-6.90545
11.0075
13.3978
5.13715
-25.2954
-68.4008
-71.7935
-34.0627
55.8916
41.4776
-0.205842
-6.79747
-30.3433
-9.56058
-13.5165
-7.42819
20.5698
40.8498
16.8636
-19.687
-15.5951
-22.9054
-46.9061
-26.195
-8.55812
46.8743
112.22
73.8775
27.0768
7.54039
-4.15374
24.3469
27.7386
-13.0527
19.6929
2.7502
-12.8892
-17.7153
-42.7558
-63.0985
-53.2869
-69.3218
-51.205
-7.78681
-1.56741
4.05137
-10.6312
-1.01438
12.0185
10.1624
34.4088
31.8462
27.707
30.7447
2.22824
-52.8347
-63.6819
-33.2201
15.8195
15.3293
6.34505
22.5042
70.5868
54.7447
3.45301
-32.3033
12.5447
42.8261
35.829
22.0813
9.37166
-6.06571
-18.2829
-17.71
-14.2891
26.7699
28.7953
-26.6128
-98.6408
-71.1352
17.3829
53.4588
21.7056
-59.0858
-14.3295
70.4847
17.6997
5.41544
-1.24077
-1.31231
-10.0834
-0.385238
-15.7612
-53.281
-8.08536
42.0437
16.0394
3.68278
1.1394
16.6726
-1.79806
-56.4406
-38.2324
39.8667
21.1811
-30.7379
-40.038
-22.4814
-19.765
-44.8352
-37.4086
0.564
12.5117
28.4245
20.5526
-5.97933
-2.29785
11.5965
28.9693
60.465
72.007
67.3385
-18.5573
-68.8984
-12.6696
28.6325
13.9028
-69.9385
-79.6332
40.5013
73.5268
46.7198
27.1022
44.279
42.0179
37.1449
34.5096
53.5082
16.5523
-38.5004
-66.8976
-54.1577
-35.7578
-48.8536
-59.7442
-3.58877
1.41474
10.3458
7.32471
-17.4388
-41.1312
-75.3456
-37.8789
-9.38706
-40.7538
-34.4826
-15.393
-3.40513
39.9882
37.7046
48.2224
62.2221
47.0226
58.6973
47.8785
5.21942
-11.9526
-41.2052
-29.0128
-12.6299
5.60135
25.4886
12.3582
1.62288
11.8898
3.53261
-24.1011
-87.9353
-45.4336
-3.78868
-24.0158
-25.1247
-1.71464
13.8012
-14.4632
-46.9962
-30.0104
64.1389
158.414
128.888
53.6749
28.2123
34.7137
34.7476
-7.49148
-58.1503
-6.42952
26.0265
8.96294
-1.86905
-4.75789
-25.9744
-66.1587
-55.6409
-47.5986
-45.4876
-51.2183
-63.0365
-99.6483
-79.3758
-29.0841
27.7982
38.9002
20.3094
38.6139
36.088
18.8766
19.8731
-26.6865
-44.4912
10.7019
71.0621
88.9604
75.9958
90.0455
71.4711
40.6762
-3.26986
6.2789
-7.29397
-48.5371
-44.1208
-49.3214
-74.9601
-65.4991
-51.5086
0.961952
52.9056
43.6831
26.618
9.26635
-8.08958
8.33021
-19.9968
-27.2153
26.7931
52.615
51.033
-23.0295
-56.4826
-35.8961
-65.2404
-74.0181
16.9565
24.0539
3.28077
-33.882
-24.5837
21.8619
27.9784
16.4969
-6.03918
14.5661
28.2511
35.4595
21.319
37.7621
49.5376
43.9576
24.3014
-5.40041
4.0971
39.7535
0.348883
-27.9183
-40.3602
-43.7193
-73.1991
-114.393
-116.589
-51.6833
29.0141
39.1108
44.6158
38.2933
27.5311
40.4437
13.3399
26.5123
54.8451
50.208
14.4851
-55.3472
-101.434
-77.3763
-40.9292
3.49718
54.5588
99.8981
92.0725
21.6554
-17.6449
-23.8589
-49.9376
-39.0644
1.74023
0.303921
41.8276
-4.45322
-67.0531
-38.8851
-19.4515
-3.58698
3.27944
19.2663
54.0857
20.5014
-15.0122
-6.97791
7.58949
-29.935
-27.6646
58.3455
111.785
90.2639
5.53253
-23.838
-25.8219
-24.836
-21.8164
-42.8205
-20.2527
41.4353
41.6332
16.7932
-2.14822
19.0434
11.4866
-54.9202
-69.4497
-8.04926
-62.3614
-102.457
-56.2393
-14.5291
-1.90883
7.81231
1.17347
1.3167
50.1416
42.3014
19.8313
4.46807
16.0598
1.54735
-17.9464
-15.6388
41.2212
69.3182
60.4501
26.228
38.2534
13.0273
-43.7289
-44.1386
14.5165
0.0863641
-13.9795
-7.25
-21.3477
-21.3377
-30.5402
-50.7458
-4.74431
50.6678
74.9852
56.0411
0.0262052
-11.8937
-11.6203
-38.2959
1.45978
2.89905
-28.6641
-40.0031
-80.8966
-40.2596
-15.2561
2.04587
56.4455
102.326
94.7548
78.2058
42.1392
32.4345
20.8906
-57.5817
-95.3551
-54.8456
-53.3759
-37.6255
-57.9621
-86.6727
-58.803
-40.1455
10.0119
74.7585
76.9023
52.2056
20.636
19.8198
22.254
14.2862
1.4144
12.1869
-9.4213
6.78257
14.4189
-18.5413
-51.8186
-37.8887
-32.2441
-19.1017
70.2213
36.793
18.1505
4.68606
-5.32748
0.691996
-15.6388
-47.3041
-36.161
16.1731
39.4913
37.6536
49.9055
38.5219
0.356767
-8.3846
14.4574
13.453
32.3611
-2.30028
-100.678
-93.2986
-25.8386
0.0536016
4.82871
22.9874
38.956
36.6466
22.8266
-4.51544
-24.4273
-35.5022
-60.9174
-36.6232
25.2825
49.3954
58.6916
45.6381
21.4031
15.5207
-3.25315
21.9447
18.253
-40.5769
-37.479
-8.61899
-10.1227
-3.15434
-5.69795
-21.7531
-44.8231
-26.6847
-33.4452
-35.6498
-22.0978
-3.55974
12.3373
48.2951
20.747
5.59492
34.7415
17.0231
-39.8589
-83.7513
-92.6029
-64.4405
-15.1685
55.149
98.0418
100.548
96.5073
58.251
70.9707
58.254
8.44578
27.4904
41.0192
-1.07606
-10.796
3.9955
3.74037
-36.9427
-100.218
-47.387
11.0928
-36.6646
-96.4287
-129.471
-117.897
-37.9634
35.5154
11.7613
-14.7822
55.0523
38.242
0.530022
1.18086
5.40132
10.1681
22.3686
39.4798
76.4857
118.91
73.9557
6.47314
-30.2545
-18.7316
28.3182
48.3696
-28.0429
-119.65
-89.0041
-49.2139
-77.249
-42.706
-22.9206
-12.2719
-11.4021
27.2116
76.1868
52.5685
58.4859
58.7889
81.7976
85.1226
77.6151
102.575
66.5525
-6.95455
-47.9448
-93.9541
-125.179
-93.1594
-124.066
-82.1614
-22.3373
-74.9211
-82.4343
-42.3408
-23.1677
11.4473
1.23485
32.2185
52.7159
59.8083
75.1639
39.0863
16.5459
23.9893
50.8007
63.9608
34.8719
82.0138
92.1339
38.5649
-3.06682
6.53471
6.1401
-25.6151
-84.3783
-88.3294
9.50726
-14.0736
-41.9057
-59.9371
-63.3388
-53.0243
-69.683
-78.9439
-25.6351
44.2615
65.8742
-5.18925
-15.7782
15.6276
11.7926
19.85
19.7602
32.145
36.3706
32.2212
24.9949
36.4052
35.5472
54.8294
53.1614
35.5045
10.3703
-6.12291
-37.9355
-50.8187
-41.0005
-45.8166
-56.487
10.0173
20.762
13.0947
17.9952
-6.77306
5.77306
-2.61269
-70.9339
-87.7648
-75.8503
-7.33082
44.0878
32.4515
23.4561
23.1923
40.0427
52.232
36.4584
19.0704
63.5217
-3.59421
-42.045
-54.6257
-64.2943
-74.9791
-112.757
-57.453
32.4347
58.745
70.907
43.0284
34.8639
33.5763
9.77464
11.5959
18.8434
-27.2154
-41.9674
-27.2366
-1.71485
47.3775
71.1502
89.8389
90.1067
44.6033
35.4514
11.4254
-53.9251
-108.947
-155.319
-120
-23.4174
-24.9583
21.957
36.0196
-3.92879
11.722
39.6727
20.7022
-8.05493
17.3216
2.73375
-10.6269
-42.6279
-39.7562
6.10001
-0.665313
-4.42984
-15.6453
19.6815
65.7047
26.4984
20.1602
12.2861
-3.55582
-14.6958
-16.9825
-9.00336
67.3979
40.3287
-48.5489
-59.1404
-31.9663
14.8241
48.7579
20.1852
47.1073
55.8039
61.8955
26.0858
-74.8537
-127.385
-92.7898
-72.6237
-34.1415
-1.04761
-6.98241
1.63237
17.0446
49.8508
37.9922
12.426
69.8878
82.9647
26.6259
4.91029
7.52259
3.18676
-2.3367
-0.200764
-10.3165
2.24673
25.7412
-13.0081
-31.1586
-9.80132
-10.0118
-43.3255
-81.573
-66.1739
-20.3716
11.1562
-14.543
-20.2155
34.5577
57.3424
4.75146
-17.973
20.7988
39.9813
33.1773
6.7908
-18.7791
8.55327
9.72449
3.92178
3.58802
-24.9526
-13.965
-9.07144
-13.361
-5.41745
-29.75
-68.8449
-11.0289
21.3164
30.4882
16.1398
4.93576
25.1185
37.835
-0.374416
12.3835
46.7532
38.2748
43.8998
66.2979
67.6086
9.22826
-52.782
-80.3582
-88.4393
-56.2748
-1.39018
-3.41563
-1.57032
-47.0333
-69.301
-21.8824
3.88751
67.5068
105.275
55.677
2.80111
-51.4208
-117.397
-103.624
-51.4002
62.8089
89.0582
71.579
60.6424
24.8875
-3.31578
-46.7363
-44.1299
36.6349
69.3457
42.0966
11.3421
-30.5729
-28.1278
-21.4398
-37.5239
8.4057
5.29364
-9.12844
-2.37829
-31.7433
-24.2934
-6.48376
-16.3003
-1.30341
39.8979
41.7569
25.1139
5.94998
-5.60655
-52.1577
-79.4775
-94.854
-64.5527
-21.4367
-0.754889
25.0708
78.7526
105.449
92.1272
26.9977
-7.51032
14.8728
7.46905
-26.7269
-30.6982
2.26115
31.5752
13.0813
-1.11208
5.56852
56.6374
24.1475
-11.5976
-30.9181
-36.2779
-76.6482
-120.025
-87.3807
28.8691
41.4997
48.5705
50.3555
67.7263
65.2667
28.8002
-14.4106
3.5104
-35.3915
-63.7242
-59.0678
-42.8652
21.1757
28.0048
-7.95859
43.3853
99.4694
102.077
55.7508
-7.75109
-20.0078
-65.0969
-114.098
-134.002
-100.367
-18.4811
20.3978
-2.072
6.34421
40.5553
45.4695
6.61358
23.5098
56.7232
63.9817
30.1241
-2.30821
-11.3606
-9.94001
-61.1594
-58.8252
21.1172
29.9981
36.469
23.4844
-24.6873
-35.1106
-61.0734
-18.5108
24.7305
13.3001
32.2216
22.5823
-8.89479
-20.1913
-31.8419
-3.53223
37.4079
39.0016
38.4687
25.6166
-8.73515
0.295545
10.6573
-5.00096
-16.5985
-31.1947
-50.7164
-59.629
-45.7109
-11.3337
29.7539
31.7347
13.889
50.822
51.3158
23.8371
7.00707
-5.83744
-8.67616
-31.5638
-49.7885
-72.3148
6.34801
60.8852
64.4306
58.5754
56.1096
34.3079
17.7669
-19.7875
-57.4882
-6.04571
-16.0766
-41.8741
-49.3339
-57.6271
-58.9626
-54.2588
-26.5616
50.0702
43.9302
48.0571
24.9462
9.46147
-5.74663
-28.7278
1.94063
13.3422
-11.7427
-16.9761
-28.8903
-45.0259
-16.8137
-26.7313
-8.03432
-20.2388
16.6066
54.3962
60.72
57.5327
90.2312
76.2891
37.2309
6.39712
22.0085
36.2402
15.5723
-30.5668
-92.2705
-117.356
-119.655
-89.3362
34.1857
51.7858
58.5978
80.1998
27.2062
-17.6647
-59.8808
-36.7951
41.6546
51.2756
18.1068
-42.4403
-84.4093
-51.9004
-47.2886
-4.77411
100.383
123.123
112.211
63.9144
1.31177
0.720355
-27.2627
-51.2412
-11.1929
8.51124
-7.99699
-68.8423
-104.291
-96.9393
-102.376
-101.197
-77.5835
16.6005
69.46
74.779
70.5279
74.4267
73.2004
52.5925
15.8987
-43.9908
-18.0575
17.0132
7.67446
-10.286
-5.00614
-14.7229
-13.2631
-6.76326
-63.3137
-27.1088
37.8465
8.25879
32.6762
57.0231
36.1063
43.2203
24.1142
25.2505
42.7882
43.5851
11.5023
-8.83687
-61.746
-52.631
-31.03
-40.6568
-42.434
-2.65061
60.6438
75.4719
38.4519
-11.5706
-73.6206
-58.4518
-45.4637
-29.5162
-9.9299
-25.7927
-42.795
-6.04279
-32.8237
1.33054
50.296
46.114
37.5021
41.7146
17.1449
-0.696482
10.7241
4.06955
-44.4428
-13.7638
30.2589
18.1016
-1.47345
-12.5142
-17.9055
-75.3534
-75.8583
-28.7609
-25.2473
-40.0265
-16.6043
31.0712
64.8578
49.3421
38.4311
57.9885
83.1217
91.7593
88.8963
35.3096
-39.2693
-99.2366
-96.001
-80.3505
-18.4219
51.7914
32.9052
10.309
51.0401
71.3194
42.582
