-2.40688
1.39837
3.76711
-3.97949
-5.69781
-12.2213
-9.1831
-1.51615
-1.83238
-4.95991
0.0945971
5.40293
7.25887
8.29203
-2.76169
1.72577
8.11575
9.6009
11.7352
14.0703
6.47693
-1.59874
-2.14245
0.73085
-2.48652
-6.28692
-5.30202
2.91603
-4.19157
-7.15572
-9.57063
-9.7594
-5.92387
-2.86068
-2.10358
8.52333
7.03601
7.31978
2.99614
6.46235
5.86181
4.98416
4.74113
1.61812
-5.70214
-11.2415
-8.63593
-7.23745
-3.41009
-4.70664
2.95045
25.852
27.0397
24.8776
16.3016
-19.8452
-57.248
-60.8468
-46.92
-16.0754
-6.73954
29.4257
38.5518
14.1489
9.69706
11.4175
5.6456
7.46564
12.5461
10.4051
5.95778
-3.87349
-4.39741
-1.92273
-17.176
-10.4774
18.6653
27.2992
31.2949
25.142
24.6148
17.8125
0.515569
-18.677
-34.5765
-41.3464
-25.8145
-25.6131
-19.9276
-8.33734
-4.89342
-3.76697
-9.09419
-46.0125
-20.4085
20.1323
30.4156
22.1655
17.4733
18.6067
22.6046
1.15964
4.93586
17.8813
18.8227
11.5437
2.39885
4.78063
-2.52546
-15.0169
-2.33583
27.0985
32.0973
81.3793
74.6445
-26.8273
-168.536
-171.723
-78.6537
-4.23139
18.0944
1.82897
-12.8923
-22.1674
4.90192
36.5884
66.7121
85.2714
80.4354
-5.59449
-110.799
-115.897
-3.23028
46.1847
19.9007
43.5604
106.842
114.934
67.6589
22.5993
15.8299
37.1419
22.2726
-3.88489
-32.8159
-69.8572
-97.3185
-102.129
-76.9294
-15.6197
70.8516
92.9124
-34.5631
-79.4756
-103.495
-83.4765
13.4775
45.3172
16.0014
-15.4982
-38.8978
-64.7883
-10.8794
61.1515
23.6433
4.48203
33.9315
25.9901
0.902605
-22.4834
-41.3193
-55.4518
-12.7108
46.7042
150.775
204.229
163.451
49.6828
-11.3692
-39.2593
-42.3541
16.2985
18.1836
-5.12654
-21.0414
-27.7879
-31.2333
-22.3985
-51.6293
-42.0596
-13.5805
-8.59544
12.2162
-2.84651
-69.4774
-106.156
-89.5411
-51.6182
-56.091
-71.6044
-98.4366
-115.371
6.34433
139.477
71.0238
47.0301
175.58
162.063
111.506
93.245
60.0752
0.506198
-40.3837
-66.0728
-66.5523
-38.3561
-20.3661
-6.12587
25.9245
47.1213
76.4061
49.712
-38.4179
-166.593
-158.632
-69.8855
-67.0068
8.9088
128.662
174.362
107.679
-92.5519
-246.706
-318.369
-291.043
-86.6405
103.928
245.11
285.764
165.939
118.69
96.5665
56.7001
37.2293
86.0252
57.1921
-41.7227
-78.0536
-111.561
-122.317
-77.1323
37.3178
127.477
226.466
213.691
65.7216
-74.0147
-126.57
-170.111
-101.784
-41.8564
-23.7921
-79.5685
-149.403
-54.8906
-7.46058
-47.3097
-90.8538
-98.9447
-89.2556
-43.6877
72.4958
189.672
202.473
62.6871
-0.522121
-33.1684
-28.3869
77.9965
135.321
128.289
51.6012
-24.733
-14.3639
-3.29866
-35.0542
-85.0194
-98.4944
-91.8109
-57.5372
-15.5601
-6.03367
-58.5825
-91.4272
19.1015
49.1522
47.9451
16.7683
-29.9507
-15.9569
-9.49234
23.597
65.7328
68.3695
0.830497
-33.1829
-4.83337
32.3502
50.0203
46.6976
15.3879
-16.3591
-55.2101
-70.5427
-6.59048
165.772
265.831
23.5554
-37.4869
41.603
-42.0955
-92.4496
-77.6686
-86.8765
-52.101
60.7009
150.805
140.378
182.257
105.15
-177.279
-179.224
-231.442
-164.434
-55.3339
-87.0797
-112.713
-2.70053
-45.011
-125.91
-78.3866
-2.91598
26.3687
34.6274
86.3796
77.7582
12.0325
111.743
89.3821
-36.1932
10.5312
-38.9674
19.2367
113.671
143.872
168.293
190.012
211.765
137.147
-7.35598
-45.9712
-50.0653
-93.7727
-140.31
-14.4488
44.9946
-28.2955
-164.174
-221.05
-123.807
-0.201292
60.441
84.5614
7.80783
-63.6694
-140.532
-183.149
-148.097
-83.3905
4.41922
45.9957
35.3177
68.8694
113.936
29.2848
-31.9392
-2.22987
2.31393
7.15276
72.4217
90.1521
15.7864
31.711
43.7561
62.7921
10.5682
-71.1295
-21.3801
59.1088
67.2205
78.3332
70.4938
66.2067
37.7854
-55.947
-103.67
-72.1232
-42.3294
14.0846
28.1875
-3.3629
71.3022
81.5273
65.3563
58.8477
60.1013
4.47661
-62.9718
-87.2789
-83.3197
-97.8639
-96.238
-35.9481
35.3059
-27.2845
-125.054
-96.2254
-28.9863
-11.9161
29.6389
-36.0197
-79.5003
-77.6912
38.2477
97.0783
-45.5128
-41.6297
69.0833
124.432
195.7
144.251
37.6842
-16.7521
-1.95514
22.8438
12.4706
-20.8574
-36.2713
-27.1482
-14.3612
84.1414
93.9499
20.33
-155.079
-199.119
-70.5488
-14.1427
-82.6051
-116.448
-114.981
-17.1013
29.0359
202.686
303.527
211.66
127.74
-19.3856
-162.564
-114.161
-102.017
-83.7832
45.7589
132.303
91.4253
12.3735
0.83869
20.1579
16.0505
-4.49706
-17.6791
-12.0887
8.83923
-88.0589
-158.737
-79.7687
-59.7587
-50.3533
88.153
55.9269
-18.9585
1.02306
-30.4913
-54.8086
-12.691
-5.50879
-21.8695
-5.22077
15.4026
33.3078
80.7702
119.042
94.8014
27.2489
-80.6174
-119.719
-13.2861
72.4518
40.4957
-23.2206
-10.8194
11.5807
14.648
24.9285
22.8207
29.5173
32.3824
-14.3278
-11.8861
-3.78434
-33.2679
-55.4967
-50.6664
-48.1175
-8.4806
28.9611
47.6772
36.8646
4.32863
-2.30456
-5.96186
2.41397
52.4934
81.8006
-73.4111
-128.921
-77.6009
-1.00188
93.3323
93.2024
41.6569
-44.498
-17.3621
-3.74552
-44.8791
-52.5933
-42.0291
-2.45551
6.66078
-2.62925
-4.73649
6.33062
-8.79315
-21.4838
62.3345
87.1259
60.5636
27.9102
-29.0325
-53.4651
-48.5869
-14.3233
0.738322
25.7353
61.2682
56.9774
-113.584
-280.264
-249.413
3.0185
300.72
313.686
85.6658
33.2803
113.018
126.063
18.3759
-25.3727
-75.2632
-111.853
-97.4047
-48.4519
-18.535
-153.266
-265.422
-147.539
49.6844
349.031
570.569
120.899
-309.342
-242.59
-106.886
-72.6135
-47.8763
-35.5102
93.855
30.2662
-253.383
-138.65
50.1344
36.1927
45.6294
91.9333
107.074
69.5988
78.1603
12.6215
-109.564
6.0749
58.1262
-0.320709
34.6383
28.957
-0.361972
-1.10263
-19.4623
18.7025
144.961
92.1507
-3.93487
1.19026
-19.8154
7.58272
56.2594
12.5508
-19.2088
-59.8222
-131.197
-122.118
-106.453
-91.4222
-17.3916
46.5764
53.807
31.4221
-24.1393
17.0456
121.558
53.3533
-5.20322
65.4951
-8.06991
-32.6826
12.1165
18.4911
8.42033
-36.6137
-107.57
-60.7182
4.13086
0.930006
-44.0968
-97.39
-119.281
-52.4747
6.94072
32.5422
54.3711
67.1744
54.0231
14.3506
32.1801
49.4776
81.329
67.1978
30.1589
9.33046
2.94968
-28.5623
-75.4199
-100.345
50.8805
143.75
125.409
94.2819
44.2637
27.5142
47.3672
-78.428
-193.271
-173.018
-106.048
-163.956
-103.246
-79.8317
80.5236
351.6
194.985
50.0046
45.4718
11.7888
-57.3982
-106.371
-87.4569
-84.3028
-59.3611
-42.2152
-45.6384
2.37708
40.0479
66.567
108.783
158.691
87.594
-145.254
-265.113
-91.1107
12.0762
-81.1983
46.6321
38.3406
-21.8466
-12.058
1.53133
-0.996099
4.05387
9.08991
32.6808
115.991
185.618
192.09
89.1889
-0.913735
-85.9383
-53.1463
8.1217
-173.592
-120.689
52.5448
20.2901
35.0694
9.73326
-13.0772
-7.40035
8.73816
11.1165
-21.2507
-13.3693
27.3982
-0.109715
-64.0253
-72.5554
-35.7298
13.7764
98.6977
133.276
91.8298
-35.1815
-81.202
-102.472
-133.695
-167.634
-120.593
30.7701
174.213
125.781
132.908
84.1139
20.0443
17.3513
-10.6488
-12.9426
-22.4585
-11.6169
-83.3716
-178.81
-98.0622
68.8119
125.299
42.5597
37.7028
69.1767
64.2883
-51.5956
-232.843
-222.237
-126.696
74.4451
213.626
224.459
35.6209
-118.575
-141.001
-36.3226
200.597
269.044
58.8265
-32.0495
-13.9463
8.59211
12.8243
-5.47982
-27.9789
-46.0883
-24.8356
3.36233
-35.9603
-152.66
-215.181
-198.333
27.0846
209.733
80.669
41.3865
53.4643
-31.191
-87.2858
-61.294
-43.7268
-69.1097
-38.3199
29.2476
112.086
132.998
182.179
87.2867
75.5279
116.656
-22.1032
-195.951
-141.605
-41.3579
31.1607
-55.1061
-75.5086
-143.126
-72.5944
171.848
66.5005
86.2066
54.2423
-108.439
-199.199
-35.4874
212.605
267.748
46.7688
-178.816
-7.43715
147.243
75.7037
-1.48751
5.5253
11.6096
-34.1959
11.6486
-35.6577
-159.817
-69.8766
-44.1721
-13.5877
21.6531
31.4425
-62.2948
-154.035
-74.1198
-14.8404
76.16
44.9344
-38.9927
-54.3125
-81.1332
-19.2068
53.3781
67.0484
198.573
155.542
27.1737
49.8014
29.0558
17.95
47.1493
15.9298
-52.1953
-123.975
-105.421
-18.1312
24.6382
-14.9359
27.9238
65.5638
33.9188
-69.9349
-86.6515
-44.4353
-81.972
-66.6765
-27.9548
9.58206
10.5664
-3.79879
15.9666
23.7721
-42.1908
-4.87067
146.37
219.16
119.92
1.16882
-21.9728
-97.4315
-70.0321
36.0418
141.709
204.034
-28.6116
-109.138
-25.5175
-75.3805
-79.1325
-24.5197
-14.4006
-4.33843
10.6951
-55.3276
-133.204
-140.332
-96.2521
-53.4085
-93.4324
-87.9515
123.121
369.626
229.549
-0.910696
-46.0349
-163.684
-269.38
-149.994
50.2992
224.698
251.667
191.498
117.15
-0.545876
-78.6062
-71.0036
39.2629
109.213
-84.9288
-62.6285
-32.7662
-108.976
-140.005
-132.964
9.45292
176.649
202.254
167.781
-22.7222
-308.277
-300.39
-139.223
-14.6753
42.8584
56.9236
66.2219
16.7555
-69.4423
36.6771
119.571
140.137
-12.0476
-58.8687
-8.33898
94.1648
194.68
139.009
86.0928
-8.21268
5.49501
9.1671
-13.9912
2.60694
-64.197
-149.367
-115.488
-81.2094
43.1332
139.961
69.0848
-77.8399
-60.7901
-90.3405
-196.524
-218.073
29.6875
221.42
-147.149
-121.439
81.4351
13.5735
-13.8785
-82.5195
-63.1305
101.75
204.777
174.577
101.164
98.3044
76.463
-8.76437
-34.5541
35.6742
98.8213
86.1417
-90.5807
-257.076
-134.164
-26.0888
-66.7272
-9.82041
63.6653
77.7649
-34.8614
-88.138
-83.8879
-15.5437
61.1805
135.766
-26.1386
-59.9594
-22.9544
32.1857
72.8596
-20.7987
-96.5348
-15.1358
342.142
174.615
-100.644
-229.559
-329.384
-141.251
199.426
325.644
168.746
4.06417
-92.6705
-22.3445
112.367
86.124
8.98654
-39.5024
-108.174
-124.844
-134.315
-69.6206
-38.2284
47.6906
111.883
159.063
144.025
14.5546
-92.6376
-170.292
-166.607
-92.1794
-57.0016
-116.521
-89.7526
2.70336
38.6144
57.4088
115.62
158.913
109.208
-41.6914
-219.783
-85.3399
38.9978
85.7856
105.215
95.5087
53.2771
12.9009
12.1419
27.9195
47.7519
49.8284
41.9218
-1.94683
-36.0643
-79.2894
-59.9892
86.6319
-6.21321
-158.753
68.7106
188.949
37.5979
58.1105
23.7786
-56.7345
-137.344
-136.066
-42.6349
67.3285
-5.33391
-75.8462
2.91501
74.8045
10.4154
-12.6584
-17.3436
-70.6106
-47.0402
2.07956
-52.4147
-109.942
-13.0837
-18.4627
-9.66592
21.3049
59.3456
64.2489
39.0264
0.833024
11.9854
-78.5549
-161.745
-96.1716
57.9661
101.96
146.757
102.542
13.3908
121.061
31.2742
-6.65959
-62.3153
3.98638
124.358
151.23
116.026
-24.7216
-114.252
-120.876
-81.6927
79.8562
44.1759
-10.0949
-35.0462
-30.629
-72.131
-102.757
-31.2416
-13.5637
18.6351
-20.0565
23.9425
-44.849
-127.694
-96.8624
-10.1814
73.3113
57.5271
-39.2015
-73.079
19.3725
27.6785
-106.287
-144.233
-34.4222
128.221
214.604
238.301
150.814
55.6266
17.1078
51.9369
-2.65835
-73.4948
-48.2199
22.5385
-47.7003
-224.202
-88.8211
73.3485
66.2414
259.67
18.0561
2.0375
26.0225
-83.6109
-140.93
-131.843
-91.1684
-45.9865
-43.4896
-33.219
-0.0853475
40.5841
41.8679
-22.5428
-20.2235
100.904
50.3621
-21.8394
-3.27634
-26.559
128.046
128.31
23.0931
-77.3837
-126.958
-47.9044
60.7661
110.786
-39.8108
-88.0746
-53.8198
-30.7877
-84.0852
-84.4563
24.7216
179.466
199.153
157.075
30.3029
-75.8345
-26.3933
-37.1839
-60.2686
9.0593
101.884
30.521
-17.0933
-50.7946
25.0761
-20.5925
-166.275
-124.862
12.5431
-51.1678
-54.1312
-50.2106
-69.981
-73.3348
-61.4618
141.693
260.074
118.31
79.0646
60.9114
-18.5194
-75.718
-117.208
-129.167
-145.708
-68.2681
150.794
188.055
104.558
97.709
78.6266
34.7087
3.5226
-4.37035
-2.94789
-115.532
-132.069
-33.6853
-23.9388
-45.909
-65.1938
-11.5484
22.1082
53.2458
61.5574
-35.2897
-64.3292
-72.7545
-31.1706
24.2842
20.0864
-21.1624
10.479
60.1011
-11.5866
-30.3676
100.208
33.9586
12.0098
26.5874
-25.4
-29.233
-6.20854
-1.76236
35.7834
89.4488
64.0202
62.0409
-9.66509
-32.7
6.02201
27.7446
-4.38167
-37.776
-2.80801
-64.9936
-113.217
-3.7858
7.82447
-8.15089
-12.8616
-5.59506
13.3074
-12.7589
-74.3369
-106.855
-105.57
-59.6219
56.2701
-15.6999
261.354
361.933
39.4635
18.3897
-77.6525
-104.444
-19.0779
91.503
52.6618
-34.0156
-57.1858
-138.296
-135.934
-75.4417
29.5275
104.203
73.9822
-50.0719
-138.572
-112.579
-245.162
-163.404
153.803
108.159
89.294
54.7215
73.6779
79.3226
125.825
123.813
92.6989
86.6004
18.3681
-21.124
-24.3007
0.992804
9.16685
23.1031
-17.5275
3.48448
-66.6064
-150.935
-137.93
-84.3689
13.0607
42.038
-73.8066
-100.987
-73.8352
21.1517
128.328
102.077
-8.00293
-57.4357
-6.51673
36.304
12.865
-21.4027
20.3266
62.576
38.382
7.10625
-3.28281
-3.97082
18.1987
16.4925
7.01451
27.9721
17.0076
17.9384
4.4886
49.93
67.5348
-16.7902
-68.9741
-69.0876
-108.309
-88.63
-80.0177
-72.8734
-9.31847
52.8987
89.5916
112.869
64.4899
28.894
6.25405
-35.7868
19.0723
28.6848
-43.3033
-34.9916
-21.6315
-126.34
-163.194
-93.9439
175.512
416.248
163.072
59.9807
-45.0739
-192.773
-128.804
-9.45687
29.8465
53.0363
65.1293
-10.7409
-67.7844
-41.3386
-27.6675
-81.1528
-110.046
15.6246
95.7651
72.0065
-89.3763
-259.591
-79.1462
-9.62518
-4.99863
40.4651
52.2087
17.7166
82.8081
114.911
24.2954
20.0132
-5.75534
-46.5121
-11.7731
87.5336
149.438
62.9893
-82.1948
-161.968
-15.5394
107.532
129.691
75.6511
48.6735
52.308
54.262
-8.52206
-59.9981
-92.2573
-51.1859
39.6058
-38.5852
-200.468
-234.048
-56.5517
205.88
255.26
-16.2381
7.95224
78.7507
-105.397
-114.744
-87.0532
-20.2738
31.7419
-20.1879
-168.822
-150.609
-59.414
-46.2582
95.1155
159.795
198.42
162.714
38.5066
-114.223
-86.8352
128.797
129.427
-77.0469
-153.129
-164.067
-61.7947
23.5125
157.355
169.412
208.416
133.793
1.6612
-34.972
-145.201
-113.671
-34.6903
-35.0344
-116.508
-128.387
-46.3938
10.132
-52.5736
-40.7694
141.962
292.021
63.2818
27.1323
-13.4906
-116.542
-87.2954
-34.8123
4.78546
14.4869
-5.42127
-24.1458
-10.4946
27.2094
24.4691
-17.4556
-13.3009
68.7017
104.535
-10.2395
-94.7723
-88.6263
10.8403
-24.0819
-83.1938
-47.8375
30.6971
-8.31293
-80.4757
-84.4531
-84.317
28.02
176.952
253.064
316.311
111.374
-64.3554
-81.8955
-110.05
-102.758
-95.2519
-29.41
58.2591
56.4841
22.5165
17.164
12.2064
5.17919
32.1519
113.099
65.4331
-186.338
-410.578
-292.91
-78.1799
178.673
235.568
145.033
67.9027
20.3866
-28.2299
-136.268
-137.12
-207.273
72.8519
355.877
417.726
152.761
-85.1256
-42.2267
-18.2342
31.5088
71.8435
-28.1052
-191.524
-241.906
-183.452
-71.106
46.1306
112.353
79.9535
-41.1868
-119.555
-27.2138
-81.3858
-231.309
-257.893
28.6288
91.9126
51.2224
206.633
190.075
157.502
89.8916
5.84302
-12.0256
18.6775
26.5861
28.3877
45.3348
69.23
104.543
130.323
68.4832
-109.812
-168.481
-114.903
-62.6607
26.5692
-49.1466
-105.508
-30.347
17.6833
24.0627
-6.04773
-20.1414
-12.7186
-9.27799
10.9713
-2.18913
21.2159
64.8648
101.533
65.0497
-43.7502
-94.8117
-156.535
-30.8694
115.555
77.8966
-47.1228
-48.2102
-59.3652
-77.6384
-31.8827
1.72854
22.7721
-14.9135
-76.8127
-28.5379
-0.135246
35.4709
88.2057
84.795
-24.0629
-9.8554
141.044
239.255
5.31046
-16.4613
46.4612
25.7854
-40.6385
-18.0964
-14.4866
7.24392
-37.2726
-26.6415
9.47877
35.5569
-13.262
-120.327
-112.464
-76.7061
-15.0699
-20.7651
-82.1373
-180.815
-54.0826
17.8673
43.1775
67.5536
57.6146
97.8075
71.0755
9.99503
-9.68407
-32.2071
-183.734
-197.672
102.258
434.053
196.328
-30.868
198.452
157.216
121.343
24.6881
-175.442
-81.4724
-55.2072
-90.219
-80.9128
-106.708
-62.9525
-35.657
-60.0078
-70.2389
83.5344
84.6987
-102.219
-209.099
-77.0888
2.33697
-73.1809
-16.9569
-48.383
-66.941
94.0138
79.0311
55.2273
67.6649
105.551
95.2657
8.02771
-29.4048
-2.41513
137.654
147.19
41.8766
20.5757
59.5185
-62.8284
4.41895
-24.4493
36.334
-42.5423
-115.361
-71.0001
-44.7834
150.769
79.7576
-16.4864
-38.5906
48.9549
45.8684
3.27071
-189.64
-189.918
-71.0668
-69.1671
-133.177
-10.5661
24.7746
21.8009
-5.6535
-0.903225
15.4089
71.1008
82.1675
-28.2611
74.2129
89.4784
48.3274
-6.90638
-20.5995
19.7195
97.3685
101.1
52.8523
-11.9879
-79.7182
-42.5503
-20.8904
-27.974
-77.2362
-51.2999
11.2306
70.4059
75.6761
-18.7664
-100.873
-83.0805
-54.6991
37.3681
140.443
49.7887
83.5327
84.5731
-8.85513
-97.3095
-134.556
28.8608
30.4216
11.1317
-249.421
-269.282
-167.705
-56.9675
32.482
130.79
295.778
352.162
336.372
81.3463
-110.418
-85.7169
-86.1237
-121.488
-87.2785
23.5109
-54.5689
-21.3014
42.4921
-25.5264
89.179
136.277
92.4937
26.7276
-96.4857
-185.112
-202.941
-162.745
-136.491
-106.036
-80.1288
9.80197
31.6576
135.821
158.441
90.0156
97.7602
-3.25731
-37.958
20.6075
103.193
97.8208
80.76
43.2283
-19.0538
-37.5122
-58.059
-52.1847
-7.50613
67.5285
63.5569
-17.0333
-116.547
-176.569
41.374
132.387
109.184
-120.08
-146.276
-107.851
-2.59051
121.029
112.667
85.4371
62.1458
30.124
-13.3822
-48.7313
-76.1178
-86.9424
-32.3388
67.5072
105.702
50.5471
-70.2859
-120.61
-110.066
13.8638
78.8575
120.262
74.5894
-97.8261
-157.713
-64.9869
47.3216
-60.8039
-42.2208
171.76
191.631
127.555
0.701275
-205.747
-103.724
-1.12416
-74.3694
-118.218
-36.6613
11.0333
0.585359
9.37156
121.055
114.579
82.0139
29.4004
-11.4621
46.2576
8.01315
-169.334
-206.34
-115.607
-43.2015
-30.2412
-64.4821
63.8129
273.182
290.291
181.729
104.991
43.4819
-34.7682
-104.473
-19.0162
30.4307
-25.2143
-102.414
-88.8573
-95.9312
-121.29
-41.1805
30.9855
103.671
172.866
187.327
-1.29302
-207.274
-171.965
-120.567
-99.9043
-99.3049
-20.5741
-31.5533
-8.05864
117.153
160.209
138.129
105.643
69.0292
25.6248
2.96698
-7.87324
-15.1395
-18.7742
-129.078
-197.971
-69.291
-30.3925
-10.9289
-50.2745
-106.905
-14.4892
146.366
179.225
67.1807
-13.9034
-63.3259
-50.3864
23.3624
227.482
104.613
-56.0268
44.5816
109.911
86.1961
8.71437
-105.638
-80.7634
-120.126
22.2467
117.99
40.8883
-40.8021
-45.9462
-83.6277
-140.004
-187.004
-25.7384
60.2585
-46.7618
87.3119
-102.107
-138.105
78.5188
174.965
180.74
86.8374
1.17257
43.8628
40.7409
28.9054
32.0438
-14.2221
-151.679
-147.422
-12.0325
139.312
79.9733
-79.0492
-102.018
-175.762
-81.3101
-26.1556
65.8028
23.4641
102.431
125.848
41.2719
30.9927
34.6336
-35.4406
-185.792
-195.717
-6.99792
251.603
273.974
140.284
-72.1479
-84.8425
-97.0449
-115.616
74.1549
176.122
-0.540873
-138.648
-145.022
-179.646
-191.81
0.344268
91.3324
136.41
172.401
107.334
-8.69881
-205.09
-151.127
-51.6934
29.063
178.712
209.999
132.717
62.8054
-61.2264
-77.5941
-18.2793
-64.8678
-16.1525
73.414
19.0023
1.6967
-87.8255
-61.6075
8.64017
66.924
108.866
4.09891
31.7275
10.6928
-77.5539
-131.827
-128.036
-47.2668
-77.4277
-98.823
-23.938
56.0041
72.7746
38.6571
-6.12441
29.884
81.3645
-66.3037
-80.3027
2.90093
100.789
137.903
74.8487
171.262
217.715
-104.47
-42.2702
14.9603
-63.1962
-80.1457
-57.2356
-26.0493
-7.5542
4.5383
-78.2886
-251.098
-205.554
25.0923
277.816
215.351
38.3038
-101.333
-161.536
-104.942
-95.6227
-76.6089
-21.296
92.6449
236.233
241.788
182.517
103.467
47.0345
-22.4169
-141.101
-88.291
39.9421
122.4
-108.695
-400.165
-225.445
132.932
0.721828
-106.043
11.0201
122.854
80.4449
-2.13117
-31.8572
-44.567
-29.1665
-19.3213
-51.8328
-41.3239
142.123
221.617
151.689
12.3952
-15.9059
71.4871
-4.54047
-169.118
-121.421
-64.1996
18.3231
176.803
81.407
-0.606222
3.20632
-65.9592
-92.372
-54.4862
12.8073
84.6881
80.0836
-6.87601
-47.705
-39.4223
0.467991
40.8516
-16.8683
-50.4858
44.5824
12.4159
-80.5447
-34.4811
30.4722
-22.0502
-106.022
-79.0415
-68.937
-72.4527
-24.4656
33.152
11.0738
19.083
170.699
225.903
-109.839
-87.9237
125.782
44.6403
74.7384
127.375
35.5039
-71.2752
-27.3576
5.6617
-18.1671
32.665
120.581
-77.9184
-134.99
-43.558
-92.9925
-111.586
-122.222
-36.0412
120.964
129.863
23.9105
22.6625
-30.5708
-115.591
-104.407
69.7944
-5.77777
52.7116
23.4193
-3.80564
-39.2327
41.6718
82.8394
135.108
103.018
24.8578
-70.3571
-221.812
-161.041
-43.8696
147.954
147.72
169.42
191.458
119.179
-52.5359
-130.917
-142.211
-92.4856
-109.941
-96.7483
48.5623
115.523
-56.0515
-96.0523
-112.868
-93.4345
-46.1377
279.963
232.66
-181.263
-149.772
-104.827
-57.7062
-0.0637415
-26.9977
-8.53288
28.6825
37.6732
47.6242
104.723
216.619
111.393
-95.8981
1.79941
75.15
72.2916
47.5632
-71.4564
-73.0703
-1.64794
9.33691
23.2804
16.7948
-26.7987
-6.55532
49.9304
-6.59276
-35.3063
-49.2501
-90.5428
-127.17
-93.6927
30.019
58.0795
79.0094
10.0109
-56.6174
-25.5752
-75.6622
-79.5989
-46.8928
5.41357
39.0273
49.7635
78.6095
97.5737
43.5705
-18.3626
16.4458
119.845
232.75
-9.71864
-172.384
-290.722
-311.735
-147.23
208.514
287.308
84.7979
-69.1545
-56.3505
234.445
334.965
191.827
48.722
2.03895
-29.3708
-60.2706
-106.782
-211.673
-264.94
-81.0243
-30.2025
8.13455
-60.6523
-195.063
-226.669
-151.485
75.6291
268.436
244.733
-49.0853
-181.229
-101.042
-10.8076
35.0786
50.9985
58.8931
69.7086
74.9213
21.81
49.1071
152.416
150.093
211.799
172.445
-104.689
-192.278
-54.5654
20.6772
-25.8299
-66.318
-58.1906
109.446
3.61651
-35.3685
-9.2801
-58.2666
-50.9458
-87.0494
-145.008
-64.1092
5.9762
50.6105
94.7435
152.979
155.259
32.2866
-76.917
-182.586
-205.961
-133.807
54.8885
31.4817
109.791
57.5028
-36.3524
49.181
188.788
95.3137
52.4706
26.7145
-49.2505
-111.967
-135.795
78.5142
82.9129
-205.224
-102.707
83.685
75.9792
11.5543
3.10299
-45.9329
-34.4674
-3.5662
-41.6014
-57.4525
-50.4566
10.1731
30.0752
5.15686
54.0481
84.9746
78.4889
-58.3734
-45.197
104.13
50.6226
-42.7521
-37.2915
-21.5817
-37.4045
-5.98234
-21.7232
-36.6309
37.6287
77.3388
-14.3305
3.42876
-2.57446
-32.9538
-33.2724
32.4474
102.638
47.3004
-37.9198
-42.701
-73.2664
-11.5581
58.0051
25.9291
-5.89036
-76.2685
-122.317
22.3653
157.447
81.3095
-88.0165
-93.3053
129.229
180.626
141.021
102.404
-85.9534
-198.391
-28.9694
107.704
33.3345
-6.74822
-19.9975
-55.3998
-128.342
-46.1341
167.024
-73.9833
-147.897
-152.095
-95.3286
-17.0613
-103.809
-95.6027
-62.8528
-54.1978
40.6486
102.015
50.2066
57.6118
102.951
24.8184
-30.9924
65.0608
49.3368
12.1924
55.4045
63.3679
-135
-163.131
73.0836
457.634
340.023
83.5949
38.0958
-46.7312
-38.1213
9.22162
-24.7497
-65.1918
-24.8127
-68.8092
-103.949
-139.385
-173.487
-136.343
-141.993
13.099
173.111
176.343
-12.1672
-252.683
-325.252
-133.355
-78.9188
24.3774
117.142
136.061
107.112
76.095
21.6185
-13.9789
4.73739
-3.41888
56.9684
180.086
201.154
190.472
162.547
151.899
101.236
-44.2952
-102.698
-237.714
-176.957
-151.734
-167.005
-131.067
27.5301
19.2914
-5.7399
-125.905
-221.452
6.13781
261.629
280.096
183.896
50.9951
-36.4381
-38.9534
-29.4874
-81.8903
-129.959
-65.8019
-30.8129
8.95539
73.0325
80.9431
-72.8961
-30.2918
46.0023
-129.723
-41.5294
-5.54957
208.957
99.4828
-28.5989
-93.8171
-95.1412
-44.8578
-20.8826
-21.3595
68.302
135.136
93.368
38.3148
-9.38002
-22.1957
-20.6371
-65.7753
-55.3767
185.986
237.822
97.717
-202.284
-207.189
-112.5
-54.5565
7.53135
-51.5254
-111.913
-72.8432
142.501
195.309
132.58
179.386
161.522
-15.6938
-134.5
-219.909
-220.541
-7.91515
47.6679
-29.6644
-146.22
-153.716
-2.65511
112.425
9.50549
41.4621
151.215
112.917
-12.5849
-40.3534
-65.3937
-99.4796
-18.1809
179.111
154.949
103.583
-5.1589
-14.7028
47.2897
-27.8796
-42.6236
-75.5458
-115.501
25.2573
51.1279
58.7969
87.5752
38.8011
-84.2672
-186.412
-229.956
-82.0999
-79.762
-87.0734
108.712
337.692
185.665
109.632
79.8647
57.4872
-31.8565
-160.068
-267.331
-194.22
222.801
102.893
-4.57553
38.5089
-41.5958
-31.8783
53.5522
-66.2029
-174.08
-138.438
51.3012
69.3898
262.909
156.536
28.9015
-54.57
-205.84
-160.92
37.566
51.2677
-102.511
-35.6078
-35.3327
-56.9562
44.3117
127.758
131.938
11.0955
-135.569
-279.93
-204.646
356.764
446.276
-29.1112
-122.299
18.9267
105.535
204.859
157.654
-43.5571
-29.277
72.0003
-45.4154
-39
17.6068
51.3233
-276.617
-357.395
41.9059
376.817
74.0075
-546.794
-524.403
-195.619
283.964
464.351
203.69
34.7966
72.0149
98.9547
-122.692
-154.628
-70.1131
-71.176
-58.3443
-76.4916
77.5763
134.453
24.084
-83.0495
-54.8259
-47.8918
-54.223
112.767
-40.5232
-118.548
44.0632
87.9496
122.106
94.5316
-19.584
-83.4755
-181.712
-119.479
32.9911
98.7888
196.812
225.399
97.271
25.5212
58.3832
17.0268
-91.8033
-226.592
-325.847
50.6878
631.634
351.07
-17.5311
-162.113
-147.451
-135.352
-5.74934
64.7424
94.7094
60.4527
-56.835
-70.8892
82.8145
-114.634
-312.38
-107.849
1.39449
104.639
73.987
-171.869
-398.795
-258.365
-193.231
-39.1758
224.697
271.856
178.884
-82.617
-260.061
-29.1819
342
399.48
316.407
-33.8523
-224.643
-101.231
-125.733
-71.4527
15.3812
30.2521
39.3957
132.045
136.284
83.5155
-11.16
-33.9223
28.6792
173.931
170.763
-168.519
-386.618
-360.308
-275.216
5.21113
286.359
25.0496
31.2052
338.142
510.567
139.144
-243.399
-259.01
-205.374
-131.971
-77.5665
104.201
42.6273
-296.46
-380.05
135.37
705.964
544.361
-169.213
-157.797
67.2424
67.6749
-8.88718
-135.376
-268.311
-275.955
-211.352
-126.201
-67.4108
69.6883
322.563
186.061
62.7676
121.217
108.203
-47.2338
-283.284
-277.498
-51.6085
14.1469
-162.109
-89.2703
56.1201
224.187
297.246
239.78
195.044
178.664
102.148
-53.9714
-280.019
-232.722
-187.488
-98.4862
231.885
146.849
-174.68
-210.807
-0.669464
56.6219
103.615
108.957
29.0303
-132.237
-262.079
-95.3263
13.6548
109.2
142.539
63.6107
10.817
-8.18819
74.9633
208.824
176.867
-67.0474
-225.694
-240.706
48.4307
108.447
118.955
116.024
-202.702
-225.152
167.494
369.538
2.79383
-21.0914
-19.2856
-20.1726
-66.9395
-92.8139
-52.7902
-16.0353
-138.807
-167.155
-338.312
-310.815
44.3101
635.855
427.604
77.7286
154.365
76.0804
-199.224
-318.408
-52.7668
-71.2987
-41.4479
-10.2957
-64.1638
-135.509
-131.097
-104.593
96.0273
119.483
217.003
354.391
54.6715
-406.534
-479.938
-257.766
154.536
440.447
309.956
94.2482
77.1362
62.9323
79.5368
118.893
80.7837
-4.95294
-149.023
-228.79
-253.249
-69.2003
311.113
451.01
-55.1736
-219.915
-13.2044
-62.869
-209.561
-267.948
-16.8543
45.1246
54.5242
63.0498
-25.4694
10.8777
79.037
134.036
170.732
157.097
5.66243
-175.188
-220.979
-288.966
-227.139
-57.9536
175.124
132.832
140.722
21.3488
-200.566
-97.1108
80.2623
14.4315
-122.543
241.564
339.049
-86.061
1.68854
41.7109
-8.4724
30.5272
-21.6074
-103.266
20.0648
125.747
174.302
93.6363
-30.6131
-160.524
-190.235
-82.2396
-158.913
-160.591
-42.2782
-99.1256
-107.167
120.511
170.924
240.12
176.046
53.6229
-125.666
-239.052
52.296
9.19057
-143.642
-55.7758
-41.0671
-183.107
-241.564
272.537
589.89
282.316
235.2
136.292
-45.3188
-45.285
-9.23728
-74.2343
-90.3727
-25.2649
2.34392
-6.10716
-65.2535
54.6769
-177.232
-270.085
-82.9386
90.8101
129.534
-201.876
-431.486
-115.743
62.7566
-181.501
-225.524
47.5805
149.076
142.258
131.622
67.0491
-10.7446
85.9132
248.109
206.824
71.0933
179.164
99.2269
111.99
63.7079
-138.851
-208.478
-125.779
-49.6711
79.5354
161.682
7.51067
-187.566
-149.702
-115.514
-41.7639
100.524
159.465
-3.72567
-175.543
-84.5775
-84.8301
41.0286
90.03
97.1472
20.4938
-8.50019
-15.2945
-57.3496
-88.7122
-28.5841
59.5792
227.297
163.742
-144.188
-146.208
-6.14059
9.14284
-5.01881
-34.5721
-18.3418
-65.4957
-192.032
-59.7498
101.682
106.827
123.582
155.88
105.458
85.4681
122.883
146.768
-95.9441
-478.999
-682.549
-295.028
544.171
448.47
83.0566
161.197
253.262
171.84
-95.8994
-217.308
-78.7331
-19.4669
-91.0658
-105.136
-81.7254
-116.656
-123.601
-25.53
97.3805
123.069
251.966
85.9466
-258.537
-188.775
5.35612
-74.3613
-115.185
-154.959
-151.616
-44.7349
99.7931
161.911
270.341
252.25
127.09
-4.50724
21.3415
137.852
53.9114
-66.5719
7.9341
33.4333
-79.4351
-67.113
-39.5967
38.8722
131.091
-183.466
-280.787
-416.804
-222.041
314.054
246.332
64.725
156.22
87.9162
-0.773917
-64.8256
12.0042
108.22
29.108
-54.3549
-123.667
-102.338
-39.9699
19.181
-63.1257
32.2035
238.698
287.044
30.322
-390.001
-315.882
-24.8765
-87.4187
-40.9996
-52.5165
-8.13672
186.864
378.699
123.23
-244.271
-75.1676
15.155
15.432
-64.6861
-52.2517
130.899
177.649
236.075
170.041
-32.575
-203.1
-136.829
-41.008
199.981
53.782
-304.797
-267.198
-6.85901
132.411
196.715
-63.8566
-202.99
-48.4079
47.5722
81.0111
30.93
-99.5162
-22.9856
191.628
194.957
83.4971
-8.38349
-145.152
-421.995
-148.452
178.478
-13.0872
-72.2675
481.762
193.228
-67.5863
31.7387
-3.13717
-34.7485
-55.5708
50.6853
53.0304
-34.1905
-242.343
-303.783
-54.7308
-25.4832
11.7971
85.5849
64.2068
25.3056
74.1911
-36.7233
-417.107
-154.347
118.41
198.78
131.624
61.0899
58.5731
55.4768
22.485
0.162109
52.5368
273.321
108.501
-60.4195
85.7652
63.5175
-104.485
-145.271
-39.8545
-77.8032
-132.359
-29.4605
-107.901
-96.3269
82.2232
85.875
78.3192
150.476
339.99
143.012
-83.2075
-202.429
-141.148
-54.8825
-121.189
-131.385
-83.7709
-13.8533
47.0647
61.8964
15.2652
52.1477
123.074
65.8487
-16.5896
-118.726
-225.784
-208.322
-128.438
4.73379
71.3544
23.0738
-42.2138
-158.877
-216.579
-37.3219
360.167
551.294
358.551
174.964
45.8692
-8.39835
-61.0554
-109.102
-135.715
21.7951
-16.1087
-238.027
-198.498
179.008
276.273
-68.7884
-26.6976
90.9845
76.7707
-1.55457
100
157.027
-116.276
-427.563
-416.367
-202.514
-10.7609
70.3911
33.2793
6.26454
89.8685
116.437
-50.8266
-366.897
-337.594
202.891
530.073
224.601
116.253
248.725
109.945
-160.87
-116.112
52.6499
76.4598
40.6459
9.31689
-36.098
-93.6375
-141.953
-89.4465
72.3842
154.893
195.088
139.079
-190.211
-379.804
-139.941
-27.3185
-71.5698
-214.309
-247.584
-26.4559
122.966
84.0258
38.5504
61.8307
48.4561
73.4583
107.41
200.805
167.215
36.8316
19.673
76.292
100.984
-85.805
-126.007
-11.3226
32.7175
-112.96
-161.04
-104.687
-66.3092
16.2787
191.606
340.158
230.128
93.9857
15.7076
-13.0945
-20.5189
-85.3191
-121.093
-165.656
-111
-134.23
-59.1887
41.8149
157.334
8.57515
-54.7792
-189.149
-229.425
16.8853
12.3589
-131.915
-118.916
35.069
131.132
41.3623
-34.3514
-28.4924
-29.4251
-17.1763
-144.172
-331.38
149.995
513.178
182.508
208.481
103.047
85.6824
124.795
-113.857
-155.13
-54.7063
45.108
34.9354
-19.6154
-21.8393
-22.4459
-16.1162
9.99603
11.566
106.671
211.295
-83.7018
-395.433
-325.748
-279.608
-66.7302
262.503
497.958
337.126
217.657
-22.9658
-186.334
-151.248
-146.027
-97.9666
-106.131
-73.6498
-15.5308
19.446
82.4036
155.276
65.6366
-58.5669
-89.7905
-32.7909
-45.2719
-271.712
-251.766
44.2338
173.086
115.281
-10.765
-110.271
32.4124
445.546
472.033
323.548
58.4452
-245.606
-236.545
-98.8702
-95.9743
-66.587
24.5936
-51.6358
-63.6967
-4.17289
-82.8369
-120.634
-171.121
-110.351
39.6063
89.9264
21.9877
-228.919
-218.057
-174.286
-142.114
31.3706
314.394
424.314
327.301
123.09
28.3858
64.5128
102.379
130.63
170.559
-56.9283
-383.441
-272.496
-341.157
-165.566
349.889
316.907
-9.01588
28.4688
187.645
230.762
-51.4716
-224.687
-181.426
-86.099
-42.371
-2.0566
-4.97699
-126.26
-155.231
46.8749
227.293
39.728
-34.4713
-64.1565
-199.704
-213.447
-104.939
133.056
73.3506
-101.097
65.7918
132.466
125.718
118.622
-298.697
-367.564
193.287
575.946
177.174
31.9529
179.434
252.075
239.316
98.7024
-186.415
-202.742
-37.9852
-170.474
-169.145
18.5062
-126.863
-289.691
-163.519
-60.5159
107.579
86.3997
-187.372
-272.464
-102.514
-18.8105
-50.3078
93.2339
98.2701
43.0402
87.5016
98.0456
127.275
79.8031
46.6536
20.0211
19.786
96.6527
95.2217
44.2642
162.265
217.346
23.495
-204.294
-156.478
-38.1048
-30.2347
-48.1408
73.2652
188.415
38.2308
-74.7996
-22.5616
-34.2147
20.9055
-18.0634
-87.0881
-67.6086
-273.999
-571.351
-406.912
343.072
682.226
240.445
92.3163
102.526
-16.8894
-79.6361
-21.8923
-98.9329
-105.103
-46.6069
-70.8252
-68.8333
-41.5607
-31.398
-48.3935
-83.4645
49.6012
393.625
412.446
-57.5663
-303.144
-291.645
-237.092
-106.288
33.021
62.2959
53.792
-17.8204
-54.6539
-15.4581
104.961
243.506
241.559
124.73
99.3421
115.916
52.9591
26.031
-9.17777
-132.766
-206.987
19.7719
94.3505
-22.936
-60.6104
-95.6278
-45.2479
1.91138
-8.41356
-49.854
-106.598
-264.536
-196.859
48.7322
286.866
116.812
145.155
197.317
-89.7329
-175.777
-134.228
0.523443
-2.9333
-31.9825
39.9903
68.324
73.463
26.35
-48.6971
-60.4767
-71.2968
-73.6081
-174.633
306.353
298.16
79.0699
-15.1391
-114.098
3.00622
-36.5624
-44.7172
15.348
-30.0607
-110.792
-51.5502
31.4534
77.4406
157.229
63.7859
-18.9441
-42.786
-206.028
-280.354
-297.359
-77.4235
240.758
242.663
42.76
0.0744891
-29.7528
89.1483
72.875
34.8568
102.029
31.7673
-22.1944
-51.9506
-10.2752
11.9081
11.4288
89.5989
284.51
279.481
-59.2529
-283.597
-276.046
-247.178
-131.363
2.66091
66.1334
-31.9693
-38.4558
17.7256
50.0435
78.8299
60.4594
-132.163
-121.386
158.249
185.886
48.2642
39.8813
173.979
22.4182
-68.5151
-78.6582
-127.704
-80.2576
-99.0551
-94.6278
-25.1874
159.34
77.9141
76.1499
111.389
-62.0465
-21.0706
-15.2903
-61.7955
-37.6867
5.27182
72.6907
-4.34924
19.9006
-70.4897
-118.296
-63.547
7.63949
59.9912
36.5154
-10.0632
48.5767
138.906
-12.7588
-162.408
2.02615
193.761
13.7401
-66.3191
8.1467
57.4195
67.4794
67.2644
-79.1877
-227.501
-121.86
10.8871
79.7891
66.9416
-40.0171
-112.727
-154.579
-9.45136
113.298
45.3294
-171.603
-397.226
-208.399
428.515
725.38
295.558
108.47
58.608
-27.3078
-3.01407
-45.9848
-255.849
-263.867
192.153
391.894
-73.3371
-230.193
-201.275
-175.595
-39.8004
227.813
88.4836
-112.278
-261.303
-394.545
-194.597
-89.6408
-71.3902
-26.0832
102.016
222.931
173.351
95.589
16.5653
31.5924
47.0547
178.324
186.09
141.477
51.3634
-84.264
51.0798
85.1089
-116.171
-104.785
4.10784
-117.99
-62.0875
69.2552
74.6062
-49.8028
-41.0209
-56.4469
-73.5104
76.4833
360.967
152.445
-109.799
-158.814
-207.759
-183.44
30.7368
174.681
46.6754
-211.438
-268.788
-16.0111
96.1985
50.8041
56.5174
16.4118
27.4763
7.31709
-249.334
-365.809
-180.731
-48.6027
183.717
651.466
612.157
368.244
157.788
58.7032
-23.8582
-22.0893
-3.94871
-128.474
-239.296
-226.484
-221.336
-187.472
-28.4115
101.178
-15.9036
-133.106
-162.806
-88.6218
-59.359
-330.487
-237.136
-0.162826
45.3822
-71.8292
-115.75
143.216
506.068
238.236
89.7856
120.281
81.0742
160.542
159.225
57.9134
24.7194
27.9271
-77.5159
-289.813
-258.892
36.8881
209.249
23.2346
59.8005
120.852
34.8718
-128.517
-278.331
-23.9057
147.465
113.516
72.1091
-42.5573
-160.183
-231.943
-196.542
-16.8916
199.549
295.492
128.914
-158.117
-181.161
13.6102
69.1954
53.3211
142.989
-24.7117
-142.49
-42.2292
-139.045
-129.635
-13.0371
-118.612
-370.685
-180.259
506.781
592.567
251.647
146.363
46.5339
-84.8093
-207.188
-307.012
-198.651
127.123
287.102
200.131
46.3076
-79.2425
-63.3867
-99.3684
-134.317
-28.3159
68.6329
96.4254
-192.952
-339.056
-39.8811
-71.5048
27.0615
213.379
-27.7208
29.4136
213.601
154.821
-321.094
-357.219
-183.269
30.775
196.079
133.638
38.6485
144.202
376.371
308.668
75.5921
-67.6326
-152.31
-77.4288
-59.781
-216.478
-23.9382
180.936
57.1462
-132.112
-167.556
102.055
134.071
-32.0166
-133.243
-54.928
11.0595
-22.7605
20.4655
6.80526
-65.1309
-34.4823
-46.5026
-33.4908
15.312
79.1058
84.6137
0.546208
-184.293
-251.521
-121.312
3.64537
266.005
566.993
240.078
-70.8674
43.8196
80.6155
-63.4144
-161.815
-158.896
-75.3694
-123.319
-263.752
-337.085
-11.3001
526.445
245.017
128.534
140.329
179.096
-86.6449
-241.656
-284.463
-77.1239
4.30302
-208.067
-222.924
-6.20214
356.14
113.279
-127.823
-126.893
62.4127
385.956
264.407
-125.146
-147.745
-79.3817
-33.3644
-27.7395
28.3799
-82.318
-160.058
30.3769
122.748
169.983
55.5073
0.891847
-117.368
-9.28267
121.087
190.044
205.493
-93.3977
-396.039
-400.625
-252.934
7.84063
126.891
146.597
135.527
36.0442
-58.1758
-32.9285
-60.6594
-42.0224
177.425
209.39
130.05
189.477
107.384
-22.3462
-82.5784
22.7768
19.9287
-92.6975
5.07616
25.1144
-78.4642
-49.254
19.3887
66.3297
-75.4376
-149.812
24.7505
72.109
-105.208
-136.95
-110.313
-16.2143
21.5405
11.1211
-9.51396
-69.7532
-67.8099
45.4583
95.684
-41.0575
-61.3829
5.07904
28.9409
61.2094
62.4013
57.9374
9.62053
-43.615
-20.4268
65.473
55.02
-75.605
-101.815
-31.4279
165.279
41.5006
32.6312
-83.8079
-325.705
-132.72
592.617
552.653
96.5663
-24.4794
-58.6259
17.8815
-39.7463
-141.499
-80.1804
-126.847
-209.849
-116.035
-3.45278
10.8211
-87.0725
-20.1712
-55.6963
-78.3073
-32.213
-139.541
-283.695
-81.5135
123.281
174.295
113.79
-105.798
42.4464
476.714
435.274
-51.9135
-1.73559
0.533256
-17.2079
-47.2104
-49.0112
-30.0702
1.55703
146.323
183.617
38.2806
-158.088
-299.953
-174.826
-127.462
-77.5459
0.143099
-24.3928
-190.982
-109.337
112.318
28.9724
34.317
2.87854
16.0934
50.1596
106.378
83.3471
9.31134
87.2096
166.832
29.044
-54.0663
-1.27045
107.596
134.116
-30.116
-48.1061
-66.1184
73.218
-19.5158
-29.1429
31.9052
-29.1494
-161.025
-243.165
-140.577
17.701
157.293
217.264
108.484
-55.3007
-57.2971
-45.7484
-109.653
7.15964
153.557
37.336
-43.553
-187.713
-1.86807
-3.03234
-157.103
-183.109
68.7782
206.995
119.704
-2.08728
-102.317
17.3564
24.4552
-74.9468
50.6361
28.8678
6.53866
14.6681
94.7372
89.5924
36.286
-49.2944
-102.415
-49.7508
13.3173
84.1395
17.8845
-6.63773
47.9956
-78.6555
-251.196
-99.2887
447.586
252.155
18.3332
2.74183
-78.979
-264.359
-211.166
65.2937
369.509
229.979
-21.1375
-39.4293
-38.6471
-39.0853
-82.7121
-101.315
-113.698
-8.59715
70.0647
-81.0092
-287.554
-154.905
-102.943
-95.5069
-4.50273
213.414
258.98
89.4943
-240.768
-251.897
-48.3685
-87.0015
-78.4344
-18.2632
176.748
257.255
430.932
311.995
208.841
66.1506
-183.583
-100.752
102.483
106.664
7.05656
-208.77
-281.234
-184.634
-59.318
-25.9609
89.5665
140.79
106.425
38.3301
30.7912
-62.039
-226.614
-76.6841
61.5532
38.3008
-70.084
-195.029
-125.546
23.6479
119.351
155.436
105.955
-6.32553
-83.853
58.3247
95.755
11.329
-44.539
-66.0878
-59.6159
-6.63659
-53.2341
-104.698
-84.9606
29.9564
201.712
233.251
92.4999
36.9208
27.2761
18.2545
35.1861
-23.5559
-172.193
-161.084
-3.10711
51.6766
93.3959
121.297
27.7608
-38.2729
-80.8609
-111.159
-77.5088
-2.03177
59.7609
-155.548
-244.98
19.9227
40.4395
59.1985
116.074
89.4372
66.1611
-63.2543
-197.438
-295.978
-176.621
170.165
551.477
331.596
85.8262
-25.3584
-57.0303
-102.038
-151.577
157.524
-36.964
-334.65
-99.2647
137.487
248.086
139.154
80.6576
41.4406
34.0743
35.5514
-45.9292
-182.312
-420.409
-329.132
-131.721
15.8225
76.1295
115.858
143.599
183.487
210.405
4.14745
-245.571
-241.135
-192.94
14.5628
132.399
148.856
81.1442
113.008
148.783
64.604
-50.5444
18.0483
73.0626
61.0415
25.7826
-38.5398
-80.3958
-68.172
107.868
190.683
175.876
21.0415
-140.999
-152.303
-111.342
-45.6396
-15.5652
2.7427
5.37101
-37.0532
-103.327
-80.1414
-61.8927
-29.6151
-4.44374
-18.9505
-63.6023
-125.655
-160.674
39.8965
367.388
190.309
-50.1641
-25.0237
45.0076
79.7308
10.5519
-69.6784
-136.121
-124.374
-7.16321
185.24
319.387
-113.727
-201.733
129.156
-11.8358
5.51542
95.2544
20.1853
-218.02
-219.933
-65.8155
100.663
144.996
165.304
87.018
34.5939
22.7128
17.0274
-8.14027
-89.658
-240.44
-30.9182
66.7981
-219.341
-74.3163
34.3398
98.7338
74.2584
20.251
113.942
139.184
1.0432
-100.077
-130.182
-60.2431
18.5659
85.1533
56.3323
-20.7274
-60.3503
-32.0161
106.169
97.3573
60.6088
49.4636
-0.739724
-27.3647
-13.6578
-3.35639
20.2481
-4.5702
-56.878
-85.4631
-98.2639
-52.4542
-7.62122
4.44631
14.3488
48.2202
153.453
154.599
120.068
-107.745
-374.82
-197.673
-81.1465
-22.9616
33.0827
51.4676
57.2853
66.3324
60.2552
51.4738
38.6768
53.9599
42.4997
-23.904
-105.322
-56.0229
17.3265
-22.8479
-64.7462
168.058
378.345
144.255
-252.208
-397.581
-107.934
221.353
436.877
296.567
-83.402
-111.351
84.2934
90.5258
-91.2837
-16.8032
3.7577
-207.544
-452.359
-323.438
-115.232
-21.3727
103.428
-67.3019
137.441
265.717
26.915
-154.832
-227.746
-155.405
34.2961
58.4464
0.954048
-4.04683
82.1214
90.2113
135.16
169.132
123.08
13.5382
7.34678
10.7629
6.4275
126.901
165.882
145.832
51.2498
-46.0437
-126.659
-108.701
-18.2595
-23.2549
-91.4531
-67.8732
15.7468
-18.7844
-83.1989
-81.1958
-9.16241
57.672
86.1336
16.3272
-30.6186
24.0408
7.14697
24.3281
104.41
113.382
64.3251
-33.2829
-288.379
-421.852
-215.992
-8.30563
46.6084
42.7781
28.6023
40.3259
125.611
86.3883
52.7435
47.5099
-79.9
-13.7622
131.584
185.642
93.2251
-54.1062
-175.214
-189.771
80.497
299.894
173.67
102.082
-25.9196
20.5963
17.5116
-74.3172
-143.993
-199.248
-214.585
-42.3309
280.974
89.6209
0.267647
-27.872
-102.304
-150.662
-146.353
-158.189
21.3637
156.224
206.792
47.936
12.3343
-24.7324
-20.2385
-3.69344
-9.50498
94.2847
158.393
91.8947
-107.186
-208.172
-221.115
-95.2476
80.0505
78.351
76.7359
78.0038
11.1625
-66.6486
-134.805
-38.4205
131.638
-73.0577
-72.8774
99.5189
104.051
100.241
16.0967
-45.3097
-45.6763
118.223
115.73
14.679
-36.441
-24.7685
56.6246
274.128
199.582
-102.54
-299.892
-300.202
-249.404
30.0769
44.891
-6.71873
-41.9919
-49.811
50.6359
89.2205
95.7966
127.248
66.1407
5.44514
-20.2486
-15.2259
-52.8626
-75.3401
-33.4902
43.8987
67.8614
32.117
-7.15715
-88.7224
-147.69
-114.006
94.4805
148.397
114.41
45.1358
-24.9023
-50.0824
-91.5967
-99.0064
-80.7642
6.36531
57.1801
-2.99371
-81.6932
-69.0086
-8.60848
86.5178
223.479
143.676
122.546
103.99
22.0201
-63.0925
-140.514
-177.537
-122.745
-23.1734
38.1135
1.23069
-57.8108
-82.4182
-50.7329
157.325
150.197
80.6896
61.5141
-22.2361
-99.4875
-45.1665
56.1047
82.1659
6.81609
-57.1422
-2.99139
-27.0943
0.39911
-8.91538
-67.4045
-38.5181
8.6699
98.4354
85.9917
-99.7215
-78.9788
41.7879
10.6011
-69.2695
-69.8274
18.1458
0.266456
-59.9508
-125.173
-154.945
-73.6707
167.844
243.391
170.025
184.447
219.735
64.7789
-141.685
-66.5332
-18.0748
-24.8007
-49.8832
-55.9934
-73.2609
-186.938
-236.12
-142.561
25.9532
254.091
193.839
161.767
-5.08402
-137.682
-39.7138
69.555
118.42
-91.6653
-108.438
-16.6366
-58.1546
-35.1403
9.32171
35.0428
64.3797
70.9196
71.0714
63.062
-19.0196
-135.35
-46.5597
-69.6495
-102.324
-74.7368
-24.3538
16.3487
-22.9068
112.687
117.055
25.602
23.724
40.656
25.4881
4.40644
32.0952
67.363
80.3528
59.7938
-23.2222
-108.237
-45.6353
-52.4656
-33.7267
5.9773
-20.4747
-80.9728
-117.994
14.1366
116.643
59.0351
38.3853
31.9069
25.1898
18.4823
-29.6222
-93.8856
-77.5897
106.176
188.969
54.8675
163.703
37.3753
-207.061
-394.003
-174.346
-4.08222
20.6726
41.6344
66.7113
13.372
-3.9178
-21.2605
21.5056
65.6108
59.2259
61.6443
56.2364
-55.6773
-112.612
-110.408
-188.708
-68.2626
90.3784
121.951
179.595
385.864
250.493
33.5629
-64.5366
-55.0701
-33.2126
-29.819
-26.7402
23.1901
14.9777
-48.1692
-111.145
-186.49
-174.991
-77.3103
-28.1872
5.35175
89.2271
206.288
19.6792
-209.793
-260.612
-189.495
-85.6354
-77.3234
-156.57
-173.853
27.8736
213.711
280.582
261.407
290.453
223.539
120.487
85.3383
47.7984
17.7761
-9.00668
-0.318335
-55.3472
-143.409
-79.6574
22.8245
34.0662
49.4768
81.5546
103.792
-8.77878
-159.357
-181.091
-134.834
-157.085
-101.541
-49.9187
-37.1539
-61.2501
-17.9408
32.7362
68.7013
31.8182
-66.8209
-76.3731
34.3897
131.663
137.818
83.5477
80.8038
-12.1482
-62.8839
-5.90249
4.99034
-27.7552
60.4592
50.1202
-46.8124
-28.4186
-39.4508
-3.75927
24.9219
18.3728
-52.9614
-49.8305
-142.91
-74.1573
-112.569
95.4309
411.276
297.435
131.538
-25.5107
-11.7447
101.583
-56.8299
-135.474
-54.059
-66.9316
-90.8609
-161.693
-135.652
-34.2822
89.0543
145.011
210.861
48.7502
-75.9521
-300.443
-296.534
-99.2056
-248.94
-132.37
-1.08152
6.51214
130.014
165.591
88.8547
102.599
78.0693
83.9003
116.431
121.426
78.2913
-38.0143
-94.9679
-43.5279
116.375
241.924
91.4184
-32.6735
32.7607
11.6372
-111.799
-245.026
-168.802
90.6966
270.56
182.129
73.2087
3.97285
-63.3981
-125.085
-122.056
-33.7816
-14.247
-62.1876
-41.5094
-32.5703
-133.853
-122.347
-35.4747
-42.3035
-8.6327
65.5535
16.338
-133.133
-203.966
-67.5174
138.756
106.713
8.05171
10.2232
97.5051
50.1148
48.0562
34.47
20.4677
-3.56109
21.2736
50.0807
-3.01099
-33.6915
109.53
315.327
138.272
4.307
-10.3443
-92.5119
-135.566
-62.4459
51.9014
58.563
-41.8119
-28.2186
-63.5909
-134.651
-106.446
52.1605
36.5629
98.2177
111.032
-25.5727
-180.291
-56.8184
46.136
-123.645
-47.0575
21.0115
11.2444
-26.906
-122.846
-79.501
29.3452
74.4784
82.0618
88.1142
104.371
73.345
-25.3347
-147.096
-45.1707
34.7975
61.4009
-35.3305
-102.415
-40.1275
15.0328
-11.4618
28.7486
118.881
140.186
35.6927
-41.7687
6.81365
72.4894
103.109
35.6923
-67.0313
-59.8597
-52.2366
-13.4568
27.3133
61.6131
-18.0751
-73.0874
-2.42726
-11.7735
12.7174
0.872552
-46.7408
-42.2125
-20.9188
-5.9987
-18.2732
-37.1254
8.87184
50.176
15.9623
-16.7258
-54.3604
-28.8055
65.1887
53.011
-16.463
52.6039
89.0835
-116.296
-272.906
-192.251
-49.2183
-11.7838
52.9268
21.4127
26.7053
137.015
153.504
96.428
33.2981
44.9976
87.4675
49.8866
6.62372
-22.3116
-66.7015
-40.5662
3.40319
71.8874
119.047
63.0574
-8.96318
-5.62059
-37.349
-45.4352
-15.0617
-9.21622
-57.704
-59.8198
-24.8606
-24.4613
-29.8489
-93.2385
-68.904
3.0677
-42.2269
-47.2497
-17.3214
21.1739
57.16
38.2358
-4.84669
-0.780001
7.57111
45.997
26.6193
-6.51767
12.1299
2.80544
24.4165
11.219
5.79994
18.1017
11.8953
-37.3475
-37.5528
-26.8029
-19.7889
14.701
16.2738
12.8909
35.7383
22.9304
-6.44207
2.4127
-15.2606
-33.0102
-24.9031
8.31142
21.0283
33.8525
48.1326
58.0028
33.6151
2.32406
-4.74243
1.46046
-6.8393
-13.6872
-6.8643
-36.2716
-68.9273
-39.9442
8.15297
12.0058
5.64953
-20.1979
-15.5928
-12.0782
-24.8886
-8.34283
11.3103
3.18636
-0.0391677
1.88671
25.9232
31.162
33.9355
29.727
45.36
47.5032
39.2553
21.7449
-5.19926
-18.851
-17.8689
-30.0326
-34.539
-30.2119
-29.9019
-41.0759
-28.6971
-13.4476
-45.2865
-77.4955
-66.4087
-5.33853
-1.18473
-4.83487
-11.6174
-2.65423
5.0001
11.442
12.6821
30.0449
61.0463
71.066
62.7507
71.692
78.7555
41.0285
5.67922
25.4366
51.7562
39.4221
-1.60654
-33.1844
-17.2057
-2.43757
-15.675
-31.2524
-4.87539
16.6292
-5.94249
-12.4834
-14.5342
-29.8333
-56.9707
-80.9531
-67.2859
-38.7118
-16.4132
-33.8339
-42.01
-21.0803
-12.0409
-39.8496
-56.5153
-62.4471
-61.7694
-36.3912
-2.1171
36.2367
79.7862
112.242
92.9629
55.3987
64.8552
99.6868
83.1559
52.3793
30.7288
19.4556
-9.75365
-26.2368
-41.2568
-27.1819
-9.17981
-16.6314
-6.21591
6.44251
-8.88709
-31.2596
-17.5349
-6.66508
4.07582
-3.97491
-6.08005
-14.6886
-22.0951
-12.5691
12.6082
6.5074
-15.2011
6.40928
35.8318
24.2023
43.6686
36.4752
51.5726
31.038
-38.4342
-67.3757
-54.0267
-22.8278
9.39793
13.9921
-12.5382
-36.8694
-75.0917
-113.021
-124.544
-90.5213
-51.8995
-38.9369
-44.0978
12.2984
94.0801
170.78
193.183
111.293
35.3016
8.5665
9.69367
-3.4593
8.15372
32.1319
35.5596
29.6005
23.1224
9.03748
-12.7096
-39.0471
-20.9064
-4.46948
-24.5795
-41.5572
-69.8265
-91.0806
-76.2216
-44.9618
3.00441
11.777
-12.6355
-40.2549
-52.3055
-25.7245
11.3988
19.006
37.5173
64.4245
44.2433
36.1842
11.2136
-21.8022
-17.0111
-9.96303
-22.0643
6.38099
24.1873
92.4496
190.099
146.963
88.2339
34.1839
-57.0783
-69.1765
-20.936
-25.3796
-28.6967
-12.2354
8.92365
-15.7136
-21.1859
-11.1106
24.0905
52.1799
46.18
-15.3962
-88.1607
-128.993
-186.701
-181.167
-149.494
-95.3469
-35.1888
-13.433
-10.0246
33.6067
159.246
219.52
157.415
100.632
48.5518
-2.42442
-67.4172
-86.5129
-30.7078
12.1294
-37.2218
-42.4517
-4.49614
30.5524
4.98111
23.1344
86.2581
88.965
36.6701
-12.5484
-70.4191
-95.5634
-80.2131
-7.15958
28.0082
37.2113
79.7134
70.0757
-11.7718
-58.9007
-30.4938
19.7256
63.9894
68.3009
104.689
75.1038
12.4852
-57.0281
-108.495
-108.044
-82.8804
-32.4365
19.6508
19.591
20.5557
30.929
44.1681
36.0202
4.7966
-8.93936
-2.03434
-39.0304
-93.6937
-91.4673
-78.498
-72.3666
-63.1237
-32.1317
7.75444
50.365
91.0601
75.1012
51.3305
63.5212
7.84476
-44.6197
-12.8697
42.8974
105.092
115.35
73.8701
14.542
-27.0654
-23.1716
-20.2118
-61.2908
-47.9249
-25.8005
18.8263
22.3234
-31.4298
-38.1171
-9.54761
-19.6867
-5.88467
9.10832
-30.0296
-95.9733
-96.4473
-70.4033
-83.9598
-51.9768
32.604
33.3861
32.9678
88.0292
87.0567
124.154
134.338
86.507
24.3443
-8.63575
-26.6777
-50.6681
-59.6479
-94.3643
-118.778
-83.1794
-91.5121
-116.212
-10.3359
101.037
132.549
180.631
87.6412
-5.9047
70.9937
74.7201
41.869
54.0194
73.5394
36.3544
-26.9664
-44.1355
-48.1457
-11.9748
-14.3059
-37.3241
-55.4168
-50.0444
-54.4333
-61.4567
-64.478
-42.9522
46.9116
18.6771
-103.692
-124.249
-95.8495
-52.8691
40.9594
85.0331
69.01
47.0341
-0.622149
-1.85538
29.6445
22.8572
19.4717
40.5114
2.76709
-16.1997
13.8078
11.6212
32.9678
77.3564
55.2933
-4.38852
-58.4178
-74.6273
-59.1324
-0.157665
6.54966
4.96167
69.7608
81.885
37.9
54.4518
80.3313
56.1197
5.97776
-89.5077
-156.35
-147.318
-96.975
-35.3719
22.8401
38.2842
50.1541
46.298
-39.1118
-99.5895
-34.2949
51.4056
64.9745
15.3503
-1.44139
1.50217
-10.2932
-25.2838
17.5862
64.3646
79.2967
37.9955
1.53798
39.9269
15.9843
-61.9995
-3.28856
41.4874
-7.85185
-36.7486
2.25876
56.171
124.195
273.632
331.425
127.969
-143.485
-322.472
-391.324
-385.307
-361.021
-287.092
-148.627
9.43766
60.8917
110.037
148.507
164.51
278.689
360.878
263.588
58.1329
-140.81
-276.072
-295.284
-156.765
-10.2415
114.775
169.59
248.928
331.095
360.628
231.688
-1.013
-180.048
-147.877
-121.671
-132.345
-153.916
-80.8363
-75.4044
-232.369
-284.877
-200.05
-53.3932
85.9209
125.49
138.692
177.499
139.029
70.8964
34.9161
44.3382
42.978
78.9532
93.4612
21.622
-18.6924
-32.296
24.9763
114.71
150.548
-0.273963
-209.1
-336.693
-379.184
-213.193
-192.03
-168.004
-199.698
-156.534
-92.8235
38.4151
230.493
446.528
389.243
283.054
210.136
110.918
-94.3046
-255.17
-142.452
70.6259
233.718
247.679
281.736
201.215
187.781
135.313
41.2236
-19.4457
10.5587
71.9178
-5.50715
-238.251
-435.372
-527.345
-573.077
-472.033
-287.872
-11.5765
128.037
195.074
88.5308
15.7493
-112.819
-70.6457
37.1556
51.5506
140.113
191.058
44.5681
-78.7273
-6.30046
109.118
198.875
165.863
119.865
157.1
207.824
149.972
87.4158
-20.1231
43.3052
138.327
109.741
55.6096
-20.4368
-151.527
-97.2839
17.6076
50.6894
-3.9304
-105.827
-337.633
-531.923
-413.781
-129.983
100.568
241.387
46.6584
-87.5087
-33.1655
42.5867
-25.6747
14.9514
40.815
123.715
227.135
151.538
33.8254
104.146
-84.334
-286.421
-141.267
-114.727
-59.9242
284.353
520.756
400.071
46.6338
-148.779
-104.2
-53.1558
-107.832
-178.216
-285.949
-412.656
-126.715
343.66
622.85
232.175
-75.8553
-87.8723
-15.8917
173.349
242.434
-45.399
-499.652
-546.62
-204.948
-24.2745
46.3294
45.5746
23.345
19.2804
129.622
232.339
49.9279
-244.177
-479.25
-446.148
-191.58
115.022
309.417
530.04
546.306
311.914
229.748
243.848
167.768
-33.1719
-416.582
-526.19
-449.019
-316.406
-69.2015
146.554
115.572
-29.2861
-157.706
-55.5863
130.015
299.259
381.136
288.186
154.996
54.2584
-50.9995
-119.799
38.2255
248.505
283.613
138.281
122.58
222.54
200.244
-69.5941
-336.728
-407.181
-269.642
-5.00647
156.245
-82.5969
-381.714
-532.138
-664.617
-626.794
-384.267
-251.884
-160.535
24.3203
231.485
284.778
265.458
219.214
180.882
110.54
178.344
233.58
368.708
458.585
394.056
255.32
134.851
18.0044
-80.6583
-18.8117
24.0305
-91.1892
-156.387
-131.921
-71.4832
65.5876
335.424
322.369
-84.6919
-469.61
-575.507
-383.413
-192.218
-353.949
-379.729
-84.4983
150.872
302.378
331.102
276.466
140.915
19.5107
-4.84183
-6.14152
88.0988
153.624
-159.487
-353.373
8.4898
680.737
803.891
625.008
250.434
-3.75899
-183.365
-440.442
-595.688
-531.403
-313.131
-195.723
-33.977
53.381
-83.7169
-287.41
-389.465
-406.498
-331.719
-89.2863
21.8399
-46.2275
207.192
387.08
199.285
103.481
176.954
113.766
49.8472
-77.1712
-17.3465
350.715
674.689
621.157
475.237
376.307
238.422
101.563
34.0305
-32.8152
-119.741
-215.74
-481.765
-988.918
-1102.89
-495.062
43.4142
303.463
582.429
478.895
60.5688
-195.419
-381.897
-245.994
-91.1897
-29.6481
309.218
324.276
-9.40367
-125.503
-219.604
-122.984
94.1483
258.137
369.55
214.795
-42.2688
-142.046
-227.655
-45.2558
122.413
-38.9591
-305.134
-566.013
-131.863
580.738
476.128
364.907
364.27
203.093
63.8867
-114.986
-380.359
-371.311
-133.339
-94.1207
-140.834
-54.5601
-2.19224
10.5483
49.1789
-95.9576
-212.098
131.231
415.894
255.804
-52.0043
-55.6343
124.174
74.04
-179.031
-228.362
-80.0417
118.447
142.531
226.407
77.5119
-97.0509
-290.98
-335.598
-148.782
218.275
274.786
-26.5099
-208.895
-168.276
-38.2452
-97.9882
-105.431
-109.048
-125.732
-244.809
-92.208
247.718
363.043
168.982
106.713
124.167
71.25
1.39903
-74.2955
-24.2362
364.592
746.504
295.196
-140.012
-92.4796
-25.1275
-83.0978
-70.6116
49.1568
209.669
71.3483
-189.965
-279.166
-221.234
-291.345
-317.853
-220.689
-145.15
-29.6053
28.9235
-277.374
-700.029
-573.721
-22.2715
552.532
660.714
525.133
189.663
-110.312
-302.786
-10.4492
254.481
400.212
651.68
544.911
271.634
181.705
128.917
53.8442
-161.915
-229.102
-252.827
-375.678
-586.356
-757.953
-779.724
-416.29
-62.6784
120.514
162.227
-8.37805
-89.0334
34.0607
-79.8568
53.118
188.426
255.805
363.084
385.899
307.626
286.422
308.872
219.287
79.1806
-28.7218
-44.848
-100.88
-116.637
-73.768
67.7232
102.638
199.43
226.326
96.4186
-147.475
-369.702
-344.764
-28.0407
191.764
116.515
-66.9513
-150.025
-145.544
-258.499
-332.07
-279.904
-37.2472
206.341
30.5001
-162.97
-54.0794
24.6782
-188.332
-162.348
120.808
253.971
140.912
-26.0564
-223.472
-268.89
22.6109
318.777
398.894
448.753
235.108
-3.68973
-54.1082
-5.06142
71.823
194.147
214.614
149.857
60.0097
-207.656
-356.984
-385.458
-371.258
-333.934
-165.663
56.2658
48.407
-31.1678
29.1616
-89.4932
-160.288
121.239
438.615
468.432
386.058
74.2684
-256.274
-423.046
-364.807
-198.126
-81.2928
169.024
354.258
352.864
264.496
191.737
40.7702
-3.22609
68.0167
-46.5721
-184.638
-307.224
-329.486
-122.635
-88.6597
124.309
637.802
533.334
156.389
-120.479
-245.153
-279.638
-217.49
-225.74
-281.978
-301.515
-143.481
46.6334
-23.3023
-33.7285
-110.108
-90.3804
39.8339
168.632
178.09
267.196
-93.4933
-194.389
169.12
317.451
169.564
111.621
-34.6471
-142.058
-39.3799
213.287
246.062
-67.6186
-412.942
-262.878
375.285
522.899
84.5092
-278.189
-89.8264
-1.42991
-35.2019
-113.824
-344.645
-478.99
-305.516
-7.81058
258.031
462.956
474.574
243.601
-9.87067
75.3986
326.751
247.694
-125.66
-390.179
-402.073
-339.201
-164.271
-88.4963
51.1082
46.18
-45.1016
-17.0258
-33.3656
-63.8973
-89.7545
63.9556
319.848
151.01
53.3177
109.922
147.987
-75.6651
-300.572
-277.072
-37.5632
-79.3785
-7.07748
70.0466
5.68106
-75.0973
-119.11
-95.3116
-27.4475
155.117
530.549
476.897
413.69
439.075
119.442
-196.733
-333.054
-201.883
82.9485
204.303
-12.6922
-212.464
-355.994
-461.976
-498.432
-301.038
-41.8123
255.898
323.587
169.414
-228.367
-424.04
-456.681
-216.888
117.382
246.017
230.051
307.795
524.242
579.47
350.194
84.075
-169.602
-370.213
-388.68
-57.292
147.774
70.0872
87.5112
52.0625
42.6225
48.0734
-122.774
-270.429
-216.558
-137.868
-19.4738
41.477
-62.2105
-78.0576
115.793
53.5566
133.821
382.041
444.092
191.598
-27.805
-246.628
-320.697
-306.082
-181.225
101.127
312.087
151.859
1.3
-26.6587
-74.1072
-131.989
-259.979
-254.74
-172.853
95.9974
295.422
302.3
83.4122
-200.053
-276.049
-170.106
126.819
277.37
146.542
-73.1455
-223.26
-124.755
-75.5731
-123.555
-187.011
-96.5344
60.0991
160.253
-25.1051
-82.9296
-2.87846
80.3657
178.241
257.396
259.328
332.59
167.686
-98.7028
-251.942
-441.383
-163.515
295.102
506.489
444.283
416.139
238.697
-89.2324
-273.147
-195.579
-52.5075
-104.509
-16.1035
-134.953
-369.872
-102.429
50.4321
-237.576
-418.86
-297.187
-151.979
-267.218
-391.62
-314.461
-152.625
73.1974
327.066
533.786
484.46
351.797
241.396
101.286
7.49393
196.059
453.671
199.192
-134.046
-264.579
-189.751
-62.5061
19.1945
24.1991
230.307
300.368
75.7872
-93.6763
-235.163
-462.737
-491.489
-121.055
103.426
-255.034
-391.443
-282.889
-223.274
-98.6425
161.84
405.27
496.172
490.956
449.345
291.068
23.386
-175.833
-113.383
-67.7453
-83.2209
-122.417
-146.314
-172.877
54.0311
332.853
194.904
-34.8316
-113.597
-24.9875
102.473
-135.25
-204.36
28.2674
83.5347
-98.637
-87.9924
-17.565
-11.2641
69.4964
39.0404
-23.1187
22.5048
-17.5113
-133.151
-16.5855
84.8986
1.09345
-78.3852
-234.966
-257.104
-46.4662
108.188
179.298
130.333
64.8703
115.392
349.988
298.42
-280.861
-991.4
-841.627
-153.76
477.119
522.749
376.287
363.188
445.889
415.297
229.966
-80.8602
-144.584
-85.7124
-329.06
-297.324
199.952
-7.95351
-664.123
-444.827
-58.3442
473.638
697.048
434.782
-209.056
-346.723
-141.113
-83.0446
9.88812
-35.9398
-220.817
-248.924
-11.2714
91.4615
49.1415
-20.3876
-117.969
-31.0296
97.8362
-11.9691
44.8685
89.7543
159.18
169.981
38.5205
-70.3087
-22.8117
-149.068
-348.236
-204.898
14.1398
210.401
360.547
310.243
145.953
3.85034
-198.694
-229.639
22.2917
122.444
167.223
391.936
256.018
-2.93744
-139.412
-198.975
-276.655
-174.331
-30.1079
-44.9511
-60.8811
-146.287
-221.565
-291.558
-238.328
2.00675
173.437
168.876
158.273
176.812
141.375
83.4833
74.907
-64.069
117.691
277.663
53.1729
-8.13806
59.1782
76.4894
-72.125
-296.223
-243.294
-103.722
-137.25
-183.12
-144.474
-71.7492
223.982
517.304
417.454
29.2844
-209.271
-167.614
-284.366
-258.585
-41.8404
-0.00490909
2.97675
71.5534
277.84
473.252
357.028
138.662
-6.53498
-246.067
-713.587
-883.82
-285.439
219.182
433.194
411.839
306.337
182.553
31.6827
-108.456
-17.2117
38.6892
-131.204
-377.601
-518.192
-201.126
318.599
486.098
767.892
678.023
257.163
-97.4848
-816.414
-1139.43
-101.087
711.284
896.435
398.157
-123.536
-299.533
-355.792
-410.537
-341.99
-282.868
-248.579
-435.545
-552.342
-178.886
1.15814
461.516
775.372
824.921
566.438
-5.44779
-710.763
-746.195
-287.949
110.419
388.646
393.551
220.608
-69.5843
-206.603
-116.893
255.465
521.103
456.213
275.739
19.5661
-476.403
-445.273
12.2461
213.348
211.731
-43.6232
-314.754
-500.312
-389.653
-142.711
33.7847
105.669
150.069
88.2848
102.76
-9.10167
-61.5564
57.5495
-205.831
-309.513
-132.631
141.343
146.076
142.649
218.021
130.611
-58.0969
-241.274
-300.872
-123.086
167.022
218.857
224.074
437.87
499.231
467.193
451.388
45.452
-218.054
-122.072
-40.1573
-109.769
-292.236
-405.363
-512.282
-477.21
-249.783
48.5086
229.559
-9.50478
-259.911
-137.359
12.5171
4.87338
-115.757
-299.251
-293.632
-121.722
249.833
364.049
496.615
393.67
283.632
258.494
144.845
35.2046
-38.4616
-127.559
76.4814
46.4565
-69.6502
25.6414
-39.5101
-343.596
-355.638
-66.0055
162.695
261.595
69.7903
-228.155
-454.45
-543.816
-298.101
219.384
448.131
352.818
215.857
40.3671
-86.9923
68.1331
117.058
-123.292
-162.057
7.48844
265.888
636.722
616.895
409.333
159.96
-194.417
-361.588
-261.894
-179.783
-320.356
-391.011
-181.056
77.882
68.9432
-144.7
-343.01
-344.443
-99.1979
221.476
329.692
114.835
-425.569
-731.865
-605.071
-417.372
-58.4883
327.383
459.039
332.278
155.768
174.883
217.985
261.032
223.894
177.617
375.111
539.065
414.391
91.8655
-194.756
-445.646
-343.586
288.887
487.429
236.351
105.546
-66.7703
-66.9106
-146.241
-327.658
-238.09
-118.62
-21.549
45.0752
-174.837
-271.98
-208.416
-200.393
-238.947
-73.1779
160.844
123.13
-192.756
-424.013
-372.399
-220.283
-33.6592
82.006
115.585
188.61
306.189
247.504
-9.47529
-92.698
-69.9826
9.92546
62.182
301.694
570.332
527.613
308.57
-8.64913
-204.197
-181.08
-58.4508
21.6126
159.95
181.346
57.0815
-61.0335
-187.25
-456.722
-631.331
-562.55
-91.3093
314.005
453.397
341.48
175.989
67.8546
210.445
327.694
65.7817
-209.467
-322.393
-329.323
-322.381
-75.6198
216.216
241.146
8.85798
-169.621
-36.1397
170.25
98.0231
-253.17
-446.772
-342.371
-172.847
7.49841
193.063
218.314
91.4657
35.8645
134.061
182.334
16.7595
-199.04
-285.034
-144.285
286.975
595.89
493.05
277.573
78.1032
-160.396
-446.456
-511.784
-132.271
88.787
-47.7138
-34.4323
-209.845
-173.809
126.514
246.873
261.721
297.227
204.693
7.28868
-94.299
33.1558
110.249
-63.6197
-95.4916
-31.9646
81.2168
110.765
-102.909
-178.861
-243.625
-264.812
205.034
409.627
324.796
123.041
-312.559
-464.497
-404.661
-304.748
-196.515
-144.765
-48.1811
93.4796
265.752
338.064
163.83
-46.2782
-72.176
-21.1568
80.6628
169.39
34.4553
-134.088
-251.864
-297.483
-15.9749
314.279
396.019
353.902
202.205
82.4816
38.027
-11.2573
-8.67527
58.9642
43.9573
-38.1674
-142.773
-174.179
-107.279
-309.025
-444.276
-299.356
3.60966
321.121
501.01
196.102
23.5148
16.5362
-84.876
-110.817
-82.4493
-39.522
-48.8956
-87.9998
-44.0918
-5.18965
141.472
171.584
-95.4371
-88.0525
-52.7589
-16.9582
58.7371
74.1764
-24.6596
15.0071
94.4776
-17.5284
-183.66
-232.553
-166.396
90.4712
231.529
249.784
237.035
-2.32419
-250.937
-166.423
95.9116
174.471
178.125
81.9807
-80.2346
-34.1476
115.126
106.212
-90.1831
-124.303
-150.264
-127.285
-20.8328
-18.0314
-69.5929
-114.317
-77.2038
23.3964
4.80282
23.2121
67.4958
204.088
174.78
77.0133
-90.2559
-233.81
-167.005
-193.064
-176.334
-46.3814
73.1274
195.84
290.395
239.699
151.536
22.3064
-232.44
-279.391
-186.766
-25.786
396.937
450.697
112.126
-18.5121
7.19044
67.2005
-46.4426
-119.161
118
130.511
-1.51772
53.8925
-125.378
-379.634
-536.824
-501.708
-323.44
-81.7472
215.839
305.369
92.87
-19.5032
105.649
141.39
82.6605
-139.267
-158.123
14.098
96.4359
168.796
207.642
116.605
100.72
229.732
359.359
364.517
111.649
-249.532
-359.836
-346.714
-279.919
-186.806
-59.3162
81.1029
174.143
136.964
142.395
74.9958
-96.982
-159.788
-38.693
-146.146
-211.692
-139.72
-74.887
26.8496
261.001
443.287
344.119
81.2575
-185.943
-255.099
-135.582
63.7448
86.6757
73.9059
-69.5034
-195.737
-350.79
-423.296
-259.492
33.4539
159.102
247.908
256.862
59.3991
73.8404
168.472
111.776
-2.92248
139.123
166.088
-22.2006
-139.447
-138.117
-127.035
62.2284
320.044
317.172
171.51
-131.15
-319.393
-267.121
-207.841
-53.8236
162.9
174.521
141.983
-77.5315
-130.544
96.3521
142.512
-119.571
-254.503
-184.941
-20.532
-21.0736
-152.343
-59.0049
122.304
194.81
76.1995
-14.9929
-72.1995
-92.7144
64.2977
71.2489
-109.124
-226.3
-224.984
-362.958
-301.47
116.522
363.311
405.605
285.912
205.975
132.427
177.764
241.562
250.235
139.299
-137.21
-203.846
-126.121
-123.822
-161.354
-240.652
-209.445
31.3682
422.35
378.251
205.515
175.46
142.326
103.25
-226.19
-405.472
-563.743
-595.798
-228.514
98.6018
237.338
298.885
-62.7512
-255.813
-202.215
-10.3798
223.354
218.096
-29.9246
-54.5934
37.324
-88.7776
-255.589
-323.868
-97.1143
167.835
372.106
445.394
350.839
275.821
184.319
-192.404
-417.216
-324.279
-94.8394
77.1958
158.021
181.609
34.4049
-34.6874
-15.3346
-29.6368
-35.8481
62.7232
101.844
-17.0558
2.24613
40.382
-118.257
-112.995
-6.24443
108.275
250.744
154.948
44.5952
-13.6829
-37.1412
-66.2129
-170.438
-115.45
-45.3836
-45.4351
-139.265
-179.172
-156.328
41.2197
141.596
-12.9076
-110.022
-76.8706
-26.0144
-11.8513
52.4026
126.154
92.1942
109.656
28.0639
-110.373
-19.0374
-38.9327
-61.7939
-13.5082
267.031
474.193
425.219
-99.3506
-681.626
-653.741
-275.552
-83.7227
8.18075
110.675
208.498
219.103
238.932
264.389
262.167
157.854
0.50672
-15.968
16.5276
7.30994
-43.3468
-105.284
-130.241
12.1733
210.935
170.634
-47.6312
-159.229
-125.748
-58.3336
-103.8
-273.94
-328.913
-126.364
151.925
129.008
-53.8798
-131.957
-125.037
-56.5835
-145.694
-156.139
133.054
477.139
526.397
363.074
200.919
-14.1729
-83.0833
-51.7066
3.62555
-49.8334
-251.469
-389.509
-507.646
-108.733
201.436
198.939
92.3171
-145.16
-241.95
-222.778
-63.3429
196.71
345.385
266.863
77.6532
30.2427
45.7826
11.3281
-73.0598
85.3697
323.678
398.132
182.182
-172.958
-248.114
-85.6883
-2.78432
-91.0424
-33.4902
-184.477
-294.533
-290.53
-30.5465
377.992
427.221
112.155
-186.751
-218.076
-128.922
-113.621
-123.089
-214.295
-211.859
-305.114
-183.895
77.813
276.134
373.958
378.915
485.301
317.967
-172.327
-514.094
-529.664
-301.394
-55.4316
187.669
293.275
301.086
219.852
197.004
129.564
49.3532
159.263
120.284
-129.352
-287.327
-267.79
-317.793
-163.529
206.495
150.843
23.057
110.563
-17.6168
-161.214
-85.1701
-24.4855
-20.0323
88.9348
190.535
207.393
292.208
190.6
-65.7528
-251.32
-291.494
-223.704
-123.381
-50.0419
-218.358
-89.4183
83.294
68.1148
256.475
430.091
117.422
-336.279
-508.123
-411.916
-35.2455
271.59
359.694
329.812
194.54
94.7439
64.7186
-5.05994
-84.8871
-130.018
-212.8
-141.608
-164.675
-222.289
-119.326
54.2805
294.788
285.787
131.054
63.4732
-86.0108
-248.887
-260.586
-185.738
-62.7281
41.3785
167.981
436.754
474.523
77.1834
-243.542
-247.956
-14.3067
129.688
-9.22824
-241.971
-274.799
133.444
464.089
393.505
145.771
-36.0577
-143.077
-176.472
-220.504
-209.352
-230.772
-248.59
28.1405
172.471
265.567
309.976
92.9191
-87.9495
-182.188
-122.542
-18.8489
10.5556
-62.9152
-69.9932
-106.917
-211.821
-246.513
-114.873
-29.6182
64.1558
112.765
164.503
195.34
229.418
162.255
62.5347
72.6188
76.1749
78.502
136.16
165.236
-40.4111
-231.825
-222.971
-115.656
-45.0668
54.0022
15.0933
45.7047
96.4994
21.109
-110.189
-216.582
-191.858
-80.6182
8.50733
-5.87244
-147.556
-81.2022
63.2933
168.031
331.555
242.183
134.171
-17.3577
-114.854
-35.6178
134.328
148.57
-108.866
-233.187
-271.517
-367.11
-138.287
77.9841
61.3557
136.171
197.727
232.863
216.945
-70.4223
-375.338
-49.3798
171.261
166.916
170.797
68.2328
-40.6832
-92.941
-98.6966
-79.8082
-67.1824
-36.1779
-27.2633
31.8839
-5.19449
-54.1494
-11.9664
11.648
9.92956
-72.2173
-157.952
-206.537
-125.797
236.382
354.142
142.342
40.902
33.7067
52.6556
96.2528
115.832
65.6055
-69.5109
-265.313
-217.829
26.2077
298.845
240.178
31.8193
-71
-153.924
-265.514
-339.77
-227.45
103.505
147.928
-69.1464
-153.647
113.985
325.794
304.104
189.441
36.3541
-153.573
-81.6433
-228.721
-497.417
-381.118
-164.186
49.1126
283.377
308.512
228.241
66.6033
-38.945
21.5926
45.2075
136.326
150.491
-40.4805
-109.987
-10.9273
47.2785
-77.5546
-297.679
-237.472
-117.883
294.47
651.5
494.168
350.969
278.326
133.435
-136.426
-392.23
-369.576
-261.814
-207.846
23.6333
212.007
117.715
-50.8512
-211.719
-484.019
-497.748
-279.647
-38.4022
-123.485
-217.267
-51.3783
-77.6809
-55.7337
4.08627
169.532
472.705
633.904
564.079
279.234
-22.075
-34.5564
20.4069
-78.6555
-146.266
-94.6175
1.95922
207.025
257.242
78.8058
-105.326
-126.932
-41.6155
-8.08584
-18.8166
-145.851
-307.902
-278.28
-119.871
118.542
56.409
-320.507
-552.982
-289.298
173.512
481.803
649.619
412.874
212.208
118.152
-33.2733
-179.931
-55.143
49.1727
-69.8338
-210.538
-211.637
-64.2556
-49.6486
-175.321
-211.86
-68.097
144.181
177.194
107.955
183.192
170.502
82.319
-37.4465
-115.801
-106.108
-194.256
-137.128
111.431
333.77
259.074
84.5821
-97.2517
-227.83
-228.636
-191.774
-60.3669
109.134
150.498
162.342
181.804
60.6982
-82.5226
-66.8912
-39.9696
-21.7534
174.758
97.2493
-210.202
-276.805
-242.762
-374.357
-309.132
-25.0671
153.273
208.462
213.705
165.272
88.8622
-30.352
16.026
106.139
146.338
252.471
119.516
-30.6184
42.6301
66.8192
121.294
47.5572
18.0458
1.33477
-84.5705
-123.505
-129.696
-71.3347
69.0313
59.2194
-65.4175
-116.37
-145.347
-240.068
-185.413
-67.4786
-56.1782
-69.3958
-59.7221
42.0817
21.6844
7.89021
108.163
112.607
30.2874
-48.27
-24.0442
-19.7762
-64.5085
2.18096
277.833
389.914
231.911
165.679
75.8179
-66.6512
-79.8942
-133.258
-260.545
-279.31
-186.474
-147.613
-46.1605
152.388
246.959
255.474
257.123
175.965
49.6424
-23.615
-194.167
-364.352
-301.995
-38.177
176.956
169.219
46.4986
-52.3884
-87.1461
-83.6608
115.472
303.132
245.861
-31.8616
-194.815
-248.508
-198.096
-54.7304
4.79561
47.981
-161.862
-381.758
-196.055
167.484
245.174
31.3763
-33.1625
34.9154
177.19
358.614
318.366
69.2119
-66.5275
-49.3103
-71.5388
-30.1164
118.817
115.688
-112.914
-246.358
-33.6513
161.096
35.4564
-300.059
-382.835
-186.108
48.0299
133.787
49.2054
-207.206
-330.43
-62.7131
173.535
186.939
6.87364
-102.459
-65.8466
427.303
690.579
380.366
284.079
299.247
192.755
-49.9688
-277.921
-343.902
-261.52
-172.166
-92.6882
13.888
32.5238
-95.6936
-313.08
-464.322
-279.872
29.9082
124.467
-165.108
-256.991
-61.1314
11.4277
112.922
220.433
216.19
192.819
125.968
136.457
134.807
63.7893
105.636
34.6527
-127.683
22.7425
219.8
204.978
108.488
-51.3602
-213.829
-170.48
28.6656
38.551
-188.048
-201.369
-102.108
75.6149
177.814
-109.509
-172.742
-7.90382
-161.745
-311.649
-207.458
-1.38406
333.414
617.751
651.354
439.392
141.014
-24.0448
-146.806
-272.391
-298.163
-366.57
-310.322
-319.968
-280.44
-46.5991
105.826
82.9002
87.9627
158.228
174.156
74.0907
-45.9664
-145.154
-180.406
-150.389
-285.311
-317.074
-56.992
254.846
418.471
318.47
300.086
427.974
431.878
287.151
-92.1715
-463.871
-435.557
-79.8736
191.809
107.114
28.5548
-20.2007
-155.451
-199.103
-43.6902
76.3621
-10.8695
-158.719
-151.023
57.3048
206.059
126.975
-71.3004
-167.732
45.2739
221.068
273.341
132.332
66.8061
34.2932
-135.695
-319.664
-352.923
-313.635
-35.0087
122.949
-2.04699
-66.5861
22.4594
54.6944
-74.7725
-142.907
-96.7093
65.4231
113.949
64.4133
-20.5403
-33.4415
14.4669
168.563
331.044
324.639
223.888
89.9509
-149.221
-196.78
-171.984
-148.315
12.1256
86.0084
20.1105
-27.2009
-134.062
-196.829
-177.254
43.565
213.636
143.325
-8.58349
-110.413
-137.204
-13.1826
84.4971
123.624
137.503
28.1479
-42.3186
76.9946
58.9817
-45.7995
-19.4572
23.2059
13.3512
59.503
48.8014
-134.268
-162.477
122.687
252.097
150.664
3.26782
-44.9996
-52.7841
-333.306
-488.656
-299.565
90.7211
162.165
-47.8578
-20.8165
50.1841
51.9891
154.332
95.7509
29.421
170.895
206.175
31.3207
-97.2699
-74.4427
32.7394
-83.6075
-273.816
-94.1075
107.571
218.124
139.328
22.3592
-2.70675
25.1199
84.4209
190.226
135.67
19.5949
-109.429
-302.027
-461.317
-596
-453.346
-131.63
80.2301
249.783
473.81
532.188
403.196
130.756
-26.8645
-8.25048
127.17
95.4493
-69.4738
-234.026
-243.43
-187.076
114.967
319.716
231.795
87.8941
-65.6597
-171.703
-208.152
-134.139
-129.89
-119.964
-69.1916
-30.5421
-46.1247
-54.6876
-6.82023
-20.448
-67.2198
-29.4572
72.5116
182.697
59.9925
68.7826
129.021
87.3204
226.091
176.394
-46.2402
-66.2279
78.7678
134.939
-1.98527
-171.843
-194.323
-266.085
-333.855
-151.178
-90.1868
-73.8705
115.804
262.18
303.263
26.934
-161.016
-118.53
-209.004
-279.1
-101.655
-8.40607
-23.7882
-18.2881
204.74
423.513
400.576
491.694
337.128
44.4817
-103.682
-150.822
-133.486
-52.4436
12.8723
50.0279
-11.4375
-15.0429
-49.5733
-38.8827
73.7359
58.3235
-172.041
-219.857
-168.607
-156.35
-122.378
-232.634
-130.478
-13.7439
86.8559
75.1936
-22.2918
-88.7314
-94.2226
32.0378
233.961
269.407
65.6769
-123.262
-169.341
-207.248
-96.6415
-37.4682
-58.8044
-57.9832
43.3956
192.401
167.544
92.8316
145.085
182.942
85.8868
53.0516
18.9408
-4.23183
93.1309
71.1491
24.2622
155.147
270.504
184.444
84.3892
268.848
166.951
-202.202
-348.982
-367.409
-363.784
-246.089
-163.451
-152.256
-154.653
-133.586
-17.816
138.519
131.5
99.3052
-189.82
-506.673
-486.035
-52.9784
174.745
86.7738
93.0306
208.193
217.874
169.462
237.192
293.999
206.411
179.265
101.204
45.4796
-8.70841
-34.9069
90.6199
305.708
425.112
330.381
75.9237
-206.734
-300.286
-356.793
-269.509
-98.6401
-85.0612
-221.693
-265.413
-258.87
-256.379
-172.118
-12.631
-2.87021
-42.4091
-86.1907
-76.6068
-108.437
-3.55032
82.7763
108.035
209.121
177.704
151.309
77.6855
97.7529
133.508
162.668
156.617
100.126
78.8372
73.3783
80.4366
91.1771
27.5282
-92.0039
-208.948
-219.053
-83.1784
146.689
73.1444
-109.552
-14.7924
-61.2443
-102.918
-78.4462
-15.7912
37.4114
30.8479
27.8764
39.444
35.0793
-76.2735
-224.29
-124.355
52.1865
47.1011
-46.1819
-40.78
46.7896
138.394
110.798
18.6193
-53.7164
-89.8326
-155.037
-94.5206
50.9116
330.74
270.059
74.8765
-153.319
-134.117
17.7538
38.3998
108.71
124.199
38.9979
30.3296
-26.9096
-31.3192
12.7436
9.17971
2.31484
-103.737
-350.907
-427.965
-87.9261
-0.830313
-15.5299
29.8768
89.6642
148.282
139.428
100.762
-89.8075
-224.917
-81.5546
44.8525
34.4115
51.8933
87.5522
84.4618
103.447
174.404
239.822
172.17
-68.6576
-294.057
-169.465
178.299
359.743
160.427
27.9057
-104.587
-135.991
-3.52427
28.5799
-9.56505
-12.373
-52.1245
-131.003
-177.925
-182.213
-156.462
-36.0054
-82.5469
-185.905
-15.2533
149.482
-3.05034
-60.6382
17.1171
-10.7586
4.98665
58.8242
55.2664
97.5855
194.919
184.152
122.654
4.11067
-145.83
-251.348
-202.622
-9.23521
246.437
300.277
119.255
-56.7288
-221.094
-114.215
151.889
169.677
-35.9044
-102.768
-87.7764
-59.3497
-10.2266
33.3573
67.7973
61.5902
78.7665
166.796
202.652
220.748
100.414
59.8258
-33.1114
-250.025
-369.399
-540.918
-570.382
-290.457
33.6312
227.319
402.987
338.806
65.8656
-93.3577
-140.632
-72.3754
-66.1989
32.8686
180.945
196.75
172.578
-113.88
-346.103
-191.604
154.411
209.218
199.802
116.489
111.51
81.2795
43.4827
110.17
45.9753
-25.2888
-57.7226
-70.2892
-18.0024
-120.223
-260.963
-264.65
-219.571
-124.17
-0.855221
47.8695
-10.0553
66.6692
144.712
217.759
207.791
140.718
-38.8283
-150.245
-32.6251
48.2878
73.9187
-17.043
-110.399
-1.0862
59.9556
40.4133
-46.5909
-35.5591
56.6119
20.1959
148.306
165.128
-60.4046
-132.425
-109.857
-131.071
-120.329
-52.9174
87.5896
282.651
455.172
207.683
-269.138
-632.402
-733.722
-281.686
432.79
311.499
55.4415
21.8833
-111.916
-65.3782
79.4617
97.377
76.4126
97.3557
105.025
-32.0488
-132.427
-155.118
-168.881
61.6473
430.153
696.441
640.136
182.423
-380.313
-609.377
-532.898
-262.764
-83.5591
-48.103
-41.4914
-11.524
-10.0107
-41.881
-36.2034
117.923
351.412
354.164
76.1719
-65.8697
-144.764
-183.732
-81.2372
-69.9086
-175.633
8.0448
235.752
186.028
150.73
145.535
73.6487
12.4665
-15.2707
43.6381
12.1653
-93.4507
-195.608
-260.716
-222.41
-150.139
-37.2828
-24.019
-13.8194
43.0204
56.2179
142.109
83.9214
-14.8135
-33.6706
-77.7109
-19.868
31.4945
40.9539
-5.15117
22.6171
31.704
56.2448
69.6155
26.9177
46.5667
17.2099
25.5303
58.2116
8.26733
43.4707
75.5883
63.7267
107.525
72.7142
8.12824
-18.7035
-79.2474
-129.482
-123.157
-67.3363
58.2839
65.1148
34.9797
-29.7553
-202.296
-290.496
-227.238
-207.099
-103.126
-52.2796
1.72256
183.853
372.613
326.712
195.99
149.313
101.455
107.019
124.578
21.1261
-147.945
-293.668
-388.808
-349.743
-187.368
162.023
414.413
370
175.066
114.218
199.868
42.5868
-203.669
-293.264
-261.89
-182.707
-146.313
-192.529
-312.732
-354.976
-149.89
93.7017
296.849
350.701
409.523
380.79
222.343
127.608
-57.1
-213.114
-250.497
-145.863
5.40838
34.4924
-31.2828
-107.586
-73.3001
-68.8278
-91.8877
-8.41848
25.1539
72.4191
11.2484
40.2391
95.498
89.0886
57.7789
124.93
192.809
228.285
184.826
78.3042
-13.1063
-40.0712
-56.8582
-93.5626
-135.166
-91.8183
-16.2981
19.3532
-23.2387
-14.1716
77.4457
-34.1056
-25.0505
-87.3946
-236.165
-327.682
-278.811
-266.089
-151.714
-16.024
-56.8477
-66.2595
101.265
237.066
288.741
316.755
275.151
45.735
35.1441
-39.9349
-174.902
-149.581
-220.972
-117.604
66.6614
168.881
161.609
73.4898
113.778
222.279
218.96
185.976
76.4129
-28.4026
-116.24
-87.912
4.06258
57.9236
-85.123
-200.509
-184.358
-37.1116
123.751
100.325
-7.79657
-89.7325
-89.7787
-2.12754
-25.0022
-126.468
-255.72
-307.455
-278.72
-116.413
148.014
289.155
259.003
258.516
213
114.985
-11.9847
-172.24
-195.472
-237.002
-219.894
-33.833
7.93404
35.3801
230.351
265.058
236.214
256.381
202.036
102.055
44.5373
38.5078
-31.6073
-229.947
-303.791
-378.454
-189.727
154.962
159.343
51.4641
34.3353
-4.89512
3.96426
-8.09278
-206.32
-293.098
-176.077
-36.0085
44.2338
94.2393
172.721
202.005
157.648
157.224
-64.1201
-342.928
-423.175
-489.657
-179.959
348.863
687.574
681.302
397.034
183.783
91.3905
42.361
-41.7992
-121.511
-110.475
-122.689
-251.984
-382.494
-271.762
-83.6804
26.3286
207.745
213.745
140.675
-7.8999
-164.072
-339.57
-354.167
-166.331
-113.497
-167.24
-97.3285
91.0306
135.652
81.2509
28.751
-53.0952
-49.5325
45.1389
199.6
461.296
530.364
345.044
268.384
254.056
26.4925
-224.246
-270.175
-358.802
-291.447
-168.883
-107.441
44.1054
169.782
70.5584
6.76076
62.6142
38.0498
-84.68
-182.028
-202.679
-77.0897
97.7939
172.094
94.9998
37.0595
76.7409
122.624
189.708
138.29
43.9575
-359.367
-658.688
-409.98
-126.091
-31.2107
-24.9994
18.8208
79.5931
128.926
181.648
189.789
220.356
185.607
-20.763
-163.23
-142.526
-84.9784
119.212
266.136
107.349
58.6322
139.608
15.7517
3.8163
80.7862
225.009
281.873
221.911
12.0426
-135.041
-293.488
-459.122
-552.062
-335.849
-52.0077
57.9497
2.54618
-40.0182
1.92864
101.861
279.201
199.343
18.6956
-109.186
-178.197
-113.934
-67.5159
-87.3104
34.7173
74.5833
92.0463
125.678
170.416
158.085
184.822
203.283
49.2119
-67.8019
-143.457
-111.578
6.91963
88.0353
58.2509
4.79044
29.2414
1.49406
-160.711
-268.037
-156.956
-48.2317
31.2653
71.396
78.1683
-21.5341
-117.861
-157.466
-35.4196
91.5044
136.355
94.1844
7.49465
-149.018
-109.837
31.2646
71.2602
-27.5291
27.0431
157.337
89.5175
55.8149
89.7504
116.806
65.496
10.2502
-154.549
-208.545
-153.524
-5.29813
72.4686
52.1733
168.212
268.291
67.5157
-104.562
-223.172
-259.477
-15.5027
151.64
92.5722
2.52211
-52.7812
63.3094
114.949
-58.5742
-86.7119
-80.991
-68.0338
-108.507
-154.964
-103.174
38.6715
136.685
105.317
100.834
60.7071
-90.8521
-209.922
-166.613
-98.7948
-45.5961
63.765
88.367
138.641
222.345
174.466
123.884
121.796
38.3935
-12.7486
-31.9284
-163.997
-257.178
-124.724
14.3554
110.661
202.559
97.175
-8.06542
21.5207
-39.2099
-103.797
-72.2606
-41.8427
61.2853
131.479
74.5806
-59.1601
-299.665
-383.016
-173.643
26.4852
386.598
538.583
272.788
97.428
24.0697
-111.163
-164.269
-141.203
-85.1505
-62.4338
-107.878
-114.252
-54.1538
-11.916
29.7534
64.1089
126.795
108.621
-107.643
-247.872
-282.477
-175.187
1.08432
30.4919
-32.2374
4.21534
27.27
31.1916
74.5372
190.135
231.04
134.735
42.8004
6.65603
-84.7094
-53.6905
174.031
329.168
326.216
216.85
-17.426
-234.727
-276.211
-201.876
-116.615
-61.3626
-65.9337
-5.14037
124.648
135.145
-26.2858
-167.058
-177.031
-75.8821
128.521
307.635
220.881
18.4856
-95.9734
-262.507
-434.905
-401.723
-224.583
-94.4245
69.3085
159.326
204.392
158.332
66.6536
1.59222
-13.605
75.1067
133.17
127.91
84.8178
-61.2974
-133.133
-50.1992
112.304
242.424
266.519
163.172
86.853
113.084
123.763
3.54996
-108.656
-110.185
-115.913
-227.229
-326.845
-192.849
-118.412
-117.533
-103.391
-90.0532
-41.1773
-2.89694
37.7116
92.0381
115.733
118.509
69.7278
-71.0356
-166.206
-42.2123
220.46
330.386
306.205
139.488
104.152
69.224
-6.60364
-37.4946
-68.4619
-130.008
-286.44
-339.772
-275.923
-94.9346
228.616
360.484
205.795
77.2721
28.9849
46.4765
-25.3904
-157.974
-260.302
-197.716
-91.3414
-40.8674
42.2982
-2.65138
-202.435
-200.195
33.8706
165.214
107.917
46.4632
-45.7379
-28.6458
78.6421
122.164
126.28
79.4238
-80.4659
-114.499
79.7167
136.495
214.707
326.608
270.696
141.619
124.618
64.1987
-56.7494
-116.708
-127.899
-149.556
-159.002
-114.022
-64.5192
-120.235
-209.125
-308.029
-193.497
-53.4242
-64.5212
38.2147
-7.66924
-136.133
-135.299
3.72197
97.473
106.713
159.887
241.286
244.86
148.849
3.70338
-85.0131
-73.5356
-4.42966
36.7265
40.0897
-9.1443
-23.2612
93.9916
235.787
338.786
219.479
-3.34719
-150.917
-222.825
-381.207
-409.627
-246.868
-76.7853
17.2861
47.6181
59.6357
58.5144
68.9157
97.4303
138.853
178.696
160.482
-0.229727
-72.7299
-30.0193
-45.3593
-28.7159
13.2352
-16.4648
43.552
115.806
28.1769
-54.6317
-84.6181
-96.5474
-111.294
-50.1937
25.329
72.043
99.3096
89.0287
39.7246
-63.8741
-150.113
-293.194
-260.172
-100.652
71.3141
248.613
326.724
255.442
175.253
82.0306
-100.532
-118.251
-61.0663
-87.0463
-120.442
-91.2539
-28.0273
47.5919
59.4075
21.0091
-11.0117
-1.57959
12.0126
4.56118
-13.2066
-42.3192
48.0585
31.5258
-55.3923
-107.303
18.4425
8.78209
-126.295
-109.921
96.2496
220.866
153.463
27.3562
-22.3943
-30.2799
-20.2172
-4.44337
30.4372
69.7988
86.945
14.7399
-153.442
-262.727
-186.639
32.5032
142.736
134.891
110.72
123.611
36.8542
-107.089
-117.651
-70.5001
-84.4616
-72.2145
-32.0131
23.8108
36.6512
-7.0399
23.9247
29.1028
101.502
223.055
91.9497
-48.1373
-83.0698
-42.7865
63.1999
49.711
-34.03
-125.631
-161.048
-61.6874
89.7959
64.1125
-70.236
-173.958
-123.536
35.6354
68.5153
80.953
71.9524
-9.97087
-30.6129
-58.5595
-18.8043
70.3335
138.924
70.9364
31.6638
88.7991
190.188
136.64
40.7308
55.0547
59.4264
27.4215
-54.383
-195.983
-343.518
-222.781
-99.9242
-72.3786
-34.2831
-9.93914
12.916
-18.0143
-9.02248
-53.7156
-200.797
-66.9263
222.741
172.783
-0.858428
-74.2045
-44.2505
48.3262
75.4357
77.2975
209.511
300.2
270.141
175.514
-15.8004
-136.4
-227.645
-229.972
-76.6037
100.207
138.492
43.2967
-145.061
-158.085
-58.0978
10.009
42.6534
34.5306
2.69629
-81.3486
-127.288
-152.861
-103.97
55.2381
144.511
153.594
43.8887
-90.9347
-103.401
34.2087
202.404
224.423
11.1733
-139.774
-144.813
-78.2055
-31.9541
-9.23312
51.1797
116.965
137.118
41.9995
-138.967
-271.522
-245.318
-73.7512
150.281
323.85
170.409
-33.2554
-41.7815
-93.3573
-120.592
-29.2988
-62.8254
-140.739
-136.61
0.00135203
258.902
280.655
179.348
81.8722
84.5785
112.966
176.691
119.389
-10.5474
-120.604
-251.525
-295.754
-344.966
-364.621
-109.66
331.916
473.947
384.976
227.776
10.8747
-225.194
-260.141
-228.952
-105.047
-39.089
-13.9463
44.5754
-6.84731
-91.395
-242.393
-359.768
-13.1831
200.601
157.808
73.3049
-73.8504
-51.7057
21.3278
85.4565
134.349
124.322
112.461
106.717
54.8605
35.5757
29.1247
9.34104
38.1253
113.353
179.396
160.002
-59.457
-37.3943
166.81
60.5353
-82.669
-148.183
-148.918
-99.1386
-92.6685
-127.196
-133.769
-126.875
-136.572
-107.394
-18.922
40.8962
69.5196
75.9575
85.4776
146.397
43.9019
-115.575
-142.819
-123.149
-203.714
-126.924
14.4154
2.37242
35.4557
102.33
127.45
133.087
143.343
115.875
100.919
109.141
138.684
77.2951
-70.9144
52.7181
155.416
36.1789
-112.087
-217.458
-267.282
-219.406
-113.419
0.288445
59.8685
79.3175
60.5198
1.56838
-37.0388
68.0389
196.335
23.5475
-214.891
-194.525
14.0465
76.0592
85.8835
71.1874
201.327
391.003
424.504
346.314
36.878
-213.003
-293.883
-277.498
-253.664
-223.123
-198.323
-241.099
-296.436
-175.338
-3.11587
49.8241
41.211
-6.94264
-2.00253
12.3074
-41.1378
-16.3476
-39.9474
-94.1906
26.9276
190.598
311.659
295.835
219.574
193.556
94.148
-117.209
-203.586
-112.331
7.48681
211.336
245.934
81.936
33.5101
115.114
-1.44237
-48.7025
46.9851
39.1828
-12.5172
-36.6987
-138.318
-172.568
-86.1472
-41.1771
-1.3077
62.5586
-3.62174
-112.464
-97.7265
-193.639
-343.404
-249.009
-124.723
-81.6904
-49.4703
-45.1365
-35.8326
69.3205
193.324
219.006
163.242
81.961
88.0455
213.441
220.219
141.747
84.5144
46.6409
84.6415
50.6267
39.4283
-38.1725
-197.553
-288.173
-251.661
-217.301
-85.9369
237.183
273.17
81.7046
1.56482
7.84493
-86.4051
-296.447
-282.183
-180.634
90.2502
470.959
475.097
186.824
20.7029
-111.169
-103.584
-50.4134
51.0881
83.7912
-42.5281
-264.195
-303.215
-165.985
-26.4222
-12.9422
6.59956
33.1471
62.5818
92.5295
-46.1665
-191.524
-247.073
-130.87
34.256
227.393
300.646
293.805
162.449
-62.7286
-140.571
-51.4085
46.6305
161.959
196.893
141.706
81.6651
39.9775
-5.50662
-3.67449
-40.216
-147.4
-197.689
-144.38
-78.3583
-63.85
-84.9206
-94.2081
-114.647
46.6798
244.235
64.6469
-112.808
-142.839
-110.762
-56.2854
-18.2579
36.1572
80.0116
95.6523
86.8178
41.2568
-18.7718
-70.5159
-78.5061
-152.342
-115.334
106.964
256.78
279.217
211.579
168.045
113.983
19.1887
-140.474
-188.77
-130.034
-91.8403
-74.0134
-67.0742
-23.2377
-25.9662
-40.5115
-16.7397
29.6022
118.849
165.567
118.388
39.1341
-102.652
-252.735
-221.393
-123.259
-47.737
-9.39752
38.8091
93.7281
102.58
75.4643
50.1196
35.4069
23.5876
39.5923
71.9841
66.93
93.7759
34.8295
-37.9407
-52.3138
-64.9639
-64.6373
-100.113
-81.3053
-43.9937
24.9089
65.4605
13.9162
9.52257
41.6425
85.0886
99.1309
18.3757
-42.2955
-7.19106
18.3903
25.1201
-25.5348
-82.5453
-145.308
-178.201
-131.301
-31.4004
39.1566
64.3868
210.089
248.877
137.723
-21.748
-44.958
-3.53797
20.1956
33.5599
-82.8764
-253.339
-193.185
-91.8593
-91.0612
-95.0749
37.7318
146.284
61.1488
67.6123
216.666
113.315
-42.2658
-83.6982
-15.6366
72.9952
57.311
-27.3146
-111.468
-58.4935
70.6795
117.804
55.7497
-36.3897
-78.8283
-9.81845
35.2179
57.0318
129.189
54.4804
-117.945
-119.275
-141.193
-103.303
-0.184829
97.4548
111.884
46.2471
-20.7977
-58.2896
-30.8538
72.5657
70.0545
45.5002
116.683
143.951
81.7003
5.24152
-146.396
-309.01
-424.641
-266.416
-102.423
1.53273
30.7779
54.3191
92.9592
49.0927
45.2723
80.5825
128.758
140.038
94.0851
52.2903
33.5219
4.94025
20.5913
84.123
138.06
163.818
185.586
111.72
60.7679
-47.7579
-198.447
-253.048
-174.027
-27.8365
-55.0395
-117.288
-83.7937
-46.7722
13.4988
95.1327
35.7164
-30.0882
-70.4412
-55.6141
-19.1796
16.4999
28.9573
7.86804
-12.9923
4.52237
61.194
5.261
-73.1119
-102.835
-82.6245
-34.4851
43.5728
87.512
-8.78467
-56.5921
15.6457
129.039
126.316
57.8023
38.3839
47.7095
41.7394
49.2613
4.44836
9.94002
42.6843
78.7826
-10.8198
-47.9471
14.4425
40.9031
-26.4909
-80.2645
-79.464
-169.152
-167.626
-72.2385
32.1361
94.121
89.0169
42.9891
46.5629
32.7654
61.8255
131.671
142.229
108.804
38.0406
-133.721
-242.74
-218.095
-133.74
-63.6817
13.389
30.6439
-38.0545
-120.839
-113.574
-25.2641
56.3885
97.2392
97.182
69.3049
21.0098
-53.3425
-25.4976
24.1137
-16.13
17.2358
116.289
177.712
190.012
135.389
28.6244
-31.459
-89.2669
-161.762
-135.436
-72.506
-23.695
5.50403
45.9038
63.1071
37.967
-11.6522
-60.481
-74.1937
11.2188
85.3296
96.7437
45.2781
-32.9913
-53.7824
-7.70082
44.0641
77.9305
68.4145
7.05305
-38.6633
-23.612
-16.3794
-120.101
-192.318
-209.683
-141.924
-23.7001
49.2673
48.1841
98.9208
93.0409
44.3675
-10.3361
10.5231
140.775
160.701
95.6178
53.9088
-6.88979
-31.7647
-49.8137
-42.3269
8.82946
30.9437
42.5368
-24.2883
-53.3638
-74.7572
-79.3882
-104.62
-86.4472
16.5187
34.6937
-45.7401
-120.969
-84.0135
11.4736
-9.31855
-3.06113
69.2286
121.809
124.483
32.4949
-49.937
-85.1842
7.05653
86.1871
104.467
115.372
159.703
155.967
65.9563
31.9314
18.794
-49.4727
-82.3359
-106.34
-78.2814
-74.8819
-109.727
-122.181
-134.323
-75.02
37.7389
54.6793
48.8162
-5.65299
-38.3366
-19.7985
-12.1606
21.3801
5.49339
-19.3913
37.2463
69.2747
70.1439
70.0636
17.3613
-89.2326
-274.791
-351.075
-179.328
95.5065
240.08
249.681
163.814
93.7554
63.295
59.8351
32.4621
-17.55
16.9216
51.3934
39.9254
17.7447
0.980237
2.59448
29.2071
139.691
167.85
75.6725
-2.06199
-94.2654
-255.206
-236.183
-34.8716
109.469
38.3611
-47.3463
-82.4935
-92.6886
-111.931
-155.525
-192.499
-158.994
-79.1464
-10.0693
40.5746
8.07671
40.1313
129.509
130.721
114.817
143.296
132.39
13.3473
-86.1562
-82.3558
-72.0922
-52.5528
-9.51771
85.868
105.898
42.7542
55.2835
77.8279
54.3928
56.0282
50.8696
71.9885
89.7361
-24.1272
-59.307
12.5922
46.4182
-38.4608
-138.167
-96.0787
-18.7687
26.504
11.3185
-68.6777
-80.2269
-54.7001
-70.9873
-76.7781
-69.6419
-3.91749
48.6437
36.6002
-26.0404
-134.375
-169.508
-97.3598
39.5029
226.299
284.413
233.87
15.2138
-60.9433
42.171
104.246
45.954
27.366
7.39806
-85.9397
-121.33
-99.5552
-47.7315
11.3492
58.317
120.619
108.099
26.7239
-71.2913
-182.77
-184.634
-138.056
-13.6904
39.7201
-22.1722
-79.0719
-84.9835
-50.7747
-24.808
-40.5594
9.78451
87.3258
129.518
143.895
146.018
170.579
163.878
122.287
43.4098
-56.7094
-138.3
-154.951
-65.8143
-37.9348
-73.5545
-94.7326
-19.2755
35.9872
65.1005
121.793
131.851
13.5978
-97.9377
-44.6464
29.5869
-49.6475
-139.99
-163.118
-55.3896
195.206
247.696
134.371
39.0254
-110.601
-182.497
-84.0866
-27.2132
-16.0544
-10.5763
11.3029
-3.84176
-10.7658
4.68666
-48.3299
-59.8509
2.46574
64.3956
132.327
108.344
0.961639
-41.7461
-21.2454
-3.879
56.0028
41.9757
-66.4531
-90.8129
23.0302
66.4231
25.3286
24.9992
1.78672
-45.0618
-79.0639
-33.1946
33.8288
51.6529
21.2812
-38.6383
-93.7333
-67.9053
-13.7172
22.647
55.3404
49.6706
40.4824
50.4254
-6.29072
-62.143
-95.4216
-98.5002
-15.1039
66.1423
78.3617
42.4827
36.1318
43.8574
1.35594
-21.317
-30.817
-10.2911
22.4872
42.3955
17.029
5.39678
23.961
5.71589
11.3413
1.32974
-10.384
59.1088
81.3738
36.5168
-18.0195
-68.2402
-76.1161
-116.829
-135.14
-116.686
-73.0793
-9.04869
21.5156
20.5252
9.21459
32.6535
50.7126
29.5105
-1.0836
49.822
127.781
79.0958
-12.2832
-23.3903
6.75899
27.2937
39.0494
75.6563
76.8047
24.1252
-37.7573
-64.9936
-58.093
-60.3848
-37.2501
-0.0597416
12.2402
21.7096
-21.3315
-96.4884
-122.216
-109.924
-41.0925
29.671
-16.2614
-27.307
8.84225
31.8205
72.2559
75.6369
106.689
88.1215
0.29237
9.01037
38.927
21.9557
-66.1728
-114.781
-109.37
43.5977
226.872
221.817
86.5215
-31.5151
-24.4782
-26.0608
-61.0484
-88.0256
-87.8308
-59.1801
-79.098
-25.0369
23.6235
8.27981
52.3963
91.2104
90.5596
69.323
-2.56112
-127.446
-262.486
-278.561
-158.183
-58.3327
5.18132
72.6167
116.111
133.739
112.6
52.3865
-30.3012
-83.146
-34.4039
81.7938
131.405
62.4259
29.4237
44.3045
48.9737
41.239
25.3572
-1.74185
-19.1492
-24.842
10.3921
35.385
-22.6567
-6.54245
91.317
149.182
50.4737
38.3341
22.7598
-64.8207
-157.051
-158.214
-107.383
-81.5325
-48.0595
-31.6665
-24.9706
-8.60283
-21.8058
-22.6096
-36.0569
-41.163
-4.83681
4.73521
-22.7513
-18.1271
39.7432
31.3391
38.8408
39.1682
32.8943
61.6472
58.4488
10.1112
-24.4396
-20.4395
9.19889
29.5325
35.6654
27.6201
30.0199
17.7568
28.9826
25.4804
-3.37259
-18.7499
19.1504
44.1838
46.3621
41.6533
53.3674
-27.3566
-156.305
-174.222
-65.9545
2.47968
11.5012
-4.97272
-15.2631
5.49603
12.1551
30.1644
38.0521
5.76748
-25.1398
-38.2621
-17.1548
-9.50058
4.34973
26.3653
-17.912
-8.65303
43.1322
67.4134
65.5981
74.524
36.3194
-24.7033
-53.7009
-47.7674
-24.3456
-26.5187
-21.742
-2.68877
1.82534
-8.54185
-10.9541
-19.2463
-19.3302
-32.5238
-3.52206
11.0149
23.1263
39.2406
27.3328
-7.57629
0.791096
8.06284
1.02749
33.0477
30.8187
13.8096
-5.58683
-14.7356
-13.1421
6.99149
-5.153
-7.00436
-19.8153
-65.0806
-87.7409
-59.6922
-1.53476
43.7246
47.0842
29.3856
36.9697
48.4065
2.56034
-39.3506
-65.8433
-57.7662
-32.337
-25.9579
-18.4339
74.5439
199.261
207.506
115.535
53.7877
30.1
23.7583
8.47021
-11.3807
-91.9935
-187.084
-191.448
-113.295
-29.1591
-0.797113
7.44425
-1.51513
12.1534
26.9034
35.5356
-2.33946
-71.9971
-132.458
-89.5646
-58.8296
-12.1339
21.3695
45.6929
59.8017
87.1777
125.208
105.014
26.9744
-22.7905
29.5996
75.446
35.0554
10.471
24.7364
62.027
34.1269
-99.4715
-135.155
-38.7207
36.1928
37.8402
4.12339
-20.0814
-37.1263
-41.5341
-48.3527
-60.0172
-51.6001
-2.92212
18.1824
53.8093
123.4
166.94
100
1.15139
-116.112
-54.625
17.0122
4.92534
-4.35715
-18.6141
-37.6907
-69.1646
-94.155
-72.5101
-6.70321
50.9748
69.0143
78.5501
30.5584
-70.1211
-121.432
-156.825
-137.189
-53.9259
40.1781
22.0556
100.184
156.879
82.806
35.9712
34.4953
48.3787
51.6372
34.9335
17.9058
-12.3421
-20.885
-31.4698
-27.8542
-14.014
8.28298
20.0052
35.1589
14.5679
4.74617
36.0407
-12.9397
-75.5336
-50.4831
-1.78079
18.7433
1.86934
-35.6305
-33.6398
7.81728
22.241
-11.8275
-46.5643
-57.9482
-22.3741
8.97766
18.3758
9.20271
7.80617
-9.55647
-2.86393
-5.8001
-5.0616
15.3157
8.24384
4.55468
-0.708187
5.6175
47.0049
32.8745
17.518
28.2876
24.5105
1.26474
-5.77559
-5.65842
10.6398
21.8495
-7.18067
-60.3408
-111.861
-114.027
-48.735
70.8924
115.823
145.647
125.604
58.6509
-28.5595
-87.7413
-70.8884
-28.489
-36.8893
-45.6801
-55.4497
-32.1476
1.38307
-15.0344
-18.5964
104.34
177.198
117.578
19.7903
-93.4482
-214.06
-270.661
-49.4868
139.125
122.558
65.8281
32.7901
-27.5142
-40.7121
-44.2029
-39.7819
-29.1547
-31.8626
38.7035
50.5634
23.0984
35.5573
8.3055
-8.57277
7.13341
68.8218
90.5738
-6.96512
-53.6731
-30.5246
2.8129
4.07572
16.5104
22.3939
38.0238
60.4243
20.8786
-6.26042
-17.7661
-21.3637
-24.2935
-32.1981
-15.8015
-2.97451
3.35877
17.1134
46.1419
24.2722
-46.7222
-93.4124
-80.2815
-66.6902
-9.02446
43.4342
0.664018
-12.9919
-0.53573
-7.33431
-37.8221
-3.42806
62.2927
57.7621
50.3806
-37.1601
-108.538
-38.8428
30.9903
-8.11341
21.6281
113.176
127.391
47.3698
-19.7658
-42.9708
32.5422
47.0524
3.22687
-42.5198
-55.3931
-53.3547
-104.774
-117.48
-50.3564
31.0909
62.1084
37.6091
24.0019
-21.5904
-91.8454
-73.6381
-61.3839
48.8376
156.71
193.846
131.871
53.252
13.7083
-35.8993
-87.2544
-87.7497
66.2472
87.5046
28.8433
24.7784
26.7625
13.4771
-82.0551
-29.9574
50.2751
-3.31767
-26.8891
-51.7888
-114.077
-126.305
-105.07
-130.55
-40.7235
135.334
199.158
77.3831
-138.003
-209.134
-261.93
-184.977
236.457
312.194
231.458
112.719
34.0388
7.07345
-14.9087
-39.4944
-81.9596
-109.34
-77.5244
89.4644
204.59
54.2389
-25.5699
16.9103
-2.51226
1.61661
68.3227
72.1646
-148.841
-196.841
-110.424
-61.5151
-50.7362
-48.3789
-41.4561
-44.4786
-63.1482
-51.1137
22.9193
7.17605
12.0782
165.257
202.334
138.691
197
263.384
140.079
50.2424
-116.87
-289.166
-303.39
-178.128
-61.1536
50.8023
150.352
188.433
161.173
26.2078
-138.862
-155.067
-138.535
-119.744
-18.8383
62.8383
-10.1604
-63.0023
19.8671
47.4287
39.4052
87.11
79.2763
17.1853
-2.1833
-38.4097
-75.1074
-59.3922
-14.9641
51.6566
101.526
79.9587
-13.7737
-54.066
-94.1666
-67.1726
-32.5287
-30.5406
-11.7048
18.1914
29.0562
64.7942
93.1672
69.2426
27.7766
11.2779
-11.3556
-26.8027
24.8823
110.367
93.6026
28.4922
-120.579
-151.255
-91.0618
-60.8014
-1.29412
18.4604
47.9092
38.3165
16.8906
2.65417
-3.50145
-12.0542
-26.4885
-20.063
15.4975
-2.92712
-43.8602
-72.326
-48.4315
-13.5649
60.0586
96.473
67.5326
24.9366
-45.4815
-75.7362
-35.8985
28.0091
32.7148
-15.5692
-133.417
-146.105
-47.4442
206.175
383.76
223.795
-38.4622
-77.9046
-15.8698
-65.7226
-60.8766
-42.4217
-24.8291
-49.6217
-67.2697
-66.2905
-32.0328
62.4695
28.2096
10.5421
-38.2958
-71.8257
-10.8203
37.5808
58.7558
59.1895
-29.7661
-77.6907
-21.1686
11.7543
-72.7072
-64.4452
4.03413
37.3714
40.9497
34.8839
42.1813
56.0105
8.44209
-6.84105
-3.65542
15.7616
3.85067
-40.4037
-13.2579
-16.0307
41.6065
125.707
160.66
106.228
59.159
-5.2233
-49.5261
-66.0855
-58.747
-60.1762
-67.854
-50.2348
-45.968
-102.781
-95.4687
-17.3818
0.25846
71.2628
12.8362
-0.81098
2.39645
-122.057
-146.245
-82.0085
16.7154
44.9644
104.374
106.702
2.47748
60.0977
114.545
114.421
84.3936
53.5746
10.5916
-17.5741
-9.6007
-19.7463
-15.9853
-48.8915
-69.5521
-4.37469
71.3448
84.9565
37.5805
-79.6795
-148.207
-84.1763
-21.8075
-44.2881
-50.4421
-36.7002
-19.9833
24.8563
39.7898
25.4874
25.9672
17.3549
36.6128
49.2848
35.1717
42.9972
10.6965
-44.763
-64.459
3.43315
2.09068
-2.83299
39.9764
19.3104
-59.6034
-68.9816
-13.7431
15.8944
23.273
14.4124
31.13
55.4246
68.0766
78.9179
45.5166
-17.3473
-75.4294
-64.9453
34.202
-7.66743
-95.8893
-136.003
-33.5254
5.93893
-24.3074
4.88502
-39.1055
-21.6818
2.39047
120.061
180.724
56.1677
29.5088
46.5528
11.9772
-71.2999
-103.711
-120.621
-140.637
-59.8413
122.734
235.748
181.595
67.8019
-1.67038
-54.5453
-65.018
-19.3105
51.9179
-62.4335
-110.744
-62.2708
-60.52
-76.4509
-55.1623
-9.11341
14.7587
45.1735
62.2215
76.9905
-31.2501
-130.187
-100.47
12.3144
50.0761
41.7616
67.5452
65.7896
23.3015
-27.4401
-96.5069
-59.1046
-26.8504
57.4094
70.2469
32.6304
26.4633
5.57276
-100.47
-84.1953
60.6247
129.698
134.831
86.1988
92.2277
102.379
39.3542
-37.1155
-69.4802
-40.7174
-8.05303
-21.5099
-5.2714
-24.2995
-94.1387
-101.36
13.4316
42.8513
40.8657
36.4107
-26.1477
-67.8606
-112.195
-112.995
-73.2329
-76.8718
-53.7568
-2.27409
38.1023
72.4737
58.6196
27.881
-5.73439
-32.4466
11.9776
65.8736
17.7791
-49.5123
-6.48845
68.2383
53.6049
26.5539
-2.31967
-51.726
-149.522
-151.204
-113.445
25.2849
286.994
339.305
140.937
116.707
114.156
101.333
47.8537
-89.6498
-198.951
-88.6836
-21.5744
-60.955
-69.7065
-84.0431
-85.9425
-49.446
35.945
68.9774
66.0549
-28.9836
-198.753
-224.75
-55.1852
-7.1071
-33.71
-73.5463
-105.711
-30.774
132.563
291.435
226.236
102.41
20.8595
0.177013
-7.27475
19.0433
94.508
89.3135
53.5255
-18.9517
-83.5763
-148.176
-150.462
-114.838
-34.0599
-7.96123
62.6497
125.334
70.0572
-60.0086
-54.8875
-11.0553
10.1763
19.0305
6.70228
-22.2525
-56.1563
-38.4799
37.2675
109.899
58.2869
-30.8188
-6.00251
44.1354
-26.2713
-95.5739
-52.0736
27.4936
47.4989
39.2722
37.7445
35.5406
13.1007
-18.2959
-29.1015
-16.3598
-2.53885
-23.169
-35.0758
-52.3856
-80.7235
-54.3204
-17.0889
-3.30557
61.0635
176.662
134.035
64.3472
49.7962
-59.046
-87.1434
-50.1313
-32.9927
-28.3235
-25.5251
-25.588
-37.9463
-104.688
-167.365
-136.141
69.5797
314.445
284.273
130.173
28.6504
-55.4989
-86.5678
-79.7742
-64.8006
-3.26197
16.799
-19.9576
-48.0255
-7.78516
24.0105
46.3114
3.33784
1.15168
0.0740478
-29.6349
-90.1943
-147.947
-83.0256
-2.58533
13.9062
3.16018
23.2576
66.6715
107.762
24.7892
-76.8802
-27.9763
106.965
81.7496
22.6931
9.95574
45.0855
53.9584
53.2527
16.3011
-35.3496
-88.4442
-109.121
-98.7027
-1.32659
67.8479
30.927
-53.2928
-28.5558
74.7567
157.127
129.234
-1.66418
-70.5804
-147.287
-106.521
5.79913
-33.1765
-48.5228
6.31455
-10.6501
-19.5099
64.3135
109.393
71.0814
-16.8458
-39.9302
41.4576
17.9268
27.0064
34.0604
-1.86782
-90.3375
-129.997
-67.5193
-53.0362
-4.8263
91.4576
91.3693
43.5397
9.83803
-43.4393
-131.322
-153.955
-76.4837
111.651
177.99
95.6727
29.0276
-15.8534
-53.073
-48.9392
2.46991
36.4096
57.1105
44.372
-19.5788
-71.8145
-99.2933
-17.9378
114.595
154.38
116.36
31.9715
-36.7349
-110.089
-84.8308
-26.7467
-25.4024
-15.2324
-32.3656
-40.2127
-5.13035
10.6827
-18.3922
-45.1153
-90.981
-47.9043
112.563
182.71
46.494
-22.9988
-42.6734
-10.4573
-27.2446
-31.279
41.4485
69.7777
55.5745
-15.0843
-6.1597
38.8558
56.5113
31.4269
-42.9238
-100.237
-35.7588
44.7392
4.71236
-82.0941
-65.7872
-55.5824
-38.9815
-5.72745
28.4799
21.0265
-25.1953
-33.6099
1.19715
37.3808
28.7452
-23.1804
-32.6055
88.4185
136.197
100.909
63.923
46.3065
-8.39854
-65.6314
-66.6567
-46.8924
-7.70732
16.6254
9.74482
-9.46591
-18.5222
-29.9468
-46.106
-10.19
38.5942
53.339
6.46895
-103.845
-118.829
-89.6076
-2.61431
-40.0109
45.8139
106.813
140.117
103.622
37.6051
-53.2269
-108.75
-55.6041
-15.4382
16.1455
17.0715
-4.20613
-20.8928
-3.06123
17.1057
30.9222
72.8616
87.0099
-11.2034
-37.6131
-74.6799
-41.6578
70.5256
-4.03787
-43.9558
-34.2634
-35.9315
-76.5462
-22.3127
77.2067
120.036
150.822
125.463
-29.8405
-121.363
-98.4794
1.45997
22.2506
-13.6574
14.5659
12.5146
-61.9532
-162.302
-115.498
-7.7544
78.4225
88.7641
75.0625
46.4623
-24.8874
-58.7674
-84.6338
-70.9446
36.6167
78.0769
75.6168
50.0352
58.4291
40.2625
-20.9253
-59.4298
-58.7288
-45.3735
-2.83658
9.97467
23.354
49.968
31.8937
-28.9274
-34.1578
-22.1706
-16.4221
-11.766
2.60809
42.954
47.1109
3.68371
2.28271
50.9358
134.247
79.9197
-82.1636
-162.38
-96.1042
40.5629
5.35745
-36.0171
-94.0834
-45.3554
63.6455
119.708
38.908
10.4966
11.2867
-5.40391
-33.5044
-47.609
-41.3476
-23.222
-41.3836
-88.6868
-50.3899
-14.1122
83.2465
105.202
47.0584
48.2884
82.8715
79.6351
-9.67991
-94.3384
-51.5093
-33.8548
-15.0485
3.45741
11.593
22.01
-3.61638
-40.1607
-48.6763
8.9454
52.2317
6.94337
-64.2782
-82.398
96.6504
176.169
87.4596
-14.5688
-92.8615
-63.2186
-6.38772
31.4954
56.5065
-14.024
-110.991
-136.925
-158.453
-158.741
-41.3395
151.665
244.688
300.937
187.964
2.92942
-83.1029
-78.5197
8.59414
18.4124
-17.6369
-89.2925
-121.57
-87.1303
-30.1699
22.926
25.8539
-6.62474
-16.478
53.1525
83.533
5.1783
-51.7391
-91.2017
-89.6792
-60.9955
-56.2429
-19.7874
46.4029
56.9923
46.7195
57.2266
65.8402
6.08003
-39.1023
20.0457
1.17199
53.9882
117.301
96.1007
26.4551
-56.6729
-107.254
-103.601
-40.4096
12.2381
24.2598
0.954339
-5.21247
2.11358
16.3239
32.4588
43.6826
17.9006
-61.2566
-61.9253
96.2663
111.091
68.5255
-25.7349
-100.216
-130.8
16.0284
133.565
54.883
-40.6536
-69.334
-105.889
-89.0637
-77.8323
-62.9929
-3.6389
50.7363
65.4179
66.9947
42.129
32.7499
-2.69924
-24.669
16.1574
69.1359
105.03
-57.2438
-265.658
-154.815
-10.8853
69.5037
95.5756
47.2978
48.5978
57.205
19.1211
-26.5389
-4.74225
34.5334
-30.7229
-70.5669
4.31993
78.2382
72.7876
24.8678
68.1698
190.845
237.708
179.108
55.3858
-112.959
-256.66
-270.342
-154.696
9.78254
23.1367
-16.3115
-96.5417
-113.251
-69.385
-52.6461
-49.6126
-79.0173
-75.9112
-61.9192
-89.717
-153.069
-79.3217
-7.55407
66.3333
150.859
210.294
194.944
122.188
47.7303
46.8469
45.0044
71.7762
112.948
145.504
111.075
76.432
46.2711
-17.1682
-19.7351
-11.9441
-11.0143
4.6507
-38.9501
-80.881
-56.6556
-6.86705
28.8324
22.1895
-29.8221
-49.2157
-33.3022
-47.1066
-73.1446
-39.1926
-22.8078
-110.513
-149.358
-93.2716
-47.7364
-52.4276
-50.5209
-41.2983
-9.28173
30.485
19.0365
41.2238
79.3973
86.1811
43.3592
-4.68699
-30.1443
52.0042
55.8476
-37.9038
-93.145
-34.2859
40.955
198.047
172.937
101.794
88.4714
-3.06365
-82.2521
-99.538
-27.3154
19.2575
8.01805
-1.17207
-26.4546
-74.5888
-58.4478
-33.5483
35.8516
13.4914
12.1241
35.3036
27.3305
-115.377
-198.252
-184.556
-15.9904
175.982
148.179
27.8049
-13.6799
40.1591
129.287
116.883
28.5025
-15.4247
-35.9378
-46.7221
48.6676
111.886
-17.8482
-50.7789
-59.3602
-62.2686
-50.2099
32.5684
18.1091
-97.926
-69.4794
0.85334
12.1865
-36.965
-90.2921
-111.197
-52.6673
56.449
126.752
69.5755
-57.8778
-50.4651
39.4448
58.4176
48.17
40.0162
81.6307
51.8921
-51.6513
-63.5401
-28.6474
18.2888
45.6541
17.0883
-7.87958
-7.60247
11.1414
18.8474
6.29489
42.1587
9.66028
-26.4495
1.93527
21.5909
-10.1285
-39.7602
-8.74891
-30.7104
-60.2213
-33.6591
43.5106
53.6477
-71.6877
-58.3574
37.9583
11.7688
14.1385
19.7644
19.6984
0.175932
-26.1759
-11.9462
12.9915
-5.58511
-4.57381
27.4057
21.442
11.6225
-2.70824
-19.1379
-39.8653
-38.9681
23.1107
-1.3996
-103.168
-38.4816
53.3487
42.0265
25.3172
14.911
8.47158
19.7389
24.8114
27.6988
47.4862
47.4766
19.1569
-8.49414
-58.4352
-79.6471
-58.5475
-32.9765
26.8938
65.6338
67.7435
-13.1677
-73.9547
-13.2647
8.68998
15.6457
9.60807
9.09893
38.3312
59.0562
5.35868
-93.7623
-75.7567
-15.3909
33.5881
45.5137
11.2501
-15.784
-16.5855
-7.89931
-10.5136
16.3295
38.9195
-23.8578
-78.9022
-195.605
-88.0161
70.7591
145.442
152.65
136.964
83.0458
34.0739
-6.46042
-34.0061
-50.2083
-58.362
-44.7582
-2.55452
25.7762
37.0803
4.9355
-32.1995
-27.7002
-18.4731
28.478
-6.37459
-65.7508
-107.82
-67.9084
-24.3111
-19.097
-3.6032
10.5522
35.1889
49.5556
9.34901
-39.3342
-99.9406
-28.2333
57.2295
30.2607
39.4062
66.1139
116.247
190.117
99.6923
-73.2719
-186.924
-102.287
-21.5644
20.6306
36.0015
39.6156
16.0894
-7.01571
12.4651
34.4532
50.6786
-7.79795
-42.9464
68.0454
39.3431
-14.8766
-8.39607
-20.7293
-23.5448
26.7357
61.4951
-49.1218
-105.629
-110.347
-141.443
-81.6755
-28.9066
-3.34915
46.7225
77.0686
75.5326
35.2051
-8.21409
-66.3141
-31.1491
42.1911
-2.66696
-21.2422
48.4937
69.4775
73.3044
24.0951
-15.0649
8.91627
43.9413
21.6873
-6.50769
-14.0276
-8.88356
-2.14745
-8.68779
-25.2631
-26.9031
0.459574
2.93386
-13.8117
6.76078
19.7856
-26.2659
-19.5898
48.0147
-6.01059
-15.98
25.324
-22.0495
-112.236
-149.19
-67.0833
96.2902
149.344
139.951
82.7312
19.4106
-3.41483
-23.2173
-20.9094
-16.2062
-20.7822
-49.1138
-53.5923
-74.143
-34.1241
-4.9707
20.8986
-12.6656
-37.8094
-25.9947
15.6877
74.5696
19.049
-30.0548
-85.3291
-31.8855
84.3917
176.591
74.9651
-16.0588
-54.9965
-34.3461
-10.1636
5.12003
-11.0129
-10.2257
6.7602
55.4279
75.9283
64.2716
-5.395
-105.244
-103.837
-93.8593
-47.8244
61.3604
100.769
9.65141
-29.6455
-17.8325
-32.149
17.3042
104.319
23.103
-24.0096
-51.795
-37.6187
28.3776
79.568
85.1455
22.5127
-38.5968
-19.5411
27.2432
-4.65407
-58.4208
-80.5195
-86.0586
-46.0732
-44.0026
4.92506
-30.6186
-106.722
-45.674
72.3578
88.2415
72.0854
35.1532
6.11797
24.1866
20.9221
-7.06483
53.9931
90.8813
97.1455
38.5061
-73.1017
-102.242
-63.2596
4.39529
62.3105
57.3004
43.638
9.12465
-55.2178
-70.524
-55.792
-13.4245
13.7314
31.3517
22.4502
-102.492
-228.998
-190.691
19.4971
127.691
187.236
172.519
138.132
125.925
64.4503
-30.7228
-71.2617
-73.2888
-58.092
-37.7621
-39.5791
-45.9867
-48.1909
-58.5069
-42.8858
15.5124
30.88
-17.0311
-107.09
-134.465
-101.594
-16.5698
123.49
217.104
171.889
103.51
52.5606
8.60015
-11.7709
-7.00133
-21.7557
-19.942
-16.1267
-34.8432
-40.2359
10.3608
50.8114
45.5444
9.70129
-32.1812
-69.5664
-74.1783
-100.998
-193.906
-182.047
23.7166
161.975
173.612
18.174
-24.879
0.125422
26.5155
48.763
42.0347
12.886
18.7303
26.1477
33.9288
65.6369
47.8394
21.3975
-0.43518
-30.9923
-30.2018
-10.0927
-33.9066
-59.9649
32.8697
91.7229
-30.0319
-56.0846
-49.867
-17.3315
-6.78862
-18.0712
-21.838
-19.3896
-32.3911
-61.9169
9.31511
23.1305
-0.657248
18.1808
73.8806
67.5788
-45.4441
-70.2159
-74.8815
-30.9352
55.1496
36.9711
8.22866
-11.0522
-16.9581
-56.6294
-111.622
-92.2962
101.885
256.695
208.636
92.1163
10.795
-47.084
-109.127
-88.46
-53.3839
11.4819
-3.52709
-12.8167
12.5658
1.36098
-18.019
-30.0566
-20.6967
39.206
75.5899
69.6899
-29.0858
-83.7129
-106.481
-67.3735
-45.2573
-85.9771
-25.5663
12.2275
-31.7971
-92.7395
-55.6074
76.2218
293.391
297.604
183.488
71.2963
19.752
8.98258
2.01622
-19.4318
-103.972
-146.232
-141.987
-135.388
-46.6161
7.56879
24.6481
100.619
108.132
53.9488
2.36645
-57.4282
-149.556
-155.838
-117.966
-69.9827
-2.07011
73.3813
71.1344
16.888
22.861
-9.84282
-25.2039
44.108
76.2207
89.1707
51.154
34.26
77.0801
63.2263
-0.329159
-53.0679
-103.903
-69.496
-15.0676
3.66649
-36.8341
-59.1916
-13.6555
88.2411
88.332
35.4358
33.5343
19.677
3.40016
1.11843
-47.285
-67.5215
-27.2362
67.2917
85.2573
-16.569
-58.6334
-70.0829
-44.3961
-15.6703
1.1476
7.34121
0.310215
-21.5934
-45.2777
-16.8238
1.48598
-8.45784
-19.2927
-1.22451
13.8321
-37.7244
-18.9552
78.358
147.806
184.146
116.244
27.8534
-45.3258
-70.1133
-59.9078
-83.0163
-114.021
-111.522
-59.8358
-5.05078
32.1387
44.4808
50.638
44.5834
50.8433
64.4804
27.7405
-84.5521
-115.336
-83.2419
-42.4032
-3.59371
19.3192
22.825
31.0777
62.2198
79.2665
55.8653
27.7833
7.90658
-34.7233
-35.6893
-23.2709
19.4858
126.06
118.756
31.7464
-83.6406
-130.917
-79.1148
-29.3288
-11.5679
-0.657749
11.536
4.95136
-12.1235
-12.148
4.18375
0.970526
15.9601
19.1443
19.8189
16.1545
-8.27407
-48.1948
-49.8142
-45.8047
-12.5846
31.6127
36.0555
29.8252
13.4103
-47.9924
-95.8446
0.591234
62.208
45.7241
26.9439
6.02071
21.7006
58.9598
71.0087
28.9809
-1.81304
6.12319
-8.13773
-11.0119
-40.4028
-51.0641
-62.9091
-74.2991
-38.3453
43.5201
84.3457
24.4129
-21.4817
-23.9483
-6.94924
4.85297
5.06755
-8.19414
-18.9032
-2.58576
11.9604
-6.68084
1.16865
-17.0779
-41.5748
-53.5974
8.42424
91.3364
122.635
121.475
65.0725
10.7117
-21.1416
-85.7581
-135.696
-90.0659
-36.8481
-10.1925
-15.0218
-12.5789
-13.4346
-30.9236
-13.9577
84.6566
101.838
80.879
27.8461
-33.6471
-42.7829
-23.5061
3.84952
-45.1494
-66.4106
19.2221
87.2428
75.7028
-6.6509
-69.6938
-50.0452
-10.4428
-32.5694
-68.7628
-29.7729
-8.93711
114.558
167.155
133.596
64.0506
-13.4498
-56.2839
-32.2107
-31.9012
-41.5704
-17.0402
22.2279
-42.4173
-39.672
-9.91904
3.32551
-21.4331
7.7426
58.634
50.8608
2.39934
-119.136
-145.229
-95.9464
-55.0412
-16.8189
37.9009
37.168
28.8038
29.6785
43.8856
46.2407
29.6645
-8.41995
-45.2064
-100.358
3.17436
143.064
187.056
91.1052
21.52
10.3454
15.7073
2.90869
-17.2624
-23.1219
-41.8867
-37.6502
-25.5205
-38.1683
-70.3491
-90.1064
-65.3237
13.4145
99.3609
140.62
59.3898
-42.4908
-86.117
-54.9153
5.7679
16.8836
-1.77827
-35.8155
-33.5767
-15.202
-23.8146
-17.7812
-16.044
-70.9161
-72.8012
-5.90233
100.316
159.202
144.086
96.619
18.3395
-34.1341
-61.8588
-49.728
-54.7456
-49.2373
-13.0165
-1.78078
-20.9126
-15.5997
-19.4773
1.1753
31.9978
84.5508
70.8525
26.3656
-11.5896
-50.9188
-62.1901
-24.2087
23.1285
-11.3576
-51.5129
-31.2483
19.2765
68.6752
20.635
22.4025
58.6476
-14.7109
-61.6481
-23.0816
21.1739
30.3188
-40.2413
-88.8877
-52.1967
-9.49398
24.0537
24.7879
5.13984
-49.6394
-74.0506
-35.1593
51.1956
160.95
172.014
116.09
36.0395
11.4867
9.67168
-17.9524
-36.5653
-31.5589
-11.8728
-4.94287
-32.3552
-63.6339
-66.5406
-21.3602
-8.12198
7.50457
30.9579
20.2812
-23.2867
-105.444
-100.35
-83.1552
-92.4949
-60.8774
-22.8796
-25.043
7.87082
157.724
148.015
83.874
59.5983
17.2697
-7.58076
-20.7709
-5.58674
34.1195
55.5407
43.3793
17.3973
-26.9456
-36.4754
-33.3985
5.85755
47.8596
51.8654
42.0599
-7.77377
-92.5634
-71.3636
-59.5662
-21.6632
-38.7656
-19.2374
5.70036
46.5425
70.5664
63.3553
31.1876
-37.0697
-128.836
-120.028
-64.1706
43.7728
143.406
146.047
113.766
26.6462
-64.854
-50.2352
5.03798
-12.5446
-1.60649
-7.53009
-26.7663
-37.9889
-31.4808
-23.9636
-13.6223
13.5536
53.3576
55.3327
20.8849
-35.8678
-88.1375
-111.385
-99.0259
-20.422
18.4367
31.6214
47.965
47.1421
21.5918
-2.5824
-5.45036
8.60776
29.7729
29.6593
24.9776
23.0838
27.0649
21.4187
3.81132
6.22049
-7.6634
-9.45968
-1.42541
-46.944
-101.189
-125.929
-45.1028
128.3
220.827
167.808
32.8635
-104.401
-82.8272
-14.2443
-1.91204
15.3802
13.4588
-20.0923
-43.1121
-43.5021
-26.0429
9.72028
11.2362
21.5629
40.1498
6.37155
-87.1594
-176.309
-149.315
-64.1211
82.8774
182.879
78.2556
20.5634
41.7152
44.3318
-9.16845
-46.791
-18.0352
-5.5034
41.1909
-10.1577
-71.1932
-53.402
29.2922
159.556
100.59
-0.693886
-29.9609
-22.3258
-25.5914
-18.6281
-6.01699
-30.4265
-89.9505
-89.1789
-5.10432
17.4258
1.5835
31.4509
35.0043
63.0181
149.92
161.525
56.3507
-52.8207
-52.246
-55.1223
-58.204
-24.1782
-27.9169
-78.4624
-61.7353
-39.9796
-33.8804
-34.2043
-37.6319
5.62033
42.1583
0.65886
-46.0143
-40.4701
-44.1184
-15.6006
15.6935
19.9836
58.2672
69.1119
54.8576
37.5056
14.0635
36.9512
50.6082
25.8406
6.21447
31.9724
99.8606
157.105
122.192
-78.3746
-206.397
-161.474
-101.802
-61.4209
-28.5847
-7.47014
16.8642
22.9568
8.23002
5.04265
4.85159
9.12245
15.2454
20.4929
66.2931
97.2805
25.0205
-89.6359
-107.068
-112.475
-77.5533
-13.9919
77.9083
145.606
155.044
104.223
26.1689
-34.4132
-57.3594
-59.1735
-56.2186
-40.9154
-44.9995
-45.8743
-23.7702
32.0358
80.3877
42.5332
4.80035
44.5194
39.8173
-19.0589
-55.5383
-98.8978
-111.488
-44.7447
4.10025
7.79542
-28.5554
-61.9803
-31.9335
3.80897
36.3362
33.5413
35.052
26.9656
35.7725
61.6237
42.1028
81.4588
73.6381
-20.3809
-78.3692
-37.8892
52.0174
105.047
91.7205
44.8217
-9.7231
4.18642
5.44948
6.95174
4.99319
7.12628
-54.5246
-162.638
-163.89
-31.4479
8.03829
12.4606
33.1544
62.2781
33.4316
0.139373
-51.1946
-145.168
-133.061
-27.0731
22.4494
-23.4448
-2.28059
28.121
34.9601
36.1813
52.2193
115.159
21.7
-73.7674
-4.72336
43.1013
80.0121
144.226
97.2995
5.39716
-86.3078
-83.3488
-34.0966
-32.8099
-4.54775
26.8384
17.2675
11.0501
-2.47015
0.371806
25.2868
1.8425
13.6932
4.02696
-17.0274
-10.8252
-10.5352
-43.5684
-39.2797
-46.0407
-42.2313
-46.7703
-85.5208
-91.5676
-87.6096
19.1513
96.2585
7.81846
107.848
184.281
185.67
122.396
37.7214
-55.5076
-60.9524
-10.5649
4.34673
-42.2285
-94.7663
-92.6125
-57.5796
-1.62518
35.3321
47.1987
41.1835
-36.3149
-115.438
-37.9254
-65.5303
-93.8439
-48.9534
-14.7293
10.5387
32.4416
21.2795
-13.6059
0.25988
42.6416
75.0542
78.7443
62.5634
42.7332
45.9146
49.1712
64.0951
93.4177
70.842
-3.5381
-67.8533
-81.8358
-95.976
-35.193
25.3259
41.5814
26.9258
-6.8733
-39.074
-49.9853
-35.0831
-1.25565
50.3355
43.1013
8.97447
-6.78683
-15.895
-55.0469
-111.332
-76.645
-27.0058
34.6136
106.6
75.6262
60.6639
15.1336
-28.4861
-43.4432
-71.5403
-83.2042
-65.3612
-38.2082
-30.6525
-10.1383
17.1072
30.789
29.5621
59.1657
89.8878
69.7625
-0.629153
-93.4842
-110.566
-63.7147
-53.3246
-1.16303
116.489
147.895
4.54715
-56.7037
38.2106
48.0288
52.4404
129.242
67.1
7.1344
-8.61221
-117.208
-181.135
-78.4486
170.091
230.907
133.965
39.6548
10.4057
-43.4362
-171.384
-213.732
-57.738
36.363
-55.7883
-49.439
-57.4983
-114.941
-84.7256
-75.5672
-41.8365
42.5989
108.004
164.891
48.1059
-50.6975
-32.8311
-16.3807
22.8252
71.3685
74.4247
61.1501
61.033
43.8716
19.3074
-8.04042
-11.8593
-30.7631
-24.8751
-0.267166
3.36344
27.7972
52.8023
2.63406
-45.5681
-23.0434
-46.9725
-67.3527
-69.6883
-56.0223
-12.486
7.5431
7.40306
-1.24076
11.2034
22.194
37.118
33.879
25.8547
24.7494
-2.88792
-13.7766
12.5773
-14.7574
-66.1817
-31.8962
31.466
78.9424
66.5062
29.9126
-16.6546
-43.979
-17.2798
30.7367
64.304
-10.7542
-109.281
-111.064
-39.2466
43.9262
93.9874
94.4157
37.3113
-3.43587
23.9005
-16.4423
-64.1571
-92.9027
-151.339
-205.767
-124.934
126.127
153.124
54.3163
-21.0655
98.8617
204.218
180.555
132.129
51.0595
-37.4818
-128.61
-163.454
-66.8789
-19.0652
87.9707
53.827
-31.9108
-50.9687
-42.9091
5.77635
-64.5203
-103.027
-70.5977
-42.173
-65.128
-87.5407
-105.647
-73.754
18.0435
146.509
200.553
126.739
-83.0887
-140.062
-16.9216
48.9184
64.8903
88.7245
132
111.829
47.3316
25.5113
35.6277
51.2542
19.203
-6.17927
-22.3971
-91.0625
-118.714
-111.55
-65.2943
12.7452
77.5266
81.4045
-7.61996
-14.126
-17.4585
29.7526
62.4166
43.5432
-3.21737
-20.0026
-72.8663
-122.248
-104.04
-87.6472
-70.2683
-27.3438
22.899
16.0581
17.3833
56.7195
79.3741
141.973
139.566
26.7613
-6.631
-12.025
-1.72268
-27.4229
-51.6805
-64.9427
-35.299
-6.45952
-13.4026
-11.7984
-1.24307
18.6963
32.0403
4.78652
-95.1393
-91.0631
-35.9689
-33.2363
-60.2245
17.7746
74.2591
49.5679
10.4952
26.3839
44.2952
72.7518
87.114
30.9152
-75.4845
-31.6943
3.49034
-63.9425
-85.4936
60.2818
193.538
210.503
165.904
43.2202
-112.881
-124.837
-75.2025
-56.6556
-89.8593
-85.4193
-8.23816
-22.9456
-34.0693
-2.6516
46.1492
28.7965
-10.5253
-1.52672
-7.44688
-49.7979
13.1725
-52.0294
-78.8188
-75.9764
-61.8095
5.37304
62.1229
80.2611
106.94
75.6384
4.7127
0.0234182
20.9743
26.4918
59.5066
36.4004
-8.27393
14.6652
-9.62166
-57.2865
-38.7596
-25.2196
-10.7886
1.75491
17.9242
-32.4102
-42.7873
-12.4951
36.5388
27.7413
1.99147
-2.42764
-17.6512
-15.2982
-14.3195
-26.4241
-5.42738
11.8744
4.34431
3.60978
42.5335
91.1787
66.5498
54.4685
-3.71982
-141.219
-169.939
-46.3347
63.5479
61.3897
2.26816
-42.873
-19.1581
-1.49746
-15.8454
16.5119
50.091
37.9254
25.167
-12.6702
-81.8237
-46.7858
-6.99312
1.75865
36.6926
113.539
113.776
40.0076
-37.946
-23.7553
-17.5484
-39.0031
-56.8386
-21.7317
59.6155
68.1582
54.0081
0.641352
-4.5698
-9.29436
-86.049
-81.2336
-38.1179
-23.3417
-1.23414
46.4152
26.0816
-31.9005
-29.4025
64.8551
18.6707
-88.8567
-146.415
-17.2722
186.594
95.3452
25.6287
22.5746
-7.94933
-41.7584
-43.4885
-34.8437
-39.1368
-28.5761
-1.9887
-2.24585
6.65378
18.648
1.66039
-23.7016
50.8554
109.31
103.483
14.3527
-104.375
-43.5471
-37.266
-44.5504
-41.2499
-7.88165
27.1905
65.899
72.2384
-14.1388
-168.882
-197.949
-43.4608
209.277
307.455
80.2428
-32.4738
-37.1749
5.232
-11.1456
-74.5945
-62.0001
-21.9614
-1.11663
13.7901
4.09464
-1.82404
-15.4562
-0.600562
27.3785
85.7351
102.732
54.26
-78.5584
-154.154
-69.0062
-17.1807
35.4133
37.5542
5.64072
-53.5221
-61.3715
-40.5759
-7.36882
26.3996
6.83691
-11.8979
-40.9696
-62.4167
-11.5237
78.8099
102.643
95.4275
63.1532
-12.8595
-41.3021
-29.4471
-10.8867
52.6421
8.61187
-19.4772
-4.04854
-12.0421
-36.6867
-46.0897
-17.4411
-17.3351
-28.711
-100.561
-78.2562
7.74026
27.1684
68.7319
216.625
221.021
108.975
29.9151
-14.4724
-67.3507
-83.0316
-107.548
-89.1345
-51.6384
-28.7295
-22.4715
-17.7092
-9.17907
16.1142
57.3868
75.2083
89.5104
79.3456
-97.3702
-316.74
-237.091
-79.6573
38.879
92.1482
61.3928
28.6222
36.5638
50.6118
83.1032
164.431
109.449
43.0102
29.0485
31.8027
47.5683
10.0659
-43.6409
-40.0848
-26.2129
-73.1936
-108.257
-64.6156
-41.8266
8.4225
54.136
106.547
99.6099
60.0338
4.67994
-51.3486
-73.8273
-75.3429
-103.082
-104.098
-30.0849
18.4953
21.6893
-3.18881
22.6462
131.059
128.201
-24.7188
-132.247
-39.3197
-102.477
-265.433
-235.693
2.65601
387.946
310.885
-9.46368
44.3748
62.021
51.4588
24.7415
6.61245
-21.1387
-46.9497
-48.3334
-55.0804
-53.958
21.2928
79.7246
-21.8621
-28.3784
130.978
160.998
-124.482
-336.622
-231.617
16.2017
56.1882
61.9002
65.3054
44.5251
30.7326
35.3503
52.513
65.9271
24.0432
21.2114
44.3252
11.8126
-28.9323
-35.7112
-41.269
-16.0123
38.0233
-8.44679
-65.0073
-28.7352
-48.6126
-44.6313
12.917
36.3198
5.87542
-1.38005
18.7256
49.1079
3.22509
-22.0071
-12.9481
-19.8767
-30.3017
43.557
75.476
-5.58708
-100.385
-65.291
66.0421
101.65
114.497
-7.1165
-41.6478
-66.35
14.6352
0.733715
-21.6555
-49.771
-55.8649
-112.532
-124.021
9.04746
113.31
161.612
78.5894
43.3306
109.429
29.7422
-115.379
-60.6526
-36.6869
4.6952
-109.845
-143.751
-37.3398
180.623
212.819
112.649
42.2891
-129.921
-210.382
-25.5345
10.2564
-56.3257
-54.1344
-51.4666
0.84316
-19.7998
15.428
21.9994
0.893224
37.0987
66.5638
100.658
51.6823
-40.087
-75.0167
-39.0359
6.36173
124.532
187.195
53.1398
-68.4486
-109.922
-6.48351
221.104
168.977
-76.6296
-116.033
-103.883
-95.8573
-63.4918
34.8711
70.2056
-2.97016
-86.6939
-87.4484
-60.7987
-5.6688
67.4411
107.354
64.6021
-2.51559
-91.4595
-139.649
-211.17
-115.6
118.094
135.204
42.8168
12.0886
30.8784
44.5439
23.4317
-13.1147
-41.9641
-34.9001
-18.7002
-6.17254
26.1195
21.2686
-88.031
-110.562
8.78415
237.971
258.721
99.7486
4.11141
-8.38979
7.40243
-26.9354
-41.0147
-52.78
-44.8311
-29.7247
-25.353
-29.9091
-52.9908
-35.9538
0.460492
6.65789
75.5116
105.165
74.0682
-52.5367
-180.534
-140.001
-89.8752
-100.182
-45.4623
46.3814
116.952
162.377
-2.34984
-69.5934
-89.8679
81.555
165.971
159.68
64.3087
-27.012
-44.4752
-3.26997
-6.50199
-57.1257
-47.5934
-30.9453
-32.4473
-34.2789
-23.7046
-2.89507
-33.6669
-76.9248
23.4517
34.2666
4.96759
-94.0145
7.6602
83.9242
48.9019
37.9699
63.0781
46.427
21.3929
-8.67356
-11.6103
7.81443
6.49558
8.46518
-1.51639
-28.6762
-39.2713
-59.9259
-38.988
-16.6612
54.285
56.3746
-19.8029
-41.926
7.94075
-15.8163
-29.0083
-5.51592
23.8411
2.84615
-31.5683
-42.2484
13.7193
38.6421
5.14792
-6.35865
-44.0136
-109.311
-105.438
62.7662
264.881
228.232
99.9631
-16.838
-54.1738
-32.7141
-34.5726
-9.27577
2.23284
-45.2847
-94.5631
-87.3447
-108.385
-47.257
40.6652
64.7011
40.1285
35.8629
48.3589
13.6844
-109.081
-130.848
-109.785
-1.76665
56.289
60.7886
58.3726
46.2468
42.0036
47.0687
52.7537
30.3117
18.8501
7.06197
-7.57771
-24.8194
3.95421
45.1199
28.646
-61.3809
-76.7387
-83.2638
-50.9937
-62.2119
18.8625
159.416
149.039
1.68049
-107.659
-80.3039
-29.9611
-8.05314
-1.4748
-26.6834
-45.0704
-30.3785
-15.4658
17.6559
232.918
215.257
-21.0118
3.06061
24.1021
-18.1582
-44.4316
-80.2373
-109.808
-63.1853
-12.3903
-16.6269
-4.8738
-14.1815
-13.9393
-1.50395
10.9585
21.772
53.4889
20.7855
-120.627
-171.011
-37.7818
48.9455
57.3674
6.28845
-4.3609
-21.5046
-63.5717
-70.6982
-25.549
134.419
212.923
214.29
161.664
75.0139
-5.10114
-52.2906
-63.7445
-38.9305
-57.4909
-7.95634
51.8684
-21.276
-77.0919
-41.4457
-30.17
-40.5644
-0.810974
51.8004
46.3066
-37.156
-104.996
-120.601
-76.5965
-16.2219
17.1843
14.9883
30.0197
21.1534
-29.2437
-8.27864
-26.6298
-29.6544
-9.64732
-13.6763
57.4145
175.322
101.795
67.8849
70.8891
47.84
-8.73733
-25.3614
-36.2952
-49.9191
-85.3752
-62.3054
-68.1575
98.6082
194.263
48.7955
-77.1389
-99.9906
-83.8782
5.91605
93.2715
90.2104
54.8523
-158.656
-184.726
-168.557
-89.5729
-51.2282
21.9049
77.7023
122.885
92.0116
48.5366
-36.7971
-50.3769
18.619
81.0195
100.191
98.3439
33.6239
-54.5184
-145.765
-180.711
-66.7121
25.6432
149.067
161.822
169.771
95.8386
2.96081
-57.699
-59.3416
-34.3491
-148.933
-231.343
-146.479
92.1718
171.002
109.37
78.8294
23.7139
-60.048
-21.7097
80.0674
40.6111
-65.5202
-116.674
-127.909
-97.7508
-58.2145
-45.3457
-14.6031
102.277
121.536
107.155
86.7805
5.05734
-42.2239
-44.4969
-89.7438
-90.6
3.43337
66.6188
61.5609
33.8032
8.77868
3.43437
18.8625
14.3549
17.1416
22.0052
0.810043
-36.4241
-14.7891
5.60175
21.3627
-12.0294
-31.0644
4.15578
36.497
25.3848
-3.58304
17.7672
47.3931
27.1439
-19.6299
-30.4452
-29.5379
-34.5944
-34.1031
1.2907
29.8806
3.69606
-22.2832
-50.4172
-68.8321
-51.2879
-16.9783
-3.66325
16.977
56.6307
61.1465
-39.2541
-46.0994
-59.148
-151.608
-172.959
-85.1741
175.172
435.634
410.207
70.2524
-102.533
-156.545
-91.0673
-1.00023
84.922
102.227
86.4067
41.2263
-77.5712
-185.271
-128.958
-89.3434
-79.8484
-2.2615
48.0141
27.5534
-74.8449
-207.53
-205.731
-112.622
-14.8017
15.1667
23.638
231.239
95.6445
-26.9549
68.0656
78.8271
82.9391
114.454
96.0684
57.9076
78.6557
94.941
73.6418
20.5071
-68.0051
-141.502
-99.8327
40.1831
35.5863
45.5354
66.4223
-94.3494
-94.3851
-52.9104
-120.763
-101.953
-51.1161
-9.47154
41.4993
55.1782
37.852
26.7976
17.9441
-1.29082
-45.8121
-77.0452
-75.5737
-14.1986
27.0742
44.8842
54.6421
20.5053
1.62461
-21.3758
-51.9601
-56.5918
-9.62889
68.0848
65.4229
54.6625
51.0309
48.7043
43.7083
27.865
-34.4783
-84.4424
-76.6512
-42.519
-3.24381
38.6693
52.4759
-2.66894
-52.8521
-44.6807
20.1837
75.311
12.1667
7.21159
58.3798
137.435
-21.673
-35.4165
-34.5694
-121.786
-102.023
4.86488
133.581
100.288
35.4471
-28.7187
-66.2037
-16.1897
40.8086
1.32176
-32.2639
-44.9203
55.369
39.5398
-64.4251
-145.76
-24.5625
-89.3389
-26.5911
-5.00975
33.6477
17.4148
-64.5437
-39.9643
7.14138
34.5489
29.0449
-21.7499
-18.339
66.1467
102.58
86.0418
47.7142
22.2493
7.60273
-10.4055
-6.58687
19.7213
30.5914
73.4496
46.0831
18.9119
0.648198
9.71456
-48.6993
-50.9802
2.48462
-27.1602
-22.0181
-8.65731
-41.2878
-43.4565
-58.3632
-64.0296
-12.0607
30.2296
42.7765
40.9181
-11.5499
11.7753
11.3375
-33.566
-69.0542
-57.0887
-2.35103
31.7804
31.8844
35.2336
29.6703
28.092
-59.0804
-65.8273
-46.5759
-16.4858
74.6297
138.858
52.7147
17.5415
-27.3515
-33.2607
-1.1873
21.4723
-3.76833
-34.8224
-20.1946
-22.4456
-21.7369
3.11597
22.8699
-17.6841
-45.875
11.4277
65.6443
33.0639
-8.99494
-44.0233
-4.88093
3.6844
-8.66609
-2.24647
-6.54761
-5.39572
-8.77368
-6.68722
7.15737
18.9548
-0.039049
-8.10278
-18.8851
9.38443
98.5315
58.552
1.5478
-53.4418
-144.807
-125.271
38.9548
158.31
190.02
127.957
7.86792
-52.892
-65.9632
-38.7296
-56.3764
-133.415
-150.2
-56.808
136.384
98.7613
-2.77095
44.8499
68.4061
50.9865
43.6047
-7.6941
-81.7757
-118.432
-106.53
-80.9393
-22.6483
2.60021
-15.2268
-26.8757
12.3989
69.2683
138.705
135.973
-56.0693
-59.5872
-2.97872
-4.54187
-10.3919
29.5361
149.398
114.509
-42.6208
-81.6217
-89.5309
-16.0053
-46.2351
-104.069
1.34949
104.358
70.3
72.2349
34.5356
-40.5747
-61.3201
-26.9846
28.1418
5.2116
-34.0436
-21.8702
-95.2035
-129.428
-63.311
8.94988
200.737
171.968
-1.55906
24.3042
5.56365
-49.9592
-55.1085
-43.9342
-26.3317
-7.78684
10.2965
39.9195
41.5727
-77.0193
-128.769
-63.8885
83.3092
223.157
179.341
34.8894
-127.827
-161.712
-0.351676
52.2462
23.7478
-10.6563
46.2415
81.5178
-45.8532
-180.12
-175.204
-133.572
-41.9723
164.924
142.147
72.9409
-11.0869
-54.6481
-9.26947
24.0233
-5.206
-7.19471
10.0086
-75.355
-115.16
-72.059
74.8707
228.945
219.562
180.927
90.1942
21.7903
-34.3965
-95.2139
-62.5414
-54.2918
-81.3499
-91.3411
-60.1462
-47.1558
-63.0758
-43.6744
0.847943
51.1467
70.7071
42.6944
-58.8227
-186.843
-68.2089
75.5832
29.0476
-145.413
-118.426
19.3191
156.886
153.181
70.8946
21.8229
1.94794
1.17975
0.168332
79.8828
104.011
122.98
79.8925
-8.30987
-72.1207
-85.0519
-74.1732
-54.9837
30.9007
130.914
86.7233
-40.9437
-127.815
-110.956
-62.027
-20.5129
6.22875
-20.2393
23.3352
-91.7768
-113.501
-65.7657
-10.0433
24.8667
-14.2457
-76.1719
-59.5567
31.8955
181.247
211.523
185.919
88.9498
33.859
25.2304
-6.15007
-2.67816
17.8886
