26.0882
12.9452
-0.410695
-17.1824
-66.067
-30.7068
26.107
26.4807
21.6765
1.29747
-9.42289
-4.82003
-16.4001
-10.1553
9.26545
7.58192
5.75358
-5.90865
-4.57707
-6.07935
-15.8599
-5.10909
22.7486
28.2117
32.0401
0.784312
-38.0215
-40.7633
-49.1932
-30.2675
-2.20749
4.92542
25.429
29.7059
14.5389
10.955
-11.693
-3.87132
12.3607
6.14668
14.7176
6.35794
-10.3479
-15.9621
-38.9919
-22.0361
14.9697
22.9121
29.617
7.92587
-8.49652
-2.33711
-6.79832
-41.6333
-32.9029
66.6049
89.9789
44.9448
6.59734
-8.6586
-8.38486
-14.1055
-35.6353
-30.173
14.3417
9.26293
-22.0841
-15.7347
-1.71771
-4.69923
-3.27461
-12.8571
-19.2612
19.4518
17.8641
-25.2819
-29.4957
-17.0549
-11.278
-19.1401
-13.3355
25.854
40.5714
35.3325
27.4882
20.6396
5.7383
-26.6926
-30.9887
23.9553
20.8194
22.2873
29.7865
12.8002
-10.5877
-51.4035
-38.0159
6.00439
25.951
38.9842
26.6515
-10.2141
-23.5112
-37.2686
-45.2919
-29.8613
20.0386
29.1839
25.0685
-5.78014
-14.9014
-13.7659
-16.3735
-37.4847
-3.96677
9.18738
-7.5897
-23.5385
-17.2781
8.47165
34.9515
13.5007
-20.6022
15.9583
25.3541
39.5646
11.7159
8.1388
0.481667
-25.7293
-19.9812
69.6786
98.7704
76.6694
19.525
-18.455
-33.1066
-41.7782
-50.5973
-70.8779
-49.6588
-22.9995
13.1117
17.2095
32.2231
0.227076
-52.9
-67.3398
-8.84401
-16.3622
-15.749
-43.8257
-47.9612
-25.5814
-18.4254
-32.132
19.9406
110.904
122.513
119.645
81.0839
52.3419
33.9063
4.34972
-42.3154
-48.2213
-2.66414
4.83211
-29.9337
-21.1094
-20.4469
-45.5518
-54.0607
-54.6286
6.89268
61.7517
47.0048
-29.0373
-46.9937
-35.359
-41.9775
-80.3194
-19.9059
13.7664
60.9771
63.2344
39.0754
45.1148
13.4224
8.30432
59.4854
52.9989
49.6583
50.5725
22.7126
-15.5294
-62.3671
-78.1308
-39.8555
-48.5661
-54.1962
-5.58656
20.6035
21.8759
-45.1096
-73.7575
-14.0449
51.9111
46.4734
35.116
-14.0096
-44.2412
-25.3247
13.927
-6.01978
36.3451
47.0622
27.4959
33.6516
21.1436
4.93994
3.52019
5.40542
16.593
-33.0478
4.18349
23.3298
10.9893
-22.5323
-30.4045
-43.384
-45.592
-76.0511
-82.7712
-17.8626
2.71616
16.217
-10.9674
-15.1708
30.6998
-4.92865
50.395
58.8107
26.0803
67.4141
59.4213
-7.51792
-62.9093
-78.8541
-12.1942
8.26774
19.506
29.4875
32.0763
-8.20065
-33.5794
-87.9245
-20.2427
18.5535
22.5442
34.0206
-6.75185
-46.9496
-28.254
47.5625
62.466
49.3073
97.0841
152.204
75.1907
12.2449
-22.1342
-39.4204
-33.5013
-49.14
-52.6047
-19.714
-24.2364
-54.102
-82.2613
-39.1435
-7.30646
-1.25276
1.14867
-64.2957
-86.9462
-37.2528
-26.1608
-18.2462
-43.6175
-57.9535
11.7616
50.7663
68.3308
63.6588
84.1445
157.075
107.316
6.73557
81.792
164.621
86.7435
-0.282435
-61.2178
-58.2591
-20.8933
-8.76078
-61.6843
-52.2739
39.8748
40.3756
-2.77053
-36.5478
-51.273
-23.6226
-44.5946
-151.078
-179.309
-55.9239
-2.94493
-68.6264
-62.3864
-52.8606
-25.6021
52.9811
45.5064
-21.3622
50.6868
82.3455
87.0762
68.9412
44.4416
23.5017
7.75635
-74.5304
-109.526
-44.5176
135.68
160.649
21.5193
-8.47057
-4.62669
6.8472
31.5864
14.3529
11.7373
4.19272
-35.6106
-51.6793
-69.2863
-38.8883
22.7171
39.8554
42.3351
77.8092
81.7396
75.0954
3.97338
-82.8933
-120.328
-49.7784
33.8665
58.5848
30.5392
-7.52592
-1.74227
27.0585
-54.1906
-168.104
-120.572
6.33124
15.6656
-7.38781
-3.87403
83.3179
91.1424
13.9108
-9.89494
-17.7648
14.9881
27.6966
48.038
61.938
12.1499
-27.2992
-25.4168
-17.2391
-24.9135
39.0704
5.13414
-36.4771
-50.1459
-65.2056
-114.803
-107.376
-51.68
63.3801
160.514
155.916
81.809
-6.84649
-124.056
-121.306
-47.6554
4.51351
-9.01763
-48.1109
57.8857
102.424
91.8479
81.2365
10.1965
85.2412
125.479
81.6634
30.2654
-34.0647
-127.417
-145.256
-130.276
-59.993
-142.949
-181.1
-116.848
-27.3083
-45.2377
-68.4049
-104.061
4.0396
68.4305
67.7452
73.4726
56.0207
87.8448
142.759
180.132
205.45
198.325
156.966
111.132
68.1382
180.626
190.895
24.2553
-157.4
-194.074
-82.7548
13.2787
-99.3206
-282.108
-304.676
-129.556
12.8047
-44.7157
-132.536
-2.07364
175.762
98.2914
-79.7447
-98.1767
-80.1502
-76.5936
-82.9261
-46.4024
21.0539
46.9971
15.813
-5.57733
88.122
107.596
90.4349
58.3682
4.998
39.6169
78.9529
-45.6756
-201.756
-154.123
-30.3568
-19.0823
-19.2876
50.8918
77.7156
85.8875
145.959
208.831
179.005
52.7829
22.4452
130.951
113.176
47.9477
19.7833
-24.9242
-88.6353
-141.048
-145.09
-137.792
-60.4699
32.792
69.135
78.4124
39.6656
15.7036
-18.5224
-108.131
-101.816
-26.524
-65.8939
-43.2423
-56.3732
-192.447
-318.509
-298.172
-193.519
-25.8166
224.65
274.819
212.01
227.559
237.165
67.3753
-115.307
-151.213
-90.7033
39.1964
99.995
98.8261
133.263
199.544
199.471
100.322
95.3774
153.054
65.8255
-85.7326
-275.297
-256.91
-181.965
-130.844
-122.41
-72.6583
25.6629
29.0906
-36.0147
-74.5882
-85.0592
-129.22
-165.662
-148.957
-45.7453
37.5227
-1.21979
28.6577
141.747
179.138
111.274
80.6757
84.577
3.81984
-80.683
-128.798
-36.5204
146.414
130.757
66.2764
104.382
307.953
326.301
129.97
-129.695
-242.194
-105.943
-3.06521
52.9183
11.4529
-11.0027
-22.8166
-4.84761
-22.2768
-125.886
-56.7268
93.1276
164.625
132.898
-17.5881
-103.223
-198.553
-198.331
-110.262
13.5123
114.628
59.3527
-47.4032
-161.845
-170.109
-153.924
-169.273
-151.633
-33.2599
75.1438
39.2647
6.79251
26.3197
-10.3425
35.9129
58.6661
2.2432
-88.2224
-58.9863
83.321
314.503
367.65
117.395
96.2814
130.296
8.35714
-67.9194
-10.6601
-14.2794
-19.8957
79.5786
30.5125
-52.7872
19.587
36.371
-41.7838
-113.641
-79.7648
15.4586
13.7974
-121.083
-138.589
65.3576
186.924
69.6435
21.1501
83.1042
34.1513
-82.0636
-69.7027
-76.7137
-61.5478
-97.5828
-139.496
-146.533
-133.614
24.2997
155.192
77.4401
42.1744
-11.0745
-262.131
-440.643
-465.027
-255.2
-65.4995
117.402
228.718
342.304
303.753
215.102
167.615
152.795
122.946
106.178
24.1567
-28.5181
29.2642
10.6386
-21.84
5.61794
177.249
324.709
194.951
110.463
131.843
-97.5852
-284.239
-202.79
-57.8134
40.352
-37.4988
-145.248
-111.001
-109.434
-70.2987
-22.9234
-106.833
-111.279
-80.4231
-33.8587
-3.91687
48.2729
101.044
76.6375
76.0313
85.7412
104.976
63.0308
-97.6635
-189.518
-189.93
-110.763
-83.833
2.91961
26.2402
28.6839
124.73
124.342
74.3477
87.7497
24.2564
-25.4603
-71.6815
-180.624
-233.114
-78.6061
58.7357
51.7115
85.1445
156.796
178.046
119.761
88.7452
-51.0627
-24.8201
37.7745
-91.9652
-119.706
-20.5364
-49.4378
-8.73534
-17.9875
1.50665
193.161
226.191
28.8035
-23.4618
-19.0673
-60.5163
-139.334
-195.392
-230.345
-193.18
-40.0081
58.9137
63.8871
45.7826
-20.0597
-67.332
21.5914
177.747
252.523
199.57
29.0974
1.46836
19.2096
-94.9377
-143.656
-36.826
94.5058
263.253
216.309
104.294
32.4149
-40.6536
-64.2504
-23.0951
5.31576
5.86596
-37.9127
-96.2728
-141.448
-125.987
-98.9068
-109.229
-54.8809
23.1406
-45.7355
-15.9229
-50.2774
-201.409
-164.328
-54.1335
119.693
192.79
95.7423
-2.9506
-57.1404
-113.534
-160.133
-143.402
49.0063
83.4549
95.9912
122.945
95.9241
101.907
62.7798
-171.479
-250.663
-78.0219
135.692
253.162
223.932
233.535
286.097
283.932
211.011
176.625
109.235
6.99526
-194.424
-233.685
-231.466
-263.289
-212.86
-138.002
38.2178
284.08
306.751
102.995
-176.327
-243.379
-249.845
-260.374
-293.012
-236.351
-117.658
-118.158
-28.5161
67.995
52.7218
22.7976
6.52431
101.155
135.942
87.9923
15.3897
-75.3244
-72.6197
39.6157
193.253
228.841
202.356
102.063
-18.9463
-8.82885
38.2228
30.6489
-9.02696
-29.1874
-42.2333
-95.0934
-109.116
-59.5311
30.6622
31.0667
9.07138
32.3426
94.699
11.1233
-117.837
30.8357
139.278
71.7688
33.5786
-33.6095
-34.8668
83.9279
211.459
156.885
134.705
102.132
109.03
-23.7532
-236.65
-239.152
-203.587
-193.404
-136.591
-48.1031
20.26
-108.843
-167.75
-102.937
-86.1626
-58.2466
-41.0467
-168.457
-194.544
-53.8975
122.179
295.62
328.762
291.018
246.28
138.995
62.5637
15.7375
5.93788
-39.2523
-41.4001
37.5727
34.4336
0.765724
18.7932
-6.25168
-35.7967
-20.7904
-20.4655
-39.8636
-243.274
-318.644
-175.758
68.9835
165.658
122.913
35.6073
21.7858
-24.8683
23.976
-14.6372
-99.144
-90.5275
-89.8414
-79.7538
-83.6134
-76.0019
36.7788
9.25872
-32.1372
59.1799
188.832
138.67
-62.3912
-128.496
26.3759
77.0321
10.6484
11.0534
94.3688
191.087
169.168
53.5859
68.505
29.1235
14.4255
-29.7373
11.3134
68.6295
0.947216
-91.2631
-91.4665
-117.185
-78.312
20.3823
-39.3771
-42.2872
2.09028
-33.4598
-24.257
33.0923
5.13515
-28.1353
15.7022
76.1011
102.203
124.889
16.9917
-155.839
-96.2883
-70.3937
-94.1644
57.6796
58.4449
42.9164
-6.56581
-84.5158
-199.487
-347.253
-297.965
-0.288979
217.5
206.228
48.4135
28.2002
7.92181
20.1215
85.9246
128.114
273.432
270.371
-5.73333
-121.437
-140.937
-86.7532
74.9065
167.449
229.456
168.793
-47.306
-108.393
-153.302
-132.259
-67.0098
-60.9889
-3.87431
-18.4825
0.0665536
-0.60844
-180.609
-186.45
-67.0787
-14.8816
38.5127
32.0387
-15.6208
-5.79402
16.5917
146.295
167.577
7.91566
-80.994
-89.5685
-53.95
-24.9149
-18.918
25.5067
20.0045
83.575
102.829
73.4276
-5.8635
-157.355
-208.066
-196.408
-160.855
38.5524
203.93
375.639
435.779
200.446
-77.3345
-195.653
-206.268
-71.1445
75.4238
133.951
91.4096
-7.6618
-72.9424
-68.755
-112.84
-86.7173
47.9541
35.3718
14.1416
-23.1193
33.4082
77.4154
24.6658
-12.8114
-29.6525
28.7604
36.0425
-30.8362
-96.2742
-71.1202
-179.355
-271.786
-241.044
4.15852
220.189
194.319
101.501
154.509
178.4
49.3
-86.6836
-207.428
-271.988
-222.553
-110.541
73.1716
172.783
126.587
74.4254
6.51595
3.55339
127.379
149.761
73.4593
43.3976
32.5543
20.9609
-30.6635
-68.8043
16.7012
18.931
-6.1152
10.9599
26.2223
43.035
20.946
10.7205
-10.019
-38.2029
-134.713
-112.148
-63.1372
23.6903
53.2599
52.9647
59.2265
2.77195
-57.7234
-76.7232
-103.055
-120.342
-111.518
-48.9258
-9.41304
73.712
67.5904
55.1051
38.8697
4.65271
15.3781
27.5741
32.4961
39.4154
-17.4991
2.76719
2.98463
-11.7598
-23.1319
-67.9891
-11.6846
47.4081
64.3498
63.9554
54.02
21.6174
22.6367
60.3068
22.3286
-11.6456
45.6866
73.17
28.5031
-6.30207
37.6728
23.0446
-132.101
-108.976
1.06336
32.0753
24.4088
35.9814
-1.24717
-10.8694
-54.6656
-186.71
-209.406
-109.647
-49.5811
-1.23994
-14.1641
0.995562
-90.731
-179.039
-269.855
-145.768
205.904
325.868
216.552
142.125
71.108
-0.0158152
-88.5207
-35.154
104.092
229.022
299.647
163.963
57.9707
-11.6506
-56.9169
-40.4954
40.468
62.3353
17.3257
-107.39
-128.218
-87.6138
26.8495
155.805
108.381
16.2627
-7.3199
-33.9633
-135.391
-192.982
-265.437
-171.491
-72.5844
-63.3532
-54.2462
-100.712
-120.638
-95.8954
81.3455
205.739
84.123
41.8149
0.989194
-2.62628
-49.5664
-27.9108
45.0286
-1.14983
12.0121
81.1201
124.701
65.2552
13.2016
5.25918
50.8813
70.9692
102.407
140.151
79.6968
35.1972
5.24647
-63.1975
-65.3547
-114.328
-124.508
-97.5181
-31.2488
-39.0741
9.86782
64.0598
-12.7602
-112.237
-73.4603
-65.1737
8.63971
34.1736
69.8877
114.564
148.451
53.4755
-34.4351
-27.8048
-19.6908
-82.7916
-111.108
-22.1337
164.812
206.317
109.886
20.5234
-79.2399
-91.8458
-70.3466
-62.9643
-113.973
-123.822
5.56022
38.2991
-12.7463
57.65
53.8697
-39.4348
-49.7864
-7.87447
20.6113
-22.9361
-129.337
-32.9999
96.3454
85.4291
88.9653
121.638
75.1753
-24.1282
-87.7079
-0.405772
19.3921
-15.3527
-22.0906
-11.2291
31.1323
-25.182
-20.2118
136.352
120.788
90.8664
-6.40435
-113.133
-143.586
-49.3095
55.4104
103.577
65.9853
-26.2202
-160.331
-229.424
-228.596
-140.948
-109.836
-59.1761
63.3504
171.149
126.617
4.78917
38.5485
-17.2702
-23.5343
145.184
168.193
45.8059
93.5643
149.616
3.98315
-30.994
-10.3529
29.6446
83.6836
22.0157
68.7968
79.5326
-3.91303
-186.669
-225.223
-95.952
26.542
116.046
114.824
30.9446
-45.9948
31.9453
28.8305
-186.015
-183.334
-48.5097
30.6109
36.3266
-67.0913
-83.4873
-138.938
-122.615
-42.8686
52.5841
63.3042
15.0166
17.9144
57.2109
-36.2419
-143.08
-35.1964
81.2714
58.6286
12.3595
107.69
186.953
98.161
23.1724
-29.0387
-23.3345
67.297
2.56214
-14.6292
85.0815
142.947
39.908
-39.3376
-91.8384
-85.0493
-110.415
-93.5025
-96.0419
-54.1853
42.8938
59.3985
82.8702
148.057
118.991
82.6519
-7.62029
-75.9406
11.4198
95.4389
157.861
26.5798
-118.962
-108.249
-138.811
-232.304
-191.019
-61.8371
144.389
156
28.742
104.086
177.218
161.838
11.8566
-86.4353
-93.0952
-134.127
-184.749
-196.335
-200.792
-160.899
7.92191
98.6969
104.324
121.675
140.033
107.918
-40.6208
-74.8951
21.1548
-73.121
-83.4068
-28.9402
84.3671
111.641
69.3401
34.3346
-15.0304
-62.4847
-0.631614
97.5022
79.8083
27.9148
77.0483
157.778
84.0632
-105.825
-197.966
-236.469
-133.725
-29.6031
9.64937
31.8737
46.9664
60.194
53.8294
-38.1409
-61.7241
-0.130587
7.49851
88.9433
144.371
43.1848
34.7331
75.974
154.294
165.201
12.2287
-60.2349
-84.1454
-103.218
-233.138
-172.275
-13.8491
94.311
158.895
110.644
50.4639
-52.8216
-174.768
-137.754
-128.406
-36.6563
23.6954
71.4221
50.058
-16.3321
-63.4525
-47.686
-79.53
-14.6215
52.9048
86.5862
60.7285
7.87873
-66.1147
-68.0854
-31.1038
40.4663
69.1362
60.4566
86.6203
87.9548
-3.93463
-144.693
-203.393
-201.948
-106.431
129.261
233.696
157.606
97.2202
-5.89381
-85.9271
-57.4341
-26.4697
-3.63691
77.7791
89.6961
113.492
84.0147
118.928
13.0642
-25.0373
153.298
142.208
83.3601
30.432
-89.355
-132.37
-143.739
-83.55
-60.7653
-66.5402
-93.0854
-105.889
-31.2842
3.10997
-24.9902
-0.553473
-9.64181
-106.511
-116.883
-65.5294
-101.322
-102.054
-37.484
27.1201
-1.96997
69.5436
195.923
183.023
88.3339
22.1144
-27.583
12.2338
56.853
77.7482
-6.41118
-36.8055
54.8532
2.79661
-79.6621
-41.8478
73.9838
46.9395
-11.8935
21.2443
35.762
-20.5128
-83.5208
-110.46
-105.043
32.6571
106.708
96.9718
79.4307
0.813186
21.895
26.9545
-60.0798
-64.604
32.2308
-27.7987
-155.624
-109.488
22.7437
94.4602
105.128
1.83452
-45.1265
5.06013
21.2235
-65.6067
-6.86529
69.2504
47.1001
6.23221
45.1644
4.5832
-29.3441
-14.0863
0.360017
134.851
87.3676
-11.4017
-105.502
-98.4383
-36.8526
-55.265
-43.765
12.5469
-12.7043
-142.756
-229.451
-137.745
-69.5789
23.5868
62.411
194.653
327.176
313.5
117.554
-12.9673
3.71509
-68.9604
-90.8947
-116.25
-103.083
-55.3412
-1.85509
43.9264
72.3378
112.048
13.7789
-78.1303
-12.5722
1.06924
-30.6085
-122.089
-172.341
-144.788
-88.6897
-21.0797
14.459
28.2116
70.7232
64.1099
65.7413
66.7273
28.5112
22.8528
70.1864
102.814
158.69
154.99
142.283
103.403
85.1119
43.0522
-12.9722
-94.6969
-95.8355
-119.604
-218.329
-169.872
-57.1174
-21.7763
-40.1031
-97.5964
-92.6599
-55.4428
-68.6955
-34.8233
75.2667
70.3951
3.59401
-48.6449
5.7271
46.9858
23.6645
-12.6189
58.4725
46.0819
48.8427
41.6494
11.7205
6.89005
-33.9433
-2.77168
111.177
122.811
135.559
132.336
-58.8239
-121.971
-58.3506
-59.2768
-103.535
-26.1576
9.16612
23.1473
-25.4884
-23.5759
13.6947
28.7847
-59.3879
-10.2965
76.5689
104.92
24.7041
-12.8223
-4.85206
-24.2754
-18.1646
50.3095
28.9653
-6.29559
-14.3915
-34.0924
-5.4415
14.3402
-57.3125
-104.945
-52.7939
-61.1278
-67.0464
-18.1336
-3.29284
-64.9554
-95.4178
-113.596
-92.6572
-25.4846
108.799
102.496
48.2241
114.712
137.57
38.4456
64.1631
70.585
96.7027
123.705
88.1322
69.4314
64.0249
-12.9132
28.81
42.7184
-10.7733
-41.5324
-68.263
-74.8745
-81.22
-93.9113
-64.5754
-83.0017
-85.7865
-37.3557
-19.6325
-42.8919
-107.885
-108.253
-49.0291
-75.6706
3.03199
92.4623
48.2478
29.5219
29.7668
26.2888
41.7668
46.7061
118.354
206.156
118.774
34.3272
31.0348
3.22371
-97.2806
-110.233
-46.1526
42.5973
131.097
175.882
102.195
-15.0066
-144.98
-200.073
-159.609
-67.5291
63.342
71.6214
32.9951
-83.7383
-163.677
-193.138
-209.923
-107.555
33.75
56.6464
112.58
148.003
115.978
136.599
23.4946
-56.5218
68.1561
189.293
119.287
28.2022
-47.0497
-96.1619
-172.24
-189.909
22.5058
212.927
168.452
74.2332
-1.37198
-8.56164
-9.05188
-93.3014
-167.798
-69.8739
-4.01675
8.58962
-21.654
-56.2858
-43.0049
-17.8412
-32.6412
-29.4823
14.3618
118.421
87.8166
-9.94083
-3.29179
-13.9994
12.7039
51.1145
39.8008
25.9524
-55.8559
-145.446
-97.8483
-70.3752
0.629881
49.7824
117.758
136.003
31.636
7.06949
16.7314
-25.0148
-44.2783
56.6414
123.795
96.2246
-10.6947
-69.0559
-35.4759
-34.0379
-65.3284
-44.9639
47.9829
84.9875
58.7734
46.1969
6.23431
-92.0844
-190.585
-169.681
-132.845
-57.1555
15.7689
-57.2109
-20.4242
112.829
105.338
82.2993
141.231
143.014
135.644
38.2108
-39.2051
-39.4791
-39.6232
-24.8024
-57.9978
-78.2427
-12.1218
-28.0932
35.5041
91.4045
48.8741
9.10274
-14.2732
-16.2961
23.7612
26.1176
-39.5746
-38.5223
-11.7009
-84.5072
-196.373
-223.529
-101.675
-70.8884
-37.3344
27.5968
71.9025
117.38
114.404
40.33
101.386
180.118
114.899
51.6919
39.8561
-58.2195
-214.431
-317.706
-265.457
11.0716
226.26
291.605
164.386
136.102
199.624
168.308
79.9156
91.9393
1.58759
-22.7529
-88.4053
-186.93
-188.17
-223.692
-102.704
5.37638
14.6715
58.6147
84.7366
1.87313
-9.72766
24.3247
-52.4633
-165.232
-188.253
-118.306
-28.1734
-29.4596
-28.2319
10.9723
9.49881
-22.8413
90.8005
147.054
43.8586
4.0728
43.4092
48.6516
38.7338
11.7789
-52.5681
-68.6593
-22.3612
22.8799
47.3765
38.3097
40.7344
25.1228
53.8481
25.0129
5.20592
39.1435
-8.67039
-44.1651
2.95721
31.0745
16.7507
39.3828
172.105
228.612
176.441
37.0886
-104.075
-122.86
-190.581
-216.807
-199.127
-217.888
-118.357
9.83682
25.0636
57.9551
65.962
7.56301
-82.2615
-2.86069
66.0594
126.533
113.814
44.1614
-36.4524
49.1567
207.747
203.963
38.2323
16.1419
42.4697
13.7843
-119.554
-176.393
-91.8686
-98.3999
-102.47
-121.029
-140.551
-96.2432
14.7804
92.2271
-49.1178
-138.07
-43.1596
12.9117
24.2698
28.923
56.6345
72.472
100.282
115.738
64.0797
-48.9702
-151.946
-89.3108
-23.0643
77.7442
155.619
103.694
92.7849
73.283
47.0835
57.6562
109.439
70.921
-8.08417
-39.8211
6.90146
-37.7385
-57.0476
46.4303
71.891
41.3197
28.603
16.5858
-28.969
-65.5282
-96.0377
11.2515
-24.5859
-132.299
-120.254
-169.601
-264.34
-238.257
-158.966
-108.007
6.24896
138.712
148.585
135.822
158.635
163.492
203.062
137.605
40.3141
14.0719
-78.4929
-159.017
-100.312
30.2404
103.84
55.6811
74.2763
34.2633
18.5757
1.83473
-71.8236
-112.142
-43.6441
-16.0819
12.7783
46.2547
-33.9654
-55.6111
-20.1261
76.5981
94.7017
-30.4486
-140.833
-96.9809
-9.52249
71.3679
31.2591
6.77089
-9.86592
15.7936
48.2927
51.8857
49.4306
46.7236
-19.2744
-91.3238
-103.39
-47.8132
17.8651
-1.30775
-9.59247
-0.991197
63.2469
-13.0112
-81.5222
-19.8473
21.2024
10.7535
-12.09
-16.2385
17.0424
95.1221
19.4893
-2.00535
8.25257
-4.27676
-3.36325
-7.36092
40.396
58.0742
71.2641
54.7086
11.5305
18.4451
-5.65329
-34.2656
42.1549
15.0687
-28.0767
-97.0464
-169.987
-244.47
-158.125
-76.3945
22.476
106.223
125.064
216.213
207.735
56.7308
57.3524
118.299
37.3217
23.1319
-17.9556
-34.49
-50.7568
-31.3877
-39.2857
-47.6039
-9.79962
-37.6416
-125.232
-150.666
-108.256
-68.9651
-19.7166
17.8213
-30.7033
-17.976
8.1184
-16.3518
30.2175
41.9289
37.6993
40.1268
-0.663717
-43.8106
-6.11166
19.6015
10.4358
83.17
163.657
180.914
97.9907
-54.605
-69.7742
-101.367
-88.8933
32.7996
86.2011
90.8273
8.01437
-171.156
-210.809
-200.61
-96.4867
136.403
203.554
188.073
147.284
84.466
46.8814
-23.4737
-16.5203
39.7655
19.5252
-28.7296
-13.4215
-26.2515
55.5824
15.0211
-77.9067
-139.842
-88.1456
-53.2605
-30.6262
3.81216
-30.4159
-6.79807
105.245
66.5639
-60.8566
-86.2855
-130.504
-77.2847
-40.222
-16.6516
4.86634
-58.6495
-124.301
-77.422
26.0121
116.58
119.561
147.353
84.4208
-28.96
-13.363
12.2419
-42.789
5.04324
71.8817
42.1991
11.074
13.57
17.825
0.0250028
2.15768
46.8041
3.94193
11.5837
13.9007
37.678
82.0301
76.933
42.5477
2.55433
-46.2037
-69.7818
-43.7021
-38.237
-66.2381
-26.1731
13.5501
-23.9088
-34.3524
-52.0233
-36.2603
-3.83611
-33.3141
-32.4603
26.3868
49.7731
-25.7274
-55.9289
2.76836
21.51
14.0007
-1.56857
-23.0555
77.9906
171.192
119.65
65.3332
5.39576
-34.3148
-56.3197
-160.311
-174.801
-92.2811
29.9988
90.0459
119.68
63.3862
9.20506
-0.29316
-4.81567
-53.1031
-62.6246
-33.0143
-71.9809
-93.9285
-91.6796
-52.9762
10.6233
64.8643
127.059
113.018
71.136
2.23414
-106.381
-136.506
-68.7978
41.7157
98.4915
76.0832
28.8134
83.7118
68.6838
24.6385
34.8316
-15.3179
-27.3184
17.196
79.1642
50.9747
-31.0936
-53.1326
-30.2402
20.4261
49.361
69.6044
15.1188
-64.7669
-112.907
-148.318
-105.775
-40.9167
67.6909
73.986
46.2603
67.4112
65.2816
-36.8925
-86.3854
-119.068
-129.367
2.65294
68.5125
49.7633
-19.5717
-45.344
1.5734
4.21547
9.90649
-0.678011
56.996
86.6893
29.9138
73.9594
37.251
-84.7117
-144.887
-17.7639
98.8628
91.7836
49.3499
4.36934
-15.9141
-2.11547
-15.5395
-29.877
-47.0087
-37.6575
-58.3172
-43.3118
-71.2182
-113.015
-97.5074
-60.9626
103.071
138.61
149.873
83.5871
-18.5023
-21.895
44.9175
31.4814
23.9682
58.19
72.6135
64.906
8.01372
-4.80726
-40.6526
-134.258
-153.31
-48.5041
-20.0702
-53.0401
-143.032
-42.0084
106.047
136.612
84.4051
63.0163
71.9789
59.1617
-54.3788
-129.462
-62.1643
-17.2367
6.067
48.5977
141.67
219.681
139.625
-15.8334
-54.2871
-55.4923
-63.4543
-97.1495
-127.271
-108.114
-82.6435
-81.6375
-146.821
-71.8764
77.7084
144.674
91.8126
97.3492
37.8588
-51.6381
-57.0661
-17.9085
16.0208
22.2282
20.0808
56.4599
21.9127
11.5335
-11.5651
-58.6999
21.9997
40.5413
53.7365
20.4635
8.75037
-22.2603
-39.537
-28.3348
-2.75233
-23.8752
-54.9633
-72.2769
-43.5727
24.1942
138.046
135.565
50.5999
7.84243
-0.997014
37.681
14.5297
15.885
35.6218
12.8279
-62.43
-165.872
-209.275
-116.865
-33.5232
-40.2377
-0.707284
42.8248
79.5718
77.976
-4.21922
-49.0232
-1.10168
81.1692
130.755
111.172
100.525
45.8227
59.3994
59.7772
-61.9694
-82.39
-73.5688
-113.12
-75.4635
4.41753
28.1187
64.0508
20.3965
-90.0308
-89.5318
-56.1163
-27.7165
31.726
16.4748
-28.8398
-110.562
-77.3074
-58.5714
-28.7699
75.5371
134.324
140.219
123.372
30.2945
-3.42696
-32.2017
-21.336
37.4273
49.7721
26.7236
35.9636
67.356
5.56701
-93.3022
-130.786
-82.4045
-45.3585
-10.4589
-12.5118
4.38724
33.6855
38.9784
-17.1886
19.2205
100.134
97.0082
55.2345
24.0977
25.3439
22.4008
-16.1504
-120.887
-169.981
-60.9165
-2.32013
5.12644
-8.90762
-39.5036
-64.9301
-53.6718
0.625582
58.2342
80.5911
77.4995
0.788019
-37.6158
-58.3296
-60.5005
35.2736
42.31
27.1209
81.19
129.169
99.6162
79.8036
4.1053
-86.2455
-140.896
-48.1321
49.9006
22.3585
15.5268
17.8066
-19.1139
36.1305
63.129
-46.9159
-103.882
-74.6469
-39.9261
41.4117
-47.5734
-122.33
-35.7727
13.5202
26.702
51.5981
63.5927
-28.8874
-101.533
-40.4016
36.1755
19.2709
21.9497
-15.6078
-52.8399
3.6501
18.7047
-31.4914
25.3587
29.8753
127.277
152.098
56.4527
47.7468
70.068
73.3883
41.8531
-22.8681
-49.3184
-68.016
-92.2437
-49.4754
-18.3925
-0.276474
5.51624
-70.8337
-95.327
-44.6389
-7.93819
-41.5229
-51.6354
-25.3805
-49.6861
-44.346
24.1851
86.3656
108.825
140.173
70.7184
-38.3567
-71.1236
-5.5576
-39.3755
-82.1734
-35.2798
119.32
271.241
157.34
-9.41589
-94.009
-121.225
-44.8457
-43.6197
28.5367
66.3152
-12.4058
-150.629
-141.449
-18.0559
74.1892
107.456
30.7498
34.7369
69.8056
38.6212
-40.0302
-110.817
-123.73
-140.365
-74.7999
-20.7666
-29.7209
-2.89583
-24.7
-15.854
54.8314
78.7664
100.638
110.114
114.02
76.3542
28.2639
12.7147
-11.3741
-37.9769
-4.7656
-50.5534
-34.6894
41.8563
120.093
93.8641
20.0501
10.2714
-56.9199
-146.376
-131.322
-45.0225
-60.0365
-42.3001
-36.941
-34.8787
16.6575
44.7995
48.7921
56.5362
23.4475
-11.2177
1.89773
30.4942
-15.8763
-54.3864
-34.1429
2.24037
91.1697
47.9902
13.0647
53.4576
49.563
2.0903
-34.7591
1.65006
-40.4138
-97.5018
-34.5329
51.6117
82.8338
49.5085
93.1636
63.644
-57.4617
-148.314
-128.117
-74.2522
-70.1216
97.1026
78.406
-8.81818
85.8864
118.699
12.5116
-127.464
-120.168
-59.2225
-57.3124
-82.0434
-29.1309
32.517
14.3661
-34.4923
-38.2173
41.886
56.6985
18.667
-28.4446
-70.8493
41.0464
63.2125
22.2891
23.5603
91.9743
125.043
89.0916
84.6266
61.4822
-11.5927
-20.2886
60.9526
24.0729
-15.2362
-37.4269
-32.8349
39.1419
59.4921
-17.7354
-1.72638
-19.5649
-61.3506
-143.9
-112.713
-82.866
-202.036
-265.06
-150.513
-69.5138
93.5191
147.076
165.147
137.816
89.251
203.659
243.053
85.1409
-18.7216
-52.3334
-142.901
-114.488
50.9047
97.377
28.987
-44.1963
-35.7632
-21.5358
-76.1176
-46.0521
29.7725
-2.07563
-101.183
-65.0026
0.724407
-11.0548
3.95841
48.0957
28.4837
8.24962
10.8432
50.3928
16.9345
-10.1534
-23.9089
25.2645
121.095
144.511
74.4317
21.5788
-51.1947
-116.982
-133.258
-89.3446
-58.1379
-115.299
-139.414
-76.7753
13.4728
42.1723
11.5788
-41.7841
-32.9555
-17.078
-35.49
-8.91354
56.8846
64.4614
9.68229
-17.6845
-20.5866
1.57922
27.0541
63.7787
127.422
239.175
244.241
-55.8105
-294.766
-314.715
-170.18
0.488295
102.198
110.271
134.057
147.168
138.236
121.475
112.607
76.709
-6.70319
23.7445
-45.3454
-113.331
-62.1091
-16.0223
0.870134
62.3882
90.2829
101.225
121.1
9.67352
-125.452
-154.532
-112.678
-74.5531
-46.6356
-19.727
21.1324
-1.80877
55.668
-26.0854
-41.9002
-59.1474
-102.829
-150.779
-194.022
-81.185
75.3887
109.562
20.1979
-23.3481
1.80348
32.8855
4.63625
-31.0016
-23.9883
-13.9292
35.3785
78.2286
13.2462
-6.72717
2.30909
-7.29313
0.924061
67.9833
98.5742
120.206
117.247
114.254
44.303
-21.4171
-55.6622
-112.986
-89.0163
-35.4446
4.50646
22.1961
53.1141
87.127
33.7461
-17.7081
-68.6814
-11.2151
66.6275
6.36422
-41.8411
-77.1192
-117.341
-53.7617
-25.0439
23.7518
67.1445
129.744
84.9844
-69.188
-99.9188
-75.9755
-156.084
-138.295
-2.97566
11.2707
63.2521
93.4743
51.1915
16.8752
-53.2429
8.75172
68.3055
43.6577
63.7769
64.603
39.7573
20.2474
-52.6289
11.239
50.9607
29.9783
55.2424
-1.86663
-88.2848
-29.8399
-5.82361
-64.2278
-64.8102
-89.1906
-87.9485
-122.779
-104.001
-39.0437
9.88344
73.8078
174.335
230.428
317.662
238.706
-14.9743
-110.402
-195.005
-218.339
-88.4023
-14.135
56.8208
108.35
49.7146
-6.41715
15.2349
-4.34973
-35.5536
-88.6603
-60.1362
-0.673447
-50.8858
-65.2487
-48.5567
-66.451
11.9159
14.7868
38.2148
114.438
19.382
-39.3424
-3.6888
-56.6981
-116.665
-55.5939
90.9756
194.83
149.561
111.939
67.7488
-33.365
-63.8363
-105.335
-161.365
-149.569
-60.2342
77.3179
155.337
124.762
138.692
84.6877
-53.5539
-104.991
-72.607
1.79402
-3.44285
-49.9597
-61.876
-53.5746
-59.6076
-79.1281
-16.6784
68.9163
80.0163
94.9379
51.9859
34.8339
33.1932
-20.3428
-91.8446
14.3716
41.0929
-2.65486
-11.3878
-55.745
-54.4487
7.82242
44.6949
18.7394
52.8307
-18.4987
-59.0526
-31.1757
22.8168
-35.0401
-36.8731
-102.095
-50.2034
18.1785
109.537
123.141
88.9018
151.557
155.105
9.94005
-29.4766
9.72041
36.4185
6.02273
-64.8642
-92.6721
-87.0692
-41.1126
28.9594
64.5385
-56.3682
-91.5332
-117.372
-145.906
-159.352
-184.966
-75.7966
14.2789
-15.8405
97.5538
147.877
59.8985
21.4583
42.959
64.4939
108.801
100.218
17.8646
-61.1585
-2.67587
71.0704
81.1898
103.917
108.989
29.9476
-69.5085
-121.199
-125.545
-23.7281
47.7838
-15.2005
-35.5445
-12.9107
1.06405
-27.5525
5.62143
34.5102
-22.3769
-103.216
-113.223
40.6011
143.334
105.668
62.5323
1.58685
5.15774
25.1787
0.688162
-44.6792
-104.086
-62.2276
-36.7444
-12.8831
17.4702
-8.66329
11.7522
24.2367
28.8163
104.282
97.1973
-15.8947
-82.2323
-125.734
-140.51
-81.8372
-25.3809
45.9278
23.6188
10.5048
11.7165
-35.5257
-50.4072
-43.8624
-25.3668
33.7877
23.1804
-41.319
-39.1079
-32.0239
40.4187
107.668
146.977
121.741
130.946
91.2721
20.7849
13.1483
72.9023
95.4502
32.8692
-41.3205
-29.5217
-43.6654
-12.8834
-42.4129
-70.9359
-85.9933
-42.4513
-17.9353
28.2884
7.34414
-44.1148
-91.9727
-37.4394
-16.6774
15.4794
-37.5364
-37.5107
-45.099
-3.82671
-1.09803
-71.4423
-52.2757
0.532408
13.7897
77.4403
109.718
34.2117
-33.4034
-33.2095
-0.60109
36.9114
74.2564
64.4873
42.2128
14.2802
-4.39362
-24.7191
-39.8103
-34.6685
-0.617859
17.8703
5.08147
-58.7779
-78.6576
-80.3637
4.31904
44.1119
70.8213
40.1142
-5.11121
20.4649
44.8984
46.2588
60.3288
-4.25713
-51.861
-23.5777
-2.7269
-21.6169
-36.2383
66.6047
38.1808
-84.3402
-87.2646
-63.516
-62.9229
-9.44339
71.1475
113.601
135.251
47.5365
6.36146
-3.81484
14.5565
10.546
-26.2733
-67.815
-89.0046
-50.5653
32.0483
29.2098
11.8334
51.8383
94.3717
51.7769
-33.9331
-97.9037
-121.447
-122.178
-107.478
-72.6797
-21.0722
25.7503
62.3165
108.978
84.3812
-16.0711
-65.7907
-46.1321
8.34965
76.9
198.07
157.301
65.4363
-30.0001
-120.858
-101.683
-118.239
-114.138
-7.42778
20.6295
48.336
22.3423
-6.03021
0.2092
-50.7909
46.6235
66.6398
18.6938
26.3531
-12.8731
-53.7613
-16.7929
-54.1649
30.779
166.287
216.984
135.148
41.601
-60.1129
-105.911
-66.8848
-44.5077
-52.3851
-77.9745
-83.8102
-14.2935
-31.1158
-42.8908
-15.9101
-20.1504
-9.59079
73.9421
124.306
3.13595
-26.3089
38.3604
-7.68567
-122.039
-196.081
-107.963
51.7461
53.7431
88.2734
70.7155
69.7217
40.9703
67.071
11.6181
15.4335
54.215
21.9166
25.6786
61.8586
15.4931
-73.377
-145.279
-119.44
-37.379
5.42736
97.7083
131.412
31.4684
-69.0354
-90.4315
-106.885
-69.9762
-18.8328
-4.45432
14.877
48.509
68.8264
9.14152
-82.0754
-27.8158
7.57038
37.9876
87.4335
87.0077
128.591
67.1015
-32.8307
-37.6357
-39.819
75.1432
73.1896
-96.1678
-150.977
-110.219
-56.5051
13.5233
-40.6413
-45.5277
-42.1163
-59.8407
-23.7526
9.54804
72.4679
162.129
186.807
73.7714
6.13959
41.4287
67.4647
58.8661
22.1788
-99.8236
-85.0456
-13.9015
-77.0541
-143.478
-112.896
-66.8676
-1.42197
-39.6758
-33.9085
28.1698
38.0624
-57.7212
-71.0504
-1.72357
12.4204
-2.74347
36.4601
68.536
118.801
222.879
205.099
110.494
83.9271
78.9377
24.0379
-18.713
0.528774
108.378
76.105
-66.4667
-159.955
-151.157
-212.68
-218.539
-153.507
-61.3262
-70.6141
-100.484
-84.0507
-6.72961
46.1551
26.2739
-65.2008
-14.9211
174.289
144.18
62.0246
13.7265
17.971
34.8546
36.8576
50.6292
78.3327
29.6895
-29.4199
1.48629
29.1122
21.5129
15.1908
-43.1092
-60.2132
-1.84543
123.434
72.0727
-67.3936
-114.243
-217.168
-207.094
-64.2854
49.2444
120.426
121.416
125.371
122.762
65.9977
-5.85036
36.7377
31.6394
-22.3939
-11.6831
-31.2029
-61.3073
-72.4706
-72.2215
13.7011
76.0177
93.5349
39.2974
-41.7416
-51.2049
-30.8641
-44.8325
-11.8988
16.7708
18.5745
29.1044
-33.0384
-97.781
-91.6331
-104.799
-116.778
-16.7325
93.1412
130.22
38.8802
-30.3497
54.5255
43.6849
-42.6994
59.0847
152.768
143.281
102.803
20.4056
-68.7236
-100.836
-85.7705
32.1183
126.537
99.396
50.7542
-0.843807
-171.378
-273.661
-246.021
-94.9059
39.9471
55.6865
63.4355
-56.6015
-140.882
-100.826
-63.4917
-2.56243
51.0068
177.808
325.368
159.908
9.07665
-5.87058
-15.9115
-110.091
-119.594
38.2325
102.975
69.0029
14.139
39.2575
41.3765
-23.7925
-73.225
-23.6704
-24.6549
8.65438
50.3164
-2.68252
-81.1116
-86.8317
-69.1914
23.0461
88.7715
95.2481
96.9592
54.5199
19.8808
-32.1797
-76.1227
-11.8568
-85.2896
-116.199
-97.9704
-133.842
-130.436
-36.1892
85.3467
88.7769
60.997
54.6809
66.0132
57.751
29.2265
30.4448
42.9997
-16.3756
49.9768
163.541
119.554
-42.3649
-140.995
-111.91
-20.8767
53.4896
110.697
10.6558
-64.7489
-71.2611
-25.3272
-7.67006
-70.3576
-65.3481
-46.0806
-0.202742
134.749
90.8434
-41.5892
-153.287
-124.542
-64.255
5.67955
17.309
62.0068
17.7945
33.0325
40.1934
-14.2119
-27.6225
-97.4292
-87.6251
2.38587
-10.6724
12.4394
37.9069
17.5626
40.7197
75.742
98.8636
78.4629
181.578
201.382
167.575
96.1446
-4.2785
-120.432
-118.312
-142.207
-132.035
-0.204812
4.18344
-37.5542
-45.9739
1.22091
62.7383
-21.7034
3.63554
-22.9281
-112.482
-156.66
-213.045
-115.45
-41.1435
-35.3903
29.4225
104.239
177.154
198.891
122.483
9.10901
34.0899
17.9047
-90.9394
-136.331
-54.6654
59.6033
43.5013
30.2914
62.8929
118.523
153.924
97.1526
11.8127
-49.1235
-8.20789
-55.674
-147.314
-93.4276
-67.8331
-103.817
-91.1708
-28.2033
31.9486
28.3128
-74.8024
-146.279
-139.353
-90.6654
-11.262
197.457
161.166
161.31
144.581
52.9462
-26.8295
-39.5521
22.0791
160.134
117.008
-0.181227
-31.2796
-50.3204
60.0771
112.702
54.6558
51.5499
7.76605
-18.309
27.5832
-29.8342
-45.6422
-112.72
-156.867
-141.948
-133.37
-100.823
-124.565
-174.208
-77.2396
14.1306
-23.8021
-34.7398
16.8596
42.5731
32.2967
13.4904
52.4497
139.528
135.564
27.9233
-66.8823
-17.4713
72.1101
125.218
113.877
69.2724
51.3038
61.5351
61.5546
83.5085
156.952
162.154
-53.909
-243.589
-218.425
-166.148
-112.591
-49.2718
-7.53082
-17.7821
18.9911
29.1541
-0.442195
-25.1975
-20.4137
0.706542
83.6502
37.0303
36.5794
-5.20842
-32.657
-40.3855
-94.5144
-33.2749
1.70904
118.271
240.042
226.627
108.175
-15.902
-45.4641
-24.0563
-55.0574
-16.0227
30.2705
-44.4887
-171.349
-208.615
-304.668
-265.577
-164.347
-135.798
26.9265
181.641
325.09
244.822
140.504
34.7195
-23.9602
-38.3628
-117.486
-184.65
-44.5151
41.7421
40.8861
91.3483
135.516
112.163
134.256
99.234
96.8737
138.297
124.893
73.6635
-36.4078
-133.102
-216.507
-236.157
-167.937
-85.0402
51.2108
93.1742
21.619
-69.7533
-68.4067
0.0556038
95.0138
59.6583
77.1803
88.9189
-0.253789
-78.4633
-106.359
-115.332
-111.835
-163.733
-124.5
41.8973
8.16446
0.242887
135.141
181.898
145.297
119.695
162.43
98.8225
-84.7436
-149.962
-176.85
-36.4021
114.62
100.58
112.922
-14.044
-70.6988
-81.4152
-159.852
-171.85
-32.9464
39.6906
43.015
-66.3224
-111.649
-134.021
-86.0821
173.942
271.139
156.306
90.0315
26.1261
-69.9045
-67.2399
31.7146
238.005
284.39
245.741
112.99
-43.602
-134.533
-163.187
-235.007
-183.388
-58.1596
3.96432
-283.569
-406.344
-287.382
-0.906779
106.029
102.596
193.6
225.421
150.589
57.3854
5.63131
40.2529
66.2369
24.7195
-2.20271
8.39584
-2.50313
9.67241
-22.4403
13.605
108.882
88.8589
19.398
-60.1434
-69.2354
-85.9278
-149.27
-48.3508
-27.6733
-106.324
-108.048
-53.3202
44.3262
105.458
100.2
105.886
63.0426
51.3265
22.2981
-32.1265
11.1968
68.5658
113.058
45.5587
-12.7875
2.21976
-21.606
-94.2676
-110.991
-109.013
-100.389
-87.8585
-17.2361
2.16025
-41.3945
7.77689
182.555
143.694
70.0052
-19.5347
-14.2953
34.174
55.7639
52.6299
12.266
19.5855
30.0916
-19.5979
-170.706
-291.981
-191.565
-185.684
-131.981
17.6947
173.069
131.224
27.7232
-7.37605
43.1607
106.609
152.758
83.0027
34.58
93.763
109.074
31.2335
-25.7104
-71.5667
12.4746
134.19
129.202
134.347
58.7996
-24.9384
-36.4241
-53.8919
-113.379
-96.1557
-91.3341
-95.424
-131.555
-211.083
-217.293
-125.103
-65.0547
-21.2413
-6.01793
38.5667
98.2729
153.165
66.5634
57.3897
100.041
24.4707
-61.4544
-103.32
-82.8143
35.9182
122.679
256.889
237.516
123.278
3.35709
-90.9608
-80.9485
-35.1058
0.789932
-26.2337
-99.885
-228.554
-160.242
-11.0545
98.694
162.304
76.4869
32.2903
73.7891
117.606
116.64
-44.9791
-181.568
-187.068
-90.4512
-67.5139
-20.2209
-27.999
-24.2718
32.9047
63.1483
135.96
122.9
33.7113
-99.1945
-140.208
-60.7973
53.502
130.361
29.5053
-67.6295
-74.7838
-27.4643
-46.9548
1.7668
151.636
158.225
79.1163
-37.2546
-77.8293
-37.0841
-2.48924
-81.9192
-80.6073
2.79447
-2.32541
28.6731
133.77
20.9483
-62.7143
-85.267
-19.3121
55.0497
84.1599
3.08098
-82.6121
-56.7492
-10.0025
14.3468
31.9574
20.8894
31.262
13.3821
0.557048
0.865683
22.1087
30.432
24.4339
-6.48366
16.4922
-13.6365
-53.5081
-35.7619
66.7823
8.96276
-92.5105
-73.9082
0.385672
62.9853
57.8258
-17.0891
-149.886
-70.0145
67.8491
67.8105
106.827
108.914
11.8839
-87.2343
-108.202
-75.7832
-72.8905
-80.1945
-41.6394
23.8648
46.0104
9.93318
-16.0241
29.5242
30.7592
79.0068
166.367
171.703
89.6174
18.1246
-53.5402
-145.812
-212.24
-181.284
-111.188
-79.5906
77.0384
191.523
160.776
171.153
120.335
38.2583
4.56511
-65.9941
-56.7098
8.70298
68.7463
1.53126
-64.7447
-85.8595
-126.416
-85.0025
-80.7322
46.0978
75.5854
33.714
-44.3124
-34.2083
-20.4575
-39.2252
-81.3346
-71.0845
34.4714
119.935
80.4727
43.8032
74.6309
56.4185
-51.7271
-106.424
-48.5891
14.0013
105.075
90.9708
77.1196
35.8365
-37.8408
-88.258
-60.6362
-88.4714
-55.2962
-22.3146
-69.6599
-88.4867
-83.8246
-98.024
28.1303
119.808
80.8055
104.514
129.402
79.8918
-2.76569
-37.7646
-26.2711
71.1433
113.709
138.898
157.78
25.2974
-102.952
-113.627
-103.431
-112.794
-48.9396
-7.81712
-94.5932
-115.011
-39.213
-12.2987
-47.1683
-60.0468
4.39246
-2.75794
108.749
113.568
60.1192
-7.11114
-64.4406
-7.31072
56.4419
50.8144
95.2711
82.1593
42.2561
11.0915
-42.6712
-27.8632
-10.6505
-37.81
5.361
19.8702
-2.1855
-12.9811
-22.1027
36.6582
2.67091
-61.6426
26.4431
41.9975
-34.5913
-89.9522
-71.5087
39.5138
2.42183
-161.126
-176.789
-130.58
12.3087
106.224
152.809
145.925
5.71652
42.7152
34.2911
-22.033
29.8034
22.8367
-89.9121
-53.8172
62.4381
106.722
-26.2237
-51.4429
77.0465
177.478
131.368
52.214
-23.3614
-42.8681
-118.361
-78.7028
21.695
23.6318
-22.5059
-115.642
-190.886
-193.233
-171.336
-66.1696
13.5174
78.7398
102.118
31.9553
-6.27587
46.3805
35.2908
94.9957
177.03
143.335
68.655
33.6311
41.5282
2.75857
-73.7736
-1.23208
49.9368
69.9955
-1.24617
-54.7068
-31.5156
-90.0848
-48.6634
47.1504
13.4452
43.8885
21.5363
-51.2436
-142.955
-162.083
-128.772
-82.7943
-78.6561
-18.5927
-8.79478
-79.2768
-143.934
-63.6181
118.839
212.723
208.457
162.119
102.563
80.425
58.6145
14.9975
20.5922
-0.460477
-50.2951
-63.6268
-31.0027
-16.2009
-7.61756
-31.4649
-7.46226
24.8487
62.8215
2.82312
-50.1676
-41.7736
-44.183
-8.44059
-9.9144
-75.9878
-65.1872
-78.3779
-39.052
53.5887
53.1431
63.0574
48.6155
29.1382
26.9173
-0.603304
-23.6274
-44.4399
54.6076
126.356
69.859
-2.17604
-36.0176
-27.4191
-35.0546
-82.1812
-77.7265
-8.3962
27.1866
-21.719
-19.1152
-0.959783
-3.74162
-40.5988
-0.301046
6.47046
16.6335
73.2239
69.2682
43.4675
-0.511715
-53.015
39.4146
122.544
60.1136
15.9051
10.8119
-23.6797
-51.8833
-80.3831
-116.535
-117.886
-109.708
-57.204
-4.85985
-3.07668
21.4285
65.2053
55.8155
14.5562
21.5918
132.852
116.071
37.7978
16.1854
-0.848168
-73.4257
-108.507
-74.7609
-107.686
-39.9788
22.3177
188.769
152.205
-86.9909
-89.4611
-37.0906
-24.6452
2.29523
-18.2683
-21.6032
-93.767
-147.512
-120.517
30.7796
148.393
190.304
212.873
256.17
266.712
184.611
36.7909
-166.575
-259.286
-179.307
-77.1769
-29.1654
-57.6657
-140.632
-158.008
-148.037
-29.3856
49.2646
131.18
74.5307
65.824
94.8288
-12.7625
-175.769
-131.257
24.4992
148.112
134.513
139.552
143.27
40.1482
-11.3674
-24.5427
-21.1456
45.264
33.7713
-56.2859
-114.359
-155.672
-89.8376
-86.7092
-125.598
-76.2563
63.7376
74.5116
12.8079
-27.1021
-38.1814
-23.9911
3.24026
-11.3558
-21.5524
56.2754
134.477
118.904
127.509
135.946
84.6225
16.3437
-79.5914
-149.003
-125.061
14.347
107.404
124.425
100.86
-11.2393
-130.388
-23.8369
-54.4429
-130.014
-91.001
-75.3495
-9.477
73.5657
77.3745
40.6532
41.7795
4.0173
-72.805
-95.1003
-4.62389
30.4304
16.3807
-144.585
-266.169
-40.5314
99.8455
94.9034
161.121
209.002
209.003
165.587
21.0786
-30.1774
-47.916
-69.7956
-86.9604
-76.4983
-8.6384
-10.5302
-41.5992
-22.1249
-60.6815
-9.29582
30.2245
-34.7555
-0.890119
-20.0454
-21.6985
66.1159
23.7891
41.7293
33.8097
-37.6643
-66.6899
-109.969
-94.5961
-6.83963
56.797
90.1915
55.7955
-4.00755
-40.1469
-36.6563
-31.1237
-15.2693
93.1574
90.8092
72.8954
23.9213
-10.2334
-47.0215
-53.518
-96.951
-53.6907
20.5587
52.6978
7.88847
-8.61097
51.2014
43.3959
-3.55964
2.31486
27.454
141.897
83.7061
-25.3392
-52.7488
-50.7228
-62.3992
-73.0659
-109.58
2.28588
82.6156
78.2437
50.5378
-11.8302
-59.0336
-153.106
-236.057
-94.5887
51.1931
117.784
132.377
78.6603
83.4922
36.5796
-49.4498
-27.555
6.27573
3.43454
15.5092
-0.908374
-14.0256
-17.4637
-26.3201
6.08313
53.2671
91.3637
111.231
53.8664
-24.1129
-74.1084
-69.1976
-96.94
-109.645
-12.716
50.8206
48.5465
11.1993
-7.2354
-8.59163
-59.6159
-41.2216
5.46868
24.8025
22.9216
6.08393
24.4111
39.5184
-14.0616
-51.0878
26.0607
34.6015
30.1124
14.5361
-27.9646
-6.32832
-3.70723
-40.8081
52.5588
64.8567
34.8979
15.8975
-12.7634
-17.459
3.9469
20.0364
-3.77785
-28.2312
31.8041
10.9082
-60.2858
-73.5512
-55.0287
-35.6766
-44.442
-87.2802
-76.657
6.36228
41.0264
34.5964
41.8788
10.2884
4.63363
77.0542
40.4597
21.4683
56.8741
72.7467
25.0244
-5.9664
-58.9561
-54.2559
-64.8812
-28.1902
6.93237
46.1128
47.6278
30.1188
-25.3114
-32.9167
-57.7045
-32.2926
17.8947
-16.6117
-8.00597
1.9663
0.854136
11.2737
-22.7076
3.49063
37.9566
32.261
45.6811
42.8939
27.5207
36.3264
17.0877
33.2391
31.5891
10.488
-13.4519
-4.32357
-3.22875
-3.57593
-15.5713
-45.1669
-9.27868
14.8543
40.0019
-3.13559
-47.4891
-52.8559
-70.7618
-62.7243
1.72449
114.288
107.956
38.2056
-27.3659
-37.7883
-23.7352
-21.9682
-75.7588
-69.5702
10.1209
38.9086
30.7996
13.8295
-39.156
-73.3308
-92.2435
-90.0433
-43.7382
46.5987
30.5223
-67.733
-66.8809
-54.0389
-53.7505
-54.5867
-49.6297
14.3151
41.1243
29.3302
21.2958
45.0426
38.6702
12.6975
33.5083
123.369
139.356
135.234
138.233
87.5821
35.5163
8.30047
25.2986
6.67864
-34.6594
39.7497
155.802
120.161
48.9574
-21.7847
-55.3247
-76.6139
-139.555
-121.785
-31.9195
-40.8896
-48.8577
-33.3984
-39.9239
-65.3691
-56.4794
-36.3225
-23.5531
-16.3316
25.2223
32.1172
-1.90571
-42.2368
-74.0644
-56.7664
-53.0097
-63.6576
-11.5424
37.7196
33.7024
48.2364
80.4946
127.681
132.687
69.0323
-5.91418
-36.3391
-21.1185
20.3453
-34.5733
-90.3901
-100.942
-81.4782
12.1376
68.3842
13.2931
-27.5976
-7.18445
-9.13049
-13.4329
23.6068
56.3422
60.0829
83.8122
80.2974
97.315
109.679
81.1636
21.4263
-10.0871
-12.0758
-72.8421
-109.839
-92.9395
-89.6395
-77.0709
-2.3072
-21.5029
-25.2194
-0.291796
-11.7736
-18.9618
-65.9465
-125.279
-121.053
-103.829
-64.9058
-64.5815
-34.4163
41.3064
43.8952
40.9311
47.5773
35.715
48.2635
150.464
144.17
121.379
93.0865
72.0176
76.0896
51.9033
39.2923
106.526
127.73
29.947
-56.5551
-4.28519
-24.831
-67.3984
-111.91
-150.992
-102.994
-75.261
-103.046
-199.467
-199.104
-157.792
-81.2469
-60.0897
-4.36394
126.874
167.32
115.265
123.484
252.166
213.527
48.7417
13.173
35.4948
58.6238
134.845
200.24
190.265
130.334
23.7756
-42.6542
-89.1152
-194.356
-264.156
-292.019
-317.502
-280.205
-256.619
-145.044
-104.441
28.8272
125.03
181.761
169.202
121.691
88.2768
21.7875
39.4852
78.4675
91.0741
112.374
118.411
5.96837
-80.451
-54.5656
-58.8154
-117.494
-224.003
-176.555
42.2311
252.595
234.883
186.204
248.969
263.005
82.8918
-150.907
-204.934
-123.168
-6.11614
-78.0581
-208.847
-128.265
-38.4213
-66.1466
-19.6891
165.589
218.802
37.6528
-127.752
-230.485
-218.687
-158.091
-152.223
-108.164
-60.5811
-20.0363
-4.0044
14.0564
67.0562
95.9123
79.6972
137.169
218.962
237.673
214.725
136.066
203.651
254.734
186.345
154.157
139.682
11.1768
-181.095
-330.297
-302.243
-138.882
-96.6243
-174.72
-198.661
-144.349
-36.1437
-21.7907
-55.8679
-8.46823
-38.5353
-83.4887
-90.5139
-83.0395
-71.8637
-108.491
-108.745
-12.2869
157.862
219.539
149.984
119.102
101.453
51.601
47.7827
141.594
205.317
329.813
320.837
197.769
65.6319
-35.9361
-107.812
-179.602
-238.546
-192.333
-114.563
-124.504
-133.446
-88.7793
-4.06467
-31.0583
-88.0123
10.8147
80.5628
150.372
211.253
128.262
62.8039
-36.6135
-176.016
-251.234
-101.623
-22.4123
14.8615
-21.5155
-108.496
-137.008
-94.1496
-28.3598
67.7787
-47.4645
-106.117
22.2642
101.549
126.316
132.879
14.269
11.6929
101.291
143.874
68.9379
-107.752
-109.13
28.4674
25.3211
33.8249
40.3679
15.5406
35.7753
65.6756
138.711
123.623
-18.8918
-46.3029
-116.748
-214.643
-185.814
-115.306
-101.21
41.1322
239.311
322.377
316.812
45.8361
-123.363
-113.81
-36.6043
7.36883
-32.6008
-119.323
-85.6112
-16.5311
-33.5018
-43.6397
-53.978
-75.5953
-36.6026
-39.3289
-129.599
-176.523
-87.8969
93.7487
76.5184
101.504
114.12
99.869
112.872
59.9688
60.7707
108.209
105.23
142.146
126.018
35.1095
-10.6982
26.7107
69.99
20.3725
-26.5921
-45.4477
-95.9406
-242.306
-293.086
-221.8
-130.791
-38.6674
-74.4317
-131.896
-55.2264
47.0596
88.8517
47.3162
-47.9663
-40.1006
-4.20894
54.1569
69.83
83.5828
102.946
95.6482
21.5131
-46.731
39.8759
74.5739
41.0231
25.1275
129.559
194.617
96.283
-6.8079
-38.9549
57.4024
139.437
42.8898
-85.5364
-199.771
-299.224
-247.225
-52.4416
59.8985
11.1103
4.22629
-24.8438
-8.58735
28.8447
6.08103
8.40665
33.863
-3.76473
57.8466
131.439
14.7255
-51.6671
-44.835
-78.2352
-49.0999
28.4757
-18.5138
14.7558
55.2763
34.8711
93.3041
141.022
41.1204
-18.1344
15.4799
52.2267
26.1324
-22.5778
-93.0366
-93.7429
-9.78065
58.2956
107.626
115.825
-37.2289
-105.89
-66.854
-82.2587
-47.5277
49.664
47.1201
6.39068
7.90706
-72.9166
-172.755
-171.47
29.0442
164.067
9.81046
-55.5765
-122.443
-158.034
-94.8257
1.79029
109.07
101.781
41.7448
60.4086
-25.8974
-78.3079
-41.1599
-22.8796
-21.947
55.1493
111.785
187.236
157.248
-22.2181
-36.6532
37.9679
77.0668
-33.0151
-141.341
-54.4156
109.316
127.69
52.7715
-46.5514
-47.0006
-11.485
11.473
37.5033
103.505
167.262
79.4507
-118.505
-309.619
-199.369
-7.34822
-21.0608
-18.8763
79.6336
78.7307
80.4093
72.3758
82.1619
79.5031
27.0598
25.9164
147.417
36.9254
-132.761
-161.484
-127.821
-115.982
-197.785
-216.044
-194.714
-60.9181
38.0391
35.7226
35.5187
44.0983
-39.1728
-29.1581
59.2169
150.746
118.484
-40.5683
-155.872
-69.9898
24.5163
100.969
61.3331
93.6072
326.203
361.486
240.539
78.1377
-51.1773
-80.1002
8.82329
-15.1757
-89.4696
-55.1336
-162.744
-181.573
-143.745
-66.3032
-46.0872
-90.1937
-38.9291
-35.5742
-29.6716
40.738
-10.5195
-31.5968
1.79324
-38.2404
-74.34
-48.3954
-40.8795
-3.03839
32.5431
-38.374
-61.59
11.3347
108.862
147.53
141.227
150.982
194.194
229.265
233.485
99.6849
-19.9521
6.09671
10.2914
-36.7869
-47.4634
-58.61
-134.61
-144.634
-16.2435
9.10783
29.9669
17.3839
-36.7282
-61.238
-89.5991
-146.008
-207.536
-236.764
-185.978
-172.377
-219.371
-124.392
26.4034
146.454
205.194
172.558
105.498
151.47
249.228
155.519
15.7898
23.8859
89.6604
21.5754
-128.305
-137.733
-15.2294
-15.6938
-2.3421
94.4961
137.194
60.0083
-82.0622
-177.758
-9.88271
122.962
121.837
66.415
-88.4108
-93.3765
70.9207
64.234
-123.423
-181.296
-49.7444
-26.8555
-80.7406
28.1415
45.7759
60.8311
139.682
147.957
148.215
91.9466
-11.6357
-75.8804
-116.052
-172.834
-230.086
-174.454
-24.4774
39.6082
65.9535
51.2422
71.8474
159.836
97.3095
-9.25898
27.242
-37.8604
-167.065
-215.163
-123.595
25.3122
-16.5411
-75.4509
46.5905
148.241
130.155
68.5169
21.336
-5.15446
5.14369
114.367
151.04
96.632
56.7443
-9.94404
-122.998
-118.562
-35.3431
-23.8814
21.6322
27.1237
-0.380046
0.777612
-26.4732
-78.9206
-35.6894
14.9089
-65.1113
-46.1263
11.872
31.7362
63.9049
121.295
98.592
41.8673
-41.7383
-51.2543
-38.3094
1.19556
-38.0815
-70.7911
-73.6878
-86.9752
-68.8724
31.6303
13.1707
19.487
23.0568
-33.4662
-55.0482
-57.9537
-71.2664
-188.585
-229.561
-6.72626
148.047
224.118
140.368
107.295
226.091
314.307
375.557
330.01
162.458
7.17071
-93.3907
-169.108
-280.756
-390.405
-355.166
-200.17
-147.489
-71.1359
79.6975
110.124
81.3586
69.9182
9.82861
-69.9082
-103.187
-166.931
-184.961
-93.7016
1.22824
77.5132
204.889
165.136
113.497
180.513
179.721
118.486
46.7538
41.3931
17.9922
-164.809
-154.557
-52.8259
69.4343
83.5395
-31.5207
-66.8226
-89.5817
-136.13
-103.853
-30.8208
52.0332
105.678
59.8191
-68.5613
-108.461
-10.0433
141.777
172.387
204.633
163.965
-5.81652
-104.118
-102.309
-104.335
-132.561
-127.291
-108.805
-5.03597
104.181
91.0071
-24.7221
-61.6125
18.8818
80.9131
99.1457
-0.261468
-46.0579
2.55724
8.06306
79.057
31.7537
-86.7557
-135.171
-88.7042
-95.486
-52.3511
72.4425
111.859
72.3647
42.6959
47.2357
86.9145
61.8379
5.24745
52.6744
71.0888
-47.6231
-112.813
-197.848
-258.945
-221.328
-18.8144
29.7513
47.0827
214.605
248.002
105.658
-43.4907
-78.8321
-68.1495
-78.3001
-16.892
127.675
169.771
141.227
18.9049
-84.9261
-75.451
-46.11
-56.4927
53.824
63.2092
58.8919
28.0044
-77.7159
-115.864
-32.2961
40.7259
39.7077
-13.3589
-60.9328
-122.576
-91.5477
-29.3413
-27.4791
64.2029
120.528
63.1719
-1.41129
5.9538
11.7597
3.83645
69.6593
108.81
112.058
192.114
142.583
19.8198
-143.664
-218.655
-191.775
-174.113
-168.073
-139.372
-87.1562
-67.3653
-18.9963
17.2422
89.8038
139.081
154.969
93.4885
69.4197
49.2338
20.282
-24.2675
-97.3946
-146.538
-60.2466
53.438
11.4175
-9.93539
-4.4985
43.1161
37.2662
51.5231
134.252
208.932
185.253
70.6144
42.2057
11.141
-7.11037
-24.1467
-109.638
-186.565
-172.49
-77.0801
-19.5382
-33.997
17.3779
1.44149
-73.0114
-109.281
-73.6283
-31.6233
24.5956
-1.44737
-12.6851
18.7581
-57.972
-85.2774
-6.81094
-3.71766
76.637
184.22
190.023
136.876
-3.81998
48.4828
157.756
125.24
79.1171
71.6118
52.6231
-6.28911
-123.51
-206.223
-155.727
-64.4183
25.7624
65.026
-13.5957
-40.1307
-138.682
-290.135
-283.653
-128.329
77.5889
97.3863
37.2522
-15.9672
8.59247
62.3986
45.5602
49.5834
112.783
217.986
211.42
144.619
-13.198
-192.262
-329.381
-294.944
-17.7597
207.22
199.774
133.715
161.542
125.54
31.8682
38.3136
18.262
-19.3659
-77.0054
-88.4234
-84.1347
-118.889
-156.131
-151.395
-70.3497
110.121
167.51
178.829
83.8501
-10.5404
-2.29918
-2.25719
-118.754
-175.624
30.0891
140.278
102.006
80.6408
100.444
42.5431
-29.7534
-14.0654
-66.6267
-111.226
-164.941
-233.139
-213.35
-81.3264
-0.388562
-30.931
-94.0044
47.5284
244.456
315.538
189.822
141.065
84.1705
-131.245
-285.013
-149.079
-69.1726
-123.948
-76.8182
-7.17994
139.478
177.095
121.349
59.1552
41.8872
-10.7862
43.7001
54.7232
8.69965
-85.5557
-134.274
-177.823
-65.0818
177.076
286.346
182.847
72.4155
1.94312
-98.8958
-113.405
-106.292
-10.2249
155.268
162.495
73.7753
-31.6533
-86.0887
-82.3237
-86.9719
-113.566
-131.092
5.56574
44.3318
-3.72087
-9.45548
-55.1793
-91.5682
-87.6685
9.67003
146.704
93.8639
-15.8937
-94.4598
-220.743
-226.881
-88.5443
-11.0688
-42.181
-39.1884
59.736
243.148
265.569
179.116
50.4596
49.2144
43.5399
16.9524
-6.54294
-2.00495
2.9182
98.2642
-13.4394
-28.2404
86.9673
47.9902
37.993
53.085
-88.9465
-162.077
-91.3674
-126.237
-25.0379
-27.1694
-0.630006
106.963
105.746
80.1741
8.20878
-109.072
-164.275
-110.544
-39.8322
56.8385
69.5906
62.6599
-17.8308
-83.2954
-57.2044
-44.7357
43.1817
-88.063
-225.453
-58.3133
73.2517
32.1612
47.6976
45.1836
150.657
247.67
172.661
36.2366
65.4717
22.9339
-21.8062
62.0937
96.639
54.2608
-28.4376
-133.658
-261.085
-169.698
-77.492
-49.5329
-86.8774
-147.368
-117.67
60.3436
164.013
91.3769
44.1319
13.3068
23.9413
49.1722
195.605
193.142
83.4944
-71.0179
-135.871
64.7376
55.7325
-26.7988
103.173
39.6889
-65.9364
-117.591
-115.452
-131.548
-205.926
-184.584
-46.2087
8.46205
15.5225
13.3994
-59.0235
-70.0766
42.0924
136.127
212.913
103.702
43.3234
20.6196
-148.668
-210.096
-162.901
-60.2591
147.892
278.386
165.724
44.8145
53.0747
134.947
147.672
158.702
144.311
87.8828
50.7525
45.0172
-23.6297
-60.8545
-104.277
-144.704
-228.03
-152.837
-55.0996
-124.595
-203.866
-215.281
-110.433
55.6079
-13.5984
-38.8547
-30.2395
-17.8669
-66.9673
-110.537
-121.844
-66.1999
23.4491
133.73
255.127
260.377
153.557
54.5969
44.3887
52.0595
7.17057
9.30838
66.2629
161.285
176.327
182.892
124.5
-0.940326
0.517769
-28.3549
-105.209
-36.5622
-14.2733
-129.016
-163.838
-113.667
-95.9101
-164.707
-256.109
-29.8772
134.317
83.4116
-4.44566
-73.7052
-118.165
-171.56
-97.7698
-13.0527
-5.10918
97.7118
238.778
173.549
-17.1241
-168.749
-99.5816
43.08
165.154
238.534
376.608
263.492
35.2394
-95.0851
-60.174
-35.6824
-62.1799
-67.7306
27.7418
-49.499
-208.954
-238.536
-241.566
-281.799
-138.533
182.914
193.444
128.028
195.672
225.315
90.4452
-41.8042
-122.108
-121.054
-83.7377
-70.4666
1.65558
58.6658
-33.041
-56.0165
22.6308
46.3578
121.479
215.286
172.578
-56.162
-111.653
-111.205
-147.014
-136.619
-109.653
-97.642
-43.133
32.7226
33.9216
54.6787
24.9158
22.1794
129.015
220.322
141.974
9.12505
-58.7217
-23.1233
36.7442
88.1597
60.4607
36.6511
35.1748
49.7315
-16.4299
-84.9836
-102.24
-143.232
-138.499
-120.543
-93.9562
-47.8054
-93.055
-121.91
-13.575
44.967
-23.1805
-51.7057
118.428
232.277
158.585
126.733
69.0734
-3.52623
9.8843
41.1822
-18.4026
-52.252
40.3932
36.3081
42.7262
16.0521
1.364
-29.0991
-133.354
-136.37
-37.3046
150.616
91.5278
-75.2514
-163.916
-186.314
-177.916
-174.032
-39.5043
95.7975
168.74
229.531
207.315
162.244
149.93
29.8865
-61.7065
-89.9251
-103.006
-58.8
-25.4069
-88.5127
-129.568
-137.56
-14.0969
41.6136
39.5269
53.5865
81.2602
117.28
123.801
36.58
-141.35
-200.816
-127.834
-50.9293
-32.8103
-11.2353
85.041
127.362
162.839
23.8135
20.4486
139.263
112.812
89.0169
117.34
63.901
-117.312
-248.226
-235.175
-132.633
-1.232
101.929
176.482
154.768
62.4068
-99.5821
-92.2279
34.4904
-19.9572
-87.919
-146.095
-126.831
-74.9469
-111.639
-151.661
-104.996
-8.09635
52.0899
57.8785
76.7723
76.8083
31.3463
30.3311
129.984
340.059
394.616
193.565
-24.8018
-115.362
-168.381
-157.709
-83.8595
4.20804
42.1105
2.90957
-39.6305
-73.3715
-66.0097
7.03197
86.3667
78.348
52.6739
-119.203
-198.001
-271.127
-194.033
-139.178
-80.7567
35.3202
154.799
188.108
106.851
84.393
119.924
64.4482
6.9191
56.0801
134.317
119.689
-17.3372
-76.2291
-104.205
-68.2976
-36.5421
-53.374
40.9086
170.167
67.4174
-19.9477
-43.3919
-116.435
-121.554
-203.385
-177.589
21.0139
152.366
110.416
-68.6648
-110.739
41.6836
96.7018
83.5653
58.7746
101.635
123.155
63.5763
38.0122
-10.2636
-108.211
-152.291
-87.9965
-16.9382
7.76951
-13.023
-56.9122
-14.1192
81.415
65.0534
59.6032
134.698
194.628
134.435
63.6182
-79.1907
-214.871
-317.756
-353.891
-118.391
121.774
219.275
174.795
113.11
61.6759
28.6867
8.0511
31.7934
-42.5374
-86.7033
-122.113
-217.07
-213.282
-139.654
-75.0155
39.2446
93.6614
137.826
143.786
82.9998
11.3177
25.9134
31.6455
64.4054
99.5594
65.5526
36.869
-16.192
41.9599
181.415
103.36
-65.0512
-165.983
-141.019
-153.586
-189.134
-90.8844
40.4791
83.3735
40.4416
24.4745
87.7344
122.343
60.4129
-30.5863
-59.1015
-93.5561
-114.334
-45.3714
69.6206
75.2867
92.1108
114.54
123.584
103.218
-40.1173
-185.122
-174.634
-135.019
25.3861
65.7289
41.8397
38.3778
-11.9835
-7.89058
-7.75562
15.0651
39.1417
-92.0484
-181.26
-134.95
-64.561
30.3783
10.794
37.9588
185.829
287.436
222.995
110.542
-53.1543
-103.309
-145.066
-181.629
-135.923
-14.3715
75.8858
60.6885
3.53635
14.2733
-17.0778
-4.13597
-66.9195
-74.3553
6.80443
32.4963
40.6785
51.119
48.9797
49.647
-83.7111
-101.291
-67.5299
21.7721
49.3065
39.3981
41.6825
116.936
134.675
115.911
170.031
96.2394
1.23729
-80.211
-210.817
-267.315
-256.612
-142.635
-1.75911
122.97
140.868
117.268
109.022
86.9027
28.3747
-16.8005
-53.5195
-104.027
-136.104
-131.583
-134.502
-65.0719
-1.74811
35.7827
16.9856
23.1748
116.621
105.599
40.5009
11.8341
76.929
89.5521
-14.2651
-65.709
-5.88371
-56.0636
-104.812
-20.4778
31.4996
-28.8133
-33.2149
-15.2056
103.344
172.863
203.134
247.67
147.302
-47.965
-146.314
-217.927
-131.855
-81.6328
-60.3435
-68.1974
-48.7081
42.0219
68.0241
18.5444
27.8617
6.92481
-45.1613
-33.5597
-44.4944
-68.5391
-12.6809
-33.4673
-26.0629
5.6866
4.39076
85.7184
42.4971
-31.3774
-16.9983
-7.37511
-47.8668
-26.4217
-5.53259
20.4028
66.8186
164.309
196.126
196.057
41.635
-127.97
-68.4399
-39.2956
-75.3121
-25.4575
27.0916
51.6543
45.6772
24.9201
-25.968
31.1663
17.399
-39.8022
-65.0696
-98.965
-139.873
-149.962
-176.817
-168.309
-125.391
-42.9738
21.2837
107.164
72.6027
30.8387
-5.60878
-26.8102
129.718
269.054
364.083
209.313
31.6947
-5.08897
19.7336
-33.1255
-20.1172
4.78856
56.0977
18.1345
-36.5455
-48.3496
-80.5824
-146.047
-155.091
-109.392
-110.117
-71.4544
-88.3491
-16.2985
19.2798
-3.50058
-20.2403
6.80099
-42.215
-6.81971
21.6141
5.32356
-22.3655
12.282
56.2008
67.3924
14.9665
-17.6408
91.0234
164.685
143.85
90.4622
62.8728
31.5477
-13.7419
26.6894
51.8486
18.086
17.8293
-33.1462
4.46851
82.8317
72.9939
51.4041
6.18285
-137.27
-282.451
-297.616
-316.801
-201.802
-23.3179
79.6862
43.1469
-35.0603
0.00444215
26.9759
26.5573
-9.08892
56.0625
90.2076
92.9367
56.9313
33.8882
34.7136
67.5696
109.441
139.956
168.788
175.22
84.7058
-3.59128
-54.9427
-92.2179
-116.512
-105.466
-121.535
-92.5921
-54.4357
-58.6718
55.6672
40.4942
-18.6707
-29.8015
-87.1627
-81.9767
-3.73211
64.4543
54.269
-42.9006
-49.4055
-63.1785
-59.8612
65.4372
167.329
117.802
92.0828
83.0531
58.0018
24.8846
-61.6513
-59.6082
-75.9018
-97.1404
-53.4926
-7.34978
26.1643
26.9012
7.17483
19.0619
7.80854
2.9787
3.48088
-74.9777
-141.665
-144.474
-60.8301
-21.338
58.4761
112.5
71.7697
-15.1875
-6.36305
52.8051
68.8094
44.8111
60.6848
80.4124
58.3512
43.6061
-17.1861
-68.8304
-90.225
-31.4967
31.3886
-7.58061
-70.2096
8.55619
37.685
65.0745
114.302
86.6145
24.135
-71.7838
-79.0154
7.2049
-7.50735
1.21199
33.8082
24.3197
-22.7372
31.4047
44.5879
-84.3191
-148.992
-131.436
-86.9711
-29.952
18.2359
-2.1554
22.9438
63.5584
13.5391
-68.4137
-116.023
-109.75
-66.0991
4.53334
88.8819
170.821
177.832
138.049
-22.871
-124.314
-139.531
-67.418
12.4293
83.4354
60.2772
28.5559
-25.7661
-22.0332
57.9121
48.4868
80.1792
121.889
31.9329
-50.5658
-85.8301
-69.6441
-95.5745
-120.971
-11.9513
188.815
216.118
156.223
114.897
50.6417
-3.49961
-95.112
-122.174
-148.698
-155.842
15.5295
68.6236
-70.3789
-70.9123
-123.117
-167.022
-90.1627
38.6543
91.7814
84.0609
105.139
108.194
119.409
102.497
-50.5092
-131.521
-142.144
-6.1671
24.6508
46.9866
35.7827
-13.6473
-36.3198
-54.119
-54.0065
60.5227
-10.2406
-47.1222
-52.1047
-44.7807
-48.7901
-101.922
4.36827
162.124
129.245
50.6184
62.0891
11.6104
39.7278
34.0355
-9.58132
54.9433
47.3483
-3.32769
-20.7665
-32.0144
0.930882
-17.1991
31.445
248.389
288.024
196.24
33.7475
-149.223
-161.401
-192.935
-230.923
-200.659
-86.2464
25.3131
-33.9314
-133.512
-50.967
-29.81
-39.8976
-17.4511
-69.1021
17.5653
32.6003
-52.4364
-73.9731
-16.69
-24.3271
-123.885
-206.668
-125.527
13.1492
82.4014
92.1322
137.464
314.104
378.84
357.286
378.805
352.559
226.796
139.027
0.258847
-138.381
-250.696
-347.652
-244.836
-143.735
-31.4034
99.1894
150.107
97.438
-31.0806
-151.58
-153.864
-231.453
-275.09
-292.014
-259.86
-134.307
-39.5404
-41.4594
-30.8473
102.506
165.235
181.036
172.529
135.892
68.9511
76.295
8.13283
-50.4069
-21.5623
-38.8402
-29.7259
49.0582
171.467
330.183
275.876
65.2539
-45.9588
15.6384
78.5206
-14.5577
-120.188
-144.481
-207.712
-244.061
-176.723
-55.4185
84.037
174.705
185.737
146.335
68.7575
-67.667
-264.498
-267.554
-121.309
-24.2274
4.11903
-23.9242
-75.0888
-51.0508
5.08715
54.8132
142.651
126.15
98.315
37.9012
13.2509
38.3927
8.31099
-16.6886
-100.197
-26.3554
95.6198
41.2696
-60.3917
-50.2832
-31.1999
-2.91809
108.152
143.258
150.503
102.33
60.9267
53.6628
30.5071
8.27077
-71.1077
-133.468
-89.1704
-57.7894
-41.6214
-28.277
-33.8961
-115.271
-121.096
-117.699
-48.5982
4.89044
-32.8121
45.4105
62.6345
-16.0522
-161.454
-146.292
-56.3357
23.0573
190.133
225.88
189.09
196.303
161.377
64.0903
-44.7732
-127.347
-73.7123
35.0164
71.9164
50.5605
51.5401
-5.95972
-112.818
-194.461
-200.461
-74.1534
27.6029
67.2309
-29.7081
-53.6211
-124.787
-173.572
-184.731
1.45655
217.025
304.864
243.529
181.144
38.0706
-88.057
-128.207
-94.5456
-37.6079
42.9569
129.715
89.9635
56.6247
22.531
28.8949
83.3619
11.2356
-68.3431
-117.359
-182.166
-149.216
-95.3557
-26.1131
45.9867
80.8284
98.6329
82.7401
-9.17324
-88.7506
-59.7512
-64.2928
-3.8461
44.6815
1.07604
-94.5445
-155.866
-95.2106
8.6974
110.493
91.136
28.5113
71.5255
41.3173
-22.9097
-50.7601
16.4317
19.3949
-18.1858
-0.958839
81.9705
157.089
61.0455
-61.7789
-74.2208
-31.3813
-9.67676
8.10936
11.5129
71.9581
145.533
117.46
31.3571
3.82456
-10.9836
-14.0943
-94.2111
-121.22
12.0529
68.695
21.854
-48.0255
-86.1684
-133.661
-153.16
-118.892
-138.879
-26.7605
73.6095
143.09
119.692
93.8276
26.4457
-64.4953
-7.31892
-7.66081
-46.1605
-58.2122
-17.0457
53.1135
39.8852
-39.6599
-49.345
55.5279
141.541
231.278
208.956
75.655
-11.355
-162.601
-288.001
-265.249
-177.395
-17.54
53.9897
116.635
151.485
111.458
-7.74482
-8.81705
14.2266
37.8715
38.8724
27.6401
3.79269
-76.8114
-56.5022
24.4209
-19.5824
-54.8585
-44.8993
17.7971
80.5137
43.1599
-57.9757
-27.4027
10.8154
68.7588
107.839
81.1621
16.5213
45.4703
59.253
-34.1098
-22.2945
-74.2607
-146.211
-178.506
-44.6765
87.1751
69.1023
-74.3187
-88.3049
-25.0955
35.1628
15.1551
-23.6231
-80.3271
-107.061
-66.2236
-67.8998
-87.135
33.5357
70.0511
80.6433
140.684
162.838
116.401
49.233
-9.06796
70.4235
120.128
62.5556
-29.1495
-63.4139
-0.587061
81.1333
60.0707
-27.1434
-100.632
-34.8527
21.6554
-17.6203
-23.5418
-60.7064
-88.2088
-5.73668
-2.19667
-54.74
-24.2026
-26.6201
-20.4251
-20.1406
27.7779
51.1128
23.5404
16.6505
1.76211
-41.2228
-110.474
-69.4948
-10.9515
-54.3909
-22.852
64.2844
109.083
116.351
89.101
-17.2588
-97.6159
-88.6755
-127.788
-31.2394
-17.3619
-40.2936
-17.1789
45.2962
84.9975
86.1323
69.1413
96.1987
123.207
92.7835
28.491
-75.0066
-58.8114
-54.9497
-47.7175
29.3909
208.223
205.79
116.016
31.2659
-13.5899
-146.025
-200.245
-197.602
-180.309
-42.8004
11.3246
-9.06424
-32.7708
-8.71685
27.7903
46.4428
-16.8425
-95.3742
-55.8058
-11.3464
-56.7664
35.7185
130.808
77.8874
32.8959
46.4322
-41.785
-13.8667
-5.70105
-58.4056
101.145
134.891
39.2213
-55.2816
-16.1215
-8.67917
-12.9825
-4.34121
-65.1163
-46.9314
-29.1275
-6.68607
52.6401
41.8231
5.10688
74.2315
187.593
177.968
101.745
-2.85381
-105.319
-205.828
-205.806
-69.5724
-71.9014
-53.1108
40.2366
83.1891
206.706
180.058
46.9674
-85.5065
-198.082
-141.931
-73.8531
-132.101
-91.7082
-112.15
-106.997
-61.915
6.94729
134.933
202.838
144.28
49.1465
-86.5792
-122.342
-28.5128
23.7249
96.4336
157.197
128.329
149.175
110.805
84.2184
146.262
20.3909
-85.9746
-34.3143
48.2498
29.5629
-56.7403
-130.229
-144.057
19.9149
164.976
134.026
29.6642
-168.178
-334.708
-394.678
-411.757
-247.075
-23.2281
139.237
192.83
169.464
168.804
200.991
144.663
100.442
110.342
78.7957
-34.5817
-111.853
-144.671
78.0845
66.9531
-66.3092
-75.2674
24.9831
48.5607
-2.85067
-90.313
-92.6708
-52.1054
6.81514
4.09683
65.0385
118.351
92.0956
74.1419
55.6398
144.244
132.309
-7.55211
-148.89
-154.028
-49.1941
-15.4842
-52.5042
-44.2046
-68.8322
-57.8351
-52.751
-108.596
-93.6075
-20.0963
-48.2178
-27.3694
-49.841
-119.422
8.13433
114.715
135.524
167.276
49.7512
14.6878
28.6037
5.59055
65.5928
135.792
137.871
98.171
92.6113
-4.25559
-102.925
-76.7844
-92.8023
-56.9188
-27.5659
-81.7859
-43.9579
-35.8383
40.4233
172.382
85.974
-62.7957
-12.3353
135.687
101.336
15.2273
-38.2681
-66.6365
-107.208
-107.798
-171.581
-226.347
-107.356
-30.9871
-102.415
81.0067
158.492
74.6082
30.984
97.5931
155.128
177.231
-32.8013
-175.798
-114.394
-77.3533
-105.496
-40.4224
-63.7739
-46.6459
107.147
266.452
191.258
64.3758
90.0661
79.3804
-2.99807
-18.7216
-98.4731
-248.604
-214.6
-121.194
73.8711
110.013
3.85634
49.6898
84.1393
-14.1972
17.6204
64.589
3.09051
-90.0181
-97.9504
-52.6991
121.085
233.852
185.935
96.8934
60.9833
-29.4614
-176.647
-158.511
-158.456
-93.3474
-45.4279
-24.637
95.3494
95.1346
35.3496
42.1835
39.4753
48.1104
38.7402
20.7593
-55.2034
-172.817
-191.064
-98.8304
-92.2248
-15.6566
69.4915
37.0723
58.8706
112.591
78.0672
50.8588
11.071
-5.29544
-71.9109
-91.2644
-90.1763
-97.5392
-38.0946
-18.1908
-17.3051
52.8777
118.876
42.5261
-1.49453
-4.68132
80.1149
204.53
248.702
117.862
91.4516
-11.651
-126.011
-117.457
29.4055
80.6726
42.9188
23.5395
25.2602
-64.0823
-91.5142
-100.851
-92.0925
-85.9901
-97.8149
-61.375
-27.309
-119.168
-187.634
-68.051
12.4156
41.4823
-11.2886
2.6649
58.7644
87.7275
108.528
48.4222
-30.9786
14.3838
3.66876
-77.8579
-66.7262
-30.581
49.7845
83.3291
52.1004
110.851
165.415
23.9316
1.42434
220.226
240.313
31.5927
-181.338
-131.89
-102.661
-80.7564
-22.1701
-17.8833
25.0968
107.106
26.9028
-54.6008
-23.8306
-36.9362
-75.8239
25.297
86.3901
-12.008
-101.06
-189.779
-142.218
-71.8395
-40.6243
-66.3327
-37.7881
4.4101
15.7261
67.9313
84.1866
27.6992
11.2184
29.8686
73.1111
41.4199
27.7462
-21.3149
-31.776
90.5802
110.985
65.4484
92.5975
110.101
26.0227
38.3803
49.9746
-32.536
-131.642
-132.647
-144.042
-108.295
58.6285
128.009
97.595
120.908
66.3744
-40.5552
-145.292
-197.673
-152.421
-114.784
-51.7504
41.077
115.842
97.1269
81.1029
8.4945
17.7971
50.6712
41.1966
-34.6293
-156.122
-128.501
-114.853
-93.149
28.9822
41.3163
47.4016
85.4899
111.755
175.011
73.8933
-42.7339
5.2923
-13.1968
-45.3536
16.9479
24.5857
-27.737
-54.4476
-86.4555
-119.214
0.80909
54.2903
74.4371
121.173
118.023
133.062
132.728
-8.05064
-169.113
-158.49
-96.7407
-93.9072
-49.7461
13.041
126.609
215.143
126.134
-21.963
-52.3534
22.2154
-19.6377
-107.845
-149.628
-155.116
-125.877
-53.073
12.0219
45.8628
45.0856
19.4304
2.45238
3.01765
-18.9644
-77.9475
-123.564
-138.193
-25.3815
193.406
259.507
70.1657
-63.8624
-89.0857
-38.5764
-15.4176
56.1271
95.5194
93.2556
86.4165
52.6539
55.7287
91.6154
36.0794
65.5759
87.8936
58.184
97.7656
4.37766
-103.481
-83.9181
7.32339
-49.2077
-61.7281
-87.1926
-155.913
-9.72597
31.0912
-28.159
-101.214
-148.715
-45.2682
19.4861
-2.86248
-39.2703
35.9737
10.822
-140.772
-155.93
-152.871
-164.04
-64.6914
187.001
345.197
317.655
183.738
3.9842
-61.9411
-126.581
-87.299
30.0534
42.4419
-21.8133
-68.2921
-81.3692
-2.02855
186.19
224.63
177.021
138.844
81.8771
7.67811
-102.267
-251.378
-208.036
-73.665
-63.7389
-29.8705
71.0958
69.4111
17.6863
-42.2118
-112.399
-66.5422
71.3919
5.13758
-102.239
-115.814
-60.0744
51.2143
157.946
170.513
143.574
150.414
142.868
122.383
-20.1395
-108.56
-78.093
-96.5405
-151.536
-36.1861
20.5849
83.4204
-30.7685
-124.894
-190.605
-177.007
-100.952
-49.1424
-20.1837
31.3465
136.281
130.53
63.6413
-12.332
-49.3138
-50.9092
-39.6705
51.7358
121.947
49.5532
20.3626
-37.0198
5.93614
64.0642
106.95
114.095
45.4462
-56.6868
-94.2699
-44.9683
-48.3006
-80.3214
10.0285
92.0564
174.05
128.598
89.7733
65.8665
78.7151
17.1519
37.5596
37.9079
-77.0409
-133.953
-136.479
-116.525
-111.537
-176.461
-127.403
-21.6668
54.1235
65.617
-37.0867
-92.2571
-72.2754
-34.6296
-38.5583
-66.9319
-45.3225
11.3094
38.1185
31.1479
0.568877
29.9684
46.0968
107.774
253.154
287.238
161.923
14.4962
-56.2106
-60.5145
-64.9295
-102.233
-134.686
-107.763
-38.8653
2.57051
-24.1718
-42.0861
-20.7007
9.47705
13.4711
53.6672
135.488
87.8295
31.3582
57.1706
79.2726
73.0629
-9.48736
-47.9804
-21.0497
38.7279
60.5673
1.1796
-2.70675
10.764
-42.1386
-101.528
-71.1234
-57.5613
-16.6031
-62.0073
-149.378
-140.456
-161.449
-114.69
-31.1457
-45.3543
0.1947
83.0015
85.4884
57.6426
44.654
98.5851
100.043
83.7848
70.8903
57.2841
23.2351
28.1445
5.39501
-68.6572
-10.0479
43.4818
69.4659
127.882
128.764
81.8798
10.9491
-96.3555
-179.758
-63.6441
-28.9829
-58.7979
-79.4843
-75.0513
-22.5711
23.6748
43.8913
5.97727
10.8654
22.6171
-67.2692
-82.2927
-27.8631
-30.715
-112.771
-137.626
-32.5217
170.921
162.21
13.3125
4.14921
73.9863
147.397
66.3932
38.9297
-18.4465
-94.4677
-19.8785
-34.8532
50.0643
127.922
60.378
74.3107
90.206
0.969497
-68.0145
-151.484
-154.223
-43.9849
5.81981
-45.8042
-127.054
-114.096
-2.32068
25.4943
37.1917
53.5555
10.4569
55.3529
82.149
84.7525
64.6529
-50.6581
-144.979
-50.9008
14.5601
-19.9557
-63.1211
20.2197
-9.32989
6.34223
1.40918
-45.3796
7.46749
59.7198
71.175
37.1194
54.6493
61.7408
1.35806
-0.598386
34.8
-13.5885
-86.0587
-15.8808
45.3769
56.4378
19.8224
-21.1358
42.9739
41.1474
-41.6185
-30.8042
-35.7416
-75.9294
-58.9377
60.783
147.747
76.3602
-48.5236
-78.4457
-73.7372
-62.8862
-114.245
-138.331
-13.3954
38.2432
-30.0678
-44.5512
27.2334
156.752
228.026
180.727
143.232
43.9205
-30.4796
-98.2897
-196.831
-195.524
-68.361
-7.70703
2.48733
-6.82457
46.6602
41.1288
-115.41
-181.179
-0.379054
36.2863
-4.18433
13.7176
62.9264
56.9253
58.328
60.9772
83.4823
58.4119
68.0836
101.318
57.4643
-33.0704
-92.4963
-85.1792
-2.264
-7.31739
-20.8151
27.9673
87.9109
177.594
88.8222
27.0754
-0.226379
-103.542
-195.67
-173.562
-106.506
-20.2869
10.5691
-25.9992
-72.2266
-29.0722
13.2598
26.2611
25.3452
22.4707
66.5295
106.735
17.7637
-68.4694
-53.8174
-10.8106
-5.36625
-10.4725
-56.3795
-54.9747
-25.6515
58.3038
159.1
148.449
108.77
-9.86546
-73.9986
-102.966
-105.875
-68.3313
-26.8188
35.4269
68.9926
53.1141
65.3266
19.0623
50.8723
60.3734
88.9289
85.8789
30.8987
-87.4606
-195.111
-176.366
-104.269
-37.0488
61.4039
129.107
128.595
120.785
74.8722
-37.5183
-108.573
-141.149
-178.416
-135.814
-85.5819
-74.177
-12.5962
107.423
227.098
161.828
33.4562
77.3988
90.6081
52.3071
0.345773
-2.0948
-9.92491
-104.165
-111.335
24.77
12.3405
3.63922
65.5801
-40.5423
-164.263
-148.563
-119.748
14.1727
5.62156
-4.07466
12.4162
-7.65045
-12.9794
-2.9417
30.8078
90.4037
152.255
215.436
213.339
104.025
-3.89742
-84.7051
-113.348
-73.7403
-86.2525
-71.7096
-75.4764
-170.564
-150.052
21.729
176.405
164.133
110.371
96.7329
43.672
25.1467
-4.70026
-38.7278
-56.1292
-102.69
-98.9058
-98.6465
-89.3475
-69.7607
-19.4182
1.98685
25.7496
34.8245
14.6337
-70.2468
-118.623
-23.3873
47.6239
75.846
65.2557
16.9416
-25.6155
-46.5359
33.7381
131.347
191.779
244.161
207.464
132.297
50.3935
-10.3874
-58.4873
-39.5604
-92.3589
-116.563
-111.417
-115.798
-96.1292
-191.604
-192.134
-120.44
14.6986
162.354
107.078
2.68361
-18.3829
-19.1268
-87.6333
-52.4368
81.9812
285.632
230.486
23.3621
-91.8031
-84.8077
-125.276
-180.736
-179.928
-59.3038
98.2296
166.94
90.9936
15.9511
-22.7781
-87.6507
-102.152
25.6838
97.3303
81.5023
130.277
73.5102
22.906
-33.6757
-3.11933
56.5417
67.5988
44.9239
114.115
112.43
83.658
-57.8392
-176.361
-168.955
-120.296
-66.028
-65.7027
-131.825
-116.127
-88.3416
-73.7857
-73.0222
-3.09116
64.7228
177.183
256.337
196.154
68.2691
-48.2566
-27.9627
-69.5171
-108.309
25.3284
67.5846
-23.6092
-14.9174
18.1912
-12.2467
-11.1846
-7.9252
-67.0086
-22.9473
-9.90582
34.8117
39.5892
-77.4771
-118.225
-109.41
-90.7587
-27.4143
12.3925
119.053
110.149
32.3525
-6.48923
12.6617
170.425
179.041
114.911
64.1378
-20.8955
-50.7281
3.1922
-17.233
-3.47793
16.5018
19.4457
30.8902
-4.62387
-41.6079
-50.1954
0.0155582
-39.6929
-50.9431
93.9505
81.2874
-137.549
-190.811
-115.185
-146.981
-117.296
-76.0514
11.0565
97.1713
-7.02801
-25.4328
71.9643
83.1966
21.9572
-28.1998
26.4021
6.03112
-42.4708
-17.1834
-37.9023
-36.8351
-4.4877
28.9565
67.5381
128.781
157.892
44.2398
-93.103
-77.5848
13.3021
20.466
9.71095
184.34
317.999
231.175
11.4871
-88.1827
-46.6567
-78.6168
-130.267
-138.772
-64.0927
-26.5745
-55.2888
-1.11856
61.4174
41.6696
-32.1171
-107.731
-161.06
-135.345
-64.0335
-87.034
-123.152
-126.92
-82.248
-45.4305
36.0642
82.7531
180.61
240.771
222.183
171.078
76.5379
-13.8496
-72.8518
-150.737
-95.4833
-45.6464
53.3868
111.643
84.3532
-10.2474
35.1146
190.832
292.562
193.371
34.074
-105.321
-151.282
-143.594
-171.699
-201.971
-1.84503
31.1993
-66.6065
-46.6072
2.68736
43.7649
-33.8401
-182.06
-199.938
-89.014
-68.1875
-93.9658
-98.2527
-19.8417
28.4814
44.1587
44.5669
79.7613
144.634
203.931
176.841
146.537
21.0544
-59.6063
-38.7072
-33.5815
57.3298
160.791
112.111
94.767
127.793
140.341
60.241
-4.76426
-53.5881
-15.1571
-109.927
-204.488
-178.183
-115.963
-191.305
-205.884
-103.918
37.5099
79.4108
109.018
43.7379
-80.8359
-20.8055
25.5876
23.1502
-7.62976
-41.2658
-29.3104
39.5628
-28.7351
-79.9648
-63.4815
-7.0782
56.35
86.8004
163.075
235.29
206.956
109.268
30.1042
2.8989
4.37105
-67.6807
-128.33
-168.544
-190.533
-94.6537
14.0474
82.733
101.035
80.5563
33.2299
-48.0747
-18.4142
-19.4925
-168.95
-166.396
-57.2567
49.6438
141.519
179.002
141.395
143.105
84.705
41.3055
-10.3604
-148.49
-155.741
-122.441
-38.872
-25.5989
-58.1313
-36.1821
-67.13
-45.8252
73.8674
109.806
-13.4737
-56.0484
-15.5499
-7.77349
-24.5466
-77.4778
-70.3499
44.0007
164.389
159.206
39.3509
-79.3473
-79.7126
15.7599
86.5104
53.2517
43.8413
83.1694
79.0854
52.9465
69.4915
49.7935
-57.0794
-153.78
-124.721
3.41504
56.2372
-14.3578
-100.61
-107.023
-91.6643
-125.639
-178.538
-53.7748
99.6462
222.696
218.172
146.067
75.5677
-12.9555
-18.1324
40.6639
-34.3414
-71.136
-52.7811
-118.487
-136.316
-84.9049
-31.4806
-22.9476
-87.7133
-35.474
81.28
88.7333
114.645
77.803
20.5836
105.103
191.277
119.676
74.5535
31.9421
-47.6294
-91.9782
-38.5843
28.4196
25.5016
33.6823
-21.186
-55.099
8.03157
-70.9475
-156.776
-198.187
-199.332
-145.818
-91.4228
-44.6191
-74.5268
-49.0043
-7.78811
0.9731
-9.51334
3.51231
75.0877
143.44
120.536
63.0306
83.0613
172.62
181.621
166.857
69.7468
174.627
141.32
19.1339
49.8253
30.1975
-1.1683
-6.19244
-8.50246
-71.3158
-32.4481
-50.1697
-133.063
-109.002
-58.8191
-128.1
-221.134
-235.112
-156.139
-120.101
-17.4677
-21.8539
-56.7422
26.5291
29.0974
-17.1965
57.5719
71.0022
-34.1758
-133.465
-61.8983
203.882
308.307
260.565
235.776
39.0525
-43.0032
7.30733
-5.33337
24.8754
35.6447
112.279
182.666
32.0798
-242.006
-345.886
-274.992
-129.994
52.2217
240.823
210.092
82.4899
-53.3489
-133.539
-164.891
-106.565
-48.4318
7.20051
43.0178
84.3516
69.0126
1.71906
-6.93262
-14.2629
8.45841
47.2545
67.8022
79.2141
13.7501
-72.0076
-27.4251
-86.4065
-158.482
-190.901
-128.662
174.273
299.609
175.676
-40.0241
-113.517
-67.9855
-125.016
-47.2925
167.953
304.772
137.473
-20.5583
51.3636
98.9717
23.4614
-9.79286
23.6343
63.6649
35.2502
-86.6237
-241.488
-264.879
-178.544
-126.082
-107.423
-61.694
-10.786
-85.8368
-131.3
-95.648
-7.06218
60.2527
38.9424
51.5223
138.109
121.677
118.645
149.313
149.656
55.2264
11.8109
-19.4547
1.943
99.4439
198.932
248.396
84.4833
-46.5092
-99.1743
-211.806
-193.418
-129.225
-87.4525
-4.66633
3.08167
-64.1278
-148.678
-165.474
-89.6831
48.8212
62.6884
78.9569
54.5911
201.932
253.588
127.653
113.072
64.6897
-21.8894
-2.06507
13.5804
-24.7803
-120.461
-211.638
-174.195
-160.707
-158.621
-157.13
-96.6882
45.947
78.3524
30.9243
197.771
275.77
130.028
-7.16288
-54.068
-23.6391
-18.5813
-23.2707
-38.0576
-59.9441
-31.6074
3.38523
27.5718
130.164
216.17
243.811
116.811
-54.9756
-94.6628
-141.405
-276.328
-337.718
-158.275
0.179399
-4.71697
-59.8269
-16.8083
32.9445
101.194
87.937
24.8651
-1.25822
16.2282
86.1814
121.624
53.4482
12.4608
26.3873
2.3619
61.4808
50.9188
-70.2711
-111.622
76.6999
126.272
60.483
-41.796
17.0488
124.474
160.745
138.407
85.1199
-27.3382
-125.8
-158.352
-128.558
-125.33
-95.9656
-58.6247
-164.043
-181.073
-77.0805
-47.6768
-114.894
-53.2849
35.4439
73.0002
79.5496
31.2387
-12.9631
-0.643762
75.7379
108.785
64.5292
18.6073
51.1979
72.5016
88.5198
112.376
119.408
105.557
18.9
-135.561
-142.466
-53.7427
92.549
120.966
15.7514
-30.0799
-31.7893
-40.6658
-91.1198
-140.135
-136.665
-136.498
-94.8792
-83.6374
-85.8531
122.806
233.505
165.829
188.076
223.156
170.376
80.3744
-128.427
-212.233
-213.38
-237.789
-190.965
-106.162
-37.8995
14.8002
76.0116
141.933
138.969
162.788
250.6
212.563
80.5981
-35.4981
-60.2817
-105.778
-143.655
-129.049
-78.7183
-52.9473
-48.0437
-22.6969
99.6905
74.0775
-57.2558
-121.294
-105.295
-114.441
-154.99
-168.301
-31.9986
4.98518
146.88
237.826
126.698
118.191
90.391
42.6771
105.975
121.558
71.4528
42.0472
-55.5058
-112.854
-94.1847
-95.6341
-72.1485
-22.3909
11.6842
78.7494
16.7923
-105.266
-122.469
-118.315
-49.3416
110.376
140.102
227.213
256.978
133.428
35.0328
-79.3692
-99.7855
-111.343
-62.6086
-29.5996
-21.3697
3.26586
45.9992
24.0289
-247.292
-357.066
-248.206
-97.2182
-0.911485
17.3616
88.8526
44.0143
-72.9574
-94.8939
-18.3078
96.7928
158.922
219.309
194.072
161.817
119.172
31.3578
-28.2238
-52.8242
17.1537
85.0642
56.7401
-24.6547
-65.9841
-23.7615
-10.1219
80.6831
107.755
51.2406
-44.1349
-60.5041
-73.5895
-95.5171
-128.673
-42.233
90.042
85.3096
36.1682
-34.9815
-46.7949
-88.3009
-96.5562
2.61262
42.0898
0.582756
-141.202
-165.778
-67.7081
108.931
181.485
93.0604
-48.701
-19.112
13.4862
-40.5746
-110.995
-97.0935
-69.4356
-19.7401
-62.5695
28.2623
152.58
133.622
71.7872
6.07823
59.4928
-10.7021
-130.019
-104.39
14.6665
156.594
227.698
157.994
42.4821
-2.04116
-103.53
-70.17
7.22728
46.0226
100.206
40.2458
-56.5382
-74.3533
-9.50555
-130.473
-135.603
-21.4519
7.52955
-24.5399
-82.7614
-129.486
-130.139
-45.7797
52.9126
-28.866
22.1657
73.6166
93.1867
257.826
358.063
285.283
204.584
100.393
-100.694
-152.557
-184.309
-280.377
-259.415
-171.342
-89.3271
-102.25
-101.509
-39.2714
9.9459
169.956
178.618
126.274
104.205
-33.4355
-185.164
-151.492
-89.8175
-46.7426
-99.7222
-82.3902
34.7544
78.8571
169.204
332.49
322.531
203.379
128.228
29.4878
-43.3937
-106.702
-103.617
-159.614
-199.718
-115.036
-37.437
-14.8569
-15.4905
-7.69525
45.3186
57.8362
62.5454
64.492
-45.4386
-162.157
-126.14
-3.48997
68.0163
33.5911
46.523
30.2897
10.167
19.6983
78.4196
53.7266
-13.1641
-53.2497
-28.4855
-0.259154
43.1549
83.7478
-1.62298
-65.131
-50.0232
-73.7396
-24.9118
10.5878
24.2992
40.4124
110.623
183.683
50.8196
-82.3844
-166.897
-191.181
-70.3074
23.4488
47.3728
109.436
104.742
32.1406
0.172848
-28.1316
-30.0575
-61.4831
-67.6933
-60.2864
-88.6623
-99.9221
-123.424
-105.045
41.5386
165.381
82.3456
14.0805
106.903
183.623
106.204
-77.1571
-151.543
-92.744
-36.3111
-42.5528
-37.3969
4.88145
67.7082
60.7008
43.2036
226.018
261.912
165.255
16.7077
-116.614
-38.9583
-42.8136
-187.913
-129.279
-81.4201
-66.0158
-15.5516
68.2368
103.861
76.513
24.5682
-42.4221
-142.7
-165.475
-76.7329
-91.6592
-70.1227
22.421
108.252
72.5048
-14.5959
53.4994
47.2904
3.15351
96.5564
111.655
75.1927
19.9132
-70.7485
21.1872
120.044
114.925
-18.9817
-83.329
-233.892
-330.935
-215.344
56.0007
276.502
294.474
210.8
95.5524
4.74722
-150.012
-281.859
-247.548
-87.2517
128.795
111.909
11.9982
-18.5753
15.4615
-13.3636
-51.8566
-53.0478
82.1647
105.624
1.79052
-94.5018
-44.209
-28.0071
-31.1099
-46.4755
13.1089
42.1705
7.27794
-14.0155
-24.6191
83.9134
157.437
190.356
58.7675
-8.90661
-11.8289
158.231
111.303
13.1112
-65.2511
-214.146
-297.016
-207.562
25.3112
159.256
135.193
78.1642
39.636
2.37749
-116.672
-138.953
-41.2549
-66.1695
-70.1465
17.4557
140.042
90.221
15.3976
-6.16557
-7.99533
5.11829
76.249
69.8514
-76.514
-151.98
-140.758
48.6281
233.307
186.635
37.0699
-67.5111
-113.084
-85.4869
-5.41166
8.22896
-32.3018
-44.0691
-7.84493
-34.1001
-141.575
-126.948
-76.4447
31.5036
42.7438
81.0048
197.21
195.705
95.6006
34.9248
17.8274
6.88076
-68.8344
-107.356
-90.9494
0.854894
35.8262
59.8067
1.7986
-90.8511
-132.233
-126.758
-68.0669
90.7752
65.7449
24.7707
-39.7882
-142.4
1.0853
150.996
189.354
243.39
176.738
66.6334
0.700689
-27.0459
-43.1977
-123.978
-112.151
-8.51448
87.5397
1.00552
-176.495
-206.154
-104.501
56.963
139.866
87.3663
53.3679
35.7528
17.4939
-81.107
-204.359
-207.27
-161.564
-164.013
-81.6521
141.937
287.9
286.792
158.697
120.16
74.0515
-124.265
-157.51
-128.15
-127.294
-118.24
-161.103
-182.815
-59.0922
133.307
253.293
321.427
277.271
201.321
101.51
-21.1836
-167.762
-256.167
-134.279
28.7045
149.686
143.158
101.426
96.5885
-10.135
-142.257
-195.54
-133.642
-86.9705
-80.4833
-107.835
-87.2962
-23.0936
44.4286
57.4649
18.4057
4.26023
-42.8786
-72.5675
-51.2366
62.9276
141.609
184.172
147.168
73.8449
128.817
118.433
16.6689
-162.721
-174.054
-61.7443
-139.033
-214.113
-64.0747
116.821
293.712
218.517
104.044
-36.8966
-77.9282
-77.9964
-107.46
-123.685
-63.0327
67.4677
78.1251
-38.0529
-100.474
-16.2705
42.0169
-12.3724
-28.8696
37.4559
-15.3056
-109.574
-175.561
-119.842
19.476
114.327
86.3833
40.8073
88.2242
60.9505
-46.5275
-149.489
-121.566
-30.7095
7.88435
24.1822
-6.27084
78.8919
228.736
279.902
229.706
158.938
78.2536
101.197
-17.6285
-153.4
-156.346
-125.221
-78.3392
73.5778
36.9021
1.30587
12.475
-68.7024
-39.4494
-5.37444
-113.231
-103.186
-13.7742
34.6693
22.9922
-90.2837
-260.077
-205.694
-3.70201
98.7491
62.5596
62.5202
14.388
-102.654
-112.691
-73.3494
-18.2275
138.224
136.788
80.882
8.94506
-20.8458
-58.6796
-81.6316
-38.435
129.887
300.653
204.49
89.2897
61.7401
43.85
-2.93949
-7.4535
41.5705
52.3372
6.84275
-77.6805
-56.033
-34.2821
1.6532
-6.95284
-17.9667
-22.6808
-71.9523
-180.868
-185.816
-139.368
-178.789
-6.08247
103.732
49.8141
23.8952
-38.8995
-69.5511
-59.7692
-61.3031
-104.553
-71.2398
30.7023
92.0941
89.6373
130.984
156.511
66.87
17.6913
344.528
158.879
23.5065
23.6663
-47.9236
-86.6671
56.0902
74.1324
6.34338
-12.6075
38.6867
15.3595
-77.8318
-188.441
-108.947
-34.5252
-3.14357
-0.0516223
17.3483
-27.267
-44.1341
-33.0375
30.426
19.1297
9.12192
-2.01812
-98.9617
-86.1996
-19.3003
-52.6195
-59.4862
-77.1023
-53.4753
19.5733
36.8811
30.5675
-2.55173
-23.4567
1.39468
-15.6534
-30.5906
-16.557
31.7841
33.8206
4.89977
21.8966
92.124
151.999
153.582
76.7206
-6.49072
10.1068
-30.4242
6.39623
80.8459
85.9353
54.3
35.5011
7.16279
-2.36862
18.1162
14.4236
-42.2608
-7.36789
-41.2534
-106.479
-175.554
-84.8724
-11.3189
-49.2729
-122.768
-111.41
40.758
90.7408
28.0787
16.6395
65.2326
96.3359
2.85903
-83.6346
7.12325
64.797
4.02059
-84.4943
-83.9994
-61.9143
-79.3087
-129.252
-58.5314
99.3672
174.157
107.674
93.3915
133.628
54.7155
-52.5181
-58.0338
-168.862
-198.563
-51.4991
22.5563
31.9198
31.8511
55.6427
110.664
160.169
157.528
101.049
-30.2531
-60.1465
-5.60925
-42.0338
-60.5975
-50.1947
-26.5442
57.6184
86.4194
61.0287
59.2608
11.4432
-131.219
-111.671
-41.7275
-43.6119
-52.1028
-59.1631
-63.5181
-71.7568
-9.57834
99.7948
88.4885
102.954
27.5442
-46.8785
-60.9112
-86.406
-129.41
-33.3109
65.6558
58.6747
44.8911
32.0748
27.0511
21.6525
-2.55813
-49.9351
-21.9578
-10.6192
5.41319
6.46245
21.1693
50.468
27.7036
-47.2205
-12.961
72.385
79.6901
64.9296
26.8632
-3.38422
-13.5155
-21.8348
-54.4361
-37.1076
85.2291
64.1299
12.7147
8.60511
-2.32269
-49.8691
-112.791
-170.507
-88.339
120.857
110.726
36.7395
17.6184
5.8352
-24.9165
-98.0262
-74.7899
-51.0911
4.52282
7.71766
-33.9557
1.96397
44.9129
47.9254
49.1333
58.4931
15.1008
36.3076
5.00702
-73.211
-71.0415
-86.6968
-49.6159
12.5734
98.1535
149.91
62.8781
5.11579
-29.5941
-82.4681
-3.90432
68.2448
51.804
50.3792
8.75757
-57.983
-50.3484
-33.3401
-72.9667
-94.9783
-26.3604
39.7598
-39.7632
-95.7283
-13.237
72.4005
92.2281
5.14208
18.9068
128.211
20.6151
-39.4986
-30.4256
-20.5023
18.0923
-36.1478
-43.1634
-61.9537
-3.57505
34.871
-7.04008
42.3429
152.351
154.151
40.0389
-19.607
26.072
110.011
65.2734
-42.6955
-98.5354
-113.952
-102.388
-112.888
-104.741
-80.5891
-61.2938
-2.61272
2.00759
60.2157
131.252
48.6441
26.1013
-6.65084
-30.2081
-16.5333
-20.4128
-20.8568
-22.8588
-28.7948
-21.1626
-23.486
34.0994
46.1375
42.3014
56.4133
53.4022
42.0059
22.9251
-67.2057
-121.695
-54.9698
-49.987
-23.8971
-4.66893
7.32318
23.6193
57.1995
73.696
107.441
76.2376
37.4002
0.472078
56.8214
51.9756
13.4674
-8.57302
14.2665
-29.4337
-108.078
-89.2138
-89.2395
-97.0775
-76.1756
-25.359
38.3678
47.6781
42.7103
43.7635
17.4269
11.9358
-20.2178
-58.1086
-25.0989
33.6891
93.4381
98.6919
52.6161
38.4217
36.1211
-5.88938
-56.2793
-33.6735
-6.20172
-29.5314
-64.6691
-78.8797
-100.497
-90.5615
-56.986
-44.2951
-17.2222
27.0171
24.3712
31.4774
23.3395
5.55842
-12.4858
-3.97954
15.357
-9.84368
62.8401
132.902
131.34
115.437
67.1718
61.794
12.8525
-30.439
51.1534
54.2239
43.3028
-20.9358
-92.2317
-118.335
-83.3899
-36.436
5.08482
-11.2183
-26.6567
-5.34659
-36.8684
-100.523
-113.019
-127.244
-108.748
11.3892
62.7598
71.3139
16.1537
14.3194
40.7964
49.1614
30.7866
-32.925
-48.9538
49.9019
54.6717
69.5983
75.9652
74.8141
51.7749
-6.07415
-41.8396
-27.7274
-23.5709
-78.3747
-33.6869
-2.01371
-41.3458
-32.0393
-16.72
53.2562
44.6617
50.9041
63.7842
26.6937
17.1819
3.58608
-20.123
-24.4831
83.9925
85.2997
0.477131
-36.9164
-33.6966
-56.5559
-99.8785
-107.636
-1.4265
13.1856
15.5758
-10.8335
-12.2037
-2.40894
-1.26001
-36.9013
-47.0928
57.8564
70.8213
53.006
-34.3692
-53.6968
-9.72001
7.62922
-19.978
-46.9827
62.3966
94.425
39.5378
44.9849
43.3226
5.59362
-49.8076
-42.9605
0.279209
11.0872
28.0259
-8.63055
-5.20879
-28.3949
-93.7608
-61.5536
-14.0613
6.47423
47.7336
42.6928
-20.9286
-14.0702
-59.326
-41.2221
2.81383
-11.2399
26.8689
17.191
-31.0794
-44.5062
-37.4787
27.2319
14.3789
-24.7759
10.3491
34.0226
31.3131
39.6562
35.8583
11.7898
72.0253
86.9219
69.9858
29.8724
-6.30715
6.45016
15.7333
6.36804
46.1977
83.8888
64.6517
-54.864
-20.3946
51.4674
9.1401
-108.514
-85.4535
11.5109
37.7794
-7.25664
-101.974
-126.024
-109.597
-96.6368
-93.3695
-83.7008
-54.0769
-42.6253
-59.7506
-37.7598
-10.0973
22.4445
23.6881
-4.80571
35.5946
145.451
118.245
49.7498
31.3361
69.3637
95.5952
77.3307
61.0011
76.6599
82.538
97.8535
92.1791
57.1786
-4.07713
-62.9248
-123.609
-137.709
-83.1146
-42.8752
-47.1765
-56.1016
-43.496
-56.216
-72.3008
-86.5326
-21.1397
19.9579
8.78127
-25.8179
-16.3423
3.39589
-33.1563
-47.2798
34.1739
32.8667
51.5635
76.4505
48.746
45.4533
28.9752
21.7422
66.6955
49.9983
59.8117
73.8723
-22.6098
-75.5004
-68.5521
-10.2776
50.7704
31.8123
33.905
65.0069
36.0814
-4.50047
-46.3272
-46.1383
2.62743
1.31526
15.5429
-1.05871
-34.0236
-46.2956
-35.6172
-13.434
-65.7745
18.8247
42.9242
5.19452
-61.6471
-97.5048
-139.881
-148.442
-126.066
-90.5936
46.2259
104.695
74.9229
129.925
164.386
167.067
125.038
40.1333
-65.9261
-83.4522
-13.4181
20.7346
12.266
-50.3299
-94.8653
-92.7939
-68.8327
-0.99267
15.159
43.1811
15.8694
-29.4541
-41.9434
-55.8018
-131.906
-71.1502
34.4672
66.9746
91.7267
113.313
120.883
79.4162
41.613
59.7221
85.6369
56.3856
51.2388
61.8672
48.1373
16.7705
-25.5959
-55.5563
-83.3536
-89.5735
-1.37856
-45.422
-89.6477
-56.3454
-5.83462
3.10791
-33.4332
-67.5379
-32.8842
-21.3118
-8.52326
-4.62311
37.2359
5.13825
-97.0213
-32.872
20.7655
38.6233
56.5844
30.6356
-6.79323
-18.3975
-57.5777
29.0602
44.4586
27.4597
4.4686
-64.304
-59.8812
-13.7856
-49.5422
18.053
-13.8481
22.4949
72.5525
94.6379
78.8695
36.6564
-2.0179
-8.14201
22.5192
60.8117
77.5249
34.0063
-5.6545
-48.5013
-79.0769
-32.1077
-30.1646
-125.043
-61.9339
22.9105
61.2043
22.358
33.1781
-12.0325
-56.5013
-37.6224
-26.3922
1.32943
-6.55753
-36.707
-19.8098
-8.30112
39.054
63.8071
22.5475
16.5415
54.6935
72.0649
29.8322
-44.7868
-44.5152
-41.389
-32.9555
-28.5712
5.75635
17.8616
36.3373
49.4551
25.1379
-26.0361
-61.4454
-32.1929
-37.3348
-41.0144
-0.633589
11.137
-15.6355
-35.1151
14.7435
92.1013
94.8947
69.996
31.755
-0.17399
14.8779
54.3526
46.6645
10.0147
23.0939
9.34502
-30.6198
-71.5513
-65.2153
-55.1413
-32.2434
-43.6679
35.7068
247.653
235.213
93.2019
17.2306
-26.8557
-56.9478
-140.251
-165.626
-117.963
-83.5431
-103.671
-124.636
-94.8795
-72.413
-72.6646
-63.6045
-49.8163
-12.6868
29.8611
14.6279
-49.3296
-52.7924
-36.9799
-38.8009
-1.68832
104.363
174.116
131.841
37.3257
8.66609
34.0225
9.66292
42.0458
131.242
177.437
129.506
89.4268
44.8757
12.7229
-19.2022
-73.4482
-63.6018
40.8858
78.0508
33.7652
-20.8089
-19.2652
11.2968
16.4653
-0.0771255
29.2623
46.7562
4.76298
-54.9758
-49.2032
-43.3675
-67.1964
-43.7245
44.916
92.3272
79.6398
21.821
-102.128
-185.089
-149.444
-61.4176
-19.666
-49.6975
-86.9564
-125.189
-165.494
-213.749
-222.246
-130.527
-58.7339
6.12599
64.4964
87.2416
76.6083
32.1976
-2.14358
-15.5261
80.5037
164.918
185.699
127.507
81.8222
105.792
164.233
182.831
135.599
149.229
153.022
92.2445
-1.38486
-44.3823
-36.2707
-24.9209
-79.2098
-126.936
-41.6877
32.0811
-28.5896
-55.816
-58.8544
-57.593
-14.9404
-3.00182
-62.2048
10.7546
58.2757
-4.57961
-119.132
-175.151
-135.893
-49.2711
-28.3516
-35.8397
3.12554
63.3182
47.7629
45.3205
-0.737707
-59.7575
-68.3911
34.4656
140.412
157.41
166.695
92.9258
4.34743
-16.8991
11.2104
8.87526
42.4063
19.555
-34.1149
-82.0553
-118.646
-154.381
-177.973
-194.618
-169.611
-24.6523
38.046
-2.05476
-48.1301
-52.0735
-57.0799
-43.6048
5.01943
111.967
258.681
293.532
184.265
100.46
73.1933
52.8103
-8.74738
-7.37761
57.7378
63.4059
78.1722
45.7374
-3.70092
-59.1877
-105.242
-109.712
-100.257
-83.9503
-26.0411
-34.5806
-92.3221
-97.6543
-124.055
-84.9966
20.4857
67.2183
78.0192
80.8433
15.5976
9.48291
42.2794
10.4664
-38.7292
-65.8231
52.2222
59.9345
45.4788
36.4047
25.4625
43.9122
87.6687
103.043
155.45
114.215
-7.61443
-81.8625
-90.0722
-127.671
-144.164
-155.205
-125.688
-70.0622
-35.8959
-21.0917
-94.9134
-144.602
-141.016
-175.77
-165.853
-60.4383
25.4979
156.325
197.146
211.959
238.262
202.025
155.204
139.038
124.395
110.578
91.3854
84.3247
30.9116
-71.8129
-114.96
-36.7895
60.0283
46.4044
31.161
-21.5883
-64.3952
-151.613
-313.373
-297.543
-206.985
-99.185
-7.75559
40.3761
23.9414
70.0896
176.671
197.129
143.545
86.9328
15.5845
12.1215
43.1948
41.701
-37.4228
-110.893
-133.594
-163.32
-105.582
-44.5874
5.38637
32.6986
-21.4009
-104.72
-41.2255
-8.29845
-83.9628
-122.478
-50.0138
64.0215
108.666
89.1318
52.2479
57.4823
156.353
177.242
107.692
60.6887
102.988
138.312
83.8786
56.2846
74.4903
76.1949
50.2704
-43.8605
-148.974
-157.655
-47.6331
-12.3824
-8.95067
-23.884
-53.4601
-67.086
-126.857
-139.266
-55.5053
54.7058
1.22646
-60.7907
-41.6809
36.2599
48.5609
-36.2553
-109.88
-98.6463
-96.8241
9.7195
105.063
62.1802
-2.64429
-68.0158
-79.1155
5.39425
57.7904
54.2178
42.7385
1.25459
21.7313
2.98851
-31.561
-69.9232
-92.912
-42.7976
-16.7066
19.1447
87.9708
32.8335
-12.3376
36.4491
44.3295
163.105
251.566
227.395
197.213
172.098
61.2673
-2.59942
-16.0963
-118.769
-142.406
-123.409
-33.3255
89.3372
125.276
27.1485
4.4291
2.62784
-120.296
-104.214
53.5544
18.1318
-159.753
-238.322
-269.431
-335.891
-276.072
-144.089
24.2218
122.235
131.578
70.8235
10.2809
-17.4626
-7.24605
39.4392
-50.803
-102.436
-13.6396
2.87544
-25.1853
1.22458
102.766
224.735
268.769
268.488
226.08
112.421
-62.0481
-99.0826
-51.3581
-5.37789
16.9216
-21.4066
42.7873
207.417
256.84
173.404
103.65
-7.85595
-156.968
-238.559
-257.976
-266.49
-141.23
-21.9567
-25.0857
-9.77479
54.4352
29.9654
-36.7682
-44.7247
-46.1516
-16.6413
-9.85295
-59.2848
-9.43959
63.5188
-16.3874
-43.4351
19.1051
31.1964
43.0573
22.744
-71.653
-20.2032
101.684
26.1778
16.485
74.7993
46.8054
11.7
0.892582
55.8544
33.0915
-29.7146
-77.4965
-102.688
-77.767
-3.25303
0.0977684
9.7988
62.2774
87.2278
49.1433
12.7074
1.56716
64.2033
34.2871
-41.8558
-101.266
-108.283
-75.8307
-70.7139
54.4501
132.102
48.9604
-27.8055
-53.6048
-28.6884
-98.5927
-232.788
-89.8982
98.0311
302.679
192.3
31.9301
-35.9289
-55.5632
-3.04036
59.9481
11.9949
50.591
21.4984
-91.0248
-99.4704
17.3861
64.8698
7.14483
-0.34237
97.8652
216.072
145.58
3.88864
-145.551
-120.868
-118.17
-140.904
-37.7254
5.9032
14.3842
63.2364
32.4771
-34.1668
-143.919
-193.455
-123.023
-64.1367
19.9995
87.9683
168.129
182.395
44.4114
-11.0666
-14.5283
34.1142
89.5851
108.577
34.9928
-28.2585
-12.8228
-17.8477
-83.5056
-80.3562
45.6636
77.7433
2.88657
-76.5457
-137.144
-176.198
-155.326
-61.0111
99.7644
89.1701
-17.4209
-12.7425
33.3566
65.6539
62.6647
57.1963
89.2028
130.368
58.0495
-26.2192
-90.1302
-144.737
-141.174
-71.7671
69.6128
141.794
111.668
31.5982
-55.69
-26.7504
25.7185
25.0285
-21.83
-93.827
-62.1452
-6.9455
-7.98945
1.08335
45.7831
146.969
149.232
66.2654
30.7072
31.8063
51.8747
44.2783
62.1615
56.6808
-45.6203
-142.24
-212.605
-217.09
-108.864
-40.129
-75.1118
-123.167
-126.737
-80.4092
59.1818
145.769
115.608
121.527
145.356
118.099
44.5458
7.25588
-75.4583
-144.239
-104.349
-52.4639
71.5761
156.16
127.111
96.6411
38.5388
3.62986
10.6649
-39.1274
-81.0033
-96.4703
-93.4859
-85.8301
-95.2148
-82.6525
-23.6289
38.4768
25.9503
53.4478
43.559
66.3101
111.353
36.9665
-61.0757
-56.3301
12.1519
91.7406
96.242
50.4736
27.5137
27.3914
10.3025
-32.7288
-41.2169
11.5656
-33.8868
-7.87757
-3.72511
6.74147
18.121
-41.063
-121.211
-28.1707
4.72336
29.6893
45.8774
-5.61923
-67.0988
-59.8275
-63.8869
-58.3572
-73.9837
-66.8858
-53.365
-8.84607
106.012
46.792
27.0282
90.2168
54.6913
66.3254
70.594
-23.0717
-29.7333
-43.0699
-69.4019
-14.7663
57.8737
85.2717
91.5786
61.4692
85.1613
101.549
74.2985
62.1187
6.89883
-51.0065
-98.7739
-133.796
-132.768
-101.981
-69.7271
-95.1187
-89.5547
15.4111
44.4183
38.7104
5.13362
-19.527
-36.4346
-68.7246
-32.6078
76.5714
78.495
10.8441
-23.7239
-32.9355
-12.8448
-53.3985
-105.815
-56.422
-38.7201
48.8096
127.439
193.592
321.735
304.984
266.89
275.666
115.648
-73.9396
-167.657
-207.226
-192.446
-225.374
-289.745
-133.805
-48.9861
-40.997
3.81648
-7.21084
18.8293
19.6424
-38.1183
-183.857
-205.088
-76.5035
-25.9049
-40.4139
8.70255
90.934
119.535
110.875
80.6811
60.5701
177.953
108.886
30.2856
101.917
168.637
124.399
89.5144
70.2474
155.533
77.299
-93.699
-179.869
-206.325
-232.42
-183.935
-192.71
-106.059
11.8742
93.4403
152.344
96.6098
35.056
58.0834
56.268
39.9171
-18.166
-98.6951
-118.175
-114.435
-57.7929
-27.7242
-74.8356
-61.8484
53.8615
104.719
183.555
113.856
-30.8092
-96.817
-87.5049
-72.7308
13.1816
79.0138
28.0465
-24.1249
-10.6551
6.68961
39.4413
-40.6048
34.9873
103.943
111.906
125.981
97.2401
78.4036
25.6974
-14.0431
28.1888
8.35517
-40.5016
-54.9772
-67.5311
-63.0455
-65.9959
-128.856
-153.256
-92.1935
-67.102
16.294
21.3797
28.5968
63.5462
23.7046
-42.3314
-73.8868
0.165394
33.8458
-56.3045
-84.6757
12.3373
16.2162
-62.4749
-89.2104
-60.6947
72.9726
271.136
261.031
149.226
60.4196
31.9368
-21.0899
-104.214
-148.335
-98.0801
-29.8173
-34.3912
-19.0831
50.3447
104.544
60.3
23.0006
90.3711
28.1187
-5.03648
-17.6285
-53.2579
-57.5828
-58.3641
-65.2909
26.6336
50.1855
-7.16914
-31.4943
-75.3026
-104.197
-100.83
-83.4052
-2.19155
57.8162
108.608
226.007
233.256
201.446
152.757
59.2457
-54.1747
-147.529
-111.452
-83.1368
-157.669
-167.56
-100.711
-67.0125
-99.3703
-41.3758
-12.932
-10.5898
-10.8118
18.5685
65.0239
26.5347
-83.2274
-79.9941
28.5326
57.5058
57.581
77.3425
65.2745
53.6251
44.313
58.0943
65.5591
93.9361
113.226
57.3049
30.9369
14.0405
-59.457
-79.203
-88.3736
-116.26
-56.8642
4.25857
-17.3602
-2.79209
36.5954
94.5845
-2.73759
-136.927
-65.7371
-22.5325
-18.4141
30.6315
127.495
122.538
77.6143
16.3477
-30.1607
22.6858
-2.38034
-31.3655
-79.7932
-120.432
-128.728
-99.2254
-120.609
-194.571
-89.7253
82.8849
114.721
148.129
153.401
116.498
86.4629
23.0695
20.4513
99.0558
108.353
-3.53308
-69.993
-72.2016
-64.4857
-82.0321
-108.935
-39.0856
-4.35092
71.8214
135.121
128.418
23.0075
-56.8704
-57.2202
4.73212
-58.2767
-26.2666
53.2513
34.8198
-8.84985
-82.8825
-153.039
-114.535
-62.2358
61.8513
88.4076
53.4572
125.473
117.054
-108.561
-70.3014
83.8112
93.2146
48.1006
-66.025
-69.0896
15.512
9.29561
3.24863
-60.3325
-134.884
-42.8111
1.33676
10.8379
20.3206
7.06286
-19.6641
-37.9189
26.0943
89.2797
10.9741
-29.3029
-44.6791
-14.3241
1.50629
-48.7324
-110.676
-90.5322
103.893
258.566
199.532
81.9497
-29.5432
-48.9921
-39.0889
-54.9143
-13.8513
12.7719
-0.611671
122.546
161.216
5.05845
-110.401
-135.254
-61.3535
-10.049
12.3525
0.86035
-118.213
-127.42
-0.633679
46.3306
40.9424
36.6606
33.929
34.5765
-2.03132
-21.1408
-28.05
-49.0186
-59.6396
-22.9885
87.1271
66.3355
-26.1064
-41.012
-71.5213
-64.1279
-77.0207
-71.6078
23.9655
102.537
143.765
140.155
87.8835
82.4989
63.037
-28.0293
-9.94418
-72.1731
-14.5481
66.9863
20.6846
-78.7192
-139.737
-82.137
30.2041
39.416
-23.3913
-39.4019
3.19053
26.5875
-19.1593
-125.806
-48.0902
72.0256
109.432
124.455
58.9414
46.2267
-33.017
-99.9574
-119.449
-31.7291
106.554
135.83
89.4918
93.6089
46.8457
-48.5961
-91.9192
-102.175
-105.434
-59.8465
-45.4199
-79.2436
-121.163
-163.919
-146.694
-83.4436
-90.4319
-100.116
16.0168
109.41
162.612
237.858
181.892
94.7506
79.0883
167.754
194.036
93.8368
21.7356
14.9239
-40.5896
-53.9559
-96.1666
-50.713
-80.1157
-79.4633
42.0492
155.871
159.603
50.6969
-64.2012
-127.474
-111.648
-112.046
-102.902
-134.584
-208.308
-186.87
-138.423
-66.2786
19.6328
71.9894
156.446
174.396
194.735
176.41
57.061
-72.6585
-131.097
3.89677
43.7085
-2.24477
-1.93317
62.6796
123.894
81.6339
58.093
72.3673
102.773
73.1573
13.5198
-38.3101
-67.8361
-87.7792
-132.308
-102.238
-74.3623
-110.436
-86.4131
-52.5895
-26.165
11.0681
56.3766
-48.7936
-40.549
9.64572
-42.6738
-91.6999
-21.0696
45.9717
25.4344
-36.5827
-5.8784
36.7516
47.8377
21.5565
37.3836
96.4448
118.705
103.567
67.7546
-3.78745
-61.9481
-22.1788
-22.3916
-68.6073
-60.3277
11.1828
85.1355
65.6109
63.7117
80.4448
93.8927
44.6291
10.033
5.03511
-43.057
-70.9779
-40.0906
-11.8666
1.28023
-40.6984
-63.5084
-60.3106
-117.129
-70.674
30.7304
12.7178
-47.0159
-33.2165
-46.0829
-37.8879
-78.5908
-16.2729
107.72
77.3283
48.3964
88.8721
4.21728
-112.667
-155.286
38.4175
172.991
136.773
125.145
30.0017
-73.4247
-41.4783
-50.9149
-37.1585
-33.0322
28.332
59.2046
12.6392
14.4289
59.5347
48.4367
-21.9196
-79.0638
-62.8633
-33.5101
-104.732
-177.944
-109.19
-33.2582
52.9322
77.4628
76.1109
163.239
180.106
54.6412
-9.61076
-0.487273
-18.259
-87.8331
-143.564
-97.2331
43.5212
66.5772
50.9557
61.6029
73.0514
75.5016
28.6652
-32.8639
36.9431
49.763
-22.4452
-84.6591
-103.913
-98.3146
-145.123
-80.6517
23.5524
43.8896
84.3699
117.118
119.662
128.634
15.2871
-83.6554
-111.54
-141.776
-88.1303
3.18484
-13.4842
-6.15094
-1.94411
-19.5665
-65.0263
-34.8966
13.0794
47.1075
27.8555
25.6851
56.1623
10.6264
-120.129
-19.1321
106.024
155.363
91.9703
72.6757
40.8864
-55.5556
-88.1813
-41.3166
-19.2642
-47.6093
11.0181
162.094
173.634
65.5216
43.8038
48.5337
-58.2305
7.6187
-19.3532
-233.014
-245.637
-146.194
-102.903
12.9902
104.606
108.223
97.8956
43.8712
24.9827
7.56307
-85.4251
-160.964
-100.436
-84.4333
-76.1954
-22.2081
59.2514
21.4264
45.3917
77.0168
32.1702
33.0251
90.2546
-3.62881
-40.2282
10.5955
51.9723
115.939
141.848
80.0362
175.963
215.768
105.892
-22.0554
-159.085
-166.117
-130.856
-156.189
-74.7418
-28.0789
-53.088
-84.676
-100.819
-71.327
-40.3838
-31.9913
19.2286
50.8596
71.2808
131.457
96.6054
-65.327
-136.185
-125.213
-63.3597
-27.121
74.2871
110.287
51.6287
72.1401
159.902
138.727
89.2678
115.473
48.905
37.5701
-49.4731
-138.842
-145.676
-110.801
-152.368
-147.107
3.69309
135.812
168.561
50.115
-108.873
-124.78
-93.9657
-87.8078
26.4432
161.287
180.129
98.7127
62.5695
0.307313
-30.6482
19.2459
65.6318
19.5317
-44.7711
-37.7965
-102.001
-141.092
-157.444
-86.1384
16.1278
95.7783
81.1935
55.5983
27.9395
-24.8673
-87.5988
-78.7728
-98.0301
-66.9097
50.3585
32.0978
-23.8828
-41.4515
-21.1579
21.8441
47.1215
93.9376
158.078
217.898
190.119
61.6929
17.3261
83.5633
39.5472
-56.1477
-145.778
-178.268
-121.266
-68.6398
-77.2563
-33.2754
-10.6349
-9.22438
-63.5185
-13.768
30.4938
47.7424
64.3706
53.7591
7.31729
-93.5313
-137.714
25.4921
159.635
123.518
67.5487
-6.85037
-33.3317
-30.9323
-83.5152
-29.9917
51.0291
56.662
44.7078
0.977803
-48.1571
-116.203
-176.884
-97.5475
-1.70617
60.8939
88.9199
55.6756
13.6101
27.895
34.5778
91.0365
173.864
133.676
43.9047
-38.6651
-84.1852
-64.954
56.0712
92.9152
36.1156
-14.7089
-30.7587
-96.1104
-124.323
-90.1124
-66.5083
-126.882
-169.756
-149.457
-51.9
-39.7918
-71.6417
-48.1855
21.1949
31.3283
12.1721
31.3814
107.731
91.9568
128.068
210.355
212.181
166.815
106.181
36.5841
23.6804
-53.0914
-108.561
-84.4469
-16.5192
24.0337
-19.3789
-81.6403
-9.15655
101.877
97.5429
49.9561
-45.2716
-53.4536
-27.4579
-40.7466
-113.486
-189.4
-104.466
-10.8207
15.0925
17.8727
25.3886
54.1859
42.6824
3.91843
8.17308
56.2078
-8.05865
-80.152
-57.592
-34.9797
-19.9628
-22.9612
33.499
-0.702992
10.6309
71.9487
-73.6839
-108.075
0.870719
1.00875
92.8663
134.882
93.5122
36.8588
1.04087
-6.4492
0.498235
-52.7946
-59.1795
-56.2978
-95.0741
-87.2658
-78.2714
-9.46909
82.0281
55.8983
80.9585
129.009
82.2666
140.367
69.9834
-27.4844
-22.4778
4.77236
-6.49231
-43.5916
36.0465
34.4921
-43.4954
-49.7288
-4.28558
16.2588
-9.10356
-65.9395
-121.754
-76.1427
-1.21406
46.8664
30.3833
-18.5127
-54.7457
-59.4029
-59.3597
-33.6016
37.3881
51.3666
-8.91002
18.3645
27.8639
15.7902
-40.1358
-69.0787
4.85742
46.3816
44.6578
13.1654
31.549
27.9181
-33.5607
-63.2211
-8.02264
38.3113
61.7085
22.2217
-15.9539
12.9855
-61.3493
-33.5091
79.7012
111.411
153.67
154.056
28.0131
-10.6424
43.793
-12.8034
-58.317
0.454951
10.388
-53.1844
-105.201
-108.072
-145.068
-134.444
-107.218
-32.2057
39.2117
19.4475
-28.8034
-31.4014
-21.8119
-47.6181
-53.9614
-31.579
-51.3406
7.27099
90.1238
81.4336
68.2662
98.3232
85.2714
97.6373
160.493
107.217
31.2683
-7.20735
10.1568
-32.1353
-28.1416
-54.721
-49.8904
-35.5936
-45.0838
-33.6101
42.7113
74.5268
29.1088
-37.46
8.68402
-9.53877
-57.2667
-130.218
-144.956
-51.8865
0.659834
-75.723
-80.5387
111.133
128.599
95.7906
63.5247
71.5169
35.0183
-60.9418
-97.7356
-41.4258
-3.86153
8.30909
-26.5861
3.5163
51.3475
90.433
100.894
157.655
60.6923
-9.94043
-19.5501
-44.309
-48.0745
-71.7107
-93.606
-100.889
-90.6961
-78.5747
-29.3485
-74.0831
-57.0268
-44.9682
-48.6529
23.745
23.9595
6.37835
38.6703
37.6036
124.49
213.81
107.313
64.0275
81.3108
66.0528
23.6874
-31.1572
-58.9508
-43.0135
-95.8828
-133.413
-82.2426
22.138
54.7904
37.9959
46.139
31.593
-32.5446
-55.2509
-54.2398
20.0352
36.1943
-56.213
-87.2795
8.4308
49.4354
35.5491
42.0299
47.4331
22.7926
5.58209
-94.6362
-127.142
-69.0107
-9.07375
92.4997
97.1723
6.10107
-60.5401
-22.9334
-38.0219
-55.8355
-50.9169
11.8113
74.8277
103.365
143.09
152.302
122.148
69.79
16.582
-4.86055
-119.101
-111.726
-110.466
-159.105
-122.398
-14.6866
36.5352
44.2179
-9.70116
38.4463
-9.53945
-42.4763
-53.1113
-39.5478
-22.5384
-17.8622
-10.7797
-41.4437
43.9591
89.2534
90.5333
103.418
73.4623
32.6122
5.57197
-0.862203
23.0957
25.5211
7.44912
6.09026
49.2302
7.74314
-82.7628
-47.0287
24.2359
66.1744
57.5033
21.5716
-67.321
-136.505
-121.102
-137.56
-71.8601
-14.5332
-46.1405
-56.8928
-66.2856
-6.48492
96.7134
148.265
157.864
149.967
110.112
7.28915
-124.565
-197.075
-181.423
-71.3889
46.3076
108.425
146.019
114.855
44.7024
-0.823937
3.09169
12.6706
5.66658
-52.8368
-19.9505
26.115
-8.71603
-52.726
-26.2093
4.98205
51.1302
69.5932
51.507
53.78
1.16401
-37.4875
-65.0458
-62.6621
-41.7074
-48.6042
0.196441
39.7066
-1.63333
28.1977
-15.0781
-62.5815
-47.3826
-30.997
-18.6564
18.9667
-18.8235
-43.8178
-25.6256
22.9212
20.7902
64.1353
115.781
119.784
18.9877
-3.44158
22.7457
61.3695
88.8371
-101.04
-278.472
-190.998
-62.4939
-50.458
27.4813
64.3489
72.0009
87.8299
64.2315
6.44263
29.9065
-12.5664
-62.6573
-98.5749
-109.632
-19.9691
50.63
103.021
137.645
188.204
202.982
69.6276
-44.5075
-30.7805
-129.439
-199.495
-66.6581
17.0674
68.3338
88.4231
23.6621
-45.6377
-58.6298
-79.4307
-88.0023
-34.1303
-18.4917
-58.4536
-35.2177
15.1545
24.1036
52.9836
31.781
20.8479
74.465
30.0052
-24.9221
-25.9891
29.5041
56.8926
69.8908
63.7095
-14.1971
-11.6789
131.505
61.8127
-18.5873
-81.4997
-120.152
-78.9911
-40.6195
-36.4621
0.40071
-97.5394
-123.961
-35.5354
-147.547
-200.85
-118.32
-12.8419
105.892
163.518
219.131
201.487
221.228
218.785
80.7325
47.1843
55.3318
-12.0165
-48.0429
-59.215
-109.235
-76.0336
-48.6853
11.6057
113.392
107.089
16.6553
-64.932
-108.307
-105.745
-98.23
-102.754
-124.047
-184.338
-194.988
-157.865
-105.988
-30.7775
101.625
201.333
100.37
65.9627
194.483
176.322
159.881
92.109
-9.61821
-58.1562
-93.114
-35.328
24.4869
53.0682
34.0818
55.2666
112.701
44.2848
-47.0271
-83.1624
-124.665
-136.847
-91.7796
-16.4234
-56.8794
-96.2474
-68.643
17.2206
38.5622
50.5655
101.861
105.181
41.3004
-21.1281
11.327
28.1126
69.8928
111.184
109.361
25.6822
-47.2031
-69.7426
3.42762
37.5423
-30.4402
-36.358
-67.373
-37.6612
19.3417
-58.7069
-151.963
-120.924
-39.9097
-57.6372
44.2208
143.105
70.2747
-23.8323
-77.7576
-14.3281
36.0824
27.8972
84.6815
89.8698
44.1188
-61.6138
-112.802
-117.798
-92.3323
-36.7123
59.5816
70.4474
59.2246
77.6955
-80.8073
-165.158
-132.893
-81.6379
40.3733
119.34
121.541
123.161
98.9839
79.686
118.927
134.085
200.394
157.596
98.7347
34.1168
-69.3578
-116.186
-98.1957
-80.258
-78.7301
-83.8469
-81.2575
-68.4026
-78.5623
-78.4485
-70.1698
-151.127
-217.374
-192.645
-92.4016
0.637985
54.8166
78.0179
109.882
122.904
87.5677
1.40749
-12.5468
-5.78316
12.9868
82.7396
143.172
135.409
123.3
99.8657
44.9816
30.0522
53.6469
50.122
-19.2432
-99.6064
-148.18
-140.487
-154.356
-36.0422
19.4608
44.1909
27.7623
44.3202
16.9463
-32.3923
-42.3925
13.9298
-14.1313
8.78956
62.4857
34.8098
-6.44428
-34.538
-102.435
-92.133
-10.0415
-17.3887
1.29746
-24.1462
27.4149
112.988
92.5351
32.264
-31.3693
1.69649
46.4191
-25.9168
-87.3484
-105.068
-17.3886
56.7943
5.94503
38.3183
77.2806
62.8865
-3.76511
17.3469
28.4538
11.5093
-49.3001
-38.0017
70.621
88.8091
42.3635
-61.7763
-91.2646
-70.9857
-62.4001
-56.7493
-56.1818
-2.21047
82.3479
69.4979
45.9255
48.9597
11.1345
-31.2437
-76.2103
-76.2021
-30.93
-38.8768
-72.3705
39.0719
157.303
115.476
27.5539
-4.14825
34.5585
18.5791
-33.0412
-44.5561
-26.7266
-16.4503
-15.0345
-24.419
-60.6198
39.0687
83.0338
70.8918
43.5395
-57.13
-109.283
-93.1777
-177.131
-142.13
-31.2662
31.3531
121.52
85.6296
33.6697
88.4055
65.6421
60.789
47.2828
17.0419
5.95499
-4.02226
-6.12877
-45.3006
-65.5342
-9.34424
-12.6572
-7.11143
27.7189
9.44737
5.87142
-10.5886
-45.0963
47.2192
112.456
32.1742
-12.1144
-48.3836
-29.3661
4.21298
6.91468
-63.4378
-54.2593
-23.2855
-21.9871
-23.9864
-15.5607
-16.0332
-34.4184
-52.5605
5.42997
144.787
219.03
168.346
87.625
-27.651
-95.7839
-100.704
-67.4649
-34.1605
33.1629
78.5095
50.9091
14.2699
7.08649
-34.9629
-80.3287
-113.106
-114.207
-37.7792
-70.9431
-125.363
-152.606
-137.345
-89.2382
-14.6629
52.9648
101.086
96.8645
114.771
122.809
97.7265
56.4828
17.3995
16.4932
89.9899
184.83
141.902
76.4357
21.338
21.1055
60.2283
35.7688
-49.6863
-44.6135
-77.4932
-131.597
-173.542
-141.465
-84.7352
-64.2847
-13.2303
125.296
234.735
155.937
5.14811
-61.0594
-53.4428
-49.984
-139.042
-174.494
-113.497
-89.9115
-35.564
-43.6811
-18.0374
47.6102
24.6082
3.65916
10.9138
21.9503
35.6807
12.7405
-15.0777
13.0981
27.1178
50.4167
67.6062
89.0555
118.725
90.6992
-12.2169
5.63656
39.0302
18.2674
35.1708
85.4793
120.529
165.647
129.698
56.0848
-42.1418
-202.899
-231.49
-83.0642
-35.5153
-118.449
-150.805
-96.518
-21.5004
11.3469
-48.8432
-123.43
-18.1438
28.3404
8.19358
-5.14461
-10.4265
-36.6495
-60.7488
-111.325
-42.072
108.984
124.871
121.685
139.527
102.361
62.8415
-1.48943
16.4403
-2.69487
58.3659
102.345
20.2899
-8.53928
28.4027
38.6869
94.5447
69.3104
22.6766
17.2942
23.7234
-71.4743
-235.385
-318.724
-174.996
-34.6499
40.2507
33.9815
-25.2687
-4.72872
17.2016
41.101
-26.8052
-36.9326
96.9283
137.138
47.7478
-48.3613
-58.3859
-31.1663
-21.3593
47.4764
194.97
223.922
95.9086
-7.08438
-119.723
-147.662
-89.4804
-82.2981
-71.3655
39.8575
74.1884
27.5932
-76.7123
-67.7914
-54.4899
-54.9439
-40.3288
2.60364
-28.7931
-71.3781
-70.5977
-63.0182
-17.126
41.2195
180.021
250.568
168.932
135.867
67.5058
-32.9487
-2.23599
32.0841
-60.3012
-151.705
-69.9018
32.7457
35.5231
-2.62056
-67.2803
-105.835
-57.6265
-43.9781
-21.9587
71.4026
121.763
27.5362
-89.4719
9.26446
148.986
49.6443
15.6408
33.5639
77.1399
23.2301
-54.2159
-72.0183
-77.1492
-96.7026
-145.95
-117.644
-5.85529
12.5766
-15.1657
-46.3404
-87.8946
-7.96464
95.826
106.336
11.7622
71.9492
154.956
84.2674
-29.4835
-91.8657
-120.254
-96.2588
-52.7107
53.0736
172.067
156.343
40.8682
-26.362
-85.6164
-113.106
-48.2248
-43.8306
28.9906
52.0292
105.39
81.6958
-8.79472
12.1556
73.1592
122.798
99.3544
-38.3826
-104.68
-116.127
-94.4439
-3.28328
-28.3777
-45.057
28.4733
29.0039
-42.2309
0.241862
-27.1222
-109.646
-123.998
-87.6841
17.6419
95.3477
25.0927
-32.3668
-61.7372
8.47168
97.3874
98.645
54.6532
80.8725
130.311
138.73
-6.78997
-88.9898
-70.2022
-23.2739
-15.1641
49.8544
63.2596
-1.62355
-124.423
-182.413
-116.223
-12.9912
29.4078
58.6773
97.3535
120.312
84.6478
-26.8977
-105.049
-89.9359
-17.0594
47.362
60.0676
33.7633
21.1854
-60.0233
-165.81
-201.524
-162.872
-114.747
29.2991
151.492
172.965
175.461
76.5878
-27.7134
73.6466
148.247
113.379
20.691
62.3423
96.2276
10.7763
-75.6351
-72.0088
-63.8312
8.34174
-1.70346
-36.6784
-40.2516
-69.8886
-88.4788
-79.9823
-96.6545
-20.5448
5.79219
-81.0166
-121.029
-64.2107
16.6434
-38.4201
-80.3525
29.5953
194.557
159.117
68.0795
-5.68733
62.4991
123.281
55.1206
-94.236
-126.691
-34.1613
51.1563
27.9673
28.4691
51.8285
69.708
69.9326
52.8143
49.1318
24.659
-76.9765
-154.555
-112.155
-63.5379
-51.7152
-20.6286
-20.0857
55.7838
112.112
84.8503
24.1456
-50.3477
-119.974
-109.177
-43.7822
17.5289
50.1516
51.4883
15.2354
-44.6294
-57.2368
-44.3701
38.1541
68.5978
50.5512
9.18596
-28.777
-57.6871
-21.0613
35.1121
85.0408
87.8482
134.286
119.171
96.3792
26.4934
-77.3021
-98.783
-60.2459
-88.323
-141.225
-151.518
-85.0063
17.7864
96.5734
102.287
65.5544
11.3482
-54.4153
-35.1314
-14.0035
-27.1088
-60.2598
-48.5852
-64.4061
-75.6158
-69.1506
0.092604
74.3834
168.197
218.921
245.012
250.169
149.048
-11.433
15.4904
4.14731
-65.0812
-76.1685
-108.849
-146.792
-146.589
-153.487
-152.945
-58.97
-36.363
13.5432
10.6978
-73.5903
-158.688
-155.823
-90.5557
-36.5337
55.4586
153.83
134.305
99.6098
151.13
151.289
64.7192
12.74
3.32304
76.6629
61.8829
-5.48153
-2.44061
-3.39201
-15.9907
-31.4321
7.04675
110.639
108.789
26.7918
-48.3357
-55.2332
-125.392
-160.561
-163.276
-96.3724
-46.8886
-8.36629
14.9262
3.7987
-6.54897
-79.9417
-9.44881
72.7028
184.764
270.713
227.987
158.238
84.7874
-42.1851
-149.436
-142.036
-136.227
-105.633
-80.141
-30.5194
-13.4615
-65.5715
-121.503
-102.725
-18.0926
58.8352
20.2078
-6.37446
-19.7399
110.715
220.991
133.665
-12.2261
-25.4253
-15.402
-102.265
-87.3596
-48.9619
-10.7548
-15.7049
0.951844
105.298
135.776
65.0999
50.1346
71.0801
34.7446
-62.3353
-186.795
-250.762
-177.721
-169.868
-67.1331
216.369
509.36
460.439
116.195
-72.7782
-85.7871
-52.2959
-49.4505
-107.072
-65.2341
5.37033
-13.2485
-129.343
-126.631
-101.177
-104.642
-41.3792
31.7064
139.159
100.02
-134.578
-339.644
-214.519
27.4422
141.044
99.1882
27.0063
68.2133
152.611
127.164
83.1448
82.7843
66.769
24.4333
54.2829
94.6325
7.90826
-127.159
-94.0332
0.633282
-54.2579
-122.443
-126.441
-57.0003
18.3211
61.7367
97.0701
80.7976
53.3974
58.2041
-7.79069
-6.60273
1.65504
-45.5808
-59.562
-41.113
-77.8193
-107.459
-123.843
-56.5774
17.0763
28.3843
3.99984
16.3523
95.7126
209.961
257.772
265.132
159.485
9.77538
-89.2684
-77.8146
-69.1726
-67.644
-92.7523
-113.939
-101.906
-53.1699
-67.6389
-111.361
-80.3133
21.2591
103.644
84.7895
-35.2386
-82.545
-121.81
-187.236
-134.47
-31.1058
33.0691
-42.1538
-14.5373
81.9535
157.518
166.901
143.58
98.1497
47.5255
1.21798
69.261
38.0019
-36.5028
2.2762
-27.2079
-70.6893
-1.02256
35.9357
7.68609
-33.6855
45.5784
105.071
87.1331
13.8756
43.616
-9.01813
-83.9002
-51.6556
23.1885
69.0636
59.3447
38.6236
-5.82818
-18.6217
-88.8143
-113.15
-113.673
-140.769
-163.975
-129.516
-101.728
33.4963
162.253
163.152
86.6273
78.6127
56.4838
33.1792
16.7298
-79.218
-231.218
-184.589
-115.579
-11.2189
181.388
143.463
29.3508
30.7485
55.7451
127.908
65.9084
-82.8714
-131.651
-130.891
-63.4051
-9.79167
13.4891
-2.77312
2.40038
11.9031
72.7392
66.3644
13.6202
32.0953
62.3736
78.5609
92.695
116.009
106.996
35.9999
24.005
-13.6896
-103.795
-95.9952
-146.953
-79.3193
11.3188
4.48237
-25.2766
-11.9369
-53.9094
-56.9804
56.2812
74.5271
42.4281
57.6051
77.4372
45.3075
13.5404
-52.1719
-30.8131
-15.5994
-24.246
-13.0977
-45.8175
-120.91
-152.426
-146.77
-95.8343
-84.7342
-42.7817
42.1869
127.525
150.629
50.6779
17.7028
85.2548
86.74
4.33794
-25.8607
-37.0879
-40.3219
-24.5615
-20.5138
55.7279
65.501
118.879
139.818
132.536
153.007
154.864
85.4544
-58.3314
-221.275
-306.063
-297.733
-294.12
-243.21
-124.234
10.2689
66.1785
117.559
202.115
187.85
139.235
153.074
108.494
88.1316
27.2462
9.79283
4.97709
-41.1134
-38.1577
8.8293
25.6044
19.1805
-18.9516
-25.2294
57.8199
-0.647407
-67.4275
-87.8445
-83.725
-100.515
-111.459
-113.647
-65.6249
51.775
100.717
29.2674
-51.8612
-76.6534
-94.252
-65.8241
-37.158
51.623
188.505
217.641
114.406
26.5929
42.4808
36.2084
-77.0189
-101.948
14.2269
138.463
108.82
-29.7597
-91.6441
-94.6796
-124.58
-131.942
-63.9609
-27.8422
38.9934
57.3982
-28.115
-31.7741
-6.4136
27.8917
57.7429
162.352
189.684
113.287
-92.0018
-189.106
-181.242
-128.584
-27.0469
43.8745
97.0903
173.665
172.274
102.131
95.797
79.9628
97.0597
0.874861
-82.5684
-98.0535
-113.335
-300.618
-415.165
-323.635
-133.654
84.4513
314.592
445.391
313.092
182.012
175.078
67.526
-134.573
-248.157
-58.0658
25.3448
-105.868
-100.85
-71.6697
-41.6155
-76.2244
-124.116
31.3432
233.79
252.026
22.7225
-162.163
-231.13
-226.496
-181.823
-202.999
-161.008
48.6439
192.719
185.804
121.759
62.2436
13.3674
41.7247
137.528
218.145
203.473
141.699
50.3363
-7.44614
-40.2454
-138.324
-153.605
-46.4311
28.8249
76.0707
56.0244
-30.2156
-72.5784
-116.071
-152.639
-103.547
-20.0658
-30.5325
-20.9208
-7.22667
103.977
197.213
177.135
74.8345
48.3519
44.0266
-51.153
-78.2234
-73.3376
-18.5373
-43.3562
-137.349
-122.709
-19.3894
-61.6953
-79.3791
-31.4684
6.87631
17.7546
-13.9838
0.830857
-30.8256
-47.7038
8.96307
67.9178
85.9783
21.314
-62.4819
-15.0904
5.17661
48.7108
112.123
120.343
96.9427
222.105
127.072
-45.268
-26.244
-15.6788
-41.6966
-85.3829
-79.5986
-39.0999
-122.26
-168.076
-31.3054
127.284
159.614
155.113
154.373
137.572
58.3025
-104.879
-292.662
-295.086
-143.908
42.3712
62.0293
49.8462
49.4975
14.2144
-33.2398
-119.783
-39.7948
-4.57061
-106.487
-110.232
-97.0232
-91.0308
6.36477
60.8693
112.646
237.088
246.106
170.931
194.027
97.4023
10.2377
-27.9166
-186.098
-194.154
-62.7659
39.3253
13.8857
-63.1726
-41.1115
9.95497
39.4671
85.8659
29.648
7.90296
87.0064
27.4513
-65.5436
-145.149
-194.201
-145.597
-90.9033
-63.266
102.826
233.228
193.541
104.404
38.4773
-4.18201
-9.18428
-10.9207
5.86911
-59.3062
-120.713
-108.729
-149.778
-172.462
-37.9365
7.20114
-16.3607
-2.15257
12.9438
100.479
168.101
129.681
89.0638
39.9009
84.9338
101.751
41.4678
-23.569
-72.9345
-64.2318
49.8728
56.6328
54.5164
63.1037
26.9115
3.49541
-101.647
-187.869
-234.275
-215.926
-72.212
-24.7715
-15.4645
47.3711
104.971
136.806
-14.7065
-110.33
52.9563
90.7236
39.461
51.8919
23.1526
15.1835
3.4906
-26.2719
-34.1147
33.8246
142.746
108.459
10.2238
33.7271
24.5475
-28.2283
-145.795
-138.047
18.146
46.0024
-17.0309
-83.4362
-276.107
-256.719
-88.507
58.22
132.293
190.109
191.354
102.063
81.4486
54.1788
4.97697
4.59152
54.5769
36.4714
49.6533
24.3347
-84.942
-110.449
-129.181
13.8252
162.254
79.8934
-66.7941
-77.6782
32.4232
115.324
103.572
99.4638
78.3697
-19.7923
-114.296
-166.335
-236.312
-226.341
-179.905
-130.149
-62.1106
-9.08921
80.7396
100.085
55.2433
45.3856
70.7157
75.8585
-15.6373
-133.548
35.9187
128.001
50.8821
11.8018
2.17977
-12.4195
3.4517
5.23766
10.6672
100.612
183.233
158.749
45.9733
-76.5402
-127.952
-164.566
-128.139
-30.4499
9.13251
148.693
196.264
176.277
147.682
-8.70957
-171.14
-133.603
-133.361
-77.0518
-9.29597
-14.9015
-28.1078
-55.1189
-142.177
-89.4621
39.1314
169.915
160.37
55.0837
8.92873
-24.458
-111.558
-174.963
-167.303
-6.04196
121.009
117.682
102.824
133.488
73.9051
3.86101
12.7574
118.278
111.367
9.30647
-61.8552
-100.365
-109.225
-135.43
-135.439
-59.8219
-18.9307
-1.09513
-70.6419
-97.7868
-14.8738
-19.4852
-14.7742
6.00296
14.3351
21.3434
39.3508
54.4885
71.431
43.2335
42.0743
74.2843
69.8557
84.0489
95.1831
65.2084
31.9785
-21.2934
-75.5242
-77.5035
-23.6357
28.2066
-3.22546
22.0027
74.0949
63.3256
-1.53469
-119.673
-131.136
-5.42677
-2.84116
-39.9797
-58.4793
-42.5229
-17.3243
4.45466
-4.33315
-36.8914
123.597
175.406
90.5294
26.8954
5.53327
-63.2623
-84.6693
-100.354
-95.806
3.45756
50.9164
-4.82386
-36.7566
-40.72
-37.695
-86.9627
-147.512
-92.0254
11.2603
98.3838
48.7364
59.5397
69.6403
7.25493
-16.0899
14.4441
69.9741
108.807
84.2973
89.5043
124.003
112.675
63.1089
-47.0566
-47.6514
-86.9104
-121.173
-198.862
-120.261
2.09957
84.6724
124.26
156.164
149.356
75.8069
-24.52
-120.891
-154.744
-133.96
-188.915
-149.721
-87.3605
-30.5856
56.0664
107.924
131.823
103.641
31.1943
-26.3584
-11.3514
-47.5955
-57.275
-50.5429
-16.4542
51.0972
20.497
88.8344
131.565
61.2864
-15.8229
-34.5617
-16.2714
23.1637
43.7558
-4.58154
-22.3246
19.8941
-2.0597
17.015
9.74784
31.7399
36.3532
-17.8369
-130.565
-84.0157
45.0296
3.34917
-76.7768
-122.116
-106.912
-27.7138
66.5944
77.2789
9.90185
63.7662
46.7929
132.721
256.917
257.735
124.182
-15.9002
-156.673
-253.036
-326.659
-273.511
-153.413
-83.8994
-54.8002
1.79204
36.7029
103.964
82.6956
97.2747
160.322
121.54
135.625
-1.51959
-101.747
-197.963
-254.333
-154.286
27.9835
144.217
238.452
132.469
74.4163
108.529
154.422
185.929
133.137
-24.4075
-128.415
-175.581
-124.428
-29.0033
-22.6647
-18.0296
30.9107
-13.256
-6.4537
-1.30364
-35.2189
-17.7376
181.382
208.058
9.37796
-132.102
-180.875
-209.283
-135.881
-43.1545
-10.7838
47.2301
-1.63387
-102.138
-107.297
-37.8167
-61.2376
-49.5886
13.1314
22.8728
69.5038
90.9785
4.14012
-17.6722
19.4886
56.9561
78.1805
141.503
158.479
66.4257
29.5003
100.699
145.42
89.9845
54.4539
-41.385
-105.171
-58.9603
-67.893
-65.3122
-62.2302
-50.498
-71.8112
-50.4399
-53.8689
-65.0031
33.4068
77.4792
67.2563
58.4779
25.3627
-76.831
-76.8237
-78.3777
-55.7582
79.9139
111.06
47.6789
9.79753
-48.0378
-108.639
-135.366
-101.609
28.3263
99.703
79.5332
-23.7222
-66.9516
-123.137
-143.233
-31.3639
79.3827
61.2306
83.0284
132.843
61.7748
13.0886
-1.3046
58.7209
133.037
185.746
156.262
65.0903
-52.3907
-88.4245
-104.236
-125.368
7.98277
126.945
115.738
-34.8515
-128.334
-123.227
-110.756
-157.043
-248.858
-254.493
-107.861
-31.113
30.0217
79.5461
158.788
205.354
196.44
161.144
144.353
137.273
87.7016
-8.33662
-64.9274
-66.8962
-89.9759
-88.3597
-44.5128
-40.3354
42.6917
65.6275
21.1758
67.3853
62.5902
-40.2121
-127.354
-129.121
-119.488
-173.715
-164.323
-63.4986
-33.0768
44.5999
81.038
68.5848
73.0431
111.771
124.422
120.445
71.248
81.7658
64.5211
-46.6498
-106.151
-136.496
-159.918
-118.754
-14.0633
96.3793
148.348
114.552
46.9383
52.9035
105.34
139.515
71.5258
-61.8227
-155.73
-170.675
-232.83
-271.604
-125.969
98.5681
228.659
238.619
206.077
205.931
105.527
-17.2425
-83.6649
-125.957
-129.17
-110.216
-148.75
-144.431
-42.1076
47.5828
18.4339
33.54
116.923
148.953
75.7679
-51.3039
-173.236
-144.749
-35.497
-49.5761
-56.2058
3.54943
17.3688
46.2877
91.3763
29.5275
7.99772
74.2707
-2.39114
-91.7325
-49.181
3.93211
99.9762
173.727
80.5134
-37.837
3.75259
28.3206
-31.2905
-66.2624
-70.6847
-30.2522
57.3219
26.6555
-36.9306
-28.3327
-61.7291
-73.077
-59.358
-23.4891
88.0265
143.507
212.543
194.685
230.953
219.589
46.874
-163.654
-304.398
-405.616
-287.395
-131.892
-47.5473
13.2184
2.33159
31.1507
33.9689
22.5184
205.492
296.654
200.973
65.1589
-65.855
-118.974
-197.692
-275.519
-232.103
-80.9066
64.8409
223.582
135.326
-35.1837
-93.3553
-19.9074
133.571
172.967
201.916
111.032
47.0842
62.4613
28.5304
-33.3393
-158.863
-227.166
-141.173
-77.5765
-33.8966
6.33831
5.04302
-31.1053
15.0107
98.2558
151.239
102.776
-4.52202
-56.1109
-75.1284
-76.4079
-118.215
-134.362
-108.314
-2.50795
42.2444
55.6665
34.115
107.272
114.106
55.9594
50.8786
108.798
81.669
16.03
-13.3922
36.9914
58.5127
-20.3553
-50.1049
-31.9917
0.599084
-54.0653
-74.9291
-82.8934
-72.9982
-52.9014
-52.9494
-43.8853
36.3878
264.811
287.129
107.924
-5.11042
9.47605
-75.9414
-264.655
-361.346
-258.005
-119.668
-8.02236
-3.26722
-5.95588
43.2799
48.8942
119.706
156.12
132.816
100.484
44.6828
-79.8279
-106.838
-57.2844
51.3024
94.912
91.8242
96.3096
89.2485
56.1955
20.4121
-59.2941
-93.4799
-52.9236
-23.577
28.4035
-12.577
-45.8805
32.8138
49.3817
57.333
20.1192
12.0217
72.5228
69.6199
-33.2247
-139.737
-162.648
-105.208
-50.1452
14.127
46.0855
45.1622
31.0028
-15.8314
-44.6286
-42.9226
-41.0574
-103.284
-47.443
48.8831
24.6241
-3.36639
-63.7183
-92.9498
-33.3556
26.6296
153.279
203.435
162.03
69.9632
-10.6331
-38.4962
-34.9685
-84.7992
-10.4816
33.3099
58.5998
74.3321
35.494
-68.6219
-81.8459
-75.5629
-29.1863
-10.2374
-1.68197
10.0474
-52.8012
-120.032
-150.559
-167.979
-20.5101
182.985
205.669
220.114
159.524
134.711
85.9017
-14.2364
-108.86
-147.441
-119.105
-3.07698
60.2972
35.8908
80.6769
166.235
78.5322
-79.897
-19.6156
66.4117
-9.74442
-133.808
-198.682
-192.512
-203.238
-161.64
-71.6965
-56.4563
-20.1719
20.1529
28.9663
36.7533
23.8229
47.8364
63.0275
50.7668
88.5904
138.906
87.2985
34.9722
-14.7256
-81.3625
8.89671
61.6292
29.3101
20.5776
63.8735
180.959
195.372
91.4022
-12.3717
-23.1646
-32.7255
-42.5647
-97.6349
-142.905
-103.582
-27.7111
-69.3025
-47.2546
20.1661
20.2772
-19.7496
-11.2251
49.5179
49.3086
-83.3336
-263.26
-243.986
-106.642
29.1351
24.8096
43.5171
151.427
205.659
163.74
129.399
53.8967
0.980961
-54.8454
-36.8889
13.7816
21.6444
15.7692
48.2329
28.586
-24.0521
-11.2096
-48.6537
-75.3012
-72.953
-27.2359
91.157
61.1412
18.5192
6.67521
-27.3432
-46.1084
-79.3515
-138.286
-166.181
-120.389
-119.457
-102.286
-66.8281
30.139
184.147
301.606
271.671
145.048
118.387
79.7395
9.44553
-40.208
-84.2769
-104.192
-136.234
-53.3251
49.8476
68.142
46.9309
-16.0158
-11.3264
29.1077
-14.0179
-54.539
-3.09659
-25.1278
-37.4209
-11.195
-40.0894
-56.2101
-106.392
-145.744
-124.271
-25.7012
69.4701
71.1963
76.3784
231.62
334.763
317.168
220.718
98.4965
-36.1185
-132.395
-214.481
-243.11
-207.417
-81.5808
-9.29498
13.7259
14.4953
-74.0868
-143.392
-163.308
-137.885
-112.787
-85.0493
-137.868
-127.605
-74.4176
5.19384
105.302
158.633
151.444
111.051
89.02
122.712
179.264
176.863
148.745
87.7932
60.3118
24.4375
10.2064
117.916
118.436
74.0292
60.2896
-7.35421
-83.3413
-107.625
-146.085
-60.1669
21.6601
-17.5321
-67.2491
-122.194
-204.928
-191.669
-165.21
-102.464
18.186
66.157
85.2085
53.8997
61.7384
34.3601
-26.3423
-5.52812
63.4654
23.4418
25.0368
9.19542
-11.5771
4.98073
81.2267
75.0203
-0.201898
26.1388
46.3163
-16.0727
-99.2488
-103.754
-84.1473
-86.5411
-47.1397
-3.10632
68.3247
77.1617
-35.0729
6.45545
0.0811146
-19.7066
-16.6845
-22.0503
-30.6829
64.7444
184.663
120.919
101.168
70.2646
73.9916
116.056
15.7584
-80.3466
-74.9921
-39.6243
-59.8741
-131.081
-96.1368
-58.1449
-92.7202
-92.6707
-84.2441
-30.7886
41.5109
93.039
85.2363
56.6014
-24.463
-75.4574
-4.58251
56.5651
44.1539
47.7288
61.3653
22.4048
-15.8416
-43.7312
-71.5761
-35.8127
45.2659
51.4981
54.4431
78.2247
67.1687
3.60843
-108.956
-111.552
-97.821
-29.1962
-26.7988
-32.4128
47.9569
44.7446
19.2895
27.0839
64.5256
73.145
69.5902
35.5123
44.9186
38.1302
51.537
50.0024
2.0866
-43.7312
-40.2488
-70.9713
-76.4334
-93.6345
-100.574
-23.5822
24.6094
35.673
20.1914
-12.1745
-59.3665
-55.8372
-37.8679
-68.9892
-69.7668
9.16761
14.6698
10.1592
-20.2175
-36.1538
-10.7668
-3.22381
18.3439
184.227
244.191
76.1349
-66.4136
-54.3191
29.3672
75.1689
