-16.6982
-29.8783
-81.4954
-115.792
-111.92
-82.0532
-67.1383
-55.2042
-41.411
-10.4939
39.8594
99.7431
93.7077
73.6238
48.1008
-45.1491
-133.185
-113.161
-56.5716
9.92028
33.9596
58.2559
115.894
149.553
85.5317
26.6622
-45.7903
-71.8564
-79.5955
-97.7186
-128.153
-125.384
-92.1704
-83.0643
-74.1084
-19.9843
40.1118
77.5922
121.857
177.759
192.576
185.809
200.301
107.951
12.0648
-38.8454
-24.7312
8.02263
53.1849
56.4621
29.9947
-16.0674
-79.0738
-105.88
-99.0507
-108.939
-141.75
-110.88
-95.8977
-108.832
-91.284
-90.4277
-132.463
-85.6269
42.8969
86.2673
75.5358
46.2893
8.92173
5.43432
24.9462
1.47775
10.7107
113.107
193.617
159.981
123.843
143.562
135.052
38.3982
-78.7747
-161.028
-94.6192
-52.0124
-137.009
-211.566
-158.441
-48.3716
9.17658
23.3725
29.0719
71.9916
190.421
244.893
150.135
135.305
198.564
141.342
-27.534
-219.504
-298.268
-259.468
-261.219
-246.095
-105.917
154.619
342.272
393.374
321.723
149.569
-109.608
-215.647
-288.356
-335.428
-171.304
-123.591
-245.767
-240.833
-58.5699
139.844
198.773
173.871
140.262
120.136
98.9418
3.53007
-91.0071
-93.9553
-70.6083
19.4329
174.44
187.093
128.133
84.6749
46.2867
58.1843
91.6451
46.7057
-48.9361
-39.0358
140.99
294.145
213.725
-5.48521
13.6588
5.88736
-117.964
-205.673
-204.736
-160.804
-79.5153
-76.1143
-139.114
-189.156
-198.198
-174.46
-122.302
-47.5696
52.8404
129.599
143.364
15.4735
-92.4305
4.40182
69.2219
83.0004
101.439
16.7072
-146.81
-275.911
-281.544
-209.146
14.9831
156.803
85.7906
62.0245
132.589
125.569
187.646
244.206
268.181
326.49
432.257
564.777
323.668
-165.806
-504.361
-476.933
-73.7626
428.383
526.317
421.257
201.849
-198.69
-407.822
-488.141
-503.296
-482.256
-506.036
-392.673
-222.952
-130.47
-187.617
-388.387
-403.652
-99.9649
228.296
380.935
319.334
137.819
126.843
130.332
111.918
239.799
306.259
306.775
188.493
108.994
123.93
173.56
162.359
46.084
-37.246
-117.948
-118.59
-70.9913
-118.05
-212.171
-312.097
-344.135
-79.5068
219.903
310.614
273.017
162.391
170.25
186.267
152.537
90.1293
-70.3648
-288.474
-423.197
-355.297
-167.929
-46.9848
42.946
140.552
187.026
249.613
141.316
-107.108
-181.131
-227.739
-181.202
-55.3464
10.6091
50.4885
20.4118
-78.0346
-117.858
-48.0481
49.346
162.038
240.731
27.1955
-37.0379
134.698
136.522
81.8337
37.0338
-126.135
-339.741
-356.826
-232.387
-68.3445
94.7082
204.012
145.309
136.734
171.796
90.4399
84.5782
226.552
290.302
266.7
108.726
-141.571
-287.554
-370.105
-366.57
-263.888
-115.792
-80.3297
-77.8808
81.3219
110.911
152.951
380.753
292.064
39.0957
70.0991
13.9944
-318.858
-528.404
-245.701
-103.824
-74.0426
-54.3793
-53.1009
111.527
286.828
315.099
453.59
447.412
96.7008
-56.6991
-47.7323
-136.876
-146.194
85.9593
201.177
231.625
229.815
6.59959
-342.497
-289.304
-188.563
-76.9713
29.3061
50.4499
-102.249
-151.604
-159.074
-109.338
32.3977
102.804
-126.11
-347.026
-363.711
-377.178
-441.108
-313.065
-51.8931
309.916
498.197
326.688
227.447
128.406
86.7268
73.4514
143.441
314.22
334.122
57.1002
-52.9035
-134.125
-168.739
-57.7283
191.062
253.15
191.382
232.064
247.134
93.9344
42.6131
20.4554
-114.866
-159.324
-192.969
-199.247
-85.5072
-142.877
-137.62
131.667
133.027
-65.1893
-129.861
32.0774
-84.697
-333.601
-259.726
-262.495
-346.516
-289.308
-243.282
-84.1694
259.12
384.479
231.92
150.696
-10.0788
-166.628
-80.1606
72.3581
166.878
199.563
70.2532
-36.5517
99.3017
61.9529
-60.0343
74.4534
298.102
394.003
386.434
163.323
-252.171
-380.237
-262.051
-116.081
108.474
199.527
81.4834
-114.536
-190.246
-90.7794
-14.2356
-57.3506
-117.424
-33.903
-17.2814
-37.9079
-42.4785
11.692
80.3124
271.091
266.883
129.939
152.635
74.4765
-128.999
-193.555
-262.384
-244.625
-147.306
-235.397
-140.661
43.3771
0.101308
20.6679
20.5226
-69.168
-168.637
-147.381
80.2515
120.629
114.902
102.841
284.332
423.589
164.281
-76.0586
-273.327
-172.636
-18.0498
14.3569
5.00112
-109.787
-42.4257
185.709
305.919
217.69
129.836
91.3656
21.8391
66.8326
-111.981
-298.205
-436.24
-395.329
24.9319
218.203
315.024
223.902
235.882
275.162
155.24
20.7529
-84.7386
-320.876
-434.362
-246.927
-54.4616
-20.6435
-384.081
-645.327
-267.076
284.834
400.024
328.733
239.99
59.5107
-90.9305
-67.3019
-40.323
-11.435
69.4701
110.194
11.5635
-37.2085
41.3764
126.976
46.0905
-76.2948
290.509
562.343
348.188
1.06381
-232.049
-400.917
-543.643
-381.469
37.7628
202.363
8.44545
-27.4533
99.1251
118.661
214.061
323.493
293.683
46.1899
-160.088
-204.321
-330.865
-474.02
-435.808
-315.485
-104.3
105.648
198.409
218.473
401.327
509.023
221.978
-51.3255
-135.588
-179.979
-252.424
-171.255
-73.068
-66.9071
-53.0539
51.4487
197.297
302.897
371.774
401.301
336.25
44.9877
-196.715
-275.8
-534.533
-644.375
-389.134
-176.96
-5.01408
114.33
120.533
23.6424
137.106
378.624
473.444
199.651
-68.1015
-148.834
-34.4399
123.569
150.064
167.425
6.9659
-260.512
-266.323
-319.99
-209.409
2.05288
-10.0042
-60.4409
39.6951
201
262.403
149.325
-29.1101
-28.2443
-9.11533
-134.078
-141.972
-106.943
-126.154
-95.7836
-6.34138
345.559
381.288
219.111
14.3108
-119.73
-132.138
-64.3425
19.4697
75.6901
-9.93066
-156.875
-287.622
-311.226
-91.9936
154.456
99.7106
-28.5684
-29.8745
81.6954
155.658
47.8746
74.5793
217.164
217.992
66.1994
-31.4273
15.2129
26.4403
-15.6736
-111.176
-29.8877
112.518
135.227
24.7617
-96.1415
-177.571
-235.393
-218.253
-259.909
-139.203
270.917
278.504
-77.5994
-148.296
107.291
280.674
185.222
93.84
-16.2073
-284.459
-469.165
-355.858
-148.585
-101.631
-8.00501
156.254
201.334
122.238
115.837
212.263
-8.28017
-326.822
-263.101
-77.7143
162.584
282.237
460.601
389.819
133.248
258.37
166.954
-36.1244
-93.6665
-140.23
-116.345
-22.9438
109.711
89.7708
-144.373
-287.737
-298.444
-162.512
-120.81
77.5683
-20.59
-168.601
-235.336
-123.313
-75.1699
-66.7208
136.048
179.627
169.647
198.578
124.439
-57.8018
-250.944
-252.471
-127.25
70.1244
442.36
512.346
232.157
52.7698
-22.7646
-170.588
-226.32
-189.448
-92.6298
-51.0546
-90.0362
-52.0382
76.9725
195.047
158.908
86.3405
52.052
-7.39558
-31.81
-140.615
-453.494
-418.371
61.2331
390.835
360.931
144.613
96.5804
44.381
54.1698
6.00079
41.9271
175.768
-10.057
-301.747
-252.418
-80.1636
-63.3095
-59.9395
-2.45364
-11.2926
-94.6048
-92.4373
-104.419
-218.641
-64.3679
254.859
76.0429
-111.578
-119.735
-172.159
-178.627
17.7125
361.591
568.928
516.08
392.769
354.137
73.04
-239.504
-238.554
-31.7295
51.4587
-75.5187
-206.186
-339.608
-405.196
-134.33
186.933
301.133
184.428
-93.3853
-443.155
-485.437
-229.724
-147.816
-132.84
-38.412
166.78
423.035
257.573
-1.12439
-101.124
-181.768
-273.457
-119.856
288.517
748.271
771.539
322.592
107.793
223.395
204.674
11.084
-233.049
-247.171
-241.592
-308.528
-205.427
-237.621
-178.345
-163.499
-156.71
121.351
265.966
149.548
-39.1998
-313.778
-459.136
-428.659
-195.122
-14.4734
153.765
206.211
-71.6626
-186.632
-134.638
-72.3982
-3.30909
67.7916
265.895
626.064
768.925
531.685
409.349
536.305
302.672
-232.378
-493.576
-359.505
-296.732
-295.053
-266.119
-333.232
-193.046
-84.5201
79.267
246.892
235.55
284.092
297.464
-63.89
-315.551
-308.77
-359.824
-419.555
-267.918
-134.34
31.0068
304.48
231.643
-104.433
-96.9988
111.357
139.539
235.395
472.216
413.619
165.068
128.075
40.1702
-227.866
-397.512
-347.621
-247.502
-193.286
150.998
513.69
322.88
82.1165
6.77313
11.5926
-95.885
-176.276
-114.948
-87.3546
-135.693
-131.814
-6.73845
-114.871
-271.661
-120.484
78.8569
144.671
109.151
-19.1825
-275.033
-369.304
-20.131
90.4253
-11.4875
80.3913
235.035
371.298
425.251
230.79
-78.6333
-152.283
-239.353
-214.396
4.61274
231.373
492.021
398.011
84.9954
-10.7774
22.4676
90.5585
-56.4186
-52.6865
80.2432
80.4615
-114.382
-315.578
-400.239
-353.455
-238.275
-201.314
-82.4145
-89.4584
-29.584
38.949
-28.9867
-44.1488
-4.51355
-13.6838
-77.8548
-184.017
13.8334
62.6164
65.5345
338.112
432.026
188.132
-63.3486
74.496
317.774
276.939
82.9599
-28.7044
-19.0933
-89.5514
-236.237
-195.077
-56.2003
-19.8792
-67.942
-30.7451
14.5413
-5.54655
8.00947
-59.812
-120.724
-8.95913
213.225
227.863
-51.155
-230.248
-123.224
10.9857
-137.39
-140.118
86.1491
207.619
127.628
168.072
141.866
67.5311
-72.4559
-10.3054
240.191
88.6848
-262.397
-341.221
-231.236
-305.059
-279.333
-225.529
-107.603
44.5684
121.232
226.45
227.65
176.871
211.086
389.548
465.902
208.327
-9.31706
-147.882
-384.258
-549.66
-284.135
69.3987
212.246
159.267
83.2667
133.918
60.4417
-46.8133
-138.557
-213.165
-166.312
-80.9578
-42.3181
-172.126
-118.547
167.636
205.97
140.738
-58.7963
-43.1201
111.271
173.637
207.773
273.042
227.599
69.1257
-53.5744
-187.16
-165.031
-183.273
-274.128
-192.467
6.95846
47.7373
-127.693
-234.823
-154.515
-4.31419
148.238
304.074
307.994
54.7197
-150.947
-216.761
-260.086
23.4981
601.441
900.521
449.564
61.269
-80.9364
-243.986
-354.804
-433.908
-410.425
-318.703
-193.812
-90.6162
-14.8066
-39.1642
-87.2199
-9.02105
16.5593
-12.9802
-78.4
88.083
194.972
-91.701
-288.845
-86.9965
274.367
302.854
158.188
90.1234
230.327
309.258
222.373
118.41
161.827
46.7546
-157.565
-164.327
-78.1716
109.534
297.783
145.93
-297.113
-345.095
-110.802
-62.7471
-215.723
-201.551
-12.5938
-5.57524
-207.331
-196.44
86.8892
329.951
220.611
13.2094
-68.5764
-107.536
-2.03403
152.984
186.23
-88.8952
-398.621
-270.254
-12.6593
31.0534
-124.157
-74.1455
72.008
149.539
214.812
234.504
197.198
-78.7713
-7.48764
217.061
275.395
195.688
-4.63246
-121.148
-146.978
-194.812
-206.415
-167.14
-11.9398
12.4117
-19.3211
-29.0568
-117.876
-131.04
84.4946
216.14
75.5003
-38.1196
36.1824
90.2418
76.8611
194.154
170.551
-212.185
-547.063
-382.928
-72.36
192.082
382.505
372.365
195.293
22.6389
-96.5713
-219.418
-132.092
-93.8058
-261.985
-216.032
-99.3994
227.763
422.252
292.457
240.616
91.6316
-8.39332
-68.1623
-80.0332
-141.376
-199.069
-153.769
-6.54728
19.6625
-8.81379
0.761231
-128.169
-239.68
-171.308
-51.9698
-68.7048
-294.731
-197.246
255.312
519.155
538.918
467.401
188.02
-47.413
-110.56
-194.026
-275.468
-157.395
54.5631
5.00774
-34.4296
-26.0287
-6.52204
109.741
180.893
66.5541
-19.52
-37.3318
-359.333
-535.763
-231.531
41.0955
304.051
412.839
304.462
82.8329
-82.6002
-80.4598
-7.16524
245.037
358.207
125.168
-88.4622
-215.059
-424.532
-393.641
-115.073
14.6878
-177.418
-276.157
-65.5835
331.166
293.156
49.2343
-108.426
-94.7636
4.53135
-11.6929
-48.7271
-50.0274
11.6634
87.1733
152.858
188.102
228.866
254.211
286.708
30.4428
-351.782
-352.812
-88.2663
2.46246
99.8516
546.331
756.409
152.546
-251.926
-327.9
-295.143
-257.193
-230.416
-134.505
-165.84
-185.604
-34.1308
61.3354
-87.663
-162.243
217.974
241.193
-98.1771
-361.922
-361.198
-432.373
-323.963
168.336
397.436
360.179
334.23
289.947
133.06
49.8274
134.871
195.75
133.85
92.4458
-18.5327
-41.6104
101.417
142.417
68.0705
-145.465
-250.516
-213.805
-195.339
78.8935
173.112
208.444
176.654
106.031
-68.135
-270.783
-139.164
71.0922
55.0142
-215.177
-324.245
-31.9158
84.0902
-95.9681
-276.548
-170.353
-35.0931
2.94237
-38.129
-95.1548
-20.9373
-61.7317
-133.883
-111.314
34.8306
145.854
17.8785
-151.189
-94.1829
81.9152
229.178
182.791
89.5959
327.594
582.672
504.389
345.222
283.473
167.548
-65.7921
-94.4204
-196.443
-278.098
-223.629
-145.277
-59.4445
-22.2386
16.6474
-99.022
-173.62
-202.868
-335.762
-193.67
-7.29681
-14.4399
-13.4227
65.0387
-90.1615
-203.255
-49.0827
99.367
242.284
284.239
250.039
14.3002
-137.667
-123.617
-77.2715
-16.5836
50.8299
85.4604
51.3503
-112.43
-231.214
-182.355
-161.942
3.95839
312.868
367.948
301.563
85.8721
-100.489
-162.617
-211.924
-47.9127
188.58
246.269
9.4564
-87.1035
38.7848
14.6236
40.3173
98.6631
-9.60561
-70.3441
-45.5054
-162.601
-266.032
-275.773
-195.663
-165.016
-142.995
-30.9443
106.216
415.912
536.315
229.186
107.893
14.1522
-63.7965
7.81922
83.5716
64.9154
-17.8935
-123.661
-167.942
-184.476
-241.305
-201.876
-22.3912
315.175
300.791
89.6884
-13.8375
-214.679
-332.093
-264.631
-121.7
134.702
102.006
54.6572
144.802
220.215
217.307
141.043
217.745
146.992
-110.415
-177.425
-242.892
-420.54
-300.786
-90.0173
32.7317
65.5115
136.483
361.341
422.653
259.926
62.0296
-98.6865
-167.777
-126.439
-281.927
-455.238
-336.77
-275.762
-165.98
119.826
492.121
548.062
267.314
171.381
-3.40064
-2.70931
112.081
16.0926
-121.545
-142.839
-51.7694
-64.4344
-144.155
-199.52
-61.3407
132.209
117.585
230.344
364.06
139.306
-217.542
-391.879
-359.715
-221.876
-13.1677
-15.0017
-163.016
44.9591
67.0914
-213.946
-79.4906
146.297
32.7351
-30.8341
217.819
334.053
194.831
123.857
78.996
39.8088
48.8995
213.028
264.776
52.2808
-99.1538
-136.374
-214.484
-408.096
-299.218
173.829
314.44
156.891
82.7143
13.9216
-114.278
-140.266
-135.653
-139.403
-127.851
-57.6691
-87.8346
-120.036
30.756
87.3104
97.4139
-14.4429
-1.85309
205.517
145.082
-36.3302
-77.6229
102.414
165.319
169.233
52.0376
-209.234
-375.379
-324.322
-223.801
35.1071
75.4623
-81.4408
-9.41181
49.3764
89.9176
159.447
115.589
96.2541
229.305
119.826
-127.187
-168.346
-80.6586
-85.7723
77.0105
320.36
399.398
352.435
179.675
-70.3519
-181.385
-156.06
-159.139
-189.863
-221.141
-132.537
-63.4487
-161.403
-74.1418
130.748
36.8439
-78.8923
113.035
233.135
101.631
-50.4579
-317.291
-463.113
-311.142
-180.566
38.0776
224.304
269.022
201.949
180.94
232.319
131.026
-43.659
-104.795
102.896
248.669
83.987
0.454415
4.56029
-13.5178
7.65646
55.7098
46.0221
58.1493
108.427
59.5916
-167.376
-274.078
-201.533
-131.213
-200.564
-325.064
-277.303
-125.111
-69.8798
75.0744
330.863
315.546
172.285
-26.2696
-95.2965
59.3743
113.702
-3.41999
-83.5272
8.84004
38.021
-82.1769
-83.682
-24.8041
154.155
341.817
254.562
-0.977859
-99.6001
-232.149
-302.028
-113.569
147.002
333.483
265.114
161.251
32.1743
-44.1554
-105.89
-196.765
-104.973
21.5943
66.5757
-6.79359
-154.497
-208.257
-194.477
-125.225
-151.225
-171.432
-73.797
77.5146
88.2922
-181.493
-147.326
200.562
402.002
324.624
122.033
7.9554
32.6119
26.1956
57.1763
-12.6617
-190.839
-231.624
0.69279
205.183
187.279
273.857
355.16
63.0498
-238.963
-180.122
-90.1472
-107.943
-85.5668
-115.693
-127.451
-135.852
-96.2829
4.5975
139.156
253.891
248.117
103.164
-28.4446
-160.845
-169.273
-108.947
-93.2074
-70.7098
-24.9693
-48.0015
-128.74
-160.776
-132.309
-69.6508
-6.7957
47.014
80.8719
152.126
43.0029
-91.937
-0.17419
210.149
279.038
324.015
303.518
288.65
143.541
-110.943
-234.872
-190.788
-143.379
-228.882
-191.747
24.0841
133.614
191.191
166.373
60.5446
-227.943
-293.37
-165.554
-79.8886
-35.9818
-116.895
-240.337
-268.544
-221.53
-92.3202
92.2704
543.539
862.373
467.028
77.5737
-36.9957
-68.3203
-63.3313
-9.90926
-19.3578
92.8628
106.372
-111.275
-294.789
-330.146
-351.105
-266.107
-197.672
-96.1607
142.892
282.958
214.872
52.6015
166.445
70.4102
-95.3757
-65.3905
-146.314
-295.439
-210.196
142.799
431.346
309.426
68.0392
-179.388
-100.36
51.4694
26.327
-31.1676
46.3184
149.619
225.541
144.212
30.4415
42.0356
42.5764
-45.8489
-98.2091
-80.4354
-208.576
-361.463
-355.078
-133.189
105.97
244.541
166.002
37.214
-90.1962
-86.2462
-47.3507
-129.115
-137.876
-4.68524
43.5681
5.28009
-3.83355
-8.05489
65.9384
121.028
143.853
118.337
6.79852
74.4356
165.96
43.4805
20.916
137.844
201.027
199.659
69.3357
-84.9405
-335.725
-572.058
-327.158
71.1234
332.049
483.155
338.584
77.4731
-110.333
-229.698
-224.328
-117.637
-48.2926
87.4395
-22.0501
-190.757
-103.627
-75.3362
-65.3767
57.1521
172.144
0.859634
-263.672
-288.955
-293.583
-343.365
-301.547
-14.5061
324.788
411.193
312.97
212.739
141.474
17.2555
-33.0569
51.9271
89.1786
151.286
253.395
88.7698
-322.948
-201.345
155.015
235.815
413.249
738.773
476.189
-53.5458
-330.873
-380.217
-335.379
-276.909
-204.116
-128.515
-38.0776
-26.7876
-60.0481
-133.725
-319.335
-450.086
-282.497
-84.1877
30.1643
-21.9254
-120.316
-158.36
-51.3449
105.958
149.715
225.724
258.561
122.864
36.563
92.4782
154.383
132.271
150.354
105.762
62.3861
226.153
367.858
472.854
380.825
223.235
-102.17
-452.74
-447.43
-332.341
-178.642
27.9954
-26.1093
-75.0061
2.94906
80.9519
179.166
92.6221
-153.436
-279.547
-262.812
-247.175
-208.412
-177.72
-34.3159
23.0584
89.0625
119.534
158.837
92.7627
-108.369
-207.652
-30.1101
89.3201
58.498
-2.78529
-86.598
-99.0135
-30.0181
55.2749
149.325
302.845
268.645
63.9422
-6.70905
31.9638
157.023
25.152
-118.724
-55.756
101.328
27.0565
-25.4805
238.502
260.982
-7.69391
-109.168
5.47011
-2.45103
-51.088
-34.8319
33.2206
206.566
8.37894
-246.524
-178.835
-278.284
-278.357
-14.3276
173.781
-37.4736
-233.331
-288.742
-365.39
-264.37
-23.4793
77.4144
86.118
197.696
255.431
223.921
166.175
95.9758
52.3429
23.9709
-75.7529
-142.453
-12.6793
110.237
100.14
55.3296
-4.36886
61.3077
132.397
94.602
109.902
132.416
40.3067
9.30415
4.22368
-165.607
-333.707
-252.404
-83.2334
-57.2639
129.386
255.197
287.213
2.61417
93.8048
407.078
226.822
-62.5061
-246.338
-279.994
-251.387
-240.209
-189.827
-124.872
-53.3042
49.6391
133.97
-10.1899
-271.87
-299.867
-246.087
-124.09
-84.3533
100.238
170.369
188.53
313.608
302.351
251.084
130.447
-11.0012
9.99331
25.0416
-35.2818
-66.6718
-81.212
-100.911
-46.0461
186.777
326.744
238.976
165.285
10.8211
-102.542
-204.688
-311.227
-252.567
-181.201
-143.594
-11.2611
53.5813
-32.0719
27.037
166.46
145.252
51.5698
-27.7372
-94.6929
-0.72282
89.976
60.1993
20.1078
-86.5529
-156.66
-115.901
5.26905
160.108
262.64
340.393
65.6856
-196.169
-225.937
-243.74
-213.817
-24.1208
167.182
231.884
193.222
101.981
-31.7814
-185.357
-253.749
-91.8388
-2.37506
-149.515
-215.811
-142.923
-68.6064
-32.955
161.483
263.187
157.82
-31.5938
-130.625
-107.191
-53.0914
112.643
335.08
326.507
75.6007
-3.95591
72.2479
-95.3091
-187.004
-60.9766
168.196
223.214
32.8024
-115.189
-114.661
0.967623
210.177
400.327
367.793
84.222
-122.321
-256.98
-395.912
-349.16
-201.338
-114.965
-140.252
-11.9453
54.7263
-59.7342
-246.972
-253.984
-129.207
-191.554
-175.704
-16.0693
137.876
175.123
227.909
525.508
389.665
111.224
33.6851
-8.34518
-140.766
-78.2472
-96.535
-55.6355
95.2362
104.234
69.6154
131.587
201.331
175.303
20.1272
-94.2373
-173.8
-188.972
-115.771
-92.044
8.86322
-6.14746
-59.033
-92.5301
143.511
174.785
-14.5578
-69.5084
-51.4788
-102.383
-130.705
6.56189
-23.1174
-43.4822
102.373
87.7342
-102.861
-132.419
55.1657
18.4802
-5.28316
-24.4879
-212.89
-298.441
-219.134
-67.0398
218.879
557.4
540.536
250.383
104.596
-140.128
-212.368
-86.1609
23.5362
243.04
507.217
470.461
-25.9337
-397.66
-409.872
-357.148
-274.287
-84.8721
110.146
111.882
-128.844
-398.087
-294.686
-41.8225
42.1903
-10.289
-147.376
-185.171
-146.663
-88.0969
-66.5115
13.7414
335.183
574.526
483.673
300.753
189.755
119.746
-67.4517
-194.03
-78.3008
-28.4631
-43.5195
100.122
248.713
306.414
285.532
58.8868
-98.2374
-205.649
-297.517
-330.598
-386.275
-407.275
-279.742
-84.2056
7.34079
24.2122
3.60553
30.7755
151.871
211.103
215.817
213.371
7.18547
-227.73
-234.801
7.83969
31.0682
-79.3257
138.906
293.552
282.831
213.422
102.548
110.335
138.221
178.551
39.7765
-90.4665
-198.538
-303.557
-340.746
-236.54
-150.721
-188.236
-125.106
-107.059
20.5587
93.2618
-34.7188
-120.234
-139.622
-45.9986
119.505
173.452
145.553
131.922
207.899
220.577
186.189
75.4423
47.4877
44.8889
42.465
76.4553
142.225
132.055
69.619
37.2517
-137.946
-164.82
-39.8402
-119.683
-277.206
-259.06
-200.673
-313.386
-274.704
-101.628
63.1181
326.087
447.813
96.3512
-218.016
-52.5643
60.0994
117.082
134.171
82.5895
116.795
32.73
-30.4743
-38.9511
-123.678
-115.767
-25.3577
107.927
118.426
6.33142
-141.222
-208.061
-171.917
23.4369
213.645
144.41
33.8464
-28.1173
-64.1677
-16.4871
24.5154
91.7571
-29.2669
-44.9383
152.043
201.808
98.0278
-6.94256
-138.884
-128.549
-31.4442
-50.7035
-119.772
-134.258
-85.8774
-42.7883
-67.4632
-107.993
13.5467
158.735
-60.2099
-160.106
4.28916
302.673
512.412
307.853
107.848
-1.77026
-20.1804
-55.3064
-91.9616
-187.325
-268.795
-235.907
-136.06
-13.1057
11.5926
5.27812
60.4298
199.142
273.75
29.3684
-114.413
-239.225
-323.604
-273.374
-98.2671
117.449
179.538
162.082
214.962
312.171
159.287
-47.3402
-26.7138
28.0702
113.936
75.9747
-55.1549
-257.767
-235.355
-3.17104
74.8542
-31.2185
-65.2079
-28.1231
-53.5286
-43.3579
14.7681
74.9875
26.9803
-51.0206
-2.3951
110.386
90.5741
-21.8936
-50.0379
35.6089
41.9301
-108.142
-27.9937
140.171
109.468
68.097
-69.0211
-91.0385
-18.0934
37.5995
29.7179
-30.1371
-92.9151
-141.545
-121.035
-38.4259
2.37878
99.3685
105.321
-5.17135
-2.49328
61.5303
-12.7763
-148.216
-200.23
-144.266
-24.2289
116.684
163.18
113.417
163.544
242.268
134.73
-56.1338
-63.2353
-66.3366
-66.1737
-143.364
-167.269
-80.951
-28.7514
70.449
230.935
274.962
146.586
-111.822
-157.357
-97.1433
-17.8011
89.7109
46.7695
-76.9609
-56.7924
12.5741
50.5406
81.8154
14.4579
-164.324
-225.993
-148.45
-158.072
-127.307
38.2697
475.644
556.557
286.748
137.326
17.1379
-164.815
-397.569
-378.882
-200.894
-123.19
29.1477
112.038
94.4709
-114.407
-173.621
-97.6741
48.1384
53.1922
-8.20996
-90.0345
-277.111
-256.918
30.7789
87.8761
57.9899
157.52
312.54
365.284
289.22
254.799
146.112
37.5269
-11.6735
102.284
180.101
152.67
101.538
39.5622
7.42524
-130.205
-231.19
-230.892
-284.341
-392.003
-403.599
-233.024
-35.6355
-16.7951
-78.3967
-48.2894
-68.3831
-99.1789
-64.421
122.245
377.378
425.081
158.736
-149.169
-252.527
-32.1985
74.3727
-5.50084
96.1727
229.282
222.993
45.8029
-90.7229
-56.1952
197.303
273.573
226.157
85.7332
-33.0259
-126.847
-236.769
-256.725
-201.491
-28.8911
80.4405
-60.7846
-312.098
-317.066
-68.4455
75.4167
140.942
177.041
149.223
61.5742
-86.8783
-123.613
-69.4414
13.1891
136.543
88.9303
2.54884
-60.8247
-109.13
-0.484916
-24.9622
-137.693
13.5394
429.794
631.19
632.257
245.313
-125.236
-269.47
-250.9
-267.412
-259.746
-224.171
-207.446
-191.359
-122.954
-80.909
-0.331788
117.287
29.3687
-131.937
-19.706
67.9715
-48.5395
-251.296
-337.037
-19.5395
177.419
160.068
175.859
129.361
126.939
110.887
261.563
305.22
56.9363
-67.7946
-47.2803
28.8833
118.097
196.095
148.781
32.4612
-119.088
-233.387
-178.678
-155.748
-112.745
-63.2043
-45.4608
39.2658
7.00733
120.758
133.287
-80.2637
-41.0552
9.89037
-75.9684
-115.569
-94.8647
-24.7653
-36.1452
-37.8474
17.9955
63.6781
-50.0477
-51.6408
97.9397
160.078
140.834
137.599
63.1786
-142.738
-294.823
-258.704
-249.122
-139.629
26.8942
35.8341
78.2008
158.71
142.732
62.6927
-6.18884
80.639
295.341
220.194
203.874
170.399
13.3108
-120.305
-115.791
-112.834
-159.408
-103.521
44.6615
153.808
91.5162
-8.50742
-46.7314
-204.465
-308.678
-282.483
-233.146
-99.1531
276.46
558.675
215.382
-46.1783
5.04261
-66.1619
-221.268
-160.319
-6.18794
85.292
55.2209
-19.9642
21.7936
53.764
44.9596
116.091
177.788
129.767
10.4527
-171.959
-424.406
-453.519
-187.046
118.391
203.807
122.981
192.924
139.546
-27.0276
57.6814
104.758
51.9358
101.93
195.013
12.047
-85.5981
-73.3124
-59.2632
8.36766
-34.8797
-147.465
-143.774
-83.8289
-69.5096
-23.0128
100.16
233.153
159.125
44.3784
-160.1
-217.618
-309.006
-467.52
-386.372
-25.4741
400.142
479.373
370.106
288.799
237.877
128.329
-52.9856
-138.279
-154.22
-158.668
-227.449
-331.195
-225.994
9.71972
218.118
430.366
514.086
344.3
307.875
177.427
-181.74
-367.782
-307.77
-226.944
-208.531
-221.57
-217.093
-185.54
-131.368
-58.494
28.7645
79.425
95.7169
123.565
109.299
54.1932
82.8547
53.1482
-167.227
-253.379
-45.6984
82.4118
4.7178
82.5227
89.6944
-64.4172
-6.80786
239.07
370.21
308.445
263.967
425.525
358.244
-26.4849
-275.708
-319.628
-310.36
-197.431
-183.069
-179.406
-225.098
-183.946
7.764
59.8902
41.4877
85.5444
9.41673
-133.781
-211.007
-256.273
-162.364
-87.6791
34.392
163.439
206.568
158.361
55.5908
108.934
247.496
271.37
132.752
22.4845
-44.3197
-80.223
-37.3043
7.37591
63.2371
36.6281
-25.7432
-32.8976
-41.9463
-53.98
-40.0404
-2.99251
-3.62108
30.9742
165.544
85.637
-215.366
-301.033
-273.904
-253.514
-92.9893
159.066
186.634
73.991
113.016
115.923
28.4508
17.5364
8.37448
-43.9795
54.8514
133.358
100.808
30.5287
-194.626
-315.342
-181.641
-144.872
-32.3265
112.71
220.625
279.916
292.722
200.316
-42.1561
-28.814
119.635
175.909
80.4994
-130.593
-430.835
-629.453
-519.934
-356.994
-64.1463
283.159
446.405
362.664
222.431
260.686
155.324
-150.52
-236.414
-81.262
172.936
313.09
157.623
-109.647
-225.725
-197.913
-94.9982
47.1955
103.265
43.6651
-25.9784
-46.3932
-29.2103
36.5261
8.43075
-58.491
-118.878
-161.167
-109.023
-19.9717
-32.4229
-38.5538
33.9047
114.063
138.862
58.1518
22.9179
90.2378
81.3041
192
282.2
56.6949
-141.104
-53.3667
19.0468
-272.24
-462.032
-348.962
-179.559
2.1113
126.994
47.263
76.3127
169.168
124.562
104.743
140.353
38.2083
-75.9653
86.3874
232.529
64.5269
-89.6243
-144.201
-3.91262
115.994
88.8326
166.142
277.905
41.367
-262.693
-273.274
-268.656
-231.762
-89.7825
-10.8634
49.0474
119.173
137.739
-59.7856
-196.334
-8.56864
105.142
58.7988
-62.9604
-71.5278
-39.3635
-10.1739
39.9537
138.244
230.361
158.907
18.4551
-61.3674
-20.3203
-59.6607
-56.6016
110.324
219.692
57.4192
-28.0721
1.65145
-164.211
-174.496
-213.926
-120.051
206.113
152.917
-69.9697
-134.961
-106.776
-88.4305
-44.3366
-37.6077
-29.5713
67.4031
54.71
-21.4601
66.8509
133.824
-56.0735
-122.827
26.7147
43.8913
33.6885
34.3473
-55.8532
-77.7993
-56.1576
125.184
215.28
184.228
273.706
179.127
-19.8591
-78.4475
-121.162
-160.52
-138.581
-172.524
-183.029
-39.4487
84.6104
215.766
367.669
367.97
101.561
-70.6333
-198.541
-261.625
-240.718
-298.949
-289.555
-149.22
-2.60012
12.7584
22.4106
53.9257
-37.5489
-108.132
11.5049
202.372
255.909
220.956
223.911
274.53
178.247
-47.3974
-192.228
-190.405
-180.315
-163.192
-230.899
-208.417
-115.565
75.8446
256.821
325.347
245.228
132.852
31.0086
-45.587
-159.924
-228.151
-142.862
25.7224
43.0897
50.6113
137.218
-13.2936
-193.697
9.08403
163.562
163.766
205.875
146.467
-40.2795
-179.2
-185.736
-60.0061
-12.9953
-89.9327
-31.7066
24.87
-111.982
-266.812
-224.017
-61.7171
54.0023
123.952
137.101
74.045
47.9267
51.1175
6.45406
-30.4112
10.0193
33.327
115.435
182.485
173.388
58.8123
117.262
158.673
-76.631
-195.353
-38.3479
67.8834
11.1502
-91.2926
-118.465
-141.207
-138.972
-81.657
-36.3467
-8.9157
44.9797
51.5538
-61.4839
-111.783
-142.215
-201.006
-223.209
-204.3
2.97384
250.502
476.653
455.305
110.331
-7.22887
38.1342
15.6783
25.9471
72.4868
90.4708
1.64112
-72.9816
-40.8847
25.2009
-80.8671
-149.138
-43.2716
-6.68757
-52.8823
90.5946
108.828
-262.052
-362.919
-110.597
-32.189
-48.7056
-77.6858
7.82844
187.301
339.205
502.93
402.085
49.5637
-194.422
-266.316
-173.218
-63.1678
32.7295
81.651
-121.722
-373.228
-323.633
-156.343
25.6002
187.952
315.943
334.644
155.906
-83.1256
-166.275
-223.976
-174.376
-67.1865
-37.0504
-7.34334
5.03103
46.1305
12.269
-90.3632
-67.1845
57.9606
206.215
236.658
286.155
313.48
257.098
160.78
-61.4608
-203.339
-266.054
-282.54
-199.855
-99.7454
-73.5419
-6.15267
166.097
141.313
32.2531
1.76537
-17.0375
-40.7128
-24.2825
-68.5705
-123.024
-123.464
-90.0831
-36.2279
132.769
225.604
118.913
12.4783
-2.32932
32.4998
-8.2714
-116.385
-213.415
-145.788
101.918
138.136
-83.1587
-141.166
-59.3457
100.468
236.983
131.285
42.1878
88.5556
105.481
88.479
71.8748
-91.1358
-133.526
-43.919
57.0482
147.886
96.6318
-3.84055
-193.857
-286.529
-263.102
-207.434
-140.98
-110.951
-107.438
133.272
292.36
7.99362
-137.971
-39.923
5.33191
67.5859
97.8674
119.989
155.79
150.026
100.342
-37.3974
-255.667
-240.574
78.8051
304.297
488.985
556.442
361.188
6.33838
-377.596
-488.158
-314.869
-95.1932
244.774
425.535
180.543
-93.7103
-186.351
-242.702
-316.356
-246.931
-14.6826
138.211
78.7833
-99.4606
-360.328
-548.161
-501.781
-235.715
137.165
405.478
268.035
-114.357
-352.414
-266.693
-8.498
203.232
375.712
458.384
412.602
375.947
330.14
220.493
182.632
139.245
136.538
79.3825
-50.9164
-75.9141
-150.116
-56.0233
61.4741
99.3691
-11.1199
-136.591
-258.857
-335.54
-331.557
-248.919
-146.684
-44.9053
25.2001
108.764
98.8163
-38.053
-208.012
-273.219
-303.725
-294.069
-133.709
34.5925
51.9792
58.7899
49.5197
48.5243
180.007
349.01
366.021
287.18
347.321
365.223
118.128
-113.945
-145.308
-66.3478
-15.0162
60.9864
128.164
-3.91761
-77.8944
-198.043
-195.618
-106.341
149.168
339.355
137.109
-192.75
-326.045
-298.946
-224.915
-152.717
-18.0686
122.977
51.2139
-60.0403
-167.038
-211.417
-41.145
203.19
324.164
220.729
170.209
139.547
-82.8492
-272.171
-158.472
53.1474
149.692
105.186
-41.0732
-166.338
-235.653
-275.934
-164.478
66.351
236.26
192.561
177.07
241.274
70.2238
-79.8936
43.7504
85.9789
42.7902
-6.85583
-14.4961
-32.8889
-107.731
-84.885
-38.617
-59.3588
21.5294
120.711
197.006
97.2688
-6.61821
31.023
92.2196
37.6459
-62.6568
-56.3518
-150.727
-156.698
-111.354
-86.9983
-96.293
-160.886
-250.255
-269.83
-270.093
-45.8098
343.312
497.839
273.823
68.6545
62.3756
133.725
211.89
42.125
-66.2646
131.196
129.933
-93.927
-257.994
-295.777
-272.566
-179.416
-1.57045
178.342
246.555
88.077
-165.458
-264.885
-125.821
75.5002
81.5584
-52.1399
-256.62
-113.345
227.602
318.85
339.385
360.262
236.626
26.4744
-4.98396
107.745
38.629
-155.377
-154.299
-150.751
-202.887
-238.459
-188.788
-125.633
-105.374
-16.8489
51.4494
-19.0318
-111.769
-101.279
-106.423
-175.83
37.3921
219.041
233.858
140.066
189.599
281.073
257.76
152.383
45.7013
-16.6235
-90.5737
-143.515
-94.194
-62.6294
-62.5281
-5.51915
-11.4513
-185.415
-311.038
-198.862
-104.179
35.2321
242.965
385.001
342.319
134.872
11.5261
20.1234
24.0995
-17.4489
-197.059
-297.581
-203.009
-155.121
-135.925
-82.7207
80.4221
199.909
193.17
154.365
180.237
106.378
-84.9455
-192.532
-214.098
-87.2139
-42.616
-81.298
10.6113
19.686
89.7202
199.354
135.047
71.293
56.1281
-106.673
-236.738
-249.993
-158.842
-53.8572
-60.6299
-0.980023
121.526
195.051
196.526
103.635
-57.5354
-192.982
-331.141
-189.217
153.368
358.944
453.581
340.731
249.037
203.432
86.4278
56.098
18.1385
-85.4018
-265.235
-371.951
-219.945
-173.161
-221.842
-98.3302
124.615
71.3873
-248.564
-279.775
-200.774
-88.9479
104.099
171.316
226.223
269.544
104.551
-24.5867
-34.9116
29.1377
122.931
200.176
86.7799
-88.4609
-125.933
-154.094
-147.765
43.9098
285.275
191.961
-30.205
-196.715
-271.719
-159.726
-132.132
4.43599
174.876
98.7793
25.1
13.903
22.9484
-32.7338
-145.56
-99.4409
10.6024
27.4502
13.0384
75.9694
283.886
457.818
417.94
46.779
-270.131
-295.734
-295.091
-310.702
-278.121
39.8489
416.52
309.755
168.461
69.4674
-31.065
-30.8829
-38.0338
-53.7387
-90.3565
-145.47
-208.428
-322.414
-318.452
-5.72416
144.668
79.5058
-2.141
-172.471
-79.1758
29.749
-3.65495
135.203
197.311
227.615
251.158
130.494
9.36305
30.1079
43.2784
29.6926
-13.4756
-68.7493
-78.3797
-53.2188
43.6296
127.748
19.8074
-59.332
-78.8741
-52.1053
-22.0053
224.693
211.129
26.4096
-107.703
-153.401
-116.809
-129.851
-144.009
-32.071
78.5961
98.2926
25.9189
-112.443
-201.059
-214.997
-109.53
29.8791
50.8838
-56.5335
-104.761
-64.4192
52.8555
109.462
84.8884
34.4425
-5.47289
0.453655
124.986
182.772
162.627
121.687
116.684
157.759
223.817
164.745
-38.4557
-72.7185
45.3091
2.59832
-219.172
-414.952
-342.046
-176.199
-4.78923
135.173
182.344
118.452
40.8214
-13.6756
28.2345
150.907
17.8925
-66.7108
13.9191
11.4414
0.820141
15.4175
-9.96359
-122.502
-192.075
-154.529
-118.59
-55.5606
6.61187
-22.9026
-66.295
-58.2538
71.5931
88.7715
-117.454
-203.441
-2.76165
77.86
-19.7311
195.17
302.993
189.336
93.1716
139.705
257.5
102.099
-48.5341
-62.3186
-63.8893
-33.3314
-15.9617
41.9767
-109.92
-253.304
-155.605
-35.3946
81.0421
115.924
156.94
2.19674
53.9583
170.69
-4.00054
-122.012
-185.139
-162.38
-158.584
-215.338
-203.309
-72.5607
91.474
106.905
93.6553
109.774
113.518
48.4198
2.51158
-25.2114
-89.3718
-121.458
-120.813
-74.3188
-7.47297
71.5524
226.051
292.922
50.9812
-87.7981
79.3045
184.192
125.186
108.132
196.451
60.9285
-200.434
-234.004
-145.662
-54.2427
-84.6087
-143.756
-70.2954
-18.7001
47.0906
141.473
279.535
194.764
133.24
119.787
-178.869
-409.975
-379.3
-303.841
-193.409
99.158
318.459
134.878
-73.6678
-82.5188
79.6545
90.2837
-95.9202
-115.65
-71.9473
-216.408
-317.323
-118.595
170.71
306.205
302.657
249.581
246.696
249.351
123.668
39.2605
28.7049
53.5491
40.0063
18.1609
-36.9802
-92.1731
-198.238
-348.101
-182.041
19.573
-26.7599
69.3816
110.907
14.5769
50.2564
108.195
35.0655
-166.841
-265.003
-237.583
-80.554
206.679
328.275
63.2457
-158.12
-109.898
55.2627
80.9234
22.0446
182.126
95.1629
-384.194
-382.98
-83.9475
44.4554
49.446
86.1126
226.784
316.74
176.173
-68.8562
-247.49
-216.032
-110.976
-44.1214
22.1995
112.567
265.509
243.5
-9.03264
-188.507
-87.8088
45.1958
42.379
25.6538
52.6941
78.0806
111.408
-35.1478
-150.081
-108.309
-79.133
-133.832
107.001
237.927
58.5247
-22.9523
-13.6546
26.8518
25.5825
27.9819
-1.24812
-124.975
-182.986
-161.995
-125.155
-98.5841
-96.7038
-51.6067
24.9997
90.074
179.597
137.29
-124.067
-158.542
-26.0411
-18.7778
-116.905
-222.128
-93.7982
206.048
465.254
669.318
565.302
205.61
-63.8315
-155.889
-234.379
-240.397
-151.403
-82.2631
-54.0093
-43.9663
-13.0931
-112.382
-79.9273
46.8592
93.2559
35.7674
-113.805
-183.03
-192.939
-236.166
-187.362
-148.693
-59.6149
23.309
178.847
256.045
201.897
181.526
119.987
133.601
50.0505
-50.9046
-86.501
-13.6377
52.6479
36.4579
2.76898
-31.5325
-51.6171
-118.496
-91.3379
71.7685
131.732
94.5132
1.50203
-29.8003
18.0399
11.6789
-7.69163
-27.9878
-2.58677
-8.81485
-17.7539
-42.5378
-36.0161
54.018
193.428
182.972
60.2539
-54.3282
-103.885
-54.2452
-4.38502
60.1718
57.8239
-133.31
-231.557
-154.776
-153.658
-247.387
-212.522
-97.1119
74.7688
237.245
178.396
45.7514
-101.634
-117.844
44.4964
86.8787
4.69918
49.0608
133.099
30.9178
1.31708
211.364
289.348
109.671
-3.53399
-95.675
-118.405
-66.5624
18.1901
31.0938
10.4827
-42.7653
-110.044
-148.922
-152.96
57.9012
187.541
74.7024
24.8448
127.518
109.447
-72.9766
-107.222
-7.30339
9.0415
-2.12875
17.9197
-116.614
-274.483
-254.46
33.4502
230.027
293.651
334.125
250.877
-141.134
-379.297
-229.455
-133.421
-45.5755
-20.5363
19.3054
30.5219
-131.559
-237.535
-90.7775
82.199
186.287
213.859
119.491
-27.2355
13.7902
33.5694
-35.675
-178.154
-177.565
52.128
245.812
236.608
-1.10596
63.1771
157.422
150.005
144.946
103.573
120.184
66.7957
-74.966
-205.311
-247.612
-200.052
-197.122
-186.708
-163.11
54.4121
222.063
211.918
78.186
-77.0645
-206.913
-314.042
-195.851
-91.611
1.90842
106.402
102.564
30.4518
59.5203
124.533
104.946
-54.415
-71.6794
200.914
309.851
71.9467
-46.2346
-0.245208
-25.0634
-33.3353
94.9355
101.868
-96.6408
-200.832
-163.096
0.679607
85.3953
91.8306
67.8061
-27.0081
-68.1467
110.669
123.26
-215.836
-124.537
155.403
106.888
18.8503
10.12
-14.0867
-87.1283
-152.413
-138.705
-69.7231
3.72592
29.0121
-43.1759
-88.7307
-1.83868
180.101
216.548
-31.5319
-182.962
-138.164
-92.4567
21.2349
136.265
73.397
-7.28764
-19.4797
83.4939
127.061
127.286
60.0066
-45.2801
-195.038
-272.766
-175.344
-16.4517
-5.81543
39.6331
220.399
243.196
172.188
-5.50001
-92.8024
18.4927
33.5991
-28.8611
17.8421
-7.12636
53.9415
145.007
-6.48446
-131.273
-91.5617
-14.412
37.9024
59.3385
44.3662
-31.1368
-32.7218
65.6836
134.727
66.6929
-116.869
-112.9
24.4719
-4.12378
-84.4791
-164.332
-330.578
-444.745
-272.375
-42.3232
93.348
146.843
82.8927
47.5176
131.468
181.222
71.7955
94.0231
196.281
145.635
81.818
25.7009
115.936
191.57
-24.0334
-163.631
-77.7935
135.196
223.813
159.873
170.506
206.94
78.7922
-138.341
-304.296
-354.482
-321.206
-246.859
-182.282
-74.5998
-22.6936
-63.1059
-138.034
-166.948
-49.0535
-22.0181
15.3039
122.776
154.565
203.289
140.553
0.178688
-19.5622
54.8629
144.557
182.997
89.5834
-17.9016
-73.1773
-49.6583
-5.80552
-2.56992
-58.3809
-77.6529
-38.8633
90.3653
163.206
143.58
153.748
98.412
-34.0104
-110.648
-89.1877
-88.9821
-126.885
-126.463
-107.736
-88.5366
-84.1204
-26.1662
0.50089
-175.462
-91.5547
380.584
690.704
589.294
246.919
-196.863
-453.904
-388.509
-237.127
47.637
149.605
-69.7555
-242.295
-167.668
30.5806
70.6638
17.0441
-85.0636
-177.95
-135.637
-105.034
-211.9
-258.507
-130.39
55.4935
141.899
186.397
179.769
206.389
209.019
178.681
211.983
269.24
201.95
60.7288
-60.2984
-119.186
-18.0187
147.268
299.159
223.963
-71.874
-260.886
-312.211
-171.881
1.68585
66.0949
96.1309
-112.73
-501.026
-540.352
-199.149
137.423
309.282
344.469
284.554
246.776
126.77
-68.6766
-203.029
-247.677
-102.302
-27.4262
-60.3746
-169.87
-190.543
-245.307
-307.958
-86.5204
188.926
308.94
253.032
66.3823
-50.4423
-37.5863
19.7938
59.2744
92.3198
95.6558
149.426
131.913
71.9381
83.1895
92.2486
101.645
41.9088
82.1285
102.924
-4.36671
-39.5581
-6.69314
-8.52812
-115.329
-172.922
-123.687
-149.338
-330.686
-263.683
75.1967
328.311
142.56
-89.7267
-56.858
146.792
141.503
6.78194
-8.31666
-34.33
-145.811
-177.925
-165.969
-125.62
-39.9804
-30.233
-58.03
60.6488
175.294
60.9602
-47.8566
-96.5033
-43.8208
34.4845
39.2542
-54.1696
-6.32174
57.0711
53.2515
75.8293
208.061
347.905
286.114
142.118
169.75
153.841
21.6556
-90.585
-113.773
-216.212
-339.155
-356.981
-216.881
-122.352
-47.5141
191.191
268.655
207.224
152.536
37.4392
76.5093
39.3246
19.9317
-89.7763
-346.125
-442.156
-327.942
-106.701
145.199
233.4
184.981
150.14
101.713
39.1179
-49.7177
-224.277
-312.39
-158.369
-30.0069
32.9801
-4.4173
-31.5174
-41.136
38.2332
190.777
347.784
406.303
197.294
-40.3315
-158.52
-173.817
-15.449
116.42
111.15
100.422
40.8924
10.0513
-24.5261
-45.5623
-47.1301
-41.1767
45.4248
9.9164
-70.6554
-105.564
-161.817
-125.469
96.0696
310.147
383.847
198.457
-189.741
-484.072
-427.599
-171.236
52.437
59.5296
121.544
206.285
200.33
33.0559
-170.251
-196.55
-136.076
-49.9141
-42.1906
-67.1046
33.8039
38.1845
-129.785
-136.958
-121.672
93.4031
204.72
67.2393
-49.4905
17.277
45.4659
-2.02167
18.4999
101.904
94.833
110.645
214.173
216.85
174.825
39.5996
-191.305
-288.781
-111.962
143.255
270.836
247.46
116.186
-7.37138
18.6674
128.855
-18.7923
-347.966
-401.895
-216.479
-67.1587
-71.6617
-108.37
-102.07
-84.5558
-85.1183
-69.8178
-28.5559
42.6287
73.7297
109.354
104.323
105.381
42.0179
-104.459
-236.358
-108.07
205.29
321.97
136.335
-52.1012
-70.8263
-95.4717
-97.9017
-65.6113
-8.19502
14.5214
19.4093
283.952
564.485
462.696
206.602
117.951
12.4808
-201.231
-281.65
-304.966
-289.273
-248.236
-157.651
10.3251
135.8
156.919
63.3637
-145.369
-239.441
-246.054
-197.643
-169.317
-210.705
-100.263
98.3254
156.775
150.174
152.205
121.523
138.929
154.575
73.1713
3.68656
65.7648
165.328
169.571
-6.43268
44.0133
211.253
220.026
100.942
-125.604
-261.118
-237.614
-197.06
-175.682
-97.7099
3.18302
91.7227
133.041
82.8647
22.3251
-12.2201
-108.909
-236.773
-230.905
-56.034
-40.1805
-49.7975
133.847
201.134
31.8662
-67.9841
70.6626
155.673
34.4021
11.7513
71.6241
31.0914
-3.00252
-22.5018
-16.2148
25.7032
50.0757
-26.5563
-133.578
-53.8683
141.459
203.527
117.313
68.88
-25.5993
-237.824
-363.076
-307.752
-141.215
38.8272
183.815
230.591
201.606
134.682
24.4005
37.2016
97.2296
101.487
54.2087
-3.09644
5.60319
-220.119
-432.618
-417.809
-218.023
152.28
357.957
209.045
19.6418
2.88786
35.2395
-48.9008
-60.38
66.7346
155.965
-12.9831
-187.951
-115.988
41.7655
65.2546
14.5868
94.8013
215.515
208.462
44.7501
-158.794
-242.665
-85.4728
136.361
84.0563
-37.2439
-7.29249
-42.6267
-158.911
-127.059
18.7722
-32.4183
-123.842
-95.5475
-38.9427
-42.3784
15.4542
68.986
63.7843
134.622
196.028
212.315
308.381
278.209
67.8096
-140.079
-130.893
-112.601
-129.66
-194.52
-202.468
-130.479
-94.4427
-69.0784
55.9852
168.992
9.3072
-210.79
-154.175
115.539
275.902
198.578
122.168
-51.8611
-151.402
-122.054
-88.5408
-25.8405
74.6588
252.977
238.78
69.1203
-48.8163
-141.822
-206.477
-218.828
-117.889
-61.9092
-37.9034
-5.15775
25.0974
127.705
144.655
7.82632
-132.054
-103.102
-40.05
98.5854
191.679
136.179
73.1935
109.816
123.787
161.434
61.5754
-105.515
-113.627
36.6695
150.93
67.5575
-76.9313
-273.898
-508.456
-356.559
67.2563
371.53
280.279
-79.7236
-162.699
-136.241
-167.133
-48.2708
167.462
302.278
359.222
201.008
39.0683
-37.4169
-110.983
-231.225
-301.45
-273.609
-133.428
30.6852
16.7258
-31.5243
60.9325
237.689
161.393
-34.0417
-53.6974
-10.8793
-24.4785
-107.093
-144.502
-38.6829
109.858
136.441
186.953
234.899
176.611
135.39
12.9579
-127.607
-55.1504
-79.469
-194.78
-214.182
-147.177
47.8249
201.957
158.387
118.457
73.4107
-16.2185
-45.0626
6.88739
-0.290701
-118.39
-128.243
-47.3469
-16.12
28.2821
95.4815
27.4803
-58.0054
-79.1648
-85.7746
-112.604
-106.162
-89.2331
-29.5833
-57.407
-82.1945
95.8845
197.326
39.2308
-180.516
-210.185
-37.5379
127.398
273.667
368.558
388.511
201.455
-119.962
-145.825
-79.2657
61.3267
155.039
31.3274
-89.5315
-147.397
-245.225
-346.915
-313.759
-182.004
-4.1751
168.21
379.715
489.99
183.248
-83.0257
-149.974
-47.9499
126.845
83.1707
16.6649
-110.191
-338.681
-278.229
-77.5406
67.4602
224.537
349.355
301.473
142.178
-4.42751
-147.599
-378.995
-463.131
-269.632
-102.779
-38.1952
-27.9744
35.8024
213.71
321.071
81.758
-157.454
-143.356
-30.3171
2.39272
20.6187
-48.519
-27.0958
84.0083
218.017
277.25
239.969
90.6446
-29.2216
-125.901
-129.152
26.4068
159.173
31.0751
-191.177
-142.355
85.7131
164.893
111.509
64.3301
52.0151
44.1484
-7.51956
-115.602
-180.372
-183.281
-181.057
-155.397
-128.342
-115.595
-91.6274
-88.4169
-22.2627
181.711
309.123
347.416
223.221
66.9528
61.6511
93.5329
-160.598
-324.455
-281.546
-171.628
-68.2734
6.12568
13.453
5.98196
63.5736
171.119
139.833
77.4174
-98.6569
-259.224
-154.683
-35.454
7.437
54.1836
11.488
-16.8043
129.952
152.242
90.881
149.311
214.085
120.514
2.23818
26.5824
122.656
61.6233
-73.2246
-142.325
-102.035
-105.946
-86.9514
114.729
264.169
207.778
-78.0051
-236.243
-166.623
7.2479
112.665
-73.6562
-294.345
-263.827
-223.364
-127.119
75.679
122.404
23.9752
-35.8803
33.8106
93.0611
43.1262
32.0215
-53.8063
-106.606
11.452
67.0079
37.9591
-54.6175
-96.4156
12.7421
109.595
105.824
144.016
136.527
29.531
44.8327
174.46
243.957
153.369
-70.6408
-284.176
-329.081
-174.718
-16.0121
-48.6823
-108.233
-50.2734
97.5517
218.52
336.727
282.036
69.119
-62.7211
-120.654
34.0322
141.917
-69.64
-201.204
-162.167
-119.503
-119.584
-201.085
-171.662
-65.4778
58.8656
200.175
170.957
-2.27778
-85.7378
-91.1648
67.4801
177.912
144.156
-5.0994
-270.779
-394.977
-188.501
17.9813
18.2429
30.816
104.007
108.019
44.8045
40.3599
99.7684
196.529
311.371
265.216
89.6323
-63.2445
-37.7004
-24.7507
-155.738
-131.683
-137.23
-68.9116
-1.75251
-8.17702
49.4731
117.931
142.486
-3.78505
34.9951
209.458
106.17
-175.924
-388.366
-322.606
-193.18
-104.599
-163.608
-129.403
77.1414
160.736
170.96
181.214
223.849
144.078
25.063
13.6912
14.122
45.0088
1.51195
-107.652
-65.9752
26.6084
58.7914
31.8327
-7.0489
-73.4932
-139.69
-122.081
-56.9243
-112.188
-163.051
-180.037
-112.788
27.2504
247.935
469.154
522.922
379.939
129.558
-62.1284
-103.91
-189.013
-256.508
-283.409
-231.327
-80.0007
145.595
239.481
41.0412
-23.2973
41.6283
19.8514
-20.2943
-125.655
-282.377
-385.173
-369.593
-206.674
113.168
227.216
109.27
85.5284
112.723
129.161
169.324
171.016
76.4008
82.2581
182.532
73.3648
-37.6601
-45.6249
-7.92282
64.2203
115.647
85.9952
75.8508
171.339
15.8734
-244.4
-296.102
-246.025
-89.5782
94.0972
134.042
176.499
2.45896
-282.923
-348.031
-232.629
-82.3175
27.1187
-11.77
-18.4152
3.8379
19.7555
57.5647
47.0406
33.5128
32.757
46.2973
-31.1372
-137.541
-45.2855
120.282
272.135
384.49
304.504
222.961
74.0786
-76.9206
-116.735
-90.0653
-41.6758
-7.19537
-11.3657
-42.8741
-83.2107
-84.8644
-32.4849
-6.1776
49.8823
39.1238
-100.059
-261.457
-395.181
-360.781
-160.352
45.0069
223.632
198.788
55.9783
80.2031
110.897
50.2544
93.1757
92.3523
88.7146
32.9662
11.8826
69.7508
64.8938
11.4232
-64.7098
-72.3553
-101.958
-106.78
-55.551
3.33809
93.8363
164.647
178.136
133.075
-20.3942
-202.096
-170.108
-66.7897
-29.7496
-2.22695
21.3186
13.627
-45.4845
-30.2441
9.32462
-1.1041
-5.75084
97.4581
135.383
53.6568
-43.5112
-56.4259
26.2733
40.5796
54.5017
83.8137
-92.3328
-314.334
-378.072
-222.278
-2.34819
161.057
362.813
408.899
132.954
-26.927
-95.2816
-149.164
-104.02
-31.7323
-68.0927
-84.9269
-33.8672
18.7564
139.23
252.099
65.8858
-158.096
-92.3319
-41.1254
-57.9962
14.406
36.3219
-28.4091
8.60862
7.37136
-51.8895
-59.8323
21.3421
72.5862
114.021
171.505
95.0403
-86.2156
-209.268
-186.993
60.2953
260.922
152.053
6.72376
-106.534
-217.436
-206.205
-97.9335
34.7565
105.012
149.76
105.833
35.8289
54.5879
119.305
100.064
43.905
-24.8921
-65.9695
-53.0565
-61.9274
-22.4129
-47.8373
-88.5218
-52.1244
31.9912
14.0951
-28.333
-9.16914
64.4711
2.63466
-231.235
-338.491
-267.665
-180.602
-159.693
-134.041
21.4857
181.624
325.806
545.285
488.453
182.13
82.5236
146.35
71.0615
-62.0267
-88.7879
-88.436
-163.526
-157.364
17.7966
117.752
42.6081
22.3225
77.697
90.7996
-5.37903
-51.1111
-135.456
-277.784
-326.095
-80.992
120.955
55.1632
-121.498
-107.606
-18.1984
-9.58837
-64.8785
-148.683
-153.275
-116.276
-109.632
-82.9872
-50.7339
27.5804
222.662
350.566
309.049
247.399
407.749
326.144
-31.7836
-164.279
-132.408
-228.972
-225.332
15.4596
218.351
289.859
120.703
-17.3069
-38.7839
-116.056
-149.93
-18.0511
-33.2127
-147.733
-90.0299
-107.606
-243.542
-219.132
-52.4784
84.7392
176.899
168.324
112.371
-56.4849
-201.154
-180.88
-21.0259
151.048
376.437
430.694
255.381
67.2934
-57.1918
-153.509
-286.993
-426.567
-470.645
-286.871
-81.9339
38.7809
168.633
293.831
186.496
38.4712
37.4928
79.6782
115.594
140.117
53.1913
-15.5729
26.0159
-59.3214
-93.5734
-23.1807
-3.2707
25.8675
94.987
182.242
111.215
5.11064
60.7729
43.5293
24.6426
28.1117
-115.961
-190.251
-213.759
-246.922
-191.056
-137.392
-44.8553
198.844
261.904
8.5548
-130.93
-38.5658
15.0222
0.226331
19.3024
0.119155
-85.6108
-95.9097
-29.855
12.3545
2.74069
52.5263
176.883
309.908
347.195
232.162
-35.4812
-268.683
-267.256
-142.001
-129.662
-90.1957
92.9333
75.4458
24.5055
30.2423
-27.2527
-39.7272
-31.692
26.5099
145.239
123.355
64.4627
-44.552
-168.366
-101.953
-50.2116
-121.233
-68.4741
120.331
233.443
127.174
48.5878
-2.2135
-97.518
-66.4108
-19.5882
73.1529
112.359
-27.1547
-125.768
-99.42
106.266
103.986
-95.5023
-150.21
-129.193
-67.8213
-47.3088
-91.498
-72.2084
22.3948
51.0492
64.823
145.838
79.4058
-43.9614
-76.1661
43.237
188.029
95.9048
-41.9758
-69.0483
-81.2615
-44.5611
-52.2443
-37.8449
-40.1985
-39.9818
23.671
128.798
175.644
212.818
343.839
331.765
49.068
-132.42
-181.46
-217.384
-205.832
-149.771
-108.209
-198.086
-201.659
-122.918
55.0028
213.205
269.167
199.967
221.474
144.115
-4.63591
-155.096
-294.582
-301.481
-158.521
-27.9445
-3.27556
-35.772
-76.0037
-33.9028
50.3011
79.5626
75.7328
110.936
50.0444
26.7087
46.0829
14.0565
-126.048
-161.571
-12.708
93.155
123.182
185.684
101.237
-28.3206
-48.8868
-86.5546
-99.804
49.392
219.441
260.25
233.037
213.938
171.525
67.7997
29.7936
4.32733
-161.298
-347.922
-379.391
-342.032
-367.122
-278.18
-45.4591
63.3166
111.111
118.816
92.1639
59.3504
-42.6356
-80.7891
49.3028
-70.2755
-225.151
-180.068
-32.0688
197.971
430.271
596.437
510.69
175.894
-89.0662
-186.845
-133.407
-60.324
-38.215
104.389
234.512
167.784
-169.686
-493.797
-621.593
-422.814
-94.736
148.786
243.039
152.755
-29.5433
-66.0603
0.814948
40.3042
95.6802
186.087
198.013
79.4433
-59.62
-74.1694
8.69113
40.8565
93.1262
142.338
127.911
35.6206
-159.56
-275.197
-250.948
-182.053
-82.1392
-83.729
-130.609
-38.4149
84.1134
138.813
171.037
292.01
372.352
133.477
-234.661
-320.212
-62.782
174.613
178.18
107.55
206.356
149.404
-201.794
-363.823
-239.205
-115.025
-7.84144
61.7831
82.7858
17.2339
-88.0158
-161.642
-181.974
-131.983
-36.1139
67.7739
158.834
254.204
338.821
326.585
185.813
9.01232
-79.0174
-78.4553
-67.6471
-88.8453
-30.8568
25.5378
-57.0207
-90.3814
-208.307
-280.449
-94.93
122.283
208.818
144.875
-9.09024
-97.3726
-121.741
-75.7513
-147.559
-87.9099
48.2038
9.35014
-7.92361
-15.9718
-91.2405
-75.7031
24.7374
29.4316
57.5275
147.437
111.952
23.125
20.3051
76.5612
113.418
32.1926
-46.8049
-60.1136
2.72739
27.4795
94.5143
184.699
148.37
127.486
119.357
39.7616
24.6115
32.2624
8.96434
-35.6907
-134.397
-224.672
-292.362
-283.897
-148.774
54.3716
218.544
258.891
194.868
4.8359
-165.975
-303.08
-212.508
72.1056
3.80563
-171.851
-101.945
-142.049
-175.493
-95.2735
-10.1035
102.968
261.402
253.881
153.374
-6.95329
-159.963
-326.206
-266.516
141.605
395.343
376.462
255.249
125.439
259.772
279.176
65.5684
-40.966
-22.3685
-35.4741
-91.9968
-146.718
-205.863
-184.596
-147.483
-64.4721
14.8167
37.3736
30.8813
-82.2592
-102.021
-70.6858
-141.42
-191.187
-160.112
-2.19869
121.109
151.651
163.993
66.77
-16.8984
-54.2017
-5.52472
-20.0525
-174.983
-199.756
-123.75
-28.1105
138.876
185.415
161.557
218.602
170.048
79.0576
31.8329
38.4387
17.2104
20.1409
24.7763
62.5051
74.2572
43.4285
-16.9067
-36.9507
8.59361
-69.5113
-124.364
-66.5011
-119.739
-188.89
-172.198
-50.6587
2.10436
-34.9477
-38.4197
66.8524
106.088
87.5306
93.8716
77.2918
100.511
65.4261
-59.1343
-9.80875
46.0003
-22.791
-81.1907
-63.9719
-103.148
-195.33
-96.6086
25.9426
141.84
227.772
31.0739
3.57706
55.2786
-90.5346
-166.961
-107.745
-181.323
-223.525
-75.9961
12.4516
84.875
256.015
321.144
289.541
162.183
39.7241
-123.628
-192.035
-135.135
-130.345
-71.2958
-142.345
-79.5147
311.689
421.832
130.434
-2.19783
35.3669
-0.302339
-35.4192
-57.3301
-125.157
-163.764
-126.229
-49.204
50.4269
141.222
138.369
-59.2743
-168.896
6.17255
90.2471
-60.5039
-242.53
-289.016
-196.534
22.86
168.575
229.657
251.727
182.455
20.1774
-71.5641
-79.0155
-1.5487
53.2497
99.5919
167.442
66.6773
-73.0106
-46.6395
-27.1386
-63.2393
-114.986
-112.701
-6.86509
-30.5742
-89.0312
-89.4774
-128.815
-115.287
-103.795
-107.923
-115.205
-36.22
214.3
290.107
157.099
230.274
261.279
78.0948
-82.6142
-197.239
-212
-111.897
126.238
312.901
258.287
191.898
77.5396
-139.259
-258.825
-151.715
-34.1463
-134.027
-181.218
-146.446
-125.764
-42.7713
29.6835
-12.277
-18.0338
178.152
252.731
157.244
49.5985
-66.3111
-86.0613
-99.4453
-72.6452
60.6319
197.947
209.269
47.6629
-34.9959
-107.12
-179.207
-106.635
-63.1189
8.59184
123.845
94.1027
-40.8932
-34.7697
188.314
118.951
-196.526
-196.623
-172.905
-179.899
-113.882
-50.4146
-27.8466
133.091
291.919
204.524
68.1451
19.0362
42.3557
-49.5706
-107.6
0.17689
121.706
-6.86591
-181.164
-179.157
-57.543
-0.480473
82.7959
92.8678
115.76
292.516
190.005
-14.5198
-79.9263
-55.5326
-105.7
-143.715
-109.799
-43.1836
-74.5476
-104.847
-76.8838
-38.865
-34.3916
96.4815
238.143
230.915
120.678
67.7034
-42.4465
-220.228
-147.751
11.1825
-54.2217
-88.0865
33.3571
60.9897
16.6474
-4.3325
27.5581
48.3701
38.8915
45.4242
-19.799
-112.2
-103.302
-111.481
-36.4462
106.824
200.838
184.344
23.6199
-116.303
-22.1074
78.4652
116.603
121.078
33.9293
-94.5337
-108.009
-19.756
-110.113
-235.34
-198.493
-35.6086
14.4457
-18.5991
30.1376
50.2299
37.5329
33.8854
43.7293
20.1094
26.2731
79.5176
-12.8155
-116.853
-17.8268
166.314
150.191
164.568
343.754
235.507
70.9737
-67.0478
-106.075
-69.8989
-114.841
-227.604
-368.703
-408.354
-307.664
-142.457
-50.0947
23.1027
208.163
373.113
301.77
97.3697
-103.42
-239.212
-207.605
-2.60777
111.753
99.9757
157.813
260.462
165.664
64.778
45.5203
56.7596
0.374446
-68.3562
-32.9522
-59.3842
-138.916
-203.716
-209.745
0.919155
150.799
92.8708
-20.4893
-19.7777
-27.0526
-53.6289
-24.7914
-65.8784
-77.6363
-7.9555
159.888
200.91
54.5653
0.372739
-16.025
-46.1369
-76.6073
-93.3401
-50.9206
5.8335
112.631
108.834
1.39988
-4.23318
30.5146
43.9414
-3.80347
-83.5749
-94.1135
-33.4746
1.63699
18.3652
141.612
245.967
169.028
-49.8328
-198.213
-255.415
-225.917
-144.414
-16.648
81.9115
94.7246
109.397
195.367
61.4511
-112.989
-50.3347
101.269
224.86
137.181
-31.4636
-151.946
-314.94
-330.219
-134.898
54.0781
63.4543
42.1618
76.7555
30.0619
87.9915
207.212
103.43
-18.2554
-3.71362
15.6775
9.91756
-12.4024
-85.939
-151.544
-162.393
-115.908
-37.9667
-29.1533
-110.447
-73.1432
279.981
502.346
271.127
114.23
49.8604
-123.347
-149.241
-108.723
-31.5791
-12.36
-56.6133
-155.449
-189.269
-89.5582
42.9968
190.432
251.266
126.11
94.4307
72.1368
-93.4993
-241.551
-219.831
-101.058
-61.4384
-101.713
-121.439
-23.0023
114.862
176.526
161.082
225.431
133.768
21.1763
-30.0177
-72.1277
-69.2031
-20.5637
7.31871
-11.5753
-88.9857
-165.513
-163.436
-109.362
-67.9051
5.75499
107.01
173.067
235.544
214.722
104.477
-20.9836
-50.7413
-120.772
-209.073
-161.126
-143.292
-19.6716
154.622
175.036
110.751
131.135
140.95
-65.4819
-355.08
-248.813
22.5011
2.10916
-130.23
-107.078
110.669
128.562
10.6685
116.797
136.88
85.1498
120.418
106.709
48.8573
38.9773
-30.2512
-157.397
-189.866
-49.6905
185.471
265.804
167.877
-2.57309
-163.5
-316.652
-532.45
-442.168
-198.027
1.40806
425.044
689.007
662.104
374.038
109.62
-127.107
-268.03
-204.94
-160.664
-165.92
-144.852
-155.601
-228.948
-210.967
-103.733
-5.63925
91.0738
174.537
213.275
115.322
-108.31
-357.234
-422.122
-280.626
-99.1827
116.051
335.058
295.835
150.602
105.587
32.5258
7.48418
113.316
309.452
327.235
294.183
257.68
105.177
-4.57168
-73.0225
-161.149
-207.978
-220.763
-182.617
-153.456
-124.594
-113.225
-11.3962
118.103
134.345
117.775
-46.4367
-210.248
-351.227
-281.595
-83.4937
22.075
-50.6376
-17.1168
132.057
157.939
140.748
213.371
129.86
-36.9828
-78.6676
-61.4485
-21.8528
41.0084
140.412
210.2
115.339
77.3397
69.752
-64.0334
-331.028
-286.982
-61.6479
61.7509
7.05448
-13.3674
29.6963
-64.9157
-42.163
58.5775
59.2595
27.194
-10.0701
8.04864
26.009
50.7516
159.667
147.474
-42.1491
-202.166
-165.894
-142.647
-116.814
36.7489
267.972
326.097
211.214
-105.628
-168.129
13.2291
61.2155
64.8621
85.3643
100.967
-56.0808
-211.868
-184.902
-61.9236
45.7762
97.6634
109.817
95.3004
119.219
-95.1899
-383.169
-345.563
-147.869
122.363
127.539
17.0636
-36.1071
-153.388
-199.989
-120.367
39.6283
81.55
144.801
104.85
90.4212
196.245
233.633
97.2198
-43.423
-59.3347
-27.4761
-86.3911
-155.563
-83.8241
44.554
63.5851
111.059
248.7
257.686
54.1547
-57.5058
-20.7772
-44.3837
-131.045
-149.706
-2.53907
187.619
145.358
-32.454
-59.9815
1.39851
-92.7703
-145.315
-151.967
-172.222
-106.66
17.6861
-160.492
-271.853
-87.6056
96.0018
218.207
389.876
514.444
292.712
-48.6457
-227.674
-173.185
-181.796
-213.411
-183.196
-127.665
-113.062
-46.2863
86.7709
123.752
55.3537
109.424
175.6
125.988
28.3646
-78.9519
-203.212
-249.965
-108.526
68.8172
168.004
149.844
82.2632
73.6651
61.1168
69.1227
128.076
215.249
205.187
124.939
50.5468
-16.1657
-268.139
-383.374
-252.188
-93.0963
-29.2308
7.44167
31.8313
-19.8079
-73.6833
-66.1866
51.7091
97.4186
124.919
198.745
126.486
-29.0259
-56.25
-94.8069
-142.728
-63.8363
28.8615
-68.7605
-189.188
-203.704
-136.734
47.7702
291.422
244.358
59.5739
-13.0128
111.328
141.705
48.4217
-18.1749
-48.9219
-96.8486
-103.532
-34.2235
-27.8085
-114.834
-6.22883
123.841
84.3627
113.335
118.125
-67.5714
-198.968
-124.397
-41.272
-6.29328
-31.56
-36.2133
-17.446
-33.7553
-17.2568
30.1622
18.4071
-48.2617
-77.2806
-29.5433
107.585
225.538
301.97
200.657
21.5865
-12.2282
-18.3284
-42.4066
-39.2818
-18.1516
-12.5571
-40.616
-49.9988
-65.7058
-63.8371
-0.209427
26.1372
-118.741
-153.711
65.8387
113.975
-36.7779
-48.9753
92.5985
64.8314
-19.8334
-128.751
-116.957
-112.684
-84.9153
-21.9981
5.23562
92.0324
174.068
181.969
61.0474
1.04168
62.0164
28.5126
-25.3196
-75.3161
-79.9066
-147.215
-209.16
-74.9112
49.2349
83.5278
176.1
251.306
54.3584
-71.0709
-48.2339
-70.6135
-157.022
-134.814
99.0355
179.177
59.931
10.0505
-84.4241
-187.201
-122.542
105.298
262.582
151.125
-18.3799
71.5066
73.8779
-14.7652
30.8474
-12.9695
-76.9437
-109.055
-69.8636
-25.223
-106.137
-145.528
-107.031
-25.479
102.767
213.265
152.286
-40.6526
-115.538
-41.7174
3.53618
-50.629
19.7626
19.1603
-31.2299
61.7112
109.864
33.6515
40.7069
42.7506
-124.774
-280.992
-267.285
-123.441
-33.7644
-26.7801
276.208
635.93
369.816
147.898
40.5163
-154.318
-300.347
-236.855
-119.407
-95.8195
-111.775
-63.1259
-54.7019
-69.7086
-26.7689
71.2517
144.701
70.4785
-27.5953
52.6996
108.412
-29.5768
-28.7961
23.8099
29.9225
19.1849
-12.0017
-8.18133
88.1496
58.0856
-33.502
-1.70558
26.9475
3.27099
35.9216
83.2114
85.8398
113.159
138.483
65.5494
-126.228
-336.975
-337.224
-272.981
-134.91
24.4796
146.407
158.823
84.191
3.92359
4.20831
49.9842
98.3077
37.585
-60.3672
-10.7596
125.847
72.3654
-30.6887
-7.47059
-73.058
-106.584
-110.075
-57.3235
11.3111
11.929
5.5987
74.2575
173.26
102.81
-89.9188
-168.354
-91.72
-13.814
78.978
85.481
57.1478
37.9766
44.5585
36.4459
27.6657
-22.1236
-13.564
2.29581
-18.0949
-9.86964
-37.7987
-104.106
-188.473
-153.058
-13.4452
-18.6232
-150.447
-148.571
67.844
355.273
575.278
498.386
66.917
-204.548
-183.76
-131.795
-67.2979
-29.244
4.32463
20.2965
-61.6935
-111.176
-117.164
-47.2536
29.1025
18.9548
-9.97636
-2.20712
-67.6116
-247.183
-344.782
-151.668
197.447
278.641
136.845
50.5472
-22.1218
-32.6189
54.0439
91.0799
42.3385
-15.7796
11.8896
5.95794
8.25651
43.6359
81.351
131.441
117.729
78.4504
-60.234
-197.244
-121.427
-22.0534
33.8098
43.8057
71.1857
57.1444
-77.9954
-73.3102
85.8623
110.941
54.7033
67.1896
141.761
75.9913
-67.0026
-109.409
-54.7383
-68.5669
-239.47
-304.875
-237.973
-167.596
-132.02
-82.0715
47.1962
181.977
221.862
72.1679
-115.392
-68.6013
21.9608
91.2024
68.0054
52.2141
105.838
94.7292
30.8361
1.02002
8.94886
26.8526
17.5037
67.2477
168.17
153.371
38.2551
32.0695
126.846
111.751
-7.8297
-42.8635
164.909
147.177
-123.347
-198.622
-173.975
-187.044
-224.849
-240.021
-139.376
-28.0583
19.1506
3.50101
-34.1423
-34.6619
-30.3851
-81.486
-114.698
-11.0616
151.426
89.7351
-295.565
-319.865
-24.874
184.117
268.693
247.923
191.81
132.399
130.777
146.344
122.205
76.1517
38.0437
44.6482
6.53744
-68.232
-34.2759
103.355
32.4729
-155.368
-135.654
21.0065
34.0849
-75.0665
-95.0812
-80.8282
-55.5772
-40.5792
-62.4739
-15.6816
115.576
119.923
74.3068
51.3887
-71.4726
-163.755
-169.069
-87.0885
37.0951
140.409
161.716
-17.131
-243.586
-305.889
-233.572
-69.1489
91.6072
158.579
126.092
78.4813
-60.6246
-66.6677
-1.70116
-58.9126
28.9259
137.672
55.964
-130.386
-125.138
55.2228
91.7754
133.514
384.128
475.785
393.832
174.214
-125.936
-173.041
-137.654
-220.358
-158.835
-60.559
-56.4511
-68.5693
-63.4458
-94.9663
-104.981
-81.3004
-40.9324
125.015
256.093
114.35
-90.178
-169.595
-168.428
-109.111
-77.5815
-64.1926
17.7149
63.35
30.985
-3.22404
-55.0903
-54.4246
-41.0332
-53.7162
23.0201
163.477
229.432
63.6138
-69.361
-80.0179
-42.098
14.7941
-26.1673
-50.9665
57.104
133.86
168.407
154.989
53.6674
-67.6724
-71.8296
23.962
69.7322
67.9648
18.4087
-56.1088
-59.8652
-20.8891
-114.245
-228.577
-209.871
-80.7613
-25.032
-30.2171
128.061
200.702
89.477
79.3054
111.121
83.0494
29.9753
42.3754
99.48
100.058
33.2769
-104.923
-240.571
-298.902
-136.521
24.9006
110.831
79.8024
158.254
223.243
-129.14
-443.194
-283.095
-22.3193
67.4019
67.456
-5.54332
-57.7868
-23.6144
65.5833
91.6628
80.1004
25.8233
100.742
261.103
274.282
-10.3715
-188.93
-215.598
-194.869
-112.874
72.679
205.613
115.613
25.5987
69.9632
179.084
150.574
-22.283
-98.429
-147.279
-194.28
-171.964
-136.993
-146.838
-49.0706
36.4305
76.4686
178.764
270.627
197.376
-11.4215
-155.29
-217.914
-169.318
-85.8381
33.5597
72.9141
87.877
101.376
139.203
152.95
57.056
9.49297
64.5606
151.844
127.797
4.40365
-203.076
-340.315
-262.081
-68.6311
66.5744
-11.7453
-86.77
-56.9736
-113.75
-71.6904
-3.22935
-16.7186
-14.9418
45.4518
137.692
105.69
-37.0205
-117.393
-21.0463
82.0058
79.7596
68.3323
123.762
86.2929
-3.11492
121.791
143.788
117.452
88.8384
-64.4782
-221.448
-217.491
1.92561
210.434
221.187
157.142
71.8546
-95.7874
-106.533
-187.099
-229.472
-152.29
-33.5318
18.3016
-47.2171
-99.7977
-71.0032
-70.7578
-45.5334
42.6302
119.639
91.3363
-1.80186
-37.3998
17.7722
27.8577
4.74008
57.3493
45.6907
13.7237
-53.441
-106.612
-52.2546
-26.262
-4.05864
67.5053
122.16
104.126
65.8356
62.5024
109.056
99.2256
5.84714
-17.4923
42.3161
54.3905
-11.6418
-131.344
-128.997
47.5385
108.783
22.2142
-26.2973
-29.2834
-142.102
-219.515
-120.66
-62.3113
38.5843
290.899
209.467
-1.87149
-163.227
-237.443
-190.731
-132.558
-47.9544
123.769
132.932
25.8793
21.1883
53.0794
9.88504
-3.82406
80.6112
104.486
26.137
42.7805
-7.70616
-292.202
-344.766
-173.696
13.996
185.679
234.348
225.811
26.3243
-45.354
36.735
51.7765
170.201
245.721
149.482
57.7781
-5.48502
-39.5916
-61.9622
-67.6064
-57.4568
-42.9858
20.014
39.8731
11.1593
-93.365
-189.039
-189.019
-88.7935
-89.9179
-111.166
-96.1277
-131.993
-69.2108
81.4327
301.041
458.957
218.497
-110.669
-186.828
-153.646
-86.1453
-11.6349
8.25827
-8.68838
-34.2827
-9.00334
-2.72403
11.0071
-1.3725
3.1998
21.2712
-50.822
-92.9798
-78.1679
-146.28
-178.913
-25.6972
114.076
98.4715
95.0902
124.131
97.1371
118.866
239.383
258.621
43.8196
-99.8954
87.6121
233.882
130.641
-19.423
-82.9472
-82.2022
-15.6821
4.38303
-58.8484
-13.5786
-69.8416
-133.692
-168.459
-173.241
-136.149
-93.7507
-128.109
-167.033
-51.613
65.208
30.0017
-78.0733
-42.4892
45.497
86.0113
74.7938
-13.7525
-94.7511
-98.4217
-59.8289
39.6168
77.8956
96.4626
93.785
78.3253
80.2707
28.7986
-25.6145
51.6195
180.338
421.073
429.51
56.9804
-109.922
-195.048
-184.108
-165.07
-122.002
-121.976
-108.915
5.04163
139.696
246.537
123.524
0.0671731
-27.2475
-69.7352
-102.254
-142.656
-209.264
-356.005
-302.25
25.4604
234.185
280.293
192.702
33.2007
-77.0212
-91.3357
-58.0709
-17.5441
-12.0439
-39.7795
55.3771
103.585
49.0025
39.2673
71.1295
62.786
-3.36403
-110.358
-131.618
-63.155
-25.1974
28.7198
67.6965
97.877
39.5783
43.2711
58.2518
-100.229
-317.607
-165.207
203.211
298.108
67.9253
40.1158
105.977
93.5801
51.7782
-69.6025
-110.248
-58.7694
-53.3403
-53.2924
-76.0539
-72.8026
-6.14848
15.331
-2.87756
85.0684
221.883
51.8026
-207.907
-322.335
-255.036
-160.938
-63.9157
112.26
366.155
626.822
430.501
52.0218
-123.492
-202.814
-226.511
-165.252
-121.161
-115.709
-76.6571
-17.8762
2.37677
-54.0107
-94.4511
-14.7019
100.318
98.678
56.3362
-5.88798
-116.43
-185.76
-81.1737
-4.39126
86.0915
245.645
192.84
56.04
126.155
253.399
182.316
-88.2416
-216.992
-204.942
-136.763
-34.4967
10.7995
87.8216
119.938
27.6651
-85.6062
-196.093
-150.081
2.55322
34.6006
7.0153
69.6358
102.978
7.83398
-121.154
-136.964
23.5353
21.9027
-23.9358
6.06176
230.793
370.783
263.635
246.808
153.222
-181.575
-303.139
-266.535
-179.814
-137.432
-136.866
-116.574
-84.2493
-99.0044
-103.173
-36.0866
69.8896
180.896
171.927
105.265
8.55763
-19.6124
-31.9759
-74.3105
-93.2071
-97.6339
-104.168
-31.3864
2.0617
29.595
95.6413
160.665
164.356
158.462
148.612
126.546
111.29
91.4523
45.1403
2.21397
-41.0056
-145.341
-193.916
-184.599
-105.749
50.2921
80.9257
37.6624
39.7683
45.3951
-20.1205
-55.3808
3.85936
4.58907
-143.17
-233.229
-20.1968
169.994
112.897
62.7791
-29.0331
-30.8177
-47.4315
-79.0338
-15.9636
43.4531
7.39702
-61.4023
33.2331
163.504
119.375
-18.7222
-75.9433
-34.3861
-5.40444
10.0665
-53.1349
-51.717
59.103
72.8101
52.9622
-125.578
-344.416
-384.794
-244.06
-23.4796
104.033
163.695
143.426
86.0527
85.6765
124.574
117.087
78.4917
117.468
156.625
86.9157
5.53237
9.54929
10.4244
10.5887
95.7247
182.909
138.489
30.6167
-43.9857
-60.8036
-2.15189
1.38877
-46.3392
-77.1168
-110.791
-128.248
-120.033
-50.4811
-13.6864
-155.33
-287.303
-318.861
-296.702
-142.709
188.887
384.102
338.761
249.469
129.693
0.170312
-61.6527
-90.4192
-122.436
-107.089
-65.155
-45.0752
-50.0862
-66.7948
-49.4585
29.2922
103.18
167.736
160.414
57.168
-75.2438
-99.6899
-69.3922
-79.7521
-48.7673
32.8817
49.2123
45.33
30.5253
71.3383
204.891
266.862
273.332
199.957
70.3139
-14.5914
-64.7821
-85.4648
-94.0272
-123.104
-128.366
-116.796
-114.536
-89.3947
-66.4198
-55.7598
-61.8026
-78.9745
-76.5597
-89.9891
-137.589
-152.216
-156.322
-113.156
-21.0944
61.6599
107.711
136.648
146.803
126.677
60.8454
38.7101
77.1775
96.8097
84.8771
98.5953
132.633
78.9895
19.3967
2.55973
-15.1321
-33.1428
-61.5475
-63.7097
-33.9961
-11.6981
-2.27319
-3.71557
1.51386
2.59038
-3.36155
-6.34089
3.40749
11.9026
12.2871
-4.39725
-38.8168
-47.5678
-31.8528
-24.3235
-35.6312
-39.7354
-27.8614
-7.49834
5.8839
11.3001
-13.4744
-42.7586
-53.1987
-31.9614
-2.85172
52.6439
50.0607
-10.9173
-11.2516
120.366
218.733
208.532
50.5669
-86.2536
-106.853
-135.435
-98.0276
-61.6066
-68.4906
-45.2704
1.81816
46.3383
41.9232
21.2109
-11.6495
-44.6962
-17.4488
6.77263
-8.46979
-104.37
-155.527
-117.523
-9.11087
55.6322
90.3181
148.027
111.147
56.9439
26.1067
-19.9952
-14.3503
37.8119
101.873
120.008
81.7228
32.0034
19.8365
37.1657
65.157
73.1881
26.5226
-85.9822
-99.367
-95.187
-109.249
-106.122
-84.4924
-63.5445
-41.4431
-13.9216
-14.5882
-30.5492
-34.1489
-24.0278
9.57685
12.6599
-3.1202
7.2291
-5.59595
-57.3263
-64.1266
0.940665
51.1868
83.2792
61.59
36.9472
30.4924
29.8817
44.4626
66.2932
52.6957
43.676
46.0311
4.76514
-9.20221
3.20343
-2.84468
-23.3306
-40.6203
-53.6274
-50.3458
-24.6325
-0.122629
23.6519
41.1358
23.5745
-11.5519
-33.258
-22.3986
23.4647
129.456
135.398
-35.4357
-144.915
-138.655
-119.149
-97.6135
-53.1908
-17.007
5.97841
34.3405
60.2818
103.005
102.845
32.5437
13.5765
8.6348
-46.3241
-72.7967
-47.8268
-71.3499
-52.3645
35.0662
143.582
178.181
88.9211
-12.6583
0.676933
7.11475
-25.0981
-24.6255
-6.43213
-5.41229
-45.3398
-162.752
-224.253
-133.373
6.30984
80.0368
73.7403
100.651
72.2097
17.2113
33.6298
83.2618
138.933
125.343
-4.82884
-113.093
-53.0761
-19.9879
-59.0855
-77.2513
-36.4883
42.0195
65.2452
35.7525
11.0297
-14.0165
-38.473
-99.085
-116.3
-69.0886
-61.2857
-90.9818
-74.2607
19.6769
118.374
180.611
143.144
72.4168
44.6564
45.232
45.4287
78.3368
68.1259
39.7076
1.22244
10.4223
53.6698
29.5855
-97.9424
-180.5
-189.937
-213.965
-184.886
-88.8617
-23.6207
18.2398
0.382307
-7.6786
14.4937
15.5825
23.9552
59.5922
83.1636
63.3162
64.4715
46.5404
19.2508
5.38068
36.4785
79.0128
92.4158
117.459
107.65
61.1857
43.9734
54.8744
39.8066
-15.0996
-74.501
-117.347
-110.696
-67.5841
-18.8942
-3.04778
9.37698
-13.3253
-73.5208
-134.796
-111.083
-46.0785
-2.97815
81.646
168.332
87.1138
-78.6642
-168.062
-151.433
-151.262
-145.943
-84.6466
-9.31143
107.791
228.452
157.854
54.7321
85.5268
104.178
53.1814
25.5235
10.8303
18.6087
18.5954
-41.5098
-76.3427
-18.9483
4.93365
-17.1039
12.5888
17.5907
-51.4474
-82.5681
-88.2156
-72.482
15.9533
66.4043
73.263
73.822
77.7538
61.829
52.7265
24.5628
-20.5275
-42.1523
-57.1527
-14.1877
52.439
59.0814
27.2161
26.0364
75.1559
64.0503
-14.1549
-99.5872
-116.122
-109.472
-156.4
-164.609
-124.72
-51.7308
7.46908
-4.83808
-48.9767
-8.00363
106.978
122.173
91.2372
56.2802
99.6795
132.176
109.392
-1.11011
-154.913
-169.078
-46.3638
54.0659
75.8139
78.3275
46.0376
-11.0301
-11.5567
-28.2024
50.1203
148.694
284.15
344.835
174.807
-73.1543
-214.535
-277.301
-279.529
-207.55
-130.041
-131.129
-178.489
-141.095
-97.2351
-62.1692
-4.10422
48.0852
85.7361
119.175
66.2898
-57.2399
-184.054
-255.739
-170.087
22.6751
208.988
352.89
383.668
338.49
287.865
219.725
90.817
-60.0176
-72.9667
-6.9532
34.494
34.2437
-26.2803
-110.256
-126.51
-80.4801
-11.8946
37.7668
73.4921
43.6696
-67.0009
-185.144
-191.055
-92.8099
-98.1302
-183.567
-73.8775
151.259
292.517
208.21
37.5722
-71.7648
-118.363
-112.168
-130.862
-142.748
-141.661
-194.397
-190.504
-81.9876
11.2433
45.5227
25.4492
0.133617
49.3243
99.3938
64.121
14.1823
-96.6854
-132.087
-0.763302
148.14
236.634
269.667
220.19
153.212
47.4587
67.4492
147.22
180.395
123.215
34.2487
-61.9693
-115.235
-116.422
-2.32989
97.678
64.0723
-47.5335
-122.463
-202.738
-214.885
-97.7971
56.0963
170.251
155.257
5.52525
-176.643
-327.705
-317.836
-107.454
29.0672
68.5434
51.1512
18.7927
-64.7048
-152.552
-31.4022
136.074
226.646
355.694
442.131
350.503
83.2422
-146.562
-250.605
-240.797
-182.024
-131.56
-161.582
-228.186
-154.733
-95.7442
-90.7262
-65.4136
-24.8367
-9.49943
-98.6986
-135.435
-45.8858
-17.2333
-94.5087
-172.149
-95.8901
118.133
277.345
335.605
492.346
621.221
517.739
248.704
110.93
102.066
61.3676
-3.30234
9.11724
26.2258
-122.224
-240.822
-230.528
-186.971
-152.511
-188.408
-163.311
-130.025
-85.2439
-31.0603
-78.3852
-124.453
-151.076
-165.837
-145.75
-151.213
-43.5976
107.988
166.203
240.02
255.853
152.632
62.8114
48.2662
-69.9234
-134.857
-112.607
-82.5176
-40.1552
33.4818
141.113
177.018
124.768
39.7468
-16.4236
3.22787
16.4639
-31.1685
-46.8198
-48.8969
-3.15223
-46.0281
-228.886
-268.639
-148.652
-47.5402
19.0541
132.143
224.244
147.302
-26.0412
-130.575
-28.7951
178.231
214.897
263.078
289.986
87.0886
-64.3983
-78.064
-51.8852
-30.1454
-12.0173
-60.5061
-58.6981
51.7217
141.827
65.9058
-123.22
-248.636
-275.457
-265.499
-246.658
-220.1
-32.1281
26.8282
-122.734
-21.4914
59.0614
-23.5982
-17.9299
46.1361
184.423
216.343
312.832
275.837
5.80546
-145.156
-72.169
169.639
290.939
344.718
480.853
513.428
112.538
-356.787
-480.963
-469.659
-422.744
-307.908
-167.42
-64.6772
122.124
259.12
148.179
-51.8778
-121.983
-151.593
-236.767
-241.267
-63.0266
93.4629
53.0301
-48.2141
58.0166
218.858
317.891
235.712
77.8435
-44.3796
-72.8187
-1.40638
-88.3989
-140.785
-100.32
7.67016
173.416
289.865
286.159
198.501
23.4332
-109.604
-213.933
-320.52
-319.889
-274.709
-133.431
-24.7107
104.128
191.976
257.074
340.901
303.368
130.031
52.086
81.6607
49.9716
-167.552
-278.759
-202.612
-140.712
-145.163
-167.155
-25.1234
59.814
91.8953
-5.40234
-12.1065
-67.3458
-120.644
-107.834
-177.275
-274.136
-273.551
-203.662
-57.8196
76.8191
238.151
350.405
272.993
193.288
44.9464
-20.5787
-24.6985
58.5339
198.529
236.277
245.78
333.334
399.813
199.466
2.40175
-111.444
-173.186
-256.877
-283.969
-251.098
-215.433
-182.724
-116.773
-161.669
-149.615
-49.226
7.97351
28.1216
153.752
315.299
323.184
129.265
-182.226
-334.675
-251.394
-139.159
-19.1233
67.1082
163.449
197.282
153.232
37.7002
-89.0313
-25.1584
180.502
213.815
94.9029
40.271
-132.755
-203.102
-129.831
-120.52
-90.6108
45.6981
61.877
-5.88371
5.37986
123.143
89.4802
-47.7653
-26.3067
4.0701
44.0154
96.2701
34.12
-47.6994
-123.368
-224.374
-248.374
-284.367
-310.395
-139.09
106.307
266.088
366.9
392.507
260.572
111.579
24.0872
-9.97518
-101.107
-122.643
-107.053
-119.167
-161.859
-118.796
-97.756
22.5596
234.029
340.875
306.499
147.423
57.5129
-68.8272
-162.295
-181.292
-159.728
-265.612
-352.814
-341.469
-200.047
-1.66203
152.533
309.325
412.612
428.208
442.164
346.651
25.9782
-278.983
-373.707
-270.857
-277.652
-384.96
-397.264
-213.759
-7.91911
231.499
566.576
663.229
390.591
244.202
159.312
-41.098
-229.322
-350.53
-345.225
-308.971
-160.583
25.0245
203.119
253.945
209.763
71.384
-31.2378
32.6302
26.3881
-137.701
-343.439
-477.173
-482.791
-422.929
-243.271
31.268
325.333
563.823
686.652
500.701
179.709
-54.2166
-235.591
-290.453
-173.755
-45.9265
45.7502
60.7489
100.02
121.962
36.0943
52.4156
144.938
139.741
82.2334
-80.9378
-324.204
-423.443
-329.786
-92.861
89.9928
129.355
135.191
68.4896
12.0054
203.372
384.383
344.615
200.458
-64.1437
-237.979
-250.823
-233.192
-169.476
-104.83
-127.741
-184.386
-220.717
-139.604
60.114
82.8727
113.396
293.432
343.154
166.389
-18.3806
-91.4905
-159.265
-178.78
-123.454
-102.275
-46.1979
2.44697
-2.3677
-36.4241
31.9706
220.581
401.416
273.519
-33.7325
-164.179
-215.6
-258.397
-193.436
-68.0386
32.5594
59.7422
89.1998
165.995
267.45
349.006
335.707
180.311
30.3981
-116.997
-288.905
-289.745
-242.363
-124.133
160.305
306.59
194.632
-40.872
-175.695
-206.981
-154.557
-63.3801
-184.362
-306.87
-347.358
-332.389
-218.606
99.0532
411.476
613.005
617.197
336.233
61.4179
-162.56
-492.548
-464.42
-107.711
124.687
108.661
149.523
195.995
52.3682
28.276
123.305
160.688
63.5546
-131.658
-210.898
-220.26
-225.67
-161.746
-39.5441
-8.12994
21.5805
95.7044
217.816
246.627
132.813
46.7947
-6.81132
-114.693
-228.197
-229.504
-190.771
-91.7722
47.8533
192.563
213.505
163.041
-33.3545
-298.572
-397.573
-209.553
59.4946
256.996
468.636
679.243
622.134
358.796
179.262
-17.9386
-185.932
-265.421
-261.793
-154.447
-162.233
-203.062
-200.168
-247.924
-348.28
-258.3
-63.0897
40.3435
30.3155
57.9745
-115.666
-394.724
-392.08
-193.266
-121.225
-57.762
75.9294
179.102
207.782
279.899
444.364
545.984
490.847
339.133
319.959
386.4
288.837
-4.70366
-247.012
-351.467
-364.453
-283.202
-118.065
24.478
-199.48
-473.103
-362.03
-91.7935
203.026
454.951
491.439
319.267
264.961
191.038
-104.928
-290.806
-241.467
-170.33
-151.965
-171.514
-296.368
-408.489
-348.191
-257.001
25.3805
256.757
204.59
56.3551
-115.441
-324.045
-293.392
-36.1124
-48.5909
-47.4916
343.451
543.781
418.041
343.857
293.913
159.749
85.1584
74.4633
-12.2093
-4.63795
88.5522
283.911
335.36
168.387
-118.538
-358.552
-415.377
-411.62
-297.914
-32.7966
71.6398
-14.0959
-6.38438
92.3526
117.218
-20.8033
-180.21
-188.204
-121.166
-90.6411
-85.5103
-135.075
-157.775
-94.2099
-16.0012
52.9509
-5.21248
-52.3157
85.7431
179.877
168.486
352.607
408.583
56.6328
-190.932
-187.777
-19.6269
117.354
131.768
109.895
149.106
217.716
178.66
119.068
66.7936
107.975
11.2787
-207.862
-389.213
-525.588
-552.478
-411.319
-272.11
-168.827
27.6516
324.824
572.71
473.241
259.376
121.913
-14.2755
-131.306
-108.172
-9.62527
9.58835
-45.8452
-41.9452
-45.8829
-166.268
-256.427
-187.138
-166.067
-22.4651
260.309
323.104
102.532
-113.026
-139.946
-156.529
-126.047
32.3617
73.4843
99.8417
249.707
385.636
267.219
167.479
274.973
271.817
104.222
-18.5817
-57.9469
-50.2627
-115.003
-257.994
-306.348
-307.914
-263.059
-75.6378
58.1849
15.052
-166.217
-369.49
-460.368
-362.86
-141.692
22.4685
99.837
363.487
457.255
334.999
253.03
109.014
-5.95248
-20.7516
24.1151
-24.8657
-98.6952
-138.611
-185.578
-67.6627
385.106
728.78
495.389
89.6798
-102.857
-232.534
-332.92
-375.027
-243.993
-168.985
-215.422
-90.6253
79.1907
147.023
245.262
318.841
222.562
91.4857
23.5891
-73.6323
-283.566
-398.161
-333.618
-204.953
-103.469
-45.6863
-7.58714
26.979
15.6872
3.54925
11.7198
-6.62458
209.657
501.882
497.525
264.198
258.849
185.994
17.6658
-148.877
-245.996
-321.125
-236.755
-101.322
-61.4293
-42.4181
-78.2351
-141.963
-96.6402
143.297
187.202
98.7292
-160.431
-360.448
-213.227
50.0934
111.15
224.814
374.42
241.664
11.2868
-95.9731
-193.051
-271.669
-170.87
3.67349
181.265
308.248
238.343
-65.5682
-294.298
-341.932
-250.893
-16.3768
215.971
237.238
-5.07309
-150.268
-149.213
-11.0582
133.262
192.54
145.976
76.4906
87.741
150.424
179.156
117.277
-26.779
-156.993
-95.8136
-64.0297
-64.9927
-118.387
-173.926
-181.95
-151.412
-146.342
-119.561
-88.4892
-18.66
26.6608
93.0497
158.353
165.684
142.721
144.181
232.57
376.208
333.717
190.537
78.6564
-8.27061
-192.884
-458.487
-549.021
-412.649
-226.755
18.2987
308.546
438.427
335.507
147.301
0.836378
-141.599
-236.452
-312.351
-366.739
-296.63
-65.4107
17.8125
-37.5186
-41.2141
69.7395
174.887
333.825
425.516
229.905
-117.9
-312.311
-349.686
-72.275
294.346
323.667
204.827
120.472
132.633
119.613
-21.6447
-113.04
-99.6121
6.87986
129.819
161.427
32.9667
-220.803
-333.299
-165.984
73.6538
72.0712
-14.1038
-171.629
-300.946
-196.854
-92.4054
-110.053
-181.345
-219.069
-198.672
-200.523
-43.1883
310.178
447.678
478.761
473.555
382.069
218.601
8.17652
-243.426
-329.362
-309.272
-224.681
85.5069
433.447
527.137
350.493
0.102783
-134.273
-53.0446
27.6273
23.5888
-134.553
-296.662
-435.342
-482.722
-335.931
-125.814
23.9441
140.56
186.166
233.439
215.103
66.0914
-156.891
-275.723
-164.301
23.1513
93.6222
91.1051
126.2
101.712
32.7486
6.15497
-67.1622
-131.133
-112.536
-61.7861
-49.1031
60.6318
245.04
261.767
143.446
202.72
321.67
261.828
55.626
-34.3859
-76.7408
-78.9429
-63.186
3.46035
-33.0223
-123.072
-191.169
-195.142
-232.42
-220.89
-123.634
-90.2898
-94.2066
0.687425
180.035
120.612
-53.2202
-93.3374
-54.0204
-22.416
-58.7135
-65.3288
-8.45986
-64.2566
-62.4546
8.75142
91.0593
247.064
413.643
376.831
227.49
141.17
98.2917
-1.54043
-179.154
-349.772
-391.401
-318.595
-213.155
-94.7608
0.591704
83.9422
190.45
291.326
336.607
292.738
149.74
-19.0875
-165.246
-166.908
-114.438
-61.991
-17.4373
-11.1492
-88.692
-127.533
-121.616
-6.90405
210.612
215.859
81.6904
17.4159
36.0173
-14.3387
-73.2821
-114.263
-117.916
-113.604
-128.685
-122.817
-59.8367
-31.5347
-69.2539
-106.896
-16.8685
26.4693
-6.27715
-83.8614
-118.309
-37.9395
95.0733
196.556
287.457
294.206
183.562
77.0623
74.8938
58.3827
38.4606
71.6944
81.0726
55.8735
12.5218
26.2456
62.5697
42.913
40.2066
0.722817
-43.4011
-109.286
-181.081
-230.06
-199.689
-97.4854
-108.37
-187.35
-236.566
-206.914
-137.718
-51.5833
73.9038
151.422
139.902
224.11
145.66
-19.9472
-77.6965
-36.3079
-35.4732
26.1604
108.892
70.8301
-35.0056
-9.0495
33.899
29.0394
129.669
312.751
257.444
30.7843
-148.393
-238.755
-234.723
-190.7
-78.7648
-21.7368
28.9775
83.6879
99.5723
131.187
218.408
246.343
119.056
-63.1237
40.7821
332.709
302.091
39.2058
-110.618
-176.417
-249.172
-309.966
-356.101
-425.29
-394.31
-276.425
-124.262
46.7173
211.438
313.039
328.136
185.164
14.0085
-98.1833
-218.591
-258.144
-138.552
-42.2275
43.9825
106.762
165.121
181.676
159.263
131.706
144.012
176.088
127.266
24.0961
-43.7807
-77.951
-126.182
-191.181
-200.439
-153.093
-154.43
14.2437
400.68
574.85
471.148
330.08
192.609
47.5386
-111.029
-204.922
-141.331
-77.8164
-194.79
-319.161
-316.943
-230.03
-58.797
61.7374
-75.1781
-207.808
-178.965
-190.572
-221.662
-167.701
-61.9047
13.2548
23.8419
67.9826
153.015
125.46
83.8493
141.464
211.029
179.986
37.8829
-123.5
-272.306
-223.601
52.1375
405.344
732.576
639.686
179.381
-175.165
-230.332
-246.161
-290.298
-283.88
-98.3697
164.392
213.31
194.88
347.17
334.971
102.949
-39.5657
-67.4822
-42.1496
-70.8224
-228.555
-501.058
-580.24
-461.626
-281.926
-148.673
-14.7407
69.407
106.94
62.6229
-12.1021
11.7589
61.0495
-43.8595
-20.2187
154.381
245.553
204.532
101.311
31.2549
-12.2671
-20.3172
7.6118
109.324
262.806
271.686
182.279
153.001
102.83
61.0616
25.7133
-111.585
-248.092
-195.953
-153.286
-151.262
-19.4967
252.307
228.995
7.68989
-148.231
-197.664
-139.106
19.5541
109.593
96.5308
55.3982
-36.0379
-122.552
-175.92
-246.654
-277.626
-227.199
-187.305
-132.157
-11.6228
63.8908
37.0192
137.393
247.009
245.748
167.462
82.5302
-139.015
-338.992
-202.818
3.75962
141.805
348.039
461.715
392.774
302.869
272.877
115.435
-101.35
-187.108
-268.279
-351.84
-243.158
-55.707
-4.4715
20.4816
137.849
230.455
166.33
-17.7811
-108.019
-91.2589
-201.453
-347.838
-314.566
-208.507
-190.979
-137.72
22.4225
97.8614
93.921
68.1471
84.8911
135.158
189.961
176.955
57.1963
29.4925
8.38923
-40.4112
-29.0522
39.1189
63.8693
54.4383
24.0873
-20.8812
-49.6835
13.6942
60.9009
35.1159
62.4399
212.563
277.964
183.123
-24.9258
-112.67
-155.142
-221.889
-144.876
-69.1411
-101.495
-79.8372
109.15
176.221
70.5788
1.90286
-40.5463
-130.506
-216.974
-281.722
-409.58
-416.74
-235.513
119.406
483.188
660.002
518.181
180.447
-120.244
-245.071
-263.452
-253.359
-171.33
99.4638
334.577
381.56
300.421
138.075
-42.613
-56.8647
-24.6797
-146.634
-313.675
-402.326
-396.442
-425.699
-321.55
-23.3105
376.45
519.917
444.06
249.79
80.9095
-9.62966
-28.3889
-29.8382
13.1404
72.1744
184.764
288.228
204.972
24.1743
-142.333
-249.013
-207.194
-136.41
-103.049
-91.1952
-128.9
-142.369
-166.228
-100.996
-106.04
-217.573
-225.885
-78.4974
85.3456
261.152
446.09
458.105
307.395
106.74
17.4803
2.71055
7.92664
6.93563
-21.3936
-45.9222
-85.1185
-94.5116
-16.9026
11.5611
-38.1135
-74.5928
-133.866
-188.938
-206.05
-236.675
-237.939
-151.988
-62.2824
-17.916
15.4624
123.178
247.879
325.525
290.386
92.936
-13.822
127.066
322.444
340.611
223.446
89.794
-14.3032
-165.345
-255.797
-245.639
-303.866
-380.506
-180.012
-9.39376
-13.697
-19.6415
162.535
329.076
233.683
60.1221
-87.4599
-189.951
-215.367
-162.49
-164.715
-261.506
-236.376
-50.9168
47.7385
116.857
246.428
227.816
164.937
231.347
289.725
298.292
42.044
-272.863
-92.4391
242.793
260.156
40.2439
-155.58
-238.103
-201.692
-100.926
-95.2741
-103.687
-63.0302
-115.804
-203.562
-67.319
135.92
171.685
75.3123
-35.6933
-157.974
-170.021
-146.252
-51.2629
100.639
200.419
195.868
142.016
96.105
140.906
150.692
30.7715
-59.7669
-77.3453
-96.9608
-29.4956
91.8254
95.2109
108.699
35.5672
70.412
131.589
8.29168
-154.599
-276.337
-288.35
-206.374
-42.4843
94.9803
83.0508
6.89949
-32.9264
53.0029
93.5796
135.697
108.068
-22.3828
-47.3508
-31.3021
-149.596
-266.247
-198.37
-164.364
-128.104
-4.68341
126.191
130.754
26.6301
-64.7264
-58.4276
40.3336
196.946
256.877
363.478
387.836
269.329
28.8458
-159.147
-108.505
17.4439
-15.7722
-142.524
-209.292
-205.173
-156.705
-73.2386
103.883
155.803
30.7912
-75.5168
-131.926
-126.849
-89.8976
-68.3346
58.9945
222.188
225.781
27.1663
-155.887
-175.425
-118.527
-128.351
-106.488
10.4531
87.9972
10.7433
-85.3152
48.1978
250.069
330.199
284.815
189.735
11.0952
-162.511
-259.551
-281.243
-245.902
-130.31
-75.88
-131.605
-62.2797
217.383
343.756
203.282
145.47
207.967
104.03
-28.4955
-28.8949
-27.8584
-20.28
-10.5784
-41.8886
-49.4857
-73.3011
-103.573
-65.3745
-56.2336
-25.8495
126.218
177.134
-3.26903
-111.814
-119.236
-156.775
-195.255
-142.966
-35.5169
37.0559
53.988
59.5085
81.2655
113.568
70.046
-29.8646
-116.611
-125.207
-87.386
-113.943
-160.012
-105.891
-8.34507
88.0653
242.702
343.972
268.581
151.74
95.8818
-1.5769
-78.2361
-98.9511
-90.1775
55.0403
207.923
211.569
201.758
197.048
214.252
88.2664
-103.738
-259.769
-331.625
-292.643
-238.33
-206.598
-146.299
-61.4824
-139.783
-179.248
-42.587
178.817
159.079
-17.7436
-100.705
-111.586
-131.313
-104.424
-55.8384
8.38588
66.4148
87.3138
130.165
201.489
237.869
164.617
101.834
132.492
173.366
122.274
-5.11923
-176.218
-216.601
-27.0195
129.167
100.308
113.96
209.373
177.301
62.9341
50.1044
20.6014
-102.19
-187.72
-198.01
-195.6
-151.854
-147.685
-166.655
-116.135
-116.257
-62.5519
12.8139
-137.091
-293.861
-138.087
5.37301
-1.72322
-11.6452
190.906
301.603
324.195
301.5
222.467
53.6182
-61.2278
-126.748
-193.48
-96.9013
37.8543
69.311
13.2016
14.919
133.27
254.54
180.975
18.9847
-3.59685
59.5459
-18.5388
-146.79
-245.624
-286.675
-213.444
-92.3163
66.9269
174.102
140.54
60.7729
1.25427
27.4241
5.00701
-59.9186
-129.049
-224.129
-183.305
3.37913
51.9515
-44.4387
-52.6891
9.60628
11.5353
74.5761
80.9868
24.4407
11.2387
98.061
159.692
121.146
115.344
178.881
132.817
22.7556
-40.1567
-11.3545
36.4785
-80.4688
-245.464
-160.09
-90.9582
-139.116
-86.4853
-48.4127
44.2122
305.781
528.554
412.262
128.462
-60.4185
-177.603
-240.474
-249.567
-236.183
-193.997
-205.695
-228.831
-183.499
-111.661
-97.2601
-57.9239
34.0479
139.171
231.063
192.613
32.6873
-150.609
-184.5
-16.9464
201.235
281.375
198.889
137.58
120.936
68.7848
7.07445
-105.401
-221.726
-178.832
-53.1353
100.72
244.924
371.583
408.415
248.822
-38.1066
-258.949
-288.916
-232.114
-207.738
-159.329
-74.7743
12.7201
5.9253
-65.7063
-102.77
-44.2
-8.43542
45.9864
199.69
238.419
99.0351
-71.0717
-159.032
-78.6551
-84.9342
-173.094
-130.776
-7.93506
-31.5544
-22.5401
123.145
178.458
119.865
90.2826
95.8707
25.7925
27.0119
50.8202
-57.6195
-177.489
-174.367
-152.542
-115.792
-57.998
31.3251
114.828
108.555
43.9186
37.4092
25.016
74.7337
209.48
215.98
61.411
-178.981
-194.719
-48.5715
92.8386
288.245
467.143
293.112
-106.163
-299.358
-212.322
21.0787
150.424
120.585
16.9185
-184.752
-284.541
-355.637
-391.509
-290.797
-80.1757
150.367
175.411
78.8006
-74.3644
-264.44
-352.754
-228.879
-13.1199
80.4701
53.4996
50.3642
115.916
144.531
157.707
213.793
217.795
152.06
175.329
242.08
149.666
39.9361
1.0803
90.0283
223.17
218.446
138.736
131.539
148.396
72.8515
-105.026
-205.222
-221.3
-212.839
-265.888
-240.692
-174.091
-188.305
-224.693
-217.079
-113.523
7.64583
28.5845
-78.8747
-171.82
-191.085
-138.394
-76.8918
19.7759
202.067
290.163
216.018
163.789
104.048
65.417
79.741
115.733
174.49
203.317
163.785
32.4155
-18.4443
45.3204
143.113
178.259
118.542
-68.2012
-175.148
-244.191
-278.841
-170.596
-79.8188
-124.228
-91.667
20.1875
11.1301
-49.3405
-43.4568
-32.5021
-71.5214
-38.5944
34.9311
13.2358
-146.242
-197.351
-106.616
-8.27403
154.759
305.67
298.089
112.272
-37.5997
-7.59548
115.067
129.95
9.01712
-150.741
-258.911
-239.629
10.6829
342.762
559.468
505.484
245.688
-12.4579
-169.747
-259.076
-278.908
-317.996
-357.818
-288.368
-42.9252
218.088
230.508
68.2438
82.4914
148.866
108.828
-5.59822
-226.205
-386.842
-442.856
-378.617
-219.363
-9.42913
145.031
196.824
256.822
338.944
350.659
363.458
240.947
-50.1071
-235.674
-176.812
-96.3885
-83.5163
-74.1406
-39.2961
59.6412
134.156
77.2588
8.43961
6.89755
-66.5824
-147.716
-112.536
-90.9232
-98.4082
-92.7633
-65.4562
3.96873
102.248
224.413
286.215
251.883
202.555
150.204
144.084
69.564
-50.1433
-117.432
-201.442
-214.187
-196.056
-157.16
-88.6283
-56.2739
40.9605
78.5869
6.56392
-94.8057
-132.624
-113.985
-83.1723
-13.5076
37.9675
95.2141
99.8839
76.7683
36.935
8.69068
75.6293
102.37
62.2719
32.6944
14.902
-54.5267
-159.278
-223.31
-221.611
-118.737
50.3388
83.8032
83.2847
167.511
195.595
136.544
-5.57584
-66.6318
-77.4465
-9.38809
108.623
174.831
115.189
-9.19982
-51.3936
-32.6823
-28.3632
18.4003
139.903
194.363
28.2865
-97.6145
-43.1353
1.45894
-5.36601
-96.0957
-116.542
-141.287
-178.627
-219.006
-248.066
-202.726
-82.6604
101
160.709
104.608
50.3163
13.5955
-12.2091
-56.4784
12.9231
73.0135
-6.12337
-108.098
-129.437
-76.3015
77.1917
312.897
338.954
166.567
39.8214
-43.9244
-101.54
47.14
314.336
497.133
494.252
367.268
82.5784
-230.481
-408.83
-476.517
-429.681
-306.61
-255.91
-140.421
-27.1649
-20.2213
-26.2991
45.3458
74.9851
23.6711
-15.5617
-110.953
-193.375
-211.143
-226.69
-111.724
54.199
123.818
86.2301
124.844
155.823
94.9676
235.179
327.409
180.263
-26.1046
-41.5354
-26.4603
48.9785
156.939
249.752
167.654
-56.7563
-220.415
-216.715
-172.092
-69.9472
91.4475
226.549
183.418
57.6854
-70.1833
-183.8
-170.995
-50.8221
49.3986
63.3113
3.48973
-114.089
-203.95
-113.037
81.9345
126.694
3.90103
-70.1428
-102.422
-192.935
-216.858
-134.169
16.5041
166.409
310.166
364.128
230.356
-37.4163
-103.945
-82.212
-86.6247
-68.3878
-19.4099
-10.0655
-51.2907
16.3897
64.0219
9.89242
-106.19
-155.709
-123.766
-137.154
-140.115
-66.6996
32.6775
36.3511
83.1556
277.038
392.204
300.164
205.695
161.014
57.6057
-146.971
-284.372
-327.972
-282.611
-141.037
135.223
308.024
258.144
189.056
108.115
21.5241
-173.273
-305.126
-254.739
-239.286
-236.265
-88.6208
49.8601
126.054
172.354
157.914
54.6682
7.01884
75.2839
132.548
-7.48979
-117.398
-62.2679
38.5358
166.284
190.641
53.1438
-84.491
-234.229
-276.296
-205.849
-94.968
88.2101
295.979
316.968
160.708
-31.6622
-86.4923
-92.2843
-181.141
-181.154
38.5936
143.19
31.9776
-44.7521
-83.5002
26.1459
168.674
175.755
52.3072
-93.6909
-224.438
-263.991
-295.216
-204.473
-28.0727
116.524
120.959
123.457
182.614
359.36
448.541
172.949
-189.346
-363.179
-202.725
46.8278
235.811
241.522
139.793
-12.1723
-91.1358
-194.463
-280.056
-247.56
-155.283
-17.909
39.0764
113.03
256.421
187.615
-116.801
-189.071
-19.9361
83.9077
8.07939
-83.0754
-160.815
-182.484
-188.234
-184.416
-113.757
38.3841
206.827
386.503
452.553
338.906
136.894
-20.296
-87.2417
-134.345
-183.182
-152.054
-11.4058
105.947
70.4757
37.6316
41.6036
42.3635
41.1691
53.6414
69.5831
18.1649
-147.17
-332.916
-388.196
-247.129
-9.8507
62.9862
8.45957
-56.1633
-23.8818
46.9344
-15.3206
-83.3607
99.0332
285.196
220.128
177.171
214.71
250.189
132.06
-91.2408
-152.975
-183.108
-202.102
-71.4458
49.041
35.5082
54.8167
77.0562
93.3226
85.6361
9.28338
-78.1368
-146.641
-234.779
-258.423
-204.491
-98.8711
-72.9896
-22.5555
93.8142
181.836
233.607
276.63
161.186
-69.3178
-192.415
-242.82
-126.152
46.5815
103.524
77.4779
74.051
17.6715
-97.3633
-154.289
-128.299
10.4888
139.069
240.393
266.37
231.022
173.004
52.921
-97.5682
-75.5467
74.8577
30.9213
-123.114
-211.107
-167.335
-60.3054
-44.0715
-124.935
-157.408
-53.0819
113.387
160.505
184.276
98.0317
-88.7372
-232.88
-339.261
-354.539
-216.829
8.11931
150.112
267.207
326.769
290.489
139.892
36.6804
39.7512
77.0508
123.377
89.9451
-11.8024
-50.7991
-104.2
-104.483
-24.7144
38.8058
80.4045
22.2539
-47.6762
-137.224
-240.599
-294.173
-283.443
-280.252
-216.734
37.0388
288.278
369.962
391.348
466.12
324.627
13.3551
-218.729
-287.321
-203.931
-104.741
-47.0374
20.5644
27.4778
3.94077
0.760069
6.42615
-30.5758
-63.1831
9.29995
35.3206
-14.7346
-50.894
-101.132
-168.839
-172.923
-144.074
-38.8547
55.8578
133.539
363.216
559.317
412.532
158.236
-38.98
-136.092
-134.485
-92.7135
24.9077
108.253
67.5112
-24.9241
-151.927
-244.968
-292.351
-286.196
-219.638
-114.358
16.8976
120.536
10.8244
-79.5567
-28.8154
29.9775
127.196
168.816
102.709
4.29864
-82.3499
-154.023
-131.359
-81.8439
47.9151
235.91
347.939
365.31
313.056
145.571
-3.12375
-134.425
-269.67
-343.265
-239.624
-84.6773
-65.402
-106.807
-50.2728
-16.3287
0.0241449
95.3099
204.754
302.114
253.065
67.4834
-127.809
-149.893
-70.5357
35.8626
59.2622
-5.70207
-12.869
-21.9536
-43.1314
-78.9523
-147.8
-299.967
-252.192
-65.4679
104.093
460.686
674.044
403.247
46.3827
-112.712
-118.32
-124.636
-157.45
-183.763
-174.365
-162.639
-180.738
-186.711
-169.55
-125.864
-67.5702
41.7588
57.4454
110.926
185.639
43.3324
-167.576
-165.099
-42.6308
92.382
151.011
192.606
174.915
97.281
38.6988
24.049
14.1615
8.01848
36.564
12.6876
-9.56851
107.012
215.488
191.455
141.721
122.989
-51.6598
-236.697
-118.426
100.969
42.868
-90.1735
-114.218
-90.5673
-112.156
-139.01
-174.076
-70.7334
104.017
133.964
90.506
25.3115
-26.1653
-105.235
-198.606
-364.191
-436.138
-307.518
-214.436
-205.475
-40.7229
279.059
535.231
508.92
301.586
171.611
124.609
41.0179
-51.3596
-22.5611
138.269
253.985
156.245
10.7707
-41.857
-93.8609
-144.21
-157.584
-106.104
-0.979616
31.0364
-46.8066
-59.6052
-42.6175
40.6864
82.4364
87.3349
69.7334
36.6249
-17.5428
-116.725
-162.195
-68.3545
1.70545
-63.695
-114.32
-37.5781
87.5604
67.3407
-76.6861
-137.531
-188.555
-280.32
-257.768
-220.769
-167.495
12.9101
221.571
380.143
459.412
383.708
291.561
231.895
118.843
24.2773
-32.1707
-67.9709
-128.396
-132.96
-192.265
-242.063
-121.346
-38.9948
51.3444
268.209
407.246
160.609
-135.409
-297.095
-256.59
-73.9549
18.442
-69.5047
-117.94
-85.3722
-9.09887
75.3397
138.165
130.165
163.407
213.219
114.728
-19.5454
-146.45
-286.418
-363.639
-233.718
-84.65
5.86622
46.2524
122.483
184.408
96.1576
65.5017
83.682
73.029
53.0647
133.772
109.534
-20.8075
-127.856
-150.518
-150.323
-135.323
-124.903
-103.112
-94.4234
-23.7231
116.164
142.502
215.551
289.814
209.331
5.46509
-87.4844
-29.1715
88.664
73.7095
22.6786
-38.1712
-130.222
-220.048
-254.511
-162.171
68.0923
331.059
429.131
324.264
109.097
-97.1238
-325.702
-439.046
-295.448
-74.0752
-7.71421
-70.621
-138.969
-164.432
-156.413
-77.5616
50.3155
184.902
266.256
349.269
272.877
68.5405
-36.4615
-162.301
-287.832
-259.942
-162.761
-104.671
148.621
530.515
595.979
344.615
47.7419
-102.325
-110.528
-58.4305
-20.8733
-94.3693
-150.26
-177.746
-171.943
-90.8651
-32.6918
-58.4883
-72.7706
-19.0766
40.8005
136.639
221.493
3.7386
-180.653
-129.815
-20.8378
-25.1004
-32.3902
-49.0242
-62.1257
-77.884
-10.3204
67.1449
152.503
171.353
146.688
103.211
54.7568
-49.9982
-203.251
-215.076
-113.869
36.019
141.766
118.188
57.2627
44.2499
10.5424
-17.7889
-46.3446
-94.0878
-163.008
-147.999
-8.12015
142.667
261.621
363.643
337.126
188.56
-10.1883
-198.377
-371.373
-370.458
-259.117
-62.0579
114.902
105.691
37.6288
-13.3216
-5.4333
94.24
156.529
101.319
-79.3336
-255.616
-317.815
-223.948
-50.418
155.313
348.922
313.924
22.0197
-247.948
-315.194
-276.34
-221.346
-18.0272
347.764
678.65
693.951
427.066
186.802
7.42494
-182.141
-353.554
-402.708
-378.426
-305.605
-111.279
22.8272
38.0804
-0.0252795
-45.0033
-30.8152
75.3014
179.911
167.764
47.8947
-139.801
-278.846
-251.92
-130.242
-26.0442
145.39
351.522
321.066
174.106
128.762
75.178
-1.77571
-112.534
-199.766
-217.029
-146.566
-42.9822
-9.97167
7.62215
5.7493
8.26273
16.8711
79.5705
117.444
147.702
183.585
120.55
-82.2517
-173.046
-184.735
-273.778
-257.855
-86.6967
112.685
295.559
269.225
108.873
-92.2657
-181.412
-165.986
-29.862
179.192
292.436
271.107
60.4314
-188.599
-277.135
-99.3059
64.9969
49.3848
3.49525
-50.7351
-142.588
-210.019
-149.79
20.8068
175.008
201.237
188.877
174.568
88.9972
16.0015
-51.6805
-15.8647
137.874
146.79
-44.8241
-130.953
-141.498
-126.306
-90.0578
-82.3118
-3.71222
66.417
-38.1885
-124.957
-155.004
-139.173
-77.8399
-100.221
-190.47
-171.322
-32.1231
57.4506
70.9317
99.0374
172.403
218.12
239.516
230.251
85.1826
10.8509
-5.23592
-47.5916
92.2714
467.746
641.655
400.112
62.8633
-134.714
-231.71
-355.954
-442.773
-474.217
-432.353
-321.39
-196.513
-102.708
-16.3788
58.4307
89.7866
61.364
21.7872
37.8992
13.4451
-200.162
-336.31
-124.878
135.802
312.877
391.022
358.963
268.462
110.918
94.0885
163.793
140.723
83.6548
66.8921
5.22342
-39.7132
-110.816
-156.039
-78.3094
-61.2859
-154.112
-52.8833
35.0463
-148.155
-306.579
-235.226
-59.893
144.047
411.026
475.296
234.882
-18.3714
-169.795
-240.458
-284.729
-246.131
-75.3619
115.251
117.563
-20.4743
-65.9856
-171.322
-238.963
-163.274
-123.415
-105.221
44.8422
121.591
103.414
93.0289
103.686
141.098
127.032
59.2342
16.0026
84.9401
123.256
61.1327
1.71807
22.1231
33.7928
-6.27984
11.5075
43.682
60.1021
47.2437
-36.2346
-34.0049
61.9665
42.2036
-29.43
-45.3551
27.5522
149.602
211.851
40.5207
-135.901
-91.7387
-22.3752
-11.8809
-22.8088
-138.923
-202.686
-228.614
-358.155
-395.315
-248.405
-76.326
159.127
466.815
441.475
243.24
49.0512
-174.643
-257.958
-119.592
10.2081
-11.69
-63.4766
-100.052
-131.163
-58.8697
74.5682
298.05
530.131
574.372
367.547
55.4562
-295.729
-551.693
-470.093
-302.272
-200.12
-143.738
50.772
285.798
295.14
255.131
297.048
348.334
215.044
41.8052
-32.9045
-78.4336
-98.3612
-115.268
-112.37
-125.415
-233.305
-333.86
-289.176
-244.5
-215.11
-133.586
-104.944
-16.3588
207.691
340.183
267.23
96.226
-1.60704
33.2357
181.853
363.572
365.902
155.648
-40.047
-118.324
-124.401
-169.56
-198.475
-91.788
19.8204
51.4178
10.0229
-41.6964
-72.3605
-151.886
-204.674
-195.429
-111.887
-24.6224
56.8395
67.1216
16.8977
-7.41579
42.9188
113.588
130.624
131.216
137.815
121.604
114.666
40.6534
-42.8188
-65.1175
11.3753
-8.15391
-68.4375
-30.0413
39.8901
12.4839
-121.476
-195.4
-105.598
-20.9272
-59.0036
-104.753
-132.866
-10.6333
144.769
129.545
77.5835
238.995
368.734
195.93
-61.4758
-178.358
-162.911
-128.587
-59.2863
38.2804
46.9092
31.2154
7.30435
9.4438
-30.9889
-101.147
-110.015
-75.0177
19.4137
145.653
170.423
7.90373
-178.599
-217.715
-186.249
-51.8335
128.523
228.419
173.625
37.4938
-45.7772
-97.242
-153.688
-138.388
-44.0283
-23.2365
48.0394
104.982
67.3193
-17.4543
-107.514
-97.2052
-1.74592
58.9531
111.212
296.628
275.882
94.8566
-9.34748
-61.66
-88.0682
-121.136
-85.5104
-58.0209
-28.2811
96.745
187.481
68.457
-138.514
-185.94
-119.456
-85.6565
13.93
168.89
234.45
59.7085
-65.4713
-30.2347
59.8387
20.0791
-85.1985
-168.97
-141.279
-21.272
64.6177
54.8994
-51.7738
-146.448
-118.175
4.28429
246.225
329.26
132.001
-62.7378
-167.28
-194.99
-134.026
-123.692
-110.71
-29.6212
24.3973
36.6049
8.71822
-35.7613
-11.2169
93.9756
81.6472
18.3403
-7.93323
-53.3206
-134.816
43.626
236.015
192.841
-23.8168
-140.39
-91.1065
70.4408
117.356
68.6404
151.422
204.255
150.396
82.1262
30.44
25.8895
-14.5424
-46.432
31.3078
199.192
145.772
-129.321
-313.009
-352.022
-337.9
-295.699
-209.757
-78.6747
-8.16499
16.3196
45.5552
69.5545
57.3091
43.5926
61.5294
-15.059
-26.9144
96.152
144.852
35.5406
-99.5051
-138.46
-98.1437
3.32348
229.151
314.599
201.658
40.5254
-63.6994
-90.3313
-64.5489
32.5459
71.135
81.5859
147.772
231.604
176.058
62.8408
-63.8392
-202.053
-281.681
-295.7
-195.185
10.2034
229.855
323.166
233.83
9.15975
-143.362
-107.706
-132.961
-215.157
-178.355
-113.088
-178.959
-327.169
-313.001
-226.105
-141.09
91.8421
441.194
542.7
345.594
140.766
-60.5283
-176.786
-148.352
-63.1641
64.1422
225.815
300.503
65.3281
-37.8599
45.7691
-39.267
-142.861
-26.7604
108.433
71.3523
77.891
183.202
221.755
106.734
-54.8496
-185.064
-209.247
-137.995
-55.9055
-82.6047
-285.64
-382.85
-230.481
-76.9505
30.2875
196.369
226.667
101.89
21.5228
54.143
73.9237
72.7873
11.5708
-45.8249
3.74919
46.3353
-52.5849
-104.302
-3.6827
38.712
50.0659
109.892
220.986
222.642
84.0444
-42.1843
-86.0511
-93.9384
-111.139
-87.0545
-7.90586
-42.4325
-107.767
-105.409
-180.472
-278.679
-215.424
-81.6059
7.84078
164.569
288.409
400.117
385.878
197.396
81.7631
58.511
28.8211
-64.3198
-95.7842
-76.4791
-105.131
-180.483
-206.644
-151.139
-97.4308
8.01144
124.897
153.702
100.366
-28.8324
-152.053
-217.395
-141.942
-43.957
-63.8884
-121.066
-131.952
-125.29
-121.281
-32.7817
100.806
191.362
237.64
211.756
339.696
510.394
539.454
524.69
435.031
147.252
-156.275
-367.846
-423.856
-399.715
-400.454
-442.762
-416.187
-297.224
-129.06
15.2197
106.13
156.868
225.613
244.843
57.4225
-151.687
-250.529
-290.333
-303.551
-201.386
-4.52399
107.436
71.6481
115.406
198.527
277.942
395.415
419.317
292.824
104.344
-32.1561
-84.6603
-120.793
-78.5679
-24.8129
-14.1386
-110.425
-210.678
-99.1241
-12.7733
-39.9226
-13.2213
55.9798
155.207
273.362
377.897
291.103
77.8685
-76.7838
-175.385
-271.28
-327.446
-247.7
-99.5346
-12.4769
-0.996798
21.3785
62.3751
-115.096
-248.789
-119.207
80.5962
83.8566
-60.7886
-54.1698
-3.76688
-61.8053
-92.1209
-16.1373
16.111
-1.332
1.0534
-66.3442
-101.493
-46.3274
28.0466
168.765
234.523
166.387
185.384
226.409
134.108
40.1955
64.9728
93.8751
-1.32113
-52.5635
-38.4788
15.8171
93.8577
168.612
117.967
-37.2451
-174.917
-256.135
-227.615
-118.079
-26.0258
127.795
195.094
82.0174
-62.5186
-135.398
-186.933
-230.239
-227.576
-202.31
-147.012
-27.9731
88.2502
86.4168
71.0955
130.792
208.14
212.514
126.414
-29.3374
-145.457
-128.688
14.9742
41.4241
-34.8881
-71.5257
-56.6355
-56.6659
14.0549
115.296
216.653
196.596
195.75
189.705
43.3394
-25.4479
-26.1326
-38.7039
10.1049
146.799
89.3386
-141.462
-356.456
-425.573
-338.429
-123.007
62.5667
106.922
109.323
207.791
195.092
5.60971
-168.85
-195.192
-52.6656
54.2882
21.9821
-26.7279
-45.3246
-116.354
-116.998
118.221
345.556
316.403
178.625
121.751
98.2568
31.2504
-73.3415
-174.874
-102.809
-42.3887
-84.8124
-57.8565
-46.4732
-109.545
-78.6204
13.5517
21.4211
27.9965
10.2238
-98.5893
-187.625
-190.078
-173.723
-93.4979
35.9939
78.4881
166.295
282.651
192.389
58.677
8.59852
14.9273
70.5719
152.499
145.05
103.348
23.2789
-105.458
-95.4509
-57.6287
-92.3495
-112.98
43.5449
194.191
116.643
67.9705
84.7918
11.6966
-81.2287
-115.927
-121.322
-115.975
-108.004
-145.403
-194.836
-217.323
-125.49
39.537
106.526
106.675
81.2699
138.716
135.681
-34.1372
-162.722
-162.883
-182.092
-201.984
-24.7832
159.658
175.647
61.1515
-43.3063
-4.80293
158.656
293.575
327.722
285.855
184.539
-17.8631
-135.442
-66.8046
-45.6582
-75.3904
-102.53
-150.94
-255.077
-233.457
-88.3424
97.2014
203.417
206.895
128.626
60.1159
40.1195
106.151
109.034
15.3905
17.0976
56.2712
-3.82466
-146.258
-241.537
-254.531
-219.051
-190.201
-117.041
-54.6412
-87.5543
-138.384
-139.278
-25.289
157.05
236.279
147.315
-50.4503
-190.649
-221.262
-211.332
-144.865
19.8644
222.32
379.749
384.626
266.2
155.362
232.538
530.84
706.323
510.707
181.281
-73.0809
-253.2
-344.066
-362.513
-383.585
-371.02
-349.209
-284.356
-188.04
-126.088
-129.923
-174.536
-187.175
-106.523
8.73673
11.2018
-186.8
-356.651
-244.38
-65.1046
4.64838
145.928
276.09
316.009
403.482
492.479
481.091
321.532
151.565
-17.6228
-92.4612
26.3795
141.235
315.579
556.086
423.389
-19.2298
-330.342
-403.818
-361.218
-295.886
-345.183
-377.257
-350.639
-227.577
-116.36
11.253
128.777
121.146
88.6194
45.0672
-42.4948
-57.8752
-90.5217
-237.712
-221.883
-127.254
-42.4708
42.0097
116.392
139.083
191.508
275.688
204.918
47.9745
32.7524
85.8144
78.3943
119.553
200.879
151.08
9.17835
-117.639
-279.492
-407.344
-317.444
-9.54095
243.238
364.893
523.315
567.696
313.619
38.4908
65.0326
21.5215
-185.424
-360.266
-398.605
-349.254
-275.765
-205.25
-155.177
-82.3104
-7.15677
19.1977
-63.7245
-157.974
-191.062
-172.078
-206.683
-219.399
-90.1254
81.411
104.021
63.6858
119.865
316.586
420.372
290.451
203.755
279.605
280.333
133.915
93.2795
122.033
79.4258
-31.2348
-116.881
-165.384
-198.314
-166.196
-86.9072
-59.1509
-86.7911
-91.9114
-157.79
-288.049
-243.182
-36.6455
62.6894
67.0752
214.203
346.778
321.414
312.167
237.922
36.9986
-144.194
-209.592
-219.483
-149.612
-91.3608
-105.225
-172.042
-218.749
-214.614
-148.83
7.56889
154.284
298.175
310.503
140.587
-51.3294
-176.852
-269.201
-240.74
-69.4491
23.7619
-32.1205
-115.296
-135.677
-53.3454
23.0409
224.094
432.929
394.741
317.955
313.975
249.797
66.3392
-107.659
-231.382
-297.712
-271.421
-200.275
-117.729
13.8399
189.2
176.214
69.7625
102.921
174.394
112.459
-77.3351
-205.393
-100.997
-38.9399
-162.384
-292.655
-338.546
-300.426
-199.49
-35.7267
60.7996
106.558
173.269
112.545
-45.9143
28.6869
247.39
234.796
49.424
46.9883
180.92
307.562
290.573
137.211
-128.113
-195.13
-74.9049
4.30491
23.074
65.1565
45.7322
2.92929
-50.7496
-103.402
-129.571
-168.384
-243.858
-300.365
-214.141
-51.1285
44.0111
145.799
122.229
-11.0103
14.2349
144.247
191.075
104.585
-39.1362
-116.107
-109.38
-134.552
-155.29
-64.201
6.60185
-9.6823
18.6932
128.221
163.308
54.94
20.0592
64.8543
101.494
99.4193
86.3938
-22.7931
-179.147
-237.196
-151.448
-9.86705
156.158
260.769
397.412
343.436
104.932
-11.6848
-47.5428
-50.3771
-34.4521
-69.3247
-247.528
-450.276
-447.387
-213.509
5.43258
84.1378
149.816
248.211
312.123
242.836
74.0719
-84.1585
-280.389
-410.615
-205.37
170.418
305.038
136.807
39.2635
18.2416
-40.5072
-122.845
-64.5639
17.2438
-41.5518
-95.1765
-67.6506
-13.2721
41.1143
85.3501
35.4144
28.5878
1.79065
21.3982
-4.51641
-104.664
-137.552
-23.5346
43.5691
-17.944
-13.8947
75.5335
117.017
155.824
213.693
181.724
29.9898
-82.9326
-93.005
-61.9271
-14.0213
14.3115
86.3335
121.626
13.1532
-96.3694
-88.118
-145.886
-197.982
53.9628
288.673
242.401
199.891
114.847
-109.611
-267.822
-188.174
-87.0326
-116.247
-183.087
-176.278
-148.761
-128.23
-77.2623
-40.1241
-10.5655
17.4807
75.6762
139.446
65.8547
-19.6295
-23.0594
-68.1967
-52.4144
111.489
195.825
61.4816
-108.104
-149.639
-80.4551
134.226
381.694
489.638
408.192
277.323
119.116
-20.291
-107.041
-190.581
-227.398
-171.512
-100.552
-43.1818
17.03
46.2892
49.0938
67.5881
82.1191
89.4655
-13.36
-178.581
-292.331
-384.635
-363.287
-222.214
-139.738
-112.248
-29.5245
74.0551
99.198
126.53
182.381
133.432
-24.5658
-85.5165
-46.777
3.57995
51.4927
44.1187
51.8318
27.4228
-2.82268
48.5632
86.5032
88.1966
117.403
150.871
101.51
72.7767
58.1511
-21.7796
-144.101
-164.166
-88.218
85.1664
319.938
461.302
416.462
165.759
-69.4738
-197.322
-265.145
-269.267
-155.635
-24.671
17.1177
-24.038
-108.19
-213.443
-311.497
-355.26
-282.81
-223.882
-103.538
220.426
388.094
218.065
-1.776
30.3673
156.401
197.123
154.906
55.6117
3.23661
-13.0868
-23.9705
26.6506
162.782
137.59
15.7967
-49.6215
-114.095
-129.161
-131.601
-360.361
-604.774
-466.733
-66.9822
192.489
329.929
481.48
506.121
313.476
78.0095
-79.6256
-140.721
-162.868
-139.288
-5.65822
93.2848
123.76
146.459
115.517
25.1928
-74.9155
-59.7831
-66.5628
-149.168
-208.193
-206.926
-166.257
-109.333
31.8885
102.034
63.606
37.5349
105.352
200.53
312.885
223.773
58.8571
21.2658
35.2165
45.2004
76.4033
56.627
-13.967
-46.6384
-82.3708
-174.858
-279.526
-330.666
-294.682
-182.589
-44.0347
58.274
36.7586
-37.2635
-118.88
-52.1485
59.3697
56.5045
50.2751
38.9524
-11.662
-14.5292
77.9504
145.397
142.113
92.7131
56.0149
85.3039
146.291
194.792
160.067
13.5455
-120.918
-188.262
-118.758
216.195
562.686
376.636
49.7896
-117.053
-138.102
-128.153
-117.481
-159.766
-180.889
-149.727
-216.306
-308.805
-289.537
-241.185
-168.637
-38.7824
80.9407
105.339
33.3074
-132.447
-267.702
-188.466
-23.0075
108.805
144.568
174.977
219.626
299.971
290.959
194.887
182.64
183.109
99.885
28.9022
-24.9769
-28.9929
-0.378819
29.127
99.2664
181.873
142.397
81.1862
35.009
21.168
-59.3242
-216.885
-350.201
-439.442
-400.629
-172.196
13.6304
73.6897
135.543
174.911
156.252
6.62082
-153.927
-186.305
-135.443
-165.765
-185.379
88.4062
346.41
264.922
149.069
134.801
52.4277
-30.6441
-68.8337
-111.012
-159.685
-146.272
-96.8027
-68.7514
-25.7502
76.3584
138.347
114.918
23.0846
-35.9068
-59.0864
-99.5667
-107.992
-35.4589
11.0878
51.4978
127.59
180.221
156.305
129.086
134.605
104.066
48.8012
0.348542
5.7435
47.9323
58.1786
-13.0812
-80.5026
-85.3212
-42.0971
-125.451
-181.749
-109.076
-65.3371
-85.5665
-6.03659
108.01
129.21
19.2441
-86.4361
-96.2368
-66.1163
-31.1633
5.91923
-1.15174
-9.32941
30.5831
77.7756
32.4043
-84.1694
-93.1201
-69.7856
-86.085
-116.193
-49.5235
131.122
296.267
318.434
259.383
148.556
47.147
-24.357
-107.508
-164.062
-137.081
-118.131
-134.282
-205.996
-229.252
-90.2324
82.0984
137.187
148.215
252.196
264.193
32.4316
-213.499
-249.269
-184.079
-79.4931
10.443
36.9284
38.1993
50.2623
41.6139
40.787
81.7631
127.832
139.103
92.6907
45.0552
8.08718
18.6709
13.374
-64.4936
-135.624
-143.751
-115.657
-56.1228
-18.899
3.80348
35.0514
64.9139
62.1182
57.6798
74.7941
64.5206
48.2785
61.1941
30.8182
-22.8359
-55.9789
-86.1692
-99.7034
-83.4589
-69.8355
-59.898
-33.7609
-13.6666
-9.28529
-5.67999
4.67439
25.4617
26.475
31.2717
41.3674
47.5394
38.9258
27.2308
16.436
-6.29372
-27.3474
-32.6944
-32.6981
-14.995
-6.06273
4.70724
25.8049
22.8803
-1.73201
-21.2408
-29.3921
-26.7419
-25.7726
-7.75082
28.7825
38.4428
52.192
78.8166
85.5538
45.2246
-27.609
-92.041
-100.418
-44.0436
11.4304
0.703468
-12.5885
18.2705
60.9363
47.063
5.81721
-4.60864
2.05667
-13.0256
-21.9816
-18.8023
-25.5669
-39.1361
-47.0639
-25.8291
23.5333
60.6115
59.7746
43.8759
14.4975
0.695358
-18.2376
-44.9931
-65.1248
-52.1047
-23.9051
-10.7935
7.11224
36.0722
54.0086
49.2012
51.2028
31.8811
-51.294
-111.736
-78.8398
6.65341
89.1229
112.268
60.0884
15.2145
3.15443
1.35578
32.5085
75.0802
61.4055
5.56713
-38.337
-80.3834
-99.2822
-101.709
-105.313
-67.8222
17.2694
88.5771
94.8968
47.7844
-33.1658
-117.412
-117.59
-99.9399
-90.1771
-78.0048
-90.2083
-75.1803
4.53686
58.998
110.26
170.302
166.824
135.632
95.1401
51.9301
29.6242
20.7383
48.8588
114.015
121.897
91.5463
48.8484
48.0079
50.6017
-0.240018
-52.92
-101.101
-139.608
-148.916
-168.314
-173.291
-122.191
-60.5318
-35.2274
-30.4882
-51.6376
-90.572
-156.707
-219.678
-178.048
-52.7372
84.6683
130.79
171.511
219.058
163.152
104.574
104.453
135.239
124.081
74.9289
51.0955
67.9662
68.55
82.791
115.704
67.9204
4.39688
-53.8074
-121.91
-163.123
-99.592
8.95684
-44.9608
-92.4983
-50.6124
-15.2494
14.3223
3.63121
-45.5961
-110.576
-154.976
-166.893
-102.737
-67.675
-60.729
51.0814
175.73
241.902
226.396
134.45
-11.0745
-151.237
-148.86
-90.522
-61.4789
-63.7675
-62.4153
-50.6553
11.2022
97.7642
104.968
90.0483
80.3381
78.2254
67.6487
-3.93165
-7.12805
40.3201
11.2003
3.79012
-3.49009
26.4422
61.7953
19.5477
-9.16048
-25.49
-92.8703
-149.334
-151.341
-109.164
43.9788
157.41
152.766
115.887
31.118
21.4543
-16.268
-88.2572
-82.4383
-58.8859
-63.7626
-53.2935
3.08394
21.177
22.2885
40.4247
59.4392
84.658
66.7603
12.4712
-63.6571
-118.092
-128.447
-121.627
-66.8394
-17.1898
3.34885
-7.24438
-1.7305
24.9827
56.7667
67.5968
34.8344
11.6971
31.542
56.5504
74.0416
106.056
106.459
64.4271
18.9841
-35.159
-83.3944
-89.8408
-59.2805
-64.3619
-71.1371
-31.5093
38.4179
109.92
57.8955
-18.9083
-25.6432
-23.5034
-19.5249
-6.29031
-16.2667
-54.8128
-76.8318
-79.2408
-68.5064
-46.5414
61.222
159.375
179.257
132.911
46.7191
-5.54301
-27.9201
-65.6141
-51.1311
-30.2511
-40.5297
-23.2881
-4.16354
-5.38513
-14.3324
-26.928
-29.5018
-4.5778
12.6606
28.5125
-7.54617
-39.0672
-38.2806
7.18158
38.7084
21.9817
17.3069
11.8695
29.8589
18.8222
0.431362
-15.9865
-34.8158
-48.8605
-44.5176
21.9912
105.962
97.4744
23.8934
-12.7166
-20.7233
39.0594
37.7774
-56.7007
-145.643
-162.889
-96.4649
32.9706
22.2295
-19.9613
25.1843
45.6035
39.0733
155.167
314.106
271.766
83.4
-57.4529
-71.1828
-73.4849
-128.994
-196.882
-185.705
-88.5558
21.9985
50.2291
23.8885
-34.8799
-36.9875
-17.262
-42.0289
-39.7874
-28.2897
-82.8318
-145.222
-126.68
-52.4566
29.6339
49.082
54.968
73.4159
84.1201
91.8788
117.095
129.543
156.245
177.251
143.464
82.1511
12.8182
-18.6973
-24.8411
-33.4129
-91.2433
-143.462
-120.772
-69.225
-31.468
-25.499
-18.0635
-5.93128
6.94599
19.4164
23.2856
0.546688
-32.8056
-88.8258
-145.04
-141.063
-19.2565
140.161
107.908
63.5884
28.2987
-6.26071
-4.58984
7.30432
13.8095
18.6876
22.0493
14.2338
-6.34582
-23.4496
-1.86299
-43.16
-89.0284
13.4656
156.785
234.518
111.525
-36.3672
-15.9237
1.77804
-41.6342
-62.4603
-42.9408
-5.77515
-10.7321
-27.9701
-32.6132
-48.8287
-86.9142
-118.525
-139.565
-93.8729
-22.0358
-26.7068
-50.5286
0.794263
95.92
119.834
116.113
83.6643
63.7752
27.7659
-35.6347
-82.7098
-30.3105
94.3071
93.5786
42.9999
24.1093
6.07554
1.90699
56.1219
66.8913
39.2323
50.0999
20.8625
4.74212
-36.1681
-102.341
-97.2617
-48.5051
-26.5179
-14.6392
11.8336
0.479538
-96.6
-127.141
-92.424
-39.2781
24.8568
63.6274
90.8257
125.892
91.9814
-8.50529
-59.6063
-72.506
-70.8048
-66.2139
-43.8587
-5.71896
26.0101
26.9111
7.96731
13.8012
31.6927
64.4875
106.306
134.314
62.0851
-38.6193
-32.5544
39.459
3.48757
-78.5751
-75.4185
-70.6668
-67.8633
-33.3219
5.78947
39.761
63.798
22.0805
-29.1143
19.6809
56.7057
83.8638
74.2255
31.8138
-3.21521
-12.4895
-56.327
-140.482
-150.429
-78.9398
-41.1243
-35.0334
3.82217
51.5267
87.1149
75.8588
11.5381
-26.967
-9.68582
-8.46506
-0.759614
26.3346
55.4672
36.3486
16.2125
-25.5043
-54.2665
-46.8341
-21.89
-2.14128
2.37143
25.8783
43.2503
49.4098
13.0557
6.084
46.7906
109.698
88.5645
-15.7858
-74.2974
-105.467
-139.358
-117.945
-49.4603
-0.811661
22.6957
47.4933
130.034
155.812
85.3712
-31.5794
-148.261
-203.987
-91.5101
80.1362
140.196
160.23
97.9692
10.8982
-45.7795
-83.2888
-109.163
-94.6187
-39.443
9.45394
19.2264
3.86744
6.23285
57.7795
72.2563
56.4578
69.9543
82.6606
-8.77652
-153.21
-179.814
-132.999
-42.3881
28.8514
27.0951
14.3103
30.0974
32.7716
36.1762
55.9597
62.1435
33.1029
-26.7884
-71.3722
-37.0509
21.0436
60.1494
68.984
32.8764
8.82353
-18.0374
-55.569
-52.5164
-27.1065
4.47364
30.8056
21.5521
6.98166
-5.36278
4.18376
18.6827
23.1531
27.7913
33.6066
65.6021
59.3158
-16.7422
-71.6051
-83.1288
-7.37427
52.2919
4.73823
-13.3993
-37.7232
-60.3222
-66.034
-48.2023
-37.4545
-17.8862
5.70295
20.7016
49.322
31.799
-9.0323
-45.5518
-43.0128
10.2616
11.5096
-21.9682
-53.3181
-54.5951
4.807
32.4198
27.2275
26.571
46.8516
61.5684
50.8348
46.329
22.2414
6.87071
12.0864
10.1605
-4.66499
-15.7026
-24.2291
3.09344
93.2969
88.263
3.00836
-68.3731
-97.798
-82.8244
-31.2485
41.6798
113.242
101.681
55.7953
25.2619
37.491
35.2633
-12.0755
-62.9424
-72.6833
-80.1635
-71.3149
-57.4212
-76.5762
-64.533
-41.7548
-45.5406
-64.6957
-82.4319
-75.2262
1.17943
79.0518
46.4715
35.2849
53.6421
10.2723
-54.2171
-77.4508
-11.3219
67.1938
88.2821
91.317
79.1035
60.2392
72.8001
70.633
56.5579
43.8865
21.0588
8.92579
-29.8167
-82.0899
-51.3853
-18.4762
-6.51741
7.0338
8.41172
2.2632
-12.6908
-34.1706
-17.6291
-5.30651
-10.4607
-14.6497
-10.5135
-4.31608
-6.93241
-2.17086
19.4241
33.5194
7.94462
-36.8311
-52.1337
-66.0306
-65.3226
-51.09
-16.83
1.91013
1.89463
19.699
46.5678
27.7218
11.331
13.9266
50.1713
112.68
104.554
52.2678
44.3494
20.2584
-59.1045
-114.42
-94.7339
-54.2215
-36.2679
-29.2703
-4.44492
55.2264
137.952
55.8121
-64.4863
-71.5472
-50.384
-21.9883
-4.26594
-23.2773
-22.0657
-12.9519
-32.441
-18.7979
8.12653
-1.02325
-9.00816
-14.7016
4.58775
49.1688
73.2003
33.3739
-43.377
-20.2841
49.2821
79.7523
71.0307
31.2831
-5.68053
-18.8724
-12.0414
-1.24552
-6.48813
-16.3595
-9.82985
29.2706
64.4287
49.2404
16.4824
-18.0091
-48.2002
-79.0597
-106.219
-72.8783
-40.7543
-21.7044
24.3998
103.406
98.9399
45.7041
29.0372
15.4102
10.1439
21.1735
-18.3432
-77.5645
-89.32
-63.9894
-37.9264
-37.1879
-27.7159
-2.9509
13.3861
13.2521
-0.318443
-10.4691
-26.5039
-53.2781
-66.1656
-58.4831
-14.8691
70.6561
108.947
65.3358
36.4933
37.8969
29.7524
19.6758
8.03161
2.59164
74.2607
114.59
52.9943
12.6
9.05045
16.9755
10.5172
-2.92397
1.70422
-29.4681
-83.2572
-104.919
-80.221
-56.6376
-24.2373
5.65735
22.1686
26.9242
50.2586
75.8821
24.836
-23.7105
-24.982
-35.3809
-33.0245
-40.056
-54.2185
-57.9061
-32.6553
-2.4603
-2.60462
-17.9204
-28.233
3.33288
60.8803
55.8086
12.2779
-8.41693
-3.47283
1.20036
-6.76671
-1.2818
31.6793
42.3127
63.2338
78.5786
42.887
21.5944
41.9888
59.0116
12.5194
-36.8522
-44.8882
-57.3174
-59.2961
-35.0321
-5.22727
4.33037
-19.8668
-30.6098
-20.8877
-15.1401
-13.9154
-5.05206
-8.74628
-18.8404
-15.2328
-17.2513
-34.1099
-26.7812
-5.94691
8.84469
44.8264
56.4614
13.2323
-25.4695
-32.3136
-39.1969
-18.3136
65.6926
117.413
59.4142
14.8131
18.5452
21.3931
16.7206
13.6659
16.589
18.9987
8.41251
2.71453
-15.0197
-56.7766
-69.9007
-57.7348
-38.045
-25.7145
-10.68
14.2908
9.93378
-4.74806
34.2566
67.9038
68.3459
36.2457
-12.6021
-49.0945
-71.4638
-105.321
-91.5872
-8.70052
64.5292
53.6147
16.3729
-1.85348
-2.13471
17.758
19.51
14.646
-31.9533
-69.6374
-38.8076
-3.90857
7.9518
22.5275
67.2694
89.6018
80.199
40.607
-25.1235
-46.0153
-20.7291
8.51864
18.0319
29.1044
27.9628
0.493597
-28.1737
-38.5474
-35.8482
-25.2
-20.3793
-30.2107
-35.0615
-24.5666
-6.73887
1.06448
0.922558
-9.35102
-17.4229
-34.727
-30.5944
52.3618
63.0649
35.1558
14.0832
20.8475
48.0069
45.822
16.4902
-7.20726
-1.98803
-10.5344
-29.3063
-39.6297
-40.1134
-35.3242
-15.5986
12.1628
37.7343
46.0655
28.1413
6.6796
-3.62483
-19.7273
-8.34945
22.269
29.2624
4.29222
-24.1453
-30.912
-26.6916
-20.1283
-5.74199
-0.0733315
-8.72619
-7.52019
-3.8361
-4.40216
1.26781
18.8965
8.13983
-49.4417
-55.7739
-32.7856
-12.6003
-2.69923
6.3908
16.8765
31.6803
35.2057
26.7162
8.98631
-3.17534
5.5441
8.85362
26.2809
55.9017
74.1762
59.4378
41.0507
46.2505
16.5264
-19.3582
-21.9954
-46.3833
-61.4441
-51.827
-2.40426
40.936
20.7419
-41.56
-46.1074
-18.9733
-17.2648
-35.7693
-57.3226
-52.1488
-36.4019
-24.869
-32.0909
-32.2023
18.512
67.1844
67.7261
52.039
17.193
-31.5667
-97.6155
-129.298
-87.5548
16.0372
107.824
102.032
79.1229
89.8019
85.5837
74.2822
67.2993
46.664
7.12048
-44.3513
-76.627
-63.387
-38.2162
-20.3272
-17.2797
-11.9621
5.20465
17.6739
26.0421
9.67079
-33.691
-38.1911
-10.5486
-0.736255
-0.981955
-9.5483
-27.1229
-27.3253
-10.8155
-5.32684
-4.99574
-4.772
-19.233
-16.2244
15.5593
47.2864
53.7797
45.9108
30.2319
13.3366
-8.34479
-17.9446
-8.1827
3.26757
-1.27043
-9.66498
6.0571
8.1873
-20.1898
-44.9139
-43.2561
-23.7809
-6.51527
0.932082
12.8297
17.8951
12.2671
10.4118
17.6476
31.9725
33.5198
27.7937
-8.7927
-32.5711
-31.4006
-17.5442
-29.4426
-45.2411
-23.0651
2.82343
5.91506
5.88882
11.1463
13.8431
18.6829
19.637
21.8954
19.0079
8.65097
3.6992
0.176062
-17.6835
-25.0422
-5.96198
-2.24828
-22.8281
-37.6518
-13.8873
25.2607
38.5669
27.8481
20.3875
28.4731
29.0242
27.5297
57.9528
110.401
91.546
7.52676
-57.7108
-75.8668
-49.6834
-26.4165
-46.4815
-57.9601
-44.6639
-35.0026
-39.5506
-49.6936
-49.4368
-20.6038
-10.2369
-23.2514
-22.961
-11.8826
-25.9033
-75.7563
-78.5557
-14.6791
94.0181
136.217
107.728
83.8561
80.302
74.3808
42.9811
32.1169
27.9282
7.71925
-25.315
-44.3002
-27.9902
-11.9263
-5.18776
-8.3818
-16.3572
-19.599
1.0148
9.20708
-26.6101
-39.5115
-16.4698
4.66791
-2.15532
-13.2864
8.60277
25.7033
17.0806
18.6311
31.5469
15.7956
-8.45947
-30.325
-50.6716
-51.2191
-52.8431
-46.4784
-16.8272
-1.09835
-15.9496
-20.6217
-6.52653
21.7801
56.0488
52.5762
9.14758
-9.18977
1.06983
6.09137
21.9903
36.6339
38.6244
46.4319
53.1225
18.9796
-27.3641
-44.4806
-35.8669
-26.7495
-25.8499
-21.3078
-7.1142
2.05987
1.59066
6.15123
1.48854
-13.9185
-15.7909
-13.2802
5.99745
43.3521
45.1509
-0.87219
-39.9148
-40.505
-20.8269
-8.28598
11.0571
33.6518
25.7264
2.68951
2.04851
44.0836
67.4187
28.8978
-1.34232
5.14369
16.7559
8.76362
-31.5458
-71.896
-85.5438
-66.0178
-48.7646
-26.3336
5.74886
21.0377
8.58042
6.19144
25.3644
26.5229
15.4496
-25.1768
-42.6595
-6.49165
27.3254
33.6211
17.7218
9.99427
11.4221
11.4525
7.22214
-14.2968
-35.2041
-58.9371
6.4484
149.06
138.636
56.0108
10.7838
-11.7959
-33.4173
-39.8375
-32.2633
-35.2773
-33.5217
-24.415
-27.1616
-23.5642
-28.0351
-30.0193
-9.55917
9.96447
25.1278
37.8748
27.5011
-11.7114
-10.4347
3.91542
19.484
22.4556
-38.0276
-112.953
-60.4158
30.9527
32.8606
49.964
56.1535
28.1337
-5.6107
29.9939
38.2396
-24.0147
-58.9259
-2.79498
36.9447
-5.6178
-32.5241
-16.0479
-22.2041
-13.4747
15.3414
42.5305
6.99664
-39.5435
-39.5432
-49.0132
-51.4941
-22.5493
17.6093
2.27439
-16.2895
19.103
70.9963
46.8705
-13.5827
-20.7673
18.812
77.1271
128.924
93.6787
52.4545
49.2716
42.4601
25.7436
6.28643
-34.4897
-68.0987
-96.949
-138.167
-199.508
-196.129
-60.0694
65.7526
50.7502
16.136
-15.4456
-4.37291
24.7962
65.7453
83.7884
41.6027
14.7615
-4.31532
-7.96037
-15.6786
-16.4617
-4.22129
44.5709
102.043
117.568
99.079
34.5206
-45.6367
-58.2728
-53.3983
-62.1646
-60.2758
-76.274
-93.5774
-55.1782
4.5255
33.0712
29.0997
2.76863
10.6091
33.3449
31.7058
17.8128
11.2204
24.5249
45.9582
26.992
-8.12479
-10.1233
-2.96066
-21.9891
-21.1923
-0.567464
-16.2022
-15.6896
44.6229
68.7298
37.2218
-6.84094
-39.3584
-48.0095
-8.06671
54.3614
22.846
-27.8561
-43.0831
-39.1475
-39.5579
-31.1013
-11.304
4.29363
10.3863
-15.5856
-41.5071
-43.3231
-36.6989
-26.9129
-13.6553
11.9442
34.4034
55.6617
53.2275
19.338
49.8071
116.744
126.045
60.1939
-3.98976
-37.004
-54.3709
-60.727
-57.3278
-52.1506
-34.31
20.4635
29.2547
-16.2312
-42.6291
-6.16414
42.139
36.9668
-9.51746
-45.4209
-30.8526
-28.236
-32.6744
-12.6614
1.30233
3.87712
10.9792
27.9591
29.86
23.8416
17.6549
-9.60041
-12.3468
-5.83425
16.2823
35.0197
12.4945
-0.284356
-9.86177
-22.3494
-20.3053
-34.6579
-30.9666
-20.0983
6.50311
57.3987
80.8243
36.494
0.952889
-20.8185
-42.5168
-60.829
-45.8428
57.6747
66.2395
12.9597
-7.24278
-17.9788
-19.1554
-17.0101
-12.6491
-10.2391
-0.203439
27.3483
74.3864
81.0032
17.9487
-17.5532
-1.41572
13.7045
14.718
4.39519
-33.389
-90.9867
-87.2916
-63.5717
-51.1655
-18.0587
4.91052
0.12829
-15.3967
-26.2584
-28.9189
-31.2914
-29.6421
6.8265
56.1346
77.1237
59.4926
46.2696
38.968
39.0673
32.3689
21.3075
39.6724
56.5081
45.4225
19.2353
-9.92276
-32.742
-50.5774
-59.5853
-38.083
7.50671
7.37019
-49.4216
-43.6754
5.30657
56.2407
42.7384
-3.41213
-1.49671
6.94009
5.99362
-8.6129
-30.5791
-34.6549
-30.4111
-20.6834
-11.8512
-17.9553
-13.879
-21.9192
-42.197
-48.5316
-22.6672
-5.2716
-7.50243
-40.4038
-23.4152
75.849
81.1507
32.8265
19.4325
21.9101
33.0567
35.1799
24.3814
25.0664
24.9861
29.8887
42.4068
48.177
21.6696
-17.5967
-30.2096
-36.392
-59.7377
-64.8716
-41.5639
-42.9014
-24.2886
9.10872
11.8496
16.8025
19.5494
4.20276
17.7542
23.4391
12.7282
23.4896
32.9569
15.3541
2.69544
-3.50946
-31.174
-47.5077
-30.4318
-18.0775
-13.5827
-28.3518
-44.9529
-40.0816
-32.2376
-29.0663
-28.0177
-6.03071
79.304
148.663
140.65
122.098
99.8835
27.5207
-16.1314
-30.649
-44.4048
-41.9379
-40.9135
-61.9608
-95.1759
-102.684
-76.2872
-4.68786
57.4554
19.1746
27.3111
37.0584
-18.3258
-61.185
-63.0915
-63.9688
-65.9289
-36.7941
-1.38192
19.0386
29.8651
39.2838
38.8713
53.8178
68.7621
52.9231
44.9759
35.1132
20.2462
58.2987
58.4722
29.5982
4.90113
-13.9808
-27.8077
-38.1023
-38.6594
-21.8642
-18.9571
-13.1473
-17.9583
-18.823
-0.567424
5.56911
8.06706
16.8569
19.3017
-11.4045
-32.0031
-6.00249
-3.6607
-17.2227
-31.4211
-27.7618
-4.05684
-5.99829
-32.1594
-28.419
-22.6709
-1.00335
35.6893
44.7522
37.8009
18.7244
7.33988
-5.59463
-33.3697
-59.9859
-44.4299
19.8719
55.3502
42.8983
22.6916
12.3218
7.44411
11.3771
4.51679
-5.05115
13.5979
5.66618
-17.8823
-16.7394
4.98266
32.4546
40.5155
38.0388
47.0965
43.1948
-18.5182
-77.2401
-17.1204
16.3457
-11.0796
-11.2075
-24.9736
-42.7374
-32.3689
-13.4967
-9.6583
-22.5335
-32.478
-33.0286
-36.7711
-35.5062
-9.39232
3.23186
8.61233
18.6681
36.8691
34.6561
-9.76229
-9.9392
22.7751
19.7173
5.19172
4.37872
3.79983
2.63054
15.8703
32.8912
38.065
44.5224
42.8925
16.8292
11.0474
20.6035
18.2927
10.4245
17.1048
21.3502
-1.91222
-33.9903
-63.2432
-60.6231
-34.9176
-13.2096
-15.8832
-20.6567
-23.9357
-22.5654
-22.0804
-28.5439
-31.6079
-21.2901
-14.7064
-7.54912
7.86121
32.7252
27.8653
4.20277
-6.76357
9.50704
27.3763
27.8886
19.9087
18.9043
27.3806
42.2376
50.2543
29.0985
-16.1425
-34.4957
-34.3736
-59.2484
-44.0382
43.7756
50.7931
-0.919882
-18.2821
-6.64474
-9.03558
-0.962185
3.77754
-3.01271
-9.68167
-54.1118
-33.0842
128.403
146.07
45.2156
2.74169
-29.3476
-76.0538
-78.4315
-4.08083
58.6611
52.0146
17.0152
-27.5609
-96.7967
-155.315
-103.814
20.1896
21.3135
0.0443318
28.9496
23.1712
-74.7967
-114.597
-65.542
-25.7931
-25.3021
-37.4256
29.9345
125.602
139.457
194.13
217.163
164.463
82.7888
55.4572
2.46157
-80.0975
-86.9965
-82.6387
-91.021
-94.553
-106.227
-83.4314
-23.7823
20.1058
52.2043
127.839
136.793
2.44152
-134.099
-192.286
-185.738
-108.81
-11.7072
50.5358
74.8135
55.5347
55.5135
44.3237
37.5695
33.1488
-2.29033
-3.83999
9.18788
31.0609
56.3924
34.6356
-9.22926
-47.0258
-85.351
-102.098
-28.2469
86.8842
101.63
86.188
66.4273
49.3481
