-7.44755
1.10378
33.0331
61.143
74.656
-11.1513
-63.7269
-31.5838
14.3839
6.15242
14.5464
21.1214
26.7039
71.8229
0.225819
-55.6564
-38.3865
-7.51458
-11.1291
6.65854
-0.861203
0.528908
37.1054
-31.2117
-57.0873
-6.91827
0.177858
5.90079
27.441
14.672
18.0912
-13.7934
-28.7141
-46.672
-13.7135
-2.66556
2.12923
43.2733
46.1063
-28.5219
-36.3243
-24.127
-22.8217
-1.6869
-6.96942
14.6814
43.0372
11.7409
14.4652
11.0134
-1.29729
28.6256
31.4943
34.6644
70.1467
-1.41622
-50.833
-30.6302
-25.5592
4.36096
5.59684
4.70108
16.2232
44.0586
46.2698
-42.6395
-85.957
-53.9342
-34.5871
-28.7147
-22.1472
1.81076
28.5008
13.4985
-51.2352
-23.745
2.44807
-8.92252
-10.9726
13.8851
19.1471
36.2464
55.8258
-20.0683
-41.0812
28.3771
49.0221
33.8556
15.9399
24.1149
54.6218
11.0644
-32.6852
-41.765
-31.7965
-17.7145
3.23107
2.07888
31.9469
15.8173
-30.077
-51.0456
-70.8172
-12.0515
21.1559
26.1393
38.7663
22.7431
-19.6761
-19.6928
-31.2884
-8.77434
-2.40491
-6.30436
32.266
89.088
37.8623
-57.8908
-64.1482
-13.9787
28.2795
24.0331
6.053
25.7215
-5.26272
-10.0321
-12.4753
-0.0592192
26.3553
12.8623
-6.06374
37.0805
9.94408
1.2596
0.448526
-35.1111
-10.5269
35.4417
15.6874
45.4433
-10.0538
-64.936
-51.8229
-51.8308
-40.5776
-18.1137
-4.93059
28.25
12.8835
2.00815
-7.61756
-25.4914
-9.93029
-0.701492
11.1403
51.6823
42.2849
-17.2168
-25.3556
-42.61
0.0193626
30.0908
35.8278
32.0874
43.2419
33.0497
8.17498
-64.9843
-32.9538
-15.8974
-4.85764
11.3231
20.8451
43.9295
65.2223
-50.4232
-48.7945
-1.46897
-4.24883
-8.36156
6.54261
28.2
37.2214
-33.2543
-34.4433
-18.5482
-21.5195
13.0915
27.1759
36.2645
50.9186
-30.0315
-46.0825
-40.4163
-59.4974
-15.8188
-1.50262
23.4275
41.4555
2.03238
-1.32278
-8.16533
-31.4893
-1.18086
-8.84103
-1.18251
51.3368
45.1454
14.5977
6.37299
-27.3271
-5.45544
2.29422
-8.02322
4.62898
35.8137
6.06733
-9.38123
-17.5353
-3.04988
4.38856
7.43487
4.84325
45.9286
-15.0324
-17.5782
-31.5543
-25.9038
-18.7621
-11.7336
11.2075
61.16
-5.94648
-23.4705
-22.1917
-8.29055
27.8969
29.0751
15.6025
49.3804
9.2085
-23.9233
-19.939
-24.8414
0.716102
-5.70097
-19.9237
-9.74069
-5.92367
8.95387
-18.7896
-46.8809
5.30951
13.776
-0.146228
-0.321072
-5.17719
19.8643
15.7516
-43.5205
-32.5543
17.44
5.29001
-90.6869
-25.8459
-5.42659
-22.2235
107.311
188.997
77.9135
38.2587
17.2646
18.744
-6.81071
-27.6099
-21.804
-44.2981
-63.5499
-59.3961
-32.9561
-3.71524
-5.4467
-12.1357
59.1816
3.60899
-6.48266
0.501034
-77.0793
-113.181
-43.3192
29.4625
82.3059
11.8704
-21.9431
10.1931
15.6475
24.9715
14.9263
19.4848
43.9661
8.01783
-1.46836
5.65077
13.5372
25.3977
28.3173
32.9907
19.4409
-7.24482
-66.2923
-86.3456
-60.5246
38.7723
77.5745
20.7876
-12.1756
56.1046
110.226
46.8492
-77.3803
-255.756
-117.364
-12.5069
10.5324
63.3423
115.869
141.111
16.482
-68.8406
-8.67025
16.4383
19.6777
-27.1636
-131.132
-178.153
-168.864
-75.4126
157.942
236.825
108.979
112.713
58.4287
23.0781
35.7226
-71.0509
-97.5034
-103.18
-44.8951
0.423833
7.33314
9.42203
-36.7508
-56.2863
64.4377
143.103
125.59
35.0841
-149.253
-212.671
-104.955
32.4641
16.7887
34.819
38.0744
58.0008
49.8223
71.2246
67.9452
58.4482
142.753
8.65961
19.7358
-5.83188
-71.4991
-29.5997
-152.075
-241.27
-206.858
-164.791
-40.387
48.3372
149.209
196.141
86.8966
-10.636
-6.70135
-134.414
-40.15
272.264
241.195
173.174
-115.792
-221.023
-153.124
-101.954
232.723
295.63
32.3788
-29.4867
5.84054
24.9904
29.2284
-134.732
-223.966
-133.723
-61.7029
51.2291
59.7858
-90.2994
-81.1343
-271.781
-110.127
195.365
89.5732
68.6858
3.26811
20.1967
131.639
193.488
123.79
22.88
-2.16234
-44.6127
-54.1359
-122.417
-173.959
-119.893
-96.6054
-153.056
-36.3583
190.438
216.19
215.033
270.202
146.527
-130.565
-244.935
-145.582
-23.3604
102.427
117.296
12.283
47.6922
100.346
47.5031
-99.7741
-221.644
-211.117
-178.323
-83.9056
168.787
46.9365
-143.767
-21.7034
164.107
277.363
146.041
10.7378
-91.0981
-86.8648
-2.69092
6.91956
-52.595
-187.396
-66.8074
131.099
184.138
183.181
119.433
-117.873
-154.614
-13.597
-84.6816
-209.396
-329.935
-84.648
104.016
26.2726
-45.0599
35.9184
60.628
67.3722
172.453
301.681
211.195
-62.3737
-151.994
-16.0036
176.771
114.517
-49.3678
-45.8912
11.0405
-13.7426
3.23372
114.433
98.9744
105.95
48.6475
-135.128
-136.981
-214.307
-256.315
-149.403
-63.9695
-57.2195
-12.1054
-55.8339
-92.4334
-33.6388
2.28016
46.2957
123.857
178.108
156.652
9.11013
61.963
104.847
66.4933
-92.6576
-279.793
-309.763
-179.852
61.5059
457.082
486.911
136.849
33.7979
-103.604
-71.783
39.2019
63.9132
-6.24944
-81.4909
-134.532
-176.689
-133.343
-22.534
104.309
224.738
217.876
-32.7796
-377.584
-321.254
-199.538
-27.9733
130.466
70.2025
93.0211
26.3206
-56.634
-43.3365
23.1263
101.181
130.74
37.8671
2.95666
1.52291
19.2239
-7.07406
39.4506
159.732
221.364
66.6992
-53.2207
-121.027
-209.463
-176.347
-54.0451
55.0456
41.9199
4.24124
36.6182
39.0059
12.7612
12.2082
-48.0678
-144.738
-219.94
-77.5066
8.22535
67.2646
333.732
514.721
28.1371
-212.344
18.2142
-195.201
-324.446
-173.033
-58.2776
61.3665
63.7827
110.072
55.4063
-38.8528
-57.5858
26.3409
87.5247
83.3839
126.783
146.621
169.428
6.77753
-53.8975
-239.279
-246.871
37.694
143.433
-90.7356
-175.736
-110.478
-4.59657
-30.7567
36.8143
101.2
117.108
126.629
141.715
2.50219
-56.8909
-15.7482
-103.606
-177.093
-21.879
280.068
349.802
160.403
35.7406
104.996
34.0555
-199.123
-451.704
-297.124
-78.0755
-48.0304
-72.6041
-163.863
-171.373
91.2299
217.129
85.8941
25.5358
-42.5539
-46.4398
41.423
59.0342
132.125
128.074
49.9485
122.117
114.93
183.245
-1.21764
-148.277
-98.5483
10.2979
175.811
-70.4602
-200.335
-309.075
-17.3618
57.5213
-19.5289
28.5386
147.702
76.9724
-83.6959
-73.0689
-70.0568
6.64614
132.433
142.313
33.2116
-230.931
-257.341
5.66993
50.657
145.675
27.0065
27.2444
-46.1184
-14.0533
105.929
118.515
-44.1594
-161.06
-131.005
54.8936
236.114
65.4747
-61.4798
-49.6392
64.8391
264.274
152.805
18.6363
36.5104
59.958
-149.442
-303.048
-184.779
-128.274
-59.9622
-44.7111
-48.9761
54.5032
97.9685
-45.5904
-18.4893
128.899
82.4549
-23.0079
-107.831
-159.544
58.6363
91.4239
-138.168
-174.877
-9.01151
74.2888
74.9903
82.3238
115.182
78.9407
106.981
114.818
94.6849
8.20214
93.3504
168.887
-36.0543
-434.261
-173.616
175.089
40.6814
-111.805
-140.101
-75.4036
286.031
387.246
97.3921
60.5936
-76.3807
-195.235
-192.038
-117.886
0.417434
90.6979
-23.7965
-179.971
-239.97
111.734
-5.34362
-197.642
-134.739
-44.1282
153.664
259.938
16.7235
-271.529
-185.532
-84.1093
-56.0746
-17.3381
68.3529
60.7117
126.894
169.722
88.036
-50.517
138.356
281.836
322.621
288.135
163.156
-6.87205
-35.7564
-78.3762
-101.152
39.6089
74.7142
-57.6795
-68.8161
10.513
-12.2232
-97.784
-63.5737
53.1435
-92.7726
-364.76
-544.031
-235.357
30.5993
84.7979
161.435
180.94
88.0161
-68.7961
-310.574
-134.718
6.67279
-107.106
-133.338
162.264
324.495
186.282
38.3594
58.0707
26.2469
144.001
177.302
168.733
-31.0526
-311.89
-304.877
-192.219
-9.67871
249.781
223.95
67.7104
76.4089
199.412
267.356
-23.8882
-194.807
-41.7492
-176.294
-394.546
-218.97
302.578
504.897
121.077
-103.498
-86.4764
-16.1469
98.1398
-68.54
-142.93
10.5244
17.5876
-85.8313
-44.3765
-74.5351
-92.0164
-206.13
-169.151
-3.02641
15.1919
110.959
55.7395
25.6253
-16.9238
-130.019
44.7543
11.5339
-54.2654
151.147
235.814
67.273
-101.333
-140.898
-98.9408
-64.7665
-7.798
110.012
186.744
209.481
170.307
-7.78697
-109.629
-28.6158
33.6741
30.2184
-26.115
196.885
403.804
62.6093
-307.029
-268.628
-119.914
-29.6714
-37.056
-156.124
-42.1486
-14.1457
17.7784
21.573
-65.5881
-122.352
-120.747
-26.2207
55.2097
103.724
171.423
189.143
55.8414
-67.2718
-380.112
-291.148
107.933
148.164
191.573
188.852
118.177
36.7273
-248.659
-286.581
-61.0809
140.922
67.0738
-46.5798
-6.81435
153.976
30.6699
-145.985
-268.905
-138.549
191.149
278.89
228.939
470.543
267.57
145.319
-50.9704
-243.449
-466.187
-436.841
-83.8352
64.7889
172.748
163.82
87.6865
16.5076
40.1542
-21.9668
2.26534
-28.751
-1.52837
78.0388
-26.4362
-250.884
-317.908
-170.457
-136.903
-101.569
364.692
648.925
104.85
-381.041
-126.103
-307.038
-41.8942
-30.5162
-25.8914
93.5857
133.765
62.2641
6.31629
54.9621
74.3746
80.7526
80.7133
113.284
104.13
-4.99733
-26.175
-208.515
-293.177
-198.078
393.483
535.596
111.221
-140.669
-124.65
-74.9869
-190.908
-320.133
10.3657
247.296
-143.402
-257.606
-21.5814
206.96
236.597
0.333172
-277.152
-212.868
200.809
142.127
83.3968
56.3158
86.6729
170.545
55.5586
-43.1574
42.6501
107.375
-50.3612
-187.737
-148.118
-32.1002
-150.642
-180.76
-92.2266
188.895
290.921
85.3719
-177.191
-49.2217
104.953
29.2587
-141.903
-171.22
-125.622
-144.454
-33.0064
90.9509
96.6211
84.6872
136.392
86.6964
149.099
170.8
181.303
4.94189
-209.015
-178.326
-71.874
-143.129
-139.271
4.54634
156.638
192.444
121.723
130.38
195.804
139.58
-282.77
-348.866
-32.2257
24.8013
1.40177
-21.8997
-54.1334
-71.8973
-0.789259
43.4027
-75.4295
-51.4211
-11.6794
69.6587
163.237
115.723
-10.6449
-108.858
-155.959
-92.1303
69.2504
64.5429
112.296
90.6718
89.5363
22.9427
-151.855
-381.519
-323.122
-46.0162
372.878
549.981
26.5958
-352.451
-261.682
51.0391
148.725
49.4984
-30.3658
-2.96486
59.972
76.8998
10.9732
32.7392
-20.9276
-6.9772
39.7531
72.3783
160.635
211.977
-101.004
-310.479
-21.6732
165.257
14.8236
-93.8823
17.1226
86.7303
10.0632
-72.8918
-41.7504
-44.9728
-68.9992
-64.901
79.6955
111.26
-140.251
-252.292
-69.7384
-8.80023
14.026
-18.4891
-16.1085
74.1154
115.458
-71.7504
-179.821
-57.7785
147.593
291.598
147.524
-84.9016
-80.0181
5.67679
-30.0108
-113.748
19.2006
296.043
181.948
-9.6888
-73.5976
-36.5681
41.7797
-14.5104
-159.34
-204.21
-18.9221
141.549
-8.96363
-156.129
-23.5817
124.65
37.1401
-3.74057
-7.67257
-42.9759
-77.7624
-56.2453
205.115
221.147
2.44866
-82.9598
-93.2214
-81.4796
40.2768
33.0039
2.02229
-29.7616
-14.9613
74.891
176.515
116.399
-118.07
-261.182
-76.9622
113.341
67.0057
-169.594
-195.774
-187.856
-67.8713
15.5044
93.0766
153.244
181.487
134.759
97.161
80.2665
8.95132
-119.533
-241.917
-75.4859
280.682
327.84
-39.674
-215.06
-112.715
-0.0393773
-160.193
-129.796
233.109
179.692
10.1379
-93.1199
-20.9724
21.5021
60.0608
52.1951
134.134
12.3511
-71.1812
-84.4105
-171.871
-241.492
-95.3512
22.0383
145.442
307.168
242.518
-59.8139
-411.125
-220.323
37.1534
60.5628
-94.9055
-42.0551
10.3885
30.7974
-93.0229
-166.891
259.056
296.902
-171.42
-85.3946
133.339
148.17
139.433
49.9704
-30.0726
15.6492
110.968
153.059
-3.52649
-41.9485
39.1525
-31.136
-114.54
-152.543
-52.4021
54.488
-112.377
-138.358
69.2715
67.7819
51.4145
17.5214
-157.488
-157.873
-127.146
44.2589
46.9038
-95.8278
-31.5664
48.5624
93.9958
134.066
84.6288
6.6689
35.4031
39.2168
-103.867
-154.459
41.3968
39.4147
-124.541
-148.113
212.708
397.764
182.369
-32.1657
58.8389
55.4273
-95.4052
-189.867
-81.1698
38.0647
-56.6635
-187.088
-159.328
51.6565
37.1546
11.9587
89.7341
113.733
32.5497
-45.2836
-51.99
-133.736
32.9743
123.341
-122.088
-229.281
-59.4001
185.267
141.347
15.5699
-11.5441
-127.768
-58.1639
11.3973
97.7912
165.567
66.0317
-15.8937
7.33369
52.4781
-26.5854
-37.915
32.7238
38.0678
-21.9938
6.42076
-15.0971
-25.2016
-57.9367
-49.3786
-5.33219
139.531
173.834
26.3518
-159.748
51.8121
23.677
-210.735
-201.228
-100.107
-14.4997
70.2796
16.4965
14.2157
15.3533
80.6795
85.2673
-38.8391
-37.2216
-17.7622
21.5114
82.7765
0.740284
-28.6875
37.7644
-112.265
-73.6175
68.4593
136.065
229.482
-52.1154
-198.798
30.1755
185.95
-102.002
-203.665
-116.911
-28.3458
100.201
146.108
2.379
-114.051
-45.6555
98.6194
80.3115
-150.957
-69.8614
127.367
121.583
-16.6946
-80.0522
-114.955
-8.57022
-22.7861
155.619
172.285
49.4172
22.9308
9.7538
-64.932
2.45474
113.475
-19.7848
-237.033
-263.635
-24.8197
370.903
190.15
-118.139
-183.313
55.9716
66.8852
-87.792
-111.318
53.5626
99.5675
-21.3954
-154.324
-231.664
-169.617
98.7442
111.503
22.7745
67.9452
128.803
97.3622
-156.646
-140.702
64.1926
201.965
105.226
-37.0743
-92.6692
-16.8883
37.2668
-5.82976
7.46216
70.4637
50.1914
34.8884
-60.5218
-44.4657
52.4396
149.201
76.0144
-41.1742
-108.257
-24.399
24.9415
-50.0774
-73.9045
79.525
35.2891
-109.573
-182.495
-127.165
22.5596
131.691
186.267
87.7265
-92.606
-219.795
-140.179
15.3502
122.596
65.9627
-7.70598
-38.1531
-155.826
-146.438
-121.811
25.302
163.964
159.864
146.39
187.652
127.398
-35.2506
-80.9343
-15.9054
5.3367
31.8692
72.9457
-33.015
-45.5804
-31.6357
-73.384
-24.9977
97.6056
64.3124
17.6524
21.8837
13.684
-93.9447
-133.838
-85.9405
124.902
140.078
-146.936
-255.125
-71.3054
131.069
195.672
-23.9921
-200.913
-116.167
-19.8513
13.9056
21.8823
24.4218
95.7575
52.6734
1.91124
55.392
-39.3029
-60.6029
-45.794
-13.1053
115.324
137.746
64.2398
11.7778
-121.393
-47.5429
137.796
117.62
83.2595
30.2016
19.8452
-158.441
-126.011
-101.31
-107.004
-22.3266
163.067
127.447
-59.8339
-176.628
-94.8407
38.0949
53.6278
42.6982
18.6351
28.8569
56.1406
-50.1992
-71.8681
-30.278
-20.7097
185.029
142.883
40.79
33.7364
-64.2471
-79.0847
-73.002
-16.1435
57.9223
35.3863
-12.8721
-19.699
-38.4266
-92.2054
-158.648
-205.101
18.6627
117.671
50.6879
167.667
171.547
87.86
-103.463
-170.751
-130.233
-19.3908
82.5346
-45.5556
-71.7242
-3.98674
80.5441
128.756
159.367
69.7584
113.235
41.5717
-113.314
-76.3809
-4.18017
-92.668
-144.733
-32.6188
46.5284
16.7738
91.7354
-16.3347
-85.0448
15.4112
58.8045
39.7641
10.2164
-41.7006
-69.8073
21.4707
-25.0644
57.6964
72.3019
-106.054
-177.91
-47.1186
183.03
62.6724
-31.706
-16.01
-31.4855
15.1803
5.53816
30.842
57.1974
31.5442
31.3845
17.7327
97.7629
24.4871
-142.421
-176.381
-32.5635
98.3885
186.39
2.84362
-100.235
16.6613
96.1217
54.9788
-10.567
-45.0144
29.3205
53.456
-23.2503
-101.827
-143.335
-87.9019
-58.0594
72.4802
121.662
5.65541
-40.8805
-143.991
-219.079
-81.1538
-1.87122
55.6415
49.12
-45.4602
-57.3893
145.502
125.904
2.67386
36.287
83.8994
83.3758
69.8024
47.0295
59.146
-1.4799
-127.142
-91.2933
1.59014
165.713
198.174
-20.7429
-94.465
16.1647
80.6318
78.4082
-49.7325
-138.352
-132.097
-90.6978
11.2955
85.7999
80.1866
-6.92785
-241.567
-160.23
38.6875
59.0311
58.3302
28.5339
-56.4897
-91.6079
-25.1813
19.256
22.5238
101.719
116.321
11.8011
-61.873
-92.7048
-133.062
-147.441
-105.488
-92.0102
145.907
230.862
217.551
193.486
82.2319
-46.4951
-77.2378
-54.9523
-54.696
3.91121
96.7628
115.089
0.800774
-2.92404
0.949251
-86.012
-104.155
-41.9464
-16.4118
1.12789
-78.3786
-109.092
-43.234
9.74191
95.6814
27.6927
35.1809
243.933
163.365
-58.8679
-165.185
-196.993
-145.431
-37.965
48.8987
138.264
170.317
22.8655
-189.278
-107.194
-2.44568
43.1058
35.4694
1.65423
-5.79128
133.795
39.8173
-142.014
-79.9607
1.6786
47.1664
74.3505
66.6456
-48.3865
-59.0859
-4.86687
40.2347
27.9532
5.7712
-18.3793
-13.5996
18.4092
75.3319
29.5299
-35.5332
-99.2544
-82.9867
20.4741
33.3138
36.1851
43.3869
-46.8824
-58.8332
52.7904
70.2778
33.2002
-44.6737
-13.0569
137.653
85.1621
-166.983
-185.518
-31.9809
149.137
155.58
-6.58574
-67.5653
-63.3758
-35.1922
-20.3101
-1.20205
-57.1816
-66.8957
-25.8193
47.5716
98.3374
161.87
-17.9039
-143.336
-136.168
58.7032
131.551
14.6787
-44.949
41.2978
1.77746
-173.648
-147.067
11.1793
74.1165
7.96834
91.0792
104.445
79.5216
-8.30293
-73.6217
-113.489
-6.42751
120.785
146.315
100.495
35.2741
-184.379
-289.921
218.317
330.826
91.5946
-150.524
-165.219
-112.883
-51.8611
74.2794
-21.0924
-78.2205
46.942
134.147
-68.4507
-76.9042
-15.3733
9.79719
22.1251
31.4454
94.1708
-34.3189
-386.973
-240.657
65.8894
177.862
78.5443
32.0871
97.9
101.383
78.6821
-18.5912
-115.952
-179.291
26.3042
120.36
8.47239
-35.113
95.5585
221.406
86.1463
-11.1844
-72.2555
-142.393
-16.3972
29.0681
-6.73189
-8.68168
-16.5147
-29.3104
35.5656
-8.15159
1.8454
4.47086
1.11702
3.72191
-13.6231
-35.7462
-64.2862
-174.72
-38.2315
86.3103
72.0094
21.9894
-15.2923
15.5745
159.935
172.715
-34.154
-207.491
-127.193
-6.12484
42.296
68.3599
-42.5855
-46.3804
54.456
56.5756
40.536
71.0074
53.1677
90.254
20.3184
-115.129
-83.2602
13.6525
-94.013
-124.692
-46.4808
-67.5789
-61.4028
43.9618
117.881
110.647
85.71
102.074
35.4609
-4.23658
-48.889
-162.259
-297.383
-200.069
-96.7507
106.306
84.1073
10.9201
61.239
218.093
183.002
131.103
95.5183
52.5962
-24.0648
-44.8473
4.10212
-18.8743
-88.2647
-113.368
-73.8925
-50.4573
161.146
196.013
-24.5136
-53.412
66.9449
38.3979
-22.7071
-100.816
-108.76
-38.5426
-79.6367
-64.3261
-58.4232
-15.3965
76.7203
-11.3456
-71.6495
-70.6328
-78.752
10.3657
90.9309
83.4094
107.736
53.8086
28.3094
6.79772
-41.7716
-100.849
-27.6792
148.745
29.8395
-20.5243
-62.703
-113.363
-77.3354
-83.8609
64.5156
395.965
274.254
12.8816
-113.056
-101.795
-89.0276
-86.8961
-99.5078
-28.1417
19.7685
-13.9464
105.892
68.1471
136.971
-46.2816
-162.708
-152.576
-113.077
60.3223
86.238
-73.1624
-84.0202
-63.8507
79.1836
163.061
103.893
-48.3745
-126.874
-13.9224
53.8688
-53.3977
-77.2768
33.341
96.6051
124.467
127.655
110.695
24.9086
-20.8193
-35.3347
-90.8385
-89.5124
37.523
51.3166
-62.2373
-66.8806
33.5913
127.974
30.8433
-63.9642
6.66356
-1.65272
-100.451
-126.818
-135.73
-92.9383
-22.4512
61.5323
90.0806
-15.3343
-60.1858
28.5199
93.5259
31.097
-23.4153
-4.44775
27.2808
178.764
98.6395
79.8938
55.1036
-188.96
-254.437
1.03715
313.628
136.718
-33.7679
-19.339
-72.8719
-78.8738
-30.303
14.9421
-25.0767
-0.88329
37.5129
113.517
34.0354
-203.105
-192.433
-189.714
-71.6887
75.5584
39.0966
-62.8125
-166.009
-7.30246
175.699
384.1
202.305
-134.726
-125.907
39.3433
17.2263
-51.6547
-106.052
-73.8008
44.1692
79.2831
41.7688
40.4204
9.90271
58.1221
107.062
14.5429
35.0507
69.5156
-38.1513
-210.597
-162.273
54.1107
-8.75357
-40.4486
108.468
31.9375
-44.8397
-78.1897
-37.4148
46.397
116.488
76.5824
-2.8585
9.79852
5.28403
-11.3225
-30.0237
22.2178
-11.6335
-119.394
-12.3714
141.97
20.6024
-101.417
-123.151
1.7648
-21.0598
-94.8702
46.8902
109.89
111.526
43.5409
14.7089
16.0147
17.4852
-35.1354
-94.9432
-126.466
-69.2182
-48.9069
-18.0726
5.02824
63.2201
60.715
37.9553
-37.8812
16.8832
120.76
75.1533
-79.9417
-198.697
-62.0963
49.5963
-2.99138
-114.095
-25.875
228.202
167.683
90.3862
132.535
45.5297
-55.5493
-24.6597
41.5657
-46.3843
-108.774
-30.2997
17.9807
-33.8444
-5.22132
10.638
-55.7928
-48.3692
34.2085
7.85249
20.6934
-79.3041
-73.6522
-21.083
-70.1421
-17.4534
85.1716
130.671
9.36919
-142.724
-216.319
-162.527
68.878
410.046
128.701
-63.0812
-60.9734
8.56629
54.8807
109.265
-2.6417
-99.8745
40.7185
136.928
2.87883
3.76773
44.4627
-8.97001
-212.344
-123.216
60.4644
52.5635
-69.7811
-247.74
-48.6922
199.914
88.8548
-143.46
-41.4965
59.1038
17.4006
-8.72146
1.02084
80.6149
61.5394
-31.4446
-58.0918
-62.8291
34.4143
120.561
149.664
120.557
4.49729
-150.012
-70.3263
-67.7492
-17.4016
63.3256
-33.9339
-51.4766
52.5027
125.904
129.961
-114.298
-115.868
-56.0799
-74.6635
-47.3163
44.4056
104.315
30.7116
-70.2284
-77.1115
30.3179
46.086
-16.8168
66.2718
136.292
29.629
-9.51677
-93.4561
-84.5136
-36.4948
1.33464
13.6658
30.1738
55.5117
81.3721
4.0291
-103.766
-96.0905
-36.5523
85.8725
125.825
76.2548
13.5717
16.8766
62.7801
83.6387
-185.307
-301.568
-265.591
-155.199
42.4702
20.4482
3.84949
65.625
62.805
50.3704
57.4471
101.279
143.276
101.153
-26.1022
-39.3606
22.8023
6.20144
-132.806
-85.4975
90.972
162.863
213.102
153.324
3.87606
16.0695
13.0815
-81.8434
-149.162
-90.8618
-27.1558
-80.5068
-59.3473
-4.21199
-45.8479
-4.5006
-5.99194
-48.1106
-55.4513
-19.9176
98.4156
129.759
16.0731
-127.56
-192.859
-85.1741
140.629
122.9
-31.4556
-79.7901
-6.41864
68.3954
36.1379
-68.8325
-60.6752
-26.0662
16.9727
-8.8902
68.1284
65.5414
31.7358
18.2908
-6.93143
9.05969
62.0669
-6.08746
-41.9619
20.5681
73.5186
106.346
93.404
36.8905
-15.2997
-20.5413
-25.2018
-113.984
-161.733
-84.8257
71.715
61.0745
-25.5814
63.177
120.551
73.1745
26.0637
25.7928
-15.4959
-17.0932
-82.8035
-71.4754
-54.8338
-36.1864
-63.6766
-140.047
-70.7688
10.135
57.7632
92.0772
-16.7068
-59.4369
-13.312
-29.8926
-63.9539
13.1262
52.463
53.2918
-2.87603
-23.0994
48.2969
38.7948
4.38657
16.02
3.66642
43.0853
110.906
158.154
176.724
41.2132
-169.253
-147.447
-46.4138
-19.5306
-37.9116
4.75728
4.49717
9.04958
-68.4577
-104.557
-48.7192
9.75871
40.1763
75.024
72.5043
3.88556
-149.289
-195.174
63.4638
91.903
55.2506
23.757
90.5958
185.296
188.956
-93.4909
-198.647
-146.586
-34.4338
31.7573
86.5807
33.3678
-12.8004
-11.2972
15.373
27.5608
39.6586
57.8657
-74.1763
-198.603
-100.384
131.703
186.629
-59.299
-162.251
-14.4763
131.853
43.2824
-60.9699
-93.4974
-65.6408
33.0582
59.8432
-54.7648
-39.482
78.0157
65.4055
65.2088
-103.487
-78.2159
-3.87923
-80.9875
-23.9468
168.066
127.217
47.9851
13.9118
20.0581
27.8745
4.9838
19.2614
-3.27891
-32.6736
-12.3947
-36.227
-40.3837
27.8197
85.6951
-14.6646
-39.3838
-124.573
-166.953
-144.931
-107.056
-28.1349
59.7086
155.015
200.832
6.90227
-91.973
-29.9007
-36.4513
-65.8101
-12.32
236.801
272.927
-70.6433
-315.803
1.68397
366.807
217.658
32.3175
-63.0591
-67.771
-87.4105
-136.449
-200.964
-57.1267
116.394
120.644
53.3319
-13.0041
-16.5593
56.9971
-73.8844
-205.586
-23.4867
88.5028
-31.075
-208.005
-23.3418
136.039
38.9965
-62.0786
-27.4567
54.8282
38.4263
-9.40604
15.5998
-6.38174
26.737
37.163
29.1182
17.2415
-171.152
-176.384
38.54
175.745
104.351
45.5563
118.493
55.6456
-8.44704
11.4604
34.4196
31.4363
29.7335
-26.9066
-139.315
-188.484
-225.18
57.4818
53.8605
-41.6821
154.898
274.423
67.5975
-136.76
-90.4981
-27.3549
-3.30673
-9.25422
-2.91048
22.6445
-0.404139
-24.174
-5.12187
-3.62078
55.4728
85.0204
10.6617
-104.659
-80.0253
71.1016
-21.9906
-141.031
-28.719
86.3408
13.3128
-63.6716
-128.84
92.4985
289.934
91.8193
-65.7575
-90.444
-76.6563
-86.491
40.2454
88.7992
-0.0987606
3.00299
56.4839
-51.3379
-73.2781
-49.9398
-7.30622
66.7719
-5.81812
-71.8215
-52.737
-20.962
-117.107
-54.5611
36.0532
102.799
110.41
123.086
33.757
18.1985
80.3136
3.44909
15.091
61.0321
78.1219
23.5229
-152.414
-161.053
-120.994
-3.56472
160.413
22.9782
-48.7666
42.3565
13.7715
-30.8541
-78.2342
-123.006
-80.5632
135.478
216.502
-13.8844
-99.092
-65.162
-49.0192
-32.2578
37.204
1.64198
79.5981
170.415
36.5572
-113.108
-101.395
-91.542
-41.9855
-56.0415
-56.3167
-6.81394
165.91
131.026
83.1427
-28.9852
-49.275
-41.0342
-22.9683
-9.09781
29.7554
67.0405
35.0786
-59.2214
-124.923
-33.3693
39.0759
51.5164
58.7471
73.8195
37.037
-24.1328
133.375
86.616
-169.098
-207.813
-106.941
-19.0079
62.3006
70.7688
-16.0166
-30.7984
1.1372
16.4906
61.3517
30.3259
-1.3536
93.3763
163.421
-29.5811
-20.6289
-146.241
-139.405
-75.5482
-22.0201
43.5052
44.0218
14.7855
-87.9671
-70.7934
40.4887
27.6222
-23.945
-12.8343
-2.90699
48.9978
110.573
31.0513
5.22623
34.7122
76.8273
66.0741
-30.3964
-131.126
-2.06893
22.0725
-40.0456
-32.113
-145.038
-134.966
212.976
278.24
57.5103
-50.4918
40.374
10.9662
-124.617
-75.7677
37.8131
-26.063
-9.66416
-31.4097
41.3588
78.1964
-8.22884
-39.0694
4.3594
-15.8094
33.9731
-3.76751
-94.9944
-132.094
-98.7216
-133.906
-145.965
145.96
430.603
107.918
-161.329
-117.159
-59.5658
-26.3344
32.1239
65.9622
-6.50564
-18.5455
48.1583
-11.9003
9.18148
50.2766
-23.1279
-33.235
18.5216
90.9296
142.374
-23.7108
-210.513
-63.8159
114.992
61.3877
-102.41
-63.9388
-19.157
-40.5022
55.0312
228.462
148.76
59.3243
-86.2234
-176.922
-176.662
-32.0105
170.512
84.8152
-8.52329
-13.7058
61.3805
118.439
-25.6438
-122.264
-33.4187
-13.4357
-16.0616
14.6223
-23.6035
-121.465
-100.886
-28.8313
-18.1552
43.4367
105.376
-14.2448
-44.6122
39.8207
28.5878
-19.6951
-38.7792
-21.3311
-13.0542
41.8271
21.999
0.91798
-12.2498
2.89233
-6.4547
1.26406
54.1953
10.281
77.6329
110.531
50.5534
29.9713
-58.9041
2.06759
58.4237
-31.1925
-148.519
-208.791
-86.8122
16.5552
19.3751
34.2103
209.334
143.829
-0.592673
-97.8872
-68.779
-37.6237
3.82734
94.3473
119.595
-3.26816
-22.0042
35.5293
-121.342
-232.196
-134.569
140.896
196.338
176.077
-67.7981
-119.038
-65.6353
5.57764
4.91587
-14.2272
-32.9217
6.4467
53.3665
-17.2316
-62.7079
-22.7658
-113.482
-104.063
7.51528
144.233
245.533
96.1785
-141.203
-131.324
57.4894
123.705
-40.5191
-65.8964
26.9675
21.0815
-38.0995
-18.5281
-13.6945
-8.22792
-14.8182
25.0046
52.2344
22.4377
98.3572
28.4674
-106.607
-137.774
-20.768
-69.3482
34.2446
156.49
168.732
-16.8453
-126.432
-33.0691
41.2122
29.9908
70.7974
18.9713
-37.6271
2.68176
-20.0171
-7.26386
38.8541
0.208196
-59.0667
-56.1174
58.6228
191.782
111.602
-227.4
-325.468
-188.21
-102.098
-25.0895
12.06
82.5064
109.848
54.6698
-75.0436
-100.9
43.8185
64.3332
83.8058
206.114
153.357
15.5457
-2.2153
-36.8844
-24.058
-8.83177
-40.2585
104.358
214.086
130.152
39.6176
-15.939
-116.7
-145.866
-154.764
-132.184
-42.5766
184.174
-39.2292
-189.669
-109.109
5.99756
-42.6783
-28.7414
81.8442
150.46
-73.0361
-145.672
-14.0483
48.0007
89.7452
23.3291
-28.5459
52.0152
257.695
191.223
-38.3917
-198.696
-111.064
21.036
5.24575
-26.4622
21.5667
9.27518
8.91007
11.5034
110.405
-7.19442
-111.358
-132.216
-221.678
-79.9447
98.1955
27.5523
-17.4013
36.262
72.0852
-2.13977
38.8392
59.8811
96.1109
86.3769
6.79126
-17.2263
-77.6826
-69.8016
38.339
143.24
132.868
72.9726
36.1831
20.6792
-6.19569
-4.87492
-85.4539
-96.6657
-42.4478
-27.8992
-131.159
-114.365
-25.1457
61.9658
56.7901
-96.4472
-114.138
-51.7041
6.79546
-16.8288
-68.0197
209.125
321.739
-8.88836
-234.155
-144.608
-35.9569
72.4082
151.203
68.6967
-3.88882
-54.6233
-49.5993
-53.8409
18.9373
65.6659
-8.75183
-16.1759
6.15191
61.555
36.257
-119.764
-50.7902
107.768
9.90834
11.0809
69.063
102.676
47.6807
-123.667
-36.7224
220.958
108.095
-158.85
-232.861
-64.2137
2.82979
121.174
126.426
30.4605
-10.4922
-142.013
-131.028
15.9573
36.7566
7.8285
-38.5698
-74.5675
48.5983
119.387
82.0948
-80.1812
-106.69
-5.2019
-7.67476
-57.8952
-24.4054
-34.1418
9.93305
40.5433
-9.343
-27.0626
-73.3126
-92.4371
88.9834
163.378
160.591
18.8402
-47.4649
-1.84282
-7.80779
-6.87524
41.0737
31.2516
36.3407
-35.8085
-23.1887
-50.2599
-78.795
-4.65571
56.4965
49.1945
54.3097
78.3013
26.9351
-83.0888
-169.1
-127.863
116.497
153.264
8.25689
-79.7626
6.90494
67.1822
63.8412
95.2538
96.2817
-204.653
-204.569
-40.8523
32.4243
83.01
-24.943
-68.2065
-47.1501
-30.7051
-12.3528
17.7032
-82.6795
-35.0802
66.8198
87.0135
41.1307
24.8939
28.4487
17.0054
2.70758
115.497
37.1091
-92.9504
-61.5935
-10.788
13.1011
-11.9282
-9.08586
18.7355
73.4991
110.259
-77.1641
-155.769
-7.19538
32.7413
-20.3833
-46.2246
-68.1629
-13.6765
6.02334
54.4051
0.959564
-15.6226
46.6366
88.5746
68.7522
62.3523
-3.80839
-8.4948
-4.60835
-45.0737
-76.2831
-51.4271
-14.062
-5.68476
-132.903
-88.1782
129.415
217.236
87.3353
-9.46597
68.7881
91.4776
-41.8454
-125.956
-78.8583
-58.6243
-11.4212
34.4958
149.763
95.3154
-221.327
-358.577
-53.8181
248.998
185.855
51.3238
-10.0522
-46.5618
-97.3288
-5.90223
34.898
3.21937
-33.1112
-79.7405
-43.8941
29.5102
62.7135
2.13864
-45.1754
-10.0506
105.617
131.282
-86.0052
-291.409
-130.679
181.608
195.049
-46.6378
-44.9859
163.869
236.601
7.2845
4.12336
63.3773
4.65868
-155.234
-165.615
-61.5014
-60.2984
-54.5575
-7.31896
34.4781
40.4031
159.669
109.668
-129.153
-200.914
-83.4577
51.2622
-8.04686
-67.7399
118.296
84.7898
68.1806
162.86
3.54018
-272.439
-296.273
30.495
449.057
257.183
-43.8746
-71.9462
-121.723
-75.0413
-4.12035
-8.08879
22.3924
63.0127
-9.48266
-121.685
-111.915
-58.9994
-98.4923
-121.812
42.0963
243.384
274.573
-18.1375
-280.949
-131.153
163.385
181.83
-16.3505
-40.062
46.0131
-36.5136
-51.9698
-108.678
-103.45
-11.4907
0.421866
57.9919
62.8243
-40.7657
222.934
233.635
14.4938
-97.5849
-130.618
-75.3156
89.7009
81.4955
5.06834
62.5293
-30.1836
-30.0392
-23.4814
-4.86342
4.18092
-98.3318
-105.522
-115.707
-101.79
15.5127
-1.6462
-22.2207
56.9221
123.645
-1.75325
105.473
56.3635
-123.552
-123.526
-73.6267
-55.792
71.5577
158.859
65.895
-134.294
15.1861
97.4323
99.589
89.9167
53.4317
-30.1215
30.1496
20.4058
-20.1322
-59.806
-78.8833
-92.268
53.9102
123.558
82.0682
-149.886
-353.241
-106.403
400.956
300.503
-92.2301
-155.458
-37.4285
-86.6966
-103.187
-122.049
-93.6841
25.6285
42.0428
-14.4994
-8.81424
32.4969
-10.4182
76.382
-27.3083
104.117
277.734
75.3342
-195.461
-37.7153
124.708
102.649
24.3625
-50.7869
-65.7318
-16.3524
7.49947
69.0099
49.0277
6.53955
3.78088
-12.5331
-29.5571
-110.345
-67.739
96.3869
194.642
18.2846
-315.352
-344.099
-155.404
152
273.878
32.2742
-59.2174
-40.3801
65.7613
48.1602
-14.3637
24.5824
-0.526559
-71.5807
4.86842
42.4525
56.336
-76.6416
-177.537
-194.454
-107.725
245.186
468.773
148.486
-217.003
-140.555
32.9644
10.1267
-30.2739
-36.3005
-29.3475
4.85359
55.8447
5.8314
-51.149
-38.5203
-15.8811
41.5633
44.8235
69.418
97.9328
4.01457
-125.552
-132.54
-47.3875
163.513
99.1103
106.012
124.715
61.5932
-27.4244
-83.1689
-84.2083
-31.9442
-35.5337
-60.4161
-42.8358
-5.17839
-94.4577
-72.5178
23.4938
131.544
33.2269
-94.5401
-76.3852
43.2868
-91.5243
-152.187
-101.136
5.76181
50.2327
-8.58071
163.273
241.625
97.4684
-42.0305
-115.394
-43.6517
34.0413
59.1286
38.9895
-70.666
-43.8668
48.8021
18.3322
-28.6516
66.7487
58.5874
3.53178
-58.0971
-27.5397
105.894
-47.5262
-117.441
-68.4319
15.6249
71.9145
30.534
47.2909
128.207
90.5395
-25.365
-90.4714
-59.0884
10.4348
-16.7389
-15.1176
-34.3637
-26.8938
-32.9441
-107.74
-69.2436
29.8068
66.4348
115.814
101.066
61.6334
23.164
-125.141
-234.217
-194.095
-11.4266
198.502
477.824
222.696
-167.636
-329.961
-146.513
30.6011
37.788
39.6093
30.0544
-45.4979
-30.9269
42.129
12.8468
-90.9914
-122.885
-9.96437
112.393
87.9863
-18.5785
-135.365
-239.754
-107.633
90.6472
208.128
137.216
16.2078
-9.74864
51.399
63.4694
-65.2758
-61.1582
-36.8321
-14.0756
30.8934
49.2971
87.6926
45.7147
33.309
24.7617
7.65404
-105.565
-68.3011
34.7042
142.02
114.455
27.9969
-3.62045
9.65589
-8.67553
-30.6901
-60.2239
-16.6833
-21.1157
-64.5139
2.31002
142.203
28.4183
-120.966
-193.169
-118.16
-103.164
8.11037
-46.2968
-137.656
-31.881
289.474
257.662
-89.2503
-7.11969
121.277
14.2623
-214.279
-246.336
5.08077
314.316
38.5863
-123.005
29.5352
98.9958
76.9457
27.3639
-31.9618
63.6676
89.3129
-34.4765
-215.457
-157.762
129.895
25.868
-156.236
-107.327
32.8813
175.878
60.6259
-142.961
-23.1886
122.563
38.8007
16.1797
-64.7686
-38.4908
154.961
128.755
22.9724
-16.7552
-71.1581
-99.5609
-59.1259
-106.313
-21.0546
77.0442
110.811
138.704
136.058
-51.9992
-123.621
-55.9958
-26.8823
-98.518
-19.7298
19.7396
-86.2799
-29.5243
98.8525
180.324
8.50058
-47.8119
10.129
78.285
28.2352
-90.3254
-79.0534
30.7511
-52.4368
-84.6177
-56.435
17.9935
102.069
28.9448
-23.6571
-42.7446
-42.0231
-16.3529
0.826139
-44.1561
50.6611
71.4434
-46.2104
-49.0199
-2.462
45.5558
2.27192
-65.5211
144.962
177.782
39.8111
-132.505
-79.9071
74.8252
43.9334
-2.89698
-10.0741
-1.80226
40.6547
-1.68083
-50.5212
-103.51
-25.3442
0.742609
38.6499
66.1987
50.2602
-28.3561
-46.4408
-83.1293
18.477
-58.8204
-152.688
10.8198
138.663
76.1231
24.8681
-8.46867
-90.5108
-141.05
-10.3039
187.341
209.898
91.5189
41.8279
-73.7106
-39.2635
28.5587
-81.9055
-173.739
-121.93
35.485
130.578
120.796
-70.9879
-178.643
-79.9998
-11.9225
-68.6489
-74.3841
255.261
317.732
-109.375
-237.946
-62.9871
116.678
79.1397
-0.0177845
-2.27206
114.572
110.573
72.7182
-30.8791
-165.028
-70.6763
60.9798
97.5846
35.8769
46.8456
33.9569
-179.677
-278.678
-65.1699
72.5196
39.5157
22.0129
17.4463
25.759
-36.3912
33.4436
90.1748
-26.8995
-48.0437
-109.654
-123.159
68.6937
193.699
8.54642
-0.103316
39.1312
-63.1029
-67.2695
47.7367
85.101
17.1321
-83.3343
-62.9163
-54.149
-23.7943
-57.3866
-45.1229
198.959
241.723
248.572
-19.15
-230.759
-126.294
-52.9091
29.8031
59.3598
-25.5608
-24.4611
39.7094
19.8477
-12.4797
-24.0815
-26.7143
-45.0562
16.5986
36.8719
-26.6806
34.4376
27.4799
-104.582
-90.3895
65.0872
246.292
243.356
-115.887
-213.082
-118.285
-79.4983
-48.8118
-6.26282
29.3503
118.273
11.6988
-91.0644
-82.8285
-24.9689
12.7711
-91.7448
-102.282
107.287
164.614
29.2484
-261.009
-30.6579
143.71
147.187
111.493
41.3493
50.3123
-21.2506
-21.7898
31.6581
43.098
-8.02095
-30.6366
85.6449
200.515
-40.6364
-119.054
-166.603
-4.13015
40.5472
-43.7701
-107.956
-44.4802
111.729
69.9472
-95.0814
-212.618
-53.4865
-19.1882
-17.6398
70.8424
145.871
129.378
-46.7532
-118.484
-22.9459
5.1597
5.40829
103.821
224.622
49.6899
-171.982
-130.308
-38.9428
173.057
97.1678
9.8286
53.2179
30.9742
-60.0837
-59.4767
-61.1875
-87.6009
-88.1433
-109.061
-6.63818
164.99
131.401
-79.3801
-144.434
-82.6679
32.6069
96.8579
3.21117
-143.055
19.1086
104.539
-90.8588
-159.659
49.3365
242.92
77.5507
87.8538
137.007
-3.63916
-31.7026
-74.2938
-56.4409
35.1677
-16.3386
-14.5444
73.25
8.85394
-51.7707
-113.869
-58.7115
13.5314
7.59395
11.9427
-0.897838
22.1457
67.4154
-57.9368
-117.114
-83.4423
-12.1917
-9.99694
87.4467
91.3547
-49.5324
-58.7264
-41.9367
16.0129
-4.32068
-27.9853
-11.1948
136.138
168.257
99.8892
-25.3679
-96.362
20.878
32.1922
-20.699
-1.89141
59.3242
47.2157
-53.4115
-36.5307
-54.0763
-52.2518
-19.308
64.2158
1.75158
92.4187
173.969
-19.2401
-155.48
-65.3506
-47.6984
-125.61
-176.317
-97.2839
15.9056
-7.05754
70.3637
311.281
109.628
-77.7491
-23.6483
20.6485
23.5711
-8.00724
-45.033
-107.479
-153.427
-106.611
23.6851
104.998
191.086
97.1641
19.9579
-38.9611
-72.6984
37.8966
57.7249
-93.1382
-137.583
-1.92309
125.173
120.031
-79.0466
-267.448
-32.2314
149.801
184.232
133.898
50.4145
-58.5007
-118.299
-71.3354
73.6556
222.655
94.4796
-41.3152
-180.774
-192.545
-33.0158
-19.8099
17.733
54.2906
62.9583
171.905
78.8888
-82.2803
-92.8623
-66.3655
8.86833
3.09137
-84.0889
-94.4399
-62.8204
-12.0498
30.4679
36.0608
57.2815
-48.314
-33.7232
21.9366
23.7736
-7.20334
-20.4014
23.3708
7.51641
-64.9642
-98.9207
-38.8455
76.4288
171.714
107.631
-65.0204
-2.23521
-80.3952
-114.506
-37.7339
190.033
314.726
114.68
-118.566
-217.928
-147.519
123.223
70.168
4.25733
33.45
-5.1484
142.823
115.452
-118.606
-188.204
-14.381
44.4871
20.2037
-12.4519
30.544
-180.257
-306.101
-58.0013
201.992
237.294
119.701
-62.2192
-9.78957
1.12925
-51.4389
-44.6449
-73.487
5.31344
103.422
22.9025
16.0376
-36.1837
-33.4297
7.62699
2.13871
-55.2298
-81.0182
-130.753
-117.008
57.5819
100.25
90.9164
112.222
101.95
93.3242
42.2752
-70.9322
-66.0757
-162.772
-165.366
174.529
289.47
32.8147
-147.668
-60.8796
31.4901
-23.0144
-3.5958
-7.19269
-87.0438
-52.759
28.054
91.2742
96.4168
-57.379
-79.9492
-35.9352
-86.337
10.8125
142.883
66.7413
0.693594
-12.8696
-21.5742
-44.2972
-40.2883
15.0536
78.0943
113.856
84.1205
-156.219
-221.667
-163.08
5.17177
154.26
119.242
33.9622
-14.3429
24.717
52.3345
-104.481
-112.968
-24.4614
109.406
77.2864
22.5945
87.5199
75.4133
-67.0624
-121.183
-90.0756
21.0083
63.8929
36.9211
67.6411
13.4432
-86.6838
-137.75
-94.6612
60.6134
144.837
57.7581
76.2676
79.9589
-15.3527
-20.408
-73.5611
-119.789
-72.698
11.2531
131.447
24.6837
-85.4921
-129.912
-144.614
-52.4657
46.7887
70.8122
97.4538
46.743
-48.4819
-74.6287
8.76789
56.2004
21.6491
-79.2415
-58.0179
109.034
94.968
-45.1789
69.72
117.291
49.9589
1.33367
-9.8105
-9.17321
47.3911
73.45
-42.3248
-113.598
-140.921
-95.3406
-35.9519
16.9832
35.2789
3.03247
31.4343
59.8534
199.421
68.7032
-86.6374
-56.1762
11.53
-4.90384
-25.772
-28.5613
-67.9331
50.0391
38.7831
-70.4042
-83.9255
-61.6026
-7.32754
16.7423
46.0196
59.4302
28.3128
-47.8458
-87.5636
16.1105
-67.2105
-270.7
-54.9915
366.4
134.678
-15.4913
106.388
23.7776
125.808
173.406
-21.4123
-101.749
-104.247
-52.4646
21.0239
64.002
-11.3929
-197.583
-255.696
-174.591
-82.7041
40.8226
5.34851
72.1409
168.985
-11.9672
-91.9138
46.6471
94.0418
44.5102
79.4348
82.1411
66.6897
25.7249
-41.2733
-42.6953
12.2121
53.7047
108.462
38.6918
76.0541
203.586
116.736
-208.164
-231.364
-47.3389
-46.8982
-155.38
-130.807
3.08086
66.6321
-2.76524
-12.587
-10.536
-20.9699
-67.367
-139.807
54.5629
431.047
346.5
-65.4316
-227.421
-227.385
-202.561
9.42635
159.586
85.6517
61.558
2.28147
-62.8502
-44.8566
-3.32321
-2.58163
-4.53488
-14.636
38.3389
72.5122
-2.45053
-235.058
-211.529
119.979
385.765
193.7
-106.597
-252.686
-99.5977
-59.7437
-21.3215
67.0541
52.9155
29.8517
58.4467
2.51057
-1.68481
34.5877
64.2244
78.0465
29.1805
-128.8
-41.5915
20.0282
-123.054
-31.6303
-15.5907
-23.6044
-34.5742
65.3816
104.31
173.603
145.487
-6.54955
-29.1668
-33.4714
-53.7454
-36.5422
-31.192
9.33821
-23.2802
-183.989
-253.423
106.779
374.426
82.2759
-117.584
84.7426
151.11
6.28855
-69.475
-218.117
-161.027
-89.2645
-79.2308
-0.82878
78.2711
113.944
216.304
90.3882
-115.057
-166.99
-38.6676
-157.987
-203.895
30.6948
209.461
64.8673
-14.4675
56.1058
40.503
41.7168
13.7918
25.2951
-4.7631
-29.5011
-28.4437
2.24759
-10.4308
-77.9359
40.945
271.209
269.106
137.836
-132.859
-168.315
-90.2823
-48.7877
-51.1074
-42.95
-33.7555
-12.7917
-48.8823
-68.0347
82.5539
83.7932
-91.8551
-98.369
-34.2684
55.9974
72.7135
86.1862
30.6702
-41.4086
-33.9457
-10.4552
9.24607
-3.45386
-178.841
-101.436
199.044
340.191
157.858
2.84498
-39.546
10.4771
-66.7247
-147.528
-204.168
-132.645
-50.2347
-61.5979
-40.1948
-25.5818
-20.0867
29.9644
132.581
194.218
140.743
52.0385
-65.5851
-239.386
-195.222
-29.0562
-35.7381
31.9748
206.916
188.496
44.3386
36.6244
85.637
24.9274
-33.4638
-57.8699
86.7018
98.7643
-103.132
-144.277
59.0956
130.245
8.9235
-137.59
-60.4841
4.31813
-14.2889
-76.5821
-63.8679
-96.9685
16.9892
82.8229
5.74164
-12.2737
47.0237
76.9524
6.45386
-16.3572
26.7549
-48.3598
-42.0159
-66.3722
-151.471
-152.757
70.5371
405.097
192.773
-78.8435
-27.8271
79.7944
-42.0031
-89.0975
-108.148
-111.385
-60.539
101.142
138.697
-26.587
-106.518
14.2044
-35.4582
-136.312
-56.3804
94.5426
132.359
-168.794
-117.677
28.7623
9.02964
13.8953
52.0687
73.0505
99.5935
50.762
53.2491
13.4675
-30.7939
5.01447
68.17
61.7341
106.745
45.0953
14.5714
-27.8558
-140.73
-65.4784
42.5531
-26.6282
91.0169
246.355
30.3722
-143.008
-91.7191
14.1845
-46.4397
-135.552
-204.355
-17.0193
123.451
44.9044
-95.7089
-75.3849
-35.8882
66.4248
30.5779
-64.9893
-7.62917
130.053
66.6328
-201.435
-250.03
-14.2368
282.805
106.768
-47.4273
-47.9224
56.8391
-29.1386
-60.0699
-23.2421
28.1082
88.2043
55.844
59.0556
86.0903
-35.0192
-59.1378
59.1813
-2.52328
-8.00382
-13.2173
-39.0638
-123.206
-2.33391
86.6693
1.26709
-29.1571
4.5118
-2.07281
40.0811
53.7613
38.1953
20.936
-33.296
-39.9356
42.9299
37.7425
-16.3134
-127.139
-143.67
134.111
253.743
-6.00653
-87.3806
-45.8751
-0.804668
-33.8069
-17.7416
-53.9761
-62.7406
-20.3155
54.5047
42.0916
-5.09593
6.74706
10.5593
-37.0082
-80.3674
-6.51332
140.775
47.4
-146.805
-86.1602
-7.45237
68.6382
44.6535
-34.9414
-50.6876
22.4403
37.3877
48.3243
45.7592
74.8108
4.94023
-108.464
-25.7237
13.6631
6.91896
15.5579
-22.5153
34.9646
43.6101
-25.2221
0.0983078
-8.16891
0.142782
27.9331
25.8855
16.1032
53.8345
-12.7092
-58.7404
-93.4814
-31.2641
46.9349
49.6516
43.1394
28.8688
36.1441
-103.82
-338.63
-165.961
376.24
448.167
-8.51887
-283.939
11.8063
61.7357
-42.6867
-28.3768
-31.2492
-46.8146
-12.3814
9.16453
72.066
38.7355
-80.5891
-67.0244
-54.2709
0.83272
141.836
80.207
-258.343
-390.423
-139.922
236.583
119.864
29.9141
98.101
29.1621
83.7353
67.1647
-5.17108
7.55067
2.63046
1.79725
38.8408
42.1451
95.0419
137.586
23.2262
-78.5327
-129.063
-53.2247
108.795
50.0864
-50.3808
-25.1254
-14.8067
-61.5949
-78.5594
-33.2124
-9.40294
-10.3537
-21.1161
-15.5133
18.7247
33.8137
-51.5576
-80.4392
73.6179
-19.8899
-160.245
37.5658
373.481
184.566
-154.053
-155.198
28.7716
1.69746
-80.9775
-72.3763
-64.1369
-39.7478
-64.4696
64.7578
92.0439
-75.7397
-33.1568
81.8936
155.731
180.715
103.16
-52.5702
-197.121
-141.557
-19.6054
-4.59445
0.399425
249.778
175.592
-62.6896
-100.971
-63.3635
-23.7053
-71.5548
-52.4821
47.079
9.11618
-119.681
-57.4061
-6.78278
107.28
115.185
-14.2688
-8.15033
77.2778
78.8544
-96.9624
-210.059
-123.971
109.133
352.697
159.741
-58.4251
-45.0563
-94.4464
-81.4916
-58.2972
-24.4478
-47.4989
-30.6985
-7.7508
17.109
-111.834
-79.4042
-15.0838
3.83883
7.80413
-6.47784
63.7052
84.9458
27.6374
10.5006
51.3906
85.53
135.176
70.0824
9.58034
-28.7326
-64.43
-23.908
-6.11403
0.271752
36.908
-46.1317
-53.1545
-11.2222
-47.0402
-78.1429
230.203
225.654
-192.908
-272.425
-53.7665
-18.0491
13.7525
-23.5873
-24.3587
20.7572
11.8755
-22.6079
-20.2611
-27.5404
19.1492
132.219
124.632
-81.2862
-115.808
-59.9556
-132.913
-86.6143
21.5923
395.128
402.784
-87.4601
-147.989
85.7237
35.3595
-9.61347
-0.910386
5.26383
-14.5322
-134.465
-126.443
-29.5325
29.2165
81.4037
90.0907
26.8043
-72.579
-73.3583
-48.7496
-150.439
-171.026
17.76
26.3202
-34.2931
15.1081
54.6924
51.4836
12.3633
6.51082
41.1878
76.7406
33.359
-45.3552
23.4589
97.8313
104.285
11.1719
-52.734
14.9086
-38.368
-108.947
-26.5947
66.0549
53.8627
-5.79762
-66.3451
-58.6684
-85.5429
-84.0037
177.012
178.284
37.715
-134.886
-149.535
-38.1097
-3.67672
-4.61901
-5.25527
36.9236
66.3622
44.9878
38.9491
-11.4768
-43.2766
2.53502
30.1912
32.3437
87.2747
131.466
-107.195
-274.243
-156.384
194.793
257.251
-9.12976
-86.6646
-14.1622
81.8597
-10.7703
-72.9708
-41.9022
-52.4146
-16.9087
-17.3407
49.8722
97.0581
7.95602
-7.23303
-46.5156
-63.9307
18.0368
23.7107
10.6541
-42.718
11.3375
13.4158
-94.4319
-127.475
-1.43512
39.0322
65.4445
83.6317
-3.36503
-12.8303
-18.9099
-26.2406
19.3583
21.3023
26.565
-5.65188
15.1783
56.8314
-36.0057
-27.783
7.4432
20.8222
65.1447
73.6512
-28.5672
-64.8455
-70.7681
-17.2008
8.24882
9.22562
-2.1396
-11.1834
7.28741
44.4799
-13.0368
-45.8068
-5.79049
32.0576
4.6102
-79.2758
-36.4315
28.0297
53.6613
-3.24509
-2.08375
46.681
-1.98193
-94.4276
-175.867
123.919
139.423
7.68746
121.615
140.318
40.1495
-41.0767
-21.1471
-47.7408
-24.232
-47.1323
-48.6131
-57.462
-60.4481
-53.1547
-3.13156
16.7324
89.3989
20.5212
44.3679
-96.3661
-94.6218
-20.1931
-63.4378
-84.5536
-14.5089
92.4791
78.7704
-20.6455
-36.7032
49.0492
-5.5046
23.9639
115.56
53.3319
30.1364
-53.1577
115.651
217.807
37.9008
-141.798
-79.6968
-4.49712
-24.1749
-33.8758
-68.7766
-49.2023
-45.6447
-19.9696
-20.1871
13.1571
70.7271
14.5434
-100.046
-28.3567
99.4123
126.684
-89.5338
-117.234
40.4057
178.098
15.6715
-152.016
-120.413
-61.5741
-16.3053
9.96678
73.3752
125.974
91.987
-0.689802
-55.5913
-53.6873
-26.7038
-67.717
-87.9415
72.6021
239.159
142.621
-139.669
-347.091
-141.007
115.624
206.894
160.315
86.4659
123.22
113.434
-45.3511
-111.966
-15.1943
-28.0169
-58.2578
-66.8405
-55.9507
19.8006
-79.2754
-189.096
-91.0719
93.4322
136.283
73.7192
37.3781
-55.4108
-222.681
-206.701
16.1761
215.864
98.6499
4.07771
46.5091
197.522
44.0546
-99.6095
-40.8337
-36.7633
-31.5423
-48.4588
2.99276
122.817
76.3803
20.2765
-14.4595
-50.6773
25.7305
81.4028
-64.6154
-198.102
-24.3296
18.4252
-23.1479
-52.6944
53.8025
105.015
73.7259
3.57002
-13.0096
-7.50037
3.40168
96.264
8.45178
-128.951
-71.7991
-4.88438
52.8888
74.3449
-40.5449
-138.254
-93.9798
2.03155
15.4931
-19.5342
17.6458
51.5381
70.9646
35.759
-25.6798
-32.7172
-11.7593
-40.2497
45.7911
111.728
91.4756
-3.59721
-109.009
-53.8193
134.585
109.727
-69.5527
-148.829
-8.4542
32.6615
-11.5005
32.4341
28.3143
-35.5383
-35.2913
-17.4078
-1.01509
-16.8274
53.1491
37.4607
-31.3184
-28.8415
37.4556
22.5758
-82.3218
-69.2768
79.9784
96.8309
-80.7707
-136.811
-15.0035
8.78285
60.4776
56.8786
86.4489
132.244
26.4869
-108.488
-70.773
0.0644811
-10.3128
-25.8947
25.5982
-38.4137
-59.8917
-8.75138
-7.05532
19.6571
44.8915
85.1468
108.467
-11.6591
-113.57
-63.0173
-50.7667
-86.3851
-30.8907
31.4946
34.7877
44.0347
8.23076
6.71583
8.54026
36.9285
0.969378
-43.695
-13.4022
46.2607
96.0526
56.18
-91.9285
-36.7729
2.8038
21.322
13.0525
-17.5286
4.39618
66.3652
63.991
13.4492
-44.9309
-27.8402
-21.8189
0.232302
-7.66727
-25.1988
25.5677
24.4836
-58.6292
-42.1326
13.8347
32.0105
16.2406
0.731878
20.596
-29.6802
-38.4049
-34.9533
-43.739
-13.2329
41.6276
53.4115
79.3881
-9.92014
-47.8857
-48.9167
-62.4479
-33.9591
-1.8328
-11.68
22.307
42.4004
-8.70568
-62.2266
-54.6248
-22.5817
1.16871
2.52603
3.71133
35.8383
108.401
77.6485
51.2936
105.009
95.9202
38.9938
-9.91958
-5.6104
16.58
-42.4503
-56.1743
-66.3149
-45.2762
-23.3203
-39.5748
-18.7783
-21.0412
-85.6919
-72.0108
-54.5516
-53.0923
-55.2741
-66.4481
-15.2193
2.87873
41.2692
101.267
123.914
123.494
117.437
89.9363
111.949
56.7828
28.169
-15.6655
-30.2305
-42.3148
-28.185
-67.6392
-90.1004
-81.2605
-45.8471
-97.4619
-92.7659
-72.0785
-47.0507
-34.0325
-7.31616
18.1385
77.94
137.611
66.7773
22.4598
55.6101
92.9285
94.7934
86.7785
84.9063
73.295
48.5545
-77.8822
-89.8507
-59.4754
-71.1237
-56.5812
-38.2783
-24.9815
-103.886
-151.059
-129.614
-113.274
-52.9298
40.08
53.3972
90.1438
37.6402
40.7225
50.2535
39.5388
21.5332
32.3796
52.5848
137.735
48.2474
-24.9724
-38.5151
-74.0387
-65.872
-40.8241
-40.8306
-44.8607
-43.4903
-97.6705
-65.2629
-27.8918
55.7994
128.116
201.32
243.65
230.547
251.127
130.516
38.7341
38.8419
6.18498
-64.0198
-126.305
-116.909
-78.7427
-173.826
-171.058
-138.149
-61.8916
-91.8353
-137.71
-100.428
-75.3861
-189.898
-212.015
-198.5
-182.023
-93.1251
-23.7821
50.3809
133.277
176.479
159.644
199.571
224.74
286.876
259.926
215.823
236.379
202.724
26.2449
-58.4826
-101.997
-73.2755
-86.1903
-70.9688
-27.9204
-2.59826
-7.27168
-93.8558
-91.8848
-88.4882
-61.775
-44.5224
1.50333
69.3672
112.503
30.091
-96.8422
-93.8001
-23.3941
-22.6971
-81.4141
-127.202
-75.5705
-59.5941
-70.2059
-49.7713
-4.44788
125.007
172.505
179.906
176.642
63.7745
-83.7427
-184.044
-224.719
-178.809
-112.449
-23.2705
65.3333
-17.1012
63.2025
195.94
207.727
199.497
184.168
174.867
142.368
-22.5357
-107.04
-145.23
-162.365
-124.97
-90.3332
-72.97
-61.1356
-129.116
-94.6564
-68.35
-59.8108
-18.0294
-26.5137
-17.6187
33.765
128.993
23.0384
-30.5145
-22.4034
59.3592
79.5046
116.521
166.556
158.812
150.156
21.8144
-38.8441
53.1845
110.648
79.9188
27.3678
-12.4755
-57.9239
-121.246
-154.243
-123.967
13.4284
9.15359
-54.2968
-57.3351
-31.0273
-108.254
-131.142
-96.5183
-109.755
-23.1843
33.3706
79.3826
84.0248
28.5144
75.1238
205.02
261.327
197.539
130.233
55.2608
27.1824
-2.8893
-163.423
-198.209
-278.017
-261.565
-234.681
-180.158
-42.0993
82.2443
101.886
54.9197
55.3244
34.7789
4.76642
-30.3042
-69.3202
-7.31284
-38.3192
-143.333
-72.3492
78.8676
143.145
67.1893
77.9486
171.535
158.118
57.6757
28.5006
86.7788
130.315
89.1404
65.1139
137.319
106.833
-32.9404
-84.967
-87.2235
-55.0478
-13.3128
-55.3932
-116.183
-66.5753
3.91376
36.2501
54.4748
-34.0229
-90.8338
-126.513
-76.4638
-105.83
-195.169
-275.484
-187.197
-96.4641
38.7086
106.125
153.958
140.817
69.9876
-8.90484
-38.8323
-29.5563
39.2559
123.758
143.259
240.496
381.413
300.148
168.007
80.3293
-0.362415
-27.0545
-218.902
-295.988
-299.621
-244.634
-97.5927
-65.1191
42.9772
267.649
399.979
281.817
22.8413
-207.298
-332.298
-436.607
-426.537
-312.894
-185.208
-81.1698
49.9584
109.467
159.713
169.711
144.074
95.6139
46.068
50.3244
26.3975
-77.495
-224.581
-204.377
-183.605
65.285
244.84
435.692
579.702
633.937
510.239
262.229
40.5172
-301.041
-394.806
-344.584
-160.308
-3.72628
75.127
26.8157
-19.7343
-123.679
-233.374
-148.267
57.1538
12.3187
-113.381
-150.397
-218.759
-352.446
-488.67
-252.008
81.0689
384.645
455.874
385.013
258.646
133.061
7.41445
-33.8424
-116.576
-193.116
-138.391
-113.64
-46.5374
-5.53706
26.3374
-51.8832
-22.341
136.237
138.011
13.9151
71.7424
215.467
161.482
4.78365
31.7633
-60.2533
-360.792
-419.964
-75.3216
327.82
497.836
288.066
11.6293
13.0813
82.2281
133.786
64.2735
-78.4828
-112.42
-169.356
-352.979
-428.864
-314.675
-187.873
-231.076
-188.175
-72.2284
27.5216
-13.3402
-3.96795
81.5297
424.545
653.26
488.536
141.83
-154.37
-304.851
-272.911
-97.2188
158.271
347.523
469.66
320.683
-12.1966
-128.626
-185.31
-163.363
-46.3322
-48.0693
-253.558
-419.06
-493.452
-592.005
-405.271
15.1493
450.306
717.205
834.392
641.988
274.672
26.0235
-297.647
-338.046
-176.898
-43.3398
123.768
187.798
62.9153
-111.485
-175.212
-212.474
-340.15
-141.985
78.0021
80.0069
-38.6446
-165.357
-301.07
-299.336
-364.951
-302.006
-61.9799
189.945
397.286
354.543
253.471
235.865
141.132
183.689
138.891
124.11
171.528
19.0843
-193.519
-223.262
-190.528
-133.068
-130.169
-67.0744
60.6012
130.693
33.9181
24.6471
169.599
144.758
159.004
210.786
201.482
20.3101
-254.616
-549.148
-467.352
-204.853
-60.3201
284.608
733.298
857.546
601.935
87.5413
-173.404
-134.623
-126.517
-199.835
-393.921
-467.702
-495.954
-445.152
-254.066
-210.392
-183.136
38.2579
51.9697
21.3742
88.4882
96.3006
-5.43947
-232.584
-168.819
199.317
268.52
66.7562
51.6464
75.4488
142.37
282.048
279.046
158.808
97.5176
94.8898
196.716
234.97
232.74
175.185
13.8359
-367.105
-645.694
-667.854
-520.541
-295.273
39.2293
251.067
349.356
428.01
219.481
124.35
199.557
208.712
204.054
265.998
255.5
197.097
170.851
67.3341
-157.797
-230.768
-353.651
-564.421
-589.489
-445.651
-617.475
-821.467
-297.666
407.659
745.489
779.44
925.38
698.206
180.3
-90.0817
-221.073
-291.577
-321.354
-280.858
-233.368
-240.448
-163.971
-15.7129
18.6211
96.5369
238.666
302.448
-62.9798
-582.811
-693.487
-631.219
-601.027
-313.702
93.2273
364.012
496.33
645.452
668.173
545.982
453.456
245.078
168.972
153.902
-12.1763
-147.021
94.996
381.912
493.071
413.937
128.499
-264.016
-445.22
-494.011
-467.422
-416.315
-238.382
-179.176
-205.661
-124.42
-124.971
-130.718
-294.172
-430.363
-336.568
-185.07
-150.731
30.2424
292.634
367.802
620.013
1019.48
844.595
542.561
452.154
169.785
-185.235
-429.731
-515.196
-532.736
-450.593
-313.913
-126.91
43.4577
85.4108
-62.7606
-286.034
-534.564
-748.401
-593.941
-57.7578
248.318
324.05
453.259
138.128
-4.94017
171.643
275.158
320.378
330.098
234.991
249.108
240.906
283.24
315.605
274.218
346.619
375.427
94.1486
-275.005
-620.366
-946.823
-948.915
-688.932
-177.67
377.486
629.591
596.348
265.991
-5.29124
22.0402
9.24988
3.54929
82.4467
-12.8641
-121.362
-77.8116
-37.5822
-45.4456
-12.2044
-92.6768
-129.882
-166.938
-239.5
-252.456
-292.878
-307.124
-217.581
-14.8138
136.333
150.206
99.1081
-187.874
-288.995
3.64957
444.559
778.824
922.848
837.091
249.721
-97.7843
-155.169
-177.006
-197.702
-216.317
-284.313
-318.699
-292.019
-150.752
-74.0063
-46.0893
18.9824
176.375
201.843
123.894
-56.6702
-238.317
-400.764
-437.185
-126.452
23.4962
-20.2132
-15.4542
84.8966
188.627
296.049
313.103
202.193
127.497
89.6172
126.823
141.936
129.38
63.5474
29.1504
-52.1799
-226.519
-278.057
-244.991
-184.349
-19.5364
167.686
225.246
224.389
104.339
-122.023
-293.092
-268.209
-184.088
-54.4585
123.165
324.701
389.659
287.676
106.057
-44.1633
-142.099
-259.554
-259.248
-151.788
-235.735
-227.691
-67.1602
-49.5142
-84.9597
-48.802
32.7334
105.204
-57.7714
-141.817
-156.499
-190.691
-180.324
62.9643
292.892
341.955
502.849
686.752
655.774
387.437
210.895
144.807
-73.4863
-280.247
-292.84
-218.024
-242.24
-270.019
-131.149
-90.2962
-185.494
-359.101
-370.348
-286.814
-173.848
-9.04606
73.5281
78.9476
99.4713
184.739
67.5528
-167.316
-133.33
25.2421
62.8566
202.022
285.382
231.313
200.124
154.403
14.9508
-165.181
-199.712
-113.037
111.069
468.738
648.787
494.338
37.3613
-298.67
-316.735
-244.215
-228.073
-192.021
-94.8793
-171.658
-149.273
-146.875
-273.429
-348.126
-252.271
67.0262
401.392
508.761
439.558
154.013
-303.765
-418.887
-213.576
-68.8066
28.1249
63.4778
-49.0493
-243.146
-431.88
-542.068
-466.747
38.4247
779.227
1320.34
1692.93
1558.93
804.719
-35.898
-631.45
-895.921
-942.32
-891.489
-671.638
-458.374
-331.203
-228.196
-62.3561
98.2333
214.632
239.044
204.746
43.9574
-198.365
-462.211
-599.439
-497.614
-122.853
180.447
352.393
281.633
254.224
282.491
240.991
324.179
368.775
305.497
264.286
213.703
30.0445
-43.4067
-7.79403
-48.9849
217.92
730.26
748.978
201.243
-381.923
-493.977
-467.883
-237.05
8.63349
-129.383
-323.778
-323.621
-204.975
-271.592
-369.684
-316.351
-124.523
67.0293
14.2991
-207.226
-442.451
-607.123
-279.149
330.999
730.674
882.443
804.823
506.902
41.7794
-175.424
-189.145
-146.143
-183.88
-87.2512
21.4762
30.7141
56.8139
64.129
123.033
110.094
-70.2039
-335.523
-709.009
-765.816
-476.512
-256.694
-2.34337
280.651
312.502
268.491
384.562
421.348
381.487
357.363
336.815
374.278
344.272
56.597
-45.2133
-96.3262
-311.082
-339.32
29.9717
315.845
346.222
343.802
131.508
-195.356
-329.245
-268.235
-252.249
-211.298
-117.721
-139.889
-232.131
-236.329
-185.643
-44.7263
25.269
135.609
193.665
7.54547
-401.292
-708.81
-800.782
-864.101
-722.832
-275.915
335.995
909.998
1297.82
1282.33
930.847
616.893
332.571
37.6384
-127.774
-176.842
-290.099
-221.156
-86.4687
23.0644
-29.8727
-148.064
-12.7981
134.358
-88.8924
-452.3
-611.859
-633.038
-627.205
-443.021
22.4524
318.499
257.02
242.596
251.08
233.731
302.534
412.412
452.109
376.719
-3.23839
-128.213
-153.311
-317.592
-357.82
-195.067
-124.574
-256.69
-306.448
-107.565
27.0224
365.261
799.602
726.251
496.149
386.175
108.507
-180.367
-323.454
-320.525
-156.92
-278.167
-601.777
-622.165
-278.544
123.209
560.211
570.625
196.841
-226.614
-471.246
-714.768
-768.027
-541.587
-210.516
4.92488
270.615
382.346
407.094
338.272
280.611
351.546
459.557
467.604
252.12
-77.982
-446.8
-706.792
-670.361
-260.729
342.434
919.041
1193.52
906.569
301.534
-97.8528
-311.911
-411.465
-407.531
-403.588
-486.266
-346.151
-166.03
-29.8244
247.403
234.879
-10.2035
88.3171
199.373
-5.28832
-290.854
-549.737
-649.26
-478.223
-249.278
-185.147
-124.5
-20.4475
171.835
587.581
891.845
655.333
366.55
229.569
-7.90784
-189.009
-155.898
-120.024
32.0204
138.65
24.0936
-21.2536
-65.143
-252.746
-208.127
11.0395
289.055
528.09
327.95
-164.161
-366.733
-364.582
-280.036
-231.269
-157.016
-36.5461
108.262
232.352
166.418
-89.3669
-225.378
-387.042
-634.546
-639.493
-443.016
-260.319
106.867
726.917
1059.36
929.197
851.961
645.337
321.403
57.065
-110.866
-164.319
-251.468
-344.799
-332.494
-302.594
-336.102
-355.155
-168.141
138.924
247.342
155.69
-221.523
-684.117
-845.371
-579.45
-205.973
115.521
308.149
371.342
348.988
398.118
399.435
312.222
244.414
240.073
122.837
50.1238
132.564
217.772
234.305
202.312
79.6409
-185.3
-485.083
-595.665
-579.435
-294.03
75.0381
223.046
178.595
8.30914
67.7661
241.554
215.597
-14.6566
-104.532
-87.3261
-96.544
-118.072
-88.4552
-22.7376
11.6035
-146.111
-103.816
41.3493
67.7059
69.9894
-27.5932
-105.981
-88.0857
-81.3698
-181.121
-143.644
5.67492
101.321
70.0084
58.9109
104.399
166.291
184.392
-147.254
-492.498
-214.919
422.057
946.496
1200.08
924.626
329.456
-81.1113
-328.298
-487.583
-482.762
-505.863
-500.519
-380.18
-278.028
-212.834
-212.244
-264.292
-456.599
-423.073
-178.314
41.4263
369.222
597.628
352.873
-148.748
-178.245
-2.12766
108.602
182.397
195.814
185.014
99.7093
105.964
180.279
174.697
133.631
155.219
292.351
416.575
357.083
36.5585
-494.972
-951.333
-977.832
-479.14
54.6936
244.514
311.039
358.571
391.889
328.9
202.146
98.5766
76.96
-6.56758
-75.9315
-70.2156
-25.4713
68.9931
120.863
31.7319
-148.198
-401.08
-517.243
-411.09
-316.957
-218.433
-93.2498
-5.05577
0.581539
54.4072
121.651
77.3825
31.8874
68.809
36.7401
-109.874
-4.45747
212.998
436.263
715.428
853.253
521.83
17.1999
-231.604
-340.772
-321.257
-247.271
-189.262
-241.596
-345.281
-290.304
-221.354
-199.312
-97.7507
-48.7938
206.115
376.745
374.873
469.919
413.815
-88.2872
-378.669
-273.626
-116.483
-143.526
-152.437
-108.248
-131.667
-180.155
-144.967
-212.947
-210.752
20.0001
337.485
714.959
1015.61
686.822
245.765
-140.529
-538.324
-588.592
-398.456
-302.183
-210.913
-73.9132
-26.9691
-9.02928
53.2735
145.063
150.135
130.339
213.353
181.479
-49.7169
-206.151
-352.732
-287.153
-15.863
99.7739
43.561
-76.2143
-16.7954
124.338
155.162
188.707
121.795
-11.9497
-37.9711
-18.0452
102.354
263.173
265.408
0.361193
-176.47
-184.332
-147.32
274.785
365.814
-70.56
-274.559
-201.386
-97.9718
-91.3916
-141.759
-113.162
-63.9028
-34.4508
-45.7895
-22.6791
-34.8756
10.6318
-7.76824
-81.1287
-57.39
102.863
305.713
245.907
-76.6781
-166.327
-121.557
-15.1496
-51.2368
-3.02447
83.7981
41.0081
38.5192
146.889
227.214
156.223
31.6505
-103.188
-193.212
-280.479
-773.308
-890.165
-475.103
87.7051
1267.87
2056.66
1344.76
337.111
45.0499
-145.015
-359.312
-425.551
-504.532
-509.034
-482.502
-389.666
-293.349
-196.998
-49.6869
103.877
352.207
178.975
-419.742
-980.419
-1349.34
-1246.56
-368.056
546.519
853.099
970.617
918.445
695.675
725.915
555.533
340.97
211.831
162.491
91.3538
-47.7818
13.4563
127.928
91.2831
-65.2346
-279.332
-548.117
-689.153
-620.245
-453.592
-337.205
-308.343
-173.292
19.5094
97.2109
157.864
235.46
219.455
141.773
-47.7443
-164.141
-7.96607
335.089
727.094
987.98
726.139
112.271
-269.84
-302.678
-345.959
-374.409
-324.392
-258.286
-286.724
-281.924
-186.092
-99.3527
-41.059
18.9128
171.838
299.103
296.098
170.671
-157.92
-389.206
-324.047
-183.571
-197.439
-196.767
-75.6283
100.661
179.257
359.284
428.245
231.379
123.769
163.072
248.165
317.77
201.588
65.6497
-22.1427
-103.832
-180.188
-285.639
-253.417
-129.065
-95.7093
-73.0337
-38.0309
-87.3823
-111.554
-204.596
-152.168
4.2376
-61.2933
3.79754
121.866
83.474
226.12
374.126
301.928
130.774
5.22469
-315.754
-372.059
-226.884
-34.841
56.704
14.0535
12.9425
62.4622
91.5856
80.1568
87.5481
82.6175
-76.1619
-267.932
-360.323
-246.927
-17.5999
213.812
516.312
610.41
398.896
130.009
-84.9049
-126.126
-73.1362
15.5806
-44.6894
-205.383
-317.07
-325.572
-383.886
-250.562
-39.8607
245.573
467.105
387.635
156.89
-216.919
-469.745
-457.352
-158.347
212.151
369.555
128.385
-17.7367
10.1215
26.3793
-33.1549
-63.1112
-74.9099
-122.036
-95.4234
-17.0517
179.407
350.254
228.569
70.5855
53.635
-34.5921
-67.4598
-95.2618
-215.164
-228.713
121.028
327.235
205.892
55.9717
36.2
50.699
24.3302
82.0083
70.1144
-82.2211
-310.822
-469.852
-366.398
-240.167
-177.937
-31.4122
95.8299
253.335
282.304
265.135
149.444
-69.7017
-184.074
-117.831
-19.2701
142.249
186.761
168.714
225.457
202.372
73.4567
-24.8588
-60.8651
-39.1467
-12.2832
-106.382
-231.264
-230.805
-232.478
-356.733
-536.023
-360.303
56.5729
570.404
948.185
933.854
663.739
164.965
-220.114
-316.677
-387.242
-419.787
-366.617
-295.464
-175.422
-64.106
-92.3311
-85.0711
-21.0789
66.4577
169.548
146.355
14.2215
-227.726
-528.589
-685.653
-418.048
57.8526
445.581
594.176
549.044
413.962
270.261
264.959
225.889
135.383
107.133
108.546
115.932
87.6863
-35.748
-66.7028
-138.815
-321.475
-530.642
-515.802
-320.882
-15.6529
205.337
486.151
426.834
80.8048
-73.643
-144.369
-151.57
-112.592
-57.6618
-68.6899
-106.12
-80.3853
9.30222
34.6723
45.5787
11.5634
103.945
171.734
30.4931
-78.9463
-213.6
-442.884
-421.42
-154.631
19.7089
29.7818
40.5144
98.7434
132.587
255.335
322.679
309.082
360.896
266.405
118.112
97.1313
41.8575
-0.143926
-5.09321
-68.8313
-164.405
-290.589
-250.906
-140.691
-97.2112
-30.8221
19.098
-71.7378
-279.241
-383.132
-279.834
-81.4656
216.286
470.437
491.666
382.074
417.646
358.637
176.523
36.0478
-198.677
-505.73
-514.814
-361.916
-148.033
92.484
236.039
208.522
157.603
4.68729
-81.9098
-135.609
-251.23
-348.992
-329.422
-226.718
-157.697
-201.65
-259.244
-430.084
-265.749
182.666
646.518
1114.13
1218.23
645.327
95.5113
-41.5779
3.14702
14.2335
-55.0863
-90.7641
-158.24
-318.031
-328.157
-310.942
-249.151
-130.402
31.1164
233.368
310.749
113.659
-240.273
-486.864
-605.783
-505.448
-337.566
-168.517
7.65809
243.709
434.343
442.902
456.485
444.724
420.65
497.245
323
15.5526
-48.7453
-39.8558
-202.936
-208.29
-238.794
-375.863
-408.599
-252.518
-66.817
43.3152
-28.1918
-84.415
-162.811
-195.605
-217.697
-193.923
-164.208
-219.245
-233.085
74.8592
310.373
365.402
437.516
484.163
301.745
243.781
328.276
322.277
207.658
69.7577
27.4331
-58.1361
-123.356
-177.219
-249.583
-267.066
-296.614
-388.955
-346.067
-255.358
-102.716
211.649
546.274
642.817
370.233
-46.933
-290.057
-296.386
-237.263
-182.279
-61.1405
-0.250387
-83.6492
-112.607
-122.807
-60.6992
7.22689
114.959
284.939
267.182
54.0712
-135.696
-278.832
-318.259
-124.975
-4.66409
-10.2257
-50.482
-55.6345
76.5656
228.132
371.003
478.357
354.776
174.446
124.303
-28.4118
-86.6068
-138.378
-243.115
-253.259
-232.211
-177.679
13.8498
298.236
140.888
-69.2395
24.8283
164.915
132.593
28.579
-148.976
-235.223
-93.6089
-9.42641
-2.32782
-50.3523
4.55418
34.6103
27.0628
-33.1159
-142.292
-258.891
-324.307
-292.262
15.1779
254.3
281.045
232.959
113.597
35.1696
8.35171
-126.006
-168.873
-84.5173
-63.4617
-1.79557
5.04653
59.3456
58.4535
142.323
329.436
488.403
447.947
208.761
12.5012
-42.3952
-185.353
-249.786
-223.805
-235.062
-251.706
-165.425
-88.2957
-6.77366
55.4253
57.1164
-49.7839
-56.9642
8.88644
14.6865
-58.2894
-176.077
-264.846
-269.891
-274.123
-220.773
-44.9644
189.462
475.139
612.089
501.324
329.073
128.079
37.6718
-8.34696
27.51
49.6212
3.95818
1.17122
30.5941
-144.829
-340.411
-379.604
-208.973
50.513
188.216
89.2445
-141.46
-254.86
-256.406
-233.36
-68.346
112.305
167.368
136.772
54.3479
33.0255
51.2275
1.34157
38.3889
220.548
335.862
112.567
16.3419
95.2508
19.425
-9.90134
-59.775
-307.72
-441.053
-372.645
-286.903
-215.148
-8.03793
288.996
597.508
608.014
405.522
245.893
-3.26643
-198.081
-294.375
-250.14
-176.294
-243.67
-249.534
-158.916
-60.5341
35.107
100.848
160.74
169.409
60.5824
-89.7735
-199.463
-234.131
-140.988
2.71956
177.134
249.756
125.915
35.0385
65.6199
97.2136
128.409
109.012
92.9428
98.8109
-40.3763
-59.9142
13.9635
116.449
298.776
291.343
18.8181
-164.854
-192.198
-275.15
-419.077
-619.01
-651.522
-442.316
-51.6756
457.556
941.981
970.457
604.015
158.128
-48.4178
-122.188
-187.639
-244.323
-321.293
-361.56
-276.77
-191.167
-266.377
-194.294
-59.481
111.039
259.713
234.894
93.6052
-206.65
-555.068
-536.386
-281.624
-19.6498
238.318
414.394
471.753
446.567
337.908
276.763
180.338
33.1163
33.0947
30.9685
34.3451
127.011
114.271
67.425
-23.9704
-160.872
-253.38
-256.662
-186.364
-102.901
-135.223
-255.382
-310.793
-160.936
184.656
462.033
412.523
279.773
153.804
54.1915
-63.2784
-128.863
-80.0957
-85.365
-129.219
-176.465
-181.771
-186.008
-243.218
-180.6
-80.4067
-27.4279
83.6207
115.061
149.718
99.3857
26.9624
-15.5553
-39.981
5.27117
82.8486
119.484
173.905
121.175
-27.4098
-124.05
-125.865
-51.0494
90.1954
199.198
320.674
276.012
-42.1212
-220.184
-371.31
-423.429
-193.862
169.718
364.154
304.361
240.627
28.4792
-271.928
-279.527
-126.22
-0.115997
196.232
498.701
530.9
172.297
-106.784
-163.356
-128.836
-163.622
-261.196
-327.45
-316.515
-341.355
-262.338
-204.067
-170.959
-28.2246
147.522
207.903
224.095
208.509
44.1591
-231.641
-343.12
-107.906
156.274
342.437
533.61
496.533
296.864
155.658
20.7003
-81.7616
-142.018
-117.403
-78.0699
-31.9483
36.9227
27.8127
-92.7659
-265.578
-326.411
-231.148
52.0933
287.987
356.769
231.831
38.3539
-164.673
-248.386
-249.653
-205.442
-160.605
-60.429
96.2387
266.937
326.359
123.263
24.7583
4.95852
37.6822
-0.936012
-110.183
-190.338
-289.534
-369.911
-285.841
-139.791
-12.2968
34.27
37.4289
43.6614
-5.27132
-32.4348
97.9207
355.729
627.398
606.269
296.734
84.5661
-35.8757
-100.171
-197.044
-229.228
-127.56
18.2803
80.1555
-11.8241
-138.645
-94.5927
-52.5262
-39.5723
-36.9335
-13.4929
-83.0305
-263.363
-435.322
-349.587
-115.679
139.89
256.841
245.579
211.707
143.882
58.3766
-52.6105
-122.39
-18.0019
60.5766
77.4955
121.152
160.964
178.036
111.212
0.634302
-55.6119
-172.277
-170.401
-79.47
-145.736
-291.594
-232.16
-49.0039
199.2
429.653
518.573
357.282
46.2354
-54.2814
29.2128
-2.59277
-28.0623
-75.7613
-88.6393
-110.753
-223.644
-250.418
-175.536
-116.357
-19.0296
69.1567
17.8541
-70.1113
-250.491
-341.606
-303.133
-181.024
73.6554
412.035
418.05
241.111
166.545
150.612
122.144
53.4735
-21.8029
6.18098
19.3604
-82.8799
-50.9094
40.14
77.8183
47.4316
28.5876
-57.6929
-81.1178
-54.1905
8.11231
-59.5012
-175.459
-127.158
-92.2391
-61.0326
-49.9075
-177.855
-241.585
-105.934
98.1594
347.692
596.995
677.094
438.712
114.376
-27.1442
-107.126
-234.031
-281.767
-285.137
-299.309
-206.641
-158.96
-169.886
-88.7157
-9.22307
101.128
167.284
105.58
28.8087
-30.46
-174.367
-262.741
-172.304
-80.1831
-34.064
27.4845
104.728
219.035
335.554
232.381
78.3425
62.015
165.618
197.413
153.072
127.813
8.48283
-92.2067
-99.5863
-146.023
-283.243
-371.391
-257.561
-19.1862
65.3766
230.326
328.834
343.919
91.3825
-155.487
-155.181
-74.2634
-89.7163
-195.549
-204.831
-149.198
-42.7542
-1.72862
-10.7013
33.612
90.1449
37.2796
38.0347
64.4965
39.9072
-78.5078
-149.082
-235.736
-282.878
-155.912
-138.645
-54.0391
215.755
553.214
720.237
701.223
563.414
317.406
36.7641
-177.876
-275.844
-221.777
-175.108
-189.559
-200.514
-262.079
-288.919
-246.452
-164.387
-76.1635
38.9861
-35.3798
-253.6
-397.993
-415.881
-195.784
97.8567
361.615
467.534
327.968
196.463
201.406
171.375
149.631
71.5047
33.5351
-27.1354
-88.4108
-29.7668
39.8096
82.3922
140.96
103.026
-68.9185
-128.84
-173.3
-242.632
-265.946
-159.468
-12.6813
47.504
130.101
107.263
57.3709
64.8676
31.2711
4.03208
16.1739
74.8249
124.96
59.034
16.4804
-63.6276
-197.577
-387.523
-478.652
-329.926
66.1521
530.876
776.213
723.156
407.414
61.7906
-154.2
-189.007
-154.93
-190.864
-324.047
-281.251
-229.749
-162.583
-137.733
-98.1853
-2.26852
117.944
158.59
48.6601
-118.14
-358.452
-435.04
-338.213
-143.249
74.9509
246.19
338.315
265.519
154.579
203.249
202.878
194.625
196.542
182.317
219.49
235.069
106.492
50.2804
16.2355
-108.564
-230.12
-262.959
-211.724
-125.936
-67.4693
-37.0288
-69.4163
-75.8014
-36.9573
-39.5207
0.22373
-29.8104
-37.9856
94.1411
175.112
124.868
88.0721
25.771
-40.9993
-181.442
-270.089
-115.708
-41.6684
75.8578
304.954
406.071
212.161
14.0281
-129.198
-148.642
-182.338
-169.948
-150.114
-202.938
-188.912
-78.1515
0.302367
-62.4683
-53.6518
-6.68628
54.2085
15.2532
11.3542
-20.0023
-48.2383
-81.4834
-35.5669
99.3839
217.915
261.242
227.979
211.134
226.694
146.71
37.0338
24.1712
34.4806
63.8511
29.7176
-59.0443
-123.795
-113.962
-39.8127
21.0641
128.322
78.7241
1.03923
-121.881
-263.274
-302.523
-201.249
-132.804
61.5637
296.006
420.68
259.993
13.3034
-83.8294
-134.622
-206.998
-220.09
-232.118
-182.938
-108.476
-149.802
-189.038
-84.5817
27.6372
94.1107
76.6776
91.6406
120.368
51.3866
-68.5353
-125.697
-0.5467
101.411
97.8532
140.572
195.888
191.072
136.938
57.216
18.0535
-73.4325
-104.458
-18.1792
45.3958
141.657
183.79
112.917
97.4052
-109.874
-353.567
-356.106
-257.064
-25.0713
299.898
494.917
422.098
239.534
108.849
2.26698
-135.326
-243.674
-256.622
-226.525
-140.495
-114.858
-172.748
-171.922
-169.817
-184.25
-202.12
-162.8
-56.6806
80.0753
156.705
254.642
245.512
180.336
79.9185
-19.3237
-51.6335
-12.2957
59.4358
117.635
7.23417
-13.374
61.5343
64.247
28.8074
61.3358
145.438
122.56
80.9007
-37.6713
-181.157
-299.884
-244.575
-245.418
-353.986
-357.599
-171.675
77.8054
485.339
804.104
874.894
561.532
201.333
-4.88618
-113.619
-194.717
-177.41
-215.096
-268.09
-292.933
-329.842
-339.051
-239.271
-123.474
27.8352
133.613
88.8783
-20.3135
-202.671
-391.668
-386.638
-117.532
82.8293
82.1735
110.384
171.527
276.256
311.239
276.818
353.159
404.281
218.225
35.0141
60.5115
110.608
93.3296
36.6463
-25.6806
-95.6322
-281.969
-315.986
-271.201
-221.34
-126.308
-48.6249
84.0295
156.105
91.4334
-30.7768
-161.312
-277.174
-208.693
25.816
217.35
302.132
255.077
272.064
200.052
15.0627
-101.771
-172.765
-155.481
-89.3451
-37.6342
-90.0735
-126.32
-176.26
-140.919
-68.5383
-47.9533
-48.6334
-72.5114
-44.0856
-74.8889
-89.0398
27.5546
-69.6043
-132.783
-41.8752
153.47
380.12
663.718
555.715
61.998
-95.6974
-49.3938
-6.38188
122.844
281.93
297.836
95.1587
-129.976
-185.838
-193.292
-232.457
-306.887
-329.448
-254.854
-259.461
-238.381
-100.585
-6.04525
145.575
294.597
263.86
186.841
45.681
-115.757
-196.289
-198.225
-78.1905
67.3606
56.3834
76.3422
130.737
52.7601
55.3196
94.6463
97.2835
69.6186
-52.1622
-222.782
-254.121
-110.189
-81.123
-189.725
-66.9245
185.242
375.12
456.517
475.647
461.062
204.451
-125.121
-199.777
-138.275
-105.456
-119.686
-127.204
-102.315
-160.667
-317.906
-269.124
-136.36
-32.4396
52.6201
51.7285
-16.387
-89.5488
-81.3462
-136.069
-208.972
-152.531
-37.0195
7.83632
97.2972
250.657
428.836
419.006
257.724
62.4786
-20.4221
-16.7593
88.2915
217.288
185.444
-130.49
-429.66
-443.355
-340.934
-28.5382
312.873
381.072
285.218
154.679
101.536
-39.17
-124.159
-97.5903
-95.9989
-149.084
-160.854
-115.54
-152.611
-204.247
-130.825
35.4773
130.565
64.428
-35.0484
-131.199
-234.062
-282.833
-146.074
-6.07019
75.7534
165.982
196.651
245.902
191.07
148.366
175.854
161.343
160.113
129.687
86.2233
109.296
131.513
18.0422
-75.576
-151.555
-312.986
-322.978
-248.607
-179.481
28.63
284.189
341.559
147.908
177.456
286.637
144.492
-73.7028
-100.279
-176.141
-229.375
-218.71
-213.711
-166.401
-117.971
-110.898
-45.1525
118.788
147.515
43.2637
-106.516
-258.226
-370.747
-351.98
-288.394
-147.677
103.743
214.812
328.256
349.39
276.18
223.024
216.124
195.649
162.647
40.4366
55.4554
72.9407
70.5497
141.514
160.611
92.3905
-57.0715
-139.484
-143.73
-143.161
-167.259
-131.81
-171.588
-140.206
-59.9483
-172.091
-269.893
-205.91
-134.157
45.8627
292.368
412.922
402.922
395.532
316.664
64.0232
-163.75
-235.775
-249.567
-252.283
-217.915
-82.6943
-40.8684
-89.6271
-65.8654
30.6147
109.691
82.4234
21.3812
15.837
-83.8845
-237.586
-259.5
-259.199
-267.607
-141.319
112.664
363.65
390.484
173.197
60.7761
62.6735
39.967
112.403
266.507
427.163
351.486
199.979
68.2121
3.1907
-78.5312
-111.657
-123.232
-173.285
-227.858
-169.68
-140.358
-174.543
-166.861
-86.5106
-60.152
-133.74
-229.658
-191.918
-121.985
-0.973636
162.373
323.901
275.828
96.5582
-63.0768
-67.5448
104.825
252.617
92.6949
-106.938
-109.057
-94.6026
-126.385
-110.763
-48.0317
63.0517
161.399
258.501
244.487
-4.68155
-145.065
-203.934
-155.093
-40.4687
-17.0469
-13.9835
-61.159
-129.158
-76.5158
-25.97
17.2336
68.4969
137.938
185.633
229.145
153.479
78.6407
-11.2842
-116.249
-125.86
-121.865
-157.054
-185.369
-45.7022
210.566
410.753
341.292
132.887
100.773
98.6084
-29.2924
-91.1765
-153.185
-167.392
-190.406
-179.097
-120.796
-99.3754
-161.894
-146.895
-123.191
-87.4709
37.369
41.4309
-18.0711
-21.0005
-54.1167
-63.6102
2.91369
95.8408
133.998
37.9126
-68.7648
-110.315
-24.5727
115.843
268.551
486.411
475.348
315.047
149.867
3.96222
-43.0653
-95.9117
-173.681
-290.882
-283.055
-179.942
-150.074
-142.832
-103.461
10.3592
62.065
76.8591
65.5494
23.1727
-54.539
-219.744
-232.533
-117.26
35.6181
58.667
27.9931
-32.2703
-53.8961
-41.0313
60.0507
196.271
329.692
328.733
196.571
41.6741
51.4632
53.7097
-42.1569
-72.3849
-121.167
-139.297
-19.8732
87.2542
55.2921
3.08796
-35.8785
7.47726
-20.6357
-87.2692
-123.406
-222.572
-320.518
-272.404
-119.403
118.786
293.602
326.592
218.167
58.278
-8.74392
-145.95
-295.506
-241.344
-11.1614
222.455
408.518
413.227
284.408
147.254
-0.703067
-86.6635
-153.523
-154.573
-150.122
-232.831
-245.91
-178.913
-94.8547
-61.8349
-73.1925
-20.3502
53.5276
59.8376
-6.40294
-78.083
-124.244
-149.922
-50.135
54.3341
126.006
224.616
193.941
55.0222
-32.2896
-104.497
-85.0489
44.1555
218.604
453.786
610.406
382.901
91.5451
-74.3881
-144.886
-171.484
-244.841
-234.78
-161.895
-204.291
-219.803
-142.991
-46.0146
-6.66094
49.0428
145.17
169.495
76.8784
-87.6974
-334.048
-430.452
-287.466
-132.599
-75.0996
-1.55694
172.557
267.204
178.944
182.421
205.63
258.637
308.946
257.807
184.055
99.6271
-56.4403
-150.036
-185.622
-180.903
-154.248
-156.933
-79.9562
18.7772
-9.96441
-60.5389
-113.829
-140.126
-96.5933
-75.2946
-11.375
7.86016
-201.91
-290.106
-179.513
-25.4889
218
420.486
502.416
422.454
246.159
118.35
118.564
108.735
63.6686
-33.3203
-125.635
-135.954
-51.3377
-148.903
-250.649
-242.586
-151.202
-45.7513
-5.84517
-16.1558
-59.9222
-122.653
-159.463
-215.154
-66.4651
18.8623
7.12332
31.4784
85.8799
138.63
183.746
78.5721
-28.1517
-57.6656
-7.05844
0.183506
73.8582
209.588
347.09
364.047
221.42
69.9766
-42.9041
-48.0864
-115.227
-119.389
0.719119
-10.1693
-95.7144
-147.667
-181.288
-142.26
-110.235
-41.6954
56.0365
27.7503
-115.573
-234.894
-367.003
-354.795
-194.927
31.6987
315.791
446.02
346.519
139.457
10.826
11.9076
38.8327
22.2076
10.1077
40.8593
52.9381
7.26231
-38.1977
-41.2266
17.9083
58.155
94.1237
111.802
119.943
-86.4856
-294.931
-295.057
-161.455
-24.2226
-13.6722
-59.2371
-127.912
-133.615
-77.5731
-32.6304
113.846
432.419
529.619
409.455
387.723
317.442
134.37
-110.899
-240.88
-295.383
-325.523
-315.867
-258.563
-194.952
-135.379
-55.0305
-46.1806
32.5309
40.0436
15.8294
-46.7087
-159.595
-190.373
-81.0149
9.73716
-64.9085
-113.262
9.8407
48.9374
111.517
93.3129
25.6255
107.576
184.898
387.01
523.485
702.041
602.286
225.669
-49.0802
-152.883
-313.31
-365.968
-359.434
-380.246
-297.041
-164.911
-103.723
-61.8811
-119.134
-85.1156
-7.19636
-19.0249
-64.2159
-237.321
-284.831
-237.966
-165.317
97.5096
338.147
366.43
321.789
225.965
189.5
144.48
53.0263
43.6845
47.522
45.4841
94.5871
118.923
85.5781
22.1949
0.954888
-99.0709
-186.089
-190.061
-138.865
-104.66
-98.7037
-106.277
-40.7127
42.0212
-39.8748
-78.062
15.5765
22.9501
-19.4551
-38.9546
-33.3129
43.8465
137.439
88.1813
69.5374
30.3193
-51.3399
-52.8131
34.7467
105.598
130.588
163.112
86.9315
-43.8579
-83.4723
-104.315
-56.0154
11.8752
-53.7225
-5.43528
83.6894
12.3614
-106.034
-161.841
-138.543
-49.8585
20.9032
-107.595
-208.586
-207.812
-229.437
-202.594
74.2122
392.266
468.578
472.775
396.382
208.23
64.0901
-51.5652
-147.518
-171.298
-148.589
-58.752
-52.1012
-118.988
-84.5314
-13.5978
15.1255
4.74355
8.8439
2.57593
-103.325
-272.917
-218.072
-237.234
-230.314
-80.8359
121.905
258.762
357.018
251.918
128.895
-65.2641
-182.017
-110.064
8.20257
265.032
539.484
333.772
154.606
24.7666
-2.76714
-8.38213
-48.593
-87.5116
-136.891
-118.583
-123.665
-32.4914
20.5057
-4.03282
-129.631
-299.179
-366.726
-367.307
-326.63
-110.324
165.712
246.939
161.578
106.867
42.0009
12.7586
4.33313
36.6188
46.5677
27.8014
-17.8794
-63.5234
-49.9906
4.40233
36.3024
101.796
155.548
126.818
-17.9222
-45.2399
-66.4347
-19.5211
35.7949
71.833
113.493
100.714
-27.4599
-25.8323
11.7001
92.6535
220.195
185.894
58.8981
-32.8533
-7.34907
-28.9938
-58.8222
-58.6973
-11.646
-23.9592
-118.451
-193.306
-149.475
-15.3248
-40.9038
-131.78
-50.4318
-15.8392
-85.3787
-272.867
-413.519
-307.043
-57.5759
195.002
552.743
785.727
465.051
97.3881
-11.7124
-36.7355
-42.6859
-113.155
-184.024
-189.079
-137.238
-95.4935
-77.8785
-47.4089
31.7472
69.558
135.665
120.633
17.1973
-119.197
-342.224
-368.449
-208.126
-123.389
-36.4513
11.4945
79.19
295.298
437.159
341.141
231.391
172.216
84.4257
3.42056
-18.493
36.8526
36.6384
-24.0904
-66.7926
-50.5795
-133.221
-215.275
-122.93
-1.90894
6.3976
-25.1073
-68.7571
-124.556
-98.2024
-113.423
-49.8382
38.2935
93.8178
72.1195
26.8747
38.0826
45.1465
25.0457
-68.3036
-150.803
-201.495
-78.1936
206.296
435.013
454.408
426.446
221.202
-164.084
-280.994
-226.438
-158.555
-135.767
-125.658
-76.4736
-38.1805
-117.868
-165.655
-152.668
-50.5002
36.6456
130.229
123.381
-0.518252
-147.004
-209.708
-164.136
-52.5154
83.0334
14.4071
-12.3981
43.1888
148.63
190.881
327.538
342.913
234.621
115.707
14.8052
-2.0821
-3.95307
-45.8528
-132.159
-130.853
-122.75
-131.888
-121.616
-25.5391
124.981
207.247
49.3194
-104.895
-285.365
-350.49
-304.812
-99.8237
340.561
654.255
574.421
268.578
-25.822
-174.434
-211.716
-271.722
-264.558
-170.461
-254.949
-260.749
-192.728
-133.472
1.75896
75.8373
158.234
252.322
190.644
36.8342
-184.98
-274.672
-190.588
-17.7597
117.405
173.653
269.161
250.736
105.238
82.7531
121.751
57.0309
10.0672
-45.9375
-20.9033
91.6412
222.574
174.221
68.1754
113.018
129.13
-80.5962
-224.997
-226.57
-137.326
-95.3879
-191.596
-126.732
22.5264
27.2384
-49.421
-112.26
-63.96
-43.7824
-57.0944
-51.3398
-23.757
43.0417
-46.3813
-365.736
-457.152
-277.36
-28.9832
321.429
696.152
772.551
407.625
42.7452
-67.073
-79.1033
-91.0828
-110.824
-125.686
-92.2938
-27.4846
-39.6067
-97.0431
-99.4724
-2.30177
128.931
89.0344
12.8455
3.62444
-135.173
-375.641
-426.244
-165.526
93.5658
158.691
219.535
269.044
234.16
154.157
143.436
147.257
80.8043
-34.8335
-73.054
-96.1434
-85.9189
-19.3793
43.6993
115.432
107.227
-81.3136
-237.217
-216.161
-157.748
-43.4191
40.9254
99.7049
119.834
65.4587
-9.54247
-57.6067
-17.3729
76.7233
168.165
121.581
71.3266
115.567
26.819
-111.204
-231.97
-244.696
-191.856
-118.43
-74.1159
-36.5864
-104.216
-145.077
-152.586
-52.5113
26.4545
85.0417
82.1143
62.7318
53.1704
94.0124
37.3583
34.5342
27.0202
5.58427
26.3334
109.887
223.638
258.073
229.758
146.444
48.3441
-40.185
-80.806
-98.0167
10.5031
20.8708
92.894
220.685
147.582
-47.4019
-100.028
-138.365
-99.7133
-111.487
-107.466
-99.2127
-141.208
-129.849
-116.25
-118.291
-100.277
-42.2415
-24.428
-137.779
-257.254
-267.918
-190.481
-56.2211
251.395
593.191
599.609
269.143
34.2442
-8.32956
-30.46
-55.4856
-62.6353
-55.4504
-29.8861
-36.8237
-122.674
-89.0004
14.6821
106.073
72.4573
16.6886
-60.2812
-104.426
-287.062
-367.477
-170.678
125.789
234.268
303.883
354.87
269.903
161.159
-1.31483
-56.5411
-61.2038
-57.8254
-75.2249
-40.5247
17.7827
86.9073
67.2912
-2.86213
-111.494
-166.439
-183.48
-175.291
-127.388
-63.9549
-22.927
-83.9063
-98.659
-39.7993
15.2271
-33.4519
-115.565
-129.253
-20.6517
210.56
406.359
578.697
581.097
311.792
-2.80289
-134.844
-117.799
-134.463
-191.584
-200.776
-217.846
-181.27
-136.909
-118.492
-19.6097
-10.2865
9.17722
93.7419
62.181
-37.8015
-121.957
-215.241
-148.413
-100.914
-71.3164
1.04487
-5.00206
29.129
115.91
164.909
228.003
183.994
153.441
111.449
143.599
314.023
414.363
271.784
43.8181
-42.4631
-124.924
-299.778
-316.058
-188.648
-108.025
-128.409
-177.238
-157.396
-84.5452
-109.252
-148.21
-129.144
-16.6694
-9.43155
-83.6843
-124.763
-121.67
41.9543
223.999
203.943
262.38
247.592
152.148
78.0585
61.3948
85.8801
128.012
6.60638
-85.7103
-56.8822
-57.5195
-75.8226
-179.318
-121.863
-17.8442
-87.509
4.96881
198.758
162.968
-9.24753
-80.2082
60.8436
91.9613
40.507
-55.8025
-110.289
-121.272
-15.9991
109.483
128.519
40.0387
13.2028
-35.6636
-41.3367
-60.176
-46.2725
-91.9855
-185.229
-210.46
-177.979
-228.172
-214.509
-80.9944
188.796
459.462
427.097
279.11
146.152
-29.231
-27.453
-17.1442
-16.5346
34.6535
22.767
1.0698
-81.496
-166.231
-177.259
-68.5669
104.526
187.077
119.29
-50.2837
-336.961
-382.838
-160.212
82.5865
252.084
330.854
149.075
30.9969
20.4196
17.3327
74.628
86.9093
79.7356
15.8745
-73.1501
-109.352
-126.242
-112.886
-192.874
-124.402
2.89336
-8.39007
-60.4372
-94.0597
-118.02
-87.905
62.2131
94.0504
38.17
84.1066
72.9188
42.8256
72.9041
80.324
84.7144
162.885
87.2228
-21.5512
8.82359
22.8167
41.0079
-10.6471
-75.4126
-89.66
-118.521
-49.1029
56.4244
98.8465
97.3295
69.0075
-115.612
-245.693
-203.582
-39.6181
154.716
407.978
516.142
211.121
-14.8782
-108.358
-192.304
-187.701
-206.618
-281.91
-304.624
-328.406
-288.138
-98.9764
125.569
161.455
235.081
214.186
128.567
46.8365
-56.761
-235.467
-236.081
-42.3807
-0.0981937
73.0034
147.172
156.998
157.516
164.638
195.723
124.174
44.0707
-68.938
-227.225
-249.551
-137.007
84.7923
416.968
533.793
388.359
46.9775
-217.338
-204.36
-110.132
-81.622
-19.2989
-18.652
-43.8642
-141.846
-172.712
-179.45
-231.208
-205.781
-69.226
104.021
207.626
108.217
-103.712
-290.48
-257.579
-48.7037
140.872
170.222
202.633
206.712
97.9408
10.7977
0.649852
39.9672
39.2192
45.7727
79.1863
139.027
99.5598
-38.8414
-132.27
-152.258
-184.639
-177.692
-168.783
-191.022
-202.966
61.6086
243.746
250.961
216.201
123.894
83.8431
55.9248
-77.7263
-67.0963
-5.47292
-28.036
14.1286
201.809
245.023
119.353
10.299
81.9126
-66.4342
-297.859
-285.508
-304.552
-180.09
-9.66871
166.897
208.633
82.864
21.7628
69.3412
46.8453
8.78001
16.368
22.527
-199.871
-273.211
-187.397
-161.789
-190.982
-73.3379
105.468
249.605
367.195
240.632
-62.7245
-202.054
-122.889
-18.82
49.0638
92.4299
73.7063
113.088
34.3946
-64.2987
-16.8957
35.1808
109.652
123.22
69.8156
88.7313
39.4212
-101.702
-222.574
-234.118
-87.0282
28.9984
70.3282
125.714
125.548
26.136
6.99862
-4.17408
70.5232
119.375
58.5875
-1.10419
-52.5023
-99.0751
-86.7226
-98.2739
-55.0204
-40.5407
-88.3281
-104.503
-80.6056
-59.3799
-167.95
-214.904
-128.449
-10.2039
105.158
203.577
205.716
128.404
27.5985
-36.7782
4.37978
120.678
219.208
288.107
295.343
189.81
-9.76237
-139.769
-214.579
-254.725
-160.575
-83.0582
-53.6089
46.7806
65.9902
-24.5453
-115.373
-121.406
-27.9972
1.93426
-20.3946
17.9907
-59.9111
-154.176
-125.417
-46.2881
62.8802
100.088
114.268
147.443
201.552
60.6036
-59.7472
-81.5494
-93.5892
-54.2647
60.5728
144.578
195.89
153.632
34.0523
-111.931
-181.444
-138.779
-84.2336
39.1276
209.161
282.667
182.761
-32.9399
-127.72
-8.00921
46.6979
-16.2525
-101.539
-153.352
-139.442
-101.296
-218.431
-262.429
-183.287
-112.703
-6.90605
97.3654
200.182
334.214
278.091
117.941
-65.5945
-79.6131
-35.6116
2.04023
50.1586
78.8799
-27.808
-80.6479
-126.328
-150.255
-54.0646
59.4365
164.66
173.19
73.7621
-15.2105
-64.6347
-156.775
-213.122
-158.636
-49.4684
-54.5755
-84.0605
-94.1804
-39.7621
163.51
450.448
578.058
469.242
120.101
-11.7991
-48.3475
-224.952
-216.303
-131.718
-114.67
-63.0637
-28.1881
-7.48055
-42.5542
-109.12
-70.1119
-61.566
-38.3187
-31.7742
-120.544
-182.849
-191.727
-237.678
-76.9915
29.4496
72.1534
170.068
173.629
162.948
185.722
155.425
-50.5504
-120.773
-68.083
87.5147
187.803
243.488
274.546
285.622
176.365
-58.606
-289.801
-221.234
-99.6481
-51.1434
-68.8786
-64.7631
-179.805
-286.314
-276.782
-130.984
237.217
465.728
467.187
306.106
85.7899
-23.2875
-134.172
-278.632
-306.305
-265.283
-192.107
-127.469
-75.4812
-24.5561
19.6635
27.3946
123.85
211.303
256.277
159.54
-83.0598
-239.488
-281.775
-211.112
-62.8192
6.25668
31.6622
38.0053
70.5617
205.649
242.405
211.231
181.674
145.374
83.5058
42.7023
20.3054
69.0009
-15.2706
-144.64
-253.384
-304.59
-244.122
-67.8519
138.297
240.093
176.725
118.508
-37.3441
-83.3681
-90.3891
-97.3223
-112.014
-116.159
-26.339
103.503
52.7018
13.4143
74.7732
15.8494
-78.753
-114.566
-125.921
-35.068
160.94
210.964
70.8292
105.313
118.247
-27.9209
-147.481
-230.887
-123.164
85.5939
77.6281
99.8948
195.498
139.549
9.37204
-83.1612
-29.3111
118.527
53.0805
-81.6216
-272.307
-349.89
-231.033
-190.933
-107.697
1.85606
118.297
137.535
73.7562
-0.728482
-3.05434
-29.4858
-15.8669
0.36289
13.5807
63.3761
16.702
-41.2375
68.2337
176.725
167.17
159.234
181.027
138.116
63.3804
44.092
49.2533
88.4048
74.7876
-27.1825
-89.5374
-116.388
-200.577
-95.9696
27.0228
-0.231542
-24.8346
-86.1222
-37.7076
-108.506
-243.602
-209.393
-49.7632
65.5165
131.389
111.142
55.2694
10.6667
-76.6724
38.9789
160.579
144.106
73.8583
-167.986
-360.542
-293.718
-103.148
69.1529
321.795
503.438
392.918
99.6572
-62.8204
-123.74
-108.483
-139.213
-214.04
-173.16
-67.9039
-100.496
-132.914
-119.447
-23.6358
105.916
200.18
121.585
79.7522
5.73784
-139.64
-222.481
-122.567
26.2626
48.2223
-21.3982
-2.57916
73.5157
172.068
243.933
280.223
269.478
153.121
57.9698
37.5962
16.9491
-12.9874
10.3174
-20.3415
-100.857
-285.831
-339.802
-316.899
-258.028
-77.9598
138.791
211.913
321.098
395.764
170.808
-78.7182
-232.247
-200.423
-169.861
-162.851
-177.994
-141.725
-14.248
23.4309
47.1609
113.011
137.553
168.779
151.377
24.7415
-77.9107
-143.636
-214.515
-217.995
-104.186
-0.735992
12.1422
18.9036
86.7115
110.583
172.494
264.438
233.058
124.553
21.0429
-13.361
-14.3617
-24.1641
-30.2411
-53.8052
-40.7493
-72.5122
-93.2785
-97.379
-38.7671
34.532
88.2001
49.5801
6.99683
17.3765
18.0523
-58.2008
-161.666
-173.38
-56.5076
55.0954
101.127
306.284
331.713
123.616
-69.7896
-97.3472
-64.5489
-108.512
-145.51
-133.747
-113.786
-81.4155
-67.4578
-46.4448
-26.4784
-43.2051
-17.4947
44.145
-39.1926
-101.42
-86.6087
-136.266
-97.6725
89.0885
251.431
250.944
187.662
228.826
234.691
132.226
42.7893
-36.2237
-50.2866
-41.3578
-45.4159
-56.1627
-37.8669
-8.70164
-7.79754
-105.102
-142.65
-179.446
-180.981
-167.191
-224.93
-206.14
-100.354
-25.1978
187.196
428.375
416.56
219.183
7.76986
-54.4499
-2.42816
101.059
169.264
150.935
92.5602
79.4205
-24.6642
-106.292
-40.1305
6.63611
-87.0375
-133.368
-116.001
-136.691
-226.235
-319.128
-279.236
-144.455
-62.8633
-2.12739
-52.4421
-64.7973
75.6902
187.415
227.854
268.252
243.782
114.648
-42.5717
-78.3944
7.08631
88.7322
88.4991
39.5504
-48.0819
-91.1115
11.5895
66.7608
91.8996
64.4055
85.3464
109.357
27.4482
-90.1304
-67.7306
-99.3673
-153.793
-186.206
-111.52
-55.8459
-1.96517
21.3028
56.092
43.7426
-4.39624
-61.7879
-117.843
35.6292
222.397
167.22
-60.7719
-186.514
-116.351
-117.453
10.6367
217.519
280.108
160.41
36.497
101.544
154.952
26.6862
-119.543
-158.536
-120.267
-88.5882
-91.3541
-73.0382
-169.455
-170.748
-67.9882
-33.1375
-72.9612
-53.0301
-68.9017
-17.7278
-13.5548
76.2898
178.905
107.792
-0.785094
34.4292
65.1864
130.694
182.443
121.596
-11.348
-38.564
-26.8604
5.2882
70.129
128.298
122.468
89.4923
-92.6659
-272.34
-289.225
-94.8041
33.7565
48.9307
73.016
236.386
270.396
91.3142
-82.2353
-10.6609
62.611
-45.5917
-120.051
-109.567
-49.1297
-78.2536
-185.107
-151.118
-76.5404
-85.8897
-68.0998
-61.1981
-58.8046
20.3389
21.6571
-80.1834
-173.042
-183.616
-19.9972
147.992
369.626
469.985
353.147
181.099
37.8569
-38.5332
-115.324
-137.055
-120.653
-104.349
20.1523
192.221
181.781
22.6786
-4.64841
24.5463
-56.2803
-67.2104
-104.128
-194.589
-352.693
-360.943
-137.65
132.424
270.533
193.411
133.153
121.188
48.9164
-1.45234
-38.2047
-156.344
-197.503
-136.594
-76.3923
-40.8092
28.995
127.841
148.414
99.8922
85.3036
57.7223
66.8754
52.029
-29.715
-21.6829
54.7097
132.076
155.823
97.6268
42.9573
-87.3794
-174.588
-139.106
-162.799
-101.59
35.8802
63.2996
-3.60846
-39.3286
-90.0843
-109.352
-68.7594
-113.416
-154.557
0.917161
135.745
169.941
195.819
158.361
121.448
140.014
20.8506
-75.1169
-61.8485
-109.39
-147.942
-141.828
-16.2522
4.82807
-8.22951
78.5467
95.9552
22.0714
-19.1442
-104.386
-104.117
-113.722
-26.2052
168.953
201.022
99.6895
110.155
85.6661
50.8288
-36.6453
-92.3382
-73.8299
-88.2555
-50.4648
18.384
-2.75911
-53.1362
-47.5862
-18.6643
-1.16671
-68.2477
-150.865
-229.06
-308.637
-239.962
-27.0686
261.878
410.25
474.75
366.308
215.125
94.4993
-2.51579
-100.067
-59.9961
-75.1624
-183.789
-76.4216
36.1384
-61.1056
-103.034
-39.5003
78.9886
131.105
43.8963
-11.9931
-148.894
-229.652
-267.75
-231.163
-126.308
-0.879566
56.4308
12.4827
47.8317
85.5888
158.932
187.475
241.789
275.25
171.222
-38.9381
-125.226
-170.943
-138.205
-103.239
-85.321
-5.71612
104.294
91.2954
35.6442
-20.7252
-1.26225
66.5743
18.0668
-23.4696
-32.3516
-93.0131
-299.434
-294.313
-129.713
99.4009
350.777
530.675
391.028
137.099
-92.6462
-173.094
-227.19
-208.983
-167.568
-113.664
-42.4981
46.6648
59.4294
81.2881
45.1503
-14.6317
22.2524
45.0361
50.8417
-33.858
-209.946
-301.779
-213.206
-73.3872
86.1425
139.041
161.713
74.4983
28.6452
10.7713
-43.5222
-10.3304
70.3327
142.841
227.955
207.333
127.264
65.3086
4.65752
29.9551
-0.710595
-103.768
-112.527
-63.8716
6.29381
-95.9363
-145.126
-57.757
-7.87222
11.4238
5.69403
-94.7844
-221.024
-217.442
-204.019
-83.3443
241.688
388.405
258.902
96.913
21.4548
15.4352
-20.135
-114.712
-155.239
-109.463
-44.1048
35.4856
33.6344
52.5684
94.3768
103.941
158.256
49.0048
8.56364
10.4894
-15.318
17.806
-87.7752
-235.249
-230.55
-177.631
-88.6836
-17.1752
-5.46914
31.296
67.7592
48.3923
67.1973
71.5414
42.7386
63.6762
60.5126
51.7043
26.2728
17.3141
-71.6189
-265.435
-154.607
28.6662
25.8482
58.5449
200.739
304.994
302.306
228.44
90.9422
14.1193
34.184
-10.6253
-70.946
-60.2167
-136.721
-229.072
-201.399
-166.811
-128.595
-64.9108
22.8309
110.246
9.0341
-90.6464
-141.425
-129.073
-40.8068
-29.4404
-55.604
34.3841
-13.6728
13.0691
141.176
229.034
249.381
163.576
19.3148
-66.0434
-89.2188
-63.9933
-24.8132
0.129694
22.1506
24.3027
-14.0697
-52.425
-100.974
-22.6374
63.6256
-40.8943
-64.6594
-53.7513
-114.53
-197.629
-225.551
-140.87
21.6399
181.201
327.754
513.639
525.457
382.747
222.622
101.838
8.38182
-150.824
-268.241
-266.541
-286.09
-245.684
-137.684
-61.614
-38.1914
-43.7453
-59.7837
33.7175
40.4973
-50.4154
-166.736
-267.493
-234.052
-189.451
-110.449
-25.0826
-55.0335
12.7199
150.881
214.889
299.458
537.284
572.307
254.85
10.1858
-55.9401
2.61684
-2.82979
-51.0002
-109.931
-185.698
-309.132
-284.428
-123.688
111.126
201.617
138.855
52.7079
10.5362
-110.926
-144.526
-189.028
-157.254
11.9824
88.241
93.104
73.1333
15.3293
-17.5703
-20.2016
-39.8393
-52.022
-49.7836
-35.0976
-112.958
-132.089
-68.7198
67.6967
203.104
463.313
499.973
261.265
-13.5166
-118.21
-142.564
-151.991
-150.85
-114.082
-85.4292
-78.1657
-39.3998
30.3367
-52.9768
-105.232
-58.4075
-37.8557
-3.09577
0.665599
-66.1357
-175.814
-189.552
-183.177
-77.8176
25.1044
88.4326
81.2635
20.1762
62.9061
202.228
246.475
344.491
462.849
383.399
150.123
1.25244
-35.3314
-71.1377
-149.141
-188.511
-246.007
-279.339
-203.536
-107.345
-6.13549
-33.6313
-105.598
-40.1106
23.3991
23.5561
-20.1723
-12.5283
82.9185
67.8191
35.9192
73.767
63.6684
16.8562
-41.8112
-46.4075
-19.2497
-63.8998
-107.258
-20.378
65.5631
129.495
134.552
78.5825
-51.0708
-93.9148
-6.99496
-66.8286
-174.299
-149.289
-129.281
-150.872
-201.223
-32.8114
359.5
432.063
298.603
291.121
299.368
69.1882
-144.538
-173.891
-78.4256
20.119
16.8652
-25.8665
-78.4229
-141.2
-215.681
-147.189
-5.48984
61.7449
1.18867
-81.0494
-264.823
-325.958
-243.092
-83.4505
158.442
431.689
472.824
243.834
111.94
41.4076
36.8793
-7.19128
-48.8744
-20.0852
-67.0518
-125.233
-67.2023
-25.6387
26.0972
-7.92735
-61.0077
-51.1745
-31.5341
-71.6469
-180.195
-192.816
-146.313
70.3071
240.955
210.179
152.61
138.416
67.97
-9.18145
-46.7852
-31.7535
-49.3929
-90.6014
-29.1367
61.9069
60.2516
88.6382
63.3967
5.01331
-39.3108
-117.824
-92.5233
-57.7929
-149.912
-121.891
-62.6921
-58.4114
-33.9394
-10.0745
48.9762
91.699
118.726
189.122
226.997
167.956
86.622
0.393107
-44.7186
-58.6786
-23.8596
-141.584
-159.83
-107.035
-38.0028
-11.1627
-10.7056
-9.73504
28.3871
98.4435
107.831
-0.553182
-19.7632
-73.7481
-108.525
-34.3757
74.4619
117.323
101.973
-90.7507
-256.425
-205.381
-133.835
33.8737
299.048
334.251
180.448
60.7983
-7.15999
-57.7553
-27.2196
71.7267
73.6722
125.908
38.8451
-139.388
-187.528
-202.693
-182.852
-103.632
-24.9401
73.1555
24.0126
-128.312
-193.249
-165.536
-37.0672
32.7008
74.6146
120.411
86.9271
-13.1015
-35.6129
-64.0374
-3.13685
62.366
39.3397
54.3535
107.504
209.816
234.019
326.028
326.418
181.998
-12.4836
-89.7197
-24.3112
6.64946
-111.166
-161.112
-192.111
-155.995
-152.448
-220.395
-229.583
-86.2215
-11.1653
1.65493
134.749
211.998
98.5885
-86.4325
-105.994
-63.0815
-58.2599
-22.2364
-117.553
-94.0107
15.5191
35.1435
25.491
63.9373
118.634
175.821
86.1075
65.1984
61.5014
24.8782
-78.128
-141.505
-78.6717
-19.1572
-33.9222
-100.874
-141.828
-100.261
64.0986
177.182
315.492
321.457
175.056
52.3753
-45.8206
-60.2364
4.23693
55.5753
24.7475
-78.1663
-91.7123
-51.0257
-86.8633
-139.097
-139.24
-59.6185
-11.4964
39.5812
71.8771
-189.261
-329.778
-268.881
-123.381
55.1673
237.079
283.329
282.45
108.557
77.7155
106.653
-11.0293
-131.583
-91.2098
-36.9684
2.1277
-67.6391
-41.6755
-42.9892
-44.8026
77.6677
114.632
54.7238
71.5839
32.5931
-111.603
-156.691
-141.412
-129.695
-113.282
-39.7043
73.6479
196.235
250.579
207.637
119.746
112.518
71.8548
10.6839
-35.3297
-10.404
-7.77354
-12.2309
-63.755
-85.1708
-65.1569
-116.426
-192.32
-197.486
-110.319
33.8325
138.943
120.642
184.44
96.5883
-13.2706
-9.24801
-34.1721
-86.4169
-94.9782
-109.888
-39.8436
35.3784
111.502
61.7601
3.50181
44.3965
101.773
96.1863
21.1689
-124.223
-237.011
-259.476
-249.168
-136.248
-43.0955
36.6988
66.0105
125.889
147.053
280.597
302.97
112.057
-46.4931
-10.7688
20.6335
-6.9656
42.8963
68.8585
36.5347
7.742
-28.6007
-19.5356
-90.2364
-135.582
-70.457
-34.9971
-17.2355
3.21376
14.2937
-7.83926
-123.267
-102.339
-53.8932
-14.9406
29.3577
49.0161
58.9145
76.8114
25.716
15.8099
-11.0283
-130.536
-264.632
-201.717
-86.3451
204.63
494.012
512.057
349.76
165.885
33.7265
-94.0575
-182.947
-231.23
-221.892
-174.964
-238.609
-161.087
-16.0355
54.8057
50.1572
89.0249
117.769
56.1557
41.368
-60.0914
-268.723
-329.266
-266.564
-197.507
-100.352
12.4361
104.585
193.293
183.365
158.843
230.554
228.013
152.491
50.7693
30.6662
141.751
176.794
142.628
57.3462
-20.7111
-95.8022
-138.498
-134.127
-94.6481
-99.0511
-74.6477
-26.4371
-6.1342
46.4661
24.5253
-17.4224
-0.670421
-44.7725
-110.838
-74.7173
-114.252
-70.9309
1.80889
10.4745
-61.544
-97.9836
-137.584
-85.5858
31.6939
237.339
354.941
300.09
154.284
75.6964
2.71628
-63.855
-137.21
-143.456
-104.448
-142.293
-106.176
57.7621
45.4732
66.4605
97.1262
75.9685
10.3384
-20.5508
-27.1221
-63.4864
-156.098
-152.529
-87.9135
-60.9507
20.7254
50.4756
9.31849
15.1076
92.6701
143.969
65.7658
29.872
45.4225
-0.786463
-26.4279
31.9968
165.229
159.659
-105.07
-183.764
-107.76
-44.5529
-13.9139
-2.68345
13.7351
96.12
23.8312
-49.1434
-15.5738
11.8303
2.26952
-55.8029
-38.3974
-15.5734
32.4223
-29.3036
-74.1829
-65.1398
10.8862
65.5275
137.946
140.645
112.724
48.849
24.9193
-3.11735
30.5329
21.0332
-39.0416
-36.7008
-6.77512
-93.564
-99.3921
-97.6183
-150.566
-149.677
-150.04
-135.921
-69.2241
-60.5777
49.3252
191.128
232.187
282.711
294.134
167.802
10.8755
-65.4357
-90.3306
-137.678
-142.992
-67.5255
-9.48931
66.7553
35.4538
-36.4353
-16.3168
21.412
22.531
-123.437
-301.573
-303.639
-182.326
9.63767
189.546
253.457
200.926
174.805
145.398
109.603
53.7301
20.1128
41.4669
-24.0477
-79.5876
-11.892
-15.032
-30.0795
-11.2073
58.359
133.749
52.6801
-51.4175
-170.636
-263.443
-236.893
-110.204
-7.89796
49.9038
30.9533
15.9013
42.799
10.0575
4.23233
51.0862
84.876
132.521
101.271
35.7602
32.827
-47.7639
-118.339
-229.06
-315.913
-210.455
-108.839
118.978
455.029
597.687
535.67
261.582
-17.396
-150.258
-127.084
-182.228
-180.613
-176.183
-153.56
-113.541
-90.6475
-53.8575
7.36516
-88.0267
-88.3264
-139.564
-85.5393
-0.678652
-28.5203
-130.72
-194.526
-103.445
54.5577
112.606
91.9421
133.407
137.118
162.9
139.546
112.632
129.183
157.96
175.424
214.506
173.726
116.456
74.0466
-116.076
-291.723
-314.937
-203.578
-80.8448
-44.2568
-18.8804
8.16096
91.6201
15.6071
-33.832
-19.8061
7.1187
4.08493
-28.5827
-24.867
59.293
116.045
-4.32072
-159.967
-132.973
-113.127
-92.5836
-43.4143
18.9778
58.5276
117.614
6.45961
-254.918
-135.554
65.4863
227.98
374.112
476.695
374.062
111.737
-149.532
-240.307
-207.121
-162.42
-150.225
-152.902
-135.619
-96.9081
-105.111
-80.2128
-83.784
-18.6518
126.866
129.029
80.4689
25.2042
-136.339
-225.701
-200.445
-101.685
82.7074
149.082
140.132
189.419
242.945
188.043
27.9198
-7.88042
71.6018
147.895
136.743
133.661
202.456
159.228
-58.8673
-153.629
-148.169
-168.658
-161.738
-129.5
-54.7303
-56.514
-90.8961
-102.553
-177.514
-196.154
-83.782
15.766
188.723
277.479
161.218
30.3916
-25.4501
-23.6354
-6.29735
-44.2147
-71.3287
-94.6804
-62.6543
-82.5114
-41.821
13.4431
31.7334
-51.6986
-84.3075
-1.73549
128.081
158.726
125.996
43.2492
10.4869
0.778917
-2.74721
1.36588
79.6532
91.5165
103.274
-22.2115
-138.044
-74.264
-27.4344
-32.2128
-7.97168
61.8411
111.321
30.5291
-17.1772
-68.3782
-143.495
-171.515
-93.147
24.2064
76.7841
-11.4202
-30.0354
-39.916
-36.3278
49.9256
110.446
153.313
91.5892
-79.0041
-58.4554
-7.74218
45.2526
206.206
298.132
192.823
23.7956
-80.4533
-9.92074
-35.9614
-128.054
-122.999
-139.425
-95.6227
-85.7384
-128.695
-102.761
-83.9998
-57.4024
26.3344
24.3878
17.6714
41.6332
-6.30718
-115.22
-207.736
-158.284
-92.4814
-63.6088
11.7248
101.455
190.731
218.302
53.9749
-40.0957
45.7015
97.2241
150.695
254.879
319.721
283.792
243.249
86.304
-93.7924
-188.801
-125.538
-94.2561
-72.9061
-102.611
-74.2199
-69.8996
-179.526
-205.036
-86.5185
19.8343
32.0107
22.8709
17.8557
-110.743
-145.261
-130.004
-144.168
-145.37
-106.921
-54.5881
113.985
241.942
201.836
131.868
77.4521
55.975
117.025
140.124
103.515
66.0857
121.178
74.0347
-54.5648
-55.2839
-35.9464
-11.8166
-48.2171
-48.2149
7.99117
-37.7086
-96.0407
-140.527
-127.88
-104.739
-105.377
-63.7176
9.85062
-50.845
-15.2827
10.6715
-46.3042
-25.2752
27.2888
110.662
172.729
126.533
109.841
53.4451
-31.1241
10.6981
56.3842
62.8904
96.1588
52.8228
31.6148
-44.9787
-86.5213
-121.971
-177.168
-104.333
36.121
114.51
237.058
234.754
20.8569
-120.884
-135.546
-63.8204
24.4583
37.7928
-105.375
-177.303
-181.194
-128.258
-87.8335
-38.6299
-16.3375
31.9084
110.7
72.7943
-47.2979
-72.7116
-47.3247
-23.321
11.8096
86.6258
234.109
327.503
164.998
14.8228
-3.65556
-10.1474
-20.5994
-22.4433
33.7682
95.1914
-3.96048
-40.7711
-41.8563
-45.133
-79.7344
-149.688
-236.014
-214.064
-152.201
-2.58153
92.6347
138.576
109.536
-9.1027
-17.2651
72.5732
26.4603
21.5783
78.6279
73.1414
49.4434
46.5106
53.872
66.2524
75.5949
61.0985
-36.82
-97.5232
-75.1828
-113.605
-190.049
-207.909
-74.5156
75.985
-12.0089
-82.3514
-86.613
-70.9111
-40.3571
37.2145
161.65
226.807
294.882
316.62
179.404
77.9809
28.6614
-28.3823
-12.1005
-78.9527
-228.509
-242.594
-163.842
-75.2009
59.8448
37.1805
13.432
13.9652
-13.6131
-124.191
-132.676
-96.8053
-115.163
-111.805
-14.6624
69.8509
120.776
99.7275
24.1964
28.1851
16.2912
-82.8639
-99.8979
-55.1787
46.5499
236.025
476.713
376.584
123.636
87.977
25.0463
-74.8188
-144.72
-178.128
-139.209
-120.721
-154.631
-151.637
-88.0247
-46.9561
15.265
32.8722
-15.6444
21.5487
-4.18999
-72.5478
-122.642
-55.0718
-86.6036
-137.878
-66.193
56.0088
88.1902
194.348
276.466
225.138
163.953
140.277
129.488
55.6243
-77.564
-56.3014
-32.1976
-59.2148
-66.9772
-128.89
-183.739
-137.652
-89.8621
-36.6839
-29.4295
-52.0411
-57.4421
-90.3652
-76.5223
74.567
88.4442
15.3676
-3.92571
11.6562
103.479
122.922
140.245
159.704
136.414
-54.5904
-162.01
-123.297
7.16042
125.094
239.207
221.494
164.834
29.4247
-198.656
-256.522
-191.547
-98.9682
-47.868
-42.8003
-4.73516
22.7109
9.32011
-36.212
-55.0822
23.7903
45.0505
13.1943
5.82301
-170.043
-354.049
-324.66
-187.88
13.8532
328.172
537.08
544.268
382.107
87.2183
-47.5033
-90.7766
-126.426
-143.488
-152.77
-117.74
-54.6429
19.3777
-12.0007
-113.993
-36.9698
30.5824
33.4146
9.81156
-92.8348
-260.398
-338.334
-315.12
-176.437
144.207
399.495
402.245
254.991
177.689
139.006
55.4609
2.23068
-55.3856
-66.2996
-1.80698
4.20773
28.6514
77.2673
45.0179
41.1323
20.6507
-94.1145
-148.844
-138.764
-106.43
-145.417
-112.359
10.7853
20.4539
-32.2171
2.99882
38.2882
45.084
91.7753
27.558
21.5004
27.4565
0.825595
-9.91967
-32.1774
-38.3827
-26.6362
93.6711
10.2357
-170.14
-281.357
-270.859
-171.685
15.6115
259.109
500.097
598.727
438.811
130.961
-11.0093
-80.5785
-126.876
-151.032
-151.676
-141.549
-83.3136
-133.456
-206.825
-171.122
-121.629
-34.8417
33.3246
87.8963
170.953
41.9566
-175.47
-301.83
-236.115
-90.1172
0.0836968
52.0192
87.5342
100.687
161.408
235.957
255.391
182.726
55.9593
63.0651
130.437
134.449
39.1398
-71.2232
-148.481
-172.602
-165.983
-148.705
-112.011
-18.0765
97.6136
63.8552
55.4628
38.7268
2.45177
-47.8658
-95.8253
-41.2907
20.4464
-52.5089
-111.262
-72.5686
-13.1219
8.54238
52.7882
216.727
288.343
176.514
84.3178
13.3584
-58.9584
-54.7972
-12.8949
101.049
112.574
-73.416
-199.374
-192.035
-144.055
-57.1618
-14.7738
-35.6384
-8.89808
32.3887
-82.7266
-257.22
-303.694
-202.893
-79.3021
30.8185
121.278
178.651
151.507
19.2866
-104.025
25.1852
155.458
242.242
269.246
251.079
223.168
226.098
163.987
7.70449
-59.9456
-71.6833
-94.3447
-99.7076
-103.451
-59.7371
-61.3319
-125.447
-127.626
-112.072
-58.8102
-43.8094
-54.9162
-58.5921
-53.3119
-50.8716
-14.8649
-39.3173
-68.5168
-96.6122
-73.7954
7.69757
16.4932
107.944
247.248
189.92
62.6624
74.3476
111.889
137.968
113.489
24.731
-59.2443
-80.6619
-45.6337
15.0756
20.9279
-14.6226
-28.3022
8.49301
-50.2592
-123.851
-116.984
-139.399
-200.008
-194.007
-89.2374
-10.0407
11.6112
-65.7211
-48.8899
14.0732
67.3729
65.8799
87.4614
152.896
151.869
5.3093
-18.1405
-14.0928
116.845
186.884
212.931
197.274
135.919
112.721
92.2298
-22.6737
-111.047
-108.015
-105.097
-97.0913
-77.6091
-67.7195
-61.2977
-149.521
-155.375
-68.9291
-22.2619
13.9333
-20.414
-106.66
-138.589
-85.3238
-97.7144
-33.5819
100.1
147.93
89.802
73.6909
83.7324
138.576
150.175
64.1186
-60.0279
-29.0551
-11.6521
3.82222
-19.7606
0.816759
49.4365
84.6104
44.9761
26.0867
-12.4498
-92.701
-171.35
-113.692
15.6495
57.1068
36.1605
57.1087
15.9888
-30.571
-31.907
-2.83499
38.0909
1.541
-14.1573
-2.67651
-37.5023
-47.633
-28.0626
-59.0731
-39.6611
-59.3138
-63.1373
-21.2341
2.30378
71.0525
121.072
34.6498
-5.92527
34.0566
26.192
34.1449
21.6938
59.9369
69.4336
30.0166
18.9633
53.3414
14.8467
-39.801
-56.6819
-93.5245
-114.525
-88.4637
-56.4468
4.97119
153.915
203.576
15.01
-78.0542
-66.0079
-73.2195
-82.4244
-3.55298
61.2903
90.1744
-4.5538
-120.865
-84.0439
-43.1474
12.197
89.9828
140.403
123.404
83.5713
7.42185
-43.4
-90.2429
-24.7677
-5.25023
6.05841
12.685
-25.2129
-126.113
-130.988
-89.2791
-38.7633
-64.256
-46.6047
-7.2482
54.183
161.313
215.056
235.521
125.308
70.1842
-63.0584
-131.854
-98.6408
-40.5732
-79.5624
-211.079
-185.176
-60.1551
37.1496
171.788
268.482
255.765
179.451
50.9051
-18.4776
-111.971
-179.059
-217.35
-176.067
-149.072
-118.088
-141.528
-17.9186
47.7418
135.912
271.025
290.526
260.491
177.54
-39.0824
-146.527
-93.6005
-59.1471
-26.659
-55.4329
-42.0811
-28.245
-70.3235
-90.1471
-80.1274
-75.4857
-19.3528
-4.8542
3.20993
11.4876
21.0606
-42.5774
-101.442
-78.0991
6.73273
99.6005
201.157
233.667
172.228
166.526
53.1333
-50.3766
-130.804
-100.171
-77.6923
-57.486
4.3608
36.8447
69.3511
18.3346
-54.3364
-60.6244
-95.3765
-177.972
-178.798
-148.016
-42.0274
75.306
160.608
106.325
124.259
106.63
90.0961
116.193
77.3984
-30.6564
-50.5869
-78.056
-121.337
-99.663
-43.4724
43.1272
115.595
70.294
67.9686
-29.4631
-181.43
-259.053
-219.661
-130.579
64.0395
291.103
291.514
165.687
44.0552
63.0496
47.3307
-4.11301
-32.9844
9.74659
23.7125
-86.3846
-110.003
-24.8423
-14.5632
6.43043
6.96236
-15.2943
-42.305
-107.214
-134.447
-169.622
-99.428
-33.4923
22.7153
8.61707
55.7406
-4.76374
-45.42
51.1732
143.142
170.62
203.607
261.85
238.769
163.257
64.8859
-58.9649
-107.889
-102.609
-148.477
-189.541
-163.132
-110.266
-78.2278
-63.9142
-58.4877
15.4814
59.3558
4.93676
-47.7819
-25.37
0.255833
-52.6272
-109.763
-82.5769
-20.4317
50.0977
90.6316
71.4557
24.0292
52.2296
-18.0996
-32.5102
69.2224
226.755
261.177
200.315
158.033
100.646
29.9108
7.10582
-62.8639
-107.551
-116.653
-118.898
-79.1004
-100.803
-138.64
-118.576
-159.092
-191.996
-96.9279
-31.0458
74.5623
98.3793
-37.1435
-6.04734
61.6571
65.1103
52.9824
21.2013
10.9761
-24.9857
-18.3158
6.0269
10.5316
55.4917
60.5937
48.2695
46.0515
87.9293
66.0556
23.7893
-5.94726
-0.988159
25.8763
22.0784
5.17467
29.4205
23.6619
-38.7649
-40.1327
-27.5007
-17.6709
-16.0082
-43.5191
-42.7373
1.5938
94.0566
82.0917
-28.8097
-19.7549
-27.693
-101.832
-190.109
-169.666
-79.9183
-80.2585
-60.4858
79.9252
228.542
249.135
151.871
57.7552
100.051
32.8358
-153.255
-184.456
-154.018
-48.1244
95.2053
223.432
180.643
29.1811
-24.7171
-14.3615
-59.1086
-81.9467
-120.081
-173.268
-183.561
-131.237
-78.4536
-36.7836
-28.1987
22.8627
120.349
162.746
125.541
112.743
51.7341
-63.1442
-31.3917
10.6209
9.47459
44.1401
81.3834
77.3595
-25.5118
-74.0508
-23.9911
21.8275
131.095
157.045
66.5384
67.5141
26.5218
-32.9754
-45.5665
-45.6424
-72.375
-88.7023
-68.8066
-0.374783
-65.6807
-131.403
-116.328
-86.6235
-41.7488
-50.3492
-58.3298
-20.6374
-39.3731
-57.1562
80.1917
169.766
312.898
298.986
128.303
12.1577
-24.7759
-40.1757
-147.916
-156.715
-78.3747
-19.0634
-31.5626
-34.5379
25.5909
51.8884
23.3542
-96.3962
-128.957
-33.397
-47.5447
-70.4678
-91.3001
-63.5476
61.6897
19.2866
10.1019
30.3628
80.408
72.4619
86.4333
113.582
119.227
56.2379
55.5371
37.9105
20.3497
28.1493
84.6033
125.734
91.5658
-91.9924
-104.268
-45.2537
-33.8201
9.69361
-31.3422
-50.9803
-22.3055
-144.457
-255.408
-256.775
-156.766
14.0696
172.435
360.237
317.871
128.003
-71.7401
-147.532
-182.309
-117.65
-66.6606
-71.4799
-51.2653
80.3486
65.904
2.85321
-38.7074
9.71345
66.8424
65.2979
21.8649
27.4063
-51.6907
-177.568
-152.05
-3.08547
151.136
119.342
53.8496
79.892
56.0891
-43.0731
-42.9509
-39.192
11.1794
66.496
69.6733
60.2081
65.2297
93.629
-9.55111
-74.7375
-66.7964
-24.1365
7.18973
-4.63761
-6.97699
49.3129
-40.6112
-77.5252
-90.1349
-42.6454
-39.4176
-54.904
-50.3499
-36.3166
36.5914
78.6099
69.9244
79.7418
121.82
77.2059
-64.6391
-187.528
-172.635
-42.6524
10.9189
55.1509
162.647
92.8333
5.75747
7.28811
22.7182
1.2947
-29.5104
1.66196
-16.0853
-26.0302
-6.32102
-45.622
-11.2039
-53.8317
-142.122
-96.47
-9.29868
52.1053
93.8531
114.355
190.368
119.885
-31.6528
-21.7682
6.87681
0.313969
-0.846984
-31.9203
-11.4471
-30.6082
-83.7687
-70.7164
-70.1675
-38.2239
48.8475
92.4754
57.1516
-11.8511
-13.9842
-101.944
-164.731
-92.7445
6.55042
13.4129
0.828538
14.6462
108.069
151.546
11.0022
-67.7143
-45.7948
-17.3649
24.4616
70.0197
135.897
132.515
67.4166
56.0839
38.2032
18.2085
-63.5008
-54.3404
-20.9359
-48.6002
-79.0298
-92.534
-174.01
-129.308
-6.38129
148.752
258.854
240.082
119.884
-2.71824
-111.288
-141.833
-144.516
-161.741
-173.247
-147.757
-73.4358
0.925625
8.82096
-58.0223
-27.6242
9.83327
74.3543
88.8734
149.527
191.158
137.711
-41.1836
-51.1777
13.9816
41.7078
3.25296
1.48191
9.53089
8.8206
-54.8864
-49.1543
-26.5166
-1.9675
57.4404
72.1926
111.159
79.5596
-39.3984
-116.57
-145.483
-65.0249
113.866
250.514
287.811
98.1271
-71.0594
-105.543
-130.107
-138.433
-91.3058
-81.5111
-86.8734
-77.6989
-127.363
-91.2002
-132.338
-109.257
32.1557
117.742
148.616
124.595
59.7774
12.311
-95.6897
-42.8756
22.7258
20.004
0.502221
13.6267
51.7324
-13.7562
10.3875
54.3349
104.231
54.5566
26.1596
27.349
17.6833
45.2391
-51.5182
-115.221
-124.237
-204.569
-137.802
16.6594
120.273
183.527
250.446
142.183
-21.5823
-7.86495
12.0782
32.192
44.985
44.1668
108.789
48.4791
-100.897
-176.39
-203.269
-201.112
-146.345
-61.2285
83.3687
128.082
60.8793
-20.7217
-66.5505
-12.4492
62.4702
137.86
181.517
-11.6421
-136.449
-161.127
-215.017
-196.583
-110.574
-9.9209
177.766
327.927
309.704
134.777
-30.1363
-110.92
-107.771
-50.6036
-27.645
-28.7072
6.7647
-27.9415
-44.8961
27.3342
71.7531
50.2049
22.402
48.2742
83.2855
-41.8238
-125.825
-142.713
-102.074
-46.8404
-42.8179
-2.45317
54.8491
35.4738
-19.9691
17.0261
43.8732
51.4404
-3.55798
-10.0759
25.2686
55.1336
114.988
111.764
144.943
136.92
60.6567
-0.676386
8.61832
6.80138
-28.0143
-52.5379
-89.7948
-198.018
-199.168
-169.07
-135.022
-85.4377
-5.75959
133.199
203.143
150.133
88.3796
34.5193
-75.5408
-107.823
-86.2916
-89.9975
-97.252
-123.455
-56.6069
-15.3988
16.3186
83.1018
104.928
131.516
116.229
-2.71081
-49.2053
-61.1876
-41.495
-1.50218
28.4035
102.632
98.9138
-60.0244
-115.016
-109.341
-53.6164
106.775
251.704
334.345
242.588
124.786
29.1453
-72.5011
-102.237
-66.3441
-82.7693
-62.5318
-130.809
-155.81
-187.711
-225.652
-196.433
-35.3043
83.9637
162.425
202.669
138.245
-124.287
-204.025
-156.914
-129.709
-166.731
-180.388
-89.1434
115.61
298.535
410.118
481.188
312.876
76.3581
-34.0374
-47.0541
-4.23143
26.9725
-41.943
-179.738
-245.007
-255.275
-231.185
-130.775
20.1879
178.111
303.211
217.35
-11.1106
-228.694
-312.496
-281.377
-109.58
98.8522
153.968
75.64
25.6914
-100.896
-127.393
-43.4016
36.1161
147.693
312.642
460.303
398.872
282.633
116.502
-5.38023
-99.7456
-247.24
-380.198
-387.961
-319.583
-351.6
-211.995
61.1876
262.242
328.896
339.31
290.869
56.8604
-89.962
-114.356
-161.135
-205.685
-206.808
-172.34
-82.1749
-11.9772
1.68169
62.7931
61.6336
57.2056
121.635
102.974
29.4685
-58.8881
-109.317
-114.739
-122.137
25.1363
155.994
77.3373
8.24588
34.1115
15.4063
54.7809
64.7706
100.683
167.964
161.535
158.049
158.489
120.713
28.2794
-61.9476
-123.767
-118.155
-180.882
-182.797
-96.3435
20.4024
14.9587
-52.9755
5.29574
-12.1336
-100.078
-108.69
-38.5966
52.0311
93.0492
65.8388
-22.7893
35.3968
16.7145
-48.1017
-73.1077
-54.787
-49.9616
-29.5123
-66.567
-98.1043
-116.474
-118.824
-119.671
-32.4006
81.7896
137.09
94.3109
71.7863
28.8351
-15.9348
54.7821
175.695
351.301
386.956
122.31
-50.1506
-62.1359
-70.8412
-30.8937
-13.4045
4.92861
31.2434
-96.0809
-217.604
-193.843
-143.609
-73.7364
1.31647
45.7159
42.0822
31.6793
-47.2766
-150.936
-187.243
-61.2699
74.9259
51.4648
-45.1172
-26.1146
-25.5062
-0.740334
80.4972
268.074
371.378
244.183
80.4437
42.1872
-12.7811
-105.011
-57.3775
-107.985
-186.694
-180.656
-135.94
45.4181
206.34
99.3934
24.8144
-23.8243
-57.7717
-112.891
-147.565
-122.785
-44.2244
26.4813
48.2399
36.5983
10.6343
19.2442
12.7422
67.5758
110.32
74.5123
22.3198
-26.2842
-158.189
-69.8802
17.2443
37.5964
51.1258
-3.94965
-120.706
-69.3213
2.48404
32.8624
204.947
270.329
148.085
31.316
-33.3034
-55.039
-102.154
-147.878
-119.368
-97.845
-59.526
-14.3879
0.779914
30.1836
-78.2136
-264.176
-286.03
-187.986
-15.0842
270.843
604.827
673.211
290.497
23.1706
-78.4272
-152.059
-168.17
-143.169
-133.139
-52.896
-69.4666
-100.86
-51.2647
11.9321
86.5619
145.333
163.188
91.5349
-24.7926
-239.483
-532.851
-573.284
-269.677
-5.67331
105.794
159.081
183.493
203.351
137.779
5.72494
11.1027
80.9645
142.47
218.078
299.078
378.495
321.998
58.8351
-65.9813
-116.983
-209.91
-268.985
-154.742
-72.568
-67.9979
-57.8849
-183.092
-238.025
-140.302
-18.4481
152.919
384.473
357.594
94.4762
-197.646
-231.336
-156.853
-26.1156
18.9222
-40.9719
-85.7694
-28.7804
44.5398
-127.486
-142.28
-80.254
77.2554
233.328
353.174
341.35
83.0178
-91.4159
-138.092
-157.892
-55.4363
-35.2489
-48.0604
-71.8959
-94.4551
-6.22278
5.03354
-162.909
-165.467
-92.0716
-116.106
-74.8135
66.3776
212.02
320.69
348.167
237.932
-66.7113
-228.069
-175.931
-42.269
81.2983
166.856
288.84
256.723
17.2078
-162.923
-217.69
-201.981
37.3541
116.974
100.39
186.187
113.315
-246.319
-460.684
-396.335
-111.358
162.321
206.785
303.122
186.268
-80.6611
-249.765
-296.209
-222.141
-119.504
65.4489
205.936
154.717
114.311
79.5696
-33.8407
-143.959
-160.393
-67.0486
111.37
159.803
31.8278
-48.9119
-154.541
-119.235
-5.77525
77.8149
131.817
208.385
213.607
119.521
17.3015
42.3703
84.7988
24.2187
-82.7571
-139.941
-17.4133
-6.61362
-63.616
17.7722
189.917
189.481
-19.872
-78.5948
8.57607
-59.5146
-153.871
-121.665
-82.3576
-44.3804
-64.9344
-128.395
-85.6069
-10.7709
-38.2983
40.377
116.816
-19.5736
-112.496
-229.91
-294.477
-111.329
151.456
242.609
252.976
234.074
231.038
125.919
39.9964
-7.77219
-41.9084
-62.999
-57.3809
-61.7313
-49.9912
-76.8841
-154.903
14.2984
196.131
271.241
155.605
-4.47104
-92.8305
-184.468
-227.094
-162.439
-172.713
-116.416
-30.4178
5.16916
50.1026
171.747
279.276
356.164
219.564
81.2925
-77.2512
-114.124
-124.183
-187.631
-194.746
-149.331
-130.135
-36.2179
5.67828
-22.1857
-32.289
75.0311
115.437
99.8248
93.7461
105.134
90.6793
10.198
-79.0893
-53.7473
22.2198
28.1242
-9.17318
-53.2412
-57.8058
-83.4392
-65.2463
-104.066
-16.6186
99.8869
288.875
331.466
188.637
85.4561
47.5712
-79.9242
-195.957
-236.218
-131.266
-105.137
-60.5854
-33.8974
-62.1474
-163.801
-110.59
-18.5886
19.526
38.2057
-8.70458
-20.904
36.9103
84.5878
271.339
223.385
49.7735
17.6306
3.90887
-36.027
-40.9571
-36.7553
-147.304
-163.685
-70.8959
59.9835
171.623
230.178
133.489
73.7696
-0.835735
-99.6594
-166.98
-246.224
-264.406
-147.961
-40.8814
21.1508
-16.6853
-15.3112
100.68
119.478
146.754
150.019
131.088
131.81
6.54487
-52.8047
-122.908
-49.5191
7.42548
32.6195
11.9658
18.2943
-62.4254
-118.754
-108.55
-108.359
-28.9095
151.757
290.99
298.456
335.108
310.714
36.899
-170.294
-225.401
-233.236
-132.581
-99.9937
-93.0347
-35.3154
-30.5935
-201.691
-257.885
-89.0555
41.0474
67.6136
61.5516
-53.4868
-181.733
-132.631
-88.7168
-31.1042
122.472
257.031
234.847
107.249
120.845
135.264
17.6518
-32.077
-60.1784
5.05141
61.2825
39.6707
48.7942
55.2449
-62.6752
-99.6925
-70.0125
-67.4879
-51.672
-61.0337
-10.95
-28.7562
-119.666
-183.791
-259.33
-185.008
74.5288
356.796
620.733
690.034
424.475
134.856
-62.0714
-159.027
-168.123
-201.593
-235.95
-224.097
-172.674
-248.836
-280.016
-185.601
-52.7155
74.3262
149.049
51.7978
-92.0146
-214.323
-361.455
-208.8
109.149
314.38
294.121
153.284
104.209
158.708
180.451
9.51006
23.798
116.196
96.2077
0.110557
11.0315
67.7196
90.9042
-4.56735
-9.26077
-78.3399
-136.626
-230.501
-238.386
-183.337
-102.155
-15.0384
29.2566
-55.6478
-111.071
-22.137
-15.1466
63.0643
197.497
255.926
307.945
319.727
273.457
257.424
68.96
-54.642
-72.8029
-195.142
-334.839
-361.531
-315.96
-190.027
-79.7821
55.4649
203.403
229.731
-7.92961
-141.82
-177.37
-159.958
-144.402
-57.763
53.6074
124.566
112.886
143.427
163.303
105.913
111.725
140.371
173.814
94.1074
-5.50299
-75.593
-134.325
-124.625
-60.1868
-91.9684
-52.1239
22.6353
-74.4479
-113.521
-128.466
-164.382
-70.0629
24.2403
146.121
256.485
169.921
2.94055
19.0294
117.429
86.2723
-20.1958
-51.7149
-42.4877
57.9484
115.813
-32.4638
-119.2
-115.422
-164.221
-260.732
-295.762
-167.432
-46.032
28.0489
291.44
496.548
380.814
202.587
90.9445
-2.16762
-48.8249
-41.9908
-62.0187
-126.234
-145.69
-111.93
-147.74
-148.925
-97.1748
98.3877
257.421
227.342
89.2365
-129.283
-292.775
-244.583
-109.528
-65.3263
-104.853
-91.9929
-32.5162
-4.64481
71.9075
187.292
298.012
380.887
252.475
120.715
54.1988
-39.7166
-93.7464
-134.522
-172.062
-199.791
-229.117
-272.862
-288.35
-287.814
-103.987
168.898
514.058
900.451
787.174
238.809
-222.704
-327.603
-233.774
-84.8798
22.0713
-17.3033
-168.218
-217.188
-285.903
-219.231
-140.752
4.69944
224.781
318.077
161.736
54.0734
-137.43
-505.478
-553.938
-253.645
-22.4156
6.21597
66.1007
159.489
187.029
210.479
151.79
184.087
217.378
166.005
73.2813
-9.886
-36.51
8.25608
32.2941
-19.7152
-68.3762
-95.7137
-10.0768
68.7095
1.09351
-72.4126
7.17459
113.378
121.871
164.832
303.121
155.413
-15.1744
-83.7434
-89.7534
-87.8486
-97.7514
-161.085
-121.255
-132.946
-189.61
-232.054
-187.031
-73.5907
88.7651
86.8045
-4.55525
-145.336
-236.032
-227.403
-65.1617
237.486
432.665
280.469
120.015
-32.558
-129.892
-104.784
-70.5483
11.6262
111.657
167.552
147.656
167.142
130.201
102.494
86.4872
74.1586
42.8333
-60.3332
-232.472
-290.379
-277.842
-172.94
-119.43
-54.2329
-60.586
-133.757
-55.1667
56.7112
148.55
325.657
346.784
170.221
58.6549
11.4867
84.9429
143.315
-34.6902
-130.365
-119.553
-192.869
-248.408
-236.009
-249.748
-161.022
155.174
379.893
371.555
402.236
248.643
-41.5165
-188.074
-160.917
-142.107
-109.589
-204.766
-241.062
-128.596
-51.1482
9.30913
50.703
70.8885
157.709
164.725
65.4714
-126.5
-232.308
-218.974
-202.629
-130.214
48.3191
178.613
208.825
280.166
353.556
257.638
70.8383
10.0296
-24.599
-2.15973
41.0514
17.979
51.2815
80.0057
44.8095
-24.2365
-110.131
-184.253
-240.668
-253.937
-263.459
-151.857
46.0805
71.6731
-49.6919
-37.8354
-28.0974
3.74255
20.7573
41.6003
16.2578
-32.3887
-58.6541
36.8667
48.2925
117.959
240.013
262.518
162.127
121.908
90.4109
-79.5811
-347.774
-340.994
-189.625
-80.4778
53.2686
73.958
87.8752
170.937
175.149
195.344
57.5525
-38.6039
21.5557
33.0431
-5.44161
-18.6711
-29.8702
-140.197
-222.071
-278.079
-234.278
-161.397
-40.2936
92.921
285.775
457.538
228.641
-22.6534
-60.7229
-49.563
-16.6857
-8.96485
0.23558
4.8141
-52.888
-98.2885
-132.692
-92.0401
-77.4323
2.89852
143.216
218.834
128.115
15.3326
-105.232
-196.46
-135.946
-88.8705
-76.5227
-64.397
-78.5076
47.6139
148.857
220.45
364.84
416.581
239.758
120.297
-96.9605
-189.941
-256.961
-316.306
-282.073
-176.563
-34.5597
31.7003
103.551
66.8951
-31.1994
-18.4417
29.1348
-81.2043
-235.06
-266.473
-193.092
-117.81
119.528
383.209
344.757
187.509
109.091
15.4793
44.8487
35.4993
-33.6576
8.01941
82.3309
80.6525
61.1175
16.3439
56.7635
87.7322
30.2206
-60.3379
-180.917
-221.288
-230.223
-274.608
-145.705
15.0606
130.65
-3.33674
-196.778
-158.574
-77.8547
14.9293
316.675
551.77
420.496
222.284
73.1904
-79.6489
-134.513
-124.075
-96.2893
-102.3
-129.021
-172.662
-79.0503
-38.9131
-83.8965
43.2717
125.736
74.2986
14.704
-57.298
-143.143
-273.137
-204.805
-90.8286
-108.367
-6.9412
129.516
210.761
285.548
351.712
411.699
288.11
76.8474
-22.9799
-36.0933
-9.66133
8.30569
-96.999
-176.25
-233.79
-297.777
-260.213
-135.761
-12.3992
92.0331
-21.6563
-32.3068
-82.5995
-186.203
-254.861
-191.354
-5.82694
290.659
450.284
307.114
128.278
58.4705
78.2458
61.0448
106.193
84.4852
-41.6604
-46.4701
-54.9379
63.8176
203.439
144.515
19.156
-100.723
-120.107
-167.96
-293.575
-320.487
-238.272
-80.0657
-17.5438
-28.8134
-12.8918
23.8089
62.3528
21.9707
85.1357
17.7953
-80.6106
-136.995
-105.654
29.1058
219.498
252.316
136.41
45.4408
62.2869
222.02
395.519
260.984
97.0995
10.8564
-59.7346
-120.468
-218.538
-217.284
-186.965
-116.771
-22.9263
12.1857
-85.6632
-193.414
-226.732
-161.548
-110.895
-58.8366
65.9795
45.144
-48.433
66.013
186.707
204.808
108.798
14.8273
0.813195
32.0527
120.644
163.333
184.429
123.692
25.7613
-15.3468
-43.9677
-28.9784
53.1589
-0.618709
-38.198
-152.412
-284.148
-244.872
-145.313
-51.4652
51.1514
23.1127
2.06664
-6.30104
-20.9639
7.17701
12.4028
31.5266
144.3
90.1007
-19.4122
-53.2961
-21.0974
6.8236
8.97564
83.6345
88.6224
52.7594
26.6345
73.6757
31.1317
21.8656
48.9018
88.0296
36.3229
-29.8721
-54.2029
-125.622
-134.899
-62.0804
-52.2181
-86.9406
-76.6031
-16.6485
44.2031
53.3804
94.933
49.3951
9.55788
-74.6432
-165.279
-181.206
-108.822
-95.3069
-2.38997
221.114
312.695
242.172
129.088
99.7734
85.4677
-48.6238
-137.127
-101.462
-77.7638
-0.197454
61.6867
-13.8158
-13.6261
-27.5406
-22.9327
40.2916
-18.5932
-52.1882
-80.3633
-149.054
-136.312
-99.1471
-51.1769
24.435
63.106
142.982
149.57
102.557
48.9589
-59.8941
-239.746
-134.367
-50.1469
30.7917
132.149
153.304
135.742
130.81
19.2646
-73.1723
-78.7639
21.7411
97.3398
43.8064
28.007
73.8619
44.4609
20.9121
-34.383
-165.195
-195.647
-174.61
-141.211
-15.5694
60.1717
121.224
134.297
193.509
226.623
82.3719
-76.274
-95.3887
-60.6906
-67.9917
-90.1838
-76.2264
-76.9133
-106.303
-139.803
-144.107
-69.3966
99.6863
197.899
67.4707
76.6424
65.0075
-28.7751
-126.955
-175.827
-152.883
-91.0333
-100.743
-55.0196
209.237
346.348
348.413
306.652
154.166
46.2943
-49.4026
-53.3568
-31.8054
6.90232
30.5004
-62.5176
-107.982
-84.8958
-182.858
-127.048
-50.6389
-28.6594
2.40561
-11.4454
-62.3854
-96.7087
-139.763
-85.0463
-15.9352
17.9752
72.131
59.307
3.28969
-56.4915
-54.6883
8.3281
128.737
189.174
104.139
33.0076
46.4395
116.596
135.035
106.874
67.1877
25.6304
64.1056
62.7899
26.8153
-31.4178
-80.5628
-207.606
-253.869
-175.468
-73.2026
81.4573
98.9292
8.41445
35.1945
-16.2512
-56.0989
-184.859
-185.241
-158.892
-174.454
-85.4172
24.6691
40.0604
148.248
171.848
127.614
144.703
128.731
67.1581
10.4648
-109.605
-168.627
-98.5134
-71.5173
89.926
281.183
317.25
96.612
-19.0824
-10.265
70.1574
84.6274
88.3787
27.3818
-44.906
-46.7268
-19.4966
-43.4357
-41.2037
-49.4728
-152.274
-188.128
-228.825
-149.227
-106.751
-180.413
-210.734
-40.8967
205.685
238.395
213.971
239.634
66.6507
-33.1353
8.0426
71.7808
159.679
23.252
-102.469
-99.0168
-57.274
-69.8439
-56.067
7.44092
48.5384
-3.38301
12.5338
60.2092
-38.5647
-102.646
-186.88
-298.779
-177.79
-88.758
-24.6267
57.9489
110.919
186.936
175.283
152.244
278.744
300.373
200.14
125.264
-7.68653
-38.2072
-16.6731
-24.1674
-67.0685
-41.7544
-77.961
-197.432
-212.47
-175.872
-132.775
-182.424
-248.204
-126.464
68.9481
257.624
302.43
257.779
162.516
34.1245
0.743507
0.723931
-14.8155
-17.7407
-25.999
-135.973
-148.208
-95.0675
-111.127
-150.001
-109.599
78.4603
191.767
253.285
278.511
107.542
-70.8175
-118.371
-70.1355
-15.422
-30.0189
-113.323
-86.0483
-39.2069
22.1418
65.4725
-4.34276
-43.7901
-7.88584
-32.4891
37.5368
80.2036
133.969
95.1245
-38.0333
-156.76
-167.346
2.21059
75.3611
-35.0792
-29.4394
46.1044
34.175
-6.87509
-47.441
-11.1993
16.1307
50.4481
105.67
203.098
160.775
-7.64762
-177.666
-193.876
-198.171
-144.454
-70.5149
-26.9862
87.0391
152.17
163.244
242.459
213.931
105.407
-37.556
-110.325
-84.6187
-17.3942
53.528
181.276
120.696
-92.1821
-169.845
-213.559
-186.356
-129.437
-118.17
-159.035
-119.601
43.7839
-23.5087
-69.076
-45.8062
-1.10809
61.1321
95.0866
114.163
47.2509
0.671614
-37.3098
-180.785
-47.359
261.906
263.72
77.5956
33.0806
82.2139
141.789
135.608
2.4071
107.865
112.249
39.6777
174.352
408.763
270.423
-40.2099
-240.857
-286.809
-325.717
-220.031
-176.114
-312.137
-326.885
-200.216
-96.6593
12.0677
8.99644
-185.55
-241.964
-133.408
19.4577
9.11022
-62.8231
-122.5
-9.19204
163.356
305.252
329.589
315.347
253.843
193.219
204.981
253.56
302.586
255.429
49.9923
-99.47
-57.5921
54.9639
-109.469
-299.101
-272.079
-287.575
-360.088
-401.823
-263.515
121.428
378.752
596.459
744.626
482.208
45.752
-152.962
-199.281
-287.359
-395.251
-370.568
-283.457
-181.833
-24.9446
83.1408
28.0448
-67.0821
-52.4606
91.9339
-0.430716
-135.911
-218.412
-313.817
-333.648
-163.049
39.1778
161.285
168.043
181.921
276.445
372.138
252.684
43.1369
21.7503
18.4288
54.2452
75.9605
43.0997
80.097
267.43
326.796
185.647
-47.7884
-222.765
-178.346
-99.0341
-169.185
-143.993
-14.3658
19.0067
-111.24
-23.9683
186.304
57.8706
-42.1741
13.67
60.8347
29.8863
-38.6152
-94.3277
-159.545
-162.224
-251.633
-165.832
7.34307
15.6651
