13.3757
7.21939
-22.5534
-24.4115
2.37807
10.5756
4.11433
-22.3814
-27.7506
-13.6208
-9.34409
-34.6745
-49.2527
14.0433
-2.19871
-16.4376
38.656
95.3312
72.7994
17.1007
-16.5522
-23.5417
-20.3744
-13.8038
-24.0881
-35.8033
-46.6351
-57.4311
-56.3958
-42.9269
-32.9909
2.93557
20.5642
13.4628
28.7466
66.0309
132.301
86.1607
30.2416
59.1933
46.771
6.27959
-21.1405
-66.6404
-71.9003
-33.2139
-37.682
-16.4628
-0.585269
22.1466
51.8785
-13.1757
-20.4529
-24.5799
-35.9641
-54.4313
-100.446
-74.486
-12.1312
47.9017
63.9901
49.4108
43.5975
49.4167
39.4033
-2.84684
-1.01459
25.9775
4.95746
-12.4727
0.608101
17.6463
9.14531
15.9
28.1299
-18.2523
5.45606
71.7569
47.2863
-28.4082
-49.253
3.92014
53.0633
16.6835
-55.0251
-82.5641
-75.9374
-57.8556
-43.455
-15.7364
21.6917
39.3949
-8.04973
-28.8615
25.1187
40.4139
-14.5832
-89.9049
-71.2026
-41.8327
-18.1819
-37.886
-63.4901
-3.34987
45.0445
75.073
91.3806
83.8823
124.898
133.43
79.5051
37.2643
55.6174
-13.9726
-79.8414
-50.4607
-66.1722
-78.6623
-54.1986
-39.7426
-26.0276
-4.48057
-10.8534
-9.18
1.93375
-10.7234
-52.9502
-70.0582
-9.9274
15.6072
34.4532
83.3972
101.354
82.8822
56.1428
34.0526
45.4579
23.2672
-16.9584
-50.3367
-90.6391
-97.268
-72.9717
-60.856
-39.9404
-7.56135
6.0745
15.3982
24.5003
30.3229
115.828
199.062
98.3703
12.8601
-37.0175
-63.1713
-77.2479
-46.8207
-13.7278
-18.4813
-46.4279
-60.7956
-40.2679
-11.3592
-11.2363
-21.1874
4.61445
24.028
15.7703
-9.66136
-76.6118
-110.764
-65.2073
-18.5373
8.3313
18.0316
23.9372
44.1132
62.5718
113.474
149.305
95.7793
44.9329
9.27425
-18.2541
-33.6703
-32.5097
-11.2169
-19.456
20.9974
57.608
36.5563
70.2384
10.197
-93.1808
-139.905
-86.968
1.06209
14.6395
-16.6231
-9.52539
-0.924015
-29.3846
-7.01427
50.3038
53.412
52.4209
18.9145
-22.9078
-36.4851
-81.5552
-114.698
-106.617
6.07462
83.4262
111.381
44.2793
-51.9691
-41.0962
-15.5055
-3.56523
51.6829
122.107
128.638
57.6609
17.3435
41.3196
29.3577
-53.5326
-91.6416
-109.168
-91.507
-77.7656
-58.7
-22.0785
-10.9159
-39.2454
-24.7082
4.73877
26.8602
21.4253
-6.9245
22.4693
-44.5907
3.54526
146.664
118.463
99.4888
133.54
99.1787
-7.26084
-61.2274
-85.5011
-105.057
-115.391
8.44229
66.7672
43.7463
32.0758
87.0933
134.829
42.0025
-81.1702
-98.0047
-99.5164
-119.456
-137.274
-134.303
-114.876
-88.7086
-22.042
21.2971
63.6042
130.03
130.75
68.0031
62.8137
71.3281
25.0228
-80.3455
-100.997
-14.1101
1.14635
3.73555
1.8742
5.41085
20.5286
48.8438
115.631
133.495
65.9124
-32.0717
-77.0378
-44.1771
31.3265
-1.29508
11.951
17.9633
-14.1284
-20.601
-31.5908
-34.1322
-17.6463
-8.24343
-3.34224
-44.2173
-40.0394
-22.1559
-42.6198
-60.0184
-23.1422
20.0432
-14.5412
-74.8227
-65.2312
-24.5339
13.4742
63.6994
220.524
284.874
135.961
52.3491
34.7918
9.52295
-66.1773
-132.871
-159.126
-186.665
-176.763
-91.2991
-8.22799
105.74
123.796
43.2998
10.5273
-2.32148
-30.4187
-44.5627
-105.202
-126.681
-52.5899
-29.0519
-4.22804
23.4899
65.3724
101.55
136.768
183.676
140.954
50.7264
-16.1048
-65.5206
-28.7574
33.0235
57.4232
66.2438
62.6339
26.6165
-45.4414
-45.3801
14.2672
41.7349
19.3472
-0.140469
-2.04913
-9.5401
-52.3053
-98.5483
-95.4588
-73.0007
-64.7242
-88.8194
-94.7097
-40.8033
-56.1853
-76.9778
-76.4117
-61.6345
-26.1357
-3.86556
51.7942
102.388
91.1863
74.1473
68.5896
57.575
77.5502
80.4315
61.3345
6.27891
-16.2635
43.9262
16.2425
-31.6635
-22.8908
24.8113
7.00691
-14.2402
23.1717
-1.74902
-56.865
-63.7296
-37.56
-38.0933
-19.3285
32.4899
29.3435
21.3985
-1.65473
25.4469
21.9706
-29.5968
-17.4922
-9.34445
2.23865
-14.8486
6.47579
29.9217
-3.27348
-15.7635
-2.96287
-19.8253
-32.3622
3.10805
-23.9277
-87.3641
-33.9595
30.5639
-1.29827
-48.6689
-36.7344
40.484
191.969
164.736
73.5628
36.3074
10.7642
-1.53268
-56.6105
-96.3814
-71.3621
-57.3274
-38.8221
-14.9381
21.7518
23.674
-14.9934
-47.0887
35.3389
67.736
26.6756
-23.391
-50.8182
-25.1285
-21.7983
-27.6483
77.7035
124.929
86.9673
34.6927
-31.559
-61.1847
-55.201
-46.7554
-26.2888
27.1526
14.0183
-56.6421
-83.9858
-61.3034
-51.9064
-91.4175
-146.21
-34.1118
81.339
69.7236
20.4499
72.5068
87.958
72.6024
56.0006
71.875
31.1054
46.3469
68.9343
36.4078
-5.03569
-46.598
-136.727
-121.03
49.1582
101.302
20.1286
-0.417636
43.4947
13.6817
-60.2501
-112.74
-87.9741
-18.3152
4.39973
18.124
60.8155
116.36
111.51
-34.5789
-121.609
-111.449
-6.94231
116.286
53.9089
73.814
184.882
103.11
39.028
-44.1126
-119.936
-105.417
-88.9828
-115.825
-95.4998
-75.3368
-51.8572
-90.0052
-111.235
23.206
110.773
123.309
88.2877
-35.5713
-122.23
-162.01
-89.8403
-54.4254
-49.0255
64.933
194.806
219.664
129.825
63.0256
31.6453
51.6817
39.7514
13.4313
-7.12598
1.07798
29.4202
1.28025
-16.3094
-7.8136
78.62
120.052
33.8369
-56.5562
-97.3099
-96.9987
-111.215
-189.729
-150.34
-42.6628
77.1631
52.5215
-13.2128
-35.8424
-57.3185
-13.2345
88.2687
96.9337
86.5996
58.7028
17.9476
-22.4334
-59.8519
-17.3812
27.5752
29.4908
-9.86011
-17.8186
8.81311
1.21081
-49.1163
-67.9783
-10.2493
25.587
28.9211
-16.7038
-66.5357
-26.4415
4.38252
11.6554
6.89178
17.325
76.3426
94.0515
70.9736
83.6178
75.2322
13.4705
-29.581
-52.4686
-81.4093
-80.1619
-27.3022
-12.6099
27.2261
65.5138
70.3695
11.1909
-15.2679
-31.3243
-23.7984
-42.578
-82.308
-56.1371
-55.846
-55.1773
-48.8811
6.14339
42.8566
48.4922
38.4896
36.4177
7.68646
-11.6964
-46.3331
-51.7649
-35.2621
11.5215
64.1017
75.173
58.1833
41.1025
3.50016
-15.2234
-18.4437
-6.91175
9.68727
-4.92552
17.7689
43.3047
7.53446
-12.2069
-20.7811
-20.4249
-16.4507
-41.2025
-52.9684
25.9019
53.0348
36.2451
55.4383
68.3134
-3.61731
-7.5586
-30.4894
-55.4726
-67.6101
20.6583
68.7816
53.8684
55.3393
22.9812
-11.4178
-35.2702
-46.3746
-96.9969
-147.155
-102.873
-79.2249
-34.9545
10.8952
82.7182
87.6071
33.1629
11.8553
2.51765
-9.62784
-15.3694
-44.0079
-58.6675
2.8114
27.17
-21.2914
-36.4676
117.201
210.328
185.407
132.503
67.9852
9.65544
-38.7484
-131.272
-136.285
-101.349
-47.0089
-32.6351
5.87568
17.9716
23.7949
-19.2036
-53.483
3.88129
50.8598
72.8281
-12.0046
-76.8231
-73.012
-115.343
-122.664
-35.7004
68.1998
101.351
114.006
113.011
92.3077
55.7485
3.89202
-54.9872
-50.8011
14.2101
-0.462547
-23.2481
-9.87572
-10.789
-36.6146
27.32
29.189
-47.3803
-47.7461
-70.418
-145.873
-176.121
-34.8185
299.542
234.654
103.695
123.828
74.0158
-21.6447
-87.9556
-45.9738
-43.7203
-50.7292
-25.6508
-35.3831
-31.5804
-19.6494
-16.0276
-114.365
-224.432
-95.9344
119.72
72.1165
-121.201
-96.1491
-6.24055
13.7734
6.58583
44.0217
85.0697
101.832
84.4373
49.7924
31.7056
52.5664
57.6979
63.8443
135.843
175.747
225.216
132.147
-56.2984
-105.34
-185.335
-154.053
-68.4763
-48.9556
-78.5126
-57.5891
-17.9015
-23.6693
-24.9385
-10.7462
-8.33527
-71.0009
-204.241
-110.687
-12.9908
-4.89586
14.3204
50.4715
85.645
70.9422
97.0019
151.133
87.1439
18.0289
15.7805
11.4739
13.2304
-29.4364
-66.1806
-37.4302
-34.3682
10.4032
66.9341
-6.69997
-71.731
-44.7538
-31.3113
-51.1122
-55.408
-6.13728
5.65286
-8.1822
1.97827
8.81612
26.9387
18.6898
26.8261
16.68
2.30962
-6.54403
0.406937
2.84309
30.7489
146.281
263.478
139.53
68.806
-8.56001
-34.3049
-16.7809
-110.487
-156.645
-133.725
-72.693
-23.1302
-25.8465
-40.184
-35.7514
-26.9755
9.66541
-6.87986
-34.0275
-6.61871
-35.0847
-127.933
-56.6448
83.3167
78.4751
-4.97741
-25.9279
-17.4356
33.2829
81.0484
91.4731
80.6223
52.4213
2.61695
-16.8251
31.8092
70.9771
64.8099
2.92823
-93.8874
-188.365
-139.941
-12.1177
48.8795
104.481
11.0326
-37.0189
-32.6616
-59.4292
-40.151
56.3536
266.342
236.936
89.6042
41.9005
15.6071
-36.8101
-55.1578
-67.4564
-38.7651
1.58533
-50.2179
-53.0055
-145.142
-189.488
-85.9093
-52.0654
10.4256
128.836
128.281
-29.1667
-191.062
-171.026
-62.2281
-9.83863
17.5368
41.359
74.3051
110.065
123.52
101.634
65.0179
-8.14052
-103.344
-62.6823
38.6919
59.581
58.596
72.0359
89.5393
19.7163
-49.3939
-44.7929
17.0283
48.3329
37.2543
-12.3741
-48.6468
-32.6571
-39.0345
-49.0578
-51.5563
8.6144
50.2829
17.7872
12.031
1.42388
-46.9113
-87.5928
-132.949
-62.3528
6.49622
55.1959
75.6306
61.5459
26.5527
38.4137
11.8558
29.0162
34.75
-16.7824
-38.625
-45.5731
-19.7856
3.46466
-27.0648
-21.8654
76.3425
35.4128
-15.0699
-22.9153
-0.0807225
15.6002
18.0305
-23.7757
-97.9108
-125.209
-37.7082
68.868
73.2297
46.2998
30.1236
14.5824
-1.27524
3.27626
30.0885
19.1866
-36.6894
-44.4024
12.6399
82.9733
37.8768
45.7443
-0.192081
-22.8066
-2.24434
17.9492
-15.0226
-99.2004
-103.648
-25.3267
4.64057
0.535565
31.9976
35.1551
29.6238
-1.14763
-71.2206
-98.7385
-74.8832
-43.697
16.2254
87.4556
112.188
201.502
173.102
49.4994
23.1977
0.929801
0.476301
-23.2025
-26.6185
-40.0069
-72.1286
-102.853
-109.592
-28.9457
20.9019
16.6875
15.7418
13.5905
-68.5367
-161.434
-144.081
-135.53
-48.8158
41.0568
82.4217
66.4555
44.062
44.7962
84.3832
88.0515
36.7915
47.4752
41.2697
21.4615
83.4391
156.852
61.2853
-69.5676
-102.607
-55.4989
35.785
52.3625
23.3056
2.9
-9.83201
-35.5113
-27.2616
-27.891
-65.3109
-84.4426
-25.1087
-15.8771
-24.9768
-86.2984
-125.524
-21.5848
79.1683
94.1834
85.5728
17.0623
-54.4566
-107.457
-107.087
-91.4044
-76.1677
-31.1058
56.8131
147.943
111.271
108.636
101.142
107.261
100.771
136.801
113.523
-23.9917
-73.0506
-76.9106
-10.0639
-18.8439
-48.0934
-70.961
-74.6554
-100.763
-105.105
-32.6327
10.7878
100.603
64.6527
16.8803
-13.8882
-44.3806
-45.5036
-87.8387
-129.685
-115.157
-43.316
61.8882
145.631
236.495
170.249
8.71887
-56.831
12.129
18.3628
-42.292
-62.5964
-118.766
-40.0769
-41.0773
-101.189
-84.1027
37.9954
161.73
155.105
89.454
1.79258
-41.174
-90.5386
-113.373
-50.8486
51.1591
120.419
124.187
87.1522
50.6104
-11.5805
-82.0625
-82.8815
-41.59
5.80255
-2.97102
-27.3872
-62.1109
-40.6144
-12.0835
38.2147
17.1134
-49.4799
-77.2262
-25.2431
52.3382
78.0522
23.7852
-18.4204
-52.9896
-133.631
-139.867
61.0147
192.537
134.305
204.546
153.411
-37.8696
-109.445
-93.6011
-46.0249
25.6653
99.5929
50.2602
-40.2036
-55.0338
-60.6921
-67.6566
-34.5864
-10.9966
1.58116
-8.69301
-103.637
-71.7978
84.6835
17.3848
-73.1153
29.7108
126.425
65.8694
-16.1219
-30.375
-67.757
-55.5866
-37.6288
-41.8671
-8.75796
44.8565
16.2666
64.4768
116.237
94.3405
25.6264
-58.7463
-102.073
-103.087
-77.4335
-21.8746
56.0785
133.037
98.164
19.6373
-44.8022
-69.3208
-49.6353
76.1731
75.5458
49.7162
71.9241
41.5944
1.39611
5.96186
-7.51367
-39.6056
-56.6039
-82.5552
-69.0036
-53.1769
-69.8815
-83.7408
-50.008
42.3406
27.2743
-2.96626
-8.61409
-53.6407
-10.4714
35.0617
129.731
137.54
112.865
45.1346
17.8563
23.862
-38.4504
-68.6756
-31.1175
-59.1808
-92.8199
-51.4082
46.7487
-0.154002
34.8059
115.228
115.372
-7.52565
-35.7066
-71.5125
-119.435
-87.4158
-68.7671
-81.6101
-80.3626
-71.4302
21.19
89.4564
79.5501
36.5367
-41.4226
-59.6707
15.0775
64.6587
82.5761
95.7041
126.154
71.365
67.1377
68.4604
50.6674
7.63135
-8.12993
-3.25352
-44.7085
-24.4699
-71.3385
-83.612
-16.863
-26.5637
18.8334
30.0453
-18.473
-41.625
-66.5791
-65.3788
-82.2389
-31.0306
-10.8909
-25.604
-26.3789
-4.44186
12.6173
12.3186
25.8068
12.4425
44.0759
18.5364
-67.9766
-32.2561
2.18722
22.3017
19.3287
15.8483
146.062
196.77
114.626
28.9849
1.53008
-121.094
-151.579
27.5913
56.4126
15.4093
35.5525
0.868387
3.54158
76.4184
67.3757
-19.2563
-104.801
-118.274
-102.506
-95.2738
-45.2981
-135.289
-176.095
-77.9457
-42.7563
72.1619
208.916
135.463
0.869274
-54.7828
27.0142
139.542
84.8196
24.386
25.7985
8.49167
-21.9152
-59.7804
-32.0047
-20.771
-82.2527
-34.0962
19.9051
18.0126
6.73242
26.6812
-27.8059
-88.8862
-0.295621
108.206
222.3
185.016
94.2274
11.7947
13.2605
13.8096
-29.112
-49.338
-23.6713
-0.165681
-85.9254
-118.564
-59.1325
-6.30446
16.6692
34.3655
47.8147
-51.495
-100.987
-92.2526
-184.958
-187.618
-77.0808
-33.6058
-36.1517
-36.72
13.6907
81.2376
92.7801
82.202
121.645
151.13
93.5135
56.7709
83.1442
73.2694
-15.447
-19.6125
2.64535
29.5336
-8.64902
-55.1327
-55.702
-43.2427
-41.3644
-31.6476
-14.6254
52.8146
91.1615
54.6911
6.91227
18.1113
1.48825
-67.0194
-96.7454
-62.15
-47.6527
-8.71329
76.7492
35.3605
-40.0129
-57.8465
-48.8189
8.95656
28.5804
33.6076
37.3246
40.4476
44.2564
-18.2183
-75.8712
-85.2561
-5.71233
30.9714
8.84314
0.341604
21.0667
-46.2793
-114.508
-39.2462
52.9632
49.9434
56.8685
36.9626
30.4123
31.3309
-6.31287
-58.1869
-31.6815
90.5069
101.47
87.4354
73.9926
34.9493
-37.878
-108.033
-116.534
11.2491
65.6422
-2.24034
-68.1271
-16.2287
26.0009
-24.3808
-38.4131
-10.7582
20.9241
18.8082
-23.8101
-86.4339
-104.644
-108.339
-57.8697
-9.7842
33.9624
140.521
162.834
59.4987
36.9212
26.797
5.77114
-24.5315
-9.15459
21.0023
44.9919
37.621
10.2555
-20.7179
-59.4103
-79.9881
-68.6453
-19.0867
-14.7846
23.7299
64.4559
23.5831
-18.6322
-0.179232
-49.4137
-92.844
-70.9104
16.6629
97.4646
104.265
55.6523
11.9315
11.637
54.8006
46.1027
-6.03419
-24.2935
-49.775
-72.4341
-83.0941
-97.4874
-75.9023
-19.6064
-4.69278
0.67044
20.6917
59.78
56.4919
-20.0369
-25.1557
35.0279
55.5217
10.3806
-16.8607
30.9362
143.389
131.445
64.0255
-1.62992
-47.4201
-82.5748
-66.2709
-43.2365
-34.8553
5.9015
35.3376
18.3047
-28.7987
-58.4873
-44.8873
-47.8561
-37.5939
8.10208
-5.48788
-53.4887
-51.4643
-31.2256
-0.555818
34.4651
75.748
86.2673
49.7284
28.7049
16.6871
17.8259
3.8372
28.7608
58.971
20.0695
18.1623
28.5113
-22.5313
-19.7557
1.57374
17.4438
58.5819
40.6648
-33.9031
-73.6438
-83.9832
-94.7515
-67.7069
2.07918
1.20838
-4.22703
-6.60906
-43.4621
-67.0828
-14.5085
-27.759
-56.7184
-56.1493
-58.9718
-37.0457
-13.3325
-1.76535
73.9273
149.655
205.73
161.196
143.418
62.5504
-40.3322
-31.2259
-21.4872
-36.3983
-13.5756
-46.2453
-74.3446
-26.9151
10.0148
35.8451
48.2079
17.6979
-23.35
-96.4637
-101.521
-61.7738
-70.0699
-64.2899
-46.4052
24.6378
26.9863
7.07329
11.2534
9.25473
22.1298
84.0471
152.083
136.269
62.8659
0.876471
-79.0737
-111.5
-29.4072
141.052
198.36
84.3501
-23.9788
-44.2114
-17.4847
-49.4428
-81.5659
-67.2489
-65.8012
-34.2677
-59.6073
-93.0442
-80.8742
-83.3056
-61.8998
-11.476
47.9717
84.935
46.0828
-83.4721
-160.741
-80.1019
-7.06083
23.1983
38.6925
89.0638
150.843
126.335
81.7633
94.6091
58.4249
37.8932
13.1988
12.3906
17.5277
14.5986
11.9309
41.1651
68.0343
-45.4235
-52.3929
29.3021
43.5952
-42.3533
-98.9122
-120.304
-120.183
-91.803
-51.4015
-44.2862
-24.2747
-5.64089
-35.4665
-53.626
-15.7603
-0.62267
-12.793
24.8566
39.439
22.1204
-36.5292
-77.6551
0.00733719
69.6757
113.784
134.092
143.652
107.612
64.6333
24.8661
14.7338
-3.03176
15.0996
1.01529
-15.0408
2.00275
14.4963
-35.0824
-74.5999
-66.9355
-40.992
-34.4878
-42.7677
1.93862
38.2127
22.1339
-15.7924
-33.9807
-22.9767
-15.9499
-7.84757
-17.4623
-49.5602
-71.3291
-56.4705
10.927
41.3023
30.9839
2.21421
38.1046
45.1447
10.1654
-50.624
-79.4042
-51.6845
-21.8447
-14.1951
69.8571
123.934
67.2101
32.8397
-1.04509
-34.8956
3.88664
23.256
5.43632
29.2145
83.803
103.276
0.0754361
-104.129
-133.114
-47.1463
79.2392
32.897
-52.3641
-56.5518
2.91702
-1.03533
-6.14769
-0.228629
-27.3117
-61.3418
-77.6968
-7.89887
105.203
92.3064
-34.5439
-51.0009
44.2567
45.9571
27.3477
99.7989
78.9019
-37.8158
-85.8618
-81.2519
-193.004
-201.303
1.95949
17.6049
-38.663
120.834
370.647
394.134
97.297
-27.8129
10.0368
-41.4784
-92.1019
-65.8641
-63.3089
-120.471
-160.74
-92.9832
-49.099
-74.8822
-12.5511
41.0211
3.5163
17.9699
49.7018
4.89883
-87.175
-159.187
-102.466
6.42286
86.2313
106.085
106.147
90.69
73.403
23.6271
0.0925035
32.2464
76.3087
119.113
83.84
47.7415
1.3468
-25.5555
-37.821
-153.725
-282.033
-147.092
-4.13919
25.0657
-6.24284
-10.3812
8.14089
46.3647
69.7372
29.0555
8.5438
-1.31509
-22.956
-7.5526
40.6561
110.644
64.1542
14.3419
46.911
88.5435
69.0709
-6.08307
-31.2685
-51.723
-74.013
-43.432
-14.4482
-48.7309
-72.8579
-40.8143
-11.4409
-6.00852
-4.5528
-13.9347
-23.26
-61.0883
-34.9465
62.6977
74.851
16.5387
-27.9486
23.9107
75.2614
-6.50499
-66.3752
-59.9721
-47.6548
1.75579
11.6233
-40.519
-9.40279
59.8809
53.5346
-43.8744
2.21567
275.616
275.197
99.1105
-19.7902
-76.0699
-31.2744
-99.9294
-142.062
-36.3987
45.2411
-58.7944
-66.493
-11.5597
20.4107
5.45814
-52.9464
-74.9864
-33.2868
-6.18421
-48.3639
-154.732
-156.14
-81.1773
22.0733
81.4601
68.3766
63.1094
63.1347
65.5865
102.614
113.107
59.5537
28.3286
30.0405
94.0932
84.5822
28.3336
-11.792
-6.90196
-22.2616
-134.981
-116.715
-34.3791
-1.67929
41.5894
67.5593
34.056
5.96394
-43.8231
-105.442
-82.9087
-32.0384
15.1744
30.7599
36.3201
103.103
119.025
53.3079
44.5264
5.91668
-135.217
-175.594
-140.909
-56.4932
28.4447
20.8737
-23.4135
-6.64431
2.52675
28.9797
55.3175
52.5942
5.83077
-17.5279
-37.52
-34.0644
-67.0877
-66.9697
-69.3871
-31.7702
72.2159
119.581
193.164
168.692
168.842
159.372
87.0565
-22.7336
-140.069
-214.992
-159.118
-79.757
-118.942
-118.517
-62.1361
3.2728
13.5681
63.2863
126.753
85.8872
40.3396
17.9107
-32.7359
-39.1234
-52.8412
-47.2448
-18.0783
21.0893
20.2924
-13.6562
-66.4876
-74.8225
96.2693
173.76
83.9524
52.6285
150.688
103.73
2.97342
-27.9074
-48.6733
-53.8739
-79.9674
-66.4215
-53.0448
-20.7103
-39.7246
-53.0893
16.0782
59.7584
44.0039
22.7112
-41.984
-72.4505
-36.8574
-82.4718
-107.557
-69.0879
-47.9754
20.3877
45.7304
24.3312
31.9115
32.1046
20.7381
-6.59511
-10.7938
15.6077
30.5432
52.2982
130.755
152.842
82.5098
32.685
-20.3098
-25.525
3.90358
15.9903
-25.3242
-71.7726
-94.5721
-46.4619
-28.9436
-25.3496
16.2677
-5.2604
1.93505
44.0873
106.441
90.0261
-3.12758
-55.9084
-44.7026
-87.656
-68.6557
-23.7913
-29.655
-23.7892
46.0276
70.3908
34.6142
-43.3275
-129.377
-82.9174
-14.0893
-25.086
-20.4586
-16.0073
-23.8882
1.70949
2.46947
3.1624
65.9705
125.814
129.225
42.4655
-25.6913
-23.0558
11.246
4.00159
8.71425
71.6155
82.1624
24.6317
-41.4037
8.01332
25.7231
6.18958
-10.9614
38.1622
17.6698
-31.8552
-66.459
-84.4484
-78.2197
-58.9403
-50.4905
8.58355
64.9337
54.1831
15.3125
-8.95752
19.6823
4.00529
-45.152
-55.2057
-15.299
16.3027
-7.88864
-52.0937
-70.4407
-59.9572
-43.3848
28.9243
47.1881
31.3512
158.515
108.024
-38.8135
-59.0131
6.04301
60.039
8.09926
47.9579
75.7812
55.5826
4.93112
-18.0916
-55.5371
-59.9082
0.820505
19.325
6.64925
-36.7517
-58.4871
-64.0187
-132.991
-131.809
-50.9928
21.9827
81.8411
56.0396
43.0665
6.57344
-31.7929
-44.1241
-1.13349
10.0161
38.4917
40.613
46.8709
27.453
-12.0527
3.0227
108.179
172.739
28.4601
-17.5577
14.5601
34.373
30.4147
40.6282
-7.02113
-134.398
-149.191
-73.1313
-45.3267
-35.557
1.05061
18.1245
11.1896
13.1122
19.8909
4.01122
-51.2756
-81.5262
-31.2759
5.25027
-8.7888
13.9369
3.38837
-43.2415
12.7598
106.623
157.752
93.5051
56.0772
5.67889
-53.5905
-33.9062
-51.6773
-76.5874
-58.3869
16.3878
1.55913
-50.7575
-24.7132
46.3799
64.2773
1.87285
-19.4675
-24.192
3.87064
20.9576
-40.6721
-10.9038
24.9045
7.62089
22.9639
28.6895
90.2369
96.1288
-21.9585
-68.143
-41.8579
9.23289
33.462
77.0732
7.67424
-151.51
-217.226
-151.927
-20.1509
55.6468
48.2952
38.0489
-47.069
-128.745
-15.6367
209.717
232.032
133.083
113.602
52.5602
-11.663
-46.2872
-61.2714
-108.403
-96.4739
9.40306
31.4463
-24.4214
-54.1984
-1.4718
44.8899
26.5588
23.9944
103.623
60.5991
-154.187
-216.397
-155.014
-43.2762
24.4061
-1.12505
18.3632
37.2405
7.05684
0.910488
4.79127
13.602
59.4616
32.9033
20.8818
75.5414
71.851
110.592
139.098
83.4831
-23.0077
-95.4169
-8.57547
78.2966
-5.1677
-32.072
-80.7587
-101.208
-81.2832
-78.4068
-65.2345
56.4906
139.481
108.633
6.22493
-73.8669
-97.6428
-122.503
-103.094
-90.453
-39.0181
13.4252
15.1394
-18.5933
40.7977
67.6922
78.1977
34.1836
4.63138
39.6649
57.2763
27.4725
28.9835
32.2337
-4.65158
-34.0853
-7.48103
26.2189
-6.27789
-39.956
-68.7033
-32.2
50.62
-15.9732
-43.8129
6.09942
106.238
177.93
94.8761
36.3736
-0.929005
-70.9119
-67.2555
-118.049
-95.7527
-22.2236
-7.2185
-12.4854
11.6247
21.0328
41.0954
25.0058
-50.2687
-38.2012
35.6239
26.4413
-85.7876
-147.802
-126.283
-59.9332
92.3172
160.988
60.7948
14.9035
1.50428
-18.7284
-2.82971
29.6883
66.1374
99.1246
56.7233
24.2451
-16.163
-31.4984
-51.0216
-43.9915
-45.5135
-45.7353
32.8312
94.1459
26.6982
-47.3727
-44.9155
69.867
73.6463
16.4862
10.274
18.5844
-43.3953
-59.8775
-28.3187
-15.5891
-24.2995
-35.1578
-39.9731
16.9703
24.773
21.1798
5.13236
-54.1608
-111.117
-126.864
-94.2564
-69.7368
3.3274
54.5426
59.2284
91.1532
123.955
143.776
125.655
50.5587
20.9597
12.6389
17.961
-9.06384
-9.47744
-37.9208
-66.7312
-78.023
-52.7117
11.2486
20.0524
5.25098
-21.1443
11.0118
-16.3074
-96.8812
-118.047
-164.999
-132.41
-10.8774
82.5832
120.045
153.025
157.823
207.62
195.167
74.2167
38.8143
17.1062
-19.8819
-59.986
-82.3313
-93.5174
-123.802
-128.974
-78.6393
-46.1922
-21.6467
-39.6387
-46.9149
-52.6752
-25.5257
-6.41499
-19.7804
-100.091
-62.1693
45.4788
60.4278
77.7603
68.2447
19.0662
-26.4456
-5.03466
81.0043
121.686
89.5336
71.4457
65.7214
74.5192
49.2752
26.8926
89.0156
-6.40087
-146.166
-187.288
-120.383
-22.4187
3.6865
7.2008
-5.41207
-11.5853
-8.88861
-26.4713
-74.945
-65.1471
-0.212971
136.597
275.625
170.017
73.1666
9.48269
-108.4
-204.471
-182.139
-95.6716
-127.857
-113.44
10.5218
69.1111
143.74
278.746
248.899
64.153
-11.2018
2.28295
-43.76
-133.776
-204.871
-160.219
-132.273
-69.5692
-31.8846
-1.38862
33.1998
55.1839
66.29
32.3381
12.8381
47.4478
7.8818
-98.9197
-18.3833
50.6748
12.7868
15.4806
28.701
-11.5893
-42.2959
-2.17722
55.7798
35.1205
35.8864
90.6431
45.8055
-8.17417
8.68915
122.955
145.227
43.9467
-5.60886
-47.1427
-69.1159
41.9949
14.596
-94.6322
-108.031
-33.212
12.5047
60.2021
11.7252
-50.6204
-54.3279
-58.4238
4.77276
-16.2053
-73.0512
-47.6103
-75.5073
-135.656
-137.971
10.6598
173.782
101.609
5.61597
50.0593
97.5318
77.9694
30.6955
-13.5503
-5.5888
-83.3253
-171.706
-109.141
41.9861
137.84
95.9664
-18.517
-60.4517
4.60859
77.2254
19.1249
-67.7587
8.55465
59.7174
16.1812
-55.1043
-82.7335
-19.2366
27.707
26.2525
85.559
101.748
27.8051
-27.4562
-36.4029
49.9505
139.124
138.395
30.0251
-26.121
-73.366
-117.861
-134.086
-63.4031
-30.2996
-14.3184
19.5287
-34.9773
-67.0473
-30.1746
23.614
56.542
62.4485
2.96991
-12.2586
11.9898
-86.8235
-122.662
-49.5839
-28.871
-6.40394
-11.7051
25.5141
91.1037
115.341
74.5865
-4.95194
-23.5882
-17.4047
14.8856
113.008
103.37
46.18
-8.51426
-22.2314
-66.4918
-80.5073
-79.4296
-39.9978
89.7061
116.31
18.5476
-36.0965
-66.5243
-90.6612
-79.7987
-136.208
-136.309
25.5921
115.347
94.3275
218.12
216.552
0.859872
-136.572
-52.259
59.5985
145.378
105.818
-14.9502
-28.858
-71.1445
-210.073
-187.542
-89.2976
-28.5403
17.5855
7.74497
-37.8759
-69.7213
-96.1737
-124.51
-36.7577
179.634
224.408
135.772
11.9098
-70.4512
-44.2375
-36.701
-63.672
60.9461
204.778
166.264
118.392
122.54
114.144
33.0591
-109.83
-68.0017
-32.9086
-98.3769
-128.156
-97.1517
-50.6451
-47.84
-72.321
-100.576
-85.4193
-21.1113
1.9904
-3.64579
8.06382
38.0449
42.2553
7.65204
16.4137
60.0312
85.3693
66.1306
42.4236
18.5457
61.1812
70.5896
81.0924
40.2654
22.8339
12.7087
-32.2263
-83.5749
-112.601
-139.651
-156.88
-84.3925
-22.9091
85.594
72.6886
46.1815
38.0891
44.1146
26.1562
14.3513
-24.5806
-89.5304
-91.0508
-55.157
-46.6656
-36.0264
69.6689
87.9192
101.692
107.585
101.273
45.5533
-51.4133
-128.561
-20.1712
29.5522
31.0835
-48.8104
-40.3855
-14.9955
-36.0941
-35.8878
-26.8793
27.6858
34.7039
53.4559
39.2543
46.1263
37.6264
-29.8826
-79.1564
-20.3396
35.8684
5.69069
-27.0992
13.2853
15.6551
-14.9184
-15.5998
59.259
35.53
-9.41764
-23.1892
-40.4907
-23.6639
-31.5211
-37.9177
-0.991606
-1.98942
35.5262
69.1036
45.9508
17.9118
-10.1723
-42.1938
-37.7902
-23.01
-24.1141
-25.7274
-55.8985
-55.3271
-19.0987
28.2261
-32.7792
90.4927
210.461
183.444
-25.3434
-82.3411
-51.2691
13.1032
-7.46165
-10.6811
31.2913
21.1678
8.52836
-51.6979
-85.6254
-119.673
-106.619
-76.8061
-42.7061
35.8252
87.4037
-43.5542
-0.819991
-30.2413
3.10174
30.562
33.5132
36.1614
35.834
20.3183
24.1742
35.6776
13.7905
25.6808
49.3435
52.8447
18.5964
21.5858
89.7343
68.8077
-0.188822
-58.6223
-119.046
-130.401
-60.8371
-25.3582
-5.59641
53.9517
117.847
149.404
40.2515
-19.0376
-41.3781
-46.4992
-71.4101
-33.1831
8.11943
52.7828
66.9443
12.7148
-0.631496
-68.4827
-178.491
-81.3531
-48.4663
-28.1727
-44.1639
34.6714
31.9289
-74.8655
-70.4146
-39.5771
0.0643178
67.7616
187.029
175.001
47.2125
-11.2113
-13.9818
-30.8548
-54.9981
-5.29986
34.1525
1.99496
-26.0313
-1.16692
39.3942
-38.1465
-75.6426
-26.3259
34.6824
48.7899
42.6632
-10.3255
-103.28
-98.5401
55.8812
143.939
42.4007
-16.8563
47.3197
166.324
138.198
10.9686
-6.3915
-24.7804
-101.484
-89.9495
-43.5122
-24.7157
-66.224
-117.854
-98.5683
4.25609
91.7239
95.7919
9.83849
-47.4686
-51.5134
-54.5081
-46.3404
-78.1327
-90.5016
-38.4658
12.8748
45.1202
80.4157
71.7956
91.1749
93.0547
71.0346
72.2722
47.4774
23.5861
-8.28577
-59.82
-80.8057
-128.483
-166.184
-102.012
22.0064
15.6373
143.25
195.895
155.391
73.7136
22.125
-11.3991
-23.5121
-27.9332
-15.4738
25.3397
11.8798
-43.6673
-95.7828
-85.3635
-16.2433
-35.5793
-24.2055
6.24053
-5.66175
-10.7027
-85.8427
-55.2785
-12.0748
-38.0785
-29.7432
-47.6477
-65.8119
27.0938
67.2836
62.963
104.017
97.698
30.9627
-19.7435
-3.32871
82.0739
133.049
84.0945
45.1565
61.3137
-36.9231
-110.353
-90.9171
-34.7858
-32.6947
-37.166
-58.5465
-69.8064
-58.3592
-91.5684
-105.042
-53.7302
7.09357
66.4813
114.288
188.112
165.401
10.7746
-103.686
-61.7668
27.4073
10.774
2.17485
-20.1469
-5.9738
-23.0326
-35.9433
12.1564
75.7047
95.1004
25.1083
-34.9596
-65.642
-45.7851
13.3154
-55.4824
-74.8668
8.23736
63.6933
28.1892
-22.5868
-51.5515
-79.205
-66.7899
-76.7775
44.9875
139.639
122.723
80.6209
5.81374
-5.31532
2.99068
106.853
190.868
39.1778
-138.775
-185.733
-84.8377
20.562
6.99033
2.27298
35.488
57.2026
17.0848
2.541
-27.6721
-67.1234
-115.488
-111.97
-16.9112
25.5304
19.4903
-53.6278
-70.7753
-81.5172
-53.8409
7.28059
92.6665
29.1301
-27.5546
-19.3507
15.5824
25.3872
61.0944
107.388
90.1455
53.0866
30.9117
14.9211
-20.5371
-35.5282
-11.9774
61.1444
63.3917
135.25
184.018
85.3106
-98.1301
-152.84
-137.772
-60.7514
12.1979
-24.3888
-2.54262
-15.8715
-51.719
5.33584
73.1827
11.8593
-21.5999
44.0156
40.3838
-34.0654
-132.836
-172.8
-127.234
-68.9241
41.3936
143.251
96.5119
-20.7846
-75.3818
-32.6744
30.0375
95.4148
6.76369
-53.9452
-51.6989
25.4746
80.6145
28.0711
22.8738
55.9019
24.5272
-24.2726
-17.7403
16.3764
-19.1223
-68.3574
-30.8195
2.02475
4.41409
-3.79622
28.8851
11.4731
32.7671
29.2895
0.350539
4.45178
-16.2474
-23.4354
27.1819
21.4757
25.7935
19.9712
13.2924
55.2747
52.2133
-14.6167
16.6153
21.9422
-1.24245
-14.3333
-43.5693
-52.9187
-33.4302
-56.9935
-108.94
-61.364
67.1132
145.3
83.469
49.0829
-9.44302
-87.7321
-96.9081
-97.1194
-61.1927
-19.272
-27.2011
1.85752
48.8815
44.1876
-16.1401
-20.5325
29.9673
35.297
33.6497
-2.96095
-60.4584
-98.277
-93.5669
-40.3258
119.892
128.209
57.6254
18.5761
26.5646
22.7484
0.545161
-21.0532
-29.2603
-2.46477
19.8798
20.581
79.3007
156.741
83.6896
-2.52074
-47.3103
-45.9838
-22.8178
-35.5156
-90.7137
-75.4111
-38.8874
-6.58601
-54.1671
-53.529
53.0832
188.796
132.143
-3.66055
-49.8425
-56.8445
-117.763
-144.539
-61.6603
25.052
68.6966
31.4385
-8.57288
-61.6415
-72.1442
-27.6624
8.52265
42.6685
63.2781
62.5462
14.5765
-69.1976
-14.1877
35.2693
17.3064
30.6048
21.2518
-0.262715
4.17629
7.66545
6.19488
2.31451
-6.99086
38.7018
37.0258
48.4917
42.2524
12.7911
17.6935
14.724
-22.9053
-46.0574
-65.1647
-33.3917
1.90518
16.8574
43.2482
19.6806
-16.3009
-51.6768
-44.8746
7.03698
21.9504
11.8899
-0.42499
-14.3169
-29.1168
-36.8441
-54.5807
-24.3503
-18.5318
-36.4595
-22.1611
2.36319
6.94197
48.6031
141.377
150.198
49.8986
-11.104
-38.0217
-46.0538
-29.2988
-33.6596
-41.7874
-35.2772
-4.47045
-9.99466
-15.5967
-30.5352
-34.9472
-55.3839
-69.9518
-40.6265
82.6486
77.3494
0.166274
53.1215
70.6855
33.6757
-16.3459
-11.3186
102.761
91.2157
17.1766
-12.4104
-32.5686
-27.8754
-28.0172
-49.9835
-89.6203
-89.6364
-11.9129
49.1475
58.9976
114.46
141.132
-32.9931
-85.6119
-59.1153
-21.2012
-16.3149
-115.207
-113.563
-11.4444
34.6094
27.2062
71.8857
191.947
156.346
102.857
50.4328
-14.1149
-56.6768
-116.778
-191.329
-197.51
-135.771
-55.1874
4.06813
25.1292
25.1366
29.0714
45.1115
45.1454
35.9332
65.043
31.7055
-99.1947
-106.3
-1.77551
100.451
163.803
262.897
225.521
50.3062
-65.8895
-77.2478
-80.5706
-89.338
-104.715
-94.2369
6.09049
40.6163
-18.5792
-4.14159
15.9282
-13.1382
-27.3425
-38.7506
-41.5884
-18.6391
-35.3128
-103.099
-119.721
-53.5957
-39.5702
-0.986039
41.162
90.2732
131.413
116.401
47.7921
11.9836
16.5338
10.0078
-5.1839
18.9258
38.9465
44.8364
34.8126
-21.4327
-86.0133
-114.67
-92.9854
10.6126
83.826
193.542
131.312
33.2646
-18.3828
-41.6132
-32.8717
8.933
35.5752
-84.6724
-144.401
-106.749
-35.2005
32.6321
153.799
105.64
-32.755
-55.844
-59.9364
-80.9111
-117.699
-165.765
-86.2636
11.9932
30.1323
37.8305
65.7402
36.4503
3.45828
49.379
78.5642
55.059
3.31176
-4.35018
-49.8029
-30.5481
45.5936
34.5468
9.20326
5.31942
10.2747
12.6123
83.1708
72.4175
47.5748
34.8668
-19.1163
-22.0371
-17.6365
16.6905
75.8496
66.2331
16.4211
-39.3903
-139.607
-161.682
-38.5372
23.5982
-87.9564
-93.5389
9.31947
108.478
77.2806
107.525
99.1107
30.293
-47.8475
-125.367
-101.989
0.0849304
-15.1548
-20.9192
25.8514
-4.92663
-17.6119
15.3367
-47.5712
-77.6777
8.85885
32.1047
9.10675
-33.4251
-46.7355
-119.211
-97.2143
-5.34806
18.1813
69.9315
67.5259
24.0184
69.3528
83.2654
-9.19119
40.8742
98.3715
102.576
109.371
97.7353
96.4805
66.1357
-18.351
-62.6627
-75.5491
-56.538
-42.5522
-39.1742
-24.9759
-29.7253
-32.8169
-25.4936
-55.6665
-118.301
-76.8682
-45.6506
-25.221
42.514
120.043
115.817
41.7835
27.5665
12.953
-33.0347
-59.2889
-89.9155
-154.254
-99.3763
-16.6473
-40.2724
-51.0691
-4.66009
69.8344
153.883
249.291
244.667
61.508
-29.6429
-110.832
-188.469
-128.437
-76.6177
-48.3648
-21.58
6.9263
7.94106
76.3535
83.6149
51.5606
79.0381
85.8228
32.7744
-28.5281
-53.7541
-75.0228
-119.465
-81.6701
-49.5239
-26.7198
25.5159
103.772
178.966
133.325
57.147
28.5464
44.4722
33.8094
-2.52736
-8.16763
-12.7734
-37.7514
-68.917
-44.7513
-43.035
-99.4173
-92.2757
-20.573
-22.9011
-50.5117
-51.143
-28.3982
-50.7748
-34.3184
-17.0969
3.93993
31.2354
19.2853
39.1095
41.1425
33.465
37.6201
36.1375
7.94794
11.1123
4.74306
21.8381
66.4028
58.1888
43.44
37.1234
7.07716
-47.6029
-60.2223
-29.7239
31.0198
32.69
-9.4603
-24.2237
6.44422
76.7272
84.1672
23.1922
-55.3209
-83.9219
-85.0719
-78.6735
-33.5828
69.7658
63.5983
21.0809
-49.6892
-122.17
-49.0254
-25.927
-55.2667
-28.9614
69.8069
150.527
94.6276
103.952
103.774
9.80553
-60.9201
-77.8956
-58.3264
-53.6435
-71.0299
-94.0978
-72.1709
-30.8005
-5.66757
33.3551
16.1837
26.3377
43.3344
68.4476
87.0833
-17.1418
-64.1984
-107.998
-94.4703
-4.37284
61.8309
76.5803
95.6278
80.5421
40.6176
-11.1943
-7.99126
0.671109
5.04797
20.9145
23.632
4.94095
25.3019
14.5969
10.6052
-1.09501
-18.1023
-25.2851
-42.4995
-100.114
-136.928
-104.993
-35.6921
127.957
273.734
150.524
56.2798
30.7224
48.7689
56.4952
-30.3966
-99.7564
-139.455
-136.386
-126.101
-108.248
-39.9032
-0.650006
20.9091
39.0216
62.4121
57.1691
4.99789
-76.7732
-148.737
-102.218
-42.4188
-16.1722
-7.01172
3.58221
30.2188
41.4042
58.6637
50.9004
39.8382
54.0852
65.2409
69.9725
78.6285
74.068
60.395
62.1996
51.5628
0.946208
-52.0127
-16.3983
24.5051
15.3938
-35.6946
-55.8634
3.26189
40.2649
22.1754
-2.42009
-31.5799
-74.0839
-133.733
-146.96
-109.289
5.71488
89.0704
164.183
118.371
-40.3251
-86.7772
-45.1142
-28.6882
21.5331
90.8838
49.4767
-36.5735
-84.6318
-82.4745
-71.6319
-47.7032
20.6258
94.5296
116.983
100.376
92.2247
4.50161
-121.81
-119.652
-56.4656
-49.2091
-66.1318
-90.0899
-102.444
-101.961
-38.7964
65.1912
207.506
293.87
130.425
46.6333
44.4101
14.5688
-37.7156
-64.7138
-70.2835
-25.6375
-4.08033
2.3744
21.9796
10.5273
18.1581
19.0313
-5.27783
-1.59953
-10.6002
-17.6735
-48.238
-93.7871
-11.0344
8.36833
-15.6791
-0.875702
17.6742
10.4976
-3.62008
5.51574
6.67977
-5.73222
9.57359
11.291
45.3827
47.8899
32.0464
7.11643
-6.91166
-47.8995
-90.8449
-112.058
-13.6933
20.315
38.6092
44.2158
53.7569
35.5123
-6.08186
7.17413
25.8247
42.5493
64.6745
76.9333
8.44997
-53.3746
-62.5095
-69.8876
-72.7105
-56.2841
-17.8575
-21.7452
-64.7744
-62.0006
-49.5221
-67.5483
2.06973
101.313
105.617
55.5021
33.9852
4.0924
-22.1222
-39.9111
-43.22
8.64569
23.8103
-6.09257
-22.3279
-28.1339
-5.86613
121.982
279.262
190.89
27.742
-2.30187
-59.5712
-122.932
-105.564
-90.3268
-91.5128
-62.0432
-34.7303
-30.6532
11.0569
49.0481
45.9134
51.9829
50.3237
58.6924
30.2373
-39.2049
-131.277
-112.391
-28.8631
63.3281
120.709
110.321
30.0531
-28.3241
-11.1709
-22.3443
-26.273
-23.3551
-11.854
-22.248
-33.3569
-39.0866
-26.6777
-7.6364
-13.0318
-22.7731
3.80817
28.4382
32.0818
-11.3275
-92.9481
-92.7963
3.47459
37.8097
15.5365
-0.541904
22.1424
32.4459
1.9111
63.7452
151.719
195.634
204.939
87.5662
7.36125
-42.5891
-76.5664
-105.607
-106.082
-71.3632
-48.4646
-96.6377
-141.029
-96.5298
-4.62857
64.1607
-7.186
24.5967
27.4188
-52.202
-83.2227
-74.2178
-42.4355
17.7424
-1.55649
-8.63264
17.6837
76.0933
104.443
78.4942
9.38769
14.7099
75.7472
98.4569
143.187
174.014
188.76
48.8676
-41.4323
-45.7206
-93.6766
-128.086
-116.279
-93.331
-50.7881
-38.4265
-56.5285
-32.9982
-40.9632
-52.7598
-39.8101
-13.2963
-3.75059
-19.0619
-78.2619
-99.3231
-72.2613
-15.6817
52.4633
78.9504
69.9178
-0.0705159
-55.3902
-33.9199
7.651
40.5894
156.186
218.838
172.028
164.039
151.539
59.4556
35.2893
-71.7132
-126.491
-86.0263
-96.0966
-127.19
-131.896
-69.6083
-11.0233
-0.968563
-18.9481
19.1565
35.7312
32.5478
-32.824
-91.1204
-48.8466
-60.1528
-65.0078
30.8874
14.6939
44.9
36.1361
-66.707
-65.8323
-0.132386
48.4642
99.5335
126.327
166.144
166.686
84.1064
20.7439
-24.5603
-69.6837
-71.4837
-70.8516
-73.0985
-55.4076
-39.8655
20.8716
35.8292
-5.45461
8.1888
31.2914
39.3076
8.61005
-73.83
-114.79
-105.049
-64.5484
-21.0358
36.6919
41.2851
7.53497
25.5031
47.2582
23.3213
-6.80776
-25.9888
-21.7087
-2.65151
39.0008
60.1575
55.2658
32.0824
-22.4846
-95.1269
-83.8241
-57.4032
10.6189
74.3078
115.056
110.124
70.0967
2.07386
-47.7429
-52.6048
-47.2704
-50.6448
-16.7723
56.2009
93.7942
59.7477
17.1182
-37.759
-37.5582
-21.726
-24.1571
-51.5324
-79.5394
-76.9971
-43.0144
-93.4601
-51.5958
127.153
182.408
117.871
16.679
-7.22699
-17.3573
6.04535
0.376023
-77.4084
-85.8988
-46.218
-40.2309
24.107
49.6282
63.642
47.3793
42.5886
-22.3833
-48.0967
-53.8477
-121.391
-153.741
-106.171
-22.8342
64.788
153.509
135.103
62.7167
58.9176
32.0296
27.9368
41.4754
32.8658
11.3494
11.7969
4.60493
-29.397
-49.5801
-16.5394
-25.9905
-49.9205
-35.9066
4.38408
53.0324
40.8652
14.7096
21.5072
-50.8113
-74.5798
-14.9976
30.2927
31.9119
-0.840228
-24.2437
-35.7013
-43.1072
-42.0971
-31.0976
18.794
35.0067
36.5014
32.724
-1.51168
-19.5693
-22.2841
-51.1314
-86.1036
-11.1745
104.611
49.3546
10.6854
69.4981
77.9289
5.91338
-36.0467
-10.2265
0.35219
-6.47274
-13.8426
-18.5942
-42.4012
-45.2312
-34.3558
21.9791
29.7842
-56.6225
-94.491
-38.0347
16.8663
81.9268
57.6736
11.8309
-34.0821
-26.1898
-3.08179
16.5671
93.8124
127.077
78.1269
54.358
2.60337
56.0932
121.746
3.23542
-112.334
-49.048
-6.8141
-49.1627
-113.099
-129.453
-143.115
-152.119
-81.0363
27.4452
66.6038
33.1128
-7.54159
-26.4817
-8.1424
3.9306
26.7497
11.2065
-22.2375
23.8663
151.019
173.656
94.5582
59.687
61.6309
35.9391
29.7571
3.89612
-18.9628
-31.0727
-47.4354
-79.2457
-82.9073
-76.8041
-39.5292
11.5417
36.6306
102.072
57.1375
-6.77149
-85.0291
-106.889
-88.9862
-84.9888
-109.311
-21.8027
120.258
154.962
97.675
65.2281
88.3305
39.2327
-75.6632
-133.549
-152.046
-93.7457
59.3299
110.353
37.9507
27.2232
34.3444
5.26534
17.4978
-10.6434
-5.08868
-36.2082
-87.0499
-74.4515
-13.2327
14.6409
-19.8316
10.2674
48.8164
80.4326
98.2832
50.3562
-55.0908
-184.374
-158.216
-95.7293
-42.2246
14.7503
189.695
215.312
116.211
89.5773
19.8809
15.4344
16.9214
-25.3399
-20.5415
-3.45958
5.09993
12.1508
1.99179
-33.0281
-58.5965
-57.9528
-16.6861
8.2534
-17.7591
-56.3845
-126.649
-107.209
-27.5219
39.4115
121.14
63.8241
-35.5701
-12.7367
8.55683
14.3846
21.7007
35.9145
43.7351
2.3662
-7.97536
-30.4258
-30.7255
-6.22387
72.4467
38.7775
-38.5229
-10.7706
33.7923
-42.5259
-91.3433
-67.4144
-26.1707
-6.73356
31.3703
1.80155
-36.5904
-45.3726
-28.4853
65.1837
96.7377
63.853
68.8443
59.835
38.2986
6.97161
-33.094
-41.9625
-30.8426
-37.9101
-27.7804
28.4696
79.7917
30.0563
-45.7457
-40.7489
-15.4412
-5.04376
-29.6833
-55.4393
-29.2347
27.7333
63.8481
50.6508
-39.0121
-7.93371
69.7834
44.0949
17.6933
-19.9651
-47.9515
-20.0672
-42.3152
-49.6893
-20.9884
54.5751
80.215
50.7276
43.8669
13.6978
-54.7772
-125.289
-144.377
-85.1961
-18.4912
34.5844
117.496
239.417
85.4824
16.3591
-55.8354
-116.193
-105.231
-60.529
-23.4343
-19.6274
-11.0644
19.8766
39.1898
0.329807
-10.2657
16.7279
50.6351
49.086
1.61855
-50.5603
-124.967
-192.014
-82.5152
100.134
222.213
223.579
110.083
59.3784
4.95101
-51.9457
-51.9184
-41.4344
-27.6749
31.5981
36.2817
19.4291
2.08208
0.0405487
9.80355
-36.254
-93.5429
-52.0196
-34.3067
-106.76
-86.8772
-45.1767
17.8548
42.1053
58.3526
22.9789
-14.4342
-21.2619
-33.9608
-12.6603
23.617
46.2725
45.9077
43.8169
45.3001
57.6963
51.609
6.21292
21.4589
-1.66471
-69.3303
-71.276
-41.0336
-26.0306
-25.1478
7.32738
-4.06379
-20.179
7.50838
38.9398
78.7603
190.355
137.837
3.40762
-36.9119
-28.2645
-22.6421
-59.3932
-78.4705
-51.4401
-51.4257
-73.1341
-79.6213
-86.3232
-56.8847
-16.1025
22.57
110.375
97.2258
52.0533
-2.18842
-95.7181
-120.521
-108.335
-73.6895
-42.5891
15.8118
113.32
207.97
236.866
137.481
79.3878
99.8063
71.4164
-34.2256
-134.834
-166.929
-158.354
-69.0146
1.22591
-34.6566
-37.424
26.435
58.6112
63.1116
50.8179
-7.42375
-63.1774
-79.8025
-87.4357
-26.6363
11.7005
5.7266
-1.56728
5.52842
-10.0061
0.558348
18.1481
6.6286
-26.7371
2.06942
24.0408
21.233
52.6415
43.3036
56.9223
127.768
140.563
38.3916
-22.5175
-21.9001
-40.7482
-68.7446
-64.7293
-22.1031
7.71058
31.8494
20.9458
2.62547
-8.19099
-7.67445
-26.6361
-25.4388
-34.4577
-73.1704
-65.001
-77.8395
-100.721
-58.5565
-22.4632
35.4046
66.4555
47.1159
48.2512
125.484
116.943
93.3003
21.0959
-30.1845
-55.9964
-69.3884
-112.325
-118.256
-72.0358
18.9093
63.6624
100.532
82.5569
48.9615
19.7405
-35.917
-64.5801
-58.244
-52.9837
-47.4576
27.7346
62.8082
19.5622
-8.70592
25.5131
49.2261
71.4078
67.7212
59.4959
-17.0827
-119.574
-178.849
-158.41
-9.72172
209.423
271.454
121.535
51.8743
34.5363
-23.2847
-72.6306
-125.084
-93.8449
-64.5397
-85.2593
-85.8901
-12.004
65.327
23.6821
7.30456
48.7198
84.7687
42.4089
-37.6461
-149.718
-167.077
-83.7644
-43.1536
-23.2066
37.619
57.2575
48.7927
35.8205
58.8962
69.8912
59.4387
29.2425
2.31068
2.11966
7.50993
-6.61314
8.85821
38.9102
-5.9668
-17.8668
5.32321
19.3457
43.3368
97.3395
101.73
62.8566
0.19648
-55.7843
-95.3708
-63.0065
2.50495
-12.9663
-39.7755
-20.8172
8.701
42.3793
-33.9298
-85.4298
-58.5978
-72.2757
-68.2149
-24.2588
-12.5614
-49.8044
-75.9252
13.88
49.573
51.6497
38.3
16.1737
14.0855
12.4205
15.2379
44.5065
42.7435
18.5238
14.2482
26.7082
15.872
-15.6091
-38.2898
-25.5847
-14.3502
55.7467
76.9362
12.1992
9.30675
73.767
100.782
-4.22928
-14.3285
19.7708
-35.0654
-54.1126
-47.8265
-32.9625
-8.26586
12.411
-2.91462
-16.8232
-29.6707
-21.2469
-8.87902
-55.8452
-107.071
-96.5961
-70.9427
-45.8784
-14.0718
45.8289
53.5609
51.9428
117.379
207.757
125.356
-31.2109
-66.3157
-21.9693
-36.7844
-54.7123
-33.1759
12.7098
-2.46613
-42.616
-26.3037
10.4887
77.2928
80.0615
20.5721
-12.3543
-58.1107
-64.1987
-47.8798
-60.5147
-10.2941
37.9398
36.6708
12.0754
7.72785
22.8182
20.3537
11.1016
46.7846
45.2506
13.7259
-22.8827
-92.2454
-99.1317
-39.4924
-8.3219
26.5493
68.8774
57.4902
9.8076
-2.7827
9.62403
31.268
17.4277
8.40863
13.6632
6.70234
-17.8579
-20.6685
-0.549268
36.7694
17.5242
-6.55525
-24.1968
-34.6826
-2.80541
33.994
5.29312
-104.468
-117.613
6.3572
92.9575
31.7627
3.90793
40.7606
25.7736
-46.6969
-93.743
-67.893
-45.1492
-54.8386
-13.1314
46.5189
88.7849
68.8444
0.917608
-17.9021
-23.041
14.1366
29.7408
-33.0247
-52.2563
-52.1954
-46.0911
-1.55195
43.0799
89.642
105.364
106.92
71.9651
1.22926
-8.14454
12.478
-21.0585
-16.6395
13.6236
-33.2387
-35.265
28.7962
28.8402
-3.45906
-16.9651
-15.4372
-52.1095
-69.1024
-55.8889
-11.5335
62.2621
79.4664
8.2589
40.0607
39.2657
18.0141
-8.44723
-31.8757
-65.5424
-92.8489
-122.459
-74.8298
-76.8535
-80.8539
-54.0619
19.1277
120.277
132.482
136.803
127.205
13.2533
-83.9356
-55.4354
-49.0636
-66.3662
-88.7339
-42.0289
83.2806
186.329
126.221
44.3205
-3.25125
-7.05891
16.8387
65.5741
33.2404
-28.598
-51.4204
-67.771
-65.2915
-50.8054
-40.3093
-48.3336
-60.4309
-33.138
4.29759
15.1499
-7.92377
11.6804
34.7784
56.8923
21.8637
-5.06525
-9.3216
0.257591
11.1227
-9.72982
-23.3342
-4.90715
-31.5106
-34.6707
10.9838
58.4932
58.1224
85.8457
110.216
13.1603
-85.3331
-128.136
-19.9763
44.0808
34.3727
32.1806
56.0432
17.6936
-13.3601
-19.6208
4.9579
-1.40219
-26.405
-12.3306
-21.2576
-27.6916
-8.22699
-7.82591
-44.5955
-16.1279
-37.3012
-39.2675
-54.8869
-61.7603
-36.4616
4.19627
3.66985
-7.77688
74.8341
109.097
57.6256
10.695
12.9683
26.5607
44.1743
25.4441
-0.206546
61.6932
69.663
19.3324
16.3166
-14.8673
-44.9133
-35.3619
-22.7514
-41.478
-34.7622
-24.3896
-46.3753
-39.21
-42.9776
-62.3925
-39.0253
-44.5586
-48.0972
22.2623
104.682
48.8233
-37.0898
12.1612
104.189
91.5782
16.7117
37.9896
68.5123
39.7675
-14.0026
-85.9327
-115.016
-89.18
-61.9613
-43.1484
57.4349
126.526
59.1115
-29.2935
-30.3734
41.6643
51.3606
-19.0592
-96.6183
-120.191
-75.9252
-46.5153
33.6765
93.5013
43.9449
18.2919
32.1362
58.1307
59.9233
82.5217
-0.689786
-74.0542
-47.5358
-1.54933
-33.6508
-107.257
-39.7066
34.6988
42.6528
54.5434
75.2364
71.3001
20.4011
-30.208
-4.62062
25.1488
18.802
2.43348
-20.511
-56.9199
-48.1941
-30.8551
-7.85143
10.9744
23.2605
6.52665
-16.3176
-51.4723
-44.8596
24.5963
70.0866
14.5539
-42.022
-31.7353
-13.2413
6.3922
-3.87789
-17.8528
-13.655
21.2819
60.4427
41.5048
41.8446
49.7025
-22.465
-63.2627
-54.8431
-20.3126
-5.52995
-21.926
-41.5285
-15.1435
-20.8457
-39.9669
-51.7032
-44.1781
-6.65892
47.8542
88.7746
70.9421
34.2222
13.1503
-69.6606
-143.606
-88.9636
-22.2478
104.986
184.635
173.952
166.066
39.985
-20.9724
-29.7986
-11.4363
22.1617
42.2014
34.2666
-13.5046
-67.7484
-87.4327
-79.0606
-103.432
-77.9266
-2.27667
43.2166
23.7703
15.1483
-5.46183
-46.6048
-79.6715
-12.391
24.5418
-4.47249
-19.9743
-32.6167
-46.2856
-36.4368
-35.5999
-2.825
75.4402
92.8858
75.4382
136.496
147.714
101.71
16.2684
-74.0242
-116.532
-110.677
-118.695
-109.193
-72.1834
-17.697
-2.07202
3.18842
38.0737
147.419
132.642
75.9086
6.42845
-51.7412
-13.4697
-11.2849
-47.8981
-77.4517
-63.8766
-49.6134
-19.7925
-17.9405
-16.5838
80.1104
150.375
141.117
63.6503
69.9317
68.8402
-65.9385
-52.3367
79.8232
68.6979
-44.4299
-98.211
-99.5045
-92.05
-98.9957
-46.6008
-1.71583
-47.8735
-10.9307
40.7806
43.2711
-32.3564
-38.199
12.1274
-0.483476
-46.7702
-44.3366
-52.3841
-63.8604
-18.2343
44.118
129.827
130.923
79.5594
84.0539
21.9448
-65.2681
-28.5172
12.7584
-7.69849
-74.4154
-52.008
31.2323
49.1236
6.51531
32.3866
88.8874
124.707
63.4017
-34.0448
-26.0486
-13.6021
-49.6247
-54.1699
-46.9416
-1.85793
14.9032
7.45551
-30.4756
-46.1455
-93.0102
-144.678
-105.265
-4.28373
36.825
73.6859
139.186
158.966
22.5448
-34.0003
-63.7491
-103.468
-111.346
-21.4647
90.5452
127.939
92.7032
22.0088
11.1146
16.8956
29.9204
42.5076
-10.1179
-64.5196
-21.5973
-48.7261
-158.789
-200.725
-112.126
0.103649
87.7154
138.189
184.24
89.9839
-41.0192
-65.4574
-32.3732
24.1317
45.9551
29.8798
6.47266
-33.4613
-22.8583
-23.9826
-2.44886
10.8046
37.2095
8.37483
27.7414
36.0936
0.336425
-39.7284
-63.5207
-8.38272
49.3459
17.4041
-27.4985
-46.1582
-42.5305
-31.2753
19.7215
92.1786
106.661
48.0683
-43.6948
-80.4638
-81.7773
-51.4161
30.3568
64.2307
34.1642
-1.77885
-57.3227
-71.3476
-57.873
27.4299
57.054
10.5941
-19.1567
10.8036
15.7268
-5.40493
-21.2511
-11.9629
19.3214
10.1113
-24.6952
-24.3069
37.2763
88.9209
88.3421
97.9648
90.8323
22.3202
-102.661
-146.48
-115.267
-71.0873
-60.463
-42.0994
-12.7753
32.0013
32.6778
49.4895
54.442
59.772
72.7054
36.2278
-50.7523
-109.153
-54.1738
-2.60998
-21.7845
-52.3
25.5211
101.06
54.4813
54.8136
36.1301
39.915
36.8133
-32.2575
-63.1641
-45.8519
-6.99598
29.0771
101.528
113.533
-16.8903
-96.7913
-65.5345
-70.3556
-9.4411
22.0398
28.4357
-7.04302
-18.3779
-40.5701
-44.6265
-79.2438
-82.3711
8.21537
49.3909
18.8459
-15.1448
1.52535
-38.8141
-42.3125
36.529
59.7532
4.12501
5.68173
-6.9587
60.8461
171.758
37.7461
-75.7154
-22.4697
32.4562
65.1322
52.5868
9.39432
-25.5383
-22.473
2.49939
-13.5141
-90.0555
-106.711
-82.4017
-48.7846
-6.54326
-32.0662
-9.2987
37.0464
-15.7983
61.5187
113.304
88.4687
52.6675
24.4404
9.32262
-46.838
-49.7278
-5.99374
-15.5662
-19.1024
39.6878
86.1192
62.6831
46.6494
19.7231
2.4321
-20.6007
-39.4762
-75.4418
-88.1931
-44.883
-41.7539
-24.453
-38.5937
-47.9434
-13.8955
-26.3621
-34.4147
-8.42246
51.8431
77.7628
57.4173
46.3209
-15.3772
-29.1775
7.18835
6.89372
-31.6755
-78.2743
-75.9405
-20.0271
43.8512
124.276
102.816
89.9871
137.635
124.197
28.145
-13.6344
-60.8256
-97.7483
-94.6924
-86.6129
-69.3689
-28.6418
-23.6
-26.1087
1.02876
7.8589
7.24055
19.6324
-10.8179
-62.0155
-43.241
-9.64042
-53.7835
-67.1426
34.5875
123.964
143.088
186.563
95.0607
-66.6787
-62.1255
-78.1213
-45.8246
-3.48588
-9.35706
-3.63328
8.65577
-10.6255
-28.3973
1.08268
34.039
11.4586
-7.59119
21.8485
27.6483
-15.5508
-77.1016
-121.847
-69.0966
45.0652
84.0874
125.495
130.59
112.514
35.8676
-19.0725
-13.6849
-6.10197
-37.6699
-62.1698
-58.8495
-71.1398
-101.524
-120.01
-92.4834
-66.2185
-20.5457
6.13591
79.0168
147.37
131.4
18.4906
-93.1674
-130.827
-53.658
2.61799
21.1635
84.3989
203
132.272
1.71275
-21.77
32.4967
59.6288
20.6526
-30.816
-92.1405
-171.008
-186.656
-108.687
-28.6185
58.7948
219.497
231.049
113.743
41.8927
-85.4088
-123.517
-63.043
-23.5761
-28.1992
18.2804
1.81269
7.26609
-18.823
-11.9115
25.5729
43.2496
43.759
29.9182
-54.1402
-105.818
-145.71
-107.909
-39.3861
-2.42684
75.0122
61.4285
-78.3365
-125.151
-41.4152
15.9936
70.3361
91.9545
134.767
87.671
29.6112
4.48464
24.106
52.5245
139.235
222.131
139.38
2.4059
-64.4155
-55.6387
-51.6418
-49.3392
-23.7215
20.5964
6.36658
-85.4471
-119.027
-131.354
-154.749
-148.546
-104.644
-24.405
-16.903
-63.6657
-99.5675
-134.622
-176.802
16.7142
386.249
264.187
156.924
143.535
109.959
98.4187
142.166
121.485
-9.76513
-84.9456
-109.478
-77.7092
-49.2286
21.9733
149.351
171.552
-67.9033
-211.572
-189.542
-226.156
-332.775
-137.773
64.2301
10.6019
-129.599
-171.85
-83.1397
86.718
237.649
435.911
548.613
473.558
146.794
-128.591
-287.329
-305.862
-150.189
-56.3052
-22.2392
-17.8328
-117.42
-128.024
-176.351
-129.261
38.4002
164.662
171.811
100.397
14.7366
-133.796
-182.205
-86.6145
73.6021
96.5977
69.4628
78.014
71.7401
-52.1975
-97.5623
-71.3004
-72.5008
-61.6943
55.9391
235.405
363.749
229.909
46.319
-19.8308
-1.27876
-12.6714
-103.04
-139.313
-27.0193
17.149
-65.4877
-33.5385
-28.3873
50.0805
182.41
121.793
-23.1152
-88.6219
-168.521
-244.461
-364.918
-324.798
-61.5428
150.832
124.894
181.163
230.232
194.568
312.858
305.518
251.296
15.7462
-181.095
-227.848
-251.987
-164.055
-27.2751
30.5023
-77.7979
-225.693
-144.849
-11.1658
-122.364
-251.307
-247.742
-183.938
-45.2966
33.4001
-57.2043
-59.3311
-18.2523
126.689
246.519
315.468
314.003
122.472
31.3094
-35.3795
21.8151
145.673
140.223
70.0388
22.7102
72.5692
166.183
84.0351
-62.6431
-73.7684
-71.0636
18.5941
94.0172
112.567
121.867
52.8664
-41.0913
0.217903
11.7736
-5.98165
-39.3398
-49.3577
-70.2504
-29.2662
45.1482
23.6017
-0.817636
12.185
-32.1965
-65.7844
-166.789
-387.8
-475.98
-441.006
-312.645
28.5998
501.622
449.326
356.408
281.809
100.008
1.61381
-69.7242
-172.226
-254.454
-283.47
-277.039
-310.301
-326.648
-358.464
-323.005
-185.009
-45.941
49.2393
345.175
259.215
2.77444
105.616
277.401
356.501
512.096
608.888
378.284
234.212
91.1133
42.3225
22.7218
14.9558
54.8759
114.792
136.888
192.488
158.262
44.4444
-106.891
-223.341
-329.713
-323.032
-349.88
-290.701
-271.575
-337.958
-232.44
-151.022
-63.2524
-64.9351
-37.0232
36.4773
148.859
201.66
224.798
158.176
118.874
90.3141
-22.2784
8.1875
62.4347
-2.10916
-90.3335
-106.482
-105.432
-64.3741
6.20664
-15.6957
-128.522
-131.1
-103.662
-86.1594
-72.8008
58.7948
191.404
134.009
231.275
302.096
172.186
126.769
16.08
-163.186
-135.67
-94.4493
-113.711
-66.6095
9.24914
-20.4798
12.2273
45.2735
157.765
166.234
52.911
13.6497
35.6971
74.6334
-106.966
-108.233
94.5466
18.6802
-16.2955
62.1091
-88.3878
-258.004
-160.789
-41.7905
-85.9986
-54.9213
7.75368
53.3085
46.7555
24.4478
14.2001
-18.3808
-83.0714
9.59675
104.935
35.3534
-74.4873
-3.50618
37.4573
60.5644
109.098
174.715
51.8863
-66.7054
-43.9411
42.3809
88.3932
33.627
-53.3612
-49.1115
16.6733
17.7831
-31.0583
-36.5127
-28.8985
-74.9638
-94.5625
-152.487
-159.145
-45.7664
25.8511
83.8999
116.505
-46.9326
27.4204
265.853
211.917
119.981
25.3594
-49.1839
-42.6624
-56.7452
-61.384
-49.3478
23.0239
-11.3702
-161.229
-190.367
-130.03
73.669
196.98
54.1983
-31.9158
-11.7864
-42.9047
-98.4747
-20.7159
76.63
109.263
90.954
-84.9206
-178.432
-82.4021
-60.5339
-78.9781
-23.5
82.178
166.792
132.897
-74.1913
-163.23
-99.6334
62.5653
118.266
-8.11772
-124.216
-106.529
-85.4032
49.5193
158.582
195.209
178.294
138.528
99.6514
25.4303
5.51558
52.2112
3.43051
-68.484
-74.1412
-8.75901
131.516
116.466
99.7556
80.214
41.0117
33.6538
-0.96429
-145.884
-269.462
-221.475
-74.6402
-61.818
-34.1881
-15.3922
2.10366
-14.2705
-18.6272
-18.6684
-14.0698
-93.8656
-177.449
-142.424
-90.4625
-70.259
-34.7934
130.058
183.885
146.988
131.873
123.155
7.37531
-77.6595
-78.9871
-9.04706
88.6124
159.571
92.7687
44.6207
71.8985
53.9354
-50.7101
-114.764
-82.4426
35.4301
118.367
-41.2492
-59.864
12.0569
-7.38706
33.4876
-12.4872
-67.6731
-80.9607
-71.4272
-146.264
-172.505
-101.943
-20.0934
109.422
133.739
140.294
182.572
138.436
71.8617
-14.2736
-17.4067
6.35753
6.33947
-4.81785
-36.6695
-20.5605
-12.6857
-1.84873
-48.5918
-65.1385
-41.3197
17.9255
-1.93789
-76.4964
-54.8388
22.6065
35.8215
-11.9777
-76.0317
-186.963
-109.064
67.8425
136.718
144.683
65.6431
9.9181
27.0453
-4.09948
-34.3599
-38.1542
-20.4819
65.2369
82.5984
8.60789
11.3985
66.6095
25.2964
-34.7139
-37.9062
11.0125
-9.84507
-97.045
-112.788
-103.509
-33.178
36.1805
9.7478
-92.5914
9.18583
107.475
69.9972
50.9421
53.9882
-1.4699
34.9663
118.547
67.2541
-2.67844
24.5682
2.63864
-54.8961
-116.671
-136.506
-78.7451
-19.6441
-21.1029
19.0763
86.8044
52.876
49.3073
104.926
50.2567
-24.2837
-10.9556
-46.079
-122.366
-29.3268
120.965
93.9844
33.065
-55.9606
-85.1001
-82.5349
-65.7492
-38.4016
-34.7924
-11.79
55.4634
7.98415
-52.4854
-38.1149
-69.0737
-24.7296
102.375
127.299
19.6548
-87.9093
-89.8788
7.16703
142.009
175.697
70.7599
21.5414
17.9759
-12.3566
-17.8114
-25.9218
-21.3196
-33.7736
-102.294
-166.269
4.2528
129.96
-28.7637
-123.323
12.2412
92.472
46.8608
38.3424
9.06331
-34.6984
-70.3413
-61.7988
79.8147
66.2526
29.706
-26.5819
-83.2334
35.5326
152.3
77.1018
-72.8546
-133.607
-31.3219
113.697
117.894
43.3609
7.97751
-29.5007
-109.956
-67.8831
13.5901
0.0901115
-118.244
-97.1601
-13.1299
26.0677
69.5264
37.4963
-12.8212
-1.80101
56.7456
52.1961
-10.819
-76.8541
-79.6844
-15.0773
27.6943
22.8801
39.6166
3.27857
-12.2083
22.4026
53.7526
88.6758
29.9924
38.888
183.986
108.584
28.748
-8.72432
-106.448
-151.835
-126.677
-109.137
-104.322
-126.217
-104.66
-74.1382
-59.1773
-36.0186
6.40454
65.7477
-7.16639
-69.2817
-18.172
94.1613
180.95
234.228
137.671
63.9319
38.9059
82.6052
111.376
10.6178
-56.0305
-45.7206
6.36343
-24.1879
-106.98
-91.2779
-0.575338
-9.38971
77.6611
167.581
160.749
103.02
-188.488
-340.927
-197.595
-5.27336
58.1653
-45.3919
-97.3043
-64.1758
-35.4714
-4.57173
-26.1857
10.4044
138.19
138.078
31.389
6.36479
-58.1994
-98.7716
-116.63
-85.2954
42.9905
101.083
73.0572
21.6962
5.35834
84.4483
134.141
65.3992
-9.82774
-64.9652
-80.6828
-110.905
54.471
207.811
162.193
-47.0265
-31.7596
101.906
100.904
31.2909
-59.7061
-76.5383
-71.9311
-50.5262
-62.3145
-77.9553
-64.4482
-18.0671
13.8998
3.08072
14.9865
23.9558
-77.5544
-175.382
-139.038
-44.5984
-45.8322
-69.2489
4.25809
58.7622
102.704
184.399
199.863
195.624
117.333
-12.0886
-36.0405
-46.8957
-70.1546
3.04992
106.285
61.9899
-49.8627
-82.7157
-107.733
-146.413
-173.456
-162.643
8.78724
123.784
17.6419
-58.4268
34.6015
48.1336
9.2773
40.8878
10.3043
54.5229
89.888
44.6255
-33.8309
0.62106
26.4577
5.53957
0.468778
60.1039
63.8462
25.4679
-64.1116
-131.873
-64.7141
-33.0359
-75.6185
-108.727
-26.3053
155.116
185.814
91.5583
15.6315
-27.9451
-27.4623
66.1356
65.0287
43.5527
55.0696
64.3313
95.2162
72.9964
-52.6522
-137.927
-124.829
-86.2956
-75.201
-67.1077
-38.237
-106.459
-129.681
-64.87
-25.6998
30.1818
36.4419
-5.55189
5.61559
-54.4862
-151.038
-124.684
-71.4725
-23.9542
139.819
202.619
228.82
255.918
192.584
94.2999
-1.51763
-44.899
-16.1678
4.02423
17.0283
5.31455
-10.1284
-110.43
-191.584
-99.1534
16.4409
51.859
122.601
152.542
0.259537
-87.6023
-115.85
-161.353
-94.2275
36.2497
99.1857
29.9625
-11.3089
-14.9562
-47.8804
-70.8705
-105.551
-107.297
22.5651
162.448
179.809
82.9099
-2.17279
-0.573249
-45.0389
-77.8435
-96.0791
-33.2615
128.019
96.3809
-36.3363
-61.9795
-88.438
-81.9621
-8.30904
91.723
72.5999
71.9578
56.9995
40.3366
116.243
112.453
-26.8267
-124.212
-151.573
-83.7292
69.1368
134.487
-116.673
-230.395
58.4094
163.959
100.317
60.2105
62.1897
2.45416
-19.7067
-17.922
-29.7221
-84.8284
-183.465
-196.47
-136.099
-78.3893
115.922
237.156
127.267
23.7284
-7.18462
-0.794692
-72.7877
-57.959
-7.78075
-4.84363
-12.2011
-42.0649
-28.251
11.6849
17.5712
47.7441
192.256
241.428
76.7147
-83.6335
-120.233
-76.1794
-85.952
-97.6248
-27.4047
35.2206
13.5208
-12.3986
-1.78667
37.4399
37.4826
88.6714
63.8441
25.3115
-21.0066
-27.8747
-109.889
-137.94
-28.3981
76.3319
35.2046
2.97952
66.041
23.9926
9.0832
16.3481
-40.5873
-8.23902
69.2908
49.7838
21.9173
-9.20968
-28.3265
-28.3162
-14.6194
-48.9421
-20.5107
161.415
157.562
19.8289
-59.1585
-150.895
-186.307
-189.511
-113.192
-6.50407
12.6693
-29.1802
-61.221
-17.0464
90.9661
104.386
54.1563
56.6731
79.1248
67.9879
44.483
-34.2476
-13.0808
29.3056
34.7551
-11.1288
-45.7588
45.5392
46.4023
-34.6117
-17.046
-2.57984
-1.701
10.4709
-49.8626
-80.7885
-2.17614
0.0108727
-89.545
21.7326
127.376
25.7605
10.3086
127.37
111.163
64.1798
57.7444
46.1923
-39.6578
-111.524
-87.2449
-68.5156
-63.2265
-2.34834
29.5869
8.06925
-37.2236
-88.7229
-125.718
-197.797
-191.437
68.4462
220.015
85.915
13.5806
21.232
50.5618
58.6687
81.0699
67.6558
6.99361
-5.50987
-6.40554
-32.1773
-88.9876
-117.268
-55.2237
39.064
132.275
106.025
-3.86162
-108.601
-109.367
-48.0911
-14.1974
18.3154
47.8146
14.4031
-13.9087
-4.17798
24.6829
73.3119
89.046
39.5603
44.922
89.292
58.062
24.371
-5.12294
-124.749
-144.145
-18.6192
29.0551
-22.4671
-57.4585
-88.5564
-92.299
-24.5319
26.477
117.665
221.578
115.016
33.1671
-14.4143
-111.29
-133.7
-66.5732
-12.1288
40.3013
148.094
109.181
-69.192
-121.403
-103.372
-89.5103
-107.104
-103.568
-81.9131
31.2852
81.544
117.276
139.464
34.3269
-52.8282
0.406857
40.1543
148.079
108.094
-56.5115
-111.288
-52.7129
3.76553
21.7792
47.1317
50.8708
94.9928
102.742
19.4999
-92.4668
-160.391
-204.909
-130.626
-19.1729
20.4839
39.1847
12.3808
-79.688
-83.6925
44.6981
221.095
191.38
50.9306
-20.9442
-31.8768
12.5366
25.5448
-6.29407
-43.9459
-48.4973
8.80601
38.274
16.8022
-7.21288
8.58774
23.6457
38.6136
15.4396
-10.6805
-31.4244
-109.133
-51.7342
5.86123
-82.9149
-10.664
6.0312
-25.102
-33.6023
90.5377
187.512
61.2319
-105.046
-125.856
-56.4681
42.94
100.218
90.7222
-1.76257
30.1114
89.356
37.3417
-165.87
-169.203
-81.1778
-115.924
-76.56
-32.8148
-4.77439
22.7232
-60.3502
14.2042
167.076
173.557
89.048
34.342
82.6417
65.1812
-3.71703
-83.7789
-92.1417
-60.4966
24.0158
45.1574
74.6209
51.6217
1.19133
-31.7602
-44.2845
6.829
63.4763
39.6331
17.126
52.1307
76.0767
-42.703
-194.971
-203.394
-82.0943
47.5622
47.7289
-47.6456
-66.3147
-89.2305
-114.285
-65.4172
136.414
263.173
253.17
87.0249
-6.07537
-36.592
-118.019
-166.931
-171.805
-129.255
-20.7138
28.1546
-62.0754
16.1742
240.903
277
218.095
91.2714
45.4614
-6.16414
-105.133
-113.694
-84.4796
-79.5891
-79.2423
-74.0163
-93.8417
-121.745
-52.5998
87.9535
76.4382
47.965
75.7994
9.04763
-99.329
-137.893
-78.1281
44.9515
149.982
141.428
65.7098
75.232
100.264
33.5757
6.7571
19.3936
0.0428371
5.3162
-18.4706
-43.0031
-39.382
-48.1003
-39.7519
-102.773
-188.126
-41.4788
158.498
56.9112
-55.8405
-48.4549
-19.0701
-50.1314
-74.9013
-54.0038
-49.1114
-17.0366
54.3188
120.965
140.272
132.328
31.4498
-19.0859
-3.39747
-35.1896
-2.46645
52.364
-20.7363
-19.1887
6.7879
-4.10956
-93.5153
-14.9555
80.0055
171.038
140.417
38.4192
-34.1619
-58.0296
-71.3621
-85.4145
-6.3038
-37.5426
-35.6158
-29.481
-112.141
-93.5456
-44.6357
1.40095
-10.3366
53.8307
89.0495
27.8536
-0.803219
-118.528
-96.9
7.26081
35.833
4.80741
6.38051
45.988
48.6129
33.5299
36.8265
76.411
104.421
20.9124
-59.9326
-59.1579
1.27459
94.3092
177.852
35.2445
-198.705
-163.768
-19.2888
-36.902
-4.28646
5.94241
-3.43939
-3.14839
201.923
330.343
95.632
42.6286
9.62119
-58.2214
-108.955
-117.609
-126.408
-224.493
-248.394
-154.862
-8.07115
50.9059
73.6015
113.547
84.1491
75.143
2.21098
-31.9263
-161.778
-153.094
61.3119
106.664
29.3999
-34.0714
1.80349
52.7478
-1.54936
-28.4344
-46.3653
7.03805
186.286
257.856
160.548
125.305
58.9575
-31.9744
36.1842
80.4577
25.0279
-19.6169
-109.993
-235.169
-245.008
-158.467
-104.211
-62.5698
-56.6411
-11.4134
81.0398
94.9383
108.045
123.052
18.2373
-107.644
-73.0464
7.24603
-7.09216
-39.3291
-150.372
-196.907
31.9745
196.338
203.961
158.273
39.5833
-0.562464
22.2471
77.1098
123.794
58.0798
-80.609
-173.763
-147.822
-132.04
-75.5927
70.3152
97.1208
3.8502
-5.13609
0.195009
-27.6834
-34.8344
5.24662
4.8927
50.2883
75.5664
87.6852
31.5868
37.7449
6.21055
-79.5864
-177.544
-199.236
-17.746
20.142
-21.1942
46.8224
74.5858
153.281
269.48
157.845
-45.1696
14.0761
61.0011
15.1797
-41.7673
-99.2099
-126.691
-162.665
-115.952
-80.7238
-44.0971
-5.18388
26.373
64.7597
66.4285
25.8904
-47.7253
-142.36
-184.985
-146.16
-35.3371
20.7314
114.501
333.687
166.25
-17.4721
-84.3222
-70.8315
100.385
194.43
146.293
14.2295
-86.4469
-76.0582
-76.7511
-90.7524
-32.863
-7.21684
-16.8194
32.4872
104.577
42.7755
-39.3571
-146.669
-53.031
84.8602
166.901
133.341
-27.6571
-93.4744
-108.25
-83.2212
-30.9969
-34.7056
27.7164
73.7051
61.9944
38.1927
-62.6828
-27.6716
20.6991
-10.9834
-59.6098
-35.1663
-16.3619
58.0406
8.43375
-74.9311
22.6311
27.861
6.18676
42.2047
27.5137
1.79609
-52.5036
-109.707
-43.5018
97.8261
197.854
114.716
-2.88292
-136.874
-161.274
-107.419
-3.1387
104.539
126.886
67.948
33.9196
-25.7882
-44.0103
-62.5475
-69.8584
-120.064
-60.7784
2.96103
26.5628
72.4505
32.6798
27.1692
29.1563
67.6366
36.0431
-117.186
-126.892
-49.9205
69.799
85.9114
17.5603
17.202
55.5199
42.4811
96.9143
196.037
116.958
74.0226
-0.159313
-171.547
-230.014
-174.451
-18.2431
120.904
151.499
54.2976
-3.31143
-74.3372
-117.55
-121.552
-121.938
-100.125
-107.267
-79.9791
-77.1371
-44.9575
6.22392
54.87
196.545
172.777
22.8419
26.0372
68.8481
90.7589
29.7435
69.7267
108.503
18.9919
-16.7219
17.4386
-156.488
-118.93
34.2737
91.2166
21.7137
-23.3836
-76.2055
-80.4934
-135.61
-101.599
31.3183
19.9733
-49.1751
-58.0161
19.3901
81.6108
84.4031
58.3268
68.975
44.9523
26.77
-5.35845
-7.9813
116.95
214.204
173.959
60.975
-36.1932
-71.0722
-122.454
-204.549
-266.982
-218.884
-72.3164
73.2857
42.097
-7.90442
-6.67086
-48.7208
18.2839
118.566
68.1651
20.5594
29.1456
29.5298
50.3309
43.8324
-60.7607
-57.8843
-54.14
36.1123
106.988
88.6142
114.032
19.0762
-44.2115
-122.163
-128.143
-34.232
-39.4219
-11.9738
105.78
177.41
72.751
-23.3898
-174.607
-140.212
0.376635
-68.1317
-31.7802
126.271
204.19
107.067
-68.7563
-168.677
-165.526
-96.6522
-20.137
45.5016
59.535
38.7904
-15.411
-32.716
-32.9374
-27.0604
30.2228
70.6907
131.231
168.476
108.949
0.862897
-96.092
-57.222
-53.2133
-70.6335
-47.5947
16.841
101.379
156.381
133.836
33.7319
-34.6233
-76.6327
-66.1966
-68.4689
-41.1017
-6.12332
-82.572
-136.333
22.1013
74.1353
99.5737
62.4072
3.27947
14.7428
15.9214
-13.753
-112.692
-263.672
-213.951
-59.6126
41.8877
59.273
16.0808
149.201
160.116
-50.9026
-25.2994
62.6758
-3.94367
14.4671
22.188
32.8027
-15.9155
11.7518
68.0675
55.3049
-17.7743
-126.225
23.8791
125.077
69.5849
4.8939
16.3984
-81.4379
-100.828
51.5227
83.6897
53.4627
94.8621
90.6218
-2.62293
-100.462
-121.112
-146.175
-183.71
-102.437
132.019
285.278
41.1168
-41.3009
-40.7886
-45.2607
-41.8768
-70.7281
-54.1905
19.7069
28.2257
44.6836
-35.3468
-133.431
-129.262
-45.4895
58.7701
72.6615
74.0434
75.5088
-14.9746
-99.5173
-57.9413
-68.2271
-14.5194
77.0979
124.893
160.023
145.727
74.5733
-42.0176
-149.369
-114.463
-8.95915
119.018
270.001
200.014
53.227
-32.4924
-183.158
-174.531
-37.1623
-38.887
-78.2235
-93.8412
-78.0623
-6.63569
13.3641
57.3703
79.8601
77.7826
31.057
-11.7505
-50.0386
-75.2049
-162.885
-126.938
-15.5226
24.3118
-7.25521
-148.535
-163.086
39.8949
145.584
320.112
482.904
320.031
23.7219
-116.329
-168.184
-124.342
3.21584
-2.17333
-27.3828
-61.7245
-93.1191
-93.8307
-123.164
-89.5546
51.497
98.8929
50.7654
-30.5849
-38.9045
-77.7286
-163.091
-92.2375
-3.3595
-15.5722
-2.53482
10.457
43.9998
50.6531
28.2148
6.61021
-18.5974
-14.8314
112.795
204.722
230.407
217.443
145.006
30.4096
-68.0252
-136.18
-144.764
-102.4
-50.1665
-13.9729
-20.9298
-19.3673
-21.1254
37.9488
156.214
102.59
-60.6583
-229.936
-57.0288
85.8236
-21.5033
-125.279
-32.2782
-16.2963
-92.4346
-70.8517
10.1964
53.1005
64.3003
32.8442
-4.00082
28.9792
-85.5853
-92.0393
-38.2894
-7.77323
30.8884
47.1632
27.7126
-67.3759
-70.5871
64.252
101.802
138.461
134.465
48.745
17.2749
-3.19755
-50.9796
-36.8349
-9.83089
-6.1045
45.571
85.4988
101.241
54.8619
-23.2119
0.87287
-19.752
-15.0279
-18.2944
-47.1256
-103.998
-123.809
-84.9332
9.98128
21.8622
63.2091
73.6776
28.8056
-23.4571
19.8672
70.7591
-44.5262
-182.097
-132.596
-67.4924
-130.941
-49.5007
127.098
102.856
28.1804
11.8697
19.954
26.5622
46.3208
25.9386
-5.34843
-49.9785
-4.72341
55.9868
-24.9528
-83.8083
-76.1153
-45.8723
-5.24122
70.9779
116.697
192.239
105.061
4.77161
-17.2156
-41.9283
-58.4578
-63.1635
-25.744
85.6942
135.795
93.3617
-21.1282
-36.7923
7.10356
-13.5553
-8.22261
4.16663
-49.9227
-109.504
-103.726
-127.453
-134.802
-33.3046
17.1288
39.3656
96.736
101.373
5.39116
1.10296
7.5609
-49.438
23.473
15.7162
96.633
122.125
23.1813
-13.8965
48.854
21.7644
-135.546
-102.569
50.8557
19.6636
-15.1791
-2.04669
-14.1666
-29.2218
16.9187
-26.6124
-85.2826
-78.6261
-122.049
-128.843
-107.121
-13.6046
119.746
135.016
16.0026
-3.61921
82.7498
39.4987
12.9002
108.44
113.599
32.8893
8.38288
3.16192
27.3572
38.3056
-47.1431
-42.5265
41.6154
118.263
50.9601
-4.86126
-69.2319
-55.6763
-23.4486
5.34031
21.6678
-9.19712
-96.5167
-86.2823
-20.9186
-6.9242
-63.8862
-90.5048
-52.0155
-1.48721
132.292
222.217
107.299
-47.9248
-149.697
-168.306
-44.145
67.2187
-5.58735
-38.7909
36.8211
90.8862
-5.72226
-112.387
-93.9727
7.41044
50.7698
103.861
134.808
34.5437
-52.3601
-88.5472
-89.5714
-1.05734
62.383
47.5472
-36.7425
-32.6433
54.8408
16.4549
-26.6751
-27.5286
19.6818
70.4905
71.781
58.1951
-3.30417
-51.2172
-55.6715
5.41281
-23.5499
-76.9718
-61.0291
5.53669
90.9986
116.009
90.0736
35.9614
40.3722
18.524
-92.3513
-160.183
-113.853
-45.7568
-20.9215
38.2475
92.6126
67.806
53.3237
48.6008
30.6141
74.7473
60.3834
12.1958
-74.5334
-70.8581
-59.0528
-125.464
-147.388
-106.085
-25.9985
47.416
121.254
45.3584
-28.6152
-49.8198
-53.655
-53.2998
-43.8871
-30.1359
49.7253
63.8801
66.5079
88.6383
71.9477
16.887
31.8709
57.1876
24.4541
-23.0611
-25.0412
-40.4817
3.3089
153.044
157.655
-36.4497
-120.31
1.00726
16.046
-74.3581
-147.954
-210.248
-137.719
-79.9487
-24.1822
57.3658
62.5783
71.0509
63.6574
79.2851
140.551
158.681
97.4787
-20.071
-48.5026
42.3939
88.1481
-19.0844
-59.0189
-43.9818
-45.3359
-63.8161
-129.642
-127.14
-82.3253
-72.6147
87.6426
276.152
170.629
15.7525
-13.9162
-55.499
-132.253
-127.826
-45.7666
45.6253
106.074
67.7708
-15.677
-43.8552
-41.31
5.48725
56.6616
8.25943
-12.9151
-29.2634
-153.763
-251.312
-124.249
8.45555
35.5438
133.409
124.479
10.7583
-18.5386
-46.561
-50.1579
111.053
144.199
94.6596
95.3315
94.3423
56.3963
61.7779
72.9642
92.2034
83.5425
-52.6806
-129.641
-79.9267
-80.8424
-138.625
-208.39
-134.805
-68.8529
-0.878616
22.6743
42.0613
120.07
44.4151
-22.9514
-37.0299
-38.8414
83.9002
127.748
37.7536
-21.7193
-49.6051
36.2624
42.7635
24.1841
52.6529
77.4663
77.0946
33.0463
-18.1987
-82.496
-164.808
-208.616
-110.552
-99.553
-50.7909
94.864
112.399
-6.20261
-7.00597
-14.8388
-0.494373
-21.9279
-25.5036
-24.7424
-17.4823
82.9302
170.757
129.927
86.6093
113.805
34.2205
-66.1333
-82.9827
42.2314
114.871
36.6261
-88.6493
-92.3381
-138.286
-170.061
-130.244
-115.125
-128.523
60.7464
119.749
121.006
150.659
173.348
84.9197
-9.80219
-53.7629
-21.6327
21.6667
-33.4203
-46.6838
-6.46512
-9.89416
-20.9081
-6.76099
24.8941
41.4731
70.2246
49.9128
-70.8451
-16.1718
-30.1256
-70.7768
-56.7502
-48.3952
-19.4698
10.0717
-10.0435
-3.88534
-14.0061
-3.14812
-9.93447
-48.2812
-24.7519
57.5525
51.8125
-22.3036
-12.9433
122.562
188.044
23.2948
-115.636
-175.459
-205.933
-142.95
-42.3826
120.701
168.28
147.835
194.094
77.8896
-5.15724
14.149
31.5865
17.713
3.96769
16.2636
43.9677
-4.45354
-79.4571
-78.0201
-56.3365
-70.3743
-62.7665
-17.9393
22.8089
-52.9389
-44.3539
-18.9745
-51.5686
-10.8744
-24.9916
-36.0515
-17.8514
-35.7107
-70.2674
-77.057
-82.8016
-11.4198
132.509
271.575
188.492
132.693
201.108
152.693
10.1254
-83.6512
-97.0065
-109.311
-68.0579
5.78684
-68.3899
-75.2265
-104.819
-116.67
-31.7513
137.807
233.523
138.204
-47.7142
-187.292
-169.088
-155.819
-146.977
-85.6113
-20.798
36.1203
53.9767
62.4859
34.6051
19.3113
104.815
87.3105
74.3839
118.651
108.287
27.8252
-40.6555
-51.6979
-78.1238
-98.6385
-40.4771
70.8199
70.3515
31.6584
-31.1196
-58.3876
-58.1763
-17.9655
73.4382
202.325
216.519
106.626
-36.8046
-166.539
-172.566
-70.1611
30.643
14.2782
-13.1895
-30.8124
10.7804
48.1492
65.1145
59.3693
28.3781
0.0200708
-67.4741
-87.8884
-148.583
-227.064
-197.133
-119.678
-47.7503
21.5107
60.2646
5.90407
-44.7044
13.098
-0.693263
-11.9319
86.6125
158.617
112.737
10.2004
-89.9537
-22.0801
112.16
127.971
109.573
50.0136
28.4926
37.528
68.4618
84.4716
80.5754
59.5903
19.7011
-30.6481
9.05942
26.6998
-5.43587
-86.8753
-105.783
-15.9662
50.6737
17.8558
-13.3965
-71.9636
-95.6907
-88.4227
-64.4884
-41.1629
-25.9847
-25.1864
-16.6969
-36.137
-101.996
-133.289
-91.0254
-9.68181
69.1795
61.9171
108.468
95.787
58.5077
53.3284
13.9693
-40.0192
-11.0206
43.7665
42.557
29.1017
139.454
199.96
-27.2373
-152.471
-89.85
-15.7097
-54.4508
-39.8526
-67.0957
-141.134
-144.939
-25.3518
49.2417
20.4107
10.272
81.0537
75.0577
2.35003
-15.4014
-30.2804
-73.7355
-102.479
-47.5416
55.3873
137.863
171.215
201.942
133.515
52.8531
18.3716
0.176705
-43.7473
-9.64033
21.9138
11.0357
-15.4633
-62.1918
-77.4974
-50.0486
17.4421
-33.3131
-42.7283
56.1759
28.5793
-54.918
-70.4582
-88.2487
-96.7568
-65.1059
22.0474
68.7006
57.9954
55.0263
1.45122
-24.5139
-0.898787
8.51687
-19.1314
-29.57
-17.0374
-15.9623
-75.4524
-67.986
-56.548
-78.4695
-75.4722
-16.0267
143.736
237.636
146.127
42.756
51.928
90.8952
-6.2032
-42.548
1.61573
5.04632
21.7703
10.0603
-58.4164
-108.585
-83.0206
-56.1653
-10.1125
83.4294
206.028
171.944
-60.5283
-214.201
-233.888
-171.042
-134.9
-118.34
-19.9605
64.3141
97.7624
140.453
86.9533
80.8162
88.1189
68.9951
59.072
84.7805
35.5391
14.207
-33.1224
-136.209
-105.631
-5.92897
120.461
125.033
11.2163
-14.471
30.7266
11.3151
-40.3402
-56.9736
-53.8051
-71.5936
-35.5984
12.1294
10.6481
15.5409
51.1136
-0.0795591
-114.015
-74.7398
-40.6105
-79.418
-64.8419
-36.1983
31.4669
38.3269
35.1406
67.7669
44.2212
3.28631
23.6087
35.1626
-13.9295
-17.6881
47.5292
50.5609
-1.43313
-36.9491
69.1868
164.395
77.5987
23.7034
51.8721
34.3224
-36.7407
-34.4317
25.5742
-72.852
-120.003
-116.18
-86.8154
-77.5688
-83.3054
-18.7792
2.16435
-10.4215
7.06628
-35.6273
-88.318
-84.6661
-23.2286
27.5455
58.2647
141.194
158.833
30.3627
-2.15683
88.4563
66.1025
-15.8971
-4.18982
17.7495
34.3106
-7.95217
-45.076
-33.6776
-22.2852
31.7822
46.8895
73.0109
117.978
11.5858
-94.4449
-175.764
-158.246
-49.4666
-8.77735
0.474148
45.4135
94.6413
103.693
40.4958
-40.2452
-48.9395
-34.8749
-12.8176
-16.1161
-17.9959
22.9626
1.54118
-19.2486
69.5757
48.9067
-30.7156
-103.509
-105.084
-82.7023
-67.0199
18.1829
137.767
178.644
166.392
83.8779
32.4599
0.494824
-11.7888
50.8993
40.56
-64.8269
-126.145
-103.625
-98.6328
-92.6534
-73.4109
-23.0742
14.0206
7.2767
-6.16328
-48.355
-119.542
-130.911
-29.4205
129.062
169.409
151.858
112.081
20.8169
-24.8365
5.40246
17.286
20.9379
30.1046
0.458789
-61.3523
-54.5059
-28.058
-10.3907
68.9613
88.3139
73.8956
38.0365
-0.462807
-28.6221
-30.0668
-57.5799
-70.958
-40.1119
-29.6361
-27.4461
-44.5497
-61.5883
-60.6081
-12.0055
69.5188
120.816
130.67
89.1992
-9.08755
-67.9921
-74.4381
-58.8655
-69.9487
-107.253
-115.421
-31.5757
34.4176
84.2761
145.839
161.259
117.588
8.60846
187.646
183.04
26.1289
-108.541
-219.308
-181.573
-71.348
25.9552
104.106
46.0869
-52.9068
-64.0817
-63.8232
-104.484
-80.8518
-36.4457
-10.0383
-46.0691
-47.4412
3.4457
-95.9129
-75.8224
16.8771
90.1725
115.247
71.6473
39.3694
15.6943
-30.1112
-22.0698
30.6223
93.2769
104.905
68.7942
54.8686
32.4539
37.3031
32.668
16.7288
20.9214
-42.0452
-45.1743
19.692
34.005
23.9165
-4.60792
-27.4379
-52.3442
-79.2484
-79.158
-38.5257
-31.1689
-49.4789
-30.2837
-36.8525
-64.7077
-45.6099
-16.3823
-1.57918
23.2428
14.7691
85.8665
106.096
63.4445
44.7778
92.6381
50.3581
2.44586
-13.6975
-22.3904
-45.1129
-63.2468
-60.4319
-72.7865
-72.6581
-74.2069
-67.9228
-38.1844
-25.2424
17.7154
104.095
59.0041
44.7798
22.3756
36.6514
11.381
25.8133
48.454
24.1554
22.9897
14.2428
-18.7261
29.0409
23.6107
-19.5872
-40.2059
-59.7032
-5.76067
226.667
185.048
-23.3798
-75.0958
-80.844
-35.5931
-29.3289
-63.2071
-116.371
-176.482
-156.787
-58.5189
53.8399
75.1855
43.9455
78.2041
95.4286
58.7056
16.5023
-12.1185
-86.8975
-66.9705
-69.5011
-31.4653
42.9894
73.1134
45.2305
-15.6868
-7.19978
82.1829
113.056
41.7238
-21.6838
31.2288
76.2979
29.3332
14.2832
17.0825
-2.18025
-40.781
-112.485
-102.964
-24.5217
44.3888
5.07643
-68.7816
-73.9158
-51.1218
-51.5072
-14.5651
67.1392
172.177
101.106
-14.199
-61.8255
-20.9474
-23.1641
-48.8661
-40.0288
-10.8553
-23.7162
48.2908
78.0359
32.2565
-4.86947
-14.2801
-23.3162
2.10049
52.8863
0.19451
-67.4819
-102.762
-79.9034
7.8711
59.0785
7.24314
-76.4022
-93.5665
8.16858
97.0421
160.471
138.886
135.198
60.0588
-31.5793
-18.1335
10.5414
-4.94454
-26.9483
-44.4992
-54.4969
-83.8052
-27.2291
34.1282
-30.4068
-52.0608
-3.42098
30.1805
-2.48831
-44.5667
-103.751
-128.875
-120.401
-117.473
-27.4285
106.465
147.885
132.321
110.728
102.012
64.0897
-13.4312
-56.0071
-62.38
-80.4347
-15.4622
57.62
74.7619
87.2722
123.732
111.525
45.4092
34.3225
7.81482
-65.9647
-35.7072
-39.2552
-50.3111
-97.2844
-91.9393
-57.1847
-25.0678
-47.9924
-50.2433
-11.2407
-17.2999
-18.5118
36.8275
33.0349
-25.6073
-43.3428
-14.3461
-46.4426
-29.3662
13.214
-18.0069
-33.2292
0.343396
52.2237
92.3579
75.011
43.6585
29.9842
2.64142
44.6486
60.4475
61.3634
58.2807
15.4401
-42.4182
-72.9161
-131.708
-134.377
-40.4325
12.7461
21.5549
51.6121
53.5988
84.5402
34.2115
46.9196
121.564
140.206
56.2188
4.8133
-18.7018
-62.2817
-144.775
-189.032
-179.937
-105.884
8.46114
139.95
189.375
97.8629
-13.2029
-43.7669
-32.4431
-81.9196
-82.4559
-107.657
-142.672
-148.875
-59.8119
-32.1462
-10.6002
203.406
349.429
260.331
107.158
-26.9178
-71.9982
-97.7918
-153.3
-77.801
-36.7267
-33.8703
-7.31307
43.2891
69.7059
47.6501
11.5076
-4.8675
-5.36003
41.522
55.422
-58.4366
-142.759
-97.2317
19.6844
121.172
49.1995
-12.4448
3.75162
42.9982
34.3835
-13.985
10.6425
60.1638
60.5651
62.7521
64.5351
26.0743
-51.0161
-54.8731
-13.547
-81.0821
-113.453
-60.7604
3.24637
-30.4921
25.6789
40.8293
-29.7482
-62.9191
-21.2243
36.0495
32.8913
-11.3543
-14.7501
-12.6176
-32.0911
-9.72407
12.2971
-26.0844
4.94756
106.367
93.9831
6.67434
-41.0042
-3.47913
-38.0767
-65.1377
12.1961
67.5608
77.3226
112.563
77.4743
-42.9579
-69.5664
1.0406
-15.9419
-33.8406
-17.5884
-34.2522
-55.246
-70.0405
-49.0155
-64.6143
-44.2561
-47.293
-45.596
-50.0907
-74.1063
-38.5423
7.31054
36.9755
68.697
122.364
140.791
102.615
81.4904
84.6815
109.68
115.626
1.34374
-102.682
-89.7915
4.79511
8.8966
40.435
58.3914
56.5378
53.9893
-7.4917
-68.6126
-122.864
-141.376
-101.265
-58.1872
-70.0778
-11.9462
27.2463
0.588831
0.381149
69.2491
79.6455
26.1375
6.67325
-2.86744
-12.5697
-26.6055
-41.6377
-65.0267
-69.0932
-50.4337
-0.997626
21.8556
26.3226
-3.04476
-25.9999
-31.4606
13.8282
58.2447
82.602
101.273
73.3921
63.0089
29.2783
-11.6489
-44.1588
-27.1109
-38.3818
-82.2059
-64.2899
-44.2012
-31.6698
61.8759
161.367
153.563
64.522
12.06
-21.1565
-53.335
-86.5902
-110.527
-108.771
-73.6367
-17.8622
-6.32882
-6.87604
8.39811
40.6203
73.6836
75.2954
63.4342
21.606
-38.5487
-76.6147
-78.1707
-26.9052
13.3098
28.8951
30.1915
12.7267
14.0117
34.9585
12.7281
-3.47675
1.70805
-2.87344
2.67725
15.4125
49.9352
50.6342
29.9268
27.77
-7.1184
-62.4574
-73.6343
-46.825
-6.69221
-2.6321
-9.77812
-2.64234
7.03764
36.4983
60.6151
13.8215
-23.5341
-68.4274
-113.333
-106.309
-81.3418
-33.7807
35.2381
89.5823
135.028
87.4329
43.891
36.4546
5.86806
-29.3074
-47.9723
-10.8493
-34.3324
-69.4504
9.65153
87.9306
70.2398
56.0998
82.2318
42.9745
-11.7102
0.169933
8.10293
-20.8006
-87.9032
-107.88
-79.744
-64.8187
-28.0958
2.30244
-5.23238
-49.6768
-19.1011
3.42916
-19.0914
-91.9131
-93.1224
13.9707
95.9261
103.169
146.042
115.804
45.2468
10.691
-26.3906
-16.1165
-6.69693
-2.50109
-33.8778
-5.90477
38.6202
27.3521
-32.0265
-65.5808
-101.313
-41.5215
72.7633
74.3799
-29.8658
-86.7131
-60.2969
9.04274
179.286
307.364
177.139
26.7941
-16.9571
-33.6793
-41.2025
-95.965
-129.243
-122.431
-108.918
-68.9693
-46.8827
45.5227
56.1101
-87.6356
-106.403
-11.2923
57.4867
43.607
-77.7316
-125.083
-53.7184
9.56539
20.3637
43.7517
39.6383
27.1607
71.8941
68.226
74.5723
91.5543
93.4232
62.2936
13.0395
-16.8018
7.36638
38.0302
-0.364875
-52.2479
-100.545
-143.471
-116.111
-68.8023
0.0673293
34.9977
65.3692
76.4861
34.3665
-6.47842
2.71972
54.4477
52.4382
-6.87392
-36.0749
46.6476
59.4938
53.8281
39.7342
28.6208
-9.57548
-82.2347
-60.9151
-15.5443
-36.162
-60.8304
-57.6208
14.9848
60.5039
63.362
25.6363
-12.5286
-16.7337
-38.0005
-80.4588
-92.0907
-93.1135
-67.402
31.4517
11.865
0.40358
72.7359
146.005
98.2456
12.1245
-9.34394
-10.0459
-38.4565
-48.9547
0.853951
10.9419
-78.7506
-106.094
-108.814
-49.0405
43.4378
179.412
269.922
79.9005
-41.5499
-80.0147
-122.213
-111.817
-3.26856
60.2178
81.103
34.1529
-28.3067
-56.8935
-45.9246
43.3379
129.795
101.766
62.0598
93.1757
41.2378
-48.5548
-130.737
-116.879
-62.7842
-11.8149
20.8411
-9.11331
-41.2679
-33.359
-39.802
40.4249
87.2657
59.2221
33.9754
-38.7537
-57.4584
-36.1537
-25.209
-85.3021
-71.4601
-44.5197
-50.8853
-39.2793
-3.69613
47.4585
111.251
95.4273
-5.70068
37.132
98.5821
76.3483
60.3573
26.1196
-34.7291
-66.8224
-74.0079
-42.3829
-2.91861
49.0687
41.2131
-5.5398
0.660575
61.2345
0.178697
-35.2532
-9.56637
-36.2141
-1.94828
20.0542
-21.5872
-37.562
-96.3676
-76.355
14.2891
7.43242
-32.0608
-9.64677
31.5134
73.393
92.1504
36.4683
-11.6975
-52.5502
-21.8822
29.3322
23.8214
18.2229
7.84911
-28.8058
-36.3595
-98.8362
-86.987
-50.0863
-52.1547
15.2211
66.6806
103.904
75.5279
39.8352
32.2637
66.491
74.4007
30.9791
21.8843
-4.87979
-59.7464
-53.5795
-40.2791
-51.3646
-109.408
-67.6363
26.3108
81.1647
129.56
188.271
99.1513
-29.8698
-54.0311
-73.5347
-76.0431
-99.2364
-137.263
-82.0961
-14.9993
29.0563
8.31837
-15.0487
7.22739
4.65903
29.8353
55.4064
59.6444
24.4798
15.7168
-51.7418
-71.1418
-31.3953
30.8423
57.4126
34.4753
-19.393
-39.6506
-62.7987
-39.2967
31.3328
130.331
186.248
126.783
81.243
-40.3017
-131.985
-125.257
-15.8161
87.3713
9.31427
-39.3912
-34.2492
-61.1268
-95.753
-98.2998
-22.1851
30.7299
45.903
30.599
-44.1998
-87.3354
-63.4065
-6.29432
9.12677
74.2511
110.759
91.6477
23.7896
-79.7198
-27.534
62.4344
37.5613
4.44549
-13.3097
8.15115
-28.9247
-50.9479
22.1333
56.6497
81.6276
116.746
47.6414
1.14643
-25.8782
-14.511
38.7838
76.1267
18.862
-57.3451
-88.871
-90.5766
-81.5302
-81.6581
-65.2412
-15.4834
33.8667
37.1182
-24.2793
-47.096
-84.7961
-130.055
-87.325
-18.8128
42.5197
92.6387
89.1511
35.786
28.352
23.3107
24.1918
4.39244
-5.81756
-8.02605
-36.4095
-57.9523
15.9996
94.1936
41.5163
107.186
335.565
269.774
148.559
34.8588
-149.807
-182.389
-75.4978
-49.5578
-64.3797
-83.1236
-119.985
-111.918
-89.9741
-79.0875
-44.5983
-1.07575
0.891919
-21.5961
4.1556
-35.0156
-171.618
-159.624
-77.2386
-12.5876
88.0877
140.774
65.1916
27.9478
29.278
51.3589
106.098
146.633
149.605
149.879
130.752
88.9265
24.7326
-2.59784
7.50387
-9.07263
-85.0212
-143.041
-141.253
-92.2377
-43.6036
-20.0316
22.2166
55.239
30.5672
42.9831
33.1544
-19.8112
-14.0559
-23.4422
-35.7117
-45.6674
-26.2313
-34.8167
-44.9435
-56.7266
-53.688
-20.8937
1.32468
14.3633
36.7629
27.0414
-30.5139
-53.9083
0.510338
-1.04544
6.88958
26.4325
26.268
30.8527
28.3714
-4.08804
-10.2572
18.778
16.305
22.3382
18.8539
50.7728
71.2126
78.0454
74.6939
70.5858
46.7331
22.0908
-15.7951
-86.3105
-98.5103
-83.534
-93.2807
-80.632
-39.3578
-3.33096
22.9059
13.8897
12.0922
8.61897
-8.84735
-18.914
-14.2462
-18.6649
-9.86846
-13.0751
-16.5302
3.14994
15.0306
34.8162
39.6469
24.1722
17.2354
13.8761
17.9255
60.7902
83.8335
22.941
-40.4553
-90.6315
-75.0873
4.2277
89.9262
73.3196
37.9635
1.75938
-31.2016
-20.5976
1.26744
-2.68944
-74.2429
-156.33
-131.224
-45.8015
58.5436
143.225
330.73
264.386
33.322
-133.389
-217.337
-190.348
-201.561
-129.756
51.8545
137.259
73.0254
-30.1686
-70.8572
-56.9101
7.78037
82.6149
83.8053
42.6124
-15.5251
-99.8661
-223.966
-151.688
3.35988
119.096
177.791
122.571
82.2921
61.2701
-26.0227
-61.8913
-6.84488
2.53506
-48.4041
-59.892
2.72984
191.586
253.509
175.085
43.3023
-83.6161
-137.629
-50.6628
93.8375
159.579
117.335
-0.351788
-121.23
-186.197
-174.356
-130.526
-100.712
-15.2802
83.0684
76.1455
20.8991
-98.376
-141.828
-123.562
-115.699
-76.6355
-72.2902
-57.0072
-10.1364
80.5245
128.995
106.387
94.3918
38.2392
-38.9963
-84.8921
-74.2868
28.7857
126.516
163.899
149.382
90.2783
76.2895
49.2682
36.7824
33.4785
-21.0927
-41.0885
-48.0883
-95.5526
-120.604
-84.9923
-16.3012
75.0776
67.4232
42.6843
105.615
45.6591
-55.3183
-73.3001
-74.4329
-78.476
-86.0786
-47.5623
-8.12818
12.381
7.50722
-12.341
-43.1938
-73.2748
-74.1091
-22.018
21.5718
42.0719
115.097
127.079
113.832
38.0127
-37.462
34.3142
42.5486
27.9237
17.4369
17.4396
-11.7673
-48.8281
-62.3916
-48.4447
-56.7342
-49.5078
-10.8077
3.23243
13.818
68.6446
87.6552
40.8472
-83.1397
-141.514
-118.734
-150.055
-104.692
-39.4522
-22.4491
-14.4687
134.323
221.365
103.512
50.2247
180.035
168.235
46.7339
-1.93561
-23.7116
-26.2329
-65.5519
-69.4127
-62.0738
-62.051
-50.9793
-24.7373
-50.2726
-44.604
-1.00223
30.0392
13.8158
-18.2419
-17.0139
-21.2702
-93.1338
-105.846
-52.8684
31.3241
68.0889
95.8878
69.6385
59.2139
62.0266
99.1095
146.84
110.833
31.7054
-94.4343
-151.098
-129.907
-132.313
-77.3854
96.9546
222.285
157.484
54.4729
2.0768
-57.6218
-86.3365
-137.79
-133.213
-107.732
-64.1588
-48.2425
-5.54256
56.5377
52.9929
52.9843
37.0241
26.7115
-12.8223
-52.8371
-26.4994
-46.3046
-59.9931
-4.46101
70.1606
108.262
83.762
48.6981
19.0455
17.551
20.0303
23.1508
-9.65608
-25.9378
-4.74426
14.7316
-2.62958
-32.8499
-37.68
-19.3241
-59.9997
-121.385
-86.3431
52.2867
106.348
95.8215
78.9404
3.57514
-15.4338
-15.2185
14.1837
80.5663
31.1681
-40.305
-43.3787
-13.5155
-7.65195
-11.6182
-32.4525
-52.3694
-55.319
-26.744
49.8063
2.10051
-33.901
-51.3543
-88.3221
-86.1425
-84.0933
4.3256
93.4347
98.4808
122.507
154.309
177.423
109.349
8.31687
-44.8694
-16.1663
-23.7889
-57.5632
-106.307
-165.257
-83.1658
51.5756
89.2003
106.368
57.3022
18.0795
-40.9489
-80.66
-110.964
-115.903
-121.44
-99.8189
-25.4183
58.599
99.3547
139.09
68.5232
-4.5825
6.11631
79.2391
31.1437
-2.67461
-22.413
-46.0652
-63.1165
-46.4164
-46.2286
-38.6328
-18.0001
17.6236
6.29088
-9.38117
22.2307
-17.0868
-0.473489
63.8955
210.234
289.185
168.096
-0.940786
-92.7335
-165.982
-163.995
-105.963
26.4614
82.2269
43.4998
-37.3707
-49.5839
-46.0156
11.3761
55.9097
68.1056
18.9651
-24.1342
-108.571
-191.537
-206.325
-120.779
-5.32538
96.8855
82.0568
50.9843
36.1181
20.5954
21.9027
82.4069
101.999
26.2195
-42.3563
-56.5546
-47.0334
-56.9675
6.19404
82.2335
101.042
88.7341
43.5014
36.727
7.43823
-43.319
-76.3443
-52.4987
-9.88361
18.9014
7.08617
-15.6023
-8.91552
34.8851
58.6586
44.1829
6.32295
-36.7201
-44.4027
-53.0949
-85.2103
-94.3107
-77.7406
-41.156
-19.2243
-19.5567
-31.9093
-27.3594
-11.4017
22.0766
117.369
176.006
181.527
134.357
43.3129
-8.01692
-95.0277
-123.748
-54.6199
-4.30697
45.7947
128.87
126.285
19.94
-52.0079
-79.9665
-27.4539
-26.6506
-56.995
-39.7217
-66.6938
-132.349
-115.695
-63.056
1.86451
1.62532
55.2761
130.483
93.5369
-11.5445
-93.1723
-96.0655
-54.4399
-0.720852
25.1881
51.3154
70.78
75.1521
58.8866
19.6983
-2.20015
11.6881
-8.67786
-25.9858
-30.9428
-43.3827
-48.9804
-1.84415
79.9748
91.8115
20.5187
-11.9836
51.2232
133.702
83.8845
52.7696
11.7889
-11.4514
-29.7122
-60.6263
-68.3461
-57.3132
-52.1311
-17.4152
31.5275
65.244
30.5213
-39.8149
-81.909
-84.8619
-47.0999
-60.1826
-91.9282
-104.728
-32.9719
8.5228
14.2806
28.5762
50.0265
44.4256
8.69818
-36.6065
-67.84
-48.649
27.1547
41.9911
11.903
0.435177
77.3523
97.6093
104.299
212.518
139.78
16.005
-30.5906
-53.0025
-73.9773
-75.0918
-41.2174
40.1381
25.1061
-18.3779
-7.03199
-18.7258
-61.3002
-69.9187
-23.0556
27.7217
-38.2465
-86.0644
-76.43
-115.774
-47.0667
26.9429
91.5941
66.1822
39.138
19.8525
13.4089
-28.9832
-40.0669
9.17905
32.6709
36.5516
73.4287
169.355
154.291
49.4083
14.0084
34.9249
16.3895
-123.105
-172.758
-63.5608
-46.8949
-89.3054
-51.778
-8.67347
4.50885
-9.58233
-13.0595
-40.0831
-21.0873
10.4788
-23.3648
-44.4276
36.2545
105.959
95.4518
72.2902
57.911
39.174
17.52
-62.8625
-100.91
-37.3952
-9.54161
-5.46458
-18.2133
-48.5028
-31.7814
119.953
180.46
64.7334
-20.4265
8.33497
-0.880814
-70.0061
-112.966
-106.357
-85.8816
2.03467
74.6601
13.6441
25.7758
58.731
66.2664
52.5679
30.821
38.2033
54.2779
-11.972
-92.9829
-59.745
-52.5423
-114.169
-105.809
-58.6291
-51.6584
-60.7108
-4.09373
33.3348
9.0581
43.3097
72.5903
84.0491
48.0992
40.515
58.5641
54.558
36.4993
-3.95898
-38.8089
-24.9913
17.2725
3.01481
9.92636
1.0121
39.2047
48.0275
23.2144
14.0125
31.8706
-0.700545
-79.602
-98.9503
-22.0325
-3.28605
46.514
69.3204
36.9618
-5.19821
-3.16362
-1.3342
-39.0603
-50.7673
-35.1352
-20.0532
-43.7391
-71.8374
-89.9047
-84.6835
-75.7381
-31.4704
24.9734
41.8766
31.2384
25.7164
-9.5383
-13.9514
17.4333
44.5888
81.6978
64.6141
80.6474
55.0888
-20.6314
-60.2994
-28.0549
10.3047
61.6837
83.7156
83.2904
79.4253
67.0227
40.8321
-25.2527
-54.9791
-57.5726
-65.3292
-45.4734
-33.5587
-35.6876
-24.8035
-72.7269
-55.8414
-18.4676
-43.9094
-66.7149
8.14258
12.7409
-19.9307
-23.6539
-6.72883
-20.1764
-2.07304
32.8082
72.4596
71.5163
42.3101
17.0834
22.9445
3.28418
-7.63573
23.1314
47.702
80.8766
113.694
109.69
45.2577
-11.8578
-77.7721
-93.5595
-76.0446
-56.5925
-46.5347
-39.8134
-59.1359
-80.238
-43.3939
-18.8614
-16.0856
-13.8662
-12.745
-8.11219
20.8007
70.5348
55.4418
13.2884
-2.62843
-18.7486
14.384
16.1411
4.99436
13.7288
11.4249
21.4577
29.9533
46.4533
49.7152
57.3858
57.1698
24.2123
-4.30743
-16.7568
-64.2407
-103.075
-67.6504
-13.0854
22.2885
8.17537
-26.6441
-42.6364
-74.0905
-44.6432
-0.552796
21.2187
29.1275
70.4025
100.56
26.7569
-20.4172
2.22526
1.31722
10.8556
2.95301
1.8256
23.1672
15.4332
-43.1797
-40.2598
-16.6736
-8.45881
22.5063
8.51191
-15.8528
-46.2822
-65.385
-78.4298
-104.655
-50.501
12.712
52.7514
149.65
167.817
118.853
-9.41295
-46.0524
-27.2199
-5.12568
31.6007
48.4902
19.6152
-8.78227
-43.2571
-76.0681
-53.7274
16.5513
12.1254
-32.0817
-16.4919
-17.4412
-19.3998
-72.3118
-83.3302
-7.04593
124.32
133.763
40.7945
-0.567604
-10.6969
-0.981308
-17.8732
-34.1606
-32.4349
-41.4107
-21.4949
-11.9528
7.36338
68.6686
52.3238
3.66656
1.81924
24.683
8.45531
-69.5896
-98.4179
-61.628
-9.02535
9.32362
53.5058
61.9571
65.2185
59.4071
36.8117
31.8665
2.7449
-6.46591
31.5691
7.69863
-29.126
-43.5592
-62.3143
-65.1827
-33.1338
2.43511
33.9896
33.6558
-11.0285
-61.1179
-79.304
-111.122
-91.8641
-34.8272
75.2353
191.972
177.004
138.346
41.9224
-33.4512
-42.5718
-50.855
-77.3285
-45.9455
-5.44738
15.7198
-27.2485
-65.0938
-21.5125
17.4162
-7.2575
8.17802
40.3323
42.9213
-46.479
-93.9406
-74.5568
-86.2512
-82.7462
48.2316
142.166
144.116
152.988
78.1792
-7.47758
-56.5831
-54.1818
-47.4344
-7.66009
34.4988
86.6939
124.355
52.5319
-18.0411
-40.0975
-34.8418
-44.262
-87.9327
-63.7146
-20.686
-16.7009
-19.2699
-14.4744
6.45343
17.9671
23.1409
2.34098
3.05809
-17.9029
-37.1532
-74.1398
-95.4639
-66.6045
-25.8854
21.3439
37.2786
40.2151
65.1462
74.9876
25.4957
-17.2472
-4.4391
-12.4784
-14.942
-10.0675
36.2726
72.7863
46.043
39.7255
36.4614
42.4415
52.9607
33.4731
24.2114
12.1936
-39.5224
-62.8265
-64.5577
-57.1192
-59.1667
-39.22
1.74573
41.0224
39.6063
0.219852
-19.5651
-31.46
-30.5961
-25.9546
-31.1166
-21.8004
-21.1686
8.14133
7.35256
-6.89019
-4.58145
35.633
54.2349
49.5177
43.0495
45.242
32.2383
-24.6649
-60.5451
-21.7847
-16.4392
-14.8029
-11.5552
-20.4084
-5.57885
-14.2174
-32.0797
-34.2476
-9.98806
17.4227
9.22169
-12.3746
-1.35622
13.6315
1.72159
-11.7664
4.92429
13.7669
31.4827
33.3968
17.9256
15.4209
28.1371
38.5373
25.1972
-4.14805
17.2762
30.9651
29.34
5.05869
-14.9522
-34.9067
-31.3298
-22.7404
-12.05
-2.22448
-10.762
-24.4073
-11.861
1.07824
-3.70644
-17.5246
15.8725
9.08059
7.69497
7.46073
-15.7441
-16.762
-25.6717
-29.2704
14.3909
31.9681
11.2258
-10.9574
-16.2864
-15.6329
-38.6375
-24.1762
17.0029
26.758
16.4336
2.27546
-22.4961
-25.6087
-30.9744
-49.4068
-41.4022
-6.85699
71.1098
139.124
124.954
81.2423
45.2025
3.01912
-2.38818
23.4259
37.0199
12.5651
-31.08
-58.5711
-72.4553
-66.9855
-77.1031
-65.3874
-23.0561
-9.35296
-12.2213
-2.15007
-15.8746
-50.1026
-83.898
-93.2367
-76.5986
7.72647
22.621
20.629
40.2623
63.998
79.6907
88.5741
81.1746
108.527
102.566
49.4557
10.2739
11.2148
1.86725
-14.7052
-48.924
-44.3007
-19.5687
23.5729
49.8267
14.5008
-24.7482
-57.5276
-55.8286
-23.5813
-16.9889
-6.60151
-6.58698
-18.3694
-15.1176
-5.23727
-13.5857
-6.52059
-2.65877
-1.97837
-18.1354
-31.2679
-22.5114
-15.838
-23.0324
-14.2669
2.31684
16.5936
6.34956
-19.5312
-27.8108
-29.2181
-13.3484
-11.2022
23.5414
78.5624
94.1208
79.2893
51.8999
20.7238
8.38805
-16.0304
-17.4827
-0.189776
0.702874
-6.97716
-5.17255
1.20179
22.3999
19.2463
7.20254
10.2682
2.62784
-14.2163
-32.8287
-30.8494
-9.39003
-17.1011
-28.9587
-8.34938
3.23505
8.84427
14.1025
10.4866
4.33195
-22.7827
-36.6836
-38.1768
-11.4188
4.81411
16.255
24.4785
29.8425
14.7569
-14.7577
-36.4
-42.1595
-30.0904
-9.08146
10.9604
24.1559
33.4376
30.3075
30.3026
34.5719
14.1799
-4.35611
7.25024
-15.7777
-24.4163
-26.845
-39.4749
-39.0041
-36.0262
-14.9062
-0.813038
-4.44887
8.20435
15.4101
0.535065
5.43372
19.953
43.1238
36.8272
50.2059
26.4659
20.8976
7.9851
-22.1675
-30.7428
9.25656
11.2158
20.2314
20.0974
7.9376
-5.88657
-15.8941
-25.1207
-30.655
-16.8631
2.48742
2.22147
4.36114
8.70594
-36.459
-47.8031
-16.7647
-5.84743
8.18248
-0.315711
-6.92823
11.0608
1.78779
0.256957
-8.2413
-21.5589
0.507547
2.33731
8.55642
0.958195
-21.845
-26.1619
-30.6682
-43.6457
-29.9555
0.19113
19.9516
22.563
50.2752
73.8867
71.5425
60.509
41.458
3.23037
-28.2655
-27.7905
-35.233
-9.65882
-1.18001
-26.6297
-27.1169
19.4892
97.6168
114.258
43.0319
13.6481
3.93622
3.66312
-5.19747
-21.7933
-62.0596
-74.3696
-43.1318
-3.38804
23.9453
35.2941
25.1037
-17.8646
-61.1274
-68.7959
-51.7799
-31.2526
-86.1256
-96.3783
-33.7661
20.7646
36.2557
20.557
-1.86931
36.4568
39.1965
17.8755
12.8623
27.1796
44.3472
53.0522
36.4109
9.38325
-1.70372
28.7211
31.5558
-30.1415
-112.709
-128.737
-57.5203
28.6911
66.2864
102.169
123.266
66.9096
23.9922
2.26341
-17.964
1.6758
1.61768
-23.0873
-29.085
-31.0717
-44.7643
-65.8742
-48.4412
-9.30557
81.8812
131.908
100.453
28.0508
-32.3164
-48.1061
-54.1945
-65.3619
-53.4662
-23.333
8.20296
-11.2008
-11.8122
-6.32567
1.27732
21.2057
57.6681
42.7392
-5.87441
-32.2462
-70.5044
-73.7302
-76.4881
-78.898
-76.9076
-50.926
21.0022
60.2481
48.85
40.1503
38.5301
35.8413
31.6256
13.4532
22.2128
18.8709
-8.7144
13.0987
96.5533
88.5051
29.0984
-36.5418
-39.9146
-16.8482
-15.8937
-22.2711
-25.6117
-9.37495
14.8675
32.1749
33.7021
43.9026
102.051
105.879
3.72108
-43.6166
-34.1782
-31.5293
-66.135
-87.8739
-63.9785
-40.1471
-31.4552
4.37941
42.9048
65.7113
46.6384
-15.8875
-47.0326
-52.5572
-32.9559
-31.0852
-111.867
-100.412
-68.958
-36.8727
8.80067
36.3034
18.0799
42.4577
55.9797
56.2535
35.1549
22.2362
47.3453
36.3243
6.63078
21.8897
35.7887
18.2699
-39.5733
-52.5063
22.876
83.5875
91.6656
95.2342
83.279
27.4623
-42.1825
-90.3462
-126.283
-57.8521
-5.46981
-5.43797
-2.70712
21.2247
28.9832
28.4581
24.5968
4.59929
16.6037
-0.0565635
-38.1218
-78.8374
-55.3337
-52.1694
-59.8716
-33.8109
-5.35358
26.2809
48.9098
36.0258
23.7275
21.4037
2.03906
-51.1123
-75.6116
-29.8463
9.53235
25.047
21.1357
24.855
26.7627
10.0524
1.56395
20.3385
33.097
30.187
23.3184
-10.4273
-5.18255
11.0249
8.9135
34.6226
27.9355
-2.63015
-47.1968
-86.4966
-40.7742
57.3544
101.259
45.8488
-12.227
6.68358
21.6313
20.4585
-48.7819
-86.8521
-21.9844
9.49257
27.2153
33.5505
32.3573
-15.7556
-55.3101
-63.4482
-28.4838
-30.4919
-71.4303
-103.247
-103.191
-58.8915
-28.8732
-13.0445
26.1686
47.519
115.878
134.577
104.212
83.14
41.1966
-5.80087
-51.5255
-71.8753
-39.1637
33.6868
44.3609
54.2457
68.2418
45.1354
17.9323
15.5886
18.2677
16.486
-11.2895
-40.8028
-71.0462
-60.2298
-37.0491
-13.3949
-6.36577
-32.0473
11.3028
51.2278
14.0752
-30.5827
-33.9553
-25.7063
-32.0813
-49.1504
-35.9186
-3.00417
-4.67197
-16.8933
-6.5724
6.0183
21.827
19.117
21.3258
19.2372
31.4732
52.2688
56.6482
11.0115
-19.4347
-52.3773
-14.2875
18.2141
8.08356
28.0944
46.2684
11.8906
-25.2329
-53.4958
-3.47481
16.3574
27.7459
41.5154
32.764
32.9004
9.20809
-52.6852
-63.1221
-21.0596
-7.79102
-13.6888
-28.621
-27.1827
-41.6357
-49.8754
-51.3541
-16.7179
27.7735
44.068
55.801
73.9757
75.1292
16.1145
-58.1544
-75.3945
-21.1273
48.9423
54.5358
52.3081
73.1096
57.4711
-33.4216
-108.92
-75.5546
-12.8758
15.6509
10.5146
1.14276
-22.721
-56.1719
-78.7171
-80.4433
5.99783
74.7311
51.745
16.9648
27.0573
19.6996
-10.3529
-1.2632
49.6685
101.164
108.92
57.521
1.21095
-20.7072
-37.9313
-32.845
-25.3552
-15.0435
-7.59829
-22.1824
-73.2863
-97.6167
-65.1008
-99.0692
-95.9225
-51.8436
-6.36675
-5.82276
3.40718
34.3673
63.9123
68.3011
44.6838
24.1126
72.9032
116.945
106.788
41.5328
9.42502
-2.0141
-11.2965
-19.385
1.63047
24.2456
22.5087
4.35081
-17.2416
-44.6521
-89.4638
-95.8654
-51.071
4.16052
26.0954
17.7428
-16.9096
-50.4031
-49.5504
-34.3987
-17.6651
-17.8222
11.0388
31.3134
25.6849
37.3405
39.9663
55.7397
56.817
58.19
89.3502
93.4802
46.621
-30.9609
-51.3988
-44.5091
-62.0996
-48.8087
-38.3627
-34.3255
-38.6718
-39.8858
-40.2561
-36.4343
-29.7265
-21.2162
-21.579
5.90652
0.475727
11.1234
2.45094
-20.879
-21.9918
-5.46907
-15.5827
-5.76525
7.95481
52.0829
100.341
129.637
124.68
106.802
86.1992
25.0562
-13.0922
-33.6248
-51.677
-67.5239
-69.0901
-76.1196
-49.0901
-11.3669
-5.58285
11.2252
21.9405
0.772559
-10.1386
-49.3902
-49.1509
-42.6303
-32.7755
2.66188
33.3433
50.5394
2.62819
-30.9006
-51.6129
-46.4833
-0.335436
33.5862
25.2292
26.6854
66.2677
93.9557
92.4344
47.9098
31.7632
23.7171
-13.8607
-39.3864
-60.8099
-88.3767
-87.4511
-75.091
-12.843
13.5365
23.2799
-22.8719
-45.1263
-21.0557
-4.12446
-5.93237
13.5205
10.8147
11.5104
34.8436
50.3644
38.1492
32.4651
18.1996
-13.2439
-6.67915
0.36252
12.1835
24.7149
44.8782
78.2373
109.39
39.7886
-47.2684
-40.6658
-51.1155
-86.6631
-65.0669
-34.89
-1.48102
12.3665
-20.4445
-51.8849
-19.6023
2.65006
12.7472
39.3349
67.5628
29.2487
-16.9352
-47.3767
-47.092
-32.5123
1.55477
9.73636
16.442
12.6603
-2.02116
3.12304
-4.97527
-18.8607
-5.3395
16.6745
0.416942
-1.90226
-13.5078
-22.2422
-49.4824
-46.8396
9.47892
48.2269
63.5605
74.1352
45.222
24.1345
2.85579
11.3077
7.063
37.7756
57.6099
27.5767
-7.16929
12.5577
29.5055
-22.9727
-50.593
-87.3916
-80.0377
-59.4915
-75.0652
-73.0752
-24.5821
30.8745
79.95
23.9882
-3.83165
-0.462789
14.5308
-14.3493
-34.5294
-2.40971
3.0196
-1.44493
-17.0073
24.9083
68.0399
90.7957
83.9434
38.3268
-9.37041
-7.29611
-30.1851
-47.6744
-47.0744
-21.8826
1.10637
-8.22321
-62.0693
-66.5301
-29.8838
0.312555
34.1892
55.1255
73.0816
70.2141
39.2125
5.77546
-3.60447
8.48308
26.6048
-0.037862
-49.9855
-79.3072
-63.8737
5.3652
48.0551
49.5631
54.9441
13.0909
13.2449
-4.54966
-17.7288
-18.7981
-29.6308
-50.1929
-45.3826
-60.3615
-56.8713
-19.5848
2.97485
-8.49112
-11.5294
0.405026
2.88578
3.0832
-10.4008
-15.6088
-1.6598
3.91435
37.1269
74.2198
89.8203
31.5151
-14.5839
-9.51139
35.9248
74.863
74.5354
21.2939
-11.8514
-20.5594
-31.9765
-28.8117
-35.577
-38.5117
2.34911
20.7472
17.0901
20.8099
-21.6299
-56.0974
-69.6064
-66.9352
-28.6116
26.4024
29.3109
11.0289
-4.74475
13.236
17.3854
-6.81605
-38.4755
-30.3
-7.23705
4.82572
24.3446
71.1222
77.8674
59.3463
0.995226
-23.115
-26.8494
-10.0843
-5.99006
-8.12927
-12.6149
-15.036
-22.3503
-32.279
-4.69309
15.1667
27.7004
38.4201
46.9219
37.4781
-13.0591
-67.3087
-25.4385
6.12848
6.72332
-6.07728
-9.8255
-12.149
-26.3487
-42.4439
-37.1975
-43.8378
-34.6899
5.16896
30.371
58.758
79.7171
62.7819
11.3922
-13.2759
-16.0589
-10.5143
-24.1839
9.16478
56.111
40.9195
-15.0555
-56.2074
-17.552
-4.80483
-29.6716
-31.2473
0.187352
33.6699
47.3594
28.6561
26.0279
6.26173
-31.9289
-69.1423
-76.6881
-36.4333
-13.8888
-22.3276
-30.9967
-22.5816
18.2032
53.4536
49.0092
58.0956
86.6177
97.0099
74.2502
-6.55541
-51.581
-62.2749
-69.4079
-34.8479
11.665
33.6972
40.1796
27.3629
18.538
24.1134
1.90061
-44.0561
-52.8702
-18.9129
11.2601
29.4984
-37.5607
-72.8554
-76.0393
-43.1413
-23.8136
-15.2933
-26.5276
-24.5735
14.9273
35.3167
34.1865
20.2708
11.7206
-18.0069
-41.7405
-13.8185
73.8919
111.302
63.8717
6.53829
-1.57933
3.18613
25.1593
38.1917
42.4508
23.0409
6.77079
-0.833848
-23.5154
-33.5035
-44.0286
-22.962
-17.1692
-18.5636
21.9584
53.3062
23.8236
-32.3316
-91.079
-113.677
-57.6231
-19.1561
-15.8144
-2.38259
19.4915
54.5202
48.4001
12.4984
28.3524
38.2873
26.2149
-7.30337
-14.571
-4.60695
6.43694
6.01725
-8.59103
-3.91108
20.6807
32.3043
32.6307
45.4949
7.50688
-26.1732
-52.2748
-60.7085
-42.5165
-33.5258
-64.3898
-27.0426
25.8978
66.1419
57.3616
11.9831
-11.7201
-7.14814
2.96772
5.50957
11.7857
17.6065
3.02141
-22.6247
-28.5303
-10.0707
17.0088
6.37214
-9.96673
-20.8053
-25.4645
-43.4126
-54.7719
-37.6278
60.663
122.307
95.145
53.0673
27.7393
11.6108
5.71212
15.8272
10.4247
-33.7281
-68.0725
-63.8631
-46.0253
-32.1307
-19.8428
-1.05968
-9.2937
-5.4998
1.25511
47.9365
43.6193
10.9906
29.2117
47.2212
8.84123
-36.2176
-67.1183
-43.6835
-39.8762
-31.8856
13.7804
57.0913
100.547
72.7817
6.06005
-14.7674
8.54736
22.0652
16.4893
-56.3644
-109.455
-89.6969
-79.0814
-54.9423
-19.521
10.0254
35.4715
9.08951
3.78679
44.7666
38.6303
5.37514
-26.6452
-0.833685
21.9583
11.0169
33.7948
59.4162
49.7748
25.0365
-1.86819
-13.8243
-19.8715
-25.5288
-32.8032
-28.1637
32.5179
69.2997
65.239
66.3113
74.999
56.4485
-6.62304
-56.3055
-52.8524
3.14842
2.26173
-30.0927
-33.1108
-38.3122
-64.0291
-80.1226
-72.6774
-19.2553
4.44654
1.14732
-23.1469
-46.5738
-44.627
-49.0969
-27.631
22.3767
28.6449
11.8714
10.2772
60.5873
124.769
83.8456
50.7894
45.8619
48.1301
43.9651
24.7041
-10.2484
-22.483
-24.4896
-50.4996
-37.502
-43.2094
-53.3763
-55.6749
-61.9277
-16.8392
37.7257
49.1842
-5.86413
-61.6285
-44.4176
-10.2842
9.46674
-1.16498
-4.3009
19.9315
23.2585
33.5834
46.9059
42.2895
24.084
13.3113
8.06527
13.2867
22.5719
12.545
13.8175
19.101
11.8092
-4.38152
-12.4602
-21.9493
-52.8816
-43.5221
-12.5016
-12.1843
3.67474
24.7639
47.7833
50.6201
49.9709
35.1132
-9.06972
-12.0995
-39.7999
-60.747
-69.7542
-58.3043
-45.7439
-54.0645
-75.2585
-33.6063
26.4286
62.1724
71.7433
56.2542
23.8418
-6.52058
-23.7217
-20.2365
14.1404
13.7908
2.51345
27.1219
43.6682
-41.2003
-106.24
-22.474
81.0447
90.1812
71.9122
17.9995
-9.90549
-15.4395
-44.0074
-46.6065
-8.54055
20.7927
34.9315
32.8557
0.227042
-9.10686
5.02409
-27.4118
-55.1519
-29.4338
28.8441
20.0001
-49.4528
-79.3612
-53.4259
2.84338
43.1688
38.2357
34.2535
51.3257
58.9011
36.3341
2.95809
-29.0425
-51.3766
-5.08585
16.2493
-12.3538
-24.1554
22.6759
71.9108
56.9763
-9.24378
-22.1885
10.2175
-7.75373
-37.75
-52.4025
-39.2187
-29.2656
-54.4988
-51.3093
-21.5815
8.67882
4.75378
37.937
41.2643
5.46358
-7.59403
26.435
-1.09318
-32.7127
-0.267419
35.2919
29.6305
14.6326
-8.9869
-35.1158
-56.8491
-26.4197
37.1047
115.139
144.748
103.93
41.5184
-62.8109
-68.125
-30.4338
-38.1789
-52.6132
-33.5041
-32.2138
-28.755
-9.15349
-15.8676
-6.88551
36.5346
52.5135
56.1136
30.3449
-24.2592
-73.2449
-91.1567
-75.0683
-33.4322
10.6934
37.3725
55.4289
56.4254
-9.0829
-45.2368
-10.1794
9.82036
34.0114
39.6468
28.1998
4.2592
6.94333
19.7752
7.36539
-4.82271
-24.232
-50.2945
-37.9136
1.24561
17.427
28.6051
42.0629
65.6334
96.3148
47.3141
-29.2842
-29.5336
-47.3701
-40.4192
-56.3301
-61.566
-6.66348
10.5839
13.0034
4.46969
-7.59623
-26.0883
-29.5162
-15.9095
6.70427
-4.48688
-20.2547
-31.3188
-21.0847
16.8097
34.7635
11.9917
1.8813
34.3485
47.1789
35.1628
0.566558
-6.07051
2.2943
-12.5434
-33.6181
-18.8645
22.2496
51.2183
41.2908
16.3512
-3.29851
-5.14238
-3.99665
-14.0021
2.72943
31.2338
40.1567
9.77565
1.49259
0.168933
-13.6839
-31.7294
-43.0966
-45.7555
-42.9395
-37.1448
-31.0592
-19.9896
-24.0458
-13.9902
30.3057
39.7386
14.4912
6.85439
-7.35578
-26.5671
-28.0312
-33.6026
-15.0728
15.2963
19.7879
28.7482
38.3461
54.8681
67.2079
64.835
25.335
-8.07591
3.03645
0.554875
-22.3215
-40.8896
-32.2834
-14.881
-6.50022
-2.17146
13.0604
12.4281
3.59729
-5.29361
-1.4082
0.108875
-12.3174
-11.1321
15.4257
20.3167
9.45544
-5.61249
-24.1559
-24.9097
-45.4148
-45.5732
4.12126
25.1002
24.6414
6.49637
-5.17447
-8.47526
-14.0673
-19.0566
-26.3977
-16.6177
26.9861
36.327
30.1772
29.3922
23.0245
9.07219
-21.3694
-47.6325
-1.32529
49.58
19.1341
8.91886
38.0163
47.8355
31.4958
-4.02083
-36.2499
-40.3835
-17.9601
-24.8949
-43.4364
-31.4845
-15.2475
-27.2469
-57.031
-25.2551
20.4713
56.9892
38.961
2.62359
-6.05296
-4.66248
-44.7265
-46.5947
-34.6942
2.32581
48.1037
68.7743
59.508
41.0617
8.37426
9.81939
6.86983
21.4977
42.6018
27.1011
2.59933
-39.5081
-66.76
-28.0528
-11.3455
-17.6162
-8.46163
-29.5331
-35.6788
1.46235
20.2116
36.8204
29.4546
-6.69428
-18.8572
-13.3062
-13.3292
-12.8503
2.75469
14.3937
47.8569
78.6498
69.9468
14.4573
-35.4197
-39.8559
-31.4726
-29.5859
-36.8465
-11.115
17.0664
12.2921
6.97124
26.0119
23.0841
0.573282
-22.1926
-32.1399
-21.2854
-38.7441
-57.3164
-45.5874
-13.1922
-11.3455
-19.1637
-3.28655
11.1755
23.7987
40.8349
21.9503
-5.06163
-21.78
-29.5046
-25.5112
32.8652
46.8865
62.0271
61.0078
34.957
24.6189
13.7519
6.33845
6.49269
12.3834
34.6066
25.9425
3.47858
-11.3872
-15.3823
-47.7782
-59.1961
-28.5844
-8.47027
15.649
4.01881
-7.08355
-18.7449
-32.3659
-15.1754
11.7587
8.28075
-3.05831
-12.3663
-7.39513
-1.33216
-38.1539
-72.2888
-43.0684
30.9933
50.8975
27.4388
1.73807
4.77686
10.449
10.9501
15.2746
19.333
35.0622
23.8291
-3.2097
-8.03553
-16.4826
0.248635
10.6395
21.7643
43.0777
53.1035
27.5426
-39.9899
-55.0596
-51.8231
-23.1736
-2.10931
1.96127
-6.38501
-12.6344
-11.2811
-2.41125
-5.39359
-29.0748
-18.2598
-7.01084
-21.3746
-33.6868
-31.2527
19.5512
61.7403
54.2997
33.4901
51.367
58.3555
37.5568
4.92153
-1.82062
-17.8969
-35.8398
-26.7381
-11.4727
-10.1612
-11.6507
-27.9016
-27.4437
-27.0934
-33.127
-14.9786
2.7851
9.40763
19.5958
20.7926
14.1657
18.1686
-12.7464
21.6711
36.8487
6.94465
0.262868
-10.1391
-25.5535
-8.03796
0.163419
-14.6706
7.6379
14.0382
17.4918
22.6963
13.846
-4.75566
-25.3951
-38.5509
-41.4976
-28.9412
1.57544
-8.43812
-7.13335
26.2245
53.35
58.6993
25.0747
-17.0794
13.762
47.845
30.8873
-3.79613
-17.1261
-28.3948
-48.0235
-51.2302
-11.9009
6.01131
6.84503
0.276662
-6.72941
-4.55452
-1.26458
-8.8514
-10.8781
-7.3403
10.3629
27.3283
14.767
2.80696
-8.02429
-10.0143
-24.6785
-19.7104
-5.88471
-17.9655
-11.2489
20.7526
37.2417
16.7931
-18.0843
-33.2522
-7.91608
46.9643
40.1629
12.8177
24.8311
37.5817
20.293
-3.0617
-25.7456
-17.8322
12.4889
17.2965
18.482
25.1134
-7.7757
-48.5962
-59.1481
-53.3429
-34.1515
-36.3517
-46.6052
-52.1435
-33.2637
18.2082
49.7464
82.861
77.6123
40.0383
-5.56277
-24.1944
-13.6986
-18.6255
-23.5394
6.36491
0.42093
0.403643
8.45196
18.8811
28.4776
28.535
25.2684
40.1683
29.1262
-2.04986
-23.4915
-42.6801
-43.3505
-21.5348
15.6583
41.0016
9.97542
-36.3254
-49.6056
-34.7676
3.85604
22.3985
26.2309
36.9522
47.9959
32.8226
8.98333
-12.7397
-10.4424
-20.0412
-50.7304
-60.5092
-48.7445
-15.6316
-6.15084
-10.4599
1.75895
17.7201
11.4066
-7.74408
-18.6043
8.77875
14.9959
22.1682
35.9163
61.8803
35.0745
-21.3875
-22.8722
-9.53053
10.448
-4.05813
-16.918
-15.4967
-4.53276
-24.5863
-34.4202
-3.87168
30.4805
33.9661
41.7206
31.8985
20.5057
5.3171
-23.7672
-40.5237
-46.0749
-28.7549
4.57342
12.1592
8.5782
8.34684
-0.301064
-4.196
23.1086
28.4661
24.3419
7.41503
-7.26478
-7.2566
-26.0054
-31.3839
-16.6661
-8.94719
-6.29089
-7.91753
7.38052
7.64476
-32.3416
-22.847
24.9302
51.7543
65.7914
54.3739
49.0904
51.8191
24.8943
-4.09244
-36.8153
-91.0084
-82.8024
-67.2378
-68.4469
-65.471
-44.6036
-13.4931
31.6769
57.9139
62.1734
39.679
8.69056
-5.6183
-2.93776
-3.74297
-13.2725
8.05287
20.8037
14.6689
1.97727
-0.389094
-7.12306
5.78227
9.70985
-9.77469
20.1436
40.1065
29.0025
21.3303
21.9309
17.9767
3.68342
-0.373404
-17.8354
8.35692
2.23063
-30.0197
-27.6726
-23.4968
-23.9393
-8.5032
-3.83481
-8.25488
-11.052
10.3312
11.2677
-1.57789
-14.6308
-19.5456
-33.2625
-20.678
-12.4011
-11.4541
-13.6684
-34.8039
-30.9219
-33.1181
-35.5526
21.2044
63.1599
75.9047
77.6707
73.8886
61.9819
35.0941
-27.3321
-30.1478
15.243
23.5632
17.834
-10.9876
-22.3467
-16.3684
-10.5975
-23.2678
-20.3565
-3.88083
4.24262
-13.3744
-22.4632
-12.0933
-11.3854
-39.9225
-36.829
-6.83877
11.5029
12.7119
-4.97076
0.241263
13.0556
1.48817
-12.4968
-25.4275
-38.2034
-21.1178
1.15787
41.8858
109.19
111.546
27.9755
-9.04477
2.77834
3.01804
-5.39272
-24.7796
-33.7973
-31.8618
-33.9644
-39.9985
-38.1474
-12.8778
10.2027
21.3444
34.2991
35.9541
32.9501
16.9526
-15.8293
-32.3162
-5.66606
10.5
-5.10765
-4.95177
-7.34439
-23.4735
-51.6104
-48.7902
-44.6697
-2.77769
38.0578
34.5827
36.7123
43.8268
41.2429
26.3255
3.91694
-3.34457
-13.1162
-18.9583
-11.0664
-2.60971
-2.45569
-8.63504
-21.0111
3.43843
39.4111
35.5707
28.006
6.74984
-13.4025
-20.8759
-32.3634
-11.29
4.89782
6.95558
5.11032
-9.88864
-16.3134
-20.5834
-28.6937
-32.8852
-13.5015
-14.5816
-4.55732
27.8296
29.6351
29.5404
26.3442
-0.127719
5.28846
16.0445
37.6932
21.6413
8.22022
-4.3482
-10.6756
-22.2041
-34.6933
-36.1653
1.08252
20.1172
19.9375
23.118
10.1638
-11.1985
-23.6942
-39.1208
-11.1509
7.30474
-1.38411
-3.0966
-16.3423
-24.0363
-19.9777
-16.3064
-9.67285
11.7112
12.9699
20.2912
30.2554
20.7404
1.16814
-4.26148
-11.2983
13.7966
23.5111
29.5327
6.35863
-3.02247
-5.06597
-1.25454
-7.66403
-2.47055
46.0231
58.656
24.042
-34.3951
-49.2983
-42.0968
-52.1548
-50.6155
-25.5148
12.2975
54.4865
54.0658
41.1857
10.6755
-10.1801
-19.1668
-22.0121
-11.4621
18.0141
15.6164
-14.5333
-29.3313
-18.0621
-9.59747
0.623274
-2.50542
17.5279
14.0337
-4.20321
-23.7226
-36.9457
-29.3094
-26.7549
-23.3821
19.7586
35.1494
29.2425
21.5893
9.8615
6.72575
-9.28428
-10.7111
8.38995
16.2467
10.304
2.83448
-5.18097
0.0659302
-6.57029
-5.11548
33.5204
58.2895
58.7063
38.2737
-23.6916
-38.276
-22.6052
-10.5148
-22.7584
-26.6179
-16.3039
-1.17506
1.50737
7.94784
6.60876
8.26076
5.17809
1.5144
-11.3237
-26.1265
-38.6525
-52.6268
-39.2884
2.37282
33.3684
40.4007
34.8306
25.0461
51.2271
38.052
5.68508
-8.13526
-20.9681
-24.0554
-23.5724
-14.8724
-6.86736
-6.32005
-0.939821
3.2352
-15.7216
-34.8741
-30.6097
-13.191
-11.6268
-14.0315
-16.2893
-22.1655
-15.9223
26.795
42.8329
52.8934
66.9471
39.824
23.4069
13.3163
7.11865
22.5688
23.4627
-1.97509
-23.8087
-17.2619
-13.383
-23.7189
-9.26698
-0.417156
-2.42673
-12.3763
-38.338
-29.7731
-12.3993
-23.606
-26.797
7.63255
29.0011
31.9593
14.8925
2.60323
-0.0300147
-11.5668
-16.7719
-16.4611
-8.25643
-4.18985
-0.612279
45.704
74.7512
60.4625
17.6903
-14.6178
-6.86312
-19.4634
-53.7
-38.5799
-16.569
-13.2727
-11.1091
-19.5247
-14.682
9.44017
11.37
-13.0768
-0.348514
14.3309
17.8735
-1.02503
-7.51549
5.36425
16.4345
2.64056
-24.3802
-19.9112
14.4144
30.4563
16.7707
15.8677
10.3538
-4.49205
-16.4131
-12.4375
3.61088
20.9464
8.49698
2.23281
11.8807
13.4459
7.76639
-3.28418
19.5014
31.3388
16.0532
0.611301
-10.7782
-22.0057
-32.3077
-45.2147
-31.7781
-7.94289
11.5689
12.1774
1.68664
-4.12919
-11.337
-18.9269
-1.65391
-17.8602
-22.5209
-7.56081
0.0313091
2.28297
9.84162
-4.87393
-7.2831
6.92514
9.26018
20.6532
20.0918
11.4767
9.40072
6.03834
-0.451382
11.8013
18.5255
12.011
-2.19778
-5.93811
-7.33544
-8.66938
-18.7889
-5.40277
4.06338
20.0821
18.8805
5.3088
-3.45973
-4.38828
-17.9743
-15.3283
7.86506
8.10807
6.03789
-6.47769
-4.71273
2.39432
-4.55857
-14.6889
-26.1722
8.08855
13.455
4.04071
8.20319
23.5189
20.6041
5.54613
-5.2933
-10.179
21.0803
13.0081
-13.5439
-17.1943
-24.0339
-31.5778
-24.9933
-40.2155
-29.4633
-4.25871
29.0624
63.8555
56.1286
18.4942
0.698619
-17.486
-16.7114
-5.69934
-7.30855
-12.2736
-29.6679
-22.9734
-15.1421
-19.1273
-0.327513
17.8198
18.787
39.9698
46.8544
6.68707
-14.9911
-43.2685
-29.7205
4.55116
25.959
21.7553
2.23904
-1.7619
7.28851
-13.9511
-22.0601
-6.84278
4.25185
20.0495
11.7221
7.36418
17.2949
26.1705
27.8362
24.3333
12.464
-9.28449
-15.8234
-13.3911
-18.9625
-22.0603
-25.6211
-12.7616
-3.56985
2.61574
-2.5978
-16.6854
-25.041
-23.1197
-20.7883
-15.6689
9.11732
47.0369
45.2569
56.7906
40.0746
-0.466788
-24.9708
-29.7461
-32.3027
-12.5779
5.31744
-7.74757
-10.3407
1.63321
8.66454
4.54797
-12.4754
1.44532
13.0434
10.8298
-7.87367
-34.6722
-45.2795
-36.6848
-26.0988
6.65126
27.6338
26.2544
24.6219
27.6777
24.5018
17.2069
-2.28229
13.8063
28.7838
25.5049
33.7053
19.3273
10.1888
-6.46817
-20.5759
-40.1602
-47.1924
-9.99063
6.20987
-2.46289
-14.0879
-15.4168
-12.1365
3.07858
2.40387
-3.92582
5.18529
5.19106
6.43736
10.007
6.64771
-0.361292
-11.8131
-16.4329
7.58196
3.37719
-1.42527
-14.4699
-13.284
-13.187
-12.06
-18.3487
12.6288
17.4287
15.8145
12.3794
8.685
-1.53177
-18.6791
-13.0683
31.1306
47.3847
41.1646
21.6445
-8.16338
-18.437
-43.5111
-31.6452
-1.40939
2.42447
-0.159126
2.12425
-8.83537
-12.3381
-13.8093
-9.62598
5.50115
17.1407
11.7275
8.27762
-10.8412
-15.4162
2.36117
5.33036
-9.11479
-12.9238
24.9908
22.8138
2.88629
5.02593
11.0698
10.2556
-2.5127
-16.7106
-21.04
11.0193
8.87603
1.1595
14.6846
14.4309
-1.64653
-17.4567
-38.4885
-15.6569
-3.28723
10.3515
5.13405
-4.17239
-0.874128
4.1004
5.77621
15.7211
6.75355
11.8193
14.3769
5.17668
5.80294
-9.99049
-11.9938
-6.24598
2.69764
1.73788
-0.0745593
-10.5169
-9.65164
-3.69363
-2.04418
-17.2254
-30.2618
0.835556
22.6368
17.9326
18.5919
12.8344
10.3976
0.430134
-18.8388
-9.48627
5.33518
-5.75646
-20.2994
-22.9944
-13.3504
-10.6581
-13.4585
5.70975
14.6217
23.4055
31.3853
18.499
3.8144
5.14644
-3.39544
0.81445
23.8316
14.4434
3.51044
-10.273
-18.5063
-19.1393
-20.2496
-17.3718
-19.2213
-1.08314
9.65398
10.6421
8.26848
5.38083
-0.152236
-3.82602
-13.3352
-17.8447
9.98406
33.8482
11.677
-3.11057
1.84744
3.29379
-7.51588
-14.3192
-21.1693
-7.03317
11.2754
-0.696635
3.04301
3.94085
0.425012
7.2598
0.920529
0.903535
20.5994
16.9132
1.82802
-9.30965
-4.81117
-0.769531
-3.82041
-4.03311
9.92114
9.48157
14.8966
6.58345
-4.71392
-7.48366
-15.7934
-18.1828
-15.5292
-18.5393
-4.57172
3.54262
6.41537
9.65688
0.629511
-5.38186
-1.60729
0.306398
10.6595
8.75904
-2.87762
-2.27995
-6.60902
-23.6723
-15.2799
15.3884
15.5943
9.27326
3.84376
5.85926
2.87084
-4.09305
-19.7482
-5.75016
32.8746
22.3529
11.4183
10.5859
17.2357
11.133
-4.83848
-23.924
-10.2617
11.3266
-0.841487
-20.866
-16.1504
-14.7368
-14.6863
-9.7169
-10.6784
-8.08246
17.1999
6.89826
-10.1609
-6.87428
-4.04752
-9.80819
-28.1506
-0.393227
17.9943
26.4295
16.1022
9.33868
10.215
3.8111
-1.34374
2.02171
16.5451
13.7748
10.1525
6.0919
1.10712
3.94559
-2.12322
-8.8557
-6.58538
0.743436
5.22856
-8.03916
-15.1095
-6.08116
-5.64417
-8.47344
-5.89345
-5.54442
-3.39432
-0.967773
-7.47412
-5.57348
-1.40324
-5.75156
-9.7165
10.5908
9.8012
8.01193
3.98823
-2.10406
3.08093
-9.86423
-9.4826
6.37067
2.92685
3.17041
4.21347
2.44055
8.69118
3.507
-0.821098
18.5542
18.0553
16.4374
6.67654
-11.2336
-15.4183
-19.8893
-14.3268
0.121647
4.06302
7.25269
3.96423
-6.73076
-4.49325
4.61154
-1.91517
-18.4204
-9.3606
8.88435
8.35952
-5.50399
7.77024
16.176
20.6705
12.3005
-10.7538
-13.498
8.96401
-0.640675
-4.0731
-2.35174
0.240956
4.04118
-9.6025
-26.589
-1.26998
-1.61027
-12.4692
-9.13451
-8.71527
-17.516
-25.1944
-14.2528
9.37773
8.93201
21.0299
34.059
15.6306
-0.643197
-13.6097
-7.09936
16.9419
7.7658
8.0201
16.9299
13.7657
20.5964
11.4294
5.12801
6.76775
5.33235
10.0081
-0.44885
-22.0016
-24.9666
-15.2075
-14.6395
-18.4957
-4.51393
13.1415
14.0543
-10.2362
-12.9743
-15.7806
-23.2194
-30.6168
-8.67715
7.03441
6.98424
-0.30189
1.97794
3.16833
1.94734
-2.40135
27.4124
29.7483
37.0862
32.3001
17.0164
10.2275
-2.02855
-19.6271
-6.09715
0.375941
3.32653
-6.93347
-18.7943
-21.0584
-23.1704
-19.9734
-10.8326
4.23149
15.7329
19.9318
10.6791
6.83307
-10.3756
-19.8126
-22.5039
-9.73556
21.5827
28.0093
7.43702
-11.1044
-10.7152
2.33393
-3.14956
-20.5952
-25.1352
-0.170049
7.79564
3.90502
-9.26548
-17.0608
-18.1531
-14.5112
0.39453
13.7604
38.2627
47.1478
28.3977
9.35354
1.84967
4.11085
-5.26921
1.07187
10.9233
17.4792
21.2505
-1.76722
-15.0812
-16.9345
-18.2863
-1.96621
-11.6464
-11.8358
0.0974531
13.6163
14.9633
-0.185726
-25.3808
-11.4175
-2.38504
-0.463115
1.49421
-5.64488
-11.0021
-10.6641
-17.8854
-0.144721
6.18173
6.11016
13.9911
13.508
13.909
4.14834
-2.00848
-16.7913
-29.7152
-18.2964
-1.83172
-0.141462
3.88172
14.1011
17.1036
6.8343
-14.9195
8.60842
24.0153
13.2676
12.6085
7.98667
5.01762
-4.88507
-16.3088
5.5489
5.68159
2.70031
0.23818
-9.90757
-14.673
-17.0808
-15.9998
-14.1611
0.434358
2.21174
15.7429
1.03982
0.300493
-4.14263
-14.8014
-15.7243
7.18421
23.2587
27.0672
14.9124
4.20118
5.69363
-5.24466
-3.33722
15.9871
14.5205
3.23798
-6.58054
-23.7573
-18.4642
-0.0475412
6.34061
-4.72422
-11.9908
0.141371
3.19504
3.24282
2.06831
3.39202
-3.53546
-2.44274
-9.94077
3.50388
-0.187388
-13.4216
-23.0808
-13.2262
-1.48339
-2.24289
-4.69751
5.00538
7.49444
15.6037
14.601
6.68159
7.67596
-17.3319
-19.554
-4.64948
-0.434557
11.1227
25.1429
19.3303
13.5914
7.33855
22.2858
25.7147
7.95688
5.66877
-0.148222
-27.5833
-43.0117
-44.249
-18.4693
3.42308
10.7212
11.85
11.1629
9.22436
8.9469
3.18495
-5.8986
-6.78704
15.0177
5.53229
-15.2654
-22.5773
-1.49919
4.51612
5.80012
-2.72042
-12.3067
10.7496
12.3742
-1.28907
-7.93504
-3.71215
-0.649684
-0.177519
-7.98108
-11.7492
19.3383
13.5734
-7.49007
-6.33099
-7.53057
-7.70554
-17.7163
-18.7823
5.12884
13.1395
24.6713
36.0045
33.1416
34.5938
21.3698
-2.64738
10.8759
-7.9315
-10.3599
-8.2472
-21.1987
-26.9249
-39.5436
-40.1497
-19.3411
-0.113503
-1.08669
1.72444
-2.90102
0.10987
-5.01038
-20.8514
-28.7331
-19.0926
-3.05886
16.3273
10.5603
21.0528
28.5526
28.5187
5.33761
9.0138
18.0558
29.1558
26.8204
18.7261
22.6377
19.3808
4.81815
12.9228
-2.928
-23.1668
-18.0004
-19.0156
-17.4549
-18.2622
-26.1923
-3.90021
-1.23864
-1.20933
-3.75145
-5.37484
-14.4049
-19.5133
-12.5402
-5.18661
26.5003
29.7474
33.2007
16.7043
-5.66109
-20.707
-19.1738
-27.7735
-14.6033
-4.78065
-4.27854
-3.42523
1.74405
6.21013
18.0612
18.4462
6.13968
-2.45513
14.8358
-0.819134
-21.089
-16.0416
-23.6902
-24.3956
0.206245
0.976445
3.01443
11.5086
19.6382
34.2333
39.7112
34.3703
22.681
-2.50716
10.5831
4.93636
6.65477
7.33151
-17.3412
-22.9834
-36.6885
-43.2132
-18.9197
-12.2223
-5.31895
-0.292693
0.735195
-0.136665
-5.46174
-10.8985
10.9775
3.07446
1.14472
11.4884
5.61038
3.14972
3.92549
-2.18763
-9.20263
-5.67226
3.90587
7.91674
6.29034
0.980184
14.7756
11.743
1.68634
-14.0543
-29.1968
10.3091
33.843
34.3692
36.3829
19.3395
-1.36326
-12.634
-28.2936
-17.961
-11.277
-14.7319
-22.174
-13.6801
4.17357
1.79378
-6.57618
-3.66036
-1.54261
1.5596
1.84997
-16.8922
-15.1403
-20.9238
-26.2522
-2.11431
17.3377
30.7196
36.5578
16.3343
1.95747
0.536617
-3.59146
0.566934
-3.89164
-4.7879
-3.20602
2.41191
13.6161
22.0112
11.5008
13.4431
7.9155
-8.04002
-1.33208
-6.09408
-13.2729
-9.28133
-2.13053
-10.4638
3.31973
18.672
10.2596
-3.75705
-12.4524
-8.00139
-4.0125
-15.2552
-27.6479
-29.1805
7.06215
-10.5782
-4.09917
9.93678
19.0921
28.3698
30.3952
-0.526678
-8.17634
10.8162
1.36052
-10.1386
-5.06199
-3.92818
-3.0173
-16.1619
2.28742
12.0247
14.4307
18.2061
6.98483
3.54602
-10.0543
-24.604
-21.5425
-38.5999
-39.0751
-15.0656
-2.2099
-1.5887
-5.80021
-9.5698
33.0498
43.2706
44.0336
48.7312
35.7715
24.6194
8.60542
-11.3874
-17.2222
2.32605
4.81821
-2.66721
-21.2514
-20.6284
-15.2928
-11.1472
-18.5979
-4.60118
11.3872
19.4199
-1.37982
-12.3233
-14.3001
-19.0552
-32.5483
-22.9794
-9.05513
4.55173
5.66837
-1.60056
8.91608
15.8891
3.65125
24.2832
22.883
13.2576
10.9003
5.27513
2.67133
-1.87383
-32.7167
-19.2806
8.25547
27.0508
19.8455
7.85362
-2.569
-3.12957
-0.353094
-11.0563
-39.7728
-40.8009
-0.949719
13.0323
16.9877
31.0346
46.5788
42.9657
10.9297
-15.2972
-22.0595
-11.2326
-17.0842
-20.5129
-17.0774
-20.5927
-21.8218
-18.8168
-20.3516
-5.84266
20.1476
17.7368
-3.53781
-9.84677
-11.3866
-28.2816
-43.4243
-26.6236
24.569
38.1968
48.5821
41.9533
35.5457
26.1602
15.1768
28.1678
28.2898
13.0291
3.01381
-17.657
-15.4769
-7.95397
-16.1144
-12.9047
-12.0634
-8.71497
-1.42759
-5.05826
-18.9797
-12.6261
-15.122
-9.36243
-11.4502
-11.1831
-1.91397
-1.0749
4.73885
14.2951
16.6614
14.7801
10.0703
23.268
16.3319
-6.179
-9.87053
-8.91125
-15.4792
-34.6924
-38.7915
-8.57119
1.88094
5.8757
21.6259
22.0235
16.9093
-10.4454
-11.61
12.1828
27.3246
22.4646
5.21463
-15.9902
-16.3416
-17.3564
-17.7941
-34.8002
-23.9113
12.4367
19.3079
21.506
32.5459
15.0643
-12.2556
-22.2576
11.0988
34.3984
32.1013
4.46493
-9.79739
-15.0227
-18.7036
-34.8605
-31.9042
-3.08128
8.54308
17.7276
15.6041
5.15547
11.0055
8.47566
5.34686
-9.46012
10.5777
14.9038
0.192921
-9.14869
-12.6402
-17.6424
-16.6701
-8.38186
9.22139
16.3361
15.8835
0.492869
-6.7461
-7.2397
-10.5042
-9.61126
-6.74146
-10.833
-2.06015
7.41138
0.385838
-0.841401
-16.8705
-20.3552
10.2295
21.5256
24.0156
18.6769
5.87311
10.8949
3.70536
-13.6453
4.24105
11.7661
15.0684
11.9396
3.78262
-4.8246
-19.7114
-18.1214
-8.80285
-2.21891
-1.13152
-0.510095
-11.6668
-13.5464
-5.75456
9.666
-2.70842
-14.819
16.5766
17.6969
-1.55054
-4.56522
-6.33748
-3.85271
2.97603
-4.07479
-16.612
4.86154
1.8957
0.800981
-0.600446
-1.27906
-5.48408
-3.54389
-12.2687
15.0198
53.0279
42.2931
6.77071
-0.657903
1.2592
1.06097
-16.9066
-16.0921
-16.6002
-12.9505
-7.49184
-19.8908
-15.4852
-14.7225
-11.3961
21.2891
31.3116
21.2872
10.617
-17.0382
-40.2411
-30.1111
-29.9816
-26.4308
4.75083
19.7454
22.9238
21.99
18.2498
18.4812
27.7458
20.1911
19.7037
37.6444
25.5706
3.80894
-7.61587
-10.6269
-5.38098
-14.5775
-25.403
2.69405
2.62493
-8.10181
-30.1185
-30.3003
-16.5239
-28.47
-29.61
11.0557
28.7696
10.2875
3.90252
-7.09755
-12.2386
-17.9266
-16.0951
10.3821
17.2739
24.4585
18.1541
7.21816
8.52974
4.78855
-20.0686
-0.119869
14.9422
14.2515
13.6032
-6.68283
-11.7878
-8.00992
-15.6343
-34.3133
0.696478
31.7072
28.4684
9.74756
3.03399
-4.27614
-8.23695
-22.7169
-34.1206
-23.6916
3.28116
17.5338
19.0403
38.7594
48.6379
28.0717
0.509863
-14.5153
-25.0724
2.44264
-10.9679
-24.6082
-17.7793
-15.5799
-13.2168
-18.1256
-4.5546
25.4089
25.8383
12.8977
2.37125
-12.4406
-17.6508
-25.7877
-16.3676
-16.9145
-5.93606
9.66198
19.1504
14.875
9.77635
-3.7621
16.3418
6.85836
2.71435
11.3481
13.1611
-2.03321
9.14057
3.61592
-12.7195
-3.30273
2.2753
-4.87769
-20.8362
-12.9161
-2.54561
7.19784
4.43443
9.81204
19.3745
16.2638
3.94926
2.55326
1.93852
-0.610793
-14.9187
-13.2034
-2.47466
5.41694
11.6723
-17.1289
-28.1498
-19.8825
-23.6069
-25.8845
-9.667
19.5947
31.9081
30.3013
25.8297
17.8946
-1.79003
-8.46438
-19.8696
-4.98602
6.90912
4.57846
-2.21916
-2.56903
2.22895
-3.74355
-18.109
-22.3079
4.38896
5.06598
6.30949
-0.340536
6.14849
16.0409
16.8402
-1.65733
-14.681
16.0497
26.4933
17.6389
8.56446
0.625696
2.05574
-2.67313
-20.204
-27.8858
4.3106
3.83048
-3.74297
-1.6829
-2.32909
-12.0854
-29.6548
-36.3855
-31.0816
-12.1021
8.39659
0.84863
2.08515
1.78771
-4.36339
20.3449
22.3028
17.0146
21.0054
20.9793
5.88095
-2.83374
-8.35275
4.18019
1.79296
2.66751
9.71536
3.20635
-3.78857
-2.48091
8.36184
10.912
1.14589
-6.43772
-4.71144
-10.7482
2.16586
9.7083
-10.5623
-15.351
-10.2287
20.0123
23.2689
4.06676
-3.63163
-7.26162
-1.39304
-5.09119
-24.6947
-2.86498
7.64121
9.05445
9.13278
4.14387
0.936729
-18.0478
-33.145
-28.1089
-19.5371
-8.14999
4.49509
-2.40019
3.49549
5.3117
9.19599
14.1787
8.07513
18.6075
31.256
18.968
6.20215
-7.76765
-6.10073
-2.25352
-6.98348
-0.7557
1.76236
-2.45076
2.19025
-8.80938
-23.7424
-23.8262
-26.8589
-1.21641
32.9638
44.311
45.0997
32.7152
29.1756
11.8663
-21.0254
-38.4408
-32.7702
-11.0505
-2.81345
-11.4202
-15.9315
-16.4945
-6.10044
-7.78322
-8.34723
4.19424
9.14512
-1.93603
-15.6084
-17.746
-11.8893
-13.995
-8.85772
13.9662
27.4807
31.3201
24.1765
15.7111
12.4953
-6.70603
-14.877
12.6792
19.7357
22.3178
17.4725
4.54837
7.38383
-2.42762
-18.4363
-13.7896
-11.1203
-8.24978
-10.286
-21.1104
-12.4611
-10.0677
-18.4323
4.26911
14.3677
15.3294
14.1058
-0.0376772
3.40222
-4.55629
-15.4897
-31.664
-18.2073
15.9251
11.7767
-1.34593
-3.25825
4.09372
5.71074
0.11699
-5.00717
-0.455573
19.2487
6.8507
-1.6962
1.86193
4.26984
-1.61246
-2.01294
-1.16298
17.6163
26.5956
12.748
-7.38347
-9.17051
-13.2676
-20.1825
-32.454
5.79789
16.472
17.7764
20.775
9.02667
-11.8855
-26.0677
-36.2953
-1.32182
-0.46124
-0.30612
19.7944
26.4566
34.1442
40.0983
5.80478
7.99134
6.4529
-4.11767
-3.74994
-14.1172
-15.4232
-19.5258
-23.4906
-32.6705
-37.9656
-11.4707
6.05289
-5.56974
-9.678
-8.4153
-10.0803
-33.043
-50.4397
-20.9101
4.81277
0.343026
14.5341
36.9907
47.8318
32.8189
24.1983
36.5541
31.6327
25.8829
27.0708
20.3142
20.7267
2.81005
-25.4451
-11.3207
14.6464
4.23402
-3.72928
-25.1009
-25.3432
-17.8788
-13.814
-20.3495
-16.2471
6.21963
-1.37314
-1.56549
7.26441
11.6772
9.49301
-3.57204
-28.7559
-6.33516
20.2841
6.2172
-15.3404
-11.0291
-6.00672
-10.5734
-8.08683
-14.8557
-18.2381
0.611594
1.2745
-11.8127
-6.15247
-0.507854
7.2764
11.9078
27.9713
52.8819
59.6495
30.5557
0.355393
-19.7494
-29.3038
-38.3756
-20.1513
-3.5257
2.0314
8.00983
10.5566
6.48269
0.641589
-21.5276
0.0444291
6.11302
2.23506
-7.2279
-27.0965
-34.4507
-28.6198
-26.3406
7.16259
21.8025
14.6851
25.2965
25.6614
17.3733
17.6004
12.7388
7.95691
14.0645
12.2133
14.8454
3.81741
-5.07125
-9.52756
-5.82055
-13.2266
-19.3275
5.33203
4.7721
-3.63135
-6.11299
-1.20739
-2.31813
-17.1586
-32.7278
-22.2322
5.95895
9.84019
-1.13827
2.37751
7.15614
2.63644
-3.71491
-7.57393
-8.63277
-1.13903
-3.8943
-14.0499
-8.75097
-2.35883
10.136
22.6014
45.5321
54.8506
49.9734
32.2368
-5.50926
-27.2902
-36.0992
-44.4553
-27.9931
-4.00628
-0.173711
0.600811
3.35877
6.41057
6.95279
-8.15204
-13.0774
0.608132
-1.93888
-11.0373
-18.9305
-22.9049
-22.9886
-21.0624
-13.6109
3.75466
13.6069
14.5307
6.95494
4.8177
20.3297
41.5962
43.0061
27.5031
26.7829
24.2745
24.5649
7.66347
-12.4087
-23.5064
-40.862
-16.1286
-11.3695
-15.256
-14.7614
-8.01558
-4.82643
-0.911543
-4.91895
0.778884
-3.75086
-10.6897
-8.90671
-4.60982
-7.01675
-16.9165
-25.2921
-1.67837
14.0563
17.7731
21.3139
3.16047
1.09755
4.18517
-1.74021
7.15115
38.3608
62.5553
56.3447
24.056
-31.1657
-71.8639
-34.5051
-20.7429
-28.3019
6.95927
20.2951
0.889893
-8.08106
-3.75906
17.3282
39.9294
28.2998
-12.1774
-59.4388
-28.6072
-3.81865
-15.5932
-45.9155
-42.9957
6.76438
23.3726
23.2691
33.1361
40.6307
27.8135
22.4661
11.6293
2.60499
-10.4005
-17.8282
-32.367
-30.0561
3.16581
35.2648
18.606
-10.8396
-14.205
7.4636
28.8548
29.6869
37.7203
12.9583
-4.49535
-8.67082
-23.3283
-29.2215
-17.2973
-22.7268
-20.4385
-26.0593
-29.0292
-15.9176
-0.112865
11.6268
-10.3284
-9.94463
11.1291
17.6712
8.31391
9.33758
13.9013
4.9439
-8.38092
10.5967
16.355
16.0936
8.45329
12.6346
16.1477
-1.556
-20.8446
0.170747
1.78856
5.86439
6.35636
-7.88069
-10.576
