-89.1822
-62.663
-11.8991
2.92609
-2.22817
-12.1584
-28.5901
-23.5522
-2.65923
6.33755
4.41706
14.1549
16.3023
29.5086
43.3341
40.0484
17.9145
-4.91147
-15.3019
-21.5369
-17.0922
-2.40808
8.40243
19.9719
13.2033
-9.53223
-67.483
-95.6577
-23.0345
33.2242
36.5052
28.5888
27.4397
40.4991
54.5541
82.6288
62.8748
9.49693
-22.2561
-69.3392
-125.592
-86.27
-33.219
8.00047
18.3538
1.73282
36.008
126.24
146.613
82.0261
19.667
-38.3928
-57.123
-23.6921
-11.4588
-47.6007
-66.8597
-60.1309
-34.4469
0.860555
28.0826
3.08006
-18.4186
-32.81
-29.0385
-20.492
-31.1238
-62.496
-74.8736
-51.0243
-18.6474
27.518
67.6941
58.5583
63.385
65.4023
52.7543
47.9219
26.217
14.0436
68.4334
92.9106
76.3047
8.97753
-41.5738
-46.5729
-34.5778
-14.3362
-24.1708
-30.4755
-19.1984
-9.10957
-15.9673
-21.3801
-28.6449
-18.5512
3.38088
-0.0876872
-16.2014
-4.52379
-13.4265
-37.0039
-23.675
-10.8935
0.0130693
-7.30487
-71.0603
-68.1338
-46.4381
20.3622
111.309
141.598
96.6629
24.9233
-24.4505
-40.1481
-39.4831
-15.4229
8.11999
6.91162
-16.4641
-23.5978
-27.4155
-4.86495
47.7554
79.1499
90.4943
60.8544
-40.4848
-135.572
-136.188
-76.0161
-2.98654
48.7924
51.8242
38.9939
43.8859
29.7336
4.37167
-44.8398
-30.554
64.5195
87.6739
9.31884
-37.126
-11.0007
-48.3439
-145.597
-31.3714
37.1954
-9.99176
-45.3979
-44.943
-6.27532
32.7268
48.953
45.4494
45.8989
47.834
73.1328
58.7466
0.391163
-15.0458
29.3202
35.299
15.7781
43.9217
60.7077
5.36497
-12.3137
-23.4892
-60.6448
-96.1025
-106.315
-81.1501
-63.5827
-38.5897
31.7433
99.0303
103.743
24.8234
-66.672
-99.0386
-61.4449
-35.4273
-33.092
22.2382
68.455
52.155
38.9593
21.8471
3.04244
-23.0629
-11.3799
33.7944
23.0543
-9.73565
-89.317
-101.217
-43.5536
12.3571
44.0035
20.541
18.1339
67.3857
56.0398
61.7769
76.3884
128.762
160.16
85.1414
-87.1198
-183.827
-261.156
-296.587
-213.689
-25.1091
113.031
34.4225
-51.2707
4.84474
138.212
204.351
193.945
131.738
90.116
55.027
-0.20043
-70.3984
-113.054
-83.2706
35.061
137.556
171.155
130.657
45.2805
-124.859
-211.856
-112.506
-15.4654
-17.5511
-82.2296
-94.1523
-90.7035
-80.5808
-52.8896
-30.2308
-1.37196
-10.034
-28.9992
0.66061
56.9209
72.3709
78.006
59.9114
42.2626
30.6309
25.1506
16.5713
4.70033
-14.3708
-49.9695
-33.5112
18.4912
11.5894
2.56837
2.5083
17.3974
57.484
48.4921
12.6776
-18.4792
-38.7513
-38.7941
-12.02
16.3039
43.712
31.6619
-15.1761
-47.0435
-49.4423
18.0859
41.2229
-11.8988
-25.0372
-8.09487
9.07879
-33.5193
-134.951
-130.862
-71.0827
-18.8566
46.6321
143.569
173.513
92.8097
-29.4129
-71.7176
2.03954
65.164
79.1489
22.1457
-14.2668
-3.59955
-5.5489
-16.6071
-27.2373
-7.3593
20.1584
12.4513
18.3412
66.1359
58.1795
-4.95426
-43.814
-65.4739
-45.3434
-0.851742
7.17428
18.0064
39.5584
15.0263
1.90779
-40.4772
-35.0028
-4.38393
-70.0153
-124.887
-134.657
-107.724
-73.3677
-26.4731
9.11744
9.81942
28.2419
89.1481
99.7245
62.4465
5.92918
-41.7659
-37.6389
-41.2229
17.7333
77.923
31.0386
32.4463
140.035
209.225
174.915
111.47
104.116
57.4995
-49.8771
-100.316
-92.0799
-92.2259
-68.1139
-43.7746
-76.1831
-148.767
-186.897
-101.061
-13.143
9.60044
20.1991
-12.2651
-55.5909
-37.4993
17.5663
62.8041
45.2692
-2.52797
7.00341
13.404
1.86732
24.1498
56.8836
64.793
96.0422
127.867
100.684
25.2429
-62.3653
-59.1094
-15.595
0.587382
-4.99191
-15.773
-17.8623
-29.4644
-39.1391
-31.1356
-9.19365
1.11384
-3.52264
9.13562
19.3631
37.7514
15.9973
0.5406
-17.1498
-83.2559
-96.7689
12.0781
108.103
80.1013
66.0889
27.3858
-17.4737
-89.6668
-139.735
-90.8112
-28.0816
-31.6317
-37.0879
32.0452
107.154
117.869
102.882
86.3709
19.3304
-85.5219
-120.978
-89.0906
-69.9546
-24.7978
27.7697
87.5147
1.54862
-44.5413
-24.0066
-7.46541
38.9795
72.7768
72.6241
14.221
-33.6761
-47.5995
-27.8225
2.79217
55.8336
152.636
151.999
48.4447
-47.4608
-126.284
-184.585
-148.197
-14.766
82.779
112.085
73.611
14.6611
7.64124
8.55732
-7.50204
-37.1448
-44.3585
-39.1521
-51.0249
-50.2621
-17.0455
-2.50532
-20.0157
-19.9884
2.56026
21.5976
-1.35426
22.7266
53.6271
61.4217
69.1721
41.5419
-0.122834
-27.3397
-34.895
-46.5989
-47.7282
-59.304
-68.4148
-21.6316
62.9317
126.051
59.7449
-26.9866
-73.457
-61.0036
-10.3863
38.9107
54.567
59.4802
41.7597
-9.8513
-33.3747
-34.0121
-34.6074
-16.8915
-8.34418
6.71677
34.1142
34.2759
-1.92602
-46.1461
-17.4371
36.9502
89.1871
111.443
88.4829
33.5634
-6.1545
-93.7634
-186.696
-195.055
-122.124
-26.3433
45.49
83.5606
65.1895
45.0688
59.8483
78.5152
44.082
-30.4406
-31.2501
-14.5415
-0.195336
-20.1737
-57.4972
-61.8977
-32.9386
18.3668
65.7182
97.975
92.8652
68.9263
42.285
-21.6637
-7.63136
21.4254
14.2349
-38.9528
-71.0947
-97.3534
-158.934
-122.147
-21.1479
29.9804
11.9067
-0.468249
20.4248
62.0903
77.8091
58.3617
-0.0320742
-127.135
-148.015
-57.9791
-10.1244
2.0296
50.2526
140.455
188.251
164.968
132
73.0723
3.07446
-37.4677
-41.8867
-33.2854
-67.9044
-86.2926
-62.7693
-53.2239
-9.97642
62.7784
70.0081
1.47641
-53.7071
-47.2179
-70.7741
-109.04
-103.176
-51.8863
8.1668
30.3369
33.1205
34.9231
14.5763
13.4033
25.8751
17.1431
2.13637
13.3402
16.7664
22.8858
3.35256
-0.987393
8.38328
8.31334
11.7293
7.39893
-0.209228
18.2565
25.0364
23.4099
24.2511
-8.62429
-27.5425
-4.75725
20.7029
37.9747
39.3704
44.4054
26.6042
-19.4772
-46.3386
-68.2221
-70.236
-28.9884
3.57534
5.41076
-7.66033
2.87569
15.3782
16.0248
11.0401
18.012
40.4762
29.0106
0.269186
-56.9991
-117.794
-121.453
-67.0259
7.77133
34.3391
63.6865
64.0537
19.3689
-0.346774
-13.5552
-5.1062
14.879
44.4744
55.4173
31.5932
42.9806
54.6583
15.4927
-15.2741
-18.0759
1.22642
15.1379
-5.84531
-40.6286
-55.2297
-46.1153
-26.3576
-11.1863
0.0477527
8.75538
-12.5926
-28.8295
-45.2804
-63.6844
-59.5935
-41.0009
-23.2396
-1.89554
3.55346
21.0946
39.0713
36.4827
60.2209
135.522
189.556
136.301
50.4896
-4.0039
-41.7133
-59.1984
-50.3947
-54.5937
-75.846
-72.308
-52.7717
-47.8893
-7.78826
63.0943
134.77
131.097
27.3441
-105.011
-170.589
-158.485
-116.965
-49.2763
-2.16598
22.754
32.1488
88.4684
137.606
83.9718
69.1111
33.0919
-26.4737
-46.37
-65.1845
-88.9023
-40.9945
29.9274
58.4612
69.5981
79.3183
44.3729
-82.1504
-78.2046
45.6015
89.9941
33.0399
-38.3388
-57.4375
-30.3209
-34.3308
-22.6408
0.574846
10.4082
20.4195
23.2148
-9.36582
-48.6782
-43.0666
13.6839
45.3063
36.624
68.2618
57.2213
18.7387
-17.0596
-32.4499
-70.6438
-92.5231
-73.6727
-38.0653
-50.2992
-31.0759
21.3074
29.575
29.0551
44.6298
36.2093
24.3714
16.5836
7.0044
30.2773
65.5581
26.9054
-44.8829
-36.7274
-6.58353
-1.19059
39.6204
66.8148
18.1738
14.9453
9.31227
-33.6302
-37.2946
-6.1846
39.5578
42.7793
5.61901
-30.1117
-45.3498
-37.5402
-26.8868
-3.4267
14.8123
-17.4419
-53.4151
-58.1537
-64.9686
-61.5358
-27.2338
28.238
53.3844
62.9531
40.7176
4.16201
-22.4538
-26.6525
-16.1899
-6.20639
21.7344
59.7647
85.3517
84.0333
20.9278
-88.5005
-71.8114
-14.0712
17.6923
11.2592
9.10914
7.4378
13.481
-9.28653
-27.6785
-22.1684
-24.5511
0.842621
54.5748
101.306
94.6807
42.3116
-9.90922
-53.06
-59.383
33.8416
34.4489
-18.8793
-37.7876
-12.8065
3.90006
-21.1848
-64.2597
-87.5598
-84.9164
-34.2594
-1.83775
-5.54605
4.60208
-16.5889
-57.0469
-63.0908
-20.6661
34.5727
71.0998
67.1642
85.919
109.83
78.5034
59.0671
36.8169
-23.0013
-46.0062
-18.2754
35.8287
32.6867
5.13439
-11.7846
-31.9994
-56.2381
-57.5815
-29.3144
-12.2992
-5.40572
6.58258
-3.3429
-36.1824
-50.8817
-15.4076
13.0388
14.5489
24.8885
14.991
-22.5264
-21.1579
-7.64022
10.7784
23.1002
32.8893
14.8427
-23.1313
-30.9434
-8.09402
13.4359
31.0309
35.7006
54.8598
60.7744
10.4471
-20.4213
-19.1413
-14.3977
-23.9037
5.18419
9.89143
-1.24042
-5.9283
-6.02847
-21.015
-35.8484
-30.5977
-21.0365
14.6349
31.8639
33.0166
20.662
-31.918
-66.8989
-40.0656
-32.988
-24.4919
8.35372
69.2109
102.733
74.3059
18.0432
-23.1969
-36.1917
-33.3968
-20.0317
-0.337484
6.80295
-14.5205
-19.0604
-21.7761
-21.2836
-8.69606
0.64237
14.602
36.3778
51.0873
48.3097
19.7644
-43.9205
-138.058
-117.246
-32.4338
17.3679
-1.72657
-2.47923
8.38618
19.8573
30.9941
77.8036
151.379
168.35
110.033
65.4423
-1.38509
-65.9507
-109.919
-103.223
-66.5981
-16.0034
44.8177
33.0723
-5.38614
-26.608
-31.6268
-25.3687
-15.1293
1.25241
-15.2849
-72.1885
-141.978
-162.471
-95.96
-22.8775
47.1428
89.3641
87.8963
65.0961
34.0847
28.8227
74.3818
84.2728
64.2559
50.373
38.5595
35.8324
34.0393
12.9947
0.61701
-9.44779
-23.9458
-21.6699
-32.0076
-55.671
-67.5913
-63.9329
-46.3874
-42.3656
-28.4609
-3.68084
24.4101
63.3859
89.5096
68.7715
36.2996
-31.6833
-117.187
-106.02
-48.2848
-28.0375
-32.895
-3.18234
26.5975
33.227
26.3174
23.7769
32.3603
45.9789
47.8854
34.1599
11.4328
-8.61156
-18.2048
-21.7306
-6.135
21.248
55.3717
48.9004
17.8013
-3.4699
-3.04413
-12.7546
-42.4581
-77.6032
-51.537
5.05524
35.0881
43.6058
37.6887
-18.6192
-61.5535
-86.6753
-55.1963
32.8586
54.8551
32.7006
18.2116
-23.8551
-39.7953
5.44286
10.1862
-33.5956
-39.6744
-11.7214
-1.87902
-1.34934
49.3491
103.783
112.363
69.3351
24.2175
-22.1964
-86.8711
-116.553
-95.6646
-47.3502
5.17975
35.1864
36.6569
25.3229
46.8135
67.2054
58.8879
35.5235
2.42761
-32.7234
-84.792
-127.865
-113.028
-37.5579
15.1575
41.2256
41.9741
23.9501
31.9996
59.1492
79.7086
80.0472
44.1648
-36.8475
-129.489
-101.399
-27.3344
32.1075
61.5111
46.5478
25.4674
28.3485
6.74192
-7.05666
-11.5174
-7.80826
-4.5963
-11.7226
-17.884
-24.5338
-34.1727
-31.8598
-6.77619
57.2437
114.093
80.7978
23.117
-28.6922
-60.9687
-91.6823
-107.304
-93.8869
-48.9351
-4.11742
11.8065
34.4383
59.9294
36.3486
39.2985
24.3573
0.728705
-10.0359
-35.9283
-52.7799
-4.93274
23.4996
27.2958
29.7966
32.7143
61.5949
70.3313
40.006
3.96582
-14.9507
-13.9002
-24.0841
-43.4357
-55.9474
-69.2163
-43.2287
-5.42611
13.4583
27.4682
32.2664
12.4413
-2.20215
-5.90731
-3.66441
-0.820689
-0.179194
12.0318
28.6376
18.3252
21.5937
15.5431
-2.20199
-14.3893
-36.7091
-70.6034
-36.0264
2.28808
26.8188
25.7566
34.474
29.2987
21.488
1.61659
-10.3748
-20.3801
-31.5422
-22.1114
5.51688
54.8954
49.0716
17.8598
-7.25374
-16.921
9.68303
28.4126
-12.6287
-40.2336
-36.4737
-27.3189
-27.1915
-10.017
25.6616
43.44
30.6649
0.521062
-16.4761
-49.6609
-90.3121
-77.106
-32.2638
0.155883
13.3955
17.125
42.0123
71.8222
55.1783
4.99564
-25.9906
-21.5882
-16.5345
-16.8885
-12.4534
18.7304
43.6318
36.3621
32.357
17.4763
8.39794
-0.399145
-5.1969
20.7407
32.6586
31.7291
39.9318
-7.10215
-10.448
48.1161
53.8979
1.54618
-44.7545
-76.545
-82.2976
-87.7217
-89.4567
-78.0855
-44.9468
32.8764
118.212
92.8988
56.8089
93.6726
95.1292
46.7062
-49.5489
-150.097
-172.585
-128.07
-66.7936
-8.19812
18.1778
34.4901
22.5331
7.15712
48.4846
95.2734
49.0012
-15.0315
-68.7155
-56.8171
-31.6534
-38.859
-26.7061
-15.9161
25.4254
105.674
129.313
108.715
77.8689
48.8205
34.5607
19.2182
-20.6557
-31.8849
-49.3291
-63.8144
-14.6084
26.5812
18.715
-7.68973
-23.5863
-47.7029
-58.3137
-37.6186
-10.9849
22.8861
55.9582
42.6586
-21.474
-38.565
-53.1828
-37.892
-1.72286
10.9868
-9.12263
-4.83432
23.6403
25.4294
-16.9741
-53.3199
-35.5373
1.9864
24.2035
23.2576
32.9199
76.5304
25.1084
-35.138
-40.0552
-31.1718
-9.32029
4.37306
21.548
34.897
29.066
4.87367
-69.2297
-109.27
-43.9983
18.3303
4.53013
-13.3012
-10.4222
7.90846
16.6643
9.51146
30.6222
45.4105
65.3806
67.4749
60.2682
41.1024
22.1449
5.90133
0.512968
9.92876
35.7486
36.967
5.76525
-16.7036
-40.1362
-81.3282
-92.03
-57.4276
-13.2086
7.76083
22.4449
15.4824
3.36402
-0.0647021
-5.6957
-26.3028
-40.7004
-36.6739
-17.8794
-8.22269
-20.6552
-36.1688
-51.5559
-9.86703
51.8726
64.8003
47.2381
15.0668
-4.46495
2.05403
-0.585469
-0.947979
10.8858
12.0871
10.9655
10.7548
19.256
20.6306
-4.20978
-26.9416
-37.6245
-3.37707
28.4734
34.4664
33.1986
29.3402
53.9147
41.4956
8.88262
-14.891
-50.8485
-65.3912
-52.0507
-34.4781
-10.0381
-2.89099
1.30027
-0.819302
6.88646
23.8621
33.4973
8.78812
4.30061
-16.6968
-26.0275
-24.3542
-36.477
-27.3208
-19.0038
-14.008
4.9637
10.855
-2.13907
-0.674275
11.2234
27.6636
28.7896
27.6257
29.7163
31.1665
38.367
24.1195
-0.48022
-19.0366
-17.6018
-11.0115
-9.51629
0.774901
9.70035
1.53035
-3.68322
-13.9521
-26.8559
-16.8373
-5.12742
-9.31868
-12.3297
-7.72867
-3.98777
-8.34954
4.29344
22.5456
41.5703
31.8145
-11.4508
-21.9901
-13.1818
-9.911
-11.2759
-6.57235
1.1155
12.7472
32.6903
21.5347
-7.36832
-19.2934
-35.3431
-87.1022
-56.6045
18.2741
49.3379
51.3783
46.6499
46.326
49.3772
24.6585
-4.19153
-29.1065
-39.8606
-45.1269
-34.6413
-23.8482
-16.5896
-12.7955
-4.87527
11.9034
48.9634
82.9228
47.51
-9.4241
-35.4397
-32.4572
-19.9238
-27.7972
-41.1881
-46.4377
-52.8492
-29.7392
7.82646
33.9163
36.6725
36.5704
27.8206
34.0966
35.0466
12.5375
-1.41289
15.7048
18.8215
-1.62825
-23.4262
-24.169
-16.3727
-3.25282
19.1366
27.3507
34.3434
26.7078
14.4417
11.9222
-2.07995
-17.1959
-18.9831
-25.5775
-22.571
-7.52242
12.1524
30.2426
6.65277
-19.6496
-23.9671
-31.1908
-42.9425
-45.2076
-46.3473
-28.2975
-8.11681
36.8207
74.752
46.2898
-15.1385
-62.6597
-81.045
-22.6522
50.785
65.6049
48.9656
45.5265
1.76835
-13.0381
-3.45561
3.82257
-0.726764
-7.15188
8.47918
27.1118
10.414
-27.2256
-91.7157
-142.287
-70.6082
45.9832
119.57
96.9832
30.6608
5.30334
-5.07822
-17.8374
3.05824
-8.01576
-1.2354
16.2127
27.2951
33.2116
12.1765
3.7767
17.3025
7.65257
8.35649
35.3485
25.525
6.1845
-11.9103
-28.0563
-36.8738
-35.1589
-27.9708
-32.9361
-21.7924
-3.75128
-18.1582
-23.741
-19.6368
-16.5133
-23.0525
-34.5591
-23.8148
-4.37234
14.0471
33.0465
51.8573
40.4299
8.49325
0.791475
4.83152
31.9119
44.6107
12.2778
3.29199
14.4282
18.4984
1.07228
-23.924
-43.2649
-35.2752
-28.1024
-23.3361
-21.087
-26.9824
-13.1803
-0.84648
-4.07012
-1.83634
0.717147
1.76414
-25.1136
-8.19297
34.5316
47.4734
46.7987
35.1379
29.6971
35.8452
22.078
-3.47476
5.52776
37.6761
53.4331
33.0736
-38.1773
-127.17
-113.658
-39.2002
11.8802
38.3827
81.636
42.0461
-8.13332
-14.0226
-16.1038
-21.9604
-38.7883
-37.8866
-10.2369
13.1674
6.87933
-17.9941
-27.3748
-14.9741
34.9746
87.7352
71.3992
20.0921
-26.1681
-51.2929
-66.0875
-43.1615
3.79133
20.5131
27.3332
15.5001
4.93662
-4.96644
-8.04837
-13.6673
-20.4944
-18.5261
-9.82462
4.56364
17.7544
53.6835
65.3281
35.8543
5.83599
-15.4036
-31.8337
-37.2805
-37.2432
-29.9974
-27.1299
-0.179889
18.2848
15.1292
-3.94246
-9.48902
6.6699
15.8315
7.41293
0.844035
10.6239
6.11709
-1.12396
4.16565
14.987
27.8656
22.2884
-5.22021
-14.5648
-14.3979
-45.3451
-75.0831
-21.5148
31.3075
55.6039
73.6366
53.1136
11.0203
-20.876
-17.7376
0.454343
5.42493
-3.71597
-8.64035
-21.8506
-25.7325
-25.4268
-12.3706
-11.1424
-3.08483
29.437
53.0872
15.0171
-19.4581
-50.0493
-52.8789
-30.898
-11.4637
5.18196
23.8187
35.1035
26.6484
8.64883
-4.83753
-10.3424
-19.0693
-12.0814
-2.29696
7.14358
10.0144
-1.51742
2.61076
-11.6526
-7.75447
8.08348
-0.988637
-2.36047
34.9885
88.9468
77.1693
24.1319
-22.2908
-92.2837
-130.402
-60.5924
7.81675
16.2852
11.1773
12.0182
13.4642
22.5082
26.9191
40.8279
32.1065
21.6514
26.813
25.4506
1.60171
-55.3752
-91.2289
-61.0627
-15.2708
30.8382
71.5687
43.5471
1.35477
-8.4688
-5.06192
7.75873
17.7711
4.68845
-18.9472
-39.0234
-9.47638
22.7232
-5.94735
-34.9445
-45.7248
-33.5173
-9.73776
-5.7455
12.6683
19.8849
4.39208
19.6536
18.3956
-2.87448
-27.903
-18.4912
15.8982
37.7245
44.6329
63.6634
78.4004
24.1734
6.32926
-16.5212
-48.5797
-50.9832
-45.3919
-42.6704
-40.0721
-11.2785
19.3644
6.72489
-10.2992
0.316478
13.1726
-8.47022
-23.0549
-17.1073
-7.47677
-10.5778
-49.5462
-20.4852
11.4941
33.6131
46.7765
46.3151
46.2821
36.3946
17.8326
21.4389
20.5987
6.84477
0.756639
11.5099
10.5934
-21.8629
-51.1206
-43.3933
1.02189
27.0227
14.3819
-2.94065
-44.3305
-99.5922
-59.3879
-0.0722199
36.4544
29.9719
17.1161
15.4287
23.6416
27.9628
34.0936
15.4559
-5.58245
-6.46873
-2.83611
2.75199
1.89075
7.34992
21.4669
-3.83291
-31.7539
-37.3974
-14.5156
65.9859
61.6626
21.7916
-15.0011
-35.1421
-40.2694
-55.2103
-49.2087
-61.8841
-89.7224
-61.4204
3.9084
49.8784
78.1482
40.9133
16.8597
34.8613
33.7888
54.9253
27.0456
-41.7224
-59.5772
-32.1142
-0.406629
18.2932
25.4105
30.7192
21.1983
21.0051
49.6921
47.1939
12.2153
-24.4015
-54.7761
-43.6018
-32.0921
-21.6651
25.8978
59.0357
30.9922
-16.7263
-32.8248
-33.9796
-60.7694
-106.503
-69.6329
-3.1045
41.5625
79.2303
83.1801
54.8253
31.6199
22.8265
0.294545
-15.3183
-25.2572
-23.2771
-1.08669
7.84042
4.83585
-13.3295
-31.3712
-32.4342
9.96643
48.3456
19.1988
-23.0336
-14.0092
23.7672
33.1927
26.1028
19.6242
-1.76966
-37.5063
-54.1688
-32.1955
-1.97255
12.2479
5.0131
-11.2002
-37.1701
-52.9832
-44.239
-26.6142
-1.4368
15.8651
20.277
9.23814
-3.20119
16.1646
32.5893
21.3525
18.4222
26.8272
29.83
4.35267
-21.3451
-14.3524
13.2906
21.0249
22.208
39.179
53.8227
51.6293
46.838
30.33
3.41358
-20.7522
-35.8337
-48.6642
-45.0432
-37.7821
-62.6004
-74.095
-43.5696
-4.57837
19.7028
40.6906
76.6118
46.1223
-14.0016
-46.7236
-37.5651
-24.4777
-8.58443
9.07005
10.4015
-9.07691
-24.7578
-26.8894
-24.4929
-17.3355
5.81508
34.1009
36.8815
20.6345
9.7657
-14.8242
-38.6623
-13.6023
15.6744
31.1569
21.595
12.9776
11.9979
13.6504
42.9699
70.5417
48.0778
21.0099
-6.85553
-13.9496
-2.67965
-7.72838
-35.6006
-54.667
-41.804
-38.3932
-45.2727
-36.9685
-1.61061
33.2532
61.2616
59.5932
29.6079
-37.1921
-122.357
-109.702
-35.0278
26.0038
38.0908
35.4011
35.9114
10.5658
13.6625
52.578
42.3027
20.8154
46.9009
48.7258
21.5807
-3.80873
-44.4339
-35.2298
-2.1988
20.8858
30.744
11.2488
-30.8203
-45.1078
-12.7796
-12.6312
-19.1811
-19.8731
-34.4447
-44.8257
-34.2477
-9.261
-23.4684
-20.9933
5.73778
22.4805
23.2514
12.41
3.46873
15.9779
39.4497
24.3861
-0.043684
-7.10673
-29.0066
-30.5633
-19.8091
36.2169
94.9186
70.1373
34.0019
17.559
-6.98619
-28.8694
-25.4064
-20.6559
-18.5033
-24.6396
-31.6557
-27.9617
-15.5107
-19.9081
-4.04437
11.3138
21.2235
26.7304
22.2243
2.18246
-23.6876
-40.1751
-40.0443
-31.7494
-5.97881
40.5248
42.1335
37.1242
40.8078
29.3159
21.2489
15.7638
1.55972
-20.0636
-17.4002
-2.72308
4.31101
-9.77128
-26.3697
-46.6662
-48.178
9.83121
36.8177
28.9157
5.39964
-2.59097
-7.88792
-18.342
-14.2802
-5.58288
-4.89769
-3.81689
18.7274
43.3841
38.9663
12.6837
-13.5727
-10.3334
9.93116
15.6396
3.77375
-21.5715
-24.781
-20.2321
-23.7239
-32.9803
-27.2591
-18.21
-13.0412
-4.09546
-0.451434
4.39798
-6.54358
-8.40805
-1.51476
1.89331
14.2605
33.4056
90.726
127.489
87.5853
26.1041
-33.1356
-109.022
-101.448
-51.0718
-8.44867
10.8846
6.06974
12.3756
11.7196
-0.966604
-1.26586
-10.4252
-18.2838
-5.03309
5.16917
0.43305
-18.0077
-16.482
10.6499
-1.61011
-1.72549
41.3912
49.0412
28.9332
-7.81471
-11.6552
-11.2257
-19.3311
-22.663
-7.73053
19.3005
36.197
26.2008
1.95947
0.727259
-3.10827
-27.2156
-40.2487
-28.4467
-1.43967
17.6812
31.8355
20.3071
-37.1393
-41.2449
-14.9441
-0.928421
-4.9128
-9.12156
24.4407
62.0859
25.3142
-1.75816
-6.78516
9.74724
42.7412
48.3042
10.3114
-29.1383
-35.8917
-36.5448
-34.4774
-37.0024
-23.3596
-6.14323
18.1436
28.3323
17.6595
19.7395
-2.63674
-37.4197
-26.5478
-12.6728
-7.34379
-5.50148
-23.1464
-36.897
-27.2233
2.6414
20.4703
33.9843
44.3931
48.5124
51.0877
41.4531
7.6234
-16.6008
-18.9233
-9.65926
-7.90347
-33.2409
-46.9939
-2.803
41.3033
34.9083
18.6783
2.47511
-2.93448
-12.2408
-6.33854
6.08043
8.92225
3.4772
6.67313
14.5111
15.802
1.86088
-9.17209
-20.8184
-38.5432
-19.7453
23.1244
1.5676
-28.909
-24.0039
1.06978
17.5695
34.5083
38.1209
-41.1509
-103.349
-66.9645
-37.6485
-3.07588
5.19507
0.404377
4.47775
19.9928
40.4631
81.4685
91.3241
57.8712
42.0857
13.3595
-15.0086
-39.6715
-64.9482
-75.487
-61.8772
3.38507
64.6382
71.5101
87.6606
81.2599
5.62704
-34.7742
-34.3234
-32.6618
-43.1958
-65.806
-54.5516
-24.3045
-22.294
-19.4164
-12.6793
-6.08973
8.25568
3.18955
-3.01206
14.1805
26.2222
9.43539
-9.18245
-14.653
12.0014
17.5133
15.0398
7.33195
10.4816
5.10639
-17.0334
-19.3748
-4.91684
38.6664
56.9828
38.0996
10.8337
6.52917
9.53251
8.11034
8.60757
-12.6265
-24.0892
-28.9901
-20.0379
-8.00617
-11.775
-15.1288
0.894713
9.21055
3.63159
2.99465
37.4758
62.622
36.1437
-0.552257
-12.4397
-11.137
-10.1197
-20.792
-27.8772
-27.8901
-36.8942
-36.3598
-9.64543
-22.6053
-8.73423
9.15581
-62.8447
-76.942
-11.7098
42.8387
30.2785
-23.0318
-37.7688
-18.1068
2.29076
31
51.0813
75.2825
87.1148
56.6612
34.6218
17.6436
9.003
9.5927
-1.80827
-7.47139
17.9544
27.9575
4.69708
-20.6145
-39.1
-32.8807
-24.2952
-18.6278
-11.0858
-16.6012
-24.6475
-24.7142
-25.7985
-12.5858
-9.33835
-0.58605
2.33861
17.5329
23.4973
13.7907
17.0113
3.19928
-23.5518
-26.8321
-14.8599
-21.9008
-14.8176
11.1861
17.0946
7.53311
-1.1237
-6.93775
-9.56404
23.6877
74.4866
64.6117
4.63885
-23.7524
-27.5258
-20.1824
20.3563
40.2531
61.9139
45.2643
-10.988
-32.1219
-25.1174
-23.3796
-30.0457
-33.5449
-24.6975
-11.2878
-14.3883
-29.8067
-27.7185
-26.9135
-30.8299
-60.9827
-48.1541
39.5057
89.6283
83.207
29.9568
1.73523
-21.0849
-56.6144
-40.7214
-10.7814
6.39001
44.2048
60.4427
51.8698
44.8723
19.4086
-25.0773
-24.5571
13.4115
50.9161
51.8131
8.20204
-33.0541
-58.5184
-63.2808
-22.4712
40.5406
71.5474
54.9782
17.0424
1.30718
-28.9769
-44.0607
-58.4175
-72.6048
-63.1866
-49.5499
-41.678
-16.5089
24.5222
68.5091
66.308
25.656
5.0415
6.38183
-7.17443
-11.7763
0.58323
-13.2643
-11.7331
-8.91854
-9.40503
-2.1528
13.1126
51.438
59.0298
6.83499
-8.49654
-9.7047
-8.73245
-34.8846
-55.128
-34.6017
-3.41976
0.318907
-2.1523
-4.43936
0.173025
10.7861
29.5945
63.899
62.5982
36.3394
14.3784
-19.8225
-46.0251
-45.3229
-1.11133
34.1682
25.8766
-3.79503
-23.7931
-22.0507
-17.2129
-12.1252
-30.7586
-22.9372
8.74078
36.2963
33.7855
8.6969
1.91202
0.367013
-9.03607
-18.1186
-5.0567
28.4807
25.1321
10.2644
-13.0793
-16.8507
-17.8536
-18.4565
-5.55948
5.75526
23.4056
39.0506
34.8784
22.3326
-19.7255
-57.4567
-109.073
-137.201
-61.034
21.6071
73.0931
105.813
66.8803
15.6676
14.0844
18.5947
18.5472
3.86589
-37.6396
-57.3617
-34.7471
-17.7096
-13.4324
-6.32622
30.0739
66.3414
72.7794
76.2959
38.614
-0.0307305
-21.4688
-47.9749
-54.6557
-47.3314
-43.8511
-35.4537
-14.2152
12.7424
44.1747
37.9002
7.43018
-5.46196
-13.1471
-16.7802
-12.4535
-11.9685
8.07188
14.5131
-26.1452
-19.4581
16.8788
10.9745
-3.1536
-20.9891
-4.86763
13.333
12.9261
4.16777
9.16977
27.044
30.9294
11.9449
-15.4581
-37.6358
-26.8756
11.8912
53.7047
59.3639
44.9716
7.10457
-52.2829
-63.1193
-47.0005
-12.7733
10.2303
47.0705
58.5637
28.2713
-3.73228
-35.703
-34.3908
-24.6462
-0.765425
25.274
12.5048
-28.6966
-53.3715
-38.9444
-9.68112
11.3871
33.7566
34.9137
19.1418
-27.4668
-109.373
-100.938
-47.478
-23.2069
-20.3545
32.0681
98.5912
104.357
67.752
34.1488
10.9562
18.9351
29.0491
30.7088
28.7908
3.10237
-14.03
-2.30881
2.52378
17.8653
34.0943
-22.3061
-54.0453
-11.522
-3.03127
-3.10202
-43.1864
-69.5333
-58.409
-33.1662
-11.2403
2.33886
39.7319
68.2963
52.729
5.88131
-24.621
-20.9161
-10.8401
-0.346096
7.30993
-7.05661
-23.692
-46.2894
-26.9501
-5.94413
-3.81529
33.0384
72.5064
69.0314
65.1721
1.15413
-45.8878
-73.4299
-62.823
-31.0501
-7.31068
-0.103259
-2.66362
14.6337
37.4657
41.0578
23.9608
16.0185
18.6158
12.3888
5.44618
-18.7478
-33.1861
-30.1696
-26.0867
-5.82163
-2.92358
2.15556
12.4584
14.9034
2.07147
3.54801
23.4158
35.3099
34.3093
22.8396
5.70332
-2.80688
-0.187611
-6.71761
-12.4151
-4.11145
-20.5028
-34.2337
-36.1106
-21.5471
-8.21951
-4.65062
-10.2051
-7.50983
-5.93798
-13.296
-12.9304
-7.29442
8.13297
16.032
39.55
49.6492
19.5862
-16.7063
-52.2659
-88.7181
-75.3426
-32.1893
36.607
103.256
98.225
63.8087
55.5547
59.0302
27.0972
-31.6066
-62.6437
-71.2381
-39.3412
-14.857
-17.1459
-12.4869
8.85731
14.6025
20.9127
27.8421
34.4985
25.544
-14.7116
-47.0735
-50.5665
-25.2463
-16.4097
-27.9241
-12.8206
-0.381346
11.1892
29.5726
22.5721
24.2627
32.2683
40.4418
39.6943
14.7322
4.42283
4.40882
-6.00558
-18.6385
-27.7938
-36.341
-34.7174
-42.4893
-46.7012
-33.9965
-21.93
2.25224
28.1306
48.4427
45.4663
21.9381
-9.04928
-30.7125
-37.9944
-17.7554
0.137148
14.5781
55.9341
70.547
9.55685
-29.4418
-36.4092
-11.5203
7.80786
27.0535
57.0423
60.7813
27.4855
-1.73488
-20.7599
-55.3778
-39.0527
-22.2238
-15.7729
-13.2693
6.941
39.2154
-10.9965
-57.382
-62.7255
-25.9985
21.9781
40.0013
17.0729
-57.0593
-106.196
-48.1144
24.3359
47.0377
43.9156
59.4645
44.4476
27.6878
25.3332
41.5065
35.191
14.8087
11.4863
13.8692
33.5856
24.8751
-9.86071
-27.1125
-24.9913
-1.03102
0.769889
-34.4287
-43.6868
-37.2462
-18.0576
14.2265
17.9459
41.3923
5.0991
-31.2333
-43.0597
-39.9595
-42.3126
-31.4716
-15.5085
-12.4736
-3.38384
7.62778
21.6789
32.6716
33.3731
23.6787
5.87479
-8.07261
-27.4619
-35.9363
-29.7388
-36.7021
-20.5854
16.6791
30.5481
12.3179
13.8581
43.9418
99.8006
95.0428
39.6364
-6.38147
-44.8927
-67.5097
-13.9639
31.4787
14.4948
-4.7831
-4.79378
2.29621
-9.257
-35.7264
-25.3145
-20.203
-10.6299
14.4455
22.8325
6.32342
-33.9382
-42.308
-7.34457
18.4268
33.0496
46.4026
25.0293
-10.9995
-24.2561
-25.4258
-28.0773
-23.9761
-10.5348
2.66954
16.5158
17.5598
-2.35084
-13.6979
-4.62227
-10.2081
-6.31879
33.0899
41.1735
30.8224
11.8524
-68.8877
-112.44
-67.9394
1.99685
57.5997
89.1569
92.2481
64.8453
36.2694
23.8634
12.1118
32.3347
50.9425
-10.8018
-56.9263
-64.9424
-75.2402
-75.2718
-73.6087
-46.6582
28.4683
58.8985
31.8892
-0.0788606
-31.6908
-50.1871
-74.6545
-58.4311
-0.058153
14.2614
13.0557
5.70405
-12.5218
10.7439
42.2604
54.2093
42.2485
39.3471
39.9487
37.6537
50.4083
46.6397
31.6724
11.4893
-15.9751
-27.7501
-20.0451
-7.13117
-24.2325
-25.835
-12.7904
-7.90794
-19.3586
-4.93487
-3.57096
-6.90997
-14.7706
-20.9622
-10.8017
-2.55361
3.92147
16.1193
23.8731
30.4126
6.07407
-34.0995
-24.0852
5.00707
6.54507
10.7858
10.7332
-42.0605
-85.4802
-57.1655
-36.2139
-26.8086
-4.12621
22.8643
33.8268
69.1743
104.983
82.5249
27.7338
-9.46915
-1.57373
1.52535
-8.63084
-22.8759
-32.2757
-28.6514
-23.7168
-7.42772
17.8966
32.7925
12.5917
-6.15634
-8.03914
-0.986245
47.4451
29.3406
-24.052
-35.4034
-44.7379
-79.5409
-61.5184
-4.02606
14.183
14.8373
11.8754
9.11313
12.3598
43.0174
43.1533
15.2828
17.7373
17.2164
-3.36948
-48.2442
-90.5488
-85.2529
-48.64
23.3365
80.7725
135.749
152.705
75.8906
18.316
-19.0137
-38.0513
-37.0147
-38.0146
-53.1639
-48.68
-35.1514
-14.5762
7.0349
1.77977
-3.10538
-19.6611
-33.8026
-13.3298
-23.1997
-27.9314
-23.7573
-41.3861
-0.163861
53.2548
64.5581
48.2855
5.36451
-66.4501
-60.9551
9.29329
48.8528
36.6013
19.7815
23.7256
43.5309
54.3422
57.1999
36.1077
5.74283
-14.3289
-20.5513
-18.7245
-22.203
-45.2112
-61.4989
-76.699
-60.1941
37.2904
86.7749
75.1831
76.0686
41.2661
-4.92066
-24.8298
-24.2689
-37.772
-36.7192
-20.1072
-29.1724
-39.0544
-41.2086
-43.4493
-40.3182
-21.9931
-1.79468
16.8484
37.3111
44.4092
35.3324
7.65942
-35.5594
-27.3003
-3.78208
3.20697
2.87696
6.72346
9.8622
-5.62747
-25.0679
0.0806683
64.8261
77.9227
57.6469
43.7042
29.5652
22.4071
3.75593
-19.8644
-24.8355
-28.3921
-31.4474
-15.0188
-4.54772
-1.98552
-17.1223
-25.8471
-10.8027
-2.85545
16.1859
11.8741
-29.0487
-41.7538
-30.4474
-31.3465
-32.6697
-4.48483
22.0845
16.4131
7.52696
15.8357
14.594
15.1652
15.1946
11.5084
20.2026
25.0132
15.3078
11.923
15.2901
17.8852
10.6361
-2.03072
11.0149
37.741
42.9212
17.4614
-59.6892
-149.656
-130.304
-70.1405
-21.8752
28.7573
39.2897
45.9116
43.5124
29.2584
42.9074
48.6377
7.53041
-18.9843
-43.7572
-18.1198
24.9162
6.43403
33.7951
49.662
40.9179
28.9951
-10.7277
-49.3119
-72.1303
-37.5916
27.5027
22.8793
7.81924
-19.8653
-44.2792
-27.9062
-4.77788
-8.76201
-9.23726
-10.5091
-30.06
-28.419
-44.2922
-41.7969
13.2166
78.5073
83.1333
62.7896
35.6048
-10.2033
-40.1318
-33.5963
-15.1462
11.8533
19.9221
10.6634
18.1337
25.5206
6.06102
-10.5121
-20.7723
-10.5095
-1.83414
1.9922
16.2091
39.5699
35.3693
29.0755
29.644
9.12125
-15.3381
-17.1801
-14.4151
-15.2614
-40.4477
-57.9425
-51.635
-31.0992
-1.30709
16.477
36.4544
31.8606
-2.93227
-9.09601
-11.2475
-12.1344
-4.67632
3.01522
8.72768
6.98516
8.49721
9.56194
-5.32474
-27.3971
-43.6436
-56.2237
-21.7979
30.5712
28.5664
1.75834
-12.8747
-8.50138
10.8458
34.845
83.0442
83.2626
50.0125
7.55109
-22.167
-26.7269
-46.7382
-38.7142
-18.7746
5.52517
29.4988
59.6301
71.0101
22.0063
-18.6858
-65.0998
-142.943
-163.821
-72.2528
22.1625
47.9845
43.3884
83.8734
65.5173
35.5878
11.8127
1.7002
0.480606
-1.2905
7.28244
13.9547
3.2909
-19.113
-28.2002
-14.5782
16.6698
56.7007
61.1859
10.964
-40.8428
-71.3964
-64.9322
-75.3314
-45.8759
20.9199
47.0389
35.9393
16.8366
-17.9109
-11.7327
10.8218
-13.5045
-50.2015
-0.941873
79.6434
97.8463
67.6711
40.0597
4.88953
-27.5094
-35.4831
-31.3839
-39.7196
-26.1542
-26.4291
-25.0892
-16.8386
-9.25213
15.4626
18.0863
2.44447
14.7949
27.7444
-1.57572
-37.5859
-35.4721
-5.35556
12.1908
11.2131
7.69467
5.93378
5.42678
3.31203
3.51327
-0.483287
5.23525
5.60265
0.715123
-4.91104
-7.35908
-3.38417
0.576935
10.8157
13.0838
21.2227
21.9655
8.56301
-12.6869
-17.3372
-26.0237
-38.2715
-29.7556
-8.49849
32.242
70.0804
46.717
20.4062
9.90792
25.9605
24.9218
-8.12707
-13.9145
-13.4151
-36.4914
-53.1808
-52.7562
-34.0326
-11.3817
-2.13262
2.54456
3.07086
-5.72453
-6.21824
-17.3858
-46.9977
-61.2551
-52.3521
1.35006
62.0316
89.6913
88.9067
40.0115
-43.0003
-117.772
-79.2757
12.5551
78.6191
108.132
128.578
79.4471
21.4982
-7.90479
-6.69048
-9.70809
-8.85736
9.97593
11.6404
-4.16569
-37.2244
-58.2722
-46.7642
-17.2694
29.7522
72.09
32.0536
-21.4947
-57.7423
-88.7811
-115.349
-53.0884
18.3188
34.072
11.5514
0.835163
4.40521
0.13034
-4.15677
-20.3361
-38.2815
-40.3644
-4.39216
35.2032
55.7574
48.0984
23.4516
-1.28922
-0.80631
14.8518
19.9483
1.23518
-13.3598
4.40521
18.0937
13.3826
0.70318
10.4502
28.708
30.0068
18.0225
4.28746
-6.57121
-15.6492
-14.7357
-5.52876
-19.1293
-28.1642
-26.8533
-24.2397
-19.9038
5.0687
38.0943
41.4445
22.8459
10.1833
2.9667
-4.3191
10.8253
7.97209
-27.2057
-34.1754
-29.0283
-21.6384
-9.79042
-4.61835
7.25187
8.90667
2.77434
4.06847
1.21782
-10.7462
-28.7378
-40.3671
-36.0415
-20.1906
-2.31677
15.07
15.5012
18.4566
40.7894
44.1471
29.4478
7.52498
-10.519
-4.33847
9.46489
16.7919
25.7345
36.5932
24.8587
1.0222
-15.5558
-14.7603
-8.91349
-7.39791
-5.58585
-6.13934
-18.8317
-27.256
-15.7846
-1.47061
18.7273
33.2336
32.1221
26.0844
-12.5029
-53.9552
-73.0763
-33.1071
-5.82944
3.1836
9.26411
5.61924
0.611663
-9.85523
-22.3592
-14.7968
5.00628
30.0887
41.3957
32.7181
17.5611
7.06682
1.90527
-12.4643
-39.3031
-47.1159
-38.9022
-24.2443
16.0799
81.4833
126.987
130.005
60.1513
-3.01375
-46.4412
-53.3632
-54.0229
-68.0994
-69.3394
-61.4288
-49.0582
-34.8819
-16.7883
2.98731
34.119
52.6881
51.5555
22.3061
23.353
-7.91129
-54.5568
-77.8236
-98.8547
-76.1539
10.9119
59.5165
76.6785
75.4211
67.9988
65.4259
46.147
36.9767
20.0829
7.86448
14.8908
29.1679
28.2438
0.57316
-37.5856
-58.9215
-67.3382
-66.9673
-10.4956
22.679
11.9164
4.28042
16.2706
9.37687
-16.3089
-25.8664
-28.8066
-27.7615
-24.7271
-42.3783
-24.9737
19.8141
35.0026
16.2265
-2.85035
-12.7008
-17.2741
-0.721091
30.533
41.6396
29.3373
5.26268
-25.1658
-35.6526
-18.8331
-6.74655
7.23227
17.4893
23.6975
35.6245
32.3675
2.61561
-11.9201
-7.98352
-9.90298
-12.2661
-7.33651
1.37792
15.3108
16.1993
-0.773628
-12.2508
-6.20076
3.82758
1.13722
-2.52741
-5.78356
-20.7619
-26.1037
-12.2254
-4.26031
-7.19795
-8.1344
3.03828
21.5824
50.2434
81.7881
83.1767
35.9018
-27.3017
-65.1698
-70.2781
-50.2954
-24.2887
-16.9453
-16.6313
-15.1453
-7.91906
6.85716
20.8137
21.783
17.1587
13.0606
-2.76416
-13.1221
-27.223
-45.1187
-42.77
-18.5073
19.8663
49.6291
43.7037
37.7601
33.538
36.1768
36.3774
28.078
15.9885
-4.59172
-42.6166
-37.3415
-17.1957
-3.01589
3.83559
-4.48177
-11.7565
-16.9905
-16.3344
-14.123
-4.37422
0.0225591
12.8231
2.56224
-7.73095
-9.98159
-5.01355
8.57728
14.7469
10.5736
25.8008
23.3753
23.0015
-2.32626
-5.15727
44.6846
-33.9344
-121.872
-106.638
-20.3281
53.3905
46.7783
39.0042
23.3202
10.5331
2.03505
-2.2711
-15.7357
-19.622
-4.47206
6.94185
-0.394213
-10.7447
-11.7223
-7.90016
-34.4709
1.53123
45.9459
45.4905
14.0359
-12.4946
-7.83836
-4.66832
-3.44771
-18.2376
-22.1665
5.27061
36.3445
43.1239
36.2228
67.6655
77.9678
27.114
-10.9855
-32.517
-49.6821
-32.3727
-18.342
-14.6637
-28.6724
-42.784
-35.3587
-31.7461
-25.7398
1.29583
32.4744
16.0493
-4.21122
-23.2415
-26.9755
-31.4524
-40.7164
-23.6011
15.999
36.2116
24.0908
40.88
68.2371
52.2275
16.916
-7.1294
-9.06107
-5.07621
-2.2835
-7.80827
-5.41932
-6.04548
-10.2344
3.9438
9.8244
-1.70799
2.00975
2.55506
-5.61269
-14.1372
-36.9386
-73.1956
-32.2402
21.945
49.5691
55.7774
38.7489
37.2069
23.712
5.32602
-8.72068
-6.73548
-6.44645
-33.4165
-33.3436
-21.5528
-10.7029
1.36802
7.76678
8.29084
24.3831
45.5223
12.7867
-12.2759
-17.5374
-18.1638
-16.3714
-23.5846
-14.1275
6.75106
-1.23716
-14.8704
-28.0046
-14.4305
3.15417
5.98314
0.429449
-4.60615
-9.71462
-3.81415
3.41101
14.3477
13.1216
2.18147
1.8116
5.26281
19.1919
30.108
12.8004
-10.8723
-19.2345
-28.9423
-10.1081
29.0958
62.0244
84.9119
48.3342
0.941786
-23.008
-40.3524
-36.4532
-11.0885
-8.09802
-14.4649
-26.5812
-35.0405
-39.4367
-44.5928
-19.3331
35.3922
37.4825
24.5327
36.4829
32.9462
-7.07326
-41.0608
-28.5694
-2.01136
10.2235
-1.79353
-46.2934
-61.0348
-2.24529
25.1612
23.2846
12.524
11.1822
24.3209
43.6626
23.9607
22.5744
30.8246
-0.191545
-19.5111
-12.5579
-9.69767
14.789
23.409
32.1092
20.405
3.77629
-58.4339
-83.797
-41.5682
-17.8781
-15.2045
2.8468
17.7707
20.5848
23.9967
56.7827
55.976
7.06384
-20.2951
-37.9908
-46.2328
-43.2215
9.05856
36.9
35.7952
41.2876
53.7009
12.3003
-42.0913
-50.8333
-26.653
-15.3766
-20.6582
-33.2138
-38.1209
-49.5295
-49.3961
-25.5953
-4.36484
21.3113
36.8441
27.3163
7.30023
4.45386
23.8783
30.6703
41.4922
45.8551
36.3092
24.3339
15.3545
-0.204022
-3.69992
-7.94179
-18.1087
-29.0226
-28.1114
-3.67069
12.0549
8.63141
0.750714
-7.17384
-23.5578
-26.3968
-15.7367
0.115738
11.097
13.1735
14.8099
10.2241
9.04717
10.1332
5.21651
4.71376
4.67114
5.68724
12.9754
14.0377
0.116253
-0.921328
-6.42167
-9.65254
-19.3013
-47.182
-64.6653
-11.5672
33.0462
20.7935
-2.57896
-5.72494
4.85382
3.47262
-12.3244
-17.0124
-16.2881
22.4322
52.8299
19.8543
-15.0293
-26.8186
-20.6287
-7.57196
-3.73824
6.83116
20.3739
8.78524
-7.42525
-5.2034
3.50104
11.8824
-2.59141
1.31691
12.3244
1.16123
2.05948
-3.76472
-7.94148
13.7989
29.2758
40.9864
35.2117
9.66546
-7.98283
-10.2833
-4.65495
-12.087
-15.4675
-20.763
-37.4807
-33.5365
-15.0074
2.39039
12.2092
17.8984
14.6187
0.552381
-20.6337
-18.1253
-4.74728
-24.0972
-47.4626
-30.7823
6.92394
30.1456
18.4164
2.84773
5.33259
20.5077
29.9936
25.9053
8.76968
-9.49543
-10.129
-0.519689
6.34382
7.64359
9.18603
19.6977
22.2916
20.8811
28.9287
21.2583
-2.34184
-10.6265
-8.99601
-9.0297
-19.9577
-22.6573
-0.81013
1.67736
-16.286
-36.0238
-38.2862
-26.8319
-20.6102
-26.2243
-12.9856
23.5542
60.9113
52.7327
29.0228
1.93636
-20.8257
-30.9575
-14.6612
3.62639
16.3408
5.63738
-22.4721
-31.638
-46.0985
-16.2354
33.27
41.0875
44.8382
24.0773
3.6192
-13.7497
-26.2265
-19.7541
-6.61748
13.4573
20.4636
0.21667
-5.06166
-9.7849
-25.9868
-21.6397
1.21872
19.4767
47.2594
36.0027
-0.0107163
-6.17261
-8.358
2.08562
6.36852
-6.84711
-21.0415
-31.5582
-28.9021
-20.6474
-8.1636
7.27703
16.3562
24.6184
31.6474
36.3536
36.4673
29.9288
48.4561
52.6423
23.6258
-4.76851
-26.1611
-33.3084
-35.2776
-46.5586
-55.6908
-45.286
-20.5693
0.834768
2.34196
-4.61914
-13.4746
-26.9912
-38.4295
-48.2141
-43.5674
-18.5394
2.42878
6.42917
4.68576
14.0267
39.1595
60.7804
76.6646
66.7594
46.3186
28.7446
-4.0301
-24.4602
-22.1654
-13.7185
2.45164
1.47633
-21.4943
-32.1955
-38.6836
-48.1453
-69.9636
-57.9776
-16.3016
26.4617
43.5126
51.1278
68.8124
124.229
170.866
159.074
120.703
64.1726
2.34566
-37.4591
-74.036
-96.9354
-92.4993
-89.261
-102.85
-102.45
-87.1473
-84.2679
-87.517
-79.1732
-46.5549
3.14514
9.00321
-29.2536
-56.4509
-48.5434
-17.0731
17.1297
49.5487
54.172
53.7416
65.3284
86.3509
97.1421
107.964
123.859
135.42
116.894
70.2537
19.3113
-17.8
-66.3141
-93.7514
-102.413
-95.7142
-70.3779
-40.2509
-14.2522
7.46016
11.8247
5.89633
4.86011
7.09507
7.21196
7.46342
0.358271
-19.3823
-26.5603
-7.57695
8.09432
24.5778
32.9995
17.2715
-7.18881
-17.9446
-22.0516
-24.5843
-29.8013
-47.6485
-44.6071
-24.1652
3.578
32.0339
41.0287
46.0191
46.0594
45.7015
50.4212
43.8876
33.9162
-2.57429
-33.2856
-30.3006
-19.6162
-28.8928
-32.7561
-25.2172
-14.4822
-7.92431
-6.15254
2.96102
-0.791441
-25.9319
-31.6822
-31.2287
-36.9892
-49.4188
-59.2876
-53.9666
-30.097
9.13527
50.534
79.1153
90.3476
82.9935
72.1057
40.229
13.2034
6.49054
6.28974
-1.08508
-0.570944
9.19079
16.1914
4.38541
-8.6993
-12.8407
-33.5861
-41.828
-29.5044
-19.5621
-14.9518
-27.931
-38.4939
-27.6571
-7.05746
16.414
31.2676
42.5077
50.3178
58.2086
42.3031
9.53209
4.9941
9.61868
1.10688
-1.03441
10.8922
9.19009
-10.6513
-38.8979
-52.7895
-56.7149
-46.0056
-31.5952
-39.0388
-61.0247
-56.4614
-45.3716
-39.9198
-27.4571
3.18052
40.8985
64.4916
92.3435
105.959
102.736
90.1334
65.5935
38.9273
8.00531
-13.4019
-19.0116
-25.1791
-41.8816
-38.2216
-22.6779
-16.4484
-30.6439
-42.6745
-75.0505
-103.627
-102.489
-87.2217
-65.0773
-31.6539
7.685
55.2157
96.8468
120.746
127.249
119.19
85.502
37.7896
15.2061
1.58162
-0.447724
9.32856
21.235
28.5816
28.7545
38.3926
18.0912
-35.1204
-79.8969
-105.992
-112.402
-106.122
-99.9399
-104.792
-85.5344
-60.3774
-23.2024
15.1606
26.7297
34.4658
39.9543
53.3087
68.3901
95.5319
137.31
149.219
113.134
86.342
59.2088
7.56038
-28.8948
-39.084
-36.7963
-74.4343
-95.0703
-110.629
-126.732
-108.536
-65.2893
-39.3044
-12.1315
11.9188
42.2243
68.0527
74.145
71.9065
80.0396
71.0555
18.7952
-33.8896
-60.4623
-76.4956
-70.8239
-25.9733
8.11487
11.666
37.0682
42.5198
33.2164
38.901
50.6073
21.063
-0.0304876
3.71796
-17.9576
-36.3431
-12.788
-13.346
-14.352
-23.6693
-13.2795
-21.3406
-40.9963
-34.9429
-17.5403
6.51785
19.6226
18.7963
11.9156
17.7118
33.1045
30.8141
-14.3518
-74.4572
-63.347
-39.2126
-14.856
36.0917
89.0914
115.784
116.635
87.8036
42.6614
6.1547
-29.0457
-53.7437
-59.8168
-51.123
-41.0009
-48.267
-56.5121
-42.4121
-18.0553
-9.45337
-30.5287
-56.6508
-80.6471
-81.315
-45.9621
17.4561
56.4825
99.4252
117.979
110.14
102.359
76.333
57.0936
33.2405
27.0107
28.4475
10.0006
-27.3226
-41.368
-42.1437
-24.8922
-11.3811
-14.3341
-17.4839
-17.3008
-10.0103
-23.7943
-39.2347
-56.2101
-84.1638
-87.6143
-51.7611
-27.4281
4.33542
14.63
12.4257
6.95237
13.5808
1.73777
0.482568
-8.21601
-4.8044
8.25721
16.3752
6.81702
2.49607
-23.2419
-53.1021
-24.4509
55.5998
109.032
117.758
87.1285
56.0319
44.8788
54.6174
37.9254
20.5663
3.5301
-34.4496
-59.3765
-60.6474
-44.09
4.75566
30.2444
24.3402
9.82829
18.8449
6.74017
-18.8774
-25.7661
-49.071
-53.8183
-120.641
-164.853
-92.7184
-33.3299
-46.9517
13.0391
95.4878
134.023
98.3026
77.511
84.49
129.171
30.1209
-61.6252
-93.3765
-82.5291
-91.548
-49.6591
-113.996
-206.392
-42.8978
175.09
27.5627
-69.9746
17.182
97.0042
117.328
77.9942
54.7554
51.4707
18.8452
-18.3433
64.6872
102.774
84.7426
23.9432
-10.4466
-47.2216
7.50502
78.6003
-4.72733
-122.945
-53.7462
-23.858
-63.6203
-102.775
-87.6947
-24.545
-89.0428
-151.218
-148.589
-153.749
38.5481
108.619
68.6844
107.135
51.9362
-55.7483
-5.60542
110.004
199.98
149.818
86.7019
76.9736
110.014
97.3655
76.9095
-2.23545
-8.86243
-12.7788
-46.7304
-77.2858
-202.064
-217.859
-122.551
14.6995
98.407
8.959
-101.249
-178.287
-238.229
-183.719
4.92855
249.215
302.807
199.293
169.172
96.9801
-17.5302
-77.0988
-64.8465
45.4075
114.64
44.9537
-103.599
-235.843
-227.083
-52.1744
-2.4664
13.9102
64.9952
108.579
71.7588
-59.2532
-154.394
-104.044
-92.854
-50.3486
46.8855
55.9614
29.2473
-53.0289
-107.605
0.45997
202.93
282.666
220.443
131.16
78.9455
88.1617
134.255
75.6857
-110.244
-155.694
-10.0031
172.627
4.97255
-109.09
-123.47
-83.0043
-112.688
-198.764
-224.062
-212.022
-170.788
5.56593
115.665
112.795
167.196
118.774
-44.0648
-111.57
-112.764
-160.03
-204.826
-246.314
-134.341
89.9601
342.932
440.045
347.318
298.681
221.233
173.981
54.1957
-99.8319
-133.531
-101.465
-72.0893
-15.1207
3.35422
-121.185
-89.1682
-20.5807
-88.7155
-189.132
-108.195
-56.0387
-151.495
-197.429
-78.3293
75.5001
82.4864
72.5251
143.811
120.916
-7.28896
37.7277
61.1857
-32.7845
-171.663
-125.246
-98.3147
-100.432
14.9183
194.914
379.983
475.42
405.701
380.19
155.983
-121.42
-152.109
-147.559
-208.328
-270.144
-214.453
-218.983
-217.723
-188.185
-74.8851
50.9553
105.031
125.872
39.8363
-138.339
-276.441
-370.146
-323.772
-202.619
-12.471
289.191
280.464
191.353
143.967
125.032
163.141
171.314
211.688
235.005
223.093
165.22
110.536
-30.4892
-69.3463
-152.709
-284.896
-294.759
-204.817
-274.415
-141.502
384.362
408.429
135.995
94.2461
17.551
-45.3687
-46.9454
-88.3012
-93.5113
-78.7
-91.8459
-116.442
-62.1773
-58.7362
12.3311
105.881
35.4301
30.4933
133.63
33.3245
-294.357
-258.217
-66.4695
-34.7073
-0.780567
-78.2485
-232.948
-184.545
71.4993
248.806
278.529
216.855
136.734
90.078
93.3019
87.9812
71.6488
52.4141
4.15004
-5.09869
-154.375
-139.841
-35.6848
-0.600639
18.9165
97.6528
169.157
121.263
-0.208557
-64.4801
-31.6658
19.631
43.6428
63.6319
-64.7822
-104.941
-55.4973
-119.883
-193.974
-132.074
-160.379
-87.2349
96.9996
115.212
33.9938
27.0088
68.1037
57.303
-56.3482
-136.108
-129.924
-110.567
-76.8024
82.8447
319.038
223.231
142.456
47.8531
20.5216
-15.2904
-81.4428
-119.822
-143.723
-131.635
-100.096
-1.15695
65.5739
76.0779
61.0644
37.788
-11.7652
3.65576
96.4738
38.343
-36.921
-18.9562
-122.662
-66.3423
8.72991
-2.24506
-5.17356
35.1724
31.4541
62.9734
114.717
74.5685
21.6922
67.1042
84.6734
43.4148
11.5908
36.7208
-10.0715
-74.191
-40.1415
54.7574
56.984
45.6004
24.3827
60.2494
-59.1464
-168.135
-166.752
-154.492
-112.612
-58.5163
-21.2713
-101.829
-197.635
-178.185
16.4413
121.364
134.792
70.975
-11.9723
-15.5499
85.7177
108.719
75.0059
10.1024
26.5026
31.4059
-2.01855
-37.5233
-17.0917
-57.5688
-107.665
-42.4119
133.592
386.738
295.877
57.549
-11.602
-32.4958
-58.3385
-73.4196
-4.17434
16.2121
-57.1901
-86.9813
-70.6801
-34.1367
-5.90891
-27.5434
-80.9093
-60.8847
-20.5912
-71.2291
-121.484
-157.44
-145.063
-24.7891
98.9847
15.19
37.7866
145.244
216.54
72.375
-30.3568
-49.7395
-38.8736
-66.9103
-94.7323
33.6945
194.231
250.228
182.054
73.8939
39.79
-38.9312
-52.5873
-33.3521
-76.6756
-44.2862
-90.7001
-173.003
-258.772
-192.371
-38.5675
14.8994
53.0043
134.598
169.722
117.39
47.611
-19.1248
-20.6985
48.2939
46.8644
-38.4942
-82.6395
-21.6295
5.33609
51.9626
29.1489
16.7883
1.39479
19.9922
5.96844
6.91143
16.0001
-22.494
-52.5745
-96.7935
-133.77
-143.643
-107.398
-36.74
45.5912
329.464
321.424
239.327
31.871
-53.8185
-65.9034
-97.3008
-108.793
-24.806
48.1147
-72.6335
-97.9377
-125.095
-117.289
-22.8542
86.8245
104.416
94.6802
61.6877
22.0869
-109.414
-129.709
-138.073
-42.908
28.3221
-9.90774
-56.303
61.9245
10.2161
-107.15
16.1293
49.5641
137.584
9.01279
12.1515
77.5291
355.897
508.988
141.028
-113.888
-236.147
-217.605
-194.817
-84.4177
-149.795
-148.977
-44.1374
107.424
286.177
173.109
118.606
41.6687
-80.2521
-66.5701
-104.402
-181.675
-385.842
-429.849
-178.693
-21.6762
19.3851
103.483
150.249
122.806
168.741
247.363
324.654
88.4202
-111.35
-120.693
-99.58
53.1412
126.76
168.967
120.869
41.5047
-55.8028
-94.9807
78.1461
179.219
55.2563
-38.4582
-52.2925
8.37969
1.75101
-75.7649
-156.123
-202.1
-250.996
-147.418
-72.4901
-49.2143
77.5011
338.813
197.98
20.2627
21.5255
-49.4339
-175.15
-167.259
-73.6487
-65.3292
-75.3034
-112.338
-61.0507
38.4237
28.2303
-6.88945
-9.46156
44.4994
-19.1024
-116.409
-83.3501
68.2005
156.764
162.672
470.395
309.565
156.134
126.837
25.6279
36.5681
-9.83832
-157.142
-187.614
-111.907
-16.2126
-17.8549
-26.3561
32.8931
89.7064
90.4781
16.0737
-146.603
-126.781
-82.2821
-261.998
-206.28
-134.386
-237.009
-206.37
-84.4099
76.3021
192.141
214.997
143.761
21.6969
-24.3755
18.6046
36.6457
-21.8553
39.2915
136.142
14.7064
43.7468
89.299
83.5669
295.528
188.474
55.2172
136.579
148.476
-15.6521
-98.5015
-119.302
-132.118
-158.59
-75.7071
-47.4019
-31.0315
-47.3346
-124.2
-198.959
-199.129
-179.801
-154.439
-190.404
-200.928
-46.4199
110.418
125.591
94.8503
119.33
125.514
140.577
139.422
147.097
151.008
164.096
129.726
128.443
103.972
29.4222
-35.1217
-100.369
-28.4319
-25.6428
-82.9983
20.3167
80.8129
24.785
-122.906
-195.047
-153.809
-148.718
-227.179
-89.1202
173.806
119.241
91.7473
51.5141
77.5697
41.8123
-27.5108
-2.01761
-17.067
25.9691
56.5137
-68.9856
-112.843
-149.257
-155.092
-12.3139
88.4397
106.142
175.221
80.9906
-97.866
-76.9307
-53.3935
22.2958
27.4384
-0.978779
39.9059
54.7065
40.9991
-41.726
-79.1085
-16.3323
13.0535
24.8418
72.9849
29.9279
-9.32551
12.0086
67.3175
32.6253
-40.5178
-1.34229
9.70565
16.6879
-0.0868568
-17.0014
-19.0009
-19.8336
-42.5783
-67.5458
-40.455
9.31734
28.5563
57.8609
75.2104
51.837
16.2065
7.8954
-35.7349
-59.1262
-102.242
-107.622
-79.2845
-68.7267
33.6503
163.591
35.5764
-30.2393
-1.21366
51.6314
97.0041
85.576
26.5088
-32.2738
-58.4102
-37.9099
-33.1039
-24.1258
2.74264
22.6454
40.522
43.3044
11.7817
20.4405
-51.8516
-152.693
-66.6336
11.67
21.8654
-31.9951
-97.8126
-71.0269
-64.3246
11.7353
83.5815
82.3174
47.4747
67.3145
85.1329
65.5677
46.3158
49.3063
41.1559
17.5189
-21.7096
-32.8636
13.0702
7.37987
-27.5968
-46.281
-47.754
-2.27358
63.3667
46.2682
-2.46906
-69.2784
-92.8271
-104.152
-120.454
-82.4945
-14.911
83.0746
162.721
107.989
16.9987
-16.6287
-11.4637
-11.7449
-6.5862
9.24351
7.412
1.19717
3.02741
-11.9891
-8.63935
13.2963
26.49
14.0017
6.25701
10.2076
6.03558
-46.6465
-130.396
-88.1014
-35.613
-29.8691
-17.6988
-27.0191
-13.7557
22.9785
79.5344
93.8031
88.158
57.5374
42.7928
56.3228
35.9003
16.6449
-9.00723
-58.535
-33.9336
-7.85122
5.32324
22.0166
31.5784
-6.17659
-93.4728
-112.852
-65.2914
-31.0959
-28.8491
-42.7726
-39.1623
-33.4116
5.68943
32.0331
39.9963
84.036
185.47
178.503
123.608
54.6483
-3.62492
-22.7273
-29.2803
-22.1619
13.1388
23.0002
-25.9358
-63.6207
-106.637
-121.223
-22.0755
9.4995
-54.2054
-65.116
-30.7011
-25.9707
-75.321
-76.0664
-76.2962
-56.595
-30.7094
-3.46159
28.1784
48.5587
83.6957
126.802
114.509
71.8332
70.6824
60.7837
5.18698
22.9689
57.2038
40.0841
-39.9644
-90.5303
-49.8951
-15.2486
-71.5663
-57.0012
39.393
61.4426
8.43433
-8.03429
-8.88216
-4.93847
18.283
27.3917
23.8141
18.2932
-30.8193
-64.031
-75.0876
-107.607
-31.465
53.7815
33.2602
42.9885
87.4424
100.898
25.0921
-52.5622
-43.746
-67.3721
-62.417
-25.9776
4.07404
28.8068
20.5042
1.22148
28.9169
42.6687
41.0231
46.0077
35.8934
13.549
-2.67165
-11.4225
-10.5795
-43.4009
-59.5613
-28.0916
-6.70218
5.01579
2.9599
-17.1567
-30.7594
-69.0988
-104.548
-2.69738
6.34892
6.97255
66.4813
129.148
77.1455
-0.379835
-11.6662
-0.109716
-5.93547
-25.3921
-21.495
-12.74
-1.20284
30.2328
-8.92686
-27.2506
5.58584
36.8973
50.2057
-32.982
-59.0196
-41.6216
-45.8255
-39.2388
-2.64212
21.5312
-9.0595
-17.6911
20.0991
40.6383
75.0696
90.7049
72.5122
50.265
24.5981
-20.8005
-56.8205
-84.7635
-82.079
-45.4674
-6.97094
4.32128
23.7213
-4.27248
13.0997
43.9872
53.0026
43.9861
32.9215
-2.80869
-36.4311
-45.078
-23.1825
-4.22631
9.94033
-14.3628
-42.2409
-17.3569
18.3681
12.3859
-2.31563
-1.47344
-12.3579
48.072
132.954
9.70709
-58.4087
-54.9283
-55.0351
-48.1366
-48.8639
-41.9556
-26.7386
-9.92012
0.548013
14.3846
12.4385
40.0899
74.8364
47.8958
20.3954
9.60289
3.99732
-8.45963
-36.0583
14.792
19.0424
4.07143
-19.5319
-21.1271
-36.3584
-87.1241
-74.3211
-12.7725
42.4682
13.9054
43.9803
120.712
144.358
82.6307
17.809
-14.2284
-31.4105
-50.5482
-84.1605
-67.5467
-26.1972
-9.15173
-7.65543
-2.65798
19.8935
85.1789
80.2071
39.4745
30.9387
43.1636
-12.8719
-129.627
-225.418
-137.801
-56.4827
-10.0317
13.7755
-9.12117
-13.2439
38.9502
77.0581
67.824
52.536
66.4959
71.6294
54.4901
41.0956
7.80801
-21.2404
-1.46216
-2.71951
2.44461
26.9571
29.0235
37.6937
14.6748
-42.1252
-58.0498
-60.9105
-58.5715
-63.1086
-52.6744
-29.2286
-23.6235
-3.88504
15.1383
52.8236
18.5686
-13.3695
-12.212
11.8655
10.4567
-9.50024
-14.3003
44.4994
76.3019
40.1712
8.08547
-12.0332
-39.1698
-38.7725
-5.8922
5.77773
0.0982066
-36.3439
-49.0158
-56.847
-20.4292
14.8476
28.3496
28.0054
43.6228
72.6655
56.0197
10.3735
-6.09351
17.511
39.1805
11.2969
-3.09289
-7.64289
-46.1688
-67.0181
-40.8085
-12.3502
-15.094
-19.5178
0.712655
25.4996
79.3106
73.3094
48.4441
42.31
0.431854
-64.3455
-59.0631
-67.4589
-73.313
-30.8145
6.36578
24.5744
28.0128
35.8764
41.8115
20.4248
-24.5269
-36.4575
-3.34777
7.87796
-51.7392
-106.972
-51.2254
61.5002
86.2733
30.697
-32.6231
-34.7623
-6.3104
17.966
37.8344
29.5816
18.4233
9.16756
-13.8047
-6.79516
41.0057
33.439
-0.193055
-9.90611
1.04684
3.80321
-43.1975
-73.4915
-52.5904
-9.87983
16.2293
59.7565
63.5338
34.3956
16.7246
-2.96486
-15.4167
-1.77038
7.14843
7.36306
9.01095
3.22657
2.57274
-15.101
-17.6189
13.8689
20.9518
-15.8185
-41.0265
-37.8788
-24.7442
-44.7608
-53.3627
2.15285
39.7569
27.6978
-6.22791
-6.76877
25.6543
40.2544
-6.38576
-14.8807
-3.83104
-3.26453
-18.6331
3.06301
17.8782
-24.3414
-28.985
6.66105
20.3631
41.3235
63.0358
50.7226
14.4678
1.945
18.9944
8.72733
-20.0392
-29.0184
-4.50475
3.1871
-37.612
-43.3817
10.7589
31.8733
42.4183
30.9799
-22.4415
-62.7818
-73.4461
-76.9671
-27.5294
33.9039
-11.7627
-45.6978
-26.7786
-11.082
-1.57522
25.3845
34.4312
31.6311
42.9951
39.9473
35.3872
29.8528
4.2074
5.11904
29.3141
49.259
49.1535
41.7515
6.66319
-45.6254
-37.2533
-9.23336
6.40069
8.56492
-21.3953
-46.284
-34.9148
-27.6504
-1.36855
3.2404
-35.4878
-50.5616
-48.5111
-60.0492
-58.9322
-35.8063
7.47315
54.1787
63.1898
18.4038
22.2012
70.2462
69.9299
57.2876
57.9687
29.4099
6.53421
-7.99946
-91.1617
-117.773
-35.565
8.91614
17.2606
26.2046
42.9435
30.8174
-32.6626
-51.7956
-27.5261
0.681124
20.7698
6.29662
10.5055
4.78654
-2.30574
6.49032
8.12878
6.47219
35.3136
54.5797
13.5408
-15.4331
-26.3117
-10.4222
1.91593
9.41226
17.1605
3.98512
-32.9871
-45.7057
-32.9743
-30.7796
-24.0555
-8.80902
16.1465
44.2506
48.659
12.9463
-5.72264
-20.0004
-58.0454
-74.7438
-48.587
-13.0324
-12.4297
-24.2973
15.3751
52.5861
75.7006
101.305
62.5075
24.397
4.42994
0.16794
-6.48385
-27.3645
-30.1069
-12.2316
15.0418
31.1827
21.4533
14.4665
-0.235069
-16.7698
-8.12358
7.74923
-4.54025
-4.65106
-16.2731
-47.8157
-20.1109
-7.63781
-27.2779
-67.6532
-87.6876
-50.5111
-35.8339
-30.0983
-1.70034
40.999
94.4312
87.344
62.6498
50.1905
34.8503
18.27
10.7125
-18.23
-35.7987
-45.2292
-42.5644
-17.7755
2.40179
37.0201
78.7814
84.4628
47.0713
26.9628
11.9478
-20.9929
-49.8746
-43.75
-43.0159
-41.5653
-28.0219
-24.2286
-13.1151
-3.44421
-2.66201
-11.8987
-10.79
-7.65275
-8.98622
-8.20749
-15.7537
-42.0496
-7.75187
40.3755
49.5246
41.5893
23.2943
51.3051
14.096
-12.9074
-12.5637
-1.30894
6.68451
-0.325426
-13.6433
-4.12205
3.68627
0.0100642
-6.20974
-25.1249
-39.6752
-12.5343
-5.75157
-9.61348
-12.8586
-24.312
-12.5029
-26.5802
-18.3404
18.3564
42.2458
40.3341
22.7404
11.1947
9.25461
12.975
2.19856
6.12402
34.2416
59.2641
42.5918
8.60849
5.09405
20.3229
10.8921
-10.4784
-36.0221
-38.8708
-6.62072
-6.93238
-23.2064
-39.1561
-46.2593
-31.9783
-7.37057
-1.03863
22.1266
29.5642
6.23634
-3.5111
-8.47552
-16.4047
-27.2982
-31.8882
-21.9011
4.73209
16.299
24.3704
63.7177
46.6334
3.28511
5.5337
1.19704
-13.8211
-26.7554
-34.0183
-58.7962
-41.745
-4.87489
29.0892
16.3668
-7.11189
-20.6323
-25.6037
-3.0536
21.8233
41.6917
49.3598
39.0952
39.2842
30.5983
26.0762
3.96112
-20.3844
-20.8885
3.61418
48.8455
53.9518
19.2496
-23.7023
-14.6767
12.0581
6.2329
-22.7089
-46.3735
-45.9844
-30.9483
-35.4837
-72.9047
-98.2368
-32.279
-14.6405
-3.94223
26.9099
52.8032
41.6023
31.4556
-2.01657
-25.1534
-32.3239
-15.0059
29.1583
62.1345
59.0211
52.0339
30.2502
-6.79632
-41.8324
-37.8948
3.47012
14.8827
22.6492
36.2779
25.6939
32.0439
24.4539
-8.54037
-9.86792
7.50369
16.4726
17.398
-20.8109
-67.0941
-78.6455
-84.5239
-76.593
-33.1944
37.9318
63.2011
54.2437
27.5464
0.301786
-1.11089
-7.27109
-34.915
-48.7009
-39.715
-29.6254
-15.0335
1.03993
13.919
31.1952
81.9656
86.7419
69.6945
72.0511
13.071
-44.0415
-74.8093
-123.074
-110.381
-38.1884
9.06524
34.3151
26.0147
30.884
39.9659
46.9347
38.6556
22.8987
7.05276
-12.8142
-26.6621
3.75315
35.5562
25.1587
26.2539
29.7658
30.2647
58.5677
61.3547
7.95432
-35.6594
-68.2606
-82.9139
-64.5597
-34.7536
-7.97124
-6.91587
-32.0111
-21.2796
-16.5903
-13.6338
-6.18061
-23.8738
-29.2067
-15.0701
-31.9175
-14.9291
-21.9529
-45.8339
2.70738
25.5407
37.9334
41.6229
25.2154
34.74
33.8197
37.24
42.2787
33.0844
22.9076
13.3525
-7.5419
-21.5556
-16.8762
13.1412
26.1865
41.5613
66.1042
62.7504
46.116
-0.868318
-52.1859
-43.3069
-37.1442
-45.2451
-57.9805
-44.8501
-1.96056
-12.988
-26.4856
-25.0596
-13.5787
14.6022
-5.10479
-29.2626
-8.06601
0.474706
27.0197
45.7337
7.10828
6.15413
17.2367
6.92571
-3.16673
-14.0888
-25.5744
-29.9606
-15.201
-1.52529
-0.803395
-8.6921
4.426
16.0299
24.1792
28.5402
18.474
6.65065
-18.6922
-41.467
-33.7887
17.6637
57.3632
60.9873
72.5027
13.6549
-41.9631
-89.1653
-100.948
-72.8574
-8.71921
64.9153
87.5401
67.5858
64.8909
52.8954
36.598
14.8055
-1.34736
-6.31707
-11.774
-33.5691
-46.7573
-50.6539
-53.4933
-52.6097
-30.9373
10.8035
28.0953
21.2656
-22.576
-13.0184
16.0908
-20.4539
-42.7134
-51.2134
-46.262
-28.1108
-1.96683
23.1001
31.1244
37.7781
35.5587
30.6419
21.6202
35.617
58.0851
78.5868
49.2922
33.109
32.0159
-10.7601
-54.1408
-38.5537
-24.4766
-28.5087
-15.6251
-11.8193
-16.7063
-41.6664
-44.6368
-30.7861
-62.6417
-83.9779
-34.968
35.338
83.3881
66.4974
33.096
23.2437
27.087
6.14388
-3.903
20.9017
34.5152
23.1893
-3.43318
-18.1685
-23.9503
-19.1632
-7.51104
17.8062
49.6265
80.0368
52.1659
-4.31032
-40.4499
-51.5887
-63.0219
-66.1487
-72.0247
-91.8201
-29.8817
-14.2285
-17.0936
20.3871
46.4092
40.8592
36.4387
39.3561
17.3318
-4.49544
-1.07052
0.225054
6.58303
24.0464
26.4063
20.8037
13.3451
13.9739
36.1208
51.2572
-12.3476
-28.0339
-34.3389
-28.888
-23.1139
-23.8634
-18.1245
-3.39398
5.80666
-2.36014
30.6685
29.1959
-12.5499
-39.2143
-45.6799
-19.956
3.72196
0.876709
-10.4369
7.72838
21.497
13.3742
17.2229
16.4345
-0.570945
2.09111
-3.55224
-18.4121
-26.8771
-22.9579
-0.207706
23.8909
5.59194
9.99664
20.2101
43.2886
82.0839
53.9142
1.20195
-18.1011
-29.3948
-6.75142
8.4534
-24.8464
-17.2148
-11.3142
-27.3154
-38.7616
-31.4816
-16.8531
-24.2344
-15.3954
-2.69374
2.85484
20.438
21.9337
-7.11342
-9.6914
-4.98809
-26.6691
-55.2955
-65.7996
-44.968
13.0531
39.9829
50.8619
50.084
57.6117
18.3919
5.9345
25.9516
11.4692
23.8262
38.3917
24.6186
1.59921
-8.21635
9.35446
29.2256
33.5577
59.5432
56.8833
24.9028
-11.9071
-62.7547
-118.572
-111.304
-60.8504
-9.67162
-3.60824
-28.7338
-29.5156
23.7774
45.8905
-2.63983
-21.6313
-0.777667
10.2333
1.70734
32.9578
63.1589
42.8951
-11.6922
-37.4677
-33.1772
0.0861222
11.3502
-3.45321
-10.17
-9.36562
-13.3177
-12.7223
-20.4364
-15.0424
-6.80982
-15.8678
-7.925
1.17672
7.27584
-11.0215
-27.9017
-6.53741
26.8525
42.3504
46.3272
49.4095
36.6439
18.7436
19.612
24.572
10.4816
-1.66604
0.441089
-4.48518
1.69037
3.35553
-3.086
-8.03986
-4.35733
1.53454
-15.2303
-24.7482
-22.1728
-31.1641
-43.8003
-34.8674
5.28604
19.5869
27.8628
15.058
6.03587
7.38218
-8.19869
-32.3781
-51.5102
-57.4644
-43.1344
-18.2177
8.34464
16.4164
10.02
6.67273
36.6319
71.9717
99.1496
72.6792
49.0793
17.8028
-7.05473
-19.5879
-24.703
-24.455
-25.4382
-38.47
-78.8325
-51.7895
1.71057
4.98362
-13.1504
-1.80328
20.3504
29.3995
14.2529
16.5009
12.1077
6.73653
-0.638158
-0.722874
-9.00785
-8.28723
-16.2377
-21.1557
-21.1022
8.57154
71.5419
86.8222
40.8946
-6.55305
2.63081
-2.59446
-34.2934
-46.3258
-40.9286
-50.9059
-48.0507
-25.0016
-19.9176
-18.7332
-10.1996
-9.38252
0.292555
21.8791
13.2295
-2.77009
21.533
24.5272
27.712
42.898
19.925
0.616083
32.3099
65.4893
83.1112
28.9376
-1.39727
-18.9476
-73.3506
-70.8159
-38.9987
-11.4542
15.652
3.06705
-7.44277
9.43171
2.56775
-20.5226
-30.7663
-24.2144
7.99934
25.0112
-10.9827
-26.8374
-19.8768
16.7135
24.094
1.60107
3.90509
11.9501
28.1168
5.19105
-17.0548
-5.47663
18.9519
-2.81089
-15.5727
-1.00685
4.72591
18.0478
17.4709
-7.98224
1.4407
25.2892
3.13723
-29.5233
-41.5957
-28.2565
-1.87009
-2.70661
-17.4822
-6.14996
18.6702
17.3255
5.06641
6.70381
10.9275
-4.68157
-16.1265
-14.125
-3.96718
24.9157
38.1457
9.62835
-4.14717
-8.01696
15.4168
43.1656
35.7449
25.441
11.9625
-1.32399
-10.4559
-31.7502
-38.3943
-40.3228
-40.3296
-22.4223
-18.8321
-18.2974
-17.1974
-14.7851
0.768533
20.0628
19.3063
48.3897
53.512
12.5508
0.512655
1.9382
-0.861317
-2.23646
-30.3254
-38.2783
-19.7656
8.84273
19.4594
-0.665813
20.422
32.3579
20.8495
21.1944
8.7945
-13.0566
-16.91
-55.7663
-54.6396
-13.4564
-41.9135
-75.3536
-29.3109
31.9987
51.3049
45.1972
50.8358
58.6823
37.6715
41.7165
31.6193
17.3278
-0.69822
-12.8016
-9.56803
3.663
-4.33345
-30.8989
-67.9594
-71.6083
-13.0412
36.0177
28.8383
0.758115
-6.01486
14.102
0.937691
-18.068
-26.5642
-23.2268
-20.177
-9.15701
9.03197
26.726
24.0144
-18.3924
-26.424
3.87475
10.4486
7.29282
18.2343
37.7418
31.2228
8.34284
-11.0102
-29.1658
-13.3236
3.85213
30.5827
55.1842
37.1494
-2.78035
-27.0621
-91.4522
-100.222
-57.5123
-35.7423
-12.5786
13.5331
47.3097
28.2883
22.5208
27.4751
48.071
55.3919
61.945
85.8026
61.7692
11.6495
-21.8918
-45.5062
-46.0949
-39.2206
-27.592
-5.23247
3.23795
-2.25329
-24.0859
-36.5093
-37.5475
-32.2896
-29.4394
-27.2963
-20.6009
-31.4708
-38.3178
-38.3671
-8.96158
40.8559
42.9784
24.4188
32.3503
50.7174
64.7294
63.0357
34.1585
5.02751
0.335259
-2.53491
3.29613
-32.0455
-47.4611
-13.19
11.274
25.9153
22.2415
-8.29967
-18.8614
-14.5217
11.7859
28.8834
14.0013
-15.6858
-81.0118
-107.343
-48.8364
11.4949
26.7743
17.4868
20.1111
49.1648
59.3375
29.7123
2.96206
-8.80083
-13.0576
-13.5936
-8.25836
-26.2189
-37.1114
-16.169
10.9354
6.10443
21.9247
34.0206
20.5758
-3.4724
-8.54938
37.7375
61.0951
29.6232
5.76191
-12.471
-12.7359
-12.4329
-1.96544
8.00551
-9.25247
-15.8125
-25.3969
-50.1214
-62.5938
-46.0384
-23.0563
-10.8967
-16.3583
-15.0476
-1.76158
-6.5342
-11.4469
24.043
47.3659
22.4617
2.01258
4.64688
-1.96889
8.60781
29.9519
26.7275
12.886
13.1772
14.6092
14.1513
14.7954
15.9996
27.9525
29.7136
14.4841
4.22042
0.241731
-8.36906
-22.8033
-17.2501
-10.1041
-19.4745
-32.6192
-39.0611
-34.6257
-20.5032
-16.149
-13.5171
-3.88825
9.04998
7.02506
20.4502
17.0686
4.23575
21.816
28.986
3.23883
1.23967
-11.772
-12.4344
1.79126
2.16198
-3.46885
-2.10181
4.67047
15.3872
9.96529
-5.13473
-7.74078
-3.44597
6.00269
-8.7044
-10.7536
6.44314
5.92787
-12.9277
-29.6357
-25.6489
7.59851
41.8602
8.20499
-19.6259
-19.6097
-6.58744
-1.15445
-1.07577
28.1137
34.6416
16.4188
7.21524
8.60526
9.52227
-14.5181
-24.1788
-25.9196
-14.7245
2.86851
-4.14817
-13.1788
10.6072
31.8154
21.152
10.986
8.21907
8.83063
9.91742
1.3415
3.95904
30.0992
3.02384
-37.4503
-53.0187
-55.5138
-36.4558
-20.2544
-23.9039
-2.7416
18.188
16.3445
-2.23764
-0.506
25.3176
31.9385
20.2458
18.1855
51.9104
52.2147
2.04683
-31.2765
-15.9772
7.96135
10.7307
18.6802
-0.00990176
-14.0945
-13.5572
-31.006
-24.8381
-12.956
-15.8846
-3.88396
12.4281
18.2304
14.0599
2.56445
-18.0178
-38.3171
-29.9016
-23.8573
-26.0708
-8.07854
0.324459
0.249582
15.8247
19.558
11.8138
8.30693
5.38217
3.85394
24.5833
44.7779
27.084
25.0486
30.075
22.0601
-13.1324
-22.5238
-11.5685
-6.48728
-17.0547
-31.5543
-32.8286
-16.7953
3.35954
11.9089
12.9189
38.1163
60.3509
30.5207
-20.9709
-38.6391
-31.6008
-26.3006
-20.6751
-24.8251
-20.3258
0.435199
7.06037
-5.15363
11.7318
26.4434
23.8818
15.4984
3.63143
-8.21858
-23.3357
-31.326
-20.7462
-12.1548
-24.0637
-36.3747
-29.85
-14.1251
15.9275
46.248
59.8529
71.651
69.5146
31.5442
15.0708
-2.55473
-18.2492
-43.8213
-40.5863
-24.6076
-5.05303
3.43757
-13.9563
5.67604
25.0022
20.6546
16.1373
-3.87254
-34.5593
-48.9301
-49.4929
-42.0232
-17.0368
8.45217
33.4901
42.5694
40.9733
61.4416
59.7072
24.8247
-8.14584
-18.9908
-23.3095
-14.722
24.0063
31.1236
5.8064
-2.91429
-9.07983
-22.9644
-30.3972
-44.3093
-61.3366
-50.3122
-35.5715
-14.8757
2.12973
5.8641
-8.41821
-0.181468
9.55641
12.3411
7.0407
8.95884
-9.72581
-2.42558
25.0797
42.9492
37.4782
44.2924
41.3682
17.109
25.7073
45.5771
20.6486
-6.67619
-29.8335
-59.2082
-53.7302
-42.1398
-21.1776
-5.73991
-3.05982
2.4234
10.2391
20.6739
8.3647
-17.5546
-19.7343
-13.9563
5.04874
30.0038
15.4929
-0.0105225
16.6317
33.888
21.5972
0.808153
-14.5811
-15.5346
-20.6015
-18.1548
-9.10038
-0.238851
7.92495
-14.3415
-12.0935
1.53468
6.36129
13.1316
3.52092
-12.3391
-18.1986
-24.2167
-33.8184
-37.5342
-8.98299
34.4894
15.5706
-20.8925
-16.7032
-5.8972
6.31888
22.8194
35.3126
48.2059
52.8541
50.4842
56.2148
22.3984
-3.22218
-15.2973
-25.7141
-17.9197
-5.76924
-7.83238
-16.7806
-11.7165
11.3687
24.433
18.3026
8.52439
-4.85849
-23.93
-29.1555
-20.5944
-32.6714
-60.7635
-70.3255
-31.262
-10.9573
-21.4007
-16.298
-20.5123
-11.6026
1.63125
30.9059
47.6712
36.0092
39.4236
55.6748
57.0002
34.7978
7.02032
-5.65577
-5.01364
-5.33069
8.43073
2.02656
-18.2662
-17.8434
-1.90748
5.38377
9.65123
3.36578
9.97358
9.93343
-17.5054
-11.572
-2.51438
-9.10541
-19.1274
-21.6912
-19.7801
-23.8261
-27.2917
-26.6319
-18.9201
3.00802
35.5012
37.6496
24.0934
30.9627
31.9801
20.6041
-4.20752
-11.9086
-8.48136
-9.24614
-11.0688
-24.013
-25.3966
-27.7541
-21.3804
-11.8286
-7.95847
7.51607
24.0252
33.5081
34.2155
51.6231
51.686
35.6561
15.2831
-6.89954
-16.6767
-21.6098
-9.85812
-4.06299
-0.196795
-13.4377
-29.0282
-28.6971
-29.8375
-33.2992
-37.0034
-37.0492
-29.4147
-19.2932
-25.8652
-33.8381
-20.6154
12.723
45.9632
75.1605
65.8539
39.2
27.706
24.3772
-4.50818
-5.29548
5.36493
18.8354
34.779
52.664
49.8066
37.7073
1.83109
-27.361
-45.2787
-45.3402
-45.4891
-63.3477
-54.6747
-36.6171
-35.1742
-15.9963
4.9839
34.8299
35.8146
17.27
3.9216
1.39407
-14.9778
-25.5084
4.66309
27.3767
46.7532
38.6424
-1.45102
-29.2933
-27.4058
-24.3914
-41.8167
-36.2747
17.1996
24.0458
4.17877
15.9538
21.8533
8.64114
12.8804
27.5693
41.5368
19.5156
-20.356
-22.9322
3.72706
-0.851051
0.165776
18.6914
16.5086
22.5343
12.1887
-16.7217
-24.2608
-18.5844
-21.4998
-37.9651
-27.8384
2.84183
10.1583
2.20103
4.15501
19.0819
18.6923
-5.90341
-21.3533
-5.08803
17.4244
16.4069
11.8805
3.55362
11.1175
0.0947194
-12.8488
-16.3881
-17.4159
-28.8204
-24.9599
-28.9142
-22.0462
-4.91553
0.925753
-6.77094
-12.2546
19.3488
36.8354
23.9951
19.3777
7.35151
12.3405
16.021
8.68749
2.58246
-4.78362
-2.68882
1.51623
-0.493806
-3.24256
10.8557
9.07388
4.09742
8.689
10.2951
9.70367
11.6558
-4.53965
-3.23447
0.645551
5.94293
3.59083
-11.1286
-25.7609
-42.4976
-47.8191
-11.3518
1.77857
-6.33819
9.53776
19.1194
25.4052
17.4821
-8.51012
-18.697
-5.31445
1.75208
9.06349
16.8293
20.1932
10.4521
-13.2033
-20.8599
-10.6852
15.6999
32.3057
16.5921
3.86299
-1.24027
-7.49669
-4.30629
-6.45126
-15.2527
-22.1131
-15.6541
-9.58768
-13.8733
-8.32941
0.233357
7.83883
27.3392
36.174
12.5699
-0.243366
-8.34386
-21.7205
-24.5389
-7.70925
-8.16945
21.5851
35.1273
4.08838
-11.4577
-4.19944
9.64158
-0.0326122
-25.575
-41.9019
-42.538
-38.8246
-35.3262
-8.96068
19.7154
51.3229
53.9913
41.7466
38.0004
21.0856
15.8833
-9.08169
-31.6918
8.512
34.8589
21.441
-6.38634
-14.2887
-11.6147
-10.9874
-9.25616
-10.114
7.00263
13.7029
40.642
32.4517
-1.38732
-6.97723
-14.6491
-19.9169
-8.47368
-16.8203
-51.6006
-81.7962
-45.967
18.8993
18.0945
14.3221
21.7931
20.624
-0.241332
-4.31691
-16.4862
-27.3978
-32.4337
-12.514
12.3231
24.1459
15.0049
10.3802
18.8176
22.2522
31.7817
34.729
14.8703
5.4299
9.16434
-5.60297
-9.70835
-7.2258
2.77611
4.85484
-0.178716
0.94466
-7.8218
-19.3236
-19.5478
-9.66192
-5.8448
10.8657
22.7605
14.9859
-7.98748
-6.13225
-13.9563
-30.0829
-43.1302
-29.2696
-7.89318
-3.97155
1.22643
5.36285
12.6266
18.201
5.06352
3.15502
17.0188
30.6063
58.4182
55.9123
28.8032
-13.2665
-23.4266
-31.9779
-32.1831
-40.4657
-10.8574
-1.88203
-8.00958
-13.9365
-9.43252
7.53993
3.13864
-1.34275
18.9184
23.2188
20.515
-2.35789
-38.0116
-43.6946
-35.2105
-5.25924
23.3131
31.8856
38.6226
52.3916
36.0794
7.79566
-8.00463
-6.3173
-2.07014
1.94584
10.3797
13.7313
-5.45917
-23.7748
-28.7901
-26.895
-26.0453
-30.6444
-24.455
-12.0736
11.9324
16.7928
-6.19589
-15.9938
-4.79898
7.50079
5.86528
15.4483
25.2709
9.96798
-4.01996
-0.695251
-2.35642
-7.19639
-9.68715
-4.64034
-1.35647
3.85239
-14.4638
-3.05897
38.0793
45.527
20.7343
1.16801
-9.62566
4.9307
7.63307
-0.263601
13.8155
44.7405
28.1903
-7.79932
-16.1191
-17.6851
-24.3821
-38.017
-34.7444
-26.6965
-10.0617
-0.106595
-14.8044
-13.022
4.64301
-4.96933
-17.3701
-44.5257
-23.0516
19.9097
-8.85481
-34.4154
6.18183
62.194
79.6194
70.4727
50.1826
27.4073
-1.56295
-35.3133
-49.4676
-41.9607
-42.2024
-21.1098
8.9786
22.7179
44.1353
72.2213
57.4744
13.8065
-11.4496
-26.1033
-22.8459
-42.8401
-54.7107
-43.6735
-13.6434
9.30867
11.3578
44.1698
86.0427
52.2182
2.28831
-34.9032
-55.3419
-44.1748
-30.3035
-12.0155
3.25298
1.6486
1.14499
-10.836
-13.2782
-4.19318
-8.35128
-10.3544
-15.5676
-8.53928
12.8457
29.3253
24.1646
18.6319
12.2551
8.89551
11.7679
19.3212
8.12361
-5.95839
-8.80244
-29.2271
-29.6369
-9.91943
-23.6463
-39.7684
-16.9139
-4.43769
-0.35747
15.9176
32.7054
23.2812
8.30086
10.1407
27.1023
51.2304
42.2829
18.0474
13.5434
11.6868
5.02004
-2.09399
-6.66879
-10.9207
-14.6764
-12.921
-8.38653
-0.653526
12.7385
17.4494
37.8868
5.88813
-45.2738
-41.2174
-35.493
-51.6384
-43.3938
-28.0611
-31.5799
-27.5398
-5.38005
21.8426
17.1499
6.1264
12.8187
22.675
18.3749
1.55247
-0.481413
-8.81789
-34.5744
-29.1508
1.89734
8.12402
10.5118
10.1958
22.7883
41.4302
39.7858
15.4751
-2.08969
8.82695
19.9927
23.9195
23.3792
17.2251
12.4293
13.573
8.62051
5.48004
-8.63163
-20.1992
-13.7608
-9.5878
-12.0844
-18.0215
-36.3963
-42.0518
-38.5625
-16.6544
-14.7299
-12.209
7.82275
24.3451
21.8141
13.1323
13.0523
17.7847
-3.28765
-19.7809
-23.0414
-24.4283
-37.3056
-39.5225
-19.4154
1.47552
11.8641
17.0595
52.6973
67.6348
53.464
49.761
32.4301
-5.42809
-8.87293
2.65648
18.4346
-2.53902
-10.8069
-13.3503
-25.7619
-16.887
-0.0393193
15.2763
10.4604
-1.08005
-2.5602
-16.8879
-37.1592
-46.7954
-43.492
-38.7748
-32.2578
-12.4045
-10.8764
-7.6049
-15.4675
-7.98392
1.25812
13.6394
23.2503
36.0376
50.7418
40.9642
29.9063
11.9487
-4.65377
-11.0961
-12.7134
10.3166
22.9257
-2.57531
6.94242
12.1791
5.14679
0.941623
-10.9334
0.652552
16.4882
6.24478
15.9247
9.52202
-13.0196
-17.0749
-19.8943
-15.8723
14.5816
1.80239
-12.879
-13.9444
6.45318
44.6619
33.1474
-6.17129
-28.0656
-36.8018
-35.9669
-28.5425
3.42422
14.5875
-10.1387
-13.0379
-17.4245
-8.48862
3.13479
5.20833
3.23046
13.3725
19.4316
11.6392
-8.22764
-27.4481
-14.5818
5.10782
8.50132
17.931
15.1583
11.6771
-9.2723
-15.1368
-8.81229
-13.4433
-4.52992
-0.95931
10.3026
26.7418
23.3646
18.2593
20.3413
25.2664
20.9309
-13.9832
-26.1665
-12.4738
-6.01184
-1.4818
6.36297
-6.18687
-22.509
-17.2863
9.42962
21.7519
13.7315
3.15534
8.63315
8.02933
-17.9002
-30.3692
-32.0397
-38.3919
-25.9056
-2.23311
-17.4207
-2.63615
23.0952
40.4857
55.0164
35.2862
40.2162
56.806
34.6957
-8.88692
-26.4947
-36.1843
-43.8563
-44.5061
-31.9539
-7.08465
4.06054
0.43369
-9.53414
6.3664
23.7417
2.4482
-0.0187218
-16.7324
-44.9976
-21.6576
-30.509
-50.9441
-20.174
14.4431
23.308
22.5449
14.5208
10.3054
13.7903
22.9622
32.7704
32.3721
22.5261
19.0878
23.2425
31.9832
20.8958
13.4098
11.0687
-3.36927
-11.1268
-6.59271
-11.3261
-8.04268
-5.3525
4.90042
5.54818
2.08093
-10.5362
-16.2032
-30.7016
-36.1019
-42.1973
-67.6255
-54.783
17.4872
29.1812
16.7604
11.8323
-2.53774
-1.00587
-6.8864
-16.4086
0.181273
20.1031
29.4453
13.0041
-4.12544
-0.161117
9.46688
18.9408
4.73083
18.0621
65.8694
39.1942
-30.8437
-32.8995
13.1018
22.7456
1.62385
-8.51964
-18.8605
-28.5751
-32.9821
-34.1436
-28.7127
-14.0888
-8.81191
-5.0808
-4.97085
1.79405
26.4734
28.7069
-2.29045
-1.16865
10.6969
17.4778
-13.9465
-18.0812
9.44673
22.8043
23.2696
23.1027
19.0685
17.4371
4.28011
-1.9168
-3.92973
-20.1741
-32.4909
-33.0053
-31.888
-18.0515
-2.97119
16.9424
22.3919
-3.49818
6.93494
22.0865
31.9075
12.0009
-3.6941
-2.51996
9.81173
13.9981
4.19281
3.57671
7.41464
12.2342
13.9818
16.6569
19.5648
0.976844
-30.8463
-46.4511
-42.6161
-43.7319
-57.523
-40.0406
-9.82092
7.51943
28.2462
54.634
37.0112
12.9511
8.05599
-13.22
-14.5757
-28.5756
-39.2472
-18.9264
-4.35068
7.20626
20.922
27.7481
24.4785
34.1094
22.8926
8.11084
-2.47336
-8.77167
-15.8393
-29.3747
-25.7097
-21.2006
-25.1774
-34.2864
-10.7891
58.3923
82.2004
50.8107
15.2619
21.4839
26.3429
0.339723
-9.53982
-12.9439
-10.148
-20.5136
-28.2578
-9.91021
-6.31259
-19.2605
-10.435
-1.46808
6.21635
21.4784
13.7003
-7.42336
-14.8378
-5.20998
-5.21941
-23.0335
-11.3994
15.1201
18.741
18.9725
17.5802
9.31503
2.60111
-14.9522
-37.7015
-48.3025
-52.1865
-32.934
1.6495
20.6457
23.8881
3.25684
-4.17576
-8.77651
-0.448871
10.3241
13.0561
37.9658
38.2667
25.9666
27.0743
43.3362
36.4454
-1.27635
3.19481
23.9418
49.0206
39.7839
-17.4757
-46.7797
-76.5869
-83.9193
-65.4103
-40.1502
-13.2895
-0.797489
7.91277
20.8741
12.046
3.89266
3.22852
-11.9909
-12.9577
3.11182
9.9351
2.78577
-18.9042
-25.0307
4.33636
14.7006
33.7307
47.3039
37.2557
27.3218
12.1413
-7.3305
-23.5012
-39.545
-34.5875
-32.8026
-30.4907
-5.63831
24.5948
45.7444
46.1189
33.0974
16.6048
11.7458
7.46548
-1.15715
0.0786925
4.48415
-1.60955
-6.18858
-8.65741
-11.9946
-8.30485
-14.0182
-23.1021
-13.2914
-3.67306
-12.7246
-18.0256
-3.20551
-0.372257
15.5328
25.1404
-12.6888
-15.9472
1.70162
7.66235
11.1186
10.9661
-0.649148
0.422638
-0.747831
-4.97124
-2.76591
14.2021
-7.52997
-22.5848
-17.3664
-11.8855
-19.5134
-14.7909
-13.4027
-14.1549
16.536
44.9246
50.892
39.529
12.9447
-14.8656
-13.8833
-5.93863
-11.777
-21.432
-23.0413
-8.37754
17.9153
27.3115
10.7825
-4.90339
2.2243
6.11699
-0.602868
7.25432
12.0095
5.30999
-9.46744
-22.096
-26.6079
-6.44137
12.6192
18.2182
24.1461
19.1019
-4.5271
-24.3286
-23.8253
-2.30635
15.5343
21.5019
26.3381
24.9713
-1.08794
-21.5764
-32.8486
-31.3247
-12.9818
-4.0891
6.95784
17.8649
1.72463
-20.8106
-14.1825
-1.49531
-0.244309
2.30475
7.99797
2.31302
13.882
49.9587
22.9317
-16.0528
-28.6083
-38.887
-39.3451
-39.4268
-25.8342
-15.1507
-10.1422
-4.97489
10.7178
44.6709
78.5484
72.0948
28.0115
0.59009
-0.986425
4.91464
-23.8327
-46.7369
-41.9031
-32.4339
-8.76368
22.9687
44.0302
25.3044
11.2662
12.559
15.6909
4.18455
-4.98553
-11.2018
-22.3456
-19.5881
2.99777
6.30424
2.21126
-5.76686
2.97189
-2.23632
-10.6851
2.98094
6.80029
2.11881
0.199496
7.56218
5.86342
-1.83524
-8.15746
-4.14722
-4.92758
-17.8036
-41.0435
-31.0152
-4.90899
7.47406
11.547
-0.833195
-1.3044
1.3364
5.09454
-6.14601
-6.9808
-5.62575
9.43881
17.9609
15.7741
22.0082
25.1376
11.9363
0.0285368
-8.63376
-7.98975
10.297
-0.899355
9.78982
42.4379
35.0347
12.5263
0.805812
-5.51832
1.90967
-0.842622
-24.1428
-37.4885
-28.4255
-29.3077
-27.5618
-27.2197
-19.4376
-7.82462
0.809142
9.39686
12.4795
44.2738
39.7827
-1.14388
-2.53334
7.80253
9.70096
-4.84858
-26.1437
-33.2427
-35.8768
-57.0813
-56.1368
-22.0034
4.61456
30.3443
39.8554
42.6452
59.2873
55.9215
16.9856
-1.68056
1.68182
5.59847
3.04685
-0.42838
0.580378
19.9836
28.1714
32.1717
30.3473
32.5769
4.34117
-42.5474
-39.9031
-17.2896
-17.0409
-21.0326
-32.3887
-37.1094
-15.6315
-13.872
-46.4582
-45.5907
-20.461
-8.28613
-20.8632
-20.2941
0.690088
25.8858
57.8985
46.3424
29.867
41.9678
25.4906
1.43547
8.11195
6.18184
-2.24233
-7.11541
-10.094
-17.268
-4.61698
2.51022
2.21983
-4.64392
-3.98958
7.36994
18.5416
12.3957
-9.08956
-6.73154
6.48729
8.07022
0.898297
-15.7616
-16.3607
-19.9835
-11.3601
-3.19515
-20.2956
-17.0414
11.9639
19.4849
6.38045
4.82348
21.6342
34.7441
39.3637
28.7036
-11.3255
-29.984
-24.8819
-16.3646
-10.0915
-16.2572
-11.425
-6.8336
-27.9293
-31.0861
-15.2849
-5.6437
6.73234
13.6208
5.7578
0.821544
-9.14777
-6.19708
8.54578
27.7483
56.6848
42.5031
5.88478
-9.95081
-3.53689
-0.655974
-5.21446
-9.5099
-12.4721
6.95396
48.9615
28.6583
6.23535
10.6421
9.62668
-4.06508
2.36722
0.467494
-31.4273
-64.7641
-50.7708
-2.50084
16.5791
-14.4972
-27.0965
-10.0433
9.4509
-0.0949177
-15.2839
-25.7626
-36.2606
-9.83818
15.1683
20.4701
26.1002
20.8378
17.5187
16.4207
15.9545
21.5431
6.16521
-5.10373
13.2322
60.6035
42.9901
14.6466
-5.36746
-10.4496
-16.6939
-13.4699
-17.1689
-25.9846
-39.1205
-39.3265
-26.523
-18.7027
-19.414
-1.08438
18.2031
27.0048
3.60028
-20.1765
-18.0148
-6.69225
18.2742
18.8153
16.0046
20.0169
9.40677
-4.61539
-7.72952
8.11546
27.3602
20.4968
3.03749
6.51446
14.6521
-7.41579
-22.8695
-17.2769
-8.51364
-8.74476
-15.6972
-14.3106
-0.803989
19.1196
10.0832
-16.1011
-9.46795
-0.900444
22.3053
33.2099
9.66204
6.19187
17.8628
21.5543
-5.81886
-21.9476
-25.3541
-23.1661
-22.9352
-16.4965
-2.11391
10.9608
20.6226
3.57016
0.790407
6.85938
7.76004
-0.62593
-18.7505
-16.7682
-29.9456
-49.6653
-39.3981
-30.6392
1.38616
28.197
38.2847
33.1122
52.1774
53.9599
32.2711
19.7179
10.5839
-3.17079
-15.8892
-12.3417
-10.3728
-8.71662
-8.9673
-31.6389
-7.98866
22.2065
14.6663
14.1658
8.44532
4.40063
7.35844
4.07115
-19.5715
-26.5951
-23.5627
-26.9152
-17.7748
-4.82777
-1.53972
3.29861
7.22029
11.0547
1.45308
0.648386
4.93681
-6.45727
-11.1872
-3.73195
-2.46096
-8.60897
-15.9433
-10.3796
-5.42857
-2.73512
8.97028
17.7541
17.4118
29.6798
40.3687
23.7064
-5.41737
-9.14229
-3.82843
11.256
17.8992
6.89874
3.52092
-1.987
-0.436895
-7.38894
-8.94113
-14.1166
-29.4581
-25.8996
-7.33724
-6.83325
-17.5043
3.56977
13.4199
7.73364
14.8582
-4.32977
-20.1949
-33.4804
-25.1376
-14.0995
-18.9274
-13.3828
14.4122
16.874
20.2104
12.4028
40.0642
59.9239
33.6907
16.5044
19.3235
-2.4531
-18.8496
-4.40532
1.90211
10.4913
11.758
7.09887
1.92979
5.63632
-2.24313
-24.7397
-35.8255
-15.5304
-16.3494
-8.2267
-8.49853
-23.2675
-26.9851
-11.4606
-11.7432
-21.5893
-7.58471
9.28075
22.8754
9.62558
-14.1633
-2.50121
21.4783
16.9143
19.6434
30.1776
24.5981
7.61846
-10.2426
-14.4381
-17.3266
-17.3941
-13.8007
-13.5822
-6.51366
-0.961266
0.82425
-11.4033
-11.6475
13.3802
40.5242
44.207
3.12905
3.3738
31.072
37.4731
-1.25059
-16.1945
-11.0181
-4.16078
-6.42525
0.075265
-2.73564
-22.1957
-24.4322
-37.731
-41.7407
-40.5803
-25.0641
12.3524
31.7554
23.0549
29.5174
23.4295
3.49424
-7.26983
14.1237
26.9022
25.5687
17.1469
10.0813
0.979039
-10.5876
-10.7808
-11.5037
-3.50134
4.89954
15.4031
21.573
-1.876
-17.4885
-21.9121
-35.6093
-33.1341
-40.1867
-43.8135
-44.5263
-3.65199
33.0538
42.4356
22.9607
7.40692
6.85575
13.0434
7.74561
0.813221
6.30521
18.8718
5.83478
-1.42808
2.15832
2.93376
10.7412
12.035
12.0645
16.8434
15.3365
-4.2962
-20.8863
-19.5787
-9.57333
8.90513
31.752
5.98678
-27.7498
-4.08526
4.87913
-19.4336
-25.0599
-25.8613
-22.3744
-16.0579
-4.83734
-3.22974
3.36578
11.2443
13.7109
13.1541
9.72163
5.34835
3.04539
-5.08872
-13.2681
-9.40606
17.0156
15.0477
4.80699
13.3428
16.5949
8.63804
-2.27915
-5.49561
-11.5107
-12.3951
-10.5257
-10.9318
-7.01508
-2.84325
1.27694
13.2708
25.5718
19.1406
9.45891
4.66084
-2.35461
-10.4062
-9.59806
0.380654
-9.48251
-19.6222
-16.0889
-1.90771
11.9608
14.0448
12.1195
21.4135
19.4425
11.5404
13.1111
-11.9067
-35.0365
-38.056
-23.1228
9.52807
23.2665
10.2931
-2.59938
-17.8753
-20.5742
-23.5328
-23.8178
-24.5232
0.897244
14.4037
11.7174
8.17118
16.4979
15.7868
1.66529
2.37561
1.49914
-0.363253
-0.285587
18.2422
22.4521
-0.444611
4.13694
24.2368
47.467
57.0087
31.8175
-8.72501
-26.7586
-25.2844
-27.1229
-31.7228
-30.328
-31.3546
-28.8006
-25.4273
-13.3436
3.08858
1.79399
-7.93726
-2.98274
11.4973
10.9446
4.44472
3.36944
1.89627
4.34512
8.42545
-7.92483
-14.7137
-7.20792
-3.6172
2.11132
8.11462
3.29363
8.72682
16.5319
17.1606
16.9367
11.1405
10.8935
23.2393
21.764
4.44751
-5.25389
-3.556
-3.36483
-3.38595
-1.11185
8.22508
10.1346
10.9225
-3.10686
-13.092
-8.28245
-14.3181
-40.9933
-42.6932
-21.6078
-5.27403
-2.86827
-3.30975
0.150216
6.01849
1.67698
-1.82342
1.21816
9.26123
8.65568
12.8953
13.4793
3.33766
-2.70937
-4.79847
9.80111
18.1921
-9.23505
-18.7053
-11.3792
-3.83464
2.61332
10.3711
15.1789
15.1578
2.01199
-2.73433
1.69602
13.5677
21.3585
8.60781
4.92309
19.6688
26.7705
-4.58659
-40.817
-43.4434
-2.81646
5.27265
-8.87819
-12.4044
-3.65213
-6.02947
-19.7007
-12.9317
-0.211643
0.993655
-3.084
-10.3723
-10.2474
-7.52499
-5.59094
-1.7634
-1.74767
12.933
39.6518
17.7315
5.5002
2.09797
-4.19098
-1.34802
0.0747162
-7.68322
4.31445
18.0753
14.8636
4.51716
4.72372
2.91902
-2.59368
-2.05696
-3.23472
-16.0704
-5.53552
6.8768
-20.2861
-18.0438
31.534
43.9469
15.7724
1.37658
-5.42852
-8.37409
-17.5055
-20.2682
-11.1246
15.2353
13.7112
2.56583
1.18116
1.44936
-5.39931
-9.1909
-10.6557
-2.25141
8.11066
5.16201
-11.4188
-15.5478
-2.85098
-5.8537
-6.01659
3.93049
11.785
2.96137
3.14783
2.7582
9.31923
11.023
-7.04488
-27.2983
-45.8739
-50.3401
-39.7783
-31.7226
-7.5365
22.7638
33.1079
39.1336
39.2178
32.6345
19.3576
8.04689
-3.73307
-3.60891
6.92401
19.5926
21.2984
3.99251
5.27061
10.6133
11.6781
7.24583
-0.669001
-12.8908
-2.66769
14.478
11.309
-0.440058
-9.0576
-15.8507
-16.8489
-17.9203
-16.4206
-17.2829
-31.7813
-25.6236
-16.4922
-12.3272
-0.98732
5.48468
21.3589
35.0014
30.5229
43.39
35.6019
-23.3113
-58.52
-61.3882
-11.8477
5.91405
10.3532
21.9066
-1.04282
-19.3631
-7.14341
0.243777
3.97982
17.2913
16.4385
12.6265
14.3406
1.56218
-0.481321
-9.11579
-22.3267
-2.46466
16.1594
23.6826
12.5406
5.89053
-4.7519
-9.19223
0.632261
8.70459
6.85249
-4.01119
-6.29999
0.561156
7.34241
2.95089
-11.0951
-5.31326
-1.36241
-7.86283
-17.5929
-20.5567
-11.3107
-5.83907
-11.3161
-4.02853
4.01798
14.5095
28.3221
32.647
30.1141
12.3043
-4.8855
-17.3031
-34.6193
-35.8776
-27.6993
-22.4816
-18.5227
13.1131
49.6907
54.2308
26.1175
26.7841
38.1552
19.6609
-8.79817
-22.5077
-22.9699
-28.3303
-29.0839
-20.8056
-15.8627
-10.8818
4.50768
22.5523
21.4485
2.58286
-4.91956
-23.1276
-44.6788
-32.4412
-12.8769
-7.47439
-10.9054
-7.60123
8.27472
8.67628
15.8923
27.1274
21.3961
8.68732
13.3238
10.3688
6.56819
8.12398
11.4629
19.7701
24.1642
18.1154
4.50376
-8.45846
-3.81845
1.62718
8.83877
13.3834
-0.620446
-11.4511
-20.2631
-45.8222
-42.2126
-28.0507
-6.70289
38.5507
93.2764
98.6356
55.2134
-5.4515
-51.0009
-89.0278
-75.7605
-63.7115
-101.682
-89.6943
-19.8934
31.2282
51.8736
49.8113
34.0953
27.2294
12.6649
23.2266
17.0606
0.861759
1.06596
18.7221
-10.3725
-10.7017
-2.35426
25.1576
52.0696
98.4693
108.338
36.7714
-66.1548
-112.048
-91.7805
-39.4914
-3.17782
16.9487
17.5301
7.35082
-1.27013
-26.2718
-64.4685
-88.8959
-50.4117
4.36145
35.5793
57.1186
26.4146
-12.7769
21.7462
74.4743
63.5946
26.8593
12.5285
-5.7097
-10.7093
-15.5171
-18.9937
-25.3228
-18.2777
-1.82294
-15.2244
-22.2272
-13.722
8.78281
30.9712
21.1115
1.79657
-8.73379
-12.6798
-16.7815
-9.15497
10.7828
17.1801
5.05247
-0.721563
10.3483
11.443
-8.14373
-16.5316
-22.5081
-19.7765
8.34574
94.7805
70.1507
10.8726
-10.7582
-16.5603
-5.6952
-14.6499
-33.7371
-33.6646
-28.7698
-27.2924
-18.9918
-18.7511
-11.4758
-4.74811
3.71487
16.887
24.0972
20.9986
7.81409
-18.6457
-15.3801
-7.89017
-12.657
8.31353
2.62721
-10.6334
1.41011
6.72138
-3.40237
3.02696
7.03467
5.90033
10.3852
6.04069
19.7414
31.3925
23.5568
17.7338
23.2443
-0.994407
-17.4222
-7.10753
-5.73543
-16.9178
-20.1329
3.5205
15.7708
22.7647
32.9372
11.6197
-7.43756
-9.10324
-9.68883
-7.87421
-6.20832
-3.12584
26.7772
27.4668
-25.0986
-46.8289
-37.3626
-40.9233
-39.5595
-28.1467
-15.4059
-14.6576
-15.2327
-10.7433
-1.36386
7.51382
15.5253
26.4933
30.4359
22.7397
21.5202
3.33776
-20.0798
-19.1813
1.31716
3.41618
5.40211
16.9894
28.4303
30.6907
30.5424
23.6529
18.2118
-4.05303
-14.079
0.258537
7.83315
-5.99919
-10.3497
0.90786
3.84246
-0.655227
-7.40535
-4.60144
-11.1218
-12.7736
-11.8217
-9.12427
-7.82718
-12.3884
-19.647
-19.9141
-34.9097
-12.7414
21.4902
41.8684
32.6545
26.919
29.3483
20.4741
-7.80806
-33.3225
-39.6319
-23.4705
-12.7636
-11.142
-2.49861
21.7438
39.9895
20.1271
-8.51072
-9.29177
2.87507
3.27298
-9.12088
-21.8312
-17.4449
-0.168525
0.133349
-5.96729
-1.18205
4.05498
7.62194
7.36482
13.5137
26.7023
29.6496
-10.5665
-36.0964
-17.3034
-7.58526
-10.1605
-1.88439
6.60261
9.76592
-1.48111
-8.51858
-7.31758
-4.69971
13.4525
27.6562
33.2239
34.863
13.8922
6.79174
-9.49424
-27.5671
-13.6742
-6.22945
-14.1304
-4.72124
-3.12788
-1.11211
1.87227
-2.87244
-1.02353
2.64887
-0.888567
-1.65979
-8.69516
-2.25366
11.1324
1.26769
-11.2275
-21.3287
-23.3029
-8.92504
20.4207
41.4038
42.9153
24.4719
-12.0325
-31.2585
-20.4033
-12.0962
-7.55548
11.3821
9.22872
0.430708
3.25515
6.25199
5.02397
-3.08092
-9.53421
-11.1553
-21.6169
-22.4366
-15.7744
-12.5605
-4.36471
-7.98162
10.2549
33.6843
42.5223
54.6201
17.0679
-27.6629
-30.0787
-14.5561
-9.1839
-8.3887
7.33191
-3.96702
-16.993
-17.1338
-3.62928
-1.42196
-10.0928
-6.5651
2.51037
18.8087
17.5538
15.1904
11.3228
-8.87865
-1.04823
5.38854
-3.4095
-12.769
-7.90945
-4.40666
-10.9346
7.40934
25.6205
32.6152
33.0763
30.5117
12.7625
-19.8255
-30.7268
-21.3825
-3.89279
9.76947
14.2115
22.7036
32.3161
34.4021
26.9074
19.7195
0.675188
-13.7616
-29.1246
-39.1123
-39.772
-38.0129
-49.1856
-54.8251
-15.1721
-4.03571
-11.7018
7.09476
8.0362
-2.16739
2.95764
2.48705
-4.09232
-24.8348
-18.3282
16.7449
29.3899
8.1885
6.60319
1.05522
2.25484
15.2609
33.6038
34.5231
12.924
27.3861
33.7019
12.6813
-8.20669
-44.7851
-71.1893
-25.7243
22.5102
41.6343
39.0287
8.74779
-13.6413
-2.33458
4.57745
7.25339
6.85772
1.91102
-1.71829
-10.786
-32.6292
-30.3322
19.1415
60.8171
60.6775
34.6014
13.7558
8.0988
24.1419
-3.84294
-43.9724
-60.0404
-61.9525
-54.7038
-45.4891
-37.6334
-30.0358
-24.4323
-18.6127
5.98401
39.1111
28.2494
-8.10351
-20.6337
-8.92139
-0.422496
7.12538
-14.959
-38.0035
-4.30513
32.559
43.7598
56.5028
48.6872
20.8125
25.2797
25.5081
8.82055
21.0121
47.3739
23.1234
6.44009
-26.3145
-49.6029
-23.1567
9.56288
10.8018
1.47299
1.13588
6.73537
2.75475
-27.0244
-42.5523
-22.0092
-12.0599
-5.63266
20.9225
73.6846
37.8969
-21.4972
-40.5206
-32.017
-15.3119
-20.2321
-29.3038
-15.0391
-18.656
-32.9597
-36.8424
-16.0447
4.56785
22.164
34.0862
28.2079
48.2055
53.5992
9.32237
-47.3498
-43.0189
-25.7291
-13.7196
6.41343
18.4379
11.9609
3.3162
-10.2881
-7.43517
-5.93669
3.64354
22.9164
21.9843
11.5987
36.3076
38.4598
9.62958
-6.27808
4.58063
16.9903
20.4838
10.2501
4.42916
-13.701
-28.2309
-22.9588
-25.1048
-20.4647
-10.6463
-12.6223
-23.8617
-35.4585
-27.4765
-2.6216
4.21919
23.9487
51.6715
43.3917
32.5291
24.4246
10.266
5.07239
-12.6977
-27.0652
-27.4821
-27.3769
-18.5726
-15.0026
-15.0199
-2.60361
2.65235
1.1733
3.47391
1.60747
-6.17219
-7.53048
-5.25565
3.44688
-2.88604
-6.52719
11.5293
18.3471
12.2346
5.16888
7.68345
0.863156
3.76832
5.59721
9.00072
23.7691
16.4011
-0.495743
-16.9744
-31.1961
-26.4476
-31.9946
-25.8032
3.56733
13.8878
8.36085
10.5645
23.4402
50.598
33.7261
2.19418
2.83962
-3.75238
-21.2761
-11.3662
12.1655
16.2188
4.43387
-5.79874
-6.99872
-4.54028
-2.2516
-6.76732
-8.16165
-1.64282
-13.132
-26.8192
-12.3344
-14.1849
-8.71601
5.44551
4.88563
9.22568
29.5435
18.9846
-11.6239
-23.3623
-15.0789
7.76712
20.8487
12.5581
-4.64783
-25.8503
-25.3083
-12.5523
-3.76999
2.68905
-7.48125
-7.57533
4.86301
2.83132
2.74391
18.6672
38.4117
33.8596
0.0941743
-12.631
6.68981
28.9173
19.5896
-7.89664
-11.4283
-6.07465
-17.1582
-22.0444
-13.3522
-2.59504
0.716896
-13.3783
-0.514578
31.9398
49.0008
29.0111
15.5316
1.33913
-18.2209
-25.3447
-29.3002
-42.1209
-42.5691
-29.503
-10.4486
2.53446
-1.55937
-5.27226
-7.57899
-2.96592
1.15813
11.2844
23.1082
39.2616
27.6187
2.09151
-21.2643
-12.9366
6.29821
16.8656
12.7215
13.6489
31.6615
36.7905
20.4489
11.8528
-8.33245
-19.4421
-20.4396
-4.73336
12.9287
15.113
-12.0916
-35.8751
-31.9592
-10.435
-5.41251
-6.76278
0.836532
4.92591
0.663669
-8.89657
-9.88117
-8.27262
-12.3044
-9.92395
3.20857
25.9293
49.3156
24.7443
-12.4641
-9.13795
10.4017
4.29506
-12.034
-16.1098
-19.0022
-16.6984
-17.4715
-13.5608
-19.7006
-36.8372
-43.5264
-9.75825
42.4485
42.1643
10.7666
6.3197
7.04677
25.0376
36.0803
23.5753
13.1388
7.07765
-3.09966
-2.30564
4.11208
5.65425
7.86367
4.57302
6.73452
19.6363
13.3631
-2.99883
-18.5508
0.150089
40.3985
16.9584
-25.5907
-45.4027
-58.3141
-49.8763
-35.5265
4.18123
41.1002
21.2737
-18.9229
-31.6209
-17.5904
-10.1477
-5.8082
1.99656
15.7259
16.1264
7.53709
0.00994483
2.67669
12.7862
11.6287
-3.55499
-5.03006
-6.19575
-8.63418
-13.2917
4.68186
29.2398
29.4892
10.8705
-6.96753
2.20308
8.35758
7.96537
12.1448
5.93543
-1.96605
-12.1276
-8.37887
10.1581
21.7596
16.3804
10.4744
6.09086
-2.00142
-31.6714
-49.9457
-50.1121
-37.7973
-22.5083
1.37149
34.3998
54.8723
29.3656
4.82844
6.92934
3.71519
4.46461
13.4601
19.8925
5.243
-5.46377
-22.6591
-21.7217
-14.3357
1.86737
0.849458
-7.5094
-1.40869
5.77086
-1.53371
-14.7516
-21.1605
-0.422947
17.4975
2.07668
-10.0955
-5.37374
-19.0257
-12.0458
-5.5192
1.18697
10.0623
7.53243
22.8347
42.3416
-7.10453
-46.2181
-33.9652
-9.20006
8.57245
9.93416
8.41103
9.93491
14.9795
33.378
33.1287
16.1267
4.40376
-11.2831
-8.14936
4.09159
17.4776
28.1496
-15.3449
-59.4195
-30.4533
4.73852
21.4005
17.9597
6.90289
-4.52298
-8.11495
-14.3808
-22.7439
-18.7366
-5.77383
1.78087
3.62574
5.61879
9.99962
1.74901
-10.3125
-25.6798
-14.2963
3.71559
25.0029
29.8094
21.4793
26.788
28.3629
26.2685
9.3565
-9.14439
-12.0196
-21.4129
-32.7982
-27.4252
-15.1181
-23.3427
-24.9359
-11.1843
7.13352
10.1667
9.30653
6.67475
3.81396
-1.47694
-4.75374
-14.579
-19.8299
-17.4177
-13.1233
7.01144
29.8956
21.9665
18.3756
5.5481
6.95365
22.6073
28.6292
37.4108
38.1651
14.4001
-6.41111
-20.6899
-25.532
-8.94659
5.36861
-17.0992
-38.8669
-36.4649
-11.3077
-7.58643
-13.397
-2.20363
10.6697
16.4402
8.84344
1.74905
1.96508
5.39629
8.2658
10.5153
12.9367
4.59633
-10.4297
-15.8238
-18.4189
1.56715
22.2548
13.3567
15.4011
39.1404
18.3395
-18.7542
-25.8897
-12.4637
-19.5906
-20.2294
-18.8041
-34.7076
-56.752
-35.2771
10.0892
44.8187
66.703
42.2425
9.36752
-4.25303
3.99567
4.20554
-26.2881
-44.0642
-25.7563
13.2089
11.1644
7.19246
16.0367
35.1933
34.4258
18.5203
10.5041
4.0447
-8.38954
-19.908
-25.0645
-12.4249
2.3674
8.64381
-1.02608
-10.0994
-15.6839
-3.78441
22.2873
26.5695
20.7274
13.2026
2.42746
-20.5119
-38.5536
-37.2232
-31.7674
-35.0673
-35.5087
-18.1711
2.7785
14.253
-6.63751
-0.282977
14.9184
24.3983
37.5014
26.6408
10.948
15.0051
15.5294
5.3924
8.34363
2.61461
1.23453
1.18617
2.82253
16.862
23.4184
23.5331
-1.28998
-8.54834
20.0163
51.6095
35.3678
-25.1514
-50.8428
-44.8854
-43.252
-37.7799
-32.2747
-12.9762
-10.0928
-9.25095
-0.752056
8.25321
8.81877
7.75673
-14.7664
-34.4991
-21.4269
-7.5157
-2.77665
-24.7441
-26.0849
13.6351
26.7606
34.2887
28.4459
22.0731
27.8686
28.9711
21.7716
8.51867
-0.648827
5.7248
13.8232
18.3449
32.2576
24.3003
2.84124
-1.86503
-0.0834873
1.73807
0.917921
-27.0029
-41.6815
-39.8119
-25.1336
-13.2899
-12.9662
-10.439
-11.4116
-12.0988
1.43755
8.09163
8.06645
-2.9764
-14.079
-7.23934
-4.30012
-3.25372
-1.83168
-5.89898
-3.4706
23.6091
40.7552
34.394
17.4125
0.819539
-4.68892
-10.603
-2.46382
5.55021
12.1009
6.54012
-13.3304
-11.1839
-10.7573
-15.5002
-8.56718
3.32907
15.3086
24.0137
26.5182
33.4696
14.8802
-21.3419
-48.1158
-47.7769
-19.241
-0.509072
3.18298
19.4651
19.2825
1.46604
-0.86452
-3.34528
-11.458
-21.8946
-31.3924
-23.8737
-7.71144
-0.572336
0.991036
13.488
31.6053
25.9945
17.8224
15.6838
10.2368
14.2747
34.8516
50.9478
41.3523
18.1046
-0.769534
-4.2214
4.35602
-4.2451
-36.8845
-62.8696
-78.2694
-76.8921
-67.8838
-66.0026
-52.8464
-0.630499
34.4507
50.0579
51.4363
43.7603
23.7435
1.55117
0.581544
14.6695
19.0521
16.5836
15.3208
18.9187
29.4597
36.3627
33.5527
15.1551
-4.48225
-11.4963
-2.29912
0.730162
2.64151
-11.1015
-23.7733
-27.4599
-14.9736
-12.0218
-5.7545
-21.3265
-29.8979
-25.6846
-21.1683
-8.38001
16.5487
23.3951
15.9705
12.456
15.75
15.0745
-4.65565
-18.6592
-9.86732
-4.3317
-18.4108
-20.0112
-10.5668
-11.3831
-22.9186
-8.78961
13.5069
33.254
35.147
16.6264
2.71717
0.100808
-0.527773
1.04333
12.1451
32.0599
34.2786
18.5596
7.20755
-7.15485
-11.9979
-18.3093
-23.4591
-19.1896
-14.4961
-8.07851
-0.858184
-14.7686
-20.5188
0.928105
17.1016
10.6655
9.09511
-3.89069
-17.0845
-18.8181
-3.66016
7.15259
11.0943
19.1223
27.5888
19.2676
15.6332
1.32787
-17.5797
-0.699225
6.27674
-12.6263
-18.1006
2.16387
21.9253
5.6282
-14.9419
-14.9208
-14.9588
-8.3915
-1.04033
1.48122
6.33007
9.10538
6.9822
-0.779841
-14.253
-8.53007
-0.11311
-0.224169
3.79242
15.169
18.3557
-0.59298
-18.3975
-5.61326
1.46603
-7.95787
-7.30711
-3.19244
-9.23961
-10.9726
-3.08831
7.48118
11.7839
9.11493
-7.06232
-3.39156
4.32584
-15.9619
-24.8923
-2.611
17.0644
21.4152
17.5902
9.25655
3.28159
17.1852
13.1057
-5.25116
-5.8065
-5.04798
-7.51074
-11.0894
-15.908
-10.4999
-0.97289
-1.51955
10.8798
47.3558
51.46
17.8002
-17.8411
-21.4389
-9.87581
2.11043
-2.75728
-13.6542
-12.2911
-10.1228
-14.8367
-4.95721
0.987642
3.92195
9.52234
0.950496
-2.66103
-4.36432
-17.7188
-28.8628
-20.4444
-11.5832
-1.22483
8.71054
-4.32294
-16.2322
7.00412
25.2335
13.5211
7.84568
30.1811
27.0891
1.33984
-16.6543
-19.2293
-14.4717
4.79494
37.3739
49.5212
42.7928
12.9236
-4.51257
-9.33567
-21.7692
-0.833082
7.47759
-19.3792
-38.4668
-27.2372
-11.8462
-8.45154
-20.5385
-13.4333
-4.48653
-1.35169
6.72598
4.49532
-10.1802
-10.8828
-2.93227
-7.61344
-11.3225
0.683608
19.9913
35.4768
34.9406
26.7664
17.8845
8.1151
-9.8772
-22.3557
-13.8891
-5.78581
-2.47638
3.16119
5.06644
-4.65485
-13.3042
-13.2364
-10.5159
2.05957
19.5821
18.7387
7.20431
-23.0152
-26.8457
-15.8949
11.7002
38.762
43.8627
20.596
5.01954
1.99781
-15.3818
-25.628
-13.9779
-7.16548
-10.4896
-10.4815
-7.35591
4.23727
10.0928
17.3855
13.598
-0.717029
-1.56382
3.33478
-9.51866
-16.1815
-4.31191
-2.86425
-4.34975
-10.109
-14.999
-18.8664
-10.2084
3.9036
5.24907
3.71298
2.80639
-4.14173
-7.25861
-5.8971
-3.99654
5.56625
24.5199
28.7768
14.6106
-0.418487
-12.6065
5.72724
39.0968
46.5764
32.6704
17.3273
-6.37294
-21.9201
-21.9735
-17.308
-13.7923
-3.04187
1.2141
-5.70558
-5.7513
-21.6101
-41.9461
-35.0812
-24.1179
-19.0536
-13.9544
-6.53296
-1.99293
-12.6204
-4.73871
18.3584
33.7379
41.9876
51.2062
41.3261
23.9172
0.754034
-7.67027
-8.16489
-19.6298
-15.4993
-4.39873
10.6648
12.6253
3.98742
8.37072
9.62376
-3.63853
-7.7773
-6.36746
-14.3885
-17.4789
-16.9645
-26.1889
-13.3461
-13.4255
7.41119
31.8426
34.8439
40.239
20.4231
-12.6754
-21.4479
-16.5952
-10.2161
-13.7692
-13.8159
-12.231
-7.92313
-1.99911
3.02509
4.67555
-0.942389
-0.41097
4.20005
14.4783
3.28993
-5.99487
-3.57497
-9.79631
-7.40852
-3.43989
-10.0405
0.517176
-0.989987
-9.57185
0.64768
2.3745
12.2344
29.2696
43.2591
40.1123
22.9616
8.77259
-1.85291
-6.21155
0.396233
-3.31503
-20.2213
-27.5922
-18.9891
-14.8608
-17.1353
-11.1575
3.2876
12.6345
-4.14166
-13.5478
-9.99339
1.23772
-0.266815
-17.4799
-14.5175
-8.76954
-6.31569
6.94266
5.32829
-2.00023
8.61161
30.4664
33.7229
38.0017
20.3409
11.0356
11.0188
-9.87648
-13.1209
15.234
10.4279
-24.4481
-44.3385
-42.8678
-33.4547
-19.062
0.368597
17.061
23.4252
38.6633
27.5271
-9.6681
-23.433
-16.4614
4.00898
6.02889
-1.14124
12.9661
6.78195
-19.1032
-22.8475
-8.9681
6.06467
26.5941
32.1385
5.05927
-11.881
-7.85632
0.948329
-9.66937
-13.699
-2.36469
11.1599
1.53534
0.764571
-2.22701
-16.2765
-20.3326
-20.5545
-14.7432
12.0159
23.2265
24.8551
20.6399
16.7253
31.0717
25.3851
9.74474
0.583643
-24.9538
-31.0548
-26.0554
-21.9462
-3.00996
7.4892
5.1222
9.80472
9.82519
10.7321
9.62097
-5.91769
-13.7282
-14.987
-10.0594
0.38509
20.3622
38.7136
21.0213
-31.1757
-39.9808
-13.3231
5.97596
3.59558
-4.12301
-5.08269
-0.625123
3.89775
-8.17256
-6.78919
-2.18601
-2.2304
2.00915
-4.22579
-12.906
-9.47885
-12.7881
-33.2805
-28.494
5.365
27.9088
27.4674
21.3855
24.8673
34.3279
21.6115
4.5576
-8.6315
0.420296
9.00495
11.7528
11.1423
17.1921
14.8738
13.4882
-0.413937
-11.2206
-6.19958
-5.66166
-16.3171
-9.19216
-11.0582
-17.1138
-14.8638
-9.58293
-9.09034
-6.86185
-4.38933
-5.96128
-16.6057
-23.4948
-15.8108
2.87933
21.1945
36.3216
26.869
-14.0683
-53.667
-49.4199
-21.5142
-12.0216
-7.04435
2.92543
24.6378
46.9688
59.8235
50.4205
50.8737
35.3893
22.9921
12.3592
-2.32592
-28.6432
-47.015
-67.5882
-59.243
-19.4517
7.92374
14.6555
23.4446
26.3431
24.9232
18.0537
0.475276
-16.6243
-19.973
-15.4438
-18.0802
-8.85154
9.40204
1.43084
-16.9659
-16.5017
-4.16759
16.9809
20.512
12.7578
16.6549
9.97289
3.11014
-3.47569
-8.62829
6.32559
16.5142
-8.27623
-22.0912
-16.1304
-5.41376
-11.7448
-18.3061
-6.48098
8.75541
16.2774
14.8131
11.4338
15.0674
14.8541
8.69702
-7.64228
-15.807
-8.92017
-7.07218
-12.719
-21.254
-6.50104
9.02338
15.0501
18.3463
36.6069
25.8261
-1.39349
-19.9003
-21.5089
-18.9551
-11.1994
-15.0686
-11.6108
10.4877
32.914
39.1807
29.058
11.6552
-10.4517
-25.2796
-34.1586
-34.9992
-32.6046
-30.3755
-30.5616
-14.902
5.60959
18.2891
24.0582
27.1759
26.5265
36.2822
30.8476
7.2291
3.93479
8.61056
21.456
29.7285
1.49063
-26.4932
-25.4526
-26.2164
-23.0613
-18.1492
-13.0586
-9.69857
-2.72269
4.61825
11.7088
10.7495
-2.93746
-13.5961
-11.6544
-7.86798
-7.09027
-7.46551
-15.0189
-11.2045
8.2347
27.8472
26.5597
22.6733
15.4982
5.64697
1.92984
-8.10125
-14.2974
-2.74678
8.483
19.5298
6.73671
-15.4736
-7.34529
10.7196
9.67191
-3.31395
-19.3347
-20.7105
-5.55631
-0.70983
1.05989
8.0114
26.0682
26.4876
5.10959
-5.0159
-11.8958
-7.13602
-3.05792
-4.58704
-5.65592
-7.13874
-17.7339
-18.8958
-21.7035
-6.46592
3.57743
-0.264867
4.87788
10.7704
11.0151
21.286
12.1219
1.11302
-3.09201
-13.8998
-7.90061
-4.89123
-17.8789
-30.7282
-17.8991
5.69794
19.4742
24.9171
37.3602
36.2555
30.8024
15.1852
-5.54961
-0.627973
2.25514
-16.0476
-26.8015
-25.9454
-15.5859
9.54071
17.5266
4.46749
-2.2397
8.76379
12.8145
2.05577
-5.68779
-13.3656
-15.5341
-9.71012
-12.7392
-2.60336
-3.90902
-15.16
-10.9676
-6.44388
-1.90909
5.65314
3.31018
10.0258
13.3117
27.8842
34.9483
1.18005
-16.861
-3.58863
2.76951
-1.63217
-8.84249
-12.512
-8.6032
-2.27943
1.18849
1.7096
-7.93686
-8.98392
-9.05377
-1.03726
11.0622
-2.70586
-8.30343
-2.30859
-11.7826
-0.638323
12.1363
6.34799
-0.848648
-0.334498
12.6504
17.5257
10.85
1.7202
8.65659
16.7951
12.8259
-4.79069
-19.7519
-22.8775
-13.6668
-8.13826
11.7979
18.7547
17.2909
9.34556
-0.874371
-1.3689
11.1546
6.94843
-11.4831
-16.1236
-7.92147
-5.51999
-8.73718
-17.0634
-7.72868
6.30647
-1.13202
-9.32497
-11.7045
-6.68975
-0.260751
-12.8551
-24.1217
-0.911581
7.93096
11.5288
12.1755
19.7329
38.6226
24.3879
1.04236
0.835156
10.3081
21.4356
6.63853
-1.72661
10.1907
1.26325
-7.16955
-3.31322
-33.1618
-55.58
-33.6573
-10.2537
-1.11569
-7.72713
-7.16933
-3.40628
-7.46509
4.03852
35.7974
18.3925
-11.171
-10.9276
1.10714
3.12092
17.1147
25.8468
31.9604
25.891
15.9478
14.5023
6.40394
-4.89718
-7.02013
-12.6861
-8.87381
-6.31052
-10.4432
-17.0903
-28.1409
-17.5437
-6.12283
-16.8527
0.93525
27.6121
22.3948
-0.643284
-16.1314
-14.0572
-7.64689
-1.9464
16.0054
4.95209
-0.261822
10.1735
8.25152
-7.55562
-17.6702
-12.5954
-1.69429
18.9519
36.471
29.2785
-0.6962
-23.5583
-34.3532
-12.4958
-2.00703
-16.8604
-14.8462
-2.39781
-2.50707
4.59228
16.8553
16.1681
6.79572
15.0449
8.27713
1.66979
-6.05615
-12.3528
-17.1896
-8.3516
9.93518
18.6044
17.7355
7.16872
2.99526
11.47
7.3203
0.662634
-9.71701
-3.90584
-0.727664
-7.67495
-2.92307
1.1662
8.6111
9.56976
15.8389
23.4498
4.30661
-17.6487
-24.4858
-24.7456
-19.6198
-3.746
1.97789
1.37494
-15.6569
-17.9367
-7.64709
-5.06596
14.3141
19.0709
7.12005
-6.26984
-16.4449
-8.99845
-9.78215
-20.7804
-7.4793
9.0238
16.7953
21.4317
17.0184
8.37828
-5.02542
-7.63583
6.16136
10.3903
9.54283
3.66931
-8.46444
0.559391
0.251454
-0.531189
18.8297
33.0803
44.367
25.6327
-7.27319
-10.8178
-8.44627
-49.6084
-53.9504
-33.0843
-12.8062
1.83823
20.788
29.0105
24.443
26.1281
-0.192278
-28.827
-30.0462
-17.5972
-7.29914
0.985594
-9.72142
1.16375
21.6647
-0.218992
-11.3774
13.9801
26.8488
21.3937
10.4286
-2.79803
-11.7957
-10.8039
-17.839
-21.4709
-19.1607
-7.15441
5.73394
12.6613
22.4448
12.1252
-17.5404
-29.4877
-10.6666
16.1382
21.1612
23.4546
16.2607
3.07443
13.6291
20.4227
-2.8383
-22.6057
-21.4969
-24.3494
-10.6916
9.92285
11.7578
23.73
10.4845
-11.4631
-3.46131
11.7439
15.1616
34.8417
8.28515
-15.6648
-15.8871
-4.30043
-16.6043
-47.1943
-58.2692
-41.2859
-8.76796
4.41895
0.670652
1.45801
11.8054
9.06993
7.58667
23.3542
52.7319
57.0826
18.7379
-25.3657
-13.1981
6.37529
3.45988
-9.38805
-12.4649
1.85894
6.4359
10.6993
14.3803
14.8502
15.4444
13.4636
2.3846
-8.41778
-4.47403
-13.8367
-31.4062
-36.7906
-24.47
-13.1917
-8.10529
-6.56695
-4.96562
-6.62079
-1.27771
8.42964
26.9167
19.6872
2.99218
-6.72271
0.310041
-12.9555
-12.6614
-5.68297
-5.23162
-0.919636
-1.61206
-7.98805
-2.13164
14.0065
20.3891
9.1328
7.20035
13.1916
10.9284
16.2864
28.6883
27.6029
10.0026
-4.54909
-17.7945
-18.625
-18.3696
-20.5507
-11.0106
20.4914
40.7652
26.6146
6.49437
-12.3607
-25.0613
-25.3672
-26.2148
-20.656
-10.2158
-13.4289
-5.01431
-8.92436
-9.27698
-3.87555
-4.717
11.6251
22.8011
-11.9464
-25.162
-32.7526
-40.6872
-21.8223
25.3864
47.5613
44.8309
29.4687
21.1587
14.6572
11.2955
15.0416
9.27923
8.88348
8.72447
-3.6083
0.39579
6.82143
-0.332207
4.28625
5.75768
-11.3769
-18.5519
-9.55889
-18.8912
-27.4638
-20.0887
-5.66625
-1.28583
-3.84625
-2.65892
24.6471
22.5355
-0.0280156
-8.67119
-5.80378
0.506809
5.43702
21.3233
32.6958
5.77294
-12.3841
-10.4388
-13.139
-26.0268
-29.9963
-24.2692
-12.2374
-12.1473
-6.81954
6.65335
-4.68716
-12.1524
8.88744
36.1277
51.6428
49.8044
10.82
-17.893
-26.4022
-14.1954
-2.73578
-1.45606
-1.3101
-1.91552
3.5631
0.477628
-1.5878
6.96226
4.84304
-7.5508
-16.1458
4.57974
18.9961
13.4532
-9.22266
-26.2938
-18.7514
-18.7985
-7.39671
10.9966
12.4213
6.46747
5.74351
12.6005
14.1889
14.5077
17.9192
13.2214
13.0826
3.60758
3.13628
19.2236
-0.592846
-31.6821
-19.953
-4.82127
-2.2515
-18.8265
-39.6173
-33.016
-10.7609
-3.04249
7.62637
20.3728
16.4223
8.83914
10.685
4.74063
3.74472
6.07649
-4.26298
-25.6099
-23.3357
-6.08438
7.88327
10.5866
8.01046
7.75428
24.5172
25.2423
8.50571
3.15324
3.2237
-1.31134
-2.11275
-9.36255
-6.52099
-0.373638
-5.48726
-8.76908
-5.66889
-5.8236
-0.750088
9.93067
12.9692
-15.5014
-27.9365
-16.438
-6.72436
-13.4247
-10.902
-8.79776
-9.43295
-0.295004
27.0688
51.6011
33.132
22.0309
22.0577
14.5937
11.4305
-13.2923
-23.8144
-20.8004
-19.4371
-5.25078
8.43836
10.2343
0.630451
1.15285
4.26679
3.94766
9.4569
6.9565
-21.2153
-35.1772
-27.9204
-24.7263
-26.6713
-21.0565
-21.9677
-13.0493
-4.49586
-3.94694
3.60485
20.3021
17.4758
24.6209
37.0056
37.9726
33.4477
28.5553
24.3012
19.6988
8.42369
-20.5711
-21.0554
-10.5619
-2.35442
-5.18083
-7.00384
4.22225
29.065
30.9205
-7.43795
-10.5761
0.154637
-1.85096
-30.2133
-43.1265
-29.1202
-14.185
-17.4206
-24.2378
-12.3882
10.4522
13.813
2.27907
-10.2673
-7.07126
0.785679
7.20124
-2.45448
-10.7088
-3.49893
-2.68916
1.23213
10.2892
25.4263
44.3033
45.3669
20.2625
-6.16527
-18.7152
-9.67518
12.409
6.56833
-5.32798
-15.5838
-9.30033
1.94498
7.59164
-3.97848
-8.30594
7.20466
13.6479
3.72266
-5.10088
-3.63962
-19.0811
-27.519
-15.8499
-13.4279
-12.2894
-8.68309
-4.36985
18.1688
34.9788
36.8533
20.2086
1.90576
-4.95228
4.4199
5.17224
2.51478
-4.74435
-16.2305
-17.4553
-3.48741
2.58774
0.542099
0.547227
-7.07498
-12.7149
-10.8655
-13.847
-27.0722
-15.0225
2.64131
13.9675
22.7298
8.67694
-7.47705
-8.41365
-2.32561
4.02482
10.1475
13.2295
15.6391
19.7831
9.97412
-7.7692
6.29157
19.3557
21.7748
30.6147
54.2876
30.3219
-4.60597
-34.9011
-59.1958
-62.0501
-51.6251
-30.1691
-7.37267
-4.63091
6.685
-2.32673
-12.821
-16.1459
-10.2236
4.07055
16.5335
30.1745
27.2157
2.59921
-34.047
-33.6267
-1.69861
42.7279
59.7197
38.1419
17.2418
-0.40674
-17.2394
-12.7587
3.26505
13.6732
5.67837
-2.70893
7.11852
41.4077
42.0852
-5.37069
-41.9166
-45.7671
-41.9761
-24.0513
-10.7258
-6.93096
-3.12874
-0.340489
0.797767
-3.30423
0.0186773
8.90841
7.01298
-9.32703
-7.2252
-12.4813
-8.29899
-8.60124
-10.9385
1.16246
14.8089
23.6528
28.5866
12.4478
1.17252
3.64463
13.4578
32.321
32.0693
7.39085
-8.42424
-16.4977
-32.6829
-22.8117
3.13298
16.0628
1.41096
-5.40674
-0.839291
0.398178
2.58193
6.03108
-5.47181
-25.3586
-27.3378
-23.5717
-11.1137
4.82741
7.38134
8.17635
16.6863
20.7
15.5945
11.9576
8.6054
1.48842
-10.979
-22.0643
-0.348829
14.8934
8.40882
10.6351
-1.17243
2.89051
0.0742125
-16.9624
-30.8429
-34.1525
-34.8184
-12.9647
-6.72565
-4.63451
6.90609
15.8557
24.0768
44.1997
38.8146
15.6655
-6.55154
-6.29794
-4.11782
-12.1926
2.887
27.4973
21.5629
6.89001
-0.523896
-3.48974
0.757101
-1.93989
-8.30277
-12.5987
6.03052
4.37754
-36.859
-57.493
-21.8378
3.52667
2.47656
10.027
10.5274
-7.63245
-1.89066
4.75016
2.57784
-5.31999
-5.03446
-2.51211
3.02448
11.8565
6.75162
-3.25514
-10.9399
3.92806
32.8632
42.9646
24.8465
6.81982
0.516754
-16.3905
-13.0737
4.38834
-3.36005
-16.7906
-11.8205
-2.17867
-1.45588
3.89304
2.14797
-7.50167
1.09659
6.58983
3.88906
-1.69409
5.02654
-8.29049
-19.3616
-17.4768
-22.4436
-12.6896
-6.67927
-7.53207
8.41823
23.0904
17.0582
9.75031
1.99445
-13.7285
-8.33229
8.42291
22.6529
21.0711
6.44577
1.14206
-4.16643
-10.7485
-7.887
-4.56913
4.59276
33.3439
59.1504
28.6114
-10.0547
-32.0844
-35.7322
-27.4845
-14.0967
-7.83296
-8.28849
-13.941
-11.9698
-13.099
-12.0129
-18.3677
-20.1044
-2.93418
4.60474
7.73004
27.3024
16.4315
-13.2854
3.6113
32.5309
40.46
30.3329
14.2872
4.97478
5.56172
-0.434338
-25.1516
-40.1855
-18.9432
12.201
22.5692
23.1553
32.4867
27.9768
5.27835
-15.9584
-10.3332
3.04333
3.5042
-25.1565
-40.2313
-19.7251
-6.89266
-8.92164
-18.2056
-19.3436
-6.65978
-0.195546
-0.706472
-0.902362
0.789506
-0.427751
-0.207684
6.69884
6.98515
0.368628
-9.58262
-16.9319
-18.6388
-7.30047
-7.45834
0.375209
13.9179
16.4882
20.4966
27.5426
37.6096
26.7305
4.01436
-3.96506
5.7367
4.50051
-14.5993
-13.2667
19.6318
41.903
25.9343
-9.02927
-19.3172
-5.08085
0.902298
-8.02422
-15.687
-15.4112
-3.25331
2.97936
-9.05717
-3.89059
9.13729
6.88056
-2.23727
-19.4427
-48.9691
-51.792
-38.6621
-25.1707
-20.9906
12.0748
26.3655
23.862
35.5157
38.4899
27.0641
18.0021
3.60669
4.49677
10.5686
4.92067
3.19752
4.967
-2.53743
4.65561
22.7404
18.144
8.33211
-4.45794
-6.20792
-8.67138
-19.6039
-28.846
-32.9162
-27.3262
-12.1779
0.3193
2.92525
-12.6501
-12.2886
-4.47591
-15.789
-15.2786
-10.0123
-1.76675
16.1835
19.8082
7.85514
8.31376
32.4904
37.2376
30.9095
20.6182
13.8642
-3.30732
-12.4628
-12.3704
-3.60974
-5.13579
-10.1315
3.34041
25.7523
10.0206
-23.6975
-27.1085
3.93878
17.5488
8.72455
-14.5777
-23.1034
-16.1883
-13.1836
-17.7615
-9.80665
-2.07526
8.31969
5.91084
-0.000706206
5.20567
6.85002
-8.70848
-5.26796
0.0583039
11.2192
9.16472
-4.06332
-15.6803
-9.01777
2.96478
-1.84716
-5.24499
13.8077
28.5639
22.1749
14.1803
12.8468
18.359
9.95045
0.0348919
0.311367
-1.66718
-21.3706
-19.6633
-6.9432
-10.5108
-18.0952
-11.4107
0.363702
7.43763
3.5335
4.7817
-1.26605
-1.16994
-2.69257
-1.90953
-8.59831
-22.2059
-22.2202
-16.2348
-4.01054
-1.37878
2.11244
5.18028
29.001
59.2201
85.5999
74.3824
36.5328
7.42454
-21.5528
-52.6392
-81.206
-68.1605
-38.3279
-3.80148
-3.38593
-7.70638
-3.39429
3.1832
10.0389
5.167
-8.03441
-5.44961
2.66081
-0.739721
-10.728
3.4038
8.232
-2.4393
0.159193
13.1006
35.3007
31.8003
10.3448
0.240067
7.29499
13.0092
7.54658
4.68935
-4.48557
-9.12439
-4.69796
0.591522
-6.97274
-18.5062
-33.4514
-34.7633
-13.5633
2.64863
0.652268
3.01163
7.31658
7.72223
7.92218
8.75072
13.9752
24.1421
26.1505
21.557
11.8394
-1.62497
-1.25797
0.0958424
-16.7954
-31.6099
-30.817
-34.1309
-16.8342
1.82247
12.8708
13.1795
8.68131
3.66229
23.8908
27.6254
-10.284
-46.5101
-49.5568
-30.7029
0.205812
31.5274
45.4311
36.7313
23.0426
24.6594
18.1874
6.55642
-13.5804
-14.3723
2.73579
-2.84226
-10.9442
-6.28705
-14.6267
-13.8596
1.99132
7.26146
5.89167
1.75054
-6.45881
-19.2723
-30.9294
-28.5826
-12.7303
-6.70818
3.09101
15.6166
24.9933
-2.76485
-15.8968
-1.16176
16.5459
20.3167
15.2427
5.30719
4.96861
16.7122
13.5791
-1.83178
-18.728
-19.8963
-14.4397
-10.5054
3.69043
10.7479
6.82069
3.12888
-1.00529
7.08244
16.2101
17.9698
13.7352
9.7211
-6.24298
-16.8927
-13.4288
-8.86199
-4.61102
-4.07878
-6.84768
0.650633
-6.71651
-4.69146
4.31259
5.11724
6.08105
18.4574
29.3195
34.1332
-13.8528
-53.0802
-60.7381
-48.0307
-18.8861
4.05366
12.4586
18.7717
19.9271
19.0875
13.5857
12.5851
17.0034
19.7178
3.82298
-8.80754
-15.1395
-28.9969
-41.8414
-25.0805
7.31502
30.1059
40.7765
35.8675
18.9795
9.70998
14.973
7.38934
9.58316
12.3056
-7.79862
-22.2355
-29.4067
-35.1642
-10.7917
28.9026
18.0902
-11.9602
-16.9368
-11.317
3.52454
7.20107
8.84817
-2.47612
-13.5578
-17.1525
-17.0344
-15.1262
-15.2736
-11.7349
6.40133
5.34537
-3.53089
-2.29528
-4.13828
-9.46644
0.486683
23.2929
24.5053
10.2854
3.77337
6.87664
7.1699
4.71326
6.26524
2.99894
0.791478
19.0057
24.2003
6.30919
-16.9174
-23.3415
-1.68024
8.74435
3.59778
4.68463
14.6874
-5.24361
-15.2643
-13.0566
-6.02498
2.99015
10.2667
10.9258
-0.319221
-14.7189
-15.5197
-18.5284
-3.08705
24.4954
28.8259
22.0399
1.53962
-20.3176
-21.166
-20.0718
-26.5829
-30.1842
-32.1721
-11.4452
-0.431577
-3.04834
-2.24443
2.50378
6.36202
11.0325
13.4756
11.7844
4.96022
-7.28248
-0.209752
19.3295
24.6046
22.3349
18.2937
13.193
12.5007
35.0739
31.4061
12.6467
5.26479
-0.717664
-6.27642
-6.33236
-4.38075
-2.89169
2.21843
10.945
-13.7384
-35.4071
-37.9749
-33.9364
-18.9864
-10.6406
-6.32631
-15.5255
-21.5769
-18.423
-12.4192
-8.83078
7.73677
20.4632
21.5495
16.3159
11.1861
22.7019
23.9951
-4.64109
-12.9991
-9.66968
-2.76746
-1.23728
-14.7813
-10.4345
-4.95041
-6.32885
0.139496
-4.04338
3.79154
6.08653
2.90882
7.73017
5.30631
6.36489
14.5498
8.91498
-9.69338
-0.570475
17.4838
26.3378
25.0278
21.7117
22.7742
15.0277
0.0943273
-13.031
-25.7098
-17.5505
-8.99647
-2.32204
2.65808
9.3965
8.59669
-1.3708
-8.69085
-22.7392
-22.2804
-26.7283
-32.3237
-30.7148
-22.5036
-6.928
11.0393
2.49788
3.81456
18.1617
24.6698
12.3285
6.10311
13.2937
14.1797
15.6012
11.4491
-5.22635
-8.74814
0.0372135
-1.50014
-2.46133
1.11714
16.4505
24.6164
-3.73847
-30.1228
-20.6553
-7.34475
6.92274
17.6007
25.0595
10.0944
-4.27263
-24.6691
-41.8932
-31.91
3.98698
18.1287
3.70865
0.553194
8.37232
4.17887
-12.6626
-10.625
2.32696
9.48725
13.0968
15.653
8.24919
-12.7244
-17.6296
0.866411
10.9255
18.7302
11.3325
6.42511
4.23791
-14.8165
-11.9591
-5.21288
-1.16175
0.031748
0.879604
4.70046
24.0872
23.8366
6.22859
-20.2689
-27.2042
-15.5783
-6.90285
-9.66188
-2.63801
-10.7304
-4.60566
11.4672
12.6671
11.9578
-1.4924
-11.1306
-10.1773
13.3636
28.3148
20.8613
6.93968
-1.50985
0.730868
-7.22536
-18.1694
-25.3836
-11.5068
-1.51067
-21.6382
-8.12612
2.53445
0.0202089
-1.28337
2.42349
14.1372
24.6358
12.2582
8.1904
18.0026
0.371765
-17.2908
-19.0347
-28.6822
-19.8825
-2.43394
-0.677812
16.6758
47.2867
71.3485
45.6708
10.113
-15.2353
-32.9478
-30.3804
-17.5446
-9.19307
-7.57791
-15.4096
-23.2129
-9.92049
-4.5602
3.38378
-2.97763
4.42354
9.88276
12.8117
2.34269
-21.2969
-30.8087
-12.0895
-6.64062
-2.93307
-2.1816
0.702049
10.5796
6.49861
5.61831
14.2664
3.33691
2.92416
7.10064
11.5917
24.9118
22.674
22.2738
23.7392
-3.24597
-9.93477
7.14565
-1.93241
-11.5548
-5.37127
19.1053
33.6028
4.29815
-15.6946
-17.5562
-34.894
-28.5608
-20.5436
-16.6608
-14.8308
-15.1729
-11.9036
-12.0263
-6.92232
6.33117
15.1843
-4.01582
-7.14383
6.43955
7.43036
9.74867
5.41938
7.53845
11.3379
11.869
12.5612
4.2518
-3.02061
-8.29196
6.94817
20.9552
4.5237
-8.32176
-3.21393
4.56807
11.9616
10.3592
6.84776
14.4472
19.8332
-5.36044
-25.6519
-18.3761
-11.043
-4.88605
2.56617
-1.87027
-11.4925
-10.8191
-17.9391
-13.3256
11.9811
24.0747
8.45978
-8.36315
-14.2504
-17.2611
-9.85395
10.6445
4.21878
3.92356
4.44779
-14.12
-13.8932
-3.47712
12.3045
22.4247
27.154
35.12
31.3767
6.72927
-16.4996
-26.613
-27.1719
-21.9502
-18.7506
-12.0449
-4.94763
2.02286
2.76351
0.12909
14.2058
30.2565
32.4891
18.5757
-0.485534
8.3951
8.27573
-31.3939
-57.9337
-52.3698
-27.7872
-17.1259
-14.5721
17.7039
31.7464
33.3813
29.692
13.5057
11.1504
20.5166
18.1531
14.4951
22.3005
14.9871
3.60901
-17.1861
-23.2647
-12.4934
-9.89575
-7.14723
-6.07712
0.357224
-4.76234
-27.0234
-32.1467
-22.8209
-11.6045
-8.68845
-4.02572
18.7187
33.9947
26.7614
21.9322
9.8535
-1.48072
-3.44366
-7.19039
-2.86573
1.67377
2.77924
-2.58616
-4.56597
10.5462
14.7604
4.78189
-0.206874
-4.84997
-8.95857
-23.826
-30.8604
-29.5319
-19.1952
-22.9066
-19.1743
-4.78689
6.92147
3.88855
1.07723
13.353
21.8079
27.8908
34.2848
45.1327
60.3463
36.1875
6.58958
-2.84006
-7.27129
-4.03013
-9.8008
-17.1171
-12.6859
-26.7824
-24.4048
-21.6539
-21.1207
-6.43007
11.9082
13.4603
11.7809
-2.66087
-14.8845
-16.5855
-15.9363
-12.8098
-8.11055
-8.28246
-5.05844
11.723
7.84613
-2.22321
0.595241
3.6837
9.20687
20.8499
16.9113
14.9618
24.9446
10.1973
-2.23196
2.34825
-9.01483
-26.1433
-32.7695
-20.2926
-2.23845
6.18332
5.99906
1.70213
-1.78926
-0.407421
9.86667
37.5822
31.597
1.65114
-11.3773
-9.8022
-19.7619
-6.42992
3.65445
2.74073
14.1154
22.2098
6.18439
-2.93368
-16.6781
-30.8916
-31.2236
-11.4308
22.2381
41.6165
15.6327
-24.3603
-44.0319
-28.9842
-7.84261
8.76463
25.3392
7.20404
-2.73548
-3.28454
3.31341
6.89759
5.75963
0.700679
2.334
17.284
35.929
29.4301
-13.2496
-37.2502
-37.2197
-24.1573
2.67301
8.40535
11.1034
5.82351
-7.73097
5.96434
5.88669
-1.76126
-5.77985
-3.80484
4.52709
3.48312
-0.488231
6.09851
7.01552
-2.47859
-2.77173
-0.156278
11.5799
14.6783
16.5991
34.595
35.7195
16.2159
-18.4349
-31.5189
-19.4317
-7.56994
-18.6259
-24.5371
-19.9437
-16.6564
-12.678
-10.0088
-17.2534
-17.4094
-1.22828
9.35724
5.72808
1.84454
1.3357
-5.015
-5.78193
-4.30998
6.81551
14.6919
19.0268
15.7268
15.6248
24.0873
26.9259
40.3062
43.1817
20.5274
-3.23456
-17.3026
-21.5126
-15.5236
-10.4044
-7.792
-3.73866
5.0764
-5.62199
-25.3712
-19.5359
-16.4934
-17.8355
-19.4252
-17.6513
-5.43068
3.2456
-18.7281
-16.2741
1.64975
15.7172
24.6129
27.7067
18.3809
12.6644
11.2436
-5.27565
-16.0733
-17.3502
-10.4263
-9.80378
-13.3102
-12.6722
6.3326
24.9253
8.44226
-5.90361
18.878
22.3072
16.0287
18.2416
24.9877
11.2443
0.921418
-0.810766
-4.91583
-7.08482
-19.2388
-27.3579
-23.9178
-16.897
10.9662
24.7346
11.7167
1.16376
-0.582517
-2.08651
-14.7633
-33.1525
-37.5882
-23.1514
-14.7911
-3.48965
1.7982
8.50864
39.3944
54.7623
24.9445
-8.78317
-3.73993
13.7609
26.8949
22.1714
17.8777
6.5984
-9.5486
-17.2904
-29.4702
-19.9748
-8.76419
-10.9491
-12.8663
-10.3098
-5.67374
-4.79577
-15.4051
-28.7666
-16.7369
5.89897
13.758
13.6612
-6.48417
-13.3081
-5.77954
-0.497596
9.54159
13.9281
28.8955
36.7005
27.5358
20.4846
17.5499
1.0477
-4.71885
-6.23849
-20.325
-28.6917
-30.8695
-23.64
-10.3968
5.30569
26.5301
26.2243
13.8465
12.8675
13.7068
9.85501
3.82756
-9.04606
-9.3044
-7.63444
-3.93931
3.32069
1.01329
-4.29122
-1.45778
-4.01189
-11.6171
-22.845
-22.5414
-21.7379
-20.4583
2.46873
17.9666
13.5489
14.0193
11.9046
17.0903
10.3479
-6.44627
-18.2126
-24.1042
-14.8947
-0.15233
-2.21508
-7.93894
3.94832
17.0185
24.2274
23.6357
16.0707
-0.687175
-13.5283
-16.314
-20.2524
-13.1054
1.91349
8.17527
18.7754
21.6625
15.7964
11.6845
4.81081
-5.97295
-1.51347
-0.254955
1.21998
9.2383
20.1817
21.5642
9.73633
-10.2781
-26.293
-35.2058
-21.4426
-20.2336
-24.0392
-21.7643
-14.5722
-1.96461
-6.0795
3.50781
17.5454
18.8647
18.0396
11.6345
6.73619
10.4482
5.70171
-8.50217
-12.5278
-10.2308
-1.32831
3.27226
13.6799
10.8712
-5.53743
-13.5894
-10.5517
3.85575
28.9797
37.3784
26.4458
10.4324
-18.6843
-24.3766
-8.23922
-16.0888
-21.344
-6.42152
14.5082
36.3511
4.0623
-37.7915
-54.5028
-38.2731
-10.588
5.15316
11.1441
19.2046
21.4953
6.60802
4.87175
6.277
18.6322
22.6683
10.9376
6.49566
8.75364
-2.71279
-27.4798
-30.7553
-2.12584
38.6078
56.7519
36.1824
8.74703
-6.97318
-14.7326
-32.1556
-40.0153
-38.2745
-23.4303
-7.95718
-7.65742
-9.23508
-1.25274
6.09999
-2.13861
-6.31125
3.18282
2.41699
11.2067
21.6614
29.1434
17.6238
11.1734
1.87457
-7.94746
-10.1031
-11.0287
-2.01907
-4.09033
-10.1103
4.55524
19.7853
5.70013
-12.3738
-6.56767
0.944472
6.65617
-5.57122
-12.6029
-16.44
-17.7612
3.24087
14.1054
8.46254
7.63973
23.8968
25.001
5.1225
-6.31135
-5.65878
-4.32207
-9.12744
-8.68284
1.81445
6.88756
-4.28075
-6.76284
-7.33987
4.04772
10.3971
-9.95211
-22.2301
-13.486
-12.3965
-17.1655
-19.6474
-13.7161
-1.57657
5.02529
18.9676
37.629
45.7403
35.3487
15.4517
0.13255
-2.22297
-3.1578
-3.09531
-9.72373
-13.8075
-23.191
-13.2985
-2.51965
19.6095
20.7982
9.41869
4.98112
11.9022
3.77932
-14.7315
-25.8455
-29.5147
-14.7116
4.22366
13.2516
10.1058
5.49377
-5.56923
-20.1887
-27.9244
-20.5543
-9.92868
-0.139494
4.43595
15.0489
27.2903
17.6118
3.61966
-3.39965
-4.47855
-3.93461
-10.4577
-8.92669
-2.03277
0.695991
6.21563
-3.0965
3.65972
15.7873
14.2963
23.3152
15.7236
2.31609
0.542019
8.23409
6.96208
13.5888
21.6401
13.5822
0.851114
-17.5207
-18.8203
-21.6309
-26.7698
-14.995
-3.21476
7.01526
-0.012688
-17.2824
-14.032
2.78361
8.77199
-2.69181
-4.6262
2.39141
-5.49453
-26.0146
-37.0934
-19.6299
1.2509
18.2347
12.6883
14.4749
30.7462
32.5584
14.5854
-18.799
-23.4489
-9.28762
-4.62092
-8.95356
-6.65598
7.34538
8.64451
3.81861
20.5169
36.467
18.7925
3.35703
-1.49257
1.00444
10.6499
12.9025
10.7644
13.0485
8.17752
0.353801
-11.458
-17.8048
-8.60356
-3.49412
-21.8557
-27.615
-21.9764
-19.5526
-21.7129
-19.2544
-6.3512
9.50741
17.3076
3.63336
0.191034
-4.35685
-12.5516
-23.331
-20.22
3.59036
25.8347
42.2086
29.6697
8.25306
0.998495
-6.97475
6.36
21.5633
18.9153
10.095
4.1475
3.68974
-1.30852
4.01666
-0.515828
-6.46448
-10.5182
-22.7947
-18.3913
-3.84631
-5.48295
-17.7475
-19.0244
-7.8406
10.1977
16.0888
16.6671
19.2534
15.506
-2.15277
-10.8173
-13.688
-5.89054
-10.2098
-17.3395
-19.2065
-14.0076
-1.02336
9.02279
16.4395
28.0592
26.8404
7.14528
5.7099
15.6441
10.3353
-5.71359
-22.1653
-31.9703
-19.3403
-1.38967
-19.361
-24.8354
5.5225
24.3477
22.7125
16.3736
13.7114
18.4501
12.9669
0.901966
-8.28215
-2.68246
-5.54829
-8.13062
-2.96713
-5.20423
-5.66705
-1.61786
-7.87027
-9.91412
2.47966
8.17749
1.64718
-5.27863
1.07078
11.7657
12.3346
2.7516
-7.30596
-2.30818
14.8469
13.571
4.86491
-7.49035
-19.8286
-24.7062
-26.5643
-16.2813
-1.68267
7.55586
13.4173
6.7768
-6.98829
-4.15004
-1.80971
-6.44021
-5.54711
-5.85347
-1.96016
-2.80695
-9.13749
-15.329
-8.61253
8.85365
28.2801
39.4425
33.5019
24.4546
35.7402
30.9682
16.3254
11.3463
10.4979
0.0397146
-11.3504
-16.9277
-28.023
-30.5119
-22.0309
-22.9721
-23.4439
-11.9777
-11.1541
-6.7688
-5.12477
-6.17217
-17.0359
-16.4434
-14.6171
-9.46814
5.04529
14.2844
14.4725
19.1652
12.5751
11.0651
15.4189
16.7663
11.005
-0.0252391
-3.25542
-9.22097
-10.838
-10.1755
-5.49062
3.27162
18.2653
11.8422
3.72017
8.82552
7.64956
5.55941
13.5409
8.00536
3.52055
4.85305
-0.711682
-11.3646
-5.09082
-4.26043
-18.527
-4.27908
0.316982
-8.35375
-6.48703
-13.1864
-18.5326
-11.0595
6.20707
-10.3036
-0.00659748
7.1053
1.81699
7.38142
11.6139
-5.78986
-1.34637
7.59064
7.47685
12.7139
16.9964
13.6955
1.34572
-9.75001
-7.00967
-6.61762
-9.40629
-10.8043
-14.3663
-0.254664
8.41664
6.32554
6.12928
-0.187358
-10.1771
-9.6536
-6.97443
0.302468
3.66238
10.7128
7.45554
-3.32737
-2.08407
-5.94579
-11.2705
-2.43699
8.77085
21.6075
30.4631
21.9768
-4.24536
-14.4932
-14.9958
-16.2191
-12.8258
-0.760122
3.2659
-3.23491
-12.2194
-8.306
-0.0517928
0.795319
-0.881114
11.3989
20.6891
13.3656
9.207
4.88606
-6.66669
-14.916
-11.3539
-9.03946
-7.62378
1.33552
-4.01727
-8.71779
5.35544
22.8475
16.8501
0.355988
6.47223
11.6862
4.43418
-8.26361
-13.9401
-7.13828
14.1139
13.3177
-10.3923
-11.8823
-2.4837
2.15144
-8.13038
-7.23251
6
6.96584
-2.80826
-10.121
-5.46201
-1.24552
-4.10748
-1.67116
11.4991
17.0141
5.51415
-1.13673
-4.95841
-22.1286
-28.1496
-17.9653
-12.1544
-7.85561
10.7749
19.768
25.7291
16.0525
10.3334
2.63686
-2.64458
-2.69769
-11.4826
-13.9987
-3.07875
-1.81516
-3.75968
-5.21307
-8.6239
4.11701
20.2728
34.2718
39.9629
22.2875
-5.13752
-11.1971
-14.0174
4.34625
16.8106
13.7716
-0.372098
-8.82176
-4.76713
-15.5055
-23.9055
-21.0796
-16.5223
-9.34622
-12.2319
-13.3669
0.729689
-0.395376
-10.7413
-1.97618
22.2625
22.4652
10.5628
-6.27631
-16.3024
-7.14308
-5.30288
-1.04458
4.58453
5.8584
6.5728
13.3602
17.9489
7.58238
-3.98881
2.3489
1.41134
-1.06723
-1.1519
0.361581
3.64499
-9.27798
-18.2303
-7.50451
-7.13976
-11.9933
-0.313725
2.07188
3.83647
19.7519
8.84372
20.687
22.2712
2.85517
-6.50862
-4.47888
-8.03611
-11.7777
-4.71619
-0.676047
-14.4097
-9.61457
6.47517
6.98114
-4.60696
-6.33632
2.74178
2.91635
-5.31508
-7.14753
-5.35245
-24.8605
-26.8914
-9.55449
13.9928
25.4294
32.8077
33.5094
18.0312
0.768696
5.4223
7.16884
3.52025
-10.8903
-7.8271
-3.89535
2.00519
4.72168
-1.446
-9.07133
-0.814864
-2.926
-1.19617
2.96803
1.91282
-7.4859
-12.8282
-13.4114
-18.8485
-18.0406
-23.5726
-25.4087
-5.64891
5.30255
15.4208
19.3739
15.5953
6.81937
14.8314
21.9881
17.3454
14.7923
7.94904
2.6807
-3.69737
-7.13896
-8.37061
-3.1073
-3.63631
-3.89193
2.59774
14.7625
8.57819
-0.548493
-2.91922
-2.27971
-8.66254
-11.1102
-21.3189
-32.616
-23.2471
1.12934
10.3075
16.0746
19.097
2.00822
-20.0446
-19.3422
-4.16718
11.5868
22.5837
18.9476
4.84401
12.3763
9.25231
4.8612
0.669135
-3.14466
4.15272
9.35593
-12.5571
-31.4622
-23.2505
0.240747
3.86641
8.70856
16.4417
10.7918
7.10803
-0.810987
-4.52293
-5.98737
2.33778
0.305688
-6.8698
-9.61863
-5.0882
-4.11378
5.07904
13.4115
28.691
20.4502
-8.82967
-20.8389
-5.75569
-5.38868
3.95407
6.39162
-5.78345
-17.9065
-20.9285
-11.8161
-8.96745
-7.92879
-1.54259
-2.56649
4.65088
10.3634
0.786123
-2.01956
6.43407
14.4774
11.0333
-10.5194
-18.991
-2.53242
1.78692
0.218414
11.9974
30.2128
26.0315
0.468708
5.53084
15.9137
17.6052
14.0437
17.6603
21.5449
2.26806
-14.1652
-22.7285
-31.9204
-20.3431
-9.42253
-11.0121
-6.894
-11.4415
-15.6778
-26.6577
-32.2258
-11.5158
21.4264
25.1975
13.2136
6.91771
0.686174
-18.9699
-19.2128
-3.88149
0.515169
-0.16065
3.21868
10.7325
18.842
10.3933
15.877
36.6993
31.0219
14.3167
2.60087
3.85955
5.43356
-9.30062
-15.983
-28.2217
-35.8431
-31.4708
-23.211
-6.9658
16.0982
16.0239
13.4979
8.58847
-5.81662
-14.964
-14.9972
-16.157
3.38779
33.0352
28.9325
3.21515
-3.45819
-2.71198
-6.02448
-9.32548
-3.34725
6.02132
15.3829
7.70725
-4.35661
-2.22128
1.08952
2.51582
10.7341
12.2502
9.9103
-0.661046
-12.7949
-12.0591
-2.71962
-2.92219
-9.44875
2.33151
13.2868
25.3252
26.4822
13.5388
-10.5788
-19.3558
-20.5163
-28.6408
-39.8553
-29.2416
-21.645
-2.45241
21.6756
31.1034
20.1315
-1.42221
-0.0690215
10.7465
9.95834
-1.84731
-9.61428
-5.95796
-3.84862
-0.412901
-0.375959
2.30847
-0.763864
3.96974
5.41961
-2.78566
6.79781
21.8537
14.1213
-10.0477
7.84963
42.7389
28.4068
-11.5394
-39.037
-27.6716
-7.28192
-4.98868
-1.80865
-4.76724
-12.4126
-3.83041
-2.09642
-2.56562
5.34289
3.59701
-11.0208
-28.2877
-38.6274
-24.577
-12.0568
-7.70512
7.39824
21.3818
38.5318
42.5772
24.2799
14.9415
-1.00779
-12.9881
-0.237529
6.96258
8.32874
8.10677
13.2995
14.3032
9.05323
12.1093
11.3875
0.713036
-15.1503
-18.6985
-8.81693
6.14853
4.69392
-10.1243
-11.6381
-6.58543
0.909584
8.70168
3.03802
-12.9149
-14.2321
-14.6074
-3.62306
14.2415
14.2034
-6.86447
-20.9787
-22.8846
-14.7277
-17.3961
-15.5155
-17.0943
-18.2428
-0.874425
19.6292
9.81367
-6.52807
0.862548
12.2126
23.8034
26.5124
22.1387
7.45638
-9.93957
-9.99167
-3.29102
2.63189
14.1883
13.1585
7.79693
0.647443
4.17904
15.3738
17.7661
10.7152
6.68155
6.45003
5.40127
3.77858
-4.73844
-14.0594
-9.39252
-7.10716
-19.5948
-14.891
-7.92492
-4.74894
-5.09347
-10.9965
-8.7214
-10.87
-11.6547
-8.11129
-0.195882
7.70194
6.06834
6.32093
1.24872
-11.1216
-23.3747
-16.5994
0.958235
25.433
34.0229
18.1846
3.27228
1.32389
7.30296
2.61412
-1.56168
5.48248
5.62322
-2.16246
-10.6456
-19.792
-24.5568
-18.544
-2.29636
9.17746
17.5185
20.6791
9.43004
-2.6066
0.310369
-1.68831
9.50453
12.3722
-2.01309
-1.66675
0.31034
4.05199
12.7658
-5.25833
-16.2485
-1.33971
9.46491
15.1287
16.0501
7.88247
-1.84022
-3.84831
2.65862
17.6164
9.31014
-4.30177
-18.1622
-31.2179
-30.4594
-36.6497
-36.9866
-27.3728
-9.85068
8.69248
17.7469
16.5523
13.4149
5.84654
-5.02192
-0.188211
7.48339
4.28975
-14.0956
-26.5852
-27.5595
-17.2474
5.04438
20.0733
21.0761
29.7176
39.4501
52.2718
55.3113
41.3791
13.3778
-9.33803
-9.96162
-2.36548
-4.52798
-13.0924
-18.8169
-10.7807
-7.94194
-24.2402
-20.2722
-1.30699
-2.95993
-10.0805
-7.27809
-2.90724
-4.29352
-9.4059
-21.504
-20.9903
-15.194
-13.4439
0.33306
3.3281
-1.02903
7.9992
13.9182
-7.16141
-4.79561
-1.57735
2.87901
11.1637
10.8163
11.223
16.9425
7.77102
7.99067
7.86762
16.4419
16.2538
8.46826
5.00549
-5.21742
-11.9313
-2.75367
3.36618
16.8026
30.8233
8.14316
-11.5413
-10.8112
-6.29714
-13.4228
-21.2537
-36.2619
-29.5225
-19.0993
-14.0565
-17.6664
-1.32705
15.0737
21.4204
15.6376
-6.11047
-18.2598
-16.5349
-3.05412
16.6576
17.1488
16.1398
11.6504
0.165215
1.90914
5.82734
18.2582
27.2675
9.53864
-3.74014
-8.30345
5.51586
16.7604
11.5433
7.80969
21.5123
12.2671
-2.85792
-24.2468
-39.3364
-25.3376
-12.2699
-1.38708
-3.25976
-2.88224
2.24674
3.65716
-3.24979
-2.99975
-6.96093
-4.44727
-7.53985
-9.20795
-20.3443
-13.2279
1.64497
10.1498
10.5611
7.13259
1.33202
-1.58739
3.34426
0.945698
-10.2437
-4.43263
8.31414
9.32821
2.41895
-1.16085
0.185629
4.74982
-1.90294
9.73383
25.4036
27.0614
10.9
-1.51575
13.0021
18.2806
4.64455
9.38647
-5.07681
-19.1829
-5.12589
-8.30642
-13.7614
-6.44001
-3.30009
-7.22807
-15.5808
-27.8735
-29.548
-32.7698
-22.6462
-11.3895
9.03785
48.9491
52.434
22.8827
-11.4652
-32.8607
