19.4146
2.51038
-27.9794
-46.6508
-66.5424
-90.3449
-151.988
-95.6458
48.0569
269.149
257.995
82.6485
7.42724
-23.5217
30.0103
24.9678
-56.698
-82.7488
-54.9337
-75.1252
-147.497
-157.433
-112.386
-8.85995
68.5458
178.759
172.736
82.6228
28.8389
-83.3358
-227.448
-163.917
-65.8931
-58.8935
-33.8419
61.7899
125.518
106.087
61.2501
57.4956
39.3714
40.3495
82.2768
51.8742
-2.33339
-50.1832
5.91157
76.9827
123.455
48.3044
-46.4718
-38.745
1.79669
-15.262
-162.616
-279.207
-292.136
-206.508
222.025
553.945
418.292
173.91
6.38394
-27.1725
25.4805
-19.4304
-82.6757
-110.629
-129.125
-152.479
-193.719
-169.367
-114.601
-38.8067
56.3893
125.466
144.064
124.239
-79.2912
-277.378
-180.362
-65.2353
-22.1118
-60.1968
-82.187
-44.4933
18.2872
53.2988
56.2057
93.8413
200.796
180.142
133.345
124.181
133.139
105.123
49.1969
16.8148
-70.8167
-132.178
-79.0377
1.78423
23.1662
18.8286
-7.52428
-24.8937
-31.8355
-65.5124
-58.9091
-58.1134
-42.8192
183.862
207.302
20.3121
-49.6606
40.3994
56.8973
-75.2725
-167.109
-153.291
-51.7464
21.3312
-28.1262
-55.4467
-84.6046
-51.1983
-12.0266
-25.1403
-0.894935
50.101
-78.7869
-150.325
17.3426
79.9768
140.943
147.025
76.7644
71.3686
68.127
40.6406
0.807362
-34.1986
-20.3245
-147.667
-238.958
-144.985
77.5391
332.746
244.936
-25.2356
-30.7211
58.073
-19.3633
-6.689
-52.4083
-148.465
-158.163
18.8491
68.9324
-0.990813
-36.9682
-17.5149
87.5807
207.24
208.927
104.788
-34.1257
-167.808
-174.171
-78.6235
-57.8435
-136.688
-129.651
-32.9131
-3.76304
-16.3535
-17.2515
-80.9344
-28.05
44.9264
8.26526
3.17674
34.396
296.682
400.945
264.428
127.306
1.985
-54.1103
-56.4752
-63.6825
-121.674
-158.551
-111.92
-25.0046
12.2533
-17.1781
-75.2756
-109.923
-118.585
-56.2071
-16.8951
-31.9252
-138.091
-144.28
-77.9842
-33.56
26.8032
88.4369
112.414
110.873
100.815
100.646
82.7704
42.2752
6.99487
45.1674
84.6153
58.0803
56.5193
71.9557
66.0036
36.4982
-56.2799
-102.627
-53.2668
-28.7144
-36.8092
-9.6256
53.1669
72.295
16.3347
-30.0714
-41.8151
-46.7032
-33.4314
-13.6677
-3.90143
-30.0504
-39.9545
-49.5943
-107.047
-35.9636
7.16345
-1.25578
-62.9625
-84.6281
-132.093
-163.037
-154.879
11.0395
248.156
257.334
348.982
272.352
76.4591
-22.3903
-48.7877
-52.8619
-77.5056
-65.6894
13.2732
-16.8349
-67.0487
-48.6934
7.92181
21.8039
44.4369
57.1077
19.2984
-84.3076
-200.922
-173.599
-191.062
-124.527
-5.82368
66.188
77.8504
84.9774
89.8273
107.83
64.1775
21.0028
37.0953
44.0469
18.8493
-6.70683
1.82118
36.5633
79.7057
34.4264
-36.196
-41.4793
-70.385
-33.498
55.7059
98.5173
66.8652
27.7807
2.97992
-54.1802
-69.4078
-113.249
-214.106
-163.589
-22.1941
246.963
294.96
122.529
-40.7641
-38.9415
207.441
115.17
-75.5599
-196.238
-238.444
-180.697
-116.57
-47.1781
51.1851
30.1107
-4.80188
16.2734
118.13
101.572
-11.5276
-145.712
-141.38
-26.7003
53.3677
30.8024
-129.708
-76.0149
28.8191
91.7409
101.888
69.1226
67.4183
52.6314
23.2194
56.8128
80.022
66.4491
43.3515
29.6288
34.8991
-23.0146
-45.0204
-25.1767
11.5513
9.63732
-71.1259
-57.6248
-6.32689
19.5251
20.0297
9.0853
4.90849
-8.51981
-37.9025
-37.4799
-34.1523
-27.2515
-2.72772
-34.1307
-169.034
-211.053
-106.704
152.414
307.802
197.478
95.986
136.478
79.1223
-15.3437
-68.3
-80.1916
-93.7727
-84.2026
-73.977
-63.4615
-76.6208
-140.799
-152.861
-70.9362
58.5537
139.441
180.256
-3.74688
-110.2
-111.561
-135.618
-124.556
-63.3324
-2.67052
197.025
343.185
255.009
123.771
43.7708
35.9473
72.1406
64.3745
-56.1574
-157.397
-133.832
-13.8461
2.80324
26.1975
55.5497
103.555
81.5674
24.0811
-41.623
-129.779
-157.916
-142.363
-102.513
-54.7039
-29.4185
-28.555
-27.3268
-36.167
-68.6213
-50.306
8.66127
240.46
347.239
149.06
39.0065
34.0879
-20.9751
-97.004
-153.823
-181.689
-142.175
-61.5344
37.9186
160.543
92.9412
-21.8394
-39.7828
78.3899
258.611
175.981
19.0462
-239.838
-293.019
-186.448
-169.653
-120.736
-2.50854
100.021
144.277
119.887
74.2105
31.4686
20.1547
-33.2515
-19.5477
44.7372
77.128
9.76695
0.173107
103.089
97.2495
-3.52169
-111.389
-269.316
-258.167
-99.4096
216.355
393.129
288.419
218.375
147.69
23.9734
-58.4999
-123.788
-133.759
-122.703
-142.54
-163.62
-176.463
-129.383
62.5906
164.58
41.3832
13.1782
-28.4905
3.6674
-33.0116
-118.653
-118.668
-135.679
-98.7988
-45.264
18.281
69.9602
93.0814
83.8339
19.7428
8.14283
39.7228
56.3136
14.2776
86.0699
47.3718
2.57414
58.6197
234.103
267.914
69.0674
-7.70925
-64.7186
-108.836
-70.811
-72.4025
-95.8128
-76.981
-30.7229
17.1353
-2.49
-20.9883
-18.7118
-87.5292
-225.539
-16.2654
234.892
132.199
-158.193
-231.495
-48.3805
22.6535
-14.7928
-31.1658
-6.68238
64.9651
124.815
192.569
143.119
89.4148
86.0624
56.0232
4.57224
-46.7053
-77.3167
-22.4393
-33.2612
-69.8838
-116.015
-140.187
-76.8826
-71.2656
-155.091
-184.75
-71.8169
271.006
396.429
276.333
152.35
46.9318
-35.1646
-122.602
-136.275
-99.0183
-33.5888
-12.9048
-28.9617
23.9594
51.4923
15.0333
-13.7523
-33.9206
33.1109
54.0526
53.0577
-113.972
-233.199
-209.926
-105.28
-0.144856
69.5574
110.962
104.942
97.2526
66.2456
36.7289
45.7281
49.2489
9.32013
-35.0693
-45.8902
16.4637
88.3415
114.72
22.425
-144.952
-68.2793
31.0337
18.0463
1.0921
-39.5274
-31.0387
-2.4216
92.4284
142.922
15.7724
-53.7791
-42.7767
-8.85406
-23.9208
-73.85
-185.742
-256.834
-214.066
-42.3541
289.82
300.085
129.796
35.1102
-6.02376
-8.10774
-2.84554
12.6247
-43.7944
-100.137
-67.2027
-38.3761
-25.9887
-46.2538
-50.5789
3.04436
141.733
253.742
205.787
-16.7867
-281.945
-333.649
-185.777
26.9079
186.861
152.558
66.7116
39.6609
13.202
-19.4273
8.09878
28.9959
41.4729
28.4302
12.0122
-0.865776
17.933
50.6901
54.2399
13.8799
-67.2865
-139.045
-231.556
-59.194
15.5843
144.672
307.126
136.209
-37.3619
-104.483
-75.4165
-85.6879
-119.255
-108.137
-49.105
67.9296
113.672
79.5951
33.8613
40.8704
-5.99533
-27.0465
5.6373
-92.1187
-130.268
-128.498
-148.071
-53.5543
11.2389
42.5287
85.3597
137.595
138.794
74.7238
9.06022
-45.387
-61.5832
-26.25
72.4363
119.186
121.708
81.3213
1.89878
-161.464
-63.9658
-33.5486
-109.856
-53.1747
28.5463
38.3513
15.72
56.0696
114.117
105.844
64.3925
-1.28558
-25.2513
-28.0788
-50.0689
-47.2787
-64.6457
-60.4585
0.653315
54.9061
-28.2994
-55.5978
-43.5495
-32.6752
-30.3554
-61.3514
-157.686
-194.501
-140.189
150.702
311.264
256.683
184.342
135.019
0.0630051
-115.822
-121.147
-79.4302
-24.8063
-7.34394
-62.2169
-75.587
-50.0432
-24.2204
-2.82485
25.0005
79.7123
142.549
149.334
-28.1632
-145.589
-155.693
-139.743
-117.63
-36.9916
53.5572
53.3855
68.5178
95.7856
95.3217
54.5383
40.5248
14.7302
-32.063
26.2753
196.363
215.386
61.323
-56.1699
-113.138
-132.065
-114.614
-74.0683
-43.0452
-8.60003
-7.47327
-17.1293
-33.2151
-49.0109
-9.32011
65.7288
110.901
107.912
63.9261
-19.9005
-96.3521
-35.089
15.4164
-92.3439
-258.734
-315.946
-207.522
86.3349
316.613
282.894
233.372
171.334
117.27
20.202
-53.2373
-88.152
-114.289
-106.864
-57.2214
-54.8397
-83.6405
-83.3316
-71.0591
-18.25
96.8468
176.9
157.798
5.67728
-135.691
-108.903
-70.5071
-25.3533
-5.17452
28.2739
25.0826
16.3833
-15.0348
-40.5742
21.48
50.557
42.4865
27.9011
26.0733
54.7285
72.063
92.3964
111.792
36.8979
-32.8469
-41.6226
-34.393
-42.9659
-50.7041
-28.5482
-29.3844
-37.1609
-21.9027
16.8191
22.8148
9.65556
-13.1251
-26.9602
-21.5676
4.56308
23.1668
-0.571087
-33.0941
-56.1243
-79.9112
-97.1191
-146.324
-206.62
-144.465
48.2399
352.351
337.484
91.4717
-39.7488
29.9581
152.827
226.856
111.463
16.4107
-42.4413
-62.8946
-78.3799
-139.047
-176.121
-173.484
-134.268
-87.5862
33.7006
102.122
5.40807
-144.477
-130.458
-31.4402
46.5674
13.3083
-46.8776
-75.6198
11.5405
74.2916
98.5841
87.8781
71.2184
41.485
44.7513
82.6085
89.108
81.7985
92.0083
136.883
68.5294
-43.8888
-69.0367
-97.7842
-64.4646
63.9251
20.762
-81.1538
-44.6596
51.6997
52.3093
9.76102
-18.2851
-13.7265
-10.681
-11.3893
-18.7282
-102.66
-210.326
-253.464
-58.6243
230.689
238.015
194.749
103.342
-98.5788
-183.582
-141.562
-85.9021
-48.4501
-16.0547
-74.5202
-88.6393
-68.1488
-5.52422
26.8367
10.9657
29.4823
166.041
200.027
120.454
-1.22402
-21.6123
44.8446
26.6127
-7.11037
21.1781
-9.19251
-83.1906
-104.178
-64.8223
17.6997
71.433
111.039
88.8656
49.0423
37.0305
56.0929
-6.36237
-63.769
-85.2639
-161.7
-138.039
-52.9873
15.8247
40.0553
45.0762
40.7758
35.9717
14.5527
2.09498
17.5971
70.9746
94.1512
47.569
-34.8487
-122.677
-190.473
-203.973
-96.2633
164.616
245.363
201.595
226.968
155.998
21.3637
-74.216
-123.629
-153.181
-225.384
-234.013
-79.5566
78.1033
37.2251
-70.6079
-97.978
21.479
117.67
123.718
79.8664
-63.5785
-169.82
-199.805
-189.952
-93.5539
144.471
172.064
138.378
109.255
148.795
241.854
93.3945
-91.3965
-92.9743
15.1478
75.8293
-23.6463
-89.4964
-53.8591
106.222
233.593
121.77
51.5608
-15.8087
-61.7463
-153.994
-121.754
-47.9158
-24.3114
-38.8792
-122.632
-114.025
-78.6574
-31.1215
0.611434
6.02772
45.8505
123.704
128.746
-30.318
-233.647
-223.116
-114.595
-37.098
19.541
150.272
187.286
92.9781
16.9958
-35.4517
-27.6909
46.1287
149.188
117.141
50.0815
48.3599
115.031
126.416
62.2716
-34.2142
-112.699
-97.7161
-97.6194
-115.814
-83.0237
-118.948
-87.2167
-9.25061
43.2949
59.8037
51.6576
30.4843
-28.449
1.61344
26.1748
-8.551
-73.9358
-95.3745
-100.017
-53.8678
25.4317
23.0415
-22.1222
-117.767
-49.5769
225.245
262.018
168.628
126.157
90.6047
74.0656
89.1617
-31.6903
-120.369
-133.152
-35.8031
61.8716
85.9436
52.0133
-44.381
-153.316
-138.646
-62.8764
27.1196
-6.74104
-192.734
-213.681
-111.792
-99.1205
-60.6889
3.90505
17.7064
123.537
164.942
106.732
13.8131
-77.4599
-50.0248
44.7371
84.348
120.975
212.831
225.402
178.383
56.2904
-96.537
-126.626
-88.6342
-19.4553
6.50629
-30.8154
-62.9308
-81.008
-61.1069
3.64212
35.3018
44.2026
6.75103
-56.8825
-105.777
-142.55
-216.657
-225.736
-1.94981
313.24
303.063
177.398
123.343
76.8327
-5.7653
-91.8091
-98.2482
-115.91
-104.793
46.3597
80.0093
41.5746
33.0561
25.0299
15.0549
-17.8864
-45.2615
-60.43
-91.4131
-175.135
-155.813
-69.3468
-40.8117
4.2395
52.7743
83.2528
62.6227
53.0404
51.9829
-21.9324
-32.4323
16.6998
42.8776
20.1005
1.25186
128.314
261.056
210.73
19.4437
-59.7365
-39.4465
-93.6751
-126.597
-36.2874
80.7251
55.5233
-1.3569
-32.6421
-49.7149
-88.6365
-96.5998
-63.1474
-27.4207
52.6522
115.106
3.39683
-96.4961
-93.3152
-45.4363
-69.1544
-83.7004
-17.7704
13.0083
-75.3096
-102.634
-33.4516
205.511
361.394
193.839
75.3902
-14.1954
-34.8609
-47.3745
-67.2916
-99.405
-101.757
-93.105
9.63178
16.7146
-50.9793
19.1424
207.499
216.961
120.371
19.3369
-28.0546
-165.668
-268.579
-176.539
-13.746
124.011
74.6822
7.8223
-15.0982
-27.5663
-12.4433
11.2565
17.0841
45.6284
47.9626
-30.5212
-133.905
-108.256
-15.2904
108.696
191.654
84.6615
-9.70227
8.26753
-24.2846
-53.9969
-26.4983
17.1289
33.4698
40.0848
36.9645
5.95521
-18.9567
-12.8848
-6.96917
-23.6057
-52.462
-55.4354
-34.0459
-66.8799
-93.1637
-42.4029
-4.30392
-73.9628
-122.009
-34.6817
267.52
381.529
214.699
74.4321
-60.4767
-89.9869
-104.062
-78.5475
-24.5194
-3.79508
-7.42879
-23.8035
-69.5247
-115.027
-95.3366
-73.433
-35.2025
166.137
194.408
78.8295
-144.601
-250.652
-113.012
38.8925
67.3566
97.1857
108.279
43.4243
33.8517
12.5107
-72.4801
-91.7889
102.789
233.252
220.256
96.7721
6.90659
-42.1644
-20.9388
-45.7781
-103.692
-123.037
-101.599
-35.7129
42.7274
-34.9953
-57.3105
-17.2439
-118.4
-206.592
-133.489
87.7204
287.732
197.614
44.9594
-15.2094
-21.365
-6.57748
-47.3407
-77.2776
-53.4247
-29.9021
-37.9821
-75.9792
-59.7414
-3.69241
75.5197
174.463
190.804
153.63
51.6347
-99.0511
-227.866
-208.939
-118.029
-17.315
29.2046
16.2707
28.3041
59.4289
49.5766
50.3539
88.0578
93.4537
76.2585
51.8061
28.4729
-30.5022
-19.5643
38.0863
78.6734
58.0072
-56.6509
-81.1017
-59.7854
-23.7027
9.37604
-12.4346
-35.1488
-35.6292
-50.4507
-88.2128
-139.77
-114.438
-9.08758
99.0233
147.594
110.711
83.673
-44.3383
-49.1695
1.74405
-80.7705
-74.8463
86.5116
93.1896
-10.8147
-54.5342
3.02447
70.4669
65.3532
46.7535
35.3789
4.64024
-55.983
-98.8655
-125.672
-103.162
-61.411
29.4521
63.8876
42.6479
6.63904
-13.2396
-83.7624
-71.7575
-108.454
-143.934
-123.45
104.109
377.901
340.765
218.677
75.2746
-20.1769
-54.0604
-98.4521
-109.695
-99.8498
-37.5133
56.0599
91.3437
70.0457
15.7893
-48.2955
-49.362
41.5982
65.9501
-74.6359
-179.404
-215.604
-162.117
-69.6518
16.7194
60.9912
57.8179
42.5579
27.3792
39.2488
65.7249
35.3413
-1.80677
15.2768
23.2436
10.6172
7.06188
26.0584
58.6596
110.802
37.0335
-55.8978
-24.7871
7.05887
-10.9262
-67.4729
-104.001
-94.6771
-19.5257
107.951
123.425
41.9316
-27.5383
-34.6669
-22.4688
-22.523
-17.5253
-14.2572
-1.63729
34.3596
3.3695
-55.6082
-62.1147
-31.9288
18.6306
21.5159
29.0762
37.4371
12.0609
-67.7009
-182.085
-203.749
-150.616
98.1934
342.694
333.683
222.344
65.1608
-39.0516
-33.5835
-22.3248
-46.3277
-69.2715
-74.1723
-105.457
-82.1966
-81.4025
-16.6088
96.6334
93.8133
78.3802
78.4581
45.6381
-72.8289
-184.061
-179.196
-161.977
-88.8643
-3.48239
30.2391
47.822
59.9102
66.4705
53.0595
58.7326
69.0304
33.1163
5.20759
-27.0359
-27.2241
31.7389
56.7577
62.8526
10.5532
-56.2057
-66.7207
-5.94218
51.1754
40.619
14.7072
28.2021
-5.83105
-22.8464
-26.506
-41.2679
65.9254
236.288
101.265
-37.7896
-58.869
-28.4114
-39.844
-100.364
-161.332
-157.943
-100.035
-46.9714
6.5345
34.9997
35.0556
-10.0644
-16.0814
18.4617
40.273
50.3965
8.55442
-42.3401
0.715196
18.0236
12.993
13.0105
19.6623
77.5773
135.185
106.236
54.8445
-21.8409
-152.05
-195.031
-139.693
88.9836
297.964
187.658
86.3815
65.1664
-0.947019
-93.0483
-101.479
-93.0724
-94.637
-76.8089
-38.5039
-32.7981
-62.7808
-69.2135
-54.8596
-4.19052
70.0299
103.333
93.4342
-53.0589
-234.222
-171.19
-109.551
-61.3422
67.9368
175.884
159.661
68.0839
52.5376
67.8928
66.4759
46.1454
5.9936
41.6302
166.686
141.943
79.6965
11.0098
-61.2759
-137.709
-126.332
-56.3967
-18.5261
-14.1801
-52.0141
-85.0058
-52.4787
-13.081
-17.1964
-17.2216
-14.351
-0.600575
14.6767
-1.89313
-25.489
12.464
48.1405
71.5256
41.4248
0.935968
-16.1942
-29.6399
-18.3407
-18.068
-37.2344
-86.5527
-169.97
-162.343
-33.4332
285.288
366.959
225.59
70.8815
-39.5989
-115.97
-128.126
-99.1095
-55.2075
25.6165
67.7277
-14.6602
-44.0659
-21.3194
14.4559
-6.32912
-6.2922
37.8297
38.8044
-49.7448
-240.835
-209.405
38.5942
197.064
121.251
-9.48779
-67.1463
-111.82
24.1378
205.578
121.062
60.5441
64.1886
34.6337
-7.39003
-26.5631
-16.1703
25.4818
58.8332
47.9822
-28.1063
-106.872
-232.303
-251.712
-6.26206
72.9018
75.8608
77.156
5.70584
-50.0703
-1.65367
46.215
34.0519
20.8031
22.2063
30.6454
25.0142
30.5328
22.4198
-12.4577
-65.3553
-154.14
-192.164
-141.689
5.04583
276.116
267.152
211.357
111.413
-56.7454
-91.3161
-52.1757
-36.3752
-41.8664
-57.7052
-41.5224
-88.8231
-99.6115
-71.5072
-27.6034
14.583
48.8769
100.746
146.392
40.1939
-137.046
-125.645
-52.7711
-22.2148
-17.3689
-5.16525
14.64
34.2229
42.5081
57.2316
66.7955
91.432
95.2596
59.7049
28.9987
-15.6449
9.97014
49.5035
25.0538
-61.2207
-120.83
-129.479
-79.8048
-91.71
-86.7298
68.7152
191.615
90.9686
-33.7241
-56.9232
-0.84709
57.9275
66.1228
47.6833
18.7235
-3.43688
-7.53057
-15.7317
-33.4941
-53.8913
-80.9271
-74.1548
-63.4737
-10.3331
23.7799
0.500155
-26.8072
4.79679
45.9077
47.1823
-12.7503
-58.0678
-74.7322
-21.5907
4.78606
-79.5973
-113.194
2.11152
280.453
317.894
176.961
77.2521
23.5274
34.3721
13.492
-103.495
-193.252
-143.589
-67.689
-34.9602
-22.1882
-7.83911
-2.26194
-26.5136
-32.1257
20.2031
38.2982
3.6131
-126.014
-143.866
-77.5038
-22.083
5.84569
5.77877
55.0485
166.493
146.277
58.2209
27.2919
93.2837
40.9571
-43.9405
-8.55362
92.4375
141.721
78.701
31.3615
-22.6433
-125.89
-144.421
-75.8185
-19.9779
4.30979
-5.4907
-34.131
-88.78
-68.4499
-3.00275
27.1875
-32.65
-25.9077
-47.6086
-192.438
-271.994
-115.259
339.511
606.436
398.496
101.267
-74.4902
-107.397
-54.017
-64.7744
-87.11
-107.921
-132.226
-113.918
-77.3079
-47.3223
-38.7025
-27.3022
31.2642
120.637
118.676
24.0835
-144.32
-245.506
-152.203
-31.7655
49.9027
82.5591
69.5532
60.1486
60.0285
72.3533
103.191
119.197
97.2867
37.6697
-3.63891
-12.2255
19.4902
72.5061
89.9211
40.8192
-53.2605
-129.477
-99.1425
-39.0987
-15.8929
-25.1458
2.66701
54.9457
98.4513
111.208
-55.8839
-166.999
-168.103
-116.603
-107.425
-108.862
31.496
309.496
316.339
156.727
-20.176
-115.027
-66.1159
3.92777
-18.6186
-76.0953
-89.0523
-75.8168
-82.1316
-134.648
-82.8535
0.82762
90.7948
66.8639
66.9375
110.261
19.6459
-148.815
-134.376
-61.5208
-13.279
13.3962
-4.41078
-7.17122
35.6582
74.251
64.7595
53.7114
38.7829
49.773
76.1938
67.3988
28.6572
43.9918
55.5914
42.213
72.1509
47.4851
-18.2715
-57.5074
-49.4146
11.9073
-25.2559
-77.4563
-60.8104
-31.6589
-12.1967
-4.49009
-15.7527
-54.376
-15.3536
20.7423
6.69449
12.2783
13.2873
0.409351
-45.4394
-116.523
-143.443
-96.3779
-33.1069
11.3058
136.755
118.765
43.9371
7.55151
20.283
46.8342
50.3528
55.8515
26.7412
-0.992377
-17.9531
-20.8785
-22.3272
-13.5958
-17.3412
-39.6518
-10.5843
11.7555
11.7793
-25.1866
-69.5316
-46.017
-0.414137
31.7829
11.2131
-30.9576
-24.9322
25.3305
40.5397
-7.96594
6.32966
40.3298
42.5871
28.154
13.9201
12.8491
34.3625
30.8837
-109.247
-148.606
-56.7296
131.11
267.092
150.447
46.2728
-54.1853
-89.2737
-91.9572
-45.3755
43.5285
36.1656
-20.5659
-47.7906
-46.0441
-41.1765
-29.3947
-28.2704
-19.4408
51.1956
54.3976
-22.2799
-132.463
-205.483
-132.316
-49.2609
16.1677
47.8956
55.8657
39.9626
-3.15649
-36.1033
-31.8998
11.9879
153.118
175.196
89.2228
85.4371
102.453
111.749
61.2295
-15.9858
-57.1957
-80.5325
-46.7615
-25.0244
-0.364584
-5.63663
-20.7852
-43.941
-52.7464
-29.8688
29.9689
88.2713
54.5393
-34.8161
-56.652
-99.5336
-232.097
-316.893
-239.3
100.458
374.074
351.788
269.056
102.552
-31.8533
-109.404
-119.021
-47.7202
13.625
-5.12637
-29.5591
-63.4162
-114.81
-80.6667
-26.1293
-1.16422
67.0933
135.697
122.382
-37.0565
-185.485
-179.378
-127.965
-45.9656
50.1879
138.087
87.5309
-31.3069
-30.1537
56.9332
104.003
174.556
143.894
55.5364
22.7371
-3.16939
14.5303
48.3866
31.471
-65.1926
-135.085
-127.144
-89.0151
-39.8975
-20.5554
-37.5999
-1.57544
33.2598
22.4123
-2.00931
-32.2584
-95.9979
-102.062
-20.2468
22.185
34.8818
61.1274
75.5984
69.3728
15.8077
-32.5016
-22.5289
-25.5532
-25.3289
40.9837
177.007
174.743
77.4144
7.04004
-16.7088
-32.4722
-69.6071
-88.0366
-71.0538
-53.1265
-48.3928
-68.6934
-34.4431
34.264
72.3447
47.8731
-1.59154
-13.9832
-5.72298
-51.1256
-236.643
-258.455
-143.06
110.918
403.762
366.274
153.182
-61.0123
-62.9091
44.3578
-15.5868
-64.7586
-84.4825
-95.0015
-16.4097
-8.2194
-15.5366
-14.635
2.41558
1.38394
33.2571
70.0477
75.3443
-43.3419
-204.915
-186.452
-82.7622
40.9372
50.8546
-11.7253
48.98
126.492
141.649
99.3696
6.0377
-12.63
-5.64734
-8.96069
-0.123833
5.58692
25.8905
83.7107
92.6826
25.2166
-80.2754
-114.156
-98.2355
-38.0308
-5.75657
-9.60752
10.1219
2.58058
-43.8887
-61.5584
24.0034
32.345
-113.47
-194.164
-136.505
68.0807
337.603
308.33
161.067
32.0772
-57.4629
-67.4999
-45.6725
-48.716
-38.5176
-88.5168
-115.224
-75.6871
-26.5677
-2.48028
-60.9542
-48.5007
73.7275
174.287
170.242
39.8955
-169.121
-252.715
-202.135
-149.273
-86.1047
50.3727
165.795
149.554
124.102
196.959
153.704
59.9519
43.2456
44.1591
-3.32229
-42.6017
-24.7768
34.8777
1.46469
-43.0038
-31.4391
21.6901
56.3459
47.2953
14.8256
-35.6197
-40.1182
-48.7398
-132.805
-179.223
-134.216
-51.2953
-13.9826
7.97155
11.8503
18.994
41.7062
24.9788
13.1527
-12.6165
-79.2704
-206.453
-232.54
-45.4113
348.47
513.039
230.581
49.2101
0.748106
-13.4953
39.8856
15.1879
-26.8596
-48.4697
-72.9211
-79.3997
-61.6274
-61.1334
-66.8987
-65.3924
-59.4633
23.7638
74.6371
16.8851
-161.079
-251.389
-117.119
1.85228
55.2261
80.9747
67.5447
21.2349
-1.53989
-3.70084
17.2321
83.2987
126.587
157.588
143.744
93.1795
49.0534
55.4944
45.5487
-4.68928
-113.074
-186.52
-136.86
-56.3321
-5.63822
30.1693
57.6082
72.3219
42.6848
-2.82215
-22.6614
-58.37
-96.2933
-105.63
-74.8978
-31.018
11.827
45.5545
51.2049
11.3457
-44.0727
-56.9407
-40.9153
-7.02242
54.7686
87.6508
119.795
86.4532
-31.5166
-154.035
-178.308
-53.2822
235.595
278.849
169.047
53.3702
-42.3984
-69.7751
-65.8629
-39.3997
-32.9107
-42.4624
-27.6019
-29.1456
-57.6881
-92.1935
-119.58
-98.6643
-11.7309
113.869
174.008
65.4301
-123.808
-176.633
-106.01
-39.0609
-27.2106
-2.52551
55.5545
133.629
188.177
128.36
93.1144
74.0388
-16.1648
-50.0521
-59.4909
-14.9271
48.1267
76.5832
42.7419
5.79434
-59.6508
-84.0979
-81.5847
-29.6928
72.3576
-14.749
-191.176
-246.198
-54.8431
230.264
207.088
125.39
102.681
40.566
-35.3687
-87.0182
-97.4516
-50.5404
31.9032
20.6509
-39.447
-61.0796
-52.0079
-47.9473
-38.0847
-19.7215
14.7963
36.6226
-20.1481
-92.7468
-68.3977
-24.3908
19.7013
34.1756
47.5238
63.9685
67.1929
39.7703
14.6709
39.1754
33.6831
27.0958
14.2792
4.54067
-0.127986
91.0573
188.863
145.274
-14.7678
-136.258
-134.576
-112.112
-101.74
-107.461
-46.759
136.324
162.947
42.354
-44.198
-32.1811
-23.6985
-39.2237
-67.8656
-71.8991
-35.86
-12.6406
-13.9589
-10.9462
-5.07155
26.9423
44.8116
1.24354
-24.1041
-10.9691
-24.2853
-54.8826
-39.796
-81.2571
-149.503
-121.204
138.196
434.631
397.356
200.657
18.6175
-50.3578
-70.6062
-62.5745
-74.3446
-135.714
-90.6465
17.3131
26.2148
-19.4814
-43.9083
-110.293
-78.7804
38.5696
83.7207
66.626
-51.8013
-169.41
-127.474
-36.3448
25.068
44.8014
62.2432
47.2908
0.010623
-14.2958
-27.5647
-42.2297
8.85879
59.7436
66.9144
40.8114
15.977
35.9063
68.593
50.0073
-45.2246
-140.22
-85.8907
-36.011
106.05
142.19
74.1904
15.6053
-1.37215
-4.33799
-15.7959
-9.29462
4.65614
18.4694
22.8998
7.4415
-13.1227
-32.5412
-25.3436
34.2913
62.6263
23.5973
-51.64
-81.493
-176.617
-244.923
-171.459
29.2149
123.957
58.1501
17.4677
10.8122
52.6
103.295
64.5709
35.2168
24.3092
-12.984
-129.815
-190.689
-121.424
159.402
335.299
271.666
149.856
109.016
56.5425
-86.8715
-193.272
-145.446
-74.5601
-73.1751
-90.7485
-102.024
-61.8819
-30.3178
-14.3124
5.21174
37.3141
42.8947
83.2157
-45.0247
-178.188
-116.12
-38.6771
-35.3138
10.4835
77.7559
100.031
98.519
74.1233
63.3179
45.5051
62.1956
75.0123
20.9744
-25.3996
-17.065
107.201
204.3
64.7692
-96.1145
-112.793
-53.7566
-40.024
-27.7877
-27.8534
-62.9341
-65.6487
-27.4121
9.7246
19.989
8.24042
-41.1943
-31.5001
-26.8834
-46.1173
11.7793
13.6559
-70.0919
-103.703
-69.016
-68.6562
-37.3445
69.4524
132.916
122.643
57.368
6.57637
-96.5948
-160.268
-103.163
146.046
400.268
283.547
159.87
90.8851
18.3434
6.22259
-80.447
-134.312
-204.624
-153.559
-96.4918
-102.018
-91.7688
-78.2401
-2.29296
110.497
113.345
68.0213
33.7135
-96.6772
-224.058
-159.944
-92.5228
-21.2732
20.7392
32.6164
115.931
161.691
144.97
110.311
23.4383
-45.5401
-37.4718
-7.67731
62.5162
118.733
103.118
78.8768
38.1792
-46.5123
-136.191
-119.754
-62.2344
-34.4313
-26.2967
-38.9111
-53.5974
0.287701
34.4381
15.5175
35.8167
53.7362
49.7206
30.9137
-40.1021
-114.976
-46.3929
30.511
51.5519
6.73879
-43.2122
-41.635
1.0504
-12.3442
-4.12526
7.45436
21.3593
11.3392
25.1564
43.1936
29.11
8.17424
27.9891
32.619
-10.9982
-40.6771
-0.152442
23.3025
-10.3863
-57.8978
-164.981
-229.25
-208.283
160.579
459.982
367.39
231.231
70.9176
-90.5466
-181.799
-192.441
-60.1128
-3.07892
-48.0607
-70.5292
-77.7367
-78.6402
-65.6748
-27.4022
3.55392
47.3125
53.2577
38.9807
-73.8086
-213.341
-110.243
1.27305
7.14189
55.1497
101.885
122.187
95.8656
72.974
74.5094
41.8507
14.2594
47.1239
42.6294
18.0039
-4.8506
19.7121
14.4117
-26.2082
-56.6946
-51.2458
-92.0798
-135.957
-75.9607
-25.82
37.736
106.794
52.7468
-12.4962
-101.321
-178.095
-165.295
-49.6473
257.565
356.783
272.497
185.752
104.364
58.2293
-40.7531
-137.746
-143.324
-123.592
-102.226
-132.728
-167.945
-135.012
-60.9166
-45.1068
20.3631
96.7848
126.851
72.6079
-99.3247
-165.645
-134.744
-97.6871
-25.9571
55.0769
61.19
47.8954
49.3881
87.4544
115.992
237.614
270.457
133.764
9.11018
-15.0769
13.4987
31.7351
-5.15326
-67.7066
-140.684
-148.167
-141.553
-111.857
-22.0991
38.4953
1.28394
-48.887
-51.8375
-6.35563
38.4252
-16.6151
5.13891
31.8009
7.63704
4.22231
13.2421
34.0037
37.375
-4.7678
-20.6117
13.2645
22.5267
-66.1166
-97.8477
-34.9287
216.323
327.221
204.316
40.1776
-72.2943
-104.637
-127.55
-121.541
-92.5873
-69.9607
-45.9539
-31.1849
-26.517
-35.9776
-45.7456
-57.9128
-18.9172
41.341
96.2142
74.7867
-57.819
-142.872
-102.268
-49.7342
-75.1579
-24.2836
55.9263
94.1574
154.59
207.8
128.863
9.20374
-63.9492
-100.967
-100.91
28.3773
308.784
328.384
160.464
15.4469
-104.009
-136.399
-94.1389
-78.6462
-35.0561
-33.3984
-83.3484
-78.2901
-53.552
-47.1202
-20.3123
25.8334
56.3798
72.4484
39.6354
-61.6164
-190.995
-127.819
-33.2177
-3.2963
-32.0477
-36.4208
-4.22903
13.7725
17.1957
14.0244
72.8393
107.563
-3.17452
-126.867
-187.296
-126.546
38.5064
363.735
419.717
232.397
7.195
-81.5286
-78.2357
-76.2976
-90.4346
-55.8291
8.57569
33.9084
50.8336
34.4395
-26.3691
-66.309
-36.375
0.00785071
37.4504
34.4454
1.02024
-141.253
-215.337
-143.723
-66.5038
-1.97286
42.9007
95.3617
144.04
86.4972
-33.0426
-71.7159
-66.5019
-39.0955
-35.7252
-55.4417
14.1983
128.394
242.089
192.102
64.0779
-55.3808
-30.697
22.386
31.1028
27.2556
14.8699
-22.3323
-86.7797
-100.289
-84.8794
-74.2515
-22.0377
53.0765
82.7218
54.1851
-28.1277
-91.9248
-116.629
-55.682
-8.00188
-19.3746
-34.8214
-47.5247
-32.5876
5.13097
-51.1224
-173.874
-166.544
-10.1203
340.589
488.307
364.433
158.364
-9.32166
-61.9442
-80.1831
-92.8288
-67.8552
-33.0089
-80.263
-91.4118
-118.023
-101.777
-54.7821
-36.3433
3.06329
65.3881
73.248
16.026
-123.444
-169.861
-110.706
-43.4778
13.2384
55.4569
68.0373
69.58
29.8793
-13.5804
5.54254
74.2415
176.854
114.67
71.4702
142.56
86.4643
69.9289
54.6458
7.76385
-68.1927
-176.406
-222.977
-149.64
-61.1687
16.7644
50.8016
53.8714
61.7866
67.7874
60.0601
-31.1889
-139.483
-105.141
-74.292
-107.461
-64.2968
-43.3624
-40.4462
-39.3457
-65.8471
-11.8966
188.087
414.202
328.377
106.107
-4.67941
-77.7099
-132.852
-129.297
-122.713
-101.37
64.6913
110.376
32.0822
-29.4767
-13.0201
13.5331
-1.60283
-26.4877
-73.2962
-57.7598
-73.8841
-186.946
-154.179
-42.8948
55.467
106.989
104.667
79.049
80.6634
54.8665
-36.8794
-14.5735
74.2597
45.3276
13.7328
27.1302
35.9262
43.2052
60.8187
58.2843
-2.19421
-124.481
-138.104
-44.8302
-1.84046
-48.0744
-68.7528
-69.6632
86.1007
187.145
88.7989
-0.551881
-34.2626
-3.31004
16.4394
-20.8909
-51.3365
-42.2783
-20.2546
1.79365
2.83756
-30.6087
-53.6414
-49.0553
-45.5054
7.35403
127.24
148.503
35.432
-103.124
-186.221
-209.242
-205.255
48.5112
307.932
270.031
179.72
87.2867
-12.1564
-54.5483
-64.9745
-78.3696
-54.0098
-13.0412
-28.8413
-29.0095
-47.9166
-16.5054
7.39827
32.0943
69.3702
88.4025
90.8402
-37.0977
-175.799
-137.692
-64.7632
-7.76959
21.2921
8.63505
12.2924
58.4002
81.2986
39.3449
6.34547
-12.1269
-63.72
-94.3742
-56.8965
8.6302
74.0372
109.417
66.2396
-12.3307
-48.9934
-15.8563
-3.48239
12.2921
47.2035
52.275
-23.6656
-85.712
-35.9498
116.405
119.173
22.7825
106.91
135.099
-50.8796
-151.235
-134.162
-35.7908
-6.04126
-40.2144
-4.35625
2.38625
-22.1782
-31.6177
-31.7919
-36.9596
-84.7834
-150.677
-151.232
-95.3545
215.116
324.631
131.789
4.25585
-16.2837
-9.89655
46.6831
48.5968
28.1989
-2.02067
-67.9707
-91.8686
-72.5096
-56.8267
-52.2522
-50.787
29.8088
125.182
90.3728
-54.0889
-185.212
-138.422
-59.7215
12.2855
88.4788
113.995
65.8832
-6.54597
23.0372
93.2815
58.978
31.8816
37.1617
40.4892
39.4784
68.6941
114.672
122.881
93.5401
11.3962
-98.7137
-124.55
-110.72
-118.864
-137.893
-112.178
-30.5139
16.547
96.1986
9.72232
-53.8685
-36.5809
-21.7456
-28.8779
-28.6972
-33.9773
-43.0149
3.59442
59.0816
43.9592
-25.6364
-37.8363
-31.0337
-12.4434
31.8299
51.1089
2.46653
-39.2383
-149.089
-150.653
2.27573
192.354
344.023
220.372
116.116
91.5006
25.0315
-22.3042
-58.0757
-73.8812
-99.5049
-92.6995
-68.2021
-37.1024
2.36475
16.2608
-0.180238
-26.0415
-4.97103
32.1182
-26.4315
-128.442
-180.864
-72.1686
-3.52633
12.2925
68.7501
102.609
92.4685
57.9145
21.1184
18.4705
45.9194
74.9436
52.7275
-8.42745
-66.3668
-100.084
-46.227
-23.6165
-14.0595
3.47944
-18.0196
1.32508
21.3716
6.20983
1.19774
6.5495
20.8862
16.484
-45.9222
-123.798
-81.9042
32.1573
45.753
95.0011
133.173
136.012
149.068
154.487
116.241
11.7117
-86.7305
-148.434
-260.017
-310.928
-215.345
76.3669
235.669
170.023
163
117.278
27.1138
-109.433
-147.6
-142.132
-117.516
-156.662
-162.608
-114.377
-57.2323
-10.0293
27.2012
71.9134
144.656
166.921
94.2891
-26.083
-81.2864
-14.5099
39.7908
85.4721
73.0241
46.6762
68.7526
56.6865
36.8885
78.9604
81.31
63.6166
30.5556
9.29324
12.4165
52.4177
19.0484
-41.1283
-86.7635
-193.657
-212.409
-133.76
-72.5027
-14.6287
8.98504
-0.637065
-4.71499
-21.804
-2.08124
37.805
83.5242
158.208
69.938
13.6564
71.0174
51.214
29.7111
23.5437
16.9931
-20.743
-74.4278
-107.962
-80.3224
-18.0343
-27.1082
-26.6173
-8.16029
-13.1172
-30.7773
-36.723
-82.2753
-185.603
-223.639
-172.831
-29.9607
278.489
349.377
257.515
175.404
107.638
47.8461
7.2109
-29.7666
-61.9134
-41.1513
-22.2113
-29.3119
-24.6301
-14.7688
-3.70968
-22.8239
-21.5606
73.2257
73.393
-93.001
-223.634
-170.252
-81.9893
-30.7879
-18.4929
22.156
44.869
66.2814
84.2915
68.9707
31.9717
16.1556
21.0789
25.4924
32.3665
13.2585
7.32671
1.4918
4.21779
38.5166
-30.2757
-45.621
72.2113
123.703
76.8713
0.222701
-64.6731
-70.7681
-23.0379
-5.28154
-17.663
-45.2123
-61.2538
-13.5172
50.852
18.1
-17.0708
-11.5784
7.5952
-31.5715
-102.81
-163.121
-265.582
-260.728
-103.083
251.212
437.329
320.119
115.221
-30.7835
-59.6237
-23.7517
29.365
-48.4484
-105.345
-13.326
66.0025
43.9741
7.68241
-27.7692
-30.0579
43.915
70.5093
50.1402
18.834
-180.443
-270.249
-155.215
-63.1079
-0.343858
28.5595
64.127
65.6959
75.2204
74.3146
48.1044
12.1396
39.6759
91.9703
114.261
72.5713
21.2499
21.1316
34.3686
1.33126
-52.468
-74.0084
-82.8733
-78.918
-48.9765
-24.4918
1.51645
119.059
162.564
-5.73587
-104.56
-82.4323
-34.4826
-45.6178
-65.6755
-64.5752
-54.6096
6.01868
11.7039
-115.82
-187.372
-119.059
181.293
384.12
259.737
100.351
1.08406
-33.2825
-69.5027
-38.9799
-14.7481
-37.0488
-67.503
-73.2367
-59.9593
-47.4336
-20.2774
-18.3338
-8.59118
61.3641
101.249
74.5338
-97.436
-196.899
-83.4262
24.2667
11.1057
-44.0319
-7.17359
68.4703
97.8725
96.4409
104.089
120.571
84.5786
53.5088
16.5061
-46.8749
-148.042
-102.013
85.5511
78.0615
-14.6467
-74.1356
-57.4378
-10.2518
31.431
1.22861
-25.1931
-44.8058
-66.4514
-66.301
-56.7616
53.628
184.621
142.458
55.8274
33.4443
54.8012
28.1888
-83.8037
-90.8483
-80.8799
-42.5658
-16.9501
-13.6036
-141.929
-360.014
-358.15
93.5661
488.508
386.845
161.934
-53.8315
-161.389
-139.908
-73.57
-19.2934
30.2632
43.9827
-4.04138
-35.3596
-59.7355
-66.7432
-43.9196
-13.5696
115.636
263.306
247.776
5.79771
-197.142
-203.857
-98.2635
-31.4412
-14.6889
16.8936
43.302
53.7662
89.3403
105.251
28.6976
2.89496
8.36503
-4.16904
-3.44132
7.66402
65.6321
67.2482
56.6626
-41.9828
-118.577
-33.6547
25.4393
7.77176
-27.4266
-33.61
-16.6596
-7.3815
-5.46676
-29.0196
-18.917
-3.28613
-45.3813
-95.9715
-125.363
-78.1101
65.2579
148.872
85.0909
-104.421
-234.942
-159.981
46.9435
278.703
235.231
134.293
33.0194
-33.0302
-78.6087
-85.8796
-42.0364
-25.3483
-38.979
2.69799
118.562
175.954
22.0064
-72.2088
-41.0503
32.6645
54.5936
-33.3428
-127.478
-186.963
-78.5305
-33.3669
-40.1171
0.285198
39.5102
63.0844
73.573
93.7885
129.105
71.634
-22.5615
-73.0932
-50.819
-45.5554
-31.9825
27.3518
38.124
22.9361
4.30202
-51.3813
-66.5619
30.8103
155.095
130.64
54.0703
12.3515
-11.9631
-24.8774
-45.6898
-35.1564
-26.3284
-46.8664
-57.644
-33.9354
-29.3624
-35.1756
-21.1602
18.3837
-4.44427
-43.6451
-46.8213
-43.3381
-24.6068
-32.5136
-138.843
-239.766
-201.913
-37.6936
323.449
429.905
416.358
338.334
40.662
-121.448
-96.7092
-76.7931
-66.7162
-56.9993
-65.0179
-80.7129
-65.7257
-65.0894
-71.9321
-45.2038
56.4201
114.512
81.0381
-11.1878
-187.251
-211.425
-190.699
-187.759
-29.3309
91.0148
110.318
114.465
98.6724
99.4445
181.57
199.478
95.9867
18.5592
-15.6711
-16.5455
7.27017
50.6822
74.4024
34.5239
-55.5014
-88.9659
-109.906
-110.676
-50.6818
8.74812
8.40284
-2.47649
-9.1206
-29.6511
-85.6727
-99.063
-44.8403
13.863
56.3
30.1692
25.1475
22.918
13.5623
4.86869
-116.256
-226.8
-144.997
50.5181
333.681
338.088
189.809
70.0117
-3.62015
-44.5297
-95.2297
-131.544
-156.699
-138.174
-97.1392
19.9716
160.635
114.217
-5.78262
-34.9587
60.4251
145.609
8.39181
-137.023
-273.576
-248.08
-127.204
-28.3492
61.5564
106.177
92.7783
74.5621
76.746
90.279
55.2203
8.4362
-44.0039
-0.984788
57.2361
68.4293
47.8826
44.6374
73.9117
61.8931
7.00011
-16.056
-19.7626
-6.28768
-12.5449
-14.4777
-11.0163
-4.26634
14.7109
-12.7167
-26.9461
-34.7089
-101.194
-131.666
-47.0856
39.7337
3.0783
-13.108
8.31689
-7.83992
-27.5148
-26.0027
-30.6262
-37.9095
-29.7816
-24.6064
-33.6231
-15.1726
62.3084
96.3091
74.0705
42.2134
33.4249
46.0131
13.7226
-29.3861
-20.4326
-38.4212
-27.1791
3.0634
-19.5908
-21.9521
-43.8586
-70.4024
-66.6301
151.171
304.757
187.122
31.0103
-20.5018
-75.0569
-131.032
-99.4411
-5.14001
115.087
58.6654
-56.9094
-90.7906
-69.1453
-36.7177
-28.2903
19.3157
93.873
77.182
-41.538
-225.291
-269.936
-201.303
-64.5987
70.4605
142.611
133.199
102.72
60.3315
-2.31365
4.02615
54.3555
107.593
83.5036
38.9887
18.4431
-21.7595
-16.8867
22.6639
76.8259
44.3481
-18.9408
9.80733
-8.31109
-45.1446
-16.8108
27.8049
32.7215
17.8023
-47.2409
-90.7256
-61.0192
-38.7558
-34.8621
-42.3963
-6.96996
34.445
-10.3922
-44.4583
5.41695
21.4697
-45.7498
-29.9304
-11.7791
-54.2742
-71.0876
-32.3155
-1.01129
8.83051
1.42404
28.0586
55.2158
53.7802
46.968
49.7866
38.109
11.553
16.7025
37.622
20.8997
-1.23326
-69.6268
-183.468
-204.5
-55.279
292.35
380.602
274.427
166.349
37.6988
-18.8678
-55.1549
-105.818
-140.344
-145.627
-145.682
-135.529
-132.077
-84.9054
53.584
108.249
94.6279
45.4099
40.4607
-7.74895
-180.453
-233.499
-144.405
-74.3003
-22.0264
1.70186
11.7943
-4.68865
49.9121
80.6105
91.5066
103.59
110.208
94.9214
60.4858
81.9838
136.258
162.047
116.805
18.6204
-100.848
-107.217
-88.6501
-66.3578
-38.5171
-19.9691
19.0247
59.1041
51.0564
43.5384
-20.0015
-65.4367
-40.1056
-41.7336
-92.0094
-108.809
-73.6634
-22.689
-11.5053
-12.6704
-23.4264
-36.3266
-45.3309
-34.3221
-44.4878
-129.518
-120.545
19.5192
284.701
383.396
297.524
133.356
5.34435
0.601464
15.0849
-65.0646
-108.244
-69.6003
-7.16312
-4.81001
-105.595
-158.6
-134.428
-39.7436
124.783
162.786
59.7222
-45.6344
-194.526
-252.873
-162.675
-46.323
28.493
23.6615
7.85357
88.8021
124.14
64.0839
-16.007
-26.5157
41.379
86.83
93.4972
52.0482
-5.28797
49.656
100.398
71.6493
-19.4595
-9.156
72.8615
24.5118
-5.10848
-23.7816
-56.8118
-124.734
-90.7122
60.2843
70.1308
11.6609
11.5868
13.4562
4.83181
-22.6526
-47.0303
-27.551
-3.6601
3.6273
-23.5771
-73.5436
-98.2286
-40.0804
2.96405
11.2108
0.622537
9.21906
17.7742
-0.453023
16.0977
12.2249
-0.986055
4.1265
-0.106109
-1.28371
-9.28417
-8.14862
-7.41872
-6.89177
-25.1823
-33.3416
-16.7354
7.39173
15.4694
27.8436
-41.0486
-125.742
-106.657
51.5913
315.1
276.208
109.648
29.2152
-21.8376
-65.6165
-90.8136
-88.3884
-59.7607
-76.2685
-24.0644
135.227
110.585
41.5856
16.3147
-5.46937
-0.0234069
20.5652
1.41479
-93.7801
-180.738
-114.969
-71.5481
-73.6872
-74.3079
-58.4264
83.1539
119.422
56.3444
31.146
4.84768
-71.0651
-70.0627
-26.1854
-2.67609
14.9677
54.5808
96.2365
100.047
45.8591
-41.384
-19.0628
83.9439
120.842
103.822
68.9715
-40.7327
-56.0776
-0.0127772
27.2319
15.1988
-62.5223
-104.459
-118.384
-74.3573
-17.6311
8.19072
7.66453
19.7692
12.4285
-24.6295
-51.9834
-48.6555
-9.1556
34.9299
45.5999
-3.68616
-14.6083
23.718
88.9776
-8.9349
-101.467
-93.1049
-18.0762
13.6092
1.39644
41.6387
150.736
162.114
85.147
7.30924
-25.5684
-41.8696
-50.7879
-54.736
-33.5449
-9.80464
-6.23978
-37.5326
-65.2769
-9.20903
29.8359
-50.4021
-135.13
-140.367
14.2377
271.23
236.09
90.8283
-0.220174
-11.1801
90.5545
10.2417
-99.1424
-84.0472
-72.9958
-63.2113
-64.2247
-69.4052
-96.8305
-71.9842
53.71
185.211
154.12
74.236
-32.1146
-167.927
-171.416
-99.8266
-17.7558
1.94811
-45.4043
-12.2103
54.8914
59.3189
87.5671
88.5414
84.5711
63.0732
71.5804
74.436
12.2921
-44.4916
-4.07836
46.1885
31.6089
-43.5536
-65.9239
-45.587
-19.8506
-9.19028
-36.1455
-10.2893
24.6562
23.2146
3.93244
0.0202139
-4.08028
1.71639
5.49512
14.1036
6.42114
22.5122
35.1714
-12.7798
-62.9656
-84.1118
-75.7972
-38.0028
27.1352
46.5753
4.6153
-36.4237
-50.27
-54.4757
-23.7364
-4.84758
-6.3154
-1.48103
35.9425
59.0578
42.2387
31.4538
24.3494
-9.39036
-40.6551
-43.425
-26.6196
-24.4594
-26.9687
28.3111
93.9746
111.939
86.344
49.7909
11.0599
4.98317
-0.325342
0.00521633
-19.7054
-33.5018
-34.9642
-25.4695
4.72869
31.1849
37.6343
8.73547
-19.1965
-40.5869
-61.7413
-72.7979
-61.1755
-28.154
0.967594
18.345
38.1243
-6.48542
-33.9192
-7.05506
-1.11937
-10.2331
-6.59824
16.8491
31.5375
41.7175
40.6101
22.7732
14.3316
11.7363
7.36895
-12.6751
-29.5643
-15.3119
-3.95922
-34.3857
-76.5161
-89.6217
-14.8252
142.545
177.36
99.1969
30.6855
-7.01921
-18.6362
-26.0043
-24.2806
-31.2199
-35.1736
-28.5272
-27.3203
-37.7974
-41.2357
-40.2528
-31.1421
6.76176
27.9693
52.034
-0.625268
-198.891
-246.402
-107.518
186.989
363.612
229.052
96.3663
54.8655
27.1192
-1.56877
-91.288
-148.485
-137.709
-76.4072
-31.2448
-25.5059
-11.8292
32.5508
92.7252
90.3308
57.1079
32.6886
26.7438
-101.482
-198.588
-103.992
-9.24709
3.08321
-4.21055
8.72072
98.8318
109.067
104.628
-8.87856
-49.0212
-13.7304
-25.8216
-14.6122
11.5372
14.8934
14.997
0.575377
-24.2306
-27.2369
-12.8437
71.9188
66.1989
44.9202
83.5594
74.7936
19.5676
-86.2743
-228.338
-228.668
-116.383
212.512
406.047
156.002
-108.108
-50.019
48.5141
34.8954
-46.5306
-126.182
-161.231
-169.694
-133.261
-101.544
-92.7579
-79.2194
-24.0818
107.181
205.97
228.904
178.539
-33.1114
-165.469
-81.8783
-1.08161
-105.038
-86.9288
77.4758
148.069
65.8108
-8.96931
-50.2005
-52.9138
-5.59073
91.8037
99.8451
63.4631
75.1985
84.931
67.4478
6.97112
-76.8752
-98.6728
-30.5788
52.3946
92.1498
28.7295
-67.9299
-103.487
-17.0627
132.045
130.223
53.6805
-83.1435
-267.309
-289.762
-123.267
172.585
194.182
98.79
29.4222
-45.5044
-93.0112
-79.4073
-8.24426
8.64559
-11.7441
-37.6075
-48.0102
-49.4673
-111.292
-105.511
-38.512
39.4505
91.1513
151.772
136.715
-7.10644
-51.9527
-8.79281
1.43757
2.24102
12.3053
17.2874
-36.1417
-26.7445
35.6421
76.9451
57.803
76.7289
149.353
107.389
38.9175
12.9228
18.1396
-45.5448
-158.274
-195.029
-87.628
-32.3679
-63.1791
-25.5448
19.6577
27.7949
39.9735
75.837
74.01
38.4312
29.6057
-6.85785
-46.373
-10.8507
14.4623
0.184905
-55.1062
-154.172
-164.642
-137.659
68.0942
363.123
344.296
208.653
50.0312
-50.1212
-86.1976
-111.254
-139.839
-146.022
-104.043
-80.8578
-115.074
-106.819
-52.6861
7.12682
50.7445
113.223
118.235
56.8683
-83.5536
-200.023
-96.3572
25.0738
85.3947
51.7925
4.10532
-2.42987
-24.1686
32.2622
102.829
33.2475
38.6782
95.1397
79.2972
67.1162
73.8973
100.353
107.078
64.0724
-20.7024
-106.8
-108.549
-121.898
-103.734
-38.0508
9.66974
5.57714
10.4232
2.84185
12.7006
51.3399
9.91357
-26.0456
-17.6029
-12.7088
-12.0842
-2.88168
-6.53912
-10.3675
-23.0069
-60.1399
-65.0439
-60.6753
-30.2627
10.1912
36.0209
31.5177
31.4182
18.5703
-13.46
23.9077
38.8671
25.4413
18.2645
-13.8098
-114.959
-183.673
-40.379
73.9262
63.3668
136.471
107.049
34.0888
17.2921
59.1918
70.8813
51.2578
35.1486
4.81613
-30.0159
-53.3276
-63.1372
-67.8479
-59.4311
-24.4346
48.2215
108.246
35.1241
-37.5494
-56.1824
-107.483
-83.4411
-41.1081
-10.9554
-7.00647
-12.4735
-93.8511
-162.583
-143.557
42.6709
310.392
280.951
200.203
60.9754
-9.45453
-32.9951
-36.8093
-43.4521
-54.6295
-44.9623
-65.8376
-72.6193
-56.7909
-43.5827
-34.1943
-25.9662
36.7495
83.3947
81.478
-12.0474
-153.17
-143.543
-94.0616
-9.60436
28.6422
71.255
99.8499
71.7967
84.072
125.082
95.9465
50.5157
43.1278
36.5725
-46.9837
-69.3773
-8.40719
39.666
34.8391
-28.1873
-109.563
-100.932
-64.8146
-21.1603
-5.27177
7.50566
18.992
-1.4394
-31.1854
-7.03053
31.1631
58.0953
36.9969
7.78473
8.37666
4.17524
7.56731
-12.881
-48.6677
-70.0002
-83.8626
-10.3638
27.8396
42.4126
97.1499
47.8938
-13.2088
-18.6822
-40.5079
-83.7517
-87.2039
-60.7056
-5.53766
47.4566
89.6808
91.2369
41.2726
-22.9934
-160.205
-192.258
-74.6285
234.757
430.105
310.868
102.912
-68.8424
-181.725
-155.687
-35.3381
-25.3842
-98.4735
-113.804
-119.022
-79.465
-13.5162
12.186
25.8084
70.4122
155.162
158.007
58.2753
-144.804
-262.349
-187.673
-83.5669
40.9572
117.23
97.87
67.6685
38.2676
41.2358
51.419
35.9993
17.2855
50.45
66.6331
30.6967
18.287
47.3362
-0.402554
-65.3922
-152.045
-157.526
14.2243
71.014
25.883
48.5434
44.2821
2.35557
-1.70672
9.82419
2.26478
-17.6454
-88.5258
-160.426
-55.7692
24.8496
-18.577
-14.2811
42.9514
71.1577
33.6817
-30.6739
-92.2077
-63.8803
24.7569
65.4476
56.5458
20.5492
11.1468
20.8412
29.4675
46.4291
63.4211
61.6838
-2.7411
-26.5235
9.40907
23.0934
23.268
20.6691
-10.0128
-31.377
-54.8364
-57.451
-22.7759
-9.40179
-10.1994
-17.0602
-20.8723
-11.6414
-2.37523
14.5124
27.1269
9.75734
-64.9084
-73.7036
19.6705
3.67742
8.12895
63.4309
36.8041
-16.0313
-35.4921
-11.606
19.3465
29.2466
19.3875
-24.3634
-55.8623
-44.8892
-27.1213
-39.9133
-7.33231
104.159
159.98
112.715
24.9629
6.0986
-2.59952
-45.6977
-37.7156
-8.26936
-5.59407
-33.1888
-60.2151
-72.4589
-63.7049
-21.3895
91.3989
99.6189
34.4333
14.7618
-25.7714
-97.868
-121.161
-65.396
-33.3517
-8.1211
17.7174
20.3007
16.2017
22.616
13.5455
20.8746
83.4804
125.271
104.672
59.2663
-5.24644
-25.4227
-5.74339
-3.28724
-1.12613
-12.4707
-22.3174
-99.827
-230.576
-209.478
-94.1048
204.18
430.014
297.677
135.879
-35.8605
-119.335
-117.714
-109.458
-102.346
-102.293
-71.9311
-41.5417
-34.757
-30.7501
-46.4915
-61.6739
-21.0404
96.0977
142.645
81.8402
-96.9919
-216.555
-149.285
-55.9373
-1.80974
13.3273
38.5008
95.705
118.715
115.961
115.861
118.327
126.303
63.7426
25.2941
0.905861
-19.2736
5.41364
34.5131
30.7647
-40.7788
-103.84
-98.6537
-104.809
-30.8524
-1.8851
2.62746
8.48103
11.4966
-14.6187
-51.0298
-60.5633
-46.9953
-18.4643
-6.02634
41.5629
129.67
160.604
94.6639
-12.0795
-61.748
-20.9561
-42.4419
-160.078
-266.877
-216.237
69.3551
385.198
303.191
132.828
9.49567
-61.1294
-87.0152
-66.273
-47.2473
-53.1579
-69.2388
-88.1067
-82.4344
-49.4536
-62.7132
-102.804
-44.5644
75.2299
162.742
177.993
49.7927
-144.094
-132.336
-63.9888
10.6674
57.9897
76.5036
75.0325
59.8744
14.9635
-37.1508
-15.2945
37.4989
64.0668
146.082
163.117
91.1223
87.5128
79.7113
17.2221
-113.3
-187.227
-144.91
-125.632
-84.4619
-10.2899
8.59065
-15.5059
-20.8593
19.4238
87.3749
83.829
32.9715
-4.91457
-71.8178
-104.339
-41.7481
4.63027
30.7086
5.46421
-65.4426
-126.597
-84.0544
5.24642
26.2987
20.9434
24.4612
48.3124
62.7186
56.4689
31.591
8.74815
4.18775
6.38146
-15.6402
-26.1018
1.43789
22.3834
35.8474
24.454
0.323212
-24.2134
-46.4241
56.3158
178.15
2.37773
-236.407
-212.01
84.9638
377.49
312.467
134.823
-13.3013
-86.1503
-118.639
-138.71
-123.09
-102.671
-109.841
-90.849
-36.1463
-6.51057
4.66249
-32.2239
-72.3028
3.79316
100.271
98.2166
-23.0739
-170.91
-159.058
-88.2814
-0.527189
14.1498
33.3358
136.785
157.566
100.53
85.2097
106.18
85.485
58.0277
46.8292
0.143164
-55.9283
-21.3548
52.6343
56.1916
-36.9629
-124.005
-104.304
-26.2753
67.0082
63.5372
-9.64321
-71.5845
-67.7733
-56.6626
-49.9384
31.3627
68.7704
-9.22184
-39.9043
-31.1223
-30.6386
-14.2209
26.6009
71.0979
54.2589
-12.6021
-32.5666
-27.1504
-43.3209
-7.19474
28.0779
4.03312
-18.8216
2.35574
29.4726
4.74392
-23.5807
2.3763
22.0209
5.85916
-9.4889
3.69202
9.71148
-18.8643
-30.1375
-24.0065
-11.3341
-11.2804
-14.5734
8.87035
32.3123
15.7226
6.10919
26.2331
43.4878
13.3435
-1.66267
18.8546
28.9159
26.2218
18.2151
15.9487
19.8915
-1.9063
-38.7162
-47.8622
-30.3393
-17.184
-29.6871
-25.6052
-19.5003
-22.0449
-13.6483
-1.60319
8.91229
6.30373
0.0255704
17.8692
21.9835
20.6375
23.7608
26.2167
23.776
17.202
9.75288
11.0467
5.6963
-1.3955
-0.273106
2.10201
2.62529
0.15568
-8.30662
-16.1485
-15.674
-16.1558
-16.3496
-23.5932
-28.3806
-30.1957
-28.8497
-21.9614
-24.6541
-20.2364
-8.67531
2.17143
11.1155
10.8866
10.2817
10.2871
10.7009
23.5934
29.1663
24.4368
14.6252
1.15124
-1.64729
4.51052
3.98872
11.2827
15.8977
11.7875
11.009
9.95134
7.0454
5.46053
6.41366
5.64443
-6.91581
-1.21832
12.9741
11.3662
8.1668
8.0577
3.34488
-2.60915
-17.232
-17.0526
-12.6752
-21.245
-29.6099
-35.4716
-31.6795
-29.5995
-20.3666
-13.2788
-3.8268
3.42841
11.2455
11.5687
10.9276
14.5464
22.3319
30.6189
29.5087
26.0548
20.2163
6.43863
-6.12927
-11.3732
-8.09044
-9.09958
0.197271
-5.48034
-25.6416
-24.5956
-9.29977
-0.0926235
10.2004
10.6975
7.82269
6.08482
-2.99973
-17.1939
-23.9536
-16.1496
5.09106
11.0689
10.5232
18.6603
18.0494
19.6673
9.44
6.56731
12.772
-3.25472
-22.4646
-27.7312
-23.1699
-15.4305
-2.66558
2.0669
4.41869
7.46727
-14.5511
-29.6848
-12.0693
-7.89388
-12.8072
10.1664
76.3353
104.455
68.6882
15.6996
-9.70984
-14.356
-13.8475
-18.0857
-21.8953
-26.7126
-35.0085
-44.0407
-51.0219
-40.2694
-18.8482
-8.61211
-16.9407
-9.13738
-3.97959
-16.2797
-32.6455
-29.8786
-6.8073
34.2521
52.7421
58.8275
56.7191
69.3052
75.6596
49.9117
30.0856
24.9297
18.9558
10.9101
0.95644
-16.3142
-24.3148
-28.0232
-24.4573
-28.4294
-47.6415
-50.172
-37.8127
-32.3595
-35.6639
-21.4265
-2.72591
0.698569
11.7386
27.1061
19.7239
-5.72242
-19.4657
-12.921
14.2132
33.6813
21.2791
24.2007
36.9481
33.8983
19.3996
9.41335
-0.338667
-22.4355
-25.1159
-16.1796
-5.69913
17.3917
39.8807
-17.3582
-81.5227
-81.1259
-55.049
-30.9767
5.25949
28.5807
25.3658
16.8063
26.3831
54.6109
72.6486
26.6756
-36.3884
-36.3838
-39.8016
-26.9933
-13.7357
-35.1295
-68.0817
0.911354
68.2201
48.0831
17.2064
4.72285
3.65704
7.82945
24.9939
27.5142
15.8387
-5.48547
-21.2241
-5.95418
34.7582
59.3448
45.8252
27.7584
6.68049
-7.87846
-0.900496
-7.87715
-11.5111
-9.44416
-18.4333
-20.294
-17.2212
-3.66323
19.2213
28.659
2.09327
-32.1993
-81.5405
-84.1367
-47.4473
-28.9657
5.87066
23.2722
5.78817
-6.88602
-13.0028
22.5095
45.8083
15.9098
28.2659
35.9125
25.7537
5.77063
-20.3935
-43.1752
-26.846
-14.68
0.59555
-6.6834
-23.5447
-18.5651
-14.6696
-37.6746
-32.6773
2.43517
6.50229
-11.9207
-37.3902
-14.8905
18.8165
40.7222
71.9679
61.2887
-11.2997
-29.7471
22.8013
56.342
82.0411
62.7021
20.6012
13.1249
21.6495
33.4887
20.2858
-7.41512
-17.7948
-11.0859
45.6831
72.0676
17.8257
-28.2728
-72.5543
-83.8757
-51.6279
-39.467
-72.2417
-102.136
-98.8355
-56.4724
12.2084
58.1582
33.4649
20.241
26.0043
22.6712
10.9067
-18.828
-49.4608
-32.5805
-6.81467
-14.1377
-24.0151
4.53656
48.8066
50.692
39.4428
37.8799
54.0394
56.8975
4.56216
-42.0779
-13.0906
22.8926
-2.58633
-25.7319
4.12938
20.024
18.9157
5.57308
-7.79172
-18.6507
-26.2007
-38.201
-22.7
11.9724
40.0055
70.5032
50.3396
21.7474
35.6126
33.22
31.1777
20.928
12.0435
-19.3227
-53.0931
-57.507
-43.4138
-64.9902
-106.049
-116.652
-52.2848
-3.59734
22.7236
29.9633
10.0309
-6.30646
-32.927
-35.7526
-27.8309
-62.6269
-78.0452
-17.488
92.6813
209.624
265.813
164.897
64.7402
2.58578
1.28036
15.8604
-42.6781
-44.0559
-34.8875
-42.0357
-37.3925
-41.3629
-45.7148
-40.8043
-67.3216
-44.8513
-34.0918
-117.188
-138.139
-109.392
-80.0749
21.3371
45.3338
7.26274
63.5638
107.918
129.464
187.45
205.011
143.893
12.5808
-11.3505
-4.0042
-49.9151
-91.4338
-72.1384
-6.5934
18.6149
-63.2168
-46.6745
-12.7055
-11.6683
-15.4291
45.6678
46.0917
35.0209
85.9631
62.313
6.9392
7.93333
17.5218
-103.618
-217.784
-156.03
-75.308
-3.55957
14.5224
-85.0694
-124.472
-54.8131
23.3456
67.1964
76.9767
27.9744
9.8446
24.9638
-7.28838
-33.6779
24.3348
60.6186
83.9172
81.0645
100.415
54.2223
78.6802
83.4692
12.8878
64.4608
163.176
57.7634
-75.6377
-165.049
-153.955
-79.6697
-31.969
32.7078
43.8383
5.90805
-86.1027
-159.517
-105.27
8.57469
16.1631
-13.2366
-17.8608
48.405
69.2304
91.4353
87.9384
69.2446
-1.45861
-17.5321
20.9445
54.6434
-13.8553
-57.9578
-57.3937
-96.944
-140.369
-162.051
-172.149
-78.4292
58.9939
146.446
190.887
172.301
165.454
65.9284
-29.2302
-59.8339
-104.695
-87.6736
-91.831
-36.3956
-31.719
9.42871
31.505
47.5158
99.8032
146.866
107.913
80.9227
48.9162
-88.6218
-170.459
-232.404
-136.562
-59.6766
-30.636
-7.07845
105.457
159.267
126.968
76.7663
75.9442
-34.6083
-93.4759
-110.207
-114.854
-38.3312
95.9649
100.411
51.6513
161.094
174.14
101.831
23.5344
33.0301
1.02068
-84.6982
-102.468
-151.669
-127.906
-112.485
-100.305
-103.296
-41.0394
4.84229
11.7052
1.99047
-44.1241
-71.8459
-39.8896
5.85897
32.8081
82.2442
138.175
226.548
304.621
211.609
-110.496
-89.98
-106.59
-209.843
-243.485
-167.89
-36.7383
38.7202
103.223
128.755
139.665
106.416
27.0348
-15.4751
-38.0368
-20.3522
-61.7458
-123.037
-146.945
-63.1676
104.795
91.424
88.1169
98.4114
118.756
140.197
43.031
-5.90034
-32.0365
-82.918
-72.3135
-44.6885
-56.211
-66.5915
-48.9609
-99.9167
-103.51
-24.6379
-8.14828
31.2591
74.3357
59.5173
-86.3047
-123.213
78.271
207.32
146.983
61.9353
-0.460895
-27.5839
-43.2399
-57.3315
-19.2935
20.1517
33.3537
-4.70716
-23.8994
-27.5302
-23.6423
-85.8023
-75.4711
-118.838
32.7408
215.404
188.432
59.5886
-68.2706
-141.199
-136.73
-22.7586
5.36688
18.67
67.7064
67.571
83.1395
97.6762
33.8406
10.426
-5.223
-32.7703
-5.991
40.4641
-2.15624
-66.4332
-39.4805
-98.5522
-128.818
-78.2008
18.0145
-32.9533
-81.2025
-1.39433
-52.5683
-16.5363
149.846
116.399
17.2983
-20.553
44.5671
100.344
22.3375
-15.1375
3.76685
-25.1041
-165.348
-114.037
-5.14298
68.4543
111.014
157.949
165.997
20.5485
-27.2217
-87.6421
-228.742
-174.481
-64.722
-0.993597
5.40662
58.2601
285.25
250.834
133.031
58.1183
28.8211
-34.8936
-111.799
-98.1456
-91.4216
-97.3372
-159.577
-103.15
50.7658
146.82
182.345
114.965
67.0738
6.63557
-142.709
-314.722
-416.629
-236.679
-101.859
-79.4432
13.9484
28.3479
172.358
244.925
135.636
86.8698
115.3
129.725
114.19
74.7169
0.780109
24.3961
23.051
-28.5639
44.7926
111.328
61.1178
-39.0561
-47.744
-12.7807
-17.2014
47.8101
2.50255
-19.0084
0.226211
-13.6719
-8.12355
-90.5624
-203
-179.902
-128.646
-51.0194
1.39683
4.44399
11.2524
73.2131
95.6639
-42.4983
-195.96
-87.8178
12.305
70.7006
102.177
34.7838
61.5944
57.6729
17.687
12.488
46.2632
11.3274
-11.681
-43.9002
-31.6293
-5.66928
14.0389
25.0647
50.7188
117.591
255.655
291.419
172.547
-37.8395
-186.619
-139.435
-174.538
-297.745
-200.207
-69.6018
27.2456
102.712
153.505
136.901
63.8771
-24.7617
-97.7029
-101.019
-146.753
-149.679
-93.2008
-81.3893
-54.2431
80.0671
167.513
124.083
116.221
189.624
82.461
7.22093
-40.5134
-110.727
-144.894
-139.442
-85.4939
-37.7033
42.657
69.3125
69.596
129.426
154.793
115.202
80.3944
72.2268
74.1898
-16.8033
-66.925
-46.381
-40.3347
-46.6547
49.529
108.49
22.7293
-70.3647
-164.588
-186.366
-140.002
-26.452
147.68
141.783
-39.4995
-129.162
-132.383
-146.934
-101.525
2.32175
63.6031
26.2603
3.1409
33.5617
35.5982
51.9511
14.519
13.8589
113.62
187.374
117.655
-49.0834
-160.174
-225.895
-189.228
7.20657
104.325
25.7362
-61.1922
-42.157
23.1544
142.942
227.605
195.266
110.781
26.1238
-23.456
-124.845
-111.422
-97.4687
-79.1829
22.2883
126.862
186.654
217.739
94.3693
-38.583
-37.3274
4.99252
-45.9399
-87.9706
-85.111
-101.909
-89.3259
-135.755
-157.126
-87.3799
40.9964
35.1747
2.18958
44.6546
38.0581
-44.2928
2.3627
80.559
67.2648
10.4885
-41.5482
-108.828
-127.204
-158.028
-88.4273
38.0811
37.7757
26.5078
33.2229
67.0047
153.904
191.248
144.438
30.3461
-118.32
-166.199
-27.4941
55.5739
-54.1598
-62.7767
151.323
172.562
104.28
104.651
19.9634
-40.4408
-25.2278
-8.77366
-7.34687
5.06469
14.7801
-26.3917
-24.5727
-8.1325
-16.5987
-67.2828
-162.871
-134.183
-40.6493
18.6662
-94.7174
-30.2383
130.137
160.407
114.708
79.8905
10.4911
-89.1962
-192.334
-181.184
-221.226
-209.208
-41.3158
107.821
195.357
222.82
193.888
132.656
50.2759
29.5578
70.4352
15.182
-163.67
-278.398
-228.263
-141.339
-34.0118
82.334
191.247
186.637
174.743
204.698
152.789
-105.958
-156.458
-16.665
10.0386
-23.2848
1.92242
32.553
24.4852
18.5745
38.6442
70.1523
50.173
-38.5719
-83.3713
-121.745
-102.825
-92.7635
-54.2775
-11.1327
-113.579
-79.4346
6.69603
1.28826
39.8672
66.7428
55.1321
-17.6236
-51.9813
34.1312
28.3428
-22.0697
13.8942
54.4695
2.15828
-92.2816
-27.5825
113.188
82.6932
6.42158
30.9767
67.0004
58.8478
39.2182
17.6803
13.1165
-15.1799
-12.6107
-53.3277
-171.344
-128.788
26.3928
148.621
90.638
10.2442
85.5129
50.7399
-54.0156
5.5608
19.5881
9.41148
-21.3885
-199.404
-269.201
-217.038
-111.969
78.3328
191.374
195.525
108.337
-66.7558
-148.295
-112.906
14.6872
99.3715
207.42
170.799
37.172
-22.3576
56.9899
-20.7919
-198.163
-178.485
-94.2658
35.8238
81.1704
24.2798
-53.8769
-16.6213
92.12
146.264
172.537
83.3065
37.9209
62.4743
0.751633
-10.2882
-17.2431
-39.0977
-149.358
-125.207
59.5929
143.168
147.811
46.7466
-171.993
-179.07
-100.645
-113.179
-101.354
-65.8636
-28.4867
1.60018
-1.05791
-30.8928
-69.9658
-76.0144
-35.957
18.9826
40.5325
57.2471
136.421
237.398
255.72
205.954
92.5925
-21.0195
41.1811
-15.1177
-281.564
-198.945
-50.905
-150.671
-123.858
-48.4506
-3.67403
21.3524
51.2444
-4.24743
12.8157
23.3149
-77.3049
-36.6018
47.1694
136.999
225.841
139.34
-106.055
-73.6284
165.112
209.663
119.419
67.14
-22.7088
-84.7151
-106.77
-65.9954
-27.3287
-39.0522
-112.851
-101.781
-39.1032
0.331811
-69.6606
-138.97
-96.1776
-27.0952
1.61887
-7.99589
18.9304
16.2849
-35.1938
-17.5034
23.4452
127.894
121.877
69.5707
74.9391
53.3001
21.1207
46.5659
112.362
-28.6817
-154.768
-183.395
-138.941
-62.128
39.3452
113.908
107.078
69.3503
-17.2906
-24.7772
-23.7669
-59.3795
23.7594
27.1262
-10.765
85.5144
132.111
126.024
144.448
97.4472
-187.053
-256.217
-42.7325
18.391
-6.45432
-63.3201
-164.353
-220.914
-208.059
-58.8997
21.415
54.2841
121.15
102.951
89.1146
76.9439
100.488
90.9611
51.2032
64.4508
158.109
161.698
37.4995
-12.6725
-34.2184
-26.3684
67.3878
63.8256
51.9395
-8.80799
-15.3586
-42.8487
-182.155
-186.02
-140.655
-115.831
-85.8219
-130.284
-114.303
-36.0003
50.7349
-6.24758
-53.0298
-11.8686
37.4336
30.2308
15.2539
58.1891
130.988
110.443
36.4366
10.4659
-11.2806
-93.1379
-201.598
-205.609
-89.6865
-2.12449
103.093
161.584
193.292
181.014
118.533
71.4098
40.2034
36.7247
67.8826
90.9004
89.8116
56.279
72.7013
102.439
92.1986
48.2146
52.1415
9.96721
-175.995
-306.32
-317.498
-213.727
-102.895
-48.2802
-24.3639
-59.6911
-121.029
-130.18
-46.4113
17.8717
48.9586
28.97
-31.8241
-41.888
27.2264
112.172
142.937
115.209
114.03
165.7
146.781
31.0531
-19.734
-24.8405
-53.795
-18.1156
70.6188
56.1618
-25.043
7.91634
3.5765
-18.9974
-18.846
-80.2908
-103.254
-74.7265
-44.9856
-147.317
-75.2176
90.3947
59.0819
18.2322
-15.0091
-25.3602
23.7345
82.2582
75.0119
49.9647
40.3459
-17.5115
-127.367
-153.663
-100.926
6.1341
96.9993
110.304
54.8443
75.0609
71.1591
-8.71645
-1.06493
39.8457
82.765
108.815
102.143
52.6275
-22.1834
-199.784
-308.303
-242.399
-53.5667
63.7026
60.2402
53.7814
5.42312
-13.8544
21.112
66.2201
40.4882
5.66093
11.0324
15.8244
-18.5401
-56.2199
-76.8917
-27.1025
31.6754
142.322
212.447
194.679
162.63
22.7526
-88.3678
-61.1459
-94.349
-197.824
-221.778
-158.537
-100.317
-87.3602
-54.6735
-30.6288
23.3928
62.2272
57.2607
36.3065
30.4706
70.1361
98.8502
96.5812
82.1149
129.169
180.455
73.0298
16.0997
-3.17227
-37.1973
-59.2681
-197.392
-252.413
-107.068
7.51529
21.7616
21.2749
15.834
4.14172
11.9337
41.1641
37.6665
23.7706
9.38641
11.856
-28.5427
-100.36
-86.4605
17.0814
79.8872
117.576
162.989
162.785
78.545
5.69149
-39.744
-49.2797
-62.7005
-65.3099
-56.9323
-47.1595
-57.2006
-90.0068
-101.719
-58.6159
-12.2044
27.9584
43.3426
38.5498
27.7359
28.1205
69.1986
85.2413
45.3311
-17.4964
-106.213
-133.898
-82.9939
-74.4375
-87.3272
-54.8174
18.7953
60.5496
70.8713
65.7978
56.1736
72.3963
99.4321
98.5692
67.7876
29.0567
22.2645
11.5864
-8.55706
9.46527
50.7161
50.3763
50.3144
44.8902
40.4847
17.617
-93.2752
-174.504
-184.775
-152.329
-104.552
-58.5108
-11.0878
-1.44956
11.1262
33.0632
15.6373
-17.096
-2.18572
32.2246
56.8984
-1.89519
-64.2526
-24.0063
44.799
77.437
111.964
122.666
95.4123
31.523
-37.5724
-40.2904
-32.705
-19.3902
6.7548
-0.342424
-15.3317
-47.6349
-121.719
-159.171
-74.6449
2.4259
23.2881
33.1428
40.6584
79.4144
77.2273
49.0008
30.9826
14.137
52.0558
59.104
37.2596
9.40439
-33.1156
-37.6645
-29.4959
-26.2789
-2.75626
29.4812
0.696946
-8.2212
19.4783
-29.1856
-77.2977
-89.5852
-36.538
21.8723
41.649
50.4498
23.226
-22.3826
-53.5092
-54.6299
-36.0424
-52.4824
-33.5543
9.7457
47.8069
51.1367
61.0039
46.4209
8.80142
29.9848
25.0795
-2.81185
2.27625
-7.7659
-32.9129
-35.2529
-33.3877
-48.1186
-20.2894
36.7944
42.5922
38.8823
36.9517
31.1375
31.8122
58.4931
61.074
14.1998
-33.4955
-67.9602
-84.4527
-90.5707
-65.003
42.6057
107.923
20.1106
-4.3327
28.8206
17.1362
3.87474
-9.70702
-20.1941
-41.7347
-59.1875
-33.1874
-35.1234
-63.3759
-24.3619
33.5757
77.3941
77.4477
37.9546
-9.36369
-62.9126
-106.086
-66.8923
-25.2988
30.2742
67.0307
50.9569
50.1726
54.3594
41.5792
33.4651
17.2365
31.5218
33.0521
8.48646
-29.629
-66.87
-71.3297
-76.8106
-50.1765
-72.7606
-76.2215
34.3794
82.3765
49.1916
41.2693
35.6994
21.1829
-36.0548
-51.684
-41.4136
-14.9546
11.8428
11.8738
25.9073
36.0073
61.3878
90.7821
121.855
119.167
99.5646
59.1002
-38.3376
-121.816
-109.2
-80.0683
-88.6292
-82.7766
-33.6341
18.6022
-20.3457
-58.6152
-55.1569
-16.2967
15.3095
18.0025
2.83853
-4.43048
-8.31468
-26.6779
-34.4244
5.77537
46.8669
75.8882
68.3887
46.3352
58.056
59.1941
50.2192
17.4369
24.4712
17.2343
-52.3821
-102.525
-141.499
-144.145
-111.415
-56.1692
-6.74128
-8.92125
-5.83398
28.6108
61.3656
78.4099
85.9197
86.8724
78.7113
71.7518
57.2891
70.8744
104.857
43.99
-65.2846
-105.673
-71.6437
2.06858
41.9068
32.54
1.21236
-15.9844
0.134644
7.05308
-25.4562
-45.3859
-65.242
-80.1051
-86.0357
-111.882
-91.2629
-43.427
6.94868
36.3558
75.9242
97.2379
112.506
77.0204
31.3832
-11.8953
-59.7938
-50.9799
-32.313
-41.4496
-39.5779
-8.07805
-6.03188
-42.3441
-72.0448
-75.1258
-18.6721
75.0315
114.572
135.181
186.564
159.806
-4.351
-49.757
-17.8727
-32.8447
-51.8125
-39.2869
-11.2584
9.00235
9.59534
-8.00313
-8.876
7.13464
16.0801
25.2295
-17.7949
-72.3911
-89.9253
-54.8765
-36.3794
-16.6971
32.0776
-33.6453
-51.1372
-4.72201
21.0435
21.5621
-11.1592
-0.914711
20.2528
18.7199
26.5864
30.2779
32.4
35.567
20.1921
-32.0007
-41.4699
-29.686
2.31859
9.07514
30.402
68.8456
53.6824
40.055
54.8596
31.6293
-4.39719
-22.2696
0.870712
11.3533
-20.1253
-32.6338
-11.183
10.2657
-17.1809
-56.6447
-67.7822
-77.6295
-92.7158
-87.501
-45.4421
3.48412
28.7156
39.7638
37.2305
35.4371
35.7067
14.2905
1.79739
5.07932
12.1641
25.385
22.1257
19.397
39.9207
53.9114
38.5493
20.5862
0.170766
6.27091
19.7098
18.1579
-7.40226
-27.7914
-28.6369
-21.1764
-12.6515
-7.19611
-10.6705
-28.0062
-28.8149
-28.1642
-45.1387
-49.5462
-29.3643
-15.0082
5.3667
32.5744
48.5406
13.2404
-14.8442
-0.275363
18.9629
12.2318
19.5804
-11.6232
-45.1702
-21.4318
7.34869
7.47727
9.74725
25.5231
53.2117
80.1357
88.6663
68.1138
26.3826
-45.929
-89.7161
-111.113
-147.21
-112.872
-67.8816
-11.4083
37.1751
87.1059
123.608
96.5432
59.96
93.1153
83.2726
3.83586
-63.2072
-70.8518
-49.4192
-12.9267
11.7367
23.5401
22.506
59.2262
105.083
70.6596
20.8875
-12.72
-71.143
-142.868
-187.731
-160.656
-99.9657
-94.9127
-47.1324
44.603
82.9287
37.9098
23.3597
12.0355
-15.1312
-10.851
-0.333236
-3.27937
9.69552
-13.9456
-11.1823
19.8992
104.626
156.174
156.706
117.073
56.2632
11.5453
-19.8857
-47.0191
-38.3461
-20.9139
-24.8364
-12.462
-11.2604
-11.8883
-8.8171
-3.52037
4.46778
6.24175
-23.3335
-9.8177
-31.337
-93.4206
-123.189
-77.9527
-25.7553
-0.484013
11.9091
24.7595
20.6952
27.5996
21.6571
13.1618
17.3487
23.9287
27.4672
41.6296
19.2186
23.5049
45.0861
-6.00207
-32.0425
2.08271
7.13418
-32.0587
-61.257
-59.4101
-50.3571
-8.03626
28.6088
19.0276
0.429703
-13.1156
3.87065
40.1619
60.6385
76.1823
93.364
59.1439
-1.17108
-39.2311
-48.4267
-8.96433
44.8662
39.0997
11.5331
-3.73799
-34.4525
-40.7208
-12.1625
-20.9991
-41.8618
-30.8007
-58.5681
-79.7846
-66.8887
-55.1628
-39.5146
1.05331
48.4296
41.5905
29.0687
41.1687
44.9759
51.6875
37.484
18.9331
11.5527
-36.1804
-47.8988
-15.7336
7.03555
18.8096
19.9363
-10.7243
-15.6215
-1.28034
-27.229
-25.8713
-18.3979
-18.5332
-14.5157
-11.8541
13.6008
35.4725
41.1349
50.8869
67.265
70.1503
29.8065
7.81258
4.17564
-11.6192
-5.95065
18.4887
18.5241
12.6429
11.1135
-10.51
-32.7818
-39.2618
-39.5218
-28.0672
-33.065
-55.8397
-46.9736
-27.0264
-12.9753
-23.1882
-45.4036
-8.48055
28.9032
5.32209
-17.3209
-24.6103
-10.2986
5.451
28.5837
26.4925
31.2986
54.9152
58.9818
52.591
28.6076
4.78458
6.16492
-1.97262
-5.35682
2.78914
12.3035
-15.5696
-47.7241
-42.8031
-18.8928
-4.10386
0.452824
-1.26654
16.6307
32.449
16.2319
-4.93075
4.61086
7.80875
-4.12372
-44.9508
-86.5617
-78.8074
-24.0939
27.7016
58.6446
68.4544
66.3299
58.3135
47.1953
0.0021231
-51.9641
-35.7238
9.63095
6.90606
-48.1471
-73.7882
-54.7614
-33.6386
4.2084
48.3891
77.338
75.7626
55.7887
32.4903
28.5109
-6.75275
-28.0222
-18.922
-36.6356
-56.9842
-63.5105
-87.6578
-90.2433
-44.0287
26.5162
64.6408
48.1676
43.4235
80.7697
93.355
51.9673
18.3972
-16.2417
-47.7278
-62.5702
-64.9326
-43.6364
-23.0741
-6.52718
29.244
55.7605
47.8842
35.1614
23.7749
22.7224
3.87525
-35.5286
-50.8147
-70.7424
-55.2148
-10.8889
0.149736
-14.8851
-20.0285
-21.2856
17.1034
30.4401
17.1104
20.2608
43.8658
49.0774
20.1104
-7.9093
-35.0964
-37.684
-3.82165
22.0252
22.7898
13.9813
-4.01301
3.24465
9.68855
13.4639
18.3622
22.7045
11.4885
-1.35796
-12.8872
-9.7021
3.91877
6.4016
19.9682
10.4457
-4.21425
-23.858
-29.9489
-22.3686
-36.2226
-41.1655
-34.6333
-36.0749
-24.441
-2.94314
15.6981
13.2534
10.7648
-3.03477
3.53472
39.6058
60.1186
44.8456
12.0651
0.600588
10.5494
-20.665
-53.4931
-41.6326
-16.7343
4.01406
41.0907
43.9474
15.333
19.6717
3.05906
-33.842
-48.1927
-11.1386
17.9078
15.9868
0.796339
-9.20721
-4.43174
6.66187
13.8683
27.7099
47.2981
25.8003
5.79138
17.2994
3.13939
-6.11095
-0.943237
-22.4951
-48.1299
-41.0763
-38.5291
-65.7714
-74.655
-45.6009
-27.7474
5.53608
41.362
46.2105
44.5523
55.5264
37.1003
23.6648
29.7261
10.599
-16.8412
-25.9204
-0.781319
17.8012
33.9479
42.2483
9.31875
-25.4424
-33.7741
-22.1229
-1.84351
-4.86341
-15.8423
-19.8865
-22.1651
6.43603
32.5166
29.699
19.7986
5.61426
2.44228
-21.8247
-44.5862
-55.5823
-50.2422
-28.2037
31.5863
69.2679
46.0645
13.6255
12.8773
-10.0995
-17.7967
-6.54611
-11.0961
-23.3402
-17.6995
-14.2175
-4.08707
15.6076
14.2152
2.86664
-9.49052
0.401735
17.159
-3.48955
-19.9311
-8.6702
16.3465
11.3019
-9.41276
12.271
17.4863
8.02336
12.1866
13.6413
17.9836
49.105
27.099
-20.994
-9.0376
29.0901
29.6872
-27.7047
-82.378
-64.2436
-4.81561
6.56345
10.4797
18.0701
-0.271399
-11.0557
-9.5135
-3.05173
6.30073
26.7224
29.3234
1.67973
-15.0158
-29.799
-58.4619
-73.6543
-52.9645
-0.202753
22.5296
15.5966
14.6301
50.3131
78.4182
72.1656
69.7683
64.57
26.2057
5.38915
-15.6695
-8.6489
-25.8905
-129.098
-192.25
-143.18
-58.7766
21.5946
69.7168
76.6047
82.8636
78.7496
56.7894
36.1259
15.6873
-7.55335
-39.3263
-43.4672
-9.84193
-4.53485
5.29068
-4.56513
-10.5304
42.8695
90.4264
72.3551
33.9044
-5.46968
-33.2654
-34.321
-39.3836
-23.7303
-23.7349
-43.8338
-47.9849
-49.0476
-38.6045
-24.8947
-16.963
-31.9324
-37.9892
-28.3174
-8.40839
35.2348
67.299
59.0143
38.7044
35.9173
30.8594
26.0217
29.5966
17.0816
6.72863
8.17671
5.85877
-2.99261
-4.23255
-1.97436
5.69752
26.1739
34.0065
15.422
-23.8786
-53.1678
-13.2064
13.2324
-61.7583
-95.4253
-96.2194
-57.1044
-0.681925
5.87794
-2.3177
7.27057
32.2505
49.4401
45.373
37.7377
23.072
20.8333
14.631
11.7956
37.4033
51.4439
20.5329
-3.48031
31.6157
47.9982
59.3461
43.949
15.2528
-6.94639
-12.978
-28.3903
-91.4891
-135.255
-122.408
-88.0576
-47.3654
-43.7489
-37.6558
-15.9872
2.72299
16.791
18.7509
32.9392
54.2536
54.9859
36.7315
14.9391
11.7035
21.8047
10.6386
-5.04641
13.2377
57.7911
77.3698
40.8803
8.14708
17.3697
-23.8238
-58.3357
-67.0441
-68.1267
-60.2473
-39.8465
11.6485
60.1526
55.01
8.35087
-25.5018
-15.816
6.07342
15.092
15.6857
9.70443
2.10275
10.21
15.1185
-1.31413
-7.25011
9.7266
42.4104
60.242
42.8282
13.2122
-12.27
-42.3853
-58.7538
-42.5106
-33.8623
-56.6885
-51.2345
-0.746999
20.2587
3.04565
11.2704
39.1103
-11.8126
-66.9373
-53.8574
-6.29391
27.0832
15.3199
-11.0895
-8.66656
17.0486
47.6203
90.5958
91.0708
81.2281
62.773
8.11777
-53.5036
-80.4612
-57.5995
-37.7087
-36.2923
-34.7417
-7.61407
38.1611
53.158
11.9958
-44.4794
-38.6778
-18.3975
-14.0767
-9.08543
5.94019
20.972
30.0199
26.9408
1.8981
2.97113
9.90516
-2.63942
-11.0272
1.91437
29.8365
30.6047
21.9322
-11.4761
-29.8212
1.56623
30.5487
18.2454
-12.8231
-36.4293
-54.9642
-63.6352
-90.7742
-79.5449
-9.27699
22.6065
43.188
88.1639
69.1914
2.62704
-36.7119
-24.0837
-2.70775
-20.024
-18.5118
20.9713
47.2367
42.3192
25.6308
10.1423
-10.1596
-3.72244
29.9393
50.7833
37.6693
22.8219
17.2945
-15.3621
-26.4381
-15.7876
13.5938
28.0882
-6.92336
-25.3883
-47.8727
-68.8404
-61.6505
-30.7768
-0.508961
3.81266
10.1803
35.4105
50.9293
21.8634
-18.914
-23.966
-16.9692
-39.7874
-32.5151
8.50584
26.123
8.92251
0.608517
21.6144
41.886
42.9103
14.3698
-4.4485
-2.54897
-0.871043
-1.93097
-32.5134
-52.8268
-31.9492
-6.72833
2.73408
-2.14365
18.0679
29.1043
15.1644
17.1899
36.0977
63.9068
41.444
-30.6155
-54.2534
-59.2844
-69.1114
-56.4596
-51.9878
-39.6832
-11.0842
15.3461
44.3768
68.1583
70.15
57.8043
42.7665
30.6021
6.95697
-9.88948
-21.1207
-32.6782
-28.8051
5.70188
18.3605
14.6771
18.1414
15.3379
-31.6261
-73.7914
-49.1243
-3.15533
14.9591
17.3629
4.95284
-1.87025
6.09378
-12.544
-10.0555
15.4159
29.1654
16.8706
-0.701493
-7.62126
-28.1715
-25.2521
-2.59253
13.8628
51.9746
71.4646
39.1643
3.42265
-11.2403
-21.5457
-25.7556
-18.9751
-9.29541
-16.2289
-21.4543
-50.3611
-67.4968
-56.3597
-36.3706
0.0621327
24.0275
44.6155
43.4292
43.0453
21.7036
-19.7204
-72.498
-66.8095
-8.03937
21.3333
39.0196
55.7615
54.1284
40.8013
9.62893
19.8989
41.4393
33.6694
25.3284
23.3909
17.4019
15.3771
20.7691
-5.45183
10.8575
31.3486
29.2249
-3.76064
-66.7975
-98.1565
-93.5434
-84.1894
-76.5198
-29.8406
-1.48155
-1.73159
9.26331
22.9605
21.9601
2.1402
-15.858
-32.126
-43.4192
-56.7486
-55.2918
-12.4443
61.2524
86.0393
83.4927
100.69
81.8455
43.6159
18.9913
12.9255
2.27663
-41.8594
-59.5269
-45.7788
-14.9056
12.4648
12.8098
12.9757
4.72554
1.1223
23.6457
8.04304
-27.9842
-33.5216
-24.6932
-18.0966
-14.8875
-13.1869
-11.6519
-17.5401
5.64324
53.2309
43.4615
-2.58933
-27.4238
-15.1198
15.544
20.4597
24.0712
28.0024
6.33973
0.740367
5.31673
-4.12099
-12.5197
-24.539
-30.7029
-13.587
4.9789
12.6695
7.61562
7.36877
18.4072
18.9325
-29.3897
-23.738
10.3003
-7.58145
-51.5101
-62.2471
-42.3266
-11.0172
8.91897
8.60704
7.09027
3.26253
11.2518
11.9027
14.9506
22.6127
4.99479
-7.91797
2.82675
43.3575
75.5324
64.4024
36.0116
-16.2991
-62.3851
-74.8342
-98.5885
-69.583
3.14891
52.3106
67.6416
63.8864
44.7218
23.489
8.53464
8.3881
25.3292
27.815
0.624257
-18.5861
5.50759
-14.2326
-53.7171
-37.3831
-1.81391
26.3175
40.0967
13.6705
-20.9075
-30.8924
-17.9867
-9.34993
-8.98238
-5.14827
3.18879
22.0745
20.4306
-33.3621
-126.398
-185.583
-190.751
-95.8525
28.0772
108.079
139.31
128.67
126.669
110.836
52.4635
-2.41961
-41.7299
-49.1086
-23.7719
3.16116
-7.28964
-44.3366
-40.8572
-1.25802
64.0221
105.051
110.958
72.5438
25.9209
4.96809
-19.8287
-66.0389
-83.2194
-83.5159
-72.7722
-48.2779
-23.9516
-31.2507
-22.1182
-5.6443
6.63485
-1.76458
-3.71242
23.3562
47.5152
55.6393
41.5466
5.06938
-13.0323
-16.0185
-0.46156
32.1688
22.4174
10.9777
9.62456
11.6864
17.3741
22.4595
-6.07835
-36.4521
-43.8625
-30.3131
-18.1423
-1.00331
11.8241
-1.17265
-26.4572
-10.7785
14.9463
6.44132
5.01174
2.62746
-16.585
-34.2178
-55.9059
-58.8253
-24.0196
15.231
19.0427
-3.46218
25.8141
56.5948
43.6194
11.0237
4.11444
27.8055
46.5001
14.6154
-6.61388
5.11514
24.1054
25.2792
27.3177
22.1671
36.7663
37.0618
13.5036
-14.9146
-28.4857
-27.9723
-38.4308
-52.0781
-51.1543
-54.9293
-73.419
-68.1019
-29.5338
-15.8335
-7.08495
1.2507
-5.78908
11.0167
48.3827
55.1711
39.1828
21.0343
-11.3903
-16.0303
8.91434
46.2389
38.507
27.0849
48.7897
17.303
-27.3848
-41.1286
-23.306
-7.45895
-21.6209
-17.1453
15.1095
34.3225
27.8486
26.4692
56.053
45.9087
-13.3597
-41.1869
-60.7665
-65.8442
-31.0707
-13.3461
-30.0092
-12.7508
18.7899
30.7908
18.1877
51.0624
55.3901
34.2279
12.5897
-14.7134
-40.7627
-65.6996
-108.217
-120.492
-82.2275
-17.645
54.1518
63.9148
28.1318
15.6122
20.1851
56.1901
96.5863
80.2899
43.7562
2.19155
-17.3218
-20.0288
-31.6735
-47.5006
-41.8965
-5.72138
31.4293
67.4299
75.3188
41.2744
-0.201233
-32.6895
-30.0603
-13.0614
-19.3924
-32.6248
-51.8668
-57.1935
-34.518
-11.4852
-6.69167
-6.90942
-16.8752
-7.21007
8.50399
1.94941
4.70097
11.0538
23.4535
21.8196
30.3944
58.0517
17.0336
-54.1962
-39.4
7.57935
32.9758
38.8684
12.3104
-30.2045
-33.9018
-47.9628
62.1161
51.5187
2.44033
-47.1516
-80.5063
-52.1105
-11.6669
-4.75749
26.0313
75.5301
93.797
86.0885
53.482
-1.50029
-27.1887
-15.3168
-15.0785
-37.2623
-62.1333
-57.3854
-34.405
-22.4881
-3.79434
13.3962
8.02402
-16.1354
-11.9285
16.7512
14.1181
-15.7911
-17.7205
10.7223
38.7788
34.3329
15.6209
18.6727
29.3343
21.2782
-2.19927
-0.206677
2.25092
12.1368
-17.875
-54.4933
-42.18
5.52587
38.6324
12.2689
-16.2257
4.74026
8.28405
-18.8514
-35.9903
-30.4054
-12.2294
-6.27662
-25.8793
-11.2094
20.6053
29.8862
6.25247
2.18576
24.4822
37.4499
39.8276
12.6405
-14.6761
-19.0337
-2.79805
15.5156
31.4541
32.2669
27.5343
24.0035
5.70127
-23.8738
-49.1923
-43.6428
-20.0514
-17.6505
-40.8167
-63.7016
-53.3934
-2.38067
8.12747
-5.71191
-8.6318
3.41503
32.0761
38.8011
15.5687
12.971
21.7742
14.6266
15.9951
30.9962
48.1596
20.383
-7.1922
-30.4188
-16.4255
16.6659
35.7225
7.98636
-19.0701
-21.8261
-13.8126
-8.85757
-14.3737
-3.57305
6.80202
-12.4019
-27.9635
-25.2038
-26.5269
-14.7387
14.1626
34.5917
12.7424
-14.7351
-0.830773
31.603
31.6322
20.428
23.4794
7.03586
-15.7368
-23.246
-3.65026
-8.05829
-2.8367
21.511
0.531931
-38.7242
-35.1446
-25.8446
-37.582
-41.837
-37.988
-4.11141
13.4705
6.03119
11.8402
9.78926
32.0306
52.5372
57.1653
52.9408
13.2838
-10.8532
0.59874
7.23877
-11.867
-5.21855
-3.04853
-34.1872
-43.6407
-11.5827
41.2916
57.8286
44.5564
33.9014
20.4168
8.9052
-12.1673
-24.4075
-38.8712
-50.4022
-52.3706
-34.397
-23.5969
-24.5776
8.50676
24.5995
2.89482
-5.05605
7.32934
14.4806
8.62036
-4.76742
-12.469
-17.4035
-8.58496
19.545
38.2204
26.2774
24.688
-0.313046
-31.1677
-37.6042
-40.1147
-7.67011
3.66371
-27.4924
-31.626
23.6304
34.8418
25.6009
40.713
61.8024
64.6281
30.0729
-5.45286
-14.9236
-26.8019
-55.6938
-51.2337
-27.7123
17.0302
49.2662
35.6341
-13.6966
-14.2258
28.4541
46.3215
12.6392
-5.26453
-9.94165
-30.0012
-50.6975
-56.2693
-50.9792
-30.2055
-20.5559
4.96403
56.5844
54.9768
30.6616
-5.84912
-30.9884
-8.36302
-8.34087
-26.5483
-13.8781
4.82238
28.7981
48.8461
18.1082
-34.8459
-72.8269
-67.6076
-34.1492
8.21007
14.6932
4.22844
9.34427
49.0265
78.7069
84.5749
64.5651
35.3827
30.9641
33.1697
30.2751
5.82317
-90.3791
-141.952
-121.099
-40.1232
14.0993
45.3865
50.125
29.9804
31.8436
25.931
9.25856
-26.694
-24.0649
-7.99344
-6.79846
-16.3596
-14.3983
1.75301
5.09829
7.82564
27.8517
53.7963
63.5974
41.8457
8.98989
-22.8501
-31.5409
-36.3748
-47.1178
-46.1211
-33.7866
-11.1794
-29.6013
-69.8385
-87.16
-66.924
-40.233
-31.642
-14.7719
-5.33982
29.8461
75.0544
97.5663
76.815
70.518
71.3074
59.906
43.0733
31.468
-5.61084
-45.8918
-42.1839
-1.78036
30.2769
31.6062
21.8678
35.3095
41.7186
21.3493
-15.8831
-38.3471
-33.8911
-32.8742
-42.2232
-51.921
-51.0909
-71.4838
-78.0123
-58.7058
-11.4314
45.1404
46.9358
29.8143
13.2586
16.037
27.3523
30.3939
30.7738
38.9017
71.7299
62.7865
-24.593
-78.5783
-78.6007
-46.9924
-7.37981
-3.22963
2.39245
29.0383
44.0987
14.2204
-39.7322
-61.909
-20.2067
37.9072
45.0434
21.514
9.07256
-18.95
-33.3922
-32.7062
-8.65017
24.6415
47.9206
47.9832
19.9348
12.2831
-5.12228
-32.8266
-46.6389
-41.8103
-15.562
8.7346
6.47666
-9.26671
-9.22494
-25.4971
-35.023
-17.8876
-8.34192
11.2096
48.421
68.5951
48.7037
15.258
-17.8739
-11.0222
0.881752
-11.5422
-4.18993
-15.9203
-25.5928
-15.9096
3.76449
23.1397
28.6922
31.004
23.4171
13.5961
9.29987
14.5513
-20.849
-65.4302
-59.7369
-24.513
30.8189
44.404
37.1522
33.3173
21.0941
30.7698
48.3766
47.6206
55.3812
17.1084
-65.2106
-111.703
-89.8173
-67.2081
-38.5078
-9.70558
-9.48962
12.5895
30.6139
24.9827
2.13412
-9.52529
-14.5453
-14.6957
-13.9003
0.674827
-14.0025
-26.6594
-35.2533
-21.4563
-1.50946
26.287
41.1204
41.2455
18.2537
-6.51613
4.29875
-1.84506
-19.6298
6.78044
49.5204
42.9453
24.0329
28.9227
33.5911
24.4483
11.3304
-15.1868
-22.7776
-7.37654
26.4276
24.3536
-7.47011
-34.2617
-79.4644
-87.7562
-74.3102
-30.2705
22.6927
29.9969
12.8079
26.8831
44.3976
21.9694
23.1752
42.3
42.4004
35.9655
-30.2568
-71.513
-58.7169
-6.20171
39.2856
36.9019
63.6728
70.0388
9.52635
-26.5876
-26.9384
-58.8366
-69.3346
-29.3205
-6.14963
-7.04779
-14.8822
-25.8932
-11.1628
-6.22064
-15.3609
-2.93027
11.7267
13.8394
2.5108
-6.40876
-3.26125
8.61841
54.097
66.4238
43.1165
29.8206
20.4672
-12.0219
-59.4607
-90.5625
-95.0305
-74.9524
-45.6262
-13.9411
33.0823
55.4003
44.0436
23.8078
15.9905
30.7675
29.2818
30.7555
35.5262
23.9671
24.1062
10.5952
-7.17986
11.7094
55.2982
43.5015
1.66017
-23.3806
-28.225
6.10144
14.3953
-9.26798
-20.9194
-28.6693
-31.5617
-25.1503
-8.73596
-10.3553
1.44863
2.60794
-34.47
-39.736
-49.2931
-76.1852
-54.2988
15.5247
31.2117
28.4796
27.3891
10.9962
17.2584
25.0677
21.8312
24.359
25.4896
23.7832
8.66942
-21.0263
-35.5391
-16.7021
13.4963
31.291
36.1788
35.9271
12.3508
-11.5429
-13.699
-0.378962
-4.58299
-56.1019
-84.8287
-59.9535
-39.5981
-15.7899
-0.748292
11.7081
33.9164
57.7735
62.873
44.906
34.406
25.1734
-2.44591
-26.6959
-31.4711
-8.05114
9.86253
1.671
6.78852
42.3992
64.6582
41.7481
19.9707
5.75247
-8.42975
-42.1601
-69.4114
-40.3807
-53.7996
-95.0368
-97.5309
-64.2309
-0.411485
41.4713
42.2334
39.0175
65.7803
70.3525
44.6336
26.1286
4.38815
-7.58953
-13.0991
-31.013
-32.1498
-22.6007
-9.60904
-9.73302
2.74777
34.2619
54.1562
40.1272
10.5766
-6.34792
-15.4238
-30.8581
-51.7725
-47.6641
-18.589
0.974435
24.4277
31.6896
3.82108
-9.76999
21.3774
63.0309
61.1785
-3.51826
-17.8541
-9.09715
-17.3322
-27.2914
-33.5028
-25.1503
2.35681
9.02663
2.95891
-7.14959
-5.3776
-4.73862
-6.4816
12.3927
17.5877
-8.82722
-25.1601
-11.4986
14.0303
40.8429
50.9691
21.9746
6.08499
24.2944
5.84047
-69.4296
-139.695
-174.087
-111.531
7.79087
57.9409
62.6868
51.2787
18.1709
38.8166
76.6142
67.4172
44.1634
27.38
26.3524
30.7453
30.0128
28.0505
16.1009
6.99853
25.4847
49.3889
72.3561
55.7136
-4.09091
-53.1779
-71.4562
-82.4166
-86.5278
-91.7982
-77.2786
-72.7752
-68.9223
-52.0833
-41.0264
-40.5877
-26.3556
-11.6019
-2.03013
19.2253
47.7904
61.2757
84.762
76.1459
19.2595
-12.3754
5.17051
30.7053
45.8714
50.3836
58.532
33.8042
-36.0497
-82.3108
-59.5088
-15.3469
-2.04196
-6.80007
9.46024
38.6465
51.45
49.6676
36.2207
27.7469
22.8108
12.9088
14.7899
4.55595
-18.9871
-31.934
-42.59
-22.2557
8.51906
14.7426
-19.6638
-48.6863
-25.4641
-14.4943
-58.007
-78.2778
-85.2132
-51.8776
11.5774
21.7299
22.6314
31.9396
28.1489
12.48
8.64968
34.9819
17.4904
-28.1475
-22.4218
-5.45326
-0.712498
33.2177
65.4662
81.8232
60.6072
7.03868
-2.76664
-8.96916
-22.1624
-25.177
-30.8554
-16.5104
-12.4763
-4.04593
12.5153
-5.02066
-22.0752
-19.5928
-4.08959
24.0438
53.7159
32.3041
4.05728
-18.0503
-16.6153
-4.39953
-3.73341
-4.27318
-21.0793
-19.7541
-8.74104
-0.0699998
6.49148
7.09757
-3.70504
-11.5987
4.25392
37.318
27.1991
-19.4346
-33.4334
-35.1696
-43.0285
-30.4212
3.46813
38.7953
52.1682
11.3275
-11.6854
-9.8408
-21.6605
-17.9606
-25.1928
-19.3998
-2.62828
24.5642
44.5979
47.6739
37.2706
43.5435
40.5514
14.0591
-22.5027
-25.8027
-32.715
-43.8211
-19.9647
20.0906
30.6752
12.5342
8.92104
1.218
6.72234
-8.81604
-9.6179
-14.4044
-19.0204
-19.8474
-6.54093
-10.7462
-31.1596
-24.9058
3.00531
-11.9197
-15.9297
2.44336
13.3645
21.0169
3.84525
3.88028
30.8689
20.8172
-3.62435
-6.68597
6.36925
3.98047
-24.0702
-33.7606
-18.071
-0.163936
-13.6873
-21.8079
3.80766
41.3229
54.7277
40.2136
6.90295
-5.85835
-7.35219
-20.7767
-23.9809
-6.90973
12.0485
29.3515
10.7727
4.48737
37.7469
51.64
11.305
-30.0892
-18.7917
28.5881
37.111
23.7291
4.47182
-11.92
-45.7862
-52.1493
-48.4304
-28.9183
-26.0357
-43.1773
-62.3984
-61.6369
-38.8648
5.71663
44.1276
39.0462
34.5052
45.1123
53.4085
37.2148
24.2255
2.57012
-15.3522
-11.5852
12.1809
13.3737
9.94708
16.6134
36.7473
22.6004
1.77815
-7.5749
-8.722
-25.5594
-50.0032
-50.673
-20.396
-3.91468
12.1661
-4.95504
-38.144
-34.707
-10.0412
14.2763
27.7864
9.40768
-7.84744
-9.27619
1.68107
12.0693
31.1628
57.8845
52.4381
9.15607
-17.5116
-8.47692
-21.0934
-28.4095
-29.8808
-34.4613
-13.5874
13.2642
31.7135
8.08334
-2.12117
20.9565
23.7646
-18.2998
-28.666
1.73791
32.8719
15.7421
1.70625
8.54468
14.0679
5.16714
9.18349
28.7687
14.753
14.9692
1.59344
-26.611
-38.2834
-42.8589
-20.0843
-8.15565
8.08201
23.6233
7.30312
-11.334
-33.5335
-35.2254
-36.7399
-26.2922
-30.3136
-27.8921
3.45932
14.6148
28.7307
47.8527
38.5781
27.0364
28.3915
9.46159
-17.7715
-13.5743
8.94441
15.2324
-10.2088
-29.779
-45.5744
-33.7842
15.5352
34.4188
22.6371
16.3368
12.3458
-2.17768
-6.43916
-7.60988
8.11908
7.94044
12.6354
34.8652
34.422
20.2324
9.00073
-11.1065
-18.6828
-4.28749
12.3749
22.7973
19.1679
5.35344
-16.953
-27.9512
-32.2135
-29.8968
-29.6843
-25.7828
-30.9027
-30.0245
-24.1252
-15.0195
-3.36286
-11.0536
-11.3868
17.0377
30.1065
38.4766
47.8211
35.6431
-13.22
-49.8358
-32.3018
-13.7993
-22.5823
-17.7068
-14.422
22.0826
52.1894
54.5618
50.9784
48.1522
40.703
27.8218
15.9231
13.3728
15.3609
-3.66278
-24.9532
-38.9731
-30.7312
-9.66425
-9.1413
-21.5106
-23.6147
-16.98
13.0959
6.12714
4.21689
-3.26589
-31.1416
-46.9438
-44.3615
-35.8571
-32.5928
-28.6124
-38.7708
-18.0979
13.9102
31.8768
29.438
25.6916
33.4502
40.0335
34.5526
20.3409
12.511
-9.4177
-21.2868
-11.6282
1.27628
7.3967
15.1224
22.5227
29.8922
33.2722
45.7339
42.635
25.6906
1.11635
-21.3808
-21.4158
7.44852
11.1247
14.7326
-10.7333
-55.6017
-70.2042
-59.1477
-31.2628
-32.8604
-22.689
-1.0262
14.7263
11.5988
-3.94984
-3.0415
-8.29873
-6.59872
-1.07841
12.4175
15.6383
10.9266
24.8553
29.7436
36.2407
45.5468
67.1533
46.0038
-18.242
-42.5967
-35.3361
-67.6592
-90.316
-68.455
-29.9761
7.65819
25.2376
25.7874
28.7063
15.7138
17.3591
18.7552
6.72305
3.62391
10.742
13.5329
-7.23038
-3.11889
22.2224
37.8768
45.762
42.661
27.942
7.72999
-19.1097
-46.9797
-47.3666
-41.3566
-23.8345
-2.85842
2.77033
-15.2683
-19.2434
-11.8149
2.83825
-16.1723
-41.542
-50.3831
-24.3289
14.6187
23.7568
25.4286
30.8769
27.7037
27.7956
26.6013
25.2451
29.3754
26.0325
23.3912
5.63929
-8.09726
-17.4706
-29.7875
-40.6356
-16.0579
2.91813
0.610177
-2.67563
-0.675591
-5.07401
11.8796
52.4701
46.1936
-24.7696
-74.5782
-75.5564
-61.2889
-20.0906
17.8941
30.05
33.0441
29.5375
17.6463
2.44531
4.77514
39.0025
60.1479
50.3201
19.2066
-8.84165
-40.4324
-78.6515
-84.8035
-19.5691
48.4308
48.3014
17.9336
-23.4557
-31.8451
-17.4777
6.38168
12.974
3.47676
-25.1235
-48.0817
-41.7299
-15.8618
19.9382
23.2835
3.07145
16.6535
36.2992
57.6731
63.7046
41.4711
21.0322
11.0045
16.5287
11.4222
-12.879
-44.3402
-47.298
-34.8608
6.84821
21.2291
-17.1749
-35.1516
-42.2169
-26.5524
31.2095
25.7667
-25.7028
-30.9022
-19.3945
-7.92017
11.8773
6.52255
-16.0698
-33.8415
-38.7797
-17.3267
-4.71839
-6.80463
-22.4386
9.7072
69.2305
75.0274
56.3983
41.0416
20.3564
20.9246
36.2221
24.9229
-0.371699
-19.58
-31.8005
-23.7108
-2.47328
1.66286
0.619331
-8.75453
-7.55087
12.0568
30.2816
6.13568
-41.5405
-42.8275
-23.4517
-4.44015
-3.99235
-3.66964
-9.13953
-17.2292
1.33935
16.8901
8.9129
-6.94865
-21.2811
-5.76015
-1.47798
-7.3637
-15.4773
-16.237
23.2091
44.3359
29.5564
7.07915
-14.2626
-32.5638
-35.9787
-20.7829
10.133
16.8813
13.5502
2.01957
0.471489
16.3064
18.9421
1.06806
18.8237
30.4643
26.4296
32.3708
24.6801
12.2133
6.96768
-14.5007
-34.7701
-38.8779
-29.2608
-40.2928
-31.4205
-15.313
-14.8501
-6.72734
-16.7716
-25.8425
-9.74844
16.522
34.7861
35.7348
36.2745
28.8936
14.8469
23.2347
-0.696345
-25.8768
-23.1733
-2.7162
6.2477
15.9109
1.62303
1.64402
15.236
15.6332
16.8485
17.5289
23.316
23.7069
-18.9708
-58.9878
-73.8823
-71.3521
-49.4462
-41.6896
-14.0478
18.7646
40.6465
49.5409
25.2258
-1.04128
3.3018
26.9416
25.0172
-4.59728
-4.20541
3.12771
-3.3484
-17.7482
-2.07338
39.1927
47.2376
42.862
15.416
-9.51286
-9.95813
-1.40594
-16.0197
-40.9752
-21.9832
11.3357
14.421
-13.5735
-41.6315
-30.9065
-16.8182
-23.257
-37.8268
-26.3245
6.99353
25.8221
42.6544
42.1163
38.7194
33.3333
29.1318
8.58382
-10.2287
-10.3321
-11.8016
-26.2638
-19.707
-12.4792
11.1546
6.58239
-4.29496
-8.04096
16.1068
22.0642
14.5192
8.108
-4.58838
-0.266819
-24.0938
-45.3964
-29.0357
-9.60978
1.74816
16.0015
31.9834
26.6329
-9.93733
-21.6511
-22.4272
0.637928
25.8779
46.6759
25.2655
-17.411
-45.3159
-57.1824
-52.2429
-39.2192
-9.00481
24.3733
47.8382
31.076
-4.25358
0.974242
11.6946
18.8119
40.0942
38.1368
31.9377
19.7539
-1.56021
-3.9792
3.85927
11.4059
13.2193
-11.1166
-40.6953
-49.5878
-33.9902
-9.34948
-10.3725
-3.84789
12.2213
5.78765
-5.47004
2.85412
3.26597
-5.71943
-8.09961
-6.67286
-9.26177
-15.0793
-11.1011
4.98464
6.07757
13.4285
31.7448
27.399
13.734
-10.2827
-44.4838
-50.2815
3.6229
27.7711
21.4156
12.9634
4.3824
6.84638
15.6435
23.8908
28.5927
18.9495
-11.2518
-11.5624
-0.0658016
-7.59282
-11.7821
-2.00161
2.56686
0.0545133
1.92514
15.5132
4.8582
-14.0074
-25.6532
-43.0056
-29.2684
-11.7862
-17.2871
-26.1443
-29.07
-11.2407
3.93978
1.75853
9.44603
33.014
54.036
43.0767
28.3283
29.7117
13.7395
8.29423
0.2973
-11.391
-2.72074
27.8975
-7.43638
-49.3444
-52.628
-40.1864
-23.4411
-19.3589
-13.1527
0.767775
4.3122
17.8907
20.8832
16.5209
8.26398
-6.17036
5.66118
28.5029
33.3515
33.8069
17.1467
23.4321
41.0869
19.9033
-2.38185
-21.6183
-35.8924
-27.7966
-28.0109
-28.6702
-19.593
-4.47188
-13.19
-22.4332
-22.2722
-17.289
-6.78749
-18.472
-22.7593
-8.5361
13.1796
9.92402
17.9962
46.8948
45.0651
32.3495
33.3355
24.3247
15.5248
-5.8067
-16.9971
-29.6114
-8.7153
7.90741
18.9014
26.0708
-1.8501
-42.4253
-37.1437
-17.7153
-11.1859
-38.0445
-33.6895
-6.88647
7.97136
26.9776
21.2537
15.6106
26.594
21.6296
2.10395
-13.663
-16.0312
-8.38334
-2.63832
4.7702
14.4174
10.9569
2.97767
-5.08635
-15.9231
-9.83697
-1.76109
0.6231
-5.00617
2.39274
16.3559
4.30255
-8.8321
-1.37662
9.53783
26.0654
17.3161
0.293659
-9.76
-6.3223
9.98575
11.6871
-1.46633
-7.37759
-22.7523
-48.9983
-52.6713
-42.255
-16.1876
4.16892
12.958
19.9981
30.2392
45.0432
50.1959
49.0165
23.6975
5.7151
5.08323
1.25331
-1.27327
-24.8573
-63.2618
-58.0175
-16.2306
36.774
42.1904
33.1859
23.0153
8.40166
-4.28694
-6.75442
-4.71433
-10.4308
-11.9424
-11.3273
-4.39199
-17.356
-44.2635
-56.3614
-52.4542
-3.38873
38.4496
30.957
23.5361
26.2677
23.1494
13.7021
10.3142
-0.347662
-16.8211
-22.1211
-21.9147
-21.9442
-14.579
-26.2613
-36.5537
-14.7
7.79757
21.988
36.1897
47.6483
49.6907
40.8751
38.1093
20.4391
0.281478
-17.0476
-11.7277
-16.918
-25.4163
-32.1359
-29.6522
-35.6385
-33.5089
-19.2608
6.45327
34.9215
51.7665
49.6256
23.1604
7.27427
9.95953
10.0319
3.33778
5.54114
20.7675
16.5306
-34.0613
-56.6081
-30.0841
-6.63246
17.3989
31.1492
30.3628
19.6448
12.5535
-8.1801
-30.9877
-45.3922
-50.5251
-38.9836
-17.5737
-8.74377
-8.74768
-4.73072
-8.81532
-0.774496
1.83595
-8.26369
-8.91383
-30.8252
-38.2266
-7.32826
14.657
17.0893
32.4522
47.1405
58.5248
58.4131
59.9976
51.5028
32.2905
19.0629
-5.91166
-42.0702
-60.2784
-50.2663
-3.78075
36.2952
37.4053
43.1484
34.0387
4.6243
-27.6252
-45.738
-33.4383
-54.5202
-69.1668
-62.5463
-48.18
-37.2725
-22.4339
-5.61957
5.90836
24.6973
42.1608
55.7713
54.1618
52.7439
45.4246
28.5519
4.49566
-4.94383
-11.4032
-6.44486
-19.4831
-6.83128
-0.701114
-9.11397
-9.48781
-0.348764
5.55185
7.22459
3.44569
-0.514423
-1.10545
-4.33317
-14.0001
-14.1936
0.190114
24.1632
11.9804
-27.7036
-49.5161
-56.8247
-51.8837
-29.6343
2.24569
14.9392
21.3847
37.8746
39.3809
35.4552
34.4428
34.3565
19.9226
5.64828
-6.87183
-6.79617
-4.84177
-16.4346
-32.9303
-13.8449
22.1198
38.298
40.7625
35.1979
17.7597
12.0598
1.2819
-28.6277
-42.3138
-48.9627
-45.2653
-31.3105
-17.6908
-16.426
-3.72422
10.9507
11.2624
1.11326
-0.650308
2.49661
-0.255791
-18.1517
-44.8035
-24.5765
24.2198
40.6763
46.5307
52.7744
37.2448
15.2296
-2.51994
-12.2429
-2.89022
-1.84633
-13.7651
-40.8174
-39.1883
-26.4002
-11.6471
-2.09698
15.6875
17.3431
35.7938
37.8703
7.39098
-0.468601
-6.65602
-12.1155
-14.2085
-14.6312
1.71084
11.8488
2.43292
4.24135
17.4484
21.7472
12.2981
17.8239
34.4046
20.2255
-13.778
-33.4981
-29.2052
-35.1317
-36.631
-48.6769
-56.7777
-39.1978
-10.9546
12.1695
15.7303
12.5378
14.8332
18.9689
23.1733
22.1379
12.6584
20.9473
33.0557
28.7326
26.5626
42.0417
28.7301
10.6641
5.09402
8.05745
3.2864
-12.997
-41.6261
-50.3012
-43.1717
-23.2204
-13.7891
8.53574
-1.22188
-36.6119
-52.2432
-39.3986
-26.7976
-3.43298
18.3939
38.5717
46.345
34.4402
30.3456
23.3189
3.17294
-12.2213
3.54356
-11.5745
-30.6944
-22.4436
8.60746
16.9209
5.37671
-12.9647
-0.267565
3.75451
-12.1288
-16.4612
6.1111
21.4883
15.455
6.87496
-2.89206
-1.36406
22.3005
41.8883
27.7901
22.0928
23.7493
7.90239
-8.94364
-18.0518
12.9048
49.6052
17.1132
-27.0043
-52.3014
-59.0632
-57.5458
-46.1054
-16.9969
0.957592
3.82874
18.4941
11.3832
-4.96213
-15.7614
-15.5122
-18.3798
-22.1362
-13.7731
-20.5405
-21.1976
11.898
35.9889
40.9275
46.4088
41.7764
28.7503
32.754
36.121
12.3947
-17.4196
-21.5754
-8.27091
-23.3392
-78.2165
-109.78
-54.3314
-17.3744
-13.5703
12.2402
25.0013
27.39
55.2683
62.9149
65.1429
57.4134
35.7307
13.9709
-4.17626
1.60646
6.55461
-2.54632
-4.15624
9.88659
28.3959
10.0222
-41.7196
-20.7657
2.44827
-6.24088
-8.72902
-23.2661
-36.6296
-23.648
-18.2849
-14.9541
-17.9829
-29.8106
-27.7271
-26.0537
-17.1581
-15.2412
-12.9952
0.944632
33.2921
77.2807
72.6078
31.9923
2.38714
-0.110296
-12.1825
-20.8215
-18.3226
-14.961
-13.5691
-10.1974
-23.5752
-37.2417
-42.5354
-17.0193
10.483
22.0707
25.5053
41.1177
48.8834
56.2781
56.7848
14.6429
-19.9338
-34.9334
-37.3389
-0.740351
47.2431
51.1937
16.1232
-72.2808
-83.973
-51.3535
-31.6706
-2.78166
13.3443
13.3699
10.7784
11.4633
20.7593
23.6343
15.349
24.5185
33.0914
36.3427
40.3899
19.8221
-23.4286
-35.6953
-26.3538
-6.34433
-14.7877
-20.3585
-30.888
-38.933
-53.4788
-44.8597
-28.2917
-1.46471
15.9022
16.8539
25.5314
30.5066
21.9039
12.0196
-3.86272
-21.8447
-13.7488
-4.14276
5.13836
42.1909
78.7575
80.2199
68.1312
37.3527
0.553225
-29.9037
-48.3867
-69.6875
-82.0511
-56.0449
-22.8269
-7.10545
0.145636
2.97175
10.8525
14.2074
7.72952
-6.54475
-4.6166
-1.74157
-13.0502
1.34116
29.517
46.9269
63.0402
29.4113
-5.28661
-26.2611
-30.0713
-28.5261
-35.5332
-37.6989
-28.0052
-28.7009
-16.3772
-1.65662
-37.5633
-44.8975
2.85501
78.6683
174.36
206.479
130.48
27.7227
-36.1739
-43.966
-65.9931
-74.533
-42.9077
-40.9947
-54.664
-3.21126
-12.8813
-47.8777
-44.9223
-35.2865
-4.36439
11.9153
2.67438
-4.9939
-42.8573
-59.6445
-28.1059
-6.01941
36.311
80.2976
89.4081
78.9503
40.8114
23.8433
-5.12281
-50.0393
-38.7089
-5.04621
5.47579
14.5595
29.3186
40.9365
39.5456
7.9667
-33.7012
-52.325
-57.3276
-52.5106
-31.2437
-6.62485
15.4894
2.62275
-9.03355
-10.0521
13.3399
32.666
33.1377
27.3005
5.9866
-19.4399
-8.30524
7.75802
-4.17422
-0.499704
1.90937
-16.2765
-31.3756
-21.1544
-12.4697
-11.7374
7.46972
27.1452
34.287
47.8853
45.7652
15.7855
6.52655
3.38333
0.343775
3.21093
-20.4545
-30.7995
-28.9693
-18.1304
-13.2768
-24.038
-15.7505
1.5726
27.0811
19.4925
-4.90732
1.07138
12.1939
-27.1067
-51.5585
-27.4072
27.0184
91.4344
40.9942
-57.757
-93.8097
-34.45
52.3575
73.2202
13.2033
-53.6937
-38.8672
-19.9909
15.2939
62.4611
41.4544
13.6096
9.79409
39.2563
62.5324
45.3623
-2.19301
-67.0505
-76.8432
-16.1556
36.2798
7.74602
-48.5116
-67.0715
-38.4175
17.7328
33.0191
19.8799
-26.1888
-38.8052
11.1579
42.4304
23.0458
-5.34987
-14.234
-44.5272
-67.9888
-43.1805
-11.844
13.9023
62.8552
126.991
152.096
75.7159
15.8611
-35.9961
-62.7723
-48.7365
-45.6598
-39.982
-26.9426
-26.7723
-17.019
20.6661
29.5065
12.6204
-4.94045
-27.5292
-15.9181
-15.6043
-60.2244
-110.987
-115.914
-62.7852
-3.83162
42.4907
68.3982
86.0885
83.6196
52.6653
30.5042
36.6516
67.5376
50.389
5.19466
6.95546
15.284
15.8531
23.2616
38.5555
48.724
22.471
-13.6572
-23.1261
-5.26121
2.60262
-12.3975
-15.6382
-19.8746
-31.046
-20.7422
-20.4449
-43.9388
-58.6959
-29.5991
-1.5471
13.3689
11.0743
5.46534
1.14793
-33.9447
-65.052
-51.869
-30.0155
-25.536
-22.04
-30.5919
-55.2497
-78.6875
-74.5215
-31.0025
17.7098
80.7979
100.098
39.4755
-9.42975
6.69051
15.4369
8.99113
35.3833
81.0255
100.157
98.0573
64.0465
28.3533
-20.3542
-56.5794
-20.5869
31.1342
39.9681
29.0896
11.9791
-44.2966
-44.476
12.5612
45.9467
39.7749
16.9997
12.0698
-2.96469
-41.0559
-58.4523
-66.3416
-49.0151
-29.5487
-21.1267
5.65548
68.1714
77.2678
34.8064
-33.9836
-78.253
-88.1644
-89.4125
-80.819
-79.3725
-82.8269
-55.0201
3.10923
17.574
56.83
148.212
125.48
55.048
-8.78664
-78.7462
-94.5888
-119.01
-86.0437
5.20829
157.445
295.489
235.944
109.498
84.2026
140.78
73.799
-41.9999
-94.0911
-129.478
-149.161
-188.018
-165.639
-116.506
-52.5332
27.5457
34.7894
7.5697
7.28907
24.153
28.3762
-39.0887
-73.7221
-74.6192
-97.9299
-88.7858
-12.7359
84.6731
122.816
121.596
86.1005
30.2858
10.0316
22.0766
65.3474
116.36
135.667
105.31
36.2452
-23.7298
-88.5901
-115.37
-60.484
12.9955
42.5438
6.20839
-10.6924
-16.9242
-58.9249
-82.5599
-91.8904
-52.869
-26.1401
3.99944
-7.93122
9.29654
20.3283
-18.4691
-43.7154
-50.5691
-42.5999
-16.6308
45.2519
80.3778
61.4654
-4.0614
-27.8149
-0.734392
42.2324
68.2888
71.1187
28.3481
2.54959
7.56885
0.843236
-11.7105
2.87651
31.2509
29.1323
-16.332
-65.6984
-68.3747
-38.4683
1.7368
10.3263
-18.2632
-37.8081
-22.832
-17.4201
-7.09602
6.78319
11.5547
18.0925
17.9601
23.9072
16.2328
3.9544
13.0434
32.4228
49.811
25.1701
-27.7676
-36.4355
-67.8509
-27.817
69.7227
56.8112
58.0092
58.194
8.1591
-56.8125
-84.8157
-52.3575
-1.72226
34.94
-8.06591
-62.1719
-84.6419
-66.7606
-47.8171
2.96597
44.9084
62.5634
125.345
81.8335
12.0783
5.02661
-24.3889
-33.2188
-13.6772
19.5159
74.9987
63.6043
-19.1309
-95.098
-100.657
-101.439
-90.7815
-19.3082
59.0245
66.4208
59.9503
-2.27161
-50.2554
-16.6947
35.7831
72.826
10.2078
-58.5229
-68.4947
-25.0177
36.0901
49.3845
52.5389
41.0322
73.2283
120.437
111.568
49.3687
-13.1642
-46.7677
-60.4442
-61.317
-58.1667
-48.1119
-56.65
-31.7493
5.88657
38.9171
52.5439
24.9559
-41.6713
-70.241
-67.0692
-48.9704
-35.5403
-24.9198
-13.3084
-11.3721
5.40565
18.0014
17.176
14.7673
0.00425029
-1.557
5.05803
6.9567
13.7906
7.95014
12.8311
34.3054
28.5304
12.144
29.654
53.7073
52.4008
42.8026
20.5296
13.8168
4.60835
-58.8692
-110.816
-108.504
-56.2689
-20.9254
-9.41895
-2.09047
12.7284
20.1781
12.4009
6.40542
16.7098
29.0059
38.4248
93.2114
120.114
87.3601
56.1196
-2.94745
-33.7116
-14.2273
11.2813
7.88159
-33.5851
-106.659
-128.512
-78.0254
-32.5788
-14.3241
8.46671
16.464
-2.32783
1.44373
5.31643
-28.5448
-37.7832
-10.0993
0.574758
-33.3152
-82.1062
-83.8681
-31.3012
76.6077
179.822
167.59
113.05
35.3013
-13.3481
-15.0484
-9.84269
-6.91568
-11.4427
-19.8277
-41.5942
-64.9002
-74.1986
-66.4388
-23.5601
41.0587
60.3001
58.2758
36.8684
-18.423
-80.3796
-40.9886
4.18251
26.6934
42.3147
46.3328
46.8941
16.1553
-10.7937
-22.8581
-35.5214
-36.0866
-27.4515
-6.46979
3.52997
21.9058
32.2963
25.0329
18.5056
2.91862
-17.7614
-23.2634
-26.2952
9.44015
54.7629
26.4236
-29.006
-35.105
-26.4801
-26.3407
2.63687
14.6974
28.4948
31.7323
20.9306
3.71302
3.64383
-7.11293
-27.5527
-33.3682
-39.4315
-30.2612
4.2419
6.90733
-2.8366
19.0006
36.6845
33.0577
20.093
8.07528
-3.46452
-4.98678
-26.6643
-38.974
-39.8726
-22.1661
2.12347
18.6727
24.8267
21.8653
25.1009
23.8933
2.46182
-25.3988
-52.3091
-52.7751
-31.0535
-14.3842
11.1227
15.5994
23.7033
53.1719
73.3934
66.0055
31.981
-23.6436
-42.6579
-23.5545
37.8159
100.22
32.7848
-23.3568
-0.636306
-18.3795
-61.9134
-98.2367
-104.678
-86.6982
-40.5947
-4.37381
19.8629
29.6501
28.2558
16.9326
17.626
41.7169
12.6732
-20.5682
-8.57115
-23.3816
1.47544
38.1787
39.4033
46.8554
55.9923
60.3108
54.8978
25.6842
-26.8116
-31.8025
-16.1215
-12.9338
-27.2229
-26.7991
-14.0056
-3.5217
25.1337
36.8723
-0.494039
-43.7807
-26.7841
-17.0899
-56.8404
-37.601
-16.7211
-16.3145
-0.835105
22.928
25.2519
13.7929
-11.9194
-40.4721
-26.305
2.61615
29.7727
27.7337
13.5506
17.4012
-4.63876
-0.840837
11.7849
13.0883
11.5721
-5.68501
-9.4273
9.20331
23.5222
29.7831
19.4094
16.3752
10.8904
-5.81938
-21.6137
-37.3081
-41.0681
-22.4572
1.06992
-0.553224
-4.11474
-11.1421
-18.2885
-8.56365
2.08979
11.0756
14.2481
-4.68482
-26.4508
-37.0352
-7.31527
16.4781
31.4933
55.0206
56.198
39.5209
26.3574
-12.4499
-64.9934
-60.8277
-69.2583
-59.6276
3.60398
33.3027
34.5434
36.9642
18.5681
31.4432
27.3771
26.7709
23.3898
17.3498
6.48421
-16.7899
7.91607
107.751
101.779
45.1631
-9.50481
-58.7319
-71.5672
-51.6148
-41.0218
-35.489
-24.5128
-25.1813
-13.8402
-5.77781
-18.3648
-45.4203
-58.8209
-39.7552
-35.0024
-49.508
-54.1826
-53.0557
29.1782
53.2495
62.1143
73.8095
79.6293
36.5286
-13.8106
-23.1948
2.85414
16.5875
4.83747
-9.26027
10.3587
57.6525
81.554
44.4229
25.7054
16.8637
-38.9449
-116.548
-126.136
-73.2956
-10.1468
19.3147
31.7661
42.5407
40.6293
42.347
29.7267
2.408
-22.3827
-17.6296
11.5289
29.693
22.8108
16.6133
7.00818
-3.54746
1.41116
-0.00597483
-24.4027
-14.2602
17.4838
26.3116
12.517
-8.29562
-41.4429
-41.2562
-0.648964
12.8519
0.781497
-24.3248
-51.4481
-43.5069
-18.0626
-13.3989
-12.0912
12.3595
22.8885
22.5399
7.49633
0.744755
-6.54789
-5.47783
11.7935
24.8339
29.9852
18.7291
-2.06045
-4.19119
31.5655
41.0486
19.0194
2.5035
-5.29096
26.6498
50.0815
36.4758
-4.61063
-72.0872
-114.021
-95.4387
0.553952
21.2359
-43.13
-100.877
-69.6719
-8.26882
19.7998
31.2516
44.6963
70.6339
89.7206
64.0185
30.0323
-3.48138
-24.7481
-18.37
6.96866
31.8365
48.8229
1.11375
-70.3708
-59.5797
26.1786
146.384
117.442
10.3668
-42.6267
-41.3867
-38.2089
-41.9251
-28.5509
-28.989
-41.6968
-50.0548
-44.8111
-25.5804
4.42231
2.15609
-21.4243
-23.2
0.513376
30.7803
24.9524
-25.0781
-24.3905
3.76217
20.7182
18.4454
-12.0643
-32.3326
-22.1105
16.2055
33.2332
28.3087
19.5451
8.69598
15.092
33.3097
42.5043
62.7261
37.0687
-6.42723
-14.1659
-4.89841
5.28942
12.0719
0.484039
-7.1745
4.56717
23.46
8.09226
-13.7753
-15.7299
-26.3097
-46.7313
-63.9352
-57.0197
-8.7302
32.2988
39.5249
8.77449
-19.2812
-25.6666
-23.5399
-3.43793
10.2674
8.17441
-2.71816
2.47876
-18.6609
-41.1205
-64.2759
-82.5454
-31.1323
56.4809
150.086
162.277
86.3665
12.1678
-37.6014
-70.1766
-45.4823
-10.8227
17.7296
19.8378
-60.4385
-90.4271
12.0136
74.4734
47.8346
12.9522
19.5428
42.5126
5.16107
-30.9258
-50.6404
-47.2316
-23.3866
15.1835
33.239
19.0722
-23.9838
-26.2464
-45.0641
-69.2419
-32.8225
-5.35129
-7.46783
-2.86363
37.0673
65.9596
78.6786
79.2144
46.4672
-15.7608
-62.5857
-71.2324
-69.6536
-54.2299
-16.9912
63.649
110.508
86.1598
45.4258
31.0246
35.5374
30.7289
-17.9068
-45.3076
-37.8334
-33.539
-37.9876
-40.3988
-28.7877
-16.5403
-21.6682
-24.8116
-6.6413
14.0267
26.7859
12.0424
-5.48687
-70.2203
-85.7808
-46.4463
20.08
93.9095
56.2692
-16.0494
-16.9231
9.61401
19.2372
29.1218
35.0871
10.0543
-25.9377
-34.8918
-27.4111
-30.4057
-5.59648
37.9017
48.4092
57.9687
50.3272
41.0804
13.016
-25.9663
-23.0873
4.33937
6.28962
0.834075
-7.64571
-19.235
-9.21492
19.4677
25.8919
15.17
9.0025
-3.70867
-34.7304
-71.7002
-68.145
-34.858
-26.8453
-37.546
-47.4194
-51.5578
-9.45838
69.9395
84.6351
57.17
31.5247
1.14277
2.99396
22.903
28.8992
20.9179
-10.7521
-47.9667
-41.2583
-16.8187
-3.99922
3.59738
14.5807
27.0281
43.5312
43.37
25.2078
-29.3386
-63.6568
-44.3051
-44.7603
-43.2877
-21.4447
24.2493
53.4259
26.1346
16.6682
61.171
26.4898
-31.1951
0.879801
30.26
31.221
21.8709
17.4248
-8.9957
-63.0657
-68.83
-28.4864
-5.47733
11.1097
8.41412
-2.11499
-43.276
-37.3786
10.4257
13.7014
-12.9338
-15.1985
-23.7529
-83.8122
-53.5918
79.4618
216.524
168.777
73.8604
31.1755
7.59555
-11.8155
-38.745
-70.4737
-56.4603
-35.4043
-19.7911
-30.7519
-70.765
-71.5519
-52.9313
-2.51791
59.4073
65.8725
41.8252
-32.3676
-114.575
-86.5905
-40.9001
0.269599
36.7796
19.5768
-14.3551
29.4832
42.2431
10.4375
9.7624
12.7477
22.8745
45.9927
56.403
45.8495
59.9933
71.208
37.4926
0.0732138
-13.899
-10.5762
-39.2377
-62.6852
-75.034
-38.6642
9.35726
17.1221
32.5257
49.2896
19.7414
-19.4147
-22.4195
-11.6654
0.250201
-9.09813
-42.599
-30.1815
-4.08294
-7.23333
-35.3125
-38.7389
-3.97441
20.6271
11.4806
14.6621
17.5987
11.9035
6.45176
-8.32649
-51.9549
-51.1785
-9.80278
80.6061
128.768
67.1781
6.82167
-13.1168
-21.1835
-30.5355
-60.3647
-79.4442
-65.0235
-54.7469
-34.2887
-13.6607
16.6313
-4.03802
-22.86
-7.07939
106.847
195.724
137.526
23.9368
-23.3134
-63.2918
-75.054
-58.556
-23.8211
21.0591
13.3901
-5.20545
6.06253
46.2428
52.1389
30.2912
0.0244096
-10.3409
-0.269471
20.2358
0.432579
-44.2311
-50.1118
-39.2461
-38.8532
-23.9374
10.5071
33.6563
24.693
-7.74284
-34.9316
-56.6192
-38.5118
-18.3599
20.0437
66.4316
87.763
80.5503
20.6336
-58.5672
-111.707
-142.407
-92.9826
3.44928
94.9872
116.431
105.299
66.6309
39.2476
15.0074
8.86416
25.5781
28.3624
5.80981
-33.2054
-71.6141
-84.6954
-73.7704
-36.3921
-13.681
-0.423771
-7.33622
-30.4147
-62.4974
-106.106
-54.8889
7.87277
17.3571
24.2941
43.787
53.0956
60.4745
55.1313
42.1243
45.7825
40.3873
0.437024
0.401089
29.3787
58.4357
56.6154
48.494
32.9099
-45.8192
-109.95
-78.7211
-13.1576
76.873
40.5217
-63.3792
-68.9435
-22.0484
14.5147
81.7126
40.2901
-27.9767
-49.2574
-36.7623
-8.03962
-20.8988
-40.8922
-37.9239
-4.02738
23.8901
35.2787
29.7692
-10.5479
-72.2078
-74.1901
-23.4104
20.3856
29.7576
12.2045
-6.66804
23.0595
38.2643
54.0073
49.1188
-5.4891
-48.0707
-76.2714
-50.8219
-0.565924
36.1914
60.6108
82.1806
68.0144
22.2246
33.1262
77.4597
63.7805
1.05992
-61.9583
-136.337
-136.672
-87.4328
-38.5841
-3.31975
77.8891
108.884
57.0971
-11.9168
-42.2694
-22.617
-5.84627
-8.34125
-16.0951
-5.50755
-2.09454
-25.672
-27.949
-0.944377
25.9441
43.5353
46.1448
39.8676
24.4549
0.426428
-48.2695
-72.4069
-22.5978
36.7515
42.9058
22.6882
-15.645
-17.8122
-17.675
-30.5673
-35.5575
-30.5749
-14.0785
-3.84349
-13.0101
-9.02786
6.06623
71.6986
100.191
38.5204
-15.1259
4.52837
42.28
41.1381
4.78594
-17.7453
-27.9644
-43.0666
-31.6175
-29.9351
-17.5101
-5.12166
-14.7226
-14.5662
-2.08224
-11.5235
-49.5251
-86.532
-60.1586
20.416
60.1365
55.097
56.9577
43.3228
41.1462
47.2338
39.2727
36.7916
21.4303
-11.5821
-23.2398
-36.1569
-54.5781
-46.5338
-12.8602
14.6248
50.8088
56.5933
29.8337
0.736057
-21.641
-31.5091
-54.2724
-87.0424
-127.761
-49.3175
54.2088
92.4596
53.9627
21.9082
-0.71532
-6.62953
17.7878
25.6207
24.1483
23.6991
21.2796
-4.55485
-27.2213
-42.0867
-53.7641
-64.5848
-36.0498
44.156
88.0873
37.4817
-18.481
-61.2546
-65.9037
-37.7594
-52.0031
35.9012
126.479
97.8909
53.0159
24.1616
9.17668
-15.3585
-35.6698
-41.0462
-19.5315
17.0123
13.7432
-25.7624
-27.9558
-29.4408
24.5423
60.4063
3.07656
-9.09562
34.0669
-10.592
-62.7113
-53.1887
-48.5054
-58.3445
-35.8926
-4.41176
8.37579
24.268
64.7833
86.0242
64.6722
36.9976
13.0527
-11.1375
-73.0915
-86.3338
-7.66778
22.8328
12.6475
-3.65596
-18.8639
-8.53073
11.7269
32.3472
21.468
3.20032
-0.0830045
-6.23762
-18.7554
-5.17787
21.7001
31.0762
37.7345
23.0556
0.579802
-11.0343
9.82812
19.8335
10.3154
-3.60514
-24.5274
-20.9231
2.1384
-9.91009
-55.9728
-79.7243
-59.54
-21.4734
-11.2129
-27.2819
-15.4717
18.4697
38.0288
37.5918
18.7579
9.19467
20.273
32.8565
38.0716
21.4411
-3.95038
-12.3159
-11.9782
4.84302
30.7183
2.79029
-8.62605
17.0249
5.18379
-3.18851
23.0987
51.7917
62.6378
19.5029
-106.063
-150.467
-91.9389
-11.0627
51.158
53.4121
38.0572
17.3743
-5.68149
-9.22611
-6.0096
29.2956
-10.3576
-50.8011
-14.5233
88.6133
136.773
20.0692
-71.1331
-51.7766
36.214
66.0153
51.2753
-10.6908
-101.855
-121.911
-110.37
-71.0877
-38.0311
-28.7478
-9.39543
99.6993
185.026
117.088
9.19206
-81.0652
-128.763
-73.0618
-50.9576
-46.3915
4.65856
38.6487
21.4238
-0.276123
-0.588993
24.9231
46.3531
41.4108
48.3539
68.1465
26.9833
-35.2245
-33.7634
9.46491
35.2642
23.0633
16.3333
39.6232
51.6707
30.4889
18.365
30.7104
23.0699
11.2206
13.354
23.5222
20.8331
-15.1451
-65.4205
-138.855
-188.628
-178.041
-81.5835
-3.48323
24.9748
28.3215
12.2106
11.9578
31.2965
50.9002
30.7813
-19.554
-39.2247
-10.6876
14.892
-14.5114
-15.5577
48.312
178.819
224.868
141.336
45.701
-84.3362
-107.792
-53.2188
22.3702
21.1433
-38.813
-73.5088
-74.0182
-44.6874
-38.6502
-55.5469
-28.2369
29.4821
15.4557
-3.10181
-25.0675
-102.317
-120.773
-30.8593
23.1381
54.728
75.6863
64.9503
14.6462
44.8249
66.0169
58.1937
32.7403
16.486
32.5301
47.5365
20.4636
-20.0998
-13.1427
3.80856
10.7087
-1.13113
11.1095
44.1047
31.2028
-2.87773
-45.7812
-66.3311
-69.4759
-92.1868
-66.2128
-36.6836
-8.78066
-5.64154
-50.8982
-40.9511
-5.04403
-4.54873
7.61057
36.6402
49.602
27.9124
3.99078
44.6214
89.448
61.7194
-4.08241
-42.8983
-42.9964
-39.8002
-9.7775
15.1088
7.17867
12.1626
53.1053
50.5056
26.001
24.1198
28.1845
11.1592
6.28245
14.5384
22.6125
-0.458198
-38.8571
-60.3601
-32.1518
-4.2929
-8.67137
-7.31032
-14.4658
-24.335
-7.49779
19.5327
48.9686
17.281
-45.1545
-62.6095
-67.3196
-78.2103
-100.004
-91.6685
-66.971
-77.0543
-57.3328
25.0221
138.269
208.576
197.825
93.9285
12.2002
12.3018
29.1852
13.4311
-29.7681
-61.4019
-49.4278
-18.6008
-20.2829
12.1541
75.7515
57.4925
15.5587
10.9
7.494
-12.9893
-78.6315
-95.3578
-73.6371
-36.0651
4.30087
8.90152
12.2363
17.7376
20.157
34.1156
30.1343
-4.54387
-5.19818
-1.07176
-0.544675
9.79532
17.7662
43.0748
42.8429
14.6039
-4.57572
-27.9793
-50.9269
-58.6987
-70.1051
-85.8781
-77.4889
-60.1333
42.7095
172.084
154.576
101.172
64.73
37.9859
-2.28329
-26.3053
-26.5203
-32.0348
-40.615
-38.2511
-41.6042
-61.3502
-63.3794
-44.8234
-4.38392
44.8581
51.6108
34.9379
-39.8221
-100.865
-70.5336
-45.9252
-76.7812
-111.608
-65.7533
85.5772
183.679
107.47
35.2038
22.194
32.2263
24.1266
12.4846
33.4294
52.452
44.0712
18.3981
10.3754
-6.76199
-32.9814
-34.0079
-1.65844
65.4996
97.911
67.4843
-24.7858
-82.1849
-68.1667
-52.7722
-46.0883
-52.6681
-49.3207
-24.4992
17.3298
26.8978
19.0618
8.94996
-36.3903
-54.6811
-53.3309
-28.7053
13.4335
50.6647
52.5529
22.2569
-10.5524
-37.1206
-24.0437
18.1155
22.2049
27.4931
12.6645
0.00392187
13.2824
36.3706
25.8829
15.5187
13.9023
6.63852
12.2954
-0.886303
-33.9802
-21.698
-5.95872
-16.6392
-31.056
-17.421
23.1457
30.738
21.348
8.39411
11.7372
15.7843
-11.9614
-41.1133
-37.2307
-20.2935
-0.473586
6.14483
20.6442
38.4797
30.9563
-3.05579
-25.6386
-43.9063
-43.9328
-31.4513
1.90238
24.206
20.4362
-1.41096
-22.4492
-40.5835
-76.4623
-88.5174
-33.3062
30.9939
137.172
117.448
24.0754
-2.39981
19.0143
56.931
40.9335
6.82046
-10.373
-16.0047
-41.25
-42.5659
-6.32622
11.8586
-1.18529
-26.0269
-8.79061
8.51482
-7.11516
-14.2335
-25.7057
11.4801
62.3104
127.462
86.7573
-1.43837
-33.3697
-31.4034
-30.5374
-27.8812
-27.3429
-33.8257
-17.4407
8.31254
25.4835
29.0439
17.2811
-35.9982
-72.5316
-95.8807
-115.537
-87.2387
-47.5598
-43.0586
-7.02713
18.6258
30.1208
60.0104
72.2301
51.9222
55.0386
36.5035
15.9529
24.6883
51.4089
60.2793
43.9747
66.2224
80.2823
48.0523
1.1819
-41.2322
-63.1466
-96.5912
-92.4827
-44.1772
8.78577
39.3673
26.6491
12.5788
24.4504
26.4518
21.4461
15.0709
-1.85127
-37.0749
-86.1401
-107.227
-60.9917
-16.4192
-19.6604
-48.5796
-49.0122
-21.7605
11.103
39.1648
48.2166
39.7056
54.9219
49.5218
22.2377
3.193
-47.4962
-65.0019
-17.0783
96.8903
131.819
81.474
26.6205
2.95195
11.2079
36.7155
37.3753
16.0824
-7.36985
-61.0965
-78.2089
-68.5518
-89.3714
-113.79
-117.711
-65.0743
16.0148
38.3097
19.8997
9.82427
119.415
163.746
78.908
-44.7853
-74.3914
-34.8275
-2.03973
16.8347
20.2196
21.8826
4.14612
-29.5155
-38.7776
3.37683
28.1032
15.7648
-6.73143
-5.96126
11.9154
-5.76129
-67.977
-60.6718
-13.5361
37.7155
64.543
76.1773
42.0602
-20.7283
-70.747
-71.8118
-49.4055
-22.1288
6.91932
32.0698
50.3978
39.0034
24.5803
1.52778
-14.3877
-9.72793
20.6631
48.1383
54.3823
62.7365
33.8306
-13.5422
-22.8938
-42.181
-32.3536
-7.67856
48.1333
95.3313
21.0839
-78.2385
-122.193
-135.401
-106.647
-37.0057
29.7043
58.2523
-12.6177
-73.1836
-67.6703
-29.2407
34.7904
135.353
122.323
31.9414
-14.671
-11.9141
-39.9913
-61.9639
-8.54466
46.95
72.2538
102.231
92.5883
27.8003
-24.2217
-52.1171
-42.2691
-8.4689
-13.9018
-40.9672
-43.698
-58.2676
-34.4193
12.1845
21.1594
10.9207
3.18489
-2.37735
21.6627
54.761
54.6301
44.9717
17.7384
-1.73528
-27.9322
-52.7104
-35.431
-17.9228
-8.5893
8.64113
-10.0253
-46.4267
-51.9438
-15.6834
18.535
27.9216
42.856
32.4794
4.03248
-9.36837
-32.2153
-55.5325
-56.7771
-41.0658
-27.6634
-0.773865
151.037
201.433
78.2989
5.05156
8.68039
38.5755
26.4737
-14.0225
-37.462
-1.42129
-8.19996
-39.8942
-27.2499
-11.9304
6.5993
-14.0889
-49.8025
-54.6149
-92.8622
-133.899
-157.551
-86.7513
-31.7248
-25.262
-30.6392
-16.871
28.0218
94.9862
120.535
76.1996
58.7481
61.6374
38.3638
50.3617
65.9872
85.8082
102.38
83.0117
77.6764
71.4058
10.2312
-61.9346
-24.0025
-1.75124
-24.2432
-73.5242
-87.3733
-72.9775
-50.0456
-37.2875
-40.8771
-26.2989
-6.09963
-8.72518
-24.7057
-41.8489
-30.5887
-24.5204
-11.4378
-24.5484
-76.0059
-55.144
45.7829
111.791
56.5585
-1.1791
32.1027
37.9825
-1.94767
-20.0137
-17.2782
-18.6269
-6.88971
-4.19135
15.2784
41.3632
25.8572
18.568
27.6965
34.7211
17.5782
-13.9131
-30.0187
-10.15
35.7427
-3.8076
-68.3352
-62.4168
2.80745
47.9126
-8.44499
29.6328
50.4234
14.7303
44.7408
101.482
58.8884
5.28652
-27.1552
-30.3439
-26.0099
-54.4123
-82.8988
-102.508
-81.5131
-25.1531
31.0359
79.2691
52.4367
-0.242002
1.74651
-27.7547
-21.4585
-4.60856
-20.9173
-58.0643
-35.2079
-9.39189
3.87541
12.1009
9.92817
9.97026
38.4282
29.0994
12.9931
23.5407
21.6421
4.90903
13.6197
10.8803
-27.9396
-53.7912
-31.3489
51.5114
89.0005
54.0317
29.7029
23.4999
27.0427
21.8446
7.60126
14.9755
9.89587
3.95457
-0.7501
-8.57999
-32.7848
-56.4589
-66.5332
-59.9507
-1.48624
7.79355
-26.9824
-66.6675
-94.3255
-86.1143
-39.8751
-2.61432
25.669
36.3412
51.6001
44.1725
24.3073
27.5033
26.9283
-4.83957
-32.4116
-20.8364
59.5568
57.8429
-9.45869
-4.25593
26.0959
-8.07839
-28.2832
-13.9835
12.7377
29.6449
16.6992
-14.601
-20.0945
-8.68769
-3.78705
17.7518
71.7261
122.872
93.5655
29.6186
-54.5537
-74.7647
-53.0938
-74.7649
-63.8061
-7.67022
-35.1237
-15.0037
82.1567
83.4122
16.7537
-4.60208
-1.01986
7.43018
-10.9453
-50.0931
-122.272
-115.404
-19.4593
75.2664
67.16
12.6439
1.60721
8.79879
-2.57754
-22.2892
-3.66122
-15.2986
-52.7005
-30.1271
14.9568
51.7386
47.6791
17.1749
-6.24724
-18.4813
-0.264256
7.74459
-15.225
-40.8554
-22.1574
57.7706
97.1038
78.4137
48.555
17.6002
1.52708
15.8553
-5.39332
-37.6191
-49.6046
-20.9204
10.2738
-26.7102
-41.2889
-25.0366
9.26137
28.0084
18.6402
17.887
1.50565
-61.8368
-38.5314
-14.206
-29.788
-38.0382
23.9319
60.0224
-25.8589
-68.1095
-26.6144
-10.037
-9.28601
36.5503
61.1494
67.9911
50.6368
29.29
12.9066
-31.0958
-48.8529
-24.7771
-17.4169
6.25424
32.7252
31.3821
-13.1277
-41.8299
15.5967
71.9201
87.4194
49.4968
-2.51046
-19.0856
-2.83827
-0.968755
-18.7068
-62.2167
-69.1269
-61.3451
-51.1493
-24.8835
-33.4132
-25.8854
3.56471
13.9729
-2.85314
-14.5951
0.857783
46.5824
78.255
49.8362
-48.1662
-75.6886
-17.1494
29.0935
39.5812
35.1371
13.4541
-24.9268
-50.523
-42.6569
0.481482
22.8494
41.3095
143.858
193.531
88.1383
1.19283
-60.0012
-90.8951
-73.7793
-11.4385
1.1593
-47.9992
-61.3927
-38.2476
-14.8013
14.8183
57.9644
101.975
100.424
36.6747
-55.1183
-75.437
-125.562
-139.185
-72.662
-62.434
-93.7871
-62.5853
-4.04451
36.6235
26.0493
24.5009
55.2088
123.969
128.802
60.4405
14.154
2.53747
23.696
53.6998
69.2563
26.2388
-5.22025
-12.3791
-12.7218
-1.99785
12.0382
-29.9575
-55.0616
-11.5004
35.8347
15.3693
-27.1428
-76.6264
-93.6107
-56.1473
-21.07
-10.0012
-8.14234
9.62349
14.802
-13.2673
-37.0338
-29.9302
4.14786
39.41
40.3652
12.4684
-4.33037
0.490556
11.3089
16.4376
21.4646
15.3784
47.8918
79.1852
65.399
24.3302
-40.739
-33.3672
45.6122
116.183
73.5836
-31.841
-79.3301
-74.9922
-73.5075
-67.819
-73.0812
-82.2783
-68.3338
-57.186
-28.4376
12.2167
23.1928
7.16227
-8.58789
-12.3028
30.043
70.9164
95.5422
42.6526
14.6764
34.3625
19.8147
11.8104
48.553
68.2643
70.6824
52.5858
42.611
19.3677
-54.8517
-120.517
-131.433
-132.783
-119.26
-78.5132
31.5759
100.759
89.471
106.26
42.7158
-23.3248
-30.3835
-27.704
-17.6865
-0.832293
-3.33443
-9.55414
-14.5002
-5.90762
20.1988
49.6301
83.8887
78.4689
49.5035
29.0035
-27.3957
-88.5564
-132.1
-155.248
-81.2946
-15.195
11.5273
27.5064
38.4791
28.8956
24.0423
28.2374
15.9906
24.5012
27.359
11.3841
-17.8245
-7.31859
26.5866
43.5167
21.5953
-15.2086
-38.2719
-19.4212
2.62672
26.1974
34.3748
-14.2113
-60.6891
-60.7054
-32.5297
4.78673
24.6318
28.1838
53.1192
39.7062
-4.41973
-64.5274
-48.5069
38.0044
133.027
131.107
57.0801
-33.9346
-85.4854
-88.9778
-60.4368
27.2202
7.23762
-59.5698
-71.2471
-66.9176
-15.7052
19.6112
8.57476
22.0645
37.0481
71.4104
73.5006
9.29722
-82.0139
-99.2384
-65.2028
-19.803
41.1588
72.4788
72.589
41.5723
31.4523
45.3984
38.9726
82.6357
47.5481
-31.7583
-58.6769
-53.583
-47.5908
-42.7238
-41.086
-35.7013
-35.2382
-53.2923
-71.4475
-63.3767
-40.9834
-32.828
25.3532
123.731
118.552
101
99.1819
36.9292
-4.87112
-15.7774
-48.643
-101.066
-106.904
-45.3787
42.8284
43.3679
-18.0489
-8.08834
43.1622
57.9513
51.9633
46.7653
10.1673
-54.9509
-34.1669
-11.1319
-27.977
-56.2088
-44.057
-15.1789
15.8452
51.1595
53.263
30.2621
-23.7405
-22.957
4.64796
14.8705
39.6781
32.2977
-22.4488
11.5743
61.59
43.4328
-11.2486
-57.4141
-70.9399
-75.2278
-46.3842
-23.8431
0.65476
6.18375
25.6674
54.6728
43.6914
17.8535
7.26298
-8.09729
-26.4371
-27.4492
-3.58993
-20.141
-51.753
-42.779
8.5613
48.9474
70.1615
63.6647
14.1261
-33.3218
-48.3762
-29.0984
-25.4702
-33.0619
12.2476
47.4236
53.6917
38.2619
3.33308
-11.4033
5.43934
5.44337
-18.8923
-40.6203
-18.1124
43.1702
113.768
82.2835
-28.1766
-52.7246
-45.1331
-55.5153
-48.2513
17.9833
31.7872
-26.3835
-30.6753
-29.6009
-29.6754
-9.84938
10.654
7.40733
-2.49474
-5.53598
-19.235
-69.1377
-89.5461
-37.5684
26.3215
71.2037
73.235
42.06
43.5468
6.83102
-18.7133
23.7584
31.1518
26.7452
44.7519
85.9496
60.8817
20.4403
11.2029
23.899
27.9935
-9.40286
-52.5834
-44.4099
-27.6699
-30.6942
-71.8585
-70.8516
-70.6903
-81.1454
-72.8248
-56.746
-63.6654
-41.507
19.5582
94.5548
113.928
70.5999
21.2659
-9.44609
4.52768
33.5213
46.792
36.9816
39.0615
39.6118
40.3708
33.4723
26.4345
14.5133
-18.9293
-26.2168
1.57658
13.2687
-1.44552
-56.6065
-92.432
-82.2596
-65.9637
-48.5332
-21.2268
-0.265374
-30.4698
-28.8266
19.5578
43.7235
57.3239
61.0055
41.0789
22.7016
11.2289
4.97267
-17.8751
-54.266
-63.4566
-54.2115
-17.257
6.66536
25.3444
32.7171
82.503
99.6201
56.3691
15.9674
-10.3844
-44.4714
-60.0305
-43.0489
-40.2265
-44.2132
-3.93225
99.2449
97.4235
60.8975
30.7556
21.1009
-0.720376
-18.7884
-18.5168
-30.522
-97.9523
-116.5
-87.3425
-71.5873
-21.8309
53.4126
110.332
119.602
95.5918
39.5055
-74.77
-154.718
-110.028
-22.6056
10.4734
-12.651
-28.2509
10.6564
43.4503
34.782
20.1085
25.1518
46.1434
63.0483
51.1951
17.2656
0.81886
-9.51423
-10.1836
11.1743
69.3674
42.492
-12.8259
-32.1661
-39.2247
-65.9822
-60.424
-46.2861
-20.4152
15.0877
39.1582
43.1849
43.0501
32.4307
0.503447
-21.6155
-23.4433
-6.60966
33.8249
13.6365
-26.2186
-12.0233
38.1053
3.33355
-67.0806
-68.9487
-18.813
-7.25575
-39.1685
-47.8575
-14.7817
7.48704
-17.1652
-46.7566
-14.4131
45.9505
102.947
78.2779
10.0208
-14.4252
-15.3484
-34.6585
-12.4234
75.385
140.309
87.606
4.83931
-38.9887
-44.9355
-31.5487
-58.1838
-59.5724
20.8573
130.868
100.68
34.4278
-50.4449
-123.313
-146.773
-71.0602
-11.8761
-4.84714
-30.4366
-43.1497
-44.3942
4.99958
54.8805
67.3325
34.8659
20.8629
19.1159
19.8196
3.21991
-67.0775
-57.8952
-16.2195
16.1305
66.3143
87.2021
62.1229
52.4146
49.0156
33.2459
6.61145
-4.51683
-19.3862
-30.0493
1.25013
23.2909
5.63806
-35.8569
-77.3563
-84.6697
-55.0547
-24.3184
10.3321
46.15
66.2365
35.6687
-13.14
-48.086
-47.5616
-32.0517
4.14954
27.3378
27.9462
18.1566
-3.80055
-16.124
-19.4939
10.3986
13.9453
-28.9406
-41.8324
27.6258
111.387
3.41697
-88.3077
-78.6364
-3.03927
12.9931
3.81286
1.30817
-35.7053
-45.6436
-23.394
3.6851
62.5532
153.946
108.21
39.2786
19.2737
25.5083
1.97675
-56.3391
-143.546
-108.696
-50.205
-51.0163
-40.1398
4.4037
26.2188
24.1134
30.643
46.4644
84.3261
119.956
88.0295
17.2756
-1.63386
-9.40625
-3.59884
6.71023
12.653
-5.32532
-27.5749
-18.5273
-20.2024
-5.20189
-21.739
-14.0901
7.55348
0.25556
-24.32
-54.6544
-69.387
-67.371
-68.4622
-74.2017
-36.2691
18.1541
31.1444
25.4121
33.6189
34.112
20.2905
14.8802
26.7972
53.4217
39.6142
10.8895
-12.1517
-2.91593
13.3777
26.6981
15.7486
0.609169
-9.04926
-16.0328
-49.2398
-87.5973
-61.727
3.39797
48.1646
36.256
85.0645
96.2767
37.6976
2.91973
15.4647
42.989
-17.1958
-89.4944
-34.0776
-9.55223
-17.7315
-15.239
-17.9491
-35.249
-41.2956
-17.0809
26.7297
43.8976
35.3667
16.5009
-26.969
-52.031
-35.8911
-16.6882
-1.37814
-14.8572
-9.73871
22.2756
9.67214
-7.36339
24.4503
103.753
73.3557
41.4045
68.7864
51.6563
3.77672
-32.3615
-75.4283
-97.8664
-126.467
-109.834
-25.6666
24.9734
22.2304
7.69981
33.5943
52.7319
28.2431
30.7346
9.17497
-51.5757
-40.2851
-1.78526
10.8353
12.7348
9.76958
9.42992
28.7703
45.9
29.0906
11.7127
3.90482
13.495
-5.26929
-27.0405
-21.5138
-19.2394
-18.3239
-1.91465
5.00862
-17.7149
-51.2389
-76.3217
-38.8344
35.0742
110.392
87.1849
26.9019
-33.2632
-28.9045
25.6906
22.7227
-1.45867
-6.43054
-3.99771
10.546
14.9627
4.83895
-8.70819
-20.3981
-24.2832
5.17173
15.7024
-24.7379
-54.7608
-66.5308
-9.35335
64.9104
31.0957
-23.8064
20.2763
54.664
30.9858
4.12718
-41.1839
-55.6291
-18.8036
1.82319
-0.260271
-23.845
-38.8146
-19.8152
-2.85273
7.68744
7.57858
-21.6332
-37.0991
-33.8679
27.6959
66.1457
37.3722
20.9332
28.3248
37.8657
65.8908
53.2983
13.1651
-43.7456
-68.7502
-42.6584
-40.1655
-50.7399
27.4043
186.389
151.736
-3.62251
-88.4276
-88.471
-46.1469
-12.2609
15.5442
22.677
30.8571
11.1476
-16.2611
-32.3201
-39.6134
-33.8112
-20.2329
-4.64027
8.06802
-15.477
-59.0833
-98.0739
-66.1748
14.8191
56.4666
47.7337
41.6393
26.8269
-15.0277
-24.7087
-16.9704
11.8952
23.6166
-0.582956
10.867
43.6827
63.0501
26.8784
-8.27365
23.1983
38.0743
0.637385
-4.01486
43.6282
30.4348
-32.5416
-37.1704
44.0723
79.7717
31.5211
-7.13659
-36.2495
-38.2623
-17.8663
-13.2162
-17.7359
-36.2105
-40.5836
-38.3113
-51.9077
-42.1764
-36.7766
-38.3585
-69.4142
-57.8929
-9.99396
20.1542
14.5423
-16.9167
-3.70561
14.1399
26.6655
34.8181
40.2413
48.2193
57.1213
51.8289
57.4591
74.4521
82.6124
61.5959
15.3406
-2.62405
-12.9963
-41.3773
-35.6998
-43.4584
-66.772
-64.2272
-53.1265
-60.2716
-52.4759
-30.6541
-4.61558
17.0122
102.835
130.518
72.616
31.7566
6.93361
-31.098
-48.4326
-36.7094
-22.4725
-3.25352
1.72609
5.01364
-10.2532
-19.7243
-18.0801
-3.3051
3.7789
1.98187
0.880918
-18.4773
-68.1973
-76.4579
-51.0074
-34.3967
-3.08971
6.00597
9.6466
38.8859
54.5877
63.2282
44.1709
35.3353
44.2257
5.25999
-63.9386
-52.0385
80.4704
174.882
68.379
-37.6655
-100.578
-75.3789
26.2062
83.8091
70.9987
28.5654
-16.5891
-53.3674
-41.9626
-43.0496
-70.8957
-97.9478
-71.3731
-15.8763
26.9879
32.4598
-21.7792
-52.5121
31.9666
88.0537
68.7936
9.02955
-42.9717
-42.085
-26.0753
-13.8093
6.78397
26.7274
42.3624
35.8776
39.28
42.1893
18.0948
30.3853
53.5484
38.6849
-23.0326
-79.3368
-96.9229
-71.3916
-36.168
-12.7404
-0.149304
-11.8485
-4.5597
16.6288
-0.0512171
-2.47832
-3.34759
1.85646
18.1605
19.5099
-5.61221
-12.3984
-3.13109
-35.0849
-55.3681
-10.5529
59.4547
72.0531
126.71
164.878
78.064
0.892553
-36.5962
-46.8112
-40.4624
-44.5295
-50.1442
-49.6004
-43.0309
-21.9587
-14.4521
-21.247
-28.8
-8.38771
0.879453
-13.3401
-7.05832
0.336074
-34.3772
-52.952
-11.7495
35.0183
62.7626
56.8887
20.4416
-14.5896
-33.2426
-45.1966
-23.7455
27.8439
10.4149
10.983
28.3876
54.1035
64.5568
50.6149
29.0411
9.99659
-4.6712
-22.8713
-20.1173
-15.7232
-10.4387
-4.04073
1.05096
10.6092
13.4225
-5.73423
-17.9135
-4.18569
78.1113
92.3953
10.6495
-54.1979
-42.1989
-54.6678
-93.718
-103.217
-79.3618
-9.6393
-31.9598
-44.4069
17.9163
101.571
124.037
92.7688
46.5286
35.2478
20.6498
-24.8828
-114.945
-192.963
-152.774
-67.704
15.6699
70.6906
127.455
162.938
114.652
25.7838
14.8293
10.5493
-25.9043
-68.2733
-97.5115
-97.4061
-69.5779
-25.2013
10.5858
87.4001
179.52
153.787
112.745
66.3152
-5.16646
-57.1569
-80.3921
-88.26
-111.751
-130.267
-76.3382
-35.6845
-38.7056
-29.3719
26.3299
69.3137
63.9451
38.5421
33.8055
15.9695
-28.3181
-13.6985
26.3069
51.119
24.676
7.2019
1.63107
1.85698
18.9428
16.605
9.46465
-0.550684
-15.9775
-15.1856
-10.1007
-22.8399
2.47319
31.0573
7.48644
-37.9938
-39.4167
-3.7787
10.2235
3.9419
-0.803477
-3.4182
-16.6737
-50.7261
-55.2298
-27.0375
32.0297
54.6722
23.4936
-13.1302
-8.48289
12.0253
18.8795
36.4793
45.9532
22.0984
-25.9057
-34.5379
-35.7317
-4.68035
49.173
13.2024
-31.4444
-8.61479
32.4519
32.9967
-5.19227
-28.3863
-14.6305
0.914974
4.39869
12.6302
7.05133
-9.90324
-12.9047
-12.0587
-6.99357
1.41776
0.891673
-39.0201
-63.124
-17.5063
17.1588
16.1424
11.7619
16.7982
14.634
-24.0895
-42.8357
-13.2252
64.0129
104.756
65.5533
32.9808
-2.42291
-20.3909
-5.9448
-5.95589
-28.6736
-55.9194
-53.027
-17.5947
7.21045
-14.2104
-44.503
-16.3587
26.2441
-0.271504
-26.1748
-5.68103
11.8836
14.1254
12.5116
10.8487
19.0244
24.9696
-13.5361
-48.8395
-9.13559
21.0133
15.0497
81.6481
133.749
77.1126
70.0864
49.2955
-4.41632
3.14562
23.0125
-11.827
-90.0057
-149.947
-146.367
-115.926
-71.8513
-14.3201
59.3325
108.447
90.7508
55.8727
-2.61383
-77.2319
-119.732
-65.3633
-39.1225
-41.0107
-26.7643
5.85686
22.653
20.4927
12.3789
35.1483
61.3888
66.6797
49.888
28.901
19.303
6.3284
2.48921
22.9024
26.9561
-18.7349
-16.1849
19.2373
1.48563
-22.0242
-28.956
-9.50546
-18.5339
-14.7866
10.4146
18.033
23.1102
17.8158
26.1828
41.2255
50.3783
30.8582
5.35401
-15.3535
-12.8039
-17.0013
-37.6582
-40.0307
-19.2484
-16.9391
-30.2734
-15.4542
11.5298
-17.2547
-46.9644
-26.0837
-19.1477
-56.0286
-89.0358
-108.378
-62.4912
29.5293
50.131
44.5476
52.7392
78.3078
64.3705
27.8677
24.2104
49.8591
48.1411
14.0607
15.1453
38.6044
41.6515
22.3436
14.3954
24.0721
28.216
3.54891
-45.4546
-93.4601
-81.6247
-52.1435
-46.6655
-39.1821
-10.9087
11.5907
5.92435
-6.70881
4.66979
22.3467
30.7147
24.7889
22.59
8.13929
22.2734
36.3803
6.80372
-18.262
-19.0549
-60.6419
-101.783
-73.056
-24.2537
4.12479
15.573
60.7207
142.993
104.92
47.0208
7.70421
-16.9017
-35.8223
-47.1007
-36.7508
-31.1671
-19.0843
21.1849
79.1063
31.8127
-43.6772
-52.0702
1.43524
34.7678
-26.1009
-106.466
-123.654
-92.5246
24.3545
51.3316
31.9883
12.2926
15.6747
48.0694
79.4776
70.9316
46.3808
23.7647
-13.494
-7.48009
48.1844
74.1539
20.0635
-42.5681
-30.8084
17.6154
7.13956
-48.5937
-77.5956
-50.5081
-18.4458
-16.8071
-29.6883
-41.3773
-38.9234
-38.2588
-37.6138
-48.0234
-44.1911
17.5592
153.146
209.024
98.9098
10.9037
-10.4688
-6.54568
-9.74979
-29.76
-53.8265
-55.8492
-22.2565
2.06581
12.1136
-2.78074
-18.6387
-24.1961
-6.02441
18.6887
15.0352
-19.6296
-60.3284
-63.5823
-14.1883
11.0245
22.6282
31.6885
26.8798
6.46473
5.52215
31.4816
33.5035
35.5299
46.9314
38.1443
-18.1569
-35.514
6.21741
15.1789
-3.31578
-29.9653
-97.6799
-92.1676
-8.0834
48.8554
52.772
48.4994
25.6119
-6.79552
2.25369
0.758181
-11.7638
-13.6124
-6.50177
-7.69753
-4.48861
23.5214
2.42688
-28.8241
1.4788
101.011
97.471
42.6081
-22.1991
-43.7781
-41.5114
-42.0534
-28.6728
-11.6047
-2.10512
-22.7603
-53.0565
-47.4487
-8.10694
0.698163
-31.75
-38.6972
-0.910258
38.2388
37.2255
32.9611
42.8944
56.4184
2.46245
-80.7888
-105.786
-90.3086
-40.6721
-0.328892
8.60521
23.925
49.8556
79.3284
92.448
80.9317
62.9028
59.9141
63.3069
39.9144
3.78412
-24.0408
-44.5405
-79.8637
-105.955
-94.0646
-37.3004
9.35074
28.3247
35.6354
40.9746
19.032
-1.08528
0.0399258
2.15022
-2.60944
-3.49044
-7.44674
-9.0858
2.39523
-9.98244
-34.1278
-22.6848
-16.6379
-5.43042
37.134
114.715
130.562
56.625
-1.20222
-43.1752
-80.7288
-72.4612
-67.1833
-86.5889
-68.2769
-50.7188
-22.8622
-18.9996
-18.832
-15.1216
-1.65767
29.0544
64.3332
68.2094
67.6229
23.6429
-23.7258
-4.82366
-3.29283
-27.207
-8.31499
2.9366
10.8967
38.9992
62.153
68.645
48.38
49.5003
47.1655
29.9386
24.7163
47.84
-10.9571
-92.1174
-124.51
-117.41
-78.6764
-40.284
-9.90036
33.7594
50.6237
37.5911
35.3752
49.1699
30.6872
8.70694
-24.1497
-85.7
-93.2441
-85.6157
-17.8362
29.6209
13.8855
4.39153
1.34698
-38.7351
-1.76739
98.9636
104.473
84.5913
56.5171
12.8212
12.7076
21.8161
-5.43201
-41.368
-69.9794
-57.963
-36.3824
-2.19538
4.75849
-39.5469
-32.4262
-0.214547
10.7836
24.8534
2.3595
-51.2038
-30.2074
-9.56273
-36.0026
-24.8093
0.435861
-1.52951
0.694051
18.7531
42.9242
51.4461
48.6821
57.013
14.6514
-18.8898
1.42883
10.6169
0.309168
-2.7373
-4.80995
-23.1916
-22.4995
0.847484
78.6091
161.711
98.8985
27.6553
-16.5426
-31.0346
-23.9752
-6.29306
6.57533
-6.05791
-19.5285
