88.0423
97.6631
188.485
245.055
146.397
-34.6808
-237.326
-382.845
-403.162
-335.583
-207.584
-73.9799
-3.6021
57.5035
122.502
170.785
160.667
114.619
99.9523
99.9714
104.199
98.7674
23.6366
-32.1319
-21.4546
20.697
87.4556
161.49
179.523
140.263
51.5995
-24.3899
-52.3066
-65.2628
-108.97
-133.175
-128.248
-142.632
-130.451
-102.852
-65.9398
-28.6936
-78.1537
-120.247
-89.1416
-23.364
47.1107
88.4044
123.513
133.524
81.1823
32.5065
8.72811
-5.97911
-16.8964
-1.57482
10.7133
-7.58493
5.61234
-12.467
-15.7965
-7.27507
-10.8608
-24.5594
-20.9809
-7.48145
32.3407
63.3386
44.4468
31.5856
47.805
94.1982
76.9482
30.7513
-22.3787
-86.5019
-128.799
-57.4213
-28.6767
-1.32536
31.5628
25.0173
31.6071
52.7802
10.0456
-31.8548
-40.1369
-30.9288
-1.44799
13.5524
-1.73852
-29.6864
-28.9519
-3.20257
17.2191
40.024
71.6201
50.1475
36.665
33.0408
-19.666
-34.7583
-28.5827
-32.1742
-8.41147
23.8792
33.4017
-14.8266
-78.0201
-94.3809
-76.1518
-89.2581
-67.7267
-14.8424
32.1768
64.864
85.547
50.6377
-14.5072
-11.4188
21.5506
80.3573
74.4834
39.1717
1.63945
-49.7506
-103.479
-127.579
-58.3313
26.825
34.6669
7.52363
30.6772
34.2957
43.2577
94.8993
129.3
77.9432
28.3112
-47.5913
-142.444
-165.298
-74.6012
-15.3999
10.3199
52.1163
77.956
97.4683
86.2462
45.5332
37.0654
34.6504
-5.65023
-29.5854
-41.8628
-64.1906
-91.4013
-76.2329
-37.3174
22.5708
63.0494
9.97926
-45.0008
-66.416
-42.3695
-21.8461
0.157923
33.236
48.5234
29.4222
-9.13198
-20.565
-37.5046
-43.6292
-22.9733
-23.055
-23.5795
-13.4329
-13.7025
3.86479
44.5666
61.1594
45.5945
44.4276
47.7358
45.3095
49.4722
60.5984
40.0177
8.19822
-3.14603
-7.57405
14.8538
15.1333
-46.9366
-53.3001
-47.9597
-36.4895
-9.18948
-7.32637
11.7736
21.4115
9.22245
-29.9139
-71.2554
-57.8433
-46.6966
-28.3603
-13.4389
-4.79887
17.204
45.8495
46.6188
39.8861
37.2731
25.0374
5.33078
-5.91778
-28.7399
-27.3984
10.5727
15.7719
-16.7992
-9.47021
16.702
8.75375
7.08914
-6.66173
-3.05075
4.57253
-10.9459
-0.807808
2.93357
-11.7072
4.06523
11.3184
19.6979
32.2103
29.261
28.1662
-6.18223
-22.967
-27.6821
-34.491
-10.188
-7.44996
-11.0319
-11.1637
-12.9756
-13.2251
2.39609
5.56369
14.0879
4.32521
17.2563
23.9383
19.3053
61.1041
114.281
45.7707
-35.4626
-92.1342
-154.338
-139.998
-58.1208
-26.4881
-1.40802
-10.6813
-24.8497
16.9358
60.7199
48.0537
43.2377
46.1618
48.0508
34.9265
24.6299
0.365837
9.96131
7.95189
-4.17402
25.8998
68.048
70.0666
24.1739
11.8015
-2.19604
-2.6585
-2.38649
-61.3547
-74.883
-60.8863
-55.9612
-43.1006
-27.0637
4.17319
34.5542
-11.2679
-43.6046
-19.6472
8.64795
10.2736
24.1989
33.8479
28.3627
32.509
4.99387
4.59536
13.2317
17.3977
3.44782
-9.51715
-26.6882
-28.2574
-19.1368
-55.5528
-64.8287
-49.1518
-63.0558
-47.7918
-12.6993
41.0079
88.8659
62.3191
18.5517
17.4581
23.5753
24.1988
29.9677
44.3087
41.0752
17.85
6.2858
-3.39343
-14.4761
0.403776
0.577386
25.9922
44.3007
31.7998
26.1482
7.94232
-16.8521
-15.9043
-19.9197
-22.874
5.31715
4.14182
-27.2762
-34.3007
-37.5222
-32.077
-32.4366
-23.3648
-13.326
-14.6127
-35.4813
-38.3817
-16.5467
5.87083
9.3161
43.1422
56.3871
10.5891
-35.7821
-84.9901
-144.444
-93.0287
-6.01284
12.1608
22.6748
60.1288
100.639
108.156
68.0027
79.7835
88.0465
47.8212
21.4739
-6.47217
-62.3165
-45.459
13.316
7.15312
1.27308
4.84762
16.8179
-27.8028
-43.4734
16.892
55.2907
44.2599
-2.72217
-65.0522
-61.4239
-53.6844
-41.6828
-1.99763
-10.8587
-35.0668
-16.248
-38.3562
-62.2728
-6.9476
34.9496
69.9585
95.2114
77.3434
48.3829
-1.26841
-44.4737
-70.557
-61.0156
-17.2607
10.7518
13.3898
-19.8805
-30.6854
-13.3117
22.7
46.6718
19.1517
-10.0228
9.79792
11.1409
-2.42681
0.267367
9.54491
-2.74797
-6.55836
-3.60037
14.3236
9.14112
-12.7965
-21.5371
-37.0629
-12.5371
20.9235
85.0028
110.038
64.1144
-7.98516
-109.298
-151.822
-58.2655
5.40776
41.8995
85.4316
42.0847
-4.47976
-30.6341
-40.4916
-45.0678
12.4881
114.201
117.142
32.7156
-46.1435
-142.948
-175.898
-110.556
-8.2075
76.5956
106.316
75.494
54.716
47.2137
3.73614
-1.43925
1.2216
5.60141
12.3735
21.7696
1.05115
-33.5985
-26.9865
-9.49369
3.54146
-11.7836
-13.9668
-3.93428
-43.533
-53.7604
-15.6029
-42.1566
-48.511
-28.3
-4.40703
24.654
25.0367
30.6871
19.7478
16.3332
24.6121
-4.86433
-15.8873
18.9075
41.103
82.5819
68.3174
31.9408
19.5389
17.1013
-4.09449
-8.77642
-10.3785
-21.2883
-46.616
-47.8249
-35.0287
-35.5126
-20.8774
-5.10325
-8.29495
-28.7258
-7.67202
-9.19856
-29.6186
-24.2983
7.8862
24.9229
27.4044
28.0401
26.4122
30.5422
11.085
-6.60346
0.912906
1.87961
2.49134
11.7828
9.02588
13.8407
-4.48403
-62.3236
-70.4768
26.5626
107.325
87.2069
29.011
-60.1268
-127.059
-93.1589
-26.9397
18.537
51.3315
51.2209
16.5999
6.78865
7.54997
-2.6996
13.8568
38.1194
48.5086
54.2734
47.912
37.4566
38.3578
-11.6585
-63.1082
-13.9882
-43.8731
-94.8554
-76.0012
-83.0826
-118.529
-70.8326
-3.56044
-42.3805
-27.2403
19.2242
44.4981
52.2865
68.9263
96.5302
66.9971
-4.87792
-28.4711
3.08637
53.0737
62.8118
110.726
118.044
51.9141
12.2947
12.1149
-27.3985
-48.9761
-12.1828
-13.2285
-26.4367
-66.4619
-92.8615
-97.2684
-86.0249
-60.3028
-43.9938
-49.234
-23.9076
-1.53412
11.0959
38.5393
49.4593
43.5183
42.8016
48.6049
49.0625
25.1597
13.2843
6.7881
-4.76221
-3.42061
-6.62767
-11.8046
-10.5346
-11.4996
-1.55614
-33.1025
-52.4374
-23.5896
2.30926
26.291
31.0124
19.9705
21.049
43.8564
40.1649
21.987
11.4231
17.8772
4.85016
0.783656
-9.38356
-10.7293
2.05242
-22.359
-38.8596
-36.5422
-21.5791
-3.88402
-0.157321
-1.07363
-0.121506
6.90726
-6.1884
-10.5868
-16.9865
1.13143
12.3941
-14.3472
-26.2038
-20.6265
-0.321088
75.8727
67.1548
28.8302
-27.8589
-97.8765
-90.7408
14.5995
41.4931
19.8919
21.1188
26.7194
19.9912
-27.3076
-34.7285
-5.8433
20.9839
1.35872
14.0916
12.3838
1.9081
-40.6593
-30.5325
55.9389
127.751
116.452
56.8465
-49.6893
-98.8469
-74.9879
-43.478
-11.0066
16.0316
28.6074
19.8821
3.84843
-21.0139
-41.8928
-31.5583
10.5642
-10.5159
-36.3434
-38.084
-49.4387
-67.628
-31.4321
37.4329
85.9719
71.6119
34.5452
30.1672
19.04
22.7376
38.3138
20.4765
-0.742683
21.1351
48.8441
4.73722
-31.4959
-37.1978
-52.1985
-64.7392
-60.4834
-40.7429
17.7873
53.4345
-0.633241
-19.5855
-3.99026
-21.8158
-33.6169
-17.4831
11.5378
83.1691
88.2219
17.7183
-26.1618
-88.5125
-139.7
-44.3602
87.4607
154.621
81.0507
5.91425
-32.9479
-90.6575
-87.9716
-10.2201
74.3641
127.374
107.622
32.3901
-54.9789
-164.12
-204.456
-128.603
-41.0224
55.0669
161.092
150.794
30.7446
-79.8837
-62.2799
70.3415
251.001
250.161
101.027
-42.1864
-120.937
-169.841
-104.848
-0.909876
12.9007
114.921
181.573
24.5052
-100.685
-205.975
-342.075
-311.86
6.89289
195.739
203.1
-11.9247
-235.51
-304.911
-144.525
-12.7193
49.8761
82.9424
95.7148
56.3266
36.1073
-31.125
9.94277
171.444
316.162
371.256
338.147
226.698
-42.2014
-89.6994
161.15
233.799
176.545
221.032
43.6839
-284.556
-487.102
-535.28
-530.091
-461.1
-195.123
0.956411
41.3495
76.8038
5.33476
-8.37184
54.4617
31.2459
33.9905
28.6951
-71.1751
-38.1354
30.6874
31.9191
134.382
355.012
451.654
398.058
285.198
121.8
-70.5058
-100.98
-174.143
-181.249
-121.684
-100.859
-79.7025
63.1043
8.59224
-171.705
-279.488
-249.99
-159.873
-96.4404
-53.7107
32.0758
151.802
99.5866
15.6721
47.4922
127.262
159.597
122.838
-40.1426
-124.683
-72.2279
122.63
104.431
18.1703
86.9334
-11.4134
-112.731
-130.366
-64.775
148.126
171.883
75.7614
-38.4697
-140.158
-176.994
-90.1463
37.6386
177.017
159.652
49.947
-48.671
-148.847
-114.423
-29.9769
3.56712
59.8918
185.297
184.81
107.878
-70.8211
-119.537
-93.3534
-65.6798
45.7007
99.9915
-12.9688
-191.787
-260.447
-179.073
-33.1841
120.78
118.628
41.2657
-15.3556
-1.28174
142.318
150.604
108.663
65.987
-3.70632
-38.9533
-43.1649
14.549
16.5329
22.6072
-25.6421
-106.136
-141.868
-35.923
146.442
184.056
31.5098
-129.062
-260.234
-301.058
-199.88
-64.1931
4.31566
29.0114
46.8069
58.898
36.9539
71.3263
141.573
165.082
96.0802
101.391
195.025
200.324
26.3542
-138.049
-119.92
-32.85
66.1449
76.334
-75.2363
-95.1602
-44.3333
-49.7622
-51.1878
-34.8199
-23.7233
12.7011
-29.468
60.0859
175.621
103.741
-38.7771
-160.4
-191.501
-153.141
-94.9665
-109.607
-60.5238
133.878
288.605
213.112
45.3477
-87.1432
-128.351
-127.989
-89.9006
-22.5456
62.8059
62.158
31.668
-0.58063
15.4784
114.04
172.248
111.953
66.1299
181.422
373.626
250.409
-191.905
-586.74
-745.941
-542.859
-174.509
101.266
130.389
94.9622
136.055
166.89
147.154
134.078
105.798
47.2547
-33.7144
3.99922
91.4491
103.765
28.5318
-67.8316
-1.90365
180.087
320.119
250.722
50.3566
-100.58
-119.007
-121.855
-102.2
-124.688
-136.409
-181.801
-176.05
-99.344
-3.92416
27.8105
5.99717
-91.6665
-222.144
-187.895
69.1222
280.034
280.844
173.036
-68.5319
-219.236
-160.123
-37.0483
-59.8052
-89.2867
52.6856
208.312
192.011
117.21
87.317
63.233
-12.2952
-17.6707
15.1167
35.1457
1.80602
-60.1422
-42.9423
-27.6929
37.706
117.297
133.319
81.8991
78.5047
64.7302
-36.7497
-108.652
-142.703
-155.853
-131.965
-31.7578
9.45123
-56.6364
-97.3139
-181.31
-149.311
-75.7685
-21.5657
-2.73458
88.8456
208.789
194.951
53.9772
-19.4067
-42.0738
-36.4379
10.132
90.8284
87.296
42.7597
40.327
27.3791
45.5176
102.329
119.925
10.3864
-108.61
-95.9433
-3.17673
27.5452
-42.493
-104.794
-34.8597
24.2045
152.764
115.662
-87.6395
-236.401
-241.323
-155.545
-28.134
40.1695
-25.9045
-44.6185
1.00194
20.7192
133.82
177.002
158.977
56.0343
-35.3652
-39.5841
-49.6549
-78.0694
-115.382
-56.4632
33.2064
90.2252
141.686
166.32
86.9242
-10.1614
21.7257
18.8023
-2.53603
-45.5418
-83.7154
-87.9541
-30.3553
42.9047
33.3985
-56.246
-75.6569
36.7205
5.78636
-54.2069
31.4243
78.5354
45.7217
-19.9102
-116.206
-105.96
-87.3953
-64.5059
15.9368
74.1017
3.9205
-55.7751
-13.5447
74.5244
106.251
105.006
118.58
20.1881
-70.0454
-68.6656
-49.9395
-12.3083
37.2456
37.4211
-24.1754
-77.1148
-66.4426
-15.1502
16.0533
68.555
112.613
74.6996
-24.2036
-67.5497
-48.634
-2.16171
9.11483
13.2892
-70.0643
-109.527
-85.3049
-62.6532
-15.6928
48.8735
100.454
177.791
169.693
72.8106
-32.8421
-104.02
-87.4038
-30.6792
15.9268
60.0413
47.7703
-4.96872
30.4516
7.73662
57.7441
92.8095
35.6074
104.491
24.9555
-192.099
-253.069
-268.8
-237.339
-65.8371
18.2631
52.0443
91.6652
90.5576
55.3601
9.22955
16.7768
117.526
157.203
81.4665
31.7405
-48.4309
-51.2517
-74.65
-41.9398
69.6438
91.4457
49.6755
78.714
29.8765
16.7427
-49.6312
-109.474
-148.986
-155.794
-77.9023
14.6266
-10.5453
-95.1011
-28.4505
86.1152
95.8827
61.5744
32.3643
44.9517
54.8907
70.9977
96.1275
61.1776
8.24332
-10.259
24.6439
41.9267
39.3205
-25.0404
-107.674
-120.648
-83.9396
-24.0371
-39.6477
-108.297
-104.154
-40.2506
2.74238
-10.7402
3.77844
72.898
139.281
155.354
121.801
61.1878
-67.2357
-182.425
-63.8167
76.9535
77.676
29.3402
-12.1604
-42.3588
-23.6562
-16.677
21.329
19.4396
-53.1422
-81.2684
-35.7213
-12.2225
-21.8588
-24.9328
0.526955
14.9155
57.7265
127.775
115.027
66.5739
3.31899
-71.6284
-104.238
-118.033
-61.9673
18.8429
74.1952
64.4705
36.8275
15.0177
-14.7312
-16.7815
-16.4707
6.72223
1.98973
-30.8551
-5.83251
22.7147
42.6254
51.8813
15.4425
-68.0648
-44.9212
-18.8253
-12.6814
-2.97422
61.5465
-1.98704
-89.6201
-36.8623
-51.9554
-98.5206
-34.0486
15.0096
-0.658876
1.33401
32.2694
108.161
46.8601
-3.4224
96.4629
136.643
118.698
111.895
63.7027
6.57065
-43.4233
-7.90412
35.5523
-7.99931
-39.2319
-88.826
-85.8501
-87.5819
-108.939
-99.623
-91.754
-70.7229
-4.91447
-0.658619
-43.2521
-68.1532
-69.1776
-23.2706
4.08025
-2.0013
-36.1734
-7.11961
59.3018
94.8119
121.686
108.514
78.5892
71.5139
93.4397
92.5312
82.1872
49.1055
7.31296
-27.2721
-60.5498
-25.2573
-2.00785
-83.0449
-176.4
-152.321
-106.61
-34.5354
-17.5698
-15.9872
108.601
157.958
67.2552
-21.6514
12.3724
80.3093
98.1288
21.8571
-12.9207
1.72579
13.9578
30.9221
-0.195571
-14.9753
17.937
32.8785
-2.25323
12.1201
55.7822
26.5402
-57.1942
-40.3076
-56.1499
-50.9157
-130.476
-247.42
-228.843
-97.184
2.07198
70.4679
83.5024
104.941
70.4036
33.8446
71.5575
80.7676
51.8677
-30.3367
-85.4147
-54.5389
-43.7465
-129.737
-122.479
-16.4235
107.506
245.488
241.908
125.272
57.2097
8.90547
-11.1589
-32.4303
-9.79856
12.8069
-3.02187
25.7806
54.3238
-16.8745
-18.673
-10.1408
-68.0386
-64.9569
7.42868
8.51815
-49.5874
-95.8341
-84.8892
-70.2086
-64.8379
-52.3892
-63.2581
-69.5548
-47.1923
-1.68038
65.5712
77.4325
52.0417
63.5773
-5.05341
-95.5991
-89.6011
0.80838
94.5704
75.5324
88.2459
115.797
73.0775
60.7702
59.1597
-10.0431
-39.8995
-25.9308
27.8748
79.1646
9.70028
-113.93
-144.189
-76.6035
50.0045
125.05
103.642
26.5978
-21.7543
36.9414
28.8759
-44.7649
-23.3963
-49.4676
-163.146
-120.248
-31.9949
2.80569
21.0517
25.3609
6.0783
-29.3315
-61.5179
-18.7662
-2.84303
13.9267
35.0896
63.3576
58.2143
-0.281772
-48.115
-30.7057
-44.9028
-38.7939
40.4451
64.3925
54.4765
20.6362
-12.4167
-10.881
5.55761
21.8977
-9.51232
-14.2958
35.8263
107.627
63.5642
21.2899
-23.0843
-46.3612
-47.2884
-46.8184
11.2029
40.0894
27.7972
-17.1209
-23.7088
37.387
16.8958
-29.8944
-37.197
13.4983
40.6621
15.7577
-11.4404
-52.3081
-49.5561
-44.5118
-50.1561
-53.1587
-38.2268
24.8
64.3114
93.3481
118.523
116.469
-44.1818
-162.903
-230.229
-240.825
-116.183
21.6364
103.331
100.331
92.8135
74.8815
69.4812
66.6136
91.2621
76.4637
42.229
26.1992
-12.895
-37.9222
-80.3251
-86.1158
37.9684
109.76
144.498
132.284
40.9704
-39.8745
-52.2771
-41.0267
-70.9665
-102.407
-117.499
-61.971
-44.9253
-57.4981
-63.209
-35.6748
-32.2534
-23.5032
-4.89862
-1.93095
-6.92669
93.4762
101.203
38.6789
-13.8513
5.79142
105.686
88.6185
-38.6201
-53.7866
-7.6628
-8.48073
-11.0609
13.9939
57.3611
25.6224
-23.3521
-32.411
-31.2343
-0.242693
30.6591
-14.1724
7.74775
49.7667
-6.48143
-73.9866
-126.17
-145.009
-68.1671
-25.6078
10.6235
60.8866
59.0899
40.4151
42.5372
58.9827
107.21
76.4359
21.338
21.0743
10.6057
-2.0549
13.1392
43.2789
58.1524
22.1441
-13.9687
18.1736
42.7843
14.5616
-18.835
-36.5071
-70.2643
-84.4727
-59.7604
-63.3795
-112.116
-73.4827
-41.3383
-65.7305
-50.4869
-70.4466
-76.6991
6.60621
159.968
205.546
159.436
44.9815
-19.9635
-19.1415
-3.84364
30.7242
59.308
58.6855
-15.7807
-143.635
-148.484
-56.8673
23.5042
61.7974
66.7548
45.4232
33.6782
-4.6995
-70.6067
-78.2882
-51.7673
-11.8346
8.56305
22.8436
49.1791
39.9184
27.6651
20.5221
-14.7462
-10.0699
33.2291
-30.5145
-11.8936
36.8194
5.89193
-24.7337
6.55207
27.2376
3.41931
11.8221
16.5392
35.4641
23.1334
14.1768
-4.40972
-33.1807
-45.504
-23.76
22.6867
68.514
41.0189
1.09647
-65.9131
-97.3111
-92.4852
-85.1329
-45.6305
0.990012
3.79954
-18.5628
-13.5466
11.2657
51.0006
40.7487
6.632
-8.5127
68.4375
105.862
28.093
0.743564
15.2006
32.7546
37.8861
16.9086
10.662
33.1928
12.6743
-41.1512
-31.1171
-33.7436
-38.7463
-27.6442
-39.0015
-34.1218
27.2039
44.4473
1.47209
-59.3382
-46.1119
-51.7904
-59.4481
49.2889
119.736
22.1799
-61.264
-82.1873
-62.7145
3.40413
8.32745
-95.4734
-91.1429
15.2187
65.3545
57.4266
69.0035
44.2819
-3.26483
11.4099
65.7728
72.4783
75.8584
15.8116
-3.65408
57.3376
103.014
101.986
60.7469
-8.64966
-73.8171
-53.358
-10.4563
-28.9172
-35.6314
-24.2231
-55.3209
-56.1565
-43.8189
-55.0701
-10.7713
8.15142
-40.9177
-74.7221
-108.664
-70.2423
-38.4406
-69.7094
-53.7133
-52.2712
-28.8792
52.2647
101.326
109.879
113.93
98.4696
61.3413
19.8763
3.33431
23.2049
31.6122
41.3869
62.5085
7.67705
-18.4942
-54.8617
-36.577
80.8165
93.621
66.104
52.756
27.002
-43.3835
-97.2963
-80.7634
-79.9161
-102.911
-41.6404
-46.9864
-35.5754
-32.1811
-48.7068
-57.3745
-15.6073
13.2965
26.1388
42.9154
60.2146
35.5837
20.302
21.0938
-8.37516
7.65137
43.1441
32.7256
27.2411
30.0593
3.68883
0.296647
-8.838
-30.9695
4.33853
24.1766
3.6695
4.86287
53.7908
28.8845
-8.0179
2.4355
-44.4986
-43.9744
6.34302
42.427
-5.48841
-159.349
-145.039
-32.3241
-6.94586
-1.9654
4.78245
35.2321
84.2684
70.9901
39.402
-1.0261
-18.6319
10.4367
-2.32004
-1.27062
57.0725
56.3644
23.2423
-24.7021
-11.6017
56.0258
18.0438
-66.0352
-68.924
1.70055
28.6074
-11.4686
-36.4152
-17.6112
-10.726
-34.9703
-47.9025
-54.4927
-37.9662
-9.12814
12.4064
45.6928
63.2176
62.997
25.2232
3.83893
-8.55222
-8.36921
-8.71111
-10.0966
-10.3387
18.8783
35.5422
26.203
56.2332
83.1471
54.9332
26.3311
-16.5793
-38.5691
-41.8053
-21.5348
13.968
8.98029
-15.5018
-17.9534
-20.2467
-39.3708
-67.4399
-49.4195
20.5384
17.6254
-1.96349
-86.9025
-195.354
-135.443
-14.1015
61.64
115.826
102.519
24.0428
-20.2886
9.34765
31.7117
18.2886
17.7438
43.6973
86.1629
105.233
57.6635
8.17902
-6.97911
-73.4508
-42.071
49.4554
107.804
101.806
33.5509
-115.572
-262.63
-297.382
-124.578
9.34353
14.379
37.8637
72.8805
64.8234
81.2851
106.776
86.0881
27.1286
0.868099
42.878
44.8496
30.1994
-41.4469
-63.8394
-52.3962
-0.830087
72.5003
137.86
79.8995
-41.8181
-88.7797
-63.6891
-23.6821
7.45637
-56.7756
-73.165
-50.4235
-28.8087
-47.4347
-70.0361
-45.069
-11.5812
28.1184
20.3725
-47.063
-88.2229
6.6777
54.9116
36.1332
36.6572
53.129
38.8992
43.2861
52.1835
50.917
10.7622
-34.0314
-32.2565
19.4732
78.2001
105.396
66.5315
-17.7483
-19.1805
48.5278
52.9753
12.7832
14.4719
-26.5802
-42.8972
-74.2109
-106.563
-110.698
-66.3872
-41.0673
-64.7176
-50.3269
-2.03375
64.2677
-1.59019
-28.7271
51.1326
66.2837
-12.8342
-12.4229
54.1342
71.1743
14.4498
-23.4266
-7.80339
44.9608
64.0547
16.5332
-28.4466
-14.0355
-49.0605
-105.418
-47.4922
14.7399
64.4121
42.5308
-12.0399
-21.9573
2.76682
-9.75646
26.4544
56.7161
28.4153
14.0804
-24.4646
-41.4222
6.34604
83.4925
65.2333
20.724
23.2956
-43.638
-91.9771
-43.4297
17.051
16.9814
-48.8796
-93.6138
-105.986
-41.2502
9.95145
-4.91715
38.5247
85.1916
90.449
17.3358
-67.5267
-102.015
-81.9114
5.88023
104.703
162.244
126.994
26.2483
-45.0816
-31.6321
-0.761667
46.2103
84.9483
48.0136
-14.6641
-53.8432
-65.6466
-74.3996
-111.062
-70.9065
-8.50466
10.179
33.6151
17.6854
-28.4558
-11.5558
-32.7765
-60.564
-23.4663
10.7135
31.0243
-2.56633
-50.1792
-34.1953
47.2141
141.48
95.2922
42.6633
49.1195
12.4672
-27.8633
-8.34445
43.2612
20.3252
-9.41383
-9.17078
-6.138
14.0174
15.5166
-18.5829
-22.7702
-42.5983
-54.1809
-14.2793
1.94977
-54.959
-9.63691
-32.8729
-45.3128
-2.85168
44.9817
33.4701
-26.0297
-31.0361
0.0384946
23.8414
-14.33
-40.565
15.839
50.188
28.1637
33.471
19.6717
15.0945
7.03174
-5.35244
-14.0802
26.7967
45.6432
41.6886
3.63607
-41.7487
-66.8263
-51.8061
8.13461
158.557
189.397
30.0797
-153.141
-222.068
-194.107
-87.1144
21.6525
52.8658
8.973
-0.465969
6.43238
9.98797
17.6814
47.2156
49.9815
32.8072
28.5481
5.2361
-26.8265
-30.5828
-3.51513
56.327
105.223
112.682
117.211
111.874
95.0944
6.23489
-86.993
-158.858
-157.854
-104.018
-60.9184
-28.8762
7.05238
0.801841
-12.7315
4.94734
5.53663
-16.7414
-11.8718
-14.4061
-24.8116
-27.2954
-45.2598
-38.4579
-31.4686
-7.24248
38.5813
67.989
67.8751
62.3615
48.2736
31.4681
25.103
41.3844
15.0408
14.8619
41.7183
-58.3434
-135.765
-105.61
-21.9778
96.2843
138.793
60.9515
-7.75277
-21.9586
-16.8274
31.9236
50.7895
2.35097
-47.9704
-56.0839
-67.8456
-48.1427
15.2943
42.4867
23.8742
-11.2237
-32.167
-6.22313
-47.7786
-48.0081
-14.5786
-0.678026
45.9096
42.4274
-41.8077
-48.4188
-34.3058
-28.144
50.9955
78.7169
33.9685
-8.27945
-35.4738
-55.4814
-22.4016
28.6879
53.2917
49.3612
65.4875
28.952
12.4577
28.1597
-1.26597
-39.335
-24.1745
-44.5565
1.97553
55.7936
21.6177
27.903
45.7333
35.3704
35.0353
-9.63448
-43.5347
-62.2013
-47.133
-59.2365
-81.712
-28.2419
8.16598
-18.9163
-23.5304
6.9233
15.5342
4.08241
-15.9045
-24.6168
-14.3944
-40.1551
-49.4474
21.8918
90.9324
99.5734
3.0678
-43.8681
-60.1242
-72.2985
22.5398
43.0178
21.4462
42.5459
51.2908
41.1107
94.5589
104.587
17.2392
-23.559
-30.703
-43.4053
-35.8902
-32.3054
-33.7988
-12.2234
26.6799
-12.9011
-21.3548
51.1658
36.2676
15.988
16.0533
-18.7034
-5.83276
27.2727
8.59284
-32.1312
-37.4615
-26.0197
-29.2942
-42.7883
-39.0638
-22.1698
-12.8909
-67.8815
-97.0826
-5.99373
103.272
77.4431
68.0224
89.9929
38.5065
-5.12926
-31.0052
-83.2039
-104.078
-60.2819
19.4539
52.7038
20.7214
1.09159
22.7993
8.49545
-6.0539
43.8881
72.0557
21.3288
-32.3931
-73.0376
-144.221
-120.623
-30.2132
61.022
88.7762
82.5513
73.1246
64.0822
17.0231
9.51801
31.9904
36.7938
25.0925
-0.399273
-27.8251
-24.4637
-6.40858
19.4458
32.2922
54.066
59.4268
12.0691
-27.6861
-47.5865
-82.1702
-85.4545
-32.0106
5.40604
15.8022
-27.7239
-67.4874
-19.2845
-8.44754
-46.7526
-30.0619
-12.6022
-2.08797
-4.92073
-22.8497
-5.33258
29.9342
69.7483
5.95689
-63.9716
-34.1934
42.5166
71.1166
49.8824
29.9309
2.91937
-15.6479
-12.5685
6.49714
7.23772
-33.6605
4.26846
16.3984
10.4997
59.8355
72.9768
38.5382
-37.178
-27.6128
34.2099
45.7748
4.7427
-35.3768
-50.1108
-34.4316
10.5189
31.1697
1.38319
-17.7341
-17.0296
-6.35629
-10.9383
-14.7335
42.6933
45.4371
-0.267875
14.3403
-3.85373
-17.5111
-85.1697
-179.763
-157.501
-60.7229
0.235074
40.2204
69.3057
78.3072
44.327
19.5591
37.53
40.9785
42.431
65.0004
36.0243
6.89471
13.6849
25.8378
9.50145
-20.0252
-39.2387
15.975
55.012
20.6937
18.5836
-1.40369
-91.7127
-100.884
-46.5375
-16.6458
13.1549
7.44603
-29.7535
-22.4682
-7.85094
-46.2904
-29.8592
-11.8829
-16.6636
5.57908
22.4479
37.0535
76.7683
62.3963
2.66754
-27.9789
-10.1417
16.1032
31.4856
50.653
68.2442
36.549
-18.1651
-32.4514
-47.294
-60.423
-48.2673
-49.8442
-10.2497
48.6578
75.5219
44.466
-27.6424
-9.7064
22.2024
-14.7133
-6.89387
46.5469
34.3288
-36.6752
-64.5555
-27.205
-6.53488
-12.1079
-15.9305
13.6147
51.1504
15.3089
-31.3515
-62.4299
-0.685514
35.7242
14.3263
-16.5669
-26.3845
-9.07874
4.06822
-17.3971
-31.8004
-6.81992
2.93189
-0.473318
37.4275
21.028
24.8835
38.5434
15.1324
5.93966
-9.58012
-13.569
-2.99382
-13.5593
-6.40317
35.8192
26.6064
45.5136
67.6492
18.0904
-3.68356
-18.7222
-44.6036
-45.6047
-71.2938
-68.8115
13.2077
9.05742
-35.1105
-45.676
-58.8786
-5.51806
42.4098
68.746
65.4935
16.961
-5.71628
-19.4742
-29.5064
-54.9102
-36.2006
20.0463
67.4472
64.6702
60.8096
53.5221
9.66792
23.2597
29.8947
26.2327
17.24
-52.9424
-78.3191
-63.5553
-43.7627
-28.0764
10.2143
7.18643
16.7672
68.2534
63.8044
34.8577
-45.666
-142.078
-144.728
-99.0726
-60.7698
-7.91123
35.2262
38.062
52.9337
76.2383
50.9647
6.06591
21.1595
45.7537
30.7258
12.0857
34.5691
49.2576
31.2788
-36.172
-34.9335
34.2222
79.4028
63.4016
17.6455
-36.3398
-35.123
14.3202
12.4926
-9.74403
-64.6372
-50.9107
-67.9597
-81.9053
-67.784
34.8563
78.664
-10.6946
-74.4323
-48.7272
-79.7189
-81.2819
-37.8685
6.29553
45.0405
53.0662
31.7156
-1.40662
-22.9586
8.97372
86.8125
108.1
89.5892
78.5082
36.5051
-23.7772
-57.1903
-17.1475
-4.08556
18.7405
61.1039
61.804
41.4498
33.1779
25.6778
5.69496
-65.6562
-150.832
-140.797
-60.4043
-38.9686
-28.4143
17.7622
-27.1408
-8.761
2.60075
5.38194
48.0207
84.7974
54.3074
33.5742
-23.7012
-90.0654
-61.2335
-29.8708
-18.884
10.7386
59.8817
81.7799
69.6606
70.1861
57.2653
23.423
11.7678
-48.2446
-66.1896
-76.5699
-86.3878
-75.7315
-47.3697
2.88017
63.777
60.5576
25.8533
-5.74442
-27.4719
28.3726
148.424
211.776
92.7829
-59.4212
-150.38
-228.828
-231.783
-68.9259
46.1759
35.4803
4.42622
58.1952
93.6881
95.3214
100.495
88.9006
23.6409
-25.3693
-22.0206
-28.8487
-68.815
-93.5467
-71.5613
1.94105
62.6571
101.532
90.7145
38.5147
-47.333
-121.305
-104.246
-53.7638
-26.1986
-40.6564
-21.3673
0.682044
25.7334
55.9953
82.5453
89.6308
79.3153
-0.55427
-119.262
-123.154
-6.9006
36.8314
57.0143
18.2034
14.2644
52.4478
12.996
-41.4942
-32.0442
-8.11456
-12.7092
-9.7693
-13.3188
-16.7402
-19.677
-39.8348
-42.842
-1.14618
72.6821
94.175
42.0318
41.7674
61.8251
4.64357
-2.51927
-1.28356
-18.2698
-31.5492
-2.97871
15.6953
26.3969
52.0237
-5.14775
-55.1382
-74.8001
-65.9586
-33.3048
0.337412
21.896
16.7294
-22.3595
-33.2237
-23.5062
12.5732
12.438
24.8508
47.908
32.9475
-34.4026
-36.623
-17.8967
-40.1071
1.95708
53.1553
63.5277
14.535
-53.0533
-100.558
-50.8572
11.1143
15.3075
30.511
35.5905
13.7988
35.0043
50.5934
42.2789
18.2129
2.95025
-4.74236
-5.29123
17.7035
9.82533
-52.522
-66.0149
-31.7424
7.11623
45.693
59.2199
31.0288
5.91387
-32.0012
-81.5466
-84.466
-65.2487
-47.4241
-12.405
42.6644
60.0246
14.065
-10.7832
-16.5698
-0.103271
31.8536
40.0923
62.7581
41.702
8.04272
23.5334
30.5527
14.0517
-46.6091
-8.46594
93.8564
69.9934
38.0092
24.1999
-65.1456
-122.049
-43.5463
-7.73636
-17.3247
17.7958
-20.1301
-74.7984
-65.5763
-86.484
-112.297
-88.1001
-41.8424
2.06003
66.3305
88.3824
70.6321
67.0931
36.927
-1.07979
24.3069
69.7696
77.8693
81.1713
36.3075
-32.4277
-12.143
8.20059
2.6639
-2.72357
23.2652
24.949
20.6256
36.7428
29.0718
-25.3828
-82.2145
-91.6376
-73.172
-35.9771
7.49142
28.615
-26.3162
-76.801
-63.3781
-30.5567
1.17104
25.331
13.4172
32.061
46.8124
-35.3215
-90.7215
-43.2012
0.933724
20.5624
23.4215
24.6715
34.4851
46.7548
24.4992
22.971
30.3061
31.4387
28.9442
-13.5783
-20.3779
38.8095
64.395
30.3287
5.71926
18.2031
16.7972
-14.422
-29.2412
-9.23439
6.53652
-17.583
-26.7115
-39.8501
-114.954
-111.393
-33.5304
13.3172
26.7354
22.6298
10.278
-10.8682
-20.8557
31.3277
62.6593
49.9221
35.202
12.4661
-26.5159
-31.2008
20.1365
44.9616
50.1741
4.82685
-51.8126
-95.673
-71.9773
-26.2139
16.1181
60.7681
62.0752
20.9125
22.4653
42.3644
25.504
7.00785
-27.0316
-50.3325
-30.3691
-23.446
16.968
91.6439
75.0676
-3.53764
-23.8772
-53.0116
-83.3592
-71.9752
-40.2957
-12.2633
-7.0566
4.77238
-38.4608
-40.1368
-9.52595
26.1488
58.7577
61.5814
65.1773
49.79
-32.3315
-79.1465
-58.0124
22.2355
107.249
132.071
75.7807
18.9406
-31.6791
-73.1871
-51.654
-34.8745
-9.8578
-15.9942
-9.74384
-3.75095
-9.72439
-21.5888
-27.4747
-16.5337
-20.2211
-34.0233
-39.4727
-7.60349
51.322
67.0652
14.2234
-15.7195
-12.0314
11.5039
11.6203
5.8756
22.6904
35.3421
40.8713
23.8213
25.2269
22.2452
-16.3614
-39.4562
-20.311
-8.41878
-9.42878
-10.7651
-43.1814
-20.4547
14.858
18.6538
11.6783
19.8967
31.8068
-2.20785
-4.28598
-27.4164
-66.1696
-67.4525
-35.7861
26.761
44.5408
17.205
6.34427
9.56444
-9.9227
-56.2329
7.88826
43.5275
60.8935
13.1068
-15.5606
8.79123
13.7744
29.897
6.44467
-12.5803
-4.54055
-41.8205
-53.5423
-43.7959
2.0466
24.1605
-6.97796
-18.4472
33.0649
106.681
60.5463
-33.5362
-17.8913
23.3933
28.2895
-19.3882
-46.7238
-42.9476
-22.4572
13.7424
4.12885
22.5163
-13.6283
-54.3078
-15.829
18.3806
10.7287
-12.1347
-3.57211
-14.5613
3.07872
2.76408
-45.3679
-43.5166
15.5872
39.6534
38.6184
65.5538
67.2688
9.09019
-41.3141
-77.3207
-43.7055
38.5885
69.4446
36.6098
7.20009
-4.28894
-15.367
-17.2236
-21.6907
11.7068
43.5892
49.1917
-3.50813
-21.5545
-31.6087
-49.3826
-63.4601
-45.1133
-5.13906
42.6934
45.0745
-19.2105
-31.4249
-6.29347
25.0452
26.5211
-0.34111
-2.74076
-0.916302
10.143
18.4051
2.90817
-9.50591
-27.1707
-24.1391
-5.67854
-24.5555
-26.8667
16.5394
30.4272
23.5808
48.897
7.9516
-17.4556
-8.73619
-9.60194
-9.36407
-2.60525
-7.39874
0.902447
-0.541003
7.96778
36.3869
23.7437
11.2911
-7.69999
-6.13592
17.1976
16.6531
19.6535
18.897
4.04238
-20.1778
-28.6032
-7.04132
-16.6557
-33.2667
-20.6008
-2.15346
1.02841
1.98996
-6.76989
-46.6847
-32.6028
-13.3553
-5.59877
24.314
34.2979
31.7769
29.017
30.1223
-15.4816
-26.3409
-21.3282
-37.7031
-40.0079
-16.097
19.8722
57.4146
34.4566
-5.53582
-10.1967
18.8576
31.6579
13.8057
-0.590035
-9.32886
-38.1565
-12.1176
-3.31221
10.6467
40.953
34.193
13.4985
10.8096
1.37901
-0.578132
-4.82724
-6.26604
-1.66393
4.99648
9.2437
11.477
1.45689
-3.11628
-45.4354
-42.9755
-23.6051
-24.223
11.0432
-2.30268
-51.2155
-75.3742
-65.3331
-25.1751
31.1949
76.7126
80.5976
47.778
37.9495
43.748
31.4614
-11.9653
-28.4372
-15.1214
14.8196
21.9467
3.41733
-41.7004
-26.2861
-24.4019
6.07698
30.7509
57.0644
43.1188
10.9889
-24.0457
-64.3954
-66.9123
-33.7789
-40.755
-68.7304
-52.7954
-19.5289
25.0826
75.9698
43.2468
27.6564
29.1882
28.7655
42.3553
-15.0825
-54.023
32.4258
55.4377
38.3698
-20.1498
-62.4428
-72.8063
-55.7474
-39.7705
9.96995
56.1965
73.9224
17.958
-17.5357
2.18256
29.6628
48.0913
24.6474
11.2991
42.9073
39.181
-22.5189
-53.5366
-25.9094
16.2932
40.0151
34.8205
-4.3802
-59.7365
-59.1237
-69.8416
-84.4384
-31.4504
43.0619
64.03
41.8027
9.0133
-23.929
-51.443
-52.776
-23.8948
-41.7568
-29.6112
-16.6765
-40.4875
-22.3006
30.3909
95.2878
100.723
89.9726
76.5862
63.2777
8.6683
-41.5698
-52.0002
-29.1982
-9.19268
-25.7317
-49.0377
-41.5104
20.6989
36.0728
23.0958
10.6512
31.8917
68.2047
56.956
-0.490751
-9.27474
-47.9802
-81.0126
-91.2572
-40.0791
-39.8536
-33.2028
-1.95116
58.4807
267.89
301.457
78.532
-143.639
-294.837
-334.736
-168.81
-2.17767
1.98507
-13.9307
7.11979
28.7965
54.4304
113.499
116.899
63.4316
43.6027
16.922
13.3675
1.67091
-99.564
-80.1374
106.417
223.479
393.483
392.714
18.4184
-280.42
-374.486
-400.276
-316.294
-130.922
-17.4774
38.8469
91.883
92.3581
76.854
74.8987
58.7517
8.49648
-44.9496
-64.8495
-77.6371
-16.3545
-0.710912
20.4933
113.447
192.009
225.942
230.996
153.213
37.5128
-42.1244
-56.0633
-51.456
-54.3623
-73.4474
-133.661
-188.88
-74.3687
-82.1276
-132.649
-133.083
-154.446
-140.416
-19.8626
71.4392
116.839
115.103
80.5993
34.1839
21.8509
55.0007
62.9719
23.8931
13.7962
4.82495
-32.9883
0.867915
23.2421
25.0153
44.6425
70.5021
76.262
34.9711
-32.1167
2.29261
-0.833062
-14.9589
1.24002
70.7595
84.1629
13.622
-44.1735
-37.4367
-29.6683
-18.3787
32.0492
33.8961
-55.1221
-104.064
-115.99
-95.1265
-53.8229
-36.1553
-48.8564
-53.5426
-29.9916
29.221
59.3866
0.248723
-22.2298
6.75857
13.6102
1.26869
-5.76831
2.82226
33.6691
7.10472
6.95347
45.7227
86.5029
100.144
84.3029
44.261
37.5762
51.5079
25.5294
-19.1821
-22.1061
-10.8586
-27.6572
-46.4571
-65.1227
-37.1824
-1.77173
-2.01355
29.4861
46.367
13.6407
-8.6216
-25.7955
-16.3427
-23.9846
-39.9473
-29.1549
-34.4843
-24.642
7.12144
-4.88422
4.56543
17.0698
28.2366
1.67105
-47.5263
-50.3322
-27.3386
-16.9014
-7.10558
1.79365
38.9878
109.554
102.345
64.1788
-3.3738
-127.867
-173.65
-70.4699
24.0051
86.2117
101.979
27.1168
-21.9323
30.2832
94.9335
86.2329
90.4592
-34.9511
-196.958
-187.122
-143.577
-73.3663
-2.14162
45.8796
79.3165
111.055
120.909
66.4945
20.3513
-26.5248
-72.3541
-11.1809
35.0291
18.2911
-10.8828
-8.86669
-43.2607
13.257
133.945
147.389
92.9706
0.772838
-57.9199
-100.124
-67.6621
7.13118
23.562
-23.9006
-73.2922
-49.3599
2.59635
3.72092
-66.695
-107.955
-92.8369
-53.3736
-6.9974
37.1576
50.7596
15.1306
6.10077
-24.5652
-13.5091
23.233
30.6258
23.6001
35.0859
50.6316
52.0474
34.6088
-27.989
-59.3069
-11.8023
11.0609
19.304
4.95159
4.22277
29.7565
52.1745
60.0678
46.6648
25.2044
3.52931
17.2245
17.4346
-20.1773
-25.0631
-33.8852
-25.0213
-32.5835
-57.7576
-43.6821
5.74715
33.076
2.86304
-53.182
-95.5131
-48.5157
-26.9791
-20.9874
19.4469
54.9133
75.5021
67.1985
13.563
4.04336
8.95926
19.0116
7.19395
0.251433
10.8342
10.2561
-3.55316
-19.5973
-9.88025
-5.61554
-15.842
-32.5093
9.86238
25.114
4.80572
-15.0967
-48.8589
-47.6853
33.3877
91.2656
70.5254
16.9078
-78.2466
-112.827
-28.9041
35.8214
54.8359
143.759
137.701
43.8692
-5.89584
-145.724
-279.297
-255.188
-168.686
-6.16907
120.286
103.046
34.7141
-30.7103
-17.7644
70.5721
122.348
104.869
74.286
52.6866
51.8885
-21.134
-44.4408
22.6494
46.7117
85.044
136.987
99.5606
31.697
-59.2025
-89.3099
-65.9734
-38.4328
-47.2751
-58.3622
-78.0789
-41.3897
5.47217
-28.033
-44.2034
-52.3808
-77.9585
-91.6038
-53.9832
-5.25726
73.2662
136.81
99.6441
-5.43163
-64.9438
-116.709
-127.165
-42.9824
62.6982
76.1346
64.4102
43.6516
17.9651
22.4111
2.48458
-7.03651
21.3118
45.2364
64.3902
45.2028
20.9234
2.76158
27.2991
80.0541
74.0573
57.1382
43.1539
-36.2939
-71.8041
-59.9374
-67.571
-74.2428
-58.1383
-34.8348
-18.5849
-17.7265
-44.9826
-21.9353
-18.0572
-16.3811
-18.5259
-5.71207
9.03861
29.0553
49.5189
30.2892
35.4234
16.2009
-18.9542
-35.3907
-32.2954
5.1283
31.2151
12.8028
-17.8102
-34.014
8.06116
34.0333
37.6169
13.555
14.954
-10.1453
6.73043
20.2346
10.0674
5.90643
-4.66732
17.0776
32.674
17.5777
-6.59026
-25.4841
-4.43609
1.86048
3.57469
-6.93613
-20.0256
-15.1242
34.9692
43.8955
-20.4643
-7.04991
-58.6018
-114.618
-116.078
-103.772
-42.9324
27.3054
48.7271
27.1095
40.9961
53.7955
24.7712
57.7803
96.1435
90.8217
68.2324
13.7401
-36.7084
-26.392
-2.2653
-10.5259
-6.36503
17.1924
33.9823
37.4679
-16.7044
-67.4709
14.1517
111.57
60.4712
-29.02
-94.3083
-173.025
-133.62
-64.3474
-85.9149
-162.512
-135.541
4.11346
92.7069
64.5466
59.7629
107.331
77.5429
45.8234
61.911
80.6439
55.2755
0.902725
-1.61854
11.7662
16.817
29.6953
-3.91763
-1.09936
13.4933
62.5479
50.8447
-39.4657
-56.2471
-8.81527
-1.65975
-36.5579
-17.0779
-0.125321
5.81668
-21.3839
-68.8307
-65.8586
-31.4449
-5.7666
-5.41717
-12.9018
-15.1905
-10.4374
0.477913
54.8406
51.0439
11.6397
-4.17932
-30.1832
-79.0033
-33.9598
-1.55521
-0.727717
2.79904
17.7738
21.4255
5.80589
3.6882
19.7276
41.8595
63.9136
52.2018
4.45766
-0.652439
3.33911
22.8675
52.897
7.54568
-9.37143
12.4628
1.38685
-13.0619
-5.1777
-13.183
0.56609
-4.00922
-34.4356
-64.4465
-27.3556
14.6923
11.515
-18.4407
-25.0443
-15.5079
-28.3606
-62.4105
-47.4861
-9.43068
5.8661
12.4293
-28.0412
-34.0862
30.8971
14.0728
-16.9641
-9.52639
21.6378
46.9962
36.4285
36.6907
70.0339
59.1094
29.5418
5.49886
-6.89139
-12.3517
-8.70769
2.435
43.0989
38.4136
40.9762
36.3326
-9.14789
-51.2539
-57.9646
-28.0835
-13.9499
-40.5304
-43.2927
-19.0955
-27.3022
-29.4046
-5.83266
18.7265
39.8117
25.1129
18.3252
-17.1983
-48.2508
-33.9721
-29.2805
-13.0262
24.7522
86.5566
85.4984
-12.7209
-111.372
-57.0758
35.7133
32.1271
-17.6578
-5.91211
15.1337
15.657
-15.5565
-19.2387
-13.1285
22.1237
38.5086
56.5182
48.7179
11.573
-16.771
-39.8071
-20.0156
27.1762
66.519
53.4824
-10.434
-25.027
-19.6212
-39.52
-51.8976
-38.5167
-28.9374
-4.30438
-3.7997
-3.01556
39.5667
30.2599
7.96562
-2.87108
-23.3361
-12.828
-23.8764
-51.6248
-10.7521
31.7342
24.248
-2.31379
2.5984
26.5315
45.91
32.9112
11.1356
-20.1182
-41.6909
-34.723
-35.8321
8.66276
17.828
-2.93007
-1.43534
10.7429
20.226
19.8247
16.7962
1.46557
-9.67572
-12.3507
-11.5659
23.3936
66.4486
36.5187
-6.18067
-37.5495
-59.1325
-25.8697
-33.8879
-32.684
33.6294
46.6272
-30.0938
-42.2762
9.2375
48.4374
33.3322
-29.4694
-77.3528
-29.1836
63.8472
83.2636
20.7715
-7.59968
-8.96485
9.41893
14.3871
5.06548
21.0131
1.14497
2.69214
0.363694
15.9334
-2.65037
-34.6831
-37.5141
-9.04445
35.2238
55.8535
-0.656714
-65.8424
-87.3131
-85.7872
-50.3685
0.133613
42.8698
67.6604
20.5004
-4.78659
-4.86366
-25.6156
-22.6584
-6.31083
18.031
26.4842
-7.34032
-17.2708
-12.9067
18.8245
38.9326
50.5783
46.4908
5.70092
-18.6409
-21.372
-0.398475
21.1537
28.4856
10.1273
12.4329
-19.1218
-15.6149
9.46716
13.7486
-2.77352
-11.722
-18.2744
-14.5455
-17.9915
-37.2893
-31.3401
-19.2936
-1.31257
12.1875
-6.76614
-15.0119
45.7625
95.247
48.4329
-15.8874
-35.4771
-42.5641
-42.182
-9.57751
-6.45246
12.8309
65.2249
70.5202
66.352
49.8066
-11.9922
-116.344
-109.36
-24.589
19.4659
44.8806
-16.7265
-83.2692
-38.0231
-6.5521
-9.7943
10.7246
47.3762
28.4688
27.4383
-15.675
-65.9554
-64.9981
-43.2385
-1.18767
49.4062
114.439
121.274
36.5574
6.92119
-10.3788
-9.35855
15.2409
-5.76917
-10.9404
17.638
22.5973
-10.7731
-5.52223
-16.545
4.78413
19.2485
19.0011
14.4278
7.02942
-47.6546
-72.9494
-67.5818
-32.6571
-2.86675
-10.9978
-40.4879
-44.4249
-67.3911
-48.6919
-26.5666
11.5088
26.0499
15.8096
53.4104
85.1005
50.7002
21.4815
-24.5752
-35.4052
23.1459
85.6998
107.12
55.6637
8.2197
9.55027
3.10339
-21.3019
1.06752
-6.52997
-36.9138
-27.2984
-4.58611
-26.0437
-50.1016
-57.678
-49.2628
-38.4725
-6.02477
5.43961
30.7894
18.705
-13.5519
7.43333
27.4326
19.213
24.4251
44.5897
59.1819
53.1083
60.8903
27.8278
-48.6488
-82.0051
-70.9237
-26.3771
-5.45693
-12.1876
-11.5273
7.143
-8.33402
-58.5549
-87.4217
-79.064
-47.3282
-12.108
53.6638
78.2146
84.6905
83.8375
26.119
-30.0805
-42.2691
-3.60711
67.3365
56.8227
45.3127
31.8248
35.495
29.5661
6.65181
-9.17223
-16.8926
-13.8372
-30.7532
-25.4959
-32.6439
-21.318
-46.4629
-97.2297
-143.09
-95.0443
67.2194
85.9212
-0.0606885
-26.1408
-25.0511
0.914664
37.0226
44.7762
28.0104
40.7256
60.5695
46.7227
22.3753
-28.0104
-40.0924
-15.7873
-12.7178
2.26158
41.3621
55.3618
23.5545
1.39455
13.1135
42.3919
10.9013
-13.5356
-29.2662
-52.7395
-49.3227
-20.5169
12.8981
25.1024
40.1255
23.0532
-2.31987
-68.3798
-69.5175
-21.9203
28.3533
23.1368
-0.929248
3.96466
-39.1225
-46.6293
5.51944
-0.587351
-44.2181
-23.1408
7.30755
15.1653
22.9538
13.7767
23.2229
32.099
26.7603
36.5858
-17.0246
-40.7708
70.6362
93.0095
-13.8311
-50.5297
-21.5224
6.27702
27.342
9.68217
-13.1832
-23.3193
-20.1119
-1.56852
-5.83162
5.20506
-5.34926
1.4168
2.92559
-25.3218
-74.6548
-41.2486
-25.4882
-5.06141
29.5375
56.5211
90.9972
32.0725
-13.7658
11.6622
21.5851
-1.70085
-13.0185
-75.9725
-83.8429
-13.8571
19.6306
20.8752
2.08492
9.52515
44.5184
3.08625
-18.0642
24.7456
87.6296
33.4798
-49.7778
-52.1237
-58.8117
-60.9548
-30.8405
-6.13963
28.2076
46.2433
25.8473
10.3682
14.5942
-2.69689
7.62468
24.2011
55.1154
53.1546
26.4949
-7.05176
-34.9256
-34.2033
-33.044
-30.6282
6.14389
38.0797
43.2012
37.0725
23.4494
31.5059
-34.2145
-174.09
-198.052
-91.0766
-32.5939
-3.94803
56.2866
113.055
61.9571
-9.95547
-18.3601
-0.838175
18.2563
61.615
52.6721
70.292
59.8462
24.3312
-9.55619
-5.93045
41.9917
69.4096
33.4133
-20.9155
-28.5152
-6.09379
-11.7374
-43.9308
-56.4561
-54.753
-61.2788
-79.7622
-48.0875
-25.4083
-25.3935
-35.281
-40.9439
-23.3806
12.1437
53.3565
58.7393
67.3167
60.6976
52.9153
31.3842
6.70039
-25.1156
-34.1741
-23.9646
0.265624
15.991
55.9461
47.0167
3.24562
-38.9833
-34.7974
-8.69612
17.3364
8.8728
-17.2156
-18.1727
6.77177
6.51085
-6.49853
-28.7573
-33.4932
5.0326
36.4373
16.7609
-11.3266
2.55483
23.8861
25.7678
1.29153
21.1573
-19.0591
-77.8334
-39.348
15.2654
-17.6012
-10.9712
19.2128
-2.23258
-2.77462
22.1185
50.7897
25.0831
-16.6344
20.2527
64.5048
6.65013
-33.2086
-46.9197
-68.9326
-74.9278
-51.2722
28.651
43.7112
-15.0158
-0.621991
39.5834
43.5691
62.8556
49.799
29.4787
19.1901
0.500831
10.7723
-11.0974
-47.2624
-40.5636
-21.7985
-6.65987
26.3407
47.6661
12.9064
-9.83852
-36.1953
-41.8405
-23.255
-4.24792
6.50108
14.2582
-14.8811
-38.0738
-56.3444
-32.1608
-6.23394
-3.52343
-8.17706
24.3227
-0.591209
-42.4736
-21.5605
31.1407
90.0863
65.5596
17.5331
21.2423
-27.5084
-58.8992
-35.4337
-14.9479
6.52548
23.2347
21.7196
27.6321
-2.04832
-0.445307
0.707913
-0.927205
17.7605
152.29
129.723
77.0856
18.3848
-34.4681
-84.0939
-105.898
-128.29
-98.9049
-42.6488
-14.9398
4.42562
47.2248
36.48
24.7773
28.4943
18.3408
10.0382
1.75353
-9.30305
-26.3517
-34.6859
-35.59
-18.1228
-3.21988
22.1573
14.4086
15.2084
45.2113
58.1136
16.7002
-13.5445
-7.44661
8.59682
3.19348
-22.7512
-25.499
-5.11623
-23.6532
-25.1321
-30.461
-45.9069
-27.5232
-20.1332
-12.937
18.3557
37.5403
17.8534
-1.23387
-2.30683
20.1961
22.5982
18.6844
21.3167
18.2091
13.8
-16.5872
-18.1246
9.60299
15.0152
10.0198
2.42321
25.3848
58.0389
56.2111
10.6178
-27.9365
-33.1079
-31.0384
-6.95462
-11.3555
-5.0197
12.952
-5.8711
-15.3563
-13.047
8.4569
15.1523
-3.29314
-4.68871
14.3159
-12.411
-31.934
-28.8834
-27.1074
-16.2875
-11.4179
8.05753
22.0993
7.80027
-0.853033
-41.9026
-61.5638
-1.54053
58.0206
83.6929
51.0507
-14.696
-87.6045
-150.136
-108.282
-14.8815
57.4392
107.586
81.9379
71.3475
82.3394
50.0239
13.3256
3.606
-30.0727
-17.0098
12.539
-6.91702
-30.8442
-35.6355
-37.7401
-33.5533
17.2584
68.8128
43.5655
5.10381
-43.0843
-91.1258
-78.9904
-55.4473
-48.1221
-9.12308
44.6105
84.1001
96.3137
60.2876
-10.1387
-14.8874
-18.7569
-27.3643
-8.97964
21.3932
43.7757
41.9096
17.1098
-6.07684
-16.9411
-19.652
7.00417
26.1084
46.8483
60.3531
12.0771
-45.9504
-82.0729
-83.6235
-54.9152
-40.0995
-39.2147
-39.956
-27.4671
-27.0448
0.739311
21.4311
45.0116
51.6228
38.836
14.5072
29.6577
38.0896
28.1534
-16.4665
-49.3962
-102.228
-48.1988
4.66881
-3.63362
19.0104
55.0682
63.959
66.7963
73.0599
55.2931
44.172
14.8743
-4.50808
-29.2085
-42.7126
-47.6659
-42.2284
-57.6749
-47.2494
10.3128
74.3044
57.9249
16.3012
13.3438
-34.8698
-77.3048
-88.1343
-56.9336
21.9839
51.642
35.6321
16.0729
-10.448
-11.2761
-3.01195
2.6526
20.8993
36.3996
13.687
-2.97288
-15.3717
-42.0004
-49.1514
-49.8064
-21.9781
10.2385
44.9539
51.08
-15.6267
-26.8726
4.67402
2.33435
30.6512
56.9646
39.8377
25.5449
-66.1562
-122.258
-30.1205
3.39947
-3.35133
4.44138
4.35031
70.8805
145.199
101.303
32.0117
-1.19783
-37.7704
-55.3047
-31.7745
13.6949
-38.6429
-76.628
-55.5402
-57.2002
-11.3741
30.672
12.6771
16.1903
39.425
42.1983
92.843
96.2687
22.2815
-49.081
-86.1497
-63.9741
30.9599
26.0155
-46.1937
-90.5431
-49.9759
5.80782
5.34187
-8.87649
20.9929
20.2533
12.1086
-11.1266
6.1436
33.7537
15.6443
-42.477
-74.2179
-32.6862
6.37679
18.5111
-14.217
-20.6612
0.057519
37.6599
48.829
51.1712
65.8937
52.3182
34.1944
37.5296
17.8399
-9.63836
-8.75672
14.1789
-1.29177
-47.1606
-30.1061
-13.7012
1.26511
-11.0542
-19.519
-3.56918
16.166
-27.486
-36.9575
-27.7069
-13.7193
-2.25893
-2.16752
-3.91895
-4.30094
10.1667
-34.196
-68.907
-57.6508
-38.789
-11.5359
41.029
51.4301
32.8077
24.4424
10.2719
10.2685
30.2931
34.4496
16.9339
-1.765
-2.88964
5.35594
19.2929
-7.25385
-3.50792
52.8412
57.7766
30.1073
40.9216
62.3589
13.7924
-18.1858
0.420069
-8.22573
-28.8617
-54.4698
-64.3283
-43.0846
-72.3885
-69.2907
-17.3329
12.6076
3.06825
-17.454
-61.7503
-49.946
-40.1984
-41.7623
-28.2125
-18.0853
23.7598
72.6687
86.0638
76.873
66.5894
63.1028
55.7172
28.6076
24.9047
26.1483
13.1775
-19.2408
-11.8976
25.5273
20.7202
-32.5824
-36.3039
0.74908
39.6336
18.0765
-14.0718
-62.6744
-151.38
-129.406
-24.2729
7.42178
6.19888
-11.1
6.25404
48.0754
47.7421
54.9457
41.0023
16.805
26.336
28.0967
-28.7353
-45.701
7.72592
7.44031
-43.3467
-23.8143
32.5167
51.5729
8.26687
-33.101
-57.2465
-34.4691
-45.2332
-53.5484
36.2863
60.709
56.7454
31.2655
0.184474
-0.0106446
26.8934
16.0452
-24.2925
-35.8243
-2.68076
32.8282
46.1665
8.4087
-20.278
-2.63176
5.55218
11.724
24.9928
-2.18488
-52.9777
-57.1344
-31.1692
13.454
-18.1105
-61.5009
-9.1
48.389
43.257
23.3674
5.34508
-2.1714
-16.8851
-2.67418
-3.53219
-3.7169
-9.10536
-19.1498
32.1736
64.5467
13.1785
-26.3418
-50.3719
-68.6751
-9.6021
28.0082
29.1875
32.7712
-13.915
-6.91953
37.8961
17.441
3.65153
5.74706
6.80287
13.5549
23.5339
20.1097
-22.4234
-24.5126
0.6125
7.1294
5.64238
23.3076
28.689
0.764522
-3.58761
-57.3016
-76.4161
-91.0827
-64.3689
2.66292
49.9167
36.6174
20.3366
10.3324
44.2607
51.9
36.2249
4.87927
-19.4915
-26.1345
-17.1127
-34.02
-35.8353
-9.23024
-14.2473
1.77295
22.6495
37.1247
44.5029
9.60392
0.901428
2.81421
40.1748
30.6601
-11.4035
-39.8036
-110.069
-162.864
-94.826
17.6136
39.9047
29.1791
43.5912
47.5012
34.9304
53.613
71.9621
76.9413
52.476
21.7167
-11.5395
-6.81142
-4.87971
3.1701
37.4983
5.93538
2.5026
24.3751
-3.93025
-44.3918
-34.6861
-33.6713
-22.0357
-34.1863
-48.9702
-73.2053
-88.5611
-65.2725
-6.52244
-1.17676
-7.93362
-20.4939
-34.9928
-8.61287
3.57653
52.2144
102.191
72.486
28.656
1.69765
-0.857047
39.9739
41.5215
25.4647
-1.51032
27.145
54.0343
17.9704
-20.4081
8.2771
-6.0526
-28.5704
-40.2753
-14.4076
-4.27814
-42.0021
-42.7854
-0.641498
2.94534
-15.3048
-37.0059
-15.2369
22.8267
30.821
18.8799
-5.71418
-15.0813
3.55562
12.7119
23.0428
36.575
7.00246
-35.5983
-38.2003
-8.80319
3.39468
-1.53837
31.4229
44.8346
12.1764
-5.9617
-4.29432
-18.107
-29.8044
-10.5646
20.7833
49.8585
10.6762
-53.6347
-91.0123
-105.695
-26.702
46.315
60.6743
19.9794
0.611398
35.0758
43.3831
62.7926
72.3317
50.3866
15.7155
-63.8155
-110.618
-38.7963
-26.0837
-16.5889
7.45313
-17.4962
-29.233
7.20909
32.6071
55.3443
11.6077
-19.0222
-3.73536
10.9952
2.306
-17.3553
-14.3616
-2.86886
-2.71981
15.2108
32.3128
6.72449
-3.28389
-5.52572
17.9844
43.1139
46.1263
45.2098
7.82333
-28.7903
-3.68834
41.241
61.7817
1.29275
-76.8401
-139.248
-186.986
-125.739
-64.8725
-0.0816481
62.5878
57.5311
54.7301
33.7155
4.19865
29.7146
54.1911
50.7511
66.1003
42.6688
4.31995
-14.6815
-4.02558
-12.6705
-12.3429
7.05037
31.2732
22.589
5.34622
-13.3635
1.6136
2.06025
-48.913
-56.3016
-52.5593
-47.7557
-34.7974
-20.1661
-18.9882
-42.9169
-4.06348
18.7896
12.3792
39.1376
60.7699
70.6705
87.912
35.5995
3.61645
0.160946
-5.37025
-11.9595
-5.75146
-5.31045
8.37413
-33.7744
-51.4477
-48.0564
-52.5011
-32.0503
-38.4376
-48.8321
-14.2128
28.0235
56.2322
50.1184
50.5943
73.8323
66.0951
49.8977
43.3062
49.5954
16.1896
-14.0729
-37.9285
-25.6675
-27.6175
-39.6313
-43.5053
-17.7948
-33.5222
-60.1193
-78.7459
-60.8527
-42.077
-26.7324
-21.649
-15.2378
0.0966638
38.5189
26.0784
9.88719
36.3566
49.4005
49.9402
54.8532
45.6516
46.0535
27.9598
16.3923
17.8782
17.9547
13.5956
2.27448
-4.92569
1.61295
-15.0653
-32.2553
-33.027
-43.0309
-37.0395
-33.5701
-19.5022
7.41418
10.112
1.33185
8.3039
-0.0460481
-1.7508
-7.88847
-13.2589
-7.05532
9.79237
-11.4718
-28.0857
-28.0483
-7.67563
27.5091
44.0379
50.8518
50.3564
23.3764
-14.8612
-44.2203
-38.5511
-21.0448
-25.9662
-22.4225
7.96702
8.58316
1.5524
2.14637
-13.4105
-7.56693
1.66094
-0.454376
8.84441
-4.23507
-1.09471
0.477357
15.6534
29.8781
39.9202
38.08
42.0071
52.4168
43.9616
-19.3917
-46.6658
-33.2069
-12.0507
-14.8137
-21.8262
-1.70733
17.2241
-6.81267
11.4438
21.4691
-2.59573
-25.0187
-34.9825
-29.2442
-11.5672
18.7304
9.64826
-39.0345
-38.8669
7.19857
26.189
29.8328
40.7376
44.8217
38.7952
-5.7914
-53.667
-64.4172
-75.3871
-76.2031
-62.9967
-27.6182
35.3215
56.9764
42.8996
1.59864
-2.09078
34.2805
50.7417
55.802
41.9064
10.2106
-9.40139
6.43097
17.0211
24.8951
34.2744
36.3518
19.159
-10.8708
-36.9774
-59.4517
-82.5869
-76.3303
-39.6834
-8.44583
1.81787
-14.7326
-25.8671
-30.7661
-24.3237
-2.26245
-2.87494
-2.87369
12.3949
47.51
41.9466
24.9297
20.8428
27.1644
33.3284
38.7691
30.8501
27.3443
34.0983
2.87203
5.38345
30.0844
37.469
38.1552
20.8368
12.7023
10.101
-46.8544
-58.6583
-50.7567
-33.2185
-7.76869
-8.07673
-5.14006
-10.885
-8.17058
-26.1217
-54.9121
-73.1791
-58.2064
-48.4685
-37.4643
-26.7156
-1.77859
0.996019
11.0235
30.2095
59.075
48.9536
31.9928
49.7245
84.1729
78.7412
52.1344
17.5091
-18.8729
-44.2792
-44.1823
-52.122
-55.5512
-70.0037
-87.8241
-104.318
-102.374
-55.4002
-6.81482
18.0896
52.742
76.8677
93.7287
83.7445
82.1261
79.9221
74.4412
67.358
54.1873
86.2428
86.7903
63.801
55.213
39.6925
32.1192
20.7025
1.97933
-11.0742
-28.8528
-81.4924
-99.8969
-103.695
-116.586
-113.62
-116.683
-112.122
-103.534
-88.6714
-68.1226
-77.8323
-35.2298
12.2949
25.1716
67.2777
82.6355
64.8953
74.8679
61.4004
30.3538
-24.4445
-92.9017
-131.744
-122.629
-44.964
39.0404
103.215
144.712
145.538
118.24
97.5785
65.5746
20.1639
-2.93528
-35.8533
-55.0178
-19.3236
-8.79132
17.8463
41.1204
72.5495
112.456
127.488
94.3695
31.0523
-32.6252
-78.7179
-99.2643
-90.3781
-49.7364
-31.1431
-25.0827
-26.9072
-65.6277
-58.3246
-23.7368
-16.312
-25.7372
-72.5386
-112.918
-50.8332
27.8893
18.7399
-37.7519
-55.6369
-54.2227
-72.8509
-75.0378
-29.3091
31.3219
65.4978
89.5018
101.532
120.58
132.515
149.416
158.384
94.8646
84.1113
94.3833
32.8933
-42.0644
-84.5145
-67.9972
-48.9195
-101.019
-106.835
-82.3979
-37.1838
-43.6126
-95.9379
-119.218
-72.4985
-52.4086
-66.2108
-71.5463
-52.8966
18.837
48.1205
43.9828
89.6402
103.92
155.365
243.495
272.608
232.118
157.916
143.407
115.608
-74.2645
-208.271
-235.928
-278.544
-317.509
-287.947
-226.958
-103.638
-0.182879
-14.0779
-13.3208
33.5633
38.9659
11.6158
-15.0742
-10.5108
83.6443
203.463
243.322
81.2448
40.9362
159.885
167.935
201.359
295.003
155.615
30.5175
-136.734
-163.439
-13.337
-103.08
-290.121
-359.954
-309.474
-224.428
-178.483
-105.009
-73.6729
-90.8115
3.39039
256.919
435.691
390.243
278.614
215.809
174.449
36.4196
-96.7347
-129.715
-114.469
-91.9712
-50.1091
-31.3124
-49.4366
47.0955
76.131
-61.6163
-125.148
-155.64
-38.6717
-48.5918
-266.816
-342.385
-250.651
-121.024
60.6357
249.216
365.306
247.756
12.1883
-58.436
-9.22452
106.284
181.17
167.356
77.6523
68.8464
53.3326
32.0433
-28.9803
-64.4735
-112.265
-83.7233
-28.5057
-77.2458
-193.993
-348.626
-287.155
-176.839
-43.1111
222.697
369.812
373.742
257.226
101.754
-52.747
-84.6945
-3.88454
98.6466
182.068
160.892
37.9574
0.424978
-81.1272
-222.466
-207.935
-88.288
4.54052
48.9708
101.055
89.4403
53.9363
-66.1314
-91.8417
-73.0282
-10.7234
-44.3089
-238.137
-322.917
-172.78
-39.7905
87.8444
65.5178
57.1469
98.3837
67.4603
16.22
-37.8982
-13.2955
61.644
46.7115
91.8159
163.602
182.019
149.948
107.757
-31.827
-256.76
-361.564
-452.664
-382.92
-191.382
41.1518
208.321
292.653
277.99
325.459
448.849
417.901
191.936
-59.3086
-196.402
-122.014
-28.488
-98.0255
-145.58
-133.769
-8.87315
10.2852
-40.7838
43.4989
97.7587
38.6217
-115.668
-185.712
-86.9823
-29.2405
-48.7704
3.45546
106.617
71.3962
-23.3686
40.8966
24.534
-309.142
-364.432
56.1919
257.532
205.969
114.17
-17.4998
-84.0437
-87.6752
-115.378
-97.5775
-20.3049
86.2807
55.7556
-33.4069
-179.986
-158.762
-171.6
-313.758
-252.34
103.5
361.857
323.76
346.518
378.971
254.588
107.479
55.5445
129.95
235.013
250.238
102.467
-110.93
-205.833
-218.95
-297.195
-190.755
4.50646
28.2878
-88.609
-54.669
-18.5698
-44.6117
-153.459
-271.867
-195.162
-110.851
-51.8037
-37.074
35.9927
210.218
203.48
-9.61867
-53.3973
-30.8519
91.1461
197.577
118.9
-7.98689
102.218
173.02
-2.26981
-147.668
-48.3201
82.2243
72.6345
-55.726
-85.8528
-34.2846
-172.992
-359.658
-221.471
-13.2629
-78.8118
-193.252
-27.3283
78.8922
65.1577
-16.0577
66.8754
84.1533
116.894
216.161
296.574
344.927
295.937
270.003
321.333
270.775
222.78
-46.8054
-379.698
-476.842
-367.721
-208.942
-282.005
-291.272
-150.632
102.65
93.5067
28.771
29.7654
12.3133
-44.04
-43.0742
-57.3516
-108.753
-133.932
-103.517
30.9781
215.815
323.139
350.061
278.133
83.8048
47.0326
189.361
157.557
4.29181
-42.0679
102.857
102.434
-204.4
-465.505
-614.314
-697.777
-409.976
-55.9034
-90.283
-93.9344
114.066
313.46
384.182
334.5
240.603
177.014
-26.8584
-41.596
55.4321
17.1534
-55.8023
-37.3368
62.4275
266.647
400.358
389.429
85.8513
-177.565
-180.496
-247.207
-255.125
-195.539
-98.3061
-54.1208
-48.4912
-116.647
-72.7544
-24.0947
-10.1087
28.2821
61.6342
81.7963
137.824
84.963
-4.30245
36.3387
83.7886
130.302
23.4708
-240.272
-366.34
-308.146
-195.158
-147.171
44.6952
277.089
227.803
155.002
140.319
36.1647
-58.2932
-63.8238
19.4137
59.3492
165.473
248.861
245.237
-14.135
-59.4776
22.7553
-134.03
-289.826
-183.178
-10.7636
13.449
15.7248
-9.07877
-75.5116
-116.604
-71.041
104.325
197.612
89.2851
53.6358
135.057
114.226
-60.1392
-157.253
-131.986
16.5727
172.3
215.309
139.394
27.6373
-1.15166
-5.94829
20.6247
-63.1684
-144.884
-150.716
-230.412
-236.678
-178.744
-209.14
-254.499
-171.485
-70.8234
38.0194
153.896
226.472
234.913
244.294
137.741
58.5412
117.235
103.131
-42.6454
-26.6405
-15.5775
-55.7482
-134.376
-152.502
-69.8948
-43.0205
-100.859
49.1765
211.286
248.879
158.471
53.3833
25.4555
11.9836
86.2519
172.501
123.28
-23.3647
-34.0426
-18.1556
-30.769
-59.2978
-120.212
-262.66
-372.554
-168.505
29.857
-18.3649
-81.2961
-13.7
32.4056
39.2296
42.2371
26.891
39.4602
47.6579
-23.6652
-103.029
-122.877
-18.1264
161.773
202.193
152.284
273.55
316.822
168.79
-51.6164
-169.942
-117.966
-102.157
-57.8266
-81.9349
-79.4119
-13.936
-23.3135
-72.0395
-23.4014
38.9625
53.0926
24.7292
-38.5784
-113.556
-140.064
-101.254
21.1151
103.985
50.1097
-13.3771
9.88073
21.6626
60.8313
73.6576
-32.0202
-46.4363
-82.8402
-170.001
-176.179
-88.8336
84.8312
138.119
99.7079
102.474
163.625
141.824
40.5466
-4.78716
-14.9394
-114.399
-146.149
-79.8077
-65.0441
35.8863
187.622
246.221
263.958
256.705
58.6317
-51.6829
-102.378
-153.882
-223.852
-229.172
-255.52
-299.471
-184.932
-151.481
-77.8118
177.392
283.329
214.33
85.6191
-107.005
-93.8852
77.5728
67.3559
26.2631
63.4794
101.956
93.22
83.9001
83.0585
65.1325
40.3949
86.4433
130.059
149.144
149.054
23.5006
-56.797
-127.295
-118.594
-64.6136
-60.5649
-155.229
-214.859
-159.399
-117.01
-178.138
-146.95
-73.7077
-0.776638
82.2664
112.489
36.3805
-115.575
-197.042
-66.1814
96.6576
125.637
66.2737
38.1505
147.641
96.0382
-71.5411
-4.6412
-4.33329
-57.9137
3.62035
142.99
148.116
86.95
96.6722
137.478
62.9902
1.49249
29.0488
-19.3081
-121.71
-158.929
-12.9405
110.319
193.285
213.813
98.0038
-57.5622
-300.675
-456.403
-329.953
-201.22
-94.3602
-28.904
9.60023
161.107
350.389
346.215
152.845
10.1401
-3.4949
30.3658
14.1244
-3.73923
-109.835
-167.642
-100.229
-53.2933
71.3267
229.384
231.255
95.9307
-62.8357
-118.417
-111.712
-187.308
-183.392
-101.663
-21.3939
18.8115
56.6785
94.2948
75.6021
32.243
-39.7508
-146.316
-140.592
-125.288
4.36828
131.96
197.812
96.1455
29.0419
57.5282
16.8016
-74.1092
-139.836
-161.393
-43.0134
89.7472
97.4525
58.3103
31.7179
-1.32263
-42.9938
9.77485
45.375
79.2308
114.876
148.483
73.6492
8.93318
-19.9305
-6.83962
25.0105
4.04481
-54.3048
-31.6517
94.8971
94.6599
-90.6112
-350.145
-431.88
-189.859
80.2696
108.402
48.8874
12.9472
20.3651
105.145
135.776
105.351
90.0256
-25.2132
-121.988
-118.575
-89.289
-41.3569
-63.5266
11.7333
104.754
134.471
195.866
78.6679
-47.8674
-74.3521
-56.4742
-5.6797
12.439
-25.0845
-64.412
26.2178
81.5566
8.05279
-27.4997
-1.04665
-9.24638
-21.1526
-71.3021
-132.486
-58.8607
102.913
107.592
115.131
280.642
320.523
156.264
-94.3798
-234.55
-254.047
-208.125
-238.319
-272.873
-94.4045
112.774
174.318
105.248
95.7
61.2334
57.6035
80.7895
79.6661
40.4695
-112.609
-227.324
-129.487
-20.0618
44.7382
120.367
164.055
114.652
43.7631
43.3685
43.7141
-66.1718
-77.2854
14.4278
0.410945
-42.4573
-32.2484
-35.3572
-65.7152
-36.7546
-84.1178
-161.449
-178.971
-103.316
6.21304
23.0953
2.68392
21.0877
81.4773
107.712
115.474
166.018
203.883
163.157
92.4828
-19.8716
-103.112
-111.257
-36.3043
-65.6283
-64.1213
-53.1126
-23.7981
0.561815
46.2181
113.398
106.453
82.2745
80.7765
29.13
-33.5361
-128.105
-107.349
-66.7304
-209.224
-176.467
-72.4658
-15.8124
31.3655
45.5469
57.9183
15.799
8.6711
50.6847
75.1577
130.778
165.046
75.4654
-22.2355
-67.6773
-119.059
-69.8558
-59.8784
-50.8248
84.8081
106.965
83.9423
51.1498
46.0566
55.1301
56.108
50.1369
80.8539
49.8347
7.47073
-64.6893
-165.011
-234.247
-266.887
-261.164
-120.315
3.21422
36.6437
21.0312
17.957
3.18511
-54.0468
-42.9201
13.7373
21.5129
34.8368
100.08
121.04
98.2721
102.775
67.3813
82.3339
157.003
161.775
197.433
140.21
26.5733
-47.0326
-54.266
-86.9946
-121.229
-50.8255
-57.9047
-40.8384
28.8383
27.4477
32.1925
-64.2747
-174.417
-185.907
-143.455
-115.583
-85.1068
-29.5077
-23.1037
-15.1661
26.3024
14.0693
-41.958
76.1328
261.468
223.246
128.225
-10.2946
-115.958
-99.1524
-142.257
-85.8403
16.9274
13.4807
-35.9292
-31.5549
12.0583
61.9872
64.4841
71.5879
40.0379
86.5021
201.662
153.611
67.0752
-81.1722
-152.147
-74.7429
-10.7223
-15.1958
-60.0688
-117.151
-105.186
-99.3382
-29.2962
72.8822
60.5834
21.4301
63.8933
67.7689
37.0148
-7.80893
11.8742
24.9773
-16.3367
-53.6277
-3.86755
17.469
-30.5866
-13.8389
74.4638
145.399
150.834
99.4689
14.9148
-39.4803
-87.4822
-188.136
-185.571
-38.8061
3.96152
-40.7805
-93.2796
-116.611
-120.425
-47.0013
35.454
28.9048
103.884
142.068
127.029
40.656
-10.5011
-13.6463
-5.71222
-16.1269
14.2911
11.1279
-10.1702
-54.3088
-85.8672
-36.0737
42.2928
39.8431
52.0834
83.5971
100.824
91.109
12.6747
-34.9239
-7.3875
42.2602
-0.616089
-28.2358
-16.9173
-13.8353
-29.4899
-17.3227
-13.4724
-84.7309
-16.4226
22.243
6.68329
4.06298
-55.1234
-73.5231
-60.5352
-68.5335
-26.5006
14.6998
41.3325
13.9487
-1.1271
17.5652
28.1577
22.7805
-43.5502
35.3671
162.532
232.483
129.01
6.81634
-153.809
-210.43
-137.924
-70.2372
-21.65
-22.8439
-33.9307
-9.66424
45.8235
214.631
260.434
195.584
77.3435
-51.9036
-123.858
-171.949
-190.096
-126.946
-50.182
-19.3491
19.1799
135.383
145.529
105.234
63.9526
-20.9307
-90.2951
-80.7012
-110.81
-153.972
-121.011
-70.998
-13.6788
75.3812
124.017
110.789
41.7207
-9.83246
5.88849
37.6374
34.506
21.9426
79.5781
84.9221
13.5168
-9.22957
18.1004
-57.0939
-115.477
-159.743
-151.339
-44.2639
34.8884
-1.0892
25.8238
90.3838
100.215
37.9674
-15.5493
45.5462
133.801
81.61
-13.404
-90.1217
-163.848
-169.216
-131.373
-54.5164
4.11337
15.2782
84.0169
63.0509
64.1583
84.4172
92.7118
55.9141
68.5044
87.2811
90.2271
-29.4028
-154.41
-88.6902
0.121047
88.8278
73.1238
37.9744
54.4765
31.8737
14.3785
12.4499
-12.8169
-12.2062
-94.9425
-150.673
-123.448
-27.1369
29.2461
-28.8625
-114.417
-111.499
-81.5157
-90.0901
-64.9051
-25.3884
59.2061
131.537
118.492
128.629
73.4791
1.50294
-89.3027
-87.3391
-44.1199
9.6567
71.2253
83.8758
97.6764
117.972
86.479
42.133
42.1738
45.9645
-19.5408
-63.4118
6.51435
-17.306
-144.479
-146.914
-89.4809
-53.8339
-18.1215
-6.41337
20.5622
46.1436
59.9177
107.777
65.9013
-15.6682
20.3073
56.9474
-19.8186
-91.2491
-47.022
13.8046
3.34981
-20.4888
12.0687
32.6554
35.5035
28.4633
10.8981
-25.7916
-13.1965
-9.36541
-68.7241
-104.664
-85.9658
3.76409
109.019
55.5311
-44.3626
-97.4267
-131.398
-123.991
-22.9974
66.6138
94.5387
93.7731
86.4286
44.4082
78.7992
92.7356
85.6932
53.761
51.6121
32.1314
-43.7894
-98.433
-151.917
-122.55
10.874
86.7163
130.938
140.371
96.1901
82.5659
31.243
-100.44
-160.074
-100.821
-99.3708
-96.6432
-23.9794
-43.841
-121.222
-177.066
-77.972
-28.0235
-10.9962
89.5098
128.615
74.6038
23.6388
-13.9176
-102.693
-22.2236
105.849
109.154
69.2787
28.0528
94.4869
150.946
24.5749
-30.5268
-3.51141
-10.0908
-7.60912
-18.8534
-49.8624
-38.67
43.4269
94.4866
102.826
93.4399
49.8333
-100.947
-171.763
-51.4574
49.9996
31.5516
-40.6657
-132.483
-85.3004
1.47429
50.3046
38.5037
-16.5437
1.10119
-31.1521
-92.7329
-132.452
-85.4078
-58.6446
-30.0954
7.27643
39.3548
34.7841
9.31651
11.686
71.725
94.9628
123.421
121.615
63.7097
-65.1388
-88.9307
-63.4005
-11.8172
63.7747
38.284
74.1101
137.234
99.8829
-10.3092
-64.1932
-35.2266
28.3934
37.187
14.9397
-70.9646
-138.747
-166.327
-175.512
-87.1637
-3.12075
64.7439
72.2751
36.2505
12.4872
82.4147
73.3806
-12.7115
-13.1674
51.6692
14.2478
-107.782
-99.6271
-50.151
-14.9657
7.90504
28.5399
35.6649
53.5646
7.79913
45.7771
57.6223
53.3179
104.175
82.3425
45.345
-26.8649
-28.1404
-77.5262
-120.228
-127.945
-43.1344
56.6494
38.0516
-16.0399
-11.0381
-24.0285
-28.3657
-7.62628
30.2352
27.9334
12.7191
-3.67587
-29.5523
19.3227
22.5268
0.676763
-9.52308
32.022
56.9793
55.7688
48.1286
-7.84646
-31.2819
-62.4096
-60.3357
-6.46018
32.8174
21.2403
-40.7968
-63.6356
-2.9255
11.6738
-43.7708
-45.6423
13.1817
55.5991
40.7554
19.4404
-11.4996
-14.1375
-60.457
2.25507
21.0034
-8.7703
16.0331
33.0844
24.8943
-10.3632
8.87679
72.9047
-1.92889
-55.9331
-17.943
8.03789
-14.8457
-40.9223
2.25514
25.1711
61.5289
108.921
84.6404
-48.6128
-51.4662
-2.91375
10.6161
-14.0774
32.8376
56.34
-5.55518
-49.4836
-95.5269
-87.9635
-72.2616
-62.9637
-71.82
-61.3173
-42.022
3.64756
38.856
53.3262
83.8232
67.0274
60.169
72.988
61.6141
83.286
45.6795
-56.407
-20.7881
-12.3747
-23.4148
-29.4612
-21.0221
-30.2873
-25.2494
30.7795
3.49439
-19.6521
-34.3645
14.0325
92.2532
69.501
-10.7118
-129.812
-222.173
-146.221
1.56892
72.9207
94.1534
90.6526
57.2052
-19.7613
-54.5111
14.1735
32.2538
-2.65438
32.2649
38.6083
-8.21855
-66.9783
-132.615
-107.712
-41.8227
63.238
176.799
149.625
38.3181
22.2032
66.2039
88.0858
118.32
94.7477
83.9677
0.606183
-74.7288
-88.2643
-65.1032
-40.7611
-56.2614
-95.4285
-69.7464
-54.3106
-43.8803
2.01239
0.803996
4.97834
-25.1517
-98.0626
-100.178
-28.855
-27.0626
-29.6971
-60.8101
-38.8467
33.1133
79.9082
39.6455
-21.8597
-12.4335
65.1436
102.865
52.2312
32.996
20.2065
-13.6756
-47.8304
-30.5503
63.4823
91.2518
44.7238
41.1063
78.9931
83.4703
31.9975
-19.5856
-49.1929
-42.449
-14.9771
8.23706
23.6942
40.8393
31.4183
13.4462
22.4293
15.7382
-45.3929
-116.712
-147.904
-154.198
-125.143
-40.6753
8.04574
37.2955
84.1932
31.5751
-58.8235
-73.3987
8.22276
60.661
33.6892
5.19192
51.8121
97.0036
90.3042
41.4015
-49.1857
-123.051
-56.0536
-5.91728
11.1702
63.092
68.3551
-17.8718
-54.9215
17.0323
89.9617
74.1299
6.91104
45.0708
52.5733
-5.43136
-11.2627
-56.3016
-103.036
-84.3462
-24.2721
35.2471
91.9474
81.9884
36.4938
-22.0407
-67.5494
-82.2983
-154.997
-136.361
-17.7457
56.5413
53.0248
-13.8032
-44.8721
-26.0036
15.4821
19.6501
15.8441
39.6319
93.9582
130.216
29.5349
-55.7985
-43.4506
-19.5286
23.823
62.4996
87.7514
53.5582
-11.2163
-99.5841
-70.0157
45.6934
66.5645
71.3239
40.702
1.05012
-30.8424
-72.5848
-84.3167
-47.8004
-16.2344
4.41829
-1.52003
-54.9816
-64.4312
-14.05
17.6446
-7.62565
-11.1522
76.0597
45.3973
-27.0478
-12.3141
-49.6896
-56.0942
-22.1662
19.6091
15.7679
39.7158
38.7976
34.1959
83.5029
66.1625
8.24912
-2.94667
33.1274
7.45512
12.3239
6.00033
-22.2234
-67.2415
-116.032
-80.091
19.6233
56.6054
-17.8636
-116.739
-87.4761
-18.8048
65.5244
111.29
86.0619
24.3193
17.8972
33.0617
-28.4039
-48.6343
-25.0382
-31.465
-44.9228
4.32545
31.0413
35.9886
57.7167
29.2312
39.8812
85.3472
106.273
49.7857
-40.5416
-87.9476
-87.7043
-48.6248
16.5917
-0.604158
-10.4366
39.1242
62.6564
57.7599
1.80055
-65.2014
-76.177
-46.2144
-78.736
-142.025
-37.8194
61.4918
57.7869
17.9542
-31.2729
-42.535
-36.3752
-70.8405
-47.0402
32.5364
68.2131
58.1254
27.655
1.74881
-31.6279
-38.114
14.9517
18.6332
46.3042
98.5293
47.1866
15.4848
58.3173
30.87
7.04049
-5.64207
21.7
51.6585
-21.0638
-48.9399
-65.2874
-83.0609
-25.75
51.1882
117.924
99.1695
-26.0051
-86.7103
-60.8863
-37.4334
-5.37448
-3.07347
-45.2139
-38.0255
-29.1432
-7.19158
-15.3653
-24.9415
19.2817
-5.56732
26.4773
76.2563
51.6805
6.49096
-13.7166
-95.054
-52.0105
11.2022
11.1901
36.796
67.7951
86.0156
54.6836
-3.2562
-40.1936
-105.417
-77.6018
6.95821
44.7595
14.4321
16.4646
3.06896
16.1342
34.4238
-3.20285
63.041
41.885
-28.3743
-49.1996
-37.9115
-39.9709
-57.8236
-66.6213
-23.3626
22.693
56.9694
32.6803
12.3314
24.378
34.1873
33.4347
42.5272
-16.2415
-66.6059
-20.3676
40.8736
54.8086
36.6763
19.9923
9.95568
-55.598
-91.5825
-66.5643
-83.5941
-92.5453
-31.0602
-16.7765
-6.78622
21.1516
63.3383
61.3736
-8.58534
-10.6606
29.5225
26.6125
30.165
60.4718
78.4753
50.609
-28.4943
-32.8598
-1.64242
-31.1368
91.9952
156.341
95.2892
-16.1423
-92.1098
-98.2948
-100.228
-95.2216
-18.2678
39.8193
13.5981
4.59066
11.6288
7.557
-12.7283
-30.2116
-42.8634
-32.3795
-48.4847
-26.9664
-17.3734
17.3612
40.4701
51.6759
21.2462
17.9364
1.76656
11.524
17.4447
13.7726
14.4407
60.2511
26.598
-58.9072
-131.447
-101.543
-59.1045
-16.9334
56.9438
124.883
94.6921
41.1563
6.96387
23.6402
19.0347
-25.7629
-12.7179
-3.55199
32.6216
-49.6567
-85.2515
-29.7024
6.55799
23.5736
76.2992
64.7732
32.6603
-35.1227
-58.4921
-30.8077
-13.9237
10.2932
23.061
25.545
67.2755
24.1475
1.21703
3.66566
-26.2591
-22.7051
-33.7335
-77.2477
-43.587
15.9732
-63.7354
-122.851
-41.8564
51.0172
104.796
86.7362
22.1343
-71.1601
-52.1961
-44.9108
-38.0749
-47.8703
-77.369
-105.859
-132.371
-59.8056
59.497
141.884
195.304
186.377
193.903
200.565
148.203
83.7563
5.41201
-93.8946
-109.824
-92.2728
-50.5683
-27.028
-37.4157
8.75813
53.5281
23.7395
32.3077
6.6301
-32.348
-119.285
-177.169
-173.969
-119.092
-38.758
40.8299
0.46493
-42.7688
44.2887
85.9006
74.4869
1.90011
-27.5641
16.3111
91.5043
66.2326
-13.3912
-6.50977
14.3506
15.3506
31.5078
19.7481
25.8691
31.0138
14.4703
-5.86146
-46.2201
-120.69
-93.0323
-30.9752
16.1097
51.0174
44.2605
-6.42203
-49.5641
-16.7475
57.4261
63.4518
121.975
114.425
-8.64211
-89.8696
-95.0201
-10.9466
40.7492
23.1765
41.9581
19.6827
-76.9024
-75.1082
-29.3939
-15.048
18.4303
34.6302
28.2149
40.3464
1.66218
-7.2729
-70.0883
-128.338
-73.518
12.9734
49.7738
41.0521
-26.2361
-38.1917
13.1455
102.525
127.545
28.7587
-12.6335
4.80585
-1.81356
37.1127
-9.09946
-59.2909
-32.646
-38.7352
-16.9808
35.108
22.9986
-16.6078
-36.8108
-44.1591
4.39245
13.6183
-13.8054
-42.5331
-74.8069
-38.1596
-13.0164
-28.7038
-0.00935861
-2.98265
39.4478
114.148
149.289
108.179
34.3284
6.66107
-9.872
32.6179
-2.10385
-46.1497
-58.2602
-90.3851
-52.3239
3.53205
85.6063
90.2547
40.6208
14.6715
-61.8419
-118.631
-61.5068
-19.8288
-22.74
-14.147
-33.3773
-103.029
-70.3241
3.06064
83.5117
136.918
96.9175
77.2958
57.1413
12.8967
-45.5878
-63.0418
-17.3514
25.9542
24.6798
22.9199
-14.4007
-98.274
-110.764
-46.2771
2.96818
67.5499
118.16
54.9346
-25.8709
-88.601
-70.9611
-67.2372
-71.5703
-23.1668
-0.317777
32.7997
68.9141
85.5375
102.211
73.8149
54.1343
90.7703
104.59
-23.529
-94.4006
-40.4787
-56.0487
-87.9955
-49.8462
-27.4737
-0.500819
76.7669
72.6045
-44.915
-126.512
-121.704
-71.6999
-40.6036
27.8113
84.0098
66.7506
3.68327
-40.9465
27.0482
106.807
102.007
35.4782
-71.5209
-105.918
-22.0259
-2.3984
-46.3084
-0.357184
43.8306
87.0101
84.4803
63.2104
48.1813
1.04316
-88.2671
-80.228
-64.4124
-34.9378
-3.65364
-7.36107
11.6636
60.053
77.1102
-1.04836
-88.7016
-71.9592
28.5085
63.0761
61.6764
41.6011
15.6793
-16.7766
-60.4399
-31.6608
56.7816
43.3568
-8.08674
-50.5869
-70.2221
-40.2183
-50.5577
-48.3088
13.2149
51.4974
56.8181
55.7326
10.0038
-29.1956
-39.3142
-29.9326
9.22458
-3.69524
-23.4813
-30.0354
-81.7306
-63.9632
-22.4521
-7.39787
17.0795
19.4031
-1.29414
13.9745
91.453
188.504
212.61
56.7354
-49.7139
-67.2791
-13.528
27.9806
-19.1573
-25.1775
-9.06319
-73.1008
-54.5422
-11.1562
23.2131
74.4621
62.0269
27.7695
20.7739
24.6914
-21.0613
-79.0351
-101.809
-52.4757
-36.2457
-24.8754
-13.1969
-98.2246
-131.224
-82.2404
-42.9461
29.5988
53.5841
-28.2787
4.58108
157.622
168.524
112.219
62.8211
21.435
-35.8832
-48.5254
-56.3742
12.5346
56.253
39.1455
-0.599416
10.6957
28.9775
-23.0105
-54.7302
-60.7723
-56.2202
32.2457
53.1899
-61.5333
-89.0678
-29.1268
21.0791
15.0049
33.8057
70.191
51.7712
-46.4566
-33.7279
27.0363
21.8631
7.20528
-46.3625
32.1534
122.34
103.349
69.8404
-39.6821
-90.7294
-79.4536
-39.9409
-30.4191
-62.5017
-98.5515
2.1245
91.9687
56.3672
-14.4568
-73.9535
-59.5233
5.34524
27.8636
13.2264
-22.8422
-56.7873
-107.841
-90.1492
2.47661
34.0416
-8.92277
-34.0086
17.7529
80.7718
139.502
88.6811
18.1336
2.5069
57.1098
72.153
78.0773
62.175
72.1212
50.5736
-31.9765
-50.2936
-8.15827
-4.46653
-54.4968
-50.3523
1.27072
50.8683
17.868
-78.9576
-92.5151
-97.2884
-100.077
-49.1528
-39.5134
-3.719
-53.835
-91.2954
-46.0396
64.2379
129.707
86.0494
94.3223
101.654
89.922
54.834
-22.6906
-89.2078
-88.0547
-77.1573
-14.9599
79.211
48.5158
9.66228
27.2851
11.7438
-51.9801
-98.4848
-40.0304
44.1273
20.5806
-39.0544
-125.106
-50.8312
59.0778
24.6263
65.0705
107.471
62.7716
50.5168
50.3711
-42.5705
-97.2936
-96.2503
-25.5484
-8.19376
-55.8947
-8.71143
13.127
39.5391
98.0771
97.633
80.7945
32.1594
-64.3008
-56.317
-67.8699
-106.681
-76.2438
1.49551
-63.8447
-94.7862
-28.1026
50.009
61.2235
115.009
171.701
140.519
96.5098
16.4796
-49.2814
-28.5023
-7.64957
-45.2655
-7.38794
16.266
-3.1315
-1.92167
-41.8559
-70.519
-14.3089
-37.3067
54.3109
83.7095
22.5217
-35.0216
14.8375
33.2122
-51.7475
-184.315
-185.319
-34.3083
67.5149
34.2048
13.2151
-48.8621
-140.379
-102.4
10.6432
86.6857
74.8726
114.257
89.7918
36.7974
23.423
-44.4683
-79.4605
-118.958
-99.8824
64.081
104.09
24.9383
68.9142
110.036
108.29
138.436
213.608
146.396
-21.8091
3.7504
24.8862
-118.798
-271.905
-266.201
-202.853
-83.0733
27.4751
128.849
119.628
-1.09682
-42.3016
-74.9072
-50.0896
24.1193
24.4088
14.5386
76.0162
123.402
140.247
6.36387
-118.344
-82.0927
-29.3092
27.2698
30.3245
-17.4038
-82.7297
-50.4962
58.1381
109.925
115.583
87.5147
-10.2228
-113.127
-115.864
-42.7218
-110.244
-147.056
-55.335
25.3578
95.1914
128.258
122.372
75.2625
72.4032
16.0893
-45.5554
-38.0383
-23.0974
26.9419
25.0508
-12.4165
18.554
34.9067
-74.1643
-208.718
-259.434
-248.877
-178.75
-123.751
-48.9372
94.8941
233.76
234.288
184.441
205.006
234.546
174.093
83.7955
-12.5267
-44.0325
-44.1237
-91.6809
-53.0073
5.00029
-3.86423
48.4663
100.929
95.2502
48.5313
-0.428948
-37.5274
-86.4645
-49.2431
-6.72214
-54.1973
-45.8159
-2.31627
-56.7579
-91.9401
-113.963
-105.451
-151.426
-247.434
-188.145
-49.4401
22.3207
71.3005
122.223
177.905
227.955
164.93
73.394
-42.5359
-149.073
-116.512
-115.579
-138.716
-55.8778
-85.6524
-65.0069
59.8641
108.267
222.991
288.222
229.327
178.632
84.4572
-67.0178
-149.579
-51.8643
37.5542
6.81562
-53.1913
-12.7004
17.8497
-22.4418
-55.052
-20.5718
90.7158
59.9764
39.6075
95.4364
97.8464
15.2675
-42.4447
93.8081
122.488
-6.99663
-195.677
-309.485
-394.219
-363.815
-209.927
-90.1277
-9.27842
71.235
77.7588
86.6468
114.199
118.401
54.7273
27.2486
19.1054
16.2717
69.4665
-6.15016
-10.6947
83.2377
163.63
163.389
174.24
172.296
153.788
69.1581
-95.8958
-181.253
-184.17
-190.346
-165.076
-89.8053
0.0425265
89.8613
112.057
22.4346
-43.9634
-82.2107
-78.2295
-64.4806
-54.2824
-65.2886
-0.884617
55.9762
30.4994
10.5027
68.1193
63.9878
42.2584
-20.2611
2.79542
85.4782
108.105
64.7516
-49.7377
-13.0474
68.9448
51.2003
23.1214
-91.1743
-108.94
-128.233
-131.592
-23.4436
15.2899
-7.69635
75.1224
132.035
184.183
153.219
65.8523
-6.95438
-5.2714
-43.2775
-35.8506
-6.77598
-21.6351
-37.941
-112.842
-77.6514
-23.9537
-112.205
-206.878
-238.498
-148.107
-28.031
-27.3808
-10.1439
104.075
175.645
131.624
102.431
41.117
37.2411
70.0776
39.1561
23.842
46.7054
94.0194
166.077
154.754
83.1158
4.30955
-8.51368
15.7999
31.8068
3.91483
32.996
0.36083
-55.4175
-141.812
-285.564
-236.802
-154.178
-129.686
-127.135
-85.0664
-92.6264
-61.4494
28.7314
80.8743
149.032
240.624
237.482
134.575
33.542
-11.1827
-80.8176
-121.994
-81.834
33.5202
126.148
52.3667
42.6112
56.9553
18.9974
-0.203323
1.54821
-5.013
-28.1813
-63.2491
-34.2149
34.2383
44.2822
122.875
117.748
-52.4779
-155.143
-176.661
-133.276
-61.4042
19.721
69.1359
-28.5824
-136.948
-84.3453
-69.0182
-117.004
1.99308
178.42
190.608
109.304
38.7142
-18.8472
-36.0959
9.24911
127.671
189.122
145.956
107.982
83.7248
-27.9511
-248.755
-200.021
0.417801
35.2515
54.3381
108.477
26.4101
-79.5384
-92.2234
-27.5697
41.2885
12.6133
-69.6429
-48.1083
-28.7503
-36.4143
1.46473
7.60757
-65.0107
-83.781
-44.4305
-101.48
-125.127
-65.0892
34.5559
98.7242
61.1889
3.7274
20.848
16.3672
-2.98291
14.8915
-29.2048
4.53996
76.694
98.3923
120.345
23.4746
-67.358
-74.3765
7.34514
56.4843
59.2061
98.1294
112.165
43.2821
-34.4776
-59.2135
-42.6415
-6.72209
-1.85569
-28.651
-44.4768
-101.46
-32.9068
-26.0084
-80.728
-26.1917
79.1677
109.121
118.761
127.955
97.5796
31.2064
-65.9999
-120.121
-116.021
-97.065
-40.1203
44.5237
41.4959
1.96286
7.49209
9.92238
-29.161
-13.2409
-26.9176
-41.2756
-22.1976
46.6829
69.7168
52.8319
-12.8866
-29.3852
33.7979
75.4885
78.2822
-36.3541
-122.196
-136.024
-46.1195
45.4924
-50.708
-191.117
-121.079
-39.8598
-37.3587
-15.0013
-35.8661
13.5815
59.6433
68.5916
81.428
76.9178
24.0762
67.3074
99.6099
104.803
184.695
214.71
80.4547
-8.62625
-9.9398
34.0081
-29.0907
-76.2762
-75.2577
-31.2425
61.4666
59.1876
48.5285
24.8924
-8.90113
-73.7299
-157.309
-189.957
-164.877
-54.3914
-35.633
-81.2734
-89.4622
-85.2218
17.6467
54.0368
-13.4975
-67.2765
-0.810481
24.2477
48.7713
24.727
-6.41673
16.2892
40.0582
15.6103
68.4202
137.121
232.257
150.218
21.8542
-37.3169
-70.1823
-52.0052
-67.5916
-91.1243
-63.8763
26.1753
42.7924
42.5865
15.3335
12.4492
9.5074
-1.5743
-18.2289
56.3891
51.0432
-7.71576
-59.1866
-62.1727
-23.2832
21.5666
65.6707
35.6879
-40.4752
-22.3766
-11.95
-4.83928
2.0116
17.1229
34.9014
42.3138
-20.9602
-83.999
-199.414
-211.018
-123.21
-75.5797
-36.4181
-25.9592
-58.3417
-42.0344
8.0914
126.921
305.374
304.391
211.876
109.898
71.5464
73.9498
-15.0141
-114.416
-86.4719
-28.0615
59.2071
82.7617
82.698
63.4862
-14.6382
-43.2411
-125.208
-236.797
-232.019
-156.433
-72.2933
38.997
24.0192
-116.555
-125.062
-43.0278
52.2914
57.2682
11.4149
2.56309
71.3983
92.6184
37.0311
51.2453
110.779
98.0079
112.244
164.657
180.587
65.9035
-62.3644
-118.703
-92.6916
-4.00542
-27.0866
-119.803
-104.463
-36.9801
3.25092
25.172
-9.16007
-30.5808
-28.7679
-55.4368
-83.3917
-24.0057
14.9768
8.5129
19.5705
75.799
26.6151
-66.1135
-1.82322
134.438
132.643
32.2261
-55.1884
-62.7496
-3.98003
-17.3971
-26.5001
-17.2671
-49.312
-37.0212
-25.0226
-37.3688
16.853
107.817
105.668
5.72389
-14.3389
48.6843
41.7983
-37.7189
-64.8399
31.6002
24.344
-43.5862
-117.914
-112.489
20.089
72.1434
66.7581
37.6452
-21.2255
-104.969
-99.5087
-30.8435
26.9635
36.2586
54.9326
75.0553
27.4134
-12.7199
-1.10369
-33.2414
-39.9183
-38.6102
7.51112
113.214
118.007
54.3628
3.38174
36.5872
79.2657
90.4782
79.9068
-13.1275
-140.63
-134.384
-64.6883
-69.3738
-47.718
5.9477
13.7916
-11.14
0.0560504
73.7224
124.882
56.3069
-106.191
-156.165
-114.624
-124.83
-181.598
-67.4408
45.5415
83.5681
91.7063
122.959
133.307
114.199
23.5494
-42.2829
-56.0939
-47.8189
-15.9811
6.02695
11.1136
19.2506
45.094
39.1122
19.3354
17.5508
36.6385
43.5584
-7.47027
-65.3198
-22.4158
-82.3193
-129.512
-115.192
-51.6234
44.5383
53.2864
48.6995
68.7091
20.9445
-35.5444
-82.4546
58.6511
119.756
46.1124
9.48565
68.2864
94.0802
5.65705
-11.3687
71.5824
127.761
41.3341
1.92555
-77.4349
-207.373
-147.462
-74.8533
-125.936
-77.1783
15.2659
86.0271
77.6803
117.787
78.917
-74.4112
-133.722
-121.512
-61.4086
-43.5978
-64.3336
-24.628
27.1301
18.3853
108.731
185.187
145.794
77.1366
59.5994
49.704
41.7222
1.56026
-69.9063
-83.0177
3.65568
55.6292
25.1214
-30.1653
-35.5275
-23.4994
-89.5424
-126.846
-55.9783
-1.17799
-0.492369
-20.3228
-43.352
-36.4231
9.99351
-4.25709
-57.8229
-6.24512
46.1797
26.2728
43.461
110.951
138.274
89.4903
16.8326
-6.9556
-7.35987
-24.0443
-74.889
-94.9303
-23.089
-16.0266
-15.6629
-21.2476
-34.2902
28.0256
40.923
23.0872
16.7807
15.1738
-0.445968
-32.5441
-26.7744
-8.1442
35.9285
47.3752
86.5898
39.8865
-85.0892
-101.813
11.7189
83.0923
113.833
103.965
117.287
42.8483
-98.9506
-187.901
-190.597
-153.792
-71.3368
8.40412
22.5956
33.8204
28.3419
-27.1814
-50.1274
27.3304
102.993
94.4184
58.1693
65.7271
71.2177
18.8527
-69.7583
-48.2751
43.8352
85.3001
12.1059
-44.8677
-67.5946
-69.699
-6.84108
-8.33584
-41.9233
-9.54878
36.2011
27.268
31.2125
57.8674
-32.3276
-102.996
-150.465
-133.317
-51.8034
5.98864
88.5484
74.9397
22.2092
40.5774
96.7323
85.6349
52.642
31.1962
20.9402
25.0664
-9.93306
-47.5565
11.2281
51.1288
-13.5373
-60.4804
-59.6072
26.4935
83.6105
51.7451
-14.2289
-38.3739
-98.2418
-152.902
-157.78
-103.366
-73.9442
6.33702
91.0944
76.6542
39.0968
45.5002
69.1064
96.4925
112.496
76.5456
41.053
-8.64427
-94.8801
-74.4422
-76.7516
-64.8763
52.5304
60.1712
23.9646
-5.88491
54.4584
18.7543
-55.1699
-56.4221
-3.88611
21.5758
-7.06017
-77.9985
-54.4391
43.2629
83.4492
48.6782
50.6593
18.5823
-8.24506
-51.0994
-1.18955
50.9496
39.5707
32.7118
-56.7686
-80.9866
-57.196
-35.1745
-35.8564
-15.4053
-34.2513
-74.4641
-79.9532
-21.205
20.619
35.4778
66.4096
37.9578
39.3172
82.2397
50.7617
26.8473
19.8714
-31.0503
-62.8742
-29.6662
45.8122
37.3983
-22.5427
-57.2987
-12.2046
86.583
64.0148
-27.8371
-16.9863
20.0434
-12.9015
33.7623
70.5706
61.9214
31.0933
-30.8968
-58.1921
-2.3914
-5.08267
-14.8054
17.911
12.0609
-18.5163
-65.2323
-76.8788
-81.0227
-40.9278
28.8555
35.4126
10.5968
1.45969
-26.0598
-33.6702
-72.1282
-114.16
-58.5707
-14.3131
3.59048
41.3486
49.8159
36.3996
64.6245
93.0927
81.7134
-18.0995
-48.6845
-68.3275
-20.0502
-10.9468
-20.9398
7.07344
83.9851
23.1752
-6.4161
40.6464
102.845
106.706
54.2585
19.345
-20.7223
-30.6269
-7.45556
-55.1755
-36.549
31.8068
27.4048
4.71571
-9.27234
3.7785
42.0045
38.5903
-34.4212
-26.6239
-7.08879
-11.2726
-33.4911
-57.1971
-51.4801
-33.5511
-7.6063
-6.52032
-17.1459
-12.7567
25.9031
20.2175
26.7766
22.0258
-57.9237
-104.101
-149.307
-136.656
-89.9006
-36.2978
35.3734
53.3491
40.8346
66.7021
111.292
131.355
141.037
64.5811
-18.3791
-41.5215
-71.1825
-40.6824
-58.1713
-8.01765
2.56007
-14.5974
115.113
153.984
85.4159
32.9634
13.7749
11.9896
35.5214
22.5394
14.2474
-1.34107
-104.238
-155.254
-167.346
-77.9877
-10.1382
-2.37258
41.7054
28.5626
18.7897
20.7522
-15.4196
-1.89409
50.4386
83.2773
60.3753
30.6449
1.9986
-13.6185
-20.3796
-41.1449
-31.3094
18.0448
43.0326
30.1944
28.5388
23.4619
7.11272
-11.0276
21.3001
-23.7021
-110.774
-195.062
-144.114
-111.208
-123.159
-71.5794
29.6988
40.2227
21.4915
19.7157
36.0332
60.9341
102.002
131.872
110.698
100.159
54.9843
-18.1688
-6.43846
39.8694
12.0592
65.4405
34.2282
16.0109
44.8595
26.785
-26.6899
-61.1531
-69.8492
-22.8922
-11.9896
-28.2544
-14.9456
20.4826
19.1478
-59.072
-99.9007
-77.4049
-64.15
-8.37465
30.6752
6.96123
-5.62533
-17.245
-10.9566
-10.1138
4.35535
60.4827
51.4153
-0.0336998
11.7261
27.2106
-9.86984
-73.7783
-50.4807
41.2952
75.4634
73.4332
54.9942
6.73315
22.3469
21.2963
-4.91963
5.11887
30.3413
21.2653
-59.3361
-104.558
-80.1558
-65.8159
-27.5276
-34.2046
-26.7926
3.71236
17.5374
-52.455
-84.2983
-6.26732
62.6838
63.7725
53.528
65.4562
85.2323
89.5576
-0.639541
-32.19
15.8858
59.8951
51.342
-22.359
-66.9403
-46.41
2.61208
11.1196
-47.9992
-15.023
24.2298
40.4642
14.6751
-14.7829
-19.4586
23.766
2.85744
-30.1321
-11.7676
-15.8245
-32.0149
-67.2563
-110.748
30.0272
116.269
100.251
81.6123
31.4777
4.80079
0.970962
-6.32551
-58.8031
-129.504
-144.837
-91.7647
-59.3291
-32.2698
7.07277
23.6763
74.6789
102.471
70.7201
29.4067
-59.8951
-85.1604
-11.5411
4.32641
24.9078
52.1476
85.8556
82.749
54.6792
48.8395
69.131
66.5084
20.3619
-31.7758
-57.5893
-45.9867
-18.9598
-29.8658
-57.857
-61.6053
-3.65546
0.288239
-40.9808
-47.3966
-7.77972
31.4896
35.153
40.7018
103.905
64.2847
-31.3076
-64.9473
-123.325
-194.317
-135.374
-9.56342
-47.6729
-83.327
90.6846
232.822
166.756
26.2142
-7.472
-33.0794
-10.5874
-10.4162
-2.1367
1.29183
-32.1353
-20.7363
29.0029
41.3806
39.2444
92.567
74.2102
9.45203
24.6377
56.6734
-3.89389
-55.4795
-40.3909
33.0035
18.5638
-7.22646
-53.7214
-34.0552
9.78498
-47.5023
-71.0917
-22.1065
27.3265
9.99496
22.6084
21.4553
-20.8748
-73.9707
-87.0673
-88.32
-69.4157
-34.3626
3.10463
46.4539
28.7214
-16.4046
-30.9318
-4.17459
33.0657
90.3135
82.3844
11.4035
-2.42223
5.6187
44.0285
63.9859
37.2332
21.5499
10.7414
51.0329
65.1529
8.06955
-141.955
-205.368
-114.857
22.7936
17.3695
-38.1
-48.6643
-32.9999
-33.8612
43.7624
95.94
115.019
74.9505
52.9919
76.7107
80.5372
31.7962
-10.8639
-36.1944
-34.3315
26.4842
62.7846
39.8198
15.8904
15.3504
-5.83608
-68.9772
-60.2217
-25.8871
-23.1694
-5.73447
-15.6121
-36.5297
-20.8686
-43.8059
-71.1296
-39.5487
-61.0289
-60.4675
-16.978
38.6725
57.847
7.04694
-16.9472
-24.6469
-57.4578
-88.0106
-57.1335
21.497
92.6854
73.8638
21.1593
14.4756
-20.7131
-65.0032
-52.2879
3.08128
79.4282
128.523
77.922
45.2004
0.0153396
-102.791
-105.159
-44.4403
33.7222
116.782
135.792
118.866
22.6055
-49.623
-34.0297
-48.0537
23.887
109.074
150.171
137.502
27.2572
-52.5508
-53.0831
-73.3155
-31.6392
33.077
6.46982
-61.6399
-88.3731
-64.9948
-91.8312
-129.399
-104.664
-63.6693
-62.0365
-38.7919
-30.752
-15.8013
2.29381
18.2437
26.0885
-12.775
-12.2333
8.29259
9.96752
26.874
63.4532
95.7948
63.0688
11.5529
33.2082
49.7775
6.88352
-28.0123
13.4394
13.2567
-7.36071
7.14491
-5.69005
-92.9414
19.7847
118.04
69.7542
57.7659
46.5058
97.9716
75.9959
-35.9183
-87.9276
-97.0544
-117.212
-111.558
-67.7926
2.4106
54.7784
101.325
82.2713
9.41863
-9.11106
10.49
-35.7125
-62.2059
-23.6842
-3.7476
17.2289
-0.966046
-29.4289
-35.785
-60.194
-43.155
-8.99596
13.3167
39.3424
23.495
-5.49473
-46.1965
-49.2387
-6.12567
7.20204
36.6286
14.331
-2.65144
-5.10595
-17.1714
25.7618
70.6523
78.4086
88.0866
91.9767
24.8475
-62.7605
-78.0642
45.2327
77.0842
-19.1599
-50.1064
-54.0864
-48.4801
-25.0854
-4.22116
-33.6802
-79.8102
-24.9069
29.564
-5.56864
-32.7336
-28.8621
56.9466
165.347
111.661
93.6636
41.7338
-88.7509
-132.944
-86.5384
-52.2846
-25.429
5.62945
-1.66938
-42.9642
-27.1644
3.90288
2.41394
12.8673
39.5594
7.39069
-8.06308
12.382
21.9307
61.0215
63.7818
31.0403
-8.04591
0.912923
-19.1561
-17.1868
-9.54968
-45.0888
-49.6425
0.588515
15.5769
1.96814
-6.96191
17.2414
-9.14559
-16.8511
-5.7552
2.54455
2.75872
19.619
32.4845
93.8343
10.6024
-73.9733
-74.3559
-49.0641
25.6009
63.7615
42.0572
43.537
11.8213
-0.966116
-13.4519
-44.4769
-56.1781
-8.13792
42.4131
33.134
-61.3721
-67.4105
-6.26164
-40.4407
-13.1234
38.8924
86.6595
83.826
45.9706
-14.039
-4.97611
47.0099
53.6179
-24.8123
-52.8024
-47.5664
-50.4328
-25.5204
-69.1966
-82.5705
-3.21692
4.00201
-20.889
21.177
84.658
105.504
80.2812
11.4137
-103.514
-86.7946
-75.809
-124.146
-118.823
-51.6485
38.4267
58.0224
75.7486
100.5
148.103
138.239
100.232
86.6305
50.1302
-52.105
-120.375
-67.8408
-53.6342
-14.8809
81.8831
95.325
84.9925
41.474
-33.3626
-47.5624
-71.737
-102.255
-84.5953
-99.8426
-117.288
-103.897
-47.0198
-13.2133
18.0778
68.606
89.1855
55.2974
54.6788
42.4168
42.4596
30.775
24.8199
36.6951
67.489
15.2636
-44.2679
-60.5645
-74.3709
-100.575
-40.3294
-12.4672
-33.0437
-25.4379
-0.856002
49.1066
61.1055
-3.92009
0.707
30.2682
0.942056
-32.2043
-31.9884
1.39222
35.2451
76.8638
135.128
91.1464
48.8034
53.783
-22.4335
9.62352
43.7294
-23.079
-100.625
-122.636
-118.454
-43.1493
-25.2975
-47.4092
-26.5563
43.0768
53.9863
21.4542
19.8553
21.6671
-38.9969
-26.0975
8.26691
56.3309
45.5532
-54.6796
-30.5937
7.2582
46.1139
68.9207
55.3346
-0.0877066
9.82424
72.2027
0.816629
-129.938
-166.929
-143.523
-102.184
-24.4394
5.27548
52.7046
111.131
48.3971
36.0081
56.9042
41.1147
10.5852
2.30904
8.55328
37.0602
21.9667
-14.8663
-49.0456
-11.1716
49.5074
62.3479
63.1861
83.9333
65.2007
9.23111
-98.4488
-142.527
-127.371
-84.9946
-46.8781
10.0855
88.2033
75.2199
20.573
10.8258
14.3252
5.8557
7.80242
-2.33391
-38.6808
-37.6819
-62.1944
-100.801
-120.971
-27.7392
107.713
107.727
63.3115
29.2138
-4.21869
-41.5559
-13.4728
0.233026
1.10127
28.4992
56.9407
48.7374
-71.8627
-90.9444
-2.09657
33.9125
43.6702
14.6243
-1.77751
-25.812
-9.09319
13.4117
30.9273
26.6509
16.0945
15.767
52.3143
91.8485
52.5048
71.9207
59.0886
-18.3543
-84.2127
-110.786
-55.7552
-43.41
-91.0136
-72.0029
22.5417
47.7626
3.61757
-23.5694
-4.92674
-17.3083
-33.0934
-81.6689
-118.063
-62.9793
-9.36301
-5.52621
28.8531
21.0028
50.058
66.5542
66.7549
78.5427
82.0691
82.5179
54.1063
13.5159
-27.0669
-5.35009
41.7462
59.8877
16.1966
-11.4884
-34.9773
-82.5941
-34.1657
-28.3075
-59.15
24.2414
34.5413
-4.79786
46.0581
45.567
22.6874
47.2356
-6.45093
-64.8619
-68.4769
-107.559
-125.334
-81.0665
10.5838
39.8443
14.8768
-25.868
-75.0296
-88.385
-72.876
-60.32
39.2021
170.697
144.264
66.4144
60.8473
42.946
23.3699
51.8846
8.98809
-27.4194
50.7
126.191
91.1842
-28.3121
-101.774
-80.5115
-28.8343
-31.0405
-22.291
-4.23707
4.15443
-23.8824
-48.1297
-40.2049
-35.5172
-58.259
61.0041
106.843
73.9098
38.1182
-35.2303
-119.738
-100.11
-13.2013
52.7519
57.7492
30.3728
26.1737
52.1132
33.1575
-24.6222
-66.1072
-82.2026
-95.2165
-75.9722
-39.0207
-18.281
10.2459
83.0271
43.0368
-28.913
9.26241
31.8804
66.2194
92.6662
71.4771
52.7799
25.8364
-0.283122
-4.70644
16.1363
48.9626
74.0818
89.2318
51.7469
-17.48
-136.242
-183.305
-148.143
-70.7817
-86.3611
-91.9014
-15.3055
-7.76322
-14.6253
0.658816
2.15234
8.41694
-12.5998
-6.06962
28.443
59.7917
77.7735
63.2084
39.7469
29.5713
9.94849
55.4273
82.9974
71.7226
34.6565
2.79252
17.886
70.3365
44.8447
-38.0161
-119.435
-99.2714
-13.711
10.4201
-34.1574
-74.9286
-93.6856
-49.3151
-5.26922
12.2132
42.6963
25.7567
8.34879
67.58
108.24
23.6853
-68.9523
-39.0194
-23.7737
-21.5569
39.7262
59.3851
3.85606
-90.1326
-68.4253
-66.7981
-56.0169
-26.2252
-4.10471
30.4368
-4.94507
3.6691
29.7053
-1.3343
32.9165
85.4516
48.2904
-13.9283
6.74063
55.1379
59.7286
32.7209
-18.0045
10.9896
34.75
38.4572
-24.8807
-21.0356
18.3701
14.2154
-4.23299
-36.8368
18.8419
33.1818
-38.4435
-56.5041
-26.0011
-64.5428
-120.844
-100.373
-49.6175
-20.5822
16.9304
40.572
-2.20221
-24.3077
27.8386
42.7891
13.0422
-38.0257
39.9226
63.1555
-7.40682
18.4402
43.9288
56.657
44.967
-11.1535
-14.8678
4.42014
15.7259
21.6773
14.5115
11.9705
90.8493
152.803
51.2657
-61.9149
-85.6308
-126.115
-174.296
-147.279
-92.6973
-65.5903
-14.5266
43.8668
83.7068
116.326
118.398
103.992
68.0666
29.2708
23.3272
3.415
-27.9586
-57.5286
-68.9722
-36.1299
56.9846
92.3888
14.4637
1.23819
-45.7496
-49.1648
-39.3906
-48.152
-72.4434
-71.5062
32.4397
61.8517
-40.677
-67.5158
-95.5154
-42.4841
8.57122
2.93812
21.2646
35.6008
-32.9086
-15.5183
57.4369
63.7147
69.7005
55.0593
73.7366
89.9744
101.151
31.4408
-21.1756
-6.8317
-29.7024
-102.721
-47.9085
29.2667
66.3378
-43.7774
-124.67
-102.487
-46.5167
1.90146
29.2214
25.0926
20.5462
21.6038
0.892954
-56.6246
-71.6408
10.9913
31.0068
19.3445
46.8361
92.6226
52.3042
-7.30455
-32.6845
-7.30532
91.0925
128.245
32.9888
-73.7944
-64.3336
-60.0953
-68.1704
-10.8016
11.4827
21.932
14.6508
4.02455
-39.2404
-57.1388
-26.3677
-39.9884
-24.8123
-29.5142
-20.7144
47.3706
46.6772
27.6755
58.7125
63.5125
23.8982
-19.3375
17.8362
-9.06837
-63.0238
-52.7413
-42.3435
-28.8854
26.0274
110.598
80.546
15.3856
-4.74004
-62.1821
-106.906
-59.4927
-28.2945
-24.2542
15.5955
56.3234
50.6073
44.1653
35.6799
44.0288
78.9784
18.5458
5.9078
14.2985
43.2467
-49.4631
-175.393
-140.285
-77.3832
-38.4305
-10.9328
-8.07526
13.5083
2.17985
16.3191
79.9946
88.038
79.119
53.9713
16.727
6.27039
21.5621
2.20556
-8.05941
-67.0966
-88.245
14.1774
86.9969
78.4621
67.0177
56.9723
18.5066
-22.0769
-24.7795
-94.2671
-75.0675
-53.0182
-41.5225
6.58552
57.1648
41.2078
-22.5087
-64.0815
-100.845
-117.364
-84.0493
-1.71442
44.5655
42.497
31.8458
11.1423
58.5334
59.7498
8.52619
-5.82127
33.136
58.3665
49.5496
0.25958
-55.7337
-86.8906
2.37876
49.4903
0.719843
-58.1637
2.05916
50.4779
22.3198
-2.95892
15.3111
32.7399
17.2259
9.98407
19.2057
54.1026
79.6967
89.3575
63.2291
1.13717
-122.005
-183.347
-155.858
-67.2971
18.5209
66.7667
0.750379
4.03648
17.3282
11.009
-7.2348
1.25714
22.9187
28.1149
-10.0497
-10.1358
-43.5491
-94.216
-76.4477
-47.795
13.7414
54.9536
6.28199
13.5541
51.0972
46.5377
27.8194
-0.108842
13.3598
46.9451
47.3759
44.9084
-5.41433
-19.9287
21.4486
48.2278
16.6201
-17.797
-68.9712
-41.8748
-9.78313
11.4133
85.9007
75.3215
6.43487
0.837625
19.623
-28.4651
-52.6621
-83.5994
-91.9905
-68.6276
-5.46393
38.6394
13.1079
-18.0834
-2.75531
47.5032
45.6356
-27.1024
-44.2796
-34.4396
-34.6749
79.4815
148.49
25.1491
-172.167
-211.431
-146.886
-90.1956
-28.265
23.1702
31.869
35.3116
62.0069
70.4683
62.6942
83.5029
102.767
117.451
142.767
144.628
101.727
-27.196
-77.0821
-32.4107
64.281
122.625
110.471
75.372
55.5519
11.1286
-76.0279
-160.7
-170.583
-177.176
-215.07
-206.142
-154.34
-125.701
-47.7991
-14.0174
0.904469
-9.59705
-6.55775
51.4094
120.978
126.268
103.155
104.375
73.6646
2.72547
-12.9407
14.235
67.3146
68.4579
41.717
25.4559
12.0164
-7.86496
-54.4736
-27.4373
8.70593
-22.5123
-23.0345
-2.14033
29.2001
54.5928
59.1864
5.7862
-46.3052
-112.741
-114.321
-6.45056
17.346
-29.5246
-121.825
-177.862
-129.506
-15.8489
40.6752
54.76
100.762
169.432
173.386
108.208
76.1585
168.688
98.4874
-79.0581
-152.366
-132.613
-114.829
-133.661
-75.7977
63.6259
244.805
333.385
261.234
54.816
-127.586
-287.52
-373.803
-275.369
-101.171
-3.28512
13.3562
-36.4297
-23.0825
16.421
63.6504
138.078
211.107
255.74
199.005
291.996
351.981
99.6114
-284.153
-467.418
-370.03
-40.2728
-28.607
-211.314
-366.434
-333.458
-188.071
-147.908
-29.8723
190.7
255.891
205.604
157.258
204.691
353.185
277.787
30.6055
-55.2559
18.6002
113.054
159.469
82.1044
79.6505
80.471
52.9115
-2.54884
-48.3156
-3.31727
-40.8471
-77.3375
0.200357
202.789
337.953
166.338
-289.901
-731.43
-837.706
-724.566
-567.539
-287.213
-68.1869
55.4193
240.614
492.598
615.774
513.735
273.395
25.1438
-131.178
-163.841
-141.646
-118.04
-185.09
-150.433
-41.9703
113.771
180.619
241.85
411.377
479.129
396.578
244.986
152.388
93.1529
-81.2612
-264.38
-319.56
-238.444
50.4037
268.128
141.171
-105.441
-344.133
-542.258
-544.155
-437.017
-262.721
13.9343
175.177
137.526
158.556
138.946
38.9129
-109.092
-78.4578
100.402
277.227
336.696
176.21
-33.0017
-116.71
-103.273
37.6837
169.449
252.673
325.439
277.534
52.4341
-198.257
-361.758
-403.766
-293.105
-203.005
-88.1295
53.1777
101.713
13.7892
-106.277
-163.13
-83.7085
67.7699
69.7813
3.81467
-10.6506
115.824
147.998
75.2808
96.094
301.255
346.86
371.731
310.868
134.877
150.982
158.756
-80.9529
-406.984
-633.604
-817.579
-762.472
-247.441
103.796
57.4762
-21.8996
-171.22
-300.757
-259.416
-63.6865
127.916
359.534
365.537
303.058
334.41
238.129
178.232
248.887
332.409
448.297
690.287
764.43
341.034
-79.2818
-229.534
-276.744
-254.136
-122.255
-133.68
-231.076
-250.809
-271.381
-326.736
-358.307
-416.273
-564.27
-626.889
-523.712
-281.555
-20.18
59.9954
-37.0491
-32.1879
65.458
257.836
499.417
592.223
488.741
373.521
188.888
-86.378
-234.86
-293.194
-235.378
-77.9082
83.2047
183.327
341.524
366.733
270.351
176.795
128.516
85.8959
135.862
81.0317
-75.6813
-142.655
-9.69931
192.63
102.027
-168.892
-405.004
-347.382
-37.626
-33.4666
-255.928
-538.186
-257.788
333.508
212.08
-111.725
-367.52
-427.166
-311.736
-116.44
34.1678
102.098
139.379
153.696
273.01
401.758
478.553
431.486
249.23
98.9224
90.8865
152.411
-49.7884
-366.706
-197.984
58.5623
82.3234
56.2913
24.0134
-50.9893
-117.057
-90.8403
-21.616
-137.199
-164.453
-134.928
-150.894
-114.949
-150.967
-49.2469
68.9808
152.823
104.573
-14.5828
-6.69663
56.0416
101.978
50.6102
14.0211
20.4663
56.5771
39.4456
-82.6171
-58.9238
8.5124
-172.639
-220.718
-57.6948
-33.8523
-41.5843
45.8816
80.1646
218.495
415.72
251.124
30.9685
-200.446
-349.785
-312.248
-160.614
-18.5761
40.8341
98.6167
203.391
239.987
165.016
60.8017
-29.9026
-21.6622
96.0545
226.831
177.193
49.5801
-141.456
-177.459
-146.057
-39.8743
64.5413
50.2064
-1.35946
-54.3366
-241.813
-364.788
-281.465
-187.647
-57.478
22.6153
105.364
106.698
20.6531
31.4445
132.238
110.364
-9.53842
46.61
156.67
117.455
109.414
147.866
162.952
112.69
54.3802
75.2237
1.99617
-132.097
-145.749
-5.71752
-25.4907
-81.131
-83.294
-107.207
-107.482
-49.633
-35.5794
-110.065
-170.111
-127.922
-48.4791
32.6132
-25.7662
13.2744
189.138
195.573
129.796
102.352
69.4949
26.3193
-70.2567
-101.93
56.8089
170.135
198.813
200.896
48.4939
-160.382
-395.139
-516.634
-396.565
-83.0812
89.8611
93.5381
-6.21263
-123.904
-82.1613
-0.957064
120.754
146.269
243.365
325.709
305.734
208.325
89.8669
4.78477
59.6285
107.06
70.2282
-18.92
-188.125
-296.75
-152.022
-54.8257
88.9295
169.648
143.749
64.9955
-39.949
-97.7966
-112.843
-129.654
-172.681
-215.289
-183.82
-101.805
-18.0684
79.8344
253.954
376.039
231.476
-40.2771
-166.432
-159.61
-119.043
-109.098
-62.9848
-44.1107
-132.226
-150.079
-98.1335
-42.6656
-3.11755
27.0567
52.5745
24.4384
37.686
99.7972
168.857
206.906
231.833
189.138
66.6397
30.2963
53.1745
123.137
89.7631
26.9508
13.1488
-47.69
-118.107
-115.651
-202.164
-227.622
-243.38
-294.569
-219.903
-15.117
94.9183
160.637
187.642
96.955
-32.6409
-13.8231
50.6734
71.8848
27.4076
15.3606
90.9193
115.692
87.822
46.2997
65.5615
116.022
199.996
271.212
163.495
-45.4245
-316.922
-530.055
-493.438
-323.192
-67.8998
72.0017
46.0048
5.84624
98.6323
149.508
57.318
49.2813
73.0654
94.0263
96.4038
42.2551
-29.3028
-73.4087
-31.3688
-73.8807
-42.0079
99.0006
182.213
187.537
228.772
124.35
1.65035
-69.5567
-96.9199
-1.57807
-17.0145
-108.715
-194.217
-306.35
-278.988
-167.117
-157.892
-211.847
-136.559
25.7981
166.096
171.932
193.126
221.273
108.022
80.2038
118.731
226.692
275.076
94.7541
-16.0546
-89.2145
-199.116
-166.772
-34.8253
18.1963
89.3633
185.218
164.885
70.127
32.8927
108.234
121.791
6.10431
-165.285
-313.964
-395.173
-372.739
-340.078
-286.627
-175.072
-19.2877
134.041
170.326
161.524
162.473
167.351
151.502
152.086
151.902
130.478
107.443
37.3269
18.2126
47.8148
77.9941
120.428
118.045
43.7976
-24.6427
-18.2739
-27.3443
-114.137
-192.04
-229.35
-259.332
-258.51
-261.19
-195.96
-73.8288
6.87332
-11.5731
-29.7418
-8.20578
61.9238
195.953
281.354
203.872
90.8644
97.9231
134.833
114.787
96.2982
97.8988
111.794
83.6804
96.0958
118.003
29.1471
-126.949
-186.018
-227.086
-283.867
-243.377
-141.197
-65.2109
-8.34291
63.4577
131.331
131.779
80.5906
41.6888
79.1478
23.174
-98.2621
-140.606
-158.291
-80.3684
-37.5887
35.0681
129.441
181.601
193.583
161.74
83.3134
-25.3252
-167.625
-223.402
-231.811
-168.684
-93.8565
-23.1275
71.0631
164.813
222.642
269.947
238.092
61.2293
-70.3421
-137.831
-167.285
-222.189
-272.446
-234.917
-138.314
-15.9569
157.982
221.358
196.671
175.561
84.2416
-17.6528
-38.3559
-1.72618
38.9633
39.4871
92.8669
158.451
121.295
11.1709
-118.05
-69.9328
33.1418
29.4907
33.6803
28.3983
-19.2922
-68.6781
-101.919
-81.7395
-26.0069
16.4287
23.3388
-18.6992
-86.6077
-99.1518
-171.246
-203.576
-122.385
1.05168
82.1876
101.843
104.805
116.972
41.4253
-36.5973
-73.4286
-54.5236
-54.6316
-45.5636
-50.7842
-45.7577
-40.9124
5.77339
49.8976
45.3816
47.0722
79.6263
60.9176
39.1952
133.402
305.99
221.093
77.5534
7.6373
-67.9466
-136.54
-220.549
-171.571
-110.066
-50.5293
42.7727
47.1217
38.1881
43.575
80.6745
91.7966
107.763
133.894
154.837
56.8072
-150.127
-170.77
-131.081
-105.929
4.94648
57.1581
47.6286
-4.58375
-86.1119
-111.253
-92.3681
-53.6344
-24.0988
16.4385
129.35
24.3737
-133.526
-138.463
-103.68
-37.1268
4.44197
33.4706
4.1388
-47.2754
-55.6091
-26.6232
10.4269
84.2207
174.171
189.672
141.003
116.08
68.414
10.4426
-74.5627
-49.2634
14.7286
50.444
68.6357
34.9584
-21.774
-60.8789
-51.1644
-20.7161
0.427854
68.5704
130.311
108.326
41.4207
-37.9596
-127.184
-188.019
-174.202
-179.628
-248.28
-146.885
-11.533
0.340906
-33.6748
-11.3838
37.6759
113.771
184.513
192.934
135.905
55.8529
10.8201
-30.161
-35.4064
2.53831
34.1821
87.0852
127.179
116.7
51.6779
-63.3206
-102.02
-90.9288
-83.5342
-70.3411
-51.1704
-27.2186
-9.5478
6.98485
15.1352
18.7011
-39.0959
-28.4856
-4.57484
13.6885
92.225
67.2453
-74.5998
-90.4572
-50.0642
-13.4996
5.32102
21.7772
59.1706
101.977
99.9524
67.3324
-31.5704
-133.092
-127.719
-29.2822
11.7105
24.0494
-38.2879
-101.941
-108.448
-28.1185
93.1124
125.6
96.8787
90.5346
22.0738
10.2513
46.5573
28.1169
-25.9026
-59.2444
-62.4048
-43.9713
-3.8104
39.3361
78.9647
95.921
78.701
40.6691
-56.6393
-98.8212
-60.1673
-1.59599
42.7696
48.2929
17.2885
-34.7254
-88.3109
-120.163
-88.088
-62.9063
6.42934
79.5595
46.3512
-53.4337
-96.8857
-111.435
-67.2201
32.0142
119.104
127.331
69.3857
31.7716
-8.0874
-32.1219
-6.25701
-12.3565
4.06029
35.2685
2.30387
16.0464
83.5719
90.5399
73.9091
-30.6987
-63.8846
-81.2609
-106.797
-83.8641
-33.4571
3.03273
43.5284
43.8826
17.2155
3.55412
53.2971
159.63
159.269
47.3063
-58.1654
-96.8577
-139.414
-167.737
-151.593
-43.5282
56.5445
93.2311
93.7283
44.9331
32.1822
57.8475
16.3879
-45.2696
3.00027
58.4887
121.24
6.67444
-101.357
-95.4799
-45.2692
-14.0989
18.0127
75.4647
37.7627
-13.952
-35.7841
-47.5466
-9.10051
31.7957
30.614
24.0213
32.7246
10.6977
-33.0458
-67.9161
-143.15
-147.935
-90.3702
-15.2887
31.0914
-12.3621
-14.6378
32.1926
129.082
186.969
123.19
51.6223
-17.8125
-123.78
-157.424
-88.0569
-20.6
-4.07356
10.3392
36.3888
29.2321
71.3198
66.3513
26.6489
45.3268
72.7754
49.0405
42.874
35.2994
-4.95894
-9.84133
-43.9542
-67.3782
12.9034
47.5876
-20.9497
-86.875
-85.046
-43.2799
11.3506
15.5113
38.7286
72.0139
80.6933
59.4483
34.5092
40.873
40.1992
-27.6965
-139.307
-179.78
-137.141
-71.7821
-30.7113
22.932
17.8105
-50.6216
-71.4523
-47.0974
30.0418
143.91
144.247
22.2089
-130.416
-153.837
-137.281
-21.158
95.6104
124.138
163.151
165.52
107.792
50.3658
27.314
-31.277
-90.8822
-33.2915
72.7659
71.5035
24.2975
-10.0346
-63.8721
-22.4479
54.5235
71.3502
72.4138
13.9533
-82.4222
-132.209
-115.921
-47.7001
-10.9403
-25.9809
-66.2111
-23.8372
43.3021
75.81
38.4994
-9.01141
-36.6149
-59.5647
-47.2974
-48.6783
-34.129
-17.6989
21.2149
-8.22098
-48.4666
-51.2037
-52.6834
-46.8755
5.66198
33.9739
61.4865
75.8577
98.1096
75.4149
49.8497
63.6452
50.0611
51.3398
63.6034
67.9272
16.2369
-59.1359
-132.905
-114.253
-43.3298
-6.20338
52.6602
107.155
155.185
203.443
170.184
0.614633
-131.845
-170.939
-190.009
-202.173
-182.928
-158.791
-121.697
-36.3035
85.384
153.738
162.453
108.518
61.18
89.2911
22.2848
-68.1303
-125.45
-124.246
-80.6198
4.77674
67.8041
108.269
79.7749
77.5719
80.1358
36.0469
17.1696
24.9941
2.43245
-19.5083
-20.0486
-36.4764
-83.4779
-104.823
-68.5607
22.2686
59.4538
33.6108
-16.5158
-34.628
-74.8716
-76.0552
17.2597
87.541
107.999
81.6943
56.2236
38.9007
-30.2721
-95.9922
-110.485
-76.8497
-73.0406
-90.286
-47.7777
-37.791
-17.7393
32.6043
72.1498
110.599
130.45
103.87
68.4621
42.7098
7.46969
-32.8115
-81.046
-94.1803
-52.1562
12.9576
66.4018
51.8687
48.0629
87.923
114.342
54.7943
21.9191
-24.9904
-95.4438
-112.077
-73.1279
-53.0269
-74.1349
-63.647
-88.5602
-76.7371
-27.4111
12.302
48.8691
62.8225
71.8711
70.8685
41.4921
7.00924
-45.0559
-43.9408
-31.5766
-39.1143
24.2088
88.9551
91.9305
73.2466
59.45
8.40743
1.71702
58.2803
49.9098
-47.4482
-156.048
-180.862
-161.569
-85.8258
-14.8174
17.0152
59.1543
76.6172
36.0869
7.49532
16.4592
-45.6371
-60.0255
29.0724
80.1444
81.7374
29.3173
37.1081
69.5268
102.649
94.8817
125.571
197.43
108.234
-50.3617
-155.368
-228.588
-218.131
-130.635
-64.9619
-31.3394
-7.03565
-20.5656
-35.3442
-7.21421
25.8186
32.9767
-14.4418
-37.0374
-1.28138
57.3039
21.7474
-51.453
-31.9316
1.14272
38.8254
90.8698
79.1698
30.0825
35.6986
33.8318
40.6669
19.8353
-15.0628
-55.4295
-56.4968
-29.2716
-41.0064
-53.9111
-39.3547
-21.7248
1.19317
25.4639
59.6005
114.864
109.598
68.3329
32.8133
9.49964
-24.838
-62.652
-57.5707
-25.524
-23.1294
-25.8172
-34.0057
-24.6931
-13.1122
-13.7089
-14.0962
22.5267
47.8319
8.11263
-45.528
-48.3633
-42.8936
-37.555
-17.5723
24.9987
70.8153
68.0462
26.0582
6.9309
9.06703
-30.3493
-32.6693
-39.2422
-37.2656
3.27703
0.0535015
26.7203
46.9587
103.716
172.973
145.09
44.7709
-124.124
-232.506
-247.077
-164.426
-47.763
17.815
51.0109
34.2331
44.7399
95.4014
125.685
116.677
106.42
37.9251
-56.4393
-69.4857
-103.789
-149.246
-78.8521
-3.59538
84.9679
160.676
167.074
105.106
57.6769
23.0798
-6.10216
-14.5304
-17.7275
-80.1797
-110.779
-100.37
-127.081
-85.2449
-16.0429
1.88528
-24.3829
-46.3002
-34.884
29.4208
69.2603
79.2232
64.0121
17.8355
-41.2554
-76.269
-46.656
2.54107
6.25632
12.9776
17.202
8.85824
-2.39203
-3.31188
10.1851
46.3181
24.7696
46.0272
53.3085
60.1988
74.8556
43.3045
16.8119
45.6904
41.338
-13.9443
-65.4351
-91.1964
-95.1422
-70.5723
-27.2311
-9.8386
9.65601
28.4195
6.91676
-42.5399
-24.7061
-12.764
-61.6633
-94.351
-39.8503
27.2787
46.2704
32.6016
35.461
62.0209
43.5025
18.7019
62.9804
134.413
90.1221
30.3079
17.3921
18.2232
13.0948
2.34606
-7.65434
-71.3833
-141.186
-189.214
-174.161
-134.559
-87.236
3.9472
64.9003
77.9077
101.806
94.8629
54.1079
-29.7852
-84.5341
-79.7104
-37.1825
-11.7443
41.8054
90.9481
125.301
131.204
139.593
114.446
34.0404
-36.0853
-35.2611
-19.8084
33.74
2.69146
-60.0925
-43.4492
-54.7818
-77.1997
-30.8135
-38.5097
-53.7295
-46.4795
-61.8906
-96.5779
-74.9241
-28.6235
29.9245
132.824
176.98
120.714
-0.660836
-181.383
-246.674
-93.3988
75.8475
137.688
123.149
56.1591
39.6981
70.6668
54.7593
22.8362
9.74668
-1.5817
-29.0672
-56.4537
-32.7004
-22.716
-13.4163
28.3625
42.3224
38.0958
12.6524
-16.5354
-53.6799
-95.043
-68.9494
-55.3431
-24.3097
15.8041
26.7225
26.3369
32.9769
37.1118
-9.10789
-3.41503
-4.28164
-25.7253
-26.627
-33.9305
14.0584
108.811
77.6824
11.4062
-32.5797
-29.3347
-8.51543
-5.82767
-18.6097
-8.90923
-19.868
-6.99071
-8.35953
-17.3959
-12.0154
-32.3167
-25.6643
-17.5147
-18.4307
20.6367
44.6219
53.5159
76.7275
57.6289
67.3971
123.71
38.2151
-81.2383
-127.893
-141.758
-121.986
-51.4645
0.753198
31.8871
102.36
145.654
91.0481
54.7222
53.5339
63.8003
97.4534
48.8342
-45.6395
-126.225
-197.39
-268.556
-206.563
-100.493
16.1603
90.9535
91.0085
76.6592
45.8133
11.401
-1.97438
12.6754
31.1727
50.8857
45.3227
40.9009
-16.6567
-33.9869
3.77951
50.5146
76.9886
71.3027
86.3236
137.794
87.3279
-18.1966
-40.437
-87.4167
-98.5104
-99.9612
-101.624
-98.5479
-70.5681
-108.006
-117.961
-98.9246
-95.8763
-84.6561
-40.7478
13.8835
65.1424
106.696
102.744
120.45
127.868
126.286
128.489
110.01
74.7152
59.925
18.2624
-49.6032
-74.0989
-66.9237
-69.7225
-76.8837
-27.1802
6.81844
19.9591
40.2102
26.8057
0.528315
13.7655
0.0343084
-48.0147
-33.1448
4.09467
-13.1472
-83.4605
-77.9064
-9.30761
65.1951
33.1349
55.1143
84.2663
-11.7009
-170.97
-180.559
-105.478
-64.263
-22.1579
62.3741
130.365
149.532
117.574
42.1035
-26.0479
-37.4568
7.08628
11.7571
-23.544
-17.7202
49.5533
79.6337
29.3362
28.7943
93.7259
105.017
49.4553
19.9896
-0.470617
-53.9127
-82.5207
-107.865
-108.353
-75.2034
-37.5646
-22.74
-8.3901
-0.117554
-32.3314
-73.6805
-43.5951
-48.2155
-45.7668
-15.4021
74.3368
71.7905
54.8308
22.4665
-5.15687
-30.2096
-57.3443
-41.1344
-12.9422
-1.95804
6.85555
30.9219
34.1586
22.3877
46.2124
70.7491
55.3626
22.954
20.2789
28.4362
39.7808
38.2969
-0.561835
-8.86417
13.4871
8.93525
0.465861
-14.2588
-26.4855
-15.7519
-27.9053
-42.9429
-17.035
0.314093
-1.41213
-1.06156
1.4404
20.6704
34.9125
20.1022
-8.45583
-23.1531
-13.71
-6.7086
-18.9246
-28.3746
-45.802
-76.8675
-32.7972
10.6675
11.7769
27.8285
28.1517
37.371
45.1078
40.379
34.6273
11.8957
-21.6857
-40.6724
-96.6013
-83.0395
-40.4983
-32.3624
-21.1626
6.35589
39.8123
40.6313
21.0848
48.7098
74.6493
45.0248
23.9894
0.816015
-48.4527
-44.6745
-35.6381
-16.0066
-0.178778
26.8568
44.7783
41.286
18.5318
6.2653
-21.161
-20.0667
-10.5106
36.7884
34.9039
-11.3438
-11.5156
6.81028
10.8932
2.65012
-6.82194
-18.1399
-2.12658
0.845399
45.4788
46.8481
14.7731
-16.548
-65.7555
-91.4755
-30.6898
17.1451
-3.94558
-1.01672
23.4265
6.58007
-20.4377
-26.2483
-10.8336
-3.38645
-0.0424579
3.63914
-15.5451
-28.9958
-47.2862
-59.8352
-37.7955
9.58002
26.0083
39.4938
83.4248
112.421
81.4242
27.2782
-48.0888
-143.867
-132.544
-61.7097
8.17733
33.1197
62.3587
75.1007
60.8578
66.6583
70.2249
29.0562
24.0768
4.06815
23.3428
27.2652
4.05148
-18.7884
6.59097
6.77205
15.2495
37.3903
-25.477
-72.3859
-57.9477
-43.2372
-33.1189
-59.9704
-57.8885
-11.7507
-17.4514
-4.92255
-7.91738
-6.27403
-4.00674
-8.73499
-33.1979
-73.7944
-94.0929
-74.9882
7.50324
74.9174
94.9968
65.3905
9.92407
-37.1435
-5.00769
30.686
67.1976
77.8479
96.1617
127.443
107.979
37.8322
-10.6744
-0.187671
-19.0206
-58.6691
-63.668
-37.5763
-33.8827
-30.4811
-5.30542
2.53196
3.93313
27.7617
21.4286
26.9421
0.46479
-69.4408
-98.9157
-141.301
-121.528
-67.0903
-7.84945
-4.42068
-2.23459
48.9749
79.5811
85.8738
43.9876
14.0231
8.53179
31.9012
31.9779
42.4108
10.5838
-6.66185
-6.54705
-4.64345
-31.8405
2.71502
28.0149
11.8498
-17.9554
-15.6573
-33.6324
-62.0495
-46.1142
-14.2784
68.7472
78.9027
49.8949
46.8296
20.0058
-10.5511
-25.3178
-40.7309
-35.7256
-13.1002
6.85648
48.9935
49.7508
0.418882
-18.8199
-24.8818
-16.7511
-20.0031
-19.0804
-26.7334
-76.1178
-40.981
5.33238
-7.47353
9.85574
25.743
20.7536
16.7604
3.80554
-29.7783
-22.4406
-11.7344
-7.44377
25.0949
56.3026
63.8473
86.4877
83.5569
54.0563
22.051
13.7414
-25.8732
-100.901
-144.268
-145.548
-91.4032
-17.6425
7.65848
22.8463
31.9337
30.5511
31.1382
59.7786
86.0976
75.8925
65.8652
48.6492
24.7944
-9.63937
-24.5106
-52.2745
-33.5108
31.5255
35.5649
24.4371
24.7869
25.0391
15.8392
-16.5408
-40.3418
-81.2675
-145.177
-179.248
-152.283
-96.4663
-16.6607
9.9642
33.9449
71.7567
85.015
73.2425
64.6919
24.9624
29.7143
28.5177
13.4676
6.40297
-6.33545
9.86757
46.7049
53.7708
53.9812
18.1148
-51.9492
-92.6412
-79.457
-58.3134
-0.850311
32.3552
73.2269
79.3372
59.6417
60.2068
42.6414
22.6293
-17.6524
-88.4539
-126.328
-149.503
-137.323
-61.9722
12.9829
106.672
179.252
140.41
47.4846
16.2174
-8.95339
-8.90593
-20.6537
-33.7148
-18.8783
22.6507
31.7299
-39.6423
-52.9023
3.92712
66.1846
39.3635
5.92781
-0.582079
-29.6729
-81.6128
-99.1865
-38.1375
-26.2229
-11.6249
-8.26313
-20.6257
1.63172
37.4273
32.4011
26.4193
32.2421
-14.2511
-69.6297
-68.0374
-34.5016
-34.4589
-24.4551
31.0869
70.0941
69.9037
80.71
78.7943
62.1972
31.4543
-0.535806
11.855
1.42127
-28.5367
-60.458
-75.714
-35.0593
-2.71186
28.6267
59.5352
45.2714
35.7043
25.4334
0.363583
-11.8533
-17.19
-33.0652
-11.5163
-38.2038
-11.8261
5.00628
-46.8616
-64.9246
-71.0335
-46.1321
1.56126
17.4316
31.4744
47.3284
35.3295
12.6624
22.6211
25.7679
19.9042
-2.35301
-10.4311
-8.47313
-6.41354
60.9132
64.0868
46.6221
37.272
0.0404911
-35.5689
-48.0906
-8.26381
-12.8481
-54.0317
-27.6526
-23.0712
-26.606
17.9171
22.0863
-17.3941
-17.2119
-0.303057
-31.2697
-78.8184
-72.4985
-85.5155
-117.883
-84.8184
-10.1265
30.8314
78.6407
72.1667
103.912
143.776
126.748
94.0009
86.3787
45.4329
49.7056
50.6201
55.9841
-7.70042
-43.3172
-69.2984
-66.4683
-57.3363
-25.509
-25.3971
-23.4697
10.6328
27.0734
-28.3754
-52.16
-49.7617
-65.6477
-51.3934
-42.0326
-24.7194
-25.7932
-14.265
-31.5772
-11.1228
34.218
60.4622
37.6766
16.1206
33.4126
55.6677
37.7758
23.3648
32.3767
51.2085
32.4655
-12.9057
-17.634
-34.1259
-69.4443
-68.0279
-60.4701
-50.4129
-53.5378
-14.9263
6.83612
55.2426
49.4397
55.7484
32.6093
24.5622
27.7061
18.2916
12.3743
46.5641
38.7579
42.2601
22.4243
17.3701
8.31189
-60.9975
-131.388
-136.66
-27.7944
-38.0853
-102.999
-95.5597
-1.1167
85.9014
126.039
96.444
44.4482
11.5259
-33.6061
-39.6359
-20.5138
29.0534
31.1025
-2.8959
-30.9207
-8.82223
35.58
51.7883
44.5388
34.0076
30.6296
51.5055
27.948
18.3969
37.258
-2.50984
-60.1613
-72.6819
-39.2068
-30.8659
-17.5772
-10.7302
17.5386
32.7768
18.4497
2.24736
-2.05054
-8.0262
-31.0912
-2.70822
29.4975
-33.5956
-71.0722
-77.1657
-67.8878
-20.636
34.4357
36.3278
3.26821
-15.855
-16.9636
-15.601
-22.2685
-20.5291
3.29035
19.9857
28.3806
6.11233
-23.6782
-28.5367
10.7965
13.4524
2.97243
-6.49898
5.07851
28.4009
55.5131
43.9176
34.7586
-5.87157
-28.0497
-1.97449
39.1458
73.531
52.5267
33.071
31.066
45.3703
38.1397
17.3998
-7.23761
-10.1702
-35.2749
-44.8625
-36.7639
-18.0499
-4.84946
11.9288
22.4636
64.5712
40.285
-46.7636
-125.812
-170.781
-140.728
-50.8519
-16.1042
-32.2382
-29.3925
9.17613
83.8773
114.539
119.641
70.572
6.74207
-36.8348
-48.3831
-22.7991
-21.2439
-53.5247
-56.8218
-40.868
39.5685
83.3743
110.033
71.3203
27.6736
34.646
18.2161
-21.1477
-45.4547
-77.4793
-85.085
-44.2419
25.0323
92.3568
53.0094
-8.79025
-7.32025
32.1171
60.5563
67.0511
22.7704
-13.6695
-57.3081
-123.034
-137.17
-129.635
-79.2757
12.6861
58.8413
85.9336
72.7386
31.4155
9.68723
-6.63471
14.4038
9.11571
26.5673
67.6293
57.581
-12.4896
-102.525
-108.756
-79.1023
-6.31974
73.5723
95.4938
88.1189
69.9542
-24.2225
-72.3188
-54.3202
-28.9403
-37.5449
-20.5606
26.4681
60.1502
48.0706
7.52977
-3.77264
31.2175
91.2345
93.0925
79.6858
15.3164
-139.625
-163.748
-133.121
-92.23
-38.9689
2.41127
32.5197
40.8047
10.1231
-4.57728
-2.69954
-2.8615
-21.3993
-15.6374
16.7758
56.6804
48.0728
42.4704
44.6206
35.1149
67.0978
66.1246
27.1272
-39.1395
-52.2568
-10.9005
-42.8106
-79.5853
-81.5711
-48.9967
-45.6299
-34.543
-22.7106
-10.8171
12.0194
-5.76365
16.0231
50.5526
85.3831
112.704
108.742
85.7349
81.7172
61.2117
7.4778
-46.493
-35.8538
-25.2408
-48.7779
-67.2356
-57.0886
-109.795
-149.573
-125.578
-52.1876
-12.8205
21.2722
13.8107
-15.0399
-24.1409
29.0468
42.7974
30.9216
96.5195
168.092
130.094
84.1418
43.2065
37.1042
-12.7937
-28.3667
24.0155
40.4091
14.1282
-44.9477
-100.744
-144.46
-134.678
-102.705
-26.1058
18.5148
43.8503
60.1712
14.3499
-53.6847
-49.2803
-26.637
6.22003
25.0908
35.8104
47.5741
77.7381
85.8135
54.2952
19.9532
5.24986
-38.828
-35.7869
-8.69575
-16.2621
-38.1775
-42.6804
-31.704
-28.7994
-3.44329
36.9487
51.8756
2.79607
-18.892
-82.82
-153.766
-128.036
-53.0213
11.5684
93.8646
146.312
207.192
154.797
95.1328
82.4956
17.8988
-79.1631
-123.49
-75.176
-35.4617
-82.0888
-81.3946
-35.4878
-0.388366
63.7216
122.213
116.772
110.525
71.273
-25.7712
-53.9545
-62.0167
-49.3201
-57.6299
-85.5705
-57.274
19.3287
28.3864
3.06005
-8.52852
-13.4719
-37.2638
-12.2426
-5.17815
-19.4448
-21.5366
-44.5567
-55.1465
-32.5856
-6.13834
25.4824
45.4112
12.7979
14.1942
32.4176
41.7437
16.5437
-26.8502
-51.5704
-32.4036
-10.9685
98.952
118.109
71.4409
50.2266
-16.8037
-27.5962
-14.791
-49.0337
-89.2024
-76.1709
-52.347
13.5768
35.6183
18.7049
28.2814
57.1795
84.4481
82.9216
43.6506
30.2614
-18.4459
-33.6898
-1.0527
30.2716
67.3278
65.9625
36.7237
-10.5781
-74.4191
-99.1578
-92.4216
-96.3733
-77.1163
-75.6739
-95.3346
-65.7412
-11.9157
-31.606
-29.9948
34.2954
68.4413
64.4871
42.405
63.3014
122.487
135.534
76.7321
-0.777885
-52.4817
-124.202
-155.594
-131.556
-78.3028
-6.53377
69.1859
91.7714
113.677
136.168
101.861
61.2265
-12.6499
-50.1319
-66.4221
-90.7727
-70.9134
-21.483
-8.33152
-2.91251
56.6553
85.2284
64.5397
74.618
67.9221
20.4052
-9.1881
-39.7761
-64.048
-111.58
-106.311
-51.5327
-10.9136
16.1811
30.8145
21.3011
-15.2737
-43.7443
-31.9909
2.83668
27.1826
55.8863
65.6528
20.0351
-4.26507
3.48187
-13.6947
-44.666
-46.6066
7.18664
16.2885
-40.9575
-80.4366
-78.7435
-24.5116
41.2
72.6576
67.4195
36.8056
22.8217
-3.01365
-3.21878
-28.7174
-72.4136
-28.4955
91.6885
91.9674
87.5737
83.6896
22.5148
-87.8887
-96.9508
-40.494
17.9603
30.6343
20.7371
-13.5462
-58.5393
-59.192
-21.6195
22.9161
54.4296
87.9052
114.107
46.2946
-73.7707
-134.836
-95.4109
-37.3297
46.137
116.373
77.7232
57.2762
30.0774
-16.6009
-53.7191
-61.4184
-67.4196
-67.3504
-63.5399
-30.8407
1.35372
-25.9031
-10.7598
-16.3208
-30.9979
17.282
44.0053
63.4042
119.496
115.528
61.0448
-49.4984
-155.765
-190.007
-99.8994
-13.3766
28.8393
84.5238
116.546
83.4255
30.4422
20.4028
19.8308
2.56573
-3.55325
42.1877
40.8151
-55.0688
-124.981
-52.2176
28.9411
59.7386
92.1064
86.7687
9.35987
-58.2689
-33.1357
-31.716
-42.7263
-29.1959
-5.69782
3.38103
-11.6369
15.4483
-11.2699
-50.0025
-58.7759
-29.3997
-39.0178
-24.6174
47.5958
79.1693
31.3371
36.28
28.44
27.858
9.86784
-3.9926
-1.98706
-4.254
14.4388
-5.66652
-19.3126
-29.3018
-28.6614
-22.3886
-13.3871
1.88616
1.60952
-48.9624
-72.2333
-7.45144
84.2548
100.965
55.2935
4.80989
-10.6505
0.689628
16.0567
14.1907
-31.0128
-13.8618
3.80528
14.9168
46.0878
27.8129
39.4801
60.9245
44.4363
-62.8912
-157.438
-171.018
-163.539
-99.4749
-31.0155
33.2349
34.2674
20.0286
21.0674
43.6775
62.7357
84.4049
92.8197
74.0604
49.2481
47.6751
11.4617
-41.5916
-16.5353
42.6836
68.2397
43.8038
15.6971
-3.57357
-20.7849
-56.7547
-51.2191
-19.7549
-12.1519
-46.2181
-89.248
-52.4193
-6.77924
2.72819
16.1308
35.2348
28.888
-43.2056
-141.894
-133.305
-52.6198
9.54707
62.922
79.0047
86.718
112.263
68.8744
42.9987
46.3658
31.8293
-9.55032
-47.4194
-60.6561
-61.1056
-54.1621
-53.6974
-45.6554
4.09902
57.3128
94.3771
93.9426
80.8438
81.4418
87.8726
22.6188
-95.592
-119.397
-113.107
-120.614
-58.3425
40.407
10.0143
-66.9161
-45.2991
27.9596
51.6712
12.8201
10.645
21.5822
55.1216
40.7816
12.2916
-50.8365
-120.343
-72.7666
65.9372
161.414
108.998
42.96
18.9515
-3.54832
21.1792
38.7573
-0.593276
-43.674
-75.6868
-101.06
-79.6619
-31.9312
-3.69282
-23.6098
-35.7225
1.73855
29.0917
55.1599
35.0759
-8.99659
-16.3649
-9.27216
-31.2341
-26.7676
-46.3062
-31.9583
18.2983
26.4274
58.1297
97.427
109.169
95.2099
71.5216
70.7026
-9.43217
-63.9668
-95.2136
-134.45
-120.823
-90.6538
-42.4243
23.3762
78.6672
75.5732
52.0095
42.014
-4.36624
-16.5294
-33.5891
-32.9778
-35.8652
-75.6544
-49.4838
-11.5579
44.2483
57.5873
94.4719
102.353
71.631
95.6569
64.7567
-28.3743
-57.4302
-72.6985
-49.6278
-41.3732
-30.1991
7.68195
40.4092
41.9221
9.8743
-31.2553
-84.6501
-99.7753
-89.3048
-33.9566
-16.3587
-0.299996
16.2717
-34.7953
-29.3209
30.1479
51.5115
87.4704
81.2772
21.5018
-14.0063
-72.589
-66.2955
3.80183
19.7824
29.6615
18.3747
14.8517
10.1352
-4.07707
-1.58781
33.1439
73.8483
84.3407
77.4033
74.0776
-4.08162
-95.4023
-81.3439
-27.6591
1.81799
20.5662
-1.89992
-27.5927
-12.0375
10.435
-9.76151
-45.6417
-43.6664
12.27
52.3103
78.7538
45.6004
-31.3197
-94.8178
-134.047
-101.329
-83.9214
-77.8206
-57.6021
-36.7261
27.8918
60.4602
36.7613
28.4664
80.7255
131.98
134.307
89.0068
51.677
56.6279
3.17399
-63.8773
-67.5817
-8.82531
11.9053
7.47785
21.538
33.696
53.2235
46.4676
8.21982
-13.7395
-11.3135
-18.215
-52.9684
-47.5045
-8.86073
-0.433424
-41.3544
-119.657
-165.559
-137.469
-26.4115
36.9127
56.96
29.4764
-23.1092
-17.7471
4.1192
-2.63439
-12.3122
18.5755
67.1925
83.3378
122.786
40.4824
-2.09253
9.79262
-0.0303679
-15.5344
-32.9013
16.7716
13.133
9.21059
0.36611
-0.604658
-28.1047
-81.0825
-66.9994
1.23946
40.8933
66.9043
9.07008
1.04897
10.3981
74.7096
80.3306
39.2836
23.2125
27.7383
18.387
-18.6912
-44.147
-49.4387
-30.9126
-17.1555
26.0389
44.9601
7.66796
-39.5952
-38.9119
-61.6474
-47.5344
-21.7071
-33.6513
-50.1461
-61.6783
-49.0444
-84.2834
-65.9193
18.6865
9.06676
1.11366
15.381
37.0973
90.851
139.093
139.582
87.5454
22.6648
-44.4683
-42.4698
-61.2067
-83.1173
-70.792
-50.5132
-9.40327
17.0435
47.529
48.2885
34.6042
28.2617
13.1397
15.0749
5.28035
12.7344
0.896004
0.609542
43.9091
69.8307
47.623
11.4222
52.0164
39.3833
12.8121
9.32691
-42.5267
-114.191
-122.758
-103.399
-70.7861
-32.4769
-16.987
-7.68491
10.9096
-20.9896
-45.0523
-7.22529
37.7591
30.6106
16.8126
1.87434
-32.3726
-13.2786
50.9486
102.483
112.964
106.766
64.4406
0.921752
-19.7902
-64.5307
-99.1777
-116.829
-107.234
-33.4902
-2.95093
18.2418
35.0985
57.6064
62.4711
52.367
-1.74502
-73.5394
-89.0903
-40.9364
0.499838
61.0601
108.079
126.765
55.8147
37.6977
52.2208
50.2587
35.2193
-37.0289
-130.443
-147.074
-138.167
-113.333
-57.26
10.1157
65.2983
82.348
56.8509
14.0381
20.274
-5.01735
-6.38045
1.00559
15.3959
51.3777
76.9912
64.0273
27.227
-16.1002
40.9716
26.9527
-36.3376
-61.3714
-74.4951
-50.616
-24.4984
-57.1468
-75.804
-33.5489
-4.50547
-9.65464
-29.7301
-59.749
-44.8967
-2.20956
8.36693
15.7965
58.2636
108.82
128.152
104.903
121.636
135.911
66.3914
-50.3774
-93.9256
-100.108
-158.703
-197.482
-138.193
-46.3266
6.47064
63.5142
89.2471
76.4274
66.804
34.9669
19.4937
2.70516
17.104
20.2076
-20.477
-67.9773
-29.1132
37.3139
36.8293
88.6498
130.451
45.0931
-11.4803
-24.9664
-44.7695
-36.2926
-24.0452
-31.1939
-49.0066
-45.5296
-50.6169
-31.3065
-10.5835
29.4584
69.8041
86.8089
35.8425
-42.8277
-63.6932
-90.8008
-60.0501
-10.1685
-16.6734
-15.2165
17.7655
49.9932
36.085
-25.8479
-60.0683
-39.6451
0.783427
51.2572
45.3373
6.86605
-0.222535
-3.84534
1.70322
22.0417
59.7957
89.9765
46.3685
60.4249
57.5409
7.06452
5.41712
-33.1837
-46.4963
-6.8094
28.0207
39.8909
22.1684
-91.1962
-130.715
-132.289
-140.904
-125.518
-77.6387
-44.5839
2.43166
64.1864
100.582
64.1714
23.7214
75.3409
78.4323
59.0967
59.9129
38.5454
32.0065
6.09024
-23.0111
-17.9674
-1.82506
45.9541
91.7445
90.0215
45.2771
38.6175
-12.1805
-64.8139
-77.506
-76.251
-91.4451
-107.017
-85.1296
-64.2915
-27.7623
9.86034
12.3842
12.5946
23.483
43.1298
82.5742
50.4527
-43.1854
-45.8202
-4.45167
20.402
30.9111
76.6532
86.8072
22.887
-25.3791
-39.6617
-53.0323
-89.0576
-105.346
-91.0574
-56.4749
5.5353
3.66432
-8.63538
-14.59
13.7587
40.3957
29.8053
53.7986
88.4057
100.352
40.2177
-5.63059
27.0921
62.4884
79.7324
73.2694
62.1224
76.4253
100.177
72.0939
21.7447
-32.665
-142.779
-287.082
-265.821
-187.472
-107.974
-65.1843
-52.063
-10.6905
49.6926
85.3311
106.698
105.944
94.7001
58.5632
68.9202
33.1351
-15.879
-49.2655
-58.309
-22.3327
69.2908
123.052
98.1971
72.2701
47.3406
25.6963
-17.3128
-49.0727
-63.8196
-114.13
-115.604
-96.6726
-102.943
-75.7494
-39.5246
-9.72861
30.4605
56.167
-3.95611
-46.2258
-27.686
32.2047
62.7109
89.3265
93.1086
43.2341
43.7188
60.2074
-51.2927
-76.5107
-26.5562
19.9244
31.6358
10.2457
17.8772
46.6405
29.3046
-3.21805
39.4052
30.2127
1.44847
-1.11234
2.39471
25.8854
2.89807
-40.7713
-113.193
-125.075
-61.4576
-4.134
13.6168
38.9204
9.43303
-9.82567
24.7484
49.5341
39.7123
9.57417
-8.63054
-0.57434
-0.0670587
-60.1418
-99.9548
-107.398
-69.8157
14.0236
76.8769
59.2812
90.0603
86.7804
35.0558
16.8952
25.3208
19.6425
-52.4059
-78.8267
-24.4328
33.1802
1.70261
-28.3476
-34.8995
-4.68361
4.10262
-8.45495
15.4617
71.8408
57.5495
35.7902
20.6999
12.3918
16.274
-26.8819
-68.3006
-38.5445
-13.6236
-40.7511
-101.294
-81.4578
-24.1207
9.98275
45.2741
81.3145
91.3239
95.7132
49.587
-19.5448
-33.4241
-55.9415
-57.8831
-17.7982
28.2902
63.7992
60.0942
24.2619
-31.7749
-62.436
-68.0895
-65.1721
-58.6238
-25.8676
22.5574
71.7192
75.3029
41.206
23.0168
0.0409236
1.41279
17.2216
36.5497
42.7529
-28.3393
-89.9307
-54.1231
9.57481
30.5814
13.401
-10.3015
-46.5802
-134.247
-98.4603
8.35831
69.256
59.3742
-3.90967
-21.0874
-2.13516
-53.229
-36.1733
9.29781
13.7732
29.8955
40.4233
67.5824
67.7423
57.5942
48.9479
30.8384
48.09
123.221
138.765
58.4526
-46.2404
-88.6258
-72.5167
2.25965
-35.7717
-49.3051
-1.40364
3.39529
-26.733
-69.1867
-54.7296
-64.9943
-93.8808
-71.3997
-23.7125
-28.9386
-2.65497
72.4133
18.8212
-86.9184
-86.8597
-56.3256
-39.4342
-54.1753
-7.54712
53.6649
56.9059
73.3749
58.8925
61.9816
50.125
49.1993
51.2346
64.5593
40.0032
51.8473
6.75793
-60.4092
-47.7895
-0.425977
54.8219
108.076
92.8351
36.1544
13.7604
-14.8951
-45.9907
-69.2185
-56.7852
-32.5069
-47.4326
-30.1008
11.0352
-26.1423
-32.1617
-2.97239
-2.80366
-7.2908
11.5433
60.0739
66.8024
1.3863
-22.3568
-24.1308
-73.0882
-61.7031
-83.0224
-128.143
-92.9077
-50.3805
-17.3196
23.2235
16.4605
32.6039
31.9416
47.8463
100.513
68.3968
5.11434
-12.816
-40.8131
-7.18023
45.142
63.9134
142.771
159.197
123.492
66.4253
-28.9256
-41.7205
8.69423
-6.77363
-40.0172
-51.0767
-60.3436
-120.563
-163.517
-113.449
-23.2676
33.4797
46.2164
53.8214
74.2503
29.5006
-34.0399
-43.7966
-42.0803
-15.3463
5.28293
-1.5001
-8.91393
6.68619
-15.6121
15.1553
18.8417
15.5803
15.1534
25.5187
26.7119
25.5829
-13.9629
-57.7055
-49.5828
-6.19634
13.9476
13.1974
28.7131
39.9977
44.1691
12.7762
-12.6891
13.987
18.0398
-47.2702
-75.9219
-32.8545
3.2952
25.2112
5.08277
-44.212
-20.4469
5.79552
-0.595911
3.59334
-13.9526
31.2214
59.6082
26.4356
32.5279
34.7324
9.42657
-26.9831
8.41489
40.3056
53.5824
71.8682
71.2116
41.7241
-8.08842
-53.7474
-91.0757
-124.821
-146.607
-99.9561
-51.4703
-27.9954
-32.0986
-14.72
34.0963
63.0963
53.0323
22.1867
4.68228
12.7306
4.62747
-20.1871
2.82839
44.8756
73.7933
97.2915
83.8853
59.074
33.3674
4.20244
-0.314818
-25.8395
-36.7589
-20.8005
-46.6856
-60.9903
-63.8247
-83.6711
-66.3975
-10.2463
45.5134
42.4829
-8.77781
-34.1179
-61.4829
-55.2404
-19.9296
-17.7948
-21.2532
33.333
69.9596
48.641
51.0253
52.3945
58.3454
67.3324
55.1728
49.5996
32.7625
-16.1875
-49.1343
-14.3863
-14.2885
-46.2217
-35.9589
-11.8997
-4.61711
30.189
62.0316
46.0364
56.641
38.7751
-52.0865
-96.5958
-94.5467
-157.238
-146.804
-91.9709
-41.1634
17.3349
62.6313
84.5355
97.1161
35.9314
28.0535
51.1024
52.0992
20.8023
-28.5508
-62.8986
-65.7738
-32.2334
16.4241
31.2168
1.96028
17.107
51.8068
56.9639
33.5219
46.9149
50.1003
27.8551
9.34945
-1.60505
-56.718
-71.2771
-54.9581
-8.92094
23.0179
4.98022
-28.9309
-40.8489
-4.40131
12.1986
23.4143
77.4593
52.2857
17.9027
4.62112
-19.2135
-36.2734
-48.3556
-65.008
-64.3836
-30.5557
-14.0254
-33.5555
-28.1784
-10.3177
-5.48534
-16.809
0.452989
39.0484
50.0416
-6.47242
-20.1314
46.4705
140.771
124.019
71.7065
17.1298
-14.5415
-33.0525
-32.5134
-26.5228
-48.9907
-38.8836
-18.8971
3.2442
14.741
43.549
44.0952
0.86298
-41.951
-57.8565
-70.752
-75.3783
-70.3071
13.3366
59.899
65.3367
-3.95497
-93.2383
-112.638
-83.2451
-50.9319
-25.4208
15.6308
62.9383
69.5411
54.8212
60.8654
89.8079
131.537
162.595
171.771
120.99
-6.88448
-70.4912
-122.073
-142.035
-102.788
-36.4933
-1.0489
29.5132
34.9981
77.7373
61.0233
-9.55706
-63.4754
-56.0181
-30.7079
-7.22951
-29.7554
-42.1604
-48.3996
-79.1583
-106.501
-138.686
-103.045
-59.3491
-6.5807
81.8847
121.223
116.465
105.561
73.3896
52.2449
30.4182
28.0502
11.6182
-0.198804
-4.14509
-45.8443
-37.8666
-36.9932
-2.22728
61.1029
105.483
127.815
113.306
21.8588
-80.3239
-96.2421
-106.974
-87.5334
-60.8376
-55.0147
-6.69593
19.6031
-13.7978
-17.7602
-25.3413
7.84942
17.1223
8.99574
-7.75817
-33.9541
-46.4573
-25.7128
-8.28469
29.7097
70.7258
101.713
155.924
171.086
83.5217
17.1131
-51.7716
-103.057
-97.1167
-114.824
-157.712
-117.879
-22.0128
18.8855
45.878
70.6295
51.8591
38.4069
38.8668
42.5435
29.8178
-10.4298
-24.7826
-52.6352
-37.5106
-15.6287
15.2332
58.9947
49.3434
0.248529
18.5479
45.2623
27.2999
-37.5257
-68.8296
-29.6367
-2.91629
-9.86086
-32.1844
-10.8495
26.0464
11.9974
-58.0191
-90.1821
-55.9569
-41.1608
-27.5204
28.1216
76.3071
110.275
111.409
70.9612
20.2965
23.7506
0.721648
-43.4685
-43.1826
-32.6006
-19.6929
-4.29238
-0.435849
39.5332
72.8986
77.0463
4.43164
-27.5459
-17.3086
-76.7132
-95.7751
-59.1225
-32.1203
-12.165
-21.6982
-46.7637
-49.1115
-25.0699
-5.04662
3.87905
33.5339
58.6609
23.3432
20.9383
7.88538
17.1574
55.3294
63.4116
56.1664
48.4959
12.8429
-29.5542
-53.1729
-50.9779
-7.67832
56.2091
99.0679
101.475
35.04
-50.6177
-120.545
-124.114
-50.5136
-29.3649
-2.60976
12.3548
30.6835
8.23933
-25.2925
-41.0058
-23.0904
5.70849
6.48476
1.6231
37.4261
71.6557
70.2705
19.3716
7.0736
23.5746
26.9164
7.90976
-67.3694
-131.619
-174.418
-152.218
-80.2185
0.0452544
49.1707
95.5378
130.873
97.7985
76.0889
77.4506
67.3513
37.4382
19.5192
65.9459
73.2496
19.8093
-9.85658
-52.9663
-62.9081
-40.8437
-0.345549
-51.4834
-81.7639
-41.0073
0.646074
-43.8571
-73.2127
-64.7304
-34.2952
-17.7536
-25.1415
-30.532
-27.3322
-14.9652
-10.0287
-3.54136
29.9169
59.5848
87.807
124.122
132.39
192.177
140.435
7.40261
-40.2521
-42.6775
-61.2629
-74.4756
-92.6566
-121.36
-132.308
-86.4251
-32.6039
-27.1383
-4.90273
20.7406
27.4171
42.9868
42.8577
30.4026
7.91765
-19.8078
-2.51368
23.3541
17.2713
40.004
1.05411
-17.6995
13.4589
38.2639
30.8701
9.6134
