31.6734
-39.6911
-83.9313
-77.4125
-59.0425
-63.7439
-38.1562
-5.1619
17.6479
44.3144
60.8555
40.4895
-1.12482
-37.1994
-83.4018
-62.6175
-74.7633
-84.5689
-88.967
-124.509
-81.8159
-12.4545
23.3657
38.0036
42.5397
71.8659
121.254
174.397
193.568
115.565
11.106
-5.78544
-0.0941731
-5.14535
-17.1091
22.5823
65.2555
26.5355
5.02746
47.4795
58.9951
-9.52459
-50.5101
-58.2222
-65.1391
-71.63
-98.2746
-135.191
-144.584
-99.6168
-43.285
-10.2367
13.6006
18.4119
-6.87734
-34.8752
-26.528
11.6172
20.7896
-30.652
-27.303
33.1848
69.9221
84.1
95.7385
85.542
51.8753
8.4308
-1.26777
1.5408
45.1391
60.53
69.5053
92.5711
73.6983
33.8353
-7.37519
-37.2696
-62.5763
-69.0707
-57.3699
-56.8445
-71.6199
-54.3552
-14.8434
-4.56378
15.7981
74.0469
86.2335
18.0227
-33.575
28.0154
21.942
-70.7511
-156.04
-213.465
-193.062
-69.8197
10.4253
-6.49436
-4.25387
35.429
95.9079
139.775
119.1
82.8749
40.4594
-23.2417
-69.0833
-43.1843
-9.88007
-8.64079
52.9725
102.406
92.5019
68.281
48.5289
3.97576
-14.406
-39.4753
-50.8514
-26.7475
6.55702
-41.8987
-103.851
-95.7319
-25.1217
72.3083
151.53
231.147
212.597
100.978
-29.1286
-130.77
-158.949
-130.503
-84.8713
-97.847
-65.8623
83.477
157.948
151.979
66.9319
-38.4151
-117.086
-162.485
-156.381
-178.797
-143.007
-66.1509
-38.6828
-37.8893
-13.4688
31.3054
94.2319
144.407
146.092
83.3843
35.094
-22.7533
-49.5562
-40.4176
-8.27981
57.7461
105.085
119.891
74.4274
8.22628
-41.5905
-32.1771
18.7309
28.5507
-5.40244
2.17475
2.55349
-37.0687
-54.875
-8.48644
1.02642
-22.8087
-53.2895
-41.7572
66.7303
127.891
135.432
70.4794
12.8471
7.47369
-7.14247
-85.111
-163.112
-158.305
-112.952
-37.6559
34.3948
84.8086
121.039
92.2952
50.6582
22.9356
14.0456
-36.7044
-134.811
-191.131
-199.82
-90.4737
-5.66303
7.1236
49.6781
87.1533
108.573
56.8369
-1.48988
-60.3776
-63.8702
-34.4711
-48.2008
3.87994
71.3883
43.3582
12.9379
-21.9333
-46.5477
-47.4594
17.0836
136.742
295.203
372.453
322.298
177.756
17.5891
-81.5255
-119.767
-117.095
-117.109
-145.338
-142.43
-92.0183
-122.013
-148.134
-119.123
-2.89075
83.288
194.706
222.783
39.8087
-201.642
-291.458
-297.618
-268.827
-160.633
32.8187
182.008
219.402
156.519
83.6942
9.18794
-96.707
-133.378
-108.861
-17.8293
34.7179
72.2946
119.336
162.511
153.595
100.492
130.75
185.753
170.499
132.288
84.6853
-44.7809
-183.887
-201.16
-191.192
-146.852
-132.74
-57.7904
87.6878
156.779
212.557
234.457
72.7294
-94.2348
-115.809
-120.227
-163.655
-232.414
-234.325
-192.889
-135.678
1.63575
130.061
157.212
119.12
106.983
124.404
109.68
72.7838
8.95446
-79.5053
-136.533
-114.855
-37.881
18.4121
53.2697
20.7465
-48.9068
-50.2014
-79.5854
-95.5652
-35.2805
115.783
196.26
273.813
319.456
277.825
204.245
80.0795
-71.9495
-188.036
-268.596
-277.034
-283.098
-161.807
-7.00219
2.1029
-65.8954
-24.4044
27.2962
4.91992
-34.2278
-128.103
-68.3949
103.66
157.868
106.267
28.4101
52.1355
83.7
49.2963
-2.75485
22.436
26.2487
-36.8858
-36.6855
-10.3761
24.3727
23.1517
-2.1533
-8.44678
-2.46702
41.4747
72.4149
-23.8072
-97.2904
-93.1209
6.46397
17.9546
-9.66932
34.7881
151.031
148.887
36.503
0.1427
-43.9254
4.43608
94.6449
69.6511
-18.3004
-157.469
-271.953
-324.784
-329.738
-291.433
-220.688
-88.0026
-2.65558
93.08
224.764
293.374
239.573
213.883
314.783
282.207
88.6803
-86.3565
-110.161
-80.8061
11.1775
160.022
251.734
196.86
91.5237
19.1726
-11.0874
-78.0596
-185.618
-245.514
-271.592
-249.56
-165.645
-154.684
-209.573
-156.819
-16.9976
118.594
115.715
148.348
135.524
88.2722
22.9741
85.1759
153.417
49.5515
-71.358
-35.4812
-11.491
-6.65854
3.91797
47.7842
-9.34297
-60.6785
-8.9595
24.9134
3.74229
-163.729
-245.207
-196.804
-69.6193
15.5988
12.3032
-15.0711
-24.305
85.0829
179.791
278.053
493.637
540.325
292.292
-73.0202
-288.433
-195.215
70.0827
171.743
95.6781
70.3447
30.1364
-145.724
-301.542
-362.113
-278.669
-175.264
-98.9173
-51.1801
-16.0962
-31.4485
-135.341
-216.043
-211.29
-173.076
-66.5105
-55.4314
-153.904
-152.911
38.0486
291.026
400.535
350.436
274.959
299.765
368.74
285.101
27.5764
-61.4389
45.8558
92.67
-19.9916
-78.5652
-35.2254
29.7842
61.9338
21.8108
-19.7416
-147.329
-195.319
-156.762
-134.746
-30.4925
124.326
112.371
-123.7
-362.719
-340.128
-269.3
-259.816
-221.501
-58.7717
151.503
322.4
383.986
352.253
274.012
58.1772
-94.1712
-105.823
-140.61
-149.916
-10.6397
42.6572
-182.736
-305.921
-179.039
-1.94159
122.849
241.157
326.529
421.328
374.273
230.073
87.6517
-145.309
-243.561
-164.375
19.925
115.14
85.7717
-5.38841
-286.499
-444.108
-302.837
-91.4342
103.567
235.442
173.944
29.455
-67.5586
-187.487
-170.692
-130.947
-15.1276
203.129
252.347
214.964
109.919
-92.4418
-204.12
-138.195
-66.3917
-42.7202
31.9522
148.781
346.32
274.537
172.411
231.82
202.416
-71.0014
-457.818
-557.046
-473.867
-316.372
-155.744
-82.3219
-64.7014
-62.9946
-80.5851
70.1906
291.011
400.738
410.417
258.381
17.7151
-81.6285
-66.089
-25.1234
-56.1068
-26.4489
159.451
86.2105
-83.8359
-120.039
-8.38919
69.8343
92.5196
120.857
172.067
127.538
-24.9542
-142.689
-166.143
-34.4932
93.374
196.531
113.997
-173.93
-327.963
-315.39
-151.056
338.473
617.27
308.416
-79.7278
-293.647
-313.351
-237.913
-237.697
-319.991
-302.407
-126.941
14.213
-58.0085
-191.573
-258.143
-274.556
-136.569
275.608
718.995
854.612
457.689
97.4353
67.5045
57.0566
-0.0697098
-62.921
-135.988
-62.683
52.2817
91.5417
47.5016
-9.12079
-46.3315
-109.033
-130.298
-4.33796
-6.43519
-212.124
-191.1
-131.57
43.1364
48.9695
22.4646
-12.5847
-161.074
-150.63
-91.5255
-96.5577
-137.071
-83.6103
23.7286
74.0293
247.96
584.6
631.529
481.387
294.098
125.886
-50.2854
-310.088
-574.792
-502.882
-279.531
-121.636
31.7719
162.413
259.255
179.928
-6.85834
-125.493
-244.354
-333.614
-79.8502
49.8884
-107.285
-325.275
-280.512
-197.125
-157.918
-107.675
-25.3193
122.569
309.615
401.539
425.021
366.653
445.692
513.674
334.531
111.517
-55.6053
-4.77221
-67.4951
-208.684
-146.666
-43.4522
-141.678
-182.058
-212.293
-206.492
-108.032
-110.2
-437.964
-678.17
-461.949
-118.403
-68.2134
-56.5781
261.525
489.046
508.165
436.037
252.327
53.8761
25.098
79.0701
109.753
33.0399
-118.871
-254.853
-243.056
-44.2241
340.454
472.48
410.039
166.113
-61.0762
-155.167
-204.649
-158.178
-94.8522
-68.0332
-105.384
-202.929
-208.886
-83.355
20.3968
72.7057
63.9911
33.4026
25.7466
44.9551
-101.61
-138.779
-119.233
-112.726
-128.932
-126.119
-57.2484
14.5487
95.4575
37.3965
-70.2264
5.05415
225.439
312.342
163.824
2.2285
-147.985
-251.218
-175.646
-114.622
41.099
288.435
381.588
328.151
245.521
51.8268
-81.0431
-98.5753
11.2209
162.478
248.398
55.1538
-267.025
-367.372
-313.526
-203.806
46.2489
313.038
316.739
138.897
20.4382
-63.0887
-118.081
-214.576
-429.116
-402.576
-288.957
-215.778
-118.087
-10.3557
265.216
433.521
221.224
-16.2808
-74.012
-39.4123
-41.2625
6.78899
-24.9012
48.7008
7.31447
-31.8492
-44.4195
-12.4666
146.305
212.918
240.19
200.146
156.96
188.043
58.3391
-63.2984
-67.2689
-75.7068
-54.4887
17.0649
17.5697
-92.562
-96.7474
-59.8195
-75.9511
-146.352
-80.8897
92.6514
176.132
33.6492
-156.034
-212.217
-211.011
-131.547
-33.1664
58.9983
231.479
167.3
35.6424
-99.4144
-182.449
-137.5
-36.6382
-106.757
-145.512
-30.4014
154.428
292.324
253.515
248.582
223.688
102.701
-13.6475
-145.807
-309.339
-261.469
-121.876
40.0482
78.3076
-65.7442
-127.082
-81.6615
23.9452
234.024
678.114
877.782
310.953
-317.39
-481.621
-280.029
-22.2436
64.5156
29.2549
-60.4651
-186.478
-225.585
-135.139
-62.0736
-38.3547
22.1537
1.8047
-119.371
-193.01
-333.985
-587.029
-650.117
-326.828
-31.3974
54.6084
287.248
605.042
563.912
423.88
527.536
382.969
93.8982
-165.403
-217.504
-65.4688
158.638
367.788
433.757
220.749
-7.02599
-195.823
-263.451
-210.383
-187.708
-60.7959
-56.0476
-195.648
-65.4078
102.672
-20.164
-83.3443
-155.377
-35.0583
40.195
44.3229
31.3495
-67.6579
-128.292
-176.504
-183.359
-33.3298
-9.03724
-75.3795
88.6348
323.311
223.719
-97.9465
-204.327
-211.106
-259.365
-163.23
52.4965
94.3669
15.174
-143.227
-218.479
-153.553
36.1417
225.664
383.281
653.246
893.443
750.064
360.211
71.8775
-127.457
-292.627
-413.549
-494.129
-491.293
-325.93
-89.8193
87.6311
81.7719
15.4797
106.263
108.733
0.511791
-13.274
73.9996
-238.123
-558.784
-447.332
-132.158
-59.6718
97.3863
360.914
383.963
222.176
78.0726
-97.9691
-271.044
-357.825
-198.906
123.728
252.024
229.739
62.1793
20.4207
-67.0894
-53.0772
140.899
296.977
126.721
-40.5052
-87.9337
-115.563
-177.061
-86.7413
73.6825
199.172
187.468
116.281
158.275
60.9326
-149.043
-129.22
103.542
189.668
20.721
-29.5969
-189.631
-228.533
62.0921
275.48
75.3879
-148.351
-106.785
-136.298
-215.279
-40.6948
206.156
295.927
227.837
46.8829
-223.101
-380.465
-284.441
-191.737
-160.215
-170.779
-215.987
-347.724
-465.634
-358.938
16.2083
327.128
405.256
518.714
566.766
353.625
68.1201
-95.236
36.3653
380.241
553.208
320.777
-5.14704
-184.79
-162.639
-159.46
-158.583
-62.212
-58.4591
-153.244
-113.321
-19.8915
40.2972
77.1981
4.74578
-108.524
-224.859
-232.214
-318.109
-445.646
-425.576
-203.193
43.555
328.168
699.679
741.268
553.055
324.32
75.0678
-52.55
-165.644
-293.044
-345.799
-393.657
-356.279
-277.869
-120.728
5.9867
130.927
274.675
382.355
287.296
-33.7265
-239.012
-319.659
-196.069
177.423
509.557
307.545
-73.4201
-256.822
-203.722
-102.633
2.84438
78.4989
159.926
110.613
-0.728437
-55.8209
-34.5296
51.9519
142.349
190.738
15.3265
-256.753
-317.03
-329.527
-364.547
-108.76
209.04
292.921
214.518
149.826
-23.5108
-101.241
42.2889
311.479
328.862
76.7006
-139.925
-274.252
-260.826
5.54616
250.325
325.129
128.976
-150.045
-313.9
-307.61
-214.595
-205.83
-219.982
-159.018
-41.1466
148.008
238.132
274.706
332.572
163.368
121.67
95.4054
-1.48133
-138.618
-228.425
-146.24
69.2649
87.5844
-27.2364
-16.7469
-12.312
116.006
258.886
117.785
-78.9694
-139.991
-202.155
-200.869
-46.4785
167.797
238.048
72.9056
-90.7282
-124.92
-239.6
-372.517
-198.3
149.223
416.991
422.139
349.81
112.313
-192.83
-92.4711
54.7734
-69.0647
-281.246
-435.527
-537.923
-391.429
-103.561
212.75
356.358
244.65
131.719
98.6704
30.6156
-37.6563
-87.3014
35.4537
223.563
245.79
160.783
96.5628
62.3961
83.1523
125.968
60.2495
-64.6496
-105.852
-226.13
-199.732
2.40455
81.6978
90.4861
36.9635
-26.6309
-87.2182
-205.924
-347.69
-341.144
-208.76
-91.0733
45.7351
278.988
430.913
506.833
305.345
177.305
-77.5086
-321.18
-419.711
-289.669
-61.4298
203.667
436.572
533.332
375.199
28.4403
-193.582
-320.089
-362.385
-283.04
-187.72
-215.311
-242.837
-309.628
-297.471
-154.617
48.6069
197.119
161.06
69.1061
158.851
256.264
284.891
142.345
22.886
130.34
174.613
105.679
43.1421
65.0329
63.4879
18.7431
4.75572
-62.4676
-66.0044
-82.1461
71.8203
147.243
78.3665
-44.0807
-30.4879
40.7798
-195.935
-440.279
-308.509
-86.4368
5.40735
-2.49265
55.2825
132.427
152.142
187.464
82.4671
-74.1784
-131.582
-197.43
-358.536
-401.586
-136.829
122.731
107.421
107.314
196.179
247.761
200.234
333.941
405.765
281.46
115.831
-77.246
-233.842
-216.91
-232.661
-268.342
-250.927
14.1467
285.245
305.002
186.18
62.4282
4.36272
-132.408
-252.633
-354.055
-344.784
-284.775
-221.522
-108.859
69.4002
98.9586
71.5542
88.7885
265.046
406.163
396.825
242.289
139.111
-19.4047
-120.837
-3.38217
126.357
58.7897
-69.0253
-79.3957
-79.2449
-172.201
-153.69
-52.1579
-50.8774
-175.692
-298.426
-296.014
-298.294
-215.753
101.579
434.166
464.772
410.513
332.554
208.243
-7.16701
-186.67
-139.618
-87.5244
-80.6205
-78.4935
-7.40505
-36.167
-95.129
-56.3413
-76.9185
-134.252
-83.9499
41.3465
46.0553
-48.796
-5.06009
121.839
160.547
41.3771
-134.837
-197.96
-174.307
-174.286
-151.458
-58.479
171.817
440.501
445.182
383.717
246.213
-4.06034
-198.846
-167.66
-94.6787
-46.1266
88.4923
-8.15594
-149.986
-153.569
-14
189.159
209.521
95.9425
25.7313
-30.5533
-274.888
-421.346
-267.282
-54.5224
132.176
278.939
339.398
141.451
-109.667
-391.851
-582.323
-421.377
-184.578
-88.8279
-3.39658
77.171
131.69
249.219
297.134
269.364
315.238
371.445
272.933
122.618
139.437
130.252
51.342
53.2046
45.5919
-122.343
-395.833
-414.385
-250.044
-59.8297
38.8402
95.2182
125.514
103.51
117.988
74.5867
-44.7423
-225.823
-386.823
-238.064
-74.9645
-104.468
-206.981
-382.142
-492.076
-351.673
-35.6241
383.776
806.712
986.473
813.089
390.892
-140.373
-391.755
-335.365
-188.7
-7.06215
109.519
183.273
78.4472
-137.144
-234.935
-189.31
36.7728
291.494
406.95
344.331
-4.42555
-471.652
-620.938
-487.251
-384.32
-244.618
-62.3584
49.6404
57.4022
-51.8563
-83.2754
190.208
495.841
471.899
259.106
224.938
282.104
95.1633
-153.058
-299.025
-287.21
-207.286
-85.4393
8.37581
82.4868
183.037
233.715
89.261
-35.7236
23.3964
58.0375
-84.0922
-243.101
-203.203
-113.463
-85.8863
-117.801
18.6161
131.968
73.3236
-32.9502
-105.067
-199.447
-226.522
-4.9387
335.93
420.453
277.524
78.8734
-105.897
-257.569
-388.579
-388.124
-140.794
94.4736
174.384
185.691
295.569
334.652
409.581
487.03
331.582
-9.99588
-284.827
-366.499
-277.778
-193.7
-36.0394
95.3213
99.3836
19.7222
-95.667
-163.464
-252.176
-174.32
-48.7355
-34.3968
-134.665
-135.544
-77.0409
-88.6885
-73.3983
-92.3268
-81.7892
-52.678
-24.2037
43.7364
-24.2875
98.2339
400.11
489.445
452.415
427.86
320.474
94.74
-147.906
-267.541
-279.759
-257.007
-198.363
-67.4966
-27.7536
-13.4708
65.4519
96.9534
91.5517
69.1846
134.891
-84.1259
-520.767
-383.345
-25.8852
49.492
36.647
124.998
172.339
148.156
136.326
176.402
47.0233
-150.777
-143.036
-81.912
-12.1438
64.7676
64.3185
-9.3719
-86.3045
-115.754
-48.7237
-59.9427
-22.3676
-64.4951
-146.468
-57.3423
268.921
479.879
349.568
62.5934
16.7332
127.234
112.991
16.7691
-236.346
-347.145
-331.677
-284.461
-131.924
52.0529
144.65
64.2249
-27.9779
-24.7587
39.6201
27.7854
-163.088
-187.832
-14.5939
82.3961
-2.73651
-189.483
-204.045
-92.7149
54.2946
169.411
206.246
201.322
186.431
253.535
413.065
432.023
242.964
69.2892
5.35212
-102.244
-265.465
-334.735
-222.264
-59.8097
-62.7088
-95.2884
-83.7996
-197.391
-265.532
-157.312
84.9472
252.885
363.635
357.712
149.731
-135.488
-466.367
-602.322
-428.431
-141.121
62.374
94.468
113.908
58.0802
121.419
275.078
176.988
206.846
369.019
225.683
-71.54
-108.489
3.06492
-95.7629
-188.245
-99.4917
26.7042
67.5679
-12.763
-42.9664
-44.104
-17.326
49.309
98.6469
99.8178
78.5046
144.724
188.463
46.8829
-63.8741
-163.359
-341.125
-447.033
-443.345
-456.881
-240.111
383.281
740.055
507.565
130.971
-57.6871
-179.907
-335.227
-216.763
-52.1163
20.1507
254.156
402.897
332.884
223.265
52.109
-88.7988
-228.887
-206.254
-62.2507
-74.735
-203.16
-256.177
-155.506
-36.5576
59.0513
176.941
232.437
251.711
188.909
15.0236
-160.892
-233.635
-97.4199
28.8968
101.238
119.177
27.7482
114.591
175.591
122.428
-199.703
-363.324
-149.58
41.0576
52.1019
26.4993
-84.1194
-212.599
-183.041
-99.8403
63.8663
81.2824
-76.01
-114.255
28.4292
156.218
170.436
81.7733
107.705
129.24
184.686
178.525
18.3888
-57.3372
35.9237
79.4097
-3.64563
-94.093
-203.582
-199.788
-62.9381
62.1243
95.031
123.271
172.438
278.946
193.929
78.5671
-73.7489
-265.473
-387.188
-344.848
-105.184
150.282
235.602
100.657
2.0599
-29.6178
-54.7198
-192.745
-322.288
-290.049
-205.868
-238.058
-314.585
-255.748
-126.224
-8.73254
251.238
358.574
404.546
460.569
394.958
261.063
106.158
53.1205
92.7779
180.914
332.318
269.084
-12.5533
-178.356
-132.58
25.4182
181.903
86.103
-74.3961
-83.6612
-108.553
-234.436
-329.457
-286.477
-287.082
-348.831
-382.527
-252.552
-28.3859
-30.7897
-75.3163
105.071
269.295
262.186
174.03
90.2685
-0.427931
-35.0871
-52.5662
-149.81
-244.25
-122.721
25.4932
144.964
359.527
531.522
407.979
100.303
-24.2435
-79.4441
-175.173
-86.6041
99.1625
185.88
95.7335
-31.6819
-57.6383
-97.551
-106.246
-21.2486
56.9552
118.36
131.512
46.5262
-131.111
-308.792
-260.11
-101.106
-88.5697
5.84373
133.181
-23.8052
-350.97
-478.025
-340.434
-202.571
-96.1331
-10.7692
140.268
238.778
249.326
341.366
419.241
259.4
76.8335
140.682
270.319
163.067
15.0938
-53.977
-37.5194
93.4918
232.483
146.829
-39.1121
-250.212
-349.028
-256.77
-91.2
-50.0368
-138.144
-188.202
-90.7386
85.6563
224.407
103.038
-69.6785
-44.0351
-26.4268
-107.345
-129.547
-93.8263
-155.551
-207.371
-139.556
19.8777
100.789
129.678
161.475
156.342
133.303
72.0012
-56.1889
-142.63
-105.469
11.9434
164.923
309.553
283.624
163.827
-25.4331
-195.907
-118.891
245.275
429.274
300.657
91.3987
-31.6808
-139.932
-301.278
-320.327
-247.076
-152.118
-177.492
-282.492
-302.579
-248.313
-154.552
24.1672
162.809
299.46
176.877
-2.25973
-62.1086
17.5552
143.591
229.574
183.812
0.408694
-105.484
-67.302
-40.2708
-56.2099
40.3838
102.755
34.0253
-39.4803
-17.2631
-5.94133
-57.9264
-135.091
-158.353
-153.273
-101.887
63.2311
400.424
616.473
593.615
465.091
183.415
-63.9714
-185.986
-300.28
-380.17
-369.259
-285.426
-116.33
27.7791
38.871
-24.222
-108.941
79.6317
297.057
184.336
-135.489
-328.12
-498.866
-535.613
-230.472
87.0948
205.072
208.59
268.347
355.067
287.544
81.7978
-164.449
-281.172
-272.491
-153.099
38.1267
91.3581
12.3178
-45.7995
36.0973
40.5196
82.9527
123.25
34.8994
-0.434397
17.5946
66.0892
116.841
240.206
324.693
477.993
590.464
316.293
29.4744
-109.424
-164.188
-144.614
-195.052
-121.087
-75.9018
-229.319
-364.655
-413.425
-394.475
-225.025
-69.6059
-56.774
-56.653
-92.8879
-97.7668
-205.138
-327.681
-286.797
-137.287
49.4808
79.3934
156.893
199.791
222.057
323.767
317.466
201.79
180.217
199.503
200.109
163.854
196.195
158.594
-100.171
-265.628
-254.5
-146.552
96.0982
304.539
395.226
340.279
301.128
194.202
-111.084
-378.187
-327.392
-147.885
31.392
72.5856
-50.5481
-29.1004
-179.196
-439.609
-342.505
-81.1578
110.305
113.186
-15.5944
-171.618
-366.338
-484.831
-556.177
-328.467
-63.3571
16.5428
116.933
263.292
297.043
267.062
272.046
221.894
196.668
312.612
391.427
292.262
134.801
201.822
229.27
156.097
161.467
139.986
-11.8338
-108.652
-126.08
-154.746
-280.079
-420.291
-366.886
-198.395
-71.082
-13.8672
66.5371
106.881
-13.5426
-224.37
-258.254
-245.047
-246.378
-183.038
-82.6546
66.7676
243.607
267.029
229.253
304.241
395.86
366.288
148.625
-66.1594
-145.336
-261.416
-397.718
-345.533
-123.353
117.564
192.608
76.8701
95.5877
153.796
45.6935
-23.0518
23.7655
63.4999
-22.1091
-124.436
-188.81
-155.334
-110.468
-132.342
-23.6821
231.621
490.839
414.05
149.178
105.625
139.023
59.0677
-140.542
-271.167
-265.934
-236.541
-276.914
-301.046
-116.076
21.2731
90.5566
87.6224
105.664
82.7955
-82.2583
-222.131
-175.182
26.7626
191.958
170.04
182.13
195.998
177.607
106.38
97.3017
49.9835
-61.2879
-80.5817
28.2235
16.5982
-144.241
-212.943
-201.301
-163.044
-130.928
-20.4623
18.0507
45.4904
127.328
98.9934
-208.779
-415.088
-277.473
67.7149
246.964
408.21
568.787
544.471
231.588
7.6901
113.632
54.6729
-107.411
-128.619
-132.681
-231.513
-269.117
-274.007
-332.309
-281.071
-22.2781
201.997
193.406
17.4588
-34.4068
-74.2758
-63.7479
-111.863
-152.388
-76.0179
-86.4015
-26.2269
62.3264
166.605
206.925
226.076
242.993
230.976
152.006
45.1158
-114.983
-215.582
-253.061
-255.501
-193.054
-51.1636
177.809
374.01
344.561
199.004
74.9583
61.9412
173.351
169.305
39.3419
-137.817
-293.884
-381.72
-357.052
-159.202
-0.129924
120.626
323.911
395.096
132.005
-160.579
-349.75
-458.805
-415.011
-207.5
-27.7823
48.4555
22.5073
-31.1426
-30.4971
-6.79984
38.7366
54.6008
84.9487
69.0463
82.9182
193.076
319.197
277.512
282.886
338.047
117.072
-93.9436
-70.0451
-82.9268
-204.901
-250.896
-157.526
-83.0303
33.5473
68.4349
43.6641
105.957
182.063
145.741
52.4751
-76.8884
-291.206
-392.99
-224.268
-43.4146
28.4562
44.3685
50.3812
33.6547
94.9033
64.7693
-103.901
-172.009
-120.77
30.7378
121.898
102.7
72.6248
81.6446
62.5086
122.477
155.207
102.707
64.3152
23.9216
-114.447
-168.229
-152.94
-121.681
-112.616
-21.637
117.548
272.555
272.564
96.7824
-85.6031
-199.237
-288.705
-252.167
-41.4065
74.9432
-9.97441
-148.184
-228.441
-201.625
40.4811
263.015
248.612
149.119
194.109
250.136
93.2591
-121.222
-348.144
-228.294
104.542
250.528
269.036
294.687
196.763
-122.014
-280.607
-230.797
-197.964
-161.481
-85.1921
-10.11
60.4386
113.334
62.9755
-26.4594
61.4794
129.228
150.378
-74.3361
-255.407
-224.163
-216.462
-273.492
-315.925
-225.24
-22.9417
394.459
875.487
1035.16
816.062
224.049
-120.513
-259.087
-327.461
-355.329
-362.176
-344.096
-258.402
-132.087
-35.5645
-57.7847
14.9845
-29.1768
-117.095
-90.4375
-40.5319
-7.1634
-101.674
-270.09
-307.9
-95.7448
25.281
57.3627
67.7383
159.564
298.43
384.56
422.519
354.213
202.706
112.9
-85.5947
-152.56
-46.8249
34.2529
-74.0679
-270.237
-404.293
-303.182
-3.53564
285.565
312.208
261.98
239.06
153.606
-2.32167
-16.9965
217.149
294.526
38.3478
-120.427
-78.5187
-148.231
-289.039
-383.314
-380.855
-312.114
-260.663
-191.508
-197.926
-235.82
-149.342
-72.4839
27.2195
179.766
221.802
63.4284
-114.382
47.3649
364.947
572.894
639.818
419.886
69.9002
21.7715
142.7
70.5524
-87.6094
-84.8807
-31.4974
-161.955
-268.702
-202.674
-200.775
-217.435
-74.0133
46.6748
-76.9447
-215.156
-260.207
-257.549
-228.074
1.82239
258.202
286.818
353.541
406.186
348.233
77.8314
-190.425
-252.047
-137.644
16.7633
66.2726
36.5322
38.8018
32.465
-72.5804
-184.744
-156.755
30.2077
377.056
610.161
549.941
199.258
-197.781
-403.982
-396.594
-364.004
-361.455
-256.343
-135.661
-148.907
-81.7083
-129.829
-55.9485
45.6655
137.431
81.5798
29.5582
115.792
103.657
52.4508
68.151
129.584
-10.8931
-145.159
-29.4843
254.753
342.455
152.326
125.816
62.6567
-126.888
-155.167
-74.0057
-83.7516
-97.2741
-84.7227
-160.105
-136.823
78.4816
255.769
334.158
462.162
563.646
415.468
30.2734
-343.535
-508.841
-567.221
-514.793
-440.151
-381.956
-174.174
128.489
417.498
386.429
323.29
258.953
-31.1961
-188.019
-206.412
-139.658
-158.809
-32.587
137.969
-17.2526
-239.627
-187.631
20.3338
79.3106
135.517
214.146
177.227
-7.32292
-40.777
121.969
103.015
35.3223
113.812
243.649
246.289
192.735
170.821
36.332
-152.51
-295.632
-341.096
-426.426
-416.136
-201.464
5.3655
178.64
266.02
260.952
75.0933
-161.201
-313.558
-338.898
-177.048
-52.3073
16.3644
15.3131
27.2129
269.358
540.867
674.307
473.341
226.358
16.6197
-163.222
-317.659
-353.633
-228.493
-40.8167
157.102
168.223
-81.2313
-142.846
-36.3042
-76.6942
-87.916
-107.85
-253.942
-412.261
-432.873
-256.919
48.0553
274.719
435.796
411.051
113.468
-32.6185
-54.2844
77.3927
198.663
281.696
367.489
118.351
-166.35
-286.828
-123.519
-60.7817
-70.3092
-5.3423
37.2679
-125.821
-209.75
-157.243
20.8488
150.429
169.806
94.4434
141.906
57.9185
-157.876
-274.424
-168.445
62.413
194.04
170.535
-52.4893
-59.2998
-65.767
-241.623
-353.826
-140.041
60.0369
124.814
23.0081
-63.8764
104.703
282.85
260.646
200.767
95.1201
-164.88
-212.833
55.6989
178.816
50.5928
-145.075
-176.235
23.8781
160.3
308.804
457.313
371.943
140.764
-52.3941
-64.8529
-138.579
-370.54
-437.858
-446.155
-380.22
-193.316
-145.668
-211.786
-112.222
83.853
254.96
246.912
117.719
59.8938
-20.3746
-161.417
-177.235
-17.8256
-20.4633
-74.5583
111.851
405.422
309.049
169.126
184.916
288.793
442.17
388.7
115.474
-104.9
-220.658
-253.571
-362.536
-545.42
-549.557
-246.313
118.107
408.073
710.929
615.285
95.764
-283.624
-478.765
-716.603
-718.086
-495.609
-218.319
118.074
337.831
432.29
405.126
388.883
391.027
285.36
88.3934
4.43178
-172.415
-400.461
-443.502
-286.015
-59.5783
111.094
203.88
266.912
260.847
91.9823
13.0847
23.2913
40.3704
146.043
141.733
-119.023
-183.316
-65.0784
-61.0602
-186.921
-167.94
-55.6973
-85.4952
-100.297
112.171
118.937
35.5746
172.208
216.674
12.2499
-294.598
-492.819
-540.791
-471.858
-186.147
55.2542
50.9254
99.4001
397.259
959.814
1149.59
744.077
61.6428
-310.394
-431.823
-347.421
-131.58
-25.765
-53.1772
-57.3628
-61.2468
-96.3689
-30.4688
-3.55332
6.03801
96.959
143.707
-1.82031
-141.715
-513.012
-753.741
-542.406
-99.7641
236.148
394.478
360.747
237.147
47.6732
-69.367
-14.1286
9.00797
-45.2085
-40.7805
135.191
304.782
243.189
56.5064
-57.7621
-198.647
-234.963
-218.6
-235.577
-46.2007
195.879
170.064
137.01
221.095
226.789
116.853
76.1668
65.3654
130.615
196.018
9.67857
-103.764
-72.2494
-71.0286
-27.1581
-31.3967
-231.618
-233.956
-39.1501
-103.156
-264.508
-277.542
-92.3249
92.5304
46.2498
3.9621
89.6353
97.8872
28.9903
-40.4465
-69.4202
-162.658
-151.587
24.5083
148.569
197.486
103.051
59.7561
135.373
276.196
166.901
10.7865
-125.239
-214.726
-204.667
-95.4389
99.0676
188.801
314.181
397.96
215.029
21.3526
-165.529
-289.58
-250.274
-307.824
-271.273
-96.3088
110.793
96.0572
-15.5387
11.4869
33.5678
-92.8744
-114.304
107.944
162.574
-11.7069
-219.449
-285.845
-141.985
48.5877
188.835
159.051
65.9398
259.398
480.816
232.759
-249.795
-439.908
-346.349
-195.062
83.9993
380.227
430.311
175.156
-53.2326
-63.9283
-67.4992
-116.389
-180.979
-284.806
-260.546
32.5363
211.787
-55.0142
-0.61179
483.005
605.714
440.02
241.21
-83.2728
-454.738
-525.809
-414.758
-319.412
-131.133
95.9689
93.1152
-21.6926
-19.0715
11.2133
-136.185
-259.847
-244.821
-105.768
-68.5868
-110.123
-10.4495
159.854
232.853
296.441
340.519
243.197
192.41
242.847
173.431
95.5292
46.0039
-17.3453
-67.3913
-114.247
-47.7515
67.9686
123.3
34.7237
-133.388
-210.98
-217.166
-280.814
-251.661
-125.404
-4.17732
142.95
232.51
201.152
45.5321
-218.491
-290.58
-109.56
112.032
194.059
79.4071
-126.019
-221.043
-139.894
93.1509
295.357
322.432
279.984
251.044
215.832
2.60225
-148.936
-102.281
-94.4457
-261.162
-372.607
-378.563
-290.372
-237.933
-222.457
77.4757
269.518
265.785
196.359
43.9353
-20.3068
17.8471
47.6257
17.599
13.4294
102.76
61.1849
-105.183
-178.158
5.89947
204.406
416.454
471.386
206.94
-62.0232
-90.0417
15.8138
61.4721
-19.2767
-256.931
-451.731
-467.544
-224.733
136.883
358.726
438.782
192.918
60.4215
65.5769
6.81687
-127.218
-327.568
-432.962
-198.218
185.243
418.298
338.69
-36.8381
-198.849
-231.647
-310.141
-285.949
-301.001
-351.485
-247.573
-58.5739
193.546
236.78
62.8244
77.8598
225.149
311.175
293.383
293.613
220.294
-57.4717
-224.856
-154.563
-69.5389
24.6565
174.383
285.737
287.799
357.134
256.18
42.2216
-90.1133
-153.288
-267.135
-326.03
-251.087
-176.625
-156.603
-149.284
-135.012
-98.7164
-5.0589
46.8049
57.561
128.078
185.626
18.8776
-118.684
-257.281
-245.188
-50.4923
214.997
182.944
105.368
32.7259
-59.0802
-109.862
-27.8428
22.7794
95.8457
159.866
136.742
91.9074
87.7279
119.041
63.1475
-32.4837
-123.171
-178.703
-157.003
-153.356
-166.329
-29.7018
101.222
61.9685
32.3849
164.425
281.824
231.177
-3.61822
-184.74
-225.932
-212.032
-159.752
-117.235
-1.93334
345.713
560.535
431.974
74.9902
-84.5383
-170.119
-243.438
-143.284
-39.267
-73.8902
-259.438
-402.751
-312.913
-111.526
72.7006
126.786
65.7302
1.13417
-73.5535
33.5947
294.309
584.75
448.342
232.462
165.146
-67.7678
-366.841
-438.812
-370.53
-277.994
-158.106
10.6502
67.6475
123.916
232.504
323.223
473.586
492.472
152.042
-569.49
-1095.01
-1126.33
-614.589
126.971
434.467
728.889
827.583
430.856
119.335
144.279
360.75
309.729
-19.7147
-306.149
-465.657
-486.462
-360.938
-127.541
150.959
373.772
454.972
241.826
-106.389
-470.625
-554.516
-488.48
-257.303
136.989
325.402
201.031
-23.7787
-112.188
-54.7851
27.5183
100.951
157.656
209.247
82.1243
-7.1125
78.3004
251.112
283.79
151.658
-46.6682
-232.412
-250.357
-162.598
-118.147
-155.782
-135.776
88.2553
219.561
334.585
368.273
332.576
283.158
-44.5617
-427.015
-467.956
-250.307
-204.654
-191.608
-172.578
-99.4433
-72.209
-93.4823
34.1467
262.704
354.433
343.233
147.136
-47.5697
-210.056
-280.471
-206.156
-232.599
-162.332
19.3537
110.573
87.9956
-2.67294
42.944
293.907
430.125
299.153
110.271
-147.958
-293.04
-94.3508
35.6605
14.2381
117.554
84.1072
-57.0763
-130.184
-79.7976
-58.3686
-91.421
63.2138
-25.7499
-219.593
-108.41
32.5533
40.7171
-81.7769
60.1227
243.895
345.708
286.515
85.4162
-16.4795
-95.0954
-97.3567
-258.707
-397.143
-428.343
-450.973
-118.751
147.933
543.646
903.946
750.259
129.539
-313.159
-352.764
-384.333
-265.378
-160.251
-143.114
53.9003
117.957
27.3923
51.6523
72.9233
-19.059
8.87014
180.04
24.552
-100.565
-171.484
-393.787
-266.888
137.537
253.975
221.772
140.822
120.441
65.6253
12.8051
58.303
5.83432
-129.916
-189.125
-39.5121
17.2204
-8.69496
32.0974
257.271
337.403
209.271
88.8627
-202.754
-422.179
-316.995
-73.3664
-47.0036
-66.9496
-12.1705
-21.8517
-82.4529
-29.4254
97.99
76.9626
-51.7613
91.9713
249.065
190.959
161.386
205.851
-174.356
-548.4
-425.892
78.5257
168.339
16.1316
52.8264
120.504
140.837
86.4842
31.6738
-18.6199
-229.855
-256.269
-75.729
10.0775
-89.0563
-57.4806
23.284
15.2476
395.236
790.204
777.557
236.976
-60.5018
-87.1736
-276.487
-526.41
-614.394
-512.502
-325.666
-104.285
285.567
716.736
689.351
364.697
151.215
-39.6492
-257.817
-488.052
-677.366
-736.511
-701.543
-424.394
-85.6949
211.496
575.025
436.149
190.76
179.537
152.536
53.8421
-127.237
-361.682
-311.389
91.6864
606.079
576.546
188.058
-22.9171
-58.9337
16.0747
182.055
260.151
285.41
132.375
-53.8115
127.292
202.594
8.39137
-198.069
-247.947
-231.672
-248.74
-136.983
-162.164
-429.348
-364.903
-6.52987
187.945
194.257
52.9477
-216.457
-405.333
-360.228
-205.321
16.8153
190.241
192.11
135.036
218.873
264.203
225.333
141.831
109.534
-62.1363
-174.845
-147.464
-99.8424
-70.1102
194.707
367.719
211.108
141.822
104.302
-8.77967
-185.664
-225.31
-119.68
1.7337
63.0068
-24.7058
-56.6131
39.9583
139.603
24.7804
-160.636
-202.233
-218.098
-215.596
-232.492
-84.3414
22.6454
168.382
288.951
453.247
511.848
352.464
66.1827
-99.8651
-199.618
-225.808
-181.214
-136.083
-197.041
-192.734
-53.9595
152.927
252.866
174.352
-18.804
-209.214
-212.039
-173.034
-186.369
-227.942
-271.264
-246.657
-117.789
55.2848
147.633
286.864
426.403
327.457
138.111
127.273
161.516
103.081
-6.16679
-13.5194
9.79731
-27.393
-17.6375
53.6749
171.345
168.682
-16.9142
-189.645
-230.769
-329.438
-392.338
-283.007
-105.006
213.079
400.467
439.349
326.744
222.736
83.0612
-76.841
-71.1533
-51.9161
-161.315
-416.319
-580.899
-596.673
-500.64
-174.017
290.949
807.999
932.451
554.104
126.218
-161.377
-265.605
-438.557
-608.692
-566.106
-278.413
5.35237
106.041
164.894
285.399
300.513
147.072
161.22
253.139
239.715
225.185
137.819
-1.2701
-216.896
-323.072
-327.579
-263.043
-82.4859
147.683
349.647
383.479
172.761
-14.3859
-41.1289
-34.4289
-18.1498
37.589
9.35818
-3.22171
186.003
173.278
-37.0533
-130.062
-127.972
-382.836
-515.611
-340.765
-152.876
4.79293
40.5073
81.8102
178.62
207.2
266.229
185.484
98.4961
17.6569
-114.643
-76.1796
-101.387
-163.323
-181.559
-11.2495
153.288
251.039
162.311
-37.3153
-117.541
-162.861
-192.121
-154.89
-26.9142
44.5429
-21.6521
26.7894
155.12
150.45
177.283
86.6061
-39.6608
-123.307
-171.36
-101.345
-12.4049
66.7381
28.8167
1.90342
166.224
424.197
498.629
313.684
-8.34748
-256.514
-398.26
-391.232
-119.444
311.391
531.617
558.612
242.689
-191.408
-415.792
-609.477
-500.062
-245.906
-85.0446
-31.6731
-47.9875
-39.7587
-85.3674
-147.463
3.62231
162.529
88.7388
41.3738
-28.6924
-215.77
-389.169
-425.231
-178.006
166.29
357.256
388.855
400.553
382.505
338.118
260.859
115.456
-5.21524
-96.2683
-116.412
-112.627
-22.2196
215.608
415.336
280.264
60.1473
47.4357
-25.1112
-177.633
-251.538
-217.346
-210.964
-218.217
-121.734
-39.1522
-49.3338
-104.114
-218.677
-242.444
-154.044
-69.3605
14.055
121.743
0.642285
-35.4729
-3.93158
-29.3202
-50.377
-76.9679
-143.585
-194.124
-35.8823
95.7233
206.159
339.414
319.732
227.475
204.565
149.369
138.587
213.088
111.611
-209.53
-329.551
-130.143
176.362
288.333
257.802
191.364
-17.6721
-210.14
-215.884
-122.655
-186.753
-186.323
2.73204
123.157
107.4
32.6283
-47.1086
-166.664
-252.651
-241.206
-231.39
-172.292
-81.6356
-147.656
-202.741
4.9033
284.318
432.113
362.289
243.918
144.457
12.0177
-105.674
-108.268
-67.5708
-67.8687
-81.8397
-11.9384
49.1297
28.2851
66.6354
-38.09
-263.713
-262.733
-47.3647
126.427
211.036
235.142
240.937
67.3677
-109.97
-167.598
-48.3388
69.7196
11.6552
48.8177
133.52
142.937
89.6754
77.036
124.724
58.7861
-98.3282
-247.892
-208.31
-223.396
-170.228
-42.6184
-33.0792
37.145
188.781
144.389
-129.267
-310.301
-232.78
-118.915
-73.2371
-61.7421
-4.98351
124.588
86.6695
55.3221
204.96
398.174
331.716
84.9235
159.652
172.019
10.5703
-118.143
-292.222
-294.875
-30.0458
124.475
121.194
230.579
319.332
68.2246
-165.039
-306.375
-378.753
-298.248
-112.19
100.643
156.283
39.6555
-173.159
-236.765
-154.123
-77.3927
34.759
32.1024
-45.8603
-57.2343
-72.3926
-85.5374
-12.8024
138.514
208.798
305.162
338.019
250.494
185.887
81.8557
-51.6958
-6.15251
-80.3148
-160.511
-84.2993
4.431
114.459
219.955
139.037
-63.9887
-52.1758
-44.9642
-168.593
-113.414
122.386
201.841
117.893
2.46819
-280.537
-402.346
-233.122
-190.794
-175.269
84.9422
216.848
57.4977
-144.842
-183.765
64.0664
302.337
281.767
56.0501
-138.246
-193.804
-257.144
-468.688
-515.604
-346.271
-48.8748
156.525
279.386
487.618
469.535
366.451
286.587
250.364
325.822
357.77
144.823
-218.61
-315.273
-279.994
-191.463
-118.275
-113.782
-5.93241
299.311
487.939
297.802
-53.8578
-92.811
-81.0266
-81.9613
-131.297
-154.61
-160.863
-174.919
-252.596
-313.634
-258.482
-211.285
-50.4289
136.676
213.572
196.072
163.562
-55.1807
-403.858
-392.316
-118.462
-11.3474
-25.304
36.217
63.7895
102.361
215.889
248.616
246.834
236.081
268.946
234.445
165.907
44.8618
-89.4108
-99.4984
41.1734
83.3564
177.044
309.418
300.146
1.34818
-287.718
-300.776
-333.149
-399.435
-228.207
18.5257
118.463
19.4188
26.45
66.5472
18.479
-176.971
-361.346
-312.333
-117.278
184.304
343.089
75.9259
-202.092
-252.434
-131.775
22.3026
51.2412
31.0096
33.4159
70.5274
139.686
220.959
204.892
-80.4205
-159.658
-24.1681
144.935
121.547
31.0623
-51.9539
-28.7028
89.4824
101.187
200.42
398.872
215.625
43.122
88.553
-29.5176
-281.969
-407.819
-415.587
-329.566
-118.518
146.41
478.343
483.948
194.337
56.6523
-31.7341
-186.457
-228.47
-44.492
25.2753
-159.782
-135.371
-102.753
-294.523
-324.901
-245.526
-160.221
-131.673
-89.5994
70.4256
161.098
84.2125
72.0243
268.559
234.977
281.384
509.03
541.678
247.571
-118.229
-324.594
-509.95
-572.644
-343.457
-37.4984
170.306
321.425
409.793
476.835
430.711
50.3071
-266.802
-312.025
-405.504
-466.646
-473.275
-425.97
-193.196
161.229
475.702
707.713
719.362
486.999
202.837
-82.2024
-144.255
-141.676
-307.963
-468.114
-440.84
-255.227
-149.244
-81.1396
58.7798
227.692
284.455
180.805
-36.7463
-231.974
-364.517
-332.71
-129.136
77.9749
164.154
220.747
192.388
80.3842
134.904
169.503
153.976
119.568
130.897
149.554
146.806
119.488
31.2775
-131.758
-212.051
-144.32
48.7133
58.4537
103.054
60.7344
-57.2705
-135.725
-151.151
-77.0417
9.88728
114.984
61.8837
-155.197
-254.543
-211.835
-128.647
-132.847
-14.2191
45.949
-37.9641
-186.616
-299.338
-271.963
-225.215
11.2256
379.354
510.871
285.309
-30.0783
-36.2177
18.4936
81.8849
140.161
145.574
300.469
392.456
312.55
163.554
-14.1102
-11.6548
-20.6246
-16.8031
51.78
-21.6139
-131.654
-329.799
-442.237
-435.899
-298.561
-121.877
-71.8333
-150.83
-139.378
-34.1839
-62.5423
-96.0841
60.6508
213.556
249.488
270.678
239.727
33.1736
-126.285
-12.115
174.465
294.139
408.239
319.355
32.6869
-214.84
-201.492
-152.007
-64.3905
44.9094
6.83184
55.4708
24.9532
-210.277
-348.373
-176.156
110.705
103.912
-30.2632
-119.734
-119.731
-130.904
-141.031
-91.2803
37.8777
110.579
129.101
239.34
263.131
185.754
107.139
-89.1454
-252.044
-306.988
-162.452
-51.0905
8.12584
322.807
355.082
158.492
14.7727
-46.6265
-64.692
4.65151
63.0515
79.4943
-7.42385
-202.759
-219.834
-155.489
-78.1494
-151.414
-271.573
-248.8
5.59881
81.9268
222.392
346.301
243.16
96.3798
12.3389
-76.9326
-154.406
-101.909
18.4228
75.918
114.377
177.664
140.212
23.7753
74.7579
149.891
39.7925
-30.6418
-83.3813
-106.799
-212.267
-392.678
-197.911
182.12
227.532
102.605
129.167
215.335
103.594
-123.38
-283.056
-226.602
-22.4021
146.558
50.7835
-121.815
-75.8357
3.161
-126.924
-273.41
-316.265
-123.707
-1.36373
-46.3405
-65.8142
111.222
245.238
122.86
140.635
341.254
399.474
372.314
296.604
159.545
-113.503
-217.883
-129.497
-45.9181
16.034
48.4758
2.8623
-176.364
-273.034
-215.306
-122.165
-90.4104
-109.773
-81.8188
-33.9448
-13.7423
38.4789
-48.0617
-76.424
-63.3468
40.1613
145.901
75.8055
-33.8121
-12.9261
66.1346
48.8774
87.5534
528.432
710.195
264.35
-218.881
-411.303
-361.697
-242.959
-120.704
-84.5942
-77.2783
-122.391
-153.56
-132.038
-4.45566
172.931
128.747
141.395
104.384
-62.0179
-150.002
-231.042
-149.212
124.734
280.871
380.086
312.942
44.4352
-368.561
-554.053
-438.642
-138.478
158.825
508.086
781.148
685.226
316.025
-41.9624
-74.8859
41.0347
32.8157
-232.545
-435.007
-309.848
-256.51
-383.187
-324.12
-238.726
-134.951
32.2507
161.047
171.949
131.968
46.7681
-42.8987
-79.506
-17.1857
-29.6174
-72.5031
-107.491
-48.0037
53.5341
13.5063
24.9843
123.37
164.31
193.658
207.246
271.6
270.435
198.88
43.9115
-139.544
-385.84
-410.61
-189.16
201.765
432.739
450.035
391.793
96.3298
-156.224
-117.255
-110.861
-179.378
-250.122
-197.174
42.8632
150.784
26.8174
-166.785
-331.467
-423.173
-358.304
-282.368
-176.653
-80.2413
-9.44135
-25.3935
-79.0576
104.173
364.177
324.515
213.166
213.316
167.984
93.3135
-7.34236
-117.061
-74.5723
198.729
341.668
283.963
139.543
-59.7807
-93.5715
-83.1486
-19.1202
82.079
256.861
345.357
-6.40284
-370.131
-341.86
-44.0154
72.3989
-139.47
-209.709
-65.5744
76.9457
125.221
29.6567
-28.0868
-105.261
-322.106
-329.306
-240.298
-248.214
-267.149
-233.976
-259.379
-232.589
-19.5766
243.269
317.845
407.728
567.377
542.257
297.762
125.985
-86.3351
-112.5
14.6491
137.636
322.168
328.172
144.818
-86.2846
-244.776
-430.835
-458.827
-274.31
-19.8496
184.446
353.109
424.73
327.866
169.004
-102.372
-421.617
-501.658
-421.074
-379.84
-304.667
-132.994
-25.5625
7.74399
67.6287
164.279
257.233
247.117
154.238
-2.79022
-172.8
-295.788
-285.504
-91.2743
246.275
548.665
397.183
88.7901
-40.8359
32.9338
135.066
50.8855
-10.6144
180.911
295.17
120.195
-61.5489
-188.256
-121.661
-53.3777
-87.1084
-86.8191
-98.7058
-122.41
-359.837
-391.194
-228.701
-128.113
-45.9275
134.691
236.545
188.193
102.855
-43.1149
-81.7347
89.8913
342.705
185.275
-151.136
-231.651
-208.2
-244.065
-249.53
-240.019
-44.7092
304.616
615.788
651.167
498.699
191.414
-75.0245
-241.839
-303.363
-82.3786
85.3345
16.6172
-105.236
12.6235
127.92
61.4092
-60.0145
-185.753
-253.015
-242.626
-158.12
-84.6376
-7.68816
39.1363
-1.70498
-32.0583
-57.1527
-1.4204
10.9777
-48.5399
-23.3884
91.272
106.807
56.3533
159.903
208.87
166.902
207.545
217.859
97.4378
-168.118
-434.191
-568.672
-577.066
-427.382
-230.836
-25.8333
310.088
493.209
369.601
190.787
184.486
242.386
296.657
247.092
179.864
142.427
24.3215
-125.284
-188.836
-159.054
-51.8739
123.681
180.358
123.701
-6.47788
-109.46
-248.799
-361.264
-378.451
-337.211
-340.148
-274.628
-92.3819
62.6795
178.482
148.954
103.004
95.9823
57.832
23.3191
9.9128
92.4627
216.077
214.851
238.284
205.302
59.1255
-66.5568
-80.5924
-32.0685
-8.60144
3.87531
-60.5611
-157.952
-186.725
-167.332
-93.6538
45.0178
125.727
125.089
25.3051
-118.828
-163.182
-88.6965
-57.2173
-38.5032
134.319
266.543
288.685
219.889
45.6334
-47.2319
-16.2742
-131.017
-253.027
-119.686
51.2704
118.477
10.1528
-95.6962
-105.954
-60.0358
-24.7926
-41.8538
-36.7115
34.7256
48.5151
9.72754
52.6675
190.995
302.501
148.19
-209.014
-267.529
-115.738
-88.0713
-87.7332
40.4393
260.832
201.745
148.706
123.64
10.5532
-94.8474
-104.808
-155.327
-270.222
-227.646
-180.596
-322.822
-408.465
-365.44
-143.427
167.91
480.28
670.109
611.276
435.635
219.91
142.464
165.22
101.935
-167.928
-333.94
-233.748
-117.115
-21.6629
55.0913
-16.8315
-211.115
-290.294
-133.831
119.201
195.863
-46.4683
-295.377
-417.844
-365.588
-152.029
17.6812
-107.398
-113.934
242.152
511.506
565.371
502.323
194.082
-95.5912
-231.587
-143.976
21.8947
123.801
18.043
-197.5
-324.85
-188.496
98.5183
219.77
293.109
447.404
554.534
418.41
43.0686
-164.767
-313.742
-396.183
-342.633
-355.607
-305.903
-136.184
-98.6517
-97.6162
-31.9094
-30.523
-104.219
-273.482
-324.861
-206.36
-107.903
31.532
155.867
215.455
321.948
258.473
50.1295
-65.0267
-8.56708
179.586
343.768
311.849
242.058
165.83
135.982
232.169
371.179
323.015
143.263
-9.63718
-189.865
-371.506
-475.214
-528.739
-375.958
-79.6276
127.563
174.648
114.669
0.755675
-173.089
-166.511
-86.327
-92.1205
-0.606113
55.2826
-28.2741
-69.3189
-30.6521
-79.7013
-175.838
-211.442
-155.831
-5.31054
87.6993
49.1175
79.8094
199.469
227.653
171.283
83.9399
-66.2656
-114.203
8.90497
62.8413
142.127
242.082
295.329
202.263
25.6119
-0.983449
5.10467
-44.5629
-120.867
-198.801
-147.482
-124.123
-110.14
-11.0132
136.149
227.28
223.549
145.006
-14.2012
-94.9376
-91.8656
-72.837
-43.3553
-198.063
-296.916
-202.299
-147.211
-125.461
55.9507
282.168
219.009
16.9124
-93.6149
-62.7582
-14.2379
136.984
256.125
293.567
252.003
22.5542
-250.36
-331.74
-356.363
-317.602
-254.34
-275.113
-249.011
-24.1789
165.443
169.705
186.724
229.849
207.928
117.515
78.8086
19.4793
-22.8115
26.8554
70.1246
106.82
166.258
253.689
239.424
171.653
135.218
121.952
88.2278
-88.1559
-280.597
-301.778
-285.609
-250.949
-194.513
33.4841
200.997
64.5933
-45.7993
-157.72
-227.231
-172.426
-113.454
-91.7751
38.6265
219.312
374.811
372.629
220.062
92.5059
-50.5949
-160.676
-135.575
-112.647
-104.16
-218.532
-310.2
-195.49
-21.4224
16.009
51.7567
33.4993
106.216
245.767
272.3
116.972
-102.372
-126.009
-0.487655
14.0634
-2.98565
7.42821
-3.69775
1.8303
82.5983
94.2614
-5.24724
-1.90737
49.2487
132.58
126.368
100.479
-106.064
-379.177
-344.208
-109.223
15.7777
89.915
210.629
224.159
103.266
20.3882
-7.75383
-14.0899
-77.3565
-139.732
-74.0915
63.3887
117.841
40.7287
-59.9406
-114.024
-65.0618
-39.0297
-113.604
-125.37
-25.6671
143.949
152.502
-41.6745
-107.543
3.67931
164.637
334.97
415.493
253.617
42.5163
-268.045
-453.737
-471.801
-321.147
-87.8313
78.163
128.082
67.4091
52.5088
63.8928
-18.4581
-92.3838
-30.2109
-2.47965
-154.991
-209.754
-118.727
-64.6253
54.8362
283.045
582.068
651.004
490.084
247.21
138.736
75.6623
9.31709
-96.9112
-152.219
-355.913
-606.675
-632.648
-428.944
-127.38
107.256
104.817
33.9083
-66.6499
-83.4275
-116.573
-135.897
-32.1749
179.546
412.893
208.763
-117.587
-90.4978
21.8508
35.4401
27.3104
85.2648
204.292
300.225
302.057
279.257
203.745
20.6471
-46.202
-113.317
-225.846
-307.955
-307.011
-313.84
-388.965
-222.358
38.0273
180.428
166.457
151.057
206.489
223.21
176.999
164.498
45.5365
-134.157
-218.037
-201.852
-125.047
-14.9982
18.1676
-9.37433
-48.4961
-24.6208
11.4407
46.8324
65.3931
-3.9377
-11.3962
-10.4698
17.3694
35.1921
-3.95037
-18.0406
38.7026
135.476
166.789
69.4987
-76.9274
-142.654
-60.4774
-22.511
-22.7475
4.82087
-18.6085
-0.0827127
8.49544
-79.8937
-87.8042
-36.7431
46.6839
51.4612
39.991
80.2062
61.0985
35.8624
81.2652
162.723
176.657
129.987
-22.3984
-117.391
-162.673
-142.414
-69.0934
-32.4454
1.24295
-37.0459
-100.23
-123.005
-87.0559
-3.73919
20.2648
-17.2031
8.21345
-91.7036
-284.1
-248.239
-106.723
10.2899
131.039
173.537
205.254
222.469
193.175
138.301
91.7014
69.1623
67.5481
53.2133
29.9342
33.5833
18.5448
-39.3647
-116.328
-184
-199.8
-152.308
-40.6753
191.922
475.746
539.916
333.104
13.573
-207.398
-214.821
-209.931
-256.412
-208.474
-127.097
-79.2228
-98.6315
-167.406
-126.228
8.67543
79.9592
93.2161
24.7056
-57.3125
-140.935
-215.748
-114.728
7.65706
-61.4184
-119.578
-79.5709
2.49388
136.548
187.706
148.466
88.3565
106.819
173.458
167.254
164.804
209.424
128.197
-80.9817
-203.26
-194.715
-203.279
-143.376
54.3511
435.498
732.342
597.077
244.095
-45.0591
-166.368
-219.362
-252.098
-337.446
-369.575
-338.886
-305.025
-121.95
104.96
242.995
264.535
66.8993
-125.394
-258.736
-344.856
-387.956
-414.182
-319.953
-135.057
62.1714
179.724
282.812
385.435
352.32
233.478
139.435
75.9388
42.8734
61.299
54.4695
40.6403
90.4144
124.715
107.849
89.5343
45.9182
-30.4401
-167.912
-177.977
-38.5394
-57.9742
-54.3137
-17.2276
47.14
90.8107
57.4666
-3.66808
-114.693
-183.398
-161.869
-139.879
-84.2829
-30.1998
37.8555
25.9499
-19.6473
46.165
201.378
294.575
227.181
124.494
-29.0999
-129.392
-112.815
-40.8413
21.9525
35.0986
-17.9677
-36.7527
-15.9405
30.6393
33.0041
-22.4724
-116.255
-159.481
-131.675
-150.329
-147.665
-116.556
-64.0189
-11.9484
19.8291
47.7179
33.698
20.5047
2.36959
-18.3666
-2.26119
77.7455
126.417
64.7674
-2.99403
-11.4643
31.8755
102.072
165.507
188.206
199.617
206.783
170.402
141.494
79.4144
-47.7082
-94.3957
-72.9624
-79.308
-73.4333
-33.5874
-38.3266
-70.9692
-82.4462
-93.528
-116.297
-143.118
-156.93
-156.786
-154.266
-134.295
-123.91
-132.326
-119.437
-69.6977
-39.8838
-0.617449
53.7186
97.7274
117.224
132.676
161.042
173.312
202.405
200.276
135.189
78.5674
50.0624
33.4088
17.9397
-0.973266
-12.999
-7.52781
1.75826
-10.0776
-10.8791
-4.41704
-10.8558
-26.4304
-38.1318
-40.7027
-49.9517
-51.4015
-32.6093
-17.7166
-7.15217
-20.5881
-33.5752
-6.90108
31.4024
27.3449
-5.79633
-31.7764
-40.5721
-39.5664
-30.2015
-22.9986
-21.6003
-23.9777
-30.9504
-32.0872
-28.9415
-22.0056
-9.43627
9.54768
42.2508
60.5632
46.5115
15.5693
-19.8359
-43.5111
-58.2621
-57.393
-41.4862
-22.5858
0.763837
33.967
60.9526
69.542
83.6964
96.0044
90.0703
56.9454
27.7085
23.8229
18.8083
4.92163
-6.82502
-25.465
-56.4154
-49.1916
-8.54835
11.7661
21.9717
19.6269
7.17154
-12.2212
-29.3141
-20.822
-17.8051
-47.9477
-49.7913
-44.5581
-43.574
-36.1366
-33.515
-32.2929
-15.4058
6.99224
33.3268
57.18
67.6899
55.9053
31.2151
-0.766257
-14.3733
-17.2373
-25.6958
-42.8417
-41.4615
-14.3938
-0.318969
8.37036
4.77199
2.2356
13.6802
17.3468
23.6851
23.9156
5.22415
-2.03888
-3.63214
0.344588
16.7819
29.7518
25.4878
34.2866
46.0186
27.5217
-1.25055
-20.427
-42.5237
-35.51
-5.24605
10.8305
4.06961
11.0109
12.6149
2.23632
4.8484
-2.94112
-32.7166
-54.6367
-49.9477
-38.8692
-19.8269
0.241796
-12.0578
-31.0965
-4.12952
43.7048
60.4913
51.012
33.2198
32.7672
46.0251
17.3521
-43.3495
-46.1739
-23.8426
-22.746
-18.5575
-7.54062
-12.2007
-19.5506
-19.887
-35.7362
-27.1069
22.0394
39.4441
31.9024
1.48791
-12.0077
-17.3266
-43.5988
-67.8494
-87.7297
-60.9428
-8.16036
53.9839
103.515
115.552
87.1804
55.0991
73.5627
112.448
88.0117
22.103
-12.1179
-3.60104
31.8155
86.4618
89.0567
0.272568
-87.7882
-149.026
-130.496
-79.6134
-57.281
-69.726
-73.0471
-30.3703
-30.538
-62.2172
-72.3216
-70.8141
-69.9204
-43.4251
-14.025
-4.56669
-33.1261
-42.1531
-22.2116
42.4278
146.628
193.801
167.672
139.688
42.6165
-33.4352
-21.8668
10.7441
62.5304
87.3353
46.106
11.1677
9.31029
3.22754
-24.2641
-58.5389
-67.1004
-69.8288
-40.2888
22.9813
44.0462
14.829
5.98656
-38.6688
-47.0045
-33.6011
-50.4284
-70.4309
-51.5332
-12.3761
11.0156
24.0345
20.2101
10.1979
8.90252
-28.1513
-47.2071
-64.8451
-57.7407
-21.7479
-5.16186
46.653
78.4595
67.5227
80.6188
99.323
92.0371
55.6969
13.2036
-4.80016
-7.89428
-18.8835
-27.8756
-28.3294
-18.049
11.0131
20.3525
14.0604
-13.8985
-49.6189
-72.4347
-70.8195
-45.1518
3.4277
8.67917
19.7871
38.8323
9.40866
-8.89135
-5.51439
-12.3698
-31.2187
-43.535
-57.6733
-35.6859
-8.60817
3.18991
38.4328
68.8905
66.8213
68.8381
63.0938
47.9108
13.8847
2.71582
2.44135
-37.2093
-92.1948
-102.62
-104.737
-88.8518
-53.8021
-5.16481
56.1895
86.7499
101.65
82.4109
22.2698
-27.1786
-45.7352
-35.617
-22.2107
-17.819
24.5861
94.3782
101.358
53.0046
50.3569
67.1828
126.208
114.489
51.1036
12.0561
-23.4931
-88.9398
-159.993
-185.209
-163.14
-140.78
-132.38
-121.219
-84.9224
-43.0532
-14.1717
-17.352
-30.5626
-1.64557
33.5058
39.7129
26.3466
64.6321
118.404
136.822
164.763
176.507
159.024
116.138
70.2176
44.8098
42.2022
35.5206
17.7567
-5.96102
-50.4303
-86.282
-103.982
-96.5157
-64.0842
-62.4824
-87.7013
-86.1598
-69.5434
-58.9143
-57.3482
-62.2069
-52.4761
-25.7393
-18.3711
-14.2261
10.6884
-6.68163
-12.4542
-2.4416
-8.3802
41.8769
171.965
211.094
190.45
143.608
94.8596
87.7318
35.1277
-35.2511
-88.5847
-108.029
-123.48
-132.058
-106.025
-83.9268
-70.8926
-29.0195
-10.2818
-0.617641
30.238
16.7884
-26.9787
-46.2132
-57.9966
-37.3233
-24.4107
-54.5872
-61.8593
-28.9416
10.4575
91.9258
180.304
224.022
213.141
150.998
64.6775
26.5944
15.2474
-11.4195
-27.1881
-7.82781
-13.8509
-27.5796
-35.009
-63.8611
-100.778
-116.423
-86.7211
-37.8747
-23.9887
-57.7306
-87.0819
-82.3004
-55.1128
-14.1071
41.9738
55.4357
65.5163
142.492
229.467
158.19
-18.5986
-85.5247
-60.6648
-36.3056
-31.5932
-56.4083
-62.1855
-0.591693
26.0461
3.83056
-39.7533
-27.5686
-7.35617
-18.9021
-39.2408
-7.46402
4.0825
-37.6897
-82.5187
-53.9166
7.68664
37.7114
31.643
1.86374
-7.36755
-2.8982
-4.05611
19.9109
88.4928
155.75
190.559
160.002
110.917
67.8083
12.6227
-68.7389
-127.028
-191.592
-218.125
-217.552
-224.032
-145.423
12.4814
243.62
445.136
512.683
375.499
156.175
-25.8458
-186.655
-343.482
-398.102
-333.396
-239.693
-177.914
-80.0581
63.5024
197.999
271.694
216.562
139.42
92.8901
69.5577
-20.8952
-178.933
-266.222
-220.437
-162.986
-127.631
-35.2673
90.6427
139.116
86.4405
52.5536
70.6468
73.654
3.95707
-64.7368
-124.452
-59.7528
36.2686
32.7934
21.2445
58.1816
121.548
169.929
164.8
109.967
88.9895
53.449
6.54241
-41.1825
-136.926
-200.523
-205.327
-142.89
13.0224
173.151
252.784
275.747
276.646
218.531
62.0997
-100.423
-169.227
-161.539
-96.9407
-110.854
-198.507
-245.153
-210.77
-118.884
28.4891
142.901
151.904
13.009
-174.074
-330.971
-308.077
-140.422
-16.7721
-20.9356
1.03674
122.069
172.075
137.335
36.3492
13.7147
60.5224
37.9316
84.1068
127.134
150.751
176.095
212.735
226.728
190.949
279.937
273.045
150.107
46.2595
-34.6739
-134.229
-278.032
-358.296
-367.671
-361.781
-331.125
-203.262
-67.57
-25.03
7.99832
76.1264
166.267
250.372
178.799
-8.77969
-179.181
-205.039
-180.142
-148.194
-64.6324
-22.796
-31.8689
-6.49352
30.2722
145.286
337.926
379.195
303.604
268.427
198.012
154.8
111.939
3.63476
-99.5877
-103.754
-207.913
-313.711
-290.917
-163.832
-11.6538
121.534
200.763
164.644
104.663
34.681
-45.5296
-156.849
-166.633
-187.058
-179.247
-150.066
-195.323
-169.587
-41.8422
73.8196
71.9137
79.7991
-4.48852
-101.939
-69.3405
7.18853
136.287
262.972
208.502
98.2601
46.179
69.293
109.469
102.871
81.7671
1.76009
-123.984
-233.775
-146.224
-19.7343
127.355
218.28
270.747
289.425
216.404
41.421
-139.893
-235.878
-240.655
-257.928
-316.478
-266.548
-158.359
-61.6068
25.4708
104.794
201.12
298.779
254.947
155.895
33.0539
-72.2556
-104.224
-93.7007
-142.283
-165.688
-98.5195
-44.6247
-15.5616
46.8007
90.4075
35.7187
-83.5819
-84.1275
-28.4055
7.80447
18.2619
35.45
85.3073
85.4878
5.50319
-26.4274
41.2518
107.048
82.5386
-10.1813
-135.008
-199.527
-142.976
-21.085
98.6591
151.708
146.971
103.797
1.07155
-42.5674
34.5852
99.6539
129.65
239.272
426.973
306.412
-34.4977
-292.079
-415.803
-384.238
-308.879
-228.785
-45.9062
81.6832
123.033
193.994
251.631
146.845
0.324802
-144.586
-240.778
-259.908
-295.391
-332.833
-304.072
-128.802
59.608
156.998
245.856
321.24
362.809
381.471
268.07
114.089
-25.6552
-223.806
-404.188
-411.123
-256.142
-65.9712
149.677
309.959
482.261
477.3
285.348
132.623
63.0516
-35.1932
-104.231
-109.259
-117.585
-76.5928
-113.79
-133.308
-132.605
-127.527
-66.8576
-5.33627
16.7987
-8.59828
-56.7944
-151.069
-348.834
-399.262
-273.017
-148.643
-63.317
72.6935
184.267
211.383
163.204
59.0813
72.9076
145.527
179.318
242.757
329.932
455.71
421.449
184.232
-13.6738
-107.434
-131.549
-217.612
-370.973
-378.167
-250.537
-139.688
-18.1528
143.784
260.799
166.095
14.0552
-103.224
-157.491
-97.5308
1.07464
19.5058
-13.5793
-37.2065
-119.692
-189.441
-196.484
-135.836
-77.4019
-41.8554
-22.1523
-17.6093
33.5662
78.5708
88.7918
153.344
223.061
158.96
105.904
64.5115
27.3949
7.58539
26.6737
9.08515
-107.706
-96.9343
7.15405
158.678
382.339
531.325
529.086
351.083
20.2365
-337.193
-562.317
-623.42
-504.084
-212.027
92.4919
308.525
362.829
182.835
-27.7567
-193.384
-210.533
-216.94
-245.226
-290.039
-295.628
-307.089
-308.878
-181.695
13.4575
208.11
389.358
489.083
397.524
213.379
79.7246
-14.0307
-48.1802
-41.6615
-69.2559
-18.395
-87.1401
-209.012
-137.019
19.3536
197.751
349.663
509.159
602.202
447.169
50.8282
-173.093
-181.082
-229.474
-299.811
-337.709
-262.032
-174.117
-205.608
-139.165
69.3913
329.409
384.099
205.465
35.7638
-71.5329
-234.053
-435.417
-528.216
-443.013
-213.83
-164.578
-155.354
-17.8075
163.269
299.429
263.261
101.011
55.8804
-15.9768
-88.081
48.7671
245.287
370.512
511.928
520.508
408.718
198.01
-87.9043
-199.368
-172.071
-76.2747
45.9464
114.115
46.4652
-125.613
-303.001
-377.021
-320.27
-165.514
-25.1382
35.6676
5.82042
-62.2005
-162.271
-209.051
-208.992
-211.649
-135.435
-27.0116
96.8331
165.005
125.768
81.4963
65.8914
27.8585
-14.3044
54.1859
213.195
323.059
265.133
127.247
75.1225
77.7088
105.873
111.363
54.3974
-29.2055
-123.857
-145.876
-158.158
-140.999
-114.214
-154.575
-190.187
-95.5864
10.4085
86.3078
104.133
135.241
212.899
90.3774
3.00069
-54.8751
-171.623
-216.091
-128.755
-25.8485
108.119
156.35
56.6873
-15.6574
-54.5429
-47.0664
25.4332
26.2396
-5.46337
-54.3224
-79.2327
-100.614
-123.072
-126.496
-161.416
-104.868
8.66965
35.0638
50.9675
169.94
248.664
252.28
224.186
133.364
3.75869
-41.5916
-29.3969
-61.9594
-59.8266
-6.57184
54.4788
134.262
193.269
220.613
191.109
132.497
7.5194
-134.094
-253.745
-308.108
-277.603
-186.494
-74.9735
-30.6675
-14.9378
-54.2021
-70.8148
-26.5893
0.973337
-67.4187
-169.331
-322.152
-368.796
-218.175
2.98218
181.276
305.289
470.092
474.529
349.602
154.319
-51.4434
-105.585
-21.9689
27.3633
52.0441
64.7149
107.855
129.057
117.41
41.6369
-53.2571
-151.653
-149.884
-61.9484
-33.8603
-85.781
-158.677
-105.184
-88.5373
-127.823
-154.28
-68.7934
47.3458
117.559
92.3607
31.5179
-28.1633
-78.083
-49.0521
26.3358
126.092
239.692
162.393
-81.7574
-225.103
-186.822
-144.337
-115.084
-65.0989
-20.7551
-6.91232
17.2141
7.76559
42.2025
169.006
303.326
377.98
315.321
120.826
-29.6644
-116.994
-148.009
-44.8626
40.7434
-19.5064
-259.649
-368.194
-260.13
-65.4968
100.121
318.558
401.584
339.313
145.291
-114.337
-162.449
-112.328
-96.5591
-105.824
-110.979
-103.386
-135.215
-207.338
-233.845
-132.347
50.1366
86.412
43.1012
34.4032
39.548
-9.25745
-105.98
-130.118
-34.3507
126.962
168.529
181.453
232.071
288.984
184.213
23.358
-54.0213
-95.1476
-113.809
-55.9475
105.856
200.762
223.674
144.446
43.0419
5.85275
-27.6605
-118.984
-188.734
-226.401
-242.104
-286.132
-303.141
-234.018
-55.069
50.2105
26.3515
43.9216
149.218
205.834
169.561
94.585
12.6276
7.07983
13.5852
-66.1861
-122.633
-79.6789
6.34996
125.545
155.595
130.572
133.071
126.465
85.2831
96.2024
83.7148
-47.4255
-101.54
-90.6871
-169.851
-147.736
-99.3508
-69.2755
12.5109
78.5304
32.0855
20.2873
10.8398
-10.4961
-116.723
-283.213
-293.245
-168.08
35.2084
141.505
246.749
338.018
210.047
-47.6471
-135.898
-77.7051
-42.5272
-23.6429
27.5711
102.658
132.622
22.6892
-60.9957
-83.0599
-75.8734
26.8925
114.803
64.7583
-13.286
1.9543
9.7323
37.2164
70.8048
121.953
153.438
92.4273
-18.4106
-80.5426
-86.4358
-152.871
-172.806
-153.565
-86.2542
-38.6547
16.0067
62.8467
43.099
47.6631
48.134
8.69694
-94.089
-168.938
-205.931
-158.024
-30.5737
59.9358
26.9795
-19.0049
3.24128
51.9204
78.3578
150.861
210.953
252.533
237.96
83.7068
-99.1313
-161.494
-103.444
32.6444
183.94
204.35
174.365
79.087
-100.432
-200.279
-131.024
-107.911
-261.612
-380.913
-291.143
-112.593
48.11
145.144
214.861
337.188
366.628
201.986
-106.959
-238.812
-224.704
-141.95
6.90185
125.025
107.307
-11.2206
-97.0798
-36.6551
50.7072
104.342
92.8681
-7.76877
-113.283
-152.487
-256.413
-359.497
-297.162
-91.4258
203.83
359.404
365.625
293.832
244.182
156.517
8.48297
-85.7976
-98.6864
-120.433
-56.9247
53.9453
151.203
208.128
153.432
75.1802
52.8082
-92.6917
-249.53
-285.716
-285.425
-305.203
-274.995
-183.221
-74.8189
16.0063
121.567
240.332
284.519
217.876
100.413
-38.5109
-88.7554
-76.0285
-76.168
-55.5634
-3.89114
80.0798
209.906
232.256
161.726
58.4503
-33.8763
-76.3396
-174.749
-217.233
-120.996
-68.0685
-90.7494
-70.8584
-1.07808
88.7415
80.4246
87.5993
104.035
-44.9016
-131.658
-82.1985
-22.6902
88.2571
255.229
403.619
423.144
226.948
-74.2805
-277.031
-320.524
-310.17
-220.735
-84.2666
33.0941
96.5713
112.814
30.313
-62.4442
-86.3701
-36.2026
7.3304
-8.61499
-26.3617
-114.123
-156.244
-186.721
-63.7444
147.901
212.492
156.452
97.5939
16.2032
-53.9048
-94.4315
-81.6456
-6.45378
-2.79643
-22.3072
17.8116
24.1452
56.5381
85.9781
71.0289
16.3815
-78.42
-75.7041
-102.14
-62.8663
27.386
81.4132
117.25
155.048
165.277
192.667
174.992
90.8479
104.593
170.712
166.804
86.7341
-63.2914
-130.714
-196.522
-305.131
-326.52
-302.525
-257.356
-248.642
-256.025
-182.285
-34.3992
90.6633
122.267
103.896
98.7806
154.69
184.786
137.462
98.6278
95.8035
106.63
84.196
22.3576
-21.2544
-94.7545
-120.752
-20.2886
17.0181
20.4221
80.8658
132.341
117.119
50.8254
-0.186228
-7.83168
-63.0035
-201.499
-286.423
-283.062
-173.77
-60.35
22.5982
152.056
304.22
293.979
179.689
32.0795
2.65897
87.8828
74.199
37.1187
32.7322
66.9222
16.8075
-88.4208
-173.55
-167.813
-104.898
-55.362
-69.754
-48.5836
-36.5355
-131.375
-184.936
-108.012
57.743
134.839
94.9441
18.2948
50.9856
32.5415
-16.4581
-2.4588
6.23583
72.1252
111.042
52.8011
-22.7691
-31.4464
-17.6152
-0.11347
17.1227
41.9501
-0.247644
-33.7883
-25.6939
38.3928
110.9
128.795
34.6042
-152.306
-232.899
-221.007
-151.258
-57.3593
66.2119
211.263
311.777
240.81
79.3849
53.2175
31.5979
-5.73084
-58.7286
-172.432
-234.888
-212.549
-101.577
73.737
226.433
378.68
400.224
179.616
-44.958
-176.56
-236.23
-216.66
-214.333
-248.202
-230.248
-189.204
-70.7958
72.9009
186.5
260.975
208.847
55.2869
-57.0107
-153.074
-236.69
-241.822
-216.608
-113.476
43.7867
112.274
111.254
101.177
73.1193
139.146
177.977
120.81
48.2692
36.757
51.7212
153.99
185.852
192.476
178.424
92.5499
28.3586
-27.0694
-143.653
-240.669
-246.781
-226.163
-108.219
-31.6969
28.9614
106.785
146.927
57.7518
-14.5789
3.06524
6.62729
-51.0871
-22.5107
-36.23
-64.0581
-104.842
-179.445
-144.695
36.1674
237.353
253.8
93.4757
-116.531
-198.622
-195.338
-172.155
-106.271
-30.5404
-29.213
-77.7316
-79.434
-32.4362
-10.7137
82.3675
107.562
76.6084
77.7987
113.963
195.016
219.508
188.453
153.502
77.6595
-1.81938
-13.5996
21.1244
22.1594
31.2451
20.8834
-24.3058
-14.08
-16.8142
-43.7276
-65.4385
-105.761
-112.9
-94.3494
-168.598
-225.975
-177.636
-33.4401
167.549
247.99
178.315
41.853
-26.3854
2.56382
-33.0409
-112.439
-115.524
-25.0375
91.2441
114.609
34.5221
-35.4246
-36.0099
-3.18604
9.80672
-19.8942
-124.122
-180.533
-154.229
-41.2178
71.5649
100.866
90.1275
99.4077
108.535
101.507
91.534
91.6955
56.1393
-39.0637
-86.1573
-34.007
-5.41176
-40.044
-27.8165
23.9764
87.1368
57.5788
-2.23996
-62.2199
-110.783
-93.9944
-109.097
-135.379
-87.878
-25.1911
-25.29
-87.9125
-62.2985
80.0507
200.205
231.327
183.98
138.166
130.176
37.3187
-2.21201
-0.69208
14.7519
17.6909
-34.0092
-74.7508
-102.002
-91.0048
-17.1437
35.9302
19.1245
-22.2433
-83.8473
-152.825
-188.502
-154.096
-112.974
-53.3189
28.685
111.475
139.144
102.983
11.2787
-45.4244
-15.9466
24.457
-4.70255
-82.168
-44.8172
63.1347
139.974
183.743
201.31
228.836
198.006
133.252
140.703
55.3422
-115.193
-296.175
-349.122
-306.049
-204.322
-93.6145
-2.65649
15.7139
88.2679
179.465
215.496
194.379
101.339
-32.3184
-163.342
-241.582
-243.597
-187.835
-111.781
-44.643
-12.3063
47.4913
75.2389
85.3276
33.6761
-15.7996
18.8792
123.007
161.546
89.9942
11.0787
-44.0832
-38.6958
-75.337
-83.0204
-26.8271
30.4105
54.4959
152.651
193.22
121.978
81.763
46.0013
149.531
249.576
186.717
46.6883
-51.996
-57.5907
-52.4856
-170.56
-338.681
-375.364
-263.925
-180.449
-120.149
-47.7444
-16.9244
27.1206
16.8832
9.69061
108.844
237.61
258.65
146.636
-14.6493
-31.2206
-47.367
-116.582
-139.937
-117.045
-38.46
-39.0952
-112.293
-85.1642
-24.5779
30.5356
50.0923
104.274
249.347
307.633
217.135
110.619
-79.2242
-241.051
-176.282
-22.9385
74.5831
92.2531
67.0999
56.0221
62.5921
57.7768
57.2345
-8.88306
-26.5455
-45.9875
-76.7017
-142.772
-158.65
-126.66
-128.26
-164.849
-184.144
-51.807
69.4307
93.0006
88.0192
130.864
209.357
208.761
176.726
174.848
114.008
52.4404
-8.95659
-43.8305
-107.84
-170.35
-156.624
-114.797
-50.4026
-51.4408
-104.562
-152.2
-105.323
-54.5765
-4.60141
24.0494
143.653
271.194
214.297
50.3311
-9.37547
-26.1333
-53.953
-64.1949
-77.9578
-112.984
-132.876
-110.043
-81.1597
-34.4756
32.2842
144.113
162.875
101.843
103.443
66.6834
-41.1546
-70.8267
-51.7038
-30.223
8.0943
83.7461
182.873
198.398
158.753
68.6313
-46.2145
-141.672
-149.622
-100.313
-30.0974
-87.4252
-202.571
-210.997
-136.231
-56.8363
55.6059
133.781
179.245
174.257
79.9633
38.4237
10.5996
-22.0016
22.7074
47.2156
1.54341
-9.76566
-49.7611
-129.687
-141.998
-64.0988
31.1472
84.3945
25.7099
-28.0473
-68.3097
-131.48
-77.3857
74.1938
196.585
182.581
61.699
-40.7914
-67.9533
-108.812
-120.196
-48.151
28.8784
92.0058
141.231
192.466
184.663
72.7234
-24.7674
-50.2351
-93.7354
-102.713
-113.604
-138.149
-164.245
-223.406
-237.609
-142.005
-3.05195
129.549
253.831
349.937
429.135
264.128
-3.12493
-43.5279
18.2487
5.71199
-44.5015
-69.2967
-121.893
-182.433
-161.544
-115.948
-89.3376
-49.3632
-44.1531
-56.2148
-43.2937
9.65827
24.8433
20.4728
-15.3471
95.3426
234.745
92.1139
-57.7662
-80.0757
-81.4385
-37.8253
55.4199
64.4811
23.0225
-15.2757
64.5696
186.491
255.3
251.096
202.676
65.3511
-105.619
-261.759
-376.897
-365.738
-246.31
-88.8706
33.3728
54.1953
49.1942
53.2201
-11.514
-9.12611
20.0918
62.0604
89.9144
41.5251
-60.5062
-101.415
-130.691
-136.007
-64.0415
32.0477
160.264
271.389
216.037
78.641
-4.91429
-4.87595
-20.1731
-52.7294
-31.4579
16.4008
85.3167
137.032
180.943
229.041
177.542
-0.935988
-148.711
-177.042
-141.026
-89.8053
-69.654
-141.336
-193.573
-100.781
32.0542
54.7447
38.93
45.4582
81.5107
7.68797
-102.948
-125.052
-151.908
-200.937
-131.675
-11.9914
34.5601
14.0587
13.3141
-31.0683
-90.4054
-29.887
120.374
225.676
233.343
207.339
173.694
132.425
-22.6186
-39.5092
-34.9682
-83.9984
-94.7959
-84.4215
-75.4004
-30.4464
19.6064
74.7171
112.843
179.579
239.17
143.625
-26.1505
-56.0359
-9.59967
50.9209
90.0186
30.3768
-57.7104
-115.137
-143.98
-181.406
-249.574
-289.601
-238.29
-171.411
-101.629
47.639
154.684
140.257
141.32
130.482
100.069
-6.63418
-100.923
-100.072
-90.4469
-37.0964
47.4382
70.5488
85.2448
81.4956
74.9947
61.684
50.7845
66.2831
96.1901
67.6679
-2.68026
-66.3222
-147.954
-97.3283
7.91832
32.6542
-67.364
-177.373
-157.353
-102.743
-46.1768
34.9678
109.479
218.365
337.607
347.421
291.404
178.537
50.988
-60.4738
-164.874
-214.733
-124.298
-9.24888
2.79789
-82.6184
-179.826
-160.824
-76.7711
-72.5405
-38.7628
58.5295
168.567
130.125
-93.2498
-187.509
-106.8
-55.8647
-70.7301
-144.093
-129.62
-57.0814
-55.7615
-65.1762
-21.4015
59.7507
138.608
163.741
103.231
60.0133
52.8594
-38.5427
-129.066
-52.7881
66.822
130.787
113.719
150.805
188.68
132.608
80.0624
93.6071
117.489
55.7328
22.4907
17.9166
29.6861
-42.955
-82.4396
-76.7296
-54.1538
-37.2486
-62.805
-111.585
-58.7123
-21.2897
-95.3336
-203.214
-243.617
-91.7329
34.9508
54.2661
-14.1023
-42.3979
-18.0387
-52.8443
-47.4579
-6.83656
56.6458
91.9784
80.5426
86.4002
94.7015
55.3066
-51.2388
-46.7137
48.2644
58.4169
82.8531
92.5646
74.7529
55.3752
-47.616
-121.947
-138.107
-112.579
-103.174
-2.12679
102.288
115.13
91.4539
27.9372
10.2368
45.262
89.8875
57.2709
-24.4886
-80.6877
-58.6608
-7.6145
25.2094
32.9077
45.8512
23.411
-12.5425
22.2279
6.84545
-60.7861
-134.927
-153.046
-102.139
-80.2665
-65.2991
-23.3708
75.0121
148.798
136.773
97.4907
3.37768
-118.898
-140.241
-104.088
-72.5989
-58.4923
-49.611
9.76376
115.511
195.768
179.095
118.772
70.5774
60.5884
8.306
-95.968
-166.387
-124.463
-95.8762
-57.5327
-0.653688
66.7436
95.6588
31.164
5.49577
147.645
240.301
179.421
47.8459
-88.8905
-149.819
-138.341
-133.954
-131.151
-103.26
-55.4895
18.5146
50.5544
71.8724
110.264
90.5781
3.29895
-103.967
-146.763
-120.685
-91.7658
-27.611
57.9834
121.131
144.087
118.145
52.1773
-8.9799
-3.48415
21.5042
23.3464
-42.8483
-124.574
-96.2398
26.3888
142.61
199.479
156.797
32.7204
-123.532
-207.314
-286.604
-300.884
-221.04
-101.067
77.6038
249.542
241.216
70.9009
-14.0683
-39.0119
-75.7831
-14.4657
146.12
261.201
227.261
135.939
128.39
153.687
104.541
-25.8658
-111.043
-182.36
-263.368
-284.296
-246.244
-161.185
-52.0663
83.8884
83.3433
21.6428
3.89913
-67.3825
-116.826
-71.5157
-5.91917
37.5757
52.205
96.3589
202.546
207.185
115.385
39.3235
32.8375
5.79118
-41.5597
-77.9868
-91.2264
-51.588
29.3031
115.948
159.931
116.602
-33.0449
-210.48
-253.257
-182.073
-99.9959
45.4808
145.404
172.517
100.759
42.7732
46.9851
39.6126
13.1019
-7.60664
-47.7292
-86.5752
-35.8519
-23.9967
-60.6791
-53.4594
21.2935
91.1873
75.0993
20.8578
-44.2023
-145.532
-203.864
-180.001
-80.0768
2.21967
-13.7537
1.77623
43.3299
112.602
186.321
186.829
91.4513
59.9662
74.116
7.71743
-50.3263
-84.9427
-52.1861
14.7497
125.32
152.361
5.62406
-162.863
-199.325
-118.727
57.6902
207.906
208.626
105.46
-6.76953
-100.202
-246.447
-321.251
-236.686
-41.1551
116.039
183.161
196.141
119.301
-12.6438
-107.576
-54.3217
53.8355
114.518
73.4738
-11.3596
-85.7167
-75.9764
-127.803
-156.701
-102.658
2.55112
38.2366
50.5762
70.042
45.291
-1.83352
-44.3834
-51.2898
-58.713
-60.3996
-9.25033
55.4317
93.8488
119.174
131.765
90.8792
16.3084
-45.0506
2.14136
99.8341
101.717
132.623
150.265
102.616
-20.9197
-103.291
-61.1634
4.21016
-3.50544
-26.2427
37.7986
55.3187
39.0847
25.1261
10.4355
-30.5093
-208.156
-274.947
-223.402
-178.722
-85.3477
-16.9476
6.25278
55.8969
51.1121
-45.4003
-174.319
-178.734
-123.507
-73.9015
-86.3766
-76.0813
18.5356
61.0097
29.5632
19.0944
170.67
325.088
277.698
162.334
139.306
130.041
47.0775
-73.5634
-122.111
-46.7666
49.5804
122.419
233.523
303.056
256.105
162.998
15.3476
-71.1635
-103.502
-132.706
-165.735
-178.081
-130.892
-47.2748
-81.0062
-176.543
-229.294
-197.913
-106.04
-2.47159
63.2623
40.4715
-70.229
-128.101
-128.763
-116.082
-71.166
-41.7081
0.903583
64.7715
71.8241
5.44907
5.84528
7.89314
74.2007
181.422
255.799
341.782
421.635
376.157
214.855
10.4708
-127.964
-201.095
-198.149
-167.302
-131.945
-96.7197
-103.277
-121.904
-77.1707
-14.5823
-8.47646
-10.1373
-0.49116
15.2307
-32.243
-151.966
-246.413
-224.444
-195.18
-119.22
-15.4164
61.963
120.281
198.593
298.052
298.819
258.573
221.737
188.433
157.829
39.5773
-85.3737
-127.429
-138.714
-76.5837
15.3184
66.9549
11.7814
-47.7634
-70.4645
-29.389
-8.89077
-33.7858
-46.5102
-110.567
-189.327
-259.995
-229.676
-180.119
-86.4512
24.4315
114.713
143.449
178.385
201.019
170.148
87.9992
52.9208
-2.10528
-26.1625
-40.1605
-109.11
-102.471
-72.77
-68.0455
88.5606
302.293
330.783
290.031
175.302
23.1949
-111.464
-263.981
-331.354
-279.901
-215.752
-144.638
-56.5923
39.4249
92.9301
71.7404
56.4095
-35.1595
-122.285
-117.32
-89.3116
30.0179
168.395
142.323
67.0716
87.5103
105.296
141.41
134.031
56.1649
-51.2478
-130.465
-156.383
-95.8078
-117.771
-191.397
-157.515
-53.427
85.8973
209.321
261.511
304.24
236.735
95.5825
-10.8112
-31.2513
49.976
90.1253
64.1219
-11.8104
-61.0989
-100.964
-174.926
-216.092
-204.415
-127.434
-38.6502
-4.46966
-24.2706
-43.4396
-72.7999
-139.019
-160.608
-116.883
-44.1792
-42.4836
-46.5182
50.4398
116.412
106.558
111.737
144.873
164.306
178.826
189.474
136.611
-1.22626
-22.9691
-17.3852
-11.894
-5.2036
0.149362
66.9662
131.39
124.356
141.474
112.433
66.1227
-17.6229
-104.321
-200.29
-314.808
-353.873
-311.405
-187.051
-37.2243
32.4888
71.3926
92.7184
92.3084
-2.24774
-66.7755
63.2479
186.91
88.2019
-20.735
-42.0385
-115.026
-199.582
-101.025
46.5773
207.609
310.425
329.62
247.535
101.767
10.5816
-77.3601
-153.288
-182.079
-138.943
-153.367
-270.136
-282.189
-141.299
-74.9552
-50.8001
11.5497
130.871
178.777
179.129
141.758
77.4513
-13.4075
-85.7205
-48.8316
28.8277
121.328
224.349
273.829
291.971
235.65
15.9058
-197.35
-237.429
-176.109
-104.723
-14.2321
33.3669
16.2697
9.05183
1.20963
-74.5303
-70.3348
-20.1606
41.0992
115.923
40.4356
-125.213
-250.645
-270.072
-168.969
-57.8008
-18.0916
21.7223
28.1859
37.3945
6.21457
-16.1787
14.0096
39.9439
66.2699
90.1043
59.6816
50.2719
18.4932
28.5137
71.3378
105.056
80.8067
30.2685
-45.4503
-116.463
-94.8249
-6.33302
59.9905
75.1123
9.74724
22.1859
70.7621
66.265
-5.70978
-13.6353
48.5168
102.261
115.789
18.0839
-60.5931
-53.6801
-15.3628
12.7244
-57.9099
-172.417
-251.323
-288.904
-205.17
-99.5305
84.5234
251.666
347.846
329.212
243.169
113.027
6.18363
-29.0802
-65.2606
-150.245
-254.938
-279.413
-230.428
-206.325
-133.96
22.837
142.833
145.021
63.6572
44.1473
73.4087
56.1357
-11.7477
-59.0195
-10.6137
65.1985
95.3
-9.60357
-118.393
-83.0453
81.1353
169.213
135.303
68.5886
-50.584
-96.3707
-68.398
-4.74434
118.689
202.943
167.528
85.7686
-53.6351
-127.769
-133.38
-159.845
-241.362
-207.109
-78.9761
50.5561
91.0572
133.678
236.098
294.061
235.461
138.324
129.504
120.526
13.3151
-158.965
-291.967
-381.156
-371.521
-295.402
-217.308
-74.7034
80.76
89.427
56.6044
141.754
166.994
81.0743
-23.2881
-96.2292
-51.2528
24.3257
33.1188
50.7242
41.8877
22.4059
43.5945
107.459
92.929
-51.0605
-152.462
-97.7515
-41.9567
-23.4771
99.1879
186.572
283.532
286.202
192.425
138.05
150.939
99.092
27.9907
-19.7429
-64.188
-130.795
-167.611
-221.53
-267.467
-250.364
-201.207
-212.269
-229.132
-122.717
-2.53421
25.7142
-35.7938
-32.5068
-29.6517
-33.0722
-18.4493
35.701
106.467
145.116
176.353
148.216
71.6461
-0.00148556
19.6294
150.225
178.044
142.435
214.962
213.399
60.1895
-53.7745
-84.601
-152.501
-198.264
-202.991
-157.372
-97.8375
-85.0124
-57.5963
-24.0233
38.0146
116.572
148.11
155.811
159.728
179.022
135.448
41.5412
-50.4698
-129.677
-228.921
-249.566
-171.438
-92.3348
-7.814
13.1031
3.41832
-22.661
-51.143
-56.7946
-18.473
20.1507
30.4965
71.9425
108.24
147.873
122.446
32.3058
14.6642
66.6181
42.6461
-47.1412
-63.813
32.4829
38.3763
-62.4165
-7.95005
91.6876
46.0838
-48.9907
-138.099
-198.62
-154.706
-103.915
-102.156
-44.7623
119.296
214.315
154.597
53.2432
49.3287
102.76
30.1377
-144.159
-218.917
-141.689
-25.6392
4.85035
82.6972
185.007
263.058
268.046
147.446
-38.3835
-139.202
-234.148
-299.509
-314.971
-201.33
-29.0636
124.564
223.535
239.921
178.061
105.76
-4.92855
-104.024
-94.5163
-16.6698
76.5426
42.8482
26.7553
52.4594
74.4193
44.3827
16.1463
12.5541
8.90702
-33.2477
-105.706
-176.787
-246.848
-218.394
-93.2569
-5.37283
59.7837
29.5715
-10.7812
-79.4371
-119.994
-44.8885
54.29
186.038
252.443
250.556
297.662
172.797
-22.7023
-85.618
-84.3964
-74.3621
-38.2802
43.1864
110.809
126.246
174.785
130.268
10.3529
-104.664
-179.46
-214.425
-256.015
-355.458
-370.008
-287.201
-255.512
-129.894
74.9119
269.81
363.441
395.138
343.137
196.028
14.4934
-79.9616
-109.121
-74.2205
-33.4238
-26.1266
-103.384
-111.179
-56.5274
29.5047
116.206
135.833
124.834
138.798
97.0781
-45.3067
-172.862
-205.282
-170.666
-80.7242
74.598
141.55
122.338
99.8717
93.7587
93.1478
74.0857
25.9757
-35.6371
-80.2829
-98.1579
-107.906
-157.397
-205.309
-109.505
-22.6207
-6.37508
26.5484
45.6439
85.1632
164.614
227.626
251.766
166.292
17.3201
-103.782
-168.783
-201.02
-144.31
23.7492
35.5019
-57.0889
-20.2908
38.4081
25.1797
-28.017
-65.1065
-70.6671
-69.8015
-65.7171
-69.7131
-66.6838
-120.422
-191.757
-167.94
-26.55
114.764
174.08
190.461
198.12
285.478
349.617
196.312
-2.42576
-117.047
-134.245
-78.8995
-84.3602
-82.0436
-21.0507
-12.8543
-26.3668
3.03537
84.3974
115.301
152.847
124.89
61.1402
-20.7938
-114.731
-186.437
-195.1
-108.409
-23.3174
10.5857
56.2901
41.1719
-35.0871
-102.095
-147.259
-148.447
-83.8279
-29.9874
26.8422
119.66
84.5855
119.522
198.011
204.285
146.469
-4.75204
-128.77
-152.512
-92.1893
-50.8484
-33.3445
14.7893
53.2261
87.2233
7.64806
-46.3205
-126.81
-193.503
-128.409
3.57503
124.585
166.149
146.065
54.8807
-128.065
-164.395
-56.9503
35.5582
43.5888
58.3185
153.733
231.947
242.001
125.517
-26.7324
-97.8114
-122.142
-104.145
-88.705
-102.346
-115.829
-135.628
-145.012
-103.962
-41.5166
21.9929
30.0366
26.771
57.0137
81.2954
56.3537
27.6736
28.4304
77.1796
120.778
64.1982
0.275423
-55.5487
-29.401
33.5507
71.0049
90.9081
34.178
12.828
51.1819
56.8521
-1.92796
-43.0236
-37.8393
-80.4577
-148.493
-176.662
-135.953
-80.206
-1.72679
-18.2002
-45.9329
28.0543
62.2149
71.4438
56.5257
53.8741
-1.99474
-90.4617
-55.4525
98.4701
123.635
116.845
98.861
-26.6678
-103.898
-69.8454
-65.3101
-98.9105
-25.9502
109.559
145.924
93.2283
101.275
107.5
53.9289
-84.051
-174.354
-125.566
-57.3404
-21.6926
4.0426
24.7729
-14.0216
-72.728
-80.774
-92.1968
-93.6448
-9.06883
68.1392
77.2713
95.5463
115.656
47.5362
-76.9689
-94.1586
-38.7709
46.3536
123.581
121.989
88.2534
132.39
148.449
98.4668
71.839
78.5965
29.3425
-71.1369
-137.251
-173.181
-169.384
-121.968
-101.584
-120.188
-138.154
-132.991
-109.916
-106.274
-90.9722
-54.7057
-57.3034
-71.5827
-53.2333
9.57316
87.9506
169.188
223.516
270.626
247.672
210.321
204.858
174.298
103.636
32.4153
3.83272
-93.7554
-153.231
-138.618
-131.899
-90.0288
-29.2999
10.8548
48.4114
56.0075
4.99871
-69.789
-131.609
-147.286
-95.0107
-32.6608
-34.1368
-44.9887
-14.3837
1.35099
21.8466
62.963
105.03
105.129
61.7745
26.8147
-39.7597
-107.356
-110.07
-8.8884
55.6567
25.2655
25.6842
83.1565
78.8403
24.8457
-0.293008
-18.5551
-34.25
-8.65684
21.6122
-9.97509
-50.5023
-80.1432
-46.1309
-6.56303
75.9218
160.757
166.169
119.326
32.1343
-94.0462
-148.718
-210.856
-207.102
-117.197
-50.4375
0.551998
67.4022
99.4323
132.534
133.894
83.5978
70.7407
49.4966
-2.63174
-60.7157
-86.079
-124.159
-204.831
-195.191
-60.6065
18.0123
66.7839
104.58
141.859
191.765
166.272
-14.427
-121.271
-141.826
-95.0873
5.78692
80.8946
86.209
58.781
35.3278
34.4862
59.8603
64.6163
83.2625
144.204
164.352
88.2702
-6.59004
-94.4846
-179.199
-203.128
-108.648
-48.3808
-64.2583
-85.3526
-82.6622
-84.0525
-72.6606
-68.3
5.23617
16.6503
-14.7898
8.32525
28.0646
-40.5882
-132.164
-95.5571
33.3418
166.631
166.867
94.5309
61.1044
61.0361
53.3854
35.8853
6.95142
-9.86078
7.83551
32.6193
7.22138
2.1575
-5.4272
-20.7351
-10.7079
-12.1402
-1.45693
-29.9083
-80.7379
-169.47
-171.044
-59.8506
59.7372
204.038
290.52
271.141
264.235
239.137
124.403
30.7412
-74.8728
-154.063
-177.374
-166.011
-188.514
-257.058
-274.946
-218.252
-165.844
-98.446
28.0039
109.985
151.705
125.48
116.07
76.8469
-11.2752
-75.593
-79.2755
-54.6154
-7.11635
31.6344
26.9813
10.8639
11.1118
46.8365
101.271
141.176
138.422
104.673
54.756
-14.7637
-67.6611
-113.064
-160.366
-130.372
-56.2152
-31.0238
-91.8138
-74.4465
-33.8173
14.608
113.506
190.955
244.593
289.29
277.859
221.527
126.83
9.36336
-100.201
-93.7495
-121.296
-190.513
-241.195
-242.064
-215.295
-152.19
-26.8234
27.0928
11.9697
4.91116
-6.03426
-28.4767
-41.2543
-20.154
6.21466
27.2449
9.11926
38.0316
70.2118
59.708
29.2856
34.755
52.1751
81.8137
56.6998
-2.09046
4.48337
23.0889
50.7463
50.3753
7.20431
-38.2219
-66.5525
-64.9175
-73.1375
-106.373
-87.1251
-30.8773
3.59928
-9.45815
27.7202
42.9071
33.3415
32.2721
-0.725245
8.45984
63.9718
131.692
177.723
184.483
127.09
17.0856
-49.6187
-99.51
-123.107
-68.1985
-22.0968
-4.36954
7.89011
-12.254
-40.5289
-20.0375
-14.0708
-77.7445
-77.9548
-92.4522
-129.481
-118.47
-44.8797
-9.62235
3.08178
41.7967
67.5212
70.3868
28.9026
-3.64317
74.8173
104.206
140.71
114.835
57.849
26.407
-6.00654
-36.3316
-36.3015
-2.88778
-11.5291
-41.9746
-107.65
-145.314
-125.69
-82.7765
-36.8897
-11.8621
18.3836
44.5237
39.1745
11.4296
-82.4138
-77.1544
0.337301
34.7788
62.0337
109.45
132.321
116.058
92.6593
51.3679
24.7958
10.2411
-6.18082
3.24793
10.3752
4.69749
30.6583
16.8738
-96.2363
-239.075
-258.529
-153.228
-10.069
108.766
176.312
296.365
405.448
370.318
211.843
58.1081
-48.0268
-150.393
-237.554
-249.834
-199.363
-122.969
-53.8744
-34.6393
-65.2575
-47.6262
-18.3459
-12.5304
-101.863
-212.19
-242.848
-280.804
-289.16
-199.273
-70.9804
19.8772
79.1744
120.509
161.868
181.371
174.579
146.701
101.875
87.4794
179.685
269.003
271.257
218.985
177.558
134.518
96.592
29.8006
-53.5193
-62.6657
-47.9631
-44.5368
-54.6723
-48.7444
-40.7251
-9.0994
-40.8459
-110.425
-117.865
-94.2819
-96.7653
-97.1264
-65.2527
-71.4786
-94.8299
-91.4515
-60.7409
-25.4472
-11.8653
-15.8088
-2.32112
14.7622
20.1567
1.12275
-49.9216
-55.5857
11.6328
101.233
138.252
146.747
128.89
131.106
94.7992
-20.4419
-67.5053
-50.3073
-49.0862
-76.2395
-114.292
-231.315
-291.92
-208.09
-64.7496
45.7087
239.23
411.447
477.949
363.162
152.186
-8.25652
26.4832
-17.4105
-134.918
-116.313
-63.2738
-115.418
-174.123
-170.308
-184.279
-135.145
-35.3814
-15.5771
-45.9278
-37.0363
-42.0753
-88.9476
-126.222
-116.622
-51.3585
21.6444
-39.0868
-14.359
110.481
168.891
189.944
226.101
253.787
264
214.072
154.742
114.206
62.9408
13.3236
-12.2842
-50.1095
-115.839
-180.035
-166.303
-115.251
-111.289
-127.617
-129.392
-113.833
-50.8676
6.69395
38.2778
15.2589
-45.9425
-25.3836
19.2562
50.9544
118.228
155.862
148.049
123.836
20.4913
-79.6094
-84.2945
-82.6141
-123.609
-94.8423
-74.5693
-84.2609
-73.3428
-113.111
-169.893
-66.2352
74.111
184.063
269.702
290.096
237.313
71.0137
-91.7324
-176.79
-170.805
-134.265
-121.824
-97.3567
-31.1827
18.2469
76.337
123.05
124.12
120.75
145.495
97.1918
17.8988
-35.702
-46.6614
-26.7023
-66.5163
-85.2471
-38.3761
-16.6498
-58.6366
-88.4937
-42.3463
58.4063
115.257
100.81
48.7408
21.7659
14.5402
-33.1897
-65.5495
-57.455
-31.5296
-17.2077
-59.5533
-111.968
-120.278
-77.1898
-50.7562
-11.9519
61.5479
99.3823
112.114
87.8101
92.0069
154.999
201.232
144.267
29.7573
-84.5274
-125.756
-121.504
-159.076
-195.622
-153.32
-107.185
-34.2531
82.591
165.314
205.821
191.177
68.136
-44.8765
-76.1013
-37.3566
-15.4966
-42.1336
-55.8468
-71.0956
-44.2097
-7.7285
18.2446
21.5993
16.0744
-26.9307
-57.6229
-66.2051
-65.3995
-56.8887
-48.8337
16.1611
132.183
150.726
113.525
68.4547
12.2928
-29.8584
13.6453
56.5911
58.3827
21.4866
-4.84667
0.27594
6.28583
31.0671
29.6274
8.75573
-14.2178
-25.8094
-46.2241
-96.3242
-110.962
-79.0343
-62.4036
-69.5437
-89.7906
-65.2199
-63.889
-55.3356
8.79251
81.5812
105.344
100.854
96.771
60.7188
19.119
-8.95629
-2.47174
45.4285
110.155
150.025
88.6926
2.1365
-20.8923
-48.3757
-70.3806
-81.2489
-61.4746
-40.9395
-36.4574
-95.7414
-202.72
-207.245
-85.8862
48.928
93.4995
163.644
255.855
224.358
95.9585
13.9157
18.2352
72.063
74.6207
58.2846
47.5196
-16.765
-123.487
-168.651
-192.565
-183.945
-137.305
-76.9818
-62.0783
-5.91392
91.4886
61.8631
-61.4375
-163.561
-221.519
-214.869
-104.644
-12.612
39.3819
122.157
188.81
216.676
175.666
133.575
157.066
188.143
182.459
111.935
84.8698
72.8194
48.5844
-13.182
-72.6371
-24.5857
58.3319
104.438
75.2585
5.62126
-69.2171
-141.162
-178.263
-189.638
-133.027
-88.6117
-113.366
-146.714
-161.299
-140.695
-117.883
-66.0945
17.2387
75.688
93.9967
59.4812
8.10343
-37.1613
-49.5953
-20.7062
28.6649
38.0734
6.45872
8.59782
43.1527
84.0346
143.296
193.785
226.445
247.399
188.525
45.7893
-64.4819
-132.935
-172.532
-110.111
-36.8869
-42.5646
-41.4319
-57.6262
-91.263
-86.3222
-38.141
6.77304
57.2938
107.118
161.423
130.646
33.3536
-83.7502
-132.682
-122.394
-78.9381
1.59881
98.4293
84.0788
27.6916
-19.9731
-68.5398
-36.6349
30.7269
11.0255
-0.267673
-15.9262
-60.36
-110.882
-128.688
-49.0115
45.3434
15.154
-30.7218
12.5676
34.1974
15.4386
-8.58574
61.9161
174.169
215.96
152.514
-6.11044
-122.714
-141.926
-116.89
-85.9244
-56.3375
-11.8867
-9.13159
-61.8636
-52.887
54.3178
90.9107
52.2765
12.2063
-0.991861
2.18009
-69.555
-150.007
-145.688
-99.2388
-19.9877
78.2735
179.448
235.835
262.822
261.533
252.306
238.474
178.426
48.5596
-49.6538
-102.942
-160.353
-212.135
-219.814
-230.565
-259.057
-223.789
-136.709
-35.7693
25.1994
90.7504
109.729
20.6512
-77.6595
-96.7906
-95.3042
-115.883
-79.2214
-19.6152
25.9662
92.1927
121.123
90.1429
58.3782
81.7751
178.329
266.374
204.742
100.261
96.0533
59.8537
-25.5778
-85.5058
-112.906
-72.2658
-60.42
-79.6816
-91.8835
-75.9991
-50.9044
-65.8162
-84.7016
-34.9807
39.6243
21.3324
-33.2977
-72.426
-36.8821
14.7032
4.34056
-77.5068
-109.551
-86.5109
-39.4987
13.8119
56.7609
103.033
152.948
209.267
236.947
152.925
80.9144
43.4469
-10.8796
-31.5662
-40.8187
-73.6405
-94.424
-163.237
-192.351
-114.939
-54.5649
-34.0857
25.8873
118.906
223.901
198.655
85.7736
37.5142
42.1284
54.0873
-43.1912
-170.264
-220.669
-171.945
-99.7685
-72.0073
-3.8991
56.713
92.6388
74.0903
96.586
67.4705
-1.29463
-97.8653
-219.923
-240.001
-162.645
-105.277
-45.6171
50.181
195.865
281.115
253.455
176.585
143.853
115.209
66.3219
69.0984
20.3595
-34.7956
-123.423
-129.282
-97.6347
-87.3033
-80.6348
-62.3847
-79.5436
-90.7822
-64.7377
-3.46338
41.6348
64.7332
54.1638
27.2011
-40.1289
-132.915
-94.3806
3.16142
58.102
101.331
126.832
145.323
129.877
41.1087
-15.4016
-6.06363
5.62343
-27.7558
-31.0019
-11.4175
-51.3464
-138.644
-145.58
-81.8479
-35.5382
-22.0894
15.5009
90.4953
51.2332
35.2135
64.8714
45.078
44.6967
145.834
221.187
194.259
130.049
52.5762
-72.1711
-197.541
-235.049
-183.174
-121.138
-93.7639
-75.7996
-6.68645
12.2104
-52.5327
-85.9314
-124.893
-127.15
-22.7344
39.6864
22.8842
-1.36529
43.9509
111.467
106.459
82.2455
84.6634
126.955
154.608
114
13.1897
-62.7866
-74.5915
-137.061
-153.129
-78.049
91.2246
249.794
260.204
141.313
11.017
-25.9987
-80.2955
-146.394
-189.92
-178.364
-148.24
-99.8815
-39.8788
53.1248
143.164
154.294
59.5681
-42.1702
-103.434
-93.8268
-67.8079
-45.6969
34.9679
121.637
93.3427
29.6206
-4.05485
8.14546
49.2584
73.9759
61.0979
39.7605
-4.2322
-23.0631
6.30917
0.453766
-8.21338
15.1872
58.1803
92.8828
72.3667
-62.8019
-211.615
-235.317
-143.007
-45.0373
-34.7256
-48.7235
83.2965
158.373
92.4823
-21.3502
-82.1535
-82.6724
-79.7845
-31.5771
70.2925
115.345
108.295
44.1679
-45.2312
-40.9314
-11.6775
16.1723
52.6741
41.6439
62.9936
49.3421
-66.3365
-136.004
-69.1261
3.44212
60.5656
103.36
126.55
97.4207
28.6942
-50.99
-76.3435
-65.0522
-45.9602
-24.2018
1.37365
30.27
16.0083
-9.12563
-68.4351
-103.764
-69.4242
-37.569
-18.7613
12.4878
51.7071
89.3648
111.522
68.0341
31.1689
70.9067
107.022
83.5357
-0.259041
-79.1507
-179.546
-277.592
-299.501
-214.505
-33.1132
159.982
289.735
410.2
419.673
218.013
-36.8766
-229.592
-321.526
-314.511
-233.059
-137.065
-27.187
109.1
184.312
202.961
224.413
203.656
138.736
9.54464
-72.2766
-95.9466
-165.453
-257.522
-286.618
-182.271
-47.9122
38.969
81.3373
92.6023
37.8444
-21.6041
-69.4215
-84.4484
-68.3764
-54.5708
-22.7313
64.577
143.174
161.22
112.304
65.2785
53.9451
44.7391
7.06689
42.6016
89.2207
73.4349
55.6216
82.7244
102.899
72.0501
46.6627
32.3239
-3.77378
-41.8346
-60.9035
-98.652
-141.904
-114.217
-59.9375
-33.5193
-39.4361
-69.5617
-20.3906
23.0612
40.1089
8.71529
-67.7763
-160.778
-162.071
-108.143
-45.9109
29.9483
150.877
223.753
210.151
63.8695
-31.5017
-32.9241
-11.531
5.73853
-34.0095
-86.9589
-106.313
-57.9456
10.1203
38.8323
42.5425
84.5598
67.1349
5.77355
-44.3161
-97.2656
-153.661
-185.389
-134.135
-34.394
-0.263676
-3.41474
4.35129
38.8717
136.442
219.273
185.155
47.8999
-1.07995
-2.78487
27.9973
80.7234
122.847
180.286
155.331
61.7061
-57.027
-94.2561
-111.145
-92.4007
-11.4462
-24.0783
-18.2543
12.4884
10.2324
-14.964
15.4219
78.0647
52.8469
-27.5561
-38.5169
-46.6258
-82.4352
-123.397
-193.753
-253.245
-239.231
-150.542
-25.1927
122.909
218.193
261.796
169.968
3.08261
-104.462
-115.023
-131.128
-125.81
-79.1752
18.2697
57.8816
51.4619
49.8058
43.9878
79.7584
129.933
175.026
158.682
107.701
43.2714
-24.8864
-89.5217
-92.4423
-62.4059
-27.3824
9.74916
46.6373
60.1965
44.5554
25.495
30.3123
43.7728
39.5413
-3.68148
-46.6721
-56.4499
-66.1041
-56.7626
-59.5408
-56.7919
-16.7114
41.6572
29.7407
-1.62116
-35.8674
-68.8425
-120.403
-158.04
-189.97
-187.377
-144.588
3.84284
245.46
338
278.881
239.516
181.145
77.8839
-45.543
-153.271
-195.384
-141.57
-52.3437
-12.5213
-7.18428
59.794
103.499
61.1354
10.0849
28.9094
64.9282
12.2984
-164.832
-238.585
-172.457
-106.479
-60.0541
-29.6655
24.5552
96.1946
80.5388
26.1172
16.2592
18.0011
-5.22732
-49.8779
3.20426
107.578
182.49
187.595
114.195
51.7442
55.4636
21.5686
-11.9542
-23.6618
-13.6276
-16.0011
-52.7044
-73.8227
-70.5776
-74.5621
-77.7149
-36.3039
31.5816
29.256
-33.003
-58.358
-45.6537
-39.8564
-32.945
-64.5542
-62.8605
-55.5713
-22.3386
24.8308
101.155
186.509
240.842
233.177
127.166
10.0546
-65.002
-119.344
-194.111
-212.697
-159.229
-84.3411
40.8198
109.687
116.31
151.947
95.6245
-22.5164
-79.629
-119.714
-187.44
-184.482
-104.455
19.6106
164.39
195.948
89.0885
37.346
65.2522
62.2332
46.3825
-11.7737
-109.119
-140.712
-172.723
-254.516
-203.654
-11.8345
125.903
204.408
223.289
171.116
90.7976
25.4994
-25.0623
-59.1577
-5.39937
52.8843
58.6266
55.4258
30.4322
3.57577
-27.8734
-56.2065
-41.9702
6.47693
23.0752
13.8679
-19.4984
-37.4033
-51.0118
-80.1308
-83.6453
-41.4471
10.1285
71.1803
122.697
128.487
92.5341
52.1853
-4.67233
-68.2908
-150.795
-228.942
-155.418
-53.6159
26.0341
152.723
215.852
138.69
93.373
65.47
20.7733
-4.16129
-35.8388
-98.5532
-159.445
-177.416
-129.22
-92.0089
-62.8174
-39.343
2.19004
46.7678
23.4565
7.84322
-17.8391
-84.9504
-128.73
-85.09
-29.8021
20.6355
64.9474
71.2969
74.677
91.1652
109.238
121.735
132.232
141.441
160.359
166.873
179.523
155.367
25.8105
-29.2697
-40.4938
-59.5002
-69.4138
-85.5843
-116.849
-94.3915
-74.6757
-133.574
-160.206
-117.594
-45.3511
-17.1441
-23.1142
20.6057
52.102
39.6382
0.864148
9.88709
57.4373
11.2836
-106.651
-199.51
-196.211
-97.063
7.69857
69.8904
182.014
307.648
328.316
246.527
70.1387
-11.2158
-55.405
-126.608
-153.422
-82.6826
-9.74154
13.4574
-63.4541
-158.472
-130.156
-55.5264
6.57169
85.8132
128.388
30.2351
-146.632
-267.13
-238.096
-103.378
98.4936
193.997
219.585
164.48
114.282
25.629
-36.651
-36.2837
29.7723
105.786
146.83
166.414
128.125
-1.43684
-143.041
-148.976
-97.5006
-62.6617
-60.2929
-77.6352
-90.8841
-95.7132
-128.838
-128.511
-80.147
24.2171
94.9285
119.538
200.13
277.954
283.916
173.92
19.7498
-63.988
-39.8913
-27.1789
-66.2343
-76.6874
-116.884
-109.163
-66.884
-63.4413
-57.9055
-15.0128
3.60014
-22.931
-56.4409
-43.8536
-46.6688
-56.649
-44.8888
-30.3029
6.07032
25.415
9.34523
-1.40827
18.3901
27.953
52.9124
69.9635
41.0784
19.9515
40.3544
49.3241
22.023
10.5151
13.4511
10.2149
8.70678
5.10552
-20.9251
-4.58425
43.0365
65.652
20.6389
-3.95472
2.05045
14.8722
3.44477
-34.15
-25.4114
17.8011
83.4099
93.6565
28.7158
-38.5632
-75.3111
-123.27
-178.056
-175.399
-140.536
-62.3071
11.1708
58.2029
75.4264
72.9326
99.469
146.205
175.327
115.94
-54.3577
-132.364
-138.941
-133.179
-80.0991
-8.74415
51.6782
117.818
182.667
130.057
52.0123
-17.3873
-79.1179
-126.445
-167.592
-137.015
-110.025
-81.9986
117.173
93.7661
78.1097
68.9076
46.9672
11.0746
-4.96307
-14.044
-33.2753
-59.3544
-77.1633
-68.8138
-20.0019
57.9019
154.832
207.353
203.262
132.229
50.8488
-2.76667
-43.7689
-59.8647
-63.8858
-65.0808
-68.112
-86.5117
-89.7675
-74.7707
-39.8698
-5.06304
9.54758
24.3832
11.2822
-35.2028
-96.6004
-125.666
-122.886
-78.306
-24.1547
19.5559
56.9591
82.7303
111.77
115.15
86.5748
60.7778
34.7575
5.08052
-21.9183
-35.4406
-15.1588
21.5988
67.6557
102.55
96.7101
18.3407
-25.3077
-13.6557
-9.23051
-31.2001
-51.2934
-72.6542
-90.5564
-80.6644
-37.5504
16.3086
72.993
91.4771
69.5258
48.3311
29.2882
1.89275
-37.6591
-83.4516
-116.054
-92.0388
-67.8229
-47.6654
-28.5552
-15.8903
-14.5679
-13.2494
-3.56573
3.13747
3.52998
43.1201
106.13
166.136
140.71
65.3864
29.5493
14.5634
4.34972
-11.2121
-27.7891
-19.4459
-12.1751
-19.1861
-32.7977
-48.1689
-70.7911
-78.3445
-69.0604
-44.4931
-8.44448
11.0729
-34.6944
-88.8022
-83.77
-49.4059
16.0105
42.5978
40.7497
29.7999
32.2474
83.3948
146.077
173.024
146.144
96.0998
62.2337
57.6823
40.3563
5.99423
-46.087
-98.47
-127.657
-138.761
-121.486
-83.0812
-55.2622
1.72764
15.7736
-4.66218
14.5021
-7.37801
-73.053
-70.0379
-25.7118
28.1357
63.5903
66.1915
34.0588
-33.2452
-95.6873
-108.424
-44.5943
43.0659
172.706
267.757
214.896
78.9271
-19.7281
-55.54
-61.7159
-63.8007
-74.1132
-103.47
-110.241
-90.8782
-58.6432
-29.9245
12.9477
66.6239
99.9862
80.2376
24.118
-34.9061
-90.2036
-124.05
-112.611
-55.1557
40.5672
120.502
82.8872
19.4745
28.5549
68.8658
75.5085
52.2
40.185
9.96886
-13.4532
-3.08079
25.0035
37.5116
26.2044
10.8415
9.02165
6.30649
15.1814
5.6022
-32.2154
-61.88
-48.8136
-42.9627
-73.0575
-94.4595
-81.8592
-57.3341
-47.9143
-27.4264
-6.2141
-37.8694
-41.01
6.59219
102.261
227.289
274.848
186.372
66.7292
-12.2151
-66.6071
-98.5091
-108.79
-100.895
-83.1718
-80.6571
-86.1713
-69.0311
-36.4496
6.37602
37.0496
61.5745
60.4504
42.7011
-17.9445
-115.354
-159.04
-108.059
-34.5185
20.5727
51.0556
50.8726
29.3463
19.4936
41.8058
80.7549
136.015
207.441
205.915
108.454
48.5216
35.4868
9.02678
-34.071
-69.2461
-94.2163
-106.235
-79.6693
-54.7421
-54.2101
-52.4778
-41.5399
-13.4507
2.32329
-4.19828
-11.2598
-30.3896
-35.6861
-5.82748
6.45701
-32.9105
-45.9002
-41.6749
-37.2227
-41.4237
-17.9612
30.9352
100.948
158.694
174.836
111.045
15.043
-43.5296
-41.4306
-32.3197
-26.3097
9.19312
22.736
9.89926
-32.1199
-46.6849
-21.3636
-21.5904
-44.407
-44.5882
-46.4732
-67.7406
-86.8905
-67.5063
-5.85417
23.9564
38.8346
63.9069
71.7752
60.6964
43.0059
5.42066
-56.0776
-69.5063
-15.152
31.3394
44.2089
84.2011
119.49
101.095
53.756
16.5132
-10.3054
-67.7296
-112.099
-82.1304
-25.1721
7.15729
27.4964
40.7645
26.0783
-4.10914
-34.5721
-54.0823
-49.1494
-61.3102
-62.325
-39.7657
-1.69504
79.5051
147.804
122.04
70.9708
26.0148
-40.9262
-59.3086
-35.6747
-9.042
5.64215
0.699079
-11.3788
-16.8262
-19.9053
-38.2545
-41.6806
-15.8776
7.46084
3.94373
-14.0041
-6.03836
-31.0474
-65.5366
-79.0767
-65.6393
-40.9369
-27.729
-21.7458
-5.83829
20.874
49.1003
118.82
184.035
150.962
109.641
74.2793
36.2275
-0.857023
-23.7119
-38.0993
-84.979
-114.069
-89.4705
-50.4054
-11.1244
34.8895
49.552
53.4197
47.7441
26.6348
-1.27803
-59.7871
-113.333
-91.5631
-45.5679
-25.0983
-16.9126
-18.8058
-29.4518
-34.2475
-13.1727
47.7487
114.8
119.678
80.3231
55.8111
54.4878
58.3744
28.1744
-23.9866
-49.0566
-61.5758
-89.0226
-98.698
-87.7781
-43.4848
16.5842
101.26
185.568
166.461
58.6617
-59.5669
-119.003
-115.122
-83.1727
-31.4728
65.4324
113.924
78.7872
22.9056
-26.4392
-61.7094
-70.3125
-64.2202
-50.7136
-24.5785
-4.55002
-37.1293
-100.683
-110.551
-51.9906
-3.18468
13.4441
55.8715
75.8343
43.2546
2.88385
-30.9889
-17.1549
25.4438
64.0714
87.4561
111.674
118.556
79.846
37.817
2.35396
-19.2948
-9.13879
6.79194
1.69161
1.51465
-6.9696
-26.2632
-37.5995
-23.9904
-30.477
-53.8751
-72.0068
-71.8892
-48.4451
-5.64335
29.4656
34.1781
24.632
11.7228
3.01212
0.885181
-15.5017
-27.9721
-13.9529
3.08002
8.80512
4.15114
8.38221
-4.62801
-48.6179
-64.2938
-26.0607
40.2421
141.191
146.718
19.4252
-53.7976
-54.1833
-39.1146
-30.7342
-17.2936
-16.6812
17.1313
47.1213
73.9147
98.6884
69.8769
-6.53924
-59.3087
-51.0363
-57.8445
-68.9813
-76.0677
-107.946
-93.7982
-22.9134
27.7312
70.5984
105.128
92.7972
22.4097
-30.109
-38.5853
-28.2886
-0.163694
18.5128
-1.39323
-6.49297
12.5624
23.5861
36.5667
29.3476
0.742674
-31.3182
-40.5383
16.1542
63.2383
47.3801
4.08225
-9.93555
11.9595
36.6295
24.4852
-14.9538
-53.7149
-81.8596
-60.5414
-12.0553
2.59704
-32.3059
-34.8446
-1.45856
34.2239
60.7939
93.8357
74.4568
-6.1787
-29.4808
-19.5
-17.279
-5.59505
5.11075
-6.00869
-23.6103
-37.7316
-39.3802
-17.6155
10.3503
34.8869
55.2987
55.6875
34.8649
7.39957
-26.17
-69.7141
-86.442
-69.7035
-58.0828
-37.8268
-17.5947
-4.92334
7.79929
36.1439
39.4707
18.3823
-2.97819
-12.4283
-35.9828
-47.4218
-38.0971
-10.9606
45.374
114.947
165.278
168.129
111.675
65.6162
18.8887
-52.6181
-82.8327
-43.9923
18.9566
45.4894
-9.94973
-67.596
-86.7765
-78.5648
-30.0656
3.18363
35.5057
73.7674
40.2231
-56.5903
-128.657
-163.191
-123.506
-61.9361
-15.9648
34.9817
85.1018
82.0084
38.2547
-19.3871
-17.0777
-0.866535
9.00737
40.19
50.7159
46.4888
38.0945
8.4105
5.55058
-1.33956
-34.1188
-36.0594
-12.9357
-0.548531
23.5486
47.2396
44.3194
20.2465
-9.21685
-19.1293
1.87516
29.0373
34.6433
16.2356
1.57919
-3.21012
2.08276
2.22648
-1.17352
16.8616
31.459
19.6149
-15.9056
-57.5987
-56.3447
-22.9533
-21.581
-47.203
-55.3612
-53.3725
-38.574
-14.993
14.7745
20.6272
16.6314
87.8626
137.871
82.1116
-11.9017
-69.9394
-73.756
-62.7218
-38.7445
-24.4782
-29.5831
-40.4285
-19.7204
4.62558
-1.08
-0.18634
15.7791
33.4155
43.5399
41.2298
24.8103
-13.1628
-44.1443
-35.4348
6.86802
26.4622
21.4152
26.3053
36.5388
59.2205
59.7237
37.5807
7.93958
-2.09666
6.39118
11.8475
14.7476
17.9816
3.82875
-14.635
-18.4911
-37.6496
-51.7122
-35.0471
-12.6384
14.6651
0.887457
-18.2131
-19.9662
-30.3384
-41.4883
-28.4506
-6.41855
7.22742
19.2914
35.9297
46.9261
0.0341345
-67.75
-61.3579
-25.0424
24.2519
67.4914
57.7439
15.3212
-16.9268
-37.7848
-72.2736
-80.3812
-44.3786
19.9986
89.348
144.728
98.0163
5.05742
-35.3774
-40.5046
-16.6272
0.661229
-3.89157
-3.92707
-40.9288
-76.2
-58.4732
-30.5266
-13.5249
36.1313
64.2024
61.8076
62.4873
47.5329
-12.3767
-86.0969
-73.8739
-16.8141
7.10633
1.75089
25.4476
59.4913
54.5681
31.7384
19.3734
-2.57147
-15.6536
5.81919
42.3059
34.6522
14.8618
-0.557991
-21.993
-48.4522
-50.9803
-24.0159
4.69461
1.65441
-13.4111
-19.1366
-21.4192
-8.87074
5.471
-1.17284
-27.8889
-57.0598
-84.6931
-83.4777
-45.1811
14.2838
99.64
147.199
114.06
76.5356
64.7312
61.1982
44.8032
12.1816
-31.9201
-66.9338
-84.3307
-85.8971
-73.7659
-63.3322
-67.2243
-57.7759
-12.5588
36.6779
71.4022
80.7035
4.15255
-47.9952
-27.9363
-8.12482
-15.7096
-44.0995
-48.98
-30.8318
5.99344
39.1724
67.6675
85.9283
79.2938
63.2537
57.7771
63.2488
44.057
7.55649
-28.5559
-44.0701
-32.4117
-36.7
-37.2475
-39.9269
-41.1237
-38.4915
-24.1809
0.481788
5.20585
-1.20088
1.75627
-0.639592
-17.823
-7.66292
31.594
48.3494
41.3473
37.4017
25.6168
-2.31838
-8.26267
2.44978
-5.06854
-12.8412
12.3942
32.5401
36.2488
37.3549
24.7996
1.14404
-28.572
-65.2563
-87.5298
-91.6413
-88.3982
-56.8738
7.50902
31.7686
8.8356
-11.4098
0.155147
27.3518
36.9743
16.1012
-25.4519
-49.3007
-52.0126
-36.6695
-10.6441
8.04533
32.2029
47.7698
49.0506
52.7075
43.5125
66.8573
87.019
56.5446
6.01571
-13.1727
-12.7087
-16.3101
-17.4428
-10.2664
9.34006
29.2942
43.7992
40.2221
-17.2531
-64.5412
-59.2244
-33.5374
-9.60238
-2.21758
8.31821
-1.88592
-39.989
-53.1754
-20.7919
-16.2698
-30.4423
-37.9342
-18.1148
9.04887
2.65805
-26.4233
-48.8713
-45.3766
-18.6006
-2.99396
-5.38914
30.401
72.9648
83.4522
69.7329
60.6818
52.4101
52.9162
54.6866
71.3514
65.979
34.1478
-3.96742
-43.2178
-66.7221
-64.0259
-51.0383
-54.5805
-40.8088
-5.51545
11.6601
-1.60351
-21.2772
-12.0249
-21.5827
-57.5945
-65.2149
-63.488
-64.0235
-59.6685
-32.0924
1.49975
17.5932
21.102
67.4666
142.323
112.87
42.7406
32.0709
45.8862
35.5443
9.42247
-2.85787
-14.186
-18.4225
-24.1296
-31.9605
-22.5545
1.13064
21.3417
29.5714
16.7548
-4.58107
-18.0441
-47.3769
-77.7419
-52.4042
-7.47665
8.56218
8.39452
4.75593
-1.78662
-9.80073
-3.48243
17.7548
22.1706
25.5595
22.1406
2.8009
-13.7007
-32.8693
-24.5761
0.880136
23.9287
22.5255
-21.3437
-43.1765
-24.9003
0.408269
1.1118
13.194
41.8321
44.2937
38.6276
42.2803
82.5319
98.9603
47.77
-18.0104
-37.1551
-48.4049
-77.1217
-89.0359
-92.4454
-81.0919
-33.0206
25.3438
38.5694
9.22209
-0.123094
-15.9131
-47.0463
-24.7611
-0.670803
57.4702
94.2217
27.19
-26.5411
-18.8132
-16.1743
-11.2073
0.0305401
-4.79884
0.479606
18.7356
9.28876
8.90147
27.596
42.1081
42.7882
46.0889
49.6829
14.4086
-43.8999
-93.9873
-117.568
-82.6847
-19.3306
24.1256
38.4298
46.8853
49.7806
54.9513
51.0748
32.0024
20.0288
11.6707
-1.27723
-5.93678
-7.2809
-10.4515
-14.6473
-37.9959
-20.9729
-31.0823
-63.2948
-42.3954
1.47116
15.4279
24.8076
47.4924
64.1419
78.411
53.557
-11.8315
-60.115
-78.0774
-82.3249
-69.198
-34.9781
-9.78094
-14.0833
-8.18942
1.00255
-19.9339
-36.4841
-27.426
-4.78867
49.3106
82.3129
54.557
19.5757
3.93738
2.18799
22.8797
35.016
24.1023
17.9269
20.0354
21.6225
16.0156
5.78951
-7.7899
-31.7164
-36.3292
-16.1117
3.13693
4.15038
-8.72883
-20.1968
-21.6855
-9.73375
-5.01003
-10.239
-30.6312
-38.3205
-22.8225
17.9961
91.7713
95.6007
24.9102
-5.46831
1.88305
33.8054
47.0632
17.1907
-12.0193
-16.9367
-22.4969
-41.9398
-60.9888
-68.3473
-57.1393
-32.1799
-5.06691
16.951
21.0331
-1.08442
-38.3707
-47.1133
-17.0644
13.4794
24.461
14.2839
18.3906
30.0511
25.4307
17.4629
8.49584
9.19711
27.6727
32.9404
25.5523
31.1988
53.8461
41.8035
6.99406
-14.0067
-42.4355
-54.1788
-41.4668
-22.79
-11.7857
-4.06863
0.983803
-0.980165
-11.5785
-17.3776
-18.6585
-13.4258
-8.9566
-10.074
-4.93022
0.873199
-10.3488
-10.0244
8.71333
23.0039
6.36584
0.382016
10.889
4.73449
7.46361
31.4099
33.4552
0.125003
5.73715
14.8284
6.75225
-13.1337
-12.6076
-1.70543
0.723204
-12.4541
-16.3242
-5.46231
1.50936
16.0473
25.5895
8.13067
9.61701
31.667
21.6362
-18.3292
-42.1443
-22.3963
-5.76218
1.23423
-10.9033
-10.4604
1.66224
-11.874
-45.619
-35.6192
-5.78274
17.5084
16.1018
8.04597
37.6576
69.7736
47.0795
0.332399
-6.48698
-21.3925
-17.7736
1.30312
0.0240603
-26.1955
-49.2249
-58.4885
-61.5819
-45.9388
4.49691
38.2421
35.6744
12.154
17.7667
31.7269
10.1667
-24.735
-26.0695
-0.62013
3.58404
12.188
19.0641
34.8645
43.1211
31.6282
19.6963
16.2081
29.8167
59.3528
64.4029
6.48543
-38.4689
-42.3987
-29.1632
-37.8566
-58.7487
-46.8553
-45.3669
-45.6384
-50.7447
-55.8222
-33.0791
-7.55039
26.5762
73.9738
108.752
107.613
65.4346
30.6629
7.58421
-34.9718
-55.785
-57.9774
-41.4975
-3.52492
29.228
53.7219
80.4695
52.4223
-4.34581
-36.7535
-62.9611
-79.7073
-90.1384
-89.268
-63.8376
-43.4555
-23.9753
-0.262517
21.6769
38.5948
34.6275
40.5386
25.5242
17.8395
31.7983
10.1521
-28.9247
-13.1525
57.1011
101.657
92.841
62.9614
30.1615
4.49013
-10.8879
-7.87277
-14.0881
-35.0431
-38.2009
-0.543968
20.1841
8.47365
-9.58325
-38.0984
-60.1319
-65.4271
-49.7716
-31.3681
-20.1834
-8.59489
1.02018
0.604849
-0.689088
9.827
18.5481
14.007
17.1842
18.675
5.77746
5.31871
11.5206
16.7934
9.56551
-17.0187
-19.5642
-1.68696
10.7377
12.1514
1.98483
-7.90194
-7.91711
-6.98483
-7.84456
-3.21837
9.72371
30.5968
22.5575
7.02879
2.12883
9.4868
16.2874
13.9704
17.0074
59.9456
74.7456
8.76624
-42.5502
-31.6821
-20.7744
-17.0062
-39.4094
-44.9385
-30.4207
-22.0407
-27.9143
-27.179
-18.5935
-8.41245
-2.60501
1.61967
-1.9703
-14.5455
-21.5159
-40.3786
-43.4985
-2.81937
27.882
14.8224
15.0924
29.9395
61.5812
84.03
81.9753
47.5653
15.4027
-2.80459
-10.6175
-23.2421
-33.2494
-27.605
-6.81683
22.7561
3.8564
-43.7332
-55.6627
-30.402
-1.29963
32.6348
46.1735
31.8457
15.917
-2.67855
-15.3593
-7.70708
-9.82248
-19.0692
-7.86166
-1.64956
-2.41759
3.65102
5.68669
5.66567
19.7164
22.4719
1.80814
-16.0582
-33.2857
-49.564
-48.2695
-33.304
-5.78202
8.06829
16.0243
20.3051
24.2091
12.7784
4.85602
12.0057
16.4254
11.2895
6.5665
3.18737
12.317
38.8783
40.7457
19.1481
-0.601909
-13.8581
-25.9899
-36.4541
-37.5485
-38.5812
-34.2968
-12.5719
13.8101
26.0382
34.4092
37.7773
25.8566
-0.622093
-19.6409
-22.5689
-24.2304
-28.8343
-32.4129
-2.1526
26.7342
21.6782
11.3255
6.9978
4.45521
1.59472
-5.38944
-24.4206
-39.4428
-12.1393
8.29634
23.6586
33.6988
45.8336
42.7128
17.8346
-22.586
-41.2718
-38.2825
-44.4093
-22.3794
-3.18113
2.38186
14.8672
25.3836
29.6718
42.3749
46.4685
31.9215
4.75783
-3.89269
-17.6618
-25.729
-38.3105
-43.0319
-30.461
-17.5285
-4.19445
14.3365
15.4795
5.68768
8.79266
17.7782
6.3047
-5.87275
-11.9867
-7.04697
3.37125
2.06997
7.72873
7.8127
-8.12005
-20.577
-13.4294
-6.6083
6.17245
27.7982
40.6737
40.8594
19.9857
-5.63056
-5.04179
1.51734
-5.5686
-16.4014
-13.4532
-14.506
-21.3348
-9.3938
-15.0284
-40.8613
-50.4066
-39.8869
-6.48837
45.054
73.2871
72.2321
39.7375
10.8699
5.69518
-12.8569
-25.2167
-12.1133
0.0316842
-12.1163
-33.0683
-60.7423
-58.7998
-28.5749
0.102349
13.7791
14.9496
12.5825
15.3344
9.84733
-17.9173
-15.2781
6.01418
24.5426
37.4901
39.1337
40.2167
27.4949
17.5895
27.1612
25.9866
25.6249
23.9112
3.1669
-22.5303
-9.01506
18.2926
11.1748
-5.56336
-21.1938
-18.7231
-18.1912
-27.915
-37.1838
-41.25
-34.7795
-31.2392
-34.5183
-28.7724
-13.0285
5.26891
15.1464
9.75154
4.30013
10.5987
14.491
18.9075
17.5616
13.9791
0.0631067
-19.833
-26.7585
-18.643
-8.98623
4.48174
7.42093
-5.80544
0.536599
8.14506
8.77297
18.5797
39.4907
40.8882
14.2037
7.93881
16.4068
14.4079
14.3954
9.01903
7.63195
1.52347
-13.1279
-22.699
-32.2276
-28.6582
-11.4885
7.19928
9.32318
1.0126
1.76232
3.56743
-10.4072
-17.6114
-4.2143
5.75663
15.2086
17.8667
6.69069
5.69787
10.6489
15.8484
-4.59188
-31.8422
-45.3582
-61.5762
-48.6713
-20.8337
2.36238
20.2404
27.6434
13.5739
3.18699
16.3378
17.3104
17.3555
6.87745
3.89818
7.71954
5.17065
-6.38195
-11.705
-11.6121
17.4937
51.7014
54.8858
39.9975
16.8972
-4.71306
-23.1958
-48.9259
-57.1132
-45.328
-11.6577
42.7041
61.342
47.1382
6.63083
-24.4691
-41.497
-53.5082
-47.9569
-24.1503
-13.1482
-7.14656
1.77543
3.94932
-0.937003
1.2697
6.46876
16.5923
18.6543
9.39277
-9.31066
-28.9208
-28.8384
-3.92872
32.7675
54.3781
63.354
52.2297
21.4483
-9.26753
-36.3394
-41.0658
-29.4931
-28.7858
-17.1587
1.16485
14.6444
19.8713
26.4714
25.1942
13.6405
9.7142
-2.86942
-24.5091
-27.7846
-20.863
-9.05564
13.4944
27.7868
19.1221
14.3159
13.8665
35.7702
23.483
-15.1352
-51.6517
-62.0607
-46.6109
-19.445
-3.16162
-1.62836
-14.8576
-23.0362
-18.9269
-5.03938
-0.0873218
0.323617
-0.59217
5.11164
28.785
52.1602
71.0397
67.2205
52.0464
32.2433
36.375
17.4154
-6.19815
-18.4489
-23.1662
-32.3067
-34.6943
-31.4411
-23.6546
-19.7522
-17.7658
-10.5574
-11.7079
-32.1563
-39.4266
-43.6603
-63.1602
-54.2759
-22.4249
-0.646489
15.6519
26.4809
25.5729
25.817
30.8105
16.4821
-13.0895
-5.83739
4.41507
29.9646
61.4873
69.266
53.692
44.3402
51.5689
51.7517
23.8596
-17.1947
-28.4991
-20.8131
-31.9326
-39.2103
-29.3687
-9.40734
-4.36477
5.0863
29.8188
29.3758
7.78388
-22.6091
-46.2458
-47.277
-47.5589
-43.7067
-30.4685
-20.5309
-8.32128
-20.5502
-27.639
-17.4915
2.09609
26.8136
23.8863
8.35318
24.599
50.2351
46.6837
26.0222
10.5801
-3.7626
-12.361
-19.7572
-6.95174
-2.65906
-5.08547
-1.97992
4.64685
0.123346
-4.98931
1.31555
2.59241
9.41605
12.9111
14.6889
12.6442
-4.9801
-4.89834
19.234
14.4254
-7.0381
-6.37352
4.10855
22.8446
35.0503
19.7576
-4.13103
-18.4027
-14.6891
-12.2482
-19.7524
-18.6106
-14.1301
-16.6107
-32.4353
-45.276
-33.7169
-11.2321
-8.05082
4.23844
22.6585
16.9406
-1.30231
-10.3414
-10.9049
-7.26751
-0.931619
6.88417
25.0017
25.0299
37.3445
46.9962
45.7289
40.9604
34.5966
12.5309
1.61804
-8.63603
-25.1765
-22.7119
-7.65443
-7.21986
-21.4607
-50.1695
-73.2642
-85.6653
-75.5432
-54.4353
-10.4497
48.6691
62.4641
48.0999
49.8851
60.3434
80.3525
93.3613
71.5
29.5633
-3.0676
-32.4681
-50.4043
-69.0908
-71.9472
-46.4314
-13.0977
29.9371
24.2078
0.0184958
-30.8839
-51.0151
-50.8632
-43.3052
-28.4386
-23.2066
-25.2416
-25.1242
-18.3326
-9.66002
-12.263
2.56901
55.1729
129.313
141.982
93.0537
64.1995
31.1793
7.72884
-5.60327
-14.7054
-32.666
-34.0256
-15.9205
-12.9037
-29.8996
-46.7328
-44.9282
-23.9679
-10.1694
13.5704
35.7793
7.92682
-27.0917
-22.8402
-11.3039
-21.6635
-31.8743
-14.9308
2.05033
13.122
17.0565
21.6101
44.0964
49.0042
15.3768
-5.20502
-8.44484
-9.69157
-4.58857
-3.73258
-9.01674
-14.7364
-27.6187
-36.0647
-28.4661
-15.2914
2.5713
25.724
48.3229
63.0423
54.7453
30.3527
-5.96502
-8.77582
12.5222
-12.0479
-54.965
-61.2875
-39.9277
-32.9907
-28.455
-18.1808
-11.0514
0.2283
14.4536
26.4376
39.289
29.6054
5.33184
-10.8077
-0.807047
2.33562
-9.0637
-26.043
-31.5232
-20.5139
1.0266
18.5034
48.4217
74.6031
71.5774
45.4406
25.557
17.341
7.3853
8.97343
7.34446
14.9092
15.6082
3.24696
-23.7452
-56.2851
-74.6322
-84.3107
-58.4181
-7.58687
18.3289
16.0723
-4.93085
-20.7251
-26.1639
-34.7376
-31.4737
-26.7434
-15.3215
-0.758847
16.7193
22.7635
25.6262
30.152
28.8014
23.4514
21.3459
16.4978
7.5719
-1.10005
-12.293
-12.0957
-22.1546
-31.6551
-25.1785
11.3832
43.6021
44.4789
40.4288
26.5104
18.9197
12.5785
-2.46037
-11.7498
3.82949
46.3181
41.5644
-4.55823
-18.241
-28.1809
-15.2797
19.3871
46.505
26.3974
-9.53736
-36.6589
-55.2119
-62.4636
-58.8516
-62.4839
-65.3018
-57.8468
-29.5993
-4.45103
0.0711663
-10.9133
-7.61684
19.0739
37.6205
51.0443
54.2063
36.1246
17.8879
23.4678
30.5313
27.3067
10.7001
-2.42314
7.20397
7.6341
12.4444
18.9238
15.3057
3.39154
-7.65907
-19.8737
-14.8404
2.24843
0.922486
1.24246
4.21363
-4.37747
-9.52657
-5.4998
-2.14874
4.59187
9.81177
7.84271
1.08933
-4.41302
-3.05069
6.01748
0.754716
-22.7653
-46.2142
-65.3414
-76.5843
-70.5912
-40.6013
-4.24447
44.8262
89.2195
85.4357
34.4893
21.2116
9.19949
-7.0065
-11.061
-9.13682
-0.838422
-15.745
-29.5148
-19.3622
-15.7678
-1.08938
18.4639
22.7829
32.8557
38.5265
38.957
8.60106
-45.3246
-67.1102
-46.7982
-21.3648
6.91045
27.1297
7.08521
-16.4626
-14.5442
-4.58458
11.0219
54.6704
127.682
146.822
76.9995
23.4002
-5.78518
-34.1749
-55.2759
-68.2997
-80.4386
-76.8129
-54.2143
-25.7299
-8.81146
0.220335
14.0379
14.5472
1.14585
3.7962
0.603673
-37.294
-65.3843
-56.0286
-31.595
-29.3134
-18.7004
-9.43226
8.39326
13.7596
8.92803
14.8572
39.8674
57.0612
43.9692
36.5944
54.4953
78.7182
86.2114
64.2108
33.1499
0.0816559
-33.997
-54.2049
-38.2777
-10.5167
2.14185
8.73364
0.0969992
0.539437
0.363242
-24.7993
-46.1248
-58.3465
-45.3523
-16.0461
5.25312
1.88153
-17.7057
-18.125
-10.4787
-6.80168
-11.611
-11.8235
7.51608
30.4865
31.3749
27.8977
19.0825
8.75906
6.99117
23.2054
41.9911
20.1148
-3.99993
-18.3139
-17.763
-1.54988
7.70141
-29.1809
-50.1739
-49.8898
-47.2802
-42.0426
-35.786
-25.589
-0.842356
26.4509
47.9123
49.9819
56.6432
59.8207
42.06
21.7438
-16.3242
-43.2903
-16.7563
48.7311
58.8717
13.8599
-13.7856
-27.2601
-21.3139
-6.77912
-2.94771
-4.06017
-3.51034
-11.6961
-21.0418
-16.5542
-3.84525
7.01674
-10.2237
-13.9999
11.116
25.2114
-3.41756
-55.3958
-53.0713
-12.6515
3.38791
5.47133
-10.0127
-15.6626
-7.67744
-2.3999
-0.782286
17.1626
24.3881
14.9258
10.4092
19.2433
36.3015
46.884
43.9525
39.1781
23.3237
0.0277503
-10.5008
2.83102
9.87848
19.4661
33.1349
16.4343
-9.09152
-16.1002
-24.2249
-62.7062
-99.7823
-78.1477
-33.6826
-8.36868
-20.9639
-40.6297
-33.9651
-26.9448
-22.2285
-10.0338
14.7756
35.8518
43.9999
44.4421
41.9335
33.2962
10.3272
-1.15824
1.51512
20.8367
48.264
65.1093
69.2223
59.0873
73.8022
113.98
117.634
53.0567
-21.8064
-83.4566
-127.991
-145.321
-133.506
-75.9898
-43.3917
-47.9098
-54.4374
-54.0739
-41.2973
-16.5548
-9.63925
-42.5517
-64.2833
-59.3205
-66.3486
-61.2923
-43.5684
12.416
76.7687
115.464
117.727
108.811
96.4544
73.0122
115.014
166.026
185.767
168.712
155.968
161.551
110.236
53.7881
-37.0811
-147.959
-185.448
-219.754
-252.545
-256.063
-227.379
-199.308
-157.025
-92.6053
-35.2489
-19.0413
-31.5121
23.2713
85.3372
86.0362
53.7021
15.2451
4.77608
31.8876
81.5841
123.248
133.347
136.416
146.676
134.613
137.487
99.8886
53.8179
35.3007
11.19
-29.4489
-74.57
-134.246
-159.048
-137.587
-115.085
-109.576
-86.2641
-54.251
-13.8328
38.8503
75.7821
66.7448
45.9849
42.8926
38.3737
51.6389
62.3851
37.5499
12.223
-9.60079
-53.0521
-67.0237
-67.3604
-69.5125
-59.1106
-35.5899
3.69476
45.3224
65.1714
104.672
97.5805
51.7114
1.17
-60.0234
-110.179
-112.254
-90.2546
-68.3349
-42.2942
-20.3766
5.09452
32.2797
81.6467
106.229
72.0038
27.1986
24.5054
50.6319
25.3047
-21.4958
-68.0661
-106.908
-36.0596
97.1346
96.9826
73.364
79.023
53.2781
3.58844
-40.3295
-61.9615
-106.194
-138.232
-115.769
-73.7759
-19.104
34.3074
32.7667
26.4349
49.0447
58.1787
60.6203
22.9082
-18.9117
-17.3978
-16.345
-0.000189958
31.2301
43.2265
67.4121
82.0821
71.5918
19.0022
-55.3293
-97.5067
-93.7095
-82.5129
-77.8633
-33.1323
38.2274
130.693
148.688
101.63
23.8943
-11.7735
-17.2751
-41.5697
-92.9936
-135.746
-151.837
-144.636
-117.011
-47.0152
53.9083
173.722
239.341
153.505
20.7912
-81.0936
-126.014
-116.085
-64.37
-27.4621
9.86027
31.301
13.7871
9.8461
31.5791
59.1109
69.6161
67.625
60.1855
52.3542
30.4138
-7.19197
-41.4399
-35.9289
-7.33101
6.26969
-34.3215
-53.4978
-47.8008
-37.7401
-21.7981
7.07814
57.4249
95.595
115.106
127.288
133.439
80.001
20.3272
-36.9667
-96.4424
-148.241
-175.191
-167.939
-145.234
-108.386
-45.5117
-1.39914
24.3673
53.4213
96.4364
117.625
55.9701
1.41576
-26.9843
-59.5805
-92.3513
-90.4682
-48.4077
6.91552
61.2049
98.0242
105.568
134.014
149.854
87.3043
2.64313
-66.2343
-83.924
-74.8056
-65.8171
-63.4889
-32.5593
-20.1325
-15.6737
23.3979
90.2667
126.642
140.17
102.114
37.6506
-26.9612
-81.8753
-108.441
-120.254
-93.6857
-60.4769
-35.0569
3.47802
41.7967
50.3165
37.2546
29.1163
21.2481
35.0585
17.1985
-20.0098
-24.4028
-45.7031
-46.3866
-28.0453
-17.5528
-35.6307
-53.2908
-33.9538
26.2975
36.4153
30.2667
25.7529
11.863
0.733615
-27.3828
-50.0415
-57.3315
-66.3806
-34.5107
32.0397
104.343
149.908
129.594
117.079
117.686
83.4527
-11.0421
-69.6292
-79.0376
-89.7454
-92.7095
-48.8738
-26.9158
-38.6783
-30.22
-7.76278
5.54019
2.09651
-17.1582
-31.6646
-38.5092
-46.7656
-29.6494
-22.4588
-18.7225
26.8701
116.152
157.04
152.91
159.391
98.4575
-4.51603
-63.0713
-82.3712
-75.5005
-56.9285
-45.3059
-37.1696
-26.7717
-30.0777
-19.2679
-8.61538
-35.4295
-68.892
-87.7562
-82.68
-62.0055
-37.2898
-9.30239
27.5586
88.3966
135.522
168.743
140.315
73.9157
-10.1727
-55.0502
-55.1435
-51.9896
-49.7786
-63.4645
-44.7293
19.2734
43.1349
23.7454
10.0651
-4.74054
-10.3439
-23.2505
-54.6814
-56.7941
-40.3482
-43.1596
-12.4266
45.471
78.3873
68.3992
61.0103
54.5448
35.6054
-4.62299
-38.5158
-43.7198
-3.0362
42.7885
50.413
34.1199
27.0722
48.3424
44.1644
-35.949
-92.0274
-85.485
-4.41656
63.1557
65.4519
73.2683
48.4142
0.342144
-34.2505
-63.3271
-106.146
-117.14
-115.165
-102.931
-69.8706
-12.9302
19.0158
2.92946
0.0970095
21.1278
39.573
50.0658
54.3267
22.015
0.777813
-32.0522
-67.6983
-48.4103
-15.2379
18.8666
47.3958
30.226
28.532
37.1754
38.119
5.94752
13.4031
98.1578
162.148
173.444
121.286
64.0669
41.3741
22.0177
-37.6986
-88.751
-108.405
-128.187
-123.976
-94.2534
-65.1055
-18.1489
10.0405
33.6141
90.6347
100.184
15.3593
-80.6993
-133.578
-134.6
-139.94
-176.79
-198.823
-161.146
-72.9381
24.8419
141.087
246.105
284.795
250.335
165.804
87.0235
8.91831
-55.8302
-86.0399
-99.7117
-74.6312
-62.2696
-54.5261
-12.2872
43.906
88.4174
47.409
3.93145
34.9758
94.5811
110.639
37.7201
-45.4032
-90.6829
-79.5605
-45.7426
-11.72
16.2355
0.652387
10.0435
29.5981
38.8437
33.6829
20.4795
-31.8311
-78.186
-73.0559
-32.6513
1.95266
20.6432
17.5418
42.3524
79.6533
94.3756
9.7688
-82.0237
-111.097
-125.179
-121.723
-89.4923
-75.2463
-95.1519
-124.933
-91.9945
-9.3055
58.487
101.38
117.992
115.411
66.0813
-2.58265
-56.6836
-85.5397
-60.5149
38.7662
130.593
170.042
203.559
221.253
155.253
98.295
66.2147
31.4485
-15.7862
-36.7852
-52.9744
-81.2248
-110.526
-111.98
-94.1605
-72.2462
-62.4451
-63.3922
-50.6026
-35.6451
-30.5315
-27.9632
-33.5252
-44.6371
-7.70667
31.2748
47.768
27.5309
2.73019
-16.1571
-26.4509
-22.7338
9.93523
54.922
76.3233
58.0542
23.8617
2.24258
-12.1277
-7.63393
-8.78074
-26.6111
-55.0176
-69.4204
-50.9265
-29.9583
-18.9065
12.8897
54.8937
88.4746
97.3701
73.8284
39.369
-15.2209
-69.0627
-70.3106
-40.7813
-7.76994
2.73628
33.533
59.336
57.6808
41.4463
12.0738
-30.0514
-75.3543
-52.4016
2.72041
36.5823
53.8449
49.5225
57.5697
75.2204
93.3021
47.5448
-44.9659
-107.124
-128.151
-145.673
-139.858
-106.29
-63.5666
-19.23
33.5077
127.573
193.322
157.004
72.4892
-76.9759
-128.297
-82.2962
-64.3309
-44.3835
-10.8825
37.8636
80.3929
93.4573
61.6652
44.7401
40.7981
0.438189
-28.2663
-25.2402
-37.8963
-98.3067
-147.548
-121.335
-67.4702
13.5392
34.1393
34.3635
41.326
22.803
-9.89171
-9.70895
35.4521
78.1918
114.47
115.544
84.8376
63.5512
33.7587
-6.75028
-27.4458
-22.9643
-17.4751
-38.591
-61.2027
-46.2593
-26.5454
-21.0647
-15.4833
-6.82807
9.88354
39.7642
75.3258
58.6756
18.3311
11.7996
-2.26311
-26.3154
-44.0233
-58.6251
-85.3794
-92.6115
-69.3385
-52.7547
-28.939
-6.38206
9.9926
15.5406
25.7613
21.2113
10.3126
-21.2376
-45.4796
-26.0933
6.78834
14.8571
14.1047
31.2425
28.9134
23.4732
39.0928
51.2128
40.3185
27.5816
46.8758
59.7826
61.39
56.435
38.6959
26.9822
9.83746
-10.9232
-36.9627
-54.1448
-74.6738
-81.7795
-71.5759
-58.1163
-20.8437
1.54599
13.4392
19.14
16.9569
22.5913
13.3034
-8.71069
-18.9709
-1.83768
25.1132
11.7985
-25.1363
-33.6379
-13.414
26.4076
53.697
28.8511
10.5933
17.3322
10.7103
-8.61842
-27.0156
-31.2224
-31.2143
-34.6965
-37.5505
-27.2366
-19.9684
-28.8336
-34.5005
-11.9955
11.7363
7.88484
-15.6476
-42.3565
-41.2291
-3.16157
43.4432
70.5882
97.3381
140.218
149.216
94.661
15.8778
-40.0459
-43.5802
-2.01782
42.3149
41.919
5.52509
-26.668
-50.7517
-64.4261
-63.4168
-55.5761
-50.6745
-36.2707
-30.071
-33.5774
-43.857
-64.9417
-63.5327
-28.6532
1.38038
5.22061
-1.14452
3.42607
26.5661
59.7435
88.187
93.9304
90.8334
89.4664
55.912
-35.8439
-80.3681
-38.6455
-17.7832
-35.687
-37.1895
-22.4761
-13.2014
10.77
44.5774
60.4039
62.7433
44.779
10.7191
-41.0642
-82.356
-94.6682
-80.4377
-53.6428
0.730251
70.0973
89.0594
61.1476
31.8567
15.4494
8.47796
-4.96108
-21.8815
-27.6908
-24.7439
-10.2795
0.381203
3.72442
-16.0218
-38.3484
-43.5273
-46.3729
-38.0755
-5.35972
12.3009
23.7138
40.7493
23.4728
16.9602
13.0423
2.87604
14.5031
42.2564
46.8242
36.0833
48.9469
67.2523
47.3677
-4.56223
-34.6803
-57.2254
-63.1844
-54.8738
-57.6218
-71.2086
-63.6409
-43.5419
-24.9196
-25.2889
-1.2263
47.5099
57.9095
5.85874
-21.585
-9.41594
24.453
55.0143
40.2674
0.105815
-42.1334
-54.1053
-59.3176
-59.8965
2.05502
84.733
173.792
224.2
190.768
113.342
31.5671
-5.2534
-36.235
-62.2419
-90.4621
-115.48
-134.447
-143.993
-106.41
-34.9097
17.407
50.2617
78.2917
78.6431
12.5209
-55.4863
-111.067
-148.241
-118.935
-59.1707
-16.5029
-19.3637
-11.9356
14.5019
54.5465
96.053
100.277
73.0845
62.1626
65.6319
71.4655
44.4904
1.91188
-5.9625
16.308
33.3917
13.7818
-9.61518
-17.7315
-6.12002
21.1201
33.9245
49.7877
43.2831
25.035
-17.4134
-69.2622
-86.9805
-96.6082
-84.8565
-38.569
2.78361
30.0501
38.6195
6.12537
-27.2367
-29.4796
-38.3674
-53.2264
-50.2292
-29.3258
-15.4246
-24.7537
-10.2444
1.51982
23.1192
78.4406
100.8
62.3579
45.8091
37.188
45.5014
61.6987
61.9493
25.6478
-37.9332
-55.9111
-32.2732
-3.49793
5.57738
2.44049
5.92695
-1.25392
-29.0629
-51.5792
-58.2051
-46.89
-15.8391
-3.69462
-21.1967
-37.5542
-38.7159
-40.736
-94.1779
-86.1583
9.67508
61.7398
54.9604
18.1587
-3.62258
34.3236
78.4964
82.7019
63.5265
55.6397
41.4475
12.1705
-14.8266
-1.80327
17.4127
23.0071
10.7543
-3.8026
21.761
46.0078
37.9493
5.97271
-14.8346
-18.7955
-39.0661
-85.0772
-123.524
-118.47
-86.2568
-56.8226
-6.86603
30.9288
42.6126
49.0052
24.2476
-4.28037
-21.962
-1.65252
47.6652
63.9005
47.6412
41.4249
35.4183
36.1397
15.6486
-38.2589
-74.0204
-50.7994
-4.88023
19.8314
31.1521
21.1595
-5.83934
-15.4912
6.70817
39.6492
52.8082
8.22269
-33.7685
-64.6356
-76.6796
-48.6972
-17.449
9.28854
32.9394
40.5733
39.2047
28.3512
21.4167
20.5867
-1.63716
-24.4918
-31.4747
-16.6176
-4.36943
-23.9866
-53.5815
-50.7568
-44.8227
-34.2894
-20.1464
19.4692
60.4547
98.5599
132.411
121.035
83.2895
38.5407
-9.34512
-64.5625
-102.86
-118.602
-119.881
-117.001
-95.815
-40.8299
32.8711
94.6972
143.267
167.429
144.7
82.7666
0.274786
-92.4908
-129.321
-116.659
-82.3717
-53.9442
-34.8001
-1.45887
40.9669
49.7932
71.2627
82.1067
39.6354
11.3298
1.44166
2.72716
-14.0225
-35.144
-51.0774
-69.5024
-73.1538
-72.6155
-51.4927
-14.1813
10.6067
41.0763
64.2475
47.25
27.9812
36.8438
56.2927
60.7322
56.0343
36.0822
10.1442
-15.0354
-28.2853
-39.944
-50.3538
-49.9193
-21.4941
57.3962
95.8546
88.6171
74.2488
31.6139
-24.3246
-66.8091
-89.9377
-111.993
-123.758
-77.1551
-11.9317
38.0551
67.9587
53.528
10.8969
-3.0118
21.8665
23.4648
-11.9689
-26.4891
-15.3606
-37.5177
-89.0764
-102.29
-58.8086
17.8549
85.6669
164.766
196.133
118.674
25.6424
-56.7151
-82.3745
-64.0403
-32.66
18.6623
17.7681
-11.5216
-58.6485
-70.1679
-104.831
-146.898
-116.455
-86.6487
-53.2655
-18.023
20.0132
35.6968
77.2189
192.598
280.792
314.566
312.24
223.657
41.0451
-86.5349
-147.179
-159.522
-122.545
-140.103
-162.6
-113.189
-60.6532
6.57357
90.6439
118.585
23.0721
-72.2005
-157.546
-210.877
-202.654
-170.093
-164.128
-116.541
-11.7766
54.0998
94.1497
149.362
199.855
221.576
212.285
195.248
157.9
99.8843
20.2143
-23.4884
3.55618
7.99033
-0.775754
-39.2399
-91.6994
-122.688
-130.862
-86.4507
37.3247
138.828
145.221
83.2817
-4.80836
-72.2992
-55.3649
-33.6739
-32.1609
-41.6589
-64.2422
-75.7661
-59.0941
-34.8959
-17.5769
-18.8583
-37.1738
-54.7225
-57.895
-63.7721
-76.9297
-69.6009
5.57773
68.3482
79.4202
86.7866
91.5206
90.3343
75.6594
58.0712
32.6567
22.9292
10.9645
-8.41525
-20.8968
-22.9948
-19.5493
-25.5744
-32.4495
-15.5432
-10.6823
-26.2932
-53.4865
-80.4622
-99.9283
-97.4962
-36.3767
15.6175
76.3415
144.368
174.42
180.04
159.402
114.648
26.9813
-34.392
-18.0592
-2.57219
-27.2427
-57.5524
-77.2422
-89.0236
-51.0044
44.9398
93.6749
33.4877
-75.4912
-137.828
-146.241
-141.587
-130.623
-119.063
-90.3557
-37.9967
34.7527
91.2068
101.783
88.7356
78.2293
46.7627
19.4118
-9.21625
-47.2906
-81.3645
-49.3843
28.4234
92.6262
143.133
145.187
103.921
63.298
12.0197
-13.1253
-54.3844
-86.2837
-81.5551
-11.3145
104.677
149.017
120.282
53.3264
-12.68
-22.6518
4.37462
19.6926
-27.2834
-86.7412
-116.056
-130.903
-129.388
-123.461
-90.3196
-42.8265
-3.03518
35.7737
55.7855
29.8348
-24.4077
-53.7679
-47.8244
-47.5878
-25.2929
-16.2294
-16.1724
31.3163
91.0496
105.67
56.8294
19.9271
49.5694
82.9608
37.7692
-10.6445
-38.4482
-66.7472
-66.8677
-56.5553
-21.4047
37.3574
83.4772
160.116
219.926
202.473
76.53
-32.9663
-57.7168
-37.3946
-15.2982
-49.9099
-137.906
-193.762
-157.956
-71.9494
0.1979
56.9568
74.9657
72.7739
41.9581
-22.6828
-29.7402
-8.44577
-13.6778
-54.9344
-79.5875
-85.2348
-73.8328
-54.3332
5.02449
63.6374
59.7648
46.0342
55.7418
51.5222
44.4757
39.7519
17.7978
-29.0643
-43.5967
-12.461
-7.43205
-2.86067
7.71654
9.3672
33.4961
32.4631
7.96584
-14.3395
-27.1209
-24.3554
-1.39814
29.5071
46.3881
42.6923
54.531
59.948
76.471
50.4208
-29.0285
-80.1941
-95.7475
-112.062
-121.285
-104.619
-38.209
70.5833
125.145
88.5923
53.3668
60.7641
66.9235
36.1051
-15.3816
-74.1389
-124.569
-162.874
-209.735
-198.726
-86.8193
38.8779
139.716
175.997
148.68
127.034
142.213
142.231
62.3492
-15.7361
-24.9045
-40.6424
-51.446
-66.9942
-80.2135
-81.4962
-71.6736
-48.7736
29.1463
100.204
119.758
101.937
30.8582
-43.0142
-67.3572
-79.6172
-130.638
-151.772
-80.1978
24.8494
78.5453
76.1835
49.18
43.0448
12.5198
1.87843
36.9598
47.7159
13.4285
-30.8755
-62.5073
-76.6739
-76.8469
-67.8074
-50.9002
-5.58725
18.456
-12.3076
-16.9169
-34.4695
-59.8111
-39.8149
79.9015
248.246
315.673
220.154
97.8213
27.203
23.5351
39.6615
10.1286
-39.4282
-73.1362
-67.0127
-77.8148
-98.8793
-109.395
-113.984
-115.179
-105.008
-135.195
-154.051
-134.975
-65.1783
58.4989
218.23
243.451
174.074
45.5775
-54.9311
-96.5352
-82.415
-25.6361
46.4579
63.5128
49.7486
29.8556
10.1908
9.80473
76.8605
130.031
126.167
54.8053
-43.7746
-96.1762
-135.975
-177.771
-171.971
-120.349
-64.8564
22.2416
80.0118
52.9472
-12.8019
-14.1695
90.5308
185.163
158.749
102.697
62.1629
37.1149
14.4724
-32.4153
-112.836
-176.292
-156.191
-27.4563
86.5166
109.291
39.6029
-23.9659
-59.7296
-60.4172
-38.8814
-19.1072
-51.3565
-87.1586
-60.2298
-28.5169
-13.1721
3.66644
24.6918
56.1517
46.6001
22.3824
0.519415
-1.10599
12.6369
33.3363
72.7182
92.1706
106.211
117.325
98.6293
83.1578
33.1935
-19.9645
-40.1736
-59.9645
-88.5962
-88.1536
-65.3915
-48.3982
-55.6088
-69.1061
-52.7518
-28.5425
-20.7648
19.0556
105.321
124.797
21.6324
-81.8044
-123.574
-141.842
-113.505
-14.8742
136.027
214.092
183.178
84.2201
-15.3949
-72.4289
-95.4057
-79.6925
-81.8552
-61.6458
-2.79003
13.6951
-1.54878
-27.0538
-1.96513
51.2513
77.0549
79.1331
78.5188
38.7527
-26.5728
-50.774
-73.4503
-66.9861
-51.5775
-40.5084
5.73397
36.6021
72.197
69.7943
-8.88857
-67.9959
-72.199
-52.7979
-5.32307
42.4906
70.9444
102.975
105.168
74.23
7.00608
-71.2959
-86.2381
-57.4078
-8.98211
35.61
63.0905
73.6116
42.9294
8.32468
-16.2976
-37.6204
-78.0649
-106.915
-95.1958
-7.46786
99.272
75.6434
-20.0408
-62.8378
-37.8412
-8.15305
0.830398
-6.14955
-10.9892
-9.06999
-25.4947
-52.8117
-50.8477
-33.8664
-18.9525
-19.0769
11.1369
55.6662
96.8427
94.1824
43.074
47.5261
145.427
213.214
149.483
27.6781
-74.2101
-116.938
-114.467
-96.0593
-37.4252
1.98595
-30.3592
-50.3651
-37.7349
-1.51094
21.9441
14.7499
-41.1558
-96.3006
-123.833
-122.84
-136.88
-190.521
-190.153
-127.355
26.8523
240.67
344.54
382.512
338.618
170.037
51.5945
-9.5245
-37.0092
-45.2823
-68.7482
-87.5141
-70.4951
-67.9099
-68.1934
-54.4485
-53.9282
-52.899
-43.042
-22.6946
-22.5657
-73.2149
-95.0268
-104.322
-81.6103
20.6414
53.6021
39.8198
77.33
110.3
130.901
105.911
45.6214
26.4756
42.2046
54.4393
28.7508
-29.0772
-35.9879
6.28598
18.8704
13.0441
-7.37645
-52.6313
-59.8527
-10.7374
22.9706
12.1618
-23.7318
-42.9595
-43.0914
-34.3064
-14.2052
-24.4868
-54.9766
-67.9665
-61.3508
-30.9057
6.49898
29.9234
52.23
38.6063
22.9184
-0.602968
-20.4252
-2.01133
-3.27248
-23.9583
-41.2703
-24.5789
38.5166
78.5533
51.2166
10.6247
20.8838
46.2732
50.3991
49.4869
28.5228
10.7529
0.969573
23.9551
41.7012
26.6218
-3.19236
-51.6638
-42.2982
-5.42152
10.6281
-13.7143
-66.674
-73.6796
-24.6337
