-0.614523
-1.2522
-14.3321
-14.3164
1.10052
25.8248
20.7303
13.916
19.3453
20.1855
20.19
-0.132537
-49.0393
-38.4123
-25.2222
42.1046
87.8293
32.3083
-18.0404
-8.62082
1.65218
9.32195
17.08
11.1362
-21.6745
-83.2393
-85.1476
-37.5493
4.42335
75.8964
50.9051
-77.9241
-126.695
-104.091
-13.2018
143.762
169.698
21.3964
15.2272
11.7288
6.03127
8.12648
7.01206
-1.16556
-1.32518
11.9818
29.1714
30.406
-20.1959
-79.9866
-44.4124
35.5726
79.3266
53.8463
-11.7587
-134.198
-164.094
-56.5209
-17.1354
-15.6088
-11.3882
-2.14741
15.7243
31.6976
54.2454
67.1682
43.8364
31.813
26.2142
25.8541
57.3344
75.6728
24.6433
-75.3491
-142.318
-149.283
-108.883
30.0341
129.325
189.262
112.405
57.7108
-16.0744
-74.2366
-62.3444
-7.42897
-31.8237
-87.6843
-99.8697
-88.7011
-21.0836
62.9752
98.3857
121.274
99.9315
43.0963
-2.3931
-93.0252
-128.953
-50.9142
-12.5051
-34.5956
-3.01172
9.35787
-26.1164
-46.0046
-5.62374
105.119
200.224
65.9201
-27.9508
-57.7897
-30.4639
-0.0733104
11.62
-1.43696
23.6751
37.2617
-11.9209
-88.3228
-73.6961
-29.8157
28.5646
39.6397
40.231
35.905
24.1634
-11.6114
-70.0565
-35.7262
-36.1894
-52.9501
-32.512
-21.7282
19.7427
17.743
12.1694
29.0305
21.2385
-9.92695
1.76668
14.3663
7.12407
23.8427
30.0006
21.1733
38.6672
8.60109
-5.61754
28.3482
13.6278
20.3013
4.65602
-28.232
-31.1857
-33.4111
-46.1993
-22.4161
13.7792
13.402
12.2558
4.85196
-3.85067
-6.31852
-12.5966
-2.14726
-15.4778
-32.2329
20.2519
41.0997
-0.745975
-35.9671
-47.0991
-10.8782
13.0914
15.9069
45.9912
96.0444
61.5742
59.7633
-4.82776
-96.581
-110.953
-18.9983
41.7582
44.0791
6.14401
-45.6656
-81.8625
-14.126
13.3809
22.8896
5.78091
-0.245221
-15.6243
-35.2819
-61.0998
-51.2674
1.78601
-6.13136
8.88597
88.8719
115.023
79.9414
-9.01138
-62.0287
37.5791
117.903
-77.7491
-86.7221
23.3026
96.8257
85.8691
18.569
-25.9482
-26.2894
-32.2047
-63.3384
-86.0047
-107.459
-61.389
0.347197
27.8797
25.0436
51
69.632
25.3554
-58.1939
-11.9651
-47.7958
-75.973
-56.5737
6.094
96.9398
165.821
128.71
72.8887
57.2168
-3.98324
-71.3562
-89.1873
-45.3822
2.67315
7.96754
7.96851
-35.6926
-6.71139
15.7237
-1.28996
-26.424
-38.0946
-56.9437
-65.8822
-63.8425
-94.8428
-67.467
-32.4436
-32.4322
6.78381
51.0347
69.5399
53.0587
36.1172
41.0266
68.1315
96.4121
37.2735
18.8763
43.2949
23.2928
-2.40463
-7.45683
2.36666
0.166438
-28.7361
-26.0822
-8.14105
-8.88326
2.4944
15.4435
11.3062
-6.54018
-4.6444
-9.33259
-0.138478
4.59927
-21.7708
11.2758
70.1962
3.22593
-50.407
-67.7731
-46.3479
4.77945
-13.301
-26.4334
-24.6116
14.1925
57.1001
52.2188
-17.2586
-97.4731
-160.985
-119.007
-18.1255
65.3293
73.6244
169.639
258.718
96.3056
-25.8468
-35.8769
-47.1978
-96.7611
-74.9234
-36.5721
-15.4943
-53.6327
-111.975
-70.539
9.29249
61.5562
211.725
217.578
120.248
0.059403
-75.7021
-146.846
-185.668
-68.4852
29.0076
39.2821
-4.5468
0.0526932
4.8044
-7.78972
-10.6363
-52.3765
-49.1392
-15.6691
99.6826
143.171
82.6871
-16.1424
-136.592
-152.525
-99.8198
-94.3755
-84.6598
-4.01912
30.127
38.5768
39.9944
84.7548
142.04
185.921
231.349
264.008
195.605
111.27
-27.0139
-121.732
-126.262
-91.0938
-59.9394
-56.1497
-56.8148
-62.6866
-132.598
-142.723
-55.0684
47.602
12.9455
-69.4915
-89.0433
-84.3491
-66.3342
-73.3998
-71.4713
-53.0848
-29.9202
-15.1023
-34.062
-8.38013
83.3777
119.969
112.779
99.9106
87.5507
76.567
59.3298
28.8089
60.5313
56.1055
3.73514
-47.1249
-86.8851
-67.894
21.4003
52.1358
15.4184
-17.4844
-52.956
-44.185
30.6021
218.616
185.909
-3.93299
10.5004
25.8551
-27.3527
-109.81
-101.396
-27.4855
13.595
-6.76687
-68.4603
-69.2726
-95.9325
-79.4244
-27.2189
40.8088
15.2214
-25.4437
144.542
185.747
58.6639
-6.56485
-93.5131
-118.622
-118.055
-101.13
-71.0781
-63.7072
-120.999
-74.511
88.7699
144.369
125.433
127.383
147.042
61.7985
35.5846
35.2401
-108.207
-246.451
-208.059
-117.964
-33.0606
32.1358
134.781
212.563
195.471
148.207
98.0823
27.8883
-63.0527
-88.2718
-41.4708
-25.3776
-87.767
-52.5595
25.3673
29.4392
-39.0443
-89.1824
-44.0505
7.35809
22.1308
21.229
-25.2739
-16.5238
23.7379
-5.84945
20.3985
73.0413
43.0406
-26.5693
-68.9729
-70.4218
-73.2681
-21.5069
70.9523
114.797
54.0707
0.595231
12.4439
-10.6102
11.537
44.293
55.5081
24.2112
-30.435
-25.2085
-18.6988
-54.9257
-72.036
-69.0568
-61.2845
-51.8829
14.0127
26.8388
8.30916
-9.47843
-9.95073
27.4418
33.7018
51.2997
117.405
198.41
173.953
98.7999
20.4931
-29.345
-51.4785
-63.4885
-72.704
-45.7266
-46.0407
-26.0272
-57.4147
-132.18
-208.914
-215.947
-181.608
-125.087
44.3304
315.667
181.641
-33.0823
-68.0012
-66.7963
7.24946
15.8933
-35.7803
2.67176
68.7069
84.9293
99.9069
36.5429
-31.8962
-37.807
32.9765
112.625
154.725
180.925
97.8075
-70.124
-82.7773
-49.5318
-65.9388
-67.445
-80.5125
-170.82
-112.817
-28.9074
-30.5938
5.94015
60.0419
93.5429
113.033
127.647
81.5739
74.0061
88.5704
32.0071
-5.95769
-59.4993
-44.6756
-34.0747
-69.2874
-53.1984
-60.7785
-8.97244
17.8838
-35.7991
-48.0641
-45.49
-77.7077
-125.463
-91.2703
-7.8539
70.668
39.3953
9.50563
33.1237
100.543
172.549
156.802
79.8482
51.1066
6.72202
14.8495
48.0791
-5.93016
-81.3625
-13.2887
10.3946
-20.9848
-10.418
45.9857
-28.8149
-114.449
-131.808
-153.93
-175.828
-189.826
-209.026
-95.481
-17.9246
-20.0611
20.1864
15.4464
41.8291
94.7675
119.302
43.6881
58.0233
96.1413
120.29
180.213
121.774
56.7069
65.1799
72.561
47.0787
53.8754
41.1494
42.6273
1.4794
-41.2205
-23.4159
84.8675
15.4219
-107.988
-17.3868
-51.3232
-63.8638
-57.0047
-53.732
-69.9306
-26.6509
-68.0021
-70.3923
-26.5828
40.4988
85.8161
-6.11738
-67.7324
-38.6581
-16.8606
-39.507
-110.351
-75.6186
14.8793
-19.0589
-28.0898
-43.2004
5.27239
77.6865
41.0859
13.2562
36.3618
84.441
116.981
163.97
73.4566
-26.8157
-60.9969
-53.4856
16.7714
54.7921
70.865
88.5617
45.7588
-32.7366
-47.5517
-66.9964
-80.5778
-45.6324
-2.37166
-2.09391
-8.49308
-40.98
-75.4505
-124.785
-133.318
-82.7529
-58.84
-28.1698
2.29853
31.7955
25.3631
40.39
58.9123
33.4924
60.3682
111.095
135.381
93.8163
16.0266
-14.9852
15.7722
38.2101
68.8216
63.1104
39.4583
66.0603
51.0445
-27.3041
-76.7981
-128.861
-139.306
-79.5764
37.5239
153.18
-67.2089
-127.246
-95.3411
-73.6612
-10.5662
-11.0575
0.999553
45.2061
49.7853
31.425
11.7959
0.656905
-0.843659
18.0643
14.9536
73.1438
95.1965
37.8979
-46.1633
-92.6657
64.881
106.105
31.182
-4.95249
6.45219
-14.312
-65.8715
-127.774
-168.049
-163.917
-146.213
-99.6471
-18.6196
112.474
114.538
70.6734
13.3238
-20.7369
9.72333
10.3143
39.2205
62.1405
65.3816
-1.40733
-72.927
-67.2668
8.07163
66.3703
57.0207
42.0628
120.355
168.311
92.0563
12.1466
25.1773
-10.4911
-29.9292
-47.8987
-71.708
-101.544
-71.5834
-56.2334
-49.5158
-12.6551
-3.62862
35.3185
49.0191
59.3316
56.4258
33.7687
-3.41813
-10.4647
-1.92362
-14.653
-32.5646
-35.4853
32.3425
3.89662
-48.6044
-64.5069
-52.9234
-23.3589
41.7901
14.3695
-28.1736
-23.1784
-9.49388
0.236757
25.5148
31.6127
10.439
-21.0973
-27.1576
-33.5786
-41.1443
-60.0049
-71.5298
22.0246
89.0001
-25.6604
-70.0082
-27.2703
-3.91661
-1.22467
35.1065
89.8255
155.206
299.874
137.241
69.5632
83.2669
47.2864
-23.498
-80.5089
-90.1707
-68.9271
-78.7791
-107.497
-126.685
-98.2369
-81.573
-88.6476
-65.4147
-30.18
12.8309
80.3678
47.6381
-45.9521
14.0487
-64.1253
-148.664
-99.2519
-51.6227
-8.227
189.163
288.469
157.37
-4.91394
-61.6912
41.6054
67.5487
33.2916
75.8985
196.47
180.827
16.6383
-103.475
-164.879
-122.649
-60.6241
-13.4829
47.6726
44.3965
-2.89851
-91.3215
-116.042
-78.7869
-22.4293
23.665
19.0131
17.4345
-12.3413
-77.6674
-135.735
-103.299
-42.6686
-8.98044
-15.4398
1.9572
67.0345
87.6355
63.7827
97.1969
124.343
61.4274
35.0929
62.2228
95.7281
143.505
151.498
96.6922
18.7076
-64.6276
-131.45
-145.634
-112.4
-101.264
-88.5871
-69.3827
-79.2016
-89.1453
-133.679
-107.452
-12.6925
4.50863
-22.6346
-5.31033
2.50249
-30.4931
-43.0986
14.8706
76.4141
149.217
130.139
85.3593
69.8455
72.7115
67.5218
86.9566
114.274
100.003
82.434
35.9405
5.19491
-27.3498
-47.7071
-36.5589
-47.5835
-84.8057
-43.6493
-16.4479
-56.6419
-101.338
-98.1796
-59.3865
-43.765
-60.521
-78.4626
-59.4215
-11.4546
33.3935
58.5198
67.7707
81.7402
31.2743
-43.5878
-72.4108
-63.182
-39.9869
-41.1114
1.74519
43.6164
31.4384
30.5041
37.0483
61.8879
79.8231
72.6973
34.9261
-64.3534
-85.1127
-11.5386
128.496
61.3621
-46.8882
5.89257
33.5518
53.8662
101.784
111.063
56.2382
67.6047
105.152
145.099
40.4961
-55.8012
-98.9113
-123.968
-98.1368
-42.9321
-56.5522
-137.021
-235.624
-210.975
-131.066
-104.775
-69.1162
-67.8336
-95.9876
-60.8155
-16.597
34.7261
-29.7463
-87.2728
1.8652
112.6
84.3221
122.671
203.275
319.523
360.827
194.972
72.2182
-27.8903
-53.5344
-10.6403
-8.21527
19.1673
73.2508
34.707
-2.4732
-70.9897
-96.2167
-94.6278
-74.7798
-72.2033
-41.7117
-49.8638
-82.1145
-105.729
-92.6853
-22.6278
-24.8689
23.1281
107.149
129.859
170.446
116.058
-12.2789
-115.707
-134.021
-88.6375
-25.0951
-12.8765
-16.7256
-21.8976
24.8052
31.0957
-21.1563
-98.2534
-146.137
-101.653
-30.0889
61.1816
97.5319
57.7381
33.1598
34.0511
19.0866
11.6466
15.4475
30.5792
97.0377
126.634
96.9643
29.6944
-54.5906
-84.1159
-36.3397
125.387
66.8322
-72.4768
-33.4703
-1.27926
-19.0037
-17.3637
-13.4886
36.5318
102.271
87.6406
14.6241
-32.5992
-102.871
-123.821
-109.738
-82.1986
-31.2916
12.6297
18.0332
-85.884
25.4694
85.2433
-8.81498
-30.2968
-4.25929
-5.27198
-25.7551
-71.4795
-128.767
-124.412
-63.3271
3.93632
68.9237
123.978
178.002
169.556
134.293
57.0524
89.2634
118.02
19.9374
29.3007
28.3215
-13.4492
-52.9808
-83.4677
-114.542
-122.897
-98.4035
-32.4654
-10.6129
-61.0272
-64.4379
-19.4357
-37.8316
-41.3502
-4.88275
49.5616
78.8094
43.2134
64.3638
97.8107
48.403
-3.67975
-2.03774
-11.2862
-7.57929
-13.426
-26.8308
-25.4658
-27.2238
-28.2833
0.805551
13.0429
45.0146
64.057
54.7703
3.84846
-100.229
-141.747
-91.3025
-46.4776
-15.8924
35.3759
88.0419
91.1829
64.5607
55.2138
42.8059
36.0915
24.244
11.0635
-8.90233
-63.9848
-90.3793
-63.4958
-49.6715
-19.6948
45.4449
37.3198
20.6353
-5.74656
-4.22398
1.12519
-28.0416
-35.6604
-10.993
9.25695
-13.0946
-22.2404
-1.36596
86.3879
105.535
14.9145
-50.1622
-72.5061
-74.9953
14.876
99.2577
107.743
20.1936
-54.152
-63.1989
-40.7744
87.9851
168.442
-21.5716
-37.6469
-27.3119
-57.0688
-38.6394
-72.2857
-76.7092
49.3821
48.3325
13.7111
30.6019
20.8499
-46.2285
-114.237
-73.9846
57.6433
79.7605
-20.3776
-135.784
-105.157
84.552
79.5251
0.942036
-58.6994
-31.1808
5.67691
9.79496
-26.0191
-43.3304
-15.6724
49.478
66.7092
79.9515
158.527
154.416
42.8202
-9.66255
27.0035
26.4883
-12.9959
11.3229
60.7838
66.8194
48.46
-26.4755
-76.489
-100.703
-135.83
-99.1901
-48.2444
-63.3175
-83.3691
-81.1068
-50.3527
7.72316
58.3268
35.1029
-22.9255
-57.7173
-76.6745
-38.2064
11.2784
52.8526
60.1988
6.4681
-23.1745
3.02109
63.2684
128.965
149.94
98.6511
45.7389
86.8492
103.859
50.4698
2.70781
-30.4252
-15.0449
-8.50204
-57.4407
-141.642
-212.022
-170.013
-46.3163
-76.3764
-85.3749
-30.7648
27.2876
49.68
45.0922
66.7246
31.4433
-38.7723
-34.2897
35.5943
58.789
91.5328
101.806
49.1836
21.2891
55.4959
60.6429
50.4286
55.3889
71.1411
34.3428
-21.7678
-66.0475
-85.4814
-158.456
-175.604
-116.388
62.6938
127.776
-65.2457
-84.3696
-42.0755
-41.9267
15.4779
85.3218
15.6312
-16.9015
-24.8497
-30.3051
35.9699
77.8865
48.9755
33.1581
52.931
93.072
42.236
-87.5734
-218.622
-125.767
108.109
158.314
196.039
171.619
79.6867
-13.0958
-39.5456
-21.7685
-53.3098
-104.909
-93.3393
-76.5885
-52.0628
-25.2195
-61.2248
-61.2466
-37.6241
-10.8422
-32.4677
-118.045
-130.312
-124.345
-122.417
-76.1991
1.75438
60.4908
139.449
203.341
218.409
185.441
168.537
146.545
105.782
74.4757
64.4751
53.7772
9.86507
-16.302
-48.029
-105.921
-116.667
-78.3795
-54.3769
-37.9216
-51.8987
-98.0419
-102.42
-104.048
-81.6685
-70.1021
-86.1657
-90.1502
-75.8737
-66.5432
-12.8528
52.7872
150.748
202.748
192.525
148.265
91.1508
41.3857
0.0710266
-29.0152
-44.7115
-45.3185
-28.1886
36.5623
96.7236
94.4494
30.2454
-4.64555
-11.4609
-36.002
-58.4666
-83.5478
-96.8235
-64.8061
-43.362
-52.0123
-31.5654
27.6484
65.477
42.089
32.1177
33.8616
12.7702
-53.36
-73.9017
-2.64604
-15.9456
-77.1973
-59.7263
-31.1789
-35.8572
-13.7694
27.466
43.6924
45.3068
73.5753
123.815
77.63
-19.8503
-62.7415
-53.0126
-19.0297
-7.58217
-3.5909
-2.28201
-46.819
-10.8776
25.9504
30.721
48.7625
41.5123
31.448
22.3471
18.3501
5.5881
-18.8071
-46.8271
-18.8136
28.553
35.7805
8.16915
-7.52976
-1.22573
26.6341
26.0035
-24.8403
-42.1034
-26.651
-11.4364
10.0618
36.7129
79.439
84.5376
68.3279
25.1583
-32.8302
-90.4315
-79.9322
-41.4055
-10.9341
-7.36369
-49.7091
-77.1732
-93.21
-76.1822
-28.5599
13.0779
33.4082
26.6768
5.50392
-41.8345
-96.5951
-101.272
-68.8019
14.1117
80.6603
104.8
112.442
86.6759
56.8722
29.9837
27.7793
41.9637
32.3803
-20.4235
27.1683
86.1026
33.849
-12.7725
7.69301
55.8308
105.668
92.8343
55.1971
8.36896
-1.23969
-29.0796
-93.5428
-93.0244
-92.0779
-123.866
-127.283
-127.806
-113.938
-81.4212
-76.9417
-98.7642
-63.8555
-43.1598
-32.5318
-9.85218
7.67649
45.5198
63.5448
74.4779
73.2522
85.7994
89.1974
98.8816
116.433
149.535
161.975
172.37
150.612
123.646
-5.18505
-76.525
-64.0607
-54.4106
-74.1059
-92.2438
-110.191
-100.927
-110.219
-145.183
-103.302
-39.7952
2.655
8.07015
31.7698
47.2046
21.5792
-21.7039
-25.606
-13.3602
-3.99159
18.508
37.6655
52.3477
80.7041
71.6648
45.8574
12.5415
-27.101
-32.3922
-24.0723
-11.1552
-13.8994
-30.0771
-49.0448
-69.0696
-65.0667
-35.725
-2.38611
4.73213
60.9579
101.053
109.983
95.901
51.0626
69.6772
41.33
-30.867
-72.9348
-106.526
-137.292
-114.181
-60.5989
-28.7108
-7.21372
100.85
215.714
162.056
46.3531
-30.3991
-63.2115
-73.298
-76.9211
-90.1376
-92.6756
-105.091
-122.317
-122.506
-56.2097
72.1431
189.338
238.158
168.024
69.9599
1.34906
-76.0138
-115.368
-81.9142
36.1346
90.1643
120.28
118.488
55.3228
0.387904
-2.53402
30.7941
45.6696
48.3086
19.9056
-133.1
-188.005
-180.129
-114.906
-33.4934
35.0645
52.9297
1.23687
-51.8554
-112.65
-106.789
-99.1349
-79.1173
-35.687
17.9492
36.8481
34.7571
89.8893
141.67
99.7343
70.0826
76.9958
63.2233
102.184
127.242
124.012
162.166
115.329
37.2431
-20.7013
-56.1302
-106.947
-143.918
-148.094
-142.283
-131.659
-79.9935
-37.9382
-38.9009
2.90504
45.2594
33.5567
-6.29073
-51.6574
-65.5248
-67.5282
-70.6125
-40.0066
1.84123
17.7388
24.4335
23.8105
55.1195
64.6707
93.0621
134.02
67.1221
-9.91816
-2.24541
25.4422
52.2269
24.8331
-13.4945
-15.0181
-12.2944
-36.2574
-28.0814
41.9521
65.907
41.538
45.6504
36.9253
-26.7871
-73.2563
-82.8336
-60.1679
-49.7122
-80.3306
-90.8188
-30.9683
6.96416
36.0948
55.6767
57.4755
36.2783
10.621
-49.1038
-105.269
-73.7989
-8.12522
-10.9535
-49.9776
-39.0344
-6.40959
21.7319
23.1362
29.5488
132.701
315.617
267.375
134.526
47.881
4.09452
12.4038
22.5172
-42.5098
-146.183
-155.604
-125.219
-106.211
-83.8742
-56.9142
-45.3374
-41.9606
-34.9501
-55.8516
-66.5691
-91.2122
-174.869
-150.465
-42.6585
56.6693
116.286
79.8736
28.902
60.5344
113.159
122.736
109.607
93.6898
97.4621
96.191
71.2309
73.8303
83.2389
40.1996
-15.2136
-80.396
-136.937
-113.864
-75.1872
-47.6329
-33.7867
-15.819
-12.4425
-0.119406
-13.6162
-17.2032
-35.0085
-15.121
54.0717
61.5425
48.18
41.7869
34.34
35.2853
69.9234
44.9312
-17.0799
-47.6237
-33.0396
-70.8245
-80.24
-25.5439
4.0449
-38.0763
-65.4133
-64.3159
-35.6325
-15.3347
-17.1875
-12.1967
-9.26371
11.0986
11.6377
-4.26237
-25.0094
0.0328842
35.377
58.897
88.2196
134.424
110.351
-0.709262
-32.1342
-23.8616
-12.4017
-9.29151
-13.5414
-9.29811
-13.5032
-12.3794
2.08645
15.4968
19.85
41.3511
16.1972
-46.789
-40.897
-49.6255
-46.7535
-27.7962
-62.7201
-6.69729
41.167
78.6611
48.3343
-14.9935
-45.5561
-52.7938
-57.4386
-18.716
-0.651073
38.5356
58.8935
34.0179
27.7136
72.3271
134.348
91.062
43.1836
81.2316
82.58
15.1863
-83.5435
-118.994
-94.691
-70.7764
-58.8498
-74.0877
-81.4545
-81.68
-53.62
-61.0602
-86.1681
-62.6551
-10.0041
8.42559
-44.2374
-46.407
-48.3994
-79.5796
-34.9422
37.6762
125.284
170.203
199.13
228.874
237.559
173.391
128.487
81.6058
7.61187
-70.4093
-129.666
-131.987
-100.375
-73.7094
-52.4323
-17.8693
-24.7868
-59.6099
-19.0211
-18.8524
-34.0864
-43.6836
-40.4212
-27.6515
-36.0316
-36.392
-48.9583
-60.1725
-14.4572
72.2605
109.353
70.3008
43.7373
33.384
8.11093
-27.1833
-38.9332
-33.9172
-3.86224
36.9623
71.5015
115.41
96.5019
-9.60689
-77.3221
-70.5988
-60.759
-22.9041
8.51879
27.0541
17.6399
7.17537
-10.7669
4.21505
30.2908
3.04322
-25.4214
-32.3406
-33.2324
-46.9413
-45.0781
-53.7789
-47.2365
1.34585
29.241
22.7026
31.9266
37.0162
-5.25797
-70.5476
-68.0038
-12.4274
31.9426
43.9082
54.547
103.281
95.9888
46.1979
-5.46583
-0.429785
28.9222
-14.1975
-30.1585
14.7662
81.6706
109.222
83.2854
68.9805
20.0415
-73.8131
-137.467
-140.214
-141.264
-138.433
-113.315
-60.908
-13.4394
30.4407
70.6863
71.2447
29.366
-5.62576
-35.321
-51.0653
-53.5366
6.61234
95.7625
120.397
65.3487
31.2393
17.8749
13.2911
13.885
15.2811
2.25387
-31.0509
-41.2697
-16.4051
-4.73993
-36.8465
-52.5026
-23.1176
-26.5701
33.4804
30.6062
-28.8531
-44.3904
-39.8623
-0.614867
35.7169
56.2002
62.8317
90.3672
98.3283
69.8636
54.9938
29.9289
-21.1633
-46.3811
-62.372
-69.2235
-50.3492
-29.9172
-56.0774
-52.4234
-33.6277
-38.286
-27.7093
22.0073
84.7189
78.0104
56.6961
54.2446
-44.5368
-135.605
-125.731
-85.7435
-55.1738
-1.19042
78.2034
142.888
188.527
205.624
158.404
88.6014
-23.8535
-90.8099
-122.818
-151.652
-160.001
-130.953
-114.522
-141.615
-113.052
-48.0869
21.3578
78.9128
113.948
140.881
87.9418
31.9277
-11.3206
-63.5416
-96.5698
-50.1274
25.6684
50.1081
79.4001
70.4183
65.4558
67.9312
68.1603
45.1062
62.2742
80.8699
68.2465
34.8957
-13.9122
-52.9046
-30.4712
-22.4004
-57.0709
-77.7352
-67.7015
-39.8829
2.32302
28.4786
20.7508
35.5587
15.0535
-38.5284
-67.3008
-41.3881
-7.38858
33.904
3.64094
-76.5209
-89.5861
-69.4849
-58.9755
-49.2343
-32.7458
-12.3809
-1.86405
-10.5923
-12.5071
-3.71861
-10.9324
-39.4102
-39.6401
12.2314
66.3519
127.282
170.963
168.161
192.854
234.285
196.444
130.772
14.1374
-100.267
-149.309
-121.588
-109.203
-78.6954
-35.2555
-102.607
-133.539
-117.724
-110.055
-97.5869
-85.0939
-83.1327
-80.8779
-62.937
-53.6002
-43.2195
-20.5802
20.8548
123.081
162.454
160.628
165.566
198.832
167.339
62.3407
42.5704
49.2846
31.8081
28.221
19.7436
-10.6674
-34.3798
-36.6445
-50.59
-52.5193
-37.1747
-40.6081
-77.4164
-95.2972
-67.7853
-39.8895
-43.4202
-83.6228
-103.353
-71.3609
-19.2915
20.3324
48.3673
86.2751
99.2293
103.006
102.888
24.2467
-46.4481
-93.9869
-137.843
-145.089
-82.9305
37.0577
160.918
173.09
112.076
68.1335
29.5731
-19.6077
-24.5356
6.93743
-13.7626
-42.5668
-55.0848
-66.9903
-88.6197
-50.1294
-20.9008
7.10765
37.4738
64.8273
77.3722
36.2335
-12.2123
-18.2916
-0.531942
-3.11216
-11.6969
-3.23238
4.65724
-25.8961
-15.4086
12.9129
19.4097
9.19752
7.21747
1.81834
9.16371
-2.47281
8.28265
11.974
-11.4095
-3.92359
-7.34504
-18.5695
-4.7459
21.6565
87.2128
198.387
251.951
208.378
100.769
-43.1833
-162.429
-218.512
-191.739
-171.467
-177.655
-140.969
-115.272
-106.468
-71.7134
-24.3341
-56.7529
-32.5538
7.21563
24.1485
95.9859
23.9723
-85.2043
-91.1452
-8.83419
60.6565
129.435
168.284
142.94
144.129
148.865
131.7
100.795
83.8445
69.0912
9.46793
4.23006
32.7886
20.2829
-30.662
-105.653
-108.897
-64.334
-28.7921
5.89602
27.8057
5.95615
-19.3983
-31.64
-24.5115
-4.91772
-0.433616
-4.01544
-25.9362
-77.392
-120.261
-71.374
-24.3298
-24.5338
6.06874
-14.1239
-61.7771
-67.7889
-25.4311
20.695
99.0353
111.577
29.7378
-44.6441
-63.2202
-68.1531
-61.3662
-38.367
9.18095
75.9166
101.003
78.1608
52.9004
68.8913
21.0482
19.2626
101.115
140.354
82.1738
-34.77
-90.3242
-96.863
-72.9818
-37.2214
6.84974
1.30972
-43.507
-30.5413
-30.306
-48.1158
9.27069
57.5266
49.6602
9.39654
-5.93602
-16.7531
-32.7579
-70.539
-96.9824
-101.101
-133.198
-121.827
-20.5688
73.4141
171.827
228.273
165.003
69.6413
7.33991
5.97402
6.79034
3.97599
-4.46051
-18.6063
-12.7447
-8.60464
-9.14878
-15.2286
-4.15938
55.9281
11.2788
-22.9469
-8.82231
-2.61564
-37.2491
-68.9203
-27.5756
9.33814
2.49136
-30.6624
-88.7869
-145.226
-92.0569
22.6345
131.823
188.673
114.195
49.0745
22.3869
-2.61901
13.3181
16.8926
-29.8989
-94.915
-142.793
-126.142
-52.6577
7.18494
18.2957
19.0703
45.5024
82.1534
67.1725
20.6808
-26.8829
-49.0862
-20.7692
-15.0939
-11.6344
-16.2514
37.0664
81.2481
28.5891
-32.3955
-38.4917
-23.6579
-22.5393
-26.3133
-21.4043
-23.8272
-17.6296
8.03998
12.4563
19.594
26.4078
25.1124
54.2799
41.1087
44.3447
59.5669
6.21577
-52.7769
-58.3482
-4.69416
44.2173
60.3792
52.3588
20.8987
15.5366
47.2149
79.7783
67.5758
26.3564
-10.0383
-43.5832
-77.9407
-110.29
-106.745
-116.348
-134.859
-126.02
-94.3443
-50.1848
18.8647
85.4805
51.1045
-2.85825
-15.6433
-8.86682
-22.68
-31.7824
-5.66215
43.3671
84.0314
85.8894
66.9841
70.9453
71.4358
81.2828
60.9762
13.9933
-15.3177
-3.22249
38.0497
-14.4461
-39.5317
37.8471
111.179
109.167
19.2763
-41.4369
-53.5304
-51.914
-76.1886
-122.277
-130.16
-132.341
-114.001
-68.2813
-17.9625
27.6501
70.4527
88.6678
66.7232
42.6345
25.6907
-28.8464
-11.6618
15.5909
27.3247
55.5244
48.3771
-3.48578
-44.3002
-38.1182
-35.0107
-38.7415
-31.744
-29.9644
-4.51464
33.5774
55.4508
47.6174
-5.95089
8.16588
50.079
21.754
-32.1356
-33.2756
4.31113
6.51763
-15.0101
-18.1937
-20.2124
-8.88586
0.93284
25.4843
50.7716
60.6725
68.162
40.3157
11.5053
-2.45621
-17.9908
-33.5625
-56.9814
-67.4366
-74.6221
-66.3294
-49.3087
-27.0768
-24.4883
-33.9914
16.3996
52.0833
62.3758
123.253
125.679
70.8602
22.3728
-37.8794
-59.5087
-49.577
30.0284
49.4689
42.6327
107.202
9.35352
-56.0519
-89.7353
-96.3283
-68.2918
-38.8902
-33.823
3.94928
20.2669
1.51788
82.1698
134.216
61.5334
-14.3415
-59.8413
-87.616
-134.684
-166.073
-172.201
-138.343
-39.4598
28.5362
83.1865
113.703
103.533
85.8833
69.5527
55.5076
18.2144
-30.6357
-85.3823
-98.1528
-59.1681
-19.3261
14.0685
59.1444
83.5979
106.977
119.269
52.334
44.216
28.8879
8.64482
32.7973
50.3522
47.1902
41.3274
18.8312
32.8329
68.0958
78.5236
16.1034
-15.4775
-41.1142
-46.54
-17.7754
-31.9558
-49.4557
-63.9249
-104.635
-131.092
-138.989
-150.969
-184.912
-190.556
-84.6661
59.5425
130.177
170.225
129.064
35.5297
-20.2263
-47.0476
-43.4437
-52.7811
-74.4327
-66.1761
-38.5382
22.0867
85.4597
125.023
129.945
120.395
113.987
104.271
61.0637
-25.9565
-83.481
-135.072
-160.402
-125.285
-49.3504
34.8553
69.381
78.8808
106.531
39.3022
8.39266
-21.6903
2.31675
113.864
179.381
127.758
81.7941
64.4274
72.0521
54.8649
-32.4922
-104.092
-116.996
-119.629
-103.181
-119.373
-120.396
-102.236
-122.259
-91.1539
-54.889
-12.8158
25.8393
47.4986
43.1987
78.8061
59.8626
64.1495
47.2485
-14.874
-42.6422
-42.1386
-29.7944
-36.957
-42.3725
7.23265
50.4157
41.4237
20.8912
23.2801
21.9023
32.6823
13.941
-51.8865
-89.7208
-66.5122
12.8699
72.4442
92.5724
85.3245
90.6693
70.6697
21.3767
9.29869
2.99098
-12.2766
-18.6923
2.43621
22.4615
29.5499
-25.8577
-67.0749
-41.1492
-12.7495
67.7111
107.678
38.7563
-22.9313
-106.121
-138.925
-132.652
-110.338
-77.8359
-54.5758
-10.6186
15.2038
2.88886
-23.2629
-14.9617
-29.6044
-5.8866
38.0863
41.2903
35.0081
61.0991
115.755
125.587
68.1034
26.0387
33.3976
36.1551
27.9649
31.4491
19.2594
3.63808
-40.3842
-44.8501
-2.88393
19.0819
19.52
-6.94758
-4.05225
-8.84818
1.8481
-35.1172
-157.622
-156.738
-87.9942
-33.1352
-5.30056
8.67261
29.7428
49.2016
52.2011
42.9072
74.6932
88.7955
51.1352
-1.11793
-18.2228
7.9901
10.6355
-17.44
-74.7326
-140.75
-161.522
-128.213
-45.9013
53.0111
147.543
169.329
111.489
54.038
21.2605
-11.9876
-40.1181
-19.5146
25.0161
61.1987
77.5451
78.0956
117.886
54.4241
-40.1962
-100.556
-105.974
-100.745
-106.038
-112.324
-122.862
-101.857
-63.4824
14.9181
95.4912
98.3663
96.8139
70.4931
-34.0039
-106.888
-104.186
-69.9262
-21.775
60.7182
88.7614
113.328
121.802
100.958
109.228
110.082
-0.360658
-94.8325
-106.787
-63.9284
-2.36129
-13.8811
-25.93
-22.701
-3.63188
81.8942
79.0376
30.6588
-11.8745
-30.7218
-25.9597
-37.5144
-37.7796
-40.0778
-66.1592
-81.4181
-50.2808
-17.5027
-12.4062
-48.6944
-67.2594
36.397
120.063
95.3315
47.4618
-7.39516
-14.3651
21.7472
40.8536
13.6536
-22.3539
-11.9783
14.8511
26.3359
20.1285
7.25025
21.6656
40.0576
38.3202
20.4398
-21.2005
-66.1601
-113.283
-99.212
-42.831
-25.0879
6.90797
47.2257
8.63987
-13.9095
16.6501
33.2504
36.8599
50.1135
62.8517
62.4921
59.4035
54.117
43.0483
20.9692
-29.4318
-66.0658
-50.047
-26.6621
-27.5126
-54.9357
-93.8599
-148.656
-131.762
-36.008
84.601
146.664
105.161
33.2565
-26.8393
-47.2914
-24.1432
-5.02435
-17.4488
-39.2643
-13.317
60.9359
141.812
130.252
75.5373
31.5492
-2.9248
-11.8986
-31.1574
-61.6728
-96.5732
-121.698
-110.834
-73.3164
-27.0897
-6.20773
4.02113
22.9531
46.4434
49.205
45.8645
5.75325
-34.2227
-23.8739
-14.6482
6.54095
48.2913
63.2599
49.2223
28.6541
-26.1659
-84.5558
-100.874
-52.1182
21.1308
75.8459
122.438
175.254
189.888
137.336
70.6071
16.5658
-15.4722
-23.7239
-34.5599
-29.377
-70.276
-112.9
-112.528
-83.6794
-42.0883
-45.8485
-74.3877
-99.1065
-55.2614
42.539
5.74379
-70.1637
-72.7964
-24.1314
15.1492
-4.85129
-34.2609
-52.0749
-48.13
-26.8273
7.65969
61.2391
103.543
71.4449
51.891
86.5837
109.755
56.8982
41.2317
45.2843
137.694
129.253
20.3512
-56.6912
-71.4871
-72.8916
-68.12
-37.8918
-22.6125
-46.703
-27.4204
-2.33169
7.06906
8.60719
-13.2389
-22.2588
20.4202
78.2876
75.7967
7.26644
-55.3663
-51.014
-26.5051
-4.68247
-16.2526
-17.421
-18.0251
-10.7634
-5.19673
-49.2313
-92.0771
-84.9167
-45.7586
15.1783
64.7455
83.6244
61.5287
5.78123
-34.5534
-43.773
-31.2536
18.1482
41.6012
23.2032
21.2533
31.0889
23.4672
11.8994
-13.8666
-44.0375
-51.9661
5.68948
49.5307
132.459
139.602
75.8667
34.3332
24.4424
26.0401
-50.9364
-96.8115
-90.7295
-65.3543
-12.8157
26.7456
49.9506
31.714
-10.8994
-27.1092
-18.1053
-30.4059
-95.953
-130.872
-165.773
-187.198
-123.924
-28.9858
97.9299
175.624
219.373
152.099
86.652
30.7751
-30.9658
-79.4122
-94.8843
-64.5683
-9.96985
15.9145
48.7764
75.7441
62.258
49.1476
56.2947
95.5477
85.8907
32.0045
-28.7788
-83.7357
-90.0226
-35.9894
-45.4071
-50.4795
-42.9984
-39.5443
-41.1079
-49.6206
-42.1631
-12.6828
26.5413
106.372
93.9517
19.3503
18.8941
67.6369
109.511
47.6682
-56.1818
-101.145
-95.194
-77.8733
-60.8138
-29.8066
-23.0093
0.140006
-16.9823
-38.3712
-14.2981
6.12784
36.7952
63.1924
106.691
118.011
44.2071
-75.4589
-76.3235
-26.8098
-26.6301
2.96357
42.9333
57.5755
52.3248
50.0215
63.2171
89.3398
116.61
75.6253
-0.141227
-44.8141
-96.1119
-165.211
-204.743
-204.203
-194.103
-152.888
-88.8011
3.83392
96.8904
122.703
121.834
95.1814
93.279
81.2463
45.5297
-1.54968
-18.0601
-4.81916
-25.5579
-24.8964
-8.93195
53.8983
137.849
98.0438
46.8799
71.689
77.0254
-8.47905
-86.3606
-116.195
-84.4392
-28.6274
-3.44048
13.587
18.2032
-4.73602
-21.7654
33.2176
68.6298
19.5337
-28.3464
-93.5114
-171.921
-130.405
-37.506
-26.0424
-63.4501
-6.29404
72.0827
84.1381
54.0063
39.8093
46.6754
18.6678
-5.58803
28.9475
9.65047
3.01111
46.8217
45.1632
31.7078
7.67537
-5.68614
3.56098
7.57767
-6.97863
-30.5571
0.271963
-28.5494
-69.7834
-71.2461
-75.7376
-83.7289
-61.7385
-9.91376
14.689
72.718
85.2472
50.6264
58.3024
50.8026
32.473
17.6254
0.166938
-6.52319
-0.697253
10.6206
10.8845
10.9865
7.57045
4.3567
-12.489
-27.509
-53.2413
-74.2695
-52.6787
22.4974
64.7946
67.3318
47.5792
52.1601
88.4583
88.0395
61.4775
24.9798
0.0194766
-49.4272
-133.131
-146.165
-116.006
-123.418
-80.1158
-2.64314
2.19732
4.97312
-0.26167
-3.03752
-5.48692
12.1914
10.3548
-14.9155
-51.4669
-56.7132
-25.4287
-6.45162
10.7824
26.7563
63.7667
92.5653
89.031
92.9894
75.7206
40.7586
53.0206
42.4331
10.3631
-29.2481
-61.4198
-57.6009
-24.7357
-11.9676
-2.68606
24.1057
102.254
133.663
117.681
108.336
89.7593
21.0492
-100.103
-123.218
-136.065
-127.38
-81.2367
-55.0065
-63.7536
-93.1387
-92.0311
-64.9978
-0.577666
12.1517
-10.2989
-1.47489
9.82486
0.105559
-35.8745
-37.611
4.48037
55.3159
87.2946
69.0744
52.4442
4.15915
-35.9549
-31.7762
-3.70069
14.1929
39.7005
88.0396
107.891
91.16
78.0995
88.7915
-7.02058
-82.0908
-75.2476
-62.7771
-55.9023
-22.596
-1.39952
12.8237
23
45.9243
56.6694
25.4236
3.77672
-21.7002
-48.8862
-45.8323
-11.9609
10.0941
-11.5557
-83.7543
-89.7304
-13.7952
-26.7238
-61.8121
-49.2666
-50.9732
-0.285867
79.7911
151.001
179.631
121.952
42.025
-9.7824
-23.3563
-60.3708
-96.4231
-113.357
-113.155
-106.314
-127.964
-119.461
-90.1724
29.6904
157.483
140.319
175.357
165.758
80.88
0.377373
-24.8253
-11.4632
-6.68538
-31.5757
-49.113
-25.9799
14.0023
33.9985
67.6933
97.1634
103.922
119.409
82.2001
-10.7384
-82.907
-80.0183
-136.322
-150.87
-108.686
-63.2379
-62.0641
-36.0483
6.02456
21.0555
34.9829
46.2499
29.3984
-11.8458
-62.508
-43.8613
-10.8316
-46.0185
-56.9687
-26.7965
-29.498
-46.9158
-34.8461
5.63898
69.2566
139.059
210.084
258.677
198.177
128.308
75.7112
1.07418
-69.2126
-100.961
-133.126
-165.177
-174.39
-125.698
-65.8369
-16.4476
50.7842
113.849
52.5487
-44.8453
-98.5292
-120.502
-97.671
-63.4491
-31.2316
-3.50356
45.0857
93.7828
116.094
103.164
94.6244
99.4511
39.4449
15.6159
-33.39
-57.4758
-44.2394
-36.0174
-10.1297
52.0935
133.317
162.138
73.6303
6.47348
56.2128
-4.54663
-77.3468
-119.747
-136.85
-107.34
-71.5642
-74.1483
-59.0645
-54.675
-42.458
-15.541
-7.19505
68.4422
130.618
160.952
136.656
-22.3871
-145.089
-167.776
-145.525
-76.3303
-13.7341
26.9644
66.02
108.519
123.78
82.3124
83.4115
60.6746
28.6669
21.5635
29.5598
-1.42534
1.39402
-10.3567
-164.131
-230.903
-127.546
-23.2341
53.4112
113.842
122.929
115.075
60.4004
12.5506
-22.2062
-6.7975
36.0798
67.1741
43.6811
0.294831
-99.4801
-175.149
-175.595
-170.186
-96.0725
17.6058
95.0039
88.9173
33.6158
15.0245
24.5042
48.7183
43.3653
-19.1443
-7.80243
74.9585
101.521
69.3828
61.5931
69.8943
54.1967
-12.2074
-65.0203
-94.4932
-57.8076
-32.1005
-52.702
-55.9504
-63.3362
-72.4838
-68.5245
-71.7503
-60.8664
1.84072
41.4145
28.6851
7.21635
14.8935
61.9612
96.8455
131.349
124.045
81.0018
18.6069
13.9299
33.0288
18.1656
-30.1177
-64.0663
-37.0025
-5.97202
-8.6298
-26.2632
-38.7837
-58.3172
-71.0869
-41.284
-13.2618
-32.1428
-82.378
-97.32
-61.5914
-7.58039
42.3935
77.3978
112.004
146.623
162.399
140.405
122.746
-0.663162
-105.301
-97.1739
-60.4226
-60.4787
-88.7486
-112.146
-98.0929
-57.5246
9.28934
82.0214
106.165
47.4634
-19.8004
-65.4874
-91.7211
-108.229
-54.1836
24.439
76.0776
137.846
46.399
-6.9063
-1.1289
5.3296
13.4755
33.5898
29.1488
-20.9475
-17.2854
-4.82824
54.3726
78.4824
41.1292
32.5549
42.5041
30.2244
-15.2381
-70.1446
-119.252
-120.504
-30.9191
17.4415
36.8131
30.4852
8.84255
-27.4046
-59.4167
-4.46632
22.5554
-46.7481
-70.0666
-19.0066
41.0684
59.0532
85.8384
98.1794
78.9153
56.265
-15.9042
-31.5853
9.42383
27.4362
14.766
-12.8984
-25.1728
-31.2608
-30.2763
12.1943
-16.1015
-79.0832
-132.846
-121.321
-62.752
15.0638
47.7258
65.1257
80.6164
55.7168
93.1915
56.4115
-49.2109
-77.7602
-26.4908
27.5242
-5.98274
-47.452
-56.9297
-70.1208
-45.9498
15.0967
59.2765
66.1947
36.7936
-30.6714
-66.667
-54.3242
-45.111
-20.0947
-30.6793
-1.82499
63.1034
100.28
102.085
46.0429
11.8506
10.6346
7.72408
-0.254154
2.78827
21.936
37.3526
48.9777
59.334
53.7398
36.4956
15.3905
-0.732968
-2.10803
-9.27721
-23.2535
1.52857
-15.7848
-91.1107
-74.0556
-53.2419
-43.9763
-32.9133
-30.9313
-18.5803
-20.3722
-44.3507
-28.9668
-1.12721
-0.963007
-12.6273
-7.58064
18.2096
32.445
28.1029
9.8703
-33.6099
-61.4178
-42.9717
21.0762
101.583
61.5505
-13.3688
-48.6533
-46.6799
-32.5994
18.4146
110.336
121.662
117.63
106.698
9.28052
-2.6797
24.8985
-18.8187
-59.9397
-56.4318
-49.2419
-53.6526
-96.9808
-146.392
-117.152
-74.6866
-48.1681
36.027
136.889
176.231
107.142
59.9779
43.7532
46.2761
16.5733
-54.1705
-91.9299
-76.9179
-43.4529
-5.18341
7.80544
25.9445
30.6572
7.9292
0.121797
-6.25063
-7.14857
-36.935
-54.3786
-39.9893
-10.6467
-4.05245
-13.712
-10.518
-3.66809
-20.7778
-28.7823
-15.9559
28.1737
101.696
166.561
128.841
67.3813
22.741
6.49242
37.7
36.0066
34.8511
31.9584
-63.0137
-107.748
-112.283
-137.976
-151.421
-104.032
-9.25862
52.4795
80.6401
67.7582
39.2798
26.3906
11.4109
-13.9209
-18.3386
-5.15983
2.60445
2.97347
-16.327
-46.5498
-51.5364
-74.8366
-91.006
-94.7923
6.35667
83.8165
97.6956
88.1478
21.4106
5.62819
9.31106
-15.883
29.6412
115.105
142.484
68.6863
-18.6705
-5.0415
-1.84851
-36.936
-16.7789
-4.35982
-15.1025
-8.75589
-35.5408
-44.1427
-31.6569
30.1667
81.4214
97.1305
35.0022
-61.6107
-123.33
-147.246
-140.078
-58.4719
-9.4544
-41.3516
-80.5403
-76.3644
-30.4761
44.8784
108.873
87.1696
79.4629
138.183
188.203
128.969
29.7925
-66.4163
-110.91
-99.4124
-40.831
28.544
-16.2332
-36.9397
-8.99995
0.676023
28.5925
66.6455
59.4989
0.13752
-48.68
-34.015
-9.61976
-47.1645
-111.761
-118.324
-53.7568
17.1231
139.137
176.276
85.4332
-7.23086
-37.2872
-48.7986
-36.2584
-19.6384
-7.71539
-6.12105
-6.5317
43.2342
78.0227
44.4868
54.4801
62.8975
10.3319
-38.9385
-41.1141
-43.4302
-32.4054
10.6217
5.12395
-48.7891
-56.1287
-44.6544
-62.6605
-65.9878
-58.7405
-45.1547
-34.2371
-35.9493
-6.30478
49.9388
72.7899
65.8323
26.8412
-5.79941
-18.1021
-10.9142
42.4686
35.6857
52.7415
116.049
142.367
123.214
77.9326
16.4672
-26.9627
-45.0652
-45.861
-48.8195
-56.1095
-76.971
-130.351
-147.966
-121.487
-44.2283
36.3168
112.151
62.549
0.69894
-7.39253
22.5626
61.9321
19.7275
-17.9545
-4.39012
33.4906
36.7306
-27.6784
-62.6528
-57.3443
-22.6034
4.47587
10.8989
50.4674
39.8714
18.2877
-27.3249
-76.0002
-90.3092
-79.988
-86.562
-60.6053
44.0557
176.424
313.511
312.789
186.687
117.13
16.4732
-87.6639
-135.838
-173.998
-155.462
-112.38
-75.33
-55.5548
-48.9498
16.5699
50.0911
12.4217
6.31131
-11.9542
-67.2837
-123.648
-185.845
-190.809
-100.85
-51.7562
18.4748
101.901
163.952
192.186
167.09
88.9559
21.4771
-15.139
-54.7986
-34.679
95.3331
231.603
229.28
123.831
33.475
-14.7857
-77.0806
-66.157
-37.9832
-94.7615
-106.067
-88.1819
-72.6596
-77.9837
-71.798
-11.2708
35.9857
44.1826
37.7123
-20.0751
-109.045
-163.27
-147.067
-63.228
8.86066
32.8593
43.7392
34.5087
15.7252
44.1243
31.0257
38.4351
50.7646
80.0448
150.059
159.992
149.178
173.663
180.889
147.391
21.9454
-115.039
-160.037
-172.754
-126.261
-125.817
-151.187
-162.486
-111.023
-34.8022
11.8071
-12.3946
-68.1089
-83.4376
-74.1015
-39.9128
23.1508
73.0038
43.7009
-2.22961
34.5626
117.549
108.608
79.1262
51.1897
46.9341
51.0328
34.7357
31.7083
51.2768
81.7005
80.7243
0.140303
-73.0378
-79.9309
-66.2418
-69.4856
-84.1172
-37.0186
3.61108
12.8627
13.6044
17.5074
34.5448
14.8823
1.25873
-10.7917
-20.1619
-23.7524
-42.6697
-53.9118
-21.3193
36.167
32.0825
11.5291
17.9715
63.8752
65.6911
48.0632
29.5552
-29.5133
-60.2986
-65.8197
-74.9041
-30.5184
22.4269
32.6652
42.1197
50.9055
14.1659
-24.6145
-49.9108
-69.9672
-74.0849
-47.101
-39.0096
-53.3639
-46.8889
-19.8586
11.3571
98.9889
140.476
180.221
213.194
73.7213
-29.6816
-38.0141
-49.3336
-73.9454
-56.4368
-44.2993
-42.7658
-26.8911
-3.93731
25.5271
33.5359
17.4401
-12.2683
-45.0508
-75.8591
-94.6405
-100.155
-98.0204
-73.6472
-24.5865
2.35409
9.04269
-3.66634
-3.66788
24.7173
82.5463
134.697
165.822
147.115
81.392
66.1801
84.1108
96.0166
72.7804
42.2563
12.2267
-18.4724
-26.6746
-98.6771
-144.464
-133.084
-72.878
-15.3654
-49.7779
-51.4941
-54.6348
-58.9161
-45.2375
-7.81471
18.6908
19.0289
10.813
-54.8167
-94.395
-69.9622
-16.7632
-8.62687
-23.3417
20.7441
73.5336
88.4338
79.9184
113.799
150.888
116.372
62.295
14.3187
-18.6611
-24.8872
-69.1615
-102.062
-123.732
-107.807
-71.0083
-27.6678
3.78113
88.2742
181.721
210.109
190.781
108.154
14.3831
-42.1497
-50.7346
-93.693
-104.943
-104.378
-107.565
-115.566
-79.6891
-52.1356
-39.563
-12.0661
4.23519
-22.1436
-52.9174
-77.54
-100.553
-71.7937
-29.8703
31.0178
61.639
54.544
75.7441
127.195
128.652
104.042
84.9518
85.6236
94.6352
80.8708
52.8586
52.4429
67.3329
37.6153
9.66634
-37.7725
-70.7216
-85.9587
-121.465
-129.901
-91.1252
-62.706
-29.4549
26.3475
49.3347
35.534
18.1809
-15.3336
-7.64672
35.9502
32.5873
-11.1597
-39.039
-51.9054
-73.9949
-92.8911
-49.7371
-11.5953
3.03404
66.4421
-5.33959
-69.3999
-72.1574
-59.2845
34.855
83.2136
64.9027
69.9101
66.0089
29.8576
28.1959
27.3708
4.10016
0.791365
-0.447587
10.3792
-27.0223
-46.6033
-11.061
14.9843
59.8903
25.0853
-51.8054
-64.9095
-88.0025
-78.7542
23.2004
122.417
117.967
105.063
95.4394
77.1266
52.5887
21.5658
1.65174
14.6022
35.9688
-23.058
-72.4107
-121.677
-133.545
-104.151
-78.5936
-50.0819
-47.1098
-50.2922
-42.1916
-16.0293
-11.0581
-12.1033
48.4544
73.3182
42.1849
42.419
22.4552
-17.9638
-23.5266
-12.6057
-23.032
-59.7621
-61.2651
6.33481
81.5157
121.388
157.193
154.936
78.0145
-30.6264
-42.4222
-38.5781
-64.366
-86.6033
-61.1719
-41.8594
1.06575
36.5997
10.0065
8.94559
5.29274
-14.5877
-8.80465
-0.100402
29.5829
50.6985
-14.8187
-24.4228
-7.44939
-34.2013
-20.3656
-10.4053
-28.8464
-11.7163
-2.85829
-19.5735
-33.2566
-34.7183
-18.5826
26.4717
66.6092
81.7129
120.192
190.372
172.714
66.6917
-37.6017
-71.3149
-81.7448
-96.0228
-130.166
-146.719
-122.464
-64.2376
-44.4368
-24.8924
42.5331
70.4266
115.451
121.615
40.1255
-2.72826
-46.5725
-114.901
-149.385
-123.589
-53.2464
-12.5545
6.98005
39.9499
102.539
140.261
100.099
71.9125
107.586
122.198
104.419
1.51672
-91.3769
-91.2122
-55.4654
-50.2061
-63.6364
-98.8066
-94.0156
-75.1676
-54.786
-28.3701
-17.9675
-16.0836
20.347
59.5716
101.149
101.824
55.7376
81.4166
127.285
120.566
61.0072
-0.451931
-39.0979
-51.8524
-52.0607
-64.0636
-71.3633
-47.6771
-25.779
-14.4748
-5.16182
8.75821
-14.4209
-19.9506
-24.6717
-36.5292
-23.5249
-60.6697
-99.7247
-50.9701
-21.35
3.80657
21.3032
42.4109
74.2159
121.278
120.76
81.9315
39.7607
30.2785
33.0113
5.76408
-52.1436
-79.9853
-74.0701
-38.9889
-3.56809
5.36252
9.90346
20.1079
0.603492
-22.79
7.53807
13.679
-19.6619
-63.1613
-66.8986
-54.7668
-38.0273
-17.2298
7.66966
28.9008
37.2652
56.7457
95.0691
114.208
95.5559
52.0636
-19.6338
-62.2972
-62.9655
-52.3592
-38.6447
-40.5946
-39.4787
-35.2458
-13.3835
18.1662
19.7911
-8.51784
-18.9405
-14.9556
10.7906
24.8849
-15.5092
-38.0158
-20.6854
20.6953
103.937
120.023
97.5497
64.6458
27.8586
1.84853
36.6778
-9.84501
-79.1498
-160.396
-184.495
-157.744
-84.4147
34.0595
106.42
168.869
153.345
101.123
70.0963
-25.552
-154.847
-165.008
-120.02
-60.553
-23.9995
-30.7939
-27.2422
15.2083
62.9812
163.143
251.42
161.731
44.3017
-65.1189
-126.848
-160.189
-131.303
-98.4652
-100.092
-59.9429
-2.81001
40.228
60.4482
45.149
25.7665
38.3136
20.5745
21.3092
31.8039
34.9298
37.6585
93.5635
141.408
158.422
132.801
82.3538
33.0857
19.7159
-23.3383
-109.764
-147.267
-143.239
-140.276
-123.36
-91.5994
-83.8809
-79.6883
-56.9577
13.184
134.961
179.583
113.906
28.5899
-58.9912
-97.2399
-89.6735
-78.2668
-84.7143
-70.8083
-26.3387
12.4261
35.2737
64.7826
99.7902
110.283
81.775
46.4412
8.43326
-32.2866
-107.05
-125.377
-41.8279
-7.0544
11.2301
28.0796
78.7535
131.906
95.8474
46.8052
45.6749
72.8033
76.3277
47.621
54.161
95.281
31.6854
-19.8737
-76.6846
-143.727
-174.917
-194.547
-138.474
-47.4976
-5.53121
-13.4137
-86.4008
-110.745
-46.1929
31.6473
115.852
171.308
163.697
130.445
71.3527
-13.2839
-43.4618
-60.5136
-42.8504
-27.3794
-42.7129
-50.3067
-35.5105
-5.5915
24.4454
45.171
44.1849
25.2025
56.4307
93.3068
46.7118
-34.2265
-96.0151
-117.592
-122.337
-89.2394
-24.0545
21.1608
43.6675
58.3912
84.5889
76.9793
50.0112
10.636
-37.8752
-55.6439
-6.48653
21.341
-9.38604
-50.1186
-61.0221
-27.9604
-17.1766
-10.2259
22.5031
57.2017
79.2211
98.1608
112.236
113.039
87.5756
2.08177
-57.816
-72.1502
-42.6196
-34.5518
-52.5818
-56.3514
-66.3469
-75.2919
-73.3956
-70.2991
-5.56984
62.7661
81.4102
66.8066
40.2515
5.44272
-39.2582
-75.9864
-86.4926
-25.8923
8.32387
12.2308
22.6425
-6.60818
-11.2935
6.58114
52.2614
167.056
240.06
112.898
-30.4159
-93.7816
-123.021
-121.952
-91.7179
-75.0943
-56.5286
-16.108
9.59009
18.1645
12.2965
6.15534
10.0542
41.6069
88.4755
79.0406
3.50527
-83.5551
-123.943
-81.4958
-0.517425
32.5651
39.689
19.8995
17.6635
51.6807
89.3643
95.3817
69.3332
82.5013
74.4265
13.5677
-65.8469
-113.901
-125.028
-104.24
-49.6622
-10.7308
36.6399
65.941
44.0884
21.8107
-126.033
-113.7
-76.9533
-24.7367
84.5745
199.081
201.291
113.011
-35.8878
-142.965
-147.477
-87.1953
-12.2045
-1.41917
64.7101
18.5444
14.6331
-10.8089
-40.7346
23.234
31.2189
-46.1609
-73.0805
-56.7235
-77.3309
-100.893
-74.9538
-40.5094
29.0386
99.652
111.281
119.75
104.353
56.1483
16.4891
37.9504
10.2926
-4.35606
-11.043
-21.7371
-0.813643
30.8349
22.4479
61.9532
64.9595
18.3392
-41.5263
-50.739
-16.3977
-6.64205
-4.96544
-13.7499
-2.02156
60.8577
100.923
89.5866
24.9878
-46.9962
-68.662
-92.7141
-109.784
-104.908
-118.445
-126.14
-130.836
-118.989
-80.1949
-24.9883
48.7758
113.006
94.381
49.823
13.4902
-59.0209
-112.759
-49.83
73.6385
158.31
181.382
168.841
114.95
28.6637
-39.7279
-40.1976
-26.1502
34.3764
74.3435
85.968
61.642
19.9477
-5.75268
13.2685
62.9288
102.904
94.3377
3.02653
-47.4952
-78.3522
-171.483
-234.67
-227.376
-159.657
-96.3317
-55.403
-45.2587
-69.5609
-65.4827
-52.5461
-30.4936
-8.84668
32.8588
43.8122
55.6901
64.929
17.8236
17.2054
29.8475
35.9433
74.881
105.987
149.701
187.386
178.862
126.384
82.7119
25.5716
-23.5028
-7.06254
-25.7983
-2.3812
65.2768
5.4572
-66.4685
-123.737
-154.66
-135.667
-115.508
-72.1284
0.0346722
62.3076
90.6807
79.2086
67.3037
36.4021
4.94283
26.2676
64.6119
-2.35521
-53.8401
-83.4193
-119.752
-119.119
-115.895
-119.204
-110.938
-83.0263
-41.2979
-24.2521
-23.414
-19.0333
22.2004
20.2515
-34.5943
-14.4254
67.1638
127.191
76.9831
69.6788
153.102
206.514
127.246
81.9441
36.8922
-23.5193
-71.5062
-67.737
-42.3521
-24.3121
-18.6869
4.5389
44.4544
47.6436
49.3632
60.8866
43.2674
-11.1425
-10.0223
4.99595
-29.8986
-80.2879
-84.3032
-41.1657
-24.659
-16.2316
14.8713
2.56997
-28.1778
-47.9031
-69.3261
-98.1448
-114.544
-84.7057
-67.5599
-47.7599
-50.4559
-26.4354
7.0626
45.0479
72.1762
66.4394
83.8283
130.586
165.31
208.968
207.565
82.2116
2.15769
-7.05662
-22.6259
-8.92337
-1.32467
-45.9048
-79.8948
-101.857
-87.7087
-84.1578
-57.9583
-48.1529
-83.8119
-105.177
-113.121
-70.5887
2.79199
9.01948
2.13014
77.7349
149.176
93.9292
37.1426
5.53286
0.0244121
39.1947
47.3789
25.0416
4.78168
-18.6034
-50.6316
-51.7166
-31.7045
-5.97267
16.3131
7.87375
-34.3751
-47.1543
-14.5625
15.3709
2.44349
19.8173
29.2648
54.7061
83.8871
28.9884
21.709
30.0514
5.52471
-4.3612
2.6069
7.18702
14.6273
22.4557
7.70816
3.14794
-54.8876
-115.135
-93.8336
-11.5101
67.9546
77.076
56.0637
40.2574
1.54395
6.18761
-4.04669
-2.44284
-11.1491
-36.8376
-67.1442
-83.4751
-87.2166
-68.5846
-47.8831
-61.7316
-78.3019
-56.4646
-51.3703
-50.5229
-35.5049
26.1716
89.8488
50.8822
7.16658
85.7088
204.318
161.08
94.0319
80.7262
73.1355
56.8818
46.6898
35.6975
16.1774
-14.7078
20.4419
76.4455
31.6503
-73.9598
-155.183
-170
-140.144
-118.973
-95.8543
-98.2196
-119.773
-65.9177
0.391368
30.2318
47.7828
48.5507
37.9289
30.9068
32.3801
52.3834
69.3061
42.6777
33.3689
49.0293
44.8689
27.4217
19.1349
14.8361
12.4816
-0.828155
-27.9849
-11.0597
17.0369
22.8451
22.9789
16.6011
2.78889
-7.88991
-15.0428
-12.8604
-6.24213
-21.6283
-31.0282
-27.5223
-27.7356
-30.2416
-25.7472
-24.0328
-13.4798
-6.57132
-17.9603
-16.9697
-2.72754
8.07694
8.54541
2.08054
-5.2956
-8.63674
0.022076
11.2828
27.605
21.6036
11.5894
8.44734
0.239852
-8.35337
-11.6715
-8.6957
1.6504
4.84667
0.630766
12.1786
19.5486
12.1102
12.3374
13.4788
10.1483
3.14375
-0.190604
-0.0697837
1.50923
-0.969622
-0.29417
-3.29304
-3.64658
-3.02359
3.11015
7.58016
4.04394
-3.84336
-15.7557
-22.9579
-15.7851
-3.45199
-0.67413
-1.97368
-1.80084
0.181609
-2.45938
-3.89804
0.497273
5.24494
-2.3411
-7.82922
-11.4882
-11.1289
-9.62395
-12.2262
-13.9819
-12.4385
-8.62302
5.58892
20.1445
20.0464
1.13036
-1.3125
23.7594
84.1796
149.746
144.748
68.9152
-12.5035
-38.7613
-33.9054
-18.3981
14.5556
-2.07468
-45.1708
-67.926
-64.7389
-59.6302
-77.6913
-98.875
-113.486
-121.011
-106.728
-81.8434
-66.8629
-44.6777
-4.48945
56.9983
105.035
102.229
89.7203
96.3763
137.638
136.317
64.8829
11.1628
-18.4977
-26.8771
-19.5487
11.7829
64.3266
141.757
183.039
166.528
145.961
70.1184
-12.718
-128.069
-171.58
-195.414
-213.221
-227.673
-254.375
-220.155
-134.151
-68.3298
-17.5495
40.1502
118.485
207.464
187.16
93.2682
16.9273
-38.0165
-65.8269
-64.9647
-63.1154
-19.9943
-21.0609
-9.39585
48.7382
97.2981
100.783
103.618
123.905
133.183
174.235
194.75
178.868
106.102
8.53705
-66.4922
-138.069
-163.005
-169.085
-149.756
-103.151
-21.0989
19.8082
3.50532
-58.9839
-45.8922
-16.4897
-75.9438
-113.483
-104.534
-85.4658
-60.8222
-20.2577
46.7008
101.557
106.731
77.8023
46.2621
-4.06921
-42.3852
-54.3239
-44.111
-8.67401
54.6056
123.141
88.7551
33.0676
16.2629
44.2272
63.1121
25.2215
-19.791
-87.0099
-140.423
-99.3166
6.24752
64.0231
23.0574
-32.1913
-41.6879
-49.8683
-47.9485
-5.4123
66.5849
203.825
295.039
277.153
221.968
107.314
13.5982
-71.5563
-98.3135
-113.661
-210.618
-276.952
-276.745
-256.24
-170.812
-68.8748
-13.0059
53.9311
127.108
187.584
113.644
-62.22
-196.236
-222.737
-84.0989
93.1074
122.014
70.1449
-3.05761
-37.3118
10.2271
70.3047
138.757
196.972
193.472
136.17
90.4156
4.6256
-58.498
-85.8764
-56.1322
19.0923
14.3177
42.8682
95.3935
137.552
112.446
-11.7691
-102.965
-96.5526
5.07962
85.7668
39.4447
-68.7945
-15.3808
97.9171
33.7674
-68.4801
-119.332
-156.669
-202.101
-249.434
-235.148
-177.95
-173.307
-189.132
-141.305
-27.9117
62.4459
104.987
103.836
86.5187
65.1468
93.8768
42.9388
8.46117
56.1125
108.122
130.743
139.031
156.011
213.357
265.355
191.581
98.1926
-8.32749
-87.7369
-74.3344
-62.5453
-82.5538
-80.4318
-49.4081
47.2286
223.224
273.083
60.9428
-61.0811
78.7076
327.903
211.19
-106.059
-332.022
-440.293
-442.525
-388.842
-312.264
-199.096
-110.2
12.7491
57.7811
-8.33104
-36.903
-59.1775
-104.276
-128.495
-55.6336
51.4546
62.2387
-48.6517
-31.6045
77.1213
141.424
185.557
250.167
251.839
226.196
218.329
226.855
111.707
-15.8406
-35.0535
-24.8748
29.5468
121.764
164.305
139.994
87.428
-68.3677
-248.73
-224.393
-154.459
-14.4017
184.509
126.638
-41.1803
63.7157
101.78
-62.6487
-136.066
-183.616
-162.536
-66.7479
-160.396
-343.689
-355.988
-40.064
219.524
147.817
-125.353
-184.375
-58.5418
42.8933
-7.19085
-5.94447
256.727
235.231
-58.1186
-46.3707
19.8634
11.3764
-6.15297
-19.2827
81.1316
242.188
247.161
58.6211
-147.743
-143.624
60.2965
246.723
261.522
96.7704
-61.4708
-116.235
-199.993
-231.859
-111.954
-22.5678
36.1469
166.728
160.845
-128.678
-304.544
-222.99
-58.1367
-150.282
-304.067
58.9219
731.483
830.619
431.999
126.383
142.658
20.9101
-449.635
-685.524
-669.223
-432.569
132.043
275.36
12.8951
93.5226
144.679
56.0039
41.8242
247.489
334.607
-175.696
-493.654
-397.53
-285.495
-321.491
-307.723
198.531
659.409
364.103
271.832
204.273
-61.2552
-95.289
85.617
136.259
168.352
210.564
2.63892
-124.85
-71.7669
113.852
-77.4565
-236.4
-203.794
-12.4724
156.421
-10.2427
-178.498
-415.771
-356.553
-181.329
-116.782
-28.1308
97.0894
94.9383
169.52
132.94
119.533
187.098
410.73
429.493
115.283
-167.689
-90.9882
48.5613
-120.654
-211.395
-329.036
-110.906
-63.1214
67.2136
407.037
615.811
430.734
227.724
-56.9816
-98.581
-318.513
-419.456
-374.028
-441.877
-454.93
-450.433
-436.076
-122.871
347.68
503.598
447.38
697.437
668.043
222.69
-359.43
-600.757
-318.7
-15.3224
175.409
12.4199
68.0433
-80.9235
-450.64
-392.503
-207.134
152.133
668.115
367.683
-302.544
-609.936
-427.334
120.504
297.128
290.371
668.431
375.047
18.1927
46.1075
82.1335
264.665
306.089
192.279
-122.861
-78.6575
68.6834
-248.364
-451.797
-371.1
-636.595
-331.381
89.1586
121.912
144.964
15.4596
-324.849
-410.512
-416.096
-256.144
147.26
230.84
431.471
776.126
514.888
179.373
-202.177
60.0297
314.049
165.828
264.142
471.825
385.13
-108.49
-679.632
-699.423
-817.512
-420.838
53.6987
168.679
-53.0759
-140.715
-180.184
-349.618
-245.361
-339.651
-160.55
368.756
546.602
352.486
519.834
225.551
63.7347
62.8371
41.4106
219.523
527.063
489.428
274.427
90.5733
-96.94
-260.605
-321.84
-328.038
-17.856
241.982
146.339
-362.236
-656.724
-618.662
-563.958
-480.458
113.427
724.33
433.342
356.738
400.256
-142.676
-380.588
-359.904
-488.55
-713.095
-917
-783.529
-158.084
1109.38
1526.04
745.403
421.055
567.916
439.865
90.4076
-334.252
-447.001
-134.526
-342.17
-765.944
-542.177
-138.06
135.552
906.768
1576.31
1268.15
694.194
74.2852
-700.264
-347.453
181.987
-515.905
-853.887
-699.166
-406.731
-560.666
-771.599
-330.701
-490.779
-717.616
183.141
728.755
332.808
-308.194
-676.271
-104.491
482.263
580.003
363.864
-125.165
-481.096
-42.4972
422.453
412.349
352.12
774.479
1057.95
1396.08
1572.83
748.943
-125.417
-561.903
-448.129
-436.919
-561.31
-405.062
-543.845
-642.286
-771.467
-970.364
-751.633
-202.979
-130.819
312.317
88.6263
-240.991
-346.67
-467.474
-494.295
8.87459
85.4759
327.147
175.262
111.485
498.63
1197.78
1174.12
394.58
-118.367
79.4482
299.327
23.9956
-329.445
-654.907
-637.467
-309.362
-10.3837
-316.39
132.383
672.668
449.416
102.111
-89.6609
-180.67
-161.573
-82.9853
234.88
750.206
553.195
-419.16
-514.058
100.64
417.002
854.83
522.436
-366.939
-910.718
-866.338
-936.103
-688.154
59.2132
736.539
836.981
228.29
-336.356
-995.854
-1242.54
-667.374
-142.049
246.812
323.893
-295.585
-407.6
-0.574576
1127.89
1679.83
1037.15
847.411
375.487
115.351
-168.1
-692.052
-660.926
-142.496
98.5491
-22.3613
-113.26
-181.98
-281.826
-82.2755
262.001
445.028
269.22
-392.478
-982.049
-522.819
259.04
96.9749
238.348
446.929
236.18
-285.692
-683.148
-732.635
-663.169
137.777
504.195
214.763
89.6853
161.207
27.2381
769.867
1212.31
667.685
328.267
-339.78
-394.314
-133.497
-236.417
-535.419
-570.044
-208.279
426.214
616.571
665.87
-66.1417
-585.96
-635.404
-327.171
-170.035
-56.0367
-313.642
-582.417
-132.136
172.722
177.965
-8.34965
54.3144
199.003
44.5882
-280.934
-327.87
-73.4657
-86.6469
69.0504
845.951
1018.13
1032.33
887.612
349.247
-207.407
-569.302
-468.438
-334.894
-245.781
-664.63
-746.173
-800.712
-209.076
957.926
1140.61
730.337
150.541
8.3367
-188.669
-782.688
-609.373
-443.118
-37.9382
345.229
-320.09
-652.55
-73.0754
234.298
72.2172
379.907
460.91
444.422
166.316
-328.482
-250.531
-224.95
-217.463
-71.8403
201.599
71.5758
-365.426
-259.09
43.4523
749.876
1318.05
827.619
190.595
-328.307
-670.375
-724.756
-541.996
-100.964
267.015
410.702
26.1089
-240.662
-340.91
-97.618
376.078
120.58
39.3812
570.015
474.484
-432.939
-565.434
-326.177
-225.929
-202.399
-105.665
-7.71879
-1.36552
165.003
-153.918
-233.123
-138.896
-13.5184
201.189
220.724
-145.194
-48.4488
317.562
2.68661
-198.402
334.833
243.589
221.234
-283.47
-37.7252
462.312
600.778
653.388
117.236
-353.598
-679.713
-284.182
378.337
610.678
-237.381
-380.548
-47.1213
-70.6646
-458.482
-630.834
-494.443
-237.707
-94.2666
173.261
-68.8124
-30.5504
-74.7806
-250.502
212.654
658.763
522.739
114.888
-439.763
-537.326
315.307
675.396
721.921
178.698
-251.973
-594.134
-521.252
194.883
537.616
360.877
225.824
131.38
54.4827
-186.417
-530.027
-593.1
-156.291
-22.5511
368.867
544.203
346.988
-137.891
-418.885
-359.623
-11.9956
353.782
50.18
-145.914
-303.484
-208.391
-265.119
-267.564
176.851
721.377
724.304
-10.886
-613.343
-31.0617
111.712
-136.342
-0.36237
-115.19
-525.021
-393.295
-462.214
-258.417
946.829
789.137
180.082
92.7681
310.133
256.789
-167.631
-467.652
-309.765
127.406
-155.477
-496.132
-488.631
-319.537
79.5423
822.804
894.899
1125.26
963.353
330.212
-602.717
-745.682
-401.113
-286.055
-461.712
-490.934
-462.743
-515.034
-433.464
132.808
539.137
305.162
74.7141
290.971
73.9263
-499.809
-676.938
-685.176
-222.9
359.983
451.777
504.555
819.387
969.987
558.868
-135.713
-189.427
101.335
542.691
112.618
-172.952
-297.351
-354.898
-207.201
-197.264
-316.971
-234.155
-186.586
-144.526
-124.777
-168.991
-118.408
-374.647
-715.721
-604.271
-21.0876
134.98
901.286
1092.09
878.595
566.46
504.562
340.657
61.5592
-122.387
-431.475
-628.034
-587.67
-132.489
149.631
372.121
-2.88814
-492.869
-408.606
-88.7018
-3.6482
101.652
-334.564
-958.667
-1049.43
-614.566
-75.8579
580.344
828.837
830.64
1104.66
1176.57
807.424
318.182
-172.338
-631.634
-501.693
-110.209
-95.6117
-309.04
51.1312
167.965
-261.879
-575.479
82.4076
33.932
-186.77
-109.335
-445.356
-553.294
-432.246
25.5403
320.121
310.189
169.021
230.209
273.971
313.709
314.033
278.981
-39.3395
-137.572
-145.824
43.6046
-139.943
-27.9268
28.2542
-196.505
135.371
433.664
162.22
-228.167
-358.929
-717.041
-793.019
-321.681
604.263
410.58
656.101
572.799
139.797
-46.237
-138.416
-8.869
336.493
526.209
265.594
-209.566
-686.469
-824.192
-473.736
-83.4692
284.923
519.356
416.96
27.8606
-332.201
-386.595
-609.628
-505.386
-92.2489
322.202
561.524
195.744
-172.341
-129.34
71.7264
-96.0003
-263.208
77.6706
464.94
1064.72
628.162
-259.18
-267.698
-538.452
-800.14
-429.604
-28.2798
369.627
601.965
360.275
-106.279
-210.74
-362.045
-377.631
97.2517
291.187
535.806
634.347
227.34
-427.467
-447.9
1.83767
128.69
187.895
145.018
114.407
-74.8489
-228.729
-396.043
-468.981
-451.898
-91.3642
170.877
442.219
308.978
-424.551
-255.023
34.8172
116.315
-30.7074
-66.9774
110.775
178.449
186.132
91.6702
97.7502
-195.914
10.8953
137.11
-274.25
-220.21
83.5325
479.949
366.476
219.584
459.921
213.888
-279.954
-505.21
-625.968
-488.345
-21.0054
470.895
238.39
299.33
48.9048
-289.153
-170.771
209.254
642.713
381.653
-271.085
-758.963
-719.344
-603.523
-121.68
73.7762
0.116358
-84.1475
122.578
166.084
-39.5835
-39.676
110.35
-32.9121
344.435
732.06
270.458
-372.74
-201.863
385.993
-146.704
-523.669
-322.13
120.206
1711.68
1345.15
496.786
180.466
-241.431
-535.41
-653.591
-894.647
-825.426
-491.512
53.5023
421.672
302.493
34.2511
-244.194
-476.581
-156.309
163.634
-131.386
-508.994
-1054.15
-630.414
-415.092
-156.006
423.464
687.627
821.663
779.366
688.749
457.262
155.363
-49.0773
-166.385
-231.63
-104.384
329.896
930.077
681.498
341.495
24.2734
-384.91
-696.981
-536.49
-440.891
-299.246
-198.222
36.4875
350.612
85.0992
-365.134
-614.788
-204.858
586.619
934.206
267.703
-241.153
-445.706
-118.98
132.529
131.376
-287.365
-134.603
-140.565
-351.112
-597.461
-174.394
408.323
-99.4613
36.1433
328.951
225.799
42.7881
-529.395
-687.128
52.087
569.273
600.079
228.997
73.4181
-104.621
278.564
282.656
261.05
273.568
95.6663
-91.3034
-330.98
-151.741
95.1348
170.305
-133.253
-425.815
-255.994
-92.3267
-178.18
-193.81
101.221
296.529
270.43
217.96
-358.962
-348.772
452.692
351.424
-93.6281
-295.663
-240.032
338.005
312.831
-34.2976
-24.5953
-162.393
12.0475
213.177
-153.106
-392.301
-536.786
-436.432
-355.773
193.287
464.417
410.985
262.665
-62.1071
-36.7516
195.197
456.181
-285.892
-407.728
256.681
266.853
138.847
-134.726
-340.048
6.17395
409.431
163.072
-125.551
-182.552
-162.908
-173.085
49.3824
-306.658
-263.743
323.469
404.272
24.5223
-104.324
-306.83
-533.108
-277.99
-200.419
-18.3514
548.26
775.403
243.73
317.43
346.057
-212.728
-444.395
-141.576
8.46302
173.584
100.898
403.011
491.098
-399.285
-276.926
15.7925
-80.3643
88.9942
101.607
-75.5654
-315.567
-478.04
-468.835
-430.163
-132.225
353.594
377.164
109.956
-144.435
-232.402
25.0381
-206.286
-332.416
-62.9892
-81.3028
-113.823
162.313
381.237
942.393
857.786
124.538
-28.435
47.8736
-295.219
-569.804
-530.466
-84.3943
654.785
518.55
-21.6198
278.01
-84.5696
-438.88
-39.1115
339.461
359.218
-41.7935
-582.77
-639.012
169.567
5.3191
-423.37
-432.734
77.2274
310.287
292.164
3.72977
-450.351
-250.881
-70.4471
-113.771
244.909
642.96
467.442
231.565
125.028
-104.616
-95.1786
-361.643
-487.728
442.2
165.937
-344.776
-402.709
-308.742
-65.3104
205.261
517.11
152.198
-78.973
95.3839
121.551
159.811
-270.934
-521.684
21.3321
283.227
128.761
529.287
223.366
-267.051
-119.415
2.90814
0.0249434
-3.81301
236.547
476.692
-302.495
-305.396
61.3866
48.7079
-44.4207
-260.298
-327.77
-338.584
-437.886
66.0275
584.386
-5.40158
-257.329
-211.355
-86.2338
43.1573
179.526
365.484
283.514
-66.8423
-151.175
-255.714
-221.148
273.14
439.598
91.4804
113.279
32.1491
-173.121
-272.049
-266.344
-117.174
-224.198
-386.582
41.9086
736.535
974.444
616.809
71.7131
-295.539
-250.061
201.731
353.691
-351.827
-487.832
-250.584
154.009
312.217
99.9445
-169.814
-218.386
-169.201
-148.468
-122.605
-92.5582
-279.685
-390.77
-156.015
68.8578
-51.192
-101.855
-166.184
-142.934
76.1504
30.0194
43.3981
102.55
150.855
-6.59973
22.2919
180.493
557.525
806.554
621.609
292.754
-255.24
-381.768
-214.734
-72.9418
85.655
150.402
-64.4931
-238.103
-322.741
-200.09
25.6712
397.581
72.6721
-462.208
-534.685
-384.144
164.944
156.117
111.693
478.184
413.859
28.1918
-106.811
-235.519
-145.354
102.156
120.32
178.493
286.404
-192.517
-180.325
-339.403
-287.315
151.563
251.702
-34.7499
-423.108
-364.852
-183.57
-352.625
-308.994
13.0974
289.621
272.014
126.032
-181.286
-344.117
-200.827
175.799
1254.62
1184.69
405.183
418.044
105.537
161.441
219.053
-248.778
-475.472
-454.416
-413.113
-241.666
-185.641
-295.419
-159.695
-161.752
26.5565
200.47
-125.264
-492.652
-581.166
-183.516
56.9891
74.3346
390.177
265.32
48.4179
-86.1558
15.1652
36.5584
-7.81709
307.226
396.354
-24.4256
65.7033
458.727
438.692
30.8536
-261.586
-97.1511
-207.361
-40.0132
215.822
158.06
106.404
-60.9194
-226.981
-234.269
-253.019
-152.383
-0.422999
-92.4888
-316.765
-288.183
-70.8759
-88.3503
36.3851
428.378
608.756
307.147
-200.921
-646.24
-517.625
-120.683
150.523
304.644
328.217
173.706
63.4237
118.07
-75.2082
-229.677
43.4943
-44.5017
167.62
360.784
279.623
294.236
396.529
139.58
-114.57
-259.32
-349.34
-399.942
-345.682
-263.298
-137.605
-88.6119
-106.781
-177.184
63.326
303.619
57.1344
69.0809
-173.191
-197.228
-100.26
-117.76
-52.1979
136.493
268.145
219.563
235.404
224.491
153.887
-32.4252
-101.802
-45.7443
-135.424
-217.372
-214.428
281.729
754.348
485.519
88.2573
-266.182
-483.179
-544.854
-215.031
156.367
22.3485
-79.8596
-100.586
147.372
619.347
129.892
-175.912
-156.122
14.0993
245.558
57.7132
-255.369
-272.774
37.0767
89.3519
-34.8612
-14.7937
21.6702
-74.767
-156.795
-97.156
-129.788
-143.106
-288.225
-598.885
-205.446
515.114
966.042
503.687
175.827
-8.26471
-483.365
-550.309
-282.819
280.267
667.857
-251.59
-404.993
-412.937
-174.464
648.191
671.738
488.55
313.867
122.686
139.867
-185.414
-645.449
-430.968
-143.396
158.476
309.743
50.554
-107.952
-391.962
-532.812
-76.2171
95.5813
289.944
109.472
-290.244
-157.659
48.2687
148.708
169.982
102.567
-68.4405
-23.5133
118.576
-79.4391
-155.956
-208.069
-212.481
132.282
606.988
494.435
438.676
257.938
-265.645
-581.973
-792.935
-912.972
-509.655
852.281
936.935
760.88
567.123
203.132
119.398
79.5863
-10.1116
-85.0935
-189.174
-291.65
-632.305
-778.138
-534.091
-157.347
29.2738
206.629
537.434
648.161
138.101
-806.446
-861.586
-600.954
-211.933
203.133
319.821
574.042
463.249
95.3168
15.7192
280.173
297.027
152.943
199.184
80.9278
94.6743
102.841
-91.2006
-38.4873
76.2046
-238.923
-647.306
-646.924
24.2625
60.8027
117.101
237.011
191.664
258.025
100.28
-280.796
-553.985
-167.853
352.049
191.879
241.359
281.728
5.08179
-105.42
33.7382
41.7571
144.989
279.892
-141.663
-298.281
-399.479
-235.566
45.7752
63.2024
359.491
381.415
157.969
-49.9062
-235.11
-146.374
-181.142
-371.357
-357.052
-303.953
-282.628
-169.099
256.941
619.429
611.746
243.966
83.6837
-195.979
-327.031
-324.515
-374.018
-169.23
300.647
759.331
398.657
40.0299
-201.17
-229.129
10.7854
24.4206
-54.1367
-41.8097
58.2866
10.0304
-56.5344
-10.6943
-95.2273
-203.259
-144.498
328.091
633.136
132.06
-188.207
-489.769
-258.979
18.2947
247.637
286.52
-127.781
-47.9332
116.153
-178.645
-251.327
-40.5644
55.419
239.04
312.322
161.967
40.3552
-168.54
-461.224
-372.998
-426.151
-316.543
-50.9835
-39.2232
168.668
376.61
253.966
699.063
732.649
469.98
160.959
-328.775
-504.456
-358.575
-206.169
-145.845
-109.667
-117.18
-220.898
-114.993
35.0999
58.1403
127.872
247.841
80.7815
42.6232
225.244
-163.754
-369.676
-328.301
-369.278
-173.451
37.4053
71.4426
34.6665
151.748
258.752
280.471
266.579
299.672
277.899
106.749
-114.97
-86.3894
-32.9322
-87.0705
13.8242
-31.9846
9.43965
208.777
194.18
-96.9377
-346.881
-267.116
5.36882
130.8
3.07436
-224.077
-199.376
-15.138
38.5655
13.1249
-34.0641
23.4702
70.2323
-36.4666
-141.913
-324.216
-349.79
-2.52378
459.674
481.851
165.995
-28.9447
297.546
313
-251.263
-352.813
-67.0341
-39.6539
76.1622
224.029
190.092
50.9509
-175.449
-199.667
-14.57
58.1358
9.11003
-223.374
-418.722
-238.919
46.7546
166.01
20.5955
-185.596
-149.673
-166.161
-294.527
21.4253
658.553
359.44
-127.894
-477.265
-387.52
-30.9089
263.159
903.53
1007.15
864.175
465.356
98.5678
-82.1843
-186.345
-441.703
-500.116
-197.947
-78.1128
-266.132
-532.23
-786.223
-286.721
207.897
438.779
289.13
94.8039
-3.62242
-266.286
-333.932
-477.593
-486.292
-533.732
-357.011
38.6759
167.793
201.978
279.949
465.217
1012.61
845.644
262.479
-155.848
-225.511
-31.7005
180.054
196.868
196.765
-22.2843
-170.344
-64.2177
59.1762
159.121
5.12369
-65.6729
-48.9685
-14.5009
259.13
87.474
-392.489
-414.864
-356.862
-38.4381
-44.9709
-509.55
37.2737
514.156
360.773
-221.15
-514.602
-443.132
-67.4802
-26.3603
-39.3865
-129.263
-150.376
-34.3627
11.5537
150.542
184.699
281.507
244.03
50.2368
74.6749
296.341
9.57925
-466.82
-633.651
-330.802
269.029
310.762
254.002
468.371
487.982
341.817
355.996
27.2108
-102.586
187.648
446.375
349.831
65.4255
-212.759
-423.001
-384.702
-562.235
-583.471
-130.171
442.204
169.957
-45.2207
-113.332
-210.05
-151.807
-146.465
-274.3
-98.5216
-85.7649
-284.184
-507.462
-476.943
-232.063
-140.809
22.871
468.862
710.567
484.549
832.208
683.819
284.024
118.134
-103.357
-376.107
-138.435
31.3633
-53.7109
119.671
216.056
-294.714
-702.825
-609.657
-452.79
424.46
1246.81
373.401
-432.005
-309.655
-1166.2
-933.371
14.2766
1190.07
1818.83
975.981
209.163
-95.7947
-440.921
-617.225
-696.126
-106.995
434.465
580.054
321.555
-304.28
-855.328
-842.204
-315.694
162.601
289.043
-84.6031
-446.143
-1031.53
-1427.56
-785.428
66.7304
783.632
641.949
459.067
718.456
653.932
352.242
-66.7231
-26.8931
70.1787
35.1536
397.663
383.657
141.378
-6.91776
-22.8859
349.742
311.283
203.384
326.289
8.08236
-585.409
-613.078
-513.236
-283.548
112.513
195.132
227.068
172.292
378.983
422.351
119.958
-18.3279
115.579
152.495
44.1524
-280.497
-498.184
-619.638
-484.651
-545.415
-576.442
74.5016
604.258
629.062
177.963
-97.9132
-342.742
-323.526
-500.781
-640.56
-329.347
-171.321
-11.7099
566.961
239.642
105.064
401.979
801.554
488.098
166.379
60.4406
-84.3537
-275.569
-363.494
-76.269
120.076
-108.243
-130.452
-223.246
-133.831
178
328.216
-88.9954
-467.998
-7.4577
47.4493
394.475
960.048
638.409
246.81
463.882
351.068
-66.5349
-442.767
-365.526
-324.911
-323.515
-214.359
-296.386
-399.867
-264.162
-261.417
-169.753
92.7009
275.37
290
-119.792
-730.443
-410.69
-64.0444
-92.3271
-36.3405
230.052
410.506
-7.43083
-338.669
-149.433
22.2877
188.569
312.343
453.712
358.911
-180.89
106.848
563.518
-88.0406
-443.806
109.91
877.368
887.321
526.415
481.146
456.515
111.073
-363.766
-674.253
-585.199
-574.529
-539.041
-519.273
-506.78
-276.593
-10.1973
-305.987
-621.568
-232.732
17.1816
-394.459
-792.436
-543.331
-4.18259
285.686
551.891
375.084
423.429
971.732
1098.19
991.922
678.789
698.657
53.4298
-382.506
267.489
246.737
-66.953
-393.645
-605.415
-197.359
-244.225
-233.427
212.577
109.466
-707.023
-741.321
-558.81
-352.462
-137.774
-167.032
-131.292
-119.657
41.8293
99.9885
-147.586
-122.202
63.3264
433.207
470.575
75.5469
180.704
261.178
-171.145
-337.007
-139.439
178.402
294.275
296.733
339.858
272.596
215.535
311.416
326.344
172.251
609.252
407.211
-234.125
-467.416
-573.312
-549.775
-310.544
-225.66
-221.289
-132.908
194.44
254.469
256.88
-10.9815
-368.659
-505.325
-249.6
219.778
426.18
226.293
-794.716
-1056.38
-1049.4
-767.673
588.777
1198.35
920.195
1166.12
932.313
530.419
-70.7268
-394.71
-36.5021
172.285
205.525
42.7056
-257.386
-674.577
-842.444
-556.409
-337.693
-302.822
-18.3916
594.269
235.638
-270.343
-280.072
-704.323
-590.174
-179.256
228.134
482.881
268.003
103.184
119.487
323.91
419.33
232.675
148.589
201.757
266.457
571.695
1010.3
718.319
-92.64
-611.615
-414.957
-22.2691
-441.209
-1071.62
-967.035
-623.044
-116.202
540.497
324.744
318.314
597.149
955.266
812.197
385.163
104.257
-208.346
-70.0537
-59.9944
-355.702
-606.267
-685.539
-612.429
-421.658
19.7464
83.2851
-137.162
-182.238
-234.958
-268.398
-222.971
-315.51
-370.551
-97.5529
143.638
226.175
265.902
-11.8665
-258.403
-372.769
-313.768
-124.78
392.3
1522.86
1695.44
1147.21
763.513
189.853
-302.964
-89.546
-19.1962
-237.549
-473.78
-684.7
-744.022
-280.259
11.4456
-17.8413
162.89
379.827
393.886
347.279
-151.688
-547.698
-474.219
-508.866
-211.952
-77.7731
-244.861
-194.052
-72.0025
53.3235
279.077
540.03
281.479
51.9156
17.2964
-263.363
-557.261
-541.105
-65.7084
313.611
540.202
395.506
26.197
104.351
-30.4374
-265.462
154.988
837.017
421.342
-2.5491
-297.113
-341.469
-129.286
-127.922
-232.758
-219.559
-66.4796
142.836
211.958
99.971
-161.504
-463.044
-401.052
-95.7627
-101.105
67.1249
-220.234
-724.755
-481.285
289.996
1050.24
1075.86
958.321
667.517
226.469
63.9482
198.338
218.681
99.8282
-268.901
-318.918
-522.063
-841.37
-819.998
-320.429
-4.91261
59.6819
-13.7427
-49.2605
-300.63
-760.099
-548.444
272.636
433.641
446.084
391.964
305.827
226.259
107.22
50.3543
-142.116
-117.575
233.801
250.752
-37.9632
-100.282
116.087
294.358
521.462
298.486
21.9219
-305.55
-694.927
-590.484
-253.062
84.7695
263.025
81.0099
-222.969
-264.581
-172.98
77.53
325.488
574.022
690.683
306.332
49.5066
-25.7421
-288.494
-401.594
-441.106
-369.575
-195.577
0.511166
-269.353
-514.801
-332.812
-158.26
235.886
565.819
962.79
575.256
333.956
59.3875
-394.719
-334.588
-200.347
-222.093
-145.407
16.057
42.5667
71.9885
-58.1021
-345.875
-216.25
-45.7208
222.863
555.417
329.891
70.8707
-287.692
-265.602
20.5111
241.405
313.987
321.338
92.5647
-71.9923
-120.406
-202.116
-122.449
-78.4054
-197.521
-157.535
115.174
353.959
37.8923
-144.979
-96.8914
-45.1998
-140.224
-73.6941
-115.409
-276.932
-228.071
193.281
185.917
16.4086
-119.611
-184.271
-141.584
157.513
344.738
151.834
23.9155
8.55126
204.598
383.687
175.386
-196.857
3.5598
219.646
-197.984
-251.648
-106.753
-237.141
261.458
216.337
-47.8403
259.154
346.695
-82.2405
-253.247
-163.467
-126.023
-183.876
-268.424
-295.565
-92.6305
98.9115
-113.398
-180.89
-37.3584
-32.6439
-152.537
-181.135
-291.834
-176.009
-24.4272
-118.426
301.325
747.066
747.361
713.062
514.99
213.415
-264.311
-479.855
-168.403
-190.696
-69.3224
269.277
557.953
349.353
119.575
-180.197
-390.359
-103.37
132.471
-16.3368
-405.09
-642.304
-644.473
-505.17
-258.101
178.271
352.308
339.952
236.977
247.384
-31.6259
-396.343
-441.495
-226.232
36.94
195.735
80.6565
75.305
310.564
348.718
132.36
120.03
152.798
184.459
168.449
-21.9095
-103.429
-34.9925
-66.9228
-76.0622
-47.8585
-280.342
-529.846
-1.74183
472.202
482.149
404.528
1.40084
-336.301
-324.376
-264.126
-126.977
79.798
-92.876
-98.3771
183.277
303.854
78.5394
-44.4849
-58.7825
16.0157
201.356
192.029
-165.259
-457.132
-482.622
-403.438
-168.618
-44.6886
229.497
181.984
31.7591
41.6436
314.291
473.889
40.9497
-396.109
-327.427
25.1563
560.826
514.169
94.0738
-12.8592
-22.2267
51.7508
258.12
374.523
241.177
-35.6964
-426.299
-724.822
-469.36
-197.985
-143.793
-162.877
-108.821
72.495
225.59
41.8322
-203.624
-261.24
-152.466
-82.4113
188.877
447.087
299.252
49.1212
-63.2833
29.9291
107.181
256.293
109.629
-296.524
-166.681
326.23
615.622
660.163
565.441
135.186
-294.417
-365.573
-328.878
-267.567
-367.046
-577.128
-636.692
-413.263
-60.0777
112.437
145.173
148.991
149.654
244.386
3.94523
-418.863
-588.087
-631.813
-216.623
637.431
589.612
422.827
416.388
264.434
-78.6613
-288.122
-127.515
-104.672
99.6626
663.564
902.72
596.033
354.336
110.957
-55.022
-218.619
-313.512
-233.757
-421.429
-687.811
-449.387
-327.279
-166.137
9.7981
163.308
146.549
5.80924
50.9641
259.037
83.6561
-290.14
-429.696
-496.232
-341.405
-251.135
-59.6827
316.638
442.977
398.647
163.396
141.525
179.903
160.928
100.579
50.0694
268.405
306.035
196.177
-77.0812
-421.183
-408.059
-29.1092
376.111
407.581
295.519
37.3646
-278.161
-250.386
-221.163
-249.358
-97.6206
93.8876
119.252
107.078
36.0555
-124.938
-134.995
-188.327
-426.418
-452.236
-372.68
-398.969
-317.712
368.957
903.961
806.202
484.614
186.268
42.0976
-42.4424
-135.858
-202.425
-215.355
-172.239
-116.071
-123.99
-69.3328
38.9161
100.747
194.776
197.457
235.372
53.9372
-168.077
-457.366
-413.643
-181.738
-2.27736
39.9399
4.56572
-84.6693
-136.782
-144.456
-28.7835
267.091
679.757
807.518
486.086
211.296
78.8841
34.3199
21.3131
-101.552
-384.516
-366.202
-281.594
-361.185
-301.624
-130.41
-103.479
62.5147
256.349
360.556
266.52
-58.758
-362.925
-364.95
117.925
132.349
-60.1667
-158.217
-24.2379
17.7499
-279.944
-167.9
-128.702
-84.263
321.109
164.563
75.4189
177.691
204.684
216.667
126.389
-57.5316
-67.3619
-284.129
-682.052
-386.05
23.1749
129.074
84.8231
453.449
841.073
868.935
378.021
39.1214
-274.552
171.11
209.542
-153.186
-657.751
-818.715
-261.263
213.846
-1.73791
63.4268
168.633
88.154
-184.512
-498.861
-595.878
-942.427
-1008.43
-402.22
440.228
900.043
1314.91
787.383
577.889
805.6
807.396
225.032
-318.413
-452.747
-457.272
-550.367
-753.214
-746.954
-469.293
31.9139
474.923
546.484
347.216
-47.0958
151.599
162.183
-626.314
-816.286
-573.338
-452.085
-166.773
284.855
360.518
254.362
225.398
205.444
467.598
610.371
561.072
491.614
194.833
-143.742
-252.454
-181.974
-391.563
-399.468
66.5482
336.285
-240.8
-486.496
-213.851
124.812
356.892
179.688
181.899
158.836
266.376
339.472
-17.5515
-371.317
-499.092
-327.71
-124.835
-55.0309
-199.476
-363.949
-564.021
-474.588
-76.7264
242.539
329.949
349.5
495.104
550.22
350.402
138.274
-218.47
-444.109
-241.475
-70.5208
-79.2253
75.448
190.002
22.8204
-49.5932
2.55769
303.354
691.808
522.972
188.882
-191.519
-413.092
-597.901
-515.239
-262.242
-82.6772
30.9591
20.8742
1.78428
-26.7231
-125.259
-186.061
-171.004
15.531
852.333
936.204
220.97
-178.534
-47.8326
-96.4668
-163.197
-135.666
-309.926
-377.472
-249.929
-57.9651
68.3461
-32.7459
-99.5034
156.571
493.645
384.452
453.47
354.393
-264.233
-517.207
-530.598
-583.453
-90.4726
49.4486
-3.1106
-10.262
54.6257
120.943
125.514
61.1172
-101.552
-68.431
187.715
184.05
474.762
1041.07
335.961
-222.09
-621.388
-444.658
-39.3924
-4.64491
-3.59405
232.524
266.764
0.986923
-101.478
-152.969
-261.212
-205.289
-85.5251
-237.186
-516.426
-368.094
-329.502
-432.375
10.6959
138.134
196.68
369.106
591.218
503.349
123.635
-93.358
-36.4024
5.54824
-76.8223
-67
80.2239
149.195
181.833
317.309
425.041
263.719
-37.3842
-194.93
-186.401
-188.488
-127.91
-168.34
-288.679
-267.961
-429.862
-370.447
80.0008
613.535
525.776
559.388
350.22
8.88117
-166.983
-216.766
-225.616
-202.037
-109.768
73.5559
220.902
165.474
2.84045
-320.936
-675.367
-438.101
7.9132
-7.17846
-221.755
-403.047
-208.867
-2.93162
268.934
350.76
408.147
439.604
282.095
-77.4
-295.663
-229.643
-180.343
33.694
335.049
456.002
337.108
70.6441
42.7718
174.062
206.16
61.9367
-114.893
-119.085
51.0595
60.2646
41.4041
-88.1549
-172.16
-203.395
-287.754
-431.131
-358.151
-144.393
-137.9
-296.007
-150.033
348.473
423.577
325.722
180.176
71.9473
154.772
-0.837794
-333.117
-345.481
-203.088
-58.5324
147.748
315.964
363.468
217.853
115.916
18.2214
-25.9429
15.6205
-88.6765
-266.624
-196.293
-76.149
38.3998
180.072
157.192
-5.3048
29.3836
-83.8358
-189.825
179.873
348.367
168.427
-23.2556
-172.456
-282.861
-339.59
-238.405
59.8016
278.944
-8.82488
-175.038
-372.259
-406.999
-73.7757
291.914
458.375
485.635
481.56
305.086
-13.7514
-133.36
-8.5646
21.6814
-236.388
-417.197
-437.288
-266.41
-75.6179
-5.95801
220.567
445.041
399.857
187.682
-106.069
-332.125
-406.509
-449.39
-258.209
-79.0559
-97.5256
-174.675
-70.7513
161.675
392.673
709.214
765.927
306.1
-55.8605
-82.4164
-246.038
-554.903
-143.309
804.511
722.92
190.542
9.56859
-98.4279
-188.756
-410.338
-520.719
-346.46
-164.256
17.733
112.695
-74.3949
-120.282
-75.6829
-35.0829
-41.8307
-60.4862
79.5363
30.1717
-338.897
-414.554
-335.992
-335.787
-306.51
-87.1114
377.534
673.049
527.578
348.774
171.447
131.735
219.528
143.369
66.1238
-10.0536
-79.1256
-17.8265
293.612
389.268
118.58
18.597
95.6385
31.9005
-98.9837
-155.364
-324.584
-634.531
-686.482
196.908
374.851
-20.9682
-154.216
-142.993
110.096
485.16
139.939
-346.076
-460.725
-389.761
-265.69
121.807
520.801
487.719
172.504
-88.4889
-105.347
104.078
220.5
-112.243
-213.081
-201.38
-227.371
-243.074
-341.744
-362.138
13.085
305.353
135.282
-161.692
-244.858
-213.499
-113.337
204.519
534.71
648.724
579.076
471.061
327.282
-3.9982
-93.6283
72.3977
81.0576
-38.1732
-160.323
-297.258
-166.687
-84.132
77.3368
10.7534
-345.092
-144.679
228.186
70.7167
-8.87092
-44.1022
-262.162
-303.882
-65.7226
65.9013
-29.1576
-72.9947
-18.9229
50.6119
83.2509
-2.76529
-107.576
-100.604
36.7724
88.8936
0.394841
-108.242
-172.552
-82.4719
-0.395257
56.8364
106.048
-20.1696
-269.304
-533.598
-319.368
289.878
575.325
562.792
619.448
547.954
392.567
227.377
-74.4128
-138.206
-35.2153
-255.89
-491.488
-247.843
-82.539
-173.715
-298.071
-296.338
73.2442
142.403
-17.5026
-165.241
33.2312
78.2539
-75.9955
-91.9609
-108.467
-229.098
-126.701
-38.1712
129.508
484.049
542.87
515.958
374.644
99.0124
149.042
254.857
36.4182
-119.317
-199.817
-391.721
-615.442
-575.602
-426.011
-286.732
2.76605
319.676
249.031
241.362
195.139
-111.987
-297.357
-390.565
-355.811
-170.91
-140.376
-104.731
-54.5936
219.01
633.908
873.916
683.423
371.126
133.7
38.6742
-29.1357
-66.0296
-133.22
-122.081
-74.6599
-90.9552
-153.352
-373.894
-332.128
-94.6206
9.16735
104.587
175.259
145.919
-194.283
-741.181
-537.759
52.6771
187.869
427.468
672.615
527.633
236.968
1.66064
-220.761
-371.036
-239.942
40.8774
123.17
141.945
9.74782
-111.314
-161.164
-303.747
-528.379
-238.069
3.63534
-136.386
15.3834
350.659
237.009
-48.9844
67.8117
153.858
222.005
282.088
207.527
-7.56145
-192.462
-306.504
-162.045
-80.0126
-196.4
-129.516
276.943
650.844
668.951
590.991
543.968
31.1531
-359.235
-396.025
-397.728
-393.969
-482.123
-494.163
-281.882
33.6385
-68.8655
-197.429
46.2983
260.561
522.27
496.204
-48.6678
-293.774
-376.153
-498.486
-496.498
-328.808
-360.512
148.668
496.89
394.729
523.236
551.993
279.893
-97.4048
134.443
830.943
628.304
250.161
105.668
-73.7448
-84.6592
-322.03
-491.382
-406.767
-379.566
-399.621
-167.937
-278.323
-554.12
-420.82
-194.279
84.7323
68.5935
115.13
288.428
234.83
138.344
165.672
246.622
54.4982
18.1262
33.1113
-19.9495
199.512
306.654
-105.232
-195.996
51.8259
290.976
324.678
266.255
-39.3236
-93.7537
-85.8998
-330.681
-557.721
-316.799
-114.805
-280.021
88.0115
354.073
384.26
284.293
-10.1511
-204.914
-53.3988
72.9502
-79.0866
-237.277
-187.614
-79.3649
80.6784
272.787
341.408
155.02
-142.554
-267.395
-293.285
-152.05
-41.6691
117.702
151.224
24.4247
-118.607
-87.5221
121.34
202.032
337.686
529.565
516.882
157.586
-20.0678
-152.744
-285.851
-268.078
-233.489
-181.974
-84.6492
-53.2014
-275.484
-416.247
-349.969
-138.738
40.5019
-77.0782
-124.06
-76.9139
-275.458
70.1635
671.614
688.118
398.729
278.316
111.626
52.4507
25.3919
-95.0364
-127.609
-72.0052
-308.522
-360.648
-48.7582
233.211
273.159
264.654
288.118
118.081
-5.03771
-291.202
-522.254
-389.538
-198.645
-167.038
-172.453
-76.3112
66.9622
265.94
361.151
209.657
112.474
-19.1678
-276.199
-328.76
-118.98
186.554
412.861
368.967
294.262
61.6303
-200.185
-283.153
-190.721
-119.724
14.273
-32.1328
-133.315
-27.4937
155.138
177.082
330.771
585.653
339.803
-1.2261
-120.417
-238.439
-518.335
-587.495
-407.026
-32.55
239.689
151.453
107.582
81.2954
50.5409
68.0349
41.5988
-68.3843
-294.294
-344.01
-155.251
-98.007
-48.3041
-101.339
-80.0879
-20.0276
-22.7392
357.328
492.527
113.1
-122.806
31.3154
25.6931
-111.958
-73.77
0.8633
160.665
222.424
204.426
361.353
567.82
312.578
116.248
143.571
-14.6004
-185.176
-246.646
-308.047
-354.83
-352.374
-307.503
-171.324
-162.017
-244.543
-423.177
19.3174
530.118
305.844
39.8891
-30.7195
-35.0191
-45.9335
28.0534
-49.4109
-180.596
72.0937
213.067
29.2727
34.1331
100.445
38.6828
-6.79404
-45
99.8713
274.161
104.552
-272.037
-283.918
-258.841
-349.636
-269.506
104.838
300.959
210.644
187.002
214.516
225.397
132.925
4.89286
-132.338
-166.469
5.3209
253.425
253.695
124.166
-104.51
-239.774
-101.081
73.8544
207.09
47.5015
-82.2606
-149.389
-224.354
-297.36
-265.789
-103.967
51.2918
73.8256
54.3349
12.7586
-44.8706
37.9137
101.098
99.2378
17.6048
-174.812
118.677
277.162
140.904
-98.4589
-158.809
-58.994
28.9988
-64.7504
-283.526
-120.363
372.793
414.992
150.909
-0.608328
-140.414
-224.247
-122.612
3.99343
-26.4658
2.26719
-48.0656
89.2446
315.115
171.689
43.67
-166.152
-207.94
-29.2554
48.3337
-18.6219
-21.6709
212.252
61.6675
-221.835
-322.881
-225.737
-93.896
-85.056
-158.471
58.3221
155.84
89.3593
73.3759
223.882
-7.3789
-171.884
-180.332
-268.587
-118.557
537.844
398.029
24.5178
268.903
380.554
379.503
253.371
27.1659
-42.6565
-149.711
-314.352
-451.167
-425.399
-228.626
-68.2413
165.201
206.717
10.8066
-51.0656
-189.202
-512.229
-247.237
137.743
122.164
18.2243
-2.23367
-42.0902
3.09927
87.7725
190.617
177.884
44.5925
72.7164
95.1044
46.311
-34.0151
32.4859
194.729
354.093
332.665
-102.991
-350.635
-342.296
-311.602
-141.401
33.0024
119.075
91.1034
91.1555
165.451
116.6
116.706
92.7388
-117.301
-75.7271
-133.286
-116.011
60.1413
242.941
218.887
-20.1716
-339.253
-593.371
-571.917
-234.449
8.06256
239.49
692.283
528.108
291.456
104.662
-10.5614
63.4586
10.5226
-275.096
-285.22
-206.354
-181.859
-115.308
-166.74
-201.308
-82.5869
-62.4584
135.721
528.928
452.574
107.222
-199.643
-59.2902
-30.3984
17.2711
34.2071
-115.996
-264.211
-270.535
-115.925
-61.7954
-241.862
-210.538
-79.6577
156.344
291.024
438.589
987.741
1034.24
267.422
-162.201
-347.172
-345.097
-201.174
-154.629
-361.239
-607.301
-533.6
-315.693
-106.41
474.512
820.291
571.397
393.625
194.805
-18.3938
-124.735
-526.727
-845.028
-472.066
-229.015
-188.465
-213.042
-153.762
-37.0642
220.188
196.383
185.302
345.786
368.129
171.248
144.098
236.283
192.016
18.0068
-58.7227
-24.7973
-109.52
-357.705
-223.64
76.6895
226.597
247.905
220.112
141.405
12.702
-73.9152
31.4408
151.918
57.6246
-160.842
-373.903
-404.816
-266.974
-193.894
-119.498
97.5279
227.11
123.778
46.5024
59.7078
-11.7509
-69.6297
-66.8431
-93.374
-91.9381
1.61069
-36.8882
5.37631
109.576
-100.633
-106.664
125.192
341.691
266.446
27.3832
-26.7548
-28.4446
60.54
467.988
278.216
-10.9788
-58.8262
-211.537
-272.209
-203.932
-89.4877
-45.698
-27.0243
-95.5111
-98.6544
-1.83481
-72.2427
-248.846
-149.002
4.36814
-64.9243
-204.482
-202.704
-180.522
47.026
243.073
255.178
198.138
341.578
406.211
451.068
387.139
110.127
-195.502
-118.708
-43.0992
-342.841
-551.926
-318.248
436.274
568.122
184.933
-19.3369
-23.3331
-39.3334
-101.68
-99.2014
-37.0579
-109.799
-238.629
-415.316
-358.804
-220.97
-3.77158
272.51
294.565
118.527
256.666
234.051
-114.862
-198.674
-139.955
-236.977
-506.925
-361.143
95.7071
247.534
381.15
316.133
284.764
251.934
24.7557
-177.326
-286.465
-428.815
-237.734
439.72
696.248
513.576
106.06
-155.676
-85.9236
37.9207
-89.1127
-275.256
-248.767
62.1795
-29.9288
-131.469
67.5615
166.14
122.308
120.619
157.964
-10.4895
-236.312
-358.019
-386.98
-298.663
-186.689
-105.839
-68.2968
-71.4854
-73.467
-68.3416
-131.742
-124.645
380.462
721.722
398.161
213.412
240.445
179.455
178.686
128.068
3.48985
-180.142
-348.862
-356.579
-421.161
-447.444
-126.805
515.248
496.82
268.488
71.7445
224.282
154.383
142.258
165.13
-40.2848
-147.637
-243.64
-371.16
-396.403
-329.389
-236.824
-88.6138
196.72
413.481
184.834
-128.282
-347.845
-96.6492
90.6291
73.5748
-176.766
-349.416
-401.448
-420.61
-268.693
-29.5644
280.08
736.708
792.841
561.443
480.969
269.39
-61.1106
-215.651
-62.4897
49.9969
40.0506
96.0509
-23.5845
-163.224
-282.085
-261.056
-237.818
-47.1973
71.6642
-2.56423
99.5478
-115.953
-326.827
-239.488
-362.555
-418.67
-290.374
-110.278
416.281
647.205
708.554
712.065
552.552
252.85
27.7165
-121.629
-264.893
-311.349
-159.734
-85.1711
-374.135
-540.591
-278.581
-85.0837
114.224
287.674
206.248
-18.5433
-169.384
-208.647
-330.074
-332.311
-179.231
62.3008
297.804
136.404
33.0017
-113.89
-180.156
13.5116
246.948
534.714
481.485
288.15
191.696
177.883
161.775
77.1891
-146.801
-396.576
-504.55
-189.997
-17.3775
-1.45456
-82.6377
65.4662
195.578
271.184
248.65
106.004
22.5139
-252.778
-480.771
-469.776
-394.389
-92.1516
463.058
633.925
428.533
234.102
13.7071
-321.59
-319.081
-202.161
-121.905
-38.3971
-71.9431
-104.755
-147.889
-336.508
-324.53
-167.545
-45.8804
328.091
836.18
556.907
102.118
-53.1885
-53.6851
-40.5892
-143.937
-140.098
39.5902
96.1241
6.69523
-67.4462
-26.6575
55.5887
127.058
251.739
0.18657
-144.26
18.6737
81.702
-147.052
-80.5288
-33.3926
-124.475
-126.301
51.479
133.86
-66.6656
-302.811
-395.04
-374.803
-319.051
-62.0078
459.27
651.123
493.18
394.875
296.663
153.756
-138.951
-388.219
-409.702
-389.308
-260.822
-107.008
11.0374
164.961
225.085
160.223
246.813
308.366
214.436
-25.6476
-316.151
-342.898
-118.738
98.395
41.6557
-73.4109
-94.5797
-87.002
-108.116
-101.075
14.2407
-7.09094
27.5314
32.7888
107.091
244.814
108.956
84.3113
118.197
0.134419
-74.6635
-183.979
-215.689
-266.152
-179.901
356.759
434.391
250.245
103.706
-53.6573
-86.5095
-4.5884
-89.1318
-157.858
-126.519
-59.7973
76.4621
84.8692
106.397
207.699
108.932
7.66412
-161.094
-164.831
-130.847
-400.21
-372.162
-173.204
-94.041
18.3114
104.422
80.8058
101.374
120.329
1.01113
58.7317
257.463
179.058
140.979
205.325
215.353
-52.4243
-279.028
-206.294
154.935
501.168
423.499
127.43
-43.2
-156.614
-196.452
-202.6
-268.05
-237.309
-135.476
-151.762
-274.635
-144.998
-78.4778
-210.63
-159.312
128.599
299.032
133.689
-57.7006
-277.062
-267.421
101.703
529.065
299.277
258.921
412.977
318.477
194.6
59.4038
-126.403
-149.262
-191.256
-214.475
-116.247
-204.635
-222.445
43.0013
316.598
237.746
78.0344
74.3641
-159.945
-345.132
-177.314
-248.095
-300.607
-130.144
-110.312
-41.3288
112.338
78.8681
49.2773
175.165
236.419
198.526
80.0865
-163.326
-72.381
276.091
164.635
-84.8848
-41.808
-58.4863
49.7904
110.756
75.0228
81.7266
77.0728
-7.49757
-135.178
-222.975
-108.846
157.785
185.356
178.474
162.871
124.416
-4.19268
-207.171
-279.907
-231.644
-224.151
-235.152
-171.705
-99.4444
-54.137
-58.1776
182.712
269.996
284.282
276.249
254.012
-89.412
-243.294
-182.703
-69.0584
68.3626
31.2051
-107.809
-57.6453
-40.0264
-79.8272
-58.2211
26.4233
81.5709
110.664
84.7246
-43.6979
-63.6465
71.2941
257.851
102.533
-100.887
-204.351
-150.629
26.848
125.196
226.5
203.14
36.0838
-19.9004
8.85718
113.058
90.7025
-80.8889
-217.451
-136.166
-127.925
-137.75
-184.838
-310.105
-204.183
174.14
343.16
213.497
71.1047
-194.472
-639.352
-359.526
473.33
463.556
332.272
132.38
61.5985
-3.3837
-160.831
-72.4106
185.217
243.771
134.503
118.115
-8.14667
-233.381
-147.237
6.13552
-98.751
-35.4475
143.997
6.03611
-320.928
-274.825
-235.673
-175.477
-133.587
-69.9895
54.0048
54.5252
-16.5366
77.1362
205.819
94.5968
-3.24346
-30.1299
-69.5056
-63.1629
225.44
363.889
339.386
324.28
142.146
81.5762
101.333
37.2481
-68.9383
-79.0263
-171.384
-325.7
-296.287
-190.804
-196.619
-126.048
-5.53575
-16.7147
-108
-128.191
-157.147
169.792
205.198
53.548
100.982
317.286
214.431
47.432
-3.6975
-20.2962
49.9399
90.4762
-0.0462965
-126.662
-115.909
-37.3223
-50.6184
-53.7904
-52.9534
-67.909
-106.591
-289.064
-101.924
-23.0298
-142.245
-173.661
2.55551
130.121
179.172
165.353
143.893
183.132
190.47
157.519
118.134
118.329
153.492
166.534
118.188
-45.3096
-106.354
-229.602
-402.926
-403.771
-154.273
163.382
163.168
14.5846
51.5686
142.411
47.5261
-81.41
-137.754
-148.436
-12.5475
86.8228
60.2963
173.947
17.3121
-146.316
131.022
370.623
373.228
237.232
-38.0217
-384.006
-461.282
-339.973
-286.566
-222.249
-51.5483
41.9639
92.0171
67.0993
-160.597
-217.483
-51.9902
0.7048
205.651
396.61
234.444
13.9032
-63.3629
-76.387
-61.3174
-33.4736
-35.8763
-5.4395
8.58032
125.271
192.006
153.783
204.428
162.445
54.2831
-25.6347
-51.5216
1.99107
158.535
269.28
251.697
76.1121
-58.6269
-95.9357
-198.208
-377.12
-472.386
-242.083
-26.4911
6.70237
41.1605
106.573
17.8125
-84.1006
-47.3051
2.35525
-20.9109
-84.512
-137.515
-177.18
-207.806
-118.215
17.815
114.524
144.257
64.8261
106.992
55.6126
26.7394
227.766
263.112
16.6367
-64.8767
23.8535
81.4195
122.089
116.055
70.8921
29.5192
7.50416
-98.4582
-149.378
-118.578
-90.767
-37.4534
163.555
269.201
138.26
-28.2431
-229.982
-340.389
-151.858
-44.3086
-30.5028
141.508
113.912
34.2513
53.6105
42.5139
2.44033
-34.9134
-68.7048
-78.7109
-61.015
-27.927
2.16411
62.6629
73.0019
-58.1738
-204.544
-116.592
41.3064
88.7479
265.535
128.354
0.330443
88.0007
49.3047
-29.9962
-23.5049
-49.219
-96.9204
-119.627
-118.405
-87.2631
14.8592
67.1861
148.693
169.844
83.5809
16.981
-80.731
-123.886
-168.663
-189.884
-204.633
-81.6608
91.1027
125.72
103.809
103.809
129.16
176.991
186.36
132.004
1.50278
-95.7715
-134.82
-92.5349
-26.7129
1.77305
13.2961
4.44683
-40.3682
-10.56
98.8633
32.3029
-136.962
-211.863
-183.177
-109.395
-98.9113
59.1753
241.658
232.847
171.335
69.8878
31.6733
22.8911
-5.26201
-56.0809
-73.5902
-50.212
-15.4815
-11.2612
-59.4223
-196.878
-137.797
45.5357
152.029
245.153
283.082
9.30036
-124.464
-98.6305
-122.608
-111.252
-110.507
-88.2081
-55.4356
-6.57852
34.5925
28.7446
-17.0874
-19.419
41.9523
107.379
102.053
50.0118
-11.4386
-94.7229
-85.2539
23.6786
15.5766
9.20954
9.32861
21.1268
29.2633
40.8122
55.2537
61.3015
46.9939
21.2464
-9.09275
1.04586
52.0753
78.4031
56.4424
18.5707
-34.3979
-93.1869
-94.4404
-53.4341
-51.8538
-22.426
0.945607
-26.1354
-49.8219
-39.163
-23.9382
-3.15034
6.21778
9.83178
3.63883
-15.2009
6.23636
34.3578
11.8685
-18.4662
-29.059
-48.3888
-9.81864
65.836
78.5031
44.574
64.65
55.1976
-77.4478
-166.408
-72.3901
59.7986
51.9346
-45.7514
-88.0526
-118.514
-136.367
96.5701
325.281
228.159
173.824
127.833
41.7075
-39.3842
-96.4679
-126.918
-154.85
-137.417
-42.5162
21.5568
-3.60165
-47.3654
-31.7892
22.598
34.7642
40.6426
57.139
-94.6194
-217.404
-124.369
-44.9396
68.3373
180.33
109.28
39.2545
35.3141
23.9744
15.6088
35.7535
52.9028
27.3398
-8.1766
-8.08019
8.37154
18.2049
52.9611
68.0976
32.598
-15.2273
-3.83982
-39.6079
-124.762
-182.651
-136.493
-84.0428
7.59486
95.095
30.8359
-3.23384
-11.6619
-26.7712
-31.1651
8.9577
97.4434
130.216
137.48
42.9143
-24.9349
-31.4255
-16.0829
-10.8018
-25.6035
-29.8504
3.57202
31.303
24.6013
-33.4367
-105.444
-165.023
-129.548
42.3909
182.274
172.226
107.296
133.829
-14.2404
-232.491
-184.817
-88.9429
-69.0872
-51.4464
-5.61599
26.9389
59.1751
72.5288
58.1475
73.1757
142.193
186.108
53.8659
-81.781
-182.835
-240.801
-165.676
-111.293
-62.4074
139.635
211.266
116.569
72.1673
101.055
145.04
69.3403
14.3231
-12.3292
-32.3938
-60.6169
-54.6414
-38.2377
31.5559
52.9001
52.2625
-6.03795
-95.9347
-121.425
-50.1734
-23.9976
-79.1395
-124.731
-101.267
-74.8211
-44.8445
128.937
77.2979
26.0785
63.9676
57.9692
2.31878
12.6345
66.1298
25.305
-48.1961
-10.2971
23.5491
-52.0882
-55.8385
20.0033
72.9033
122.092
118.948
32.7557
-71.8518
-122.074
-124.661
-130.286
-182.144
-174.157
-90.8673
55.5013
117.001
50.5938
-16.8585
93.533
163.063
179.464
139.344
104.646
63.4275
41.0644
39.5186
38.35
2.68949
-66.1802
-23.5695
-9.85855
-23.7519
-3.76968
15.2619
-39.7153
-84.8911
-64.6985
-12.5219
-36.2474
-88.4249
-79.7111
-12.4582
-0.17667
-18.7442
-21.4225
-19.6843
-18.9983
-27.8222
-48.6411
-18.5064
14.5357
58.8485
87.0807
30.3761
-20.7194
-20.5592
-4.01652
23.2919
12.6565
-7.10821
-17.7099
-10.7225
-2.9161
-1.4834
5.50382
10.0743
16.8268
13.1199
-43.0387
-55.8542
-26.1886
14.726
161.727
211.292
44.236
5.8718
-2.48657
1.38796
-12.2856
-27.8372
-26.4228
-47.1635
-67.9948
-60.1487
-38.9623
40.6591
38.7349
-6.26759
-6.08209
17.6607
-0.906239
-14.672
-98.5299
-78.4899
32.1598
22.1024
8.08989
7.82315
14.2589
-7.96378
-33.8706
-7.21292
44.7091
64.1483
49.6238
5.65946
4.38496
41.3313
57.7376
49.8952
25.8806
-15.8922
-97.8584
-124.809
-99.4044
-48.9158
-13.8541
-6.59602
-1.83853
15.7572
39.9375
41.4317
19.2987
19.454
26.9719
-2.07875
-42.1646
-54.8463
-67.5454
-40.4406
90.2349
168.333
267.953
202.752
61.8986
-46.9498
-102.249
-192.12
-221.257
-119.933
-55.5499
-43.0128
-40.87
-26.5631
-14.4956
29.0503
146.188
146.307
-10.9703
-80.9848
-101.645
-28.4864
84.0513
12.7129
-9.24965
18.7111
52.7558
75.2528
37.446
-24.5513
36.9086
84.9198
49.1685
0.206327
-30.1
-72.059
-92.5151
-86.8678
16.4587
123.444
87.9434
-25.4562
-162.185
-117.63
-33.3906
-18.3102
-5.91848
36.6907
74.4783
63.6885
7.70713
-23.4426
-13.0268
1.68397
15.0717
24.9987
4.87653
5.97805
28.4333
1.42336
-20.9253
-38.5902
-71.2724
-16.6023
27.6685
32.6687
28.128
13.2502
42.9361
42.9347
31.7689
2.96402
-12.9932
-8.7347
-27.1792
-47.9682
-22.9406
23.8285
54.964
39.7744
3.2985
-23.1042
-45.905
-38.4309
-35.475
-50.1197
-45.7463
5.70148
30.5642
26.1643
4.84174
11.1377
10.0638
8.98977
27.5105
32.3849
16.1656
4.72692
7.73033
-1.97819
-18.7434
-34.9452
-29.0805
6.01958
21.5849
-0.686559
-35.3086
-8.75467
2.25288
-5.94826
-5.94722
-31.4157
-55.6018
-23.8368
22.2291
131.911
142.939
23.5676
-50.4551
-67.2192
5.46772
-34.2642
-6.52514
22.7915
-16.6306
-45.3331
-93.2552
-96.2599
90.0057
-21.4281
-25.0421
66.5126
76.4487
19.4385
-10.9094
-40.2191
-51.9051
16.2933
105.545
193.343
144.865
75.9548
-6.28586
-67.084
-66.1983
-29.697
2.94212
-6.81706
-75.3233
-1.90222
-11.7923
-52.0936
-58.3848
-74.7165
-70.0369
-90.2756
-97.2958
-80.3008
-72.0539
-57.9172
19.552
43.8247
-4.8214
17.2808
49.3297
67.0788
93.4714
84.2257
21.9496
49.045
47.9494
36.8234
54.5665
67.946
78.6271
60.827
37.639
44.5097
31.2311
-26.1012
-100.972
-70.3543
-23.2665
-15.4807
-5.79683
-45.3121
-43.0032
-0.497103
-22.9425
-18.5404
-24.1923
-21.3363
-1.43104
6.51633
4.28945
-1.36612
8.17365
28.7558
6.14735
-30.8208
-50.3102
-33.6867
7.83204
31.4119
-14.9973
-17.6143
-30.7329
-48.9066
-43.5339
-28.9056
-11.9523
11.4193
7.44094
12.5205
28.2447
21.4037
25.2212
32.5352
32.5691
24.3053
1.11897
-8.44712
-12.2874
-10.2712
43.8126
44.7831
49.9868
45.0369
28.3546
25.8542
17.9828
9.24654
1.94192
0.0052997
0.0138673
2.82357
16.9554
13.7815
-20.5619
-52.246
-38.2473
-11.6699
-1.26712
-17.0733
-47.6481
-31.9498
-36.0141
-54.3472
-47.12
-27.0035
-22.1559
-23.4442
-6.41885
12.0842
29.5903
21.5191
6.64252
0.454
2.97454
21.8037
18.3765
13.3311
15.6465
33.2517
-3.13664
-82.0604
-42.3859
3.99638
60.9551
189.466
85.8398
-17.1706
-34.834
-34.3311
-17.4661
9.31441
30.262
11.418
-19.0126
-29.0305
-28.728
-22.2033
7.77812
21.1833
24.9352
57.6603
18.9146
-22.7808
-45.7637
-128.794
-74.9744
-19.3345
-4.15833
19.9323
35.2705
28.8813
5.78386
6.46136
30.2305
21.9276
-6.56781
-27.8842
-55.8925
-57.5325
-33.6383
-0.424381
12.5158
66.625
94.4666
34.5971
25.9345
31.2775
18.3793
-8.49983
-39.7079
-59.3011
-34.3707
-32.5047
-8.28623
11.429
17.865
-7.08902
-9.64841
24.1926
21.2013
20.6542
14.2643
5.90289
7.30841
13.4175
26.2134
13.836
26.117
26.8223
-48.2496
-62.6073
-35.1751
-27.9118
-15.5444
-4.50623
6.63318
2.41125
8.62923
5.02868
4.06797
9.798
11.384
-2.22111
-5.4756
4.93834
18.0352
20.5056
18.8196
2.86317
-55.0933
-74.8844
-39.6415
36.0791
28.4334
76.5462
68.341
8.69781
-9.72979
-13.4106
-40.4491
-79.4019
-68.5035
-21.2563
1.72825
18.5819
18.7786
14.3109
28.173
36.8471
9.41642
3.68774
5.40017
-25.6177
-23.1981
-59.6528
-39.9825
19.4711
29.7574
13.8416
32.0393
77.2914
82.3952
49.1372
18.0922
-4.85669
5.89875
13.7641
7.54255
-4.59682
-3.69208
-2.43842
-40.3253
-113.902
-135.546
-103.013
-55.1619
2.04026
22.7878
37.4835
36.4289
28.8468
31.1279
25.7792
21.2516
-6.23006
-14.5122
2.10468
18.7739
38.392
42.1241
6.15003
-6.70179
11.3869
26.7842
2.44859
-16.6553
-27.6946
-12.8766
65.6259
43.0706
1.58544
2.26291
5.56495
-3.605
-23.824
-32.8729
-54.9294
-50.3878
-18.2428
-33.2534
-18.0246
17.3701
36.0973
10.4526
-30.1092
-7.58024
22.9753
34.7452
-39.6197
-25.0921
23.4529
-4.05634
-12.6482
-3.05485
9.95218
14.584
19.8
14.3409
0.401153
18.4378
26.2887
20.9347
6.13052
15.2762
29.8334
6.79404
-19.5258
-41.3593
-43.019
-10.4129
8.74258
24.9952
-3.54565
-21.729
-12.1115
54.6599
85.4105
-16.5998
-71.5258
-65.7926
-56.2388
-18.1581
24.4459
23.1387
12.9288
25.9189
21.5072
-1.72677
-3.36793
-17.4334
-24.0435
-8.74075
17.8237
26.4101
22.2765
-13.9089
-38.0153
-0.00927988
19.0152
15.8942
-10.053
-25.7954
-26.9885
3.86206
45.113
25.0466
-8.64962
-19.8301
-15.9555
-7.86604
5.8706
15.9466
12.2312
21.5161
30.5327
5.08248
-11.5691
9.7705
23.115
24.3496
2.50461
-36.6615
-53.6158
-32.266
27.3531
-0.90347
-28.7446
24.8409
11.5272
-13.7545
2.84839
1.37242
3.43984
1.17063
3.48249
5.39264
6.03861
6.54918
-19.2484
-35.4851
-13.8478
10.5364
4.93772
-24.3709
-48.6116
-13.6448
10.5471
53.7486
82.802
9.35416
-42.077
-24.66
-0.659122
13.164
-3.60715
-11.8948
-8.99862
7.78199
25.3538
16.0315
6.40407
3.65483
-0.908169
-3.12886
-11.7934
5.26585
29.3383
-18.7725
-34.2267
9.21568
31.0957
27.1735
15.864
-2.26538
-7.49473
-9.50393
-18.1848
-27.3798
-12.4716
20.0687
30.2742
9.99658
-0.0368122
-4.29417
-29.7433
-38.9193
-42.09
-48.0521
-30.5846
8.20986
22.024
1.08606
8.17388
6.53959
8.18711
12.723
9.05323
7.47372
11.4505
9.84543
6.21346
14.4978
4.80034
-5.66298
4.49306
9.76126
16.2709
22.2497
10.9883
-25.8256
-11.0202
25.8672
12.8763
13.0727
21.8952
7.11739
1.93223
0.121008
-10.002
-5.41495
-3.58437
-2.92163
2.59503
6.82713
-23.6409
-62.0837
-36.0143
-27.118
-50.3805
-27.8437
3.6441
1.60438
17.4239
27.7427
33.583
36.6609
21.1146
17.6594
16.6149
11.3807
-9.48
-18.9643
-25.8446
-27.8969
-0.25345
28.2891
1.54823
-2.36736
25.5042
25.2293
9.27563
0.929599
10.3757
25.2281
3.31172
-22.1937
-24.6811
-26.2182
-27.6571
-17.3044
-20.0168
-27.8124
-22.7356
-3.46798
11.0518
24.7183
4.15818
2.92678
14.6574
9.70952
15.1383
26.2114
16.4712
-18.8803
-43.5846
-34.7779
5.8926
24.3941
25.99
33.1815
42.5634
23.0716
-5.64897
-9.30927
-5.81033
-13.2608
-9.50055
-9.07333
-9.20816
-7.20262
-4.66938
-2.73281
2.77818
13.5511
18.858
-2.01871
2.60146
-6.34083
-28.6159
-20.6029
-20.515
-17.3725
-8.96943
4.95283
24.1034
31.473
26.2028
14.2619
-3.94664
-34.1373
-12.19
3.18541
9.10293
20.5091
19.9763
16.2361
-2.62647
-27.113
-22.5939
-2.9701
-21.0354
-61.2385
-40.4796
-18.4209
-8.09436
6.16039
17.2717
24.7167
29.9412
42.1496
37.5307
35.586
35.2483
13.6547
0.340967
-19.7243
-26.577
-0.357694
8.64812
-9.16907
-5.32039
15.9798
-4.02843
-24.1605
-33.9545
-23.7431
-26.7771
-19.4309
-11.9755
-6.40859
60.4769
62.2939
4.67084
-16.2946
-22.8306
-16.7171
-11.4042
19.2547
67.1356
7.82732
-15.5409
22.4902
23.6819
-16.2955
-37.0035
-37.5998
-21.2247
-14.0095
-11.5995
-2.6419
-26.5694
-18.3981
4.28983
14.0014
25.8139
27.4933
15.591
-11.2394
-28.248
11.5701
11.5504
-10.9807
6.08202
5.14554
14.2944
31.1029
25.5761
14.2796
15.2134
2.03061
-39.3591
-51.7347
-61.5476
-30.9719
10.1637
35.2914
42.2136
36.258
12.8402
5.27921
5.42745
5.73272
-9.45587
-6.20354
-6.36046
-9.56393
8.31258
22.6772
5.01741
-9.25576
-26.0411
-45.6938
-1.99802
31.3385
11.3408
-14.4368
-16.2073
-10.7306
-17.819
-10.6304
4.9001
0.505833
-2.97803
9.92183
14.9039
-0.488315
-15.3864
-14.987
-10.7999
-0.96229
16.1469
37.7364
45.152
26.7922
27.2871
13.114
-7.63461
-26.5397
-21.6334
-4.31197
-11.6429
-20.1604
-23.0641
-21.0424
-19.7646
-8.26745
7.77373
11.108
23.6649
23.4426
8.83496
15.6971
18.3272
9.64353
0.399746
-19.2725
-19.2133
0.642413
35.6561
-5.82352
-28.6652
-24.3823
-20.0755
-16.6731
-4.14443
5.56204
-1.93328
-7.30518
-1.85626
-7.45069
2.08931
8.06729
11.2681
20.5186
34.6968
58.3196
40.5355
-6.51353
-46.4011
-13.3849
9.01774
8.13153
-1.78418
-29.35
-60.1801
-32.8095
-13.8415
-29.265
-33.6715
-25.2171
4.61815
113.758
102.252
35.6305
3.13422
-20.1597
-21.046
-4.38169
-0.755677
8.6177
3.16128
-17.5999
-48.7544
-37.1424
16.3793
12.6819
-2.85748
5.74054
3.70572
19.1686
16.5737
-53.5109
-54.2974
-40.2519
-60.0796
-13.305
57.1073
98.4369
121.114
62.0333
34.1238
-0.193182
-17.1219
-44.216
-89.1409
-75.4988
-15.7846
11.3885
7.76086
45.8272
19.9224
-21.8013
-41.8616
-13.2402
30.5939
16.2608
-18.0574
-45.3892
-51.2445
-15.0269
1.40823
2.07709
17.5783
45.9921
72.7291
72.4269
34.7763
10.2295
12.9542
-21.1863
-27.8253
-7.41099
2.79383
4.65928
12.1798
8.94901
1.06549
-15.215
-59.6638
-81.2545
-61.9413
-20.9842
5.89853
17.6441
23.3833
1.77913
-12.9533
15.5198
44.7616
23.3731
-3.60368
-12.1422
18.3628
33.6182
14.6312
0.848214
-11.0692
-33.1527
-37.4863
2.41473
21.0914
21.0364
17.3273
-0.961142
0.764958
15.6879
2.40202
-7.64412
-10.7734
-16.3701
-10.8888
7.41832
2.85006
1.26997
2.58192
-3.26496
-2.06019
7.03921
15.0405
40.4308
38.702
-7.452
-18.2407
-17.7706
-30.1425
-47.6213
-38.4568
-12.6302
9.72121
-16.5853
-53.0366
-36.312
-31.3708
49.0072
148.088
68.577
30.5097
46.6341
23.919
-61.8455
-61.3195
-20.8897
-18.3388
-35.3213
-28.853
-30.59
-8.01456
12.2947
3.64974
4.04601
25.9573
32.8873
39.7679
11.5892
-44.7663
-9.04365
2.56497
-5.88462
-10.7631
27.1373
32.9698
15.1834
7.14453
21.5256
4.83023
1.06308
-2.07456
-18.4965
-19.7645
-9.92119
9.19418
14.3967
-1.56881
-14.318
-37.0874
-22.3675
-16.0839
-22.1999
-10.6811
7.88797
14.4407
22.2836
14.0094
-2.12075
-9.37195
-9.34485
2.14909
8.31128
12.1162
22.1838
16.0199
5.01527
-18.3583
-31.205
-16.3859
2.1885
8.21601
11.1735
15.0874
22.5366
12.9106
-12.4856
-14.041
-11.7599
-6.975
10.6561
16.8667
1.06639
-11.2656
-4.91769
-12.611
-8.65843
24.9034
30.9637
28.6699
19.8763
-7.58427
-44.0851
-51.325
-33.3231
-8.35259
2.6304
32.1697
40.1193
-21.8014
-7.81223
7.74606
-9.3371
-11.8963
-0.435928
3.32875
1.71966
13.7703
4.67178
-13.8792
-4.78399
0.159427
6.93444
4.66417
-16.5636
17.1788
65.6563
18.3204
-28.7778
2.54122
-8.99801
-30.3378
-28.8717
-10.449
-3.026
-2.53809
4.76715
20.2071
19.5304
8.82638
1.02434
-5.18433
-0.114115
-0.10518
21.8179
14.3106
-26.3253
-42.178
-30.3924
-9.66649
-2.96239
17.7046
14.4208
1.0227
7.86738
10.5728
8.64686
17.5683
28.1028
26.5565
22.5264
-6.79695
-33.9588
-14.4797
1.43919
-6.46521
-23.1739
-24.1131
-21.6465
-16.0675
4.43599
14.7937
-7.65296
-36.5523
-30.0395
-5.7742
10.9346
24.7983
72.4627
34.6009
1.49793
17.7066
43.5162
26.3565
-11.2491
-29.8604
-31.1949
-11.7563
10.5471
7.92747
-25.0881
-41.7946
-26.6696
8.90918
10.0911
-9.3224
-10.1171
-4.07707
5.36978
14.016
9.24527
5.57508
6.09766
0.358281
-0.208984
2.70755
-2.053
-5.89033
-18.606
-21.5699
-9.49138
17.6579
35.8685
27.9303
8.57432
-1.72975
-12.6958
-15.9682
-22.7569
37.2765
34.8658
-26.3944
-16.6668
-2.60308
25.7082
9.26307
-26.2342
-43.3989
-41.1954
39.401
59.0619
2.97764
-2.0897
8.35972
13.6975
11.0725
4.81749
-10.8823
-48.9572
-46.9094
-6.47252
34.1736
4.38705
-0.253077
-7.43567
2.97781
21.1595
2.38579
-3.92107
-34.9547
-41.0179
-10.9424
7.14411
33.2241
39.8867
23.9157
23.0683
-13.5552
-54.4386
-35.5498
-2.23382
27.2007
34.8549
7.67208
-15.7373
-10.534
18.3781
34.9823
16.7501
-23.6713
-39.403
-6.37525
13.8273
8.59975
2.21071
-0.484988
6.79382
43.8483
51.4763
5.10344
-28.6891
-33.8409
-18.559
7.01869
1.83003
-8.05924
-4.91695
-37.3512
-16.055
-10.8058
-8.31963
0.408856
0.511507
1.40591
13.3829
10.6656
-26.2169
-34.3121
-15.072
-7.24304
6.48118
11.0273
1.80103
-11.0667
12.1454
52.9654
52.7487
41.1268
-4.62675
-29.3863
-11.4522
-8.58399
-37.8905
-50.5283
-59.7868
-46.0582
39.7006
30.6715
38.112
145.558
203.047
75.8227
4.27279
-50.3937
-74.6416
-107.673
-106.98
-21.0654
86.0659
80.6262
-7.50534
-88.0228
-90.8212
-58.958
-36.5689
-40.3417
-36.4175
16.0134
24.7533
-37.8629
-66.8813
2.4341
44.0103
67.5383
57.5505
47.5408
37.0116
3.69601
-37.7765
-31.9239
20.0635
62.6335
69.6394
57.6605
37.3656
27.9401
8.8791
-4.15819
-11.6384
-38.6415
-71.0142
-40.769
-16.1807
8.87981
25.2041
13.2035
-15.4283
-38.5601
-49.7641
-48.665
-37.4051
-0.170994
20.2184
7.58513
15.3674
9.23315
-37.6354
-9.55938
1.48501
-8.43106
-1.33933
-13.4765
43.3276
69.515
26.6238
49.6057
56.6271
6.37642
-33.2302
-33.6496
-19.1496
-3.67422
9.02302
-3.06715
-9.67868
5.7798
-10.0023
-32.4643
-3.02457
16.6862
8.94186
5.35674
-26.2976
-37.7027
-5.2135
-29.5453
-18.8913
5.60567
7.583
7.49368
-7.84203
-18.3584
-6.01369
40.4705
70.5574
16.2883
13.6299
51.0918
50.4223
72.076
12.6894
-63.6486
-75.0296
-32.1262
-16.8008
2.95116
-31.9623
-55.9301
-42.0679
-19.8441
8.38284
21.6702
2.83412
-17.3911
-21.5495
18.9536
43.2865
52.5633
57.3534
17.583
-15.2236
3.65994
6.73479
-14.8703
-22.8844
-17.0982
15.5835
14.9944
14.9954
7.89059
-13.3887
-20.6509
-5.74431
10.754
17.3558
25.7451
-14.4256
-50.8496
-59.2356
-50.3885
11.4233
55.5562
40.6266
13.107
-6.48015
-38.2725
-28.5365
6.024
11.6399
-4.07719
-9.28242
-12.7713
-6.6012
8.9615
-12.6746
-11.859
-3.34408
10.6553
4.54024
8.28808
16.7157
34.1578
92.1385
29.8667
-16.5869
-11.1284
-5.69005
-9.58859
-22.685
-26.2354
-9.9591
-6.74421
-0.957538
-8.50974
4.16428
4.1685
-2.66612
-3.80825
-8.40103
3.02306
19.4661
11.117
-38.5988
-22.6241
-18.4019
-18.0109
22.4223
58.2386
69.477
1.85688
-0.603365
15.1304
-2.26473
-50.4385
-55.2907
-22.399
-6.26156
-3.86368
18.6647
26.9191
79.5974
32.9828
-97.4887
-87.8794
-35.4876
8.94019
25.6488
7.18782
-9.85671
22.5813
13.1429
-15.4782
-17.3459
1.35781
19.5594
14.1347
25.8946
75.0909
79.3738
19.3363
-53.0106
-38.0233
32.7727
37.9829
23.2922
11.5012
-31.269
-69.7642
-74.7335
-57.312
-34.5968
-2.14316
20.9226
32.8808
17.6791
5.63402
-2.76456
-23.6718
-29.3338
-9.52524
1.62777
25.1153
33.1306
30.9114
12.8036
3.92976
12.3326
-7.57813
-53.9975
-55.1019
-35.273
31.0362
111.642
61.939
16.242
0.410433
-16.6276
-22.701
-19.3212
-4.84845
2.22482
-7.55005
-17.2798
10.4726
23.769
0.258869
-12.848
-0.180495
17.379
-7.98302
-39.0699
-60.2786
-108.967
-69.0976
32.7584
32.1852
2.48202
5.13954
10.4739
18.0915
46.2824
52.6297
25.71
13.2664
-1.89019
0.910685
21.2074
31.2962
34.4986
50.5485
23.8839
-33.8791
-48.1004
-10.0761
-25.3314
-13.7233
6.95127
11.0456
15.1386
14.721
5.43874
6.23828
3.78425
-16.2896
-30.4385
-33.8448
-32.9132
-23.1954
-4.79865
12.5369
7.56611
-6.28902
2.61428
-13.0838
-30.9923
-22.8499
-11.5294
-7.64281
27.8857
51.8542
5.01816
-18.2733
-7.92071
-9.18838
-4.12832
3.26619
20.736
25.7184
4.75126
-5.25394
8.23493
30.7392
26.5576
-5.14661
-13.9728
0.428994
-0.832725
-20.6101
-43.9522
-36.8073
2.75235
100.557
73.4467
-61.8371
-89.5298
-53.711
23.4076
126.237
77.0671
-17.8026
-75.787
-84.5539
-56.8564
-1.23869
9.12832
11.5556
32.9929
35.3165
27.778
16.39
16.0853
-32.4445
-7.73972
63.3939
66.544
26.0865
-25.6223
-37.3524
-21.4931
-64.039
-4.37772
28.9792
17.1519
0.301011
-9.89083
-10.0653
0.565886
14.4112
15.4872
-7.68388
-30.8239
-55.5228
-39.2679
6.81396
22.4664
16.7029
3.45002
-67.8167
-61.6204
33.0332
27.781
-0.559925
1.65638
11.0654
19.736
24.8043
11.4852
6.28909
6.80165
11.86
15.4578
7.94051
-4.93451
3.139
9.10913
4.23879
-4.32441
-12.334
-9.58538
10.0127
8.48666
-1.37462
-9.6335
-13.7859
-9.12188
-2.07352
-9.36642
-17.4963
-5.92272
9.94574
24.3435
33.398
22.5408
18.4957
-5.42113
-29.6175
-25.3241
-2.96371
13.6987
-14.5936
-27.6571
-33.6008
-7.20351
13.0292
17.1944
23.3412
36.7683
31.0381
9.37806
-6.12055
-5.10018
-14.36
-35.5017
-31.9315
6.07332
44.1423
62.3281
28.0384
-53.1692
-62.9759
-46.9887
41.8356
50.7687
-22.2251
-24.2041
-21.8469
-27.9994
-23.6796
-1.83154
4.2414
5.96226
15.2759
24.0665
8.93228
6.51846
-4.45036
-30.1587
-33.584
-5.32149
27.65
42.7171
2.97863
-23.3956
18.9499
21.8095
7.829
-2.66039
-15.0286
-25.2807
-0.607601
12.3261
12.4683
18.6901
27.603
30.9805
25.2833
-1.84622
-5.65603
3.02671
7.96765
-7.15888
-21.633
-17.4992
-11.7535
-22.378
-21.8565
-20.3129
-24.5504
-3.59671
1.83983
21.0869
19.5908
15.6499
-13.4611
-39.4186
-35.9966
-19.4311
30.3363
58.8637
38.3462
9.01679
-15.4276
-22.7157
-12.2274
-5.15395
3.32933
2.40586
14.8525
18.973
12.2334
4.28945
18.022
42.6836
-8.12339
-21.0763
-20.9448
-25.0397
-36.4088
-35.2919
-21.5548
-18.0337
-9.1055
-0.278913
4.71889
5.2427
8.48581
8.42808
11.8759
38.6053
39.6881
20.054
4.84217
-20.3828
9.04773
20.6853
12.2053
11.9552
2.3741
-11.2434
-14.397
-6.22744
-4.89509
-12.2709
-12.663
-18.0891
-23.1201
-7.79504
-18.9819
1.21057
18.179
18.7414
-0.768239
-14.433
6.98191
20.1545
12.1578
5.9782
16.8453
12.92
-6.44653
-25.8611
-23.4834
-10.6437
14.9618
31.8138
30.0717
3.54748
-36.2244
-49.3835
-33.8017
9.19082
6.45384
-26.576
-6.43365
3.04498
4.84531
10.4029
3.38126
-3.39346
8.44814
20.4789
7.26001
2.51914
2.91127
5.06236
6.59459
8.39614
23.2596
24.4694
13.8509
-4.10631
6.83121
26.4238
17.6299
4.97707
-7.10653
-18.8763
-19.8139
-12.5645
-10.0677
-14.1215
-21.3864
-24.4693
-12.1488
-11.4763
-11.1581
-2.01667
9.18721
4.67495
-7.58803
-11.9129
7.39202
11.7901
-3.06495
-0.373963
5.69059
4.61344
7.8056
-0.283164
-8.82397
-7.24276
-5.47029
-1.16402
-1.11692
-1.41923
7.08529
17.6219
19.7469
11.0947
8.7873
4.24915
0.105129
4.63635
10.5251
6.23273
-7.08518
-6.76347
-2.24346
-9.90271
-16.9566
-5.07698
-1.70638
-9.90951
-12.9687
-6.5775
-1.57093
-4.29469
-7.03294
4.35306
22.7821
32.3265
26.1182
21.017
6.98839
-9.73617
-6.75126
-3.86983
-2.87302
3.32515
6.00404
-18.3925
-21.6107
-11.187
-9.39992
-10.956
3.40249
10.2833
7.58513
1.06301
-5.97389
-3.88797
3.35054
7.00042
13.6766
-7.55464
-10.8808
-24.8415
-18.678
-5.86872
-20.381
-30.74
-6.36518
12.7744
24.7267
23.6473
29.3154
48.6937
39.6706
-16.5886
-45.1252
-32.6387
-7.23327
11.3656
14.3875
29.5893
15.7895
-2.71078
-10.9211
2.99959
13.5921
-0.866828
-1.72793
4.05714
-7.3768
-11.563
-2.42794
3.57062
13.5764
33.6327
7.38237
-40.7959
-47.1845
-27.4318
-5.17931
-5.46893
-2.73324
10.0449
-2.3713
-17.6747
-7.64548
2.38884
14.2549
25.6873
20.4145
-2.32705
-23.8028
-9.40942
12.5427
9.49317
19.3063
18.1413
-4.27984
-13.2877
-20.0309
-23.0342
-8.46092
21.065
27.5167
18.8026
24.0541
26.6325
4.98766
-14.3549
-43.0969
-36.776
-17.0082
2.44837
73.4923
39.1259
-12.9935
-3.38789
-9.6205
-34.9382
-32.7449
-17.8304
12.0987
29.6298
-1.61642
-24.1776
-27.0877
-32.8141
-13.6396
3.10182
27.7944
54.3954
49.9621
14.1265
-43.7408
-35.5605
-13.8315
-3.1025
-1.96169
9.89975
13.3995
11.8341
-4.51241
-18.1897
-6.21008
9.10574
14.1933
24.2867
23.8205
12.8844
11.8632
10.8485
16.2978
2.67095
-33.4765
-29.8763
-11.2603
-10.6897
-5.77894
-9.67834
-15.0417
-11.9382
-12.2624
-8.20041
2.69653
11.7463
19.7367
21.4738
14.6873
9.05943
3.65629
-4.56611
-41.0478
-24.3363
2.45793
27.7333
19.172
-9.89294
-27.016
-25.8942
-11.6442
8.94093
20.9788
23.9754
23.0345
10.3753
11.8446
0.486346
-7.28649
4.99916
3.6887
-2.55949
10.3319
-9.84031
-18.8624
-10.7758
-15.3962
-4.39406
11.454
18.0069
3.11717
-12.0806
-14.1873
-4.88243
4.94441
1.40412
1.4223
3.79984
0.224345
-1.376
-13.7853
-9.63534
8.62974
8.1476
1.68758
-8.3465
6.06584
10.502
-2.67179
-1.4109
8.57864
9.80441
3.40289
-7.70391
-3.22989
1.56269
-1.0971
5.327
11.6285
7.54987
5.71645
-14.1566
-15.3053
-11.9624
-7.3799
4.32617
-3.66344
-4.63934
0.792518
1.17132
-5.91802
-19.9156
-8.0657
4.82862
-0.360388
-9.06291
-6.3859
-3.55317
12.3326
32.576
36.2462
37.3383
40.404
17.2922
-10.5537
-17.7288
-30.9992
-33.4043
-30.6248
-8.00968
10.1221
15.8781
-0.157575
-23.1571
-23.0298
-1.60163
20.439
8.69914
-0.364456
1.0997
16.8194
17.2303
-1.70102
10.1228
22.7989
22.7794
9.998
-7.34171
-25.797
-42.0294
-43.198
-52.6814
-34.8181
-20.7596
2.35669
71.7076
45.33
34.8939
50.139
30.4892
10.5914
-14.0686
-35.385
-40.6441
-38.6571
-18.6084
-2.33419
-5.07093
-16.9585
-11.9796
6.49898
39.3078
26.2456
18.363
7.75249
-52.2073
-47.7541
-7.62126
22.0063
28.7587
18.8429
4.86231
18.4171
23.1899
26.516
31.6942
8.1047
-25.0935
-28.1517
-29.5227
-24.5644
-1.63878
0.80403
-1.56703
13.427
10.3645
23.1298
12.7795
-23.8516
-19.1758
-7.55179
-8.30065
-2.48057
1.65786
3.59171
-18.1166
-25.4638
-6.23061
18.9533
28.4247
14.3837
14.0312
26.7757
38.2167
19.1546
3.6317
-7.82865
-1.99012
-10.3532
-42.3049
-37.0441
-26.6528
-19.824
-6.65578
-4.71968
5.1799
-5.56048
-30.1002
-20.367
-9.42844
0.130672
-0.737556
-6.775
-0.227486
14.3714
18.684
36.1985
39.1241
48.1901
54.6732
27.5513
2.35685
-18.3999
-24.1835
-28.4575
0.563981
76.7925
36.1277
-18.1394
-29.005
-31.3542
-26.8863
-12.2914
-15.4914
-38.4032
-40.8643
-10.4515
12.2745
9.59296
23.5591
37.7407
22.285
-7.23385
-15.6566
-21.6417
-36.8879
-56.2104
-8.80698
10.769
1.56688
4.83884
10.5088
0.245453
4.55354
17.4833
17.2804
-3.9969
-9.32727
-8.48536
-14.0819
-4.67489
17.4819
59.6825
50.0752
19.236
2.9693
-10.7783
-6.41677
-2.49407
3.32639
18.9567
27.6888
17.936
10.9653
-44.4694
-74.4988
-47.6051
-6.1749
-3.33085
-1.8299
2.79799
5.13327
2.50964
0.831068
6.42848
20.5575
15.6468
9.6677
3.26916
-22.6233
-32.7419
-23.2795
-16.6686
-0.775384
44.0009
50.1642
26.5653
1.55686
-0.808418
-1.84293
-32.1275
-21.7822
0.439642
3.04444
3.82606
4.13029
11.4053
25.2049
12.0559
-19.1401
-30.0481
-18.3668
-6.11234
-1.54132
13.9656
14.4447
-8.28329
-12.3115
-0.267434
7.84827
26.6436
15.2284
-3.47499
-4.6208
-6.22855
-12.9046
-14.278
-26.6076
-12.5829
11.6896
5.26661
-13.8609
-11.5348
-3.10825
7.27407
7.66915
1.36289
5.70514
16.028
27.1208
23.1234
7.50995
1.39984
8.5014
8.35035
0.835169
-8.69677
-9.95127
-3.1152
4.5918
-0.730726
-16.042
-33.6562
-34.2808
-24.078
6.78304
11.8841
15.7695
-9.24221
-9.36713
-0.965449
54.2337
79.5345
23.9066
17.2374
-7.2147
-33.8062
-40.3372
-25.4707
-13.4419
-1.52342
12.8302
-1.59823
-34.2688
-20.429
-14.6757
-3.10263
10.8505
7.49374
2.58578
4.30576
-11.7109
-26.1511
13.0344
7.03671
11.3082
5.77148
6.28369
11.5853
13.1414
-0.222006
1.82749
26.2435
36.0428
19.6755
-5.92023
-27.0466
-18.3706
14.6175
27.2826
14.7496
-20.4545
-21.067
-5.82153
-6.26484
4.11485
22.6095
1.86528
-31.499
-42.3613
-28.2447
-16.108
-5.9051
8.15421
10.799
5.61908
-1.19571
1.97756
14.8713
19.4447
18.8567
11.4521
-10.729
-25.7547
-7.9248
-5.18234
12.6934
16.5697
8.30244
-5.14479
-12.1706
-10.2937
-7.41219
-4.78561
5.7216
24.0419
-3.55873
0.439998
16.2453
15.1093
14.8724
-0.395489
-8.40215
-5.31032
-10.5073
-10.2154
-14.3743
-13.7734
-9.10757
-1.12863
14.2857
15.6156
-0.796251
-1.85753
1.67224
-10.7444
2.19028
8.32085
4.57232
9.95064
16.0799
12.3825
7.96536
1.62209
-17.8865
-26.0358
-22.6462
-22.2153
-7.26971
5.86128
17.7397
0.975641
-1.14749
0.105212
-5.437
-4.48271
5.6866
8.2612
9.64386
5.18119
6.86575
7.58534
-6.31817
-9.44061
-4.29305
6.88848
18.8753
18.2385
6.62641
-10.8147
-32.5923
-15.6352
7.39289
-4.58818
-0.719373
1.2301
7.48786
32.4774
43.5949
29.6952
3.8069
-28.5145
-50.6525
-26.6978
-3.57329
-11.0084
-0.694104
-1.24332
-16.319
-26.9072
-23.7991
-20.5098
-7.29253
8.55744
16.1778
17.7689
12.7104
-1.40158
-2.63217
18.7324
32.4573
38.3561
29.3896
7.58074
16.0537
20.3153
3.33577
2.58209
-8.62219
-4.03607
-5.58033
-13.5728
-17.9543
-13.8466
-16.5172
-25.0604
-21.2828
-16.7194
-16.6755
-16.2247
-3.94623
13.0461
30.3922
24.6157
-6.1693
-12.4256
-1.03009
-2.24946
-6.85996
3.77386
11.6287
-4.1589
-6.07473
-4.27825
-0.0681462
3.87329
2.48149
5.78905
9.5393
11.6512
13.2677
15.1597
0.664311
-1.80705
-1.82817
3.04728
3.48834
-3.17668
-1.90229
-10.9285
-23.714
-14.3366
-7.8111
0.559814
13.7199
25.8689
11.0696
-6.1396
1.47438
13.6821
10.0925
2.63611
2.82003
-3.39984
-11.86
-9.78269
-8.10951
-9.21133
-13.6593
-26.472
-29.1261
-13.9772
-2.47172
-0.581746
3.0034
14.8607
26.5022
29.7364
17.971
6.61951
7.63229
12.6614
10.1345
5.08038
-4.6684
-3.04372
5.22785
0.189403
-7.71271
-8.82883
-10.2086
-14.0634
-11.0626
-10.1343
-17.09
-31.1507
-30.8162
-11.6481
4.30713
8.97988
9.09959
2.08836
-1.83734
70.0466
62.4522
37.0063
22.1731
19.1907
6.10777
4.94987
-37.2806
-54.1711
-18.4644
3.59043
2.85402
-8.98467
-27.4189
-31.733
-11.4301
10.2013
1.08111
9.60392
14.571
-39.5597
-46.8442
-23.6911
16.0574
36.5175
27.0878
-24.6691
-25.1901
4.60735
10.2865
18.2893
27.2305
37.6734
23.6831
-0.981397
3.08418
-0.13073
17.2918
15.3599
3.77241
-16.8395
-15.122
-14.0576
-12.5861
-10.8475
-5.69567
18.5791
31.8505
18.7196
0.895412
-18.9724
-26.5849
-22.1033
-9.69066
13.8123
6.36669
-8.21635
0.357562
9.10121
0.179762
-20.7659
-18.0334
-18.3283
30.1303
38.3705
-22.6193
-22.8363
15.1534
2.60463
-17.518
-6.98801
5.39346
3.50011
-2.89893
-35.5167
-48.1127
-11.0504
22.6026
33.7799
27.4318
24.3211
21.7543
15.4627
-20.7792
-38.584
-23.8856
-11.9163
-4.82723
29.6605
57.1512
45.152
20.3036
-10.8994
-40.2147
-13.0682
28.8193
31.0964
7.38866
6.1316
13.2668
13.9392
4.36628
-13.1682
-36.4933
-31.7714
-9.28694
-5.74503
-13.3935
-14.8687
-9.59118
-21.301
-34.4251
-25.3262
-18.0859
-21.3154
4.01944
20.6926
32.0748
37.3756
24.9699
9.54278
5.2568
-1.16861
-13.4909
-6.80572
3.20229
-4.80572
-0.578272
9.9176
-2.25418
-0.965518
-3.01221
12.4757
32.0355
33.2179
15.2725
-2.18662
-14.9718
-32.7229
-27.1142
-6.09798
14.0987
20.9267
13.3439
-2.66386
-11.0264
-8.80426
-22.4676
-26.8927
-19.762
-12.5497
6.63488
13.7872
30.3456
17.6165
17.8841
25.0023
-5.60696
-12.856
-28.4864
-34.6064
-16.5776
16.5415
39.5404
39.3402
33.1647
20.6477
-10.2057
-44.7517
-18.0451
8.69047
-8.78085
-37.3871
-37.0223
-14.633
-2.51998
-2.85659
8.18607
-0.850548
15.7156
14.7257
18.3373
62.9955
8.40962
-18.3001
-18.1063
-21.1007
-17.7028
-8.48464
-14.6615
-15.8649
9.32641
39.02
31.9905
20.2816
2.75534
-21.6559
-13.0412
8.12893
23.1768
24.8208
1.6947
-43.0356
-16.5774
5.11548
-5.54186
-14.9951
-20.4824
-16.2821
-13.0944
-9.83435
-5.80206
0.208602
7.19706
7.85009
10.7486
14.9061
26.8872
25.9761
8.98525
1.86873
-2.33268
-22.2732
-20.2443
25.0046
13.5341
-5.71108
1.31491
6.59182
0.507522
-13.5911
-18.9767
-1.752
7.41278
3.22422
2.62124
6.86322
13.9941
13.4874
6.16003
-12.6681
-21.5642
-56.5796
-52.437
-22.8405
16.3551
26.7443
10.609
7.99435
18.6041
27.4346
24.5253
18.687
28.2426
24.336
20.4489
10.8835
-10.1731
-26.9239
-40.4036
-24.4551
-2.81457
22.0563
-7.37707
-49.8411
-49.7418
-32.3115
-16.3805
49.1383
61.5596
20.2317
2.70193
-8.50766
-14.7343
-1.62534
-19.7039
-8.26447
9.94656
2.89023
-1.77535
-9.41366
-2.1258
13.0475
35.6854
44.4346
20.157
-2.73295
-11.8417
-38.8821
-36.6829
-17.3109
-7.16694
6.06046
-5.63569
-20.0518
-0.894359
8.43777
13.8714
26.8925
41.4903
37.9201
22.9641
-9.45884
-24.4946
-18.683
-17.1921
-4.68204
-0.295672
-15.4767
-26.2797
-4.7037
7.73381
24.6705
22.1139
-11.3955
-18.421
-29.2516
-27.8038
4.82816
21.0568
20.2977
18.7395
-16.8474
-2.50762
-2.31748
-15.6023
37.3848
61.4707
39.7882
71.864
25.2274
-80.9557
-100.342
-74.6361
-38.7056
34.7324
44.9965
17.0985
-6.8276
-12.6655
-1.90719
12.7075
26.4092
10.664
0.687189
3.3119
-34.8509
-50.146
-46.3778
-61.5585
-17.6374
44.3141
47.1595
36.2782
24.8666
-1.84265
7.06609
31.7415
33.2745
25.5514
7.84208
-13.8597
-6.57629
-9.00056
-3.00524
8.20741
-24.4264
-39.1233
-34.9214
-36.0552
-1.98771
23.2237
26.1062
32.527
41.4589
25.0371
16.2088
7.10756
0.737859
0.604779
0.483679
-2.95554
-6.79633
-8.2235
-16.1089
-12.2155
-0.680292
-6.86403
-34.2293
-59.8344
-41.3563
-5.76395
1.51805
6.66429
-9.52264
-48.5359
-27.9864
10.8401
30.8305
17.2818
7.51559
10.7079
16.6102
41.0178
32.6746
21.6005
23.1304
26.2451
16.1232
13.9971
-7.29698
-17.1288
-12.0707
0.202384
5.04891
19.2611
13.3164
-5.82464
-19.4818
-4.02961
9.4099
27.0589
29.788
-5.65125
-18.5945
-25.462
-52.1892
-17.443
21.0412
-26.3077
-14.1819
9.12144
2.39302
-11.6968
-5.23165
0.667987
1.72339
-3.79812
-23.9275
-8.24174
7.52273
-23.3993
-37.5253
-26.1654
-15.4163
-13.707
-7.30795
-10.2651
38.0517
52.7684
-4.30014
-9.13437
11.4745
22.403
30.9769
30.7145
28.4535
31.3198
49.3977
39.3025
7.45185
2.98745
10.4002
5.48679
12.1142
-8.47792
-50.8218
-63.8413
-72.3759
-31.127
9.07492
4.3489
5.07545
4.45692
-13.3655
20.6213
10.0765
-16.4692
-14.3091
-5.28817
-2.8198
0.885747
1.11572
2.29587
7.30194
23.4724
27.915
8.53362
-13.3197
-13.304
-4.34143
-3.01437
-5.19724
1.07511
1.15016
-22.4906
1.7908
31.1373
29.1047
7.69674
-4.11812
-9.60208
-20.2561
-25.3607
-18.0778
5.31055
16.6946
16.7935
-7.89216
-4.19521
23.0948
3.7869
-26.5838
-9.95169
-0.530129
-12.8076
6.25009
17.183
24.3328
18.5207
1.83883
-5.54913
1.90477
-0.0365686
-13.0237
-23.4718
-18.3233
-26.6232
22.9812
30.2987
-27.9521
-15.7569
10.8871
15.2007
29.5607
13.5564
-11.9714
-2.96383
6.44695
11.3857
12.1087
0.882115
-8.64482
-8.23116
-6.07742
0.391906
15.0122
25.0059
-26.07
-46.65
-18.3283
4.99816
3.90241
-10.9559
-17.61
10.3427
39.91
12.8716
-4.54774
-21.7703
-6.58497
2.34301
1.63189
-25.0361
-38.5059
-4.44817
5.31958
-5.77069
-17.695
-4.72572
28.1838
35.3974
31.3379
22.2574
8.61549
-8.07387
-3.62812
11.3784
18.5018
27.9272
16.0071
4.3403
27.7721
45.8658
37.5807
6.1297
-20.1576
-31.5124
-38.5957
-42.9881
-55.6441
-55.4555
-26.7079
-14.8164
-14.7532
-18.3275
-8.39043
6.77735
17.9464
23.2108
15.9127
7.15572
-2.85328
1.68693
27.8845
45.4174
23.8804
-12.7135
-19.3858
-2.30487
0.957399
-9.27867
-15.536
-5.55929
-3.30271
-11.9966
-5.27704
8.89847
9.95587
11.1297
13.0477
9.52974
-4.80177
-1.71864
6.24911
-9.19826
3.25402
26.9336
-4.84049
-21.7103
-20.0705
-6.04355
2.34598
5.63014
4.45929
6.89969
15.6195
15.5984
20.2293
24.2104
1.16109
-8.28254
-6.41569
-12.6324
-12.3478
3.73677
-2.56691
-22.5673
-19.2479
-15.1569
-0.89909
6.99218
5.1937
-1.35117
-9.81273
-18.112
-13.3756
-2.57825
4.27403
8.05946
12.7878
16.1283
26.3724
7.70838
-11.9504
-12.982
-11.2353
4.58538
14.867
8.44834
7.56459
-16.5758
-47.1891
-36.521
-1.9775
13.6937
14.1129
9.99379
6.33671
12.1777
23.899
27.1884
10.5648
7.75595
6.89768
1.60136
-6.35245
-8.20092
-5.00835
-8.43358
-13.546
-11.1966
16.456
31.3108
16.0264
-3.01347
-14.3837
-13.3181
-6.41204
-0.926323
-2.46289
-11.0268
-12.2298
-5.1049
7.14464
8.0893
-10.0522
-24.1706
-29.6188
-14.0028
11.5239
27.2766
14.9232
-0.777277
-9.53347
-17.0998
-12.6255
-5.99821
22.1242
34.0607
10.54
9.70527
1.09658
-12.9711
-20.6999
-5.5915
4.23621
4.19311
4.90472
-7.82532
-16.377
4.66056
8.95865
10.7632
13.9839
12.9404
13.9131
22.5687
11.919
-7.77259
-7.72681
-19.8094
-11.3208
2.23647
13.3747
9.82404
-2.57252
-16.0004
-12.8391
-13.4366
-23.7425
-21.7099
-8.13615
-1.52143
2.53084
3.81478
8.06959
14.8094
12.8845
15.8293
25.7826
13.4391
6.48882
-3.85443
-17.4292
-18.3035
-8.90128
-11.1404
-15.1837
-12.6942
-9.97183
-3.89585
4.90559
13.322
20.8653
30.4578
11.1841
2.37549
-8.73274
7.13156
10.4937
-2.13155
-8.28567
-14.5911
-23.7565
-16.9184
1.09992
15.6272
18.6277
11.1624
-4.52841
-23.0402
-11.0637
2.5915
-12.0738
-19.2529
-11.8357
9.85176
32.2696
-4.42204
-2.19434
11.9646
14.3159
12.6272
15.5946
9.09532
1.50944
-14.512
-27.6871
-22.408
3.16948
30.0116
14.9501
3.00934
10.1827
-9.64509
-6.96496
13.829
27.2719
26.5472
3.11172
-23.434
-49.4132
-48.5195
-22.0632
3.60112
0.171432
-7.70033
-4.88514
-8.93466
-8.21115
5.54527
5.88925
-0.272464
2.72882
0.239242
3.27218
3.28084
-1.9685
12.5243
27.7554
34.9703
45.0908
30.0098
4.54004
-10.8108
-6.99035
-9.40935
-5.19047
-7.42915
-30.1214
-41.9219
-33.1463
-25.6302
51.7971
81.5041
17.314
3.85018
6.97487
7.77134
-1.32237
-48.3002
-60.0537
-21.0349
-12.5368
-2.75045
1.60183
-9.3536
-15.8283
-12.2155
9.45087
22.9613
20.2443
7.57682
-37.8729
-21.9517
1.40365
9.50363
10.1776
15.6274
20.5654
38.5869
39.3958
8.7851
15.4099
0.550285
-0.784232
-1.22481
-9.23397
-16.0256
-12.5029
-12.8697
-8.37331
8.91977
9.882
-1.00507
-2.7845
-19.6017
-33.7918
-27.1028
-13.2263
12.8523
32.2691
39.2459
7.80476
4.93035
12.2194
2.83813
-1.59628
-11.451
-17.6963
-11.2279
-4.78903
-6.09215
-10.789
-23.0678
-14.118
9.34938
22.9874
18.4374
10.0838
9.43494
-5.71223
-21.3512
-19.0159
-6.3302
3.5336
-2.17127
-9.67798
-12.905
-4.77845
6.38962
9.88673
5.56525
2.01536
5.74951
18.9748
20.4114
23.5451
37.2045
26.4853
8.11826
-13.4787
-33.3508
-30.185
-10.8494
0.142873
-13.0807
-27.6119
-3.50957
-0.870331
-10.213
-8.88047
-19.1892
60.6968
102.869
12.7659
-8.87767
-39.0473
-47.4132
-17.5278
-4.7422
-0.036072
6.33655
-6.22105
-19.1068
-8.38109
23.1759
28.0664
14.6621
-3.67614
-8.61974
0.616011
12.1543
-33.5567
-61.1706
-14.0857
-0.890107
12.6239
17.2749
12.3649
9.49279
13.8192
26.6468
22.891
15.4808
11.6707
-8.39466
-6.96616
-19.8524
-22.5436
-13.2089
-4.51489
-7.36516
-26.6229
-35.7551
-8.67376
26.2324
42.7515
35.8729
19.2851
6.91562
7.04268
7.24072
4.93777
-1.40531
-10.8746
-16.0553
-14.6826
-21.1702
-12.7282
-2.9353
-4.25466
1.03146
-5.11706
-2.10871
14.9997
9.29458
0.122669
-0.160569
-1.02779
1.0509
16.3795
15.7588
10.1346
12.8598
6.15221
-14.6494
-11.6001
-14.8264
3.37271
24.0273
10.5145
-12.7638
-38.5422
-33.0427
-19.8527
-16.8848
10.2666
21.5535
7.54496
22.4241
14.6199
9.2284
2.44057
-24.4561
-41.6157
-32.0766
-8.33103
8.79872
21.2371
14.1368
13.9904
21.6653
30.6401
19.2672
0.61757
0.31857
0.810175
9.11282
22.8027
15.3229
-5.94799
-8.127
-17.0263
-14.238
7.6531
22.8159
11.9014
-7.67699
-40.7524
-64.1051
-43.0928
-13.9143
-3.03644
-2.51632
-3.95951
0.810712
2.11987
9.24092
18.1259
16.9137
8.14264
5.47137
17.6215
19.9766
25.2992
6.7545
-21.6714
-17.1672
-4.75814
6.45815
20.1999
9.28856
4.60316
4.30638
1.999
0.0922834
-2.26794
-4.78649
-3.97137
-7.50572
-2.24559
2.82415
-4.8345
-6.5857
0.642117
-5.39649
-31.2705
-34.9919
-20.9731
-11.326
58.5823
50.3048
3.97489
-0.322416
-3.30054
4.59489
2.85741
7.83331
16.061
33.1119
-10.6376
-43.0872
-25.656
-5.31113
-5.50009
-10.3301
3.35674
4.81311
-2.81848
-3.75105
-41.7404
-37.9773
-6.30401
7.77785
7.62229
3.71055
11.4482
14.9895
11.3612
8.85395
27.616
39.5616
17.3353
-6.79538
-11.8528
18.2217
