33.5591
13.2262
-4.64237
-27.057
-72.8871
-49.177
56.493
61.915
55.2603
12.7867
-0.378969
9.21344
-32.0468
-15.3748
20.9492
22.1519
9.46525
-19.9503
-20.9876
-19.2565
-41.7733
-22.3694
21.4491
20.6361
23.4462
17.6746
-40.1214
-43.7089
-84.8665
-24.4712
41.2184
41.5388
64.1307
26.9969
-15.9323
-11.7232
-51.3666
-16.0622
26.2667
18.1884
39.7761
18.2326
-9.59074
-12.0124
-85.3896
-3.15283
53.5021
53.2274
72.577
21.5443
-21.111
-19.4672
-16.076
-89.1602
-87.8434
45.2669
89.2457
37.7445
1.5124
-0.268018
9.53918
0.205518
-53.1436
-35.7167
69.6103
32.7903
-34.6163
-22.3983
2.21579
-15.4851
-30.7512
-63.5782
-34.4793
81.6459
57.5771
-8.98362
-16.3134
-19.5233
-29.4147
-91.8164
-70.9776
61.7516
74.9194
60.1632
41.1778
4.75685
-18.9663
-63.5758
-39.5609
55.0954
43.4914
57.0203
52.4915
11.2799
3.59477
-53.1865
-42.3853
4.05258
-0.599288
34.4459
31.3571
-40.4775
-31.6591
-76.3736
-90.429
-1.61598
81.5782
86.5922
63.8373
-5.0717
-10.5872
-1.26529
-10.4473
-65.5981
-18.421
34.4523
14.0274
-15.6824
-10.416
10.5208
9.44678
-62.609
-57.7012
54.1084
51.6845
-5.83454
-54.7198
-16.7813
1.64199
-68.3203
-120.242
9.06919
107.28
102.727
58.6602
20.8235
17.9226
0.763732
-15.8528
-37.4718
27.3693
33.6265
21.3988
-21.3416
-20.3533
-36.6951
-74.6731
-63.6312
21.5309
37.1015
58.9624
-4.94712
-35.3396
11.8654
-8.19775
-62.6807
-22.6222
120.519
65.2326
39.133
16.638
47.5548
76.5068
68.1073
-2.88264
-36.9482
64.3518
41.3311
-50.5185
-67.959
-50.7509
-78.2616
-141.468
-226.608
-128.944
-62.2881
-17.3439
-13.7954
74.1358
129.892
76.606
5.87089
121.471
104.813
65.6087
18.2173
-57.9278
-39.4312
-51.827
-71.3311
-3.13398
-21.9542
-2.59708
74.503
84.2351
112.287
42.9028
-57.9999
-29.4837
-45.3768
-51.969
-22.9908
-89.4775
-89.6742
-90.5872
-106.515
14.9088
151.644
141.171
141.686
101.865
83.3701
62.3366
49.268
-57.8
-101.226
-28.6817
-36.0159
-58.3305
-37.3917
-22.1852
-5.89783
-40.4832
-77.0295
-62.9338
103.691
55.3176
-22.5576
-8.84726
0.597135
-0.718913
-7.44644
-77.6278
-61.6802
10.384
32.0392
83.0747
159.615
125.394
37.2798
35.1282
127.406
61.6267
75.9581
133.56
58.1093
-58.86
-168.334
-251.081
-213.613
-219.36
-134.304
10.179
54.4782
58.2641
16.4556
-143.715
-250.474
-124.156
-21.5296
-22.2201
-60.8351
-26.6139
-0.00603216
31.8194
-2.31969
8.88733
92.5144
222.925
234.508
238.94
207.212
142.014
90.1101
-10.8879
8.64235
95.4808
70.457
2.69334
-12.8708
-24.7612
-84.1842
-144.998
-64.0641
-11.1069
-6.36093
-4.78484
-7.21469
-22.0938
-54.1247
-54.4797
19.5968
-16.0084
-56.2903
-52.7326
-63.9436
-86.2567
-109.764
-133.247
17.3479
147.807
100.464
93.6732
29.5098
-7.84213
-29.0251
-38.7046
-87.1227
-74.2758
37.9748
23.0177
-40.6779
-20.5497
-4.35586
64.6571
135.471
89.3351
74.4277
101.796
50.1692
-48.8963
-60.4258
-54.2268
-76.2829
-45.8564
-59.6163
-119.39
4.71515
37.758
22.5295
17.6212
-18.5488
-6.12093
-6.89904
-88.0921
-79.7516
-47.4288
10.8179
41.1405
27.9815
11.1687
-28.1115
-32.0836
87.7362
135.79
136.135
138.739
65.649
26.9721
-33.1867
-82.4602
35.8733
44.9073
49.4682
65.6967
19.3798
-3.19932
-25.0886
-115.343
-193.232
-80.2448
21.0463
51.6083
-19.5429
-56.6752
-25.9405
5.79299
-51.1748
-132.933
0.367022
145.258
40.3191
14.5169
23.3487
34.0849
-2.21249
-36.5123
17.8368
39.4623
36.7593
-32.9061
-38.8788
2.28831
-8.60323
-86.8569
-74.5203
59.1963
70.5991
84.1613
-3.57914
-49.5617
-56.2825
-58.8186
-114.177
-26.3489
80.5849
71.341
27.2908
19.8343
29.7613
-2.60805
-67.5432
21.9245
39.478
51.8319
39.9576
-25.9656
6.25978
42.1501
-6.20883
-37.3868
10.4114
62.7613
82.4319
27.7456
-38.2287
-31.4574
-41.822
-66.765
-106.682
11.6497
70.2464
5.63021
-24.3679
-2.30839
-17.1604
-73.4507
-89.4737
59.3922
61.7456
54.0885
13.7259
-19.0245
2.04068
-28.09
-78.7114
6.99111
23.7981
48.213
70.8957
-0.967203
-1.46615
-67.0202
-105.057
3.4029
67.109
72.0233
70.3903
3.5453
17.4232
8.90659
-50.8132
29.2663
20.7983
-18.5559
-26.0982
-32.2111
-16.3487
-6.32706
0.0317299
-63.3569
-18.4759
89.2869
95.9
29.8609
-2.3311
-0.222835
11.4379
-26.1433
-140.498
-68.3069
44.0843
43.5719
49.987
56.9045
41.9735
13.8244
-6.0611
-34.7571
-95.0611
-38.8737
5.07819
-26.4337
-15.408
-29.6766
-20.4535
-20.4566
-81.0481
-34.5828
65.0946
30.2576
-7.1996
-47.9413
-24.127
-3.38956
-24.9969
36.2912
55.7233
52.2782
71.8629
42.2017
0.931966
-47.8578
-49.1518
47.8221
44.626
26.0441
64.3082
47.7024
57.2082
41.3362
-35.7416
-141.951
-17.3736
70.2593
79.7848
18.02
-17.3712
-35.3871
-24.1996
-54.5645
-54.808
27.4231
1.58712
-70.9405
-55.9683
-11.7894
39.3594
-15.2834
48.4867
82.2003
97.952
134.935
46.1681
-48.6498
-58.896
-122.071
-58.1513
-32.453
-21.4103
-8.47668
-27.7284
-62.9137
-83.9319
-116.3
6.81187
38.018
6.70582
12.5446
-5.36413
-22.2562
-46.8507
-136.446
-39.5005
102.653
115.19
125.617
85.8033
62.6261
47.4713
35.8135
-7.33486
-50.6989
78.678
93.0449
30.744
9.13006
8.42921
-7.07262
-40.5047
-71.3119
-81.6163
38.844
39.2309
-32.5757
-30.1947
-22.4587
-27.8361
-23.4591
-35.5407
-94.2329
9.06866
141.822
67.5626
24.4468
-27.2853
-38.0685
-36.9698
-79.1631
-55.4557
-14.1807
10.2412
2.30292
-62.5095
-56.8219
-23.5386
-29.9324
44.996
67.1336
59.6867
90.5964
48.9605
1.31097
-22.8098
-71.1173
38.7217
96.4758
104.52
107.448
31.5555
-4.26709
18.9167
41.2168
-35.3139
22.3059
32.9718
9.54846
-42.7716
-45.6482
-30.8123
-17.355
-48.1856
-95.7456
27.8768
70.3536
-24.6124
-58.9833
-78.2722
-73.5585
-93.4554
-139.981
-74.4388
32.0623
-14.05
-106.343
-32.3411
135.094
131.249
-12.5904
-97.4643
32.1536
39.2044
39.9358
-29.0413
-62.9519
-109.827
-124.488
-90.9458
-38.5349
143.816
181.664
132.835
50.6259
61.3734
71.7975
34.3858
-63.667
-16.5287
140.029
199.304
60.3074
-6.6031
-22.1589
-9.83053
56.1248
4.47472
-20.4013
91.5986
96.5086
12.4237
10.2672
7.67665
-36.2743
-39.7745
-102.656
-61.8596
-0.12699
-58.3998
-89.022
-84.9218
-85.1953
-51.0793
-79.1311
-56.4249
-27.8344
-5.04193
-1.33676
-61.0861
-60.7758
-79.4343
-74.4262
30.9092
63.3499
71.8606
93.7195
49.0497
0.203895
-42.4765
-82.7386
50.1112
55.3695
33.8294
38.9424
12.3354
5.49224
23.7377
-37.2024
-8.66282
108.832
152.443
111.864
12.7675
-27.8068
-12.0408
11.6602
-31.24
-104.989
-53.4565
125.923
58.0732
26.8301
55.8464
104.54
71.5727
-18.6253
-118.511
-33.4256
53.5227
-10.586
-84.0771
-100.794
-102.53
-85.3483
-84.6293
-141.591
-183.179
-18.5128
34.2714
-5.52722
-13.5884
1.97269
-5.84145
-56.9587
-96.9805
44.607
173.261
143.695
39.1296
21.7104
17.7179
57.2047
22.4421
47.2875
93.6245
97.5719
105.694
67.813
50.7935
-2.44464
-38.2483
-116.359
-104.281
1.26407
25.9645
-11.5497
18.7913
43.1588
-18.4383
-116.189
-149.339
7.42716
29.3043
27.4971
39.1891
57.9671
38.9465
-83.5662
-96.849
-47.2196
-12.3018
63.7863
67.3089
-6.80382
-2.19273
-58.8788
-50.2869
-16.2878
-22.0095
16.6174
39.8264
-25.6563
-22.5314
-72.3881
14.4467
47.2483
66.2095
81.6444
62.9404
18.9252
-18.1036
-19.4483
65.1929
52.6196
44.9777
21.0432
-30.4728
-51.27
-34.4932
-62.9375
-0.921832
-0.169771
68.2167
59.1484
-35.7701
-30.6881
-17.9683
-11.5336
-69.2496
-110.012
-91.9439
39.1892
24.8603
-19.439
-26.7954
32.0032
55.0381
25.4838
-37.3668
-20.1248
100.144
83.923
6.54343
-1.47399
-20.7798
-53.5923
-93.7088
-41.517
26.7768
27.0488
38.9744
19.2728
-15.4663
-24.4018
-80.6255
17.1123
59.3116
16.568
24.3531
61.8531
-6.94813
-29.4847
-67.6796
-15.3683
22.2498
36.9665
63.8008
37.7402
4.72562
-8.04395
-35.0496
-132.37
-107.638
56.4984
130.491
56.3664
-8.46272
-2.53262
-1.25872
-39.0532
-140.091
-22.6491
103.332
66.3173
11.602
5.63318
21.8615
41.0579
-30.717
32.6771
103.4
75.6788
23.4265
-27.4973
-8.9679
-48.2794
-94.7902
14.1832
48.1741
52.425
51.5316
-7.1875
-44.5127
-109.111
-125.002
-26.5597
40.7336
14.1022
42.3309
2.87524
-33.5442
26.7665
46.973
-26.5622
-77.7515
-33.556
-16.5671
-57.8242
-46.6376
-20.418
-10.9259
-42.3792
-45.6069
-51.3626
-20.3118
70.3451
52.5603
33.6214
12.5387
-15.9426
0.0541914
-7.4305
-80.4375
40.148
98.2245
42.6391
43.6228
28.9127
24.9342
20.054
-8.07434
60.3695
40.597
63.3768
45.5671
-36.9279
-52.5806
-78.6722
-93.1137
12.0546
6.52678
19.0412
-3.03373
-105.407
-87.3316
-62.805
-35.6539
78.5217
79.7589
77.063
117.111
71.2142
64.2826
52.1624
22.9833
46.8315
36.2168
46.1081
57.8246
-8.22619
-19.2487
-24.0683
-56.3541
-24.7126
7.44439
22.8998
68.2234
76.6443
68.7629
25.0687
-69.7259
-254.4
-223.532
-89.5277
-108.56
-194.787
-219.888
-224.376
-170.247
-121.902
-57.6614
56.6634
177.727
190.354
197.555
200.357
146.557
50.2204
43.2684
10.4087
122.38
214.226
169.219
90.7646
75.6666
30.1821
14.9196
-8.29977
29.6144
116.576
25.2462
-76.8926
-115.179
-136.636
-158.708
-228.601
-218.17
-92.8617
-70.4441
-61.8147
-72.8899
-27.0694
-14.3876
0.265868
44.1128
-29.3075
82.2123
114.325
94.8805
36.8278
57.7457
46.2836
23.4553
-61.9479
-62.269
35.4486
45.1431
-35.6791
-39.8917
5.94649
-9.95611
-46.9868
20.6489
20.6347
19.6132
61.1923
28.543
56.9149
21.6941
-52.1393
0.342516
7.1448
54.8884
112.546
81.61
14.9314
-90.3187
-129.069
25.1429
86.4353
57.5398
32.689
-21.7531
-25.5025
-53.9522
-136.696
-75.4772
70.1273
71.1382
40.4764
-18.7058
-37.564
-15.9122
-12.6647
-68.3318
-39.206
67.6778
50.0682
-30.1595
-57.0133
-51.0767
-25.7055
-39.3456
-78.5122
-11.49
111.578
77.2949
30.4418
51.4105
21.941
-0.268949
-11.3682
-68.1506
-51.6359
80.7908
61.0147
28.7776
10.409
-39.3194
-50.1966
-70.0388
-50.7627
63.1371
98.4916
80.9442
67.7336
16.7852
-39.1915
-78.4583
-51.3557
14.4661
5.41182
4.90338
-27.5321
-87.1587
-80.4521
-96.2407
-30.4872
-12.1725
-10.0385
22.2254
24.3345
-19.9162
12.547
0.245889
-57.2191
1.53862
54.9837
54.7401
54.4023
34.9597
47.931
55.2485
32.6558
-7.82363
110.53
112.398
35.6021
-18.1145
-23.6784
-20.4476
-67.8346
-72.8437
10.7567
12.4336
58.0224
21.6723
-25.5968
-6.87558
-40.9431
4.83667
15.0418
-17.2681
-6.44381
11.1326
-58.6849
-92.1043
-149.052
-48.7178
95.7453
98.1324
109.443
71.9976
19.2881
2.71837
-4.4154
-56.3341
-78.9565
-18.899
-16.874
-65.7662
-79.66
-76.8612
-47.7426
-27.7434
-96.3008
-62.6212
125.036
102.215
13.5167
0.879774
16.9788
-4.28699
-30.1175
-43.8717
23.644
85.4941
77.1077
52.1915
68.9257
44.9073
7.17942
-24.277
67.3163
49.2132
58.3219
88.4703
10.7114
-48.5326
-112.678
-105.052
24.0783
28.9883
10.9645
29.231
7.32523
-15.6288
-79.4207
-119.271
29.1871
27.3185
35.4033
51.7153
-7.16942
-15.2969
-44.5564
-94.6929
-19.3413
22.3268
30.5956
29.7272
-37.8026
-49.6499
-50.1783
-8.4104
-59.3091
-33.4452
92.8602
111.714
25.9795
12.1389
20.8299
33.1785
-24.9221
-57.5107
62.4115
105.991
15.905
-32.0103
-50.2769
-51.394
-101.845
-88.8963
10.2775
14.4933
25.364
-0.137154
-31.8348
-18.7875
-26.2966
-23.8273
-42.2734
69.8293
88.3209
81.8819
53.7607
66.4307
50.2235
13.7279
-21.9022
45.7644
54.2139
22.1319
-57.2584
-56.7062
-35.2716
-71.2785
-65.2041
12.2447
-17.9599
-19.0385
19.8982
13.4846
-13.8476
-10.8277
-53.7883
-105.386
7.12051
104.269
90.4114
50.148
48.2882
23.5227
-17.634
-60.4944
13.7118
38.5719
17.1932
-27.3068
-31.1969
-32.1012
-78.8889
-117.529
11.0056
35.3919
38.4492
50.5105
-19.8913
-53.2227
-68.2527
-41.7614
64.9933
48.2594
22.6951
29.4762
1.68591
1.63455
-66.4031
-76.8477
86.2571
105.876
120.115
75.0142
-4.14942
-18.6195
-88.5995
-59.886
37.2293
1.20573
7.70854
-28.9871
-64.1655
-9.91352
14.0208
2.2743
-53.7014
-11.0773
101.943
80.8365
-3.62008
-5.78953
5.32073
-4.92572
-47.5366
-72.7499
-76.0453
-26.3626
5.11187
-8.51404
20.648
12.7002
10.7051
-5.1774
-70.7989
76.0023
165.85
138.919
55.1401
-2.19287
-82.4895
-112.882
-143.194
-96.9405
-0.182435
23.7726
113.49
140.032
2.53166
-29.9055
-65.2322
-19.7888
17.9231
12.836
47.9814
-11.0783
-46.6547
-72.158
-127.097
-92.6004
58.0479
48.4592
83.4779
91.5072
36.2774
27.811
-15.3403
-85.2764
-141.793
-39.3264
73.1388
48.3617
3.65797
42.4003
73.5519
19.5718
-62.52
5.5911
67.3324
59.9664
-23.6613
-10.6339
3.10994
-39.1069
-77.2657
55.9524
56.0621
38.0409
39.7155
16.4348
4.68892
-42.8639
-128.134
-26.5071
4.77614
-1.39729
21.7257
-15.6551
-4.34989
-32.3283
-156.219
-127.501
45.4045
87.6894
68.3125
3.76683
21.0081
21.327
19.221
-41.5848
-53.1571
63.1322
104.129
32.8369
21.6058
23.9433
24.3187
-23.401
-50.1991
-105.868
18.6595
123.729
27.8207
-10.0292
-6.80841
-40.9196
-49.2898
-33.9035
-41.752
-69.0942
73.2672
45.6689
47.4946
12.9194
-12.8084
-26.0312
-91.0766
-92.6913
94.0934
195.45
97.2615
16.0161
-31.9133
-47.1483
-101.389
-124.352
35.8974
59.5996
45.0715
38.2493
-49.0547
-68.9938
-89.6035
-93.0861
26.8627
30.3102
66.7982
57.2087
-40.8048
-40.95
-43.2654
-93.7578
3.21375
118.882
118.855
82.5131
-6.55278
-20.5851
-13.0031
31.4206
-47.9664
0.449633
85.9738
71.712
0.236917
-11.875
13.0187
17.4916
-73.7794
-7.90922
27.7922
31.8267
-42.9787
-113.878
-69.1169
-42.6868
-114.633
-89.0117
30.9756
88.5557
75.853
13.3709
5.71306
32.5924
-1.88215
-45.5834
-30.215
84.1907
81.1882
44.4382
33.6707
10.3581
-30.5916
-109.055
-76.9062
27.4795
63.7915
39.7314
-42.9075
-64.2995
-19.3556
-19.3971
-102.194
-76.3984
64.0708
163.879
109.909
9.16366
4.3554
-27.7265
-7.17951
-21.3945
-31.5627
98.9506
74.1079
21.8218
13.0618
3.42144
-13.6893
-62.4396
-0.650078
31.9763
42.7441
23.9216
-71.6822
-104.172
-100.798
-171.693
8.48843
72.6812
20.8096
21.3436
43.5574
29.5183
37.7072
-36.4144
-16.7146
-7.46251
-14.6438
-9.30944
-44.818
-46.8953
1.63215
-27.658
1.16712
49.8375
88.756
123.775
33.853
0.802244
-9.47383
-92.0189
-165.273
-34.5228
97.6522
109.085
58.9748
36.6956
18.5276
28.5263
-6.48921
-97.0055
-16.4341
79.1825
28.7313
-8.35086
11.5011
36.7999
-19.5169
-59.6305
-84.3794
32.2232
85.8824
-22.4097
-54.4775
-41.5534
-44.9003
-30.7772
-36.6712
-4.60087
39.3571
51.426
-8.68329
-37.883
-28.8253
-41.9302
-62.0238
18.7304
23.5473
25.5577
47.4837
36.0795
37.2333
-33.564
-100.942
12.109
24.3025
28.85
49.887
32.0674
12.1265
4.19516
-60.5347
-51.5489
86.3734
110.581
79.4778
8.73116
-9.83389
0.141728
13.6767
-40.0527
-30.4958
19.9094
21.4143
-37.7638
-46.8934
-50.3939
-52.026
-91.8964
-34.7969
52.5512
96.9814
61.9041
-34.2053
-65.0559
-86.7064
-164.571
9.67524
60.8815
59.2115
93.8806
66.6136
9.93759
-13.0203
-82.9485
6.22408
32.4502
36.9115
60.5873
28.1369
8.25961
-23.3164
-110.297
-67.8104
51.4111
74.2366
79.8026
-16.909
-38.3914
-33.4468
-29.7357
-85.5799
-65.8093
90.1481
111.596
29.8281
-6.37703
8.02296
25.7196
-17.7809
-105.679
-89.4014
131.403
82.443
-4.15847
-2.62649
19.9079
-25.1972
-53.5698
-66.9687
0.347512
93.4584
42.8299
-46.8138
-19.3242
-10.1366
-16.1106
-82.2696
-46.5235
65.0051
85.5887
37.099
-55.4366
-58.3824
-25.4975
-13.0395
23.5285
19.0063
6.06451
10.3494
-15.8425
-12.36
4.26428
-71.7696
-20.4134
18.9074
30.5247
76.6472
63.9035
-2.41119
14.0717
-12.6004
-93.9525
-32.767
53.6432
70.1825
50.0205
20.1476
18.1339
24.7887
-16.5276
-68.3322
30.878
42.859
4.5548
-33.0999
-36.743
-26.2624
-59.1049
-83.9716
12.9828
37.1135
63.9871
24.3603
-53.1614
-40.4148
-92.8847
-61.4142
92.2516
112.842
85.0733
57.1612
-10.4081
-7.88742
-40.4883
-75.375
-103.277
-13.7514
32.5485
42.8277
0.410242
20.2686
27.9409
-15.6502
-78.2341
20.0719
67.333
31.3755
-57.1479
-60.3448
-34.5759
-26.7247
-96.2712
-46.3711
77.1529
93.6828
97.6683
45.8079
37.2275
30.7636
1.35754
-35.794
-3.68292
10.483
11.6836
-26.9628
19.0228
21.1321
-46.3029
-89.3153
7.33131
70.8148
74.1461
21.0655
-50.9384
-33.5221
-33.346
-106.422
28.5721
49.3281
30.6773
49.5453
21.5785
-4.20072
-21.2045
-81.7569
-3.62548
6.03802
2.90803
25.6983
-6.91646
-20.4511
-30.0587
-31.2949
13.3791
0.838623
14.6725
34.4798
-32.201
-33.6289
-32.0157
-78.7472
-3.00561
19.0453
99.3785
92.732
29.5124
14.814
10.3586
11.253
-37.5173
-122.498
-30.157
90.6109
53.8407
53.6205
50.3442
44.757
-16.3343
-41.1182
-79.087
-20.0366
-9.37103
0.271153
-19.9702
-2.37934
-12.94
-23.5242
-83.0258
-45.7542
87.466
100.007
43.6645
-35.7547
-64.8477
-64.5916
-74.4393
8.21169
21.5645
23.7616
64.7938
86.1707
23.0635
-31.278
-101.376
-15.914
34.0439
26.7799
91.0389
72.4274
-13.859
-18.9052
-91.0272
-101.32
8.56818
82.9367
72.7992
31.7359
-0.684296
-10.6583
8.83897
-43.1716
-55.1351
61.9159
63.4905
0.560579
-45.9176
-37.3966
-30.906
-65.1265
-35.6247
27.3911
42.4226
34.8249
-24.3656
-50.3079
-34.9131
-100.357
-47.2822
80.1935
69.0534
49.0918
-4.37887
-30.1715
39.4592
11.2484
14.2873
29.6821
15.373
35.9193
1.34873
10.5679
33.5334
-34.053
-84.7796
-3.71214
44.9149
67.6557
9.10752
-64.0725
-57.0144
-12.0521
-34.3709
-125.864
-2.73788
115.214
75.303
40.7699
27.9846
27.7741
16.0799
-38.6201
-104.348
29.1208
114.29
14.0385
-19.8897
-22.1271
-36.4821
-38.1776
-42.4941
-99.3529
52.3276
86.3801
6.62133
-53.337
-19.1813
-0.264569
-26.9452
-73.0561
-37.1255
-5.57951
55.4695
25.0411
-22.0359
-23.8967
-35.2177
-23.958
91.7103
60.0292
64.0523
108.245
44.9285
15.6408
-74.1901
-83.0185
-26.0959
-16.0998
24.1923
63.966
35.8828
28.5465
5.00995
-121.748
-47.914
109.464
85.5319
59.9707
-12.9751
-30.4426
-38.302
-30.9024
-53.6324
23.7052
23.7753
-20.5195
-63.6943
-52.3196
-37.5802
-26.9286
-72.45
42.3817
63.83
106.135
33.1149
-80.5148
-59.9226
-86.225
-77.6565
23.6869
65.2435
66.3912
80.9009
51.3558
20.8659
3.72756
-46.7425
-111.749
20.1712
56.8231
59.11
9.33056
26.68
41.659
-26.2581
-145.704
12.8386
81.8978
36.5453
-24.4962
-15.2526
-2.15513
-27.3249
-64.7471
-122.912
-47.3311
55.8613
91.3854
10.4005
7.10533
20.6386
3.58573
2.343
-45.3981
-3.14779
78.4514
4.211
33.2791
78.4049
57.2345
1.70246
-86.342
-22.5434
50.2822
62.8096
34.5979
-11.2003
-20.9762
-59.9757
-129.449
-67.7475
12.6201
34.118
69.4441
34.4305
1.79686
-41.1392
-129.54
-130.569
-42.8596
-6.43325
48.4072
37.5181
24.1819
58.9316
-51.5169
-58.5235
59.8596
53.9189
57.4515
7.91652
-5.27326
14.8178
13.2786
-18.1369
-121.101
-8.68818
151.198
104.532
6.52747
-47.6994
-2.87921
10.3881
-70.0895
-63.6698
31.7565
94.4824
41.7586
84.0612
169.846
155.994
55.5685
-31.6271
-138.845
-87.7671
39.7673
-44.2575
-102.936
-102.046
-94.345
-64.804
-96.3782
-62.22
-7.95008
11.5217
17.1859
-34.8988
-58.9059
-90.6385
-145.778
-105.455
14.2064
49.6277
114.016
116.325
107.519
82.26
15.3501
-33.3806
108.948
156.515
136.752
64.1135
37.7823
39.4163
17.4473
-44.4781
-107.689
-60.1356
61.7527
28.9135
-57.0918
-43.7925
-13.9652
-28.8887
-73.3386
-123.483
-4.34149
56.7817
-62.1308
-84.7381
1.38364
31.28
-11.7746
-27.0365
85.1923
86.0562
95.2814
50.7501
-14.1654
-34.6418
-82.7711
-74.6252
19.2168
8.16093
20.1293
39.9793
25.1282
27.0492
-56.5323
-77.8756
34.7714
30.9066
43.2995
55.5502
-25.7858
-44.1663
-19.9776
-60.2425
-89.7771
39.7942
35.0451
22.5259
4.65208
2.27624
14.4397
8.47016
-28.8408
-47.681
18.3776
82.7849
-0.639848
-34.3872
-23.6652
-7.47767
-13.8891
-43.7628
-47.7772
12.6596
105.618
27.4823
40.9386
45.6381
-1.8822
-17.5259
-54.908
24.9613
56.8279
34.6279
-3.73458
-52.9104
-66.6219
-73.2855
-79.1116
41.5354
45.0636
24.7586
12.5606
4.82697
2.98639
-16.8488
-57.0274
26.1314
70.0845
40.5393
66.4149
30.6746
-31.0764
-21.9962
-21.709
-0.243774
86.122
59.283
38.9565
-51.2852
-87.4227
-38.1497
-1.84089
-11.6215
-107.735
-43.0379
4.19598
-40.7208
-68.6823
-22.5598
9.86168
-73.2926
-82.1074
89.7274
115.789
70.9159
-15.5376
5.77117
39.5671
9.10705
-2.6402
89.4604
78.4963
47.9113
49.8114
12.328
-7.60347
-52.1858
-105.136
-53.4337
38.9418
54.2605
53.5266
-28.5409
-30.4804
-25.301
-49.8435
-102.854
-120.008
-18.9504
78.7613
41.8412
52.0069
48.4316
15.1595
-41.6007
-108.403
-98.3692
50.401
99.8348
9.92873
25.5308
44.1332
45.2726
31.9035
-8.50114
-83.052
3.77423
90.5003
11.7923
-30.1973
-25.2777
-27.605
-14.8041
-36.6743
-14.6324
82.7209
100.152
34.6761
-28.3355
-11.3042
-13.0448
-138.913
-69.0371
66.9153
64.7205
77.8744
32.8217
-19.0875
-28.9476
-72.8539
-47.9627
13.3624
12.522
25.7254
21.0986
19.3765
17.0427
-57.5482
-13.5209
19.444
14.1994
62.8362
-5.64806
-69.4504
-58.668
-64.557
14.0166
28.6863
4.56443
14.0584
-3.73739
-23.029
-15.7771
-19.7174
-53.4987
14.6317
29.5528
46.2806
1.62578
-27.9888
-6.26731
0.216703
-93.5395
-75.0347
65.9255
113.421
54.0629
35.4878
36.0088
39.1302
11.6258
-76.2538
-68.3925
59.5828
92.4645
22.4623
-5.74278
1.36348
-18.3252
-63.4855
-77.3719
50.1991
85.5447
59.7789
-32.5199
-56.9903
-61.2768
-97.0735
-42.2381
46.1859
50.6723
54.9188
33.8144
-16.9908
-25.4778
-79.3082
-69.4794
35.7658
27.9055
29.9417
51.2899
34.7803
41.1501
-13.0879
-75.5961
27.413
51.0537
74.573
51.7735
-8.28915
-10.257
-0.402549
-38.918
-31.9249
-0.641994
-27.8914
-56.3338
-98.0509
-63.5746
-42.0266
-62.675
-5.03881
26.1559
17.2899
48.3967
19.812
13.6228
13.7377
-21.966
69.5196
73.7241
76.0997
57.6993
-6.53016
-10.722
4.11034
-42.8849
10.1183
35.5976
30.1502
41.638
-24.9255
-55.927
-78.082
-136.439
-143.095
-11.6775
61.5413
46.0994
-25.215
-51.3751
-41.1941
12.5998
3.94776
-64.3493
30.9812
134.475
105.332
58.3335
19.1372
24.2022
10.8855
8.92111
-25.4369
-7.18473
66.1838
51.8728
-4.07349
2.25093
-37.7931
-31.689
-53.8115
-91.2891
59.9558
106.419
63.7544
34.0169
-22.3556
-53.6724
-57.0325
-97.4967
-37.7687
45.987
63.322
79.6481
21.7189
-65.9388
-73.5548
-106.02
-56.6519
39.6479
40.8374
42.7797
-32.7658
-50.3869
-49.9246
-45.15
-123.018
-120.871
35.979
160.149
96.9131
50.1897
75.8643
83.8944
37.3784
-39.5591
1.43148
84.8225
41.8854
-26.5545
-17.7561
-18.4334
-56.3193
-72.9275
-7.66185
20.7043
44.5503
61.0242
4.88771
-24.3405
-59.7924
-162.788
-62.9749
39.6191
23.0759
24.4453
0.802277
-8.55883
-1.15439
-26.2226
-34.2974
81.6153
73.0277
61.5162
4.23289
-14.6541
30.8531
36.0919
-25.3141
-111.516
-4.67568
55.0343
8.96225
-7.58408
5.60222
12.3898
-6.03178
-83.2742
-87.9974
71.6756
107.357
36.1513
12.2262
36.6485
40.7439
11.8513
-54.5085
-29.4686
9.28364
16.1907
-42.8227
-29.102
-19.8832
-42.6923
-62.2053
-28.8162
46.089
88.0307
71.1743
-38.2427
-63.367
-78.4441
-126.023
-64.6442
80.7041
88.5904
60.1283
-15.6442
-68.9733
-6.2541
-18.6368
29.353
39.2672
6.64167
26.9269
16.5197
-12.1172
14.3459
-31.9715
-36.992
56.3365
58.6704
90.397
70.3755
-48.7365
-66.8091
-1.2898
-62.1816
-103.304
67.2366
110.312
58.3639
7.12897
-0.529012
-4.88253
-11.703
-69.4904
-33.0035
60.0723
23.6258
-26.8147
-25.2819
-7.86581
-15.2367
-92.402
-110.007
36.4984
88.5219
99.772
-1.69754
-39.5913
-40.6157
-45.2596
-126.682
-57.9101
82.6034
103.925
66.629
37.0542
28.8875
14.0224
-37.9553
-27.8242
25.6714
55.4534
64.6155
-29.2529
-15.0579
4.93793
-80.2953
-57.3955
17.7148
17.3991
63.8296
21.1855
-51.3534
-66.1987
-121.132
-181.904
-18.3266
83.8249
134.829
93.7178
36.4467
24.8224
26.1731
-8.21242
-18.4613
28.9394
42.9048
21.9061
-46.5683
-48.9543
-5.19732
-28.9448
-68.1437
58.4185
77.9437
91.2242
-0.0377281
-67.8797
-72.9142
-71.1634
-85.6332
9.8977
53.45
47.0187
71.0148
36.4608
17.8301
-45.5121
-70.6196
24.8989
27.1707
15.9429
5.2585
-52.6008
-25.1775
-30.6391
-134.063
22.4429
79.2224
68.7034
59.2251
8.94975
-18.0537
-29.3494
-77.3709
-81.6616
-46.0263
62.5581
101.44
55.6127
32.5827
22.6647
29.2447
5.31638
-29.3316
-3.44345
123.089
26.8056
-25.1773
-19.815
-25.5409
-63.4836
-76.7854
-93.4705
-0.429986
44.7253
54.7879
-0.398802
-39.228
-66.8323
-97.6882
-132.758
-27.6351
72.3617
112.428
146.819
92.5315
12.1055
-38.3012
-79.9113
57.3536
67.0722
50.2577
41.6708
15.8262
-11.1334
-45.3107
-120.202
-86.7751
65.4766
96.5021
96.2417
-0.781935
-56.6327
-6.1208
-14.547
-81.2376
-136.187
-67.7539
53.7722
-9.60252
-9.94371
-6.50296
19.7614
31.7178
-12.4999
12.4824
63.1284
60.2488
-32.4208
-10.6315
21.5943
-13.2615
-63.5217
-6.88617
-4.98338
10.2249
34.9197
37.1835
8.58029
-77.1638
-52.0485
28.6192
48.7738
22.1215
42.5517
26.5966
16.5783
-27.3601
-130.859
-28.0781
82.5754
63.5289
45.3386
3.19297
-0.0615869
1.52587
0.468144
-38.2316
-52.7401
17.9209
6.82698
21.9147
36.9578
23.7516
9.4652
-25.9896
-69.8666
-85.8319
98.8242
62.6086
-25.054
-27.8228
-22.6715
-54.0263
-69.7123
-80.7007
-24.2868
98.2055
92.1951
54.9903
42.1877
-2.06472
8.97216
-23.9651
-33.3369
-0.884791
-0.594259
28.0281
-34.2629
-41.8854
-17.1826
-46.6185
-106.528
10.6099
21.9745
21.7115
16.9267
15.116
48.0116
-16.6994
57.8403
123.639
119.675
161.477
134.941
60.7721
46.0645
0.925447
-159.945
-216.176
-138.949
-127.784
-108.141
-150.96
-98.3375
-40.8729
-10.2269
-65.1517
-65.0373
156.138
206.713
154.515
95.6143
34.4157
-7.59548
-78.1969
-117.835
-7.68161
88.4365
59.102
12.933
71.7949
102.373
47.6057
-37.3601
-78.1222
-1.49703
69.155
50.6782
-79.5708
-189.775
-245.512
-254.48
-204.145
-130.984
19.5651
122.698
83.6209
64.77
94.7821
100.392
134.641
115.624
105.702
178.454
177.827
84.462
22.5897
31.7511
13.7026
-6.98336
-29.9451
6.58088
162.458
130.815
62.1411
48.8457
14.3443
-20.5855
-38.5572
-100.731
-109.032
-58.6056
-78.4268
-100.376
-108.121
-149.5
-190.16
-246.002
-196.318
-95.0137
-52.1494
-55.9641
-129.839
-96.5403
-58.0396
-68.9186
-18.6139
68.3908
94.4341
104.214
94.9486
97.034
98.1005
47.4974
72.6453
107.262
143.82
211.08
131.388
40.3385
5.938
-72.6701
30.4904
109.941
76.2184
68.9187
34.8746
-18.5735
-43.2736
-43.8768
-86.9984
-102.927
20.9096
74.5992
36.6268
-3.31642
-25.0714
-41.491
-28.6868
-33.8989
-99.606
34.2715
37.5373
-23.9398
-27.4493
-18.157
-24.56
-29.481
-6.83871
-28.5015
-43.0248
41.4499
-20.3559
-35.9622
-22.0035
-37.2194
-50.9878
-74.6921
-60.374
42.6131
113.013
61.7758
-44.7732
-62.6326
-42.56
-42.913
-64.4855
42.254
56.1434
100.086
149.141
79.8381
16.2797
-23.2572
-65.3435
-85.5227
78.1609
106.813
67.3385
-16.4147
-12.4953
-10.8319
-28.7265
-43.6595
-116.563
-26.6545
84.5704
26.8123
1.16004
9.08361
24.8768
-15.72
-62.6305
-121.689
31.3538
101.882
-5.30204
-28.1048
-24.8688
-20.5964
7.1466
-45.9091
-32.2624
18.7409
60.3002
29.6818
11.5139
-1.34974
-11.4537
-79.3231
11.1256
75.5509
58.4352
97.8176
58.0602
55.7105
17.4536
-80.9131
33.0743
44.1476
27.9119
36.5369
-7.07678
-28.2013
-19.144
-117.92
-67.6458
3.18584
9.61972
18.2663
-57.2983
-91.5635
-62.845
-93.8933
-146.448
-41.4033
-0.799807
90.8057
-3.79439
-39.076
-2.74722
26.9486
6.26722
-48.9242
-36.4604
177.455
154.073
66.9122
47.6033
44.9463
26.2364
18.9907
-1.5886
77.9088
69.7337
-11.6872
5.20467
29.943
16.2727
-15.1074
-113.497
-89.5808
12.3735
1.28085
-0.454832
-75.1157
-141.654
-158.261
-182.455
-99.1565
-3.18239
-3.25221
23.6824
30.3182
39.434
14.5491
-37.7003
-66.6493
31.207
87.4662
128.445
124.103
73.6076
97.1873
112.441
78.7262
17.1921
68.1709
147.753
100.444
20.3987
20.3039
24.0065
16.4122
-17.4842
-31.0697
9.58123
4.95271
-60.1586
-64.2064
-43.5199
-63.1662
-142.49
-80.1782
-13.5898
-34.1337
-14.9842
-35.119
-29.3892
-59.7191
-131.303
-133.361
-59.2967
75.2096
84.253
63.2721
5.22553
-2.82435
-32.501
-86.6028
-86.6253
19.5696
31.4523
0.119342
-24.3548
-14.5696
-23.0609
-39.4871
-88.1133
76.8588
135.789
117.91
50.9097
-35.8109
5.74546
42.0445
-46.7791
45.9403
122.025
129.898
117.749
21.8581
32.6922
45.7573
-46.3165
-23.6317
51.1832
31.3201
41.4213
-34.1956
-51.076
-52.9003
-85.9812
-51.5697
-45.9397
-62.8272
-14.0533
-45.37
-86.0602
-88.0771
-71.5943
-20.2939
65.1095
40.1139
61.3194
20.1421
-21.6844
-34.1018
-57.595
-20.2759
13.0475
36.7553
54.8578
0.858344
1.13785
20.5102
30.9112
-19.3184
52.6504
98.2389
80.1792
26.76
-29.9292
-8.29911
24.9485
1.54752
-89.1517
52.6914
133.412
39.0244
8.21085
1.03634
3.33041
-26.7897
-99.3897
-21.2083
74.8975
81.4068
13.9335
1.50553
9.10649
-26.2685
-53.7875
-100.246
-158.187
-30.4485
41.5973
-29.6004
-48.6678
-51.8675
-55.3132
-76.9919
-115.251
10.3076
104.841
24.322
-28.9719
-17.1413
-17.9034
-40.5542
-57.8555
25.6739
28.2678
40.4765
82.6871
38.9042
49.8462
13.0362
-74.4064
-39.9156
78.1432
82.311
114.297
47.681
21.2902
-15.165
-63.2216
-68.8988
63.131
80.517
44.3133
-2.80337
15.1439
48.9719
40.1515
-40.9953
9.69741
-13.5537
30.4863
30.4667
-8.26003
-1.85337
-19.8172
-65.923
-23.8184
-21.0669
-14.4415
-6.46396
-78.1006
-79.3051
-88.4068
-73.6931
12.9193
5.62556
2.43557
18.5887
27.7798
36.5167
5.83041
-7.51114
29.2082
16.7854
35.1837
40.8597
24.3339
24.882
11.2434
-46.1786
-60.1995
67.8408
109.589
69.0752
-1.44977
-14.9737
-22.3452
-44.682
-112.021
-151.959
-28.7033
68.3689
-2.25582
15.0556
26.9036
17.0452
-9.19525
-37.2259
-33.3128
22.141
62.5726
-29.9702
-12.3015
-1.38124
-11.8951
11.4779
4.49329
25.9115
106.326
122.129
79.8006
0.689618
-58.8719
-71.1059
-79.9588
-56.8533
65.6348
58.2572
40.2338
39.4989
-21.12
-54.8882
-87.8876
-54.8115
-12.8968
-16.6293
-3.05519
-3.27216
-21.5952
-8.99881
-27.9202
-89.1878
-18.0917
37.3197
50.0232
30.7319
-51.2272
-24.7624
4.79068
-46.1669
-49.0413
86.106
97.5724
44.8829
-2.57218
6.33521
23.6509
-42.7914
-69.778
75.4858
87.4026
89.0878
42.324
17.2896
8.91212
-63.067
7.1357
27.0585
2.97003
17.9068
-11.7288
-79.7645
-51.7861
-98.3633
-68.4087
3.04364
95.9952
127.255
103.794
9.37338
-17.966
-16.8513
-58.0514
-110.56
23.694
76.0452
10.2942
-10.1304
-9.70552
1.29073
-14.9343
-100.434
12.4016
71.2615
33.5059
-14.3087
-65.7575
-56.328
-75.9024
-164.31
-67.921
69.3688
55.8592
52.6577
-6.61984
14.9305
-13.092
-90.8786
30.8684
104.632
96.1569
96.4011
44.5412
43.3016
10.1418
-70.8831
4.65383
14.6926
-12.3503
10.2909
-15.5494
-62.1698
-70.2402
-81.7547
-1.10567
84.4355
40.6787
75.6763
8.46446
-24.7246
-26.4784
-76.3687
-57.4165
-21.0799
-11.1485
22.3513
-15.5527
-2.09446
6.45242
20.1945
-47.5999
-53.9081
64.9047
99.9385
50.9417
28.7019
44.2257
41.0912
-9.73196
-106.178
-99.5442
88.7263
76.0095
53.6951
51.2114
39.546
-13.8367
-60.6114
-86.5781
-6.66122
75.0131
26.3212
-20.7056
1.69644
-37.3037
-66.3543
-63.6166
-82.646
-40.0149
41.3307
58.1355
23.936
-19.3815
-31.5777
-26.0786
-70.084
-15.4944
64.7698
92.1239
45.0965
-8.83217
-11.636
-31.5335
-51.4776
25.7405
7.54178
-17.5498
-0.56491
6.6933
41.2831
48.3257
-9.48807
-92.8417
-30.4423
91.8775
108.529
45.5435
1.66185
13.9956
15.4426
12.5886
-38.8513
10.5789
25.9097
-31.7182
-23.1424
-25.6254
-0.929562
-30.7775
-46.723
-3.93605
-14.5351
-2.80088
-57.7269
-109.822
-60.3113
-77.0765
-20.2489
52.9349
43.1723
35.7438
55.4904
25.6515
17.63
-82.2913
-7.78665
66.5154
75.1623
83.0865
82.0411
32.7951
-4.11202
-28.8568
20.7006
20.8718
19.7276
20.7868
-8.04219
-30.5103
-42.283
-58.9895
-70.1556
-16.8141
33.7836
78.2361
29.4188
-5.26241
1.81913
-31.5723
-134.474
-125.08
33.791
90.9377
49.1143
6.50392
16.606
1.44081
-32.0601
-60.697
-104.97
-7.4094
83.8811
34.8631
17.7239
17.0821
-11.8073
-28.1603
-71.5649
-18.5864
97.0709
83.2021
-5.22858
10.8825
-6.51212
-25.4634
-29.3352
-3.88523
100.727
89.0143
95.2922
13.5302
-32.1471
-37.7327
-109.931
-30.9656
-6.32843
-24.3091
6.53023
11.5259
5.39938
14.2039
-23.2569
-75.1133
12.5786
40.6204
14.5886
1.39414
-26.936
-11.9414
-18.7468
-67.2192
-14.1176
44.6412
52.5197
9.2974
-6.52181
-0.593674
2.30459
-41.8907
-0.855184
7.03694
-3.58627
40.2857
16.156
-11.0414
-37.6443
-70.8092
2.91254
8.51835
43.4901
58.77
7.29867
-37.2433
-57.6961
-134.535
-31.4844
70.1362
114.153
102.328
34.5221
-12.6654
-7.94721
-8.8974
-108.947
-47.3728
48.1743
82.4362
22.5107
28.3668
20.2921
8.16857
-6.79097
-37.3485
7.97818
113.09
53.6944
-1.83041
-20.3576
-16.3063
-13.7934
-16.552
-103.395
-13.0966
102.945
38.5287
-17.5167
-31.7758
-69.3899
-95.2022
-111.591
25.5036
11.118
6.10095
47.6143
27.3513
2.12504
-49.2912
-38.5685
58.8862
52.4098
37.9335
39.9354
-5.52283
-33.1866
-111.474
-91.1001
27.9128
0.0789002
0.365914
34.9396
11.6029
45.0026
4.39631
-12.7196
75.1506
68.4326
89.1554
78.6933
-1.59621
-48.3473
-66.295
-94.5137
-102.6
-8.64556
44.5379
35.837
-21.97
-41.7189
-37.796
-62.0842
-126.692
0.905203
112.232
72.6922
-8.96351
-30.0858
-49.2113
-69.3479
-106.095
19.2378
124.644
148.082
116.021
80.7995
102.973
54.9583
-12.8227
-65.0127
-27.2232
75.5112
81.1957
9.64169
-42.9859
-38.7395
-78.3799
-181.77
-162.148
40.6225
63.295
11.472
-19.8237
8.76834
-2.1618
-95.7831
-56.5269
49.6613
56.2715
80.6429
53.4678
-7.5504
-22.7168
-51.0975
-90.9336
-99.9731
53.3349
112.102
81.3387
-6.87888
25.7278
13.2777
-34.2033
-87.0179
-43.8144
95.2545
58.4826
15.8664
22.5184
29.5138
5.81963
-58.1115
38.4358
47.6506
50.7183
65.2967
-34.8227
-35.0876
-22.5726
-71.6438
-2.26907
-1.31305
-8.50426
39.7007
20.1198
-69.7262
-110.408
-166.314
-30.7613
50.9997
44.1179
55.9012
1.44875
-31.5894
-38.9819
-75.7549
0.723009
45.0587
42.102
25.5756
-12.9101
-19.2992
-6.0923
15.413
-16.0392
13.3484
96.0736
119.418
57.563
10.9724
14.9014
19.3898
-37.4618
-132.922
-78.8649
128.263
46.133
7.99323
38.1679
35.6402
-4.38044
-34.2445
-98.5042
26.4152
107.507
40.7054
7.33753
2.21447
-42.7066
-78.4293
-162.344
-48.9737
42.0644
60.7203
37.6636
-56.9077
-71.8716
-38.8168
-76.7034
-73.8269
29.3646
60.5123
128.667
69.2906
18.8253
0.19483
-90.71
-53.4676
64.763
79.603
88.4993
11.3426
-44.0963
-15.9756
-13.0765
-61.3455
-148.267
-47.693
95.1045
62.8822
-2.65211
2.81394
30.7427
32.4695
-40.7134
-46.9676
90.0685
61.7666
-27.9868
-35.236
3.38942
-11.5194
-62.6436
19.312
115.986
97.8664
95.8116
16.3626
-58.4548
-28.8422
-72.6614
-69.0853
33.2009
4.23724
24.2532
7.58578
-33.425
-32.3772
-108.467
-116.8
-49.9536
84.3926
80.7241
42.7208
-6.27887
-4.77611
10.6956
-28.4422
-106.106
-35.4877
40.7839
80.6333
-12.1548
-38.6993
-28.0627
18.3747
35.8485
-0.746985
-31.7754
15.8238
93.098
10.7044
11.5898
5.75781
-26.2505
-31.8137
-41.9785
-68.0355
83.6531
49.679
8.14126
0.0717158
-4.76478
-19.3162
-37.5855
-85.3622
32.1799
103.639
108.905
55.0155
-22.2671
-32.5738
8.28507
-7.62978
35.1481
50.2821
63.4956
74.7503
7.30977
-39.9643
-78.8518
-128.8
-13.1124
-1.74351
7.11492
11.9667
-69.5643
-78.0755
-68.6428
-92.1532
-26.7478
-3.88411
-14.7023
19.9232
20.5808
31.203
81.1169
75.1251
-8.23127
41.0094
109.802
77.7962
-19.9854
-34.5127
-31.6661
-6.64268
-44.336
-64.7651
37.4436
70.0532
4.68969
-61.4559
-64.7114
-52.3002
-115.46
-79.4589
3.92817
51.6922
64.2931
24.561
12.0004
48.5259
15.558
27.3096
-1.4303
19.8348
45.179
45.9906
34.122
33.0253
21.7115
28.5409
-12.8758
10.0568
36.6411
9.68539
-39.999
-47.6179
-12.6126
-4.49989
-80.143
-103.343
-33.035
80.6453
97.0012
30.3706
-36.1956
-32.188
-49.8001
-83.584
-135.905
19.3413
83.3494
42.7854
35.245
32.7676
-8.05849
-52.9859
-67.9614
-10.0335
12.9421
39.7232
5.88719
-30.2334
-8.96069
-52.6649
-6.57248
81.857
76.4216
71.9262
86.5342
5.30191
-15.5473
-67.4299
-70.0725
13.0171
6.64318
13.6911
7.90145
-29.7954
14.2681
5.40544
18.1272
55.6709
37.506
61.3658
40.0933
-16.8619
-43.3717
-77.0816
-72.9313
-80.0185
15.8398
43.4603
28.4324
-6.12988
-1.71116
9.58833
8.3145
-71.5252
-61.7632
40.1814
-12.1718
-66.6882
-24.7507
10.4709
-2.62728
-33.8881
-66.7037
-17.0005
107.627
92.3371
16.0417
-16.9318
2.44722
40.8037
51.5413
-14.296
44.5548
79.4944
47.4662
-20.2268
-29.7688
-30.0211
-34.5011
-24.9584
16.3282
-4.00459
-1.23922
26.4908
11.6987
-7.76659
-74.7909
-50.3263
63.2656
5.69468
-12.0934
35.3398
4.54308
-3.83514
-35.1184
-85.1144
-53.9345
66.5001
59.5016
39.4409
3.45822
5.60768
16.5971
26.0567
-73.2647
-70.8675
50.2438
60.3099
-28.3734
-52.9416
-59.7784
-48.1605
-83.2946
-30.676
54.5505
75.7883
61.5333
-15.0467
-15.4752
-2.53235
-63.0152
-20.2426
110.035
97.7222
64.7494
31.8063
-22.9994
-38.16
-84.4446
-53.1761
46.1421
53.5487
50.2684
15.9806
-9.20794
1.02164
-34.4248
-56.9917
23.0913
34.029
50.1493
30.6912
-32.7635
-55.1995
-33.8302
-35.8248
-92.1298
58.8321
101.912
50.0069
1.34587
-8.69849
-20.1493
-35.7973
-67.6948
-138.853
-63.9943
74.5545
45.468
29.5494
33.83
24.1194
-13.2291
5.3264
-12.7242
10.5898
72.9448
-17.066
-35.3916
-9.44181
-39.6206
-45.3284
-42.9305
54.8956
85.6352
88.683
73.1796
-27.781
-48.5124
-68.8489
-91.9861
2.75015
0.243547
11.5443
34.5386
18.7359
8.17257
-34.996
-31.5366
34.8652
1.6295
24.1446
64.2183
12.549
-4.01571
12.0045
-82.7938
-60.2651
58.2205
85.7334
101.625
26.274
-2.54534
-27.2213
-35.2327
-80.4159
-82.4277
34.8221
27.8839
-32.1659
-23.9732
-0.0632206
3.41123
-58.3708
-35.9649
52.8173
85.0964
6.84561
-80.5216
-80.439
-58.9746
-92.5995
-34.1993
-17.322
57.6874
141.882
114.865
67.7101
57.7573
41.7043
51.5867
7.42479
2.53888
110.447
73.3632
18.8008
-5.18606
-49.1482
-70.0341
-91.8562
-116.445
-45.0416
-63.3205
-43.4002
-29.9944
-42.7455
-39.0838
-77.3851
-101.284
-95.945
-19.8768
77.6627
55.647
-7.22784
-5.69767
10.3502
40.1102
-7.00954
-13.8807
134.133
188.114
133.862
95.6203
64.7441
22.1522
-25.0323
-33.0493
36.2343
48.5011
41.8524
-28.1095
-94.151
-73.6656
-82.9213
-47.1744
39.4141
33.1888
33.7464
6.56913
-70.1632
-102.741
-194.453
-121.435
88.7226
97.9937
53.8404
49.1657
-4.37066
10.1149
-15.1511
-87.1602
11.691
98.8389
64.9961
27.2879
-30.4383
-30.7038
20.5773
39.0747
-35.1408
-53.5092
87.638
69.0433
-56.9785
-65.7938
-26.5437
-11.4511
-48.3984
-91.9327
-58.7583
32.1153
69.8021
16.9925
17.3835
17.1846
0.20102
17.2321
-12.8091
-45.1957
72.6611
80.9621
43.7105
26.2568
-26.1305
-38.7205
-57.1914
-68.9678
46.6229
60.6119
43.1162
19.2638
-58.0947
-72.6974
-104.376
-58.8215
52.154
66.3136
64.4365
65.3919
8.08098
5.29523
-33.7014
-54.8984
3.6479
89.513
79.6593
71.2741
13.1184
15.03
-14.4625
-62.2141
-161.143
-49.9918
68.67
28.3582
-72.2485
-77.1186
-12.4126
-1.64483
-110.623
-4.18511
115.834
114.016
53.9671
-34.9588
-44.995
-40.6804
-112.402
-64.3686
25.8971
68.2977
103.441
54.8629
30.732
20.0751
-35.7854
32.2177
57.3054
56.603
98.5984
41.3733
-34.7326
-100.533
-216.635
-86.2509
67.6451
47.3748
28.7417
2.33288
-21.9146
-23.4496
-65.0723
-54.3058
-11.3016
-13.8617
13.9895
3.99346
-24.7888
-5.1939
25.9328
-25.4606
-73.5194
79.4543
144.696
58.9865
-7.97952
7.13975
9.79827
-10.773
-105.784
-34.5249
114.683
141.402
61.6715
44.4727
27.0708
-13.4025
-25.1098
-69.102
-70.9852
38.9791
26.6909
-28.1859
-14.7999
-53.0939
-63.451
-72.8568
-35.5759
24.1926
62.3156
36.5864
-14.8366
-81.6357
-96.6417
-126.772
-45.5792
59.4191
67.2201
71.4421
66.8387
12.1302
25.4179
-37.7899
-18.6198
67.4432
41.1197
41.7029
26.3638
1.97636
21.2023
6.82281
-50.3382
-142.577
-3.08132
103.193
60.6508
-5.33172
-25.6007
-7.44605
6.60975
-18.1205
49.7027
143.369
114.008
16.5563
-27.3773
-42.6981
-78.6707
-157.471
-101.947
-96.0068
-85.9271
-46.8374
-89.1307
-57.1577
-16.2376
-69.464
-24.4346
114.694
106.294
77.1469
51.1476
27.8613
46.9737
28.4078
-1.10075
15.5233
75.6641
150.627
94.8501
90.1967
124.716
154.143
78.8313
-51.8422
-20.9437
43.4932
-5.18865
-92.2292
-101.054
-108.233
-134.537
-137.626
-142.903
-147.426
-35.7431
-14.2103
26.9004
31.7709
-4.3112
-34.2613
-85.6078
-36.9633
29.105
46.2053
-10.5753
-31.9028
-4.98845
-28.2093
-64.11
-20.5312
100.563
66.7395
61.3593
67.609
35.9373
33.9111
-46.3225
-15.5409
56.4434
49.7693
50.4117
13.1126
-10.4126
16.0218
-53.3375
70.5529
90.2916
45.2252
54.9254
43.6267
-45.8713
-73.7854
-81.2709
51.5723
34.7332
9.52577
19.3366
8.3173
-5.45701
11.5402
43.6203
-37.5775
-41.2004
47.2051
65.0428
-20.6317
-49.8757
-37.8645
-9.64179
-20.6619
-114.217
-98.4851
21.5529
26.1139
1.38532
-3.80861
-17.7278
-41.3729
-41.1259
-71.9809
-138.083
10.3249
53.0875
10.2719
29.9332
-12.178
-9.28456
-6.59479
-58.6758
18.3004
94.7364
91.9022
32.574
-50.9855
-39.6067
-49.3565
-86.6868
2.86829
36.7645
95.011
133.343
65.2541
13.399
-50.5385
-45.3823
-19.4151
41.0274
34.6481
73.7167
38.7998
29.1384
29.2817
-6.7866
-68.7607
-61.9353
80.4897
125.559
62.6674
16.0932
-8.82038
0.0871377
-41.0692
-72.8209
12.6418
21.1119
-9.50688
-44.7256
-16.1203
-6.44313
-84.3347
-104.855
-17.3791
15.7694
10.4785
32.0246
-20.819
-25.8781
-94.9134
-112.434
3.52928
12.5679
11.8666
14.5242
-10.1411
-14.5203
-61.1757
-45.8676
41.2804
61.2306
69.9337
78.3175
45.4269
16.2104
-24.2989
-52.3745
-8.70146
49.9182
54.8589
50.269
-17.8888
-12.1018
5.11089
1.05619
-94.4113
-14.579
106.063
59.3362
-8.20908
-3.68685
14.2517
23.5073
7.38425
-4.33278
-23.8257
72.8138
68.5888
17.1956
11.6175
-1.73075
-45.6858
-83.3618
-139.213
-2.65082
92.554
34.2268
-24.2473
-40.6595
-62.8686
-70.7484
-90.8685
-24.0616
-5.35498
-11.5613
34.7775
1.18349
-53.2047
-51.3307
-76.8178
14.9285
49.2545
60.1234
84.5743
25.4059
22.7699
6.45454
-72.542
-40.6519
64.334
82.8319
99.1322
50.1741
28.2144
38.4326
46.2196
-32.5936
-72.4675
39.0428
67.6257
36.919
15.5994
24.459
26.3706
-53.5608
-39.0327
6.60043
21.6822
6.1406
-49.4315
-47.93
-42.5616
-100.828
-95.8313
6.38472
25.6133
34.6712
27.105
-44.3365
-33.4805
-83.3045
-141.074
-1.74279
93.6521
75.5893
38.9216
7.44625
19.7629
17.0803
-2.05456
-45.5665
-60.5089
79.7112
56.7035
-13.5487
-8.65923
5.24133
17.7136
-13.2919
-92.3457
-0.907294
110.993
107.781
39.4908
23.2209
1.54283
-12.6768
5.90112
-50.4813
-59.8379
33.3012
40.7348
-35.0592
-36.3917
-15.5772
-27.7698
-93.5974
-5.77221
22.9931
56.9663
10.2005
-27.0471
-52.1032
-23.7553
-49.5339
-67.6069
5.30954
-1.1858
-1.22585
-33.5149
-66.8167
-58.7494
-119.189
-83.8239
-13.584
63.7223
151.344
126.815
126.377
175.474
124.215
141.436
135.039
95.7628
112.782
114.372
33.2724
4.35597
-59.4994
-113.188
1.23728
47.6713
84.1809
50.1541
-35.3827
-100.328
-111.313
-149.774
-239.228
-140.759
-120.009
-149.866
-185.878
-170.731
-142.959
-142.997
-171.403
-46.0717
101.989
94.8078
-13.8125
-32.2193
5.7712
63.9869
106.795
95.5714
60.3113
189.206
281.017
207.337
205.348
169.611
97.5255
3.22197
-14.4526
116.158
85.4418
-0.375814
-22.3598
0.935403
-24.2522
-70.5682
-73.1922
-2.31403
-57.1031
-85.9107
-65.869
-138.378
-162.567
-138.832
-116.275
-167.583
-193.955
12.7252
124.161
77.8808
129.046
123.445
76.2344
11.9031
-96.5313
9.19985
126.733
22.5196
-0.951094
12.0319
14.8682
-33.4548
-92.9392
-97.3752
-40.3638
19.2782
58.8881
-13.1971
-74.8844
-84.1891
-96.3233
-25.3119
45.6256
110.29
130.931
48.271
-55.7223
-64.7116
-19.7837
106.684
117.962
85.2643
99.7946
68.1346
17.7264
-5.48214
-63.0211
38.5346
152.63
98.3196
76.2725
21.4941
8.24721
40.9773
76.9894
26.1135
-46.6537
-4.69017
72.9332
-48.8581
-148.986
-209.712
-204.82
-193.568
-206.799
-259.164
-199.057
-93.7839
-100.286
-74.2748
-17.3668
10.6868
6.83087
44.5446
24.5648
83.7309
172.156
125.89
52.7265
81.3518
123.421
140.082
93.0063
134.02
162.356
203.608
197.649
35.5756
-54.2899
-90.2765
-121.143
-107.568
-28.7041
-55.7524
-77.0303
-29.7745
30.0608
-34.7872
-161.174
-195.986
-6.02018
91.5947
94.7922
121.535
189.814
183.468
94.3046
-36.4291
-106.608
-50.6869
-2.371
-41.5914
-82.6629
-67.2458
-0.982399
-55.3836
-218.167
-113.845
62.2456
54.9682
-106.151
-170.029
-115.439
-158.877
-184.014
48.9289
110.978
67.153
108.13
142.109
120.322
108.602
90.6011
143.221
135.602
61.1372
58.1105
32.0587
-21.1445
-25.4006
-75.9101
-58.8768
4.84858
121.563
105.874
-6.20497
-67.0161
-70.7712
-21.2652
-11.2835
-52.8283
-53.1618
34.6151
-32.2164
-47.4775
25.0324
18.8407
-15.986
-41.5679
-53.451
-66.5504
18.7558
49.7013
-39.5805
-77.3141
-120.98
-85.6556
-15.5199
-73.2729
-77.0818
-32.4531
54.3592
84.4201
56.3991
-2.21976
-66.6426
-54.1674
28.1927
40.9369
99.4929
162.222
119.776
50.737
-16.4909
3.50773
25.6204
27.9469
15.8961
34.8593
23.9697
27.0818
-96.4379
-131.679
68.1227
114.128
78.3172
48.3117
-42.5647
-92.1194
-106.314
-6.34223
35.1725
4.6007
-15.8194
-67.2817
-133.989
-124.702
-80.6082
-84.6615
-29.8223
92.2634
201.091
130.347
3.15917
-9.8815
-23.4856
-31.4484
129.181
167.242
150.877
168.913
207.045
166.724
67.493
-79.6979
-94.4334
91.0391
79.1894
-82.5837
-237.653
-306.942
-332.296
-370.071
-431.16
-273.347
-12.2902
46.9565
3.35476
31.683
68.8856
19.0797
-117.685
-125.797
100.872
206.619
196.403
120.05
126.44
208.115
202.794
131.108
211.388
215.445
190.239
96.3399
5.54504
44.4609
19.5037
-56.8898
-161.943
-113.769
-135.072
-89.5841
-134.298
-133.381
-121.635
-153.116
-146.485
4.68549
104.66
103.886
16.5335
-1.4389
2.65015
26.8688
-20.488
16.6113
-15.7576
-42.397
0.492482
-71.3034
-79.5874
-22.2572
-45.302
80.8936
111.088
85.2888
72.1933
22.9518
-13.953
-50.7932
-66.0479
63.5399
86.6431
-7.36743
-46.0286
-73.5653
-69.276
-17.3159
-42.7409
-21.2961
146.174
93.9712
29.5058
-14.7686
-8.38798
-6.14411
-7.5456
-24.2559
-41.7039
64.2441
81.1097
11.6444
35.0504
97.2335
102.048
39.6215
-51.8967
-60.4806
-46.4688
50.432
-37.5998
-26.8008
23.0318
-1.78647
-49.6024
-69.4791
-24.1979
42.0669
4.19689
-57.5189
-99.8349
-116.017
-89.9908
-119.951
-64.2223
34.2989
53.7986
54.2978
92.4311
32.6286
-17.7436
-117.946
-111.65
8.70457
39.2338
72.4235
55.1455
1.04635
49.2633
47.2534
-3.79762
53.8159
81.8751
87.0741
38.5129
-11.2475
15.6775
35.4814
44.0493
-73.3334
10.0313
81.2429
14.2417
-50.9915
-23.2978
-32.5134
-38.6104
-74.6323
-12.6654
51.9319
69.6593
7.10256
-3.07611
57.2699
10.0071
-120.788
-67.902
10.5577
16.8824
21.9218
-16.8823
26.1859
49.7434
-42.8599
-18.9855
34.4683
23.0612
2.35566
-41.3125
-53.2022
-33.0402
-114.996
-159.238
-58.3147
83.6767
104.733
66.0384
40.9459
40.8765
39.9939
-40.0578
-76.0355
4.27974
38.5815
4.68719
-50.4484
-69.2729
-30.2802
35.2685
7.24862
-47.7901
44.7328
137.952
41.049
-32.1664
28.7138
1.76935
-63.1858
-54.9594
-69.0336
26.7902
72.0575
30.4998
-52.5469
-97.8841
-46.6142
-74.104
-84.567
141.465
149.803
96.4782
83.1133
47.5828
31.7789
12.6618
-51.68
-17.6583
23.4718
78.7046
114.593
78.7394
21.0139
-65.9893
-73.659
30.2641
59.4088
62.2744
2.58059
-176.911
-186.145
-131.525
-185.385
-197.165
-56.0438
90.4443
119.707
69.0868
22.7361
-16.276
-25.655
-82.0993
-98.5421
65.4766
112.068
92.3056
51.8594
51.2905
67.1539
-39.7526
-27.0514
99.7988
128.94
94.1439
-8.0153
-75.1878
-53.9569
-129.926
-95.8696
23.1045
28.5098
23.8436
46.0274
-11.1857
9.72961
-30.5708
-50.088
-53.3047
19.4556
28.7113
34.8772
13.8408
-20.0031
-24.9745
6.93803
-57.7889
-35.3557
51.3653
87.6985
43.4201
-27.5998
-53.7724
-37.3822
-172.049
-105.916
78.4888
83.8583
117.674
112.743
105.096
101.75
31.9938
-37.1595
0.609646
-28.4629
-50.3409
-64.9543
-48.0904
-69.7771
-111.136
-73.1
95.1793
107.02
93.8772
20.8756
-67.1899
-44.9826
-75.2957
-63.7869
-2.58488
-38.5829
-30.5322
37.6832
25.5437
16.048
12.9431
59.1289
111.904
88.9055
37.3458
21.8525
-49.7377
-75.5139
-99.6372
-77.1124
20.5444
23.9705
25.4651
7.42289
-47.836
-47.2586
-34.4182
-76.7075
13.357
66.6889
70.5223
39.0214
6.11824
4.53528
-8.75371
7.81637
-54.7434
-51.2849
119.587
139.609
-2.79569
-42.7842
-1.98075
-2.23356
-24.1296
-9.94072
-28.0782
54.3678
25.8764
-25.9767
3.07109
8.96524
-21.4744
-43.0553
-119.889
-108.51
8.33071
49.272
53.092
75.6474
46.637
-5.45474
-107.921
-79.0328
22.2998
4.58297
18.127
31.1555
5.29548
22.1158
-36.6533
-44.5456
106.398
86.677
60.7883
47.4057
24.7837
-4.489
-73.1198
-132.888
-119.072
-25.1276
143.398
117.195
37.9353
21.0322
38.2864
44.9251
-32.3221
-98.378
-7.68516
7.75752
-76.9872
-73.9799
-22.7811
3.57664
-68.2548
-37.9182
68.6662
67.7799
16.0916
-10.7762
-28.3021
-38.2529
-107.453
-56.5223
56.2295
54.9599
55.044
52.3908
39.5452
21.245
-60.069
-69.9482
44.8575
57.1832
44.1298
30.1551
-15.6333
-8.60302
-35.3495
-82.5974
-41.0579
27.97
74.845
66.7032
9.67086
35.3948
66.095
-31.3792
-104.186
-36.8349
83.9144
85.7593
8.36642
-20.7549
-10.127
-39.0175
-103.577
-102.939
3.91532
60.4552
46.7954
48.8913
42.1352
-19.4521
-86.6124
-108.486
-141.157
-5.53115
54.1878
33.1648
-55.103
-65.256
26.0829
25.7589
-73.9314
79.0643
257.908
236.592
105.883
33.6591
-35.5085
-90.8341
-134.509
-66.3261
-36.8851
-22.6098
10.1944
-1.52472
1.09626
-30.1784
-83.4228
71.4613
51.7718
55.3942
103.99
23.4555
-77.0525
-95.0265
-147.599
-133.797
-48.583
36.048
73.1589
62.7557
47.8928
10.2817
5.57515
-30.7799
-23.5752
93.2024
97.7204
13.359
-9.91035
14.709
21.3236
-82.6184
-35.8846
18.7011
64.2648
57.1131
-3.98714
-43.3271
-33.5916
-109.903
-95.7904
23.3183
115.68
73.2918
51.7863
8.33867
-5.50237
-95.0831
-121.786
-159.415
-39.7956
77.8289
63.7695
13.9442
-7.58098
32.0557
78.7061
-4.88908
-13.9486
109.744
85.4083
-23.6115
-93.0076
-59.0887
-33.9431
-52.6373
-13.9719
13.2981
50.8135
134.846
55.7519
-13.1674
-61.0859
-30.3206
33.9644
2.7681
-47.622
51.8944
53.5008
27.6875
40.4386
22.9466
-7.35507
11.9607
-43.2365
-27.636
-38.4143
-44.6446
-52.8788
-48.4875
-15.1975
-60.9389
-110.973
10.8379
25.5542
21.8027
15.7173
-8.69524
3.74272
-38.3283
-3.42169
48.0371
44.9685
57.7537
74.1695
8.16406
7.29508
-18.7514
-54.0282
21.4919
88.3082
88.8749
64.1035
-1.88271
14.8443
24.1068
-22.3195
-119.979
-101.889
38.5584
26.7826
-17.3221
-28.6649
-10.772
5.90386
-64.2367
-111.322
-15.9184
103.191
33.0726
-15.2068
12.1825
23.6478
-2.52425
-32.4927
-85.6577
-82.4179
47.048
34.9933
-10.3188
1.98034
-0.295603
3.46997
-37.867
-13.9777
65.1086
106.136
84.1449
23.3711
7.33222
-40.8329
-86.6182
17.222
23.8325
-21.0108
12.2646
57.8045
29.8016
26.1433
-84.5468
-84.1837
32.3899
47.3219
78.9266
78.9521
56.3989
44.9406
10.8603
-108.2
-131.13
-1.9776
18.606
-28.9089
-38.6092
-30.4174
-9.80531
-50.7115
-134.44
15.194
98.4886
75.2893
3.29621
-8.50678
-7.98023
-48.9792
-117.031
25.8342
29.8417
42.1872
37.0023
-21.377
7.90075
-42.593
-28.3245
98.6415
103.341
85.8979
72.0257
-51.0525
-120.376
-186.106
-38.0933
65.3323
28.4467
27.6373
81.7358
12.467
-8.14967
-10.5038
-37.1759
23.9722
55.4745
81.9129
43.8335
-55.6149
-67.6498
-30.839
2.10122
-96.1287
-17.613
128.058
42.9598
-16.9399
0.134595
2.85801
17.8114
7.93029
-46.5412
13.4297
70.5396
-5.826
-40.5844
-50.9014
-27.6199
4.49308
-37.9534
-52.7914
25.5642
61.236
20.0246
-47.0923
-93.366
-81.2378
-84.109
-65.7662
49.4816
56.072
89.9885
71.6185
42.7784
6.87963
-22.472
-61.6825
30.2422
54.9516
101.49
104.109
42.1505
45.9452
-2.71051
-70.2685
-103.251
4.67159
41.1273
38.689
-18.4707
-49.645
-44.1028
-50.9056
-61.8623
-98.8694
14.7969
80.3203
-4.40006
-36.0047
-30.7265
-32.7431
-53.8232
-48.9812
112.876
152.759
98.7385
-15.1849
-38.4598
-29.8252
-67.1781
-83.2498
32.4651
62.7227
42.6793
48.0246
18.1234
-15.5694
-62.6039
-120.735
-29.7612
113.4
108.359
66.9234
-40.7597
-45.0839
-3.66479
-26.6273
-100.575
-60.941
99.6689
88.3252
36.7698
43.7982
64.4764
54.762
1.1804
-76.7364
-97.6937
37.1545
34.2125
-54.1245
-54.6406
-16.6875
-25.6245
-3.8415
-44.5816
-35.8768
76.4771
34.6538
-59.3122
-38.7603
-52.2891
-72.4871
-148.191
-86.574
52.0598
90.1911
100.912
49.6277
23.7026
30.0985
-9.44808
39.7854
23.9906
13.924
64.5496
82.503
67.8961
22.9455
-93.4794
19.0389
12.2203
-6.06245
33.6069
21.6527
-40.519
-85.4401
-138.244
-15.5803
73.4568
31.0575
19.4561
5.24543
13.7822
4.12304
-83.2062
-132.801
28.1345
64.2528
69.1729
3.5022
5.1259
5.69175
22.5818
4.98752
-41.0511
70.9949
84.6973
-25.8371
-95.2653
-70.2038
-22.4594
-59.5634
-78.4709
-25.4166
108.379
150.347
2.46374
-38.0693
-18.1516
-17.056
-7.20918
-24.7347
24.0746
49.2967
18.4555
-16.9155
19.6737
-4.42392
-42.0916
-108.915
-50.4561
44.9258
48.3835
8.85831
-24.1564
-17.853
-26.3625
-43.8934
8.39879
49.2274
56.684
59.0123
49.1762
15.1538
7.03559
5.98748
-50.7439
-47.5211
17.0187
68.3759
52.4556
20.0284
2.10136
-40.2163
-70.5281
-129.544
0.329805
91.0787
61.9958
18.9338
9.90963
18.275
-18.0082
-92.2234
21.8133
58.7146
76.4863
42.1546
-20.2456
-30.4213
-48.3
-112.297
-12.7643
14.7798
29.2327
54.9998
-24.8047
-17.0901
-43.7141
-63.4327
-12.3207
-21.6169
-20.5424
29.2054
-7.84919
7.49332
0.439766
-57.7303
-152.193
-73.2946
58.0679
102.352
117.853
69.956
37.0824
34.8135
69.1192
9.97158
-125.683
3.35859
120.077
26.8087
12.3746
36.4809
15.7853
-21.4155
-54.9322
-65.5547
53.6266
3.09895
-63.4524
-44.5909
-10.5293
-19.8412
-55.6347
-13.282
74.4721
42.6869
71.7008
13.0637
-28.5636
-34.8381
-87.9257
-54.6762
31.9621
1.54562
0.420964
18.9004
-3.08597
-6.49611
19.0804
-12.8636
8.00409
82.2444
76.4694
-6.53604
-94.073
-37.9922
21.4944
-16.9874
-60.1618
-10.1786
128.138
75.5417
-1.91987
-7.8406
4.85245
23.2969
-1.57665
-79.0815
-112.685
41.8131
12.7315
-45.4352
-20.1641
9.45646
-19.5241
-53.6554
-55.0923
28.6958
69.925
42.1762
-13.7008
-23.399
-24.3399
-0.356107
-32.2057
8.04681
58.6875
108.545
73.0776
5.2953
14.0503
-8.56955
-62.8676
36.1938
86.2822
19.0202
-23.6266
-56.0761
-64.6273
-42.3923
-86.4332
-28.2897
12.0453
8.54174
30.7251
36.5634
21.8956
35.944
-17.7664
-33.0816
-26.4957
-15.3128
33.4516
13.3101
6.40889
21.7622
-62.643
-143.104
-44.0515
51.1964
100.034
102.72
53.306
22.4879
26.1773
-79.0338
-26.7011
40.0692
62.8921
31.5889
30.3538
1.52646
-37.4483
-103.357
-94.1164
21.6055
79.9123
76.8378
7.09804
-48.0803
-48.9639
-90.8287
-162.3
-64.7842
35.2398
79.8387
42.5579
-2.2431
-8.30959
-8.45424
-51.8101
6.64582
93.3276
99.6045
57.7134
-3.44687
17.8415
10.0722
-40.3324
-60.9497
-8.53184
-15.1831
40.5875
10.8433
-20.1702
-1.74824
-89.4521
-80.7116
79.7279
97.0321
68.6067
9.35015
-15.3653
8.23745
-12.6628
-104.212
-34.5791
48.4931
49.1992
42.78
39.818
38.9742
17.9883
-3.88943
65.5225
55.9942
35.5028
-14.3272
-81.4361
-84.3252
-97.5928
-63.1905
-0.409504
-52.4851
-59.7898
-7.75168
5.53131
1.15963
-44.0053
-55.0804
5.1299
11.1463
24.8096
20.593
-14.8838
0.688157
28.1653
-19.0552
-28.6671
20.3897
64.5732
74.566
32.0914
33.0731
54.5303
60.8917
-4.1015
-20.2725
81.2429
103.776
15.8363
8.96108
0.737929
-20.3075
-67.3527
-93.2583
-119.134
-24.1375
14.0805
-10.0998
7.36902
-16.3543
-50.3725
-36.4475
-61.3331
-6.28473
70.8665
43.901
2.87399
0.790777
-6.22176
-42.9139
-134.158
3.1193
83.19
58.3383
71.7185
60.2043
24.2069
-3.98594
-59.4518
-33.6046
37.6738
29.9299
45.7052
16.9838
-26.6643
-26.7163
-75.0702
-87.4306
5.67736
108.427
152.278
50.8546
-36.9039
-23.3101
6.38514
-80.8934
-104.46
1.5694
84.3057
43.5738
-27.3985
-19.1803
8.69626
-2.009
-67.9406
-11.7099
-4.93218
-20.0439
-60.0143
-61.2432
-13.182
-41.2231
-63.0063
32.4068
61.7894
98.0327
70.5739
6.02324
1.65444
-46.3891
-84.9306
57.4333
43.9931
26.9509
75.3328
84.4472
86.5163
20.9585
-110.217
-54.0009
39.7221
59.0499
42.5519
7.67592
-2.34201
-15.7103
-29.6701
-92.8079
-133.427
36.3137
50.2192
-24.625
-17.3714
-0.695953
0.769799
-71.6548
-144.827
-82.8561
56.1601
119.006
52.8526
19.7099
41.5317
9.29904
-8.79824
-15.4424
-41.6417
63.961
86.0795
-34.3634
-50.876
-48.9707
-37.773
-70.5167
-53.8868
45.7024
88.6817
82.4504
44.041
-46.3359
-44.4172
-67.2725
-114.334
54.1849
116.129
103.967
109.335
58.1931
39.0233
-15.207
1.21896
29.2056
3.14132
9.45201
-20.4713
-77.5322
-44.1268
-24.2034
-105.822
-101.373
-5.64541
33.0374
62.8496
-47.8413
-85.5359
-62.5356
-52.2233
-107.576
-31.5327
68.8788
75.9803
44.5632
74.1526
101.19
86.5196
-22.5794
21.4544
56.7333
58.1413
5.3547
-59.8948
-46.48
-21.2131
-105.387
-106.062
55.0731
66.8972
60.4865
20.6502
19.6613
40.3248
0.275503
-76.0724
-79.7612
16.3947
47.9505
31.6611
-7.5587
14.7348
-1.10597
-70.7217
-16.9332
61.0615
73.8228
48.2254
-32.7605
-18.8232
-7.78587
-32.0293
-122.073
-85.2063
55.7537
71.4277
50.2832
-1.79027
19.4133
5.44478
-45.8215
-115.043
-30.1175
38.9154
13.5817
-23.2415
14.0239
51.6787
25.6265
-25.8579
18.5716
22.7223
27.3649
3.25725
-60.5198
-15.5982
-27.4845
-90.0262
38.8083
45.1151
41.7854
102.949
57.9029
23.6506
-33.32
-77.1072
-9.20017
-9.08999
-13.2552
32.3229
9.93227
-4.16258
-2.85321
-15.8497
15.6027
23.0918
27.8009
38.2398
-31.7793
-55.2562
-18.1175
-27.7294
-59.479
37.7039
58.399
46.7695
-18.6995
-39.8622
-29.0799
-19.5271
-81.407
-91.5521
19.0801
101.856
23.8146
8.35637
16.7462
12.6306
-4.52297
-21.8618
-77.988
45.8668
84.7111
36.0957
19.36
22.2832
-2.907
-0.354295
-39.0993
-61.787
52.991
50.8209
21.075
-0.888932
-10.6247
-23.0043
-91.7061
-68.7818
19.9761
23.587
37.8476
-2.38149
-17.5525
-41.8465
-40.1046
-6.88503
62.4382
45.6797
46.5868
49.8373
6.6777
28.2755
9.71615
-92.4818
-97.9191
34.8158
78.6567
51.7153
-39.0567
-27.5795
8.16962
-53.2668
-108.168
0.709315
64.8713
38.4003
-2.1419
19.9021
15.9507
-32.938
-41.4624
60.9988
33.694
27.5159
-2.00373
-70.5082
-36.0384
-30.3774
-39.8989
-6.32595
11.4891
38.8683
50.2103
-8.97121
-36.1767
-111.018
-45.37
25.2682
45.7159
77.7109
51.9873
3.794
23.6733
25.4243
-12.9418
20.0004
52.4593
55.1515
28.3708
-4.40863
-13.0526
-5.0759
-6.18448
-73.6959
20.9383
66.3027
3.54436
-27.8029
-38.5829
-24.98
-18.7362
-51.157
-123.198
-90.3611
73.0218
71.7016
35.3491
18.5096
14.7598
15.7469
-2.35875
-54.8752
-9.02777
39.8997
-36.5795
-15.9509
6.96118
-20.686
-35.1566
-59.1796
-20.5633
37.1713
72.7557
85.0992
27.4849
-38.1775
-41.8843
-60.046
-11.8812
26.1428
8.35345
39.397
37.0632
21.3632
-7.29118
-40.2276
34.9482
49.7624
53.2303
50.0827
-3.44106
-42.2793
-3.33305
-11.4066
-76.3472
-6.35045
6.26628
21.4258
-1.23572
-12.5703
5.64233
-9.11258
-72.5664
-41.421
43.742
64.4729
-11.7487
-23.5568
-16.0229
-17.982
-49.6275
50.7385
47.0106
31.7871
38.1664
-20.967
-23.5378
-19.1317
-118.731
-33.0039
76.3367
84.5481
90.3333
37.0628
-35.375
-36.6112
-55.4067
-138.938
-94.2673
76.2004
108.541
28.9152
8.51865
17.3607
9.0577
-59.9844
-26.6815
59.8224
126.808
61.2338
8.0821
-8.31847
-34.3605
-45.4249
-88.7881
-110.247
-3.89412
76.3997
62.6427
-13.3835
-18.2546
-33.2629
-20.3579
-62.1409
-24.5379
31.9528
32.7596
-0.516446
-6.18816
-31.3845
-72.5619
-54.1725
37.5371
31.7128
50.9455
77.1563
0.52336
11.2841
-37.1957
-50.6919
88.5393
62.084
32.5935
18.9938
-13.5413
-37.773
-126.447
-49.7859
103.169
67.9453
46.2285
73.6469
23.6624
-8.05299
-26.4463
37.1111
47.1392
-4.10864
-8.15807
-23.8709
-84.6571
-95.1333
-75.6431
-41.7423
-45.7359
15.4723
79.4054
49.0866
-40.8144
-39.4925
-21.2452
-51.421
-63.281
-34.6416
6.50817
114.663
38.6165
15.084
33.6614
47.0441
24.7554
-7.81825
-3.49096
110.005
83.2181
36.5891
18.4406
-57.4216
-75.182
-100.781
-117.789
16.5625
30.8779
13.098
21.4903
-41.5256
-61.2346
-109.881
-41.5227
69.0354
70.4975
84.4416
70.9062
-2.24039
5.45159
-51.0827
-98.2144
48.339
87.3386
102.151
64.776
-17.0073
-18.6869
-37.877
-33.8353
-91.0781
-90.1181
103.668
89.5451
-3.29237
-39.0439
-50.5796
-55.4888
-68.2754
-98.7617
20.9143
92.5472
29.8841
-0.0663078
14.1145
36.3031
-9.65347
-19.6154
80.8798
49.5943
23.5262
32.5337
-14.3488
-26.0639
-60.8034
-64.9634
17.2921
15.4458
-7.31095
19.5251
-9.8038
-1.96908
-80.8464
-86.9082
30.9183
62.8215
35.8685
34.0232
-10.8108
-11.1393
-51.8774
-60.9746
50.0524
94.9427
76.709
52.8719
3.48517
1.31745
-1.19804
-24.263
-69.2156
38.6253
42.6782
16.9347
-42.7454
-63.849
-56.6561
-37.1756
-39.0047
-57.0005
6.48109
31.2535
52.1594
33.6995
20.9626
-0.372613
-13.0149
-33.6397
-75.1016
-52.8752
105.506
66.2557
49.1964
17.4026
-10.1031
14.3728
-15.5568
-28.2997
29.3491
38.5424
25.1422
32.3659
-91.09
-97.184
-103.94
-64.1116
15.4317
36.394
82.1189
86.1634
-2.92123
-62.6247
-120.454
-46.6319
93.5187
107.536
127.27
109.349
30.6294
6.63478
-8.97762
-15.6488
-113.056
-73.7482
30.9465
26.1546
-27.0165
-17.4731
4.74004
16.7463
-52.4344
-111.313
51.8257
53.3449
-32.0508
-43.972
-34.4135
-11.6658
-63.0286
-67.6621
38.9246
74.6933
86.6472
55.2283
17.7139
21.6184
-19.9689
-91.498
15.7215
53.8771
52.9921
65.6985
-8.59901
-25.1314
-54.2446
-48.6914
-86.9391
-107.112
52.6211
76.8512
20.2053
25.8017
46.9996
20.5583
-27.1192
-68.5543
-30.0037
108.581
49.5076
24.552
4.87817
1.29085
-2.86234
-15.3349
-105.107
-23.5768
33.186
30.42
-20.2161
-12.8593
-35.8022
-39.619
-67.6313
12.2275
50.2857
75.7091
55.4377
13.7416
-19.3026
-43.5351
-60.8246
-19.6497
63.7455
39.7275
50.6709
-1.91343
10.1584
5.63088
-78.287
8.74736
37.5157
29.417
50.0402
0.687338
-31.0078
-57.7356
-90.462
-3.6174
18.6379
15.9257
16.2228
19.1829
-23.7668
-74.779
-104.433
-85.2273
15.8894
94.1506
92.8415
58.3731
34.5932
7.7475
0.900911
-83.59
-17.0527
109.256
81.2288
-0.314394
-38.1071
-3.32211
41.6392
-12.6938
-105.971
-11.984
97.1502
73.9697
3.47534
-21.554
-6.50353
-29.4266
-76.0259
-143.838
-45.6713
78.0245
28.3126
-17.1972
10.8721
-11.0195
-12.4373
-73.4249
-18.5724
46.5108
67.4691
47.4402
41.8368
36.874
-29.6823
-106.678
14.2414
38.0256
32.8823
33.8388
3.41774
-19.9021
-24.6345
-117.672
-103.469
80.8901
100.251
98.3528
38.3768
-0.502003
9.71848
13.4792
-87.8391
-130.419
32.256
85.1914
8.80309
-38.7522
-18.0893
31.3209
-17.7566
-44.2708
31.1568
47.0247
74.8817
-23.8817
-43.8543
-29.3686
-66.8893
-56.1197
53.5258
51.9213
78.7665
72.4094
-23.2056
-25.1821
-64.9213
-81.0906
32.7156
45.2308
52.7842
28.3412
-13.6957
4.62018
-53.208
-79.3389
0.328534
2.57153
9.41502
-12.1917
-57.7817
-62.897
-87.4788
-47.5513
-13.1683
93.9665
80.5719
80.2803
15.5406
44.9379
55.6505
-5.95535
-61.9751
84.7984
82.378
15.1476
-30.7861
-8.06032
17.2906
36.0117
-15.7372
-118.438
-87.7177
64.0062
40.4932
-20.2252
-12.8023
-9.38935
-30.8565
-55.0561
-115.798
16.9536
81.5319
17.6871
47.7254
19.663
10.8386
-18.1768
-105.158
-46.4366
8.89542
64.1743
79.5407
-16.4867
-18.8638
-32.8254
-63.0976
40.2467
34.7805
27.1663
58.3971
32.2526
15.7991
-40.6461
-100.236
-29.1994
-5.98331
72.968
105.115
50.154
14.4822
27.9832
33.0437
-35.9548
-74.6341
-12.65
31.6469
-23.0323
-38.0303
-29.5011
-23.616
-71.9261
-119.2
7.96255
65.3099
28.8319
-6.77289
-28.0053
15.002
-29.3031
-88.6144
42.5151
97.6661
95.574
73.5258
1.4433
-6.40337
-37.8902
-82.0182
-54.3846
31.9862
66.0788
60.2351
-37.6006
-38.4032
-35.4424
0.334762
-13.641
-12.3723
101.914
101.397
13.0098
-25.6285
-26.1174
-19.8037
-28.8421
-75.0726
-82.1378
59.5949
74.699
0.680322
-20.2766
3.73409
-35.269
-2.4824
-32.4741
-89.8124
32.4655
86.0311
43.2903
50.5994
25.0567
23.8978
-1.19139
5.01554
29.0948
49.3385
40.7394
-22.8969
-55.4541
-70.6509
-106.303
-13.7839
39.141
39.1515
26.4156
-35.8889
-118.834
-96.6887
-73.6868
8.69621
5.49415
5.99874
30.2474
20.5114
-27.5837
-26.8061
-13.5643
53.9242
51.783
61.0732
70.4621
7.82785
-31.0618
-26.0704
-46.567
-12.0813
74.9724
135.478
92.608
50.5718
43.8947
7.65715
-20.8742
-68.553
-120.618
17.9073
84.1807
5.98605
-6.09472
-16.71
-37.0775
-60.8085
-110.137
-71.3132
110.005
133.882
41.3143
-29.4929
-41.2034
-72.9664
-77.9905
-64.2726
-71.846
34.8346
102.071
45.7909
8.41625
-25.4934
-14.7525
-1.76664
-40.2983
38.9994
95.9358
29.949
-25.0237
-7.82098
-30.134
-57.5349
-112.219
-73.7307
17.7027
6.37558
33.5149
39.511
40.6265
58.5722
49.4396
-39.5259
-67.9266
81.0273
124.992
60.1475
43.1035
29.9387
-48.7297
-72.7257
-126.033
-60.6696
71.0562
51.9701
-19.4262
-44.2874
-23.1966
-30.6017
-64.3966
6.08767
-2.08003
56.3069
62.6763
-35.0148
-8.6188
-9.72226
-66.4802
55.2447
91.8228
62.1294
47.5979
4.46053
-43.6771
-85.2749
-106.977
24.7255
66.4226
12.3899
13.0061
-45.6197
-39.2249
-20.6161
-24.2225
22.325
52.6667
50.3149
73.2659
10.6106
-11.3618
9.85937
-12.6495
-146.019
-50.6101
98.4565
93.4755
5.86951
-52.1284
-53.7131
-23.7514
-44.6641
-108.321
-24.0715
118.507
49.2774
16.0804
-0.908076
18.4854
26.4645
8.1783
-44.4471
50.2318
135.357
51.7032
-33.4513
-21.8435
-4.43208
-48.7993
-143.403
-14.627
-1.4174
25.4301
-0.11185
-44.2107
-47.704
-81.4326
-107.901
39.6344
31.5656
19.8849
55.4972
78.4015
105.536
50.536
-7.09793
36.7617
43.8856
63.2131
128.794
10.8984
-48.9613
-9.08039
-26.2287
-114.5
-91.1467
-17.1759
-1.44873
-63.074
-59.1974
-19.642
1.35199
-86.7816
-69.8319
24.022
37.3877
-7.93412
-27.2401
-15.398
-6.13606
-47.096
13.0609
120.484
115.465
91.3737
48.885
42.1386
65.7567
-31.2325
-41.4353
38.866
24.5954
14.8803
-13.4535
-51.5747
-44.5159
-131.562
-70.6837
51.9514
104.704
102.64
32.3044
-36.9528
-48.6814
-30.0409
-27.2828
-52.2393
14.8532
36.0021
6.94008
-58.6973
-36.359
-12.0688
-16.4718
-54.222
-75.3743
65.8854
93.6892
33.6937
24.061
15.728
-24.8077
-44.0323
-70.3244
-96.5781
71.4895
77.0671
2.93654
-0.390739
11.038
11.1171
-11.9192
-15.2875
60.0946
40.6753
44.7246
9.08168
-29.6191
-42.396
-106.124
-66.6378
35.5909
15.4162
34.1266
83.0335
14.4775
-23.5824
-124.384
-16.3236
109.898
101.459
83.0523
71.5037
10.7136
1.56199
-60.0956
-60.2274
48.7117
26.1851
23.3003
2.32612
-31.1712
-47.9344
-38.3708
-46.7789
-122.62
-27.0566
38.0477
4.18042
-68.1564
-76.8804
-19.1623
-41.3824
-105.955
32.4423
124.116
107.021
8.8662
-21.9596
-10.6437
-20.7739
-73.6339
62.9293
110.911
106.66
82.5608
32.1977
47.9862
19.8142
-20.6267
-84.5848
-74.6965
47.8981
52.8617
-19.6934
-23.3256
-34.6086
-85.9695
-160.084
-27.0753
64.3113
93.9876
18.7704
-15.5676
-3.24683
1.8495
-58.5713
-63.6073
33.5872
26.8221
43.3244
37.2367
11.3168
51.2641
10.5068
-57.8415
-117.725
-1.54222
100.509
47.9872
9.74136
-2.80123
-22.7345
-35.5479
-111.053
-20.187
79.615
82.1543
14.2414
9.69528
18.1492
2.72086
-53.7898
-16.1425
10.9335
38.1339
70.6996
-3.56472
-0.662555
-35.5821
-116.891
3.85142
12.3303
9.08936
54.4798
20.377
-1.85304
-55.5903
-124.82
-34.0949
67.9411
75.882
74.7547
26.2384
-18.364
-10.1054
-43.0291
-107.477
19.3253
48.2187
38.2837
-16.762
-8.45518
-3.31236
13.296
-33.7965
-85.7418
0.207584
53.4281
41.1181
20.7501
5.94978
-23.8266
-50.8625
-14.3406
-31.4879
5.99613
80.7586
54.2222
25.9743
42.2227
4.27363
-14.3869
-28.7402
-55.4304
-62.0806
50.8171
60.3027
24.3263
-8.84782
-32.2979
-12.4605
7.27702
-9.46349
45.2882
52.3678
64.3071
40.5654
-37.703
-46.7621
-25.2291
-76.7913
-35.2821
-18.2443
6.8433
25.8318
-7.18883
-20.4801
-66.9649
-153.239
-49.4838
25.4091
46.9079
67.1614
8.98962
17.3844
40.1354
25.8706
-29.4107
26.4503
39.9928
42.17
-16.715
-7.91523
30.776
-1.45643
-51.0936
43.8505
57.3133
72.3079
17.3669
-18.8533
-30.454
-74.5287
-23.4457
54.4455
12.5696
-13.51
6.09107
-17.0527
-25.4811
-43.8081
-33.7682
29.8779
36.7988
36.2057
23.7849
-52.2691
-70.0036
-74.1527
-145.046
-29.3747
167.627
163.474
51.2981
-8.61578
-16.8594
-38.2359
-54.4787
-105.81
-31.9058
131.612
105.113
30.4507
-1.65916
29.1794
8.2549
-54.118
-87.5352
-67.0562
106.852
33.9737
-100.961
-68.7394
-36.0421
-42.2866
21.8375
43.7866
34.3544
67.2341
19.5968
-42.0484
-19.809
-12.308
-14.1399
-71.671
-74.6484
74.658
120.35
116.908
34.3319
-7.06282
-27.3891
-55.0724
-29.1743
43.2121
43.6621
20.277
25.5276
8.42086
-17.748
-93.9222
-88.4964
-12.8775
-2.09776
36.684
70.9621
4.01036
9.30788
-25.0542
-27.1623
-9.09557
4.18218
6.85793
-10.8148
-21.2466
-17.8597
-4.51355
-12.2524
-48.9053
43.2078
50.0602
22.999
-15.3076
-6.31695
7.53635
0.845579
-72.9434
21.9797
77.8006
20.1962
-4.98941
-6.97175
28.6845
6.09002
-98.8023
-95.9785
-28.1359
63.4905
87.9877
56.5863
44.9878
6.10911
-39.5846
-22.9899
-35.997
26.2286
80.4971
27.4021
22.5863
-3.10465
-35.4301
-85.4275
-112.367
-11.1816
51.4875
62.1018
8.31565
-46.6668
-35.7586
-69.5002
-137.545
-9.08962
115.763
84.2262
44.6261
34.4876
28.8337
26.2799
11.8391
-55.4225
-71.5473
-12.8463
24.3498
0.641478
5.64453
-9.73908
6.45468
-56.1048
-5.04815
51.5961
95.7488
51.3087
-22.806
-33.4898
-20.6091
-102.038
-42.7554
69.3072
45.6862
62.6314
78.8732
38.2488
19.0627
-56.7017
-16.4571
45.4579
26.8156
30.4476
-34.1325
-85.2194
-46.8044
-126.374
-94.0186
4.2498
17.7924
49.0614
28.5995
-29.2761
-26.5083
-71.3929
-131.41
9.9755
148.451
120.913
57.9541
-4.62637
-10.7096
16.4043
-14.5622
-100.857
57.3381
131.186
60.7042
-6.46517
-5.99302
-7.06679
-22.9984
-46.0638
-73.7219
11.3138
77.738
4.49222
-48.6438
-12.8602
7.2977
-9.60915
-87.5898
-47.1499
99.3478
115.416
22.2627
-35.1236
-65.6538
-31.0007
-64.2583
-34.8153
-19.8436
-26.6517
22.1287
35.3635
40.1965
-3.57342
-73.5723
41.543
69.9513
7.30517
37.3092
38.6644
-21.8943
-20.9296
-101.292
-65.003
-9.05265
68.0313
99.1495
63.4711
25.0536
9.86276
32.1817
4.28755
-41.5019
4.33245
31.4438
-40.0074
-53.1492
-1.78041
21.5186
-35.9459
-67.3793
33.6532
45.6357
24.1069
0.980978
-68.3027
-39.3594
-34.6665
-20.8135
58.8449
46.2447
55.0613
58.3248
-9.7657
-43.5154
-99.2941
-95.2329
-23.043
-11.0056
3.64668
15.0941
17.1235
58.3914
21.5692
-39.73
72.1622
78.7175
57.3261
13.2762
-61.1875
-33.2319
-12.0766
-65.2553
-79.1416
-26.9461
104.563
76.5411
17.7344
10.5433
0.513799
-9.99742
-56.018
-62.7474
54.7263
63.3921
-38.9901
-48.5651
-2.69659
11.926
-15.6607
-35.1739
-46.9307
55.3685
74.9287
50.6301
-25.4091
-4.40422
8.89559
-9.16759
-31.4029
17.0452
12.2225
26.7946
13.1215
32.7666
0.396297
-57.2706
-104.031
1.43991
13.0728
-4.31526
25.4143
54.2347
20.6014
-61.639
-70.9753
24.8947
-10.4724
4.61158
24.5782
3.1105
37.014
-48.0625
-59.653
-9.62809
22.0826
37.027
62.4563
22.5932
11.7856
21.7123
8.70589
-65.3515
16.0997
53.7767
37.4166
-17.5021
-6.4006
-1.84059
-19.1082
-63.5787
-30.6436
20.9617
6.47391
0.251193
-34.3545
-19.2823
-40.4608
-69.3655
-12.8129
79.2837
67.8623
53.8346
8.34153
17.33
15.339
-20.105
-59.9305
43.9368
69.214
46.4811
-30.0728
-41.1508
-53.3653
-76.5892
-94.4323
18.9141
63.802
67.137
14.3254
-47.332
-46.9238
-52.9487
-70.5316
31.6437
97.5664
55.3063
37.9551
-24.8329
-8.40854
36.1227
44.8379
1.03053
34.3353
61.8538
83.1774
8.45615
-45.7217
-76.0366
-83.1485
-133.323
-52.0537
11.6548
29.3967
2.16931
-27.1213
-5.87221
-28.0935
-61.2035
25.9953
57.9187
24.5424
42.7214
38.2986
38.4229
-5.23493
-50.7282
65.808
42.39
17.5032
46.077
26.3928
31.833
-6.2776
-57.1505
-10.9308
-14.7981
27.4195
-0.594508
-81.0125
-89.4352
-91.1133
-60.4882
27.8033
33.6932
57.5979
76.0593
4.26685
-21.9017
44.5205
67.6196
-48.7014
-108.109
24.3414
27.0476
-28.4398
-16.0855
-8.15448
20.0886
29.7334
20.4458
-3.46678
30.5185
-20.9508
-26.3335
0.333261
3.39668
-3.75861
12.1472
-60.5068
-93.1424
75.1067
79.4477
-2.55365
27.2131
32.9839
8.25148
-36.1305
-9.7268
28.7264
-1.75208
24.9767
9.51233
-42.9759
-51.189
-127.725
-66.7298
46.6839
56.9623
58.7477
72.289
8.99518
20.8825
-8.70021
-62.3291
-98.673
21.6205
53.2082
32.3252
14.3186
23.7412
35.9373
12.9853
-32.8655
-24.7202
107.961
70.2077
-9.92698
-45.5029
-30.9508
6.40472
-43.1252
-19.7922
32.7003
-10.0431
-43.294
-90.6666
-50.695
-25.6742
-49.4716
-85.8187
53.7476
54.0094
36.255
20.4814
19.9877
25.5127
-67.4547
-4.05529
47.7372
27.8146
17.5454
32.2023
4.35158
29.9133
-7.11606
-58.922
34.9864
59.7317
37.1797
42.1617
-6.24215
9.95626
28.7917
-5.19194
-158.729
-122.201
-22.4671
48.7868
49.7038
32.742
31.6244
3.32394
-38.8713
-77.5314
-44.6288
76.6714
109.002
54.6801
14.1696
-7.41964
-37.0915
-8.83247
-59.655
-59.0797
56.9252
37.1232
19.2242
-31.5597
-52.6521
-46.5168
-58.1559
-14.2775
14.1812
52.5498
57.1658
-18.5374
-48.8947
-60.5699
-100.108
28.8435
66.6601
33.6432
70.442
61.9309
20.8733
-1.05847
-37.4166
31.0239
57.7351
28.3615
20.3504
-6.62201
-23.3126
7.99745
33.2267
-56.0733
-78.481
59.0701
100.448
44.0675
-10.6633
-63.3314
-89.6829
-87.2258
-124.635
-41.5536
32.8294
-3.02931
-27.4706
-2.45042
3.45181
7.76657
-2.24616
54.0454
65.7048
79.901
66.5179
22.8291
1.49341
-59.9695
-100.537
-36.4783
74.7317
88.9257
84.2198
39.5521
16.3835
-44.2983
-84.2424
-112.951
12.1371
39.8034
20.0985
-3.15918
-33.8421
-17.4971
-30.3183
-98.2008
-107.814
36.3781
94.935
51.2935
4.86853
-2.91482
10.6956
-5.60295
-13.7562
-43.5414
-0.546056
93.9637
26.7536
-9.3983
39.5299
51.0985
63.546
-1.48773
-65.0732
32.6558
102.304
-7.95224
-53.9694
-45.8191
-53.2537
-44.9288
-34.4727
44.7232
34.5238
41.8352
-0.449377
-46.2107
-23.3463
-22.2027
-80.3184
-44.6146
-61.7362
-15.2588
38.1884
10.257
-3.97137
-87.1858
-95.1396
97.7881
113.746
102.284
95.3774
12.8428
-26.7971
-53.1168
-80.7
24.6897
80.3794
61.275
63.2429
16.5233
32.3357
33.7226
18.4742
-60.2237
-80.3491
43.9545
15.3269
-83.3457
-68.404
-31.3249
-41.2098
-76.5058
-113.575
-63.5891
126.689
79.9601
26.3572
40.775
36.4239
-18.7849
-24.2225
-68.586
-56.2894
-13.0399
37.6709
36.8857
76.718
55.6231
18.5311
-46.5934
22.6361
25.7667
44.8472
52.5247
-20.179
-42.9591
-53.6199
-144.068
-104.433
45.5194
58.4013
107.75
94.9898
26.2171
-3.12116
-19.8872
-71.1766
-29.8598
42.1506
35.0064
-20.6168
20.8035
79.0934
18.5261
-29.4529
-83.0038
-50.588
63.4677
25.7768
-57.7798
-34.7833
-31.8258
-37.2583
-84.3342
-61.5686
-12.7429
65.2353
96.0401
58.4934
32.0418
-42.7249
-111.913
-23.5325
30.582
35.4342
34.7064
-8.26926
-11.2482
-10.1146
-66.5477
25.6831
86.8767
63.3105
61.0201
34.9883
46.6877
-10.7176
-107.213
-84.0684
49.7447
69.6225
24.0281
-38.0287
-44.8352
-45.9202
-41.945
29.1465
46.345
34.3533
78.4478
15.2133
-31.6242
-30.1336
21.5486
-10.3142
-88.4171
16.393
5.22213
-68.6538
-127.621
-42.9093
29.7005
5.46274
-55.5286
-28.8223
62.2978
82.4389
145.681
143.501
43.6515
-76.9813
-133.895
-109.453
19.9164
44.3483
63.9535
15.7589
-18.3479
-28.5337
-48.0252
-50.8413
55.1825
62.514
85.5932
59.8417
31.212
-36.2253
-137.256
-98.1357
17.0994
71.1263
93.4512
71.2311
-27.227
-27.2753
-53.0706
-142.142
-16.0369
23.5156
14.1993
17.7284
-18.6829
-24.5272
15.0577
19.4523
-63.6275
-61.194
9.20118
28.189
5.90512
-1.59435
7.04322
10.4081
-50.3186
-27.7529
81.8194
93.2924
51.9103
61.6151
88.6873
79.93
11.202
-24.7866
4.95927
-33.7816
-9.46365
-14.9608
-48.1416
-78.6122
-126.005
-148.824
11.435
69.6032
68.6763
88.3258
33.2057
31.8594
3.23895
-23.0596
-117.01
-52.4614
-10.0841
-21.7564
-12.1368
29.159
12.0425
5.22612
-85.67
-112.555
72.3897
134.027
58.8953
59.4317
88.6095
55.0855
4.26041
-3.59411
-117.872
-100.652
-25.5616
-50.3029
-39.9221
20.5099
23.0338
-23.8636
-2.48604
43.5123
85.5647
103.707
-2.96812
4.14071
-31.8525
-119.322
4.54506
52.3344
14.2103
34.6155
63.8237
49.9514
29.8141
-56.3994
-24.9277
-34.5012
-44.4752
-13.7941
7.80232
-21.367
-89.6719
-96.5356
45.6716
111.32
67.9182
47.9391
-21.7144
-43.1967
-71.7368
-158.064
-85.9017
84.746
126.78
101.601
43.8904
2.8914
-8.94359
-1.40417
-42.6763
-50.6745
105.541
118.725
-19.06
-46.2032
-74.4017
-44.6852
-123.217
-208.227
-120.606
127.334
132.514
41.7491
37.8971
27.4686
13.9883
35.994
-49.7559
-4.68779
96.1397
73.528
-1.87334
22.0881
17.4232
-29.8687
-16.6762
-34.9599
33.2809
72.8698
50.2128
-3.99222
-10.5818
-110.756
-139.58
-69.0055
52.4229
38.043
62.7966
7.06588
-20.4561
-27.3097
-59.7373
-50.3235
30.0475
4.67243
5.1789
53.893
23.4897
23.7629
-5.53047
-81.9771
-21.8941
32.4633
27.1143
12.3594
-35.5374
-0.140219
33.0094
-2.95814
17.757
26.6193
17.0221
38.0238
-14.4798
-5.60841
-9.46831
-52.5136
43.0612
81.6797
26.1728
-21.8541
-70.7315
-55.3573
-18.9797
-19.7387
27.6154
15.6466
14.5868
37.0388
-26.9776
-77.3875
-97.7649
-123.737
49.2563
98.6642
74.2078
80.7389
-4.93931
-24.941
20.6511
-0.0456513
-22.7606
31.5086
1.94952
19.6125
-8.47425
-7.25434
-2.06807
11.1363
-1.46544
11.9673
76.0103
65.3604
-91.2514
-105.145
-59.8686
-17.5706
-36.0685
-85.3503
-63.891
125.527
131.493
35.1531
61.7663
44.7933
-51.1317
-82.1916
-112.323
47.0573
59.3939
46.0315
49.4783
85.4764
49.4987
-30.1916
-84.8502
-57.5935
-48.1273
-9.95749
5.78611
-45.8683
-57.9542
-84.8532
-101.993
15.08
41.938
50.9133
81.4052
21.7294
6.89867
29.4004
-20.3234
-79.6532
3.55344
87.4958
94.9718
65.8269
83.7663
99.3263
64.8548
-35.7203
-124.046
-38.6497
7.01399
-40.4942
-33.37
-4.83758
0.18651
-55.7154
-148.222
-79.3109
95.8306
128.295
-25.4456
-64.7149
-39.4406
-89.1251
-112.118
1.85838
49.8048
77.442
112.158
55.5354
64.5012
62.9933
-42.2235
-78.9386
38.1627
18.9833
92.072
52.2217
-38.7787
-40.3465
-68.5346
-95.8344
-125.744
17.7519
140.21
96.9831
31.8826
-20.3036
-36.0044
-44.1352
-57.8077
-119.519
23.4647
115.63
33.3903
21.1455
3.04757
-43.9554
-73.4102
-47.0744
-35.4152
49.3339
91.3568
21.6062
-18.7306
-33.4893
-37.3206
-25.9316
-5.66384
74.8383
84.5154
44.9416
15.5064
-13.6361
-43.112
-69.7953
-47.4717
91.3332
46.0057
4.61771
24.7121
10.7753
58.9609
17.5838
-69.6106
-10.7616
-31.4032
19.7442
36.0525
0.00982508
-26.2597
-22.2016
-62.5691
-34.0233
26.5912
13.0714
-25.4176
-86.8743
-14.5781
14.2114
-9.89658
-60.2131
-71.176
38.4639
44.1699
-37.873
-15.2131
-7.26194
41.9978
15.876
13.0332
82.1765
89.8201
51.2624
-12.7572
-2.26615
36.7573
-15.7417
-88.2007
-11.9689
81.8109
64.7718
43.8202
-24.5376
-6.58798
2.35993
-15.766
-71.9375
22.814
57.548
1.42604
-75.0033
-66.5431
-57.0915
-62.6181
-77.2119
71.878
111.881
66.8667
-3.07077
-14.18
-5.74251
-18.269
-108.284
-57.2228
-5.53118
28.7407
61.3265
23.3737
6.81745
54.4849
36.9984
-36.1207
-70.3575
28.4909
66.6464
7.5739
-21.983
-5.37774
-13.7384
-33.1879
-42.186
100.315
111.855
0.243617
-75.3748
-49.0635
-26.3806
-69.3636
-112.756
-13.9571
43.7111
74.9816
93.4998
74.6902
47.0968
-64.9933
-149.842
-25.5313
53.3154
68.7558
77.1755
25.0598
37.6832
-3.25854
-103.432
-4.16808
6.13256
29.0799
23.6089
-48.8334
-43.4211
-50.6667
-125.844
-62.5098
43.1135
39.3907
82.8342
55.5752
4.58803
-10.8405
13.9824
-94.3698
-98.4564
63.485
157.15
74.145
38.1006
-4.74682
6.04234
-5.40049
-47.2774
-62.3776
5.4137
-39.9989
-56.3924
-27.4712
-18.0959
-9.88123
-13.4148
-72.4866
26.8596
83.2803
104.506
39.766
0.73819
13.1089
9.82281
-62.531
30.6624
34.4955
24.7951
39.9018
44.0506
15.6992
-53.9498
-97.3779
-21.1418
-0.513278
17.656
41.0059
-0.980322
-28.3696
-49.027
-123.088
-135.579
12.4069
100.366
107.791
23.5864
-23.4207
-9.83644
32.7101
-61.8136
-100.695
67.2809
127.637
69.0707
38.0932
-8.01034
8.08767
-22.0697
-76.104
-22.0871
47.5378
81.0844
-66.4634
-128.887
-87.211
-67.8794
-50.9399
35.6889
55.3573
90.0711
48.7216
-13.2369
43.2716
31.9337
-5.33644
23.3161
35.079
27.1873
20.3079
-46.8894
-47.6551
-47.0413
-75.3593
5.16136
48.5823
29.1007
35.6677
-1.51671
-27.1142
9.06145
42.3648
-44.5873
-35.1857
8.67667
-14.6725
-28.1055
-50.1383
-54.8105
21.4482
14.4822
-2.58306
80.0859
158.029
95.2109
41.3714
19.3116
6.44113
13.3356
-22.8281
-96.7756
-54.2771
-41.8905
-33.7618
-20.6127
-32.5765
-43.1235
-46.8111
-46.1036
9.3219
51.9491
106.635
46.6968
-30.6659
-76.9643
-144.706
-111.016
17.6593
35.7833
90.0055
142.177
80.0532
12.8658
-55.9981
-92.5972
21.0431
6.22761
22.6964
55.5267
44.4962
33.9567
-7.73191
-61.7858
-108.74
16.9196
59.2804
54.4517
-5.60418
-21.0758
0.788958
22.4261
-52.3218
-89.7857
42.6783
56.7742
-8.45901
17.2365
23.3479
9.29268
-46.7732
-81.1831
-2.02917
67.783
110.083
22.7445
20.8517
-16.5029
-35.0695
-131.124
-146.77
-37.2872
37.1647
90.7187
10.4408
-15.1368
11.3822
19.4618
-27.7752
-48.1603
167.318
178.006
18.356
-28.5808
-41.4534
-50.1855
-58.5448
-87.7269
22.7368
105.539
102.569
-21.8827
-67.4672
-22.1178
-40.5888
-85.4059
9.16013
39.4769
68.0039
66.8135
-86.8911
-103.253
-60.5959
-73.0378
-110.899
-29.2318
103.57
107.892
23.1982
4.46545
5.57264
38.6027
19.5355
-32.3024
46.1447
34.6456
-50.9503
-55.1512
-9.29373
34.481
6.96642
-11.5845
87.3124
163.585
170.416
32.7602
-125.087
-88.0643
-100.157
-84.7041
-25.948
-12.0631
5.44761
42.9932
42.1799
58.7542
-66.4478
-60.5398
-12.1313
-29.7907
-53.3261
-9.43974
-43.2556
-48.6861
-19.6659
-19.0168
60.1224
115.973
87.4718
74.9492
21.0261
25.9893
53.2481
17.214
-138.049
-93.3077
32.708
82.1629
23.7773
-9.91583
-4.6128
14.0472
-8.72655
-82.9232
-89.715
75.1845
78.1063
18.0367
13.4752
20.6718
-29.4797
-146.281
-164.227
39.5686
135.452
158.869
77.3668
2.26263
-63.15
-159.171
-135.221
-16.2997
5.91262
61.9141
75.2143
16.2319
-11.3625
-121.459
-114.429
-35.3448
19.4164
131.224
193.816
72.895
38.4055
-24.8608
-192.881
-158.917
76.4514
96.6986
41.9079
3.98485
31.0899
19.5486
-10.6278
-40.6094
32.9492
79.0964
28.3121
-45.7194
-55.9616
-22.6726
-26.8129
-115.761
-113.355
26.6372
160.302
129.906
36.8703
92.9195
75.7114
-59.288
-106.311
9.33028
-20.6789
-46.9277
-66.2391
-0.870254
58.7683
4.21528
-6.29241
-4.76421
-13.2843
-7.49246
-30.0536
-86.1523
-61.5669
-126.24
-92.4827
67.6102
116.875
148.811
114.642
13.2295
25.1181
-0.37087
-79.3704
-58.6282
18.6891
30.6927
18.5951
-18.7396
-4.27863
23.3609
27.6098
-39.7288
-13.8918
122.182
55.1143
-73.3075
-82.1531
-91.8243
-81.1108
-62.5154
-57.2031
89.654
47.4528
-32.5385
-32.6962
28.0222
68.1736
67.9497
10.986
51.9892
37.6847
0.195176
19.7846
4.11264
25.4333
-2.87334
-92.6575
2.53087
23.0042
-16.7605
24.31
-53.3728
-4.04825
-32.4038
-107.138
31.9854
17.2172
23.2446
56.4517
-16.3755
-74.235
-32.1358
-9.88198
77.8679
95.3594
80.5179
72.95
12.8986
0.640321
-39.5442
-52.326
-124.872
-15.4014
44.3817
37.529
-71.5229
-71.403
-54.3188
-57.5342
-66.1485
79.5217
136.161
142.757
17.3497
-83.7157
-114.997
-43.0289
-52.5386
-5.0027
29.5066
37.5244
119.387
69.6698
43.4672
25.2116
31.0817
-26.8491
-42.6641
43.4469
30.754
-12.1783
-17.0453
-22.3472
-70.7651
-152.456
-109.519
50.5174
83.0014
52.3703
59.5948
60.0524
-18.8142
-79.2878
-74.1026
-114.67
-27.8953
113.178
56.2168
-30.6287
1.44759
-7.61889
8.02594
-9.01937
-44.9713
96.8838
115.625
11.9257
17.5776
-15.4998
-9.35993
-67.2295
-116.179
48.0596
139.435
89.6689
-23.141
-96.4055
-68.615
-70.2461
-76.8906
53.7671
25.639
-4.55989
56.4405
51.4569
42.4295
-15.5939
-53.4915
34.9877
18.0843
38.8126
47.8209
-39.3158
-65.5455
-41.7349
18.2695
60.0355
-3.27665
2.0868
38.0597
-65.7349
-58.0418
-6.36816
-37.9946
-90.9184
-2.09952
86.5824
87.2857
13.1686
-20.5004
-41.2765
-37.1299
-70.1823
-140.762
51.7494
78.0635
32.352
62.1869
43.6919
34.6729
13.4947
-44.7349
-73.7826
79.0007
92.0044
-14.1123
-54.807
-29.3545
-28.9671
-27.8966
46.4427
141.628
68.8434
60.3741
-21.2362
-97.3699
-79.4887
-42.0156
-2.55733
93.6321
49.3005
-27.51
-25.4789
-71.3411
-62.4302
-106.892
-170.092
-51.7586
94.8303
77.3398
62.2132
14.9514
31.6726
51.3831
-10.952
-43.8518
52.2283
48.9887
39.8343
-20.3326
-42.7579
12.3034
2.75453
-46.764
82.1898
109.751
90.7704
-12.6993
-98.1519
-48.003
-58.9639
-75.2044
16.0115
46.3658
37.1501
26.3187
-53.704
-28.2537
-41.7043
-64.3502
15.7671
27.7525
38.3084
41.2361
-29.9766
9.24963
-29.8917
-72.7656
3.54536
10.772
5.79322
16.6795
-0.995653
3.48054
-60.7791
-31.5088
46.2809
69.5498
47.2014
41.247
3.00942
13.4005
26.0005
-15.6408
-78.4063
21.549
100.903
115.758
29.3845
-54.814
-62.5569
-20.1552
-53.8899
-63.9958
68.3978
58.1623
-44.4788
-93.3096
-63.336
-51.647
-94.0226
-110.085
35.4163
87.3642
78.8831
10.601
9.66065
40.5546
-9.13059
14.8588
108.327
65.8093
5.06857
36.315
67.6816
-10.4227
-113.236
-83.1649
3.07789
42.0305
63.7749
44.3439
-57.2118
-63.0124
-80.9549
-26.063
-18.1606
-45.1338
-40.9741
2.00383
-11.7979
11.9237
41.9829
-50.7384
-63.7548
74.862
79.9257
40.0768
11.7587
1.02172
23.0955
61.3629
3.03729
49.7058
76.3597
17.1167
-3.59607
-21.1023
-26.3383
-40.1069
-60.8961
-2.20085
6.91086
32.095
-30.2309
-83.8378
-46.8022
-82.7543
-118.582
-4.0937
67.9238
82.2027
90.8406
35.742
17.3271
2.33213
15.8341
-15.5219
39.5941
62.7433
22.5877
-47.6336
-44.9751
-10.7966
-30.3801
-85.9153
-2.03599
142.432
121.859
-14.0658
-84.3308
-69.9286
-40.3638
-48.7866
-120.715
-118.323
51.99
83.1106
32.1043
22.5299
28.8117
23.059
29.9312
-19.0687
6.57253
99.0248
42.4279
-29.3866
-25.7818
-17.7039
-43.7421
-117.386
7.36243
66.1671
98.8968
87.7424
-4.06472
7.19782
11.9811
-56.5613
-45.135
-0.450528
-7.47248
25.0055
26.8136
9.4594
8.87592
-45.0995
-4.40285
-7.7179
-10.7227
45.4672
-0.00568622
-40.1515
-69.0213
-110.026
-7.06373
122.49
189.555
214.042
109.595
35.738
29.5354
-81.1801
-254.954
-334.641
-273.007
-162.141
-16.6531
23.9454
-24.8659
-20.2117
-9.91619
5.58672
80.2298
142.721
77.2742
-18.9363
-83.3838
-52.2407
17.6794
53.7184
42.813
23.3834
211.793
340.694
271.4
190.557
61.2835
5.85345
64.6526
51.9774
16.8821
18.167
-2.0317
-28.5097
-97.8635
-132.415
-176.161
-213.306
-85.6625
-88.5596
-122.189
-66.4121
-81.5072
-94.8765
-92.4008
-157.837
-62.1408
4.94304
84.0383
78.3775
25.2264
-24.3261
-7.53008
19.2147
-7.77253
-82.3568
-27.8847
110.413
54.4425
25.9487
50.254
100.657
96.0761
61.08
23.1738
110.463
48.6596
12.697
-31.6608
-10.8455
-9.92271
-41.8282
-71.1961
30.0605
45.165
73.3945
57.3434
20.4486
-7.03517
-25.7505
-32.446
57.5647
38.3729
-5.4324
14.5527
2.00005
-46.3048
-101.265
-93.6434
11.3161
4.53109
16.7056
27.4632
-37.1482
-51.3212
-90.2137
-112.169
11.6947
37.8935
37.1605
34.6202
-26.3165
-31.4257
-19.1264
-3.94436
-58.6678
-7.35133
122.091
88.8015
5.7383
-4.02854
26.6897
56.0806
25.1244
-12.4647
-49.5794
19.156
19.1673
-30.0309
-43.3756
-9.63738
21.5515
39.0851
-6.9647
-31.1936
48.9917
-24.6995
-61.3427
-40.314
-39.812
-28.1557
-59.2825
-94.2864
20.5958
70.4881
125.746
87.1233
-14.6523
-13.146
-9.75412
-26.4225
46.0485
38.2818
49.9113
60.2311
43.9966
39.2228
1.14198
-66.6272
-121.684
-14.5392
55.1406
81.8939
-2.34801
-27.9312
-1.30096
-14.3218
-56.9755
-111.361
-72.9394
68.6791
15.6998
1.24474
6.81788
7.36169
-6.96445
-48.9887
-39.4554
40.0569
55.5565
-19.4835
-30.7261
-5.03621
-31.3802
-66.7132
-28.4535
42.0247
15.8301
42.7856
72.1411
46.0261
25.0867
-28.8136
-60.1945
11.5988
36.4839
43.7882
25.512
26.2226
37.6382
15.1006
-19.8371
-81.9413
17.8542
32.8561
16.2406
-25.4666
-20.7112
0.906241
-3.59367
-80.7014
-132.067
66.5389
89.6033
23.8135
-9.03698
-0.691806
-14.4315
-32.9279
-89.0497
-97.3469
63.863
86.5392
6.75289
18.027
31.1526
14.2466
-26.5846
6.7802
37.595
14.6692
17.6648
-58.7267
-38.2253
-27.6381
-69.7544
-3.30171
46.4557
40.0218
81.1734
85.4617
-4.33204
-31.1276
-94.8549
-35.5683
52.3732
27.7323
28.2079
22.2712
17.1142
1.99999
-69.4465
0.464311
7.41795
-57.4406
-57.8165
-71.8589
-63.2594
-11.762
9.77172
-46.2356
55.8583
106.282
113.457
75.8273
6.06313
-8.93408
0.462981
-56.9435
34.5695
115.468
122.762
8.46257
-44.3245
-60.7909
-61.4889
-95.3307
-96.1654
24.5104
110.486
64.954
-87.8792
-71.7018
6.71854
39.0894
27.776
-40.7433
35.9714
234.305
164.378
-1.34252
-74.5712
-123.722
-151.353
-239.37
-195.287
-112.55
-80.8705
-32.8867
-16.518
80.21
136.631
59.7865
6.54139
-17.6715
-85.1211
-94.5229
-112.55
-201.571
-237.82
-102.654
45.8309
177.071
352.288
437.327
408.072
336.488
260.462
111.267
30.0218
-40.747
-12.9449
21.9585
-20.535
-55.1672
-50.6956
-3.52631
-53.0775
-106.097
-23.1307
-47.023
-40.3302
-91.4151
-159.512
-88.4983
-46.5349
-79.5608
-62.9507
-162.581
-223.574
-212.386
-275.219
-254.333
-193.634
64.0728
305.331
285.863
256.999
288.805
131.544
-42.2889
-281.043
-406.738
-270.943
-177.484
-171.488
-71.7274
53.8117
221.697
371.109
371.604
254.123
346.156
365.142
221.894
27.445
4.86562
56.8747
45.7775
16.1427
-116.023
-186.063
-20.7831
158.986
149.123
38.7368
-74.6295
-162.473
-259.707
-396.216
-289.464
-123.255
-104.909
-57.9377
-55.4781
-52.7868
-24.9648
-90.2158
-66.9688
6.49417
167.013
334.306
316.729
136.314
21.7666
-74.6154
23.1071
80.3048
40.7748
70.9872
27.3598
-24.0157
-98.617
-211.969
-228.137
-140.062
-95.5113
-73.6851
-112.437
-98.0955
-0.838586
100.145
58.8675
-71.3365
10.4168
185.951
134.166
55.913
65.1313
84.3095
87.9384
31.3878
-16.9673
91.0547
36.9114
-20.0893
29.1825
111.489
79.7914
-89.433
-26.3973
-12.6056
-94.5296
-172.293
-187.932
-85.3639
-4.42124
-55.3828
65.9671
77.7712
74.2028
111.57
125.661
67.6812
10.504
-73.6676
-9.18055
22.9089
114.37
148.741
91.7432
74.4294
87.7577
86.866
10.912
-82.2403
-35.5404
-14.7992
-115.036
-136.391
-138.262
-116.46
-93.4664
-129.32
-190.52
-93.4504
-34.2482
-104.781
-154.149
-50.9305
-5.31711
18.2599
43.8863
33.4047
100.045
148.071
46.7612
25.3474
33.2306
46.2102
23.251
-35.2083
7.67824
89.3521
149.504
115.341
22.938
5.15775
-32.0392
-69.7481
11.0513
256.099
230.469
123.727
-7.9048
-119.496
-237.772
-363.522
-286.713
-130.515
-39.4054
36.6889
66.9927
113.624
127.531
98.3591
168.174
130.046
73.6117
36.4318
-75.7562
-181.297
-114.36
-37.8955
-64.8209
70.2369
225.73
290.081
194.941
85.0785
25.1392
-37.5975
-110.624
-103.818
-15.3081
12.3636
-95.7312
-126.997
-132.147
-64.0786
-160.128
-296.91
-197.511
-22.091
48.8259
32.5128
35.8929
86.4234
65.9485
2.45438
14.9071
91.0767
55.7529
-30.64
-56.2049
-70.0227
-117.59
-92.7778
-2.28968
78.4458
139.146
185.924
183.278
206.903
187.706
52.2571
91.3513
48.9326
-89.0262
-182.685
-202.946
-219.685
-150.46
-145.39
-156.66
-36.1626
134.865
190.827
185.739
166.709
195.402
156.081
22.7454
-75.3856
30.3043
44.9555
-33.5952
-25.6252
53.2041
102.436
32.1431
5.17316
72.6949
81.0298
29.4208
-152.695
-274.831
-222.68
-274.199
-283.323
-213.195
-125.505
-96.4788
-95.7596
-94.7312
-62.8656
-79.8955
-3.0193
141.224
200.773
266.063
290.199
260.542
212.151
125.747
43.7255
54.1972
-44.76
-94.2313
-107.816
-52.6268
-26.5963
1.39403
1.12533
-33.4805
53.4737
70.9233
49.3117
26.2109
18.7255
-14.9299
-72.8954
-181.259
-232.461
-87.8257
98.8788
71.7845
66.8006
162.043
185.249
158.206
115.855
11.6945
-52.3994
-229.297
-411.335
-337.994
-163.328
-137.114
-59.7217
-6.86267
100.329
221.889
191.331
101.018
82.977
205.897
223.129
97.6898
45.8614
22.9024
-111.165
-235.724
-265.068
-20.5402
177.254
99.0784
29.8318
126.478
156.551
114.431
23.2502
-83.9071
-69.7108
-34.1286
-82.0495
-209.835
-58.0129
13.6388
-20.1527
-45.2016
1.1153
87.0386
108.216
30.0749
34.7783
82.4087
-21.581
-126.153
-168.179
-156.509
-170.608
-219.082
-122.178
31.5663
99.2398
120.341
57.8131
21.69
-32.8562
-143.007
-119.319
-5.85595
59.4745
134.261
171.539
145.307
118.297
-35.6142
-21.4684
72.9523
50.3247
91.2238
115.61
35.0875
-53.4075
-101.251
-141.051
-63.2703
23.9784
189.387
205.486
201.794
150.636
66.278
-18.6709
-73.6456
-112.384
-10.9014
-50.4965
-112.936
-95.4825
-67.0946
-81.9028
-106.937
-103.837
-78.1864
-30.3967
-30.2212
-28.842
-53.3859
-18.0404
-25.5911
-50.2629
1.48781
69.9909
43.719
51.2837
34.9073
21.4051
62.8073
110.747
86.4769
27.9791
-78.4522
-93.5913
-175.163
-207.775
-95.3126
-51.4566
-14.484
-27.9882
-9.93653
87.2505
106.641
42.3453
13.7517
23.2213
66.5575
176.78
212.351
140.508
66.691
58.4802
123.248
146.431
143.874
107.278
132.206
123.028
45.152
47.7353
-41.9338
-108.693
-190.185
-337.532
-345.054
-323.532
-273.463
-270.637
-215.477
-51.0199
17.4762
-23.5472
120.386
170.538
92.0813
-8.64954
-37.4286
-11.7296
-91.2444
-64.0201
74.3507
113.817
142.411
193.827
251.807
259.621
202.872
124.531
-17.5106
-88.6467
-26.8516
-36.3927
-129.492
-117.242
22.2747
85.5585
-43.0531
-165.397
-33.0458
126.814
124.777
42.4517
-44.6101
-76.1357
-51.9674
-18.9522
-97.2048
-108.443
-18.0595
-116.146
-161.954
-50.3048
10.3371
12.0747
-18.0523
7.14512
97.1136
125.16
103.612
10.4882
-23.2236
-9.29264
26.624
206.895
286.482
130.717
-28.7814
-157.087
-354.222
-488.064
-415.398
-138.378
84.1609
86.5081
114.187
195.758
200.007
225.491
187.634
152.654
126.273
127.373
94.0587
-38.5975
-125.308
-65.0113
-7.47788
108.859
249.259
268.666
137.445
-158.512
-438.651
-411.625
-244.063
-84.7379
-60.2769
-167.386
-133.451
-21.948
-44.9125
33.2658
163.284
176.549
30.8925
-71.8448
45.6947
201.032
229.784
129.755
40.5574
60.8167
107.854
159.561
89.441
-138.494
-229.509
-240.867
-220.416
-278.75
-246.403
-145.341
-175.558
-156.309
31.1741
250.609
289.895
144.49
28.987
148.046
151.989
12.7016
52.1124
119.513
66.5022
65.8657
71.7746
151.926
121.55
44.3321
-32.1535
-134.424
-33.6648
-45.7269
-75.7626
-60.0323
-66.813
-122.897
-134.765
-111.34
-12.7834
113.339
53.0541
-18.6167
-3.44842
16.3306
9.18555
-14.7378
6.42848
0.680208
8.32987
53.6605
-0.0777809
-87.8746
-162.723
-282.394
-215.379
-156.803
-80.5199
63.4834
147.202
168.491
144.328
89.8366
138.961
156.77
105.786
111.821
91.6902
101.927
156.044
40.2331
-20.4099
58.0896
-88.2909
-155.209
-140.337
-105.301
-75.4847
4.15237
16.3225
-44.324
106.087
125.369
75.3374
-15.2404
-81.4919
-142.409
-276.495
-343.275
-233.197
-77.8531
63.7596
111.315
197.216
240.746
177.33
162.919
132.587
55.6986
118.545
124.8
-16.0449
-7.01132
-10.872
-69.8617
-151.791
-124.527
1.40708
-12.6425
-61.1349
-87.5232
-151.587
-144.073
-106.925
-62.8225
71.1187
82.993
71.092
8.58783
-84.3951
-63.6345
-125.23
-148.316
-23.5962
62.472
133.576
195.199
152.272
117.308
59.6445
18.6615
-40.5569
16.2316
164.472
155.537
32.1599
-27.0192
-26.6387
31.3186
-6.29475
-72.6839
60.9467
35.3686
-133.466
-215.541
-69.8381
18.8329
-17.0715
8.45187
58.4487
22.2942
29.5494
-19.959
-65.6983
-30.5002
-87.8824
-93.2032
-26.0063
-16.5016
-25.3653
6.65946
-37.222
-13.336
13.6328
41.8261
-20.8749
180.9
374.813
308.967
86.2808
-55.5999
-184.415
-387.398
-516.976
-435
-147.375
52.5867
118.054
166.186
186.678
207.618
229.439
248.798
158.879
87.0602
122.372
-86.1575
-236.855
-172.058
-22.057
87.1919
159.19
172.675
289.962
259.72
34.239
-44.27
-119.821
-242.946
-272.628
-279.651
-222.605
-193.349
-137.138
-40.8079
-27.7768
-41.1604
-31.4741
-27.6629
36.2348
42.3249
86.2719
168.581
141.991
115.427
48.944
-10.0308
63.8913
92.9804
105.906
38.5728
-100.384
-164.065
-189.419
-117.494
52.4492
200.704
184.038
135.466
30.8165
-88.6008
-189.277
-96.6228
-55.7848
1.51644
86.5984
50.3013
-17.5527
86.529
101.895
88.1339
23.1742
-104.741
-32.3828
41.5364
-5.3623
-22.1106
-71.5392
-126.057
-183.598
-170.225
-110.578
58.0077
120.926
74.4816
49.9661
56.0363
39.3152
0.10037
-37.6377
29.5854
60.2692
152.372
155.868
85.7318
2.80209
-128.476
-149.72
30.4026
83.1161
126.829
111.592
-39.3667
-51.5602
-8.8119
-67.8487
-81.2487
-58.0687
-209.97
-276.19
-216.001
-84.0964
1.69996
-1.31225
4.89194
31.093
138.463
218.036
197.478
188.444
101.3
-49.4951
-76.0796
-65.0319
-74.7959
-41.656
18.3544
4.25414
59.2565
113.092
39.4225
13.2994
136.172
142.746
114.161
32.5595
-93.6416
-127.683
-164.371
-151.222
13.6799
89.4045
61.7475
-7.53257
5.82659
51.0688
-58.1393
-138.938
-138.411
-100.68
-29.1557
-58.5274
-129.786
-128.536
-136.548
-134.887
19.0683
81.3634
75.2345
106.192
107.19
156.192
138.386
79.5632
-59.6389
30.4471
132.68
121.253
122.01
129.736
116.704
60.0836
-16.2553
-46.4351
-97.8042
128.462
161.458
60.2764
-78.3268
-189.703
-265.84
-421.192
-626.691
-250.751
95.9347
50.827
61.2139
123.405
154.4
125.906
58.1142
158.393
162.381
171.794
191.802
79.6618
-62.754
-117.231
-162.756
-79.8689
-64.6251
96.1052
270.07
68.2354
-59.9931
-89.9886
-103.524
-0.894383
28.8457
-20.721
26.1834
18.1342
-13.2074
-20.5551
6.52491
-115.903
-162.76
-92.1782
-70.2809
-29.2556
103.894
154.575
164.713
4.70434
-78.1753
-45.9189
-44.7782
-110.544
-61.481
56.6298
24.3832
-75.7922
-57.3971
-29.9406
-12.4205
-6.36486
12.3808
69.5462
147.505
72.5843
26.6528
161.905
181.844
223.339
183.097
62.2079
-33.0376
-114.356
-199.53
-291.208
-167.922
-17.4504
4.56646
-31.8435
-45.8483
-51.0138
-76.4381
-44.4885
11.0516
87.7827
130.703
17.636
-46.16
-192.637
-208.55
-79.9356
-5.09835
-28.3341
95.758
236.195
265.969
163.482
59.736
27.2835
-27.7728
-104.045
-1.96941
64.6171
119.872
85.4367
45.6152
53.8769
16.1785
2.84565
36.3839
-43.6627
-150.202
-141.878
-113.021
-78.9384
-145.829
-214.972
-62.3592
-8.60136
18.6212
43.6308
-11.2825
-46.2646
-74.9422
-85.2903
17.7914
17.8852
84.2638
175.512
140.907
111.874
148.779
98.7484
-49.2625
-34.9075
33.8036
121.738
91.7332
59.243
1.13234
-31.4674
-169.055
-339.691
-235.64
-74.0783
-22.401
38.9499
102.777
99.1185
10.9661
-60.0472
-38.6
127.576
181.19
122.42
52.749
40.9354
-16.9189
-38.0916
7.48526
15.2711
148.086
240.038
169.362
26.5221
-135.633
-148.811
-200.745
-286.947
-171.311
-87.2691
-103.125
-110.112
-72.1575
-109.501
-87.3238
-83.7704
-54.1686
132.18
178.72
190.203
179.651
177.504
103.045
80.6335
34.8403
-153.704
-116.476
115.333
126.467
89.2595
34.4329
-19.3004
-9.35912
-32.0262
-101.803
-10.9742
1.45508
-66.9658
-44.8848
48.5696
35.4369
4.83097
-51.1156
14.5659
-62.662
-124.42
-140.764
-86.2732
-23.9659
35.8783
39.5831
115.675
69.4804
72.4242
113.853
80.2064
10.2134
-109.101
-207.981
-84.5532
-56.8252
-45.003
-3.99028
-1.39841
131.515
252.068
165.426
165.24
134.59
-38.167
-73.4378
25.3185
-1.57085
-159.656
-293.632
-377.925
-378.188
-261.968
-15.8078
58.826
124.865
189.566
210.732
214.159
191.887
138.679
52.5355
54.7969
121.825
168.692
213.908
122.534
93.0995
118.526
12.445
-112.394
-82.4406
-112.062
-157.934
-201.159
-217.449
-177.407
-163.98
-102.593
-97.1933
-43.6776
25.8965
-83.5368
-183.541
-178.551
-176.357
-81.9739
50.3279
123.851
208.696
286.385
282.29
219.521
108.579
29.6768
109.005
49.377
31.0245
-35.0108
-77.914
-67.9594
-8.35041
-33.7608
-45.4478
106.41
125.578
-25.167
-118.717
-156.855
-108.007
-132.423
-159.68
53.4142
104.271
46.4463
-6.07607
33.2668
91.9022
40.6339
-62.9075
12.2927
53.9332
-30.2085
-117.413
-94.0303
38.2593
6.81078
-9.17382
131.587
181.533
171.249
116.739
8.97286
-6.97677
-96.4582
-209.079
-165.214
-0.729883
14.0981
68.5721
21.359
71.5873
219.511
204.843
46.5935
-126.169
-218.654
-308.27
-435.222
-380.296
-112.133
111.83
118.783
34.2255
52.6207
251.821
266.555
97.679
73.6564
121.751
150.148
76.6291
-59.2196
-84.0173
20.2524
-19.2472
-65.4375
-26.246
14.3656
8.24298
-76.0997
-1.82317
5.99439
47.2736
85.6841
-19.8069
-90.3615
-148.883
-165.141
-8.06218
8.97632
-20.1242
-54.1478
-51.9831
-92.1623
-56.6243
66.9714
307.964
367.101
251.877
84.3741
-111.569
-219.584
-242.708
-245.964
-188.867
-72.2953
37.327
126.354
60.5985
1.7674
15.9197
90.0463
95.176
59.8989
164.34
173.454
66.3896
14.5057
-4.24827
-39.1565
-124.97
-97.2609
56.284
74.329
0.215306
-18.169
-42.4318
-81.9934
-98.5502
-64.6173
10.1812
-36.3291
-82.8799
-126.649
-185.086
-138.563
-82.4695
-24.1759
4.73728
210.904
313.344
297.888
202.524
117.802
-30.7169
-252.26
-422.407
-244.613
-126.601
-46.3502
31.3835
112.471
164.011
165.488
138.958
198.915
169.883
162.76
130.789
7.05776
-76.4764
-116.247
-195.515
-143.712
-48.5164
51.0661
148.371
105.253
11.9322
-64.3566
-98.0761
-112.148
-91.086
37.5267
27.632
-79.0506
-161.212
-157.678
-104.089
-119.084
-15.163
94.0377
129.184
126.688
106.605
137.345
151.555
3.25618
-8.92975
-22.7817
-86.5456
-96.4306
-40.4898
-36.1275
-37.4678
-92.7123
23.7234
106.653
165.322
147.303
61.7919
-37.7381
-100.944
-196.424
-135.2
-5.8241
32.7668
104.605
122.25
153.933
112.467
58.1345
-72.9862
-195.1
-111.893
-76.7605
-116.026
-103.386
-69.877
-4.24641
55.2029
-0.345428
36.9492
233.126
247.478
95.4177
43.6973
-57.5938
-134.558
-79.3097
-58.1063
54.5768
258.852
199.618
59.0272
-60.724
-206.191
-284.71
-169.536
-33.3836
36.5813
17.803
1.41308
-85.7511
-189.232
-99.4619
-38.2667
12.8792
88.578
85.6454
97.8482
43.7092
-15.4173
43.6953
20.9179
9.52357
152.549
237.17
198.864
101.398
12.894
6.53787
15.702
-63.7934
-186.484
-80.861
-39.2329
-56.5977
-81.6421
-81.9217
-54.4974
-98.895
-190.706
-56.8908
27.5305
117.752
72.3229
8.38179
-31.1294
-69.4308
-5.84994
116.03
86.2263
75.0527
172.705
50.3932
-36.4631
-71.97
-70.5253
-5.68928
3.41951
96.3763
104.583
-31.6023
-85.4119
-90.9785
-189.035
-127.069
26.4094
18.0451
-38.7516
-42.0799
7.2752
51.2022
67.3115
-21.3305
109.415
204.984
240.058
122.883
13.4107
-59.0442
-108.548
-131.607
-125.69
84.4881
298.19
187.144
-20.6607
-84.0793
-84.5919
-187.278
-263.7
-207.245
-27.5125
6.12155
-44.898
-31.8557
-84.2798
-143.414
-46.7682
2.12022
142.125
209.045
249.338
144.217
8.9939
-48.8576
-117.261
-210.216
-121.667
22.085
138.022
183.9
129.876
182.259
151.246
26.0864
5.65288
11.0138
-36.5533
-108.185
-169.458
-149.4
-111.262
-208.671
-178.629
61.6628
188.123
191.876
97.5268
125.01
182.588
112.059
-13.5483
-188.449
-225.488
-259.727
-295.145
-76.8395
104.024
94.5173
30.1779
-17.6282
37.1093
114.94
145.326
60.3461
-27.9244
11.5196
-64.8428
-96.9783
28.9302
108.332
88.1109
104.981
87.47
125.705
152.541
60.0527
-90.4966
-49.4284
-44.885
-123.621
-161.457
-115.475
-95.7229
-71.8919
-78.0538
-7.59749
100.586
29.6439
-109.687
-105.995
-35.6665
65.2657
37.0507
-0.377307
112.845
98.9043
64.9499
42.1974
79.4197
114.353
94.7399
26.885
-72.4575
-15.5278
68.3085
65.2213
22.436
-1.29433
-78.0411
-170.17
-228.793
-139.68
-77.4953
-85.4286
-145.211
-124.952
-90.5094
-83.5609
-112.946
71.0139
191.119
201.305
207.444
137.316
136.644
129.037
82.8258
149.399
107.603
61.3267
50.9485
-55.5538
-89.4208
-28.3014
-71.8922
29.2302
22.2974
20.9173
70.9742
8.36777
-61.2516
-108.962
-185.822
-177.202
-133.77
-169.232
-129.491
-91.5843
-10.6269
32.2029
41.2489
37.7875
179.571
237.231
140.352
-41.3549
-62.0826
-70.9524
-130.337
-92.7798
-21.5487
-3.05338
95.2466
57.8702
20.3421
73.1705
47.6517
-8.33344
-41.7604
-39.6926
76.0279
121.599
8.07609
-36.9604
14.0584
27.7257
6.42091
-47.5153
73.9752
54.9999
88.4102
122.686
59.483
-38.4392
-123.86
-213.54
-108.661
18.6983
120.08
119.135
14.7261
-24.1453
-96.0761
-198.699
-298.993
-211.782
-51.4715
2.00972
60.4712
88.2113
21.5511
43.2941
28.621
-38.6731
41.7741
187.672
143.002
77.7305
34.9775
25.1898
-15.2533
-34.2283
118.433
139.671
141.818
96.3145
20.9209
-0.720548
-76.9289
-155.761
-124.258
-68.6311
-4.14819
47.3496
-8.24487
-29.6873
-41.6205
-99.2824
-58.1527
-2.3924
42.4274
41.654
-14.289
-2.16744
19.368
-73.5411
-24.8423
43.41
-6.50354
-16.8309
-66.9332
-120.182
-83.7754
-11.2069
-38.0325
-137.766
-18.8243
77.0508
27.1516
29.5261
79.6603
133.54
73.8274
33.2319
53.4863
186.041
111.709
49.4421
40.234
50.9198
-25.1904
-81.6468
-147.076
-166.748
30.1815
156.156
129.251
47.578
-11.3065
-47.3494
-121.224
-235.174
-201.888
-104.451
14.1844
52.9777
132.998
138.137
19.4127
-85.4237
-33.281
-26.4859
53.6118
106.879
51.5658
24.1481
-101.499
-69.1441
16.3408
1.93987
2.77097
28.3996
36.8895
65.7819
22.6414
-36.5586
24.0404
130.098
202.205
179.984
-18.8335
-104.136
-203.429
-373.687
-347.309
-71.2663
-21.8844
-30.5764
13.785
78.6482
110.304
107.444
123.573
140.681
127.731
72.5217
-34.8849
-88.4052
-77.4939
-124.102
-54.0069
194.312
311.418
271.532
93.736
-123.284
-177.395
-210.69
-214.257
-149.631
-3.30409
17.6844
10.9605
86.5665
76.8875
3.90431
-87.8545
-191.249
-94.2444
19.9898
103.402
67.3275
39.2825
109.547
71.8853
-56.186
-8.99196
108.728
123.859
110.257
34.9087
15.7707
-31.1842
-117.311
-185.737
-94.6467
9.46455
64.141
27.224
46.4602
43.4718
-85.5366
-203.119
-42.0411
47.4843
53.1888
15.4112
-40.016
-81.2546
-128.429
-106.797
70.5257
144.072
93.9319
88.8536
50.628
37.2712
21.4441
-15.6008
45.849
0.47699
-14.4355
46.6197
9.50856
-10.7795
-22.6453
-103.91
54.4726
143.169
110.039
61.308
-24.8105
-107.536
-127.409
-113.074
-129.878
-106.528
2.57765
39.5368
18.5645
50.8772
34.6787
-1.58326
-78.1991
-131.203
54.7665
151.908
49.621
14.1142
37.4834
24.0259
-4.3077
14.7718
19.1935
70.5095
112.428
70.1383
-10.763
-45.4301
-83.6516
-122.912
-155.375
-73.9185
11.1347
48.2903
-8.68308
16.5999
-15.1859
-63.9759
-55.8998
34.1724
44.0538
29.0718
31.0061
19.4465
4.46288
-47.7003
-84.903
50.1575
94.4032
115.515
135.305
98.779
35.9617
39.1423
-31.9513
-19.8102
-10.1853
-6.22622
-21.9411
-73.4295
-82.1999
-70.4054
-40.2824
-77.9187
-75.2278
34.7515
76.7444
30.2269
-8.04463
-17.1237
0.470325
-25.6786
43.3234
91.7782
68.8317
17.9287
-79.6137
-141.883
-131.521
-135.979
-2.71643
64.6464
42.7146
93.9056
65.0315
-23.9184
-58.0039
-130.34
-82.7923
-41.5976
0.707921
75.6227
145.928
234.64
248.995
122.734
45.1633
46.7562
20.3168
-64.3805
-170.017
-165.056
-94.5694
-87.8732
-98.8872
-53.2324
168.915
196.909
152.587
76.2144
-37.0878
-112.248
-178.577
-269.386
-209.408
-31.4275
78.0121
162.194
114.527
54.7082
26.9084
-44.1065
-122.672
-39.4575
38.0816
139.356
29.4424
-34.7726
-27.4527
-47.7711
-37.4078
113.877
98.82
99.6594
39.1764
-4.03204
-54.287
-192.173
-183.881
19.8793
193.905
36.9425
-18.1513
21.077
74.7383
94.7904
-31.2307
-48.8655
116.414
101.406
-32.8558
-108.169
-78.3613
-50.1242
18.8371
58.8835
-35.2287
-73.7743
45.9498
-53.6098
-108.854
-181.607
-125.195
22.1544
28.1484
-11.3913
88.0339
84.6461
36.9774
-38.9411
-47.6082
-11.2213
-10.5222
60.4884
48.6432
-2.33803
72.5344
111.724
77.3149
77.0699
30.3726
136.521
98.9666
-63.8951
-44.1516
-27.1766
-42.4875
-23.5009
-66.9204
41.3716
93.949
70.8453
74.6779
-1.01632
-139.866
-244.19
-282.015
-234.998
-124.288
-38.1491
141.005
151.971
75.3673
68.9035
62.5849
13.9029
-51.7786
16.2316
154.165
-3.438
-133.958
-108.102
-95.4814
-115.99
-115.246
116.272
263.322
191.106
69.0755
-3.83388
-11.6419
7.33479
51.8356
42.3166
-6.23147
87.9239
40.1596
-97.0759
-117.227
15.3276
63.8585
3.80385
2.42702
27.0031
9.82211
-62.8477
-94.0202
-85.1158
-45.3608
38.8833
119.326
77.6885
8.09626
-16.3169
-43.3752
-120.825
-123.168
-87.4068
-48.9809
80.6758
90.9268
13.8401
-8.85105
-19.0682
6.79988
-42.0474
-56.3293
-6.14626
39.8765
48.9942
17.9797
22.5374
31.6059
11.078
-11.5724
-1.4177
136.868
163.686
73.9983
-85.0462
-146.622
-103.223
-58.7995
-6.23363
71.3411
119.265
118.904
53.5125
-35.3047
-84.1945
-198.322
-265.467
-135.713
-36.8502
86.3182
99.0844
28.8017
87.1619
115.105
54.0899
154.369
162.606
88.8216
7.43163
-75.7908
-86.8432
-105.758
-127.986
44.9616
-16.0706
-24.1117
33.1496
-83.0401
-145.104
-144.749
-87.6798
-49.4094
-20.521
115.792
138.034
92.6129
83.5678
83.2136
74.9651
21.3769
-98.3676
-72.6208
155.831
129.708
88.8293
89.5962
3.65131
-64.6874
-111.803
-155.788
-44.452
4.36329
-27.5574
-102.871
-68.4668
-52.3763
-54.7107
-120.816
-14.3148
88.0532
99.8681
94.8681
1.62539
-77.4547
-26.296
16.4568
183.889
214.994
200.516
149.078
-14.1469
-100.489
-113.357
-181.917
-192.959
-46.8407
-44.0879
18.4636
-13.8167
-62.1385
-18.7613
10.5323
-73.3789
-123.765
32.0847
103.955
38.8252
74.1501
82.2431
60.5021
-15.2473
-146.443
-27.509
84.278
93.8774
72.4939
129.179
131.945
43.5767
-37.5635
-49.886
-112.489
-127.923
-92.8695
-84.4275
-47.8025
-17.9186
-22.7082
-13.2281
82.1096
146.41
265.6
253.219
129.708
58.5917
-73.5833
-247.63
-394.378
-331.054
-143.839
-23.3792
109.908
143.081
96.7397
69.1112
43.7938
-42.3203
48.2913
58.6921
8.86253
-23.2992
-29.2233
-16.2333
47.8458
15.8356
-137.785
-17.0981
138.397
120.059
37.568
51.0441
19.3155
-74.2326
-146.196
-38.1591
-14.3174
-2.21733
6.23176
42.6866
21.6897
38.6565
24.7987
12.2584
-28.9643
-5.71165
24.6996
-18.2063
-23.8845
-37.734
-73.8203
-41.0366
-47.346
-7.02441
30.0947
-49.2201
-33.2346
-5.01725
-48.5952
41.2375
168.3
121.501
65.4065
-74.651
-130.567
-115.211
-117.614
-95.4516
93.631
147.127
185.914
159.612
139.289
134.405
120.028
71.2163
-23.6673
-7.14579
70.6938
-54.0678
-198.087
-253.164
-222.523
-234.618
-266.739
-228.63
-26.4786
197.611
230.736
210.557
136.677
4.59158
-77.8879
-89.5933
-100.746
-16.0034
41.0313
71.7824
6.7932
-5.09169
16.8865
69.8214
57.1542
162.802
192.314
170.049
120.473
43.9606
-66.7533
-117.155
-152.147
-127.178
-65.488
-24.4941
3.4639
-93.3949
-68.2249
-14.2991
-75.906
-178.836
-89.0041
51.7475
75.2765
22.1274
51.8623
73.4221
19.975
-57.2133
-1.10732
146.013
140.092
106.594
56.7402
-12.0321
-41.7524
-150.267
-56.7793
64.49
111.121
127.765
5.50163
-101.345
-132.559
-214.093
-156.563
-38.1073
3.70727
37.7009
34.8379
48.3111
161.309
66.9718
-8.958
22.8419
39.2872
71.8593
-11.5713
-145.68
-173.281
-138.16
5.49776
165.111
207.329
150.756
59.289
-52.6427
-109.584
-105.906
-159.989
-94.3192
38.0116
88.6592
106.409
88.9121
75.2758
79.1055
50.3324
-16.8144
-39.164
106.969
53.8308
-42.7626
-44.5424
-22.1234
-11.1677
-6.21401
-81.6102
-33.0609
44.4283
-65.8066
-179.379
-155.198
-118.706
-76.0677
-85.0895
35.3857
98.1262
86.0652
60.3737
16.3042
-13.5239
-38.243
-25.6864
74.1105
102.819
130.621
137.09
-10.0871
-126.955
-157.265
-208.265
-135.727
42.7636
222.477
274.147
166.626
61.3917
30.6726
20.109
-80.3187
-145.556
32.462
164.107
138.354
43.9956
-94.764
-169.73
-149.787
-120.686
-59.4739
90.6979
124.161
53.0641
-67.3427
-114.567
-137.749
-144.753
-84.5787
28.7902
105.878
213.598
157.771
14.0785
-124.489
-195.188
-98.7054
80.2118
144.642
83.608
-15.2938
-9.78225
95.153
18.098
25.3036
131.092
76.716
-40.0392
-58.6085
-15.2579
4.47823
-66.4187
-237.635
-282.548
-77.3932
135.139
148.04
114.256
68.5984
54.079
27.2563
-81.4211
-101.634
17.4672
-28.0735
-131.109
-53.3948
76.6181
89.0723
-27.9346
-140.149
-121.633
1.07105
79.5019
42.2902
-0.310009
2.93304
12.1994
-19.8724
18.4272
139.557
149.683
108.62
50.72
-2.1069
16.2137
18.5106
110.102
74.7617
5.30861
-10.9208
-49.5981
-41.8519
2.12909
-11.9527
16.8538
-24.276
-34.3241
-5.04545
-1.40933
-48.7462
-80.317
-142.968
-140.491
18.0805
4.34775
78.293
157.101
177.27
99.9909
-22.8461
-227.885
-453.39
-480.296
-255.678
-153.529
13.4738
153.287
214.178
221.626
146.048
189.763
239.521
179.851
72.5704
42.6095
-12.7184
-123
-216.188
-118.899
130.315
305.6
357.656
366.932
165.013
-27.104
-134.863
-210.19
-253.115
-131.434
-58.1543
-93.3889
-162.214
-232.373
-251.418
-140.056
-52.0306
50.6764
92.0729
100.17
67.8793
93.6269
158.206
80.1298
-76.3438
-14.1394
63.3563
2.0013
-24.6906
-99.0114
-110.511
-90.6745
-144.133
-102.004
83.8604
171.322
140.934
86.1349
106.142
51.5124
25.3633
0.0660894
-42.6277
21.2239
166.465
127.597
7.44302
10.2824
40.6702
-22.4371
4.66127
52.2531
63.2348
22.1852
-56.3379
-100.873
-190.441
-248.312
-97.5395
-49.2187
-26.8512
11.3778
55.2751
78.5531
15.0285
-9.34053
-42.7284
-74.7258
-15.7856
52.8379
56.2901
13.2904
-44.0914
-114.322
-87.235
5.42933
17.708
-12.8145
-76.0857
-24.8892
-18.557
-16.7236
-10.1745
72.9762
196.685
264.752
229.034
189.06
124.236
59.5703
-17.2187
-100.696
-52.3091
84.9481
22.7241
-77.5341
-62.6862
-33.2111
-66.122
-110.512
-117.483
-31.452
-11.2886
-95.8808
-162.568
-162.031
-148.837
-214.776
-157.421
-23.9949
43.7786
89.0061
54.9426
43.7379
62.4509
44.353
137.599
179.984
164.241
201.848
245.701
168.082
47.2203
-59.5165
-199.645
-266.83
-50.6472
178.442
196.869
99.0331
18.6966
-1.29786
42.6556
5.71768
-149.251
-90.5862
-86.3806
-164.748
-123.85
-81.1203
-77.5988
-59.7559
-37.842
15.186
76.5809
108.929
33.3777
-9.90967
-41.1136
-47.2393
-65.2098
25.7493
28.3102
43.5328
56.1497
-19.0289
-0.801693
23.8357
-90.9399
-93.7613
-83.7992
-64.2605
22.3815
54.4413
80.5789
102.309
49.7076
36.3679
165.673
198.433
154.974
13.1209
-64.0038
-110.819
-128.893
-199.206
-162.792
-27.6954
50.6244
31.2164
22.9086
24.8765
35.8879
3.03839
10.0184
57.7232
157.612
140.132
7.63614
-87.9898
-95.3269
-80.3005
-50.7583
-8.97115
124.849
142.263
60.1942
-8.51267
28.8941
-7.89903
-84.6004
-68.3113
-17.7287
-42.2186
-60.277
-74.1778
-124.706
-121.159
-220.311
-94.7905
26.4905
59.8192
95.9337
101.713
59.3867
65.7428
24.5548
-4.13981
49.2468
9.96665
19.1965
47.8037
35.7447
40.3555
27.6958
-108.498
-101.152
-5.17363
74.4842
114.832
118.182
36.9243
-19.1951
-54.9694
-150.449
-206.598
-47.6471
76.0291
-34.4536
-113.022
10.3883
183.855
142.488
93.4781
96.4129
70.8903
39.5975
20.6653
31.2138
-37.653
-109.211
-70.4011
87.18
93.4662
71.925
109.894
103.873
35.8745
-56.7585
-155.008
-245.812
-224.633
-225.667
-261.613
-141.616
15.6244
9.18623
70.7216
114.613
54.4013
15.0291
41.1183
-56.5965
-126.975
0.47556
131.936
-7.38161
-116.981
153.157
335.707
279.357
87.3369
52.2125
109.312
43.5588
-71.0476
-18.8423
19.3983
-16.5371
-1.80954
-11.6902
-60.3754
-85.0821
-57.5445
-15.4948
-67.7048
-97.3682
-23.7969
-92.5064
-63.1921
-13.2209
-85.5363
-31.5451
35.7287
14.3656
46.3028
0.430925
-73.8454
-65.317
-106.773
-96.181
61.2372
107.102
187.775
158.663
88.9225
50.5098
-49.1037
-47.3285
34.4208
120.648
135.576
106.525
12.2079
-46.5226
-57.3513
-154.535
-229.355
-330.883
-308.759
-107.453
-46.3988
54.5536
139.004
148.513
92.0399
69.0795
210.773
233.697
165.288
101.039
59.8086
-25.3645
-73.1975
-40.5249
-4.33514
70.908
69.4736
130.478
127.393
12.6417
-102.022
-171.449
-207.807
-101.771
-7.4412
54.1975
-21.4589
-151.095
-244.511
-336.088
-246.364
-13.187
120.07
156.577
83.84
33.2049
45.3952
51.2074
22.0466
90.6354
139.429
192.144
112.026
-2.62914
5.63927
4.47791
-58.5306
-82.4541
31.0916
47.4699
10.6998
-32.3833
-9.86765
-36.5188
-100.518
-117.622
-61.4565
-14.1731
42.3635
8.20879
-13.9455
-41.9867
-68.4294
-56.3161
140.459
209.238
213.727
179.854
31.1927
-101.712
-223.243
-347.374
-294.387
-223.766
46.4434
194.17
164.128
156.98
86.1478
138.432
229.127
194.923
195.468
80.1218
-102.021
-154.263
-205.561
-227.065
2.8067
184.572
148.949
116.287
52.122
24.091
-39.9319
-100.299
-182.542
-203.602
-48.1596
-84.3051
-152.894
-142.836
-96.9494
-48.7559
-30.0268
-76.466
-91.4049
32.5634
4.64791
6.70515
72.2087
110.341
103.647
80.8894
2.0009
62.3521
154.168
243.681
359.913
267.224
39.6343
-135.968
-323.877
-396.366
-358.165
-126.533
13.1997
3.14024
19.168
3.60439
75.2167
160.867
117.196
104.503
185.939
171.603
101.913
-3.64949
-145.327
-0.773146
80.1961
88.3654
135.513
138.075
74.1436
-56.4006
-104.756
-150.46
-89.537
-25.627
-39.8267
-120.64
-130.637
-109.966
-90.6651
-143.832
-121.565
-85.3238
-144.848
-200.072
-145.735
7.50972
157.782
158.687
191.438
153.166
112.303
97.6907
38.795
45.3115
30.9956
-63.4058
-105.827
54.0044
11.5998
-12.606
40.6782
121.503
78.2972
-17.6549
-7.89935
20.2094
91.967
95.973
26.7431
-37.4967
-197.041
-242.782
-209.517
-160.647
5.58214
87.8623
186.924
223.449
187.355
85.6947
29.2473
-30.6436
-55.4989
-7.84304
0.917229
-47.9423
-67.3478
-4.28684
71.2405
124.254
120.978
79.9848
71.7786
-17.8889
-188.194
-221.508
-170.58
-222.224
-208.969
-104.207
0.399415
-18.9743
17.0635
20.9613
22.94
53.8277
0.682254
19.2878
77.2676
119.879
210.792
201.631
52.9776
-38.4459
-168.964
-20.5049
16.3742
-103.446
-106.922
-88.0402
-34.9961
138.275
143.814
132.558
107.327
-0.779512
-66.6941
107.374
228.414
117.523
-35.9273
-194.148
-176.937
-86.8639
-24.4255
-56.0531
-55.6996
-26.3175
68.0428
201.513
98.6453
-164.167
-226.738
-228.573
-187.915
-80.6425
34.1111
-12.4959
-69.2633
-4.20379
109.717
325.112
241.941
120.916
82.5678
51.1696
112.329
77.5196
-47.5948
-24.0432
-57.3122
-48.5676
-39.1759
-12.7135
2.11094
-120.076
-129.88
-20.0482
-74.0697
-108.306
-57.7322
-73.2896
-51.1745
9.9072
24.6374
145.47
239.277
215.009
106.93
-126.202
-227.833
-232.062
-134.162
-70.3389
-50.3991
133.125
167.452
69.7205
0.809751
-13.4371
-4.86594
-16.5873
21.1902
147.382
162.52
50.8174
-53.0587
23.2828
74.907
25.2552
85.5539
70.6715
-66.7935
-174.874
-148.436
-113.835
-70.2345
-64.4533
3.66013
68.1738
94.6712
8.54935
-34.5626
-103.151
-65.9742
-15.6237
-23.1115
-9.56213
53.2487
96.4118
27.5909
10.8211
-2.91308
-28.3718
182.588
229.218
15.4404
-150.358
-156.753
-95.4172
-28.8442
62.5344
93.1331
37.2924
48.6594
-58.8205
-164.755
-156.346
-93.8496
-52.2484
-29.8263
-11.3127
36.4228
189.478
168.209
75.8507
90.7632
100.293
36.1796
-37.4183
-98.62
-112.714
-43.0993
40.6208
63.6056
44.1374
19.2411
-25.8897
-40.7112
-79.0368
3.02105
68.5577
113.417
93.293
-43.1796
-34.4985
77.6902
63.9524
43.1738
-84.4266
-234.636
-267.042
-224.168
-224.152
-183.651
-123.382
-33.4728
129.258
155.866
172.65
143.332
150.467
184.535
144.091
10.6363
32.5633
57.5331
29.3981
-33.4202
3.17818
110.869
150.305
27.7656
51.1055
59.1873
34.5357
-42.8466
-141.497
-97.9346
-79.4792
-98.923
-66.6989
-59.681
-84.2129
-89.2293
-27.1976
52.0905
-87.7839
-146.866
59.3211
26.379
-4.64091
39.5501
-6.28595
-55.1198
-53.2985
-9.91779
-48.2291
-30.9702
172.007
216.894
164.259
118.056
51.895
4.62747
-201.882
-295.748
-107.95
-36.4841
-52.2094
32.3516
121.168
154.988
139.938
113.425
54.711
144.193
127.827
19.5173
-90.5518
-109.506
-108.396
-78.6294
-138.885
-199.504
-30.4747
39.5097
47.8668
20.0737
-0.737675
60.3708
-38.0106
-118.45
-5.34096
77.8291
89.5677
25.4238
-5.36148
-16.8013
-76.4655
-99.2786
35.3758
54.825
89.0405
158.82
112.73
105.665
80.7605
87.9191
48.0489
-49.0697
-128.302
-184.137
-211.399
-161.611
-94.1843
-86.9667
2.97795
19.2464
24.6498
99.9873
-14.4631
-69.0095
94.3248
219.546
131.03
44.2894
33.1556
-67.6621
-181.335
-102.327
68.9846
141.024
84.945
-36.4766
72.525
64.5517
-18.1994
-52.4732
-64.2631
-12.6157
88.5722
21.2518
-184.484
-138.252
-72.1736
-109.047
-89.532
16.1425
-3.70984
-15.0427
-22.888
76.1481
73.2072
94.375
21.1176
-22.2585
-1.87368
94.0795
72.8396
93.5272
77.226
79.0849
25.259
-121.3
-152.122
-105.994
-142.023
0.109363
156.503
173.397
152.075
125.747
112.06
94.2419
38.6131
-56.489
-183.992
-139.388
-72.7315
-134.749
-187.74
-124.582
-6.6062
18.1495
15.1634
102.422
130.049
67.0484
-3.07848
-32.7179
-8.81866
-78.0396
-85.8981
41.3559
100.867
172.699
187.938
32.2696
-102.128
-277.671
-419.955
-208.491
-16.1405
35.9091
55.8181
49.7365
100.136
77.5594
59.7146
76.9249
76.798
127.504
110.791
37.9655
-18.1339
-115.703
-134.982
-23.0294
325.311
434.97
290.96
90.4935
-28.43
-164.237
-336.16
-303.493
-140.219
-74.8041
-95.2832
-53.3752
6.65828
-1.75226
-24.104
-46.6931
-105.858
-107.061
90.6085
112.234
-27.8467
-14.1278
123.441
99.6928
39.5316
20.7109
72.9087
137.469
83.3999
14.1846
-12.8517
-34.6372
-35.9227
-57.6046
-83.7939
-15.2555
19.0333
56.6823
3.05945
-23.9979
-94.3758
-203.901
-162.733
-77.8711
-49.221
104.059
259.805
193.192
75.9052
-106.663
-229.664
-158.006
39.3329
123.29
150.087
103.373
83.3142
64.4269
-28.1501
-126.221
-145.663
-20.5549
54.3589
73.5873
98.0154
81.9168
52.9855
-36.2401
-21.0613
39.8477
115.429
18.5894
-128.51
-58.179
9.11902
-5.18128
47.7421
54.1695
15.518
-20.0533
-104.433
-167.159
-132.737
-137.598
-155.7
-96.8207
-44.0777
14.1191
34.0999
69.8366
110.249
91.8052
16.8529
-42.7743
37.7744
21.9914
-1.43551
51.683
162.715
193.843
123.317
-50.6835
-161.471
-118.282
23.1615
23.3863
55.8668
73.0014
-3.42399
-35.3412
-14.182
-2.23943
72.9189
8.44384
-29.2154
-71.806
-98.9752
-78.3011
-114.559
-162.545
8.95484
162.401
197.448
138.477
104.355
95.3125
10.3711
-73.4993
-9.79102
7.63731
53.2474
29.9985
-68.3156
-92.5615
-239.211
-182.845
-163.939
-124.013
-19.1736
26.3703
-42.1694
-18.4426
17.557
168.167
177.181
204.356
219.914
112.314
-34.7704
-112.187
-255.012
-324.972
-229.825
-48.1864
56.2866
153.327
330.587
286.429
132.133
60.8731
-7.50903
108.952
139.227
22.2764
8.40191
-33.53
-89.9644
-86.0132
-181.263
-159.022
2.34812
98.2502
120.672
31.9858
-12.1396
-75.383
-151.055
-136.134
-134.286
-37.38
0.300155
-34.7962
-31.7102
-36.4977
-97.1951
-178.845
-163.879
-51.9858
143.51
226.495
213.138
50.9703
64.1729
71.3161
-46.4517
-201.864
-98.1053
45.3653
197.086
294.298
219.419
98.1345
-1.63475
-96.4651
-111.241
40.7275
208.666
97.9979
-95.9637
-134.343
-68.374
-53.5143
-81.5686
-101.655
-151.988
-106.282
14.3985
-3.87789
41.6281
31.7685
-62.6756
-139.124
-144.429
-27.2066
139.328
108.544
-8.266
-62.8898
40.6606
161.191
76.1244
-96.8704
-36.6527
37.5131
129.117
143.926
10.8437
-37.7594
-102.658
-99.1988
113.579
209.749
208.969
153.209
14.6793
-71.9249
-95.4139
-56.2073
3.60674
-77.1405
-124.415
-134.201
-161.536
-113.525
-76.216
-81.1495
-170.192
-40.3158
88.9564
154.51
70.468
51.7156
114.872
131.412
27.5132
-80.0293
-53.5978
-15.0798
-31.1704
122.522
217.748
125.803
-120.36
-216.104
-251.267
-277.646
-67.1738
8.61293
-17.1036
47.6336
63.233
173.096
170.359
110.437
115.849
144.754
92.4178
92.9044
-64.1476
-142.766
-17.9087
80.2913
126.79
143.654
150.486
153.465
35.2424
-95.8253
-127.376
-91.8128
-132.705
-209.815
-180.729
-150.08
-134.727
-134.346
-196.628
-121.887
96.9055
96.1279
-21.8886
-36.1918
33.1101
97.4031
87.6735
54.9222
70.6939
66.7676
20.192
-29.8359
17.6563
42.1622
32.4316
50.1164
156.367
117.701
60.6579
-66.0227
-234.7
-313.497
-306.017
-75.5964
165.593
158.605
175.997
175.483
43.4694
-17.8473
-45.1398
-80.2451
80.7071
169.627
144.011
119.218
62.7682
47.6435
26.0427
-35.7492
-31.4739
53.9636
17.488
-59.1859
-92.3675
-58.1825
-67.6537
-69.412
-62.3385
-105.831
4.88534
42.9586
-100.785
-168.05
-132.278
-125.328
-167.829
-169.557
30.7059
145.629
149.95
123.53
168.947
112.841
-42.3844
-143.155
-61.2675
50.3814
70.8986
113.067
104.137
105.007
61.6868
-39.0681
-130.622
-22.3606
49.8333
80.7618
31.7655
20.4462
-27.3647
-95.5016
-132.969
-9.49291
28.1569
21.5758
-19.0887
-20.1237
7.92393
-37.8701
-79.7808
-3.11184
77.5765
76.1141
65.1683
38.2788
70.6702
22.316
-58.2357
-47.8359
48.0535
132.263
24.249
-69.7981
-44.5576
-60.4319
-163.487
-147.842
-57.8201
89.6174
85.7641
46.0736
-3.88263
-9.31761
19.3936
-103.297
-71.6777
-0.680253
-4.13929
34.6009
9.0572
-26.6065
28.2489
8.40468
56.0061
101.873
126.564
125.554
88.4158
18.8973
-42.8351
-178.548
-122.667
-72.4165
-56.2691
-18.4816
-54.1502
38.6872
97.5246
38.6769
18.3444
-6.21316
46.3473
32.2683
-32.1136
2.4259
39.3579
14.7733
-49.394
-30.2395
44.9908
71.5626
-4.34508
-49.0735
-34.0017
-69.6317
-168.854
-226.796
-128.348
42.3432
147.432
129.431
100.76
74.2753
52.8472
15.3548
-54.2163
18.8557
62.9869
19.2649
17.5769
60.1169
70.9065
76.3186
-20.8854
2.53688
27.8608
38.5332
9.66616
-1.59531
-64.3174
-116.237
-81.8548
18.913
-3.56375
-164.684
-212.388
-217.31
-213.506
-118.832
-58.8307
-1.0503
118.245
192.157
244.746
177.785
150.951
131.842
64.1944
11.2257
-32.0189
73.6765
63.8611
-13.0869
-54.8115
-31.7813
24.0478
46.4281
68.2404
61.4158
3.38817
-42.0976
-100.752
-65.9504
-27.1127
-90.0003
-149.914
-84.5685
-51.8941
26.783
67.2818
1.77077
-49.3519
-129.62
-24.7514
129.317
160.168
96.7885
72.6094
21.524
-27.3926
-141.825
-156.065
-68.7774
12.6492
107.024
124.88
26.0072
-13.1709
-85.9369
-183.9
-138.25
11.1901
63.6861
42.2863
68.3572
88.0629
4.57451
-10.0707
-48.7707
158.122
427.608
285.555
17.0566
-187.766
-323.816
-382.657
-317.197
-205.484
-55.829
72.9234
128.839
149.197
177.969
139.122
73.0582
60.2775
151.032
105.387
88.3456
4.83766
-86.8734
-74.1013
-92.5226
-55.6681
72.2914
112.534
96.4446
62.4309
-15.615
-34.9833
-123.426
-163.374
-62.9256
-65.9502
-61.3327
-66.9702
-83.4268
4.02072
-15.4121
-116.777
-130.511
-100.877
59.6755
265.993
221.721
112.91
29.9537
-18.5764
-90.7831
-49.428
33.4812
-5.89915
-62.1108
-38.9233
16.4419
26.0006
-97.6748
-57.3228
64.149
78.1161
41.1255
44.9155
7.56517
-70.33
-89.6744
-19.8421
203.923
292.391
241.89
102.305
-22.0116
-98.3084
-199.389
-313.299
-330.634
-92.994
12.9896
-70.7602
-86.1752
-67.1579
-58.9582
-9.43126
57.6539
183.551
244.023
255.37
127.708
9.23927
-10.841
-11.4387
-59.3664
26.2467
158.338
210.391
212.062
75.9947
26.3199
-4.23126
-61.4332
-107.503
-84.9521
-48.9546
-108.342
-187.81
-168.316
-137.699
-159.373
-199.328
-130.51
-27.4767
-51.3246
-39.8901
64.3397
115.031
64.2328
-60.9192
42.4395
106.083
69.2906
90.0283
77.0191
78.5915
83.5002
-43.321
-73.9611
-18.381
27.6527
71.6036
27.6193
-28.2412
-9.05293
-65.0336
-148.942
-103.597
37.3877
134.273
87.0329
60.5054
85.7575
14.2932
10.9791
87.408
57.9035
62.8084
65.1718
43.7531
-3.33473
-13.3443
-33.2762
-87.0895
13.4174
40.2145
-21.0486
70.1198
189.186
154.134
-14.047
-236.108
-441.744
-323.862
-99.1505
-73.7407
-85.5796
-146.645
-93.9284
-19.0566
-32.3099
-9.60628
156.132
302.949
288.642
198.457
74.9719
-90.4051
-226.756
-220.602
-45.3664
114.432
229.452
224.859
114.644
18.44
-8.75076
-0.586081
56.5516
25.3345
5.40274
7.84301
-68.3039
-127.953
-139.322
-150.24
-116.515
56.7697
91.2646
62.3057
17.7452
25.852
73.1535
59.649
-41.3904
-110.006
-19.669
28.8864
-23.9021
-42.7255
-21.9065
-25.6104
-80.2539
-91.1803
9.326
61.0079
104.27
48.6544
-1.88125
-4.16878
-65.5133
-20.5295
36.3176
39.2916
35.3186
38.138
4.19999
15.6322
-65.9871
-30.8397
28.6795
2.52401
18.098
119.886
83.1004
18.4622
-77.2014
-130.615
-25.8435
7.23685
13.2729
-0.825492
5.20204
6.2373
-15.766
-51.5888
-89.8191
9.82511
119.024
101.051
96.6193
126.708
86.0854
-37.5012
-170.06
-244.305
-58.5106
-59.3434
-144.649
-110.554
-56.7729
-15.4125
23.6461
43.3144
7.17415
140.408
235.874
191.463
153.129
72.6107
56.4859
27.2665
-59.8809
-81.907
-44.055
-66.4983
-186.83
-111.927
-21.8744
3.40588
-2.13962
