-20.5512
-142.228
-101.648
16.739
-5.00626
39.8181
203.418
146.048
60.6646
-35.2847
-173.614
-34.6473
15.1634
-148.611
-328.646
-204.902
133.998
153.277
107.777
168.297
162.982
51.735
-104.59
-72.0332
340.217
325.084
98.591
22.8586
-24.1991
-74.7233
-178.832
-242.354
-20.9739
-25.4629
43.5798
59.5515
-42.2924
-67.4601
-197.089
-323.668
-59.6912
19.7905
136.259
140.895
-51.8344
-65.3754
-82.9595
-104.533
71.9602
66.0295
26.8387
57.729
-48.1197
-18.2011
59.7484
4.50374
135.137
187.671
160.53
195.733
47.2908
17.0969
31.9964
-90.271
-254.05
-193.321
-14.0936
76.8392
-41.894
-0.273977
71.9471
89.0968
-164.9
-391.058
-208.158
-6.59645
59.5101
129.816
135.662
185.449
119.582
4.446
-157.42
-90.7346
55.3452
29.2504
69.5658
220.372
111.021
-13.0099
-142.241
-99.2237
35.2562
93.6346
35.599
2.88868
-152.194
-179.45
-59.6615
128.921
45.9719
-30.8642
127.521
313.836
112.51
-26.865
-197.035
-337.2
-187.201
-56.8236
16.0602
70.5159
117.752
130.981
-10.9003
-96.8356
-205.369
-51.0301
36.5202
93.4968
83.4455
23.1143
5.64159
-81.7194
-302.297
-199.927
272.824
387.396
189.603
70.6782
99.2576
-6.04063
-261.623
-230.986
99.4697
158.973
135.812
6.47703
-81.893
-159.683
-132.044
-9.58833
186.278
175.523
246.659
57.1033
-216.408
-260.95
-207.02
-88.4871
-60.9796
-25.0216
79.9097
119.951
4.03135
-115.285
-100.944
-94.6362
-111.008
27.0519
385.714
367.766
55.6416
-100.141
-38.4482
33.7531
-69.8908
-187.234
-165.186
-91.9145
-130.234
-35.9034
222.114
183.576
170.663
190.594
17.3531
358.577
568.566
67.9986
-454.88
-596.512
-375.42
13.1767
286.076
437.664
307.274
44.9712
-91.2656
-351.916
-461.93
-475.925
-391.084
-73.5324
-189.783
-243.469
-27.4958
-64.9323
50.1065
224.724
371.406
434.757
235.593
123.968
-32.4994
-153.011
-123.836
35.3815
86.6208
280.094
322.046
260.203
43.5083
-103.29
-49.3381
80.1941
147.132
-208.024
-302.207
-281.418
-228.946
-112.769
-7.02874
37.9501
-97.5772
-70.2968
63.6534
191.307
225.325
208.586
269.949
128.932
22.3061
-116.436
-9.36159
59.2129
-40.9966
-86.5507
-227.145
-136.584
-78.9557
-33.3658
-40.1401
-249.983
-90.0468
-75.1209
-122.6
-111.051
-44.1763
56.8667
11.0144
19.1349
285.684
303.064
73.6627
-115.029
-150.181
-91.7398
-26.7576
-0.214364
53.2083
401.645
275.77
68.3096
19.7214
18.4072
16.4284
2.3062
-82.1295
-186.379
-55.1648
-43.6685
-173.526
-152.024
-51.8452
142.217
146.315
18.4584
234.993
177.054
50.1804
-90.764
-92.1673
-44.9955
-78.5157
-57.9356
58.836
-30.3592
-77.9537
-139.222
-177.719
-86.9973
-155.095
79.9283
242.686
39.9704
60.2298
158.604
-109.855
-138.708
-194.375
-246.322
-9.53923
61.3071
51.3064
37.8094
-32.6266
55.0325
110.868
96.4692
215.982
157.563
44.3355
-101.034
-188.407
-139.457
29.4163
184.906
-86.9282
42.3
248.089
148.68
43.6592
65.8785
76.781
23.8713
-71.9417
-212.801
-283.439
-24.8466
49.8985
141.493
236.418
179.33
88.9616
84.6341
-191.342
-220.746
-55.7984
-113.691
-155.645
-153.847
-161.832
-200.574
-288.974
-68.4079
27.4166
80.0632
253.826
143.81
17.4425
5.81833
-26.4037
-42.0773
103.379
131.674
173.942
89.3286
67.7144
54.559
-33.4226
-132.787
-7.16747
35.0915
93.9356
0.970247
-22.4121
59.2245
56.4914
-104.003
-90.963
-81.6875
-83.8362
-8.69852
-1.80542
22.9437
119.885
37.4571
119.572
17.7313
-40.4417
73.0559
94.5903
10.1262
-117.006
-57.2939
117.57
14.9264
-95.7579
-80.1797
-104.27
-106.814
-158.492
-110.979
27.4889
36.4869
-41.4248
-69.7477
-72.2787
-32.1581
-101.891
-119.182
91.8706
157.266
426.606
378.857
8.16392
-31.1415
31.9814
112.319
-61.6079
-136.463
-169.064
-215.065
-203.282
-107.918
128.707
142.432
18.1542
-55.4683
86.1461
271.698
160.81
177.23
-53.957
-179.714
-155.867
-143.76
-174.987
0.147559
75.6279
90.0684
175.693
164.721
161.278
80.7264
-68.2314
7.23525
-9.72694
1.51806
-111.52
-270.959
-216.611
-202.025
-87.4667
-20.4715
-20.8424
51.0474
112.432
12.8827
10.8667
-88.3822
65.7377
171.952
31.8267
25.2915
-11.9804
-45.1502
-36.3103
-53.509
-158.975
24.449
147.059
199.184
103.28
-32.8463
-54.6392
-67.0029
-12.9511
-84.3791
82.5882
237.958
239.16
144.54
-55.7999
-143.09
-156.002
-110.135
17.6156
131.963
222.374
12.4479
-219.65
-239.696
-182.382
-167.916
-11.6923
261.86
242.415
110.36
-28.1173
-64.9243
-119.464
-137.413
-162.222
-156.803
6.10189
81.7027
220.378
184.105
250.829
57.3873
-266.636
-274.753
-53.5262
38.3684
51.9667
18.7486
-38.7279
-38.1521
-117.691
-166.881
54.4509
129.114
130.756
165.992
146.622
10.1262
-217.842
-210.575
-152.228
105.956
99.0889
172.616
253.696
112.251
53.3583
-32.3291
-160.543
-18.1188
6.58985
-34.9405
-211.575
-70.3154
368.82
283.33
-90.5916
-30.9831
-83.1648
-53.4704
-36.2478
-100.152
66.4894
4.84255
-182.244
-2.26648
-3.96424
-110.235
-182.231
-299.541
-221.496
-105.934
59.6196
105.181
-65.3698
9.07914
151.791
111.478
170.098
200.078
51.8776
-115.976
82.9047
133.401
94.0302
87.2274
100.217
184.254
228.624
29.4788
-90.4434
264.016
233.499
-5.75206
-207.045
-221.581
-126.78
-107.473
-196.311
-314.315
-118.739
100.258
-41.3953
-94.7998
-87.735
-98.0184
-102.763
-216.698
0.104782
330.647
317.749
46.0146
-89.8134
-114.349
-67.9314
-129.92
-67.1062
138.447
196.623
191.538
84.4144
-27.4179
-104.9
-236.952
-123.186
24.9945
43.9244
59.5367
80.656
120.752
196.981
132.533
-17.7352
-238.391
-82.0095
223.09
118.023
-83.1303
-56.6689
62.0599
116.546
55.9581
58.193
259.629
99.3893
-197.276
-374.654
-385.174
-252.347
-229.464
-165.663
-7.56698
110.768
321.129
191.976
69.6756
57.1802
-19.6982
4.39433
157.842
110.585
12.54
-65.9578
-83.5742
-59.726
-19.921
258.228
290.04
87.9593
-7.56639
-42.7556
-140.043
-147.685
-184.814
-237.884
-109.458
2.82762
8.36047
-7.71994
-86.7623
-49.2571
23.2441
5.93306
-127.006
9.00015
108.371
44.2504
64.5522
53.7789
28.4634
28.4629
17.4911
79.867
-31.2895
92.1438
51.5274
77.6887
225.125
80.5017
-52.759
-77.5839
-112.258
-90.1415
79.9677
29.4129
-2.01147
-46.5765
-2.98554
88.2431
-74.5473
-175.333
-0.274133
71.4433
88.7306
-7.2238
-79.5275
-97.5069
-190.86
-116.356
0.129088
-3.83754
30.7838
35.7817
-33.2327
-11.2372
80.83
7.59069
49.3601
185.975
163.438
92.9401
-103.791
-151.83
49.3966
55.7357
-76.7333
-165.313
-73.2499
145.316
92.0183
26.8381
20.4681
59.1417
58.6831
-52.4344
-127.034
74.7853
40.7663
-160.746
-126.785
2.44816
43.3218
-40.344
-88.5979
47.2739
91.1892
91.6441
11.831
-72.3759
-66.2397
-63.3955
-107.175
55.1804
88.7712
110.619
101.223
47.9691
44.3625
44.2308
60.6431
-40.8913
-68.2451
50.5994
40.814
-43.0406
-31.969
-20.3036
-41.5866
-70.1668
-113.529
-70.0526
83.7339
13.3127
-15.1345
-15.3292
-6.35102
-25.21
-57.0713
-64.8331
-92.1285
50.5461
-16.2471
77.4492
194.038
126.839
132.261
12.3441
-92.2409
0.157888
-3.41849
-23.4156
-30.9554
-54.8538
-64.8923
-86.5925
-140.052
17.6264
56.958
49.7438
113.674
89.4583
82.4132
-69.344
-224.881
-86.4383
-45.8703
26.2136
94.2386
35.4709
33.7339
0.518678
-35.9716
43.0944
85.257
87.2698
109.015
-6.14301
-38.7301
-26.3141
-12.3559
-104.314
-30.0409
79.4032
69.9859
-18.6068
-37.5377
-3.7763
20.4381
9.57903
-70.6156
24.0349
37.0466
-85.4622
-103.732
-44.0888
15.8761
-33.0969
-90.7645
6.94421
137.474
147.511
66.5161
-48.5033
-31.67
-71.5335
-85.6623
-83.4804
-108.975
28.4525
97.4543
90.5711
72.1259
53.1376
23.1412
-24.7238
-6.19597
84.7517
99.0717
29.5505
-55.0324
-80.315
-90.0759
-146.132
-111.551
-8.84815
10.4948
36.8214
82.2779
2.38743
35.9446
25.9905
-103.828
-79.8632
115.091
107.951
77.7042
-2.52245
-8.10121
-12.5346
34.7554
16.0716
-34.8987
124.586
108.594
52.4732
36.2203
21.7108
15.3652
-123.443
-87.9177
33.3481
-1.29167
-86.305
-238.078
-217.973
-126.13
-27.0693
199.04
200.165
23.7811
-20.6656
-54.2406
-181.584
-166.641
-203.201
37.8949
337.613
238.718
62.5429
96.9738
178.854
132.154
-108.594
9.88263
111.622
-21.6344
-59.8083
-181.348
-217.185
-147.119
-80.7573
-115.769
-86.801
107.081
119.564
33.3865
-204.466
-90.5544
235.822
286.309
-61.1471
-160.461
171.807
96.6314
165.484
249.363
81.9369
-81.5358
-167.973
-235.657
-260.264
216.668
283.897
88.0036
218.82
124.221
-75.9199
-212.704
-379.696
-259.585
-164.433
-17.0889
25.3699
13.2136
-58.9458
-138.857
-185.621
-51.2408
28.7953
141.25
260.898
202.954
246.867
189.831
-110.269
-349.921
-260.301
76.1559
345.482
228.031
242.179
353.92
169.396
-203.359
-143.815
-58.2524
-40.7459
-79.5427
-69.8802
-62.6392
-67.9012
-193.488
-299.247
-127.315
-58.5859
41.3087
93.3991
-38.7799
-190.124
-269.399
-218.84
-44.401
33.5102
205.78
147.346
119.511
154.906
90.5507
169.883
231.771
175.142
63.7959
2.43944
-72.4805
-27.9956
-64.2032
2.01054
169.628
88.2256
35.4003
36.2166
-16.851
-34.8817
12.3103
-65.3297
-175.223
46.7055
185.943
32.6179
-135.828
-145.404
-113.806
-74.0434
-145.153
-97.5968
-47.5316
-9.15745
-142.409
-99.461
-64.9456
4.99474
66.5921
85.0183
-106.389
170.65
306.693
14.7423
-50.8099
-22.2203
3.8202
-14.2494
-128.055
-9.15794
72.9249
142.784
191.637
58.6339
-54.5422
-128.205
-70.3389
-16.9494
57.1604
64.8386
86.821
-95.9801
-89.4337
-80.5531
-28.3677
117.354
112.813
41.05
75.5632
23.6904
-18.2699
-135.817
-230.735
-39.9366
88.6337
93.5183
23.1782
-64.4005
-168.768
-24.0965
177.122
43.6417
99.4026
169.87
50.7755
-39.8403
-46.0367
-43.5787
-67.1301
-133.805
-164.339
117.255
201.865
25.0679
-52.9042
19.332
12.0887
-96.7725
-250.144
-82.7195
2.00902
52.5447
1.7585
10.0832
31.99
-3.85832
-47.9688
-50.9848
85.1106
101.469
124.492
0.217844
24.0623
56.6799
9.35649
-43.4116
67.0539
102.316
91.6729
-101.525
-147.092
-118.938
-144.532
-206.282
-22.761
109.64
133.662
218.533
185.029
101.842
37.21
-84.0841
-142.692
-133.596
76.0428
113.891
58.417
46.5161
16.4732
-73.8665
-94.5867
-187.791
-93.4069
2.3038
20.2082
36.45
16.8204
11.9602
-46.4993
-103.073
-4.57681
77.5957
85.9999
28.5878
-94.5109
-104.213
-155.996
-147.822
12.1918
201.313
83.0932
41.4695
90.0172
104.315
5.17673
-54.6627
165.613
148.207
68.6501
59.7429
80.5756
16.128
-62.2842
-108.103
-173.581
-81.1341
-82.2781
-66.7265
-34.0069
-73.2474
8.37705
21.6602
-151.025
-235.265
-141.321
110.023
91.4571
60.4486
80.8776
126.516
62.8279
41.8451
78.9697
116.772
168.009
50.5163
30.7896
71.2566
28.476
-60.9632
-49.8829
-70.3325
62.8659
135.741
22.0883
-173.935
-218.643
-131.257
-116.35
-192.114
-32.0949
135.609
85.4788
44.6831
-3.11478
11.993
14.1071
-78.3096
17.6995
40.4086
60.7504
118.553
32.6237
30.7518
9.54346
-100.068
-224.095
-79.54
76.2647
79.8277
-37.5155
-107.554
-59.0541
-41.7697
-8.27253
-77.5797
-58.233
363.191
354.482
191.741
99.0912
93.0025
30.4072
-139.077
-255.565
-93.3713
13.7077
-142.444
-125.846
-5.71887
-50.2519
-73.8153
-68.9814
74.277
34.1191
75.7921
108.376
-67.0927
-129.436
-133.386
-203.824
2.86203
126.645
193.192
204.644
105.347
161.369
142.859
-6.19283
51.9239
48.5737
-19.8284
-74.2938
-209.524
-198.297
-78.9656
-66.7749
-171.768
14.9005
284.356
237.067
60.7129
-16.386
23.9475
-17.161
-124.615
-242.423
-244.277
-50.8626
105.825
91.9853
62.8145
90.971
107.484
120.834
3.69359
-76.3322
144.017
-9.91436
-160.152
-66.2892
-85.4941
-116.047
-125.095
-105.854
-0.203695
62.6733
144.212
32.1015
-5.26369
144.308
-10.844
-1.45245
120.206
16.6156
54.2689
150.415
19.3883
-99.0167
-275.072
-102.407
-32.418
-65.0298
-24.4672
103.412
223.486
387.704
385.604
44.1997
-261.536
-232.767
-132.547
-129.002
-189.958
-39.6274
60.1688
-2.07869
-154.344
-245.375
25.644
71.7208
61.0589
90.5267
83.883
5.73541
-175.359
-327.817
-77.2677
241.484
252.538
138.688
111.152
96.3128
50.9369
-97.9921
-85.2957
235.618
267.732
177.426
-0.20136
-48.8226
-89.2613
-128.676
-148.673
-195.113
-54.0393
53.9365
14.1887
-46.5077
-0.314363
15.2993
-33.0638
-141.945
11.5064
122.508
95.1821
-51.082
-90.6495
-11.1104
-37.5918
-110.624
-82.5758
-75.535
-27.4698
104.026
47.8731
-18.07
-141.505
-107.135
114.489
100.901
77.895
112.472
192.193
146.871
88.4677
-19.8494
-38.6498
-31.5961
-120.263
-133.946
-82.7193
11.6205
116.384
128.292
95.2953
58.8915
-164.148
-122.355
-128.739
-161.64
-29.9868
57.1954
-47.7215
-52.9707
-52.0807
85.6976
225.419
148.616
95.3951
104.501
109.496
113.621
34.1207
-169.198
-63.1403
71.0525
79.1678
-16.0537
-111.371
-140.507
-112.201
17.7637
14.3052
-140.819
-227.678
-216.796
-230.153
-66.4749
128.106
361.263
486.734
208.756
-105.767
-24.1683
13.2182
-36.1841
-7.13114
-43.6987
-101.049
-122.209
-156.166
-250.663
-138.996
92.7962
146.21
47.9812
-3.98001
2.8671
-73.7823
-175.818
-107
38.1996
177.004
206.209
91.4847
25.5985
52.6735
24.5792
127.094
150.77
126.546
142.622
34.6294
-23.179
-8.92896
-89.0004
-164.308
64.0145
92.4613
28.2801
-89.1086
-65.1136
-33.1054
-31.2111
-148.979
-251.358
-19.2008
116.742
22.4034
7.40159
37.9236
63.8208
2.8081
-117.182
-56.572
87.4044
121.144
61.1521
-17.2567
-149.45
-232.027
-221.367
-37.1923
58.7724
75.8256
127.812
27.5389
-21.745
-48.3159
-133.387
-57.289
237.874
239.002
234.216
152.852
28.3481
-119.866
-369.938
-216.111
36.3
32.9997
107.615
111.913
59.2938
45.0816
3.90269
-111.434
-50.8729
103.781
121.094
114.992
-55.0673
-119.182
-98.8586
-179.515
-281.581
138.975
343.699
251.108
143.845
72.215
-50.3634
-123.092
-203.79
-283.175
80.5164
207.053
28.8389
-72.0184
54.387
-29.0158
-153.658
-198.731
-97.3783
47.7802
80.4426
-52.512
-90.066
-21.6536
-38.4233
-113.531
-19.9328
169.919
176.523
194.119
10.8241
-19.6166
38.3297
-115.651
16.2115
77.8006
58.7429
92.0022
69.8828
37.7562
51.1601
-34.6602
-98.5536
-55.818
21.265
80.1368
66.8709
-44.8832
-32.1496
-0.0995438
-66.734
-138.945
-100.713
96.705
-31.0278
-52.7319
-36.3197
-0.973834
-13.1607
-130.306
90.2685
115.476
59.5319
3.22171
-55.5111
-13.7672
-26.7941
-204.113
22.4105
103.527
10.1718
1.63879
22.4583
45.9001
116.615
36.3177
0.621164
0.106848
53.1892
139.701
17.3157
-35.1321
-43.2948
-84.0947
-137.752
-206.092
-248.741
60.2812
99.6726
49.4988
29.9862
85.0845
193.939
58.4185
-92.1318
-107.743
83.4274
134.272
65.3202
66.4387
-13.828
-67.324
-56.7533
-71.5654
-54.4874
114.508
137.904
41.235
-56.3019
-30.4523
-36.6332
-119.08
-189.882
-20.0653
-13.1574
11.5109
-85.7589
-107.887
-53.0506
-27.3143
45.6262
195.829
102.571
92.3388
77.7639
24.6918
51.1227
-113.189
-153.252
10.7272
60.2133
41.331
67.5857
91.4724
-25.6086
-229.751
-308.068
111.368
362.362
191.108
53.1898
-15.1887
110.615
72.6088
-16.6071
-125.438
-16.9182
24.4722
-25.1624
-122.499
-122.233
-66.7743
-75.5644
-212.476
-70.8906
147.429
171.76
-55.0871
-196.816
-93.3079
-55.7594
-207.412
-126.568
116.804
176.612
170.563
106.906
133.127
116.205
45.4599
24.6199
-45.9259
0.526115
104.761
76.7499
82.5131
63.8676
-47.2683
-116.46
-140.318
-39.2445
54.7828
34.8188
-35.6549
-21.659
-15.0542
-56.9806
-145.259
-161.289
105.756
151.873
175.714
102.585
-22.4398
-48.3852
-21.1688
-54.0873
-197.223
18.78
102.6
33.4911
14.3272
-36.6512
-66.1692
-43.121
-75.1316
-47.2757
72.1541
88.5832
-39.5418
-50.6074
-1.35584
-8.02889
-114.192
-100.095
62.6955
82.8935
81.4349
-36.8808
30.3328
14.289
0.941647
102.105
164.584
63.7903
70.6118
32.8686
-33.4082
-37.6863
-172.444
-127.176
-49.6058
-61.099
-10.6389
43.7654
86.4562
96.7615
-36.6959
-161.616
36.8684
177.496
139.486
40.8636
-69.4701
-74.0903
-35.2918
-21.2537
-80.7762
-99.9912
90.0042
37.6767
-33.4216
-35.528
15.2568
81.5927
-15.5094
-47.8675
-0.418552
148.54
-47.0909
-152.559
-107.651
-23.2961
-30.3378
-50.8748
44.7014
144.394
127.646
104.431
-17.9567
-14.9078
-23.1331
-117.337
-29.2894
-12.9014
-30.4065
0.317228
67.8004
0.766625
58.9997
7.17045
77.8759
-7.54051
25.6013
76.5437
3.20075
-62.6806
-17.0059
-40.2587
-119.072
-82.8503
56.1052
183.211
73.3435
-12.5578
-42.7906
-8.51187
17.5421
-169.389
-240.912
14.94
145.274
28.4699
-35.0847
-16.3731
-28.7318
-51.6791
-68.2405
195.368
262.517
134.524
56.5086
-5.97502
-33.9325
-60.7445
-177.811
-95.7092
36.1433
74.0769
36.605
-88.2481
-167.231
-104.047
-156.561
-87.1178
139.188
133.143
126.095
-2.86823
-43.1523
-5.1033
-105.677
-144.27
57.2403
137.909
147.563
108.226
43.6277
42.6349
36.3125
-29.8394
-199.991
-33.6666
179.106
116.507
-14.6839
-15.1212
12.7535
-41.2651
-75.9854
-119.602
-24.2755
146.25
45.5194
-35.6475
-5.42329
-26.2235
-58.322
-57.1335
-103.585
7.29249
67.346
37.0161
9.35066
-29.5464
-63.4075
-49.5972
-70.5413
57.1098
36.9624
38.6295
140.955
154.141
66.6504
-115.616
-238.412
-45.0838
80.8121
50.3912
67.5754
2.1818
51.5398
-48.273
-200.724
43.3243
57.356
26.2673
99.8984
-18.498
-7.43466
34.434
-63.6787
-219.709
-201.82
79.3752
196.852
47.8954
-52.239
-8.57627
46.5872
-32.3017
-149.375
5.76696
203.453
71.834
31.5305
28.2107
11.936
-27.5633
-96.9492
22.9571
30.173
40.8184
38.0333
-8.13525
30.7301
-4.68698
-88.1483
-47.4796
70.344
78.0437
107.518
16.426
-49.8904
-56.9062
-70.9979
-147.984
-166.928
54.4805
99.1666
32.4121
14.6047
92.4095
72.2869
-88.2887
-145.463
-147.742
155.577
148.211
31.1959
22.9296
39.1748
-3.15164
-35.3576
-96.9412
-64.1046
52.8428
46.5477
-75.2616
-60.0238
-85.3887
-78.2981
-143.126
-113.266
65.4166
161.038
300.27
110.561
7.57397
-48.3895
-108.311
27.19
33.4607
-7.80746
18.2322
-0.0503221
47.9445
32.131
-98.9136
25.53
8.36583
3.98469
38.4964
18.809
-48.1818
-110.26
-213.194
-123.633
-68.7202
-53.4166
74.8098
188.15
174.547
243.264
109.109
89.7546
33.7104
-9.44333
-30.0345
-71.0278
-47.5898
-33.9779
-101.933
-109.845
51.6179
56.4121
-87.1986
-164.001
-43.2596
53.1992
77.1937
-39.7623
-165.259
-70.0022
73.8443
24.2131
-6.70463
15.3337
15.7444
-17.0355
-10.8067
-79.943
44.2294
119.302
58.1771
125.298
150.958
75.114
22.2723
-76.697
-68.2408
-68.3295
8.78502
-77.4358
-79.4596
-42.5975
-41.3593
-81.444
81.9381
112.805
77.1171
86.0735
42.6528
0.958325
-68.0531
-174.048
-18.2861
123.31
59.4398
10.0074
-47.216
-87.7068
-61.5659
-111.322
-84.2336
55.1325
111.588
145.178
175.762
132.358
13.4766
-36.6339
-134.789
-21.9583
-16.5079
69.6966
20.6904
-91.8868
-71.7639
-29.3865
-15.5311
13.5962
-2.99562
-11.4829
-40.1193
-113.52
-118.923
-145.386
-163.243
-4.54817
95.5019
132.555
137.548
54.6732
29.2306
-90.2969
-84.4744
84.4411
46.3443
64.3888
65.2244
23.9196
80.2581
-8.22667
-82.9744
141.635
116.007
127.567
20.7919
-97.1503
-80.6161
-64.8602
8.53599
6.12899
-5.13115
95.0332
34.4326
-71.0542
-38.579
-4.29589
-57.5916
-155.661
-274.448
-262.517
130.156
104.327
130.57
271.315
232.379
15.5584
16.0859
-68.3524
-184.853
22.2491
21.7291
-25.0457
-30.993
-76.1181
-65.5518
-110.251
-174.063
88.7377
141.28
166.147
9.75592
-116.295
-132.396
-165.311
-91.5603
131.924
75.3371
82.7336
127.663
-8.56381
-16.6913
-42.4318
-50.8849
87.062
128.696
87.0675
120.848
14.7607
31.7525
80.219
-19.1177
-123.288
-29.8608
-44.1019
-72.5815
-101.702
-32.3336
28.2735
-45.8735
-100.182
55.5973
101.048
90.5712
-17.621
-27.2361
16.4977
-36.1353
-83.2238
65.5218
28.659
-7.2894
-9.3139
-57.1183
-18.4881
30.5079
-78.5004
23.331
36.9587
83.7414
38.7748
-46.8184
-19.8636
-6.0565
-55.6994
-178.226
-137.587
158.876
134.867
42.4657
64.3185
65.6709
42.9261
-82.1348
-154.952
-5.13334
99.8735
6.03526
2.78847
34.7343
14.3433
-18.523
-44.4255
-173.018
6.84751
163.617
105.282
-32.2159
-20.8862
40.7909
28.0617
-79.3696
-130.621
115.244
156.391
5.08188
-42.1276
-62.4945
-83.6659
-163.753
-188.458
79.9025
164.361
221.791
61.5835
-6.25083
-7.51676
-75.3965
-91.3828
-22.1396
-34.1932
6.77222
88.5563
-22.1808
-51.5153
-96.9808
-45.8221
79.9293
41.9799
74.2418
114.702
-33.8494
-67.65
-121.931
-185.361
-15.853
82.0348
41.4907
49.0766
61.0174
91.0081
147.537
139.38
-96.9742
39.5789
92.9266
-9.73282
-96.4352
-58.7035
-2.2241
5.08933
-117.249
-120.623
152.171
116.916
-12.9138
-61.244
-42.1084
-44.3343
-139.515
-213.53
-179.617
42.3303
106.799
25.789
-10.6641
41.4443
27.474
-28.8216
45.7343
82.5212
50.5052
45.4094
-9.44823
38.3874
25.6394
-42.2908
77.2421
88.9859
29.9343
74.0748
52.0348
-79.3087
-105.647
-154.271
64.8418
57.7217
23.1726
56.3697
28.3988
-2.94269
1.27718
-77.2929
-112.422
75.4021
47.3814
57.32
-9.85049
-36.8149
-48.1642
-92.1478
-89.0724
12.7778
59.603
80.219
-37.7242
-37.7786
-50.4395
-91.47
15.2173
46.1493
57.8327
80.8224
17.0187
-70.4772
-77.0442
-75.1612
30.8342
21.3711
10.6331
64.1827
64.4574
-37.339
-71.3653
-19.947
83.686
73.7057
46.0715
67.6019
-6.59229
-32.118
-53.625
-78.8607
-41.5151
55.8719
47.0715
63.2088
-21.5021
-25.8712
-3.24473
7.33833
-69.1993
-133.043
112.923
77.8079
-61.2361
-50.4396
-15.2189
18.6792
-19.1088
-97.113
-36.944
136.276
122.225
-24.7273
-49.0727
-68.9796
-106.077
-109.664
-116.557
283.131
356.419
212.207
94.4845
35.1038
-111.192
-141.446
-154.449
2.60556
19.5797
49.6285
-3.84769
-73.7669
-75.4892
-173.167
-150.883
69.4421
101.138
95.8544
85.0775
-140.747
-156.459
-124.62
-178.666
-17.9339
79.3724
84.686
102.253
26.7064
11.449
27.5941
40.7194
-20.9736
73.3105
160.525
144.039
41.2289
8.63975
15.7059
10.1113
-151.459
-107.634
122.375
102.457
2.97693
-33.9753
-0.712581
15.8432
-96.7294
-23.8962
25.8499
-3.6279
8.96535
-35.4636
-40.5947
-27.9712
-115.948
-149.318
71.6515
100.607
75.8143
29.2447
-76.4608
-45.3152
-42.981
-78.3483
-123.597
34.2239
149.002
71.7144
24.3659
20.1982
26.9492
-32.2857
-96.3122
63.3123
92.7664
81.9059
-25.1589
-26.1212
-9.25957
-11.7562
-57.1026
-96.6226
37.5237
66.3511
86.3598
2.22192
-30.9121
-40.0133
-114.635
-126.797
100.351
118.35
113.369
21.477
0.541416
19.1156
-54.9233
-81.9061
30.8516
13.7796
-6.37194
31.4655
-43.3037
-38.6541
-66.8072
-94.0452
26.3085
20.0933
38.4506
16.2651
-142.538
-117.376
-139.918
-108.139
267.426
382.626
309.267
232.363
51.374
-37.2489
-141.258
-164.88
-37.7836
-50.0889
-15.5048
-22.9618
-96.2756
-92.2687
-52.7068
-51.9913
-76.7693
55.0531
89.7603
39.7376
-162.592
-211.405
-168.57
-177.6
-71.0718
40.5628
193.53
226.061
80.9956
70.4723
86.1522
68.761
27.5483
-26.2408
91.5334
147.228
124.172
44.1204
55.5012
8.02488
-112.655
-179.058
-44.6997
12.672
-3.81411
-1.57411
-26.2563
-19.8409
-91.7701
-150.184
16.6982
141.738
82.157
82.2591
3.82751
-9.45106
4.3
-97.9878
-39.4109
32.2119
-11.4883
-14.1072
-84.6186
-54.8389
8.44716
76.0975
-38.5828
-11.6459
49.2077
50.8515
-52.7396
-120.658
-78.7169
-43.0872
-104.814
-101.53
203.738
164.546
89.8959
34.8796
17.3813
13.5902
-78.8636
-53.2739
69.3306
11.5779
43.7926
16.8163
-12.0986
24.0709
-51.5322
-46.1957
56.3107
50.0772
74.2213
84.5519
-96.9127
-80.5214
-143.38
-157.539
89.0066
78.3161
75.1864
93.0172
-2.77087
-34.3206
-54.3196
-69.8287
27.7397
94.6304
90.3672
43.9135
-19.1665
-16.6544
-22.8425
-57.1983
-234.198
-16.4809
106.033
95.3719
-29.335
-9.66805
15.1702
-8.85369
-119.295
-167.445
7.47711
170.558
83.2077
42.1388
48.8453
48.9767
14.0819
-91.0486
-42.1792
59.1007
59.4056
-45.5974
-48.8932
-18.1787
-72.7108
-114.632
-29.4315
60.2698
101.194
116.081
46.4719
-49.2666
-108.623
-197.832
-31.8986
101.198
43.3828
54.4859
13.318
2.76817
112.043
86.8198
40.6524
88.326
115.444
78.6927
-98.68
-163.641
-159.91
-102.95
-14.984
144.465
256.926
139.411
-66.3793
-174.812
-123.861
-55.6829
-87.7199
-190.285
-45.2936
47.6918
19.9157
-14.731
-70.273
-22.8699
13.7212
-44.7972
90.6076
89.7543
27.0494
-90.878
-137.619
81.1201
114.673
-62.7707
35.2034
178.013
172.998
171.313
25.2351
-57.8969
-25.7965
-32.3682
-140.815
-127.144
138.514
179.37
59.8882
33.9793
-8.44716
-63.4142
-93.5599
-165.051
-88.5563
85.5414
41.1112
-27.2317
-9.89248
10.3701
-31.6767
-51.9378
-109.853
-144.972
131.525
117.964
-6.32421
1.92529
-13.8996
2.71635
-63.7421
-95.0262
109.66
120.63
61.3717
18.9866
-24.3624
-51.5768
-133.644
-66.3808
97.4555
49.2697
85.395
92.2389
-23.6423
-10.5697
-111.554
-61.6791
-2.15349
-6.83959
39.1411
48.7328
-55.8302
-27.7293
-74.3875
0.917283
81.7224
47.8584
70.8235
50.433
-38.7667
-24.2224
-39.2826
-60.5392
24.4645
69.3724
62.1382
17.6618
-27.7696
-20.1961
-8.71261
-29.5982
-183.082
-27.6081
133.037
72.9336
11.9075
-0.2704
30.614
16.9304
-95.9025
-129.719
55.5007
115.71
13.6979
16.4835
22.5968
0.931731
28.9934
-53.9009
-163.384
91.4234
136.094
37.6974
-28.5089
-57.523
-72.5988
-42.6185
-60.9064
35.5933
47.0841
45.7564
-17.4432
-15.7009
-39.262
-91.7114
-109.483
35.0386
9.81924
70.7145
156.031
14.3305
-28.9044
-138.231
-160.211
64.0144
87.4919
72.3578
119.284
50.1999
62.059
68.5429
-40.5961
-57.1804
22.7216
22.7831
33.0354
-53.7864
-59.8712
-31.8313
-65.8935
-57.855
26.304
53.5799
50.5882
-62.5728
-76.5887
-86.7303
-121.442
43.7638
35.9671
35.7274
34.6437
6.77113
-55.8933
-79.2353
-106.748
127.705
229.507
201.303
126.654
24.6664
58.2505
-50.0342
-98.8357
36.8148
-0.265358
-14.7398
9.5026
-95.714
-101.96
-127.721
-151.617
47.1666
5.06484
20.6924
70.3573
-62.5715
-111.427
-91.249
-74.4687
-166.271
55.716
199.815
176.27
22.5761
15.4965
30.5408
40.407
-63.4136
-125.578
-48.8434
244.95
115.172
63.2296
60.1213
54.0408
-32.5427
-124.664
-38.2831
72.7331
101.837
-70.0089
-57.4847
-4.27065
-62.8681
-137.885
12.9451
43.3327
48.3667
73.3066
43.9659
-76.4059
-169.228
-163.011
45.5885
111.023
62.2905
42.9815
-24.4054
-26.3074
32.0371
-98.6757
-74.3898
75.8755
30.6502
64.3951
-32.2559
-68.9398
-61.9415
22.4246
72.0693
-65.7976
61.9358
220.025
86.1991
111.703
37.3951
-32.258
-75.5911
-119.456
-100.506
33.2077
13.3446
-69.3378
-47.7469
-18.1452
-42.8937
-110.049
-51.7082
-1.12723
-4.47926
19.4831
6.23712
-12.8936
13.6687
-103.153
-58.0983
77.8792
121.738
138.211
98.4914
20.6817
12.052
-32.4926
-113.349
-34.3976
160.14
174.014
110.129
28.4952
-3.08987
13.5
-64.084
-241.552
-94.6181
79.3188
53.8625
-13.4753
-42.3825
-24.8364
-13.2437
-43.0095
-105.433
-55.0163
134.724
94.8451
-35.769
-8.53268
-6.82856
-20.5685
-81.094
-102.141
84.8373
116.291
-7.66515
-74.5535
-51.245
-26.8298
-78.8025
-30.6824
92.0242
66.6788
90.8149
62.4456
11.8531
9.95237
-63.9535
-27.1813
60.7682
24.9403
33.6082
44.1041
-36.6581
-1.45978
-105.125
-89.8208
36.2881
36.96
61.5138
44.4147
-20.12
-20.6233
-52.5835
-146.271
58.2341
89.6394
47.1805
27.2151
-29.7918
-19.4972
8.15971
28.3975
-80.2335
106.592
126.466
35.2571
-51.0999
-53.4019
-38.4574
-78.8564
-148.861
-81.9472
82.3915
132.457
3.48463
-31.7123
-17.4974
-19.2847
-85.281
-207.01
-64.9649
153.017
260.594
147.913
78.9403
-19.3022
-79.3419
-98.158
-111.24
69.7251
71.6281
35.2046
-6.7986
5.63505
-66.5293
-120.559
-47.1124
69.4383
63.9773
124.007
53.8692
-65.5312
-110.138
-206.501
-177.67
38.7421
111.608
89.2825
108.049
27.3456
33.0666
16.5672
-35.8268
46.5491
81.6611
70.1362
32.5383
-22.8563
0.786865
48.476
-54.5897
-80.6293
-24.637
-26.0019
-14.7336
-55.2719
-67.7396
-55.2757
-96.6794
53.1355
71.5287
48.082
39.5363
-0.464624
-32.7408
-32.2444
-81.4612
2.46751
6.58702
10.402
20.3163
9.11327
-5.62685
113.791
241.417
160.373
76.2542
50.8383
22.9419
-135.112
-146.242
-117.492
-170.133
-148.291
-55.8283
24.4361
57.0898
-58.6516
-13.9563
72.0793
86.6386
3.06825
-130.721
-90.0328
-33.6468
-40.932
-26.7686
12.6517
79.5773
59.7766
37.0607
-49.921
14.9147
122.087
49.8803
42.0556
131.163
135.282
48.7506
-44.1956
-62.6623
47.5271
103.655
-18.6867
-124.001
-83.9681
-58.4874
-50.4342
-111.229
-8.26767
100.99
123.459
106.882
53.7654
28.0409
-63.9222
-223.993
-31.5797
20.3594
14.4398
23.2474
-25.8582
-25.3856
-75
-241.493
-95.359
110.224
100.091
149.498
79.2228
31.8331
3.21746
-47.8655
-162.507
-31.757
40.6106
74.986
3.01141
80.2411
51.3406
-38.6508
-144.522
18.6798
46.192
168.955
70.9504
-84.408
-65.9304
-42.5692
-45.6692
43.5276
63.307
-0.00453431
-32.2324
-113.284
-88.5585
-128.812
-220.782
113.578
245.585
169.049
143.294
67.7571
111.742
64.1631
-25.759
-121.849
-138.431
-44.5413
-80.2391
-134.838
7.3931
132.912
90.5944
15.9904
-79.6248
-13.64
155.808
-56.9476
-121.837
-35.071
14.4274
-36.7482
-60.7873
-74.4636
-46.2016
97.6377
102.173
66.782
64.4771
25.0563
-9.0707
-37.4786
-47.7648
21.9465
46.4556
87.0417
-2.92671
-126.012
-119.556
-91.5595
-4.48658
47.9853
59.9277
48.6121
43.3941
3.06478
22.6791
8.13748
-18.5099
66.102
25.445
23.6513
25.5335
-52.1593
-7.02675
-16.0252
-93.8822
25.5278
11.4072
54.3963
17.9338
-65.246
-92.9902
-97.6439
-153.507
-58.2071
45.8409
108.129
91.4332
11.167
-1.87736
17.7
52.785
-30.876
39.6852
133.892
105.379
-19.4548
-29.0765
-5.31927
-20.4719
-142.891
22.2236
137.95
129.834
5.13384
-81.775
-126.083
-82.8197
-104.964
-185.505
-107.249
115.231
126.726
59.7825
17.0978
44.6006
-4.00121
-73.9951
-7.06499
62.0372
113.059
39.3718
2.04565
14.0773
-6.43181
-84.0219
63.802
46.5627
-35.0324
2.58957
24.071
-44.3468
-5.60243
-30.9991
-111.143
-48.7556
8.70474
17.6045
-10.5559
-49.2119
9.25722
-7.58029
-16.2031
-33.253
98.9593
135.387
18.9958
7.20118
35.514
59.8359
3.51342
-120.16
3.2437
47.4139
61.7039
-0.0568397
-49.0521
6.0744
-76.2868
-135.845
28.6582
34.6584
3.85804
37.8035
-30.4031
-1.28788
-17.7371
-83.7042
60.5409
93.5898
41.6014
15.9019
-58.5619
-53.4231
-6.61369
-51.6493
39.6836
37.8266
26.7944
10.1337
-55.8164
-48.7509
-54.2909
-197.896
-82.2603
49.3787
146.438
186.391
158.267
121.224
60.7586
-1.49251
-69.2936
-106.696
-48.1078
50.5736
-17.665
-13.115
27.3879
52.2179
-9.75459
-39.1302
-90.4265
26.2879
-22.1151
-78.5103
-109.917
-49.149
-78.9014
-100.153
-112.563
133.371
216.596
196.029
112.645
37.4624
-21.3647
-47.5575
-147.981
-89.5476
56.9842
42.7189
103.112
128.516
56.8616
18.3425
-210.605
-313.555
-166.848
-139.163
0.681448
98.0947
175.257
243.432
70.1342
-104.122
16.881
194.451
142.192
98.8871
51.029
-3.22246
-56.9251
-74.8577
-173.558
-88.4313
16.3388
56.2988
-58.523
-38.6295
-32.9092
-151.831
-236.403
-103.834
39.4558
130.112
46.1272
-46.9774
34.1268
-62.8799
-234.827
42.7976
122.3
105
134.75
87.7908
103.966
113.052
17.2115
92.4356
155.978
62.6698
16.1896
-77.3358
-62.8629
-27.7227
-59.3711
-93.1872
-88.961
63.3367
100.737
-53.4705
-57.5182
-8.33635
3.7478
-33.4405
-111.501
-166.074
-60.6356
123.169
119.695
50.3685
12.9671
-54.8189
-52.4474
-24.3263
-96.5022
9.86558
91.2397
30.9803
8.95141
-49.9338
-37.7959
-34.2759
-110.606
45.6524
118.928
136.324
75.9755
-51.712
-94.1558
-93.5246
-178.481
30.9091
114.436
81.9718
83.9361
0.355032
5.50176
-3.25894
-90.8421
34.9249
51.3453
39.2396
94.2712
-19.1853
-22.8991
14.1741
-46.5146
-143.6
67.1833
96.923
138.885
3.14141
-53.1301
-39.5578
-13.5913
-96.8641
-144.829
63.4162
156.781
18.7468
-6.12928
9.96581
17.8658
-48.1628
-162.164
-40.9079
134.951
82.7457
-91.7646
-75.6188
-18.6495
-48.9209
-124.284
-147.046
83.4519
136.963
155.595
40.1108
13.7263
-30.9259
-42.2151
-34.2875
-110.833
15.1972
174.226
103.053
19.3889
22.2712
-32.7144
-62.1473
-135.054
-62.245
138.599
214.173
103.465
6.1574
-55.8889
-107.382
-162.526
-97.8354
72.6943
43.612
62.6372
-35.7569
-45.8918
-29.7337
-38.4723
-82.4726
-41.9725
69.7781
89.1951
29.7331
-29.7221
-23.9349
-76.8412
-89.6872
-29.3135
139.187
124.797
57.1523
-38.8364
-13.4625
24.2983
-60.3871
55.9091
111.305
38.4659
48.4935
8.90801
-28.7645
2.59688
-77.2668
-19.1531
-27.8515
-64.0064
-7.15376
28.8736
-72.2833
-72.5436
-37.645
12.2744
5.34412
14.0695
39.9529
-20.9418
-44.9413
-57.1
-16.7866
57.7914
42.3843
72.243
84.1135
-14.5105
-25.2768
-28.8806
-108.818
-5.88786
0.237353
164.377
112.739
25.0508
23.9175
23.0658
17.253
-60.3038
-195.812
-77.4161
137.854
98.4638
47.0373
27.0973
11.8962
-40.2265
-51.4187
-114.311
11.091
45.6626
-30.1849
-58.6661
-27.2534
-36.0845
-30.0409
-93.3399
-38.826
69.0529
109.68
62.9596
-40.2451
-77.864
-93.2204
-156.364
-9.2184
145.666
121.895
121.817
91.7072
1.15597
-11.3174
-74.5856
-113.189
53.2644
63.765
99.8358
72.2812
11.6153
23.9436
-6.81264
-111.695
-198.871
53.5524
115.77
30.9482
-49.5771
-19.7828
25.3741
-19.4605
-151.417
26.4579
106.175
99.1111
-24.8826
-42.4644
-17.1826
-38.316
-91.1648
34.8091
61.0405
58.6848
72.0129
-65.6529
-59.6361
-112.121
-120.956
19.2059
14.6104
34.6957
89.3318
-8.51178
-45.6748
-89.4087
-207.316
74.5816
150.679
135.302
119.392
44.4506
21.0828
25.9701
18.8869
-77.5412
49.0315
66.673
28.7926
-44.0116
-37.3031
-8.09866
15.4084
-65.3409
-192.782
-35.6783
202.447
31.3899
-25.3614
-20.2343
-19.023
-33.4538
-95.4941
-155.938
68.9204
122.984
18.1676
-4.74211
-16.4969
-21.558
-15.9235
-67.8083
45.8427
56.5501
159.184
115.26
-26.9214
-77.698
-89.9794
-139.632
-25.4519
-48.265
-11.0172
58.3365
32.4998
35.3248
-61.4786
-95.4728
46.7754
68.5996
65.5393
105.208
44.3075
26.8317
41.5494
2.09504
-146.896
-120.741
86.6274
99.6852
30.6876
19.6645
28.9282
22.2133
-82.3112
-204.737
-17.9532
158.179
49.5602
-21.0415
5.17091
37.7588
-95.9427
-165.47
18.3148
57.8741
96.3922
59.9959
-56.3072
-31.1451
-47.8069
-84.3267
-20.0419
63.4383
50.3142
91.6487
49.1716
-24.0017
-45.9131
-40.9487
-87.4417
-140.824
106.106
140.758
7.94027
-23.9958
9.36936
5.6779
-68.9998
-133.373
9.38539
157.782
105.902
30.0179
-14.0666
7.4904
-0.550245
-38.4474
-59.2775
12.9965
42.1715
56.7414
-45.9305
-28.8817
-55.4183
-52.5481
-104.086
-37.5149
85.0931
130.537
40.7344
-8.0789
-9.32636
-14.6776
-59.0303
19.1978
113.527
89.2298
38.9113
-38.2165
-53.8608
-51.7338
-150.166
-46.9759
-21.3225
-11.1426
57.6118
32.4825
-12.1525
11.5349
-72.6141
-3.05523
25.8049
21.531
44.3238
13.2079
-53.5126
-99.2147
-100.989
75.2636
172.345
143.971
124.104
47.2488
-13.4031
-32.5288
-69.9973
-172.316
-3.96563
101.35
84.5308
-3.50158
-15.9288
-10.6702
11.717
-9.15997
-132.608
-47.8469
87.2657
-25.1422
-106.527
-112.258
-55.6716
39.3737
69.7434
53.0305
10.5732
76.0311
89.4382
11.9192
2.66662
-28.3641
-35.0315
-53.3706
-143.977
23.7385
96.4311
52.3677
12.1098
-25.6115
-15.8008
6.3919
-47.8529
-9.59602
14.4872
17.732
63.0796
48.2011
-93.5447
-125.574
-198.117
-43.1958
88.2484
142.179
203.725
72.2709
2.04474
-5.88462
-58.3276
-58.2925
89.743
77.278
91.8741
29.6662
-22.1904
-42.6388
-25.193
-82.299
-86.9335
55.258
99.5936
2.42529
-68.6926
-81.6108
-57.6474
-126.086
-67.8647
51.2007
47.8397
28.9591
-44.9319
-9.16737
10.9757
-96.4322
-41.138
49.265
55.0511
90.3068
56.6147
2.41337
23.6845
-100.517
-34.5624
61.9454
49.8344
57.2086
50.5181
2.63427
-41.1295
-101.904
-65.6673
7.33327
145.872
112.455
53.0361
1.5869
18.9571
31.7854
-73.0536
-98.9719
61.3603
71.3333
-11.1652
-75.7899
-71.7039
-59.9961
-41.8932
-111.744
-53.6239
107.716
63.9631
16.5126
-58.2574
-23.5821
-15.1225
-24.4769
-111.727
-78.6162
73.3093
51.9225
-2.96235
44.2735
43.6635
1.21094
-23.0539
125.733
117.391
97.0398
84.6316
17.9177
-30.4287
-91.1338
-126.222
-6.44528
-1.69106
8.57868
50.3136
18.486
-42.5662
-74.8546
-151.454
-6.63396
78.2307
21.7469
23.935
-33.8561
-13.3648
11.5775
-28.242
11.584
101.038
93.8281
42.3219
-37.4533
-44.265
-32.7827
4.23931
-74.7084
-94.6848
112.702
129.354
42.1717
-28.247
7.66453
70.2896
-47.3659
-141.854
-35.1501
-27.8793
-66.6463
-88.1498
-24.2
7.20306
-77.1876
-193.333
36.7869
195.559
174.618
119.754
16.3053
18.3241
-19.0772
-67.1455
-87.6919
36.9951
53.5598
89.7155
67.3406
85.1498
41.2866
-39.694
-138.426
-1.79152
53.4989
101.18
-30.7286
-90.1234
-38.9347
-17.5276
-23.7731
-84.6171
-161.769
-23.2046
130.491
20.7655
14.2329
26.1298
-15.1203
-11.4788
-88.2178
-91.2326
132.926
38.5971
22.7521
48.5855
-7.56485
-46.9324
-63.2446
-51.1769
28.4783
60.6207
95.3845
41.6275
-19.0332
-50.9218
-71.0029
-51.1391
37.7871
61.5472
88.1026
79.0292
5.32683
-17.8937
-61.4439
-50.8517
71.3765
30.2525
53.2173
45.867
-33.1026
-13.4389
-46.88
-138.564
-128.297
62.0341
70.0079
36.2962
-17.6252
-4.75689
19.9476
8.34017
-129.605
-176.989
126.038
150.133
20.9123
-1.61195
5.88712
-6.34083
-47.2113
-110.692
-96.1125
118.891
114.159
18.0459
16.382
12.2759
-21.0592
-25.0725
-48.277
-66.8655
95.6339
109.769
-45.2086
-42.2904
-49.9773
-39.3333
-154.681
-18.0032
115.689
127.932
133.451
17.181
-14.6774
-56.7998
-72.4673
-101.577
54.0156
33.4458
35.3869
53.5473
20.521
27.9325
-24.1627
-99.3582
-79.1
125.656
169.932
51.6952
-53.5388
-27.2782
4.96985
-48.3249
-179.371
-103.567
63.5601
137.585
6.7164
-3.47253
23.2302
26.8419
-36.037
-166.7
-87.2346
30.7291
11.6223
-81.21
5.48264
26.7487
-25.5386
-45.606
84.0475
91.6257
154.695
46.2885
-46.5807
-54.3208
-144.801
-129.156
47.8988
106.323
96.818
154.566
69.3636
43.0797
-28.4637
-137.726
56.537
18.938
-1.97531
26.1702
-35.9086
-42.9622
-20.0328
-67.4583
-133.725
-55.4584
127.609
99.3532
-15.5756
-57.6045
-42.2765
1.62937
-9.21644
-76.9333
-96.74
88.8438
72.363
30.4153
20.4815
30.7137
-3.63883
-20.5804
-42.6285
-78.5337
-36.6299
178.819
76.9343
53.5827
7.61669
-17.1714
-18.8858
-33.6105
-64.0045
73.8275
90.6658
-13.2911
-97.221
-70.3891
-55.8501
-76.8838
-63.2836
57.9701
64.9256
80.5562
75.8503
-71.6526
-76.628
-144.049
-78.5868
78.4968
71.5156
71.1671
67.4172
21.1557
39.9479
-4.73408
-87.1682
-141.434
46.4075
158.817
104.097
9.26557
19.2753
51.6908
60.5247
-27.5042
-93.5732
-6.38021
27.1013
-53.5197
-41.4569
-19.6135
-14.5873
-51.202
-103.031
-34.3677
64.7784
108.072
-6.94519
-50.2901
-26.4519
-34.2469
-76.9771
-11.4482
78.1066
19.1127
26.4368
38.9182
-11.5294
-36.0897
-61.9245
-77.4163
61.7517
94.7292
100.723
35.3427
-6.80349
22.2437
-4.57273
-67.7057
-155.371
-52.586
170.142
99.8397
11.9047
-8.07677
-0.3127
-4.82108
-78.4254
-182.939
66.5044
139.513
36.2727
3.8986
21.4935
-1.61928
-25.1202
-70.8993
-101.936
80.3823
104.474
9.40111
-70.151
-44.0317
-47.6089
-98.8742
-91.2576
106.886
109.271
128.042
8.60867
-12.5826
-42.8585
-125.895
-5.19189
57.5214
25.8094
48.1064
46.6053
-27.3584
1.37336
-57.6185
2.98383
11.2099
-5.44962
32.5829
46.381
-38.8497
-52.9497
-126.907
-87.2508
123.415
84.3843
89.0186
39.267
-15.3504
-25.622
-43.9236
-140.336
-43.2027
83.9952
65.0141
-25.2854
-34.7121
-17.9514
16.1796
26.9769
-76.5391
12.2047
164.503
76.3887
-62.3999
-52.67
-7.93911
-22.6655
-119.909
-67.4205
76.3398
156.954
50.4464
-16.0032
8.08616
5.12653
11.9927
-55.1553
-78.7785
86.9918
73.8313
16.7933
-8.12706
-26.4364
-64.3514
-96.1274
-63.0972
31.914
61.5613
27.3734
-24.5196
-8.01131
-35.8896
-127.945
-164.36
5.71874
132.895
126.239
116.482
8.09063
17.1059
12.9822
-10.3631
-80.042
18.7104
73.0337
56.9988
-20.8715
-1.03607
9.08893
-2.72522
-61.0783
-72.0045
97.5835
106.465
-17.6349
-89.3408
-45.0882
-19.16
-126.891
-79.0712
44.6848
39.5033
62.7992
-15.204
-13.5494
-18.3812
-54.7571
73.4726
68.4232
27.4831
48.2577
25.1525
-30.0223
-39.1934
-64.1847
4.40141
18.3068
22.5368
44.3545
32.0531
-34.2999
-122.377
-129.363
62.8189
127.725
88.917
70.101
4.77701
-23.8377
-36.6958
-51.8899
-83.6113
67.2817
88.0698
34.8427
-44.2434
-38.9617
-30.6381
-14.09
-37.9135
-156.149
-69.7399
130.133
5.11723
-39.3495
-6.56333
34.9194
33.6696
14.462
-41.6381
66.0821
101.734
-23.0037
-3.24864
-6.03238
-19.5133
-36.641
-50.6997
93.667
96.1482
99.491
96.5826
3.90179
-62.9022
-117.683
-107.103
2.60585
-27.81
-14.7348
29.0204
-6.11032
-9.89291
-167.096
-112.302
95.8646
82.1977
74.5492
66.7569
-6.44389
-2.62544
31.8328
37.7057
-62.659
0.758105
41.0399
23.0082
-46.805
-39.4255
-33.8643
-24.6944
-36.3281
9.43585
194.082
125.749
-54.7446
-108.815
-84.285
-54.0327
-124.25
-73.8458
22.56
46.3296
82.8191
7.3912
-9.61903
-9.3433
-63.497
59.0707
109.164
80.0776
63.9463
44.6671
-11.8194
-34.8047
-180.677
-43.4986
130.994
91.3562
62.673
21.2914
-9.88668
6.00844
-5.07128
-78.3742
-98.973
19.5537
65.4743
-19.6067
-32.1942
-3.69106
-10.8739
-51.1132
-143.864
-133.102
63.7595
85.2086
9.14716
32.1222
50.0127
14.8761
-26.4937
-55.2614
-117.355
101.195
127.235
55.9343
15.2967
-4.9419
-8.67332
-46.8272
-45.5347
27.1955
12.9206
48.424
36.8854
-20.2588
-79.5242
-158.634
23.8711
146.89
132.399
123.267
113.075
-67.188
-179.965
-289.899
-103.823
-37.5377
-4.95741
70.2553
88.7116
50.4946
26.4438
-13.7057
71.1639
116.654
69.2546
71.7405
-28.861
-80.6102
-79.6673
-78.1923
-89.6888
-4.68383
126.212
150.24
47.2949
11.1188
-9.53435
-15.3354
-61.4743
-77.2881
64.9031
71.7168
-22.5142
-71.0767
-39.9865
-6.55895
-110.783
-157.152
-133.783
65.5013
180.377
71.2921
60.2179
109.701
68.1101
16.8225
-175.007
-255.104
6.66599
36.3712
7.42879
4.15576
-19.2827
-7.87569
-37.448
19.8132
145.092
121.381
58.5934
-61.805
-52.5013
-45.9561
-82.8672
-197.002
-161.757
137.102
206.49
218.396
138.163
107.413
63.2306
61.9801
-82.6979
-217.743
-44.0645
-51.7823
-80.6601
-12.6187
70.0397
70.926
90.1299
28.0903
88.5189
102.513
-39.5839
-185.928
-96.0264
-48.1192
-105.157
-141.113
-15.9521
17.7956
34.1901
40.2474
-11.8053
29.8478
-21.5275
-141.105
-42.6339
106.314
57.5725
65.2015
27.8356
66.3493
76.5315
-89.2669
-61.498
102.867
85.7887
112.272
30.4208
-2.0635
0.227898
-71.7471
-228.939
-121.817
-68.8988
40.7018
45.4088
-51.2782
-48.0412
-62.8059
-153.995
70.269
204.401
179.613
101.468
24.6052
23.4281
38.2019
12.5013
-46.8557
-41.3158
126.467
87.7412
-6.09353
-1.0599
12.1563
-40.5053
-130.285
-185.122
30.5573
120.212
31.914
-23.5546
-11.1454
39.9169
-39.5724
-163.997
-87.2165
-75.6645
-67.6039
-70.6836
-73.7065
42.6327
-18.7472
-73.3645
130.547
107.677
72.5192
98.7059
56.4789
67.273
-5.34395
-145.948
-63.7912
95.9674
134.168
109.169
18.2789
2.48468
41.6415
30.3835
-141.393
-92.2963
93.2456
184.01
19.8604
-30.5801
-13.5136
-4.10667
-87.8839
-182.957
-12.9504
61.6502
-8.46089
-111.709
-125.142
-48.3235
-44.7484
-62.7415
87.8585
135.749
160.157
99.987
-11.103
-96.0007
-194.88
-224.177
-74.3929
92.0963
66.8758
126.634
40.0192
47.2963
24.1167
-106.919
-42.613
144.862
101.071
65.2535
-23.0822
-32.8935
17.7889
35.1891
-19.9441
-25.0791
144.722
125.184
28.6253
-17.2297
3.68622
-3.53006
-87.9707
-124.112
-99.6523
-87.9014
-74.0637
-117.832
-50.8779
4.49171
1.43641
19.4091
-32.9667
6.24527
206.879
180.807
72.559
67.601
16.0072
-66.0687
-161.17
-84.6638
49.6886
70.8258
56.2689
79.5516
16.4553
-66.128
-169.879
-86.4117
54.2737
48.2663
102.888
81.7301
-32.5369
-80.6086
-187.863
-43.0339
14.4011
-65.0875
-37.4668
-3.49168
-21.9187
11.9758
28.8654
3.12236
93.5762
107.331
148.326
86.155
-37.4207
-66.4997
-63.7858
-146.454
-111.369
179.594
200.002
106.726
47.9862
26.8479
37.3844
-47.2322
-85.2052
-19.8555
-62.8596
-29.6524
-71.7178
-85.6479
-43.3994
-89.2836
-95.4869
44.3176
95.951
112.654
50.3036
-48.8912
-19.0547
-30.7165
-77.1475
-147.973
-57.031
177.265
113.845
59.4092
80.0504
79.3296
0.0760456
-98.7652
6.88479
72.1209
35.4704
-3.43009
-3.10204
-27.3701
-109.605
-163.997
-207.278
-39.5051
91.3546
162.659
148.599
68.4558
32.8682
-28.245
-55.7954
-147.774
-133.591
54.3571
24.2375
27.0276
42.4556
29.1523
17.7943
-16.1167
93.136
92.5479
85.8066
6.06662
-39.8571
-3.03267
-10.6532
-169.784
1.87598
57.2334
68.6809
64.2231
-11.5557
-50.0697
-74.0913
-161.475
-74.4761
49.4922
32.3824
74.8141
15.7049
-49.4352
-17.7541
-100.511
-7.69912
40.4091
30.1759
48.4985
-28.2645
-29.3388
-5.75173
48.3897
-36.7268
42.5525
150.067
127.171
43.1019
-46.6291
-35.4472
-22.9004
-32.187
-105.008
-79.2305
123.79
96.337
68.1079
1.31126
-60.1467
-95.8369
-70.6187
-69.5674
-80.8351
75.7267
16.0914
-99.7239
-29.2899
-3.01196
-21.5256
-13.702
-36.7194
85.6651
130.879
128.211
30.7982
-24.2289
-43.3012
-73.6073
-60.7062
53.3032
61.3562
86.8205
149.259
90.6777
-60.3435
-224.639
-268.094
-31.9266
58.3556
66.6518
94.4638
22.632
37.3696
40.7675
-37.3906
-148.265
-1.73924
134.734
127.48
16.5789
-24.3107
-39.5531
-36.5107
-77.5478
-6.8189
140.386
150.067
-9.65867
-76.2756
-62.3458
-83.4209
-186.232
-8.20676
150.555
90.9922
66.1401
-30.1304
-95.8866
-101.358
-198.532
-162.833
34.0044
48.9565
84.4977
66.5355
65.9337
97.7209
-12.4131
-35.256
85.8486
90.4323
87.392
-9.42999
-92.3666
-83.3979
-86.5845
-135.256
-17.3355
144.718
159.964
138.88
31.7503
32.0659
37.3852
-4.55666
-174.166
-155.591
4.61818
31.0296
-18.0605
15.5833
62.0433
14.813
-118.878
-223.148
7.49182
105.437
53.4165
17.1225
33.5099
24.1363
-11.7447
-93.8634
-137.058
73.2251
201.804
156.907
56.8206
25.3387
-11.8489
-23.5931
-95.1112
-11.0934
20.1794
85.8967
2.27389
-33.6433
-52.5267
-124.653
-130.405
35.93
8.17003
42.2247
55.367
-62.5719
-39.4659
-63.9313
-81.209
-108.962
117.782
113.609
93.0536
28.7367
62.3569
79.3541
8.42234
-55.5014
-71.162
50.4482
-11.5666
-92.2914
-67.0108
-52.9785
-49.2781
-61.978
-75.1625
106.34
134.32
122.611
-50.3608
-65.497
-23.7878
-77.9776
-103.681
112.529
166.04
140.843
97.9689
-25.8094
-32.2825
-76.7638
-139.072
30.9133
127.454
83.8587
90.9452
29.252
3.59269
19.626
-58.752
-95.1918
-136.698
33.3845
38.5875
-73.2463
-93.0032
-41.3379
-20.1479
-28.5701
-77.9259
14.9503
110.08
77.4297
39.4955
9.07833
5.05934
-24.4704
-45.2899
-81.4873
-159.201
-86.0509
72.3247
16.6768
37.534
11.5672
3.46158
7.88337
-27.6874
11.4978
200.828
100.386
45.1702
2.77279
-0.729446
0.615527
-48.8148
-57.5645
32.7565
26.3417
7.91045
-22.3514
-23.3385
-41.3299
-100.17
2.7909
69.0579
53.9424
79.8243
56.4113
23.1585
-16.4616
-84.7067
5.90827
-70.4139
-45.2383
12.8004
56.2728
93.3183
3.76608
-7.84598
-23.1829
-11.3846
-109.559
-29.0849
65.0469
85.8339
-19.3694
-108.672
-112.342
-105.169
-135.166
-88.8179
87.1432
143.536
87.2063
24.1081
43.6366
69.3141
-53.2046
-62.1295
88.9261
85.7102
91.9031
28.9139
-14.4397
-26.4458
-203.535
-151.238
48.4881
62.4877
109.016
80.3738
-30.6075
-60.204
-136.871
34.5105
69.4465
67.9353
75.1714
82.2284
3.10822
-47.705
-90.8394
-5.50112
-17.1166
19.3561
109.802
113.583
24.0871
-34.0845
-119.027
-144.586
34.4744
65.4997
59.0289
-69.686
-87.5545
-91.8641
-78.7957
-156.291
-157.192
-63.1052
138.815
54.5173
76.139
114.266
123.462
109.443
40.0044
-83.4779
46.2532
100.907
-14.6414
57.6153
106.917
-24.795
-196.816
-276.362
-21.0342
80.5988
50.8535
20.038
-23.5291
-28.525
-90.4607
-41.9239
43.2748
3.64705
9.2031
85.336
68.3886
52.0692
-66.8129
-37.7697
33.5973
48.4237
123.031
171.279
36.6568
13.5728
-45.0828
-77.0219
-106.645
-24.4011
47.2198
14.523
-4.18838
7.89851
-12.7043
-34.2122
-121.705
-23.0844
17.0637
-38.2913
-81.609
-64.5208
-17.5113
-9.63751
-108.085
22.0866
60.3652
63.2653
82.8404
41.5152
1.15945
-40.8438
-171.44
61.677
162.727
135.56
132.997
70.7403
3.79622
-55.6954
-197.537
-52.398
13.0342
-68.6239
-46.6115
-54.4705
-10.2044
12.2805
-5.63347
-75.2484
-46.8082
101.141
165.18
55.4332
-5.15332
10.0544
14.2927
-38.1156
-115.604
-86.365
181.767
119.678
82.2448
133.841
113.706
35.3272
-45.5966
-162.155
-98.9357
97.6961
51.4369
-42.4368
-36.277
-110.709
-146.024
-166.646
-79.3528
-2.56501
28.2057
31.9762
-35.6624
-62.0938
-45.7067
-44.5435
76.7236
75.627
54.7154
93.4385
46.3438
-49.4871
-77.3636
-74.6264
74.7274
66.9489
55.8106
84.3808
46.3476
-11.9534
-35.8944
-3.32957
59.9129
40.3224
30.9183
70.1758
-0.0614057
-24.6265
7.31493
-41.2173
-154.706
19.2621
114.672
50.3437
-66.9948
-107.296
-82.3436
-22.2321
-86.7585
-95.5721
125.891
105.412
20.6378
11.7036
11.2897
31.1487
-26.797
-128.578
-54.5448
129.88
134.345
-41.9541
-91.2788
-63.6345
-37.365
2.18897
8.96575
31.0287
133.473
58.2711
-38.7202
-35.2624
-44.8598
-29.5407
-81.5718
-73.2287
114.994
145.774
87.3783
16.6218
39.8149
15.1087
-18.1479
-163.49
-21.2956
10.477
-14.6322
-57.9699
-83.2923
-26.5728
-9.94078
10.1225
-36.5144
34.1067
125.899
74.8461
-40.0968
-16.9641
-37.0536
-45.1451
-71.237
-192.64
70.1318
212.561
58.6108
-5.02435
3.7549
16.1326
4.72966
-2.20422
93.8624
91.6895
106.666
40.5332
3.24331
17.4777
-77.2298
-100.937
-0.966831
-16.0831
51.431
49.9553
-113.804
-109.24
-125.121
-74.2845
68.952
138.398
59.3158
-52.1682
-182.682
-177.372
-136.733
-93.4171
123.763
120.669
91.1348
118.733
42.2188
48.6597
58.9522
1.31132
-70.9946
111.565
104.462
46.4854
-51.1669
-96.9477
-62.9917
-16.8316
-116.327
-161.073
71.4952
92.372
-40.2763
-34.563
-19.955
-11.5
-43.3534
-65.2342
-108.541
147.012
150.227
33.9695
42.863
64.8816
41.5373
2.21338
-8.5466
117.132
154.109
155.215
2.76802
-28.7472
-56.153
-98.4911
-95.3019
-12.4756
16.0328
-5.9778
6.55099
-50.3503
-8.4665
-60.2417
-124.214
5.32003
-12.2945
-143.821
-159.677
-142.618
-11.1651
119.889
97.182
-5.8264
-70.6632
88.9925
118.141
90.3627
60.0603
14.0393
-44.5226
-129.355
-105.21
28.4783
173.479
87.8385
78.6223
116.12
63.7994
-146.82
-227.22
-17.3435
-31.2643
28.9889
62.8308
36.5033
40.0644
-48.8055
-57.6995
76.6528
85.0776
64.7223
15.3004
-56.2567
-59.2943
-145.007
-176.293
-77.2354
211.624
258.477
225.636
53.3642
15.5986
18.7866
-22.3998
-126.522
-34.2452
-19.3948
-26.8987
-62.6607
-48.538
-58.1579
-74.4532
-127.072
-188.066
-129.994
18.7755
83.9218
23.5278
87.3978
79.2574
-6.18767
-23.2612
-127.221
-25.8015
96.1763
12.1929
20.9241
24.7499
19.3363
26.8984
35.2171
80.8989
23.9785
58.1031
116.785
94.1044
120.662
124.13
72.4014
86.6684
-44.7897
-56.8746
8.89276
-72.3547
-184.893
-242.176
-208.28
-8.12228
28.9731
74.0692
63.0804
7.55177
5.73665
-109.635
-209.986
-138.775
-16.1354
-78.0095
0.796639
23.3207
67.4614
45.4336
-25.0296
-210.045
-129.44
-37.1355
19.615
23.4208
78.6441
157.186
190.832
141.555
237.656
455.314
561.683
389.695
60.7073
-99.4584
-135.492
-225.862
-246.028
-36.4975
36.5387
96.3878
34.4995
-3.50597
-26.3726
-145.96
-235.376
-336.068
-223.436
-148.221
-194.671
-241.73
-281.671
-288.08
-214.244
-229.59
-27.2589
220.99
207.378
76.5986
93.3564
179.527
201.224
116.395
12.1404
179.396
275.025
232.54
139.048
127.405
131.53
81.8263
49.9415
-76.4591
-102.391
190.433
98.0872
-73.8432
-95.0947
-130.998
-115.722
-110.751
-209.363
-7.62117
73.6162
-29.9425
-69.4592
-35.589
-33.9105
-63.2929
-142.76
61.6062
135.55
182.19
162.095
3.54881
-66.7814
-99.6716
-100.8
27.7157
42.3175
29.4913
28.2371
-25.9797
-8.31181
-110.426
-229.482
-121.896
-108.22
-21.3909
53.5634
-63.8246
-88.8333
1.71736
-8.35391
110.705
234.185
178.959
95.9167
-116.104
-102.465
25.6071
149.866
83.8911
96.3738
183.963
178.103
85.8737
38.8984
-9.93468
-18.0642
-99.208
-247.848
-152.003
105.625
-40.9233
-155.768
-104.8
1.06929
29.8331
-78.8665
-146.678
63.8966
93.482
43.2358
-71.1616
-85.7477
-33.0008
-9.38369
-56.2119
91.9162
75.8677
118.306
32.0678
-75.8405
-47.8765
-81.7298
-137.478
5.11288
56.2646
97.7195
107.432
4.07479
2.60814
-53.2577
-160
-5.1304
232.706
197.216
173.009
69.0448
7.61542
36.8799
53.1288
-58.5217
-51.3794
-24.2042
-20.5597
-52.4678
-47.0654
-34.1233
-0.57413
-13.5458
99.9225
56.7716
-20.9019
-75.1165
-166.209
-169.63
-209.447
-333.654
-220.057
-142.465
-90.4277
59.3534
91.8983
116.047
239.626
198.17
267.751
274.342
117.31
-124.133
-193.28
-38.8928
61.5436
-5.53805
37.3221
187.142
341.627
297.956
109.295
96.6122
98.4839
-38.4489
-160.775
-118.946
-99.9156
-114.193
-208.093
-262.921
-284.784
-160.375
-106.756
-173.686
-72.6638
106.051
-34.4639
-41.8126
7.98254
79.8769
112.634
92.9608
-33.4994
-64.2065
91.507
3.55625
-6.61401
6.57666
23.2654
82.0855
79.1003
103.24
138.291
143.845
107.798
61.6657
-31.3595
-95.7759
-192.731
-186.193
82.1069
48.4292
24.377
95.3639
70.8855
13.9287
-135.508
-144.24
17.4803
-30.2313
55.2129
90.4404
72.9221
146.385
49.2026
-72.7818
-39.1357
-52.3958
-40.292
-18.4143
-126.019
-50.9291
50.818
28.7664
-36.2277
9.20104
36.1924
10.4929
-107.544
-64.1111
-33.7231
-80.53
-68.1092
36.6807
77.0244
63.2416
53.0426
46.317
25.6614
-121.459
-154.707
-65.4
45.8754
51.9387
35.4886
50.6727
108.528
147.889
126.37
40.9286
10.9258
-9.06193
-99.521
-113.774
-30.6543
-10.9829
10.9693
-36.4088
9.62774
154.818
66.6224
-21.8564
-86.9029
-63.0755
-159.835
-221.689
-157.333
3.98897
1.21451
171.187
230.447
245.598
132.967
-4.90118
-21.1814
-23.1927
-95.4956
-47.7759
-89.3272
-43.3643
68.0775
100.409
42.058
-37.4903
5.47001
103.431
141.023
-21.1837
-116.06
-187.922
-193.626
-266.778
-84.9579
116.429
61.1201
61.712
90.9796
84.6324
118.813
23.4419
-16.8891
45.718
-7.88257
26.1137
42.5299
-39.9239
-89.7119
-114.737
-39.9797
29.9064
13.5791
61.5809
2.81502
-98.8286
5.92796
16.2309
-127.636
-126.402
5.19255
206.39
163.813
42.7895
46.5943
-23.0131
-73.2843
-105.279
-60.9881
83.2437
78.6091
39.0141
93.3778
118.702
-1.21612
-82.2471
-86.021
-79.1367
80.2245
34.8706
-49.6025
-80.1764
-66.6103
-113.734
-90.3883
-100.714
-109.749
-63.9641
101.924
298.347
451.403
181.923
-76.7964
12.381
136.984
35.0919
-76.3294
-172.088
-193.951
-94.5211
-175.419
-89.9675
-11.8631
-138.448
-211.65
-129.261
-61.3393
-39.0533
-84.4526
-202.575
18.5115
353.205
642.073
630.745
229.896
11.621
-9.7404
22.6344
-106.945
-147.206
-57.7489
-98.027
-141.66
-23.9302
70.5016
74.8822
47.5121
178.701
33.1525
-80.8808
-288.081
-329.195
-339.497
-430.272
-229.711
35.269
140.532
172.975
192.288
160.457
133.919
-22.9314
-93.8226
54.6434
62.8629
152.295
253.889
158.396
62.8194
-130.261
-277.182
-149.303
-66.4771
-41.0896
3.69213
-63.6965
-97.9261
-23.6104
19.2007
5.0368
102.632
155.28
168.719
136.002
154.334
120.112
29.9102
-21.2955
13.7657
150.162
211.606
44.9126
-95.8693
-182.465
-180.776
-63.0332
-92.3608
-212.339
-33.4443
36.1915
-5.18851
20.7963
97.8344
10.4387
-161.55
-314.084
-140.319
-52.8321
-75.0106
-37.3375
-36.645
83.6549
71.6278
28.3299
109.84
43.4398
83.4077
158.527
121.375
108.817
-81.6665
-9.04402
-75.8805
-96.0338
19.83
149.439
102.53
56.0865
-0.696916
-63.3055
-115.596
-11.5634
-0.113976
24.8487
70.0512
32.2152
-18.8554
-6.07075
-38.9321
33.1456
59.9916
-23.0927
-48.3532
-47.9127
-3.97271
-61.1866
-154.71
-21.2074
56.0956
43.3603
29.9371
-52.6581
-15.6588
-12.9961
-96.0048
23.8809
107.953
109.829
95.9808
12.1658
-37.1803
-109.155
-62.6446
-20.4531
48.2232
50.6729
72.1288
-17.3041
-1.78164
29.567
-11.603
-157.936
-18.5352
51.1091
48.3058
-1.28454
-46.2053
-111.677
-154.662
-247.038
-183.767
211.124
466.648
365.613
239.535
225.027
166.823
-124.247
-388.144
-148.506
134.618
69.9443
-107.984
6.31592
118.219
-54.0594
-287.8
-80.4406
78.2039
9.92966
9.246
-151.477
-230.375
-281.391
-278.795
-179.329
-76.8734
87.541
222.249
97.2443
6.8734
37.8909
-62.6308
9.59069
31.8898
120.129
243.675
175.614
117.757
151.954
64.5594
13.0137
-73.5568
8.65037
36.3231
22.3201
-28.5817
23.364
69.2027
20.8833
-24.5438
142.113
180.131
35.2775
-75.1106
-85.9829
5.48032
-52.4951
-190.693
1.44053
111.319
28.5084
-29.3871
-67.1333
-105.173
-103.703
-120.286
-206.566
-8.20729
15.4261
-3.80018
-3.77569
-1.48688
-79.3782
-185.382
-247.005
-97.4098
10.7102
117.371
66.4656
60.6584
52.5092
30.2138
-89.7072
50.7178
179.274
202.518
169.897
73.1641
44.6135
-10.5198
-140.132
100.507
151.324
147.149
154.241
31.4359
-41.6841
-50.1404
-160.147
-137.146
14.6706
-36.729
68.8567
33.2592
27.0494
59.9358
96.4223
-61.4897
-35.0743
-59.0096
-73.1416
-187.208
-245.772
-116.466
30.3359
-81.7844
37.3915
53.133
97.4439
31.6019
-157.417
-138.411
-127.658
-126.629
-42.5827
61.1901
111.91
113.008
18.462
121.851
233.879
45.8423
57.3387
106.722
273.618
362.181
162.875
-60.5363
-206.673
-275.352
-49.5798
52.8285
117.301
68.7231
-76.6367
-211.673
-223.767
-156.513
-325.074
-370.328
-203.254
5.32844
134.996
240.891
212.591
241.427
6.09315
-128.099
75.9063
264.816
195.425
104.546
12.3106
-5.08051
-57.373
-125.211
-117.419
138.555
307.239
247.676
53.0229
-55.3183
-151.626
-358.701
-444.245
-241.651
-31.027
112.437
88.7475
50.179
-21.4308
-57.1596
-33.487
42.5362
24.3808
62.1426
86.2171
-21.7098
-7.21542
-93.1251
-153.835
91.499
142.589
125.405
29.4834
-127.621
-89.9539
36.6892
-56.5066
13.2356
147.928
175.889
116.579
66.411
93.4046
44.2785
29.4308
-79.6384
-4.21032
34.8222
21.3086
-80.6275
-138.269
-87.5892
83.1239
82.1655
7.72457
-87.5335
-122.369
-163.691
-260.907
-89.133
139.899
-17.2619
98.5274
188.067
226.011
66.157
-148.19
-117.315
-77.6821
-115.716
-76.3895
26.5338
67.244
11.2898
-5.09655
-29.8676
3.71494
6.37184
-85.087
-133.798
-32.1402
143.295
41.6438
-17.8144
-70.3311
30.3542
78.9529
22.4781
-8.93154
52.8795
104.862
22.2794
-46.7725
-7.26325
21.4306
185.479
362.466
239.189
265.109
129.844
-39.7173
-94.4044
-100.871
-88.516
-257.664
-305.181
-163.751
-28.428
-2.78814
-55.9797
-86.1134
-42.0435
-25.3087
-65.1546
37.4921
56.8619
-36.354
-110.953
-212.293
-98.681
-136.931
-140.958
-19.9332
-17.6297
89.8317
214.635
230.035
215.025
30.7512
-47.2741
243.075
272.032
101.684
66.3558
133.002
49.7723
-133.591
-239.018
-141.363
14.4798
42.262
56.807
-39.3639
-91.1808
-60.6081
-34.6611
-73.5988
-30.2899
245.57
301.673
147.273
-2.77162
-144.066
-287.739
-344.283
-277.77
-158.947
105.348
66.4111
-51.4504
-46.4207
-26.9599
-5.93218
73.9373
92.977
232.205
264.633
197.3
31.0376
-93.8443
-243.83
-243.219
-118.303
102.15
153.691
212.402
193.73
31.6578
-23.4543
-146.651
-199.399
-15.9247
-20.4424
56.8026
212.476
133.677
16.7587
-36.8795
-149.356
-239.773
-79.4102
84.9659
-32.4419
-80.8161
-135.734
-208.216
-149.565
49.7222
224.7
364.333
283.524
179.514
60.9401
-10.7894
-63.3091
-158.222
-74.361
-44.475
-44.853
-40.6224
-162.258
-113.044
5.3291
-91.4772
-87.8571
184.829
202.635
150.031
24.0737
-52.435
61.7377
-124.416
-119.134
-98.3952
-102.097
-44.9983
-54.1383
-42.4917
47.3068
52.7416
30.0362
92.0042
128.313
185.905
173.353
19.5604
-31.9476
-62.586
-106.392
-164.379
-119.087
148.133
176.133
73.4494
-14.1345
-47.7743
-70.0296
-82.8161
-89.4923
-10.9858
147.086
34.3556
27.2262
17.1008
-68.0526
-130.361
-37.84
-24.8649
-7.49236
190.495
132.284
-62.946
-107.303
-17.423
-5.35793
-95.6216
56.85
102.912
80.0318
59.2795
-53.1994
-150.762
-229.411
-186.57
178.421
157.305
53.0866
35.198
-33.7226
-229.057
-207.782
-131.507
36.6737
142.803
272.642
336.985
12.2935
-193.526
-102.418
90.042
-44.8124
-165.818
69.3404
269.168
100.144
56.0655
14.139
-41.928
-33.5043
-93.5335
-10.2749
77.3812
0.897395
-60.1995
-101.095
-117.857
-92.8788
-86.5862
-71.9135
64.8319
75.5143
80.2635
54.9052
43.3592
42.2256
-2.84078
-53.0637
84.5641
172.955
143.099
68.504
-45.8362
-147.459
-169.549
-242.12
-187.511
10.3045
69.0252
86.4948
-24.7317
31.3479
207.312
194.834
-137.342
-75.9938
-84.0162
-55.4318
-61.7309
-55.9924
-15.9133
49.6528
10.2648
12.0867
17.5985
8.88191
5.17059
-49.5555
59.1566
222.889
126.301
208.235
103.288
-60.9442
-27.9957
-173.546
-132.931
-5.12645
-104.076
-85.8057
-3.85485
-21.7577
36.3606
59.5152
25.6052
-14.1891
-70.7916
26.3168
9.66246
-76.8511
-98.4648
-151.314
-87.2025
19.0032
160.454
127.616
81.1185
85.8299
104.068
34.614
31.5908
-40.7998
-243.466
-119.824
-131.709
-47.4069
30.9146
127.194
349.215
230.874
2.44856
-151.129
-159.999
-56.8732
-108.86
-179.075
-29.3455
141.039
114.277
-0.415508
-7.9741
257.111
378.732
274.671
80.6186
-47.9898
-54.894
-134.696
-232.918
-283.477
-155.919
28.5266
-42.7455
-172.586
-28.271
75.0183
76.0948
-73.1838
-125.638
-3.17353
-17.5498
-152.05
-132.991
-130.7
-45.278
-110.68
-64.4865
122.689
93.5689
108.112
138.154
102.458
164.306
127.794
39.5099
93.5303
-13.1325
-28.8755
104.514
70.0486
16.0211
-1.25982
-3.63338
-19.6256
309.71
297.78
162.697
-26.4191
-99.5192
-125.597
-252.847
-285.949
-124.928
34.362
19.5904
-57.3748
-46.4851
-47.6924
-64.713
-91.4936
22.9315
-23.29
-47.6143
-20.2604
-111.729
-17.5743
-3.76327
-61.1903
88.0371
-12.0795
-36.4795
13.6726
-9.50331
187.967
407.479
291.521
197.766
-74.6426
-69.839
39.434
-18.6708
-115.38
-129.061
-208.22
-246.087
-61.9878
-38.2828
-5.77921
-133.321
-57.7748
113.772
143.409
74.0422
-85.068
-110.232
-37.8546
-43.3295
52.0827
47.6781
34.0674
-0.367935
-71.5478
53.5682
224.503
216.755
139.398
110.781
-18.46
-88.2122
-16.304
-12.9947
27.5998
9.25043
-110.263
-250.427
-283.273
-200.995
14.1584
173.749
199.397
229.898
213.351
110.852
121.362
95.814
5.12111
-187.262
-73.3093
36.0687
67.1134
62.7176
-9.15005
-102.949
-172.305
-249.267
-313.13
-70.3921
-34.8597
-68.9143
-81.089
-64.7634
17.6638
30.5343
-113.759
-113.102
-22.7468
74.1561
36.2005
10.6695
103.998
164.102
23.5831
206.59
258.241
236
261.17
151.653
108.044
4.55943
-126.15
-162.437
-57.5232
-23.4089
-15.0281
6.53226
-4.83116
-20.5171
-148.363
-221.835
35.2404
72.9664
74.144
-6.97972
-87.284
-102.649
-84.5124
-255.912
-134.92
37.2174
136.898
92.126
10.52
30.3426
59.9506
-0.0808075
16.249
75.738
123.648
83.0292
-107.756
-95.9587
-48.0651
-105.284
-91.683
-122.338
-85.4979
228.212
180.784
-11.5842
-52.264
-27.2447
-3.02348
-154.539
-88.8798
77.329
-1.56427
-46.6104
-57.4618
35.8628
0.059334
-13.8594
187.188
336.138
301.21
288.766
189.876
-20.217
-94.7104
-206.948
-245.365
-77.1309
-82.7208
-26.9463
-74.15
-81.1727
59.5112
132.338
46.4296
54.7383
16.8412
-90.6092
-189.712
-228.248
-139.782
-158.837
-165.177
-129.988
72.4119
148.716
183.54
153.882
130.273
28.8396
-60.9909
-124.556
-127.893
103.717
163.883
158.767
54.6245
-35.8246
-84.1911
-114.62
-117.902
66.2981
502.723
460.773
53.2856
-105.002
-86.1511
-160.839
-160.754
-103.364
-34.5245
-62.7089
-141.092
-161.174
-41.1261
-40.6445
-23.0761
54.016
84.7288
16.7328
46.3771
117.573
-96.6708
-182.175
-157.839
-111.856
-31.1631
76.253
100.507
148.919
125.299
65.7728
82.77
-48.4626
-166.785
75.9686
145.778
79.3776
-46.3914
-10.7745
83.5655
74.8196
-4.33407
-58.5045
68.4978
127.013
120.292
-57.9734
-112.915
-61.2151
-56.5853
-150.214
136.756
123.141
46.9629
-87.0725
-138.872
-52.5661
-41.0951
-128.912
-175.072
-286.19
-184.543
-51.1287
-7.81969
74.4684
50.8722
29.3215
202.447
187.724
175.728
171.561
-20.2124
-23.424
-9.22046
-122.114
92.5037
72.6496
38.5542
71.8772
24.1102
76.0532
82.6073
-5.97751
-25.1502
-9.15652
52.7368
116.899
-39.8129
-86.3817
-81.5752
-24.5387
-48.1964
-132.062
-5.00339
-35.3746
-168.448
-137.362
-59.8306
-21.8147
-30.1578
-52.9177
-173.755
81.9413
70.6946
-17.4644
-90.4031
-131.992
-68.6096
167.732
478.78
532.994
108.142
-22.2493
-91.2207
-6.74697
4.58307
-57.4619
-125.84
-48.848
-80.461
-102.679
-84.6349
-142.24
-5.4306
160.045
-49.8233
-108.996
47.0413
-42.4388
-267.965
-173.192
268.439
410.04
254.849
260.663
212.629
44.8148
-33.8173
-161.734
-164.163
-139.067
-160.871
-166.533
-58.672
-95.4388
-24.6393
-17.8511
-94.6823
-63.1121
-75.7455
-72.9102
77.9913
20.5187
-65.0093
-200.459
-180.607
23.3373
192.843
263.972
247.039
197.743
202.806
176.805
11.091
-38.2782
9.37592
63.6378
136.851
61.5642
-4.23967
-97.4628
-266.25
-196.945
-72.473
-90.0316
-208.466
-117.121
262.568
241.777
165.855
99.7974
51.6058
-8.46315
-59.8225
-110.92
16.6406
24.531
-117.566
-208.592
-192.181
-134.748
-149.564
-139.945
-0.640335
110.416
114.256
72.7494
-125.574
-106.778
-41.3402
-11.1033
124.845
328.418
121.87
31.5583
7.07154
-7.09979
-43.5517
99.6713
302.049
188.976
14.9517
3.56389
12.6966
-69.9694
-66.2756
-79.3376
-6.06617
51.2714
-138.053
-140.043
-49.6817
-97.4877
-147.005
-343.412
-224.759
161.909
375.9
418.508
73.2832
-98.4901
-84.4745
-91.507
-161.175
-73.3858
144.518
154.21
-4.31991
-98.3103
5.91967
49.3936
-36.4273
-205.827
-77.2825
263.407
171.654
-43.6394
-155.838
-206.504
-90.4368
-59.1139
-158.877
-7.46602
275.861
240.302
105.543
92.8509
32.5564
28.1459
77.2394
-22.2239
-100.776
100.592
153.084
189.804
157.159
29.7426
-114.239
-295.546
-256.408
-121.731
-32.3114
-12.7703
-128.221
-174.177
-127.797
-202.766
-87.3908
184.403
374.673
314.63
205.937
-6.71607
-46.7122
-109.359
-146.435
-216.015
-48.0463
61.4748
35.0165
32.9761
76.5305
50.0218
88.3356
33.6395
-176.081
-33.6224
8.18078
-121.657
-86.3086
161.255
279.421
126.252
-64.2939
-15.8944
31.8481
13.7237
13.8467
51.1309
-11.3917
-92.4214
-208.584
-94.3447
66.4183
111.953
205.844
145.441
-51.9866
-197.379
-339.091
-258.555
-107.194
64.0513
170.494
11.2784
-9.40308
122.457
-37.6664
-125.318
22.385
137.903
181.274
152.883
71.5514
-15.2253
-25.0297
-62.0165
-80.8675
-60.5331
-89.9728
41.0344
-93.6502
16.2602
215.066
219.61
69.8115
-125.001
-30.5786
97.0783
-56.7751
-98.3079
-18.5312
-55.5979
-122.847
-55.6305
-59.3615
100.145
132.195
60.7533
81.0343
-28.1909
-12.6243
-215.272
-319.322
-135.457
52.6595
117.256
76.8492
7.84315
18.1262
47.9162
40.4147
58.9475
-0.581526
-11.921
7.27658
-42.5051
28.5963
94.7401
58.8421
-126.37
-70.9281
103.521
115.252
101.861
141.893
145.115
25.9427
-96.6329
-119.328
-37.4371
74.7177
-5.72115
-43.793
4.38226
31.5898
-10.4156
-149.009
-174.793
-34.3951
-22.1488
-75.4203
-161.742
-73.0371
44.9079
-13.8256
-32.7197
36.9831
73.8579
126.117
32.656
25.8519
81.1247
-85.0391
-75.5926
81.888
8.31678
-0.582974
86.4472
254.809
205.818
-32.3071
-121.713
77.915
-42.1378
-107.787
-89.9322
-101.888
-0.818399
67.0173
-34.1773
-150.686
-137.405
-85.5185
-82.1923
-111.338
-32.5888
106.226
295.22
88.8982
-183.675
-37.5221
308.386
318.16
100.866
-103.041
-129.43
-106.887
-156.056
-206.965
11.9765
107.841
86.3604
149.858
183.869
89.2125
-0.340823
-95.728
-110.045
-172.371
-5.17275
19.4311
-132.599
-247.838
-174.883
21.2215
243.73
154.609
86.1561
120.033
128.324
42.8601
-144.934
-21.4806
36.241
-24.8205
99.3271
152.725
-97.9266
-190.936
-168.392
-119.589
75.996
43.0021
70.9752
93.9509
0.379293
-6.59447
-51.7591
-120.718
-270.286
-47.1589
227.724
137.69
-37.1684
0.835006
68.0361
57.6969
-61.1655
-74.4733
176.549
201.022
50.9958
-3.07524
5.9119
-60.6316
-189.238
-282.642
-54.6881
97.4733
131.707
76.896
38.2773
12.536
-65.1691
-159.793
-184.075
-73.4909
229.163
335.189
263.304
88.2751
45.6132
-117.464
-262.411
-324.598
-100.775
48.7816
-2.07622
-67.9595
-17.4119
109.339
105.818
14.9966
9.62904
82.6335
109.452
9.83275
-144.147
-182.258
-188.248
-89.1977
-193.985
-203.924
5.45573
215.848
144.663
181.088
186.135
203.752
146.267
-126.019
-103.581
128.369
188.636
164.24
157.742
108.112
20.2034
-66.2041
-124.84
-169.649
-250.326
-138.246
-33.7047
-14.8735
8.60181
28.6617
19.5855
64.0714
73.8472
62.4033
-4.75707
-70.6454
-110.719
-276.343
-242.695
-147.391
-133.11
-62.0471
120.775
280.161
333.531
296.5
-1.51348
-92.1371
57.9836
50.632
46.8824
-39.6448
-173.992
-159.795
-115.68
-82.8141
71.831
244.217
26.3101
-111.415
-49.0202
5.98885
-83.6621
-108.104
-133.862
166.385
375.384
209.527
-13.5549
-32.971
-77.8554
-113.51
-119.523
-27.7792
21.4539
-79.2022
-172.992
-144.548
-19.6284
103.271
129.136
293.521
289.294
100.456
42.8287
-138.197
-159.719
-45.6567
-138.821
-12.1047
-13.0041
84.046
-7.83217
-40.1342
-35.3477
8.76083
61.4482
14.7654
-136.898
25.1553
46.0974
-76.767
-185.749
-168.443
-113.926
-104.603
-37.4264
154.473
536.253
271.021
37.6363
-45.9309
71.2151
67.3381
-73.9397
-246.738
-43.3646
82.8157
154.527
-13.4569
-95.423
-183.662
-137.694
-74.352
144.879
146.828
44.3877
-83.1302
-264.316
-155.831
-37.8587
2.76582
106.219
99.8531
136.815
143.761
1.02444
-62.6016
-144.082
40.6554
91.1552
206.655
134.396
76.7345
-58.1622
-120.628
-117.894
-183.703
-296.838
30.0562
131.3
129.631
143.427
16.1449
-83.7286
17.8733
-36.9822
-96.7495
85.52
2.96849
-38.4993
-136.949
-84.7404
62.8224
27.4983
-17.2605
53.9489
204.031
133.536
-76.3719
-74.7147
-44.3507
-85.38
-110.203
12.1574
152.942
131.871
72.6743
21.3952
-108.106
-163.948
-167.48
-22.7014
-35.2625
78.004
273.904
254.81
165.085
63.4873
-158.67
-99.1667
47.5407
101.207
69.6625
-13.4142
-160.835
-281.133
-118.22
-85.4673
-49.348
120.982
291.344
181.608
28.563
-89.4532
-180.294
-206.852
-331.754
-130.364
38.4505
-19.3994
-114.683
-57.8414
9.40447
-45.9941
-47.3036
307.384
227.385
161.799
119.431
20.888
-46.9045
-100.093
-68.2854
13.0637
100.235
107.527
144.4
97.8727
56.6289
-14.1807
-176.923
-255.372
45.9408
98.3595
133.549
67.3975
82.5531
39.8669
-26.9186
-90.8267
-139.242
7.86101
169.504
54.8362
-21.7611
-42.9355
-69.0152
-129.813
-226.902
-214.516
-98.8281
175.536
64.3983
95.7526
181.711
106.115
-34.0274
-169.728
-145.659
61.1343
56.9269
-34.0687
-91.0822
-32.9301
46.3279
82.0872
70.4978
63.4612
22.6368
-14.6644
-74.9299
-121.591
-76.0613
-159.817
-104.158
116.941
54.0148
72.614
90.8649
-2.20223
34.9599
77.1317
68.8173
181.098
-60.1028
-139.003
18.6492
37.2001
41.614
131.412
47.5975
13.7294
108.786
66.2663
-105.953
-308.917
-105.052
53.1217
-33.6353
-170.79
-72.6966
121.782
86.4696
-78.2004
-38.7832
65.0165
16.9446
-49.2964
-98.4736
1.56022
157.963
43.7488
-75.5776
-47.2606
-23.1605
-62.6562
-57.272
-18.431
178.465
299.488
120.002
-79.4775
-90.5728
-72.8084
-45.3765
-132.815
5.34907
178.883
244.369
128.867
36.0407
-41.2528
-102.422
-141.853
-89.8967
69.9705
51.7464
-3.67258
-69.0447
-43.4608
-9.31582
-103.039
-155.205
-224.059
8.28939
56.0711
-55.756
-59.6174
108.104
107.852
49.777
-37.6366
-13.7244
319.656
345.728
23.0882
-107.72
-95.3472
-111.068
-130.661
-182.395
-47.5417
76.1528
68.9893
-70.1931
-29.9234
23.1549
0.530742
13.0979
226.153
222.763
100.497
-79.4725
-220.709
-174.572
-164.34
-107.066
52.3571
85.8217
196.763
289.483
136.534
4.68331
-84.6466
-212.983
-14.0573
-25.2363
5.672
11.0846
-128.29
-134.71
-60.8869
9.19784
-174.849
-69.2677
5.3636
57.3285
6.66743
34.7268
0.786598
44.6625
92.5565
22.0466
108.11
168.979
112.415
94.5531
64.3629
36.1708
-76.6983
-108.594
-60.1613
-67.017
77.8945
118.893
83.729
43.265
-62.4076
-144.953
-179.76
-187.369
-70.4122
103.102
64.218
191.079
128.941
-4.85077
-89.0425
-208.541
-82.849
31.4872
27.958
24.3102
23.0682
-54.2009
-28.2208
-26.2854
126.225
119.393
-67.5369
-132.705
-123.836
-92.0874
-10.3323
-7.10714
-13.6771
27.0104
81.0592
91.1335
4.60311
-24.7889
-4.97215
12.2498
20.1594
8.27964
180.669
181.028
44.1052
6.78728
19.1744
10.4995
-96.7675
-139.822
39.071
62.6534
-11.1078
-62.5972
-93.1256
-53.2029
-112.912
-171.347
160.613
252.837
133.496
-28.8937
-53.6721
79.4983
-55.3462
-256.902
-37.6093
223.022
166.373
107.86
-4.76878
-152.199
-215.306
-200.308
-238.687
-219.11
-23.8393
167.221
120.399
142.707
114.026
17.362
-31.1316
-78.3654
-125.032
182.915
260.544
133.801
74.5683
-28.0672
-112.995
-99.137
21.1575
69.824
162.543
167.071
13.083
-71.413
-191.294
-241.725
-152.721
-90.3322
47.4872
20.0601
160.913
153.889
-66.6505
-172.48
-109.761
-54.5176
79.3138
129.158
45.5222
33.8582
29.7839
49.5313
26.3222
-86.2896
-48.2424
12.1808
12.5744
25.0953
-52.4181
40.6802
59.9555
-59.779
-33.0726
71.725
84.9682
19.3372
-100.596
-127.548
-124.944
-131.111
-164.338
-41.336
106.704
172.505
291.614
229.103
188.883
249.157
144.902
-112.062
-189.586
-192.216
-130.547
-148.31
-131.105
-31.1685
-69.9543
-131.946
-48.446
-40.9531
75.0772
-25.9535
-62.3179
124.439
-93.932
-213.832
-140.192
73.8515
176.665
130.126
183.824
262.824
134.535
-42.315
-116.768
58.8274
171.333
101.81
9.15153
31.501
-8.61774
11.551
-69.3508
-114.203
-43.4008
5.38276
-66.644
-241.881
-278.588
-115.582
-61.383
-59.4345
-107.886
138.392
232.384
143.989
97.1087
101.384
74.2066
138.988
22.2186
-116.899
64.3518
99.9375
73.6639
-1.09645
-72.6118
-69.3389
-179.301
-229.831
-24.382
181.196
196.091
-5.06183
-71.3422
-103.538
-130.616
-100.088
44.4346
84.0366
97.1579
83.6873
-17.5258
-93.1174
-189.354
-85.9957
122.464
138.719
104.064
112.736
-12.8566
-126.014
-99.5365
-158.853
-145.294
103.301
123.907
116.201
26.4248
-27.6128
-2.77789
50.9953
-36.4511
-83.9346
52.3243
66.0496
-35.8226
-101.787
-44.1197
38.7872
-19.5658
-92.9054
-46.6292
170.725
232.321
31.8725
135.312
161.537
9.954
-85.8896
-129.117
-110.876
111.879
181.382
94.5738
-120.431
-155.964
-159.325
-143.191
-181.734
-52.8125
53.4473
21.6741
-133.49
-153.258
-1.8188
-23.9609
-124.635
192.837
342.15
235.255
141.405
-41.8354
-80.9644
-72.5068
-71.5317
-241.459
-55.3579
93.8169
200.172
112.245
24.5034
89.0855
124.485
76.6466
-108.452
-163.61
65.7877
-50.3941
-182.52
-100.024
-30.012
-67.9135
-150.912
-96.4959
154.68
241.611
145.747
113.446
110.645
-25.9622
-109.915
-159.24
-19.5849
-6.00499
10.9563
45.3195
32.3958
-62.8875
-128.932
-111.477
22.6631
72.5039
97.6631
106.505
26.3583
19.1005
-71.5644
-40.0987
145.222
217.578
23.7904
-19.5156
-49.7462
-33.2935
-77.3372
-32.7712
-128.593
-155.818
-23.4448
-14.9702
-64.0535
-94.6966
-84.1017
-99.6973
-19.6947
94.0291
63.3899
227.985
102.421
4.7043
82.6846
72.9088
-47.5153
-85.9122
-127.761
-54.731
26.2282
109.672
100.532
57.2854
33.5704
11.7931
-80.0961
69.2706
63.1326
15.2551
2.75532
-163.432
-221.026
-191.042
-170.668
57.4532
175.85
199.439
309.502
198.331
102.634
58.1025
-68.666
-13.458
-84.0074
-115.933
-77.8338
-142.811
-95.8378
-53.3275
-25.8855
-137.295
-146.842
-36.0427
57.7535
63.8341
0.196057
-18.326
11.8335
-13.9069
-165.461
41.3016
141.329
152.446
191.538
201.212
166.96
-102.31
-244.261
-119.185
28.1709
148.146
152.094
77.194
-33.1945
-204.179
-146.082
0.767601
12.9533
-21.3229
102.673
-15.3264
-42.871
-66.8736
-82.3592
-149.205
44.1946
169.87
159.587
106.289
87.1728
-23.0633
-61.2776
-83.0408
-94.3521
53.661
121.579
9.99667
-82.845
-71.9071
-36.1454
-128.679
-120.992
-146.365
-4.73892
147.919
60.5702
31.6035
67.667
40.6269
0.754817
-88.3347
50.8279
132.015
127.582
9.02842
-97.3552
-151.441
-192.149
-208.263
-18.2014
51.8832
168.892
229.416
81.9348
65.0194
77.6201
-23.8047
70.6004
145.884
65.1993
19.6584
-96.3213
-147.681
-111.783
-251.021
-73.3113
126.878
176.555
123.853
-100.846
-190.875
-179.114
-212.208
-69.5838
328.66
366.652
364.219
150.699
-117.938
-217.965
-176.719
-185.61
-109.222
33.007
79.2101
-47.363
-91.2351
-100.97
-39.9399
-30.6847
-56.8776
-6.4202
73.3691
35.8673
-132.897
-53.8732
57.7131
99.6748
21.0955
-19.2372
107.567
101.924
65.7375
88.6088
184.574
115.126
16.4327
-50.8822
95.6848
61.8197
97.7042
37.0883
1.07519
-58.2997
-259.917
-386.549
-185.36
-58.6648
83.6194
141.016
111.888
40.7966
-127.506
-275.336
-68.9501
72.0563
74.5488
167.034
65.9044
88.2562
92.7665
52.4893
12.1795
118.605
79.8127
7.93739
-172.288
-187.614
-94.0494
-66.2159
-175.544
11.7109
170.76
105.429
-48.8327
-91.3351
81.9425
66.5587
-85.3884
-45.3433
122.828
135.34
59.4153
-23.0056
-11.4336
-62.8926
-185.255
-63.2339
-13.3677
66.257
64.6884
-23.1452
-41.848
34.3627
-54.0723
2.05308
-49.8187
-65.3419
-14.2174
2.41983
-69.258
-75.2677
-39.5704
85.883
246.37
228.036
145.499
34.8206
-30.8521
-36.9872
-17.6172
-92.6257
73.5974
109.268
67.7656
-57.5065
-115.284
-99.219
-57.9932
-144.208
-49.1403
74.515
131.253
13.0945
-103.985
-35.8421
100.155
61.3267
-76.4654
-70.9009
79.2537
78.0027
-14.0541
37.5892
53.0933
-30.4462
-173.675
-152.811
0.887014
52.156
-23.0537
-85.2255
-36.0612
6.19166
-78.6782
-66.5185
46.9541
23.0661
95.3384
71.4301
-10.5041
-18.7295
-36.6094
41.877
167.117
65.4145
118.066
203.863
160.871
175.288
79.967
-91.6132
-161.614
-49.3092
-96.9047
-122.616
-137.099
-125.939
-36.3097
-81.0435
-161.955
50.4441
-11.0138
-58.1157
-103.481
-36.0709
58.5939
-38.0185
-131.227
64.1863
112.746
118.581
107.109
40.9002
128.285
108.213
-14.0016
35.3653
56.7656
70.695
59.292
-26.0211
7.2787
-1.14783
-56.593
-172.173
-182.887
4.82804
17.3248
-111.375
32.4732
247.243
162.28
-114.979
-120.766
7.30299
-85.6558
-92.3167
-14.1971
-1.0886
21.8608
-2.40525
-78.4747
-12.9015
77.7685
142.97
131.299
51.7896
47.5372
31.953
-123.58
-234.198
-19.5907
53.764
15.8058
-56.3861
1.42717
-8.77467
-120.557
61.5568
174.428
117.632
109.631
-28.7257
-104.596
7.0667
8.70588
148.998
206.502
79.2915
-159.684
-221.88
-183.683
-108.229
-113.058
38.8541
109.803
72.5544
55.637
-30.3735
-36.7513
-35.119
-157.687
-131.836
113.165
107.497
41.4539
-91.0215
-94.4445
-28.759
80.0042
112.152
21.1265
141.844
96.0966
6.91324
7.78538
16.1966
23.1636
-39.2823
-191.869
-232.466
40.242
144.177
-22.0321
8.3063
133.304
256.828
211.856
11.5586
-121.506
-6.46515
-23.4501
-110.178
-84.5678
-135.414
-106.454
-76.7755
-126.174
-11.8024
120.509
184.487
26.9004
-78.2943
-126.61
-88.0326
77.7468
193.928
29.0931
-50.6734
-7.15134
-121.702
-126.728
-81.8447
16.2936
149.43
103.788
53.8888
87.1628
26.9304
-18.5333
-65.0268
-42.6389
-144.342
2.18363
196.212
57.1368
-248.784
-160.374
82.7759
100.499
13.7005
183.516
344.641
180.021
-43.3961
-87.7353
-50.4323
-60.5625
-125.854
-13.1942
14.0629
7.74446
70.6136
-2.30248
-123.651
-229.539
-161.588
22.3691
-10.5667
24.0707
47.5213
-43.5397
-171.964
-220.882
-68.8914
199.947
161.017
136.478
89.494
-8.41784
9.74442
15.0794
149.364
190.018
75.1722
24.0545
-116.435
-191.683
-81.0074
-15.3496
-35.9336
-144.939
-77.7824
156.18
109.006
4.13009
29.8648
35.4102
-2.51857
-49.0324
-110.151
-88.0468
120.225
99.673
171.267
84.4088
9.3572
-50.8736
-110.223
-237.869
-140.66
98.8331
12.4114
-77.4214
-27.6246
74.7873
110.58
134.821
213.179
130.608
68.885
135.874
-81.9257
-240.197
-310.408
-282.509
-189.547
-25.6342
85.8031
400.352
365.932
49.3293
-117.424
-155.156
-131.249
-123.145
-159.342
-116.083
-99.8779
-11.8867
88.5052
85.8982
-23.0851
-59.2524
74.42
139.338
131.407
56.6005
50.1732
-33.8902
-86.4508
-95.9557
168.679
186.473
113.993
-8.46459
-12.862
-38.7777
-135.104
-77.7689
68.2175
36.5336
66.9338
141.804
94.1482
46.0966
-28.3867
-112.537
-47.8119
-67.4484
-58.4229
1.23408
-95.3926
-81.1934
-99.5996
-105.916
-124.889
-67.5138
103.872
144.592
44.917
-9.98199
10.1804
107.566
-19.1178
-136.598
-38.5842
63.263
-11.3779
-37.0027
95.2573
176.659
72.3707
43.016
1.32008
-57.4868
108.952
124.884
19.6177
-96.4062
-181.472
-252.244
-286.558
-259.285
-54.0393
82.8999
135.245
209.651
245.276
186.524
-66.6051
-146.084
3.22883
97.1506
55.306
42.0001
4.13313
75.4711
138.411
-55.0859
-20.7534
14.586
89.6878
244.293
89.6533
-13.3067
-124.621
-287.673
-228.796
-222.487
-122.487
-70.6378
-90.1071
-19.4033
133.367
113.173
160.328
66.1578
-4.82243
96.7759
75.8916
94.8591
60.7254
-105.99
-210.955
-144.103
28.3591
23.3688
-38.3689
-5.47566
38.6728
54.6246
-21.4053
-100.573
1.98075
80.3665
-26.0676
-75.4876
-78.1773
-12.0629
3.75155
-21.2639
-3.74167
113.054
151.531
175.93
78.6658
60.1159
8.06495
-0.346181
-60.0834
28.0436
43.0051
28.2005
-57.2907
-56.0097
19.5733
-23.6819
-131.821
27.4031
43.308
40.6685
16.4151
-91.1337
-59.8278
-16.8243
-148.192
-231.042
-32.8083
154.359
175.926
107.366
65.5092
24.7223
-66.0901
-160.306
-274.783
-2.27377
269.215
145.363
27.7754
6.42629
-0.196158
-89.6645
-191.166
-122.069
-22.6092
116.421
160.4
264.379
214.276
-229.226
-285.404
-64.8142
-19.3601
31.7246
109.269
19.1756
0.156102
-64.1375
-45.3831
209.043
133.334
17.754
44.2671
22.0121
-48.7843
-124.32
-102.668
-158.07
-164.457
25.2129
82.8075
47.4779
118.711
93.0762
59.3101
-26.3913
44.9673
117.98
57.4365
-114.925
-97.0563
-66.4304
-59.7916
-128.641
38.3947
239.782
19.2509
-149.342
-83.8176
79.4014
113.853
1.48089
-149.358
-90.6521
-12.9163
-46.4115
-167.662
-85.1445
65.8855
28.2648
-25.6363
14.6971
159.397
190.303
124.098
-17.4023
-65.2707
-70.0712
-80.3615
86.5948
249.325
159.398
82.6049
19.3446
-44.3745
14.8529
-91.3966
-172.463
-134.116
-113.187
-16.1726
37.3431
19.8526
74.3436
-15.8355
-180.995
-29.1486
97.5439
124.436
-1.88196
-107.136
-61.0773
43.3302
68.6595
-45.6642
-42.9477
-14.324
-7.63444
-24.8166
12.839
41.34
5.37096
-82.6266
67.9058
90.585
158.191
56.7032
-43.7515
-29.1803
-74.2623
-224.987
-14.3805
59.6785
32.8431
86.4034
98.0185
67.0931
-37.3125
-184.581
-29.6858
64.6629
29.8029
15.3518
3.03593
61.4217
6.78009
-46.3033
54.6685
44.8375
36.482
8.01118
-61.6098
-76.2985
-79.0512
-68.9899
-120.625
-155.94
-91.0223
103.575
149.601
92.769
65.0955
26.3181
38.7476
60.5207
-55.3372
-16.7479
-148.528
-166.195
-37.5231
249.451
270.834
217.927
127.619
86.2057
14.4716
-34.227
-18.9238
-64.2236
-148.472
-221.393
-282.982
-2.86436
8.82117
-47.9968
51.094
-5.62994
-22.0357
-29.0837
-92.7737
-49.7099
-86.232
-35.3984
-13.9337
-18.673
3.98992
62.532
62.7323
186.241
106.909
104.116
200.631
120.468
14.8076
-73.656
-118.494
-135.475
-38.7469
138.452
165.864
24.262
-62.9284
-80.2706
-29.9159
-76.2708
-35.829
114.724
91.3647
-34.9265
-115.507
-117.279
-108.81
-228.586
-322.92
22.3102
409.138
379.875
190.756
157.696
154.839
-24.3527
-128.6
-288.239
-178.762
72.4117
-1.81262
-90.5585
-74.9564
-87.3869
-72.8807
-142.668
-44.1307
206.459
201.393
16.7283
52.1173
79.524
-25.6807
-176.439
-148.241
-22.6347
6.74943
76.3703
29.9604
-47.6338
-16.5305
-43.6926
-16.8299
56.0278
166.817
203.163
105.195
-81.8101
-84.7326
-82.6195
-159.858
-127.803
123.832
59.2706
13.9577
4.70467
34.7653
70.9081
6.2599
-65.1151
133.372
75.9462
20.8359
-57.2418
-92.2356
-33.6169
-14.0684
-33.0843
111.373
206.026
119.355
-42.9114
-145.543
-24.7354
-39.4408
-41.26
134.706
94.2642
50.8402
-50.45
-216.342
-178.158
-138.204
-93.5972
-32.3956
14.3084
36.9788
37.9466
-0.276515
-68.5793
-52.329
-158.091
-68.3652
117.295
130.807
107.199
-30.8607
-66.996
-9.37647
92.6166
22.9376
-39.0841
88.7757
261.738
146.506
70.7049
14.6665
-55.1196
-108.107
-71.5219
-157.427
150.218
216.829
149.5
101.088
-85.3748
-278.073
-241.957
-208.943
-77.9667
42.9615
429.99
419.369
86.3845
-15.2106
-110.029
-116.322
-103.503
-66.0096
-68.8716
-85.8436
-104.082
-191.442
-404.192
-383.13
-66.3112
105.262
240.778
317.746
230.303
51.9915
-167.596
-224.542
-100.561
149.427
194.05
146.799
88.5406
97.8706
36.6438
20.1922
76.8588
131.422
129.345
66.4115
-51.7865
-57.9608
-77.8952
-168.137
-73.8484
185.103
153.689
73.0836
-50.748
-186.425
-163.453
-155.113
-32.6557
72.5453
26.7615
3.8595
-90.5709
-48.0403
71.1061
-72.8785
-76.2954
93.8889
49.8759
43.5412
-41.3085
-56.85
-34.5847
-82.0758
-92.2668
-89.1362
86.7762
112.264
58.8997
-16.1855
-6.0706
27.64
-10.0593
-175.922
-56.7473
95.9839
285.262
147.648
107.571
69.5445
15.8111
-82.8087
-198.816
-120.032
24.0097
37.3471
-17.0607
17.5936
71.6606
8.13846
-78.3237
-9.94076
65.0483
65.6793
7.20021
65.5222
-41.0096
-130.348
-189.319
-8.98188
23.9845
-13.9782
68.279
77.168
71.1384
119.421
-62.9866
-57.3013
-172.761
-152.848
131.063
100.914
55.4104
16.8276
-67.0582
65.4789
161.767
148.885
117.42
-19.473
-62.148
-103.635
-198.208
-163.987
-48.1862
-3.34667
33.892
34.8971
31.0263
-20.1629
-113.304
-180.967
-53.5946
51.739
31.8808
-33.3818
-29.5748
121.627
124.753
-68.8416
-84.9986
55.5937
81.6472
98.6527
75.2282
41.3333
64.3224
31.7968
-17.1498
-129.301
37.968
192.634
141.403
90.4841
18.3586
-115.143
-246.069
-298.198
-10.6374
162.635
176.531
37.0788
14.4961
-11.5261
-74.1413
-115.859
15.6981
37.8339
32.6711
71.3172
-76.989
-77.8915
-6.98052
-37.1885
-128.435
-211.004
-42.4392
159.112
43.1367
90.1139
100.781
54.8076
33.9748
-55.5982
-88.5285
67.5689
11.0318
-3.23263
27.0694
31.8359
-42.1879
-113.864
-225.783
-14.3462
76.1079
163.064
48.3988
-70.3062
-88.0313
-145.888
-84.2223
134.014
165.174
242.446
230.164
33.8794
-31.3422
-76.0834
32.3671
67.3859
9.74825
-28.7
-60.902
-167.384
-105.625
-63.9176
-43.412
9.377
49.2516
178.777
79.1807
-96.3916
-80.6232
-89.6686
-131.083
-176.418
-49.3624
43.8387
81.5253
138.958
43.34
28.714
27.1565
6.48777
4.59131
214.387
186.063
78.4869
-38.3639
-71.5115
61.1915
99.2618
-16.5267
-242.273
-227.347
-110.198
-84.1724
-56.1095
-77.7121
-103.314
-60.3755
-51.3076
118.116
184.556
225.042
44.0169
-58.7175
-86.8138
-153.244
-116.381
-51.1
-69.0804
12.9438
128.012
108.535
62.932
-25.1999
25.1114
57.4965
175.954
349.358
291.632
81.8788
-10.3778
-77.6614
-208.699
-185.654
21.3396
70.4126
-9.17021
-123.84
-124.067
-87.2354
-78.0591
-86.4762
79.8432
94.2289
37.5579
-0.383048
-66.7877
-144.188
-140.415
-136.288
-1.99369
18.0852
82.5036
97.6179
3.24469
51.7845
-0.493446
-58.5169
104.223
78.09
92.9395
126.838
22.4758
11.0978
-73.3251
-221.728
-135.506
-30.3883
-12.0076
83.9786
84.6351
30.9854
5.6011
8.81085
-64.6344
-37.7904
56.9587
124.417
147.218
49.4704
16.6964
37.9521
-30.6762
-113.899
-113.444
204.622
92.8147
-33.8225
16.4578
-15.6953
-181.559
-189.587
-175.406
-92.0108
79.547
116.424
20.4654
-87.7466
-177.655
46.5087
23.0944
8.5426
225.322
206.084
213.667
-40.6661
-174.796
-184.806
-177.787
-116.719
137.5
225.766
208.413
71.1427
-86.5424
-156.655
-135.881
-55.6229
57.2033
-11.6795
59.2182
131.73
-57.3919
-63.0701
-122.8
-230.767
28.1016
136.125
224.07
292.945
97.5105
-24.9908
5.92216
-24.8412
-187.745
-155.185
18.0354
27.2797
-54.7182
17.8645
101.25
-2.84594
-133.806
-225.944
-59.2766
236.241
142.431
16.1773
-71.611
-166.012
-181.536
-152.543
81.9764
184.249
190.682
159.19
60.7159
48.9905
-4.30873
-70.5759
-156.306
-135.718
30.5369
114.914
96.0719
21.9456
-42.0973
-50.2113
-66.7266
-66.856
14.6699
164.862
132.807
11.2843
-24.423
-48.8345
-102.265
-212.481
-217.115
75.9282
191.489
96.0582
-0.699005
66.1057
38.7038
-37.8026
-150.851
26.1624
64.163
54.0122
22.5902
-14.7033
-87.7359
-92.7324
-105.18
-17.218
86.5721
105.588
70.2427
-99.1373
-100.536
-20.9363
-79.8403
65.7193
138.675
124.999
142.47
18.4272
-17.5768
-64.4533
-154.309
-38.9997
-35.6106
9.26964
92.7754
145.369
75.7169
-36.5205
-135.519
-32.3482
89.7362
81.2312
72.053
-11.9837
-103.054
-140.914
-171.686
-111.132
1.673
0.255838
37.2828
107.187
90.9619
25.9104
6.55487
-140.288
-3.26546
327.986
229.521
3.42397
-104.242
-123.976
-87.9801
-41.8689
-71.6522
-95.6646
75.7738
112.871
26.2137
10.8868
-8.38827
-96.0014
-135.51
-186.69
-22.8997
145.015
29.8089
-86.3527
-0.739413
-7.20591
-58.0096
-86.2826
73.7185
78.4564
59.0765
88.2157
65.6261
-26.3002
-66.0328
-40.9123
142.119
219.302
142.627
124.598
29.6675
-38.3091
-102.748
-293.938
-205.846
102.604
73.8936
58.5904
111.417
189.724
156.689
39.4382
-92.8511
-138.238
-20.9123
-35.3904
-132.588
-210.08
-148.801
-43.526
-105.351
-118.471
64.3783
169.1
143.756
-49.2531
-49.047
10.0701
-110.748
-170.458
-43.7322
41.4068
117.897
112.907
44.3101
58.2996
-36.325
-107.04
77.8869
116.444
131.813
86.5104
-20.667
1.10947
-9.37025
-145.854
27.1591
147.791
173.26
119.179
-6.80902
-40.6669
-50.939
-83.8354
-168.37
-78.2984
55.1398
13.4585
-70.5125
-27.4475
98.4614
97.6837
44.3567
31.5426
-2.88346
53.9371
-24.5202
-88.5303
-148.937
-175.908
-122.833
-30.2054
-44.0586
46.3872
135.008
63.2023
-3.59188
-84.7624
-141.834
-142.027
-244.087
-82.8041
-19.6635
162.493
386.99
430.016
204.941
43.2232
-95.1209
-18.3995
23.6209
15.8443
38.7353
28.6489
-12.2031
-111.073
-140.418
110.27
217.854
65.4405
-29.3205
-57.7964
-67.1676
-182.145
-327.066
-357.745
-76.4967
14.338
33.1836
-20.7357
-25.3634
-8.59012
20.9653
-47.0968
-43.6771
184.938
164.309
62.8862
-20.0574
92.0145
227.488
74.4304
8.51138
80.5748
67.8404
11.8542
-67.9706
-24.3566
34.2756
-24.434
-65.2535
43.4779
31.421
29.0777
25.6018
-45.7097
-18.7526
-34.1887
-119.99
-78.2322
66.7517
69.0855
49.0736
-32.4072
-51.5999
-62.9009
-179.587
-200.892
30.4243
125.444
77.9092
-13.9277
7.82359
36.0685
38.84
-34.5663
72.2926
86.9656
67.1359
10.2672
-93.1385
-88.9206
-104.03
-218.289
-101.354
63.5537
166.405
230.014
105.798
37.3426
-19.4046
-186.251
-39.781
90.8879
90.2146
70.7267
-71.6762
-147.637
-130.925
-128.331
49.4745
65.5697
82.7549
224.647
196.365
5.9195
-136.178
-196.929
-117.339
-99.3377
-40.9661
54.928
47.0236
4.54787
-73.6481
-32.0013
97.8268
134.679
124.245
130.957
-2.60261
-12.2496
-2.44725
-63.633
-104.109
49.6345
87.4593
51.449
-47.4626
-57.6715
-16.7877
21.2925
1.78988
-67.148
-58.0634
-14.3166
-87.2478
-98.662
5.91951
134.615
140.411
98.7665
-61.6361
-113.429
92.375
70.6392
31.9473
17.4821
-40.6149
-51.2682
-98.7255
-76.3755
-38.5763
-76.6148
-40.4728
-5.78833
55.2429
53.6912
-74.6458
-92.4953
-102.487
-19.9003
200.238
210.104
-36.4965
-149.781
-220.461
-1.71336
215.749
171.382
147.618
106.055
5.38623
6.23683
-34.0894
-147.247
37.2218
56.0598
66.5203
-9.07254
-88.2546
-94.017
-98.7913
-73.2459
-46.4451
106.416
173.56
30.2573
-90.9456
-27.4936
99.5486
24.1687
-92.5161
-23.797
12.3592
15.4213
-42.2626
70.0135
58.3847
-6.99952
-83.6622
4.90205
-26.664
22.254
-17.311
-131.94
-71.1443
-132.601
-90.001
24.987
-0.260338
35.5593
92.5548
81.9484
78.7121
32.7234
39.3292
-51.1097
32.6075
36.6085
13.9494
-69.9826
33.1727
161.873
36.1406
-121.602
13.0235
47.1814
-33.838
-61.3143
100.012
189.857
55.8143
-24.4116
-91.4897
-125.43
-20.0551
-19.5189
-38.1608
72.9925
119.988
-31.6189
-179.247
-324.912
-77.1026
105.152
78.0741
87.4469
60.2708
3.4914
-164.867
-220.775
32.1645
67.4403
129.852
172.006
-27.707
-28.6914
-90.4051
-141.275
8.9265
53.4728
12.383
1.03326
-14.0877
29.1225
13.7328
-5.33303
108.415
216.122
210.073
221.532
2.00791
-17.3912
97.482
-90.2047
-148.781
-127.385
-41.8876
36.9312
113.946
191.831
28.4299
-143.888
-280.218
-102.06
-64.6563
40.2517
-34.0588
-94.681
-7.82844
-115.51
-229.839
-34.1721
-9.64084
57.1923
2.4665
-30.7617
-35.6424
-64.8283
-163.773
-3.30042
210.816
245.001
235.485
70.0599
51.5548
14.9451
-48.6519
-120.056
-186.179
-46.2727
94.3822
61.2169
44.6755
197.497
140.106
12.1526
-48.7544
43.5867
39.869
-30.4596
-24.6859
28.1853
51.5576
0.178328
-58.7225
-141.427
-0.33595
114.216
74.6485
23.9541
30.6592
-51.8261
-95.2539
-134.65
-148.321
104.365
95.5436
-41.9983
-103.683
-134.659
-146.209
-137.1
-74.3516
29.1331
98.5276
185.133
161.299
15.2618
-28.3311
-106.769
24.3454
91.4951
36.0355
15.6224
40.1076
-29.8089
-26.5328
-93.6506
34.8701
42.0681
40.3474
79.794
62.6692
-30.7818
-47.3674
-36.712
-71.1764
-35.8255
-104.434
-124.362
-99.6649
-169.812
-5.64484
238.385
272.007
273.961
348.731
250.375
-29.5965
-148.555
-192.811
-146.611
-199.69
-205.506
0.817351
25.1835
-27.6311
-108.637
79.1782
250.638
207.287
57.7243
-202.712
-281.518
-181.597
-186.172
-129.386
-24.2173
48.2846
103.38
22.1257
-15.6716
278.561
218.238
-11.4942
-39.8121
-43.6603
-97.4494
-140.162
-85.7654
4.67919
36.1255
129.927
179.32
159.623
148.607
128.941
-24.5184
-13.2981
115.729
149.791
134.052
-29.5891
-55.5006
-90.9034
-170.048
-256.749
-106.945
53.6033
-40.7741
-26.1219
61.0948
25.6299
13.1997
122.683
-17.9652
-69.0519
-105.888
-153.867
-245.838
-169.904
-132.33
-191.48
-194.231
108.041
141.819
268.243
195.229
120.898
299.297
256.873
82.6281
2.15986
-75.5034
-316.511
-148.313
14.3587
-41.0485
-146.314
-155.989
82.8474
-19.6828
31.1706
483.575
295.964
77.5997
-96.0381
-167.166
-117.062
-41.6687
-167.757
-115.896
-31.0941
-41.1732
-17.0154
-16.9896
-131.427
70.0128
298.06
255.318
74.5432
81.0813
60.9104
-158.442
-210.593
-44.529
15.8593
130.809
71.271
-44.2408
-27.9064
-62.6448
-118.164
-128.407
-78.2332
-32.7328
198.887
208.482
45.887
33.0747
33.8621
14.6251
-76.6109
-206.273
-37.5672
-14.4237
-21.0177
-56.6131
-160.979
-223.921
-218.136
-111.771
73.3262
295.715
629.576
420.666
-37.0748
-230.721
-256.633
-336.132
-77.0712
93.0927
209.022
249.7
33.2964
112.798
127.749
-80.3793
-153.304
-66.0847
36.9076
91.9942
-34.4855
-232.905
-475.403
-312.519
68.6972
199.635
145.411
249.517
143.74
187.785
168.872
6.51872
-148.269
-208.836
-109.843
63.0268
124.248
28.6736
-24.3754
-44.8305
-108.094
-88.1002
-65.4313
12.8479
-74.2947
13.7584
193.272
201.258
36.5678
-53.5069
-211.876
-234.221
-52.4329
29.9218
44.0777
194.531
231.3
175.096
-47.8724
-108.81
135.282
65.4639
-26.8766
-105.519
-147.363
-108.77
-69.6685
-96.6119
-116.011
39.1734
134.891
148.025
53.5637
-61.303
-148.535
-251.375
-290.575
44.9649
363.058
261.516
61.3136
93.2572
165.115
-30.5216
-138.762
9.1741
-50.7363
-29.4616
-18.1442
-90.7686
-2.60176
-3.89883
-111.936
111.717
97.2184
31.1942
46.5469
-109.735
-141.026
1.35158
1.4757
35.0501
-82.8093
0.508683
98.3141
45.4212
165.302
139.873
-113.3
-209.085
-66.6951
109.894
214.718
49.4924
-23.6482
-2.27169
24.1952
-138.949
-290.486
-89.4176
2.31775
-105.211
-46.2329
246.071
138.004
-49.6454
-244.437
-142.264
225.103
205.504
86.2629
83.8179
23.9154
-127.816
-68.1261
8.3033
11.0017
133.258
132.005
118.392
35.0458
-80.9933
-234.667
-442.645
-177.062
36.8901
118.817
161.602
229.952
273.249
61.4326
-185.041
-65.5085
71.002
69.9093
-34.0514
-71.6722
-138.178
-88.0887
-176.632
75.5933
288.416
102.548
-15.571
-128.427
-168.471
-141.461
-158.418
-141.713
-182.176
-177.08
-153.047
-16.4825
380.536
659.642
574.696
155.861
-97.8885
84.0858
62.9054
-0.905814
67.1587
13.6425
-80.5327
-108.37
-183.727
-66.1906
-66.6177
-173.884
-148.464
-108.716
-75.0231
-128.499
-328.496
-238.346
-35.9474
202.165
183.367
-30.8457
-122.656
-253.002
-207.158
107.217
350.141
641.222
473.418
196.241
-48.9926
-71.2173
-109.708
-23.7313
168.175
136.075
14.9868
-202.234
-236.629
-120.164
-25.7161
-136.227
-95.223
38.2956
75.3109
43.4854
-70.0578
-310.171
-200.503
-24.6152
345.433
256.449
129.898
79.1154
17.5972
-1.76076
-0.950868
-49.7578
-102.948
-97.0188
1.6543
72.5142
79.72
31.0981
-69.1219
-44.3064
-62.4122
-98.5212
45.7562
42.7233
-77.319
-88.3097
-24.4332
-6.70716
-97.3762
-31.5758
14.6913
-60.1672
-102.48
-83.4178
24.4548
71.347
78.5191
144.145
241.136
266.142
224.752
310.291
100.73
-25.6592
-140.399
-237.019
-242.939
-12.6321
62.3335
-40.1701
-120.404
-126.9
-74.8387
-66.533
-252.172
-78.1
-12.6126
-5.28948
-72.7531
-103.228
111.091
166.58
41.5743
-45.5951
44.6378
5.60249
25.9877
30.8135
223.215
292.393
49.1849
-88.387
-44.2887
-62.9146
115.776
229.018
181.714
50.7594
-125.932
-175.975
-319.361
-426.018
-94.0268
145.921
145.167
128.411
164.708
37.6225
-117.114
-247.707
-160.122
66.9612
159.962
308.363
174.88
-137.712
-207.644
-141.797
-166.437
-172.371
249.017
164.17
56.5425
69.0869
-24.1368
1.9201
-58.308
-163.499
98.6667
241.203
164.129
39.7461
-65.5115
-196.708
-237.441
-191.395
-11.3061
55.1054
349.768
522.698
114.456
-117.525
-253.598
-208.543
-67.125
-44.7342
79.2264
142.225
-115.653
-238.68
-236.928
-247.286
-178.729
98.1424
311.301
321.029
259.135
114.624
-115.134
-203.478
-286.75
-97.8323
66.2487
-5.01922
-53.5531
28.5948
84.8285
107.528
-2.75695
-55.6704
190.603
162.833
91.7959
-42.6873
-111.042
21.592
20.7335
-87.0872
-92.106
52.3734
155.428
96.5912
73.1756
47.9581
19.279
37.0421
-136.274
-181.743
-104.429
-71.0835
-68.5561
119.497
236.17
132.693
-18.2117
-32.9075
-102.025
-61.202
-49.0029
-121.642
-126.914
-167.558
-222.795
-183.449
-45.0583
190.446
190.544
153.457
257.759
351.249
161.818
-114.908
-129.596
-18.6756
-80.9068
-212.325
-201.899
-85.3976
-6.8347
-23.5486
-76.1038
92.3936
351.931
377.007
51.9299
-181.885
-147.064
-212.785
-377.048
-57.1451
266.034
175.644
25.7273
-67.9179
11.4129
186.161
233.953
237.055
35.8661
-67.2217
-71.3252
-73.475
-108.96
20.6659
90.0057
24.0506
-65.4475
-129.604
-130.384
-236.522
-275.24
-185.917
-315.498
-45.9145
270.017
190.334
134.348
13.7074
42.277
58.1367
72.4619
22.471
7.92232
27.8062
4.84206
29.1981
113.616
206.535
198.798
53.4553
-58.2042
-22.586
240.135
118.588
-60.6642
-146.116
-126.18
-97.8475
-101.913
-175.613
-94.6642
121.521
64.5316
-113.378
-160.536
-143.272
-28.2907
42.8164
118.345
63.8753
29.4955
97.7696
47.2784
-28.9094
-90.2491
-122.396
-13.7101
-1.56844
37.0299
84.0469
65.3272
-43.7995
-114.409
-155.515
-53.8185
152.626
151.069
81.0082
18.1374
34.8948
27.4132
24.4098
-104.585
-198.26
90.0599
193.479
85.7017
-12.1634
-76.8067
-24.1087
3.13242
-105.868
-142.745
-43.9963
113.124
-0.33698
-28.7856
79.8163
240.33
127.013
146.664
49.7853
48.0329
38.7852
-173.85
-221.726
-173.277
-22.5409
9.73938
-128.791
-120.705
-15.3215
100.199
202.12
9.42021
-144.554
-67.6267
-61.6113
-208.674
-210.605
-167.622
-125.847
-61.4696
205.915
253.377
292.616
280.204
99.0655
68.4719
127.206
83.0491
0.911912
-72.1283
-245.849
-178.271
72.3999
151.861
86.5563
-0.775172
-23.9008
-23.1439
89.806
21.3333
-69.2647
-10.9687
-84.9766
-124.292
-8.15608
21.3387
22.8902
-76.0833
-37.6354
118.705
66.7989
59.2567
-13.5299
-98.2229
-108.881
-74.4471
52.0656
78.8346
56.4162
78.8473
-5.67493
-105.516
-105.636
-206.615
-126.675
42.894
31.1059
73.8893
116.388
112.728
53.2206
-36.8516
-201.617
-167.286
-4.3159
87.3313
104.786
10.6903
61.3378
274.083
186.514
-21.1643
-165.86
-72.1757
11.5664
-108.522
-122.434
-119.206
-174.646
-93.4206
218.293
439.356
351.597
179.119
183.786
62.5863
-95.7953
-122.606
-229.373
-323.203
-173.266
-146.72
-121.232
-70.0866
-21.5405
106.571
166.995
114.399
-21.6337
-87.7341
-21.5871
-125.967
-58.6945
-134.553
-253.842
-151.319
-113.977
100.25
331.096
246.077
109.57
140.195
243.241
180.379
-24.7604
-214.404
-43.0272
184.306
197.045
83.0853
-92.609
-120.706
-56.1831
-0.759949
-106.862
-59.2739
147.517
12.5223
-64.2939
-12.3079
-25.6464
-53.0235
-139.933
-16.7471
-4.59235
52.8178
-3.30122
-67.0001
-16.9579
-68.049
-141.023
-17.8892
-22.2434
13.176
78.5919
63.0418
6.42016
50.1196
80.789
56.1497
26.8004
11.4337
19.2653
-109.931
-118.905
-109.902
-61.5648
126.416
136.69
111.833
43.0516
-18.3503
65.4162
57.1103
-68.0216
-120.548
-73.1539
-139.529
-206.03
-94.354
34.4191
201.493
166.634
-42.4359
-37.9526
165.956
209.331
286.568
242.635
110.32
20.016
-118.896
-161.784
-135.556
-211.964
-72.1827
-133.173
-123.103
-58.1002
98.5267
45.0641
-217.896
-214.248
38.6846
183.502
102.975
-71.8214
-291.08
-300.687
-287.231
-168.237
97.1422
111.002
203.62
335.253
244.021
177.493
162.24
157.217
25.0593
64.459
115.39
145.988
75.6128
-18.4767
-90.7671
-110.108
-308.587
-138.116
156.397
244.142
78.7737
13.9528
-39.8304
-16.7807
-71.5418
-56.8672
0.811876
-79.2131
-181.788
-240.143
-143.503
-21.2148
-86.7819
-54.4949
141.085
95.0027
93.5118
16.6902
-70.3776
-91.9773
-123.211
-11.6023
221.793
214.641
88.5637
31.7501
-23.8023
32.0257
6.34365
-66.3954
-28.292
-147.097
-101.306
-80.9365
-113.055
173.909
316.819
117.222
21.127
55.2199
-3.04843
-63.7728
-177.398
-94.0995
-13.9967
-16.869
27.3602
54.2383
-23.9672
-5.40858
44.6052
76.9113
19.6296
-90.62
-317.357
-342.626
-84.6695
202.925
308.743
161.362
206.9
241.641
9.48449
-168.836
-189.446
68.2206
18.4424
-91.9023
-80.641
17.2153
21.127
-28.1259
54.5952
206.389
103.889
-129.767
-325.647
-250.397
-94.363
33.9192
58.0561
211.827
288.791
224.169
84.5715
-105.143
-152.348
-163.439
-173.001
-82.4048
60.089
122.435
161.607
107.268
126.141
104.02
8.38657
-166.38
-212.724
-159.265
-105.163
-126.609
-42.4391
21.5311
56.5756
-54.9825
-19.7817
146.328
141.586
40.3008
-53.8173
-29.805
-36.068
-89.4331
142.602
233.862
142.106
105.236
0.119309
-75.4472
-100.854
-242.366
-346.626
-117.884
111.955
129.806
135.917
132.847
182.382
77.0276
-6.37194
-59.3564
-133.263
46.5009
-19.8293
-49.8603
-29.8129
-15.8518
-36.9173
-98.4305
-147.842
72.2772
181.577
52.8935
-35.5302
5.02961
81.4986
58.813
17.5134
-113.753
-143.124
36.2613
67.1513
-56.3499
-90.7186
-109.277
-49.8451
56.6688
78.1268
280.155
338.402
-1.87977
-10.0346
37.5693
-55.9707
-145.996
-290.662
-97.9904
-46.3446
17.0644
20.535
-0.739829
12.6801
-83.9001
-55.885
79.9603
27.9094
-48.9598
-95.3518
-84.9436
-7.11498
-12.2594
-50.7329
-26.646
-45.9393
10.6604
201.771
92.8022
10.7953
134.026
403.862
234.333
111.432
-77.4764
-199.304
-140.108
-4.0278
105.899
80.2021
-53.83
41.6125
25.2693
-57.6386
-94.5829
-25.4836
-2.84367
-70.7377
-185.262
-201.429
-125.826
-96.4718
-84.1496
-21.0389
97.584
164.279
93.0794
24.5221
-108.214
-46.6067
34.9066
-82.0674
-34.8567
-28.5262
-42.7954
44.1773
16.7078
20.2082
238.398
322.772
190.146
-55.7032
-83.5982
-89.754
-48.6029
-10.8907
100.488
167.23
98.9184
-62.5536
-159.685
-184.702
-27.3861
-50.6495
-138.415
13.3916
217.861
251.647
-9.60911
-79.5694
-89.1139
-134.798
-127.21
-172.567
-30.9568
152.235
0.284232
-84.3551
-35.6088
47.8494
20.7517
-65.2047
64.6545
107.6
14.9259
-30.0092
-79.9687
-139.119
-94.0495
-40.9993
35.852
-10.114
122.514
197.624
165.435
313.903
60.614
-51.4034
115.832
101.394
133.049
49.908
-101.167
-150.433
-107.585
-140.246
-163.113
-144.227
-71.56
97.2906
71.3673
48.1259
-67.0148
-138.481
-205.434
-238.904
-3.4749
49.5274
24.1152
33.0628
-58.8782
16.2905
39.0018
45.7425
211.051
203.902
137.948
89.7559
-13.7211
-72.3566
-78.9669
-67.0683
-62.6505
127.964
134.807
-46.7528
-57.1451
-30.0607
-94.6057
-104.318
-110.279
60.6238
36.9512
71.0947
74.9585
31.7303
18.3895
-80.4418
-55.4448
95.756
97.0276
64.4908
68.8316
11.8912
16.2394
-55.8823
-91.6311
43.3151
-14.9894
-23.6386
-3.51865
-65.1668
-74.9082
-34.2439
-97.8038
-97.7852
82.5007
165.925
80.304
-49.4753
-59.726
-26.8467
-16.1039
-102.241
-67.8273
-1.21673
23.1559
-67.8761
-56.2657
4.8125
72.2561
61.7347
86.1204
115.279
95.096
40.1089
-100.205
-45.2913
36.9103
-55.9156
-163.415
12.3222
198.99
157.558
163.842
-17.8545
-123.079
-23.8264
2.11651
76.1739
16.8365
-55.2457
-110.57
-112.931
9.0714
26.4662
-120.984
-259.3
-240.99
-17.8135
266.017
221.061
51.4555
7.57808
-4.49515
15.2419
59.7075
-67.0591
32.0837
23.7665
-8.41244
-7.84273
-29.4897
-46.3297
-19.3043
-78.7916
-62.4139
171.345
128.147
55.7113
118.065
66.0416
-58.6818
-152.553
-92.2951
65.0052
140.898
86.3641
-39.3313
-103.081
-84.1215
-136.357
18.1027
48.8923
8.86994
40.0257
86.028
17.4522
-23.7422
-158.227
-133.693
-71.4533
-20.8367
91.7467
40.3405
-33.9724
-80.0832
-127.355
-10.4106
119.809
113.571
176.859
110.5
50.0759
11.6511
21.942
-52.9609
-88.9169
129.184
109.738
-60.317
-144.077
-97.923
-5.83348
-48.1055
-48.6429
92.4654
178.611
52.257
-102.834
-101.668
-80.6624
-114.869
-123.106
-75.6862
112.64
147.058
163.041
113.013
92.2107
-8.25257
-86.9218
-134.094
-39.6148
5.54341
-14.4462
-74.7985
-53.9354
-28.7979
-48.6024
-71.2581
-61.8082
-83.0911
-49.1022
31.6552
17.7256
180.076
181.434
67.6932
-4.10979
9.71033
231.384
370.599
157.246
-52.0784
-130.376
-197.399
-213.006
-197.557
-3.40689
205.157
247.55
153.983
4.43678
-140.674
-248.356
-214
-34.2687
-103.504
-75.3993
-69.289
-147.702
-163.398
-132.266
-37.8188
166.16
149.307
150.485
134.904
44.6205
-27.0317
-125.405
2.53632
155.715
165.558
139.3
73.2293
-59.8607
-72.8395
-108.099
-2.47323
82.5792
30.3802
75.0854
108.983
19.1116
16.2472
-65.9029
-26.3467
56.6831
12.6057
16.9638
-16.4208
-22.3093
-13.6379
-16.3297
-88.5012
-249.107
-2.75966
84.3417
20.0157
-80.0406
-72.8747
9.08173
24.6054
-134.977
-51.3996
-77.5217
130.139
6.9059
-32.4937
79.8485
171.306
149.503
1.8481
-36.7081
29.403
41.5315
-74.8755
-29.8653
-10.6432
-60.3703
-150.739
-77.5691
-28.3662
11.9172
47.0204
123.519
-101.305
-147.584
-110.657
-136.195
91.0572
194.344
330.442
305.812
111.998
21.5708
-151.365
-26.9797
44.298
-24.4161
-54.6769
-123.249
-124.793
-42.3229
-23.0752
53.4079
233.656
189.633
62.6009
-8.82576
-201.341
-240.566
-230.569
-280.401
-108.252
68.061
102.682
49.9983
23.9658
60.5933
78.3706
-55.0833
25.8586
190.469
111.643
63.3576
-88.5529
-56.7679
1.90978
-44.3652
-9.48548
0.62837
0.188165
57.2581
71.0336
48.8142
-10.2655
-135.784
-63.9113
-55.566
96.5238
199.276
134.53
10.9484
-25.0791
-22.5413
-116.054
-119.876
37.5143
34.8399
-64.774
-91.5583
-102.499
-36.8468
106.2
-30.5865
-84.3517
144.102
-22.262
-92.2253
-1.33523
275.01
167.91
1.82522
76.1178
227.355
105.528
27.057
-41.9237
-104.429
-210.473
-282.734
-204.253
-77.7825
-173.161
-101.024
3.99691
-82.797
-33.7754
-49.4211
7.0799
41.4607
156.908
163.025
-3.80472
-83.9534
-137.872
-278.744
-105.94
417.918
521.601
484.288
254.38
-31.1023
-170.731
-227.81
-59.0537
181.888
241.706
172.365
15.4642
-275.293
-360.768
-215.05
-40.6045
-175.27
-99.3837
151.069
27.3946
-125.517
-128.786
-84.0709
-10.1714
-50.9329
-39.0678
208.432
159.104
-43.3636
-48.8108
242.625
286.997
67.0428
-85.4895
-76.8309
21.9446
37.0548
82.3684
52.665
-25.7471
-153.657
-93.9981
-176.17
-32.0032
141.339
197.88
132.984
-0.961297
-86.1282
-135.407
-310.132
-210.447
-0.330172
44.1065
-10.8784
-71.9718
-6.78447
21.1345
-7.63155
78.9698
136.104
61.3647
124.339
61.0858
35.6566
22.0316
-20.6154
-43.0205
-17.5582
37.4696
45.5316
-65.8943
-65.6829
35.4788
31.4954
-125.708
-93.9904
123.52
155.394
29.391
-96.0736
-67.2168
-5.44859
-108.387
71.6468
66.6372
14.9602
136.109
107.247
39.7477
-31.7191
-181.151
62.4509
128.939
51.6911
78.8582
55.4
-84.2562
-140.241
-214.398
-119.722
-52.3729
-72.3311
-20.3886
-61.5148
45.0766
-36.8679
-176.637
94.6173
167.232
127.918
115.186
-51.3018
-79.8527
-25.4951
-25.1912
-68.7444
-123.338
87.0141
143.271
78.4755
27.2282
50.0942
82.1022
-47.3458
-110.863
35.2032
102.357
23.7447
-73.7069
-5.59038
36.2575
-13.3504
-14.5375
-52.6759
58.7765
61.5067
59.6699
-3.59976
20.1941
-27.1427
-96.6909
-116.336
47.0882
70.2822
38.8289
1.16055
26.1034
-92.7596
-152.247
-110.89
62.03
94.0746
34.4771
-23.8558
-177.782
-180.033
-150.491
-78.9069
274.965
359.067
257.081
14.3596
-88.1828
2.72911
18.2433
123.466
83.0842
-134.155
-2.41624
94.4191
4.19751
-75.3756
77.8525
9.04787
-172.548
-106.473
59.7595
130.477
-20.7625
-218.026
-288.999
-118.938
-162.892
-117.348
65.2715
21.344
-50.5099
34.8978
1.7826
-29.4449
-104.119
48.8168
40.9089
109.328
217.206
196.996
112.622
10.5022
-156.497
-167.804
150.398
300.348
250.505
132.343
0.218607
-51.4757
9.28701
-56.7577
-122.857
13.4395
52.7342
-36.0826
-63.3235
70.7561
73.6017
22.2819
-86.0006
-218.395
-30.5011
95.186
-35.9237
-79.8756
-42.9519
-58.7658
-98.5141
-154.177
-128.298
83.557
87.7973
-0.547797
-6.93153
-46.3255
-76.1424
-136.887
2.39445
54.087
101.129
190.439
104.975
55.4879
-4.06106
-89.337
-38.6977
-124.8
-145.18
-16.3134
99.6612
151.781
338.132
98.266
-27.5014
-93.7132
-146.423
-69.7832
-81.037
-48.9963
137.612
183.287
129.903
49.5071
-175.698
76.3946
303.035
336.455
200.807
-90.8332
-244.993
-225.485
-373.404
-312.229
-77.4339
-6.54732
-64.6927
-139.973
-106.351
-2.09123
-57.8598
-126.878
-76.5057
43.8908
120.974
-46.6994
-289.071
-40.6002
143.712
315.54
305.391
137.573
116.95
176.087
86.5733
-38.9648
141.272
218.637
165.959
69.9997
-11.3011
-45.3944
-138.989
-207.58
-78.3659
109.419
76.678
-65.8317
-108.963
-103.816
-80.1215
-182.189
-90.8422
14.0149
15.0161
79.6889
54.6691
49.3457
22.6969
-51.8483
-201.362
-10.2641
57.7292
28.3831
25.6172
-78.632
-45.7128
-65.9512
-127.01
-77.1781
63.7285
104.242
41.2327
15.9387
19.8151
35.4868
-89.0202
-62.2495
128.672
105.788
136.278
3.45519
-68.9323
-15.9561
-57.343
-84.9536
99.8682
62.7771
86.2826
18.1956
-44.7014
-3.52749
-49.8901
-36.9377
125.961
138.208
59.5903
29.28
-13.0706
-62.4743
-109.845
-201.044
-88.0098
139.853
237.605
84.6521
-31.3407
-28.0118
-30.3044
-203.401
-364.226
-188.67
-126.582
-50.3948
181.288
506.345
505.01
201.452
-143.194
-298.292
-174.844
-6.35166
-15.2631
-43.7404
-21.119
8.10445
-66.3011
-134.251
-136.125
18.327
50.8341
38.2064
190.362
184.04
-123.089
-430.436
-248.015
45.5885
194.67
187.88
87.0938
3.86864
-1.05316
-87.1782
-9.65544
141.978
171.578
117.56
74.8047
79.1124
167.541
45.2881
-24.8875
24.7243
-75.6258
-105.131
-174.771
-189.591
-101.063
70.2107
82.7506
15.8518
147.344
64.2252
-29.091
-93.8622
-110.449
-44.9895
-37.3069
-77.2936
16.5145
123.93
15.4866
-93.6939
-104.321
-82.8891
-56.2331
-52.5067
132.124
115.26
84.404
59.3882
-76.5252
-78.7474
-115.186
-177.579
-14.2156
50.3369
126.432
235.534
120.401
-12.0258
-75.6912
-150.951
-80.1848
98.7333
14.4626
-34.0703
-130.416
-104.379
69.447
387.363
230.417
15.862
89.6074
64.0412
-57.8237
-100.424
-113.916
-92.5752
-46.3474
-107.789
-70.5382
52.6417
18.333
-113.076
-77.0718
-46.2468
-76.6233
-51.1776
17.7898
41.2647
-35.6778
13.6205
42.7846
262.183
274.045
285.069
130.742
-55.0809
-131.677
-145.461
-98.506
-80.4102
76.9244
163.565
-72.3751
-78.5467
-116.993
-27.6548
-67.7226
-221.119
-107.138
34.1263
-43.2312
-82.0186
-60.8001
-71.2317
-11.4405
53.3692
96.0765
132.285
107.98
171.498
4.9916
-189.007
-70.7583
50.2937
80.4156
115.29
5.01561
-148.348
94.328
134.955
104.329
-4.49802
-70.379
-67.0657
-65.5152
-107.924
161.838
228.506
135.846
-3.61465
-26.8634
-6.38646
65.3559
-67.5013
-59.3991
-3.44234
0.631229
3.10234
-120.767
-125.907
-110.371
-94.2932
-95.2541
-140.932
52.1661
137.909
-1.14243
-41.0172
-12.7185
-34.4461
-45.2421
-152.778
76.0736
227.549
150.573
46.0204
35.469
43.7971
-31.6992
-113.102
-101.768
100.381
85.4837
84.6447
7.62352
8.66676
-50.3299
-58.7199
-109.965
-197.803
-8.14606
145.527
44.9345
8.84234
141.177
137.821
11.337
-176.215
-110.44
74.1875
106.932
-32.9525
-83.63
-66.9557
-24.7006
-8.64295
113.924
213.835
251.318
182.197
-39.3863
-105.327
-234.343
-317.193
-210.637
-219.635
-76.1884
91.9722
161.795
223.429
158.107
-81.886
-22.4516
83.38
-5.19785
-25.8247
-125.387
-189.349
-154.534
-151.785
-53.9379
154.866
240.599
263.366
137.119
85.848
19.2479
19.8356
-113.056
-223.539
-128.309
84.2558
60.5695
6.35488
29.9171
83.1521
-22.5249
-54.1144
-90.2183
89.1584
189.373
162.021
81.835
23.708
-43.4368
-37.1821
-24.8647
-114.607
-74.1281
5.19697
-38.4677
-74.5721
-66.1363
-71.3629
-66.0301
-126.063
-16.6166
61.8763
151.916
127.687
0.127511
-91.0664
-60.158
-99.5577
2.83713
27.5501
15.1679
3.32064
-115.87
-241.55
-236.486
-229.658
123.044
412.276
612.652
431.127
66.8845
-17.2942
108.839
35.1809
-132.479
-266.577
-110.978
-93.2605
-180.944
-191.506
-115.036
104.475
179.295
20.238
156.82
259.828
30.5038
-221.63
-404.454
-246.425
-104.401
-240.425
-118.923
185.694
154.474
156.21
116
94.6028
40.0002
1.67722
89.3487
80.9022
46.7539
104.185
45.0613
7.11849
-8.76782
-112.623
-159.068
62.9609
103.956
168.632
51.7203
-135.994
-73.2014
-50.3258
-136.732
22.388
165.754
167.348
32.9649
-56.5925
-55.7079
11.2906
-38.9034
-104.221
-172.291
-17.0358
28.285
-72.0413
-11.8468
30.7576
-49.7817
-77.7923
-52.8153
-56.4017
69.5519
26.123
-25.3493
29.9982
107.987
117.827
23.6727
-51.4707
86.2803
102.551
95.6027
32.7761
-12.2643
-59.7942
-70.5291
-107.021
8.10942
-63.9204
-88.175
-35.0767
-33.0353
-38.6202
-50.9176
45.4668
230.71
193.086
122.107
33.1183
-114.881
-132.881
-64.6686
8.11334
11.484
25.4135
152.919
119.722
-50.5221
-89.66
-72.7655
-104.873
-281.016
-275.141
-39.133
108.863
-63.0172
40.4296
276.506
187.292
40.8121
125.502
59.0074
-6.55682
44.3898
31.2681
-52.6393
-47.5111
-201.028
-177.093
-50.5475
214.303
240.202
185.775
12.7257
-120.938
-147.326
-216.252
-276.376
-15.2163
51.0719
-9.44225
-7.44428
-6.92101
-17.7274
-34.9899
-86.7043
-0.370177
212.706
204.689
218.22
80.3157
68.337
75.0068
40.6728
-40.5228
17.1805
65.3988
-0.994871
-39.3808
-41.9589
-71.8673
-73.6631
-133.743
-242.527
-17.4859
141.501
83.7127
9.40414
37.1884
9.19501
-53.5167
-97.4768
51.6351
27.2204
-9.45138
-64.9946
-112.76
-86.1004
-119.326
-167.142
46.7918
89.189
126.017
209.819
34.0146
-124.968
-195.453
-257.88
40.6683
97.1395
254.432
449.872
328.269
138.357
-85.6164
-203.479
-28.1026
11.4365
-64.3582
-5.41772
-69.617
-106.928
-31.0803
-188.136
-286.419
-101.919
83.0621
190.858
341.792
235.685
6.33499
-77.0337
-330.078
-330.659
-90.2237
132.268
-23.0787
-59.886
30.9343
55.6599
-20.1105
-7.47231
-102.96
82.6878
187.052
130.594
100.239
67.1738
-158.73
-128.546
-101.656
6.35155
50.6522
45.4067
42.3752
-17.139
26.0507
32.7743
74.1868
150.196
82.4278
60.3904
71.1943
57.5225
36.6889
-67.3115
-94.9543
119.806
-6.08302
-58.0692
-60.6404
-140.891
-53.0393
18.1911
-26.8337
-200.972
-102.465
71.7602
30.1786
17.8668
17.5064
-2.78012
17.1758
-50.1124
-75.337
70.8348
111.555
-49.5469
-93.6862
-67.8116
-43.6902
-90.3521
-132.952
25.3608
94.4458
144.894
39.1937
-22.7677
9.82822
-56.5758
-123.665
101.476
111.308
17.2344
-83.7318
-142.857
-178.757
-183.682
325.458
681.971
416.735
149.835
117.445
-63.4305
-139.151
-164.756
-197.735
-100.918
-106.903
-103.596
-26.7301
-108.041
-43.0848
148.049
119.262
-184.942
-133.643
45.2069
-120.54
-255.26
-2.78509
122.014
90.265
0.616966
-115.21
-16.4175
123.843
26.5854
26.1976
19.2636
11.6529
-45.6599
-74.7776
-123.266
171.351
383.985
291.273
94.1381
-160.185
-282.765
-296.241
-324.32
-47.3879
121.176
153.217
210.499
210.863
134.11
52.1788
-31.8007
82.5023
86.5106
29.7746
12.3858
-87.4395
-56.6809
-47.6323
-188.89
-199.531
41.4044
35.1623
74.1629
1.44035
-4.85221
59.549
9.67504
-205.481
-213.452
138.299
156.167
17.1033
-46.407
-47.8837
14.4506
26.2564
-75.6757
59.7705
120.588
40.3536
-138.865
-101.415
-28.1493
-61.0536
-136.639
37.9766
93.7822
183.027
206.667
30.8382
5.57073
-64.0816
-223.701
-161.176
-16.1623
-86.2604
63.183
73.1818
113.319
281.121
95.0245
-112.539
-11.1536
52.0083
64.7734
-62.7498
-85.8915
-167.211
-27.0036
-35.206
-18.9545
47.0327
60.0146
-10.894
-18.7984
-19.9777
-145.309
-161.253
49.9076
281.957
169.111
63.3821
51.7499
45.8399
19.1066
-127.006
-190.64
44.4215
122.739
-21.9347
-22.6414
2.45618
2.22821
-36.1682
-68.7591
-86.7407
95.3224
45.7027
-46.0747
-77.3391
-61.6307
-59.1742
-65.9503
-49.2234
69.9494
70.6382
125.764
60.0786
-55.4026
-79.5459
-103.474
-42.3736
88.2613
83.3241
81.7019
107.063
63.0288
26.4221
-45.6535
-215.615
-95.491
117.114
129.643
99.3235
14.5971
13.8518
38.6213
-4.07973
-126.644
-157.41
9.11852
51.5287
-30.1713
-43.0195
-24.3709
-1.2276
-38.5346
-88.0523
-40.5659
223.133
143.894
-9.67283
-16.9181
-15.9901
-39.809
-114.211
-37.1234
56.2855
19.5662
28.9618
-1.94627
-16.0958
-21.3222
-79.6494
-19.6052
56.905
32.2259
30.472
-3.45608
-54.1475
-38.0441
-144.564
-3.1534
182.719
110.029
119.469
66.1059
-44.2538
-31.0728
-0.78947
-136.545
-42.6723
63.8143
60.4372
51.3313
-5.5598
13.7507
11.3625
29.5618
5.27223
-114.473
-42.9115
-89.776
-184.848
-110.191
127.612
270.34
107.627
-81.7389
-104.049
36.04
-4.84023
-77.0724
8.85165
23.2068
-1.36647
-6.1989
-45.6454
-4.03565
12.2793
29.4416
-7.15032
-11.0054
-8.18476
-0.158685
-153.105
-83.8983
81.5264
136.823
128.997
111.287
39.8731
-73.7451
-175.045
-1.61176
109.577
67.7727
91.0216
34.5215
-14.7566
5.90644
-76.048
-161.025
-2.27428
139.741
85.7903
-51.1122
-69.4132
-4.67823
-6.31433
-89.5757
-117.558
87.3914
125.257
6.00863
-70.018
-49.0894
-6.99554
-61.9468
-128.51
83.243
131.686
127.674
9.59164
-68.5544
-42.85
-121.49
-136.287
-14.2296
-28.8627
61.0424
111.681
17.1273
57.8937
12.7641
-44.3033
58.7269
98.9734
107.923
92.8831
-40.8671
-34.4489
-10.875
-106.338
-255.423
-42.6876
188.94
114.219
33.5514
31.2195
9.02564
-8.85135
-52.1387
-139.451
-140.9
14.8165
-32.597
-46.2163
-4.96268
113.622
129.276
51.5574
-49.5319
90.3109
102.639
-14.0583
-148.03
-95.3632
-74.4202
-91.5806
-28.5321
89.9929
89.6273
95.9823
95.8596
67.7704
-24.2939
-121.983
-55.5284
-50.8514
-80.6231
-3.41938
82.2784
28.8785
8.48148
-105.352
-12.1167
41.0731
46.8521
118.303
152.912
105.628
-60.2618
-137.566
25.4448
-14.7147
32.7585
91.9291
1.64813
-63.4425
-103.188
-193.786
-212.994
-59.2222
-14.8021
39.2088
53.6566
251.94
162.325
51.066
43.7659
33.0475
58.6689
93.1339
-41.8593
-54.1587
-28.6729
-85.7092
-255.538
-258.357
12.2863
220.161
217.924
20.2982
20.6631
19.5075
-87.3287
-222.04
-206.658
-27.7222
-66.6405
-100.459
-12.5679
66.3386
23.0788
-14.5723
-49.7153
74.8428
171.886
181.322
44.8839
13.9731
126.251
99.7212
-9.37184
49.7639
123.632
46.4433
50.9096
-13.5871
-18.858
-65.2446
-196.943
-32.1065
121.527
25.897
6.64578
-24.431
2.23662
5.86386
-77.3174
-125.246
-26.6449
18.1185
96.5723
8.78247
-103.537
-111.725
-85.9416
-145.364
-24.7404
44.3975
104.824
29.1967
-94.0102
-42.7425
-42.1076
-40.4362
90.446
92.0377
74.5721
75.2034
-5.73817
-48.4512
-87.8475
-106.215
39.2873
40.516
64.5811
88.8664
73.5812
69.8935
-24.328
-50.2585
15.384
38.9574
59.615
50.3694
6.62008
3.71401
-7.86985
-75.9533
-179.237
12.1066
114.809
115.932
-3.07024
-18.3251
-16.5554
-10.0755
-97.9931
-162.468
-82.7016
65.1002
-5.40298
23.2605
76.8319
148.699
31.9264
-115.208
-196.423
-83.3421
119.233
15.1655
262.657
226.113
-56.2994
-143.929
-132.023
-67.4908
-59.6221
68.001
278.093
111.229
-45.7729
-141.215
-248.203
-170.534
-95.822
-54.6432
77.284
155.541
103.023
24.7605
-195.559
-64.7549
133.861
72.7517
31.4246
15.4899
-13.6131
-40.4964
-82.5593
-136.975
-34.1152
39.3149
66.3778
-8.0001
55.0037
197.852
204.576
157.74
-25.169
27.1353
57.6686
-16.2333
-78.3704
-10.0041
7.75993
-75.6594
-142.378
-2.60424
0.482181
13.451
-8.83883
-7.52856
29.7572
-55.3424
-73.3693
14.4851
-52.4226
-135.297
-89.4054
-99.4116
-127.878
-154.104
2.30544
366.991
291.22
148.352
104.917
-41.8827
-71.7174
-48.2523
-139.801
-172.053
120.995
167.175
79.7978
-27.1978
-17.1191
16.4482
51.0434
-68.1742
-190.367
-0.0971648
-47.1644
-212.076
-146.897
20.6087
213.874
136.325
-57.9787
-54.3253
167.943
242.101
214.208
129.66
27.7506
-21.8785
-115.325
-200.378
-48.6666
-56.3789
-12.7564
-91.9647
-143.615
-145.551
37.9375
142.056
12.6439
-90.2785
-3.41965
34.6391
18.8133
10.4576
-223.319
-99.1429
45.9491
2.24608
34.1539
66.1999
-31.2899
-16.5785
33.9248
127.857
248.77
145.468
35.3329
-37.644
-54.93
5.48295
63.8806
-80.0343
-81.2895
80.0113
31.7609
-28.4318
-26.5226
13.4682
91.5631
136.138
-32.5986
-37.2123
35.15
-51.991
-92.7181
-104.298
-98.2966
-77.8068
-125.878
-182.817
-141.669
123.482
166.843
114.928
148.924
47.466
-36.137
-51.6904
-93.1599
-36.6677
133.212
130.098
55.8002
32.9364
-15.0111
-19.5104
-78.8146
-131.124
5.07927
53.2594
62.1644
2.99613
-80.6893
-156.812
-188.296
-258.997
-92.7028
118.315
106.879
113.209
145.845
116.255
165.449
83.167
-164.495
3.99519
173.627
104.975
0.241479
1.22111
-4.3412
-12.3879
30.5889
-11.4792
105.381
119.615
14.3976
-90.6771
-80.053
-123.275
-195.556
-263.986
-200.128
-105.146
45.6124
10.8778
90.8772
175.598
42.2471
2.91306
116.881
118.35
9.61537
-33.4843
-91.0876
5.99896
49.7449
-47.1666
48.7258
60.0613
8.17757
55.3013
2.46042
-15.7474
15.604
-127.044
-149.434
68.3848
111.913
97.7562
16.6946
-9.3262
2.11036
-41.5055
-149.743
-70.1698
21.4546
95.5667
14.6577
-28.9836
-15.4357
28.9241
-34.0946
-79.4393
-67.0106
102.844
97.4891
16.6804
48.1069
62.0643
18.8642
-25.6226
-161.037
-77.0257
83.0861
50.4775
-36.1531
-36.277
9.25409
-19.7712
-80.0782
-65.2793
103.641
121.321
119.45
42.4596
-63.7714
-141.491
-156.637
-60.9281
45.1728
27.1853
68.7857
11.4926
-58.2376
-123.899
-211.694
-177.722
56.932
314.755
473.887
485.689
225.585
85.9329
-52.4163
-221.256
-260.496
-50.1577
-28.043
-79.6838
-135.159
-121.056
-84.3563
-77.5876
-116.678
48.8956
111.371
62.8113
-109.338
-240.956
-275.583
-262.125
-210.83
161.729
289.711
214.733
165.546
100.52
88.0483
38.9994
-86.1308
87.9504
150.925
102.125
79.8979
18.1114
10.3521
41.2759
-61.9855
75.4412
131.824
31.4279
2.19333
-147.058
-133.271
-32.1847
-29.467
-167.389
-116.375
23.823
62.5224
-29.7058
-40.6301
8.49157
32.3913
13.2399
-75.8942
-7.04476
178.995
12.7951
-97.623
-57.8809
-8.35859
-48.4017
-70.015
-153.203
32.0268
93.6234
74.1183
32.3925
73.8217
36.0674
-0.856041
-50.3499
75.6987
115.797
118.805
29.7586
-76.1415
-110.173
-114.612
-189.543
-59.4266
97.5441
88.7697
149.895
31.3374
-44.5615
-24.0869
-85.8184
16.1353
48.3034
20.9809
21.7044
-40.7381
-44.6602
17.9206
-9.88595
-70.6984
19.9018
135.252
155.016
59.5882
-72.8171
-83.8977
-55.3645
-147.125
-215.641
-47.0502
38.3291
141.105
77.4039
93.2456
101.564
57.8065
-2.0565
-42.7953
95.2338
89.661
-34.8943
-139.246
-42.1959
-14.4503
-50.8773
-137.127
-56.5545
-22.1009
-8.83596
-42.9656
-39.8915
-63.1491
90.8252
22.8202
-101.319
157.332
214.284
124.335
76.7276
96.3311
18.9677
-124.895
-157.782
56.2062
90.7632
206.797
87.1082
-2.58691
-20.4324
-81.7025
-118.694
-194.407
-132.208
-66.8399
32.0799
-108.609
-164.767
-85.3725
-95.3164
-179.36
-126.038
178.395
175.99
30.4533
7.05369
34.0953
101.21
90.6647
35.9486
146.969
272.899
145.599
-28.4243
-32.2932
8.92746
-52.4142
-100.328
179.394
231.895
107.225
19.7694
-106.5
-82.0713
-157.694
-222.351
-72.4745
-35.2793
5.49628
54.0754
-17.3711
-85.8256
-125.295
-82.3999
6.77622
15.8447
-21.7081
5.36012
-91.0469
-146.785
-65.2466
-125.967
-15.8601
184.362
145.943
137.862
52.4731
48.057
66.541
74.1507
-98.6845
-125.217
175.283
156.547
74.5222
59.3327
28.6057
32.3313
-37.167
-153.328
-75.8364
131.874
48.783
-62.4259
-63.3598
-45.9239
-61.9707
-92.3187
-162.153
51.0747
152.451
121.123
-13.0874
-57.9035
-70.9525
-121.025
-73.2203
61.8743
71.4775
67.4062
9.91515
-47.7259
-107.909
-198.443
1.0806
125.028
175.279
233.154
257.866
87.7617
-43.9162
-139.952
-155.5
-12.5864
-55.6207
28.6774
-32.3455
-124.054
-155.962
-85.9825
-20.3559
54.8291
197.372
199.527
65.6106
-18.0468
-112.707
-133.623
-156.108
-278.867
-77.8813
147.262
106.452
-3.36624
70.0308
125.71
100.701
-10.6376
15.4271
41.456
42.6345
25.2025
-51.0714
-28.2793
-49.283
-119.709
-20.8674
30.4422
72.0071
128.415
88.099
20.2831
-21.7907
-178.578
-42.9469
116.73
107.524
107.934
59.8586
14.5279
7.02242
-50.182
-135.829
-3.1275
-14.3098
3.43549
-44.0801
-63.2444
-28.4438
-2.20018
-62.5061
-168.766
22.3972
152.874
50.6714
-81.2302
-66.3856
-27.6579
-40.4773
-165.509
-213.787
47.0732
128.296
79.959
146.327
219.365
155.858
72.7244
26.7978
114.253
44.7241
32.7705
-76.9248
-95.0643
-106.881
-211.785
-180.239
24.8432
24.6629
64.768
63.3718
-77.8562
-115.689
-201.202
-88.4455
13.8611
29.4694
133.304
159.525
-4.14343
63.1359
82.8425
-50.0894
7.43305
121.191
137.725
106.901
-12.4129
-46.8393
13.5633
53.8418
-66.0536
50.7544
134.328
-29.5515
-130.739
-127.453
-136.369
-87.3631
-101.768
-85.6103
41.2308
59.6737
19.0809
-62.3822
-65.7182
-35.7373
-81.2882
-149.662
81.8843
330.742
354.945
147.649
2.05803
-48.5505
-84.7442
-88.9431
-102.799
-169.569
-12.1676
26.7845
0.579565
70.6167
45.5219
27.686
93.8997
-0.294978
9.43173
157.705
58.5109
-109.242
-130.152
-100.022
-64.0248
-56.9254
-91.8829
-9.83331
56.1226
82.3146
54.448
18.8528
-23.8741
-35.8149
-41.7104
-115.451
-36.8981
69.1116
62.1944
42.9514
-16.1978
-40.0298
-59.646
-152.117
23.4525
125.615
107.93
63.86
24.1595
23.1874
15.254
11.2348
101.362
58.2627
29.0063
52.8864
-23.7841
-31.1308
-74.1813
-121.471
-27.3272
-61.0531
-46.7148
97.836
57.9852
-15.2886
-5.71787
-1.17144
47.0239
58.748
4.88793
-12.6704
-89.0041
-60.2682
57.4167
-9.49577
-159.114
11.7325
40.6545
59.4328
-23.2433
-5.65694
25.3685
-3.76327
-129.819
-188.08
47.2974
37.8622
-31.2824
-15.4139
-2.39806
22.7939
126.296
33.7701
-141.905
120.124
175.445
44.2166
35.0404
44.5504
0.19576
-69.9281
-86.1416
90.2709
127.541
140.477
-1.19602
-27.3072
-58.881
-110.582
-93.3274
-12.6686
-77.6736
-1.57261
100.773
-49.5267
-97.8316
-275.914
-274.578
-96.7017
182.856
328.438
257.27
103.875
28.6281
-36.6437
-100.708
-124.854
8.23643
85.7436
62.7051
-1.85955
-34.5078
-19.112
-25.616
-81.9828
8.15917
166.404
149.667
60.2367
-85.6176
-131.13
-92.1272
-190.378
-74.3367
130.374
93.7451
82.4692
17.9397
27.1328
53.531
3.50847
-1.3241
60.0286
-47.1469
-137.053
-131.195
-27.4398
63.3487
6.25768
46.0685
49.5695
-4.38798
-64.6035
-207.04
-287.302
-169.164
-23.4224
275.675
334.501
212.443
122.927
32.787
-90.7524
-93.3904
23.6853
81.4164
-66.3045
177.997
214.121
96.7656
-30.7617
-86.912
-89.9991
-89.7904
-79.5994
-184.556
-133.745
-91.5783
-147.636
-102.641
-34.6308
-7.30919
20.0847
72.8306
23.7279
112.35
130.466
-32.6039
-46.0615
-71.1412
-28.1602
-15.5844
83.2065
216.328
177.801
166.36
101.231
-91.969
-116.068
-145.203
-40.9114
48.7844
42.6771
71.5095
117.008
30.0711
-23.2704
-204.267
-86.7827
-118.488
-5.01073
61.7098
77.8908
40.7928
30.5752
41.8308
-40.6698
-181.736
16.6034
65.0432
10.0666
-32.0462
-23.5231
-2.87317
16.391
-102.891
15.5187
104.218
7.55155
-12.2529
-64.4057
-34.7019
-25.5107
-116.775
-92.616
166.872
142.651
90.7489
-32.5024
-19.7415
-23.9846
-96.187
-31.9662
-11.217
127.144
128.406
51.9492
-30.2592
-88.8662
-58.8155
-49.5073
-77.0042
26.8442
120.821
90.3433
-56.8774
-51.7061
6.8675
18.896
-12.3906
-79.3811
138.325
81.827
-26.2264
-109.356
-35.1136
10.5478
79.0861
64.823
-102.138
-10.9326
82.4014
41.5915
31.9755
