-182.08
-288.413
-67.6946
29.3131
-91.2697
-193.138
-15.6398
189.244
271.522
206.875
223.004
201.707
204.592
301.955
217.841
-118.227
-376.252
-555.513
-668.59
-565.218
-140.838
85.8818
37.4664
141.219
245.923
245.813
91.6998
-60.327
-123.211
-45.7351
14.7379
149.059
187.484
175.282
115.605
-50.4908
-174.636
-105.809
-8.35787
-112.569
-177.795
2.43873
129.16
245.56
312.257
280.997
216.515
103.179
-81.8208
-260.318
-446.863
-475.919
-344.705
-113.78
18.3411
187.489
166.173
32.1949
-18.1857
17.5661
-47.3897
-182.784
-99.2587
108.77
72.6676
28.7197
-9.35969
52.3526
82.6754
161.628
352.528
266.041
98.489
-142.763
-208.718
-146.493
-85.7621
-48.7198
224.428
465.84
511.724
470.402
200.868
-102.559
-263.54
-256.407
-242.781
-314.324
-237.875
-321.751
-542.271
-562.845
-384.567
-250.403
-33.7599
155.083
165.437
192.142
224.038
360.697
416.492
322.086
117.309
-195.396
-201.901
-207.19
-149.829
-52.0055
135.929
234.128
88.5163
51.2855
265.38
294.08
148.524
124.846
46.9786
-243.95
-406.095
-279.776
-128.722
-4.7035
167.899
217.028
102.393
142.949
136.032
59.8585
9.32201
28.3819
169.422
166.221
-22.0703
-32.4442
85.6345
15.9134
-173.669
-255.709
-172.192
-245.622
-430.288
-460.136
-351.774
-142.805
84.857
121.922
70.9565
41.3035
-38.9719
-52.3045
108.096
183.565
99.6507
6.84473
-16.2131
-1.36806
46.4321
189.937
213.107
117.372
63.6949
74.5196
158.096
156.236
168.068
82.2599
48.5554
-5.35714
-152.839
-145.067
-120
-121.748
30.1672
206.637
156.269
120.526
79.0863
49.2326
-109.023
-246.047
-209.336
-412.002
-449.437
-209.107
-12.4713
188.016
271.144
214.291
170.732
260.647
280.523
149.59
-52.1917
-254.055
-370.436
-454.742
-395.933
-119.62
171.179
319.261
81.6791
36.1903
82.2793
212.882
281.317
202.977
114.128
110.839
48.3967
-24.9874
-173.852
-315.963
-213.762
-174.898
-136.788
-16.3233
103.471
11.3541
-111.478
-139.777
-87.2489
-41.9399
120.443
268.237
284.031
180.181
-1.47368
-145.93
-183.489
-60.2845
75.404
192.315
153.121
76.4518
98.0552
137.798
99.1612
3.06985
-118.279
-146.189
-34.2239
-108.003
-296.036
-341.899
-171.492
70.8334
251.465
377.645
339.76
51.7116
-207.462
-333.285
-384.257
-335.722
-221
-19.095
107.976
107.488
56.0421
-19.4784
5.41273
69.9342
142.804
153.066
96.468
0.124658
-10.1873
181.399
332.39
316.82
273.487
319.545
231.343
159.526
42.2108
-158.859
-271.251
-300.667
-267.214
-166.367
-189.391
-191.89
-184.983
-134.994
-135.964
-51.3312
111.537
-19.2106
-300.932
-237.466
-47.1001
32.1122
87.2218
132.369
204.105
195.477
16.7045
-43.5904
-56.5094
-128.549
-65.0909
103.397
230.262
228.373
119.603
1.16203
-3.58865
54.6169
40.4102
-107.147
-220.639
-147.336
-41.899
-53.3638
-91.4159
58.6931
188.127
362.842
529.244
446.559
284.023
53.5616
-91.3001
-169.331
-285.522
-323.507
-404.502
-383.65
-234.575
-149.612
-71.3256
14.7265
-2.12677
92.6291
259.288
214.899
147.024
25.8035
-68.0306
-3.38061
-13.6183
-60.762
-165.721
-143.616
23.3565
206.774
180.649
-6.8012
-26.9858
95.0015
61.5054
-73.1684
-93.1728
18.963
19.9754
-28.8006
-45.434
-89.8665
-211.242
-306.55
-286.715
-54.0424
128.684
174.709
165.893
141.433
194.618
232.757
207.716
144.568
116.679
61.4411
9.46827
-73.3454
-105.07
17.2805
19.3958
-51.783
-104.279
-142.857
-202.192
-231.651
-203.132
67.1792
405.044
299.723
1.42997
-80.1991
-32.3536
-59.5646
12.1879
27.5153
-27.8981
9.44487
56.1432
-16.9367
-59.0964
-173.965
-180.117
-164.248
-193.645
-39.7923
83.3036
1.50422
0.960573
90.761
108.903
28.6051
-71.3218
-42.4995
25.955
65.1232
148.14
143.108
82.0105
59.4887
5.67905
-28.8714
80.7385
94.2511
144.876
49.9984
33.3569
21.159
-130.571
-219.512
-208.796
-164.222
41.7941
131.422
17.7297
-30.8327
-31.0473
-104.023
-95.8342
-16.8863
183.606
347.259
324.604
218.894
95.8523
-70.5801
-200.641
-310.954
-247.165
-59.9323
68.2086
29.0693
-111.145
-118.81
-94.7478
-99.2403
-77.4805
39.4962
154.342
149.183
16.7879
-85.949
-137.201
-56.6897
-8.01046
-40.4754
3.75426
14.8375
-95.4508
-215.623
-161.227
153.797
261.729
254.227
273.804
379.823
468.956
78.4092
-412.799
-498.723
-348.781
-131.706
-126.442
-82.4989
93.9517
220.517
146.835
77.3314
127.92
271.353
336.231
102.58
-132.627
-239.041
-181.185
-199.178
-341.694
-239.425
36.9831
128.611
86.5539
159.222
331.846
300.279
165.576
96.3381
-53.4624
-154.417
-129.147
-90.1495
-84.0705
-104.784
-126.699
-230.361
-361.227
-413.902
-193.604
240.645
491.346
628.045
541.282
136.856
-160.386
-235.229
-255.317
-184.481
-106.051
-97.7438
-152.16
-162.757
-62.0278
-45.3913
-25.5326
34.1267
161.45
236.594
206.033
63.8298
-35.659
-205.361
-220.791
-55.4855
29.4237
52.2107
57.3491
113.029
347.398
366.445
298.969
21.1494
-469.427
-568.422
-309.382
-170.878
60.6615
194.095
74.6406
32.3785
-1.49561
-25.72
55.6027
97.3933
163.492
295.039
375.323
290.693
40.915
-49.2476
-73.3108
-114.656
-128.585
-85.2893
-3.13815
90.2669
-30.5728
-73.6383
-14.7528
-20.1991
-144.307
-288.978
-416.473
-357.083
-236.786
-114.724
60.9527
32.76
16.1874
68.414
141.099
295.578
392.295
415.277
196.595
29.8035
-95.6861
-235.024
-297.972
-275.968
-181.773
-73.1525
13.8068
103.105
209.814
273.357
71.9188
-172.09
-221.845
-122.455
-114.849
-94.0824
114.023
278.084
289.484
264.869
169.976
63.7965
60.5278
-6.18618
-54.0585
68.7866
189.647
46.5569
-82.925
-245.565
-221.752
-126.893
-74.8286
-125.922
-163.996
-97.4549
112.051
218.96
116.772
-155.085
-246.47
-56.4952
-25.2756
-55.6852
-16.8554
-67.053
-208.419
-232.974
-191.295
104.546
345.804
467.853
403.835
206.194
73.973
1.04089
-22.3464
-95.3927
-89.4306
25.5708
52.0446
74.365
108.748
80.8315
-39.2612
-158.527
-121.89
-131.626
-162.621
-223.386
-185.71
-174.662
-128.166
51.3131
84.2895
71.1559
98.0646
44.1356
51.4828
116.077
184.506
59.5903
-125.372
-20.1039
177.234
202.374
154.387
66.619
-28.2223
-96.5556
-202.796
-172.69
-68.7633
-111.897
-55.8772
17.4194
-78.7332
-139.646
-101.717
26.8148
130.059
134.046
197.274
146.718
-19.1816
-125.544
-129.817
11.9659
79.5944
95.4353
114.205
38.1114
-16.7287
93.7783
105.7
29.7699
-110.913
-254.069
-161.803
-122.165
-252.792
-206.294
-18.3032
132.587
219.164
314.718
347.397
294.109
192.501
117.059
11.7665
-124.516
-224.172
-209.348
-350.439
-401.705
-257.662
5.52084
142.287
172.312
215.509
188.03
118.616
-66.7362
-222.382
-216
-128.02
-21.0463
97.1226
155.961
147.646
184.63
203.854
164.185
106.647
-15.0026
-90.2584
-95.2023
-179.848
-210.572
-152.074
-81.546
-103.034
-30.0365
93.4834
129.586
72.43
-1.27918
23.1607
50.8361
2.60997
-7.43884
-96.6369
-214.078
-212.869
-40.1819
109.881
109.133
145.328
195.496
122.189
37.2742
-12.7762
-33.9322
-47.3255
-79.6223
2.24103
162.25
104.927
-30.7309
-31.0917
65.2983
121.378
7.16032
-27.4295
-20.7096
-49.8198
-46.0871
-125.81
-125.41
-10.3812
-49.0636
-53.4118
-48.8593
2.57583
85.2566
55.5415
-72.84
-116.15
-144.734
-157.08
-95.8958
9.04201
160.417
252.975
205.65
144.97
63.3812
-18.5535
-39.9685
-56.2085
24.6245
143.457
193.874
126.818
5.66776
-93.6386
-173.332
-160.358
-16.8969
63.1131
11.8691
10.8291
-163.458
-294.766
-316.555
-288.215
-135.827
100.866
193.953
126.499
151.659
199.242
165.936
131.064
90.6046
54.7318
-39.1816
-119.041
-200.688
-138.77
-62.2779
-58.5607
85.6818
165.342
65.2256
71.6812
86.1391
25.1722
9.84667
20.8644
-3.72394
27.0292
71.9684
75.465
62.6056
59.3413
99.4456
55.3869
-103.932
-206.989
-183.056
-76.4413
-2.65304
110.603
140.717
95.888
46.19
20.1644
100.752
81.9223
50.7823
-193.153
-368.788
-413.32
-430.562
-328.575
-124.492
20.3162
118.571
81.3476
-20.0823
-81.951
-64.0642
31.5199
152.863
182.77
200.476
250.275
275.034
285.271
213.585
122.736
51.4459
114.505
107.49
-67.794
-216.562
-185.078
-140.449
-40.8178
42.7657
46.2052
66.4959
8.63832
14.704
27.45
-67.6583
-162.163
-259.761
-232.057
-64.4597
167.504
212.536
-8.52656
-113.585
-84.0437
-28.0521
74.1236
182.061
10.5195
-77.6408
-81.2388
-46.4035
31.815
105.179
87.3955
37.8749
-56.1159
-107.252
-71.9023
-103.81
-153.034
-71.3284
66.251
138.983
84.6736
95.5762
133.008
45.952
28.0253
-36.0424
-68.5804
14.669
40.6471
10.1642
0.20021
90.9529
67.533
-64.5454
0.100755
-7.63462
-83.534
-11.7523
-30.6198
-168.012
-107.393
-34.5429
-51.6061
15.9305
173.876
194.621
121.947
26.5225
-23.6696
-54.3864
-56.8188
-66.0147
-32.1478
-42.5272
-144.184
-116.951
59.0779
52.5656
115.578
186.542
96.8258
-113.797
-244.614
-291.564
-214.298
-32.6755
198.592
231.575
186.791
170.867
160.765
132.591
94.5648
28.5382
12.8171
-44.723
-181.06
-254.697
-199.998
-27.4366
139.471
185.649
115.949
39.3559
61.2468
109.836
71.5363
-31.289
-133.138
-244.261
-280.936
-240.659
-224.731
-151.326
-27.216
-2.22327
30.7659
100.674
51.6545
-36.6722
-18.3218
135.778
214.759
303.398
273.866
204.492
100.59
30.644
-7.09378
-159.148
-254.22
-238.939
-63.568
112.341
128.059
111.777
90.5433
38.7214
23.1581
38.8174
-9.54673
-70.737
-84.0477
-96.8204
-108.627
-13.0205
86.8277
185.582
127.106
138.493
79.8935
-200.568
-387.753
-301.409
-306.96
-258.903
-162.714
-123.643
37.2646
261.22
290.223
308.858
231.457
93.242
-105.178
-255.137
-290.12
-249.4
-62.1032
268.216
405.873
411.676
346.431
126.514
-129.891
-297.282
-287.319
12.875
91.3544
-24.3052
-132.755
-195.761
-75.922
49.5014
208.005
251.233
203.943
143.28
159.352
81.0104
-4.93292
-25.6765
-35.475
-109.406
-115.681
-38.4926
32.9422
-86.6383
-181.866
-205.531
-32.5495
31.1696
-148.742
-284.075
-196.808
-169.896
-143.982
-65.7123
-13.6011
-14.1444
-15.4999
67.5242
54.6964
92.5065
162.314
169.083
104.823
60.5672
89.4305
132.903
99.2846
58.2925
216.185
380.459
328.011
209.061
55.1869
-115.748
-370.148
-556.217
-297.246
46.4172
231.67
244.691
179.993
111.536
32.9439
-100.411
-167.611
-210.059
-189.536
-108.316
-99.6298
-138.217
-165.51
-147.807
-33.7546
118.162
154.386
82.4971
-34.4646
-194.773
-132.857
59.7768
176.915
156.875
55.5149
109.33
90.8786
45.1879
-32.4206
-42.0446
-87.8519
-161.399
-85.7264
77.2174
150.403
78.9677
72.7237
133.378
52.4559
38.5744
68.9438
19.2201
-13.2968
-71.5595
-80.0388
-100.846
-58.4617
-12.1885
-13.5291
-35.787
-3.3658
-15.7224
-61.0392
-32.6792
43.2533
142.465
117.523
87.9953
45.8216
-106.272
-94.3442
-28.8269
105.867
153.849
87.3707
-21.0658
-140.068
-305.792
-170.687
8.16551
38.3087
43.1662
-76.3122
-173.176
-191.777
-218.081
-71.8524
46.4053
73.4184
130.922
107.389
10.567
-67.3614
-31.3019
75.8131
151.468
268.26
372.904
249.333
74.2
19.4667
75.6613
214.219
193.422
69.771
37.6323
43.7101
-34.0496
-150.2
-209.055
-193.243
-223.255
-326.243
-294.336
-253.189
-191.732
-137.69
26.0701
69.8147
26.5723
38.4328
55.2199
-6.7015
-111.816
-173.259
-121.507
-41.8129
44.2477
158.757
282.618
271.661
230.977
173.846
-26.5715
-113.56
-50.7978
32.2945
90.8405
116.408
157.421
188.404
143.709
75.2655
69.3923
66.953
-28.7933
-89.5296
-161.282
-163.195
-153.486
-199.378
-170.259
-97.4938
33.0955
207.452
97.8129
-144.281
-187.236
-95.8732
-52.2757
-86.7931
-91.1188
-79.0141
-106.407
-101.648
-77.788
-48.1147
106.885
177.667
167.345
193.288
187.4
193.611
181.474
42.1197
-10.3572
31.7067
-80.9972
-90.7993
63.775
93.7187
-21.7195
-127.082
-99.8621
-9.89263
41.8702
57.9384
69.0136
36.1539
-11.3196
-46.0587
-15.2921
-51.4803
-76.6751
-99.0065
-78.9588
12.6758
-24.525
-73.14
-49.7692
24.5715
88.8078
90.1316
12.8336
-122.642
-111
-79.5267
-108.695
-152.442
-97.9543
50.6419
39.4705
4.32529
-19.698
48.1966
177.876
196.549
207.315
115.099
-93.7502
-166.266
-69.3463
133.288
292.088
313.754
241.623
168.845
96.7146
87.7247
10.5501
-146.331
-207.98
-177.647
-197.303
-226.643
-198.697
-159.111
-126.986
-103.305
-66.2693
-62.8328
-73.9497
-137.267
-167.038
-105.512
-39.5787
-14.7685
41.4218
155.231
219.55
168.868
138.544
116.375
136.249
92.1609
-34.7672
-183.902
-124.523
1.80473
111.914
197.865
346.49
482.922
400.875
198.419
-1.11069
-196.668
-381.286
-347.016
-182.394
-105.153
-127.935
-122.801
-24.279
-45.1556
-69.6128
23.1533
35.2917
1.66739
-35.0127
-54.7863
-41.1689
-76.7682
-56.4531
-5.29814
-32.9116
-42.9972
-18.143
-82.961
-131.354
-65.526
111.513
257.87
340.119
313.128
197.066
104.003
17.1674
-77.609
-202.34
-123.092
-31.3863
-96.1897
-150.196
-51.2016
64.6741
105.612
104.624
92.8199
-15.2516
-116.1
-165.726
-178.4
-133.943
14.7147
129.55
194.109
162.484
221.698
256.504
52.5937
-180.599
-274.569
-304.608
-403.618
-361.726
-147.827
136.117
328.991
485.106
444.798
290.56
102.712
-78.8777
-64.25
-78.9534
-143.829
-166.979
-195.674
-219.885
-310.398
-301.958
-144.571
19.6195
135.89
233.525
242.557
181.401
47.5792
-48.0254
-122.997
-101.568
100.437
205.258
170.312
190.895
197.373
82.0947
-27.0827
-5.41695
100.86
93.9392
35.3553
20.3638
-98.3696
-151.067
-72.4867
-96.5709
-207.459
-320.346
-193.177
-83.2192
-71.683
-71.7719
-45.3062
-21.76
-19.0913
84.255
92.6875
65.5162
80.5709
55.4524
-31.7723
-4.19688
122.771
230.304
264.84
284.678
242.73
86.4504
-106.268
-243.793
-230.714
-198.285
-192.004
-175.965
-155.459
-189.823
-177.592
-64.7674
59.8745
133.854
180.979
29.8712
-108.892
-144.52
-79.8721
8.60142
101.26
244.363
273.301
228.976
192.436
240.138
228.603
139.453
10.0497
-23.4913
-56.7235
-105.677
-147.769
-146.785
-184.906
-202.164
-84.6473
48.8057
39.4847
7.09275
18.343
7.88045
-45.9442
-25.4203
-77.3635
-140.226
-167.679
-92.4599
58.6826
148.484
136.008
96.8111
94.5589
34.6146
14.7531
74.8038
67.5924
-67.1048
-218.195
-253.88
-192.871
-118.587
-81.371
-35.09
65.5629
26.1783
-12.3425
28.5614
94.6304
162.262
206.045
170.95
85.1013
35.5239
55.3554
163.667
208.27
124.875
65.418
-36.5188
-193.896
-293.793
-226.214
-96.2548
-107.719
-95.0151
-40.8672
-11.8714
45.3051
114.944
57.8935
-13.3585
-44.4881
-6.50869
36.0403
-50.1941
-98.6653
-89.398
-76.4204
0.296587
172.794
232.919
189.804
71.8197
-20.6215
0.454782
23.0302
11.4074
36.2744
5.06735
-41.3014
-150.941
-97.1513
16.2474
137.475
222.363
280.536
219.918
85.007
-141.074
-412.953
-409.566
-145.815
80.57
100.51
55.8875
-60.4906
-142.639
-212.831
-246.795
-125.82
-5.97387
21.0565
1.9299
-71.614
-90.0048
-60.2907
-12.4299
81.0863
155.755
237.705
254.154
157.279
95.2805
126.669
82.5883
136.397
191.136
151.45
55.5377
-41.6005
-83.7393
-190.79
-385.273
-482.292
-266.003
3.14786
124.289
145.902
185.49
186.711
144.566
69.3362
-22.1434
-28.7865
90.1428
78.6271
25.88
-47.3065
-65.6336
-61.435
-64.1959
-9.82197
112.546
241.942
160.743
53.7665
-3.29481
-86.0011
-116.681
-129.049
-122.884
-172.628
-190.785
-145.336
-165.324
-187.795
-224.223
-173.212
-46.5361
69.5945
111.005
101.374
131.541
118.808
126.754
149.745
186.069
190.097
105.618
26.2783
-18.7643
-18.4515
-2.57498
-7.58789
-6.61706
13.7565
96.9533
64.8133
-24.0031
-100.024
-139.196
-84.2188
13.4489
-13.668
-34.7222
-63.1663
-140.67
-140.204
-20.4333
45.0906
66.9595
151.071
235.105
172.34
91.0473
93.052
-4.83776
-42.4881
7.29208
12.2149
-2.83447
-19.0942
-83.4285
-72.483
-43.6101
-84.4715
-100.933
-108.388
-91.4226
-34.8773
19.4463
-3.89197
-142.628
-154.707
-79.4158
-42.0121
76.1768
177.516
198.004
226.369
188.632
87.2538
-7.70069
-25.5976
-65.3266
-161.605
-197.647
-192.153
-204.189
-78.3611
105.28
148.75
191.475
249.982
168.027
-2.05906
-101.005
-127.655
-139.407
-123.835
-33.655
35.6072
32.5559
-7.13518
-63.5911
-33.0933
48.9258
102.711
100.149
30.9684
-17.1528
46.6483
110.385
76.9136
87.8626
193.735
169.026
-78.2104
-214.457
-177.782
-93.9913
-23.5105
-11.1519
27.8245
86.6127
62.6248
-36.845
-123.008
-22.6341
56.077
-47.5857
-144.213
-185.644
-215.502
-184.855
-136.078
-76.7832
122.33
287.958
255.631
182.321
158.455
215.871
179.074
113.639
52.4139
76.9878
38.4998
-112.175
-183.144
-195.503
-188.029
-195.903
-209.56
-184.489
-100.128
-57.2968
8.97694
35.5048
42.0995
32.5481
2.30868
-14.9923
67.6328
22.8262
11.2197
-43.4066
-6.63927
100.466
152.451
199.357
227.819
235.453
-72.7484
-71.8347
-81.8074
-25.2237
-20.0162
-26.4093
77.5168
127.597
149.674
5.80417
-126.33
-85.6685
24.6438
121.642
127.253
148.575
52.4633
-149.329
-217.847
-160.953
-90.9447
-56.1677
-81.9064
-109.902
-0.587131
-23.1228
-160.431
-174.806
-124.48
-118.729
-137.659
-134.382
-92.888
-36.2004
-33.2251
17.2124
94.2047
194.557
190.568
119.661
46.591
71.4518
145.891
212.68
185.417
137.504
72.0796
20.5489
56.3463
129.452
202.704
256.347
242.786
118.227
-48.7957
-264.938
-290.613
-260.402
-203.903
-158.317
-9.28247
52.1179
18.7878
-26.1291
-96.3505
-114.751
-100.793
-80.9623
-83.1532
-121.192
-129.817
-131.751
-192.202
-129.943
28.7582
148.887
215.438
207.321
152.731
149.611
121.931
90.1321
78.0674
32.6791
-58.5004
-104.646
-86.9053
-56.443
-51.5949
22.8668
76.808
45.3541
69.6564
26.1236
-23.3542
-39.2475
-69.848
-89.7849
-43.4721
-5.34348
-51.6421
-62.5326
-54.1964
-36.2066
55.3205
109.803
151.771
288.488
314.818
198.727
82.9377
-24.8427
-137.917
-246.711
-277.224
-285.945
-250.423
-97.4564
-42.3022
-0.491802
29.2556
67.0857
105.167
138.73
122.929
125.748
54.902
-100.955
-169.703
-193.424
-88.4585
126.651
196.622
192.627
188.689
136.896
58.483
8.19515
2.29527
-40.9336
-82.5923
-105.493
-90.9903
-56.044
-61.6247
-82.8334
-79.8524
-101.934
-163.707
-77.6039
-38.0259
-28.0944
90.0956
252.795
323.551
220.709
64.8113
-86.2704
-204.509
-240.466
-67.3199
9.40781
-12.3083
-8.24433
14.5099
-52.9402
-93.193
-85.745
-19.1666
90.3001
112.347
69.9957
82.5046
54.2797
32.9835
32.9139
-82.1959
-57.809
80.4466
122.73
18.2818
-3.61212
31.6202
-30.6927
-19.1811
89.7755
53.4827
-23.9261
-104.164
-172.293
-144.255
-87.0161
34.9977
203.649
280.059
256.013
192.02
64.367
-156.497
-310.331
-263.976
-75.55
81.759
100.702
-30.1109
-119.21
-115.269
-105.859
-69.6687
-20.56
5.75863
33.2714
-34.138
-129.83
-210.877
-160.737
-2.65888
71.7119
157.367
257.317
259.126
147.06
20.6744
-21.6835
-31.3313
4.53384
77.3781
17.8121
23.8447
44.3582
54.8148
33.6869
-23.0474
-81.8922
-100.326
-54.8627
30.6544
7.38246
-98.3472
-37.678
-75.372
-108.553
7.18299
107.903
257.55
254.36
171.88
153.576
52.6526
-59.4257
-128.58
-262.085
-329.415
-271.644
-159.778
-36.3263
-3.05649
49.1202
207.502
263.428
196.518
91.1721
31.2633
20.4007
-94.6438
-179.827
-186.207
-137.458
-105.359
-49.5104
19.1696
74.9183
101.748
26.1341
-77.9015
-194.3
-131.044
24.6843
86.1656
143.452
159.132
104.207
-76.5525
-185.24
-172.053
-10.7748
196.849
289.458
298.232
202.497
37.3763
-90.5612
-136.985
-51.8458
0.679283
41.8697
15.2728
-26.5123
-28.4023
-122.685
-128.822
-47.163
30.1872
57.8817
37.1988
14.6342
13.2644
-19.8021
-60.3723
3.9494
134.723
132.122
33.9188
-67.536
-185.604
-119.846
65.8039
12.8762
-44.7482
-37.9043
-61.7559
-76.2963
-96.9316
-80.267
-36.5797
-28.5918
-15.0428
-18.6769
18.3097
31.9775
21.9272
83.3042
127.507
145.18
216.408
146.44
-46.2154
-159.576
-180.741
-194.014
-19.1813
70.1786
96.5484
141.464
140.088
73.3419
-22.7783
-11.5336
50.839
5.63147
-86.5061
-133.302
-141.858
-147.739
-89.792
-82.7067
-51.9072
44.8272
96.0014
145.7
217.989
303.081
256.526
155.554
65.5105
15.1559
-54.4049
-118.585
-254.623
-293.564
-211.86
-132.572
-82.5196
-84.5539
-84.4043
-43.5735
-47.8204
8.63021
169.856
198.525
68.767
-46.0688
-46.109
-63.8823
-97.3603
-36.1632
71.6643
84.2211
116.943
128.389
81.5503
43.1213
10.728
12.022
50.1876
114.052
171.93
107.895
-40.9695
-113.665
-145.944
-183.421
-154.556
-82.9845
-15.4103
-50.0871
-142.795
-145.351
-65.0898
-28.603
-38.4817
95.9032
270.863
254.97
116.797
32.3559
-7.9873
13.789
12.5286
-16.4033
-16.1685
51.6615
60.1156
17.2771
-18.9335
-22.3314
-26.4952
-13.7059
19.3109
104.988
86.2127
12.8154
-82.8914
-71.1168
-42.0701
-86.4793
-228.655
-243.13
-136.989
-80.0179
-33.9979
-26.9651
4.01912
64.0105
164.635
227.753
234.109
162.065
64.6802
-65.2685
-130.735
-118.771
-114.642
-132.952
-102.621
-9.7861
127.238
160.939
107.036
96.1548
29.7725
-48.4096
-32.0303
72.5937
124.223
76.5984
-29.9755
-111.85
-244.747
-293.498
-145.172
18.6519
203.736
306.551
284.452
132.497
-6.97509
-23.4203
-14.1346
6.61833
103.495
44.6047
-40.7487
-133.474
-208.983
-244.759
-255.651
-234.924
-41.4139
144.458
213.776
117.11
-91.3006
-157.667
-76.4886
14.5599
155.478
171.074
102.606
10.2957
-132.068
-114.803
-71.2724
-101.191
-54.6318
63.4723
148.048
210.492
199.62
137.388
-1.97769
-99.0877
-90.2119
-72.6842
-20.5625
49.8164
68.7161
120.077
164.211
98.8223
-64.1528
-189.306
-169.052
-58.5802
-37.4629
-68.746
-51.5887
0.439379
36.515
36.573
34.4023
-36.2981
-53.9878
-2.15579
27.4503
67.9355
68.4852
7.56024
-70.1236
-55.5702
-25.7748
128.366
203.47
102.73
13.4991
-10.5423
-11.0563
-11.5614
-29.3424
-92.6034
-145.69
-207.991
-153.321
-98.8241
-175.042
-199.552
-119.97
-21.1766
38.3628
119.665
215.574
163.69
54.1081
34.5329
80.2044
132.549
143.501
162.664
170.875
190.161
137.919
123.124
1.37144
-101.136
-2.04706
-61.9323
-174.046
-209.18
-200.055
-182.641
-131.666
-40.9169
1.59479
-0.414164
0.814537
-27.5932
-30.3236
-19.4657
-17.0515
54.1696
92.9752
117.728
102.117
47.5773
-62.4565
-41.2077
-21.6949
31.5224
92.9448
123.319
91.6468
-38.9669
-120.108
-108.458
-124.713
-145.243
-59.1467
59.6402
47.0788
29.2318
109.241
190.554
166.444
104.833
27.6269
-40.047
-81.5214
-192.25
-285.959
-213.194
-82.9437
8.03486
42.8175
68.0922
142.234
186.912
37.99
-79.6711
-49.2237
4.92299
-65.6191
-129.163
-13.0557
38.537
113.984
233.213
240.805
169.926
91.3299
-11.2985
-65.7173
-81.9329
-16.6557
44.7128
-38.9838
-239.201
-284.664
-150.975
25.4111
29.6091
75.4354
116.957
28.8322
-1.54244
-40.5162
-76.7102
-65.6773
-48.5989
-10.13
-6.16336
18.8345
71.7313
39.0094
-17.848
-52.6512
3.41467
123.842
90.8681
-3.67439
-45.8511
14.3586
8.25124
-11.4764
44.3156
46.1123
-62.7959
-89.4747
-8.37365
46.4232
55.4119
-11.9754
-40.1426
95.3741
131.359
75.617
48.8994
35.2651
16.8183
-53.8204
-107.194
-176.01
-144.156
-56.7665
-65.5595
-44.9961
41.6184
101.209
117.885
77.888
99.9467
173.233
160.12
-0.215348
-216.068
-365.549
-379.321
-301.92
-227.945
-81.8652
67.5252
123.261
193.525
186.387
174.447
214.489
247.544
169.932
112.731
131.26
74.5203
-7.59687
-44.546
-79.2407
-38.9118
65.947
71.6066
44.9972
-11.1652
-106.627
-101.789
-67.567
-110.385
-129.338
-146.668
-159.103
-149.077
-159.334
-93.646
-49.8882
-106.797
-127.897
-22.7221
154.045
359.977
426.885
414.052
290.792
146.466
30.6858
-141.961
-300.082
-361.392
-281.478
-114.465
-62.2641
-70.3873
0.118571
-36.3086
-29.2641
52.489
63.5909
-16.5371
-159.232
-212.915
-75.2562
120.187
240.074
301.36
408.147
395.652
306.031
205.386
49.3064
-76.9261
-168.017
-247.174
-294.767
-259.211
-112.406
-50.2382
-13.7769
-19.5471
-17.0565
-85.8194
-179.801
-234.072
-144.532
-19.7161
46.1658
106.217
138.521
103.82
71.0285
68.1706
100.555
151.206
211.245
222.151
117.675
-17.4472
-134.406
-133.974
-103.548
-96.8709
2.74003
32.0873
-53.682
-102.603
-167.987
-263.252
-208.481
-91.1965
46.7223
130.93
149.711
229.746
208.371
95.5827
27.0656
40.2516
82.1051
11.4921
-31.0139
-22.633
-62.4608
-45.787
15.875
78.8605
136.313
164.71
112.373
93.9647
15.6477
-112.105
-227.527
-258.249
-156.197
-165.328
-222.115
-169.683
-89.5313
-8.05093
-8.78212
69.2435
102.334
39.2586
3.46454
5.51163
5.13706
74.426
102.141
81.8794
179.804
202.761
162.893
8.0338
-135.443
-105.425
-76.914
-114.268
-88.5092
-23.1955
39.3154
32.963
71.5775
90.6504
36.0399
7.34542
-49.6846
-125.638
-127.515
-87.7751
-53.7737
10.0096
51.3928
80.774
81.9023
79.1538
181.169
282.967
276.163
189.217
64.673
-34.8368
-127.993
-152.596
-83.5787
-97.5587
-141.034
-39.837
113.711
18.5607
-166.445
-267.102
-214.29
-183.366
-134.763
-56.6079
-36.4561
-24.58
4.42881
44.1491
79.5094
28.6436
19.9916
76.8696
77.9662
69.2327
59.8865
-98.0567
-181.475
-100.476
17.5143
183.928
237.069
226.894
217.552
209.193
122.641
-23.1561
-31.984
19.857
49.5373
29.1596
28.319
15.3758
-33.1499
-130.235
-201.454
-227.605
-240.045
-129.728
-59.4841
-62.2269
-100.483
-35.7095
-12.802
-12.2952
43.8509
123.626
58.2952
-7.51956
-30.0206
-15.2438
-47.1875
-8.79579
134.737
207.758
278.259
354.209
305.114
129.759
-114.396
-327.267
-275.105
-221.675
-191.978
-143.329
-61.0463
15.394
50.5086
58.9083
87.8219
166.285
168.601
-1.31452
-182.168
-217.04
-218.412
-130.961
-17.9388
196.807
325.604
275.529
171.751
104.157
79.3307
69.6884
-6.08984
-60.2705
-56.5937
-72.5214
-55.4089
-27.0924
-94.4151
-171.702
-224.237
-222.589
-192.093
-174.405
-131.995
-123.274
-70.7233
98.5998
143.777
173.005
199.438
132.154
50.0402
16.1511
23.1425
55.2982
8.0749
-1.56546
85.6011
214.792
218.433
116.811
65.4729
32.9305
-40.2841
-94.3042
-82.6879
0.850565
41.0221
-16.1092
-43.9661
11.5246
57.3952
53.9949
-64.3768
-76.9829
-35.2203
-37.4551
-70.4522
-91.3245
-80.2372
-45.643
-14.4908
-66.7426
-83.418
-91.0127
-96.1966
-161.381
-141.719
-17.2311
53.7622
-18.2408
-53.8514
-16.4174
49.0846
68.7887
71.3211
39.2496
-11.2928
-70.4201
-8.91564
42.2207
87.4115
169.558
243.138
243.395
192.929
177.999
235.801
150.05
28.7922
-30.0329
-36.5498
-52.9959
-57.2053
-128.981
-114.174
-91.981
-106.745
-115.291
-142.991
-70.5899
7.95166
14.3859
-76.8121
-196.507
-161.174
-75.7178
-79.8608
-65.8128
-77.2588
-46.0412
-34.1397
29.3246
40.8902
102.965
92.3091
111.868
157.048
167.229
162.034
171.759
93.0458
15.0338
-0.759883
41.1545
60.3023
-5.42607
-115.583
-115.47
-34.7187
4.9158
-76.1306
-149.485
-136.042
-151.868
-97.5342
5.09729
98.4333
127.622
68.9061
25.9
-19.5853
-84.0227
-103.178
-45.9304
31.3554
94.9741
206.023
228.998
132.827
62.5469
47.4677
-75.0167
-158.909
-148.709
-86.8876
-196.352
-175.457
-47.1524
2.29538
52.6137
77.2575
104.83
164.511
168.675
33.8311
-94.7903
-228.356
-217.771
-124.665
-32.6795
121.009
323.241
358.852
252.182
71.5907
-20.388
-183.2
-282.928
-156.797
-41.3563
-32.2582
-1.24625
21.1934
17.5726
35.8559
41.955
61.2003
57.2068
-30.3034
-94.2832
-113.366
-131.448
-77.2274
12.6374
18.5725
-13.7885
20.4375
102.513
92.1964
37.483
12.7182
32.2187
23.3796
5.00035
31.9522
76.4468
18.9302
-84.3359
-119.51
-154.315
-178.816
-131.262
-17.0312
30.3453
33.5557
82.2782
195.352
225.192
142.122
-25.8801
-47.0304
5.14087
21.1197
12.5736
9.283
7.90714
47.7107
89.8507
94.872
50.188
-16.4695
-93.6926
-178.269
-164.834
-73.5363
49.6568
88.7102
145.161
136.46
77.0515
75.6462
16.4754
-91.8134
-124.398
-146.282
-163.628
-174.877
-205.286
-143.612
-56.6713
-23.0065
-31.3656
-81.2709
-126.055
-34.1735
62.8677
96.818
58.5903
109.374
171.665
106.881
64.6629
82.2876
47.5806
92.605
103.15
-4.55349
-87.7874
-57.296
26.294
60.6411
35.9279
91.5136
114.658
75.3613
49.2625
-4.52871
-84.9437
-76.3072
16.8031
109.331
96.5668
32.2172
-45.8414
-150.054
-162.12
-63.634
44.6244
89.9858
57.0362
69.6287
48.0572
-33.953
-112.692
-192.597
-257.036
-246.296
-132.685
-42.1851
-17.8789
21.6724
6.20055
0.265216
56.9013
42.9665
112.661
169.33
228.057
188.003
104.385
15.6863
-28.627
-51.1291
-54.9793
-67.8856
-7.22166
43.0461
77.8447
9.60335
-95.3947
-171.038
-227.521
-129.476
144.75
260.776
150.25
32.535
-119.587
-199.208
-185.532
-125.309
-25.271
43.1673
141.621
243.88
254.607
163.242
34.3227
-99.6884
-227.17
-270.312
-159.335
-67.2395
-174.741
-120.95
87.1487
181.294
204.721
178.174
171.771
111.727
62.8853
94.1376
77.8551
-3.36941
-97.6138
-97.7123
-66.366
-28.7615
25.3934
46.7836
87.6846
71.9372
8.81846
-83.0238
-157.577
-164.239
-176.295
-113.07
2.94162
101.909
81.3019
-28.8375
-89.3282
-100.713
-44.2915
5.25059
-27.8547
-48.976
-20.1539
91.1003
200.7
210.184
138.505
92.8545
-6.90337
-73.6294
-163.449
-245.359
-211.938
-135.403
-12.4122
161.064
290.841
310.096
237.333
127.861
33.8392
30.501
-39.3827
-228.352
-312.517
-201.695
-74.2053
-65.4462
-86.669
-86.4483
-20.4328
120.711
106.34
98.0238
144.19
114.87
49.2651
29.2955
-59.7215
-121.736
-62.1512
-44.8272
41.5859
108.638
112.774
19.9267
-48.6199
10.5445
17.7758
-18.4418
85.1972
146.394
58.977
-203.354
-349.43
-228.997
-156.33
-156.107
-0.158913
111.227
71.1115
29.5576
16.7013
86.7745
220.228
240.546
211.721
196.702
177.75
159.643
45.1776
-131.983
-160.41
4.17048
12.9215
-119.108
-188.258
-214.885
-293.23
-322.016
-223.49
-78.6378
-19.6344
-57.628
-80.0958
0.179538
55.4247
-17.846
-32.5088
114.473
234.602
366.214
396.584
292.537
161.111
-15.9763
-187.036
-165.656
-40.7864
136.307
208.381
186.891
138.486
52.4076
-128.516
-285.509
-244.991
-105.696
18.5336
15.1674
-3.06667
-58.7645
-102.102
-112.536
-57.1197
24.3731
40.3296
-17.254
-59.6235
-185.758
-225.829
-45.6921
92.4003
185.129
108.324
4.43344
-17.7519
-20.5536
-21.3576
-6.54527
32.6643
95.3439
52.3711
-2.19997
78.63
203.092
311.104
303.104
151.066
54.6381
-91.0991
-322.292
-355.307
-272.129
-145.82
-31.9268
-15.6411
-11.3136
-78.6766
-139.745
-168.538
-176.392
-74.0898
8.06068
20.6891
151.478
263.802
239.932
183.187
78.2866
47.8095
26.0398
28.389
109.228
118.727
70.0517
99.194
89.0783
93.1891
64.5253
-48.7915
-173.83
-159.864
-95.7512
-117.714
-268.28
-259.443
-140.436
-11.4491
5.34764
7.80379
101.932
98.7435
-26.7523
-53.125
45.9172
102.039
69.8768
74.3743
121.225
194.757
194.83
71.5723
3.70652
8.46899
0.455002
-98.3514
-219.048
-217.835
-88.2232
1.79043
-3.14449
-25.2691
-80.0688
-109.198
-81.6774
-31.2337
-35.1779
-35.3793
-17.8221
-25.8228
23.6486
74.1125
80.9498
89.7564
150.22
161.832
171.566
151.062
123.403
-9.68451
-120.656
-135.687
-31.1329
74.6738
60.3868
-41.8034
-93.0872
-100.942
-148.05
-189.395
-141.083
-28.3241
-18.9078
-41.7624
-43.2262
-4.39225
37.9624
48.997
187.716
311.573
246.316
182.883
109.931
37.3242
8.85041
-17.4855
-68.7568
-175.651
-252.125
-169.477
-77.8969
-25.5683
-8.19013
-85.2555
-72.6614
-77.1675
-116.441
-91.1202
-107.38
-51.9106
85.3845
92.7661
113.23
222.144
258.264
224.514
208.998
169.642
101.36
-45.8881
-156.434
-140.796
-11.1351
76.6526
-28.243
-63.0907
13.93
61.3615
-37.9724
-147.957
-190.226
-107.506
-57.0552
-52.1087
-112.452
-195.143
-235.939
-210.578
-91.6678
35.9377
197.418
273.828
222.471
153.877
112.162
73.022
44.0363
-19.1527
-9.58248
-24.7513
-71.5551
-77.0951
-42.7023
-21.0006
-39.0221
-18.2339
62.464
100.854
173.189
232.739
142.527
-10.4063
-154.772
-257.121
-249.584
-70.2199
65.1279
122.181
108.693
89.8341
98.8111
48.9345
-14.6758
-65.5034
-78.9343
-56.317
-48.3122
-46.9516
75.076
206.167
71.2136
-67.4341
7.82942
31.1058
-74.4111
-143.539
-161.837
-171.638
-111.723
-7.37043
24.6823
66.9068
90.7813
8.89961
-46.7839
-71.2172
-72.575
-8.75163
-8.92867
-76.6786
-22.6465
66.2696
84.3987
117.476
131.544
46.2744
-21.6548
-43.2701
-64.0427
14.8211
172.153
224.342
187.478
124.612
54.4804
18.2602
5.55897
-31.9378
-159.595
-184.824
-152.087
-132.369
-97.1032
-61.1159
29.8917
63.4166
63.3884
34.7804
29.4314
-35.4656
-178.07
-254.977
-180.665
36.2219
189.848
268.292
243.146
205.762
139.559
0.676698
-134.019
-151.303
-191.108
-174.198
-147.736
-118.541
-80.0474
-63.8025
-0.530453
50.4184
119.253
164.776
174.466
140.454
62.9127
-38.3845
-29.6417
6.33341
53.1891
71.202
100.031
67.1818
15.0201
-2.15696
-48.213
-65.5302
-59.8416
58.1997
76.4093
-34.2301
-132.188
-184.404
-227.554
-263.298
-136.922
-11.214
85.3115
138.814
108.875
95.6438
86.4492
-15.4945
-68.8143
14.7021
104.086
92.251
106.131
75.0192
23.4411
57.528
133.646
192.456
132.956
8.40968
-134.917
-189.587
-204.236
-241.286
-206.618
-99.3987
-31.3481
60.5908
86.3921
62.7053
58.5814
83.6538
85.9311
28.9203
-42.1943
-48.5315
-39.5353
-73.6167
-37.2903
59.4695
117.262
86.5605
-23.8818
-72.5515
-49.5291
-34.5157
-7.53662
8.65356
17.4137
-3.9178
6.72373
-46.0914
-83.5135
-25.13
16.132
42.5552
35.9765
53.342
2.77144
-98.7408
-132.972
-49.6298
56.7223
131.412
198.142
211.354
108.808
-31.0485
-70.1027
39.156
146.678
141.136
46.9468
-65.9725
-106.548
-150.562
-214.358
-208.2
-199.926
-127.88
37.9127
114.304
59.4707
33.8256
-13.3579
-32.5018
24.1037
89.1099
106.795
7.7959
-231.983
-349.15
-286.808
-142.008
86.984
312.535
439.495
442.989
362.149
260.613
101.899
-83.7028
-227.139
-270.006
-273.982
-207.341
-87.3079
1.82832
72.9483
98.4556
104.233
133.13
171.084
119.627
29.3698
-48.1643
-101.706
-233.321
-335.095
-322.214
-225.369
-120.711
13.2712
41.9448
55.9486
92.7636
91.5186
80.9868
140.515
218.372
272.497
254.589
119.923
17.6555
-85.569
-191.458
-184.179
-103.11
42.2881
100.933
140.428
39.3335
-76.8428
-119.376
-116.712
-93.0616
22.9251
67.1487
-13.2272
-74.2768
-30.6891
44.9542
100.042
106.893
5.97055
-158.826
-197.793
-110.538
-49.8611
-15.8663
-69.1782
-6.69578
127.588
160.803
140.606
61.4016
-54.9802
-105.021
-113.326
-109.394
-47.5125
17.0218
104.648
201.461
221.669
211.468
115.368
-39.4976
-55.4918
-63.4925
-69.4465
-73.28
-16.2653
60.4936
65.7227
-37.2865
-177.948
-173.488
-97.434
-102.544
-143.259
-84.5771
-1.64336
-26.6178
77.82
339.79
353.685
210.095
100.278
6.58731
-74.0579
-63.0979
-42.2253
-24.9887
-86.3897
-65.2127
14.8193
-1.0986
-31.1029
-4.8664
-44.9895
-148.557
-324.18
-337.25
-232.538
-121.436
48.8213
218.497
305.617
326.911
208.413
165.145
126.813
45.7089
-23.3813
-62.9702
-107.012
-95.0121
-51.5029
43.2128
53.7984
52.0534
65.3199
35.6287
-34.3213
-145.315
-250.242
-217.607
-158.04
-105.647
11.6372
67.0306
40.8092
27.2209
84.2192
157.278
246.755
231.052
142.777
70.0476
103.678
72.6354
29.7305
-0.246907
-82.9885
-119.474
-150.005
-165.563
-154.351
-50.6551
32.4694
-30.9969
-99.6897
-9.22036
-8.5693
-101.097
-89.7587
-39.317
-16.1318
27.7603
92.4263
62.6207
48.974
21.379
-22.7915
-118.131
-85.3175
89.566
34.8988
-55.763
-34.2116
34.2713
130.427
152.358
97.8848
61.3546
14.1093
-11.3013
57.0022
106.933
36.0267
-4.38459
-22.0773
-27.6095
4.72024
38.7584
41.0551
-26.6362
31.4317
26.2118
-18.864
-4.5305
-35.8709
-145.397
-155.46
-157.122
-195.917
-82.3334
10.4193
-13.5926
-58.8282
-16.6923
43.7905
39.1139
20.6653
69.359
56.4984
61.953
20.9742
-20.5995
-67.7716
-116.569
-85.4535
-27.4047
113.993
262.929
297.774
218.614
40.588
-114.131
-108.943
-36.053
22.7924
154.735
213.722
124.517
52.6851
-107.548
-208.337
-110.087
-67.777
-51.2454
4.36571
33.2289
-8.6565
-108.214
-201.632
-258.203
-159.68
16.0605
35.4646
44.9464
-3.53601
-152.561
-154.361
-80.0732
-3.62535
83.7972
146.662
118.252
123.306
156.135
120.266
71.1073
57.3337
51.2351
108.134
85.7225
23.3482
-137.083
-150.886
-70.7432
60.8891
143.675
117.271
38.3351
-2.52825
-12.3911
-10.0978
-40.8067
-51.444
-83.7272
-64.2079
-76.3201
-46.9841
36.9687
65.9173
54.1601
8.96762
4.55796
65.7354
-49.4332
-147.156
-146.006
-127.721
-115.222
-169.107
-147.078
-38.4548
84.9281
128.433
147.15
130.146
125.509
70.5983
-3.34401
-39.4562
38.8063
89.2656
83.8674
53.1716
65.8403
53.7097
25.2559
-48.5376
-3.18524
71.9355
57.6768
11.8434
-76.9491
-110.819
-108.553
-150.181
-97.2911
-56.669
12.879
3.3915
-40.9255
35.9653
10.5776
-102.492
-5.50215
45.8446
27.4147
41.944
12.8041
62.5118
80.3334
41.7201
57.4003
112.608
116.162
35.8402
-26.3757
-47.3148
-110.27
-98.5622
-80.4608
-93.7504
25.4179
95.2421
-41.1075
-140.098
-60.7116
30.1324
28.8387
-53.4408
-99.0052
-49.3668
-18.051
-11.1519
39.7732
132.188
128.784
69.8597
-0.749367
-10.137
-66.9774
-116.082
-62.0009
50.6805
196.611
235.592
170.401
140.459
41.4685
-70.927
-139.152
-145.029
-140.676
-115.696
-49.9189
13.148
37.6877
32.2841
22.5306
-3.56871
44.3388
41.7827
-15.8242
-9.26499
-90.1319
-109.939
-59.9907
-68.2032
-36.4123
75.1118
187.279
150.13
143.606
154.134
67.7864
-37.6191
-135.966
-162.965
-132.271
-122.08
-55.863
17.8142
-56.0062
-117.532
-27.9815
4.27269
-80.1961
-159.399
-48.1137
112.696
178.214
248.412
201.996
74.4025
-25.5134
-79.2897
-32.2327
22.9074
121.331
174.344
88.5507
-87.5989
-129.461
-110.229
-122.578
-98.7377
9.68587
143.809
77.2611
-35.2997
-29.1626
-16.8561
-48.4743
-92.2788
-102.302
-66.267
3.69353
39.6845
33.4548
71.9808
86.7642
111.059
134.314
82.3955
12.264
5.14133
-61.8425
-98.0332
-51.2341
-37.5526
-81.6687
-153.505
-185.735
-105.503
-55.6007
-10.3753
17.0236
45.6885
74.1351
106.84
113.558
144.227
149.459
90.5174
23.6166
-9.54901
-2.6949
33.5159
40.8496
49.1924
15.4458
-3.74812
-14.7102
-57.9848
-63.4916
-50.5491
-38.9786
15.1533
9.03129
-109.669
-219.932
-255.416
-230.939
-116.162
32.3827
123.971
160.619
123.127
130.129
102.608
40.0923
-39.5359
-92.4404
-37.634
40.1719
121.652
157.094
102.906
23.4362
76.3243
190.346
177.729
29.2196
-167.519
-301.284
-406.893
-200.643
7.67035
103.072
162.271
151.587
139.525
235.412
196.649
49.1697
-140.931
-238.886
-205.635
-145.239
-122.55
-115.613
-112.047
-25.0194
57.7781
69.4064
102.702
12.158
-26.953
-17.5785
-34.9912
-36.0465
-10.162
-20.7329
-16.1531
27.9719
50.7598
87.8999
99.8851
65.1289
13.2673
17.7334
69.9252
68.4254
115.55
159.187
204.395
38.5505
-150.243
-232.112
-209.856
-165.447
-155.922
-145.199
-48.1301
7.06206
93.0985
209.189
231.918
252.01
225.266
86.959
10.9919
-115.456
-247.36
-235.731
-172.427
-25.182
88.0028
52.2751
58.7343
72.7135
40.3103
-49.147
-100.491
-71.1007
-78.266
-164.174
-196.903
-175.671
-123.017
-42.394
19.9193
103.967
164.96
164.195
87.9118
64.4891
105.998
100.091
69.6318
45.467
44.6241
71.2153
85.992
78.9044
-34.488
-53.0581
-66.6336
-78.8894
-73.4494
-57.673
-2.12447
132.664
168.51
112.646
118.051
-0.589172
-160.363
-143.833
-94.1235
-24.9195
29.2329
45.8479
-60.4288
-92.1356
-40.5789
-121.049
-107.114
-125.789
-104.294
39.0646
45.4367
-17.9313
-22.9901
27.8107
36.6798
6.37927
-35.6699
-23.5989
-23.9604
-64.7336
-62.8741
28.5077
137.923
192.037
187.442
137.767
102.576
33.5065
-109.57
-204.679
12.394
176.208
105.871
-46.633
-74.1365
4.25073
81.1397
124.458
107.224
138.589
111.537
22.3142
-37.1986
-88.0327
-75.7676
-60.4552
-89.7014
-86.0168
-55.381
-67.3427
-172.695
-149.52
-100.685
-37.8732
-51.8023
-77.8858
-48.4323
-56.7308
-135.436
-191.751
-132.929
-110.523
-68.1576
42.3978
226.823
378.19
346.872
231.779
218.255
192.273
78.7967
-60.4697
-28.3036
1.69185
-8.64551
-43.7282
-134.553
-124.444
-45.2699
26.9875
30.1809
42.3312
29.8237
-18.2823
-82.1412
-141.278
-168.756
-39.0092
33.3487
65.9938
46.0025
-17.0586
-76.0381
-42.9988
38.231
111.903
99.9461
10.5425
-25.2988
-6.70584
28.208
55.186
74.655
75.7501
-33.32
-157.275
-180.904
-129.877
-58.991
2.47618
72.6868
133.21
135.937
64.6579
44.3548
95.544
150.166
138.503
95.8697
7.21284
-119.194
-205.849
-202.892
-170.859
-207.52
-221.404
-236.033
-148.435
57.9729
152.495
182.052
201.261
232.999
168.103
-53.0037
-196.36
-114.823
-69.6383
-58.9115
-13.9553
100.277
180.997
145.669
65.2357
97.262
154.761
151.54
81.3313
-87.9184
-184.658
-231.432
-254.079
-183.698
-41.9725
103.719
244.598
276.776
276.292
144.725
-3.64418
-105.204
-155.643
-114.067
-5.07379
27.4276
43.9872
50.6767
-16.4619
-100.944
-89.9172
-155.063
-326.878
-374.171
-273.556
-141.869
-77.7322
-47.4588
55.7569
157.215
136.266
175.054
219.285
166.728
23.5364
-4.30881
56.5381
178.096
227.476
281.011
230.358
177.529
152.502
87.8696
3.71748
-21.0717
-26.5215
-47.8172
-166.758
-215.165
-192.778
-241.07
-318.644
-217.408
-53.2023
-4.6727
4.73193
72.4506
34.6923
17.8767
12.7546
10.8313
34.0022
-19.9937
-107.804
-185.411
-150.812
-60.0901
-42.9237
-6.44021
93.3697
142.241
176.225
184.818
171.44
135.687
40.5644
-67.9683
-83.3238
-67.5927
4.36667
92.1073
150.633
183.927
150.175
149.166
43.6181
-85.6003
-127.433
-106.953
-89.7969
-41.2093
-44.8529
-52.6877
-19.3249
-27.5739
41.5062
56.803
3.65515
-54.3928
-114.222
-58.0631
-74.768
-82.8869
-40.8687
-55.0893
-75.1372
-101.138
-61.5376
15.8741
4.33308
34.9059
85.0229
28.6492
-108.092
-116.334
-16.8304
67.8107
100.283
93.8526
103.883
71.4
111.821
142.742
107.948
162.872
192.592
10.8857
-34.4377
-80.8005
-168.625
-186.77
-116.021
-121.071
-15.3351
138.834
77.705
-26.437
0.144547
6.74174
-83.7214
-160.586
-74.474
-9.46031
34.3334
-22.9543
-57.8705
116.718
192.044
142.782
191.198
192.957
146.999
99.152
-28.9911
-152.959
-175.756
-217.66
-256.705
-124.599
-1.02556
31.5155
40.3037
56.0438
15.354
-32.7506
-93.9326
-164.873
-194.75
-207.46
-160.199
-66.8874
35.1267
165.316
174.643
134.608
169.619
288.802
329.388
167.109
43.3593
-0.998338
-15.2837
-61.8743
-92.5424
-107.73
-125.671
-145.875
-141.512
6.56643
93.2177
-8.41277
-62.3797
-26.7866
4.43477
-4.28503
0.24084
14.1935
-36.6667
-49.5282
-22.6921
-61.3645
-96.4333
-23.8507
143.178
185.294
121.459
159.934
139.526
98.7145
52.4217
63.466
53.1981
-21.1869
-40.7358
-37.2912
-124.094
-147.288
-118.387
-104.827
-92.634
-111.618
-185.939
-211.589
-252.628
-162.562
99.8647
296.924
416.408
407.432
266.962
24.3138
-147.383
-240.402
-141.958
104.076
204.168
126.318
12.0211
-126.184
-216.077
-105.76
-14.4473
49.5086
98.0729
24.7056
-44.7182
-124.81
-155.373
-104.863
-32.8314
27.3286
52.8465
9.33136
-96.0768
-161.59
-124.629
-102.017
-46.6862
64.5111
207.443
228.164
184.253
61.2778
27.7494
94.1111
57.2138
-10.6349
27.6882
133.174
134.326
85.8876
23.6925
-26.253
-16.0194
1.60819
-8.31534
-46.0132
-21.4366
-46.0579
-56.9288
-36.5718
-30.9675
-42.8911
-64.8002
-63.0894
24.7385
51.3322
3.84955
-113.829
-156.587
-112.933
-130.298
-221.934
-212.38
-119.303
-50.9803
40.724
83.6536
35.7787
-9.67987
-2.67756
118.542
205.674
223.375
194.696
147.014
150.629
81.6864
-20.4834
15.1885
-12.4589
-17.6869
163.704
209.855
47.6101
-101.035
-114.066
-76.2075
50.5464
111.006
98.5428
7.69674
-55.8636
-166.613
-224.116
-187.981
-107.624
-74.7985
-134.708
-133.111
-9.52072
97.8947
84.2407
-26.0498
-73.4144
-22.9401
-26.0644
9.15531
68.5914
53.4947
-14.6243
-84.8823
-92.4704
-35.6431
56.9522
45.727
0.279428
30.6751
54.9766
61.2371
93.9714
133.49
164.228
119.74
57.1274
-4.39096
-25.5075
-62.4127
-95.7019
-104.213
-76.9384
-66.926
25.3819
147.68
164.28
88.4407
-49.9021
-157.194
-143.644
-107.319
-81.714
-59.216
-8.58597
71.6584
53.4845
-4.06678
60.391
223.587
384.806
337.724
98.7408
-71.4176
-132.762
-263.319
-316.552
-343.646
-206.124
-40.2618
42.2004
59.6453
42.9699
-18.4248
10.4555
23.393
18.3068
93.7151
54.0511
-58.4465
-186.435
-152.558
-12.4042
77.3948
90.9161
117.593
99.9869
81.0871
0.760549
-74.4899
-25.0182
-8.75896
13.1169
85.5018
76.1584
108.711
134.359
93.844
63.1428
-1.42942
-127.112
-198.174
-137.932
-35.45
10.6139
84.6704
100.157
111.508
118.342
100.157
13.967
-93.6877
-95.7378
-138.625
-200.136
-188.628
-92.5906
-18.9488
-11.086
9.06444
99.8724
145.614
114.106
56.7412
18.7649
0.789786
-25.652
-103.224
-103.009
-111.334
-110.734
-63.1563
-51.8333
-7.52396
0.0226843
36.0003
120.487
205.098
249.485
257.399
204.057
50.2173
-140.27
-160.268
-87.2914
14.8999
113.42
46.2428
-85.1838
-107.804
-81.1873
-25.4393
29.9033
-4.60258
-68.2775
-159.124
-252.051
-326.881
-274.251
-108.843
36.9532
338.646
607.66
647.076
383.77
-14.8465
-252.624
-308.735
-380.972
-212.437
51.9193
65.0809
-68.2611
-19.1467
75.9189
115.007
82.4068
39.3318
-10.0229
-125.712
-190.743
-246.501
-239.751
-189.509
-86.1666
58.6821
125.01
224.177
299.22
211.817
156.566
191.938
178.524
166.947
134.461
32.3251
7.89365
-20.1298
-102.972
-183.242
-277.651
-247.836
-132.073
-140.819
-79.7189
137.381
374.977
414.626
325.283
90.562
-210.276
-300.758
-198.644
-228.957
-209.245
-106.932
-80.9274
-126.23
-82.7668
10.5671
59.5227
-72.9128
-242.55
-235.31
-145.023
-86.535
-62.8446
159.496
391.792
407.845
366.653
377.797
284.553
151.332
13.0666
-108.057
-236.521
-252.392
-118.627
-4.66024
12.9896
18.2801
29.4825
-2.91957
6.99811
-53.6066
-84.3292
-143.959
-123.183
-1.7628
111.375
56.8112
31.5892
55.0396
80.4138
173.307
241.695
236.602
147.93
1.78937
-72.7725
-77.8397
-176.622
-191.887
-63.7829
-25.2927
-105.338
-184.388
-247.474
-231.96
-208.819
-189.102
-184.043
-78.5157
36.2303
24.5414
23.7486
89.5081
128.434
161.294
136.689
140.04
212.454
266.053
112.408
8.38889
42.6731
96.288
72.8149
59.9698
62.4831
18.8141
-31.234
-110.128
-112.822
-88.3826
-46.0531
66.1245
79.0977
41.5128
20.236
-79.8154
-162.701
-111.053
-22.9087
-44.8564
-59.2091
-9.1725
-7.47078
6.92208
1.09178
19.7351
77.0187
83.9544
117.393
165.271
125.954
11.808
-115.154
-160.375
-99.1184
-36.3508
-33.5374
1.94781
-43.5672
-53.3676
-115.101
-217.153
-201.419
-142.292
-32.8574
83.4046
105.184
102.197
-11.4046
-146.922
-154.627
-98.6502
64.4672
265.778
335.284
340.437
329.978
120.192
15.0619
22.6064
-17.3858
-38.5188
-5.78022
-16.235
-75.369
-107.356
-81.9062
-45.4966
-12.0773
-9.77027
-1.48283
12.5489
-61.332
-153.607
-169.503
-132.151
-7.51444
120.182
110.384
28.4206
73.9425
72.7097
34.0608
-46.179
-170.744
-199.659
-105.856
-83.7702
-100.902
18.8445
223.116
241.494
186.185
96.9122
26.5797
-11.485
-47.6947
-48.2539
16.0687
58.9086
18.8717
-48.7691
-65.7419
11.2882
65.0476
42.9632
-58.8792
-98.4703
-100.73
-86.9901
32.7272
101.74
62.4325
17.4266
36.5526
2.93529
-25.4318
7.09037
-23.2524
-70.5681
-97.9158
-61.3024
-35.3015
-38.8681
-50.8587
-36.1323
-8.16779
49.1205
123.7
158.478
66.2138
44.0053
20.4753
97.6696
20.6793
-175.589
-204.094
-174.551
-130.357
-2.8663
49.8747
98.3214
65.1974
-29.4283
14.431
103.703
137.694
165.951
141.535
75.8124
-39.3227
-109.739
-101.936
-137.294
-101.77
6.47309
93.4225
97.1129
32.9087
-15.6224
-61.9966
-118.21
-14.8733
73.2178
79.7111
63.4394
154.031
194.358
145.405
54.0652
-57.3143
-189.635
-256.98
-270.88
-156.471
29.207
12.0902
-54.9287
-54.9065
-21.9246
48.3648
80.0264
48.3405
54.5184
-52.7679
-117.298
-92.699
-61.6028
-20.0642
-7.21944
4.02336
76.5936
127.93
115.373
34.2064
-28.0492
-1.59273
48.12
101.725
131.728
125.903
150.154
122.938
32.5416
-27.0423
-82.0373
-127.691
-72.8906
8.94365
8.6324
-45.8198
-60.8905
-41.9535
-51.175
-29.319
-2.72899
-40.8517
-81.0349
-107.998
-126.815
-102.799
-73.6342
-49.4019
-23.5918
97.6009
176.174
92.0739
16.2244
-45.2274
-95.1168
-64.6269
-0.559666
53.5067
104.649
118.954
98.8558
115.163
116.214
91.3497
88.2871
10.8984
-57.5157
-14.192
-8.6819
-19.871
-45.6028
-38.4186
-52.0828
-41.7809
35.4178
84.0755
-0.386117
-116.082
-171.826
-120.798
-54.815
-41.3207
-26.4839
30.2444
0.158303
6.51072
13.121
-18.8517
-32.5791
-74.4797
-50.8914
-10.6637
64.5425
138.393
189.389
120.937
83.2249
151.664
120.203
12.4112
38.1336
55.8072
-18.6858
-124.74
-143.225
-124.205
-105.921
-151.389
-158.527
-55.9524
14.9715
-21.265
-189.026
-311.129
-241.989
-92.2465
30.487
132.85
289.861
367.082
325.785
293.087
213.61
80.8738
-24.2902
-38.3982
-35.8308
21.7579
106.955
159.838
152.648
78.0152
16.6149
-5.98764
-132.555
-250.548
-264.952
-251.023
-241.849
-261.521
-249.665
-176.181
-118.417
-35.8394
73.5068
140.614
155.909
129.987
115.902
58.5183
40.9846
41.985
16.749
10.7685
30.2987
94.0266
138.403
106.421
16.5768
14.4698
-36.1985
-88.0259
-46.1025
-10.1748
-25.3224
-44.7356
-72.7009
-60.6743
-76.0325
-122.544
-117.877
10.7731
218.112
325.252
270.665
219.763
172.521
98.7495
0.936319
-45.1857
8.68869
-20.971
-79.4504
-127.185
-219.671
-333.03
-283.317
-141.44
0.977544
40.1931
-36.0172
-69.5237
-65.1643
-39.9739
-10.0415
-20.8602
-0.46606
74.0659
135.603
150.334
113.215
29.3137
-119.665
-84.3142
-54.8769
19.2448
162.586
149.24
72.1661
81.0828
79.9492
69.068
51.7446
2.94535
7.10678
0.344032
-55.0484
-50.884
-42.9625
-55.653
-77.6246
-30.3586
106.722
132.396
165.103
189.038
158.833
78.8623
-3.44225
-27.1736
-13.2654
-71.9979
-171.311
-218.687
-243.463
-191.205
-149.992
-228.561
-268.972
-213.705
-151.596
-83.0221
20.2678
69.6387
137.214
208.875
117.639
-3.26546
-12.5275
41.4671
79.6189
95.6368
106.965
125.367
137.606
83.6843
76.7389
87.923
94.2841
52.9948
54.7204
173.332
259.398
210.585
106.29
-15.9559
-122.556
-148.013
-153.979
-154.054
-151.874
-145.856
-148.207
-146.831
-101.197
-57.6023
-82.9372
-58.7965
-31.2261
-63.9181
-85.7943
-101.392
-82.1088
-21.0023
16.5337
42.8475
87.8693
140.565
146.919
124.38
149.329
135.492
89.9383
62.1178
89.7016
93.6007
87.8475
-20.4259
-19.6788
-13.4704
-48.2914
-97.518
-163.284
-164.568
-87.3331
-33.8538
-0.111584
9.40413
-10.0935
-46.7259
-88.7252
-77.7557
11.8195
87.7367
30.0606
23.2763
56.4477
88.4528
47.6293
51.1172
59.7843
25.9305
65.1692
72.4016
35.8934
6.35597
-44.6852
-64.2269
-51.4412
-80.5227
-88.5882
-135.352
-134.446
-22.3564
86.7598
79.4807
15.8249
-69.9608
-100.731
-58.5131
9.05431
31.4021
-21.8819
-26.2672
76.8715
119.781
103.552
42.5323
-23.4967
-67.1996
0.381939
114.173
102.932
-46.3325
-83.4321
-31.3851
-5.40861
102.835
172.468
107.688
-14.1022
-78.0487
-53.2623
-84.0978
-72.7105
-26.871
13.0739
68.4556
183.012
211.361
185.867
157.679
109.717
10.1277
-164.776
-354.339
-358.086
-308.711
-293.221
-240.84
-74.4121
35.9678
19.7543
91.926
119.29
63.0872
38.6917
5.2023
19.464
67.2081
-8.01487
-65.3009
-124.087
-133.023
-44.6143
178.957
294.581
204.146
165.275
203.594
206.794
148.69
105.852
59.9968
-36.4523
-89.6128
-124.144
-56.96
-68.1863
-92.3008
-79.7337
-61.8886
23.1063
106.22
74.8081
-32.5638
-59.699
-25.796
-18.7626
25.2955
-44.7343
-135.58
-141.423
-98.2722
-44.1027
1.23891
62.2802
18.3954
-126.181
-161.105
-112.055
-128.24
-194.459
-196.389
-19.4395
80.9105
71.6509
79.8044
83.4728
115.623
156.914
183.684
187.318
111.195
-3.33691
-65.03
65.6035
155.61
181.425
243.716
229.465
190.648
156.241
61.3624
-172.628
-392.299
-444.704
-266.565
-28.3084
55.4744
16.7097
-33.6622
-67.1413
-64.7101
-41.2647
52.9766
15.7917
-27.4809
-50.5874
-126.049
-97.4188
-52.5461
22.1765
103.943
115.232
184.189
226.163
208.074
89.7041
-87.2757
-217.343
-192.927
-82.0618
-14.6862
12.2571
-68.6359
-132.32
-122.172
-26.4082
32.6188
26.7321
66.9949
70.6612
73.0304
139.232
166.798
110.057
-23.0186
-106.161
-56.1518
34.0446
50.3003
19.9139
-11.2732
16.109
60.1105
-30.2071
-123.3
-55.5614
45.9879
-0.830203
-10.4847
17.4874
39.1545
36.8993
24.986
52.7603
15.6644
-52.7717
-114.611
-114.277
-73.3305
-91.3878
-68.4364
-36.9198
-3.69539
56.4994
98.7009
57.8367
-4.29184
-62.6465
-27.6854
74.0416
68.8267
18.3713
1.28257
4.25621
10.6055
-6.55004
-5.53919
43.4789
63.0703
87.405
27.7166
-33.0304
-54.5502
-53.9344
-61.8921
-37.8426
13.6516
34.3598
15.0372
-31.4599
-51.2151
-40.8565
-0.927373
43.9871
61.3231
63.6214
57.6811
39.5859
36.9885
-25.7088
-102.3
-104.997
4.51297
13.645
0.148915
17.3276
-0.159123
2.81461
17.5574
-27.0476
-44.4662
28.6804
43.0139
-14.8897
-33.0447
0.349641
23.5162
-0.133307
-58.3339
4.1858
67.2075
27.2925
-29.8856
-40.8343
-3.65251
-8.54498
-50.0089
10.4805
50.1086
27.2722
28.5638
21.1278
-2.43599
-22.1795
-6.13364
22.9694
-10.6372
-34.0041
23.0091
19.5673
43.6493
47.4145
-9.54125
-33.9385
9.97516
38.4918
24.36
-16.7477
-60.1116
-74.8863
-68.3055
-57.1591
-35.0136
44.8057
4.2554
-44.4575
-3.6782
42.8033
13.9828
-20.7404
0.181031
68.3206
37.416
24.6863
27.9453
-8.35659
-28.6391
-44.8848
-4.79484
48.2983
20.6356
33.0163
62.8275
-18.9611
-27.7637
7.86716
-2.72615
17.7574
19.0823
3.2711
-5.90556
-41.9268
-41.0244
-23.4603
-21.8561
-28.3525
11.0048
51.3856
-10.8956
-17.5337
24.0392
1.84571
-29.5874
-33.1091
-2.03576
28.9214
28.2444
-8.35826
-6.10007
0.723792
-1.26953
4.06647
40.8384
33.0281
12.0532
-17.3118
-16.0315
-18.8179
-14.2187
-19.5847
-31.0904
-42.4234
-0.322654
7.8141
19.7328
9.6293
2.59839
-3.56146
-15.2145
-2.69334
52.9307
36.2119
-1.78181
3.15355
-3.66223
-4.79127
-16.7166
-41.4593
-24.6626
10.799
32.724
36.6647
11.7773
-14.4966
-2.374
5.18486
7.55069
-28.0234
8.2875
52.5463
-4.78192
-31.4267
-31.6297
-14.7726
24.7439
44.004
35.1318
-5.27685
-20.8638
-12.2754
-10.9145
-19.2791
-9.77951
27.4002
51.8468
36.4276
-9.80629
-12.4137
2.79132
-2.21432
-15.5161
-44.0438
-10.4173
-24.8107
-57.8369
-54.9985
-36.9528
6.75779
16.6606
-19.4717
-5.37627
26.7111
29.4441
3.3266
-8.46809
-6.56886
6.90936
45.215
39.3804
33.6298
42.7338
36.3166
-8.09084
24.6042
38.5714
22.4765
-20.227
-53.381
-45.0746
1.22519
5.36279
-0.965562
-13.8947
2.31297
-38.2356
-41.0833
10.2353
13.4924
33.3922
-18.7735
-44.4712
-15.4656
-12.1215
-19.4144
-32.3049
-40.4304
25.7192
54.5795
38.4578
18.4444
25.5494
26.399
-8.19036
10.1377
55.0877
-6.33748
-31.8552
-7.96273
-39.1471
-19.8479
-21.8526
-9.15576
13.4404
14.1833
30.4263
46.737
28.2034
24.0972
-30.7773
-68.4385
-32.1541
-0.094869
27.122
23.0549
-0.963224
25.2621
19.3867
-17.4767
-47.2309
-29.2041
-8.83956
2.07549
-11.1325
-17.4203
-16.8996
-10.0703
2.28769
33.0764
28.2572
43.0793
23.1775
-1.64482
-4.5132
-40.7098
-42.6151
0.820894
10.5043
9.28338
26.1201
15.3556
9.62064
-3.91262
-3.8064
-8.47759
6.87509
15.7497
2.46921
-0.278862
21.2712
8.46425
-28.9561
-65.4907
0.957913
21.5872
20.8392
7.36382
-5.64252
-18.2945
-14.2623
-32.714
10.3889
24.7583
-4.76273
15.9372
19.6706
18.2323
-21.8076
-48.9328
-43.299
14.3596
19.6851
23.9783
-5.49655
7.31492
10.7028
-20.212
-32.6462
25.427
33.5545
44.3775
-2.80633
-16.2435
1.91688
-25.3426
-16.4403
-6.73322
-2.74628
11.0936
32.1714
12.4097
10.6692
-10.8877
12.1048
19.1119
-11.2629
9.71713
39.7702
22.9856
-31.5139
-90.3303
-28.4529
-19.6682
39.0603
55.187
33.2981
-11.1913
-40.1168
-36.9725
-63.7968
-52.8439
-6.34865
17.7305
43.2344
51.4492
-12.318
-27.6247
-12.7033
-3.75223
-16.3944
11.44
27.7026
38.3186
18.1131
16.0782
29.4065
2.09419
8.99109
16.9087
-15.966
-19.1423
7.57273
14.0503
-17.9803
-47.3811
-9.14463
22.8065
39.3779
18.2057
2.44128
-10.4187
-20.4877
-12.4262
17.8696
11.0895
-6.20143
-0.825763
1.30899
-5.43273
-22.5497
-30.6494
-51.5813
8.00628
27.6054
3.62103
-23.3983
-13.8015
-25.9961
-14.9554
-2.84681
5.20538
29.6448
9.39776
-12.416
0.530309
26.8612
39.8502
2.03277
-41.9104
-23.1278
41.3409
46.1476
6.48825
3.33614
18.1222
29.8711
18.1739
-25.7192
-27.7135
-28.4238
-32.9156
-30.3939
2.19825
-1.10392
-16.6253
-30.1415
20.8476
37.1723
35.6491
42.4685
13.261
-3.11631
-27.0454
-46.9317
18.3005
26.5725
19.8437
38.4615
21.0134
2.46765
-5.1093
-48.1719
-6.52473
15.442
-0.105465
-0.520742
-3.93776
-12.4178
-27.7529
-44.8505
-11.9085
18.0813
0.811243
1.31276
-19.8498
-18.8333
-20.077
-31.5221
-31.584
51.3307
46.782
31.2837
6.79958
-9.10063
2.20581
-29.4799
-68.738
66.31
74.9541
63.5738
3.1355
-33.1599
-31.2702
-29.9661
-41.9558
-27.4092
6.58096
30.9402
38.1403
-4.37315
-15.2287
1.52175
-10.9265
-36.2039
-21.5801
50.7177
49.5464
-10.6421
-2.58109
1.46591
-13.7458
-12.9512
2.64583
69.5231
31.0787
-2.70653
-21.4774
-0.372591
17.3374
-23.1944
-43.4755
-13.5738
38.9541
35.1415
10.8704
-10.1202
-7.9887
-45.2584
-50.5739
-43.6688
2.31098
22.4342
20.6441
-8.01107
-6.14143
-23.9826
-17.6847
-29.7986
-10.6663
36.3689
51.4336
64.2776
26.9856
8.22144
-9.35462
-47.8241
1.34353
10.2421
25.1272
29.769
-3.17395
-30.5045
-48.8849
-47.5135
7.30177
6.87154
6.37937
26.2456
36.9838
6.38566
-52.2999
-38.2228
-29.3036
-19.2042
14.9193
30.9874
4.4432
-8.7878
-8.11402
-3.81641
43.506
32.9274
34.0058
4.1545
-20.7658
14.0135
12.7701
9.53904
-5.51431
27.2074
46.1502
14.3006
-7.91778
-6.82869
-4.19242
-26.8516
-50.892
-33.1629
3.32609
3.42782
-28.9057
-9.56434
-1.0364
-1.0528
-27.9542
-25.9199
22.4171
15.9466
5.12096
-15.2778
11.6172
9.46962
-20.0877
-7.88906
7.76832
15.7306
31.8362
27.6166
9.9082
-3.50851
-26.2564
-10.3182
23.9169
32.0547
41.6009
25.7984
-11.0466
-25.2707
-61.7378
-43.3213
-3.88319
-8.40427
7.13525
-0.0889235
-23.6241
6.5197
14.1537
-6.01413
17.8571
25.3362
11.4335
-2.86391
-31.1865
-10.4897
-22.0202
-35.2976
12.6331
8.45804
4.92755
-9.36482
-2.04395
4.58372
6.26711
7.81869
36.9108
28.37
22.8474
21.9468
6.03601
13.7075
15.2292
16.4702
25.4113
5.99129
21.0092
14.4804
-38.8443
-46.2865
-55.8723
-52.0036
-21.0727
-15.5343
4.70915
17.114
-7.61981
-19.5277
6.59701
10.6569
-36.1931
-5.10735
29.46
21.5166
3.58063
-8.45291
-13.253
-7.89963
-22.9507
-8.77876
45.2883
61.7724
4.37975
14.8338
28.8579
14.7309
-11.6866
-33.129
-49.6542
-13.3157
-8.43386
-7.57713
3.69039
0.773882
-2.39961
3.48442
-0.474609
20.3065
29.1691
29.3061
22.5626
2.4838
-5.66691
-14.3222
-32.4658
5.67088
14.332
35.3232
18.8055
-8.77953
-0.349509
-25.6475
-30.8305
-6.57197
-22.1553
-26.3827
-10.3233
-13.501
-17.7229
1.47189
-1.65083
-26.7133
45.6363
60.413
28.9236
-8.7576
-2.4144
6.72904
8.92568
-13.3161
-21.7633
19.6575
5.79785
-10.5901
8.35213
20.9652
16.1255
-23.0394
-36.7185
-7.80456
-5.35421
13.6336
-16.4387
-17.5616
-8.98096
-20.5044
-47.7431
-1.67633
21.8026
4.97814
21.9763
20.3016
17.6019
5.30352
9.40839
3.71617
2.45659
32.777
20.73
-1.80386
14.1659
21.1528
-15.2144
-66.6223
-32.0478
30.9082
46.4979
22.6435
9.72887
0.710839
-11.7263
-34.5785
-27.5813
1.49256
-16.9896
-10.3388
1.28235
0.78035
2.84534
-13.1128
-10.5646
-16.1542
25.5696
41.2804
26.1011
-12.9858
2.30315
-0.258999
-29.2472
-27.2486
17.5053
15.1198
-16.9866
-33.2431
-5.80672
-12.9643
-12.3636
-11.3848
46.2277
37.9991
14.7318
-2.49544
-26.0073
-0.5831
-8.63639
-22.052
22.4045
11.8382
23.171
34.3102
19.0297
25.3001
11.0001
-9.70108
27.8666
17.4968
-14.5601
-30.4252
-44.9365
-39.36
-49.8457
-65.8679
-11.3638
37.8207
24.6016
11.32
-14.2716
-9.56104
4.536
19.098
-20.1051
-12.436
65.2645
56.8602
-18.5801
-2.34117
9.44877
-14.3794
-17.0477
-3.68755
-14.7372
29.7854
47.0388
8.74211
3.5198
12.4186
0.629835
-11.9989
-45.5482
-34.252
12.9744
13.2828
-3.09366
-13.2049
-20.8505
-16.405
-12.2044
25.9567
23.7259
23.117
38.1132
4.27176
-58.3712
-73.7396
-82.1507
-15.3063
31.5141
42.2832
47.6823
39.0339
16.3959
9.42144
-4.70985
-18.5901
59.2996
41.0657
-11
-27.5708
-22.5415
9.75379
29.4781
14.8185
-15.4473
16.0587
9.78996
-65.4347
-61.3551
-18.1305
21.6313
10.6975
-31.7422
-19.5708
5.51697
7.40176
-36.4995
-39.2106
11.3475
28.0417
3.83441
7.00258
16.7693
40.8267
35.8494
11.5784
19.1511
17.0774
-16.7474
-13.1511
-10.0821
5.56063
33.4104
19.1717
-15.8543
-42.8265
-50.1639
-4.39535
36.3271
23.4818
9.04017
-19.515
-33.4816
-20.2634
-11.6444
-36.7067
19.7307
54.0939
37.7027
8.65217
-2.59146
-15.1396
-14.5992
-20.7743
-31.6718
-17.0021
29.4272
24.4803
4.2293
-24.9475
-12.3006
14.4529
21.0599
-1.82386
12.6232
65.5871
36.6421
-10.2546
-20.406
-31.4506
-42.9879
-52.1548
13.8908
12.2974
12.2015
30.1507
7.31629
-3.7582
-41.37
-48.2271
22.5399
7.33149
5.17752
15.0946
-0.326571
-16.9304
-25.7629
-12.2974
47.9366
28.2299
14.2755
25.319
-4.21749
-3.39167
-11.7712
-54.2194
-6.86445
16.5616
22.4546
66.7126
31.9557
4.43014
5.39827
-9.11117
-57.4738
-53.8919
-14.7227
9.86535
-9.52958
5.1241
14.5506
1.83051
-33.8142
-3.0235
24.3843
45.9767
-0.885185
-23.443
-17.6036
-25.7275
-54.6449
-51.8336
16.4759
32.6098
49.5095
45.9086
27.722
4.83679
-20.5855
-15.7282
23.794
57.5715
34.2913
3.5467
-21.3349
-40.6233
-58.7582
-41.0584
-22.3133
2.67627
23.7228
39.8278
-6.62158
-14.1847
8.00945
-11.8291
-1.15954
38.1423
27.6097
21.8668
-13.1662
-36.0191
-14.7657
-23.3162
-22.405
37.1708
27.2859
13.1805
8.46568
8.5803
4.46201
-7.1759
-45.8964
-10.8878
27.8182
-11.2201
-3.16595
13.7152
2.64126
-12.5009
-34.1898
-11.2494
-4.00791
-17.4095
-29.6517
15.4314
22.304
9.69568
15.8858
47.9661
34.4804
5.91024
0.0442785
-19.74
-34.3412
-9.20958
-14.6326
0.0591199
31.2985
26.4386
8.23503
-25.1271
-15.6851
14.4251
31.7722
-14.6139
-1.65882
6.71726
0.821342
-18.3177
-9.84787
-14.4816
-24.1721
-19.279
-34.1882
2.62358
39.7238
0.116287
-11.3149
-9.66975
5.5843
36.26
25.2064
-21.2798
-31.9164
16.5382
24.4399
4.65881
14.9991
9.52448
21.524
15.6385
-23.1515
-11.0507
32.5909
26.4324
-11.1196
-24.7181
-22.9835
-21.6056
-20.3968
-12.691
-21.441
3.66076
34.1871
16.3415
-0.886328
-14.1614
-49.1416
-14.3364
-3.6751
13.1545
46.0069
42.2072
-4.86227
-23.0478
-31.273
-41.8676
-30.142
35.1634
59.9497
7.58899
-6.35822
2.95164
6.73956
-7.30659
-28.9976
24.1862
66.5354
26.6252
-0.485305
-1.0762
9.45448
-19.1048
-64.4202
-20.4148
-0.362853
22.0557
17.5147
-16.2638
-27.2573
-17.2671
10.2878
42.8153
24.8284
18.1924
20.9791
-23.3965
-39.9058
-61.8142
-38.0961
5.03479
10.2057
1.15795
6.0953
-5.27718
7.56704
-10.8144
23.1177
32.4496
47.4132
16.6441
-0.342389
-17.707
-5.54302
-1.39672
-9.38577
-17.5399
-3.11957
-1.4906
-15.8101
-17.6692
-5.24192
-1.1612
33.8565
28.2355
-5.94238
4.27926
11.5421
-3.31649
-22.969
-0.324142
11.504
5.48821
6.68654
-16.0156
6.49581
33.1295
-2.3077
-18.894
-14.4074
-24.6365
-25.8654
-25.6989
18.0491
33.2396
6.16736
9.75124
-17.1531
-21.7035
-5.18177
-15.5986
-2.3315
3.06791
-6.07479
18.2015
14.1136
4.37299
13.5071
9.23906
-7.00576
35.1503
37.3327
31.2043
9.84155
-18.812
-17.7658
-2.63442
-37.0441
-53.8348
-26.3906
46.1191
31.8681
35.5604
15.5533
-24.8455
-23.8759
-27.9071
-22.5642
13.3351
4.35454
-37.234
-30.6675
-22.3734
-11.5963
-12.7523
-28.946
19.6349
45.3483
54.7216
21.2142
-8.66749
15.6249
-24.4029
-36.7594
31.6213
77.3742
59.6497
35.3554
20.1116
23.027
0.0128923
-20.1545
-50.1537
-72.2414
-44.7054
-45.9306
-70.7429
-60.1052
-43.1054
1.9969
32.8686
28.5053
66.9368
88.5242
91.9468
88.8183
82.3563
8.00576
-85.0072
-126.863
-157.157
-81.0785
-32.1199
-1.50004
46.1157
162.953
172.744
101.037
24.3735
-20.902
-8.15433
-31.9636
-67.0901
-63.8788
-79.8217
-78.3646
-61.5371
13.1127
62.6861
14.4056
6.74095
-8.54883
-18.0901
-35.288
-85.5515
-64.9326
-47.5682
-44.3543
-7.78378
7.33171
-3.23845
30.4009
17.0634
28.8694
38.6908
8.10324
6.53894
18.821
42.0197
74.9159
100.274
80.7316
120.022
93.7763
67.9309
22.8647
-20.2942
-1.57204
-5.07994
-47.8396
-50.2087
-19.6312
-1.74319
-9.94315
-33.4748
-52.5789
-53.3904
-60.444
-80.6073
-70.0867
-13.1446
34.477
14.6597
13.9106
0.482467
-25.4466
-35.0002
-13.164
3.02239
49.5116
38.5822
-11.8244
-10.9692
-28.1767
-42.2017
-40.5969
-39.7167
-5.50511
15.4209
49.0029
39.6137
15.8368
13.2962
-14.1678
-22.854
10.3213
1.5181
7.81632
15.6125
17.3184
9.06372
-5.32193
-11.3587
36.8304
37.8346
11.9746
-1.6561
-5.44584
14.7386
34.7894
16.4575
-32.1373
-24.9371
52.5845
63.8247
14.1383
0.279528
-9.35025
-22.1066
-67.0522
-55.8398
-7.53728
2.86549
-15.9228
-12.8459
9.59054
13.2204
-19.6733
-2.82811
3.65535
-13.5138
-0.340782
8.54702
-8.07019
2.71417
-59.5176
-34.5096
25.2983
29.2663
42.9507
27.6488
3.60519
-0.274549
-16.5877
4.06374
-0.152081
11.9957
36.6193
39.9309
34.1951
-6.90944
-48.5568
-42.6975
-6.08274
15.2578
46.1428
18.1759
-37.6023
-50.9759
-40.5921
-50.62
-90.2824
-15.7841
71.465
42.8614
46.3786
50.3211
43.2913
15.1647
-19.6629
-19.0777
19.0433
25.6908
-32.5301
-21.4862
12.2659
-11.306
-11.9078
14.3204
5.20024
18.7511
34.1025
-1.24311
-50.1908
-54.9468
-38.5265
-24.2303
-38.1345
-9.18112
9.89126
15.4565
24.6758
13.571
6.71865
-19.7195
-21.398
35.3646
26.8356
20.9047
12.0472
13.1518
40.3049
23.9908
-7.38596
16.8759
17.7095
-1.38037
-4.00774
-35.5138
-42.3839
-10.0664
-7.49618
-37.0709
-21.3892
23.6252
13.3386
4.33816
15.5127
22.1542
28.4349
-23.2884
-44.0721
27.589
32.8025
12.7501
-6.6608
-4.80645
-4.4087
-21.3169
-16.6959
33.0914
22.1863
18.6804
11.146
-10.98
-20.1697
-56.7666
-80.2858
-1.55175
57.8828
40.6766
23.7959
-21.386
-37.5082
-23.1712
-9.66875
-35.0107
-18.1839
36.4539
33.3957
-5.66574
-6.57318
12.348
14.6361
-17.2356
-27.2248
-28.2759
26.7488
48.5358
13.0006
22.2574
19.7727
-12.5657
-7.95821
-7.54404
-13.1472
50.3304
29.6869
3.85782
10.4142
-0.370953
-14.722
-30.4644
-36.1297
16.9506
32.9882
40.9951
15.0147
-37.8448
-43.7999
-45.5814
-46.5641
-11.4769
5.53291
-3.63807
-5.10944
-8.62153
-4.1753
-19.9188
-22.579
37.7527
33.141
19.6468
27.0896
9.45566
14.5387
-2.40442
-22.2983
28.2884
35.049
25.7793
19.242
-8.10901
-3.50115
2.48316
-13.9153
-63.6867
-29.2075
18.6043
37.8317
-5.12539
0.577881
4.0141
1.58471
-25.0323
-51.1845
-12.1159
27.2082
-16.7762
-13.7203
15.7001
27.2465
21.058
-24.4517
-31.8425
2.3959
47.4907
29.6654
-0.602413
-11.9452
-13.9638
1.06697
8.52856
-43.4472
-30.9623
29.6305
61.0642
46.9276
-8.4817
-40.491
-36.6364
-49.6564
-13.0937
30.633
32.072
9.92094
-11.0964
-3.81576
0.666495
-27.9965
-35.8525
41.9602
58.9489
42.8699
25.0102
28.8801
-1.47224
-20.9182
-48.9017
-70.6481
-17.7613
39.9846
17.8247
8.18254
3.31929
0.26214
-4.69145
-13.844
-34.0915
13.2672
42.1284
-26.7439
-44.3138
-4.22271
-9.83985
-25.8409
-20.5637
2.84141
42.5708
55.2518
-0.267476
-21.769
-10.9125
8.66096
-17.0299
21.1421
60.0797
14.1471
5.06402
-5.09715
-15.3247
-22.4044
-44.7248
-19.1063
10.8603
1.7703
13.7732
-3.46892
-17.008
25.9735
28.5862
-3.41381
5.6131
-21.5009
3.47366
-12.7396
-39.7241
-24.4891
-21.0363
-29.4905
-22.1639
29.7506
78.5255
75.8415
45.0019
9.23626
6.62345
-1.59383
6.52661
-12.632
9.24833
42.2359
-17.8101
-20.8599
-6.89392
-24.114
-32.3049
-23.1382
-15.0785
10.6032
12.8257
-3.28466
-27.3083
-40.1766
-40.3857
-52.1884
-43.5402
39.0014
55.1142
51.717
32.7239
18.9967
28.2621
14.4678
-14.7591
13.7814
3.75382
-5.26714
-5.69477
-0.363607
-12.7831
-28.8109
-53.3451
-67.6638
4.65667
66.4364
76.7925
27.9745
-5.16509
-22.4891
-22.3165
-46.2404
-59.0034
-24.6537
53.0104
20.3847
10.1232
30.8538
25.7883
9.37637
-14.4451
-8.93628
42.741
42.3552
-11.8157
-8.54854
-10.4761
-15.6979
-37.3748
-7.96479
-10.0027
-11.5511
1.29539
-7.28311
-41.7431
-33.7537
-2.58025
51.1048
59.6965
36.4407
37.2161
19.332
-4.33585
-12.4233
-49.5598
-39.6636
-19.9911
-19.3703
12.7651
5.82248
5.09925
14.2466
12.957
6.32854
-6.75211
25.708
27.4491
-3.04603
-18.8038
-33.4175
-11.8151
0.793512
-35.8188
-65.8417
23.6119
54.5946
1.84948
-2.90856
0.966812
3.01697
6.98551
-24.7707
-14.4137
65.9031
61.5148
20.085
-3.59054
-18.0387
-7.37137
-18.1728
-33.484
9.81252
16.6624
19.8749
-14.8132
-35.7162
-17.2794
-29.9836
-26.4467
16.4843
21.6183
32.1219
32.2268
-6.68732
-2.15496
-14.6763
-13.9799
7.00766
4.21181
4.49233
5.13045
-18.5594
1.95815
31.8167
-11.7864
-30.4493
5.6401
25.252
18.5658
-19.2402
-12.3914
9.96839
2.79248
-32.5971
-23.8741
13.052
15.7276
3.4748
-8.98317
-9.28088
-12.7976
-25.4496
6.63558
45.2316
37.2225
16.3459
-7.02183
-7.67822
-3.73555
-26.3378
-58.4318
-16.7896
34.7544
42.8607
26.9167
12.0743
-1.2032
-22.3935
-13.0633
7.93512
12.4532
12.1313
1.15051
-17.0717
-7.0105
-5.63853
-8.46502
-28.5231
-25.8931
29.4443
77.784
53.2905
-8.00224
-41.7482
-22.8972
-15.7686
-24.9463
-52.3546
-16.2753
-1.24856
11.1058
14.3254
18.5274
38.4988
38.0236
3.25083
-26.8948
3.64341
18.7432
11.827
-4.53355
-17.9745
-17.8878
-24.9875
-21.5291
19.931
18.6282
22.2449
17.2918
5.96885
3.28483
0.748398
-10.5474
5.73059
-10.5253
-26.9543
-29.2014
-17.5527
-37.2212
-50.8576
-16.709
51.3724
43.5331
36.7473
16.1309
-28.0064
-12.1363
-11.0582
-14.8774
6.1899
34.3171
14.5201
-5.01361
-21.439
8.69293
30.3243
14.5006
-22.0995
38.4995
44.5842
14.4155
-21.8138
-20.4781
-3.06713
-2.99518
-10.3968
-29.5872
-6.22314
30.1555
16.3247
-9.81221
-8.97592
-0.797429
-7.85121
-10.6828
-14.5318
0.0626747
42.3176
33.0265
8.46698
-14.2126
-49.6394
-49.3172
-33.7971
-24.3535
22.2937
31.036
17.0272
-3.20072
5.57545
-6.91483
-31.8823
-3.72063
18.1021
7.27631
2.29862
6.43169
-7.32456
-16.5273
-33.3673
-50.6316
-15.184
63.928
62.2009
53.6373
30.8544
39.771
32.1435
-9.99677
-52.8358
-29.3949
8.32683
7.36928
-16.9182
-5.31041
4.99563
5.55483
6.85926
-17.6212
0.334316
46.9959
19.6186
-31.8659
-22.4925
-15.4964
-19.4143
-57.1397
-39.4398
24.1699
27.6428
-15.052
-24.4263
-4.26376
18.8523
-17.211
4.45474
27.2805
16.605
19.2822
19.928
-1.37702
-16.3475
-35.802
4.50138
7.76391
0.811728
32.3948
34.3348
-8.34516
-1.26249
-21.8844
-47.2232
-39.418
-4.78452
23.5726
19.7014
10.0087
13.3301
18.496
19.5334
-6.05686
11.8695
64.8665
28.7634
4.70619
-7.46302
-4.42974
-3.74533
-14.5015
-20.7171
-25.0377
31.8941
14.6992
-43.5895
-15.8965
-6.07647
-14.4784
-24.5973
-40.7436
-12.2168
33.7435
22.8486
-8.25451
-13.2371
-26.5145
-44.2363
-53.5961
-13.0403
8.59481
40.7664
69.5008
45.469
18.4975
0.112523
-41.5783
-21.5326
8.35005
11.0245
23.9124
10.7818
3.11667
10.1621
1.98976
-16.6296
-1.72033
47.6298
45.3789
0.34981
-30.3709
-40.4392
-12.1581
-25.3368
-76.4916
-25.812
51.3561
40.5264
25.3579
14.5975
6.51915
3.94116
-20.1494
-9.54827
19.4691
5.70222
3.43636
-2.49523
18.8865
15.3004
-9.7327
4.81061
3.08464
-11.0599
11.5375
-12.3336
-27.2118
-40.6758
-71.5985
-51.9999
29.031
59.9675
48.6235
42.115
-2.72371
-9.84563
-3.58409
-18.1702
-35.7735
-31.1174
-8.39081
-3.52447
20.2269
36.1532
40.6957
16.6477
-19.3372
-22.4829
6.40714
89.8177
47.6126
-18.8711
-30.3086
-31.123
-24.6132
-18.3739
-50.1162
-29.65
30.2435
-8.40579
-0.772369
26.6064
10.519
-16.4251
-38.9476
10.9705
40.6046
33.3237
30.2133
-20.7792
-39.0636
-35.7325
-38.3149
-1.89003
9.29715
19.2676
51.3423
31.2376
-5.44373
1.42775
-32.5183
-32.4627
10.0909
23.5054
49.9462
34.8229
-3.2434
-15.0133
-29.66
-23.045
-22.9185
4.07486
32.5227
19.0637
23.264
7.72349
-15.1816
-61.0315
-30.6407
5.58135
28.6629
-5.2063
-39.7028
-29.6543
-4.99952
-20.2376
-4.53729
49.6311
54.6267
17.9928
-3.36777
-5.01559
-0.737145
-21.3331
-19.4596
30.0694
41.0378
43.2501
15.4477
7.60511
-4.52448
-0.813681
-0.724145
-32.4843
-16.3133
-0.997849
7.84425
-13.5869
-26.8129
-38.442
-47.1474
-33.3672
29.0881
38.1883
50.0712
7.16072
-30.4033
-16.0874
-33.2826
-29.2693
33.7624
26.584
6.38646
10.5925
6.22305
8.61694
-2.65811
-46.7686
-36.9142
30.6094
35.7427
13.4391
-22.5415
-30.8671
-18.3356
9.92978
9.31145
27.8265
74.0278
54.3442
2.18393
-21.8405
-23.0312
-8.79768
-15.3499
10.4696
7.13069
37.538
37.533
-19.8108
-15.3153
-14.7636
-51.8998
-55.8983
-54.2708
-25.688
22.5438
18.6475
-3.48955
-2.02043
-28.9259
1.53494
47.9016
48.5337
32.1807
-6.93835
-12.1661
-11.5373
-24.0841
-2.77843
7.1177
-1.85081
31.8978
41.9166
22.9104
5.15666
-19.6913
-41.8453
-27.8372
46.294
37.8538
12.1752
-24.3083
-25.5311
-19.3465
-23.9883
-24.7442
-30.8115
25.5237
33.1483
31.2656
19.6479
15.9752
2.97212
-25.2723
-38.0336
-21.4332
-2.48695
18.4749
-13.7361
2.41354
3.20815
-8.7371
-12.0045
-10.8054
-4.14967
35.1495
30.5845
18.074
-8.88338
-47.7665
-24.0039
-29.1859
-24.4698
18.6138
17.5016
35.9046
43.8411
10.5083
-8.28487
-27.5625
-33.4651
28.1384
35.0932
22.8974
19.7449
7.12319
10.9363
-10.5858
-27.1639
-26.9697
5.79132
19.7369
16.0068
-11.6553
-16.7126
-17.7152
5.38454
-18.1934
-32.8561
0.418151
28.4128
-1.33093
9.90524
10.9055
-13.8357
-52.3994
2.27148
6.20544
3.8331
13.7267
-10.5456
-2.05829
8.15713
-10.5407
37.6711
45.473
14.8922
12.7761
14.0972
-12.7296
-46.741
-51.1997
2.2446
35.343
23.1304
20.4896
-20.6847
-44.7718
-32.7518
-9.41986
-55.0007
-24.7472
56.787
63.2513
19.665
-10.5572
-10.286
-5.13985
0.534801
3.76661
-2.18933
22.8685
12.9507
-18.0914
-4.77264
11.9821
12.7312
18.9897
22.6371
-1.19078
39.7718
45.0004
-27.3714
-38.141
-51.8503
-38.5222
-30.5898
-46.0772
-5.59103
64.7777
57.8652
8.44722
-37.6558
-31.8188
-7.83119
-27.8703
-9.59341
16.0148
8.8872
23.6301
32.2468
2.53331
-11.6598
-22.6772
23.1697
14.0267
4.6489
22.5951
6.8046
-13.3819
-1.66948
-28.2165
-8.96759
32.2735
24.0672
16.6999
-11.0265
-19.4854
-24.2429
-9.73597
-11.8135
1.40557
4.37498
-11.1246
-15.8073
16.5224
17.4597
3.01164
-18.3384
-38.692
18.312
39.02
8.64624
-24.5001
-17.2023
-6.95383
-12.4489
-36.1013
5.06903
36.1983
49.436
14.4529
3.32866
12.0241
-0.203644
-13.3575
-21.299
17.332
46.8285
30.428
7.88179
-31.3185
-47.0913
-24.7023
-23.8374
-5.33861
18.0644
16.1776
-0.92632
-14.0156
1.80582
0.767989
-5.7203
-15.3737
-3.53841
12.1021
22.6679
4.52434
-15.2982
-10.3753
-16.1262
2.53586
1.17735
-15.8577
24.8155
27.7038
18.9073
22.3121
7.30977
-5.21153
-29.9607
-25.9683
7.71468
14.0789
-22.7463
-38.472
18.2908
37.975
-18.3508
-30.9731
42.8643
36.2227
7.12572
-3.33324
-30.9108
-31.9958
-42.8557
-16.7298
17.847
6.79372
4.40086
9.55832
4.6831
34.2261
13.5545
5.53971
-5.01033
-12.4593
11.2898
22.3831
-22.3525
-4.13871
5.89655
-4.07262
13.2848
15.7914
23.608
14.6557
-1.78997
-13.2377
-5.88291
6.99693
-49.9815
-15.651
62.7029
23.6818
-24.3337
-21.2889
-21.0349
-30.6738
-46.8648
-39.8842
-19.1902
6.26825
22.6863
17.2301
3.99725
4.39307
-3.28909
-2.73198
-23.5776
22.0512
55.8724
27.8604
5.13115
15.8817
4.04036
-22.1308
-23.3647
29.808
23.3755
12.5543
16.5057
5.39045
-20.8469
-25.9792
-38.5805
12.6742
4.34429
9.05682
11.4596
-17.3116
4.47383
1.36365
-37.7277
-31.8882
11.9268
28.3898
23.7472
4.33891
-17.9975
-11.3484
25.6889
-6.9169
-33.1713
-1.84912
21.7777
-1.36916
2.13405
1.11148
19.1639
5.3614
-20.6632
18.7935
23.2868
15.4307
-23.151
-37.1458
-17.2755
-20.8574
-5.36887
18.633
0.137071
10.8417
8.40753
-7.57357
1.15094
-32.977
-12.3925
32.0167
23.1394
2.02723
3.47787
-6.27614
-4.04433
-16.778
2.28589
34.7777
40.4125
21.7544
-4.7566
-3.80656
-14.8355
-15.1023
-24.4109
-16.1175
8.3875
18.3921
-0.0033349
-24.7258
-14.361
-2.39221
11.5427
-22.3257
-32.6312
45.4987
43.3686
-3.43346
2.16308
22.6684
1.81343
-44.4765
-60.3468
-4.68018
33.9426
27.5062
11.6664
5.16284
13.3952
-2.66445
-19.9995
13.6557
6.37199
-22.8743
-21.462
-27.2952
-21.0219
-24.0172
-12.348
23.1901
29.7998
29.5893
28.7189
10.9229
5.74709
-22.5724
-21.0699
37.0861
26.9665
15.8648
8.73598
-23.9612
-19.2191
2.11753
-15.032
-12.5423
16.0113
34.6639
24.8313
-9.29671
-28.0279
-18.812
-7.77191
-47.5775
4.89177
29.7464
13.1806
-21.0473
-23.0795
-27.0181
-19.4939
-11.1482
35.6999
24.9881
14.8107
7.97688
-6.86137
-8.88686
-28.2782
-17.7601
3.20835
-1.18578
48.0398
38.8994
7.49453
-11.509
-19.3297
-19.0493
-22.1998
15.2009
52.6413
29.3728
8.52602
17.4411
25.8328
-3.64297
-53.2227
-45.7406
14.2872
-8.06777
2.69783
16.0242
-5.84296
-2.39846
-26.3835
-30.9969
-35.2151
11.184
43.3942
22.9799
-4.42715
-14.315
-23.2154
4.39476
-1.76195
-3.04492
44.7346
50.7908
8.66912
-7.47243
-19.1448
-17.1884
-25.7513
-10.3854
16.75
12.3202
-12.1369
-17.2775
-7.46314
-18.441
-39.9478
5.88065
25.8917
5.23941
7.77354
1.88192
-1.89215
-12.9511
-39.4411
9.8916
34.7345
30.0334
18.8007
17.6632
0.328571
5.1261
18.5879
18.84
-16.8266
-6.30837
0.85614
-19.9942
-22.1239
-6.58867
8.34762
-6.69063
-48.0124
38.9913
50.5575
0.958749
2.70223
-8.04417
-11.6954
3.55284
-18.5913
-8.59869
5.8951
0.378543
-7.5117
-9.0812
4.33657
6.4442
-0.798227
-7.27406
-11.9534
26.5734
30.8136
-20.1296
-22.015
-22.7732
-6.22394
11.0672
-6.59295
5.07399
9.38403
3.56038
2.76165
-10.1611
-2.50065
0.455847
-17.0315
30.6533
28.6998
3.38016
8.95029
-4.52759
-2.88715
-45.948
-38.9574
31.4343
21.8276
9.9969
14.4908
0.882049
-5.98164
13.3308
-2.68795
-30.5959
7.39826
7.63713
3.87199
-40.7075
-40.7474
-8.32743
-6.02083
-34.4114
37.2241
87.4232
60.7256
1.16037
-11.2678
-19.2127
-16.1966
-50.0203
-16.0537
19.4193
35.5501
24.439
-14.1023
-7.15894
19.8758
0.455746
-0.540572
7.50669
16.0766
35.7022
-9.07619
-43.2799
-33.6951
-52.4356
-8.45086
3.59411
2.58011
11.7052
-9.79259
-28.992
-19.0588
-24.4258
20.1914
33.138
23.1477
19.5893
8.98357
4.09808
3.31271
3.66026
-5.07034
-6.18126
47.6843
35.603
10.2624
11.0336
6.14968
-4.74594
-9.18312
-31.0533
-35.1905
12.1598
-8.89357
-14.5323
-11.8979
-9.54786
7.22426
12.8858
-0.74525
-5.14364
10.7853
-17.1659
-41.4121
-14.7947
-16.241
-15.7066
-7.99588
5.75966
32.4711
35.7067
30.1941
4.2903
5.59292
6.11099
-23.3525
-11.1456
11.8073
5.28345
26.0219
29.1024
1.2066
-0.702015
-30.0933
-49.5781
15.0539
22.1204
17.9746
4.83529
-5.35787
3.39673
5.38885
-25.8754
-59.962
-5.96062
21.7253
11.2108
0.336104
-7.63037
-26.9475
-14.8133
-18.2535
27.1035
46.4029
45.1446
5.43582
17.6608
21.8966
8.08683
-39.8179
-42.6293
10.3785
18.7484
25.2561
-19.8986
-12.4036
6.07502
-42.0001
-49.3966
16.8656
-1.89742
-6.67344
-1.75221
10.9885
46.0118
-5.44892
-72.8093
-7.95713
34.0097
38.256
24.1768
-0.581889
4.21175
2.22391
-21.3107
-18.354
8.73683
27.265
24.0067
2.97955
-1.66033
-4.89863
-11.8771
-19.1913
-32.6431
11.3252
34.3399
-4.84649
-16.0099
1.29313
7.06103
-9.14683
-11.1372
6.34993
30.7479
26.9314
3.51608
-1.3304
1.57041
-19.98
-31.0118
2.61074
14.8321
4.54922
-1.35295
-14.5823
0.889071
-18.5749
-43.5934
-21.3949
-1.60682
12.1082
15.1376
3.42788
-9.18733
-9.25613
-10.6442
17.5
34.8576
21.6462
24.6631
-3.52308
-22.1082
-7.64588
7.56755
-1.40178
31.2326
6.00351
4.9905
-4.3757
-10.5322
0.594772
12.7075
-3.15913
-23.5834
18.0752
16.655
-11.8817
-31.2904
-24.3814
7.96632
7.80795
-56.4649
-39.7218
4.96825
62.991
26.1847
9.17458
25.9377
26.366
17.2866
-13.2251
-44.5701
-2.33484
32.3506
-4.93801
-26.5592
-3.54134
7.76452
-13.1825
-30.5068
4.88973
33.119
16.9773
-6.61432
-42.6028
-36.0696
-16.8327
-22.8223
17.8417
16.7172
28.554
38.2762
11.4064
-5.56832
-4.22584
-18.4812
17.5066
42.9008
38.8649
23.2964
-16.3435
-10.6713
-16.7814
-22.9187
-59.5413
-10.0363
12.9623
4.51282
-13.7624
-6.29432
-9.84365
3.25694
-12.5632
-8.96973
17.2132
24.0192
-11.241
-29.7244
-15.1936
-3.91981
-2.79055
50.3366
41.3123
25.434
21.2901
-6.79643
-10.6594
-2.16968
-18.6383
3.31225
-13.4241
-18.0319
4.64025
2.38357
-11.4454
-5.07366
-29.6661
22.4198
48.6419
39.2644
16.2301
-21.9486
-33.3749
-13.7829
0.830786
-10.0307
-9.34362
22.7222
31.8307
1.94785
0.177948
2.50888
-2.43034
-25.7859
-32.8109
-1.34048
6.43583
-22.5105
-33.895
-20.3293
-3.86906
-8.47981
-16.9087
10.3913
40.9545
29.0368
22.032
12.8704
-14.3748
-19.977
-26.1346
-27.1252
36.0372
47.0744
30.5106
11.8825
-2.14807
-15.4876
-13.533
14.0864
28.3546
21.153
36.6234
3.02037
-31.018
-27.0914
-55.0825
-22.9698
12.2115
13.6477
26.6811
21.076
-31.8673
-9.10232
-23.0027
-32.5038
23.8118
14.1058
10.7256
-15.246
-28.3725
-12.2886
1.94269
-29.1944
-0.154452
26.3504
46.8595
17.651
-4.58919
-0.343283
0.866141
-5.74375
5.75267
19.5459
9.34274
7.38012
-23.3259
-13.9287
-4.44016
-8.518
3.99438
25.089
20.1506
15.9578
-17.8268
-33.9661
-20.7578
-41.7219
-49.4727
-0.976695
34.6237
55.0666
24.5345
-11.2565
-8.19732
9.99537
6.02394
-26.3661
-19.0902
33.0704
11.1814
-18.7131
-19.2358
19.5851
46.0839
-9.48254
-23.877
39.1977
45.8766
11.7302
-20.6454
-35.797
-30.106
-18.8352
-14.2084
-33.7566
12.92
43.5196
15.4365
-4.36237
-0.225328
3.25778
6.86389
-28.0929
-29.1567
21.2153
28.2142
-6.57315
-5.72186
-5.63419
-4.38183
-24.4226
-5.74653
-4.84228
11.9827
34.9994
13.0768
-5.65365
-22.6566
-18.4717
22.5636
22.5238
23.5182
27.3798
14.6998
4.70476
-33.1462
-37.1348
8.87443
-10.313
-22.6558
0.710847
-8.30935
-13.7649
-22.9027
-23.9068
21.598
27.3114
41.8776
31.7013
-5.99522
7.31573
3.87612
-21.1648
-39.2627
-6.39984
11.0294
6.38307
-28.2162
-21.5683
4.15405
-7.20548
-72.6205
-23.9689
74.9585
95.2692
24.4877
21.3812
19.2614
5.4957
9.23416
-27.1487
-28.1948
10.8567
10.3489
-8.42885
-0.618241
-17.2556
-37.5831
-48.9966
-28.8665
21.8524
57.739
32.0512
-24.2935
-27.9286
-18.8663
-40.1101
-43.0998
-3.96379
-1.1759
31.9952
26.7959
-3.77402
24.2288
27.28
-2.98038
16.7283
30.7976
30.18
15.4842
-5.35629
3.68384
3.41544
1.79409
-22.7126
-45.2436
-10.8246
9.62971
25.1167
24.6702
0.360407
6.54604
11.328
-39.9356
-7.46933
20.7695
2.58211
-17.6738
-13.4335
-19.1844
-25.3705
-6.77268
1.09166
-16.6391
-5.25339
12.6164
8.29024
-16.2979
-45.311
-6.47542
7.44521
-5.07919
-1.66842
27.7161
-6.78641
-5.62784
-1.90819
16.4171
66.0728
49.6999
26.7279
7.11181
-1.77202
-5.41856
-20.8431
-3.82469
24.7359
35.2627
11.5574
-14.8275
-23.3199
-17.604
-7.6
-39.4221
-31.4998
36.0711
28.5905
-1.7168
-29.0011
-6.6439
9.83219
-8.13452
-32.3427
-47.4905
-19.3427
17.2602
-5.76687
-9.00947
-16.7089
-6.29778
14.804
-2.43811
-27.707
48.8392
68.0176
12.1802
-10.1712
5.96697
9.12642
-1.52204
-19.0392
16.4453
25.2633
26.1617
16.5974
-15.8154
-20.4908
-15.2432
-17.4907
7.36726
-9.31143
-3.55564
24.1351
3.26337
-24.1752
-32.0246
-29.3315
19.6342
32.5115
2.34294
2.53626
-10.5441
-18.4839
-10.0944
-14.1095
-6.39852
49.5117
37.2908
31.5895
-3.14364
-9.31009
4.79083
-6.93398
-25.2891
-4.27991
18.769
31.7423
-15.3319
-41.3699
-25.327
-31.8621
-1.33631
6.26085
4.61112
7.50135
12.3706
-3.8702
-2.08289
-31.6203
-10.4943
34.9769
24.1538
19.6059
18.5489
1.76975
-4.04304
-3.80387
-35.4366
-55.7974
-0.790453
43.8202
8.1758
13.5226
23.6841
27.2309
4.69246
-37.108
-3.93479
44.4185
1.50315
-27.6867
-13.8675
6.58089
8.85401
-24.8733
-56.5714
0.421845
28.8089
36.1268
10.7052
-4.8094
-13.5389
-36.6819
-48.0634
-25.1765
8.71682
15.9484
3.26503
5.89791
17.7445
14.4716
-19.1374
16.6944
18.8618
22.0171
43.4139
15.6702
12.3089
-9.01185
-30.2882
12.863
22.5936
27.1854
33.4979
8.38317
-26.4232
-66.9699
-47.079
0.710555
-0.44704
-3.93513
15.7441
-4.4018
-6.51639
-17.6696
-56.8374
-59.4601
3.74726
24.3904
29.9422
10.2194
10.7885
12.5417
8.37513
-9.29816
2.79897
63.3227
48.1019
11.5671
-19.8359
-34.2836
-28.1149
-36.9518
-40.2152
-0.848672
57.918
43.011
0.875395
8.54969
8.01119
-1.31147
3.67866
-19.7097
-35.0681
24.7118
1.58554
-28.7739
-25.8829
-17.9494
12.5934
15.3763
11.6406
33.9128
32.6409
22.8336
-6.12627
-14.1668
-19.1173
-46.0468
-33.309
-8.56016
-0.137825
17.3117
29.7556
-1.31635
-8.77409
-8.11519
-19.9627
-9.00417
23.0737
26.2158
24.3846
-6.13132
-9.69509
-9.69785
4.17735
-7.88693
-2.10906
37.2357
27.5801
-1.27015
-2.73316
-1.38221
-8.05369
-37.552
5.5943
18.4213
23.9555
7.74185
-15.4901
-24.6908
-30.3153
-28.0651
34.1885
30.9791
20.8483
8.18831
-20.956
-14.2075
-24.6992
-41.7299
-2.11855
-0.714263
2.93983
11.125
6.23543
2.71243
-30.6853
-43.2172
19.7198
45.5646
43.9261
30.2796
-9.51323
-8.63465
-28.8166
-37.0192
26.4222
23.1784
14.7346
8.14014
-9.9337
6.36814
13.4492
4.84045
-39.8344
-20.5056
19.1585
24.8096
3.98658
4.3489
-1.66204
-22.1466
-28.7649
-36.916
-22.3973
51.3877
32.2618
-5.32033
2.73105
17.7812
-0.333072
-11.6372
-44.5233
-15.8757
53.7006
29.8147
24.1261
19.2683
-8.58573
-23.024
-25.8287
13.7454
16.0541
2.22352
0.505006
-16.7447
-22.7341
-10.0763
-28.1674
-9.86324
-1.03947
5.0173
28.4038
13.4741
-37.5483
-31.5277
-33.3251
-22.7581
41.3101
43.6267
33.744
7.95034
-1.5624
9.35528
1.27795
-26.2893
-24.8798
14.7148
16.7312
3.27009
-0.892333
7.12309
1.46542
-16.2093
9.14804
28.0151
31.334
25.4411
-17.4659
-24.2579
-23.5504
-24.2543
2.89236
6.02836
5.98109
10.2864
-10.6243
-24.8877
-27.0909
-39.6558
-14.7155
28.8822
35.4331
40.3102
4.27997
-10.2197
11.0138
12.1613
-32.8807
-37.8175
26.1938
49.4271
16.7056
-3.20179
-5.15569
-8.07394
-5.69552
-32.5522
11.2137
32.2055
13.5754
-16.5162
-15.5028
-10.0627
-0.32349
-0.590913
-18.9319
-17.7986
-22.3875
-20.4993
-12.5849
4.69851
0.207269
1.95574
-3.63792
30.3812
33.7386
30.0957
29.9474
35.143
12.2415
-22.3426
-59.9174
-11.7705
-9.88647
2.77982
16.9077
4.86494
10.3917
7.58598
-35.7481
12.8408
8.45889
14.7088
28.3181
6.53548
-12.2219
-33.4235
-59.5514
2.1257
13.0765
7.42236
18.7649
-0.246329
13.9633
-4.5889
-25.7916
-47.198
1.5667
55.6141
44.0306
4.62795
-9.23775
-15.7787
-6.311
-7.96397
-16.8573
14.1914
23.229
-20.693
-22.6682
-12.7261
11.1599
-1.32859
-43.7385
-41.7877
32.3921
59.1599
3.25942
-9.47889
22.9216
18.6757
30.9468
-21.9007
-23.1913
5.20679
8.27231
-2.53078
-5.5477
3.3765
0.881966
-21.3077
-15.0427
15.6089
31.0521
26.1546
0.448475
-0.793945
-3.65021
-38.4066
-23.3567
-8.55761
0.315061
17.7408
-28.9229
-42.4146
0.867108
-14.6003
-1.11123
25.9708
16.9792
23.6161
31.9147
21.7799
42.2662
19.4543
-30.1143
-1.12284
13.8354
0.395856
-16.4553
-27.0701
-22.0605
6.24909
18.0149
37.4325
0.802345
0.119368
-7.65069
-40.8474
-24.1055
-15.804
-11.8949
-7.79475
-30.6785
-6.96882
19.4161
5.79923
-8.30432
-18.471
14.8007
11.968
0.723152
4.20425
22.1605
2.76372
-7.63023
-7.20644
29.8482
17.7197
15.9099
16.0516
6.72775
-2.67329
-0.111508
-19.1497
-25.1125
3.49573
10.0198
20.9182
2.84056
-5.68464
-23.6068
-17.9122
-13.0367
-58.6744
15.6012
55.554
25.6241
9.61221
-1.10484
-3.54556
-10.9175
-23.475
-40.1271
-4.25014
3.18442
23.0402
24.4455
23.8983
-3.40467
-16.5731
-16.0987
-30.9107
7.32748
55.5691
17.2059
3.4403
-11.8883
-20.6744
-20.3051
-23.4843
-13.925
27.3117
46.0196
33.4827
13.706
-28.5439
-29.0131
-34.8697
2.04034
26.7199
21.0772
27.248
3.92693
-11.5
-7.5761
-19.5448
-45.2712
5.88828
13.5534
26.7558
20.5484
-16.3241
-10.776
-22.1454
-34.9018
-2.59687
16.0826
18.682
-3.59875
-23.0352
-14.6581
-2.83618
-8.99496
18.259
10.4299
22.9352
29.2496
-5.09105
-5.52292
-24.9186
-35.9052
13.5795
32.3758
46.4414
43.8442
3.82437
14.7946
12.3268
-27.6516
-28.6985
11.9254
10.6563
8.3657
-12.5375
-19.9812
-31.7502
-32.3719
-53.0252
-47.7211
24.7286
44.9171
-3.12057
-15.9564
-7.64493
7.78881
2.48119
-36.6728
-12.2903
30.9744
51.2299
11.2596
15.2644
28.5943
18.4925
3.87582
6.70998
-23.9774
-30.7946
11.5913
-4.99838
2.25477
-6.1087
-9.6016
-11.9967
-15.0326
10.3955
49.8227
52.4084
26.5802
-6.18799
-19.4784
-35.994
-61.516
-37.8884
-1.48876
10.9477
50.6358
36.9955
-7.51775
-22.3942
-30.3033
-5.90352
11.5798
7.7543
18.48
1.33374
-10.4554
-16.2232
-50.938
-38.6367
12.7009
34.4911
40.699
17.8786
-2.55643
-3.76454
-14.9102
-50.5968
-6.89274
47.001
48.4166
26.6582
2.04603
-8.25732
-0.996738
-13.5282
-43.2427
4.33063
26.864
16.3864
-16.364
-12.7841
4.24153
-19.0441
-52.8384
9.33377
41.6412
45.9816
17.9934
-2.98149
-1.64236
-7.58277
-13.0636
-37.3883
-24.2728
22.1138
27.9645
-8.45872
-3.74027
-20.0487
-13.2506
-20.755
10.2135
46.8146
39.5879
-11.3794
-26.9588
-1.46642
-13.0754
-37.1137
-21.8863
6.48457
11.5981
31.0341
13.6628
-7.62317
7.44266
15.507
-14.3634
-31.565
7.54212
58.7581
40.0489
-1.52721
-7.57031
-18.1117
-16.9931
-13.7814
14.3761
23.7596
2.69016
-31.6587
-31.6372
-14.2021
-18.8016
-36.791
2.24199
9.05613
28.2272
43.5991
24.1143
2.85794
-33.768
-58.4435
2.78316
25.113
21.5863
40.8911
11.8196
-11.8203
-22.1044
-41.4383
14.7404
15.5186
11.8867
17.6919
8.85775
-18.2242
-32.7501
-60.5691
12.758
71.1768
59.0931
51.7444
4.29198
-31.8644
-19.6644
-1.24301
-38.6411
-38.7423
-16.159
16.1378
-2.76929
-9.66432
-0.702267
6.8314
-13.2275
-24.1543
-0.350939
41.0044
-10.897
-32.5435
-19.3309
-8.03547
-3.51627
-0.448484
-23.7725
-18.0421
24.8453
48.0063
40.7303
30.4941
11.361
3.74943
10.7831
14.78
5.75314
4.87396
8.58507
7.66242
-10.2655
-32.6237
-39.142
-2.57502
11.4102
9.37593
15.4856
10.1635
3.17023
-11.8926
-30.4864
-25.5393
7.20856
16.3436
13.9374
-1.83588
-10.0024
-1.09459
5.55614
-30.5704
-36.3282
9.81512
45.0891
29.7287
0.150553
-9.29203
-5.49051
-23.2744
-54.1106
-25.1238
38.0092
40.4409
22.3956
7.18587
-2.79019
1.15302
-35.6808
-12.1705
14.2248
34.2287
19.0495
-31.8124
-38.488
-34.5851
-30.1021
17.2069
40.1594
32.0969
39.5587
4.33636
-13.0506
-10.8392
-50.3061
-20.7528
31.8537
11.375
34.0402
22.5157
12.4291
28.2906
15.2682
-34.2824
-24.808
11.2827
6.37104
-16.638
-27.2844
-6.79525
10.3117
-2.94573
-32.3008
-24.5538
-0.548423
28.6969
-2.66107
-10.3282
3.25328
6.43989
-6.51251
-25.2387
-21.0938
26.7784
37.7045
7.54929
-5.66271
-19.7586
-4.81526
0.0107312
-16.0524
22.8812
34.5928
10.0307
-6.19615
-24.7714
-23.1236
-10.3586
-13.7357
31.2522
34.366
26.2739
23.2553
9.72325
-1.08484
-31.4501
-43.3002
27.6266
27.3419
12.8796
18.3171
-3.51987
-14.4052
-12.3427
-31.9211
-31.7895
-5.24029
12.773
27.1176
-7.00029
-27.1069
-7.01921
11.6821
-15.0647
-42.492
23.9412
50.5512
-8.5595
-18.9151
-15.5789
-8.90915
-24.824
-27.5943
27.7956
41.5091
25.4878
8.45053
-4.97813
-2.05047
-8.79559
-26.3631
13.0446
25.7806
23.018
28.6898
9.9893
12.0406
7.23783
-19.8797
-74.694
-29.6362
34.4166
39.048
18.1873
23.1191
5.51125
-7.31243
-28.3682
-44.4006
-5.14291
15.4211
-12.988
-32.1132
-32.9671
-11.518
6.41325
-0.359495
-19.8334
23.8604
63.4361
32.8032
0.357073
-1.87473
-24.6449
-25.9894
-35.6076
-31.8488
69.0049
66.8161
-1.10726
-9.75115
-3.61604
-5.15331
-14.1185
-13.4791
-3.11196
9.02263
4.35811
-10.411
3.38895
-2.22652
-16.3063
-17.0299
20.716
21.9573
21.4926
5.05387
-23.4754
-9.10051
-8.61723
-1.01778
32.0646
27.5226
31.4298
17.569
-9.07088
-27.0083
-49.2658
-20.393
26.9634
15.6563
1.76426
4.9391
-17.5181
-17.9653
-32.1629
-24.9794
0.276771
4.15559
9.86366
9.02144
-12.5046
-8.77855
-1.43886
-30.4671
-40.7706
35.8748
76.3607
52.0772
11.9022
-3.78169
-9.50715
-14.7166
-58.3138
-31.1973
8.91425
3.68736
-27.2999
-18.5268
10.6577
36.0488
13.8153
21.5985
41.376
56.1255
48.972
-11.9283
-30.4577
-39.8135
-62.5808
-22.1583
17.9715
27.4811
42.7051
17.1526
-1.46057
-6.14472
-47.7592
-15.4864
15.0778
-0.817435
-0.945177
-6.07785
1.32348
14.9424
-9.91685
-4.07981
38.1542
22.4461
11.3635
-18.9319
-47.7529
-63.614
-60.3458
-51.363
-21.5176
44.2547
60.1409
38.9386
17.7811
20.7235
1.83215
-25.505
-2.65367
2.42485
-4.64817
-14.4023
-35.7773
-19.9433
10.907
12.2416
45.2119
64.1861
54.1761
44.6248
28.2219
-4.25037
-7.8811
-48.4088
-24.1168
28.8581
19.7423
7.16213
-32.3679
-37.3747
-21.2929
-50.0027
-44.3127
-27.9611
-64.0425
-74.2177
-72.3125
-29.9162
18.4124
56.2495
62.3981
68.7418
102.113
94.2893
66.9381
46.5023
24.978
-3.56068
-13.8346
-18.6515
-19.4968
4.43095
17.8838
-12.6621
5.29996
19.9645
0.187574
-32.4392
-73.0584
-94.7197
-50.2745
-18.9306
-40.5735
-28.0357
-41.4032
-61.7752
-40.8365
-20.9865
16.8058
32.365
38.5742
39.6425
23.1689
27.8242
25.7373
24.8959
66.4294
60.4253
52.8702
49.2056
34.8509
13.922
-27.405
-37.1356
-23.3701
-47.7575
-33.6458
-7.61539
-15.2438
-5.51623
7.02566
-10.425
33.3073
24.1323
6.20162
-14.0617
-49.2001
-27.1676
-10.6842
-14.3447
0.779131
7.06894
4.59969
14.3937
-5.08578
-8.48449
-5.76567
-21.1012
25.3461
27.3873
20.7495
31.4386
-8.47853
-15.0341
-3.74896
-4.94324
33.8047
26.2158
6.7819
8.33903
-7.3555
-24.5549
-11.3191
-12.0627
-31.7867
-12.8768
42.8862
59.7055
19.6233
-5.43263
-25.4538
-22.7639
-47.4269
-68.7948
-9.35301
-1.7887
-45.5102
-50.8136
-11.7571
20.2767
16.9829
-21.0768
-10.2246
30.2518
38.788
32.6448
0.616639
-0.845948
-15.2398
-8.56321
-15.8652
39.2056
65.1598
92.454
70.0204
70.779
53.6212
4.65718
-38.084
-3.64157
-15.5952
-43.825
-44.9708
-35.1032
-24.8638
-30.4015
-45.0819
0.691605
8.70341
4.02749
27.0412
0.674336
-15.3275
-26.5931
-73.7799
-27.0433
-0.462575
21.6652
21.3351
-6.30543
-7.04351
10.2644
13.1403
22.4645
12.4764
8.93996
11.4827
-5.84977
-18.95
-29.0584
-52.5937
-74.9328
0.291841
33.7981
55.9985
42.7768
21.209
7.5595
13.8853
-4.51916
-17.7616
36.2684
26.1104
-5.13021
-2.69223
0.810422
7.23189
3.69445
-12.8198
-22.1432
9.17497
59.7653
10.1217
-4.48908
-2.20645
-16.5967
-13.3395
-12.3422
2.65838
7.20795
-2.92494
-13.2237
2.39133
-4.13445
-9.4772
-34.0378
-24.6868
-22.5209
-18.5414
6.16254
21.8682
12.4914
-10.6124
-38.0044
4.83109
11.7462
13.8487
33.7601
36.2742
17.7865
8.37272
-31.2005
-14.6535
0.790662
2.28175
21.3038
20.4225
16.7747
6.45897
-1.19904
-9.07611
-13.2958
31.7713
21.6261
-10.9893
-17.2944
-22.7314
-21.3907
-33.4285
-38.6585
4.54495
32.3481
16.8722
-4.54002
-8.11312
2.11084
-4.44318
-43.7404
9.00372
21.7049
21.4698
2.67846
-28.1067
-15.7243
-28.277
-14.7491
42.376
16.0703
-9.53458
-4.38011
-0.222537
5.49199
-16.6864
-42.788
36.6373
48.8399
36.3698
42.2512
14.7399
14.7348
9.21246
-20.1591
-46.2914
2.72221
7.21143
1.27186
-26.7742
-10.4417
6.72449
0.441029
-21.8851
-25.5562
-1.67251
56.196
19.133
-3.06517
-12.3285
2.36827
-17.7345
-27.7767
-31.8924
21.5064
30.4901
-2.33384
-9.48383
-7.17287
-16.5998
-18.4074
-28.7248
18.2313
25.9704
15.0886
3.00655
-6.66834
8.78962
-8.20133
-25.2304
31.646
35.9554
21.0254
15.2649
-5.39086
-10.1581
-22.7563
5.27556
4.66173
-4.43113
-2.25404
21.9729
8.54502
-6.35365
-42.4805
-41.9746
11.7878
7.74748
19.2816
10.1035
-27.0543
-16.6128
1.33491
3.56079
-28.4939
-9.26985
29.108
19.6587
13.0996
10.4153
24.2668
5.60824
-51.5181
-9.44628
48.7468
45.8474
1.24441
-25.9092
-18.3338
-2.6869
-32.4324
-46.1864
6.63745
20.4322
17.8283
10.0489
-0.761991
-6.37121
-8.92444
-13.2821
-30.68
11.5309
53.1418
21.1168
13.7311
14.9248
-20.0098
-43.9997
-62.0898
-35.4057
26.2566
39.4035
11.7958
-2.90433
11.5543
12.611
6.22391
-18.6219
-16.4748
28.1409
31.0744
14.7991
-1.11999
-12.5319
-16.8636
-5.46589
-24.2544
18.2275
52.9641
39.9119
5.30392
0.0617899
-9.02057
-17.6193
-37.4957
3.55866
19.6772
18.789
8.88051
-29.3789
-35.7514
-34.9211
-47.0258
-3.74821
10.8774
14.4155
15.9649
-7.68392
-6.54487
2.93574
-20.9839
-0.9581
-1.8635
17.6774
30.7093
-13.0522
-23.1739
-14.9351
-25.8381
-1.19838
42.3452
39.1128
37.2964
4.42093
-17.7059
-8.28152
11.0112
-12.5789
4.61364
50.2746
43.0198
11.2143
-9.77013
-18.1217
-11.7324
-12.2118
-31.865
-15.4811
28.8502
-1.86216
-12.0557
-14.3999
-3.93116
-5.16589
-17.3475
-39.9839
-44.1371
34.8458
37.4366
5.04669
3.62137
-0.782529
2.10106
3.11625
-10.2492
15.8949
22.4942
18.7383
-1.63263
0.0429037
-1.68679
-4.76781
-12.6156
-3.47022
10.7079
4.38456
8.4201
-16.084
-20.3871
-26.317
-40.8931
-59.1203
-15.2509
22.4965
34.9018
4.95739
9.94169
16.6231
14.1335
3.17741
-45.3388
0.513074
33.7131
20.2623
12.3923
23.3575
32.1241
16.5821
2.01951
-13.4465
4.20005
62.2957
31.2921
2.18584
5.46522
-1.86224
-21.5758
-35.1401
-44.3524
-3.26655
21.3491
-2.68747
-17.6329
-17.3209
-21.456
-58.3268
-67.6581
11.0655
26.6887
21.1758
25.4705
10.5445
8.17953
2.84634
-7.40369
17.3252
13.8573
3.96081
8.32145
-5.11267
9.6511
-2.72668
-51.1471
-82.5298
-11.7415
53.3672
65.2988
17.7187
-4.58437
-3.71394
3.57892
5.67471
-17.0886
-40.9428
5.69697
19.5788
22.8689
21.9824
5.13035
-18.0711
-11.2513
-27.2202
-31.0019
26.0673
48.8419
18.388
13.8351
-14.9367
-22.0039
-2.58736
-5.92907
-15.1907
28.6168
28.8436
5.49733
-29.6865
-40.9233
-24.5692
-24.942
-29.6624
28.588
41.6441
58.5584
35.6901
-19.869
-16.0158
-20.893
-36.011
5.32096
-2.47047
1.62486
1.13307
-5.64125
10.8185
8.98482
-4.97557
-35.0467
-11.6134
65.6541
49.3018
-14.8797
-15.3411
6.34891
13.5902
-25.2854
-43.2473
19.4774
21.6171
-5.47174
3.5873
5.90004
-2.20267
-28.9621
-41.7322
-16.282
21.7324
30.4601
15.6407
-13.2192
-3.78785
1.19772
-10.9653
19.365
25.315
5.47
19.4266
-3.1166
-9.36327
-19.817
-42.8687
-39.8506
5.1596
41.8023
40.0379
19.8361
1.52123
4.3552
-31.1948
-60.4251
-54.528
-3.91814
17.0347
18.4695
15.7005
20.0186
22.9411
19.689
20.5418
10.8475
4.43777
33.2017
6.54886
-30.9197
-18.3261
-4.09131
-5.9764
-9.46688
-25.9787
-28.6839
38.598
15.7048
18.9616
12.3216
-8.77111
-14.4386
-31.4112
-43.1575
6.80339
22.0162
34.1818
17.1577
1.21338
4.10551
-5.99802
-38.7694
8.7751
37.3313
47.8434
29.7368
-16.3721
-32.4388
-53.3916
-62.8093
-26.7211
-12.9773
-5.04226
0.245479
-11.1978
-4.33986
-14.187
-22.0936
20.2065
54.0022
52.6943
41.5853
3.1204
6.79738
12.1237
14.0183
-16.8154
7.70628
25.8208
10.533
-8.19757
-1.8998
1.86036
-13.5057
-36.4813
-37.4997
24.5977
15.2185
-9.46513
-24.7574
-17.9451
-4.86024
-40.5977
-39.2947
8.17164
34.3916
45.3894
11.7638
-1.36829
13.8707
11.0199
-12.756
-30.8922
41.8154
27.2518
4.24126
-9.11353
-3.71537
-2.48413
-17.9723
-26.3341
29.5417
27.2879
8.27143
0.423456
-6.87039
-12.4916
-27.173
-36.1367
-0.44453
12.1359
25.5788
41.7959
1.3533
-4.10869
3.45476
-3.7017
-43.0516
-31.6445
17.9786
29.3634
-10.9716
-13.7398
3.0697
0.808672
-22.1722
-37.7156
6.86204
16.8009
-6.85069
-19.4534
-4.12181
11.7734
-25.2366
-27.13
38.0065
44.6487
51.587
27.6838
1.66787
8.50102
-13.101
-22.8037
14.5482
-4.14309
-2.63937
2.42414
-12.533
5.09495
-8.98241
-14.6528
9.40764
2.69039
6.06941
22.418
-6.88026
-22.244
-21.4803
-26.9939
-39.3678
-7.84466
15.9209
29.6628
-3.51295
1.96796
20.6065
16.4825
-16.5247
-11.8449
39.7697
34.1737
7.69321
4.80668
5.49987
5.18629
-16.2589
-31.5458
-8.89192
19.6844
7.77822
-7.56284
-7.0457
-2.49881
-4.535
-16.5174
-21.1814
10.4988
3.07918
-3.81349
-20.4926
-14.7088
-1.54408
-25.8763
-6.46881
34.3919
22.2347
25.9863
17.0398
-2.38205
-4.68604
-31.3176
-9.36454
7.72491
2.49298
3.94302
8.09743
3.93982
18.1479
-17.6651
-46.0043
23.3948
21.0959
28.9848
15.1723
-7.45299
-11.6191
-8.04861
-27.24
-29.1332
45.3211
40.6675
-1.19295
-5.61166
-3.57071
-7.14501
-7.66513
-28.9179
20.833
38.6282
22.2566
-21.7523
-24.1104
-6.58639
-11.9956
-59.1685
-23.7658
31.1261
39.7926
27.4287
-22.8579
-6.07848
-19.1072
-38.7475
3.2591
20.814
12.6764
13.9811
-12.8795
-6.07345
-6.59162
-61.6409
-11.8605
39.4309
26.2
30.2562
28.2125
13.8624
30.4673
10.0594
-35.4298
-14.4933
33.9354
43.4386
12.1587
-7.72246
-22.0151
-13.6058
-13.4023
-24.3168
-31.1617
7.80625
38.0031
-1.90102
-0.276462
9.27601
-9.25129
-28.9349
-24.2637
-25.5181
10.3724
0.0958856
-17.4037
-6.61836
-7.80019
-1.27578
4.29782
-8.24866
11.2908
23.9672
35.1805
22.4002
-32.652
-33.7478
-29.5669
-30.0172
23.896
21.5
11.8375
25.6388
22.9976
11.855
1.38202
-15.3322
8.235
16.2594
12.4752
17.2751
0.39503
-1.31847
3.88918
-4.64233
-38.0899
-17.9842
21.9457
42.9707
0.739946
-16.5018
-5.30921
-3.63237
-31.2434
-46.9851
4.49274
41.1217
15.4317
1.15472
3.51346
-2.02082
-18.1747
-38.6054
-17.0228
22.3354
19.4541
3.98792
-14.0091
-7.95102
-8.22058
-27.2879
-19.8715
43.2551
40.4072
28.5889
-2.56156
-4.61592
-9.1796
-30.5627
-55.0027
-14.1724
33.405
30
15.502
14.8271
28.9904
15.1661
-21.4529
-7.93895
20.1847
5.47108
-8.33958
-29.6063
-14.2801
-4.01635
-9.16511
-20.9017
-1.8227
21.9059
42.9766
35.2883
0.46927
-0.468719
-14.7324
-56.4583
-41.5648
-3.44698
16.7563
15.4779
3.13523
10.3077
7.90796
-17.9069
-14.2702
17.8472
-0.155731
0.221533
-8.39422
-4.41542
16.7229
-2.76933
-19.4762
29.7361
21.5596
24.4784
5.82469
-28.5227
-23.5944
-43.2313
-37.6191
13.3516
30.8389
32.8722
39.7438
23.7799
10.5488
-16.4589
-31.2347
15.5248
20.168
15.8681
-1.62505
-33.3471
-25.7794
-16.0092
-33.0104
-10.9891
14.507
31.6233
18.9783
-1.41036
1.26928
4.42585
-7.03718
-35.6161
-45.7359
3.16749
63.7845
19.3252
-5.11029
-8.91653
11.9259
22.4519
-4.13341
-23.5316
30.9842
19.1797
7.02856
4.29113
-26.3596
-31.0432
-38.315
-31.0377
-6.92577
4.9139
17.6125
5.47954
-18.3555
-22.9942
-27.385
-13.9153
18.9319
17.6323
31.1372
30.5888
5.81777
1.558
-22.2205
-14.8422
34.9962
34.6103
33.1808
21.075
8.95884
7.28398
0.320013
-42.4117
-21.0729
18.8609
17.0513
2.89691
-18.6404
-21.5785
-15.0639
-7.46069
-41.9918
-2.48279
32.4356
22.6583
-3.3849
-4.31357
0.953874
1.83494
-28.0245
-19.1048
20.1263
44.2496
13.1698
-14.4631
-8.57652
-3.54571
-27.9469
-13.0502
12.4857
7.48486
11.7889
5.59525
-3.16706
-10.6173
-45.1939
-18.549
25.3086
14.0179
22.1239
19.6103
0.234456
1.86101
-30.7976
-42.3365
7.79333
19.8749
20.4108
4.91682
-1.52783
13.1669
20.4953
-9.54183
-27.3891
-1.49459
29.0437
14.8007
-11.3462
-9.40797
-2.70128
-1.39106
-12.7254
-38.1784
8.06013
39.4759
26.0763
2.24055
-2.58548
3.10289
3.95862
3.9335
-13.8702
9.92968
1.8728
-15.4997
-10.1266
-7.02457
-19.4583
-30.681
-37.6724
-4.34444
3.20038
29.0267
17.8622
6.33006
-3.9247
-21.5951
-27.3648
20.3018
38.383
29.6293
30.2666
-1.48428
-8.71711
-17.8747
-21.877
24.4999
8.25416
7.58295
16.4347
10.5125
17.0484
13.3339
-21.6021
-34.989
2.15863
13.4269
9.87593
-21.3802
-26.5207
-14.568
-14.73
-40.7714
7.72214
34.1779
27.7031
-1.31998
7.90136
11.7322
8.35595
-19.2743
4.11951
6.09079
7.47782
8.30259
-21.5845
-20.9077
-15.2722
-44.9169
-40.2908
20.6827
22.9732
34.0489
12.4857
-0.96275
1.65607
-5.59653
-18.8998
-16.4425
18.5461
24.7052
8.65216
5.69937
14.8773
8.57772
-25.652
-27.9502
21.5828
37.8464
18.3762
-18.9179
-16.6166
-6.74698
-11.9997
-13.0156
-15.9269
-13.2386
29.0413
30.314
11.3089
10.9191
2.44268
-3.57506
-14.9084
-24.8734
21.5703
26.5472
4.1833
1.69433
-0.507822
-19.5433
-30.4916
-13.0953
5.85009
-6.42931
2.13798
8.5215
3.18574
1.78279
-30.3823
3.31461
3.63315
12.6999
14.6786
10.8769
-17.8406
-19.5646
-62.6031
-6.65763
35.8484
22.3998
27.8903
20.9505
10.9038
11.5686
-14.2413
-19.216
5.64756
8.76233
14.2555
-10.9697
-13.3533
-8.44011
1.89912
-6.85391
-53.8096
24.1153
64.1822
15.5986
-13.9907
-7.74895
6.48952
4.67493
-14.2985
-43.3888
-15.8166
30.7296
-2.22875
-2.76828
9.36011
0.519883
2.75789
-17.1667
-46.3498
29.0803
59.8081
15.0951
15.8793
1.8643
-26.058
-38.4327
-29.5762
10.2348
19.0955
25.4066
19.6141
-21.7877
-31.0659
-22.1988
-22.8358
11.2512
10.7431
17.3664
24.113
-5.5772
1.97531
-25.7356
-18.6381
17.0664
14.7614
19.0171
14.981
-14.0264
-14.4575
4.28238
1.92608
-33.0992
21.1583
45.5696
31.0495
3.49563
0.77119
4.90762
11.6283
-30.2773
-15.201
-8.75665
-26.3768
-38.2999
-18.4323
-4.60548
-9.48384
-33.7326
24.0065
49.283
26.4947
25.9891
-1.48091
-18.2286
-15.2096
-34.9974
2.58016
11.5035
17.8498
25.211
15.4424
16.7859
8.14855
-43.3937
-7.2857
20.4681
12.161
6.36789
-23.5695
-23.4428
-12.1015
-29.8126
-21.4139
29.3338
30.5887
27.1404
0.160341
-4.87843
-3.93528
0.138844
-22.5255
-40.962
25.7193
38.5649
12.816
-8.54144
-3.52757
13.8471
2.31962
-26.1167
-5.86562
21.8921
19.243
-24.0512
2.36225
22.8789
4.50478
-14.9928
-37.1643
-47.1716
0.0954851
36.0034
1.41537
3.69202
0.155056
-2.12332
-13.9976
-40.3469
17.0902
28.6393
25.0201
27.6604
7.14504
-0.627287
-22.2799
-39.3838
-7.16618
7.77552
28.9913
40.5691
9.56903
-18.532
-55.0244
-38.0335
30.1343
27.4582
36.3278
46.3029
2.11741
-1.12929
-6.33415
-36.9886
-60.3401
0.649481
17.6262
17.1374
4.90617
10.8749
11.3354
-3.44346
-30.6919
16.4967
20.3296
8.73188
-36.1706
-41.3749
-34.9928
-43.8448
-61.8691
9.56384
23.4273
51.8383
56.7701
10.2527
-7.23642
-26.2374
-41.5236
3.32788
38.0748
29.3617
41.0245
18.6819
19.8429
18.4456
-6.77724
-36.444
0.812259
45.9545
35.1356
-4.4333
-10.8862
-8.73493
-2.61975
-40.804
-51.0987
12.0692
45.7578
7.50263
-18.3892
-11.4544
-17.3225
-33.6756
-27.9652
-66.4401
-22.7823
47.7299
31.762
17.7694
16.4701
-2.52411
-1.86655
-9.35295
-17.6089
31.4325
34.4854
2.37323
-19.3094
-19.4591
-11.6239
-23.3334
-21.7913
23.7833
37.6926
49.7566
10.4666
-11.6545
-4.5425
-2.87685
-17.9846
4.16756
-6.61992
8.72797
19.2095
2.77139
17.5566
-12.4404
-30.285
9.46538
-1.54857
9.01139
18.4841
-16.7885
-37.8784
-46.2514
-63.1783
-0.112841
42.096
30.7408
30.753
11.1825
22.1716
19.1736
8.52021
-18.8785
-10.6683
31.4067
31.8791
-3.82959
-7.51729
-0.247252
-1.69242
-5.61705
-22.3652
-1.56521
38.8046
-6.19189
-46.4103
-43.8338
-25.6434
-20.0278
-9.08113
-17.201
-13.647
21.2828
20.0942
2.16553
6.89603
6.81232
12.4867
-2.09665
-15.3173
4.3782
20.2604
34.91
20.615
7.37643
-0.305347
-16.0464
-5.8377
37.3587
13.7772
-4.75823
1.64846
-4.35331
-1.09795
-16.3894
-56.0019
-28.8725
22.4478
29.3301
30.4374
6.15624
2.34575
-0.696867
-3.05846
-38.2716
-12.8566
35.0839
27.7677
-0.618668
4.43369
9.3168
-1.84867
-21.3895
-19.0221
-39.6292
-35.5598
-42.7614
-54.171
-27.1615
-19.2159
-11.1337
55.4952
64.3292
44.3003
46.8245
31.2125
25.4848
15.0566
-34.7024
-6.85888
4.82596
-4.83142
-6.84033
-5.21538
21.6058
44.5356
9.98244
13.475
1.91705
7.09667
5.00182
-22.3252
-24.6292
-25.4998
-34.1826
-57.8764
-22.6854
9.68732
14.4062
-1.31534
0.571387
-2.24729
-7.98257
-7.86362
-27.4229
-47.9623
12.5713
55.4772
49.258
39.7341
22.5834
-1.20191
-5.0597
-6.81259
-17.6253
-3.46291
1.9655
-28.1617
-28.4065
-19.9153
-7.5831
4.99642
1.44496
2.91991
45.2013
65.1105
33.2417
-24.8432
-25.5327
-12.2644
-23.0978
-1.77615
6.16088
-1.07408
22.0424
24.5433
-9.90326
-13.6617
-30.1106
9.92104
11.4902
1.94299
3.52748
5.85261
1.11583
8.26956
-14.7382
-52.1784
9.65094
16.8854
31.2429
9.99989
6.28526
-3.55515
-0.531059
-3.03298
-38.4315
-27.09
25.473
-9.853
-12.4215
-6.78254
-4.94463
-8.14266
-19.2939
-13.6241
38.9379
44.8413
12.4295
3.7918
-3.19754
-3.73419
-24.3965
-12.0665
22.3655
-4.28713
-17.649
-25.237
-11.9493
1.46975
-33.1686
-47.4949
35.4884
54.5618
45.8125
36.7068
12.1473
17.9174
6.62599
4.19229
-25.712
-26.9444
28.7226
18.1136
-5.93076
0.153325
13.6268
21.2135
5.40125
-36.515
-40.6835
35.4991
27.8141
-2.86083
-11.0328
-11.0251
-28.3896
-32.3701
-54.6946
-40.8588
30.7955
30.0891
-12.4436
-12.2784
-18.6641
-4.34334
-21.1327
-9.20047
16.3336
20.6691
36.6101
-1.37684
-18.9553
-8.58505
-11.1596
19.5671
24.7057
21.2955
23.6844
11.6485
-9.31928
-16.0579
-33.9714
-1.5869
24.732
21.5007
23.9334
11.0176
2.47258
21.8172
0.358646
-29.8014
4.09909
-8.05778
11.1351
-0.727319
-8.86954
-8.26064
7.15377
6.06706
-27.2259
-1.31178
10.959
5.9158
3.46627
2.84309
14.8436
4.13596
-43.1126
-29.7674
33.0861
48.732
-1.9313
-9.50977
-30.3263
-48.6309
-71.8735
-75.0969
9.329
26.8095
27.0417
0.132118
2.62971
7.46191
-5.21285
-5.77146
-3.81194
47.954
42.7755
16.0366
15.7092
23.8996
7.67679
4.72461
-1.49267
16.6208
54.5169
51.2771
-7.37891
-20.0842
-12.7444
-16.9877
-44.9294
-40.8718
4.10695
22.816
17.7293
-9.59493
3.07582
10.4804
-7.45026
-33.7611
-71.9064
-49.6564
13.4408
4.17839
-12.6827
-1.56591
-13.2693
-8.25291
-3.71898
2.75181
43.5999
30.1867
5.77507
-3.21032
0.330056
-14.9154
-30.9316
-28.1875
27.1501
33.8674
45.1019
38.7091
19.8619
21.4871
-1.91562
19.865
19.5414
0.223997
-4.4705
-12.2217
-16.588
-22.4292
-63.8312
-26.2326
12.0078
4.90794
13.732
4.73926
-23.7461
-7.72002
-11.1505
-36.1817
10.3666
45.2581
33.1071
8.91041
-10.4275
-11.3576
-7.23218
-4.84145
-33.0867
-14.3688
48.4373
19.5445
-5.06875
-4.01565
-1.41532
2.87658
-0.977857
-25.5044
-1.63781
56.2147
10.9774
-24.2368
-0.588544
3.61608
0.277669
-11.1507
-27.9733
-6.29216
49.491
30.1868
-8.77463
-14.2467
-1.88746
4.40942
-23.9821
-16.3703
-3.10268
0.0522003
-14.3347
-29.5714
-22.9307
2.15265
-3.66874
-0.242979
9.17166
12.972
23.3364
13.591
-1.66638
-0.823825
-27.6378
22.1126
26.4999
-3.86779
-10.521
-0.048012
-10.6427
14.4757
39.6404
16.407
-17.3152
11.1571
14.6551
2.79368
-7.16788
5.1943
20.9479
16.5291
-12.6497
20.2851
22.888
-28.5849
-40.0092
-22.9657
-3.41497
-23.4265
-23.4603
2.2241
-21.0861
-6.00128
1.92136
-25.6181
-17.6652
-14.1505
-21.8064
18.4965
16.2757
10.2931
17.6583
3.15336
9.29662
-12.0386
-44.4555
14.5143
54.6362
42.5457
27.9621
11.6014
13.7545
12.455
-1.80364
-46.6503
-14.8196
32.687
35.1041
10.2921
-10.8055
-14.1837
-19.3552
-36.6951
-41.172
-35.6465
43.4062
28.1538
4.7191
7.47246
4.56542
-10.1361
-6.39137
-13.4078
-9.08435
38.4895
9.51761
-18.8919
-17.241
-20.0276
-16.4466
-40.5217
-7.67433
30.9015
33.0989
31.0969
-1.55741
-14.9916
-6.48841
-17.309
-15.6636
26.9713
26.2665
25.1116
21.0743
-7.66042
-6.09257
-12.1642
9.78479
25.2313
20.445
12.8904
-1.08358
-9.51981
-17.7956
-26.9783
-49.8706
-27.8235
-2.3236
0.227165
-0.404373
-13.6957
-8.32008
-2.99536
10.9965
7.78767
34.9151
36.1873
14.9763
-5.30307
-10.5936
-9.57851
-20.68
-43.0503
1.48974
24.9317
22.0534
11.4613
8.5562
20.6693
-5.4965
-46.4758
-2.13362
-16.3826
11.3839
15.5093
-10.3486
-16.8903
-5.10233
-3.82145
-3.02455
6.43561
40.6249
37.3866
18.1061
13.6818
2.96524
-14.5853
-33.0381
-47.4062
32.8119
45.7893
7.07498
10.5668
0.189221
-0.862571
-12.8183
-47.5329
-23.0305
-5.36448
7.48549
4.82745
-21.8974
-20.3327
-5.56494
-6.53808
-12.9472
24.8995
28.4363
25.8303
-7.83052
0.418033
-0.679527
-8.73854
-55.9258
4.05455
17.3373
37.7469
24.5972
6.06319
0.56801
-22.8387
-22.2289
19.8119
17.2511
10.313
20.3883
-8.81107
-23.0862
-24.7142
-21.6992
8.88107
15.0132
21.5013
26.0038
-11.3105
-11.1908
-13.0091
-17.5357
7.57109
0.97785
18.5702
11.0064
-13.7416
-17.2501
-21.7616
-38.705
-13.5458
46.3531
37.1046
18.0236
-2.46086
-5.43238
-2.23295
2.43384
-28.146
-11.475
40.5895
28.5336
6.94695
2.3322
-2.98345
-14.1499
-30.0473
-56.012
-28.6284
29.5314
12.0757
-13.8793
1.17738
5.88473
9.09933
-23.1963
0.661361
71.0226
58.7847
27.7402
-7.59605
-10.9002
-22.8255
-35.5104
-10.917
2.73159
9.0057
27.8295
15.2038
-12.8264
-24.7912
-49.6094
-20.6344
8.21467
1.63866
15.9572
4.80276
-19.3719
-13.7938
-31.8767
-36.5228
-29.1238
0.0123518
60.6217
48.1556
30.733
16.6012
15.22
6.78277
-14.8572
22.2892
18.495
2.19558
-12.4702
-3.83496
2.62702
-14.8521
-28.2973
0.360643
8.70285
4.5395
-0.393371
-14.5136
-25.5859
-35.3468
-10.6688
22.4305
22.9776
22.8657
27.8511
-10.8325
-4.25177
-12.8116
-29.1757
14.1905
13.6765
23.854
15.8179
0.911757
-2.15409
-11.8422
-29.331
0.727401
4.21377
6.0659
-8.84997
-16.7815
-12.8959
-8.62095
-27.933
-13.3215
2.69653
39.0539
32.5034
-0.811258
2.40823
-11.8834
-13.9713
-15.0151
-5.35738
37.8103
35.7944
8.43308
3.39078
2.87346
-6.06639
-20.8311
-40.8234
5.03642
35.4904
24.9082
12.7576
-13.6652
-15.1868
-39.0937
-52.4009
18.5281
25.8596
15.4967
15.1149
0.0686765
5.58925
-18.8419
-37.0226
23.8671
34.619
11.0338
14.9474
-2.38646
-0.944032
-9.13917
-32.964
12.0956
14.3704
11.5533
18.4666
-7.11042
-10.2358
-10.4012
-29.7373
-7.33859
-5.84604
22.482
17.7318
-0.733865
-14.1119
-10.096
1.23881
-20.0052
-37.7554
19.263
23.5691
-4.40074
-3.89017
2.53754
5.96151
-23.8716
-36.1969
14.8377
31.2945
0.620192
9.08092
9.55077
22.5601
-14.2011
-23.7022
-7.71383
21.0506
52.2593
46.7809
2.12917
4.34387
-13.0602
-20.3331
-38.2266
-19.3385
5.02968
25.736
17.9834
12.8161
-10.0284
-19.4856
-38.07
-45.7499
-5.31924
23.022
17.6845
-2.5226
-23.9704
-7.13539
-1.70327
-0.89933
-25.2157
-11.4229
40.8788
40.1358
20.1434
9.66382
2.0205
9.78008
-17.6689
-36.4857
-2.36454
8.56324
-5.67202
-5.50021
8.39548
7.64789
-21.612
-11.4947
30.8426
30.5126
39.0889
24.1548
6.52411
-2.90773
-31.6033
-18.8635
2.0059
0.80735
12.7015
26.7052
8.32021
1.23781
-21.6058
-19.1026
-10.3861
-32.3116
7.77108
26.1173
-22.0042
-45.0721
-54.5317
-54.6784
-22.818
15.538
31.2641
48.6994
12.7895
-1.74273
23.41
7.13176
-47.961
-13.9911
47.9023
40.0628
21.8982
14.9747
-12.7129
-20.5462
-29.9985
-39.6653
21.6699
83.8031
58.6154
17.1857
19.5974
-6.31006
-18.4471
-21.389
-47.2884
-41.6085
34.8181
16.9119
-16.3177
-29.7958
-35.5755
-19.2573
-26.627
-16.4112
22.174
35.4407
12.7992
-5.46814
-11.4431
-29.1384
-49.1562
5.26385
28.2934
25.535
21.9493
30.1402
20.1338
22.9713
7.87531
18.4365
19.9336
-15.9058
-17.1176
-7.3355
-8.77631
14.2705
3.0524
-47.4523
-48.7258
26.5034
35.89
-8.4202
-10.5325
3.42187
12.4654
-1.21178
-40.5662
1.28534
25.1799
15.8181
5.17565
12.2513
15.0479
0.794406
-31.2864
-5.24403
4.8236
6.82334
-2.46285
-17.857
-2.75608
-21.3379
-55.2736
7.64014
20.0321
23.9811
24.3291
-19.5468
-29.5271
-29.9174
-11.376
25.2617
29.0315
19.4562
9.62907
4.27403
3.0266
-24.797
-38.9502
7.83632
31.8143
28.25
36.5508
-1.11571
-4.16711
11.1394
1.6806
-5.75087
4.97959
29.4962
11.5786
-1.77425
-5.572
-10.9402
-12.8993
-49.1236
-49.1826
1.34647
40.726
0.49527
-9.40771
-21.2666
-12.2818
-10.2765
-5.59489
-16.4882
29.204
16.4378
0.54183
-9.06937
-7.2629
-3.59621
-9.47043
-11.4165
27.045
37.5574
30.9571
22.9221
1.9992
-21.319
-34.8041
5.89966
32.7155
18.9296
3.28944
2.85063
-7.90066
-2.77705
-24.1412
-33.8675
9.91203
5.66258
5.55689
0.815516
-18.1532
-16.689
-13.0002
-25.8963
-11.2424
5.44637
47.7167
28.0821
7.42611
0.390494
13.461
24.2697
-23.6401
-52.7576
17.7651
8.01707
-34.2151
-30.6409
-5.5004
2.29119
-2.75448
10.1506
35.7742
31.2534
22.2087
9.72154
-6.80936
-8.62814
-31.489
-44.6196
-5.99509
18.2
34.3966
43.1565
9.33212
16.1156
12.6157
-18.8692
-44.8397
-1.50678
34.6128
28.2393
-0.580066
1.50086
-11.1359
-24.5723
-76.6936
-74.7561
10.1937
27.4769
9.04527
-7.54596
1.08999
23.5544
16.1056
-13.3355
-26.0348
32.2139
44.822
16.1021
-4.98541
-7.38027
-11.8118
-19.6684
-43.8197
-18.9621
59.1711
44.1487
-5.35568
-6.08657
-4.44372
1.16025
-1.56943
18.0826
-2.61804
22.9491
32.6086
-4.32135
-11.1786
-19.561
-41.3529
-5.08926
3.09555
11.6238
11.5783
-1.62172
-4.79108
-8.40003
-17.7249
8.22825
8.62338
-1.56786
1.43001
-4.95195
-4.89856
-18.477
-43.3719
-15.9056
46.4736
36.398
18.4263
-7.07651
-17.1542
-7.20883
13.8646
-12.1387
-23.6617
37.404
25.9332
5.8495
-13.0447
-8.6423
1.25541
-28.2654
-43.5682
0.083891
63.102
39.0402
4.71628
8.92063
16.3659
1.65401
-8.17141
-32.0537
-12.1506
9.59352
1.69924
-23.0202
-28.6472
-38.1157
-35.3442
-43.0402
4.39447
25.1746
34.9148
16.0598
-2.76838
-1.55191
-24.5454
-56.2248
22.2803
55.6343
46.6345
44.7565
32.6977
33.1129
14.5724
-27.8179
-6.51677
15.0383
11.5556
19.2127
2.56277
-13.8096
-15.0544
-23.2372
-58.238
5.79705
3.51017
16.7222
-23.5869
-31.5268
-14.7262
-32.994
-44.6018
-22.0756
3.21701
27.9713
26.1513
10.6747
4.18078
1.63624
-29.0963
15.8462
28.2674
18.8752
32.1485
-0.147745
-0.34322
0.44813
-22.6338
-8.54393
-3.15568
27.9637
31.5878
18.0462
3.5609
-27.8232
-17.6688
14.7279
9.96712
8.41486
14.7136
0.389854
1.76262
-3.69478
-36.2096
-16.6822
22.4936
10.0433
-2.64036
-22.8416
-22.1224
-17.96
-11.6222
-39.2158
-28.5442
21.0758
10.1268
-6.20855
21.5179
29.3586
22.4391
5.15214
-22.0481
-9.86275
16.4466
11.2079
15.413
10.0148
9.90576
8.3387
5.0007
-8.3404
-16.0209
32.8891
30.3958
7.4232
-0.911516
-5.55196
-14.7962
-33.7942
-22.7574
-3.69191
8.9103
4.07736
-1.50394
-26.8213
-46.3261
-49.725
-18.078
22.0403
18.6231
20.6142
16.9805
-5.7719
-7.08651
-11.9006
-38.9913
6.86554
35.5569
38.5301
38.6077
26.6647
31.736
19.7873
4.40996
-27.8591
-3.86416
20.15
-1.61984
-23.9628
-16.5583
-14.1993
-37.2873
-55.1505
8.7669
56.1133
53.0716
3.99151
-6.59203
5.8761
-16.1459
-46.5747
-15.0272
2.04233
14.0882
12.9343
-14.1786
-6.96586
-10.7569
-56.6189
-11.2161
39.9739
52.3115
45.7484
-1.10694
-20.4184
-1.25646
-5.84922
-49.5901
-43.5822
12.6819
22.0631
4.38846
-0.806908
3.48544
10.5552
-0.620283
-19.9391
-14.7003
49.1387
25.1649
0.362065
14.1134
23.9747
10.0052
-0.286214
-21.378
-13.0887
23.2906
22.8024
-13.0307
-16.2005
-12.8336
-10.1507
-34.1428
-16.1658
12.4242
16.7923
10.3314
-9.54764
-14.1794
-18.8594
-38.6119
-12.131
14.2124
12.609
28.3405
18.5067
9.27748
5.04731
-15.2075
18.112
0.790168
-5.90624
14.5243
14.0561
-6.13453
-24.2651
-34.7841
-0.108836
26.5657
24.7992
30.9319
5.75935
-12.6209
-8.92075
-18.4522
-29.525
5.00899
3.21023
1.79297
-7.45307
-2.49269
4.29165
3.66961
-16.5554
-31.264
30.7136
41.6575
13.5149
-7.16057
-12.5339
-4.84179
-22.3618
-44.7576
4.84629
34.7604
37.1649
1.22182
-5.76152
5.38382
0.0935362
3.76879
-1.55187
-28.8409
-13.3036
26.6056
0.0267005
-1.40311
-17.8123
-27.4967
-22.8699
-20.2111
17.0835
52.127
13.696
11.1084
13.693
8.83324
3.32287
-15.3674
-9.70867
18.3982
18.7033
28.0473
12.3572
-18.3361
-19.434
-19.4105
-25.0418
10.166
8.21198
10.93
2.59849
-10.163
-17.6645
-19.4325
-37.5192
-11.9684
10.1226
17.8415
6.40098
-7.31339
4.51416
0.749664
-14.7772
11.133
4.16308
3.47392
6.18121
-11.9048
-1.77238
-10.1807
-4.99382
17.9596
11.9964
16.4574
23.3696
0.276043
-16.0403
-31.5756
3.61942
15.6666
-0.815524
1.49132
9.62725
-8.32061
-11.412
-45.9227
13.8479
46.8304
33.4112
27.2127
5.57207
-11.1806
-3.97548
-6.57353
-20.4031
-23.55
22.4084
33.4793
2.37073
-13.2832
-9.42338
-8.27687
-2.44232
-15.8924
-29.7895
50.15
15.7032
-23.5035
-26.5058
-7.46403
-5.09323
-20.4568
-29.3377
-55.9169
10.7293
64.188
26.6629
8.2765
1.29701
-5.80568
2.20572
-22.6643
-40.709
28.0849
41.6052
19.6026
-1.95491
-9.58933
7.29777
-7.9452
-30.4819
18.0728
21.7986
36.8856
12.5716
-20.2346
-23.0143
-8.71867
-33.6689
-4.54439
33.487
42.9445
51.181
-1.12546
-8.86505
-17.4369
-36.5344
-48.107
1.92864
31.0307
24.5019
-7.187
-11.1526
-6.95361
-7.34261
-29.4834
-49.7712
22.6417
41.034
14.6279
-38.4107
-34.5011
3.29626
-5.64832
-7.52065
26.5446
24.2583
27.1191
2.00819
-10.7666
-7.89729
-30.6215
-31.9465
42.5537
39.2773
20.0305
18.952
-7.6657
-8.75219
-22.9066
-27.5437
-4.91822
35.2899
21.54
23.1489
-1.2321
-2.21905
-1.45389
-19.9876
-24.7566
-26.3953
13.5373
27.096
-12.2575
-23.8585
0.268952
24.622
7.39729
-8.73464
-25.4946
1.03333
43.2675
2.34744
-2.4235
4.9363
0.261498
1.71983
-10.8185
-30.9912
16.267
26.94
-6.42277
-8.20127
-15.7191
-5.2497
-19.3355
-37.2866
-5.75594
-1.95584
11.7556
14.0004
4.30749
-5.37922
-24.1624
-17.379
11.0831
22.7589
29.7231
33.7136
11.5477
14.0809
5.02869
-21.0075
-0.235833
11.2036
9.88835
12.3053
-6.73545
1.15651
6.85356
-19.5503
-18.1898
3.32699
12.3715
0.993116
-16.762
-13.8546
-5.4358
-6.90031
-52.3262
-40.4556
34.4711
54.9907
27.7713
18.417
12.409
10.5144
1.56632
-22.9829
8.25404
15.7927
-7.77962
-35.8546
-18.3714
-0.0959773
-30.6022
-68.5401
-18.6656
42.6448
42.1022
40.089
3.45443
-0.0779542
-8.28068
-17.3742
-31.2302
-29.9638
21.5531
47.6271
16.3924
10.0606
8.38394
1.67458
-10.4334
-29.37
16.3126
34.2519
6.99586
-20.9523
-5.82224
-5.37392
-22.0378
-35.7997
-8.91361
16.4974
26.1485
32.6557
-6.85508
-13.2445
-15.0245
1.19065
-10.8109
-20.3318
26.443
28.3774
7.456
15.8271
-4.30162
-13.5474
-21.39
-15.3889
23.2402
32.8066
17.242
0.455911
1.83567
-10.9416
-56.7517
-42.0424
9.92832
5.82995
12.7833
13.5107
-4.73782
-3.40422
-20.9001
-22.6998
28.7105
23.95
21.9029
18.3537
-6.52573
-2.36929
-26.4626
-27.6331
20.222
18.3752
19.3158
19.4397
-6.45876
0.135645
-13.6955
-46.6768
20.2204
39.0389
20.2442
14.9424
-17.9214
-26.9586
-12.028
-11.3873
-44.6953
-1.01856
26.6961
21.418
-9.7419
-8.74961
-2.66331
3.18924
0.333501
-8.95141
-11.2373
32.9975
-8.28824
-22.2151
-11.1399
-7.67472
-16.747
-13.0148
-22.8693
22.7486
23.125
17.7017
27.4243
17.8562
3.26602
3.37478
0.998515
34.6431
15.5824
9.00185
24.0903
17.3111
-11.1437
-34.2448
-13.743
16.5949
-0.0367031
-9.3988
3.01495
-10.9233
-10.4749
-47.7607
-51.9477
8.2028
-2.02857
-10.2872
-1.91381
-12.3303
0.627325
15.2993
0.717434
-23.4067
-1.52801
37.405
18.0437
6.67853
8.66607
5.48779
-6.67368
-50.0838
14.5547
42.488
22.6718
-13.1637
-2.6084
24.3104
34.9126
-0.597511
-1.74824
-0.372996
-7.22844
-3.60116
-21.7872
-15.6528
-5.84552
-43.1317
-16.0199
25.4658
27.1884
22.5157
-18.1272
-16.3465
-5.06904
-29.7472
-2.2775
25.5709
16.6314
13.8379
-1.92981
-7.36448
18.1486
19.2458
-18.9951
3.19135
2.96157
1.65858
-15.8051
-14.2384
2.45983
11.0167
-5.24726
-25.5345
2.77741
18.3869
16.2458
-5.05289
-7.52447
-1.32632
5.36409
-20.7238
-39.055
18.6385
47.2652
11.9182
-1.0444
12.3218
8.79419
-9.11378
-32.9558
-5.12326
30.0835
17.9332
-12.0837
-17.7424
-7.51513
-5.26292
-26.3753
-1.10047
4.51186
17.0512
30.0058
-5.97952
-7.7632
-24.9623
-38.8869
14.2308
13.8609
7.18788
21.1751
16.0357
-5.72636
-11.8392
-25.0038
11.219
8.57864
-0.247466
15.1152
-1.84683
-12.3133
-7.0848
-12.893
-49.2223
-1.13449
35.6865
37.117
12.1638
7.85385
3.61967
-4.41323
-56.0467
-11.3798
53.0596
56.7901
18.5742
-6.16161
-10.5559
-10.8789
-34.5297
-33.599
14.0933
21.2273
26.0177
-5.56238
-16.0867
-7.74054
-16.6929
-15.2525
-48.4725
-9.22187
48.1438
7.48321
-9.40579
-2.77883
-10.2524
-17.5553
-46.1321
-5.84538
54.991
54.2591
27.6739
13.9017
11.8551
1.30565
-15.0877
-16.28
-30.8218
10.5652
35.878
21.6495
-1.06805
-14.965
-26.097
-27.1454
-15.4872
-14.7438
30.2263
29.7404
-1.22098
-6.44349
-26.795
-10.83
-8.32323
-40.1414
-3.48774
47.1161
36.5315
0.288339
-0.14458
12.6808
8.92886
-28.5496
17.7524
22.8981
8.27357
12.3274
12.9167
3.66719
-19.785
-55.165
-7.69155
11.1929
17.9025
10.2043
-19.7595
-29.8643
-24.2394
-52.353
-21.5306
30.4781
20.4737
29.264
0.0280358
2.84403
8.86592
8.42609
-22.4498
-37.1485
30.3668
42.0374
8.94085
3.56395
12.8728
22.2786
6.47309
-35.795
-29.0736
39.4401
25.2773
-26.1152
-3.36962
9.36092
-14.0377
-12.5779
-6.80946
-21.3335
-6.65084
40.4768
-0.192564
2.81575
-8.5685
-10.7975
-8.33662
-28.1311
-30.2296
32.0842
51.4904
10.4995
-3.72535
-13.0794
-11.9689
-4.68106
-22.2574
12.6499
16.5456
32.8748
25.1608
-16.2478
-22.6809
-0.360196
-31.3115
-14.7251
24.4236
27.7709
24.7896
-5.28571
-0.0676393
-1.09014
-29.0681
-46.8826
-26.223
14.0774
43.5882
9.03056
-1.59495
-2.94767
1.97899
-8.8287
-34.2453
-5.46669
36.4128
22.874
-5.66726
0.904508
7.57338
2.38934
-37.3098
-31.8802
21.4761
33.0208
20.632
-7.89192
-13.468
-22.0745
-57.2559
-10.2955
39.5381
32.3539
32.3071
6.56728
-5.32545
-7.20834
-29.1782
-0.867408
21.6026
10.8464
23.4422
16.3089
6.12831
3.45782
-21.0348
-49.381
-8.74546
26.3441
29.9987
8.96812
-9.31047
-10.6795
-15.3313
-34.004
-17.3045
-4.89217
50.4416
34.1414
1.08356
-14.9569
-13.6593
-8.15507
-6.67581
-33.217
-34.0181
23.4645
-4.01329
-17.7023
10.6578
11.3042
-0.0715317
-8.90421
-4.76811
52.6891
37.9566
15.7722
-11.7422
-20.5832
-21.9885
-41.8364
-32.3563
24.0915
34.6301
36.5298
33.8989
10.9942
4.48854
-7.07782
-13.0969
0.536272
-7.10253
-5.54058
2.06605
-8.85934
-8.53164
-21.0803
-58.3715
-59.494
39.9505
61.8569
47.4145
6.04342
-14.7872
-4.19632
10.3413
-16.7601
-34.6444
-4.17191
25.5963
7.11153
-5.65859
10.7116
8.63245
-5.67374
-17.3798
-1.17685
36.6647
32.3435
-12.3018
-11.533
-10.7079
-25.3377
-36.0759
-3.26077
15.7069
10.2656
0.269
-8.85693
-1.23986
-9.04925
-40.41
-10.8414
21.6423
37.5515
35.427
14.625
-11.7013
-1.59516
-6.22015
-24.3882
20.7737
13.6736
7.20459
12.1045
-6.86005
-6.19912
1.80642
-25.0019
-21.6802
22.8826
26.6071
5.94568
-14.2004
-23.6484
-12.133
-9.32212
-26.2666
4.51611
27.572
25.0471
1.37659
2.65473
-0.780096
-6.31603
-21.8237
2.89293
31.5866
33.1027
16.9565
-14.1735
-12.4238
-8.41057
-17.7896
-42.7015
-31.142
34.4261
24.6319
-3.07904
-5.84281
-6.45889
-9.62497
-29.6963
-37.4431
40.5567
45.5545
23.3199
7.0303
19.3309
-0.880552
-42.2787
-29.5366
27.6615
13.5058
23.6259
21.3155
-6.45769
-2.88643
-20.2959
-38.9988
2.5007
17.7769
21.8204
29.3588
-6.40198
-18.926
-25.6691
-38.5501
-40.5093
10.9749
27.8011
29.2596
3.03249
9.43959e-05
-5.34995
-15.121
-12.3952
24.7018
11.9608
17.345
-11.3877
-23.3861
-3.70703
-13.1075
-21.5612
20.3114
25.1619
24.4504
23.145
-21.1035
-23.2451
-34.5649
-25.682
23.2531
27.8617
22.0459
2.96077
-13.1605
-0.880239
-16.1523
0.304945
45.824
14.4057
7.06864
7.98665
1.19013
-11.9861
-17.899
-33.9806
-32.6929
28.4918
30.7888
11.4332
-13.0559
-10.7581
-4.56923
-10.8396
-62.4474
-34.3486
35.5634
61.7187
14.9928
16.4358
16.2575
-1.45821
-10.1508
-16.3015
-41.4613
34.4473
49.3242
4.25363
3.66406
-8.14587
-19.3058
-15.3296
-32.4342
1.41213
34.3712
17.8417
-7.90764
-36.4905
-36.3034
-20.7554
-43.1
-6.44187
37.9018
34.5141
44.1953
11.023
-2.97029
-13.0822
-31.287
11.0002
10.8301
2.72621
14.3165
-5.08123
-9.5657
-9.46912
-21.746
-20.8843
9.26885
24.3257
37.9935
4.68968
-16.1939
-1.24129
5.62302
-12.9596
-20.2635
3.43092
24.2138
-3.32496
-3.31482
7.7245
10.6593
-15.7353
-41.8917
26.3342
66.3673
41.2944
-0.604923
-17.6348
-7.14156
-11.6177
-40.4045
-6.54141
12.2469
13.9796
13.0875
-4.31918
-6.31744
-14.2302
-41.8036
-43.6598
10.4442
34.6587
40.432
2.2217
-21.261
-20.2303
-6.86258
-11.3621
-37.9668
-3.81935
58.8804
20.2858
7.1249
15.7506
-2.60441
-26.3216
-3.75135
-33.3611
-30.259
41.2104
24.425
17.4945
12.5283
-12.1376
-13.9882
-6.13103
-30.6026
0.294537
54.6836
20.4561
-16.0956
-10.9554
-8.49476
-8.72163
-6.56738
1.99363
21.6122
27.5877
35.2853
-4.00445
-25.5756
-28.0946
-44.4853
-23.0094
15.175
1.57868
12.3192
16.4667
10.1274
4.47495
-28.9534
4.72219
13.1792
6.66005
11.749
7.82445
-15.7932
-22.337
-34.8597
-20.0671
46.4399
24.4876
42.7691
26.7504
1.72338
4.05709
-4.18013
-31.1809
-6.72776
11.2842
-5.63233
-13.7042
-5.4986
-13.8808
-8.19618
-6.50559
-32.008
22.558
34.5796
5.80492
-27.1461
-14.0624
-0.423963
-18.2782
-50.8999
-41.0509
46.6151
48.0117
16.834
-3.15367
12.5482
6.8616
5.20221
-12.4732
6.11525
12.5358
16.8758
-3.43409
0.320902
-3.00196
-17.337
-27.3445
-3.41178
22.8726
35.0059
30.1294
-19.482
-11.5458
-13.8714
-50.5192
-25.67
37.1432
25.4941
28.4614
20.332
5.96006
1.32037
-3.93599
-14.1684
-20.4511
-4.79422
3.28078
-7.3013
-14.8968
-0.324198
6.04823
-16.3416
-38.3677
1.95854
27.3879
21.4984
-14.0068
-12.1801
-0.19127
-19.7116
-41.6413
-3.01415
48.2588
49.6755
35.3784
-0.186558
8.63539
7.1862
-26.3876
9.10041
18.0397
-2.04604
5.49746
-9.10922
-3.22667
-11.0133
-52.637
-13.361
8.03328
13.66
25.4591
2.05313
-28.6436
-20.4017
-42.0699
