17.011
78.9997
66.8157
-54.2128
-78.1476
21.711
91.2699
54.5682
-50.3533
-95.8862
-70.6222
-67.0922
-103.066
-87.9681
-44.7771
19.7222
26.5277
3.35366
-56.9971
-94.4239
-85.5207
57.3954
191.27
200.704
116.147
59.0844
43.7706
45.3007
58.2139
12.7324
-104.975
-152.488
-97.7506
-59.2995
-59.7859
-105.236
-67.4612
-4.56414
19.8475
65.2239
63.3455
39.5086
77.3858
66.0369
21.2797
-27.5736
-36.6893
-30.727
-54.8292
-17.7861
9.66575
45.2856
52.7458
6.30318
-4.58303
18.7158
1.93169
-7.04717
56.684
45.9538
-70.4004
-179.79
-174.917
-32.3554
70.8675
84.6543
66.8649
40.9932
90.2741
42.9621
17.2294
61.1807
73.9169
68.4347
-5.01992
-77.5725
-53.0514
5.46201
-24.1645
-39.5082
14.6037
59.0751
32.503
-22.1357
-2.20949
-13.198
-35.9557
-50.2633
-86.3
-70.2387
-69.7429
-96.9989
-10.3963
78.9641
90.4919
-11.5905
-92.1105
-100.114
-58.3859
-45.9203
27.6518
107.861
52.0863
-52.5674
-70.7127
22.0807
94.7558
86.0218
110.406
194.453
170.118
90.8029
-14.4913
-144.376
-171.242
-53.9225
-5.98682
-39.907
-26.3072
59.8869
98.6681
38.9108
35.2428
58.1118
-23.3952
-170.82
-200.528
-68.4031
-2.77556
-14.0254
1.18589
24.9937
0.702687
27.6366
39.5132
45.2713
122.976
139.824
63.2852
27.5138
23.1981
-10.8853
-47.2403
1.42339
-22.2765
-167.713
-183.798
-125.966
-130.839
-87.7919
15.5588
114.269
149.88
83.0465
-12.4055
-74.1433
-31.2821
16.0556
-1.88733
-42.3875
-5.05216
38.7145
76.5074
98.4759
129.841
229.703
206.919
32.6662
-63.8339
-15.7543
-31.3343
-100.593
-108.436
-41.598
29.2413
41.5122
-108.104
-137.422
-0.573563
35.7546
-85.6426
-208.214
-189.044
-117.467
-152.221
-50.7749
114.523
181.576
184.366
89.1004
46.671
45.1332
1.30412
-16.3969
55.6418
23.3686
23.1304
63.6773
49.9695
19.3628
31.4757
117.441
177.483
204.981
191.533
46.0001
-129.388
-180.837
-176.541
-205.357
-227.703
-209.164
-138.423
-31.3134
31.591
44.656
49.609
35.5175
5.38667
-8.15022
-65.8979
-176.456
-209.019
-165.932
-31.7629
116.991
159.536
150.721
158.871
188.252
278.353
244.285
99.0856
-0.903841
-11.6473
54.6626
-36.672
-231.217
-208.729
-119.924
-31.6265
103.231
139.738
68.9063
22.6422
-2.22014
42.4392
42.6898
34.8124
1.08022
-40.665
-27.1067
-9.46596
-94.0361
-191.772
-210.671
-142.365
-26.4414
4.02651
47.6091
64.2876
55.8958
84.0307
36.975
12.7574
1.93138
-44.1688
-28.0207
-6.26694
-23.6599
-94.2856
-99.495
-7.60601
98.4857
81.0336
37.4328
54.9006
79.7377
6.13496
-21.4448
33.3482
81.3143
47.5797
-48.62
-55.9123
-34.125
-21.8221
-27.0192
-22.8751
0.522485
17.3588
53.9674
68.3683
89.3536
65.2791
16.997
31.2744
58.127
-4.49224
-52.7015
-52.1309
-35.2038
-29.5564
-34.1313
-39.3609
13.4447
-42.2927
-73.474
-59.6758
-79.169
-74.0314
-42.3475
-14.9371
2.44342
7.2858
54.1631
102.898
11.9603
-20.9573
-64.3071
-105.492
-38.7791
29.1461
25.0127
69.4698
69.642
57.0488
52.7344
21.2287
25.7394
38.2768
44.4692
45.6815
25.1488
36.0604
45.6194
-41.4587
-1.89213
54.9051
42.2773
57.9668
12.4943
-40.9539
22.0863
-2.50538
-13.9404
-11.1469
-35.1352
-16.6531
6.77768
-18.8862
-113.23
-132.354
-78.0383
-175.996
-243.615
-74.092
54.8871
66.9049
59.5666
2.83328
-42.1811
-23.729
-55.9371
16.3837
66.5743
101.054
98.6614
57.4133
21.9987
0.0331352
24.4611
16.9622
7.44285
95.967
151.224
79.2343
8.8126
-29.3315
-36.0807
12.9717
86.0604
106.841
110.805
10.7611
-60.3637
-60.2165
-16.5193
43.4453
16.7508
-109.639
-204.006
-199.429
-234.616
-161.518
-66.8065
-37.9812
-31.3736
-2.64707
83.436
157.031
158.718
115.426
83.2993
74.7242
131.547
111.299
-16.3029
-118.345
-82.6314
13.7342
60.13
-6.14451
-73.085
-45.9416
57.1156
51.0512
35.0508
7.33663
-28.2405
-77.2975
-114.542
-88.444
4.19268
-8.35995
-72.061
-77.7786
-8.67833
39.1631
30.4912
72.7702
126.218
117.453
106.017
69.7276
19.2963
25.9546
-4.47929
-38.2748
-67.1682
-124.053
-161.618
-164.703
-104.885
-26.3908
-34.6865
-101.34
-7.29807
67.3666
62.1457
65.8763
89.7396
116.813
163.9
121.319
-38.8118
-66.0159
54.6273
50.957
44.2517
64.0535
59.6014
19.0374
-98.8318
-166.214
-26.3828
63.9505
25.2354
3.12387
18.619
18.7131
-15.4134
-24.485
-29.3015
-24.3458
12.1702
-39.7306
-105.358
-63.3725
-20.4556
-12.9207
-8.88578
38.3635
69.4771
106.879
57.8532
7.68021
-77.7904
-164.475
-198.634
-146.626
-171.346
-79.8567
75.2469
132.901
122.934
70.3329
20.119
84.0849
49.7906
4.24528
36.6302
56.6589
43.9887
49.2403
29.8336
131.277
193.819
163.555
74.2803
-12.8466
-78.602
-252.961
-309.68
-131.936
21.9584
32.5699
9.73247
-18.4573
28.4707
115.691
136.738
96.5005
124.767
60.9405
-38.912
-94.398
-99.2166
-99.6285
-75.2467
-112.948
-110.405
-18.3341
-53.4717
-121.593
-94.4309
9.27538
17.1647
-56.2566
-50.301
52.0835
60.2834
16.5001
-9.17259
56.7278
171.871
143.207
43.2586
81.4367
77.9486
64.2333
31.7443
14.5639
137.323
103.412
-46.807
-87.7604
-60.2751
-54.0025
-93.024
-186.86
-109.054
20.2084
65.2205
0.99586
-131.864
-70.7516
35.5024
14.7486
-1.11869
22.4834
136.868
151.584
16.9739
-35.7202
-47.4552
-49.6149
-17.1475
28.2732
84.0729
60.8993
-55.5759
-192.937
-261.284
-58.4196
95.7426
70.8598
10.3878
23.1674
42.2526
68.1952
74.5733
119.193
112.025
77.1922
137.98
144.606
-23.0002
-123.128
-137.842
-97.9788
-94.7039
-206.736
-157.476
-66.263
-59.9334
39.4893
54.1109
-12.5533
41.7344
75.0187
63.1904
59.2178
78.2742
88.8157
70.2463
32.0218
-16.4037
-53.8306
-73.0501
-86.5457
-48.983
75.2734
79.8462
-90.8587
-90.8724
-50.7254
49.9986
150.859
191.962
133.53
19.4335
-88.1463
-120.416
-143.753
-140.629
-105.895
-44.8641
2.53797
25.736
41.0683
55.6906
120.77
140.102
100.458
0.294609
-91.5061
-136.193
-179.884
-182.717
-80.6364
36.7414
86.6386
13.7349
-0.7174
33.8704
22.9716
55.9452
197.347
212.766
163.612
94.3353
23.2267
-7.51749
-53.7342
-147.14
-167.956
-50.5974
60.2156
53.7842
-38.192
-103.567
-92.4684
-13.3121
12.3906
-33.4891
-37.3247
-13.4012
23.564
-78.5064
-124.755
46.5
214.361
241.97
136.536
59.7424
-31.3569
-170.238
-182.398
-107.216
-96.9263
-41.5123
-17.0622
-43.0555
-100.45
-22.293
159.519
211.657
58.3225
90.0224
140.955
-2.95239
-121.46
-93.0526
-62.5781
-36.2229
-13.9466
61.4847
70.7662
34.0358
16.8482
54.3748
74.8305
63.1246
63.5226
19.8159
-125.123
-202.586
-146.259
-53.048
-27.2169
-60.6308
-107.078
-115.762
-11.0641
126.125
134.309
67.4472
90.7409
77.2819
88.5863
90.4494
66.339
83.7395
13.3955
-235.212
-252.806
-46.5257
39.1195
6.978
-16.6277
3.90868
-6.95724
2.11932
84.3736
98.5472
101.632
96.2823
45.6152
22.1565
13.8696
23.2468
17.2737
-47.8651
-62.412
-31.4429
-96.9012
-77.3173
-0.198237
-5.61392
15.1272
44.4209
53.4259
-53.3796
-168.155
-162.118
-132.595
-110.109
-74.6472
12.9896
28.8453
-25.1927
76.5103
222.1
188.637
188.468
225.269
140.408
-2.65759
-193.582
-230.713
-173.572
-164.396
-72.0425
144.02
234.313
168.016
93.2799
42.0667
-16.0643
-9.09756
-37.7105
-132.96
-192.959
-132.774
-55.6619
15.3167
26.2947
20.1999
29.9983
-0.163225
21.784
98.9591
150.111
32.5663
-57.9678
-37.0663
-12.4218
-35.7499
-6.85737
-29.8553
-66.9235
-12.5149
52.9725
118.825
112.84
29.848
-62.7843
-113.942
-170.908
-168.772
-7.62002
81.2964
13.1713
-24.5683
17.7931
61.8428
81.8199
61.9039
65.205
47.3343
53.6307
-1.57529
-31.445
-56.2289
-26.6799
-5.8887
29.815
24.7707
74.2702
95.8671
33.7744
15.745
9.0965
-46.9587
-87.2884
-74.8828
-51.3421
-43.5901
-80.8151
-55.2226
-64.0319
-44.0065
-21.1002
9.09529
21.8888
-12.8413
-40.0332
32.2105
127.604
160.429
108.258
40.2399
24.3151
10.3009
-58.891
-135.582
-164.84
-98.9159
-59.3975
12.894
88.607
77.1738
32.4157
39.1213
50.8386
50.073
18.6049
-46.1607
-16.8314
18.7378
-41.8654
-51.3179
-17.5047
43.1571
124.052
80.8877
64.8557
43.5921
2.54729
-68.0212
-92.1692
-102.013
-78.0922
-3.21502
91.0677
87.0762
60.385
8.2507
-26.7057
-47.9233
-103.246
-136.997
-70.7106
-17.2802
26.0683
144.69
165.219
66.3477
-89.2334
-185.554
-267.436
-146.973
-3.27464
-7.11271
-82.4073
-57.4495
67.8331
174.308
209.045
154.852
119.687
141.768
113.711
79.9619
17.642
-31.5247
-10.8348
29.621
70.3942
145.462
120.358
-74.07
-181.872
-157.176
-125.667
-87.5828
-90.2525
-56.4451
-52.3443
-27.9167
-5.9884
-36.8432
-118.501
-153.49
-85.2305
-38.1243
-87.4394
-35.9931
106.066
197.761
239.82
189.72
77.5193
61.8162
71.5969
3.99074
-65.327
-74.6866
-52.0105
-78.4498
-49.6207
8.05001
67.3324
96.4345
15.4488
-49.8436
-114.079
-201.99
-156.377
-60.8493
30.7671
113.979
175.008
128.814
38.4954
26.2441
41.2244
21.6079
15.8784
-2.47139
-5.26712
13.8538
-6.07139
-1.81009
61.4401
108.72
120.073
88.4069
13.5546
-158.389
-330.849
-349.014
-131.533
-32.5068
13.6852
54.545
85.7875
58.3763
71.685
72.4522
25.1588
-53.7039
-47.6892
-26.6669
22.9445
19.8495
34.0567
61.1668
77.5984
117.925
186.11
116.733
-115.215
-91.5125
-13.6082
-16.397
-59.6755
-77.0139
-57.4821
-2.79835
20.4027
26.6865
81.4223
62.1923
-8.9505
-36.766
-15.0431
-2.52749
-71.2881
-124.021
-49.1611
36.1136
21.445
-72.0418
-129.022
-122.656
-52.9474
-22.3436
-1.30615
61.2872
114.71
121.216
36.5171
8.92392
12.9871
2.78808
7.49362
105.089
75.5723
41.0457
45.0016
73.8977
31.1839
-32.394
6.08559
38.8743
24.509
62.4965
5.71052
-60.2675
-92.8375
-109.52
-128.504
-126.439
-160.037
-100.414
6.24056
-18.2427
-7.31225
105.145
172.153
164.228
134.194
73.8976
55.3223
-23.0271
-92.1068
-73.3168
-41.6049
-43.0138
-61.9874
-43.6212
28.1886
59.0068
80.498
54.5536
2.23665
-34.2371
-37.2608
-80.4192
-57.1787
-31.5404
-20.3314
-65.7252
-104.487
-3.1898
57.8213
23.3786
62.9922
73.9357
71.9285
55.9923
41.1383
4.74354
-54.3593
-91.7612
-29.1623
68.5713
109.521
94.47
41.4295
-1.35297
-2.08367
43.0373
13.2954
-15.7388
2.34549
-39.3305
-91.9029
-99.655
-74.7372
-56.0232
-51.9711
-56.6667
-59.8274
-8.13282
17.4291
-37.2242
-45.0579
-8.4308
-1.36938
25.777
42.5505
47.9509
63.1831
88.5264
77.5805
98.8978
79.1523
36.7058
7.56143
-14.3154
-57.7053
-46.1964
-6.73197
29.2408
29.2839
31.9984
9.01479
-79.5886
-95.5495
-10.8358
27.858
34.0039
10.413
-43.0517
-84.9698
-146.864
-132.823
-72.7914
23.0056
87.612
117.867
76.8334
23.8823
-10.0933
-17.7007
15.7966
76.9204
173.175
143.271
49.5656
7.6772
-34.8784
-109.384
-171.155
-144.165
11.5267
75.6529
105.948
76.6055
7.8749
-71.4855
-100.196
-71.4062
-54.5679
-52.0036
-20.2771
2.16462
32.5723
77.586
58.7062
-2.78832
35.2964
91.2434
73.9365
42.5143
-5.78492
-66.451
-152.313
-254.847
-241.519
-73.0368
51.8413
54.8036
75.8302
112.104
106.581
67.1753
2.40036
49.774
50.9723
68.3137
67.0101
71.5622
62.7368
-18.714
-148.213
-172.242
-98.6498
74.4767
209.306
176.987
148.931
150.966
57.914
-120.333
-351.531
-261.247
-42.2563
-3.2948
-9.90722
-6.34298
3.0455
12.4697
14.7316
3.02408
26.8303
15.4557
-25.2513
-108.771
-117.423
-19.9182
-16.6979
-21.4274
59.8274
122.719
250.96
167.777
-4.9693
-78.7452
-105.882
-114.932
-116.118
-69.3402
17.7178
63.2553
94.2128
149.549
201.711
119.429
-9.92951
-92.3722
-105.154
-75.7571
-66.9591
-40.9402
13.1435
30.1228
19.4119
56.0136
46.9989
-8.6205
-17.5317
17.4742
52.289
21.3531
-78.6617
-104.407
-106.074
-92.4175
-180.432
-182.069
-39.5272
24.1135
-37.213
12.128
48.2367
53.6347
98.5352
66.8414
123.788
161.884
116.087
36.8483
40.4322
89.5689
41.059
-73.1003
-76.3686
62.633
159.594
96.0808
-24.7581
-12.1685
66.2024
-9.2398
-103.412
-135.015
-87.0415
-50.6579
-4.48265
16.5926
0.551231
-11.614
-94.7481
-156.371
-69.6225
9.77854
-40.7471
-97.4623
-36.2981
15.0354
22.3332
-5.87606
-4.30793
56.3576
94.2772
-7.57053
-160.718
-103.435
-55.4812
-75.5756
-76.6851
-36.2788
31.6102
127.59
187.449
250.119
255.841
166.621
89.4525
60.2473
65.7667
31.2494
-22.5639
-61.4495
-79.563
48.2252
97.8859
3.94397
-98.4268
-82.7727
19.7841
81.8076
-30.0843
-121.839
-139.024
-108.682
-105.862
-226.863
-239.607
-139.024
-154.83
-176.097
-38.5882
56.4466
161.378
264.657
278.596
239.985
186.606
144.034
15.4332
-104.612
-40.9067
3.39431
26.9284
-11.7067
-24.8451
28.04
73.0059
77.2469
94.8579
118.359
53.1934
-26.1154
-145.942
-359.401
-443.507
-301.998
-156.949
-12.21
131.013
174.547
141.359
90.1536
57.4282
-7.71621
-122.703
-14.3019
95.9379
101.93
144.375
143.668
87.8272
18.4566
21.7523
48.4304
55.7884
-47.9244
-62.9466
-64.143
-88.3141
-85.6371
-62.1564
35.377
19.0621
-18.3129
65.804
86.9874
42.1128
-8.44206
-35.1482
-63.6978
-118.972
-61.1196
-7.82344
36.7035
89.4245
57.8377
-21.0399
-24.2807
-30.6686
-54.8464
-38.3001
-32.8929
-11.2663
-7.80223
-41.8014
22.6154
20.2677
-12.5724
-17.7281
24.685
41.3076
23.143
39.9783
123.643
99.4144
15.449
-60.7419
-80.8168
-51.0478
-45.8898
8.21838
21.2587
56.5608
65.6169
73.9902
37.433
-1.03801
-14.8161
-31.7087
-73.1425
-131.867
-120.636
-134.331
-62.9887
25.2224
81.5167
70.0701
43.1999
18.1366
-11.526
73.6822
48.2741
-42.9779
-18.4722
44.2054
44.7681
32.1589
-56.3998
-87.4229
-10.503
73.9797
97.1981
101.846
52.1508
34.9952
22.211
38.9062
62.2215
39.572
-7.1269
-129.111
-139.266
-102.755
-94.707
-60.5234
-20.4165
-8.91517
-79.082
-101.333
25.7349
81.6986
51.9707
-3.04066
-152.849
-186.748
-50.6051
34.172
32.1283
59.8217
149.459
183.121
217.676
233.397
180.547
119.604
-22.4908
-97.9857
-44.7648
-64.241
-124.128
-130.471
-86.8331
5.8311
9.22416
-9.67543
3.44804
26.3064
-23.6582
-99.2665
-90.9462
-0.463184
-45.433
-147.938
-151.186
-94.0684
-6.69722
-14.5134
22.97
215.668
191.167
126.685
86.8677
55.505
81.0352
26.1971
-95.3123
-65.1469
-36.6464
-19.7849
-16.5023
-91.6953
-90.3653
-27.5692
-6.64838
-59.6134
-9.24209
148.587
230.578
123.653
-33.958
-52.7465
7.72181
-13.5915
-34.9278
31.7752
82.3303
40.6159
-1.61303
-65.3235
-125.036
-95.7821
-87.5662
-48.268
23.5477
4.62243
4.04291
6.77649
-45.5538
-61.3936
22.1241
67.7007
119.766
151.518
156.668
98.3125
15.0624
-65.9741
-180.071
-252.139
-77.4961
-13.4074
42.5576
80.3114
89.0588
116.368
32.5178
-42.0506
-23.8833
-82.9383
-91.1254
-65.8354
-94.3612
-103.815
-31.2459
19.1519
29.6172
90.315
160.446
192.834
85.4914
-45.1876
-40.8599
-8.70626
-69.4165
-61.1042
-46.8724
-62.6574
-48.7145
44.9945
85.2057
77.6286
7.90559
-22.9548
-32.3389
3.62038
18.496
-29.8996
8.56353
87.6475
32.1599
-18.3194
-16.4804
-27.1805
-8.65838
-24.8654
-58.9045
-87.4804
-46.1992
-23.4
77.3318
110.402
39.9899
-47.0136
-47.7549
5.31443
51.6624
37.9728
73.8098
25.4659
-54.0862
-78.8023
-68.0853
-28.9899
32.5086
58.2863
38.6135
27.1499
61.6109
37.4022
-50.0081
-52.8518
3.5974
-11.0369
-10.8204
-26.7917
25.9938
81.7804
-18.9255
-39.4578
12.07
62.429
17.6365
-56.0866
-75.4899
-114.879
-93.1511
5.41256
36.2994
52.5896
-38.5212
-148.443
-83.0549
23.1328
80.4052
79.8014
-17.711
-50.0319
15.0827
56.1212
147.58
182.455
157.185
129.62
96.1132
63.7807
-49.8153
-292.645
-387.709
-252.868
17.2102
177.432
137.182
113.491
62.234
-68.3211
-200.424
-137.458
14.258
92.2513
38.9055
7.39109
34.0678
78.8278
52.2292
58.5522
87.5171
157.475
77.4825
-89.9461
-137.166
-96.3389
-51.8577
-39.238
-36.109
56.2431
101.27
47.387
-43.3067
-92.94
-119.564
-101.291
-65.6503
-18.4366
11.7418
22.19
49.8113
105.594
139.077
125.08
47.4492
15.9132
-33.8098
-71.1466
-99.8611
-114.562
-91.9674
-120.241
-74.2156
31.3774
77.6614
68.0181
18.09
4.88013
-4.17584
-25.2301
-21.5788
61.4452
153.318
131.466
14.6417
-55.3357
24.1417
73.7898
46.7071
31.7781
104.619
111.881
5.29442
-37.674
-18.4508
-81.6135
-177.282
-267.693
-199.068
-233.679
-185.005
-16.8505
83.6354
169.142
206.395
170.194
124.502
90.7509
44.3089
-25.1842
-60.5901
-43.6812
14.6551
28.1859
36.0639
67.0713
95.3615
41.6065
-48.3727
49.0631
30.277
-166.336
-261.221
-231.327
-146.034
-21.355
2.93837
7.27642
73.366
152.384
147.475
125.923
108.372
69.218
33.0276
27.647
5.21255
-46.9342
-94.9149
-46.6608
80.8326
106.97
108.631
34.8407
-30.3839
-115.176
-195.491
-156.134
-81.6454
-6.59307
23.3654
-53.803
-86.716
-76.6415
-72.8734
-40.8942
-11.1387
57.2511
118.283
115.971
136.97
163.797
85.4066
21.9784
-25.2866
-52.1562
-12.8152
-0.407492
-19.024
-34.1732
-19.7146
20.9982
-9.28541
-43.2585
9.28419
-12.9354
-31.2025
5.97528
19.7182
19.2665
-12.8103
-20.57
-15.5707
33.6298
39.4882
-35.6307
-89.4413
-46.5747
-6.10403
-9.66074
36.1874
86.4888
55.1083
46.7731
22.8814
34.7759
57.1228
8.53732
-68.0701
-187.398
-317.921
-254.767
-81.4532
90.7886
150.691
196.413
186.843
151.129
171.715
107.887
24.3508
4.41204
21.292
11.4214
-69.0145
-146.113
-136.751
-7.41061
49.141
84.9765
106.366
51.2588
-21.7413
-143.702
-160.622
-49.0611
19.6891
21.0807
-47.9857
-95.5797
-109.575
-76.5119
-52.6418
-68.4408
-38.6903
32.3087
43.8556
12.554
60.9454
114.991
161.269
114.999
13.2323
-45.6915
-63.821
12.9916
18.3185
-39.0844
-42.0356
11.4364
85.1717
96.0638
53.8382
33.9169
-15.9543
-74.4051
-88.6298
-44.8946
39.0895
65.8793
49.0611
40.5331
29.4773
0.758389
7.65333
-56.2221
-4.53482
47.269
-2.58382
-55.0623
-104.826
-81.1339
-36.3552
-70.6579
-122.166
-30.6224
54.4488
51.1792
20.8429
8.62972
55.7987
108.935
62.2681
10.3549
61.7463
24.6706
-21.9118
-65.2519
-159.512
-78.0258
13.9821
-56.8774
-62.1693
-119.9
-27.3444
77.4563
112.391
87.2891
33.0616
5.18441
9.75388
54.4323
140.564
195.47
166.486
87.6526
-50.5428
-145.111
-119.661
-41.2622
-39.3031
-26.1495
7.5918
108.197
94.1135
-4.56793
-81.6992
-49.395
-32.584
-45.0211
-76.7432
-122.041
-123.598
-139.781
-215.627
-132.625
74.3046
203.475
222.357
142.15
46.5155
-38.9704
-18.9066
14.8523
-20.3804
96.7278
103.856
1.34144
-24.9423
-1.94712
-30.0757
-95.9741
-152.686
-61.297
41.0782
15.954
-78.5761
-63.1853
58.5646
49.7247
42.4095
153.871
111.766
89.9659
83.0923
-40.6676
-88.9286
-69.3633
-29.8592
17.356
12.6829
11.9752
43.1806
23.8721
-20.7746
-76.9213
-43.5735
58.1552
73.5794
33.1518
-8.81842
-31.252
-8.11568
30.7783
22.6422
-40.2745
-39.1906
-79.4119
-135.845
-129.031
-63.1056
11.6971
75.471
21.2983
43.7576
109.009
103.919
36.778
-16.3562
-20.8221
1.78888
-12.1225
-65.7346
-102.691
-75.5745
-13.3613
21.1547
55.3763
70.5475
34.8382
-13.1428
-96.2953
-69.4397
3.50673
-7.54565
37.359
54.4794
28.839
24.36
2.30983
-7.13737
43.937
89.3195
84.0668
72.4541
60.7383
71.0873
-30.9573
-170.275
-47.7106
41.7773
81.0812
53.4859
21.6527
-71.7455
-271.595
-337.351
-121.598
134.426
184.711
113.89
31.3737
-4.94853
8.98478
-14.7377
-61.8734
15.2135
79.4556
92.0923
-43.7933
-58.2538
-7.62811
-27.7839
-82.094
45.7639
182.825
199.119
47.3827
-105.147
-109.938
-73.2413
-92.3293
-38.9067
3.42203
34.8578
22.5093
-57.5402
-42.448
41.1232
47.184
17.2211
46.6407
30.0985
36.761
-3.11005
-27.4102
-7.00726
-50.3441
-100.344
-97.7347
-44.713
-41.7948
-49.0705
-26.9908
-8.35882
33.2135
52.2995
52.5524
66.9461
135.143
138.348
67.5989
29.0292
-11.2828
-8.58551
51.0951
65.2265
8.27741
3.65132
11.0666
2.05242
13.4285
-32.8709
-72.9843
-44.8605
-45.5445
-14.5724
12.6196
-11.2025
-92.8264
-144.274
-150.834
-115.212
-38.0147
2.88444
22.9185
66.1619
69.5382
22.9079
-1.05822
-62.1151
-126.168
-9.82726
13.9454
54.7189
94.2526
59.745
48.8382
67.1564
48.6792
56.352
3.85158
-21.7095
16.5726
107.064
152.245
76.5741
37.8963
39.6571
53.7843
67.1729
118.306
5.534
-148.483
-191.275
-176.479
-164.691
-125.88
-32.2122
8.25167
-24.3984
-8.75695
26.7365
27.3269
-114.657
-128.548
-2.86367
63.5419
42.6914
22.8334
41.5827
24.2606
-91.1052
-0.776413
56.1042
88.4425
183.379
170.518
35.4844
-41.3475
3.97311
37.7978
-25.954
-82.0216
-79.1043
-132.829
-147.977
-63.4079
18.3545
30.2252
26.5365
37.1203
129.775
146.965
53.6762
-62.0504
-171.868
-112.715
-26.2601
6.3005
22.2091
41.471
97.4118
105.761
80.2233
39.5704
-22.0307
-47.0748
-60.5804
-41.4475
1.76701
75.3606
70.8173
44.881
29.514
7.88434
-11.8895
-72.5016
-71.1595
-70.6316
-111.793
-99.6841
-38.1537
18.4945
64.1591
76.3171
77.8672
25.9232
-45.5195
-123.421
-66.641
5.00606
55.9438
122.936
170.902
112.757
18.4252
-47.8352
-121.185
-214.139
-197.473
-121.065
-28.9618
-43.5602
-130.869
-98.0398
38.3993
122.696
172.071
189.118
125.163
141.04
96.1962
-0.0516983
-47.7272
-6.63393
41.2066
84.4173
116.136
188.492
204.8
120.315
-20.8564
-19.8351
37.0077
22.0432
-108.315
-253.09
-222.931
-215.526
-201.033
-191.029
-150.461
-138.113
-131.754
-72.0969
38.992
60.6788
23.8395
61.5586
90.9158
130.402
124.395
102.383
68.8117
-22.9861
-30.7377
67.2722
75.6117
49.2832
-13.5108
-4.26254
-11.2363
-48.8496
-51.8075
-31.8284
-32.5758
-15.6783
18.6863
24.1349
43.3765
60.5433
50.3466
12.4297
54.674
155.3
123.862
57.5514
6.62983
51.2779
58.0749
-18.6901
-20.7632
7.22927
-35.9218
-80.533
-122.977
-80.6181
-93.4245
-106.486
-97.751
-121.655
-136.205
-155.449
-105.772
13.0696
53.9403
80.9887
81.249
33.068
42.1561
5.43914
-16.8384
51.4137
115.816
65.0781
13.123
-86.9325
-32.3094
49.6078
21.8455
-10.2948
71.1434
143.396
140.986
68.2516
40.7797
23.4812
-4.27292
-11.2794
-41.6744
-25.185
28.8261
6.85264
-37.6465
-41.9927
-27.3422
9.67345
8.37761
-36.5444
-47.9712
13.6248
20.9163
13.2816
-27.7582
-69.6139
-117.094
-161.17
-148.278
-55.3665
-91.5303
-189.12
-48.6291
83.9333
117.665
103.275
71.1166
110.461
96.3115
90.889
64.0608
-14.1186
-46.2805
-21.6596
55.7707
48.0009
26.9023
46.2083
76.9222
56.2952
127.89
172.693
86.6076
-69.9645
-112.364
-104.047
-163.922
-256.901
-254.639
-151.051
-48.787
45.9684
65.1762
64.4511
58.3972
99.5193
143.505
112.103
29.1856
40.2025
100.437
-45.4718
-51.4387
104.181
126.408
55.571
-48.1224
-51.9173
25.0756
-19.2142
-48.505
-65.7919
-56.5287
-30.715
-60.7032
-134.532
-117.582
-46.0171
-0.94861
-23.6073
-35.7555
67.1737
12.0985
-139.736
-170.405
-52.3456
82.9159
194.582
196.446
113.862
39.8324
7.71821
5.48492
-4.50964
-15.7444
4.0371
-8.23231
-80.9688
-35.2487
-20.1181
-0.77333
45.5347
91.0457
55.7249
16.5163
14.5748
48.0001
15.0711
-79.7328
-80.2056
29.2716
114.142
120.744
34.5253
-51.3633
-76.6845
-85.7293
-168.454
-261.801
-134.561
-4.32606
115.848
97.7855
104.925
145.618
113.544
91.2374
63.7767
77.2077
74.5611
-15.3638
-99.8912
-149.591
-119.686
-63.1129
-91.4589
-30.178
98.575
138.428
54.1923
-79.2803
-128.788
-52.1529
-53.4525
-23.6522
15.437
29.6265
18.0151
-27.2448
-107.224
-100.604
-12.8946
61.5432
80.525
61.7351
69.2334
50.8773
74.0717
76.3761
99.0769
117.527
73.7535
-7.02052
-18.5358
-50.212
-123.3
-220.106
-230.165
-134.198
0.600831
46.8356
-20.3726
30.8768
108.753
153.835
149.422
48.3302
51.2518
94.9945
53.7109
8.42596
-27.1221
-123.26
-145.066
-89.6093
9.57444
67.8457
83.1847
55.1749
6.87923
-50.3978
-86.0512
-119.915
-92.3493
-68.8921
-32.6678
26.4857
39.9671
44.8515
27.9575
26.8902
72.1949
153.109
119.134
19.559
-74.4121
-77.4264
3.67863
-6.45792
-95.4744
-55.9942
17.1967
-13.527
-47.7007
-53.0114
-18.6848
51.5127
87.7528
90.2508
22.8763
6.87471
-3.39728
-129.985
-188.637
-68.6099
80.2256
164.029
100.874
14.091
-6.33494
15.4749
27.1395
-19.544
-46.5027
30.667
21.0194
-19.9127
-64.2598
-76.5462
-4.05021
28.9703
33.4189
37.0835
91.0938
59.3533
1.35071
-15.8986
-32.6437
-15.1846
67.2076
55.5583
-43.848
-105.394
-147.677
-76.1844
-26.6756
18.3906
27.37
33.629
43.9818
-0.226783
-46.1007
-12.2422
-15.427
48.5029
46.6312
-4.98703
-39.8692
-61.0308
-79.3038
-12.1377
67.8934
84.884
99.0185
1.87759
-19.5667
-15.1998
-23.9766
-7.26697
-12.088
3.47896
24.3048
43.0686
90.7519
27.4203
-7.34166
43.5685
-38.2029
-119.648
-101.744
-97.948
-12.3288
68.6851
84.7309
95.0459
84.6211
65.2096
24.1016
-61.7959
-64.776
10.0972
16.8271
-72.2248
-76.8789
-48.1125
-16.4717
-29.6334
19.0808
113.127
152.943
81.8214
-21.9014
-30.5675
-26.7181
-67.7441
-48.296
-36.0283
-26.6404
-8.16873
-40.2702
-53.0907
-94.2332
-64.2842
-11.9301
-22.8045
10.1377
44.9582
131.649
144.405
142.701
65.8
-2.26244
-70.8486
-223.902
-239.701
-161.875
-118.942
16.8363
101.591
156.31
173.51
227.055
229.426
159.723
73.5164
-16.6411
-58.1946
-92.3349
-106.659
-137.243
-116.18
-72.6347
-24.4843
45.0857
26.2103
53.8615
63.7296
20.5461
-5.71641
-56.6501
-170.173
-223.758
-98.3004
11.2651
79.7634
76.9705
44.4011
42.0076
62.8985
51.8491
41.9072
-30.6144
15.9389
65.2628
34.4368
26.9742
1.00221
-53.6543
-54.1801
-10.0508
43.9483
29.7316
-12.1266
-26.4135
-49.8018
-52.0598
-67.3896
8.0856
117.197
118.463
90.9273
55.7457
-24.4931
-37.3767
-15.8651
-79.7108
-86.4327
-45.073
-49.862
-49.5541
2.72358
97.7368
96.8995
52.7114
43.9865
19.7971
58.3606
5.06156
-47.4746
-103.288
-204.335
-187.085
-62.0078
5.18583
52.5793
63.1449
38.3844
20.07
34.1018
84.1091
71.8661
29.0157
-33.3488
-130.565
-223.266
-137.8
-5.4716
96.1729
123.963
146.588
148.644
173.291
137.374
103.805
72.895
-2.457
-33.5196
-33.9623
-32.7709
-9.36555
11.6344
-17.1921
-36.7106
-71.6219
-149.313
-159.76
-161.917
-166.062
-80.0436
-3.08245
84.4266
119.884
90.697
57.2317
35.6977
41.9845
5.68095
-11.0227
-24.9507
-57.9592
-70.0509
-39.0544
-6.20297
58.6161
127.995
182.772
99.6159
-30.206
-146.012
-116.74
-44.8547
-23.8427
-65.5195
28.1383
73.6188
55.0499
23.1702
-43.4573
-32.3228
-52.2305
-61.6615
8.08093
23.3496
83.7249
158.267
121.991
56.4274
8.3961
-7.18925
-14.1677
-0.343321
-35.731
-75.3914
-112.443
-127.426
-97.9848
-32.6328
35.7109
95.8093
151.6
119.774
73.8302
-16.0569
-83.009
-217.198
-314.076
-123.516
24.783
133.981
135.124
89.4616
43.5009
49.7679
40.2826
38.5641
15.7041
73.0925
187.755
147.991
29.3438
-64.6513
-143.386
-153.823
-188.849
-94.573
56.9027
52.8007
55.1118
21.0828
-12.3545
-58.7298
-76.8705
-29.553
-18.902
21.5424
-17.9603
-85.1065
-59.5121
-68.6298
-109.297
-27.6924
18.0666
107.41
210.532
246.216
172.421
51.0028
-4.37712
-16.4789
-39.8262
-56.7624
-28.8552
-30.6744
-37.3208
-58.7637
-14.8251
-27.1553
-61.2572
-12.5168
22.3232
30.0488
48.3854
64.8793
54.8681
26.5088
15.974
-4.3095
-37.2316
-66.4988
-57.5678
-27.4437
-12.6766
-28.567
-15.485
21.0834
-42.612
-93.5608
-43.8314
22.0842
56.1754
67.3734
46.6358
2.3512
33.3295
59.9534
70.8637
38.1537
-12.1348
-29.329
-59.1646
-52.6864
-44.0938
-88.1453
-150.631
-165.402
-2.30472
140.191
103.975
27.1217
1.4571
36.9129
88.5866
89.1952
84.442
81.4113
55.3051
44.2821
18.9851
-54.5417
-18.9936
-18.3837
15.1947
25.0259
-30.1261
-115.197
-294.764
-228.888
-61.3834
8.00495
85.3657
103.905
101.027
66.244
7.0803
22.754
5.51991
-13.7608
14.3026
23.8845
8.15386
7.5363
3.92133
81.7437
80.8574
71.7772
168.886
136.355
-17.7309
-115.044
-177.553
-164.391
-193.508
-117.638
-28.7168
-15.5543
-20.754
-9.7731
-5.59435
24.2165
26.7614
-6.17227
-9.80291
-0.760564
79.1794
149.362
184.631
121.117
-36.1888
-79.292
27.0963
74.1653
87.0035
63.9311
-44.3345
-166.395
-194.041
-126.189
-2.91957
39.3425
22.2887
31.1608
41.8209
23.292
-4.7089
-24.9669
-48.3693
-122.54
-112.923
84.2978
123.263
22.5035
-22.9969
-22.0277
-2.15618
95.2354
99.433
76.4217
11.6134
-14.2426
-5.14735
-2.77758
0.61515
23.9625
67.7859
64.6484
18.3181
-6.04078
-46.2196
-197.825
-246.029
-175.445
-107.851
-61.7481
68.2774
166.5
205.995
119.929
25.7989
-19.7892
9.14718
45.7808
69.2945
13.4025
-38.9672
-1.40133
33.9991
36.7636
106.125
105.016
18.4167
-164.907
-168.968
-71.8129
-165.088
-319.106
-159.14
-13.3274
61.2295
75.3207
58.6009
77.752
89.0184
81.5885
38.0462
-26.1015
-29.3446
38.765
91.9658
114.922
89.3085
113.859
136.607
101.588
47.2271
88.8331
-1.14581
-38.7537
-53.0605
-81.0865
-99.0199
-116.752
-161.07
-163.628
-110.84
-92.1706
-67.9921
-14.8631
39.7824
62.4542
129.775
152.23
58.1339
9.41883
64.8549
70.4272
-6.3995
-66.3908
-83.2154
-54.1511
-135.521
-230.255
-222.22
-49.5428
48.738
61.0502
121.297
125.736
35.6823
29.541
67.3728
50.9208
12.1644
20.6161
162.703
163.95
101.792
33.0485
-57.3771
-114.591
-106.102
-19.364
80.5954
15.8194
-33.1554
-16.1087
7.12458
45.082
85.0429
51.1354
-35.3106
20.9901
116.105
61.6918
-70.066
-145.166
-192.381
-145.671
-130.508
-234.965
-96.2347
61.9443
89.7588
60.3319
72.6918
56.9701
-45.3293
-53.8459
9.3593
-23.1379
-12.4628
45.3413
50.7076
9.98066
-21.2237
66.386
221.409
73.5444
-50.9397
132.375
155.287
69.3458
-41.1556
-132.342
-147.705
19.1785
92.5145
84.954
11.7017
-28.3408
-91.8793
-232.561
-265.353
-182.858
-129.983
-65.3673
-33.6593
93.9539
220.646
184.623
51.0871
47.7192
106.471
101.682
125.877
33.7359
-21.8638
-47.1064
-81.2706
-84.3475
9.99971
59.4786
48.4929
75.8131
92.7021
71.2627
-9.41424
-44.6196
-25.1813
-45.7099
-79.9713
-155.002
-111.734
36.9519
20.0197
-55.6924
-44.5247
-50.1046
-118.237
-153.245
-37.6872
55.4596
14.1721
-2.04569
84.5988
141.564
113.8
95.0394
82.7363
53.6133
48.1031
49.1976
-12.8184
-83.5673
-68.58
-13.313
47.3486
-15.9189
-23.799
11.5243
-7.58265
8.44754
76.069
64.4804
10.8221
-103.599
-252.941
-233.688
-99.7811
-28.4008
41.3766
-22.5069
3.7774
88.6819
110.484
30.2915
-48.2884
22.5882
98.7219
141.06
158.791
81.031
1.85395
-15.4123
12.102
56.0412
127.098
189.22
182.456
62.2311
-139.162
-151.905
-170.479
-241.323
-234.667
-209.302
-88.9462
1.35829
45.6741
42.4806
-52.7067
-2.5828
52.3533
61.8711
49.984
46.3453
121.572
110.561
-59.26
-148.943
-134.274
-24.5753
22.6427
-94.682
-38.9457
77.6143
62.8625
31.5083
42.4334
132.031
210.215
172.124
117.904
29.9226
-83.6133
-143.696
-218.885
-229.931
-112.43
6.72214
159.504
193.241
153.018
149.647
83.1348
30.1006
22.3094
-34.5331
-58.4658
-86.5599
-184.57
-241.622
-187.553
-98.0767
-68.9072
-99.7155
-34.3896
2.46646
24.9039
97.6806
181.749
170.491
96.0821
168.062
130
59.9246
27.8215
38.1058
1.97049
-106.282
-164.448
-115.029
-117.84
-57.9946
-54.3593
-41.3184
7.81738
78.7574
102.069
113.463
94.0648
95.3711
115.998
54.0111
-35.247
-88.0105
-156.705
-225.625
-304.829
-118.873
44.5134
125.293
138.645
23.719
-8.60493
22.0307
37.0985
72.4789
63.1404
78.8209
105.43
64.0781
-17.2624
-114.331
-165.088
-101.31
-10.1459
74.0486
149.355
102.599
36.2252
-69.5771
-98.9647
30.3883
86.3639
63.8541
8.64782
-49.5325
-87.7804
-135.006
-123.757
-34.8959
-13.0522
11.1545
28.9012
11.7286
44.218
115.589
133.966
47.0481
41.9555
34.8867
-53.4475
-225.052
-128.535
27.9998
78.1089
24.2181
76.4985
22.5111
-58.2162
-85.8941
-73.3396
-29.2493
34.1748
36.8962
22.4735
17.8318
-26.6041
-56.8951
-51.6297
29.7306
115.658
166.476
74.2836
-54.071
-56.0054
-69.5375
-114.67
54.7261
134.642
38.6582
-85.4543
-64.7125
27.1871
100.015
143.241
63.1869
22.9591
19.5573
-45.9973
-111.896
-64.5948
-56.3441
-75.892
-26.4772
-32.8438
-43.0458
-35.2054
-54.688
-44.0912
61.3846
118.472
30.2862
-96.1899
-114.447
-118.838
-146.827
-100.774
3.43905
44.6617
55.2533
96.1304
143.535
144.882
159.382
191.947
242.68
185.1
66.2512
-57.3773
-233.369
-165.454
13.488
134.713
128.501
-45.9318
-105.017
-74.0568
-144.722
-218.827
-102.8
-44.6269
6.82384
44.8169
-26.7908
-152.655
-129.026
-33.0485
32.9061
36.3441
50.1418
37.1679
29.1622
15.9851
5.18735
68.634
153.438
145.579
126.785
156.297
159.172
49.5575
-70.7764
-148.741
-90.6266
-24.2549
-64.3077
-111.106
-108.04
-13.2162
52.7064
27.833
-29.2492
-48.4665
-49.8579
-23.3775
-18.9685
-19.5368
0.503975
25.715
-47.7311
-22.6013
-13.117
-21.7618
-4.88881
10.1424
-13.6469
3.78801
26.4863
52.014
103.633
117.189
75.0633
6.07271
13.2333
-38.8756
-77.094
-47.5486
-16.8037
24.3724
19.1142
-24.2024
60.2428
144.724
126.324
106.322
55.2294
3.07189
-73.7561
-196.099
-218.02
-176.558
-142.228
-67.8607
-55.6834
49.6389
170.124
206.974
163.787
115.194
11.1675
-32.8458
-188.224
-181.23
-51.2442
-40.5353
-50.7196
76.5199
135.71
97.478
9.90945
-72.3979
-22.9961
-28.3749
-118.558
-99.2911
-53.1082
-5.98139
32.5408
44.0968
107.817
100.337
170.07
153.231
98.0929
37.9616
36.5586
-22.4803
-73.7747
-59.1699
-66.6203
-74.0332
-26.6261
24.1798
49.232
-26.5785
-10.425
-52.4375
-108.153
-61.7455
-16.7256
54.8391
3.63157
-29.8096
-43.345
-12.2062
-2.94238
-34.0504
-36.6766
3.05822
85.673
110.991
22.2371
-100.286
-87.3525
-38.1445
-98.8596
-37.8096
43.8128
35.8817
35.6499
31.4723
71.3462
77.1795
16.199
63.8626
62.8356
-17.563
-75.3878
-49.4257
-5.60911
28.6451
64.7802
111.599
144.467
113.251
41.0421
-36.5118
-53.1096
-63.8044
-63.8925
-14.1703
32.8357
-7.0157
-57.4276
-120.36
-183.514
-171.171
-36.0924
19.9506
63.0459
82.1583
60.6655
14.6996
-76.5382
-142.467
-202.371
-205.222
-13.6394
92.6014
155.376
223.515
233.869
182.938
76.6601
22.0168
66.9437
130.538
112.289
54.1819
-52.8685
-87.7331
-107.868
-91.8669
-51.5198
-11.2033
42.7289
28.2883
-73.6537
-117.66
-130.944
-188.871
-215.802
-176.876
-79.3721
48.6661
67.3021
15.8269
46.0203
151.474
176.17
105.95
84.7833
61.8974
39.6428
-4.78496
25.34
71.911
25.4351
-19.1568
-62.8908
-55.5406
-67.3059
-54.6336
12.2932
22.0548
-29.0633
-86.202
-22.2082
17.4358
-16.3749
-13.4848
-29.3785
-30.2956
-21.6104
14.4674
89.3784
184.777
189.189
110.74
54.4839
2.84972
7.06422
23.3748
69.8686
60.7819
24.1725
1.12495
-147.334
-316.824
-356.67
-268.119
-83.5446
47.2513
88.1221
105.221
98.2161
25.9964
-29.6598
-44.2807
-89.7083
-56.3627
70.4312
73.1684
1.74481
-22.1142
9.63176
55.3021
96.4831
122.454
112.897
135.693
110.498
40.8572
-37.3388
-68.8365
-80.7387
-82.4055
-52.1027
1.17945
8.37988
51.2284
31.3638
35.113
-12.1613
-27.6078
26.5291
-13.071
-210.49
-235.209
-52.4701
13.3721
-1.89869
14.8689
29.1242
92.9654
159.849
147.388
18.0379
-52.1959
-48.0593
-78.3629
-41.7204
17.9507
6.64737
-18.5576
44.2462
71.5633
111.281
90.4828
27.4107
-33.256
-85.0976
-44.8061
-20.5534
-63.1062
-34.3736
-41.3596
-5.26088
29.5279
29.9834
-2.49906
-102.165
-139.823
-108.096
-97.2305
-42.7867
54.1702
137.22
155.092
102.05
67.2639
69.1807
30.3811
57.2241
48.004
-54.4876
-66.1619
-39.0217
-16.0581
84.3484
93.7244
96.501
109.232
63.7967
-50.9494
-153.052
-143.814
-117.187
-185.908
-94.3847
18.8617
20.1787
19.4441
23.8412
-12.8052
-66.9161
-80.416
-22.7806
35.6786
18.2599
34.7055
1.5631
-72.9175
3.6008
133.54
167.486
139.818
132.137
119.949
10.5581
-56.5246
-66.4497
-69.9726
-25.3442
45.3136
40.9914
2.03092
-80.5548
-144.003
-115.346
-71.1526
-19.6205
39.4622
50.6057
94.8483
65.3369
-53.5828
-148.18
-104.297
-117.753
-177.987
-105.505
49.5028
130.463
207.68
175.707
88.1214
70.4331
68.8394
32.597
16.8783
17.2315
42.7039
75.4547
71.0113
7.0151
-40.6516
34.1684
28.5545
-3.8566
-44.9893
-124.34
-108.291
-69.8737
-134.448
-175.153
-132.288
-38.5867
3.52738
4.71457
15.4694
36.8898
53.3422
-9.05753
-69.95
-15.8489
77.4616
75.4901
66.0901
97.6448
143.964
107.076
67.6164
-21.4828
-79.1705
-78.2885
-24.0319
15.136
28.5506
36.7352
32.3804
46.5118
-15.7649
-33.5771
-64.5771
-79.9337
-51.4917
-45.8947
-22.8431
-0.0301223
34.265
37.0542
-26.474
-79.2916
0.64233
79.0642
52.9778
-30.8354
-92.8204
12.1468
29.7963
19.014
29.8574
-15.1608
-51.9219
-33.0515
-16.351
7.04542
88.1163
102.229
70.0467
71.3031
58.9777
44.2998
-20.5053
-81.9422
-56.7658
-104.112
-151.073
-54.8471
-11.6991
7.42992
37.9477
42.0625
67.2252
43.9043
-12.1966
-30.9756
-22.6427
-1.48317
4.06314
-10.9314
21.8533
5.88088
-73.3745
-103.392
-50.449
65.5238
152.866
54.5149
59.507
19.0678
16.0405
72.1941
94.9566
77.6204
62.4115
22.7085
-110.394
-242.716
-154.594
-92.1979
-112.119
-123.352
-38.774
91.706
115.827
91.3241
100.66
110.767
53.7452
4.94026
-41.9357
-70.4012
-87.5246
-26.7454
53.7308
42.2565
54.8232
81.3072
-9.37684
-70.3081
-74.4112
-27.6018
-7.57696
33.4037
24.2716
6.63591
17.0283
-9.41154
-38.2375
-50.197
-34.2378
-3.64865
2.18509
3.4518
-4.89402
29.1364
56.3936
55.7656
69.6081
63.8475
-9.05551
-2.92731
-39.3119
-82.6926
-59.6374
-7.23013
34.5127
44.1782
12.7147
-14.9081
-54.4644
-116.98
-116.386
-48.2896
-35.3145
-6.34166
58.6267
134.169
150.615
141.004
119.185
85.4518
8.32733
-144.47
-144.372
-66.7271
-77.3419
-131.526
-154.633
-83.1635
-20.0744
104.045
168.935
146.655
103.389
61.9545
32.8158
16.6473
-30.0575
9.66305
33.2387
-11.2883
-5.32266
46.0419
36.5466
-27.1886
-21.7506
48.1657
78.4668
52.6743
-67.4503
-151.882
-70.7152
-68.4486
-131.449
-209.189
-234.526
-88.237
82.4486
95.8203
79.026
71.3956
69.177
49.9273
-18.8481
-40.027
66.155
115.361
135.733
105.983
72.4085
45.8875
-45.7562
-74.3407
-18.6668
43.911
99.2823
-19.4563
-125.816
-139.595
-110.198
-45.6834
18.9473
94.953
197.421
169.782
-16.0744
-137.239
-142.244
-115.878
-42.4684
23.6801
17.7934
-75.775
-165.609
-76.0555
0.756588
17.1068
6.95861
52.6198
103.77
123.654
100.173
69.7655
5.92321
-18.2586
-54.3558
-110.331
-58.352
-1.69596
57.8673
74.4148
74.6053
100.837
147.581
102.502
14.44
24.5654
-16.1174
-61.2692
-89.1659
-85.3626
-83.8549
-125.038
-113.56
-119.047
-40.5986
29.6326
-32.5592
-6.36708
84.5571
95.5693
91.9822
22.7154
1.26098
71.7314
102.016
57.0126
31.0556
3.50005
-73.3535
-286.213
-300.444
-104.716
-11.4617
83.1131
126.481
144.452
120.517
75.0239
81.9446
49.1882
2.23958
5.01962
6.31756
-58.8831
-84.6676
-84.3775
-70.1353
-0.380467
78.3036
181.809
177.869
56.1805
-36.4772
-80.1967
-108.515
-151.792
-82.8102
-38.2844
-11.7134
5.43921
-20.6574
8.75639
41.4273
14.345
13.5923
-12.0874
-1.18802
-27.772
-56.1186
-7.4121
18.6705
0.248272
26.0929
16.0073
28.2969
65.9678
62.9809
44.0361
-17.3465
-27.0861
24.4763
21.1397
-9.76903
-2.3666
78.9914
106.584
-0.654699
-119.19
-208.308
-72.2469
61.2677
54.4088
-2.63943
-8.6666
20.5455
14.0769
29.8348
87.6723
28.7242
-71.0947
-91.7334
-55.1936
-54.2596
-88.8371
-204.404
-121.521
29.9274
122.833
203.61
122.044
44.4229
95.6397
61.3363
32.9464
101.342
77.9223
-10.0218
-75.0695
-78.7008
-19.5117
14.9366
19.0495
17.9098
46.4896
32.0882
-28.4387
-94.5964
-104.229
-10.4492
73.5637
22.6148
-32.8667
-78.7462
-91.9479
-241.787
-370.662
-232.591
-52.9856
59.7948
125.905
161.155
158.089
198.976
203.98
196.323
128.566
91.7069
34.4295
-25.9361
-43.7256
-124.084
-194.429
-33.4423
74.1143
75.8178
136.814
91.8107
12.4198
15.193
-2.97599
-80.6958
-132.339
-139.615
-120.771
-107.639
-101.494
-59.4781
-15.1896
-7.78724
-2.28811
68.7403
101.821
40.7796
7.24714
75.8033
138.066
162.508
113.933
23.6372
-49.936
-140.144
-128.639
-30.4341
-47.8193
-33.7846
-21.4703
-19.0384
-10.0841
-77.1743
-145.015
-25.7389
55.9178
54.8853
67.9764
90.0607
112.843
55.4471
32.7346
20.3894
66.1
119.182
71.4968
-14.1033
-35.5817
-97.8058
-125.478
-68.7529
-56.8799
-60.5044
-81.8753
-70.5515
81.6132
123.092
22.0136
-44.5075
4.69474
39.6577
57.6976
-0.000571063
-59.6138
-37.9221
-28.4499
-42.9604
-17.4466
12.9004
50.2119
40.4755
84.5907
94.1362
71.0616
-1.52253
-125.427
-122.122
-3.20541
-11.5085
-45.1257
-108.56
-112.592
-35.7723
24.3871
-7.04826
97.823
111.548
31.9477
13.4317
-26.9096
-78.8997
31.8791
127.162
150.449
98.6277
41.6503
13.7722
-56.049
-29.0961
-5.41561
23.4767
-33.6247
-96.0516
-70.0568
28.3551
-20.0297
-34.8273
40.8432
110.366
101.859
56.4741
-35.7077
-102.507
-138.518
-39.7516
20.3351
0.0541784
-14.5533
-47.2225
-53.5715
-62.759
-64.5268
-5.13807
33.4158
45.7021
72.8978
84.91
73.1334
2.39731
-20.7551
-17.1713
-107.698
-190.587
-125.204
-66.0447
-10.7182
31.5879
123.779
131.605
99.0312
80.1204
69.2956
79.5025
59.1417
22.4362
3.00834
-28.301
-62.1462
-40.4432
-22.0411
-6.87404
-29.076
2.16316
17.9932
28.9075
4.56723
20.2194
49.0208
68.7402
40.4774
4.40751
-48.6697
-53.1874
-80.3055
-84.313
-67.9899
-23.9606
-7.33777
-36.8678
-13.3192
12.3997
1.97698
79.1539
129.148
14.8012
-44.3999
-76.7091
-77.0521
-73.4059
-87.0741
-46.115
-24.7085
-25.4432
-51.8642
-86.4951
-7.5133
91.8917
121.449
121.492
95.3844
92.0521
143.396
106.758
56.9886
43.4641
59.2827
22.7475
-62.2627
-137.98
-177.289
-87.3497
6.8876
34.2839
139.973
147.859
56.9363
-29.4108
-82.76
-153.547
-191.997
-105.42
-34.0576
47.4744
72.3548
59.0331
-17.6847
-72.0088
-87.7615
-36.0503
13.6457
25.4186
51.1078
19.6718
3.55384
68.8937
19.0001
-48.2293
-5.58754
78.2301
129.689
66.3298
13.998
-41.7468
-70.676
-55.7379
-56.9937
-42.3639
7.59056
66.4484
90.258
60.7247
25.5551
24.464
-24.3588
-85.4518
-96.3654
-24.2918
19.4929
21.106
20.4722
14.1149
-7.21841
-57.5352
-113.693
-98.2078
23.6412
49.3823
5.96548
21.326
58.4472
37.9439
-1.91808
5.04432
34.5761
50.8907
70.0093
27.1603
-30.0246
-31.7454
-55.7911
-62.5505
6.78664
30.9538
3.69453
-38.1369
-35.2753
60.3057
89.4902
66.9745
44.313
-6.84429
-32.1698
-18.9591
-36.3665
-27.9645
1.31956
-12.1009
16.2929
27.2706
40.336
-24.8025
-95.3345
-59.013
-15.4309
-59.4169
-115.957
-111.767
-34.5228
-24.8464
-17.8889
3.54895
63.7027
86.8036
68.6043
68.5733
89.2005
91.4481
90.4032
53.0251
-17.2648
-63.3164
-68.6297
-27.1812
21.7717
90.3809
117.981
97.5093
70.6583
19.2398
-9.79552
-11.6893
-80.4494
-138.374
-134.71
-124.395
-84.048
-5.99355
-38.2516
-43.5969
-11.4644
43.7864
158.803
167.15
81.3313
11.746
-49.3887
-106.469
-137.687
-131.476
-93.0847
-19.3224
46.6967
37.0623
28.9344
38.5473
15.1068
-23.9611
-58.3909
-54.2784
55.8192
122.312
100.022
58.4719
32.4014
12.3132
-20.5859
-5.1066
-5.70498
21.4113
57.7091
40.9887
43.4691
55.6518
-16.8405
-134.588
-193.216
-52.9993
74.0648
98.0533
111.465
143.733
32.585
-121.753
-138.385
-127.376
-55.243
24.0774
14.0285
-45.9927
-152.998
-221.919
-81.1949
58.1287
108.385
163.295
201.204
116.976
36.65
25.715
-7.94534
-83.1408
-89.1701
-13.7582
59.8263
100.131
55.3216
-10.3588
-5.79278
41.1255
115.257
185.362
86.6275
-36.8744
-78.5238
-72.5514
-85.5823
-132.052
-144.749
-95.5851
-72.1114
-65.8379
-56.1504
-86.6905
-101.238
-50.9634
2.41186
66.9633
54.6215
43.9062
35.6459
27.0226
9.7144
1.71664
-1.01848
89.8862
135.611
103.296
55.3686
24.926
-6.87113
-28.5659
-45.2282
16.2966
53.9999
71.3284
57.8178
2.00375
-54.9298
-98.8904
-79.3092
-93.9558
-27.6937
57.473
64.5133
6.33171
-6.78474
13.409
41.2955
16.6594
-16.2837
39.5967
94.3395
44.3972
-48.1163
-105.755
-94.9881
-68.0472
-46.2123
51.177
93.5247
92.4699
-36.1694
-110.007
-46.3782
-31.1928
-159.107
-164.708
-29.0797
52.0753
96.5216
70.6993
-31.6676
-58.9271
29.8632
8.27393
-3.68684
117.412
172.545
155.275
73.3027
11.5336
-54.2867
-154.184
-99.4925
33.4276
177.089
169.6
75.1309
17.6837
-32.2697
-87.1165
-158.392
-175.378
-29.7642
101.643
46.2934
-80.5305
-81.4499
-72.0923
-55.8603
-20.0435
55.3614
119.333
26.2835
-48.8954
14.5929
38.1573
-10.7121
-39.3218
14.6224
18.0084
61.6427
116.541
47.9611
-31.2389
-71.5432
-131.856
-80.6683
-57.3643
-32.343
14.6348
16.9441
37.4895
54.7936
11.3567
10.1777
2.90757
-11.1888
17.7221
17.8505
27.2668
34.7316
-24.3049
-55.9219
-30.0659
18.0241
63.9022
87.7722
103.722
101.042
66.3966
-14.9893
-98.7486
-66.3675
-50.5428
-75.008
-51.588
-21.0652
-34.11
-79.1249
-117.391
-23.6455
87.8972
96.7236
114.233
104.489
50.2101
-17.7171
-84.6639
-244.809
-251.614
-0.286264
127.288
138.265
161.337
135.076
-2.62364
-105.429
-23.4318
34.5851
53.8912
-22.8093
-58.037
-67.8552
-48.1369
-52.8031
6.26195
-14.2547
7.6223
141.238
196.047
128.001
97.1755
3.14213
-132.16
-156.554
-8.97231
38.06
-21.1536
-50.9887
-9.27878
51.2858
19.6735
-57.6964
-107.205
-63.2147
-28.6277
-22.6401
-29.3136
-33.8939
-69.8721
-73.9884
-19.1303
20.4674
110.269
162.606
102.231
50.6388
-37.9456
-22.8455
-3.96513
-8.21581
18.9819
30.9571
16.2627
-13.7849
-61.8538
-7.4051
31.928
27.428
7.66128
-25.184
-3.27479
8.00281
-57.9535
-49.9027
2.43929
83.4008
78.0525
14.1014
-7.4595
-14.1269
-65.8877
-51.678
-37.285
-50.2827
-57.376
-38.3135
58.5757
131.393
122.162
-21.2529
-85.6313
-37.1338
-2.7459
11.1432
39.0013
25.9459
18.9082
12.0728
-11.4536
-39.6331
35.627
80.8151
37.9369
8.11189
-2.33041
-4.20222
-46.0274
-88.6723
-71.3782
11.3865
-16.1224
-75.9853
-86.8277
-61.0991
-33.2343
6.96882
62.7544
125.026
130.455
106.467
62.7083
-48.3226
-169.022
-48.8788
26.1111
11.4381
-28.5896
-41.0563
-16.8442
36.9958
93.8568
108.405
117.429
101.56
32.4132
-8.72621
-36.1149
-80.2865
-83.4125
-81.3388
-103.12
-96.9926
39.089
21.0098
-53.0023
-47.2935
-18.618
13.9697
26.6694
-2.55064
8.3757
92.6654
92.4377
-5.59088
-61.2956
-32.5736
23.062
-15.6108
-53.258
19.5351
46.8793
68.8046
71.2918
32.3105
29.0515
-37.8651
-108.424
-9.64841
12.8475
-4.761
-40.5934
-94.9336
-101.847
-155.779
-117.811
-26.3695
50.5237
107.869
111.256
70.4974
83.3335
106.013
106.092
56.0014
22.5288
47.6849
139.147
31.0107
-95.0738
-97.2369
-86.3077
-95.3204
-10.2453
49.6961
72.3254
82.689
34.4629
1.24785
9.30498
18.7455
-21.641
-85.3329
-43.3146
2.94284
-37.59
-58.095
-80.7422
-151.743
-143.102
-69.307
-37.6886
62.2721
70.5269
85.3535
88.3681
74.537
88.9669
26.7248
-15.9548
-68.9247
-59.5627
-7.17168
-28.1008
-35.0307
4.05902
0.364466
-11.9068
-24.8319
-48.4753
-22.5456
51.402
47.0982
7.05061
-45.1971
-6.26842
-3.55618
27.291
52
74.0319
76.0612
88.5592
58.3721
-51.0453
-104.697
-10.0787
26.3856
24.0727
115.839
250.339
222.193
82.1598
-56.013
-45.4581
-54.1439
-137.087
-167.17
-146.032
-129.506
-159.407
-150.947
-114.548
-46.8944
89.2681
143.554
89.0961
62.9902
41.4488
3.59694
-91.6808
-151.43
-94.2523
18.5067
78.7598
121.819
109.05
46.8854
-48.6305
-31.7358
49.4403
63.4546
-10.2384
-55.9436
-23.3282
14.7133
29.4017
76.3631
119.169
165.238
113.578
-10.0037
-141.169
-227.336
-216.788
-96.7058
3.86044
85.9467
54.4499
11.7966
-11.1377
0.237683
41.1235
33.4857
-4.58666
30.9356
35.4258
-1.73193
-80.5788
-121.122
-59.1025
-2.31921
53.2403
144.125
103.142
41.4132
5.31669
-33.5598
-28.3571
-17.6184
-10.2944
51.4602
56.9361
55.8757
43.4287
-21.1899
-64.1997
-97.8656
-58.8258
-13.4222
-126.504
-87.9803
44.923
57.3284
53.6158
7.2008
-1.88796
22.6533
65.4087
53.3875
45.1681
-10.2119
-35.5361
-64.3203
-113.492
-101.182
-90.2472
-58.0074
-34.1743
-14.4861
105.191
168.148
137.542
117.346
78.2811
-15.6332
-16.8559
-19.9008
-57.3457
-12.9211
-0.811761
-20.0027
-16.2624
-40.6402
-32.915
26.9653
51.4479
47.1042
38.9121
14.4083
52.1827
78.6801
50.2869
-2.05255
-37.8607
-56.2409
-208.47
-281.886
-142.453
-36.9657
37.2871
40.2591
51.7798
96.588
86.6383
21.5021
6.89641
-23.718
-23.6082
27.4186
29.8169
5.2369
-12.0495
-37.8943
-1.30256
81.979
153.731
176.085
98.1328
-23.8604
-74.4256
-61.5856
-51.0841
-33.5582
-47.4012
-71.162
-62.7753
-17.5269
-14.927
-44.0036
-46.2233
-48.7379
-74.4423
19.8052
134.878
146.999
91.1051
-20.3345
-62.8192
-30.9234
-48.3872
-10.6931
30.4428
62.8786
92.6605
41.2836
-53.1131
-85.7517
-98.2068
-83.3788
-7.3375
81.9271
108.45
28.6498
-77.1185
-152.013
-98.286
94.8928
128.924
53.0727
66.7914
106.89
85.9964
48.6623
4.63337
1.13709
5.04029
-58.4419
-98.0167
-65.4917
-48.6372
-17.6847
1.99232
-32.859
-50.9879
-7.48782
23.734
6.24145
-36.9242
-14.9967
-12.1961
-51.5583
-64.6138
-92.9804
-128.83
-68.1958
-43.4366
-5.08963
114.518
178.839
195.351
128.584
77.3455
82.2947
27.3048
27.7711
32.116
3.24994
-30.5993
-85.9446
-103.391
-71.7256
-56.9838
-5.03511
54.5546
64.3995
88.8866
88.1018
0.316397
-77.1611
-104.037
-125.788
-127.072
-105.417
-25.6495
45.6665
56.0202
6.86448
40.4125
124.209
98.9083
54.8109
45.3738
11.0043
-2.08295
-21.4926
-4.66037
30.2471
22.3661
-27.7026
-103.411
-156.368
-103.897
-43.2486
-49.0986
-82.8003
-25.9655
0.65908
-1.62162
-25.1735
3.55357
27.1696
44.3195
60.886
125.534
142.998
166.865
157.041
85.693
43.9575
9.3159
-26.0752
16.114
8.13014
7.69109
2.95446
18.9695
17.9058
13.1841
-74.1281
-173.102
-153.314
-142.808
-86.7043
-25.1902
-8.67145
-58.1644
-54.1138
5.41534
16.5424
-117.893
-67.057
-55.2953
-109.567
-199.857
-135.783
-39.8973
98.1323
138.594
202.367
207.085
113.766
155.48
133.228
-5.41172
-38.7999
-23.2636
2.92574
47.6718
69.7966
122.25
59.9874
-53.2166
-3.49417
124.534
230.924
136.124
-3.21533
-110.721
-200.321
-111.092
23.6068
-3.20112
-83.0079
-124.85
-108.538
-134.544
-190.066
-179.29
-71.9911
52.8184
133.083
184.292
152.82
134.856
75.3176
21.3772
-48.5475
-2.0021
136.96
129.047
58.4555
-42.0069
-90.6823
-84.2202
-123.445
-95.1335
-49.1353
-20.9073
-36.3918
-19.3646
11.8202
-2.7132
-45.1273
-36.1375
-1.34756
24.7845
46.5791
31.091
-31.3405
-99.585
-155.896
-131.561
-42.371
2.54102
21.9398
76.2924
94.6452
-114.992
-35.9354
-4.09305
28.1319
132.932
225.561
146.715
97.1515
96.375
57.11
10.4616
-21.2263
31.7006
153.477
165.795
50.5452
-45.2198
4.4641
-45.2392
-174.341
-117.786
-76.8587
-77.1355
-128.075
-100.095
-20.6336
3.30221
-122.276
-237.21
-250.004
-91.304
37.9877
115.948
105.293
86.4154
118.356
157.72
97.2347
66.4517
55.2731
1.93261
-23.8865
20.2167
57.2975
-20.8576
-62.1071
-47.9381
0.172807
169.821
261.282
152.225
-1.70878
-121.413
-138.272
-134.518
-179.208
-166.268
-121.769
-54.7333
32.6218
7.91751
-35.8466
-9.06757
72.2274
54.5195
-10.2899
-9.06858
130.101
163.652
104.701
-8.07544
-14.8866
27.2912
35.448
-3.61858
-39.9039
-82.4186
-185.332
-225.726
-120.398
34.0441
124.067
107.609
89.9816
99.8382
112.75
121.877
62.3787
-31.4994
4.67934
18.0548
-44.4753
-56.2611
-72.3586
-87.3632
-33.9366
28.4492
214.958
317.783
177.614
-14.48
-67.757
-93.726
-223.584
-447.959
-553.471
-229.864
48.5971
143.935
56.7363
73.8231
127.204
104.365
61.0357
15.5317
41.7288
60.8114
-7.15519
-48.5623
64.7314
173.083
113.284
-14.7545
59.0919
234.357
282.784
83.5962
-75.5024
-135.63
-144.124
-142.982
-92.1676
-55.8407
-68.6985
-22.469
9.65745
-45.6925
-136.681
-104.979
-34.3095
-64.1886
-84.1685
-32.5619
-2.15011
42.704
94.2457
20.7854
33.6521
33.746
88.8864
124.37
69.3387
-3.81443
0.521087
21.0822
40.3548
47.3985
51.1225
-0.325158
-57.5893
-54.328
-19.5805
47.8985
33.6972
2.38284
34.1643
7.6186
-51.3646
-61.8022
-41.2954
-28.9611
-67.53
-97.8209
-39.054
23.4467
15.827
-2.12132
24.0767
93.385
88.3574
15.4902
20.2429
30.4524
-7.26219
-16.5711
-34.0609
-14.8735
15.3392
21.4169
3.45771
-7.43335
61.3027
87.502
10.2381
-71.686
-113.548
-99.9707
-25.1085
-13.5605
-19.4843
21.4446
5.1315
-71.1185
-186.683
-160.304
-6.11095
80.9235
38.2057
8.88759
33.7922
37.7094
23.266
102.814
119.284
30.6824
23.661
166.724
208.302
132.978
-62.3819
-201.764
-103.454
-36.017
-13.5963
57.4446
51.3506
-11.1259
-43.5517
-38.1647
-41.1809
-7.7207
8.7343
5.3497
9.26375
29.8786
-45.2811
-142.403
-132.59
-135.103
-70.1482
85.3402
113.682
132.343
148.106
114.87
115.395
67.918
5.4292
-25.0165
-46.1076
-72.5399
-98.8222
-76.1703
-77.3452
-68.4328
-4.68147
3.45656
-5.5511
-27.7737
17.1351
43.4003
16.9096
-3.97536
48.7766
8.08127
-63.7582
-10.9036
-38.2146
-67.0275
-77.2461
-108.759
-131.771
-67.9742
61.0661
74.2525
80.1973
67.5366
83.8037
140.672
126.937
65.2941
45.3246
52.3312
118.776
110.935
28.547
-8.97547
0.22612
-94.1623
-278.743
-258.197
5.76332
80.4661
48.3076
6.24903
-24.2664
59.4863
61.7243
3.30064
29.6928
49.3492
6.46273
-31.4487
-39.0253
14.2641
53.871
-45.1828
-131.269
-148.396
-63.4552
66.6702
31.2872
-25.7279
-19.8108
72.7339
107.188
42.7971
-15.9615
11.9919
1.09377
-10.5613
-20.3146
-16.6387
-44.1346
-122.918
-153.083
-70.0674
17.6991
99.8673
116.986
145.197
108.518
7.23142
-66.2727
-62.2511
-42.2703
49.4467
120.691
55.2706
-39.564
-73.4608
-45.3274
-40.9859
-47.5224
-15.5871
-30.875
2.84323
107.074
245.882
303.774
161.866
-4.56895
-138.824
-251.394
-395.299
-387.879
-233.662
-159.008
-57.8846
49.7498
157.498
193.266
165.475
154.072
150.037
149.284
117.792
-13.9106
-173.685
-90.8852
-3.63057
41.1988
155.052
256.602
382.087
454.956
166.451
-122.876
-335.451
-441.434
-327.935
-201.275
-107.492
-83.1475
-40.5926
10.151
-10.305
22.87
90.3635
28.0606
-67.9106
-168.96
-139.785
-18.6788
27.4626
-15.8528
82.7637
209.661
214.464
151.539
30.7854
17.6036
10.5432
5.36556
0.793285
-30.9563
-37.0312
-33.587
-67.0758
-57.2496
-22.8413
49.5978
46.8773
-55.0641
-82.3287
-90.0888
-84.372
-85.5362
-11.166
87.8645
87.1774
44.0924
12.0187
39.1091
50.6118
48.2239
34.7643
7.18667
64.9266
69.1663
-3.08574
-90.7136
-69.7241
91.3195
38.3964
-29.1368
4.95062
17.9163
54.114
44.9905
-48.0829
-76.6431
1.2623
28.2979
34.0953
-50.9021
-146.579
-148.314
-4.57643
133.128
115.031
52.1378
62.4468
-1.38741
-16.8326
-21.9506
-90.0059
-123.205
-96.6799
-11.6948
28.6205
-1.0749
-37.8904
-57.9564
-20.143
79.3808
67.8868
26.8049
-64.1599
-250.477
-203.88
18.8158
136.746
170.143
201.955
194.11
73.1476
-63.0261
-41.9137
59.2047
61.3879
9.22889
-61.2799
-35.4916
-44.9314
-47.5285
70.0017
97.8609
19.3092
27.2097
69.7516
16.8432
-96.5943
-137.264
-106.337
-57.4676
21.092
106.083
50.3358
-145.811
-137.86
-29.2931
85.0009
76.9046
47.6271
-79.9531
-205.444
-80.7192
130.857
153.356
60.4581
105.879
51.9379
-30.9433
-56.66
-72.471
-40.1299
-1.11242
-22.9195
5.33232
49.6077
-38.162
-68.3811
-74.8754
-75.8586
37.822
232.701
251.206
-18.2394
-68.925
-55.9771
-62.3026
-7.97007
22.1356
62.548
85.4692
55.3215
19.7173
13.4062
75.6361
-15.5115
-107.632
-204.492
-363.703
-213.48
52.7326
51.0827
-12.2323
38.7564
111.964
100.8
-14.5958
-23.6715
23.4739
43.0246
37.0655
7.00491
11.0307
75.0622
97.7571
70.3445
119.255
189.515
158.455
43.197
-118.236
-162.457
-110.931
-24.3684
45.7574
151.308
102.511
-71.5911
-163.603
-148.393
-89.5226
-59.4165
-54.8834
-38.7185
-118.354
-207.556
-303.766
-221.928
21.2236
192.689
196.782
207.959
209.518
174.494
110.279
-24.0496
-41.3324
63.9414
24.0475
-82.4724
-79.087
-119.611
-116.403
-96.2598
-9.65609
143.734
224.776
205.874
230.058
144.681
53.1217
-23.6949
-88.4934
-178.385
-292.005
-283.897
-136.671
-51.0189
-2.22366
-8.57331
-53.3705
7.88607
97.7128
131.765
143.59
170.623
219.358
173.089
60.7775
-137.314
-202.045
-134.925
-162.01
-103.558
2.48577
51.1205
26.283
-53.3811
-17.1024
13.5054
13.0852
77.6923
52.8084
69.0715
66.2371
47.0074
13.5271
-26.7227
-45.9729
6.5514
26.6673
25.2351
9.21591
-34.4768
-75.7151
-194.583
-254.812
-71.6961
-14.8316
86.9458
178.242
89.8534
16.588
-50.1586
-47.4348
35.3263
108.828
32.8014
9.53838
111.767
81.232
-58.4961
-78.0377
-28.787
3.787
128.401
245.688
107.756
9.06932
-121.267
-269.406
-241.728
-142.531
-72.5918
2.72656
80.2589
149.76
267.922
185.987
-112.929
-196.304
-100.847
-45.8308
15.0583
52.2294
48.8036
-85.4601
-149.078
-36.3087
47.6099
70.0141
118.927
84.3558
48.7399
9.3422
-46.5396
-118.501
-198.08
-160.099
-17.0297
40.4315
48.6111
86.1435
68.5393
63.9202
71.9303
87.3417
113.368
128.349
82.4647
37.2923
-14.0391
-18.1972
-44.6365
-45.7492
-91.7815
-45.9084
-40.2664
-81.948
-85.7984
-47.2272
2.8432
-2.98584
-55.3827
-32.9431
10.5029
59.4692
93.0858
34.4777
-13.5384
-15.4456
-25.5749
-40.3092
-14.3787
-13.4425
37.8753
30.2813
57.9942
-12.9515
-17.6682
12.3644
43.1273
64.7129
56.2121
5.65136
-31.4951
-85.7485
-47.7635
-31.2083
1.28353
3.96437
-16.6589
18.0165
92.8676
78.765
-32.7246
-90.8098
-64.091
-9.8519
-58.9586
-82.6484
4.22964
9.9471
-69.6947
-72.28
22.2488
102.82
105.483
74.1377
5.28909
-18.0567
-13.5149
-19.0906
-92.0149
-47.6191
66.8738
55.5283
67.6795
149.698
112.682
50.8122
-26.6657
79.7458
177.751
56.5832
-50.2029
-56.5485
-96.6983
-122.873
-70.432
-21.663
-23.3236
-43.7426
-36.7973
-66.5728
-105.394
-89.833
-93.7836
-99.0091
-33.6167
31.0443
20.0843
-72.2843
-76.6896
22.725
45.5443
34.6373
33.8172
12.0423
96.1995
149.528
109.37
39.7578
61.5915
36.3657
5.59495
4.84515
-6.94479
30.9886
77.2786
124.651
73.9093
-17.7143
-31.2884
-25.4896
-46.3606
-46.7892
-59.5142
-68.6984
-77.784
-56.3148
-11.3907
20.2343
-24.4821
-25.625
-44.8216
19.3836
33.7009
-4.32961
-55.1775
-101.066
-30.5117
17.1442
31.8149
0.597579
-39.4979
-97.1913
19.983
146.595
137.388
105.019
49.4446
-3.81924
-36.7026
-16.9836
21.072
-34.1276
-75.0556
-51.8898
14.5337
56.4737
74.9048
75.8585
83.1688
83.6242
36.1675
-73.3469
-263.351
-367.994
-151.528
-21.6395
15.893
134.148
178.659
24.7369
-152.012
-108.55
23.5796
158.278
206.729
229.02
85.3662
-34.7681
-44.9643
-9.63771
-16.4536
-2.72096
64.5272
71.8939
-77.6922
-115.357
85.4212
122.904
55.4396
57.1316
0.355296
-39.0352
-8.06763
-112
-198.145
-262.285
-214.231
-130.237
-135.716
-140.236
-34.5646
107.5
207.24
196.103
130.134
75.8691
12.7807
-26.8691
-28.4771
43.8435
123.01
141.203
63.4541
-33.0079
-46.6719
-60.3347
-68.5922
-26.4748
5.12903
34.243
104.462
177.925
49.0352
-23.3688
-75.613
-73.1516
-49.4851
-12.1053
52.4177
95.2697
79.2228
-45.2393
-182.421
-225.01
-91.6221
24.7457
20.2576
61.9656
91.322
95.9608
15.2785
-143.398
-114.33
-43.5903
-22.6198
53.9148
20.2478
-103.49
-166.574
-98.0371
-30.8234
11.43
53.4145
72.8853
-111.79
-119.895
81.2204
90.4033
117.784
341.776
531.311
362.419
96.9901
-30.278
-66.7738
-57.6772
-17.2594
-56.0653
-48.9488
-87.7257
-44.2265
-24.7259
-37.3994
-49.6312
-56.7569
-102.421
-218.518
-214.324
-221.736
-363.504
-441.361
-223.685
13.7674
106.363
122.681
188.93
228.677
186.585
160.167
95.9686
71.4076
43.4532
59.7512
125.374
168.978
227.243
120.7
7.92716
-48.3111
-79.5417
-97.4534
-15.0249
31.7939
13.9372
-20.0614
-130.422
-211.905
-112.305
-33.8225
61.0349
86.0694
80.2946
74.0838
36.2808
5.54065
-23.6259
-55.549
-6.16995
38.6463
41.2342
-86.1093
-302.687
-222.181
-45.7928
125.887
117.896
92.8197
145.429
48.6129
-68.5012
-158.495
-134.425
-37.1614
107.222
229.846
166.023
103.139
3.11782
-7.75266
-51.7101
-12.6476
61.1939
14.9265
-68.6908
-142.917
-196.961
-219.48
-171.974
1.55288
194.372
305.655
215.301
13.4321
-92.5844
-133.921
-64.8754
44.4329
92.4744
44.5033
-23.9513
-74.6263
-5.23098
5.89635
-53.5348
-12.1106
65.3788
61.0596
-35.5026
-116.084
-71.424
15.2516
-42.9145
-21.9991
46.4558
102.779
61.8275
-2.58015
-41.7512
-67.7871
-28.1392
9.79047
34.3945
58.979
105.227
48.693
-13.5356
-11.8943
51.788
59.2132
-66.5128
-108.432
-50.2645
63.8861
110.41
8.44664
-54.6822
-27.213
-34.0469
-18.1829
20.0472
8.51729
-51.8407
-94.7818
-63.8661
8.30064
61.7337
23.7895
-31.9263
-4.24069
11.2021
-48.6104
43.2041
158.024
195.523
109.739
-8.06474
-43.5926
-98.671
-154.495
-113.932
-41.9078
63.1346
88.3041
54.6656
-42.6293
-144.851
-254.936
-110.592
17.1744
63.0571
74.8919
3.33783
-74.952
-34.4234
38.2825
77.9598
43.77
62.7872
130.357
60.9998
81.5154
101.146
71.5484
26.6839
87.5483
96.5105
94.5837
18.3254
-134.92
-184.507
-89.7245
7.53914
-38.6832
-130.826
-123.522
-87.8628
-26.6948
4.6021
0.194423
-4.77249
-6.40227
-30.8475
-71.001
-64.4675
-44.4864
-50.477
-18.0031
-16.9986
123.397
169.906
90.2492
95.1001
68.7398
74.9906
170.476
148.103
-0.0199408
-38.2702
-53.0939
4.30963
-16.5013
-47.3452
-20.7204
-8.96535
-60.195
-24.1278
-8.9006
-45.3082
-89.0573
-80.4255
-53.1775
-27.8902
-6.89209
26.332
25.4256
-44.0117
-35.1286
-23.2769
-15.6365
-51.0304
-85.341
-60.3826
-8.25003
-34.8369
-7.11642
185.091
320.733
173.411
46.3573
41.5564
-10.9679
-6.33253
-8.12762
-91.7118
-136.52
-101.047
-59.267
-9.713
29.7656
63.1034
105.247
81.1497
30.8782
21.4878
28.9785
-64.9531
-129.482
-58.4144
-115.756
-147.9
10.6075
35.5116
-48.2037
-67.8032
-76.1754
-29.1615
135.478
203.911
157.569
153.211
126.003
45.7955
-70.0623
-90.1316
-94.3574
-208.673
-120.504
15.5074
171.439
251.855
158.083
-3.10605
-26.9914
-30.614
-67.8426
-45.6051
-87.0129
-120.279
-115.749
-135.194
-124.134
-27.851
74.5889
126.871
90.9553
25.6914
-45.3272
-11.6126
-4.80362
-30.0873
25.5725
-33.3485
5.29605
22.4656
38.8638
73.8816
74.4652
66.1833
56.8516
-8.60212
-2.83303
5.85167
-28.279
-11.9058
33.7912
85.9334
46.823
-60.9007
-180.202
-221.558
-186.987
-29.7843
16.7488
17.7569
114.951
186.84
133.085
12.7246
-16.3536
-21.0692
-36.0483
-70.4918
-87.3587
-5.80987
31.7774
66.9206
124.647
197.613
215.619
94.3519
-93.438
-145.889
-8.55622
-51.6248
-261.627
-303.851
-171.255
-39.2857
-18.3486
-25.6973
112.308
243.845
117.775
-17.5917
14.4929
44.1728
31.7039
-12.3397
44.6438
69.432
113.037
103.366
-22.9391
-81.7825
-75.159
-92.6117
-163.462
-229.735
-61.5435
100.992
68.5015
50.6626
213.15
264.989
99.7289
-39.0021
-32.8569
-44.0323
-109.118
-129.342
-94.6084
-11.7009
-1.43993
16.9481
29.6565
70.9797
100.361
100.241
43.6087
-9.25902
-90.6778
-158.457
-174.142
-164.173
-62.0852
31.0395
-11
-75.6013
-62.1462
15.4378
28.9629
30.0557
50.5931
97.3167
148.963
99.1905
58.5997
96.4303
71.4734
98.664
86.9118
40.0973
-9.70652
-136.846
-228.973
-189.822
-153.963
17.5023
120.666
153.803
70.9167
46.0126
20.87
-79.7843
-60.5378
28.7836
66.607
71.2188
-1.10544
-73.6516
-96.3582
-105.74
-68.8827
12.5369
93.9407
107.428
99.2504
41.2005
-28.8632
-123.571
-115.136
-52.335
-5.82729
61.2515
98.136
55.4721
84.4506
65.4717
-36.3091
-84.6074
-105.905
-100.551
16.8459
64.1629
-12.1402
-18.9313
8.07441
-59.2511
-90.7534
-166.575
-314.5
-142.378
15.6316
61.5884
145.92
309.279
310.322
160.896
54.9588
-6.0048
-0.548598
54.3986
63.9852
63.2953
55.8956
-36.1729
-88.9715
-72.6245
-36.1947
28.5343
173.647
83.1298
-5.29888
-23.4111
-125.936
-253.784
-262.045
-128.551
21.7388
20.1622
7.26115
-73.5252
-245.042
-236.985
-67.5983
99.9128
160.562
182.065
179.901
179.66
145.114
39.8249
30.0497
94.7814
76.0152
-31.3727
-122.306
-173.605
-210.202
-93.3709
52.1841
176.35
219.121
138.736
21.0269
11.2646
3.52195
-23.8377
-38.8718
18.1947
36.0477
-18.7365
-84.204
-126.847
-121.324
-114.991
-68.4181
29.5218
132.409
146.132
23.3121
-92.3159
-98.0391
-57.2095
-69.9096
-128.22
-136.932
-77.2762
20.9501
62.0676
130.084
125.214
58.2551
59.9634
90.572
52.1214
-3.3362
57.4574
26.4623
-3.55072
-22.0566
-43.8387
-8.98284
45.9013
61.2537
60.1578
-4.64653
-34.4071
-58.381
-46.4221
-50.1696
-59.6957
13.6764
69.7226
64.3742
22.7913
-8.73712
-60.9795
-44.139
-70.2034
-118.541
-65.8453
6.51009
29.4835
59.6053
49.7432
20.0716
-30.8133
-30.2756
-41.735
20.754
96.5978
73.7894
-2.40479
-71.7434
-61.3369
-10.1909
-20.6877
-6.01537
107.85
194.83
157.216
67.8196
-24.2044
-73.8166
-96.5508
-160.52
-85.102
28.3899
127.127
103.413
-2.90751
-77.6284
-126.879
-104.494
-29.2916
-46.6392
-0.841663
-14.5565
-80.6666
-38.7657
-51.1542
-112.127
-6.18089
39.6969
78.5693
196.443
188.303
120.65
44.4427
-24.8661
43.8765
25.914
32.6489
48.4681
-0.585076
-12.3713
-47.6434
-43.0601
-69.9709
-37.3604
113.776
184.635
93.819
3.69064
-101.852
-168.023
-276.911
-251.778
-141.013
-106.252
-166.405
-89.1798
17.0263
73.307
114.699
175.696
240.72
222.606
110.246
47.4696
9.83238
0.143383
3.06096
15.6981
26.4241
109.099
101.158
-11.734
-70.8216
-121.847
-116.976
-52.3746
-30.9436
20.9354
16.0995
-27.22
-75.3142
-91.1451
-16.8469
47.6135
36.5998
4.30368
-62.1782
-105.054
-54.3164
-26.3348
57.6976
69.7467
-10.5878
25.0345
123.228
5.38445
-85.6155
-42.8837
-2.35356
30.9834
57.247
78.3579
31.253
-43.8423
-21.4772
-20.3269
-7.88888
12.1843
-33.3554
3.84128
53.7834
44.166
33.5005
-57.4389
-111.533
-1.27106
69.4918
44.4828
80.1651
59.4655
38.7076
89.7879
83.372
-7.50052
-109.834
-91.8527
-50.6397
-24.8541
-21.4877
-71.5213
-57.933
-32.5948
1.67427
34.0012
-7.45645
-54.5287
-48.0186
-23.7496
18.4218
20.8157
21.7881
11.0447
-8.46544
1.84001
28.9502
15.5839
-28.0232
47.5629
59.4624
-18.7549
-83.2746
-57.1438
-14.1979
40.7074
90.8852
58.1765
74.7324
132.192
14.611
-68.6569
-86.6264
-21.823
-41.3518
-105.67
-104.255
-20.6993
62.7475
94.7298
57.9016
64.4714
80.209
48.9318
14.7717
-34.8826
-113.558
-88.2054
-45.9196
-29.7386
-36.5669
15.5259
68.3948
8.58378
-13.1298
120.138
127.629
65.2964
6.28184
-8.64478
-18.6754
-43.5988
-48.9151
-52.8182
-77.238
-43.8472
-64.3363
-29.9237
15.4637
28.4684
45.8124
18.8863
5.6524
34.1317
19.7201
-68.2225
-98.63
-89.6037
-53.2673
-73.9215
-99.4014
19.0047
96.8689
96.5628
72.2119
68.8701
124.965
110.833
45.0264
-19.613
-49.1004
-4.84478
-44.881
-81.0431
-33.3418
-10.061
-14.9984
6.64486
65.003
128.084
129.654
61.2614
25.0306
-7.48961
-24.2191
-40.0127
-107.102
-75.2721
-66.4316
-92.576
-93.9264
-83.5975
-78.4292
-84.3908
35.6935
147.124
154.929
118.191
89.8957
44.564
-6.43096
-72.7065
-93.0406
-35.9169
-105.189
-90.1128
60.9429
2.05327
-112.799
-161.066
-55.1355
51.182
127.231
249.32
264.308
186.116
85.1013
-49.2779
-127.826
-128.303
-70.9864
-5.28595
13.6457
66.9532
130.934
63.7071
-27.7844
-158.194
-165.607
-68.2182
2.68297
30.9984
-2.93927
-56.5862
-91.7493
-105.057
-43.2658
5.52996
19.851
55.196
53.0356
29.8195
-1.17769
-57.2992
-55.8122
22.8948
37.0238
127.064
210.391
145.978
9.67926
-95.8659
-86.2764
-31.8613
-20.2185
-53.166
-45.5615
20.7577
53.2533
28.0906
-25.1344
-50.2328
-4.83801
-36.1115
-11.6757
-11.1369
-28.0309
6.03112
60.4438
83.7011
103.641
55.5608
30.7864
-24.612
-78.866
-56.5812
-61.0787
-97.3487
-25.1942
19.3322
54.7617
52.0872
-0.689072
-28.8063
-4.22802
-0.769821
-49.9307
-38.3657
19.773
33.3061
-3.52874
16.6309
25.2006
-29.3447
-47.9246
-9.12443
-2.17926
77.8492
58.0596
-1.27648
26.9828
29.9173
18.782
20.803
-28.3542
-29.153
-21.195
-4.52601
-35.3408
-32.7177
-30.5879
3.16067
24.8004
40.0765
-14.6444
-84.6273
-110.646
-98.2254
18.2773
135.489
157.443
168.017
106.092
-56.6426
-168.122
-122.067
-148.504
-117.415
34.34
140.002
124.04
59.8288
37.2807
85.1891
90.5205
37.7528
20.1761
36.5743
-42.6478
-106.107
-165.77
-189.297
-100.856
59.8624
148.764
86.7682
144.578
91.1619
-50.9375
-69.0052
-54.3491
-96.0253
-100.848
-114.282
-111.193
0.0229821
62.9089
6.05625
-12.5475
36.5578
52.4113
-15.5412
-56.3633
-4.10243
71.1146
120.513
93.2284
37.1342
18.9858
28.7141
36.5305
48.7475
3.06905
-31.8679
-40.9561
-19.7718
22.7529
12.8747
-35.531
-95.6869
-56.2938
72.6111
81.7723
14.814
-16.353
-33.088
-52.01
-38.9883
-46.8455
-46.498
-41.9247
21.8777
71.988
69.2749
85.6749
19.9965
-18.8702
-14.499
-17.4809
-58.5436
-54.1869
-16.176
7.69557
-23.4674
2.31619
-15.5774
-36.7613
-9.47318
-51.8562
-41.9332
1.02261
1.36947
16.7209
3.57378
39.3244
31.7441
54.4162
94.6251
88.5653
83.1849
41.9597
-20.1325
16.3996
68.6765
57.2195
27.0549
29.954
-2.94834
-50.5071
-222.146
-214.982
0.558451
41.6511
-11.0491
-33.0014
-18.1287
-30.921
-56.941
7.51936
-4.03938
-4.1443
-27.4842
-69.3551
-45.9249
-14.2097
1.76365
17.8896
77.2438
148.125
212.13
171.137
12.4224
-51.6247
-37.6952
-59.8637
-37.3563
28.3756
58.0127
2.41252
-4.54778
8.97883
8.144
-57.0779
-124.777
-128.5
-49.1861
-18.7286
-49.4202
-17.9934
51.4331
61.4857
14.6538
-27.1237
17.3883
65.8683
62.8446
23.6104
0.923567
-16.6634
-3.49624
-21.2516
2.91333
16.7189
50.3597
36.7062
-15.2472
-3.64732
-0.270444
-28.7391
8.45105
20.7842
-46.4409
-17.594
15.5594
6.89087
-16.0982
-11.97
-2.21532
-45.6308
-11.9734
-2.46909
-48.7657
-33.3579
28.1975
33.1752
-1.67033
-1.18159
54.6782
119.766
77.3381
33.859
18.1548
-24.8627
-44.1068
-0.384489
-0.874668
-145.108
-146.285
-33.0044
-54.3792
-89.2325
-14.912
47.7089
48.5874
11.3465
29.4915
48.9888
59.7118
58.6228
4.44662
-10.631
69.941
71.4326
24.4753
-27.5225
-18.2068
46.1157
38.0857
-0.048075
2.84442
62.0967
40.2193
14.1756
0.56766
-37.5672
-71.5537
-80.6292
-120.975
-130.513
-36.2727
-9.95159
-36.0643
-26.4844
-19.518
28.0003
57.7999
57.2475
55.7381
46.7702
42.035
-0.712567
-36.6696
-32.0596
-15.1353
1.73313
73.8209
49.4025
4.30758
-37.8753
-40.8778
-27.8776
-40.6985
-41.7687
-34.5293
-45.4918
-14.3321
48.87
76.9123
45.8005
21.057
26.4926
101.267
79.5408
40.7576
49.7674
-5.98456
-23.0777
-1.07558
2.97905
-19.2254
-31.3897
-22.9344
-0.425793
-21.5272
-57.2143
-48.5772
-40.8525
-64.1294
13.0683
46.8767
20.6933
-40.6991
-78.8897
-65.0971
-47.1768
-50.01
-0.662328
63.3064
73.8152
26.3563
-25.802
-24.4432
6.22445
3.92079
18.2391
36.954
103.696
106.789
32.1531
-42.4811
-37.0215
-55.0318
-73.2163
-48.1272
16.0472
80.881
65.5291
-45.1854
-78.161
-14.1931
44.3217
12.7649
-63.7532
-38.2894
73.4191
95.3824
40.7651
6.01486
-5.22491
27.6437
85.0552
85.0102
78.5101
50.1401
23.8488
-16.1931
-36.9063
-49.9618
-163.844
-230.403
-113.393
-3.08312
75.4213
79.8486
11.988
-57.3833
-93.5262
-109.353
-101.5
-61.0672
-33.4268
12.2232
64.6961
80.5845
14.3924
0.679477
94.7845
115.384
170.596
177.072
110.008
1.26812
-135.857
-155.752
-90.2685
-93.7849
-93.2447
0.576156
61.7162
58.4786
13.8342
28.4593
75.7149
57.0453
58.8287
7.4808
-78.5616
-54.3675
-43.5871
-37.1694
25.0097
69.5875
67.2205
47.8456
-6.56993
-14.8066
-33.3677
-37.8522
-51.2038
-3.14232
50.1037
53.1896
26.2578
41.9315
37.9882
-6.1586
-64.5908
-77.8561
-18.8969
7.7564
-78.6898
-85.029
-11.6642
-2.39205
-64.8815
-83.2746
-35.2722
41.2543
50.9386
44.5986
40.7909
47.6342
39.5852
-40.9809
-62.3336
-10.5136
-16.7238
10.8738
62.5037
-7.38278
-87.4822
-68.098
-19.7192
40.3432
97.6975
141.611
165.363
105.907
-12.6497
-78.1846
-44.9885
13.7487
-51.5156
-120.57
-91.3222
-12.3907
54.7929
60.5489
27.8538
38.3293
90.4168
93.4742
48.9433
25.5818
-1.37977
-8.83328
2.73072
-64.6002
-106.421
-66.7044
-48.2449
-91.3047
-53.5615
36.0116
32.535
-33.745
-16.5835
-26.4076
-17.4212
-13.427
-12.8367
-15.185
-3.6246
-42.972
-44.6944
3.73431
42.6262
61.9018
111.395
90.5376
-3.4647
-21.0299
48.6581
38.5891
8.34881
1.56332
-8.83598
-36.4731
-113.556
-118.998
-76.1736
-39.9026
25.2869
82.7143
127.539
98.984
-1.04117
-28.0418
-21.6135
-39.6517
-12.0885
37.7018
40.1125
114.143
128.999
60.7427
6.92094
-15.3639
-16.9569
-12.0911
24.3918
-2.41371
-33.9594
-55.1845
-75.2908
-48.8734
-43.494
-108.513
-80.8069
-35.7244
-53.4131
-131.646
-118.335
-76.3723
-40.7433
29.0664
71.6272
59.6549
82.146
134.736
128.888
117.057
57.8649
39.8046
26.2658
31.0224
63.6476
86.0096
49.4809
17.8846
-47.9698
-49.8825
-33.402
-20.3448
7.52274
-31.0303
-54.1713
-39.2021
-99.1833
-251.034
-269.546
-184.31
-20.5417
98.3603
111.711
42.7897
45.031
115.648
161.325
188.795
222.129
99.5233
-11.557
-31.3193
-33.051
-21.7857
-25.4455
-22.4665
30.4379
114.4
62.3881
3.94458
-52.9835
-104.364
-103.348
-59.5664
-88.5313
-155.337
-110.515
-122.226
-132.19
-93.3927
-79.0458
-44.1799
42.8662
140.404
203.672
205.254
147.827
82.1629
-14.0659
-63.2652
-77.5459
-113.538
-65.2353
53.0816
85.338
77.229
20.1487
-17.9105
-9.72447
43.5059
49.5493
31.5238
6.47013
-36.476
-49.2009
-24.3181
-0.282264
28.9919
35.1521
37.439
21.9384
18.1556
-56.9861
-91.2577
-36.7079
19.9263
17.053
29.2506
-1.7936
-4.20101
10.9588
-19.5933
-42.6217
-48.2538
-137.014
-153.526
-30.5492
70.2216
136.381
148.22
120.37
92.9814
48.0297
-1.3866
-46.6961
-47.8075
-27.3203
-5.06477
33.2106
9.97864
-44.7677
-10.6949
-39.6233
5.80805
34.0723
33.228
-42.8151
-170.371
-225.663
-114.816
-65.7492
-7.9174
33.6587
40.5756
78.5979
73.3263
52.2417
62.5226
56.7669
50.9598
59.0232
36.2082
58.4659
14.1716
17.9862
14.2156
-29.6342
48.8452
93.1299
47.2986
43.3663
-22.7486
-34.717
-104.465
-112.924
-45.7963
-17.1827
23.2159
4.99629
-29.1655
-47.1125
-123.759
-107.921
-67.2659
-63.3732
13.6164
42.2859
41.7372
65.6945
68.9944
79.9356
74.3086
23.1817
15.0145
12.1816
47.238
45.3061
16.8104
54.6268
96.8984
73.2091
4.65739
-53.7974
-56.755
-85.9907
-139.322
-166.75
-154.271
-115.498
-99.7367
-46.198
23.2376
68.7838
176.863
198.542
120.667
84.9541
-13.3506
-93.1686
-31.6728
-0.517422
15.8155
12.9589
-10.7584
36.4508
42.7
57.6075
88.2006
69.3218
9.80005
-79.8127
-89.4741
-22.697
-37.326
-80.5402
-63.5683
-45.4693
-27.3937
-20.8346
-71.0904
-71.2615
-7.17569
56.6648
28.6705
26.8984
67.8897
89.4027
62.4446
36.2461
0.469554
-5.18811
-35.3155
-106.484
-105.73
-48.0468
-24.1502
12.8069
53.7213
91.9299
139.947
153.611
89.1874
39.6534
34.4879
-7.40833
-49.2398
-96.3532
-124.622
-43.8283
-60.9258
-24.9714
63.7747
57.4425
0.737787
-75.3757
-79.0553
-66.2909
-95.0373
-63.0531
-36.0797
-22.6577
-30.9551
-39.639
6.41327
71.5173
69.7827
130.212
150.589
131.257
100.334
34.2065
-15.6532
-0.122083
-20.5205
-47.1948
-46.7178
-65.4485
27.0753
64.2818
40.4627
3.18379
-4.14289
-27.0864
-58.0777
-53.7589
-20.1554
-27.8516
-35.4566
-71.6378
-43.1824
-40.8441
-85.0121
-58.6122
31.6716
87.666
116.697
137.296
95.187
33.5623
-36.7043
-19.1378
40.3232
-12.0013
-62.0078
-76.7026
-99.0324
-107.906
-51.6553
-23.6359
18.408
94.0314
94.3435
27.4753
-43.3393
-40.904
-31.8971
-27.7185
-56.0575
-30.2098
-24.1833
-9.31179
9.97422
41.7156
54.3028
61.2374
82.3835
95.5746
65.1844
65.1116
27.532
-19.8736
1.88571
44.5333
58.7312
50.824
-11.0656
-1.45429
2.71535
-33.9689
-7.3457
4.08011
-28.2362
-26.4185
-46.8708
-49.6588
-56.5974
-62.2748
-70.4296
-84.9153
-39.1903
-7.35087
0.269164
43.5481
43.0374
5.73186
-37.4158
-101.778
-158.947
-148.301
-68.0539
21.68
121.185
146.776
133.656
97.1388
67.9052
68.548
55.0423
22.713
21.2842
-47.8443
-61.8501
-14.1378
23.5859
-7.5103
-70.1583
-6.46325
9.26124
31.9797
1.36094
-42.4248
-39.6088
-51.2756
4.52809
29.1272
-18.5389
-4.16166
107.017
140.925
119.243
135.909
81.8982
-45.2282
-112.509
-83.6135
-78.5482
-27.1847
19.1759
22.2432
25.33
-1.52207
-69.6136
-94.3334
-105.906
-64.7533
-13.4414
8.05071
-25.9763
-43.9532
-74.1486
-76.3831
-63.9644
-28.7823
2.67631
26.6495
95.5789
63.0532
70.8248
59.6466
31.3198
15.2659
54.0665
82.4867
71.3572
33.1922
28.0884
20.5318
-8.84054
-53.347
-115.355
-93.5967
-3.62024
18.4252
36.9921
38.7405
60.6964
43.6026
16.6917
23.0903
28.9392
6.77059
-40.9847
-51.9381
-76.5361
-55.8707
-10.0362
26.053
46.6097
45.3156
58.4984
-26.978
-206.022
-203.399
-63.5669
97.3963
108.992
31.0785
44.4197
50.4533
32.9105
37.2449
20.463
61.4728
78.2129
1.91742
-44.3077
-84.4771
-156.624
-76.9443
-4.20685
32.4714
122.58
119.159
34.7276
-27.6538
-31.2837
-11.7252
-6.5152
-12.8413
-5.19595
3.89556
-78.9231
-121.587
-78.3062
-16.5582
9.75197
-11.1792
-17.1199
-38.5174
-21.842
65.1876
114.028
126.206
132.638
70.0972
-1.5761
-16.1148
-41.4397
-41.8979
-0.209443
-1.71314
33.3504
-38.7348
-66.3511
-38.4472
-67.2535
-62.8655
-22.2083
-24.1716
-8.37489
7.83322
73.9414
123.692
78.47
20.3939
20.0719
-13.8071
-42.5256
-49.3633
-64.4786
-46.8839
26.0658
123.719
149.006
141.162
111.246
15.1476
-106.273
-157.106
-98.7261
40.7149
-6.12944
-113.715
-174.921
-85.7191
-70.1978
-126.857
-8.87951
66.3981
70.6242
37.5193
-53.5369
-36.4072
-19.625
-15.9653
39.508
84.2818
121.9
154.81
126.656
48.0113
28.4372
21.3755
13.0232
-21.1764
-18.1379
48.6868
51.1962
13.4044
-30.3536
-21.4041
4.90591
-26.0445
-63.7523
-86.0761
-32.5258
2.20251
-9.73672
14.0974
8.61823
-48.8313
-39.0003
-33.706
-81.3006
-51.0763
13.9842
4.20877
-36.7854
-46.6219
-46.0272
-6.18987
40.3131
-3.25747
18.5526
1.72619
-55.9233
-36.0844
49.2681
105.706
97.0003
14.6181
11.5982
24.861
40.6324
2.92838
0.565415
61.8748
41.2234
13.464
106.59
91.3383
49.6892
31.6535
-30.4087
-81.1305
-142.681
-151.048
-15.4536
-25.918
-0.578995
24.9406
-10.0141
13.3322
44.4914
-1.50071
-25.8027
-47.8307
-41.2883
-22.3345
-61.3927
-100.126
-96.0865
-22.89
54.559
138.655
153.948
87.0155
-9.07029
-17.225
-46.1633
-58.159
-20.072
86.6814
83.9986
-10.8283
-38.5204
54.7739
1.07536
-221.355
-193.355
-24.8072
120.114
154.451
106.954
49.6035
32.1741
58.446
38.9728
-8.50298
-25.9561
65.0839
35.8575
-72.8439
-38.625
3.06322
5.30406
-19.0354
26.1694
148.696
54.0155
-104.879
-213.404
-157.531
-81.0339
-70.0563
-78.265
-8.20431
1.21487
-22.0069
-32.4697
-56.1333
-15.3783
1.62338
-25.7156
45.3534
121.065
153.547
163.922
196.847
164.371
127.296
63.767
-64.7422
-108.994
-68.436
-29.9755
-41.8303
-63.4288
-75.0977
-152.353
-168.428
-52.3944
24.8096
31.2092
38.8975
31.2464
-10.7655
-33.6314
-55.7801
-19.1442
48.0917
79.7899
61.6332
61.6184
47.1216
61.8869
40.8171
22.9557
92.1366
106.279
45.108
-53.9438
-86.0485
-78.4028
-140.589
-213.25
-162.489
-63.1599
26.1856
113.004
146.192
111.117
46.6521
0.602774
26.0076
57.1278
74.0322
39.6981
-0.113808
11.8214
-61.1431
-128.537
-107.041
-44.8623
38.36
50.8415
-24.976
-66.4492
-34.5524
-61.5934
-67.6416
-39.0787
-19.8223
15.2029
39.7963
-12.7989
-32.3678
14.1859
23.5625
14.9535
70.0619
179.182
154.396
84.0267
25.3693
12.1768
15.1568
-67.848
-174.658
-58.265
79.01
146.534
118.794
44.5729
-29.5452
-66.2529
-74.5963
-76.1673
-56.3425
0.468795
25.9618
-30.0822
-71.4263
-136.561
-200.854
-99.6498
26.3369
108.601
147.678
67.1373
-17.4008
-47.6214
-21.3472
-7.00315
45.1607
56.9038
43.8643
36.0555
-12.1087
-26.8464
-35.2855
-77.0077
-16.7643
42.4974
98.7246
113.526
90.7182
75.3355
45.5481
-42.2463
-92.732
-78.6544
-26.8429
2.88433
-68.0995
-69.7242
-71.0037
-95.813
-3.26816
56.4255
102.362
113.436
36.8694
28.0772
53.2565
16.5254
-51.1597
-54.0457
22.6589
30.5404
-4.14333
-11.1608
0.686761
-59.7926
-150.276
-167.258
-128.68
-2.91882
34.4458
29.3273
52.5558
75.8364
63.7885
71.8627
69.4956
-4.62645
21.0734
125.322
91.4268
92.5508
79.2956
26.267
-3.82256
-43.8901
-14.5255
56.5995
29.4966
-41.4301
-99.4673
-107.99
-123.151
-127.865
-88.461
-72.8879
-53.9476
21.2234
22.0894
-38.8807
-35.5297
-65.0203
-7.71438
27.3027
2.00497
19.9583
25.6352
-9.03872
15.9603
14.7229
10.0662
72.0973
48.5277
36.9609
40.4824
43.8161
23.6981
4.62669
3.80529
29.079
93.5797
136.078
57.2332
10.5373
-6.33318
4.11922
17.1816
-42.6281
-18.0857
17.7523
-45.1399
-54.5402
-20.1225
-44.391
-53.7412
-20.4206
-0.722681
46.916
10.0918
-67.7649
-104.708
-114.526
-76.9686
-33.2158
7.37369
-8.05044
-16.3248
73.1753
47.0092
41.52
58.8694
-14.537
-21.1293
10.8823
8.60327
24.4315
43.8171
97.4623
81.5708
9.05861
-33.8801
-24.0334
-71.7598
-128.947
-120.822
101.041
243.903
138.679
15.7094
-58.5287
-105.913
-364.198
-346.905
-88.7042
33.0612
71.1031
156.892
141.611
103.198
103.406
113.913
123.217
112.974
116.281
104.427
2.17066
-92.8758
-106.426
-51.1701
-54.5699
-64.6918
111.043
133.898
18.7508
-13.2967
-51.8203
-69.2239
-122.555
-178.474
-75.3692
-39.6464
-73.5618
-39.2434
-29.8108
-6.99143
3.9019
-48.384
-33.5787
-13.7378
14.2458
66.3877
113.835
67.0767
30.3233
14.652
22.1301
-22.4731
-55.4065
-2.04524
-4.64773
-18.881
-33.9468
51.3661
93.3656
84.441
42.3684
8.31886
3.73664
58.1836
47.5935
25.7452
64.3869
87.9547
34.6215
-65.3953
-84.5714
-66.1704
-33.3345
-7.52527
-32.9707
-14.0628
0.544427
-30.3544
-29.0441
-40.4801
-47.9709
10.8329
76.4686
5.55364
-155.115
-91.5365
7.93186
21.3682
3.52076
9.28574
-14.461
-29.2042
-14.6356
5.71304
19.7302
55.538
63.2526
12.1761
-33.2127
-16.1052
51.5208
80.4026
30.4454
-0.526417
122.619
123.24
34.5881
-83.8462
-123.5
-15.1113
38.9126
30.8603
-56.7244
-73.8405
-13.8799
-53.2319
-83.1697
-149.115
-98.8969
85.1744
100.53
54.1281
32.8556
1.71956
-8.66699
-71.3531
-132.369
-1.12638
107.986
60.0902
29.4862
28.5206
95.3341
132.925
48.0137
7.23348
14.5709
61.3823
59.0289
-45.1238
-85.4241
-32.0011
-23.9165
-77.4731
-43.2964
3.32644
33.961
11.6686
-31.5697
-51.5601
-17.7294
-41.503
-47.1259
-37.4681
-6.48846
1.73467
13.9112
28.7021
-4.03518
-22.1937
-96.9759
-100.998
-19.141
95.451
91.7714
56.3047
17.072
-5.91854
1.43518
0.841236
57.0691
90.833
97.7835
-4.15821
-95.4511
-73.58
-35.9208
22.4099
49.8413
7.23821
-7.54007
-32.1744
-64.7974
-25.8499
-18.1581
6.81462
112.712
149.821
97.5345
41.1872
-51.496
-57.7822
-53.9662
-18.8647
17.7528
25.064
13.7132
-14.4761
-23.5396
-40.442
-32.7088
-30.9193
-30.5695
4.89765
38.5534
4.84735
-56.1617
-104.132
-54.6663
6.41844
5.27633
-7.00141
-30.6739
-3.78674
24.992
18.8285
4.42341
36.088
3.99253
-39.0912
-34.1236
-10.9652
1.01878
-19.5445
18.1711
119.208
91.9216
12.0692
-70.0311
-73.5457
-53.2141
-12.8487
68.7231
119.884
98.4998
52.2319
40.8264
6.43399
31.391
50.6471
-0.954851
-19.9111
16.6937
-20.0633
-82.1228
-119.845
-80.1564
-18.5869
-2.5238
-69.9688
-20.8498
92.3541
59.9771
15.474
20.2357
30.3494
31.6443
6.2413
-30.5749
-95.3363
-40.05
-56.5544
-139.714
-46.9585
84.0885
81.6076
4.51147
64.6306
123.661
51.5369
-91.5515
-228.014
-173.233
-63.2069
12.9097
77.2911
161.216
178.255
128.741
105.553
80.8387
65.6607
58.6857
18.5327
-40.7754
-87.8055
-39.9933
-69.0673
-115.289
-45.1723
-19.3005
4.9183
-11.1562
-71.7805
-99.7346
-70.7047
-74.3002
-81.5269
-2.57133
46.5478
36.6003
6.61805
42.8413
71.6914
20.7319
-25.5016
1.58308
32.6204
16.0285
31.5884
113.901
105.612
44.8125
34.0798
3.94177
-54.4814
-72.1963
-78.3014
-103.416
-39.1696
16.4123
18.5826
52.7066
40.2838
-11.6064
-1.4955
22.3558
37.3517
-1.31468
-49.5813
-20.8001
65.7878
64.0594
-0.985093
-15.9664
15.6462
42.6248
49.6866
55.5755
-6.3842
-68.0721
-53.4498
-78.3925
-55.7246
8.21509
38.3513
38.8175
5.25061
11.4182
13.272
-87.609
-101.32
-39.0006
-37.3885
-32.683
-6.28439
-28.1646
-6.19398
35.5937
58.3786
56.0837
81.7263
64.9485
15.5566
-12.5938
-21.4934
-34.0086
-94.3822
-133.022
-56.4583
21.5556
31.9294
22.632
67.7054
95.9077
50.8198
36.1294
8.05237
0.517673
22.6206
48.1494
47.7811
3.61522
-28.679
1.33674
-9.14615
-32.8882
-26.2319
-2.06969
-31.4805
-33.2867
27.6903
103.467
120.516
95.4263
55.9229
-86.0512
-175.004
-304.998
-353.692
-144.672
86.2073
186.042
124.961
53.6531
40.9739
1.00775
-87.1124
-61.305
18.9925
150.901
176.333
52.0092
-16.0301
-26.6631
-25.1273
28.6734
107.888
169.483
184.521
50.7912
-123.636
-155.096
-159.365
-138.42
-108.316
-101.704
58.6374
102.653
86.8418
11.0834
-100.714
-112.725
-67.1856
-73.6969
-69.6215
14.6372
45.0373
109.307
146.444
83.7403
24.0068
-16.2707
25.1847
32.524
6.60151
55.5502
5.47193
-9.56266
2.12134
-37.7983
-94.6152
-26.1586
-6.56003
-14.9643
-11.9685
-15.3269
16.6164
42.9939
55.4873
77.0489
105.025
30.8834
-41.6695
-53.7188
-26.0734
-38.1416
-45.494
-31.8265
-4.03117
-16.7659
-10.7115
-88.7667
-120.033
-73.0651
-44.8219
-34.3845
31.7388
47.4512
-14.8278
-41.5206
-65.1104
0.514795
79.2084
97.5772
65.8896
100.446
140.305
144.158
74.4408
20.6541
-31.6652
-46.9411
-35.5284
17.5674
79.2588
72.5826
2.87716
-28.7417
-23.2205
-74.1551
-98.664
-74.0134
-84.6258
-39.0886
54.2668
16.3767
-37.3069
-74.1699
-66.7088
-25.5607
-1.86604
7.16309
13.22
-17.3838
30.1379
35.0956
-54.0865
-72.4559
-43.4354
2.74782
37.9942
48.8959
78.5518
48.9281
-10.4295
-17.1091
1.31647
37.8043
55.2024
42.8791
34.066
-22.7228
-38.309
-56.1627
-50.2351
20.5769
115.293
177.368
206.537
114.601
-5.19878
-50.5609
-84.2139
-118.981
-95.2689
-84.1469
-75.8633
-64.5805
-55.6266
-58.1446
-37.4522
15.685
18.4402
14.317
-1.52778
-12.6773
-27.1684
-46.7392
-54.0846
-13.89
7.54032
7.89336
70.1908
73.887
-15.9887
-37.3551
6.62917
23.6855
33.0985
35.8619
25.6761
69.4033
109.823
125.8
84.216
0.409071
-99.0155
-128.428
-127.992
-67.5211
20.6828
44.1127
7.92838
4.4938
70.3848
92.7957
56.2798
60.6202
62.6762
46.8667
15.4663
-83.4541
-144.717
-141.752
-146.566
-46.5503
96.9105
106.013
35.6296
-28.0627
-58.6113
-55.7439
-78.505
-70.5075
-16.587
41.0644
57.3318
30.7685
0.863061
-21.9656
-35.1155
11.6108
68.3017
117.745
65.2626
-31.0826
-133.149
-175.134
-105.194
-24.5181
14.5587
112.531
155.475
148.956
89.9942
21.9629
-26.8041
-80.7015
-51.5519
6.97213
32.3299
46.7893
46.1406
22.8058
23.9351
2.63451
17.3936
56.5796
37.1133
1.37749
-30.8972
-44.8994
-21.1953
-41.6238
-90.7653
-61.4435
-65.3688
-89.0434
-156.246
-95.0094
-6.69167
15.1716
-18.2709
18.4331
32.6977
45.7862
97.9115
203.914
162.861
74.1375
20.6365
-47.1065
-102.626
-64.9462
43.4729
41.5646
30.3909
51.7712
64.3607
5.15362
-32.2203
-17.5225
14.5475
-66.547
-128.501
-83.899
-47.2606
-93.7505
-88.1847
-12.4097
67.9911
70.0506
-15.73
-127.382
-116.609
-37.7243
41.2674
94.8524
152.881
102.22
39.6298
-1.88832
12.4892
57.3875
97.2627
83.92
36.8518
-50.5063
-30.7545
-4.47163
-26.9954
-32.3256
3.66923
41.914
-22.4011
-50.4715
-58.0248
-44.5049
-19.1217
51.8446
87.8065
85.1465
95.2793
33.1655
-27.0947
-78.2364
-135.956
-187.718
-166.287
-133.615
-75.5227
-32.7286
14.8398
48.8644
65.8865
71.0478
67.6338
12.679
-10.1912
31.6241
-6.99835
-32.0185
34.0199
103.351
128.157
117.515
69.1262
-7.64409
48.4186
71.3429
34.1147
9.32932
16.1415
-0.055314
-23.4423
-59.9758
13.179
45.0251
-47.9198
-121.607
-93.7812
-40.3308
-154.948
-199.951
-51.2615
37.974
44.2783
62.4845
22.6116
10.9893
-18.6123
-22.9582
39.0457
66.0054
60.9433
40.9678
-12.4538
-24.2476
-8.98991
-43.4903
-8.96778
-3.98185
11.3247
42.3033
0.686426
-29.445
-9.72981
68.9906
107.223
71.1349
54.9525
65.5528
83.6469
45.9457
-99.7372
-187.513
-112.288
-66.304
-25.8628
-13.4823
-28.581
-20.7446
-38.6926
-54.2994
15.6248
50.7496
53.6617
72.139
43.7943
19.2086
16.4913
11.2314
-22.4155
-35.9279
67.925
89.3417
10.4907
1.09798
-3.99522
-7.60341
-5.13826
-32.2984
-56.0645
18.1603
-28.4456
-47.0878
14.8008
25.0412
3.27333
-1.77102
-71.2696
-93.0166
-120.776
-129.278
-31.7907
67.7303
49.371
44.0945
46.8858
35.8975
21.1934
45.714
62.7122
87.8825
42.7828
-16.3833
15.2526
51.3293
32.9421
54.1943
92.5902
73.7678
37.6322
9.65123
-39.2277
-46.6577
-100.976
-29.0682
9.72848
-31.7458
-82.3392
-78.9761
-44.2765
-81.2064
-84.5124
-75.1219
-49.8457
6.13632
5.6541
-48.6014
-35.9088
-1.80843
21.7639
49.1129
41.145
53.2709
68.755
23.8659
-6.22503
-26.8426
-86.0092
-60.9573
34.7703
89.7978
120.21
183.658
170.569
84.6668
12.0071
-27.9471
7.81789
-0.780442
-87.5494
-95.5012
-55.581
-70.0451
-35.27
-50.4751
-48.6466
22.7304
85.9106
82.5856
24.6551
-57.2791
-99.8458
-80.1058
-84.7674
-46.7031
-27.0165
3.19046
22.2721
7.39516
48.4421
74.0545
52.9718
2.57621
-57.5872
14.7183
91.3975
72.3734
97.9342
57.6499
-57.143
-145.362
-143.076
-99.0917
-8.03675
77.742
153.203
126.026
26.2792
-39.0465
-25.683
-16.9639
10.1988
15.1119
0.609669
-73.3153
-113.028
-78.3904
-49.6279
-18.7673
112.148
160.169
120.088
32.6377
-48.5467
-114.419
-148.738
-90.939
-19.5581
39.4557
51.183
-23.4944
-64.99
18.4276
66.2545
15.113
34.3014
106.217
68.2929
3.95417
-55.1906
-53.6668
-22.0292
9.88671
54.5811
85.7225
119.796
34.2498
-58.2062
-90.3234
-77.1709
-13.7714
-40.8352
-91.0086
-17.1784
26.167
-23.0597
-48.1321
-15.8997
20.8324
37.7514
53.2325
86.7882
50.3991
-61.6791
-133.306
-107.047
-14.6813
40.206
12.6272
25.7772
118.973
123.195
90.5882
29.0327
-10.6792
-47.2149
-78.2036
-45.0186
-4.33498
61.6206
137.217
109.58
31.041
-78.4966
-82.1564
-79.8844
-105.108
-119.32
-32.9461
62.9804
43.6394
46.3566
36.2585
11.4002
-33.281
-59.5424
-55.0947
-37.3728
30.8271
-20.4146
-84.0495
-112.765
-98.1991
21.971
50.6612
18.9085
135.858
172.083
120.763
26.5022
-19.6245
-28.2197
-38.0211
-24.8697
35.5552
54.7629
54.6106
26.3675
-37.0513
-61.7264
-76.5677
-29.4845
45.4456
54.6121
31.1614
9.18831
-40.7586
-35.7326
-54.5812
-56.708
-53.6323
-41.9192
-23.9743
-16.6035
13.694
68.7498
93.8844
72.2994
13.046
26.9898
40.3581
2.3147
-30.9271
-20.3448
-12.1775
4.50025
-22.4604
-37.4692
9.72698
-18.2009
-27.341
-21.5584
-14.1984
-16.7405
-34.5314
-61.0198
-82.0656
-19.0308
6.52575
16.2292
31.1153
40.2485
26.833
16.2999
9.96843
54.1844
63.6065
65.9332
40.0147
30.8596
28.2474
2.92757
-7.45121
19.6705
9.39088
-1.66047
-16.7087
-26.9151
10.9186
-16.5206
-48.1069
-45.0592
36.6306
15.7933
4.5139
-24.2922
-49.7671
-49.8498
-53.8661
-39.4098
-9.96281
13.0302
20.4145
-13.3751
-18.4208
-1.35893
-2.41256
-23.529
22.7571
34.1654
23.0498
13.0133
-25.1023
25.2039
46.9701
-9.11813
16.356
61.7425
77.8107
66.1142
-0.686038
-141.652
-181.61
-85.8366
17.4774
28.6471
25.7845
29.9695
22.9167
38.0868
32.5565
14.9947
32.0448
18.5692
-23.5123
4.70345
23.2003
-2.87807
-46.3677
-99.9449
-23.8018
96.5764
122.137
74.5897
13.3456
-1.94236
-20.86
-53.9968
-72.9376
18.0293
47.2541
-26.5019
-124.813
-91.8884
0.159659
-32.5141
-50.3223
-45.9692
-7.85059
94.6106
58.9687
27.1175
46.9985
100.539
136.363
82.6836
-41.844
-108.329
-21.0311
-16.3301
-34.2129
26.4268
97.6679
84.0438
8.23319
11.4442
-59.7168
-80.9247
-45.8196
-37.2254
-47.4407
-56.9769
-48.7138
-124.197
-251.997
-161.923
38.9042
133.465
69.7379
1.50626
79.2913
145.305
110.16
40.9447
11.9288
14.7316
20.5026
-100.354
-173.731
-91.779
29.7742
129.983
144.296
123.129
152.976
115.671
57.8
29.2234
0.269789
-1.25107
-36.8981
-60.3302
-72.2688
-63.1881
-69.7342
-135.611
-35.0524
170.959
177.196
27.1974
-103.511
-94.967
-90.7783
-116.072
-88.3337
-30.4212
-33.3333
-4.41484
-15.593
-41.9233
-43.5671
-33.8767
-32.2992
2.60232
32.3823
66.6121
56.4117
53.7127
78.7277
56.4188
90.9298
37.1385
-6.24976
24.5171
-10.1541
-55.9604
-51.9909
-13.902
23.391
43.7319
16.8604
6.61225
32.4667
33.0664
-10.4545
-48.7548
-114.263
-100.599
-54.6283
34.1307
54.9891
75.4634
56.2778
35.9364
58.2282
56.3605
59.1834
-3.39362
-58.3332
-46.4335
-81.9188
-87.3536
-55.4348
-66.2989
-49.683
10.7826
101.51
91.6334
88.9385
40.6661
-29.5686
-49.4146
-19.4245
-25.7695
-11.6541
-34.5053
-61.4585
-79.9132
-36.1347
-9.59474
8.89774
23.3803
43.1992
86.295
113.783
124.961
70.4617
15.8133
-43.0795
-76.3678
-85.9049
-62.8879
13.4603
1.20986
-17.0415
-21.6741
-10.2352
27.5916
-7.75428
-82.9588
-52.7268
-10.0166
24.5987
29.4973
34.551
39.1781
29.9047
-20.0631
-7.25966
58.0324
104.699
51.0701
-18.2699
-20.9873
-17.4488
-5.01504
-7.88554
-43.6168
10.677
49.4991
33.4588
28.8624
-1.64031
-79.3931
-104.791
-82.32
-29.5607
12.5359
8.07884
-34.4531
-25.8592
-7.9725
-29.76
-23.1892
-30.4795
55.8508
85.2819
69.4738
1.20299
5.1856
19.4718
11.0182
-3.13216
6.79104
59.804
78.0647
46.0418
21.2728
0.978378
-32.3249
-65.5079
-87.0922
-60.5811
-14.6831
2.98174
-34.3627
-25.6797
14.9802
13.8929
-4.37334
48.7593
67.3447
31.8236
-8.37556
-36.0499
-21.5415
-33.5635
-28.7499
-11.1442
13.1695
-48.5989
-85.7731
-44.6623
20.3447
60.3963
68.6911
56.4887
46.5218
31.8
17.8587
-64.1833
-74.844
7.40627
49.9986
32.1182
3.44173
0.394922
61.9326
120.415
105.995
119.64
175.996
56.3377
-88.8995
-103.733
-141.313
-121.451
-136.478
-300.907
-174.118
50.2618
51.7653
-35.8878
-48.7516
28.7514
101.078
103.516
65.8979
-5.42758
-52.9352
-64.7316
-75.8302
-38.459
66.0412
72.8073
43.8529
10.6994
25.0418
144.247
122.211
25.3059
60.6893
46.6575
23.7603
14.0012
-69.9193
-117.515
-111.773
-78.1954
-0.661518
49.8254
82.7761
112.668
109.045
70.0378
-22.6691
-188.535
-201.091
-54.5663
-137.384
-247.278
-68.175
192.408
234.782
69.5079
-7.7604
50.3768
21.5934
-18.5134
-45.4975
-40.4164
-18.0088
-35.0408
-31.1693
53.6475
91.9784
154.17
98.1035
44.3189
100.221
14.0597
-178.669
-197.085
-139.187
-52.595
3.22979
-22.0085
-8.73398
15.6699
62.2569
147.991
122.625
103.021
19.0133
-86.5061
-44.8535
17.316
2.46052
-22.8696
-14.3129
61.9665
64.4379
-55.679
-48.7511
-44.7346
-70.3969
-112.864
-70.7107
-39.561
-35.2613
-42.9945
-44.6931
-70.2749
-47.3156
-0.187308
70.1205
89.9036
104.493
118.927
111.091
169.657
129.379
-10.4152
-79.5609
-11.9408
16.7154
-24.2925
-42.9346
-17.5534
-38.7152
-93.388
-87.0554
-68.3788
-28.2124
-14.3486
-30.0972
13.303
44.3614
-33.761
-46.2208
-27.5416
-12.6026
81.5777
115.116
108.571
100.192
73.9467
18.8231
-6.61417
47.1632
17.518
-45.712
-25.9212
-37.7612
-87.7058
-107.027
-72.9192
-53.7851
-43.7317
-53.8074
16.0978
55.6382
52.5124
48.5657
30.9124
12.3658
37.5484
109.495
74.038
-25.6746
-40.1781
-18.052
-12.8987
-43.0357
-50.4281
-59.8115
-109.441
-30.0243
-27.7273
-55.3751
-75.3198
-71.7539
-43.785
73.531
106.276
121.612
108.051
14.138
3.20248
16.4045
53.7188
101.841
115.699
150.502
97.6951
19.0325
-69.8774
-278.826
-274.102
-73.046
-5.56237
70.8226
63.7167
-20.2225
-66.562
-46.8039
27.58
54.3119
53.7707
-17.5125
-16.9542
-19.835
-52.3492
-97.934
-69.245
20.8657
93.945
156.153
214.144
208.383
148.08
33.4196
-29.9781
-135.295
-181.89
-151.724
-76.1734
-4.85344
-21.6642
-28.2036
-64.8017
-67.9434
-58.5997
-39.318
43.7481
56.0803
33.2647
65.0296
75.1652
-11.0981
-62.1054
-118.485
-113.405
-11.1511
98.1894
116.568
66.7021
-2.21458
-26.3059
-42.3923
45.412
121.448
97.3777
76.7345
44.2908
12.9115
10.0894
33.5494
15.4342
-71.1508
-70.1406
-26.7941
-29.7437
-68.9142
-82.7263
-70.8062
-46.0144
-11.3681
44.9204
128.034
92.1205
-2.79596
-22.5095
-41.4056
-76.2431
-83.8078
-107.123
-118.903
2.88588
78.7245
53.4098
42.8522
49.8993
58.1076
43.3034
18.6909
46.8979
26.4798
20.4259
13.4868
-41.1035
-79.6081
-84.7485
-66.6348
-6.65157
21.2413
64.2686
118.258
77.2475
4.30541
-64.1442
-83.9832
30.8264
82.476
79.1076
50.8317
34.1486
42.1135
-90.4004
-265.824
-189.748
-48.2062
6.8754
42.6186
23.0459
15.1768
36.0112
28.7681
17.8572
72.8704
107.362
134.921
56.2172
11.5536
-25.8108
-92.6016
-180.624
-131.326
-5.68205
103.369
97.3855
9.52947
-5.76205
-11.731
-10.2212
20.7184
16.0589
59.6359
16.1473
-69.6869
-101.045
-50.0872
-27.9073
-47.2167
-58.9841
47.4071
94.884
74.9637
61.4644
73.8093
40.7315
10.1102
-52.1953
-27.674
-9.58669
0.633136
42.4274
36.88
-37.7676
-93.0835
-93.7863
-158.503
-62.0808
45.5566
115.243
82.599
56.7237
22.6761
41.4496
62.8053
3.15736
-77.3657
-138.361
-107.92
-0.465798
20.1634
-0.425636
8.44781
33.1411
-5.18063
-20.0519
36.5635
20.2871
23.3464
33.2507
26.4658
13.7184
-7.17055
54.4139
65.3639
41.3399
65.3188
117.444
60.6452
-33.9625
-114.245
-98.3954
-111.115
-102.883
-22.491
49.6078
62.2372
44.5394
-39.1563
-64.1138
34.5072
97.0181
35.9997
-68.6904
-92.53
-66.0471
-20.2768
-11.7187
-47.9285
3.85468
35.0766
1.44703
-64.1904
-71.2867
-26.8287
-28.824
-106.06
-54.381
17.7463
64.8074
69.1232
56.6625
80.1164
70.8726
66.145
111.627
84.8025
64.7096
52.2444
10.8617
15.4783
20.7845
46.2815
123.822
87.0206
35.7811
-20.0376
-200.421
-260.022
-157.63
-97.9449
-61.5233
-3.18243
31.0604
56.697
39.4801
41.0432
72.6234
67.6959
8.77424
-136.363
-162.973
4.14967
26.1047
25.7704
16.1848
30.3446
77.1504
95.5761
1.72711
-113.654
-73.5919
-54.3753
-105.237
-27.1973
118.187
157.976
79.6409
-13.4534
-33.6873
5.08308
10.4258
-81.1865
-106.834
-88.459
-47.6366
46.8784
123.581
131.252
87.3705
47.1233
-19.6049
-42.5249
-33.7307
-30.2669
-102.967
-107.472
-24.5391
58.6117
63.6395
81.9947
68.2588
52.2339
-5.56487
-22.2403
40.2253
47.3755
-8.53367
-10.7127
-35.7608
-45.695
-37.3029
31.9517
31.7378
-57.4727
-122.339
-150.383
-117.376
-29.2076
6.48489
18.2084
97.3517
83.5682
82.5197
90.2589
67.5821
45.9449
18.6182
3.71344
39.5302
98.2514
68.8079
11.971
24.2168
20.0161
-52.4266
-74.1587
-79.9788
-107.844
-88.3224
-106.407
-142.637
-114.806
-70.316
-15.155
-10.6971
-17.8908
83.0905
130.941
88.1201
14.8437
17.3436
20.3322
27.4776
35.1742
71.9086
58.1852
45.5401
33.195
-3.79097
23.4555
31.8843
15.4567
-7.75267
0.193527
4.56808
-5.32274
-74.7749
-98.1997
-60.2154
-32.265
-45.1467
-13.012
52.0882
49.7419
41.4072
0.696264
-76.9679
-87.1852
-62.5256
10.4888
35.1875
22.6995
8.18156
-20.6215
3.53038
23.1121
-17.9923
-11.7857
32.2441
68.2932
83.1884
71.7858
21.7721
-55.8951
-131.935
-67.9764
45.745
79.8008
71.9116
72.7179
81.868
70.7274
26.4589
24.5387
-13.1443
-43.001
-56.6575
-89.4134
-106.128
-70.3666
-52.0175
-103.947
-63.0268
58.0981
73.5823
62.9082
24.4004
-25.4932
-1.25985
-3.45789
-56.526
-75.1301
-44.443
-13.423
8.75006
26.9615
64.1413
94.0377
65.8958
-24.0837
-55.465
-73.0952
-54.4831
-40.1064
6.10089
23.3526
16.943
25.3988
90.4733
85.6645
72.348
72.3973
61.1247
15.5202
-7.03745
-37.3639
-43.8198
-14.1337
1.85217
23.1023
-20.6843
-31.476
-29.2374
-42.7756
20.0143
53.5275
69.8047
78.5978
4.34677
-31.757
-61.3175
-92.4686
-118.8
-136.886
-50.0971
37.8325
77.4652
-40.5283
-166.611
-100.903
28.1419
81.8239
115.745
140.918
105.388
68.3951
49.3162
13.5176
-42.7715
-72.9689
-18.8922
-29.5368
-14.6533
8.22182
-5.91437
-42.9361
-82.6888
-34.5228
108.627
97.8246
17.8781
-19.1538
-36.5682
-66.465
-52.4461
-55.3004
-0.949561
61.2073
48.3127
25.1043
-13.4526
3.19391
27.7957
49.3967
27.2423
30.9726
25.2878
37.0839
41.421
6.60572
-1.66465
16.2854
-17.4645
-47.6011
-81.3299
-57.6342
-89.8289
-117.299
-83.3848
-35.2621
-22.7208
32.6137
83.4637
99.8289
62.9321
48.7709
42.9275
22.2388
-38.2272
-70.4458
-55.1136
19.9533
71.159
84.7242
47.1856
8.57969
13.1826
-37.9791
-71.3756
-15.2268
-27.7795
-24.6746
-15.2183
-36.2612
-70.2219
-119.761
-28.5374
85.7295
120.235
124.69
160.095
69.7033
-87.9461
-105.951
-51.0887
8.38472
18.922
26.2252
44.5288
12.2669
11.0403
-20.218
-32.69
-57.7826
-11.7491
60.8124
31.6404
-1.7254
-26.8612
-52.1264
-51.8432
-34.9925
1.07309
22.3417
-4.48707
-38.7415
-27.2874
-13.6149
-53.8345
-108.08
-51.3293
60.8046
99.5621
114.086
105.812
82.8584
-32.3453
-133.696
-68.1622
-23.1948
-27.9554
15.5938
62.4053
57.4036
65.1373
51.7828
-2.12892
-1.3027
82.3805
108.26
52.1946
-26.0998
-80.7525
-109.185
-127.38
-116.219
-3.66758
48.5478
0.631072
5.8157
40.295
25.6849
30.5214
7.751
-27.9582
-49.4021
9.77234
7.81732
-12.7287
-4.24552
18.9955
66.757
57.0738
-7.06908
-16.9078
-29.8777
-52.0726
-23.9315
23.878
24.4245
-14.0857
-10.7771
-27.0891
-70.7034
-26.3022
13.7638
8.37326
14.6769
-45.9386
-60.3019
-59.4876
-60.2147
20.3629
101.848
104.676
101.556
44.9575
19.6536
23.1544
-39.4553
-50.3991
1.90876
82.3912
157.058
80.5799
-1.90017
-16.4036
-31.3071
-18.5421
5.26631
1.2262
-37.6192
-68.4867
-54.9656
-94.8398
-112.358
-25.6742
-6.26472
-22.1702
19.6255
28.5354
1.74941
-22.5861
-65.531
-43.2611
52.4829
55.2977
33.2486
27.6718
12.0301
-37.926
-10.9037
-23.1319
-54.7224
-1.16954
42.9709
43.542
41.7443
32.5085
39.095
35.1087
45.271
45.0476
34.2406
56.6929
32.3722
-27.6607
-61.8836
-98.403
-59.9771
7.57594
-21.6457
-31.6775
-8.45721
11.8393
38.6021
17.8756
34.4067
40.9121
43.1909
15.1366
-41.3557
-75.4249
-71.4626
-56.5711
-91.9927
-114.595
4.38518
82.0743
114.569
101.826
59.7877
55.8884
50.9913
10.9513
-7.7255
-26.5669
-73.6015
-121.219
-132.604
-99.2496
-43.8316
-26.4913
19.4843
9.8518
45.5393
108.136
97.4505
82.8376
48.7711
11.6829
38.4656
17.5864
0.370549
10.2748
-26.2017
-103.33
-99.8121
-58.3105
1.49284
57.5188
34.4612
26.9063
91.1599
117.6
96.5703
91.6659
70.735
40.4296
-10.3421
-75.8434
-146.685
-215.636
-278.956
-262.042
-71.347
105.462
119.245
66.1396
25.3932
53.3599
88.2847
67.8926
8.22131
-12.6316
-23.3042
-19.7473
47.9512
52.5347
7.88788
22.1929
19.1684
37.2661
61.4056
44.2168
-12.9096
-28.5425
1.69547
43.2855
15.0556
-35.2821
-3.98061
-3.65958
-26.544
-3.78089
26.6015
32.8325
-73.3059
-141.794
-165.105
-161.21
-65.4061
-18.2244
27.4197
76.4922
69.6473
46.021
-0.555076
-12.7939
73.9157
93.2158
58.3892
-13.1415
-84.0249
-56.2134
-21.8466
-17.6358
-9.00317
45.4938
130.088
123.923
66.5251
31.9306
27.423
-50.9335
-122.566
-62.6485
73.3709
119.419
97.5159
45.5163
-24.593
-21.5325
-27.1044
-69.8647
-102.439
-67.5156
-78.3359
-75.0582
-51.3575
-1.21141
6.33357
29.14
27.8656
100.233
119.949
35.4385
-49.8094
-84.9249
-81.3368
-43.3825
-18.8332
59.909
73.8215
42.2926
-8.86529
-59.9962
1.95992
7.14909
-58.4632
-73.5087
-7.57214
47.0432
61.7951
52.7058
27.9186
13.6123
-13.3297
-20.7654
-17.0265
11.1917
-11.4469
-54.1562
-17.2847
57.3531
102.18
60.6393
-11.0131
4.66345
-4.23718
29.76
-0.758505
-39.7488
-101.253
-45.778
-19.2247
12.6599
-25.8268
-31.7834
-17.8561
-19.9338
13.3908
27.3309
51.7981
-9.22991
-88.0917
-68.5831
-25.7671
-13.0409
12.5744
23.1839
16.5841
80.5656
99.6326
49.3228
56.0198
65.5102
80.5707
61.7263
20.8608
-3.85626
-3.35878
-28.7078
-45.1336
-27.4615
0.420271
-19.875
-35.0459
-67.7285
-12.46
-8.22451
-21.1188
6.0804
21.3916
-55.6704
-71.4495
-93.8368
-117.597
-102.175
-60.6509
-33.0445
6.10708
53.9521
83.9777
85.1011
50.0987
57.4841
115.935
118.93
71.609
35.5852
-16.31
-73.8129
-50.9148
-1.70028
-12.3728
-21.3701
8.99956
30.0905
27.059
-0.276006
-47.8266
-9.19666
-0.47806
-11.4448
19.0883
-6.48363
-63.6864
-46.4246
-53.7319
-29.9377
51.7102
55.3554
29.2752
4.42301
-7.45699
3.98813
17.9632
-4.94907
-1.15516
31.5992
23.3414
5.21619
-2.09464
-22.1703
-12.6114
-10.7889
-14.1706
27.4326
21.8362
14.3296
-16.1705
-55.0606
-70.5321
-83.5298
-19.8803
34.6985
39.5959
46.7597
22.8231
-15.554
-7.09649
-54.3914
-30.0347
26.9286
49.6217
59.1417
53.9415
43.7257
40.2194
-65.0551
-146.041
-63.3478
30.6157
73.7193
49.4894
10.1528
21.1108
48.3486
23.8825
-5.14192
4.59919
13.3063
-3.89591
-11.1964
-13.8825
-23.0835
-35.1014
-70.0245
-97.8364
31.8135
101.983
39.155
11.3822
37.9443
35.7838
-0.429121
-37.5241
-69.3695
-7.07416
-7.63146
-31.201
-47.1438
-84.3467
-69.7726
-23.4381
-22.2259
35.6941
49.213
83.4478
77.3047
63.6704
33.1607
-7.75598
-42.3637
-15.5819
-12.3445
4.48792
11.315
-18.419
-21.4922
-36.6209
-61.7412
-8.12087
17.9635
25.6328
33.48
29.3124
66.9852
52.0655
-1.4442
6.76964
0.778436
-3.74081
-11.9127
-44.7954
-28.0637
-6.89603
-2.02041
-9.91625
31.3851
27.4816
84.0492
56.5817
8.61812
-18.3212
-20.5633
-95.1156
-112.017
-96.7383
19.7732
8.49974
-87.1264
-72.0967
-17.0815
-11.2474
29.4841
69.5943
125.103
134.2
93.6218
58.467
14.7168
-6.9211
-25.5919
-42.6486
-5.0896
3.55132
0.419124
21.3573
-12.6594
-26.4485
-10.2939
22.2915
-3.46264
-104.854
-122.907
-92.3248
-64.7757
-37.0998
-26.9705
-22.2447
5.88689
65.9186
96.5113
81.2573
56.2845
17.0513
-9.70269
7.92967
-25.1905
26.1122
64.0791
24.962
2.06784
26.4628
19.3287
13.4687
-21.5448
-15.7079
-31.9437
-2.07337
10.8654
3.40972
12.9541
6.11042
13.9611
43.1327
-6.38331
-80.7165
-118.948
-107.745
-52.0016
-34.9098
-11.5847
65.2337
25.5133
-40.3926
-36.6716
-19.0207
34.0365
59.0461
62.648
90.5389
76.6723
63.0233
29.4472
13.8143
16.6398
8.49751
-11.4985
-9.57214
8.42561
40.6878
11.389
-20.5571
-11.4274
-2.52218
-22.2084
-62.0907
-75.7825
-22.4986
13.3571
9.05463
18.1352
3.50458
-26.9038
-46.1518
-69.4734
-130.997
-165.584
-72.4619
20.6153
-0.678738
0.619855
53.052
79.728
47.1725
70.0968
79.1423
60.7256
10.9261
41.2941
95.0663
-11.1129
-43.1485
41.0122
63.8266
62.5502
85.5112
105.166
28.0992
-46.9312
-24.3348
32.3768
-5.75871
-120.344
-170.096
-139.664
-70.5947
-34.2975
-34.8687
-44.9161
-30.8039
-12.5607
9.95893
2.13543
-3.22822
-2.3519
22.3858
43.4615
84.2087
53.2879
22.7681
-1.60159
-21.0879
29.4086
74.1253
69.126
78.887
22.8744
-6.76172
-39.0602
-91.2755
-55.6721
-50.7648
-55.5891
25.2763
65.6665
86.619
71.3349
-11.8324
-45.1622
-69.8512
-64.6831
-55.7835
-84.4745
-49.9401
-52.5102
-27.6379
51.8532
70.1971
43.7918
58.3843
110.364
101.455
31.3151
-38.7452
-42.8703
1.52163
21.465
-25.3308
35.8748
48.0349
17.3003
-5.21834
16.6008
7.51667
-27.493
-96.2291
-141.578
-53.9525
18.3421
-11.5939
-38.199
-61.3468
-54.0237
-23.8675
8.49801
-2.869
-7.34133
33.284
26.1911
35.0631
21.231
22.5075
69.6066
64.6029
79.4344
89.5736
97.6178
77.5589
39.2677
-37.8121
-128.372
-140.492
-46.3536
-29.1034
-36.1692
-48.0616
-26.0818
-3.89308
-20.4037
-28.7358
58.9926
148.394
130.863
109.04
55.3433
-19.2504
-47.5861
-73.3296
-108.336
-93.4785
-15.4806
3.40884
-27.2716
-4.74519
-5.30755
13.9289
14.8219
-25.2332
-21.2531
19.3194
-18.8269
-65.974
-61.6704
-35.8463
-12.4187
0.833466
4.17676
-39.1329
-4.98376
35.5571
68.7083
145.027
142.972
54.2768
30.5531
34.9432
26.3734
-10.2046
-77.8401
-75.6547
-31.4808
-23.9613
-10.1451
18.473
38.634
56.4219
32.6178
1.85499
-35.793
-112.158
-191.445
-83.2691
-17.12
62.0165
113.4
81.0204
42.4617
34.5369
22.727
12.934
0.0500227
-21.477
-60.3222
-71.0458
-54.4334
15.712
85.9564
103.801
54.5635
43.2376
46.7921
-0.883489
-9.62222
-31.9591
-90.3851
-117.103
-124.198
-64.5357
-11.7681
21.0116
39.9649
23.7957
37.3738
58.2185
48.6741
-69.0083
-182.074
-102.162
-3.112
62.6408
166.196
150.85
53.6993
-21.1953
-46.1756
-4.15401
44.7442
17.2183
10.5649
5.04384
-12.5194
-27.9548
-32.6443
-22.2952
-26.8951
-7.47245
20.2585
-43.8532
9.96593
75.1746
37.9568
4.75643
-3.33949
17.1955
12.0463
0.572329
21.4427
63.0732
36.1026
-80.9474
-159.415
-104.792
-55.5529
19.3154
32.9796
-1.6853
-14.8258
97.5443
109.331
50.0607
26.7507
4.07733
-26.6552
-41.9107
-52.9722
-73.209
-91.1489
-108.89
-51.7529
35.0484
111.485
125.611
94.7677
17.2269
-22.1856
-32.7502
-44.4079
-132.379
-53.0899
32.6892
35.6009
22.1513
43.4588
3.86639
-14.9632
57.2994
57.9085
59.2839
78.53
102.844
80.6925
24.0888
13.8105
-73.0433
-98.923
-101.538
-21.7245
11.6723
-61.5857
-74.2978
-57.5758
-75.7078
19.3943
96.4161
15.4022
-58.0858
-38.9963
-23.5926
-64.3987
-85.5495
-31.8593
0.151834
8.5629
43.3037
80.9754
119.344
96.1274
27.7623
-9.40832
-29.0787
-32.3321
35.4064
69.9508
51.8827
86.7732
58.4311
34.8679
4.9115
3.36649
-73.2365
-174.942
-141.159
-101.429
-77.3356
-39.9586
2.73578
47.223
132.278
87.0168
22.4991
45.3775
99.3019
66.7866
26.2791
42.2261
51.7862
-36.3489
-70.4255
-77.3949
-76.8254
-131.134
-135.899
-86.6492
-7.01909
52.888
105.352
95.7222
37.2831
14.2201
-10.0721
-57.237
-90.0476
-72.8984
-54.7046
-23.3229
-8.44995
2.9133
-5.73284
-18.7253
70.2185
163.07
130.676
84.4968
47.6983
25.5673
43.6861
23.3334
32.1835
34.1861
8.99818
-5.23748
-95.4971
-234.114
-140.537
-81.5796
-73.9552
43.3615
85.6998
109.124
101.323
83.0119
44.2612
11.0402
-13.3376
-31.9292
-46.9762
-51.0765
-45.6488
-43.6814
6.78816
7.94942
-30.3806
52.9237
69.4896
29.3585
29.6045
-17.0563
-36.4526
-23.2013
-87.6652
-134.618
-38.5081
-20.1335
3.53812
6.48558
-17.5231
-9.52226
-59.6279
-20.5315
115.002
132.385
138.4
86.4152
15.5216
30.998
30.0204
-71.1425
-115.406
-67.4986
-10.4997
31.9026
-1.17222
30.2335
19.0983
-28.7873
-54.6168
13.8546
96.5967
47.3366
-38.1401
-31.8803
6.7144
8.80993
-25.0543
-67.4706
-37.2668
27.4517
52.9063
31.4159
29.5404
34.0351
-7.62313
-69.1985
-67.7927
-6.86829
9.09898
-18.1684
-32.3259
17.3007
55.5478
-13.7331
6.59901
9.37446
-6.30409
28.8031
47.1124
46.9573
21.8468
-47.0864
-0.969065
12.6804
5.31233
19.3908
9.07689
-69.2015
-100.762
-74.7506
4.8898
26.2442
-30.2532
-26.9737
-43.3728
-32.2043
1.89613
13.3238
15.499
88.0877
98.7017
93.5595
50.5628
35.2248
-5.15465
-12.3654
-35.3793
-31.3429
2.87081
-123.767
-145.265
-32.958
40.093
106.637
72.4464
59.2982
72.7344
20.7697
-93.7087
-83.5297
5.56884
17.4753
11.3661
31.8997
48.9958
65.5271
-11.3752
-47.6852
-17.652
76.7252
79.9162
-12.0547
-83.2706
-63.8118
-50.9112
-54.2816
-70.3163
-32.8128
12.947
-48.1056
-90.2525
-43.6733
-1.68006
-17.4415
3.11762
3.47861
59.9
99.9789
37.8407
24.0085
73.2937
45.0591
31.9453
13.9654
14.1544
-2.27751
-18.1388
-34.942
-31.4526
33.7192
86.5703
61.8342
-11.1221
-36.4887
-45.4965
-90.0674
-56.8649
50.1294
59.5151
27.2959
-28.3931
-29.0762
-15.7436
-27.2756
-15.248
33.8542
18.5617
8.52944
17.2262
-3.13599
-28.5071
-57.8438
-55.664
-0.337193
19.1795
42.8784
25.1041
-16.078
3.34847
70.8394
88.7388
91.2745
45.8306
-10.4451
-90.8544
-122.073
-164.986
-149.605
-69.7922
2.06061
13.634
28.4919
52.7105
64.2283
71.0716
59.204
34.4016
4.7709
30.9094
14.7559
-24.5658
-53.7604
-61.652
-23.2906
50.2245
55.6471
72.9219
98.8465
101.097
25.3106
-26.1665
-31.2142
-28.5971
-56.8533
-70.8813
-18.5683
-3.6571
-17.8775
-26.8225
-33.946
-51.3757
-44.747
-7.42457
49.713
76.0735
62.5305
53.7538
22.9119
-64.1743
-92.9614
-45.2956
72.637
86.4613
46.4829
-23.972
-115.842
-142.613
-115.809
-35.2238
12.8439
35.4646
7.76871
8.82062
20.8769
62.3262
77.0891
62.0088
30.0197
8.99034
41.4091
22.9621
-1.4596
-9.56117
-11.1347
13.0114
6.0953
40.8587
110.548
44.6446
-12.3949
-51.0096
-49.3617
-32.1807
-50.4874
-72.9876
-24.5129
-22.2745
-0.205344
18.9659
-14.9508
-46.8543
-95.392
-106.201
-15.1522
49.2617
76.9189
86.0066
35.8429
-3.49393
-22.4471
-9.26194
-21.8957
-31.8973
51.403
75.3134
53.5172
69.9689
18.0281
-4.54803
-2.91466
-16.3268
-28.2336
-3.12859
-29.26
-45.2135
-13.867
-4.32357
-18.8397
-5.04181
-0.141186
10.7836
57.5858
48.1192
-6.79322
-28.0835
-47.4815
-33.0146
-8.0756
30.4874
53.3946
46.8338
17.3782
-15.8661
-37.2226
-28.6649
-30.734
11.8839
-6.69609
-13.3928
-14.9189
-57.6596
-80.5608
-49.7218
-54.718
-14.9293
15.7276
51.4684
79.9116
74.2446
59.5865
57.3884
30.5312
44.9984
25.2636
9.8501
24.2365
-2.31581
-25.15
-46.405
-62.5162
-25.5855
36.3207
32.2517
20.9169
-0.493009
-11.0117
-16.8708
-10.2226
-21.771
-15.212
21.0011
1.80296
-45.7958
-43.6763
-57.2173
-98.6087
-101.186
-76.8024
3.95977
100.983
117.173
80.1489
53.54
38.4192
16.9139
-13.3339
-61.25
-75.755
-38.6819
-6.75826
23.1336
33.3705
58.2479
51.7126
-45.8742
-39.1676
18.1479
37.6992
80.3748
101.625
77.0042
77.337
48.5822
13.9178
-40.7844
-63.6461
-39.0842
-40.694
-74.9707
-63.0716
-75.4469
-61.0273
-12.0755
-33.7128
11.9311
16.169
-11.6105
-14.7528
-50.9043
-34.4486
31.0394
9.80138
7.25844
49.9873
69.2102
-28.5037
-141.276
-54.1258
61.6104
63.8228
38.8759
43.7154
19.6439
15.2762
27.4759
54.6178
74.8375
62.39
15.327
-66.7198
-110.102
-99.6683
-67.1273
-43.364
65.6887
144.982
165.619
78.3772
-20.4378
-67.6475
-92.6091
-100.529
-91.7536
-36.5847
41.4047
46.1073
4.63559
0.309681
-5.1183
-35.3595
-58.6655
11.9641
32.9024
3.71964
-45.5236
-28.6663
-4.45189
-2.02965
19.3148
9.42448
56.9112
79.6295
34.0388
-59.2823
-80.0222
3.43906
117.556
174.547
133.745
49.5971
-86.4047
-172.704
-57.5999
-17.6943
-46.603
-30.1877
83.3181
96.8746
56.0361
30.7712
-9.0404
-15.3065
-29.8952
-23.7219
-3.26306
-82.4146
-182.3
-182.919
-122.369
-28.6626
64.4944
130.672
110.16
82.2349
65.2298
23.4234
-34.0653
-26.2642
-41.3609
-74.4461
-41.6555
26.8237
55.8555
84.9763
71.6826
73.6617
58.1102
-17.638
-60.0597
-36.3951
21.0183
-7.42035
-67.5354
-60.3571
-50.7715
-36.476
-11.4295
76.4706
128.255
96.1754
42.907
-41.1231
-78.8731
-154.652
-230.084
-90.4348
46.568
72.5929
90.4261
88.8613
86.9264
55.6623
-7.4432
-59.108
-12.0628
53.7765
54.0922
14.4022
25.5237
98.8763
74.2774
-14.7158
-66.7156
-42.2525
17.0823
-28.4282
-78.7159
-55.8165
-5.65139
-9.05398
-30.7194
-42.5297
34.1
91.0214
61.0735
38.267
30.2134
11.7075
-45.4676
-156.341
-189.457
-105.125
-23.6955
55.873
104.367
69.6091
28.4692
11.6164
-38.647
-9.68765
17.2655
41.8969
12.5251
-14.2888
-60.3954
-27.7482
59.6286
43.6503
-42.0571
-60.6381
24.3321
47.8811
57.2781
30.932
20.5733
45.8154
14.416
-9.61727
-31.275
-47.3154
-44.3612
-51.4271
6.72621
141.3
150.579
-1.33747
-140.867
-119.433
-27.9769
44.9601
4.30343
30.9248
62.0297
59.3268
9.25233
-56.2896
-63.9434
-37.818
-16.6922
-23.7684
6.51682
18.0952
-22.8179
-90.9721
-79.9286
-24.2659
-11.4514
-26.9002
56.8964
101.596
104.487
67.1581
22.8494
8.33574
9.59045
0.752329
-28.1565
18.097
43.5384
42.4888
23.4391
12.8997
-12.7488
-53.3757
-74.955
-16.6736
43.8204
53.3778
3.41251
4.9798
1.42483
-25.0343
-55.9988
-73.7623
10.3145
26.9757
-29.4983
-160.24
-151.275
-74.6386
-45.1481
-38.5155
-0.419142
85.8744
159.176
187.072
170.123
114.846
30.0116
-41.7515
-169.404
-212.241
-94.5838
24.5968
45.7803
57.2616
75.0677
110.91
38.093
-30.965
-8.87378
62.7355
56.9321
-12.829
-21.1894
-29.6873
-66.1408
-27.8421
3.3034
22.7507
113.718
113.307
40.3969
-29.3592
-132.542
-130.572
-116.51
-101.713
15.4933
62.8117
-1.87197
-65.1388
-80.4098
8.17893
67.3254
43.1198
9.58632
-32.0979
-28.0619
6.49463
50.2633
49.754
47.2174
63.555
19.9304
-65.0829
-24.8374
44.2422
26.6091
-7.85891
0.122922
-1.68098
48.8698
45.7793
-9.56571
-26.8072
-1.10746
15.5982
8.74901
-14.2997
-35.1937
26.8655
22.4276
-5.85215
7.24492
11.0073
-14.7124
-54.3142
-92.106
-48.0521
-4.94563
16.9108
0.280583
-37.6174
-46.1113
-32.4071
-39.5129
-15.5048
29.5994
27.0446
43.4353
33.6331
21.5352
39.5968
40.4329
74.339
96.4963
65.3426
40.0261
14.0258
-9.42398
-6.12057
-43.2744
-100.726
-58.0047
-36.5946
24.1785
-8.00188
-48.5949
-41.2556
-24.9911
-28.0777
-49.2951
-35.0743
12.0014
11.8692
9.6978
31.6193
53.3264
51.1073
40.8759
37.8693
12.6064
-7.24104
-26.2837
-23.0004
-32.6368
-63.0487
-81.1467
-48.3589
27.3384
29.5979
51.2415
62.8751
61.758
50.9268
20.8353
39.1902
74.3731
42.7453
-0.0155125
-39.4685
-45.4852
-75.1297
-101.782
-75.0032
-66.7707
-13.69
18.7426
54.8833
70.4141
74.7712
29.9922
-15.5656
-50.5094
-11.3303
3.78731
32.8823
-29.5902
-64.7867
-71.7101
-35.078
35.9273
83.4729
86.4485
115.966
138.222
149.674
-44.9078
-378.044
-348.482
-153.148
-41.1845
72.4316
92.3238
74.9931
98.0476
94.4823
76.0257
31.1346
30.0192
47.2655
5.87553
23.4573
41.3958
-27.6575
-79.9147
-99.9317
8.85322
174.373
101.31
-33.8557
-98.8229
-104.885
-23.2206
-5.67005
-25.3422
-69.137
40.8476
122.71
89.887
21.1707
-9.41543
-33.1078
-44.0105
-41.3501
-41.7895
-21.1108
58.1567
112.945
80.0405
20.2419
-10.7594
-54.9908
-116.362
-135.456
-64.5716
-47.0885
-95.1946
-107.947
-65.9156
-21.127
-3.82005
-16.1768
59.0302
83.9575
97.9049
91.6693
95.4889
109.182
60.8416
24.379
12.6078
15.4318
25.1647
23.0989
-3.28611
-8.35477
-27.5017
-13.8777
-19.2592
-56.4531
-10.882
51.8453
30.954
28.0068
30.327
1.35866
-27.169
-38.0059
-78.6183
-48.6143
4.8
-34.1176
-47.7335
-38.3581
-40.8605
-35.2206
-28.2296
-45.7393
33.8429
100.239
83.5652
41.3939
9.90076
19.2537
0.36246
-34.5208
-0.0492806
42.4918
45.7197
-8.85152
-72.3004
-59.5523
-18.4302
-22.048
24.1511
45.7546
79.4493
93.9055
32.6033
-6.25605
-15.5404
-46.1557
-49.5904
-75.1838
-105.166
-75.7248
-31.5677
3.6282
31.5325
40.4323
74.2342
93.3658
86.0805
49.5064
-101.816
-126.574
-54.6809
-0.84857
5.7992
22.258
79.9899
70.3434
39.54
-1.30224
-60.9565
-66.8651
-40.1507
-42.8244
-52.2347
14.1382
73.6969
61.5904
29.8361
12.0945
26.7471
-1.01844
-55.2585
-74.2594
10.3834
37.8556
-37.5588
3.19774
37.1391
69.8425
128.457
86.8969
-18.7139
-3.57855
53.3196
16.2998
-35.5221
-33.4306
-3.65474
-3.18624
42.8568
74.9563
-1.40577
-76.0199
-130.487
-132.941
-136.362
-262.322
-283.348
-78.8231
47.6703
115.854
118.316
95.0234
76.8015
72.528
41.5289
72.0617
75.8947
84.8513
29.9174
-27.5639
-33.8901
13.3099
46.554
10.0966
-19.939
75.4907
151.441
119.313
71.5936
14.8645
-29.9936
-51.1092
-16.6132
-39.6461
-86.4105
-156.958
-193.679
-158.336
-104.485
-25.248
14.8349
54.1216
64.0122
68.0241
78.037
76.9749
13.3434
-39.8556
-17.9307
25.0402
26.8897
-38.1216
-68.9242
-61.3227
-89.2328
10.3676
54.7941
47.1437
75.2337
101.967
55.1408
-32.4123
-23.7591
39.6064
37.9382
88.2034
69.503
1.30844
-38.5459
-57.6498
-49.9576
-22.1587
-12.0141
8.60698
77.1732
24.064
-26.2183
-37.0753
-29.793
-44.2139
1.54283
46.0099
-28.7202
-35.1182
-17.4436
-53.3252
-52.0096
-161.849
-193.694
-115.156
-16.6694
118.684
132.252
108.761
84.2468
16.0053
-2.77202
17.5997
86.3562
74.6121
37.9982
44.7632
45.2945
-30.603
-31.6269
-38.037
-18.8083
96.3361
128.44
89.7908
22.6855
-108.491
-185.203
-133.749
-67.7556
-46.312
11.4371
59.4524
6.10318
-22.4208
-22.6022
-49.3665
-57.3808
-82.0132
-49.2226
57.0282
81.9577
77.5947
86.9546
82.1896
79.9145
68.9666
79.2201
116.019
23.3935
-41.4238
-59.8663
-89.2571
-110.479
-132.308
-168.45
-150.845
2.32651
72.1666
74.3332
47.1621
47.6005
56.286
56.4386
39.027
49.854
8.97871
-64.6712
-93.7831
-22.9154
-8.09427
-9.38792
-35.8852
5.29257
36.7149
65.9359
86.431
40.3479
61.0078
55.6539
-17.034
-82.6042
-55.4888
-11.2755
-4.97513
-28.4133
-30.8114
-8.22654
-41.3859
-56.9894
-15.3605
-12.3522
-20.3907
-56.2366
-26.1521
38.9141
69.096
29.6223
25.277
53.4267
48.8032
33.6918
-13.8391
-41.4873
-99.4962
-142.979
-23.4263
53.8108
68.3217
69.9218
24.0051
20.2381
60.9762
124.195
203.829
130.039
54.587
-52.2109
-135.46
-103.092
-80.8796
-103.072
-93.9435
-39.3638
-35.2099
-10.743
45.3801
34.6082
-34.1688
-27.5766
24.1088
37.0663
-31.5512
-115.576
-90.1049
-61.864
-65.5346
17.4255
114.524
154.564
148.042
74.6822
50.6023
64.4439
15.5126
-105.003
-170.937
-91.3661
-4.88801
-13.8495
-12.1451
13.8774
73.9938
125.516
54.4246
-12.6673
-37.7043
-64.7177
-50.8409
14.2767
3.19992
6.55877
-16.621
-59.9104
-12.1204
28.9711
38.3428
60.8223
46.8745
25.4845
-21.7754
-50.4764
-33.6014
-33.6898
-43.131
45.8247
66.196
96.202
65.4308
15.9322
-0.706695
3.01267
12.5401
-14.0874
-71.2829
-48.4564
-17.5739
-32.1819
-11.4851
-21.5934
-37.5557
-43.8721
-47.8938
-50.5161
-8.31013
7.36516
10.9511
20.1429
28.3319
13.9705
0.973488
-22.4623
-10.2949
77.1917
87.9352
75.585
24.3397
-37.5574
-91.7506
-89.3139
-46.1216
10.4852
-47.508
-41.3379
18.2397
50.0224
84.6696
62.1279
40.03
41.3579
39.9005
54.2702
18.1882
-49.4233
-46.1016
-5.25044
0.862477
22.5673
88.1057
116.635
76.7904
-2.00472
-28.5385
-51.2714
-82.9196
-134.348
-100.9
-90.6672
-85.2139
-62.1585
-40.4955
-21.4959
-7.59616
13.6798
60.6047
50.297
32.4556
21.1856
14.1145
11.8928
-25.3203
-20.3352
47.779
55.3819
52.8422
34.3431
-11.822
8.22407
-0.795874
-31.8474
35.6425
62.9733
49.0505
25.2206
19.6747
20.6686
0.360809
-42.7687
-70.3857
-47.096
-72.6718
-97.5756
-60.8759
28.1265
53.1297
27.8658
-26.1645
27.5614
53.9622
2.96614
-86.5245
-37.7276
27.7884
12.0036
-47.9413
-5.70255
36.752
87.0555
110.177
57.3532
50.6442
57.4192
1.97072
-89.906
-47.8234
28.8299
64.5408
27.6429
-32.7799
-138.36
-194.458
-156.162
-67.507
32.6299
131.523
81.227
41.9548
26.926
-79.6989
-56.2179
94.5491
72.5519
58.7874
31.3201
-39.7013
-7.61469
20.9464
43.5197
61.9037
121.432
138.965
48.5471
-49.1127
-104.491
-123.539
-139.232
-118.864
-45.4924
32.7577
42.1122
-6.76717
-30.0704
-56.6537
-44.8938
-68.3078
-86.06
12.9083
-2.6704
-21.4932
-8.2563
52.6968
66.2581
36.45
-0.0670374
33.2302
84.6481
27.6041
-32.8786
4.01429
12.8757
-17.0811
18.1964
38.302
98.1934
99.2121
39.7366
-19.9088
-11.3419
16.7993
53.4989
48.1246
56.9563
57.6945
16.3777
-52.3508
-75.2427
-57.641
-88.1946
-134.439
-82.7552
-37.0705
-9.40536
-13.3495
-6.12454
81.5933
86.928
18.3868
-49.4964
-77.1908
-28.4374
-51.5887
-92.1077
-74.6724
-26.3483
-14.7958
2.06787
30.5788
34.8152
43.7645
37.9843
16.1044
38.7802
91.1335
76.0515
28.7148
31.2456
56.7661
71.8107
49.7064
13.5475
20.6652
0.324793
-5.3581
17.7038
-13.7064
-46.8313
-38.0013
-3.2971
8.75371
-67.0808
-90.1274
-77.5689
-60.295
-56.8162
-126.701
-127.245
-25.7098
78.2003
111.395
79.1716
-3.22675
0.580188
74.6872
41.8568
-15.481
2.8087
40.9322
12.0248
25.9299
4.4221
-14.0334
-3.05712
17.0519
21.4236
50.7518
49.4975
11.17
36.9015
34.6826
18.4661
41.7824
20.8581
-65.2896
-99.2997
-104.767
-97.4779
-77.3254
-51.6928
-38.247
-16.2291
1.36768
6.85832
-5.77503
25.1796
59.4456
53.3812
13.9732
-45.9888
-39.4856
-22.9928
-29.9553
11.9472
21.7648
38.9488
72.0014
72.2361
69.6628
57.4879
22.067
84.1524
71.7852
21.3302
-22.2549
-51.1613
-44.5555
-83.8716
-100.099
-79.584
-12.4276
5.74869
35.0188
11.6123
14.9153
40.5551
21.147
-14.9905
-8.48661
6.43411
18.5692
-6.39337
-16.1184
-16.6319
0.535786
-19.799
-5.74424
11.5649
-19.1354
-59.3071
-77.4439
-50.5189
-1.33324
-3.15958
32.3027
36.3316
49.9845
37.8351
-9.74297
-5.1406
-22.3047
-59.9678
-49.5571
53.9119
160.203
168.155
128.298
79.1689
26.1262
-38.046
-154.453
-281.669
-136.512
-6.59606
-28.7488
-22.2695
14.6009
-44.0253
-24.8923
38.653
54.1637
85.3932
111.475
58.1978
2.34963
20.1217
29.2937
41.6763
59.9041
41.9309
87.0125
58.5265
-123.895
-171.189
-99.7793
-43.6976
-14.0917
46.7199
54.7038
44.489
86.8411
68.4762
-4.54118
-88.2225
-166.583
-131.51
-80.0003
-39.6688
-8.07565
6.11725
28.3313
144.14
157.15
131.446
48.6279
-20.1561
-97.2419
-153.063
-142.648
-113.7
-96.8549
9.76788
61.014
93.8951
129.011
81.673
-1.82972
-15.9236
-21.0944
-22.2198
22.0935
61.0822
69.9238
30.6371
30.8794
60.3711
61.1782
9.56721
-60.8387
-32.0481
-40.9149
-107.512
-146.291
-77.2036
13.5009
-3.03498
18.7489
94.8005
76.606
38.6605
-8.71038
-16.0457
8.74867
-5.47666
-51.2659
-80.4583
10.0266
96.8921
86.945
27.1406
19.2641
20.1116
41.139
-18.3894
-89.3813
-19.2545
11.5231
-27.6239
-28.256
12.4761
9.46902
-22.5899
-4.90551
-20.5054
-2.46722
71.0756
41.631
-8.41301
-38.0075
-67.3806
-89.3414
-143.401
-90.9365
-9.16489
47.2004
41.2604
32.4058
22.0646
35.8309
5.8599
55.6355
70.9358
26.7133
-13.7049
-13.7913
-21.9563
-38.8271
-2.91689
95.3224
92.6354
89.8944
91.387
-18.6804
-54.0382
-35.479
-40.7817
-18.9674
-52.215
-11.9338
29.9088
2.92942
-11.9329
-39.7742
-45.6451
-13.3175
-19.5189
-33.6668
10.9261
8.51028
4.29422
12.2002
7.20388
77.9375
96.028
13.4382
-30.7646
-91.3173
-51.3279
-21.6149
-38.7952
-40.8743
-51.141
25.6849
118.768
96.7133
40.2293
16.2579
-12.4927
-20.5414
-41.1244
-73.3516
-26.6581
12.7168
-6.77177
-42.9131
-155.165
-123.533
27.5496
88.6247
83.749
64.9473
143.724
103.45
39.4687
-25.1967
-79.5503
-70.7654
-37.8906
-3.79277
42.8876
42.4299
31.4885
24.5887
9.96492
13.0187
33.1795
47.5809
32.2461
-34.1395
-20.0105
-15.9889
-43.4333
-59.6531
-84.104
-13.9284
22.6703
25.4097
10.9064
-24.075
-58.0646
-54.5004
-46.0923
-62.2986
-31.242
47.6358
104.112
105.417
23.3864
-3.85286
-1.85185
-33.5546
-63.3814
-36.4888
-22.9702
-15.6883
20.6486
38.8522
21.5552
-13.493
84.8226
70.8121
-19.3019
-10.6136
-1.10216
0.179818
14.6431
-26.0121
-63.0502
-63.7995
-38.1476
-17.3774
13.7479
68.5401
97.5846
34.2556
38.8215
-18.9472
-9.17519
28.6479
-72.5686
-57.8124
24.7023
31.02
-17.3085
-58.8243
11.7678
77.3606
98.1002
63.1408
39.2074
28.5611
-16.2171
-66.2344
-86.8082
-85.8861
-42.3423
-32.4443
-37.9709
-47.3727
-57.5028
-45.7029
-22.8216
-17.3427
40.1561
125.198
96.6104
45.6851
0.720061
18.055
16.8523
-4.93531
22.1636
24.379
24.3208
20.8488
-69.7871
-57.9759
-10.1061
-35.0439
-31.5131
4.89022
15.1559
3.18915
-18.7422
-36.7564
-20.4825
-10.7443
34.1669
41.496
27.9476
40.3277
3.58571
-25.2041
-32.7904
-40.9939
-16.0717
60.5112
41.3293
32.732
23.2951
-5.89653
-8.01628
5.60787
-13.6578
-38.821
27.0078
38.8373
9.53824
-8.68527
10.1991
26.335
-5.54471
-57.5977
-8.39236
3.12473
-8.79718
-44.5036
-59.9747
-33.5636
-24.6949
-12.2993
44.2608
79.0054
77.638
33.7192
-14.0263
-14.7185
-53.3281
-71.8886
-72.877
-11.6845
44.757
52.5427
22.9842
7.81913
-13.1631
-28.3947
-26.3235
6.16727
44.6099
28.767
3.69438
12.4048
32.3483
44.3571
-12.0836
8.6794
56.5487
150.698
123.053
-52.8656
-108.065
-86.8906
-112.774
-191.995
-164.676
11.6019
67.8249
46.6678
24.8502
21.8238
5.29598
-35.4485
-62.4109
-15.0199
21.1998
14.2134
1.7963
-16.5666
12.3531
66.8966
85.6737
157.991
119.742
112.087
98.112
25.9461
-0.887426
-40.9954
-85.7083
-89.403
-137.652
-113.597
-54.3188
-48.3674
-33.8161
-19.0336
-21.9441
-24.7545
-25.375
26.4254
34.6795
5.91604
45.7874
78.7627
52.2489
38.0031
19.4583
6.38933
-8.00297
-8.46257
17.549
15.2833
-9.91798
-54.467
-49.0889
54.8485
39.4541
-9.06499
-7.16808
21.6538
22.2757
-34.5101
-71.0118
-66.6613
-3.01808
8.80033
-27.7223
-25.2925
4.81335
25.3488
40.511
25.5529
5.18481
56.7324
16.9638
-50.2193
-24.9136
-13.6888
-23.8431
-37.5633
34.0613
42.6722
46.8194
53.0635
28.8393
-29.1018
-46.0573
-57.1545
-16.6761
-34.0348
-63.9942
-24.7766
23.2144
34.7435
55.3419
15.0073
12.48
72.7446
67.58
59.3933
10.8016
-25.0737
-27.2583
14.462
-2.31598
-62.761
-27.2449
7.22622
-13.5245
-22.3348
-25.7605
-26.8338
-29.3292
-59.2894
1.77871
16.7924
36.0084
19.0116
38.4184
48.6924
15.0959
-8.20125
-10.902
-95.9487
-94.1799
11.7786
46.5234
64.7876
23.9149
-45.7511
-83.2533
-91.3237
-14.7871
48.1985
53.0324
43.0126
23.4848
3.64916
37.9415
96.8492
50.9371
19.3085
25.0886
66.5362
55.811
-29.5574
-119.947
-105.089
9.86267
58.3565
49.1937
32.7372
-27.9009
-41.3786
-44.4114
-30.2354
-17.5672
16.2235
16.8603
-81.5103
-101.015
-85.5209
-69.7843
-17.4709
16.1894
19.8293
79.9542
75.4321
17.0397
25.977
29.2415
16.0875
3.34652
-31.1561
-14.8356
-12.8743
-19.6153
-35.5661
-13.0062
2.1499
3.35398
33.6328
70.5656
66.6508
58.9455
103.383
76.806
-4.26132
-48.0219
13.5959
92.2304
53.8651
-1.87135
-24.2576
-71.2195
-101.019
-112.782
-149.339
-95.2764
-11.26
25.5035
23.4414
14.3022
9.94607
-16.273
-45.3964
-43.9606
-21.8028
8.9742
30.5486
15.958
24.729
29.6468
51.1335
48.4966
23.917
42.4294
19.5771
-32.7872
-30.217
28.5989
55.6172
20.1161
-27.2055
-75.9349
-50.0867
26.6476
33.4671
20.8006
0.698848
16.0813
9.08928
-47.527
-45.0726
-21.0116
25.0906
48.4998
86.7553
68.9001
50.9062
23.6398
-2.69297
-18.7073
-70.8976
-52.0215
-34.854
-49.8947
-42.632
10.3471
38.8883
-26.8757
10.5105
56.9561
25.1892
-7.94376
-43.971
-78.5197
-42.3654
-44.3099
-81.6912
-11.4301
3.02678
12.1581
71.859
78.5359
34.2274
13.216
26.0912
22.9614
-13.669
-1.63755
-24.0664
-49.0479
-103.904
-106.513
-24.2091
93.4448
96.8194
95.0307
59.0111
-16.7395
-18.5232
-19.7535
17.9868
61.9991
46.4891
9.05052
-12.1873
-31.866
-10.7065
-3.65018
