63.1805
-45.3671
16.574
67.5207
112.579
203.242
219.918
100.497
39.9893
-57.8412
-53.9862
11.96
39.8041
81.6987
182.497
143.016
83.7572
-57.0057
-69.2805
-61.2143
-80.8393
-257.708
-244.685
-183.363
-129.824
-89.4161
-4.73953
198.918
219.321
-43.5927
-1.5289
88.3133
15.0228
4.07129
-23.5263
67.7805
121.647
-73.4464
-138.279
-95.7328
-39.948
-12.0005
-50.7219
-33.7778
29.3123
-89.8925
-238.756
-236.574
-91.6532
195.825
239.802
99.3817
7.83071
-1.08324
29.5567
33.2173
253.658
326.696
268.172
96.475
-18.3648
-67.8756
-177.44
-157.307
48.4928
95.7695
122.422
45.0262
-6.8917
-53.5862
-117.46
-52.6681
-128.167
-195.191
-61.5947
-8.15313
-62.8738
-46.9374
-111.066
-113.302
-19.2926
114.367
141.929
55.2368
-119.55
-146.638
-140.062
-129.692
-135.635
-66.4702
86.8839
125.609
210.668
248.839
198.55
149.812
24.0286
-4.95492
197.118
74.9451
15.553
-5.20254
22.0391
12.0947
-165.189
-363.196
-279.705
-79.5135
122.807
237.769
217.661
150.302
-24.7918
-99.769
-152.499
-162.297
-82.8675
-24.2669
-81.7147
35.2399
72.2106
46.5678
20.543
-70.2844
-31.3809
98.2868
57.4722
7.32571
20.2039
42.2368
-14.6189
-69.6844
38.804
95.5619
29.4205
31.4118
2.39855
-22.6914
-137.32
-107.373
70.0176
114.242
-62.864
-50.012
-49.8301
-110.693
-90.6555
-66.9205
-74.9309
29.486
75.6735
200.551
255.8
153.873
28.3309
-67.8011
-62.7767
25.1537
82.3887
108.184
9.93981
-111.123
-93.7798
-93.3503
-73.3945
-60.7813
-165.999
-109.035
-43.0031
-88.8334
-133.451
-31.8669
157.944
190.296
112.019
138.927
81.3287
-40.1152
-6.7143
77.111
83.2657
39.8369
-22.0348
-25.2866
109.499
124.198
191.39
174.737
105.497
-102.676
-292.755
-243.031
-271.81
-294.309
-130.926
20.5344
29.599
-16.7834
-153.906
-155.976
-89.2136
-11.5088
176.838
269.223
197.801
90.6485
1.8202
-201.241
-93.5512
152.342
276.947
248.725
118.483
-1.53668
-59.9973
-83.2708
-222.281
-135.657
61.7005
80.6912
95.7583
117.84
50.7148
-75.38
-202.893
-91.5885
68.7194
121.961
-43.2989
-144.142
-87.654
-28.8143
95.0625
89.6337
-49.5716
-38.4817
52.7016
40.0392
101.496
152.004
49.4691
-99.2625
-163.418
-136.609
50.4805
46.3646
-22.3611
-34.938
-123.303
-125.728
-156.137
-167.483
-33.1821
52.3048
174.896
303.505
360.375
141.807
-25.6013
-211.126
-104.048
119.162
46.2448
-8.33627
-70.9681
-70.8703
-90.5279
-69.1543
-68.5611
19.1458
199.162
141.989
20.6946
139.892
72.4518
-129.677
-128.772
-71.0619
-92.1836
-229.042
-238.972
-176.339
-69.2661
35.4346
132.033
291.462
391.513
294.025
169.846
46.3288
-20.7223
-119.615
-383.771
-340.891
-41.3834
-29.4524
-124.488
2.08843
136.162
286.163
196.695
63.5955
81.38
8.28168
-114.471
-215.263
-268.108
-167.613
-50.6933
-50.3907
-29.9548
65.9641
99.7293
64.135
22.6889
3.67113
-37.3751
-18.1421
-112.18
15.2306
185.059
246.245
198.346
146.17
110.297
71.7685
91.8085
83.1945
-136.771
-184.094
-172.674
-174.716
18.8814
66.6254
-54.9352
-161.984
-65.2404
9.00198
135.322
120.732
8.14037
-157.794
-230.766
-147.954
-68.1164
135.211
242.948
231.844
213.864
62.4556
-85.6677
-153.185
-190.231
-98.7178
-137.131
11.6933
157.415
161.684
77.5305
99.8848
13.6986
-82.441
66.9955
63.6999
34.0754
-103.928
-285.918
-303.89
-222.857
-107.574
107.625
246.211
214.716
-43.0183
-82.037
-8.08074
-12.7113
-109.058
-47.8918
-19.7202
92.0473
148.269
132.762
173.983
155.133
128.795
20.4221
-25.9002
9.54276
-16.5675
-162.053
-195.478
-212.672
-232.497
-177.282
160.309
445.562
476.878
219.719
29.5108
-172.441
-228.857
-202.831
28.8181
93.3865
68.5958
51.1806
25.202
44.4125
0.376549
-217.148
-436.125
-255.203
-102.971
-46.1733
-174.147
-176.912
-4.44268
170.707
176.559
271.53
280.013
207.055
62.4632
2.01516
2.94941
-54.9795
-100.719
-59.5898
-57.4023
31.8295
102.129
-52.7105
-197.005
-214.07
-131.155
22.598
-17.8036
141.202
355.12
198.46
116.809
65.5982
129.43
251.447
97.6906
-35.3117
-84.2521
-181.628
-184.055
-259.832
-195.732
-68.7949
-47.8465
9.38154
-73.5948
-203.909
-147.492
-54.4824
-13.9636
143.816
469.215
488.619
311.283
116.659
0.632919
-35.0127
-113.863
-272.33
-365.813
-262.891
-138.077
-182.431
-68.0434
99.9241
148.78
161.606
263.523
260.302
171.985
43.2034
-86.2579
-41.1365
-45.8451
-144.55
-133.802
-79.3306
86.1683
13.9703
-194.162
-198.99
-139.121
22.4878
68.5787
-105.868
-73.0771
-56.9363
-109.221
-116.76
-42.0026
204.429
196.648
69.534
55.2428
40.9433
113.167
133.268
118.099
250.87
289.626
39.6356
-159.674
-58.6415
-23.3545
-4.76619
-67.2243
-155.68
-153.539
-29.6759
85.1363
92.8587
85.8669
89.052
62.7647
11.2022
-91.0317
-81.348
-168.714
-185.832
-96.5402
-26.1508
18.4712
-140.559
-122.697
-4.14781
23.2257
92.6678
170.479
152.207
99.3229
-2.62564
-24.7112
-36.1341
-170.008
-25.4259
114.485
-2.43574
-82.1032
-68.3322
-22.7462
-5.86438
-86.4533
-30.0631
47.5135
93.3244
82.7067
121.991
85.8471
30.5003
108.422
238.964
182.774
163.961
48.6854
-33.0152
-140.487
-166.265
-108.998
-175.805
-222.706
-78.7413
14.7929
-52.117
-105.315
-282.993
-284.16
-120.205
-33.9705
-17.9809
178.624
286.243
304.671
137.952
129.306
45.9335
91.5289
159.705
55.178
-17.9922
44.4189
10.5367
-26.9211
-24.4734
-202.129
-185.869
15.3277
-49.4913
45.1651
122.86
50.2181
-67.0415
-256.728
-330.375
-78.565
140.609
189.408
99.0936
-47.7943
-43.8457
-93.4833
-145.34
-178.441
-82.544
192.96
319.661
263.468
144.155
-41.798
-63.3765
-127.08
-223.509
93.8941
426.89
317.218
103.857
56.5487
-55.1917
-191.32
-237.599
-240.692
-216.289
-11.8318
87.4886
102.483
173.76
38.1959
-49.0452
67.2826
69.4642
-10.9971
-72.9891
-204.056
-279.051
-247.659
-190.943
-138.675
32.8987
121.438
122.432
155.874
203.761
120.518
-66.7828
-126.371
22.3651
217.928
201.299
81.1912
29.6411
16.0325
40.502
-77.3732
-184.942
-52.1968
189.222
134.338
24.7673
2.81758
-90.2296
-132.797
-122.635
-170.122
-68.809
86.5791
123.837
104.376
102.962
153.468
-39.4815
-294.84
-126.941
-4.3625
66.4177
108.265
-92.2315
-292.911
-365.064
-264.653
98.6487
245.609
364.132
393.934
238.865
73.7584
-79.3992
-211.2
-200.538
-263.839
-126.952
102.289
138.758
139.081
69.3984
-109.891
32.0466
182.756
212.344
186.096
12.406
-55.4603
-179.004
-248.163
-221.812
-195.398
-80.783
-170.059
-80.8891
58.8188
284.411
444.744
184.824
16.645
75.775
79.2805
-96.5288
-162.96
-71.2599
28.9343
-98.7716
-220.847
-56.2698
107.248
230.29
244.023
66.8962
43.2202
-44.7531
-98.9273
-258.831
-244.492
-87.0183
72.4393
21.016
-157.025
-187.971
-39.7684
-28.3409
95.035
182.635
134.344
-35.7231
-3.91094
88.6355
47.0383
-222.654
-184.46
-31.7104
95.9877
245.76
168.027
60.0352
52.5574
41.0582
103.128
144.021
228.873
88.1963
-122.984
-190.829
-93.2599
-65.0718
-166.131
-267.247
-210.469
-70.7257
-64.9512
68.3263
179.025
209.314
224.99
228.088
313.598
183.705
101.063
12.8753
-312.428
-387.004
-296.97
-171.037
-100.498
-138.997
-137.855
-97.6236
-49.9576
33.8566
81.8506
149.97
227.051
87.3216
-32.6005
-101.966
-253.032
-110.38
7.86669
63.5509
125.355
264.162
241.151
189.979
167.42
233.982
128.228
-146.533
-314.833
-184.703
22.0995
5.38911
-58.043
-2.13337
-32.7879
-130.357
-198.325
-167.139
-81.8012
173.796
377.607
485.268
307.4
-103.581
-288.35
-303.138
-306.047
-154.015
182.558
303.366
42.6625
-105.921
-193.376
-239.598
-171.003
-20.5933
205.321
192.326
159.981
-9.33364
-166.827
-188.387
-94.4022
-35.3878
25.6983
-19.278
96.8989
205.543
78.0134
-57.1872
13.1954
-18.221
-84.9557
28.1477
135.388
104.438
23.4502
106.663
99.5875
106.168
179.095
-25.1585
-68.1879
-14.0027
14.7363
-39.4032
-119.186
-101.784
-129.544
-141.48
-16.2319
-33.5594
-16.3518
-55.4549
-109.502
-101.367
-171.317
-120.703
87.4223
57.1831
26.7277
142.591
90.5889
57.7314
-62.5673
-16.5015
209.521
185.287
46.7463
-48.5251
-147.736
-105.772
-28.6571
91.7977
223.011
255.766
277.408
167.748
-75.5841
-276.45
-325.097
-302.808
-207.818
91.2405
265.812
366.295
239.01
-144.246
-213.366
-127.911
-117.128
-162.433
-99.7494
-84.9789
-14.9331
110.567
126.327
18.1082
-16.5702
-69.2823
-63.1225
11.8174
1.3267
34.2819
-78.261
-219.337
-254.164
-34.0709
150.75
189.433
95.4003
154.34
170.815
127.346
104.49
85.3164
163.659
211.461
24.1535
-17.0703
-55.8132
-151.601
-145.409
-256.037
-129.503
-43.883
-29.7515
82.2091
121.775
102.239
29.7742
-155.311
-204.177
-148.629
-207.743
-176.766
-110.466
-46.349
229.354
384.64
360.554
112.11
91.3996
63.6038
-11.1115
-46.3605
-25.2036
16.6409
-107.813
-235.633
29.3792
286.621
145.333
-110.116
-217.452
-208.81
-187.147
-235.747
-228.798
60.0559
346.769
417.907
156.547
28.5235
-115.587
-161.71
-126.988
-65.7038
135.632
227.044
160.05
-30.0035
-58.1336
-48.2114
-85.1697
48.6542
62.7399
-1.19657
-65.0451
-208.45
-398.141
-329.059
-210.641
-218.042
-52.4885
378.814
340.382
182.017
207.353
289.92
66.9162
-34.1774
69.2455
349.745
268.674
-71.7269
-98.7297
55.59
66.1287
-46.0597
-184.005
-53.5188
-64.3133
-7.60874
10.1322
-212.621
-251.892
-310.705
-426.838
-185.725
-64.5049
82.0375
268.629
170.473
24.2288
70.7837
46.5983
92.5876
-1.75888
-42.9754
-4.02827
-15.9208
106.733
158.729
84.9747
153.498
141.386
118.335
35.26
-128.73
-38.3546
19.8749
-96.6853
-216.327
-19.5111
97.3346
-11.3396
-87.7884
-54.8494
18.2403
100.198
30.2253
-56.796
9.04712
-62.6588
-243.734
-151.149
217.031
420.514
372.282
219.861
-98.1225
-177.831
-136.943
-144.128
-153.441
-168.266
-164.173
-143.98
-149.812
-117.335
-8.78281
-54.3529
-75.5934
27.8325
172.813
342.566
169.524
61.1515
-102.169
-267.931
-171.104
-48.3378
11.2449
46.5253
66.6896
211.614
201.312
202.738
228.232
204.98
183.934
185.028
-46.819
-163.783
-237.63
-225.151
-225.432
-157.432
-15.2367
120.119
203.779
112.111
-12.4246
30.061
35.2696
-70.1135
-108.326
-125.682
-155.761
-207.53
-274.426
-81.1646
156.453
213.304
155.262
-24.8852
-85.3018
-98.1006
-97.0139
61.1205
167.42
105.604
-8.65816
-118.597
-110.695
-49.8691
-89.2055
35.1367
147.146
-5.14186
-24.7624
-22.8945
-2.29284
144.006
90.4169
336.599
628.5
404.655
24.0499
-233.681
-278.642
-268.009
-216.869
-154.441
-85.787
15.8371
58.4431
40.4777
-17.1732
41.8962
37.2837
-38.5211
-193.525
-193.331
0.628391
-155.453
-316.222
-190.458
1.70548
63.9533
75.7125
-15.563
83.0991
216.847
149.467
-25.6016
14.2087
11.0887
42.5809
109.691
189.829
122.781
156.841
63.742
2.19756
-3.63924
31.0581
32.928
-11.3683
-104.162
-114.219
-14.7919
-68.3322
-195.39
-138.199
212.142
379.497
150.846
-68.1617
-118.139
-34.6586
29.5219
-1.29463
-112.467
-221.291
-137.249
-239.989
-216.196
-137.912
-100.318
-19.1678
74.2021
179.419
378.588
273.927
-14.6483
-155.082
-92.0381
-80.2949
-82.2446
-118.412
28.5365
156.745
266.56
253.105
78.0239
-88.21
-228.416
-121.89
200.256
146.934
22.8393
-73.0714
-145.275
-20.5613
12.8657
13.4667
84.2393
101.825
94.9836
80.324
-22.7412
-11.7493
-48.9221
-142.587
-173.933
67.9459
111.759
110.43
48.6295
-6.11843
-40.7093
-115.948
-269.062
-276.177
-126.248
-62.0645
-157.83
-114.921
30.3644
127.081
170.033
123.669
38.8475
116.515
-32.1545
-85.7803
-4.89306
60.3307
47.0932
49.2118
75.8988
188.577
125.484
12.8087
-98.1355
-82.6233
31.44
6.9688
37.8255
212.546
158.389
49.2587
63.1555
-22.3121
-38.9616
4.24477
-80.6901
-180.776
-232.812
-111.57
-51.5673
92.3464
273.187
153.853
-89.0801
-159.353
-147.509
-123.947
-193.494
-375.261
-321.497
-125.14
57.3863
260.909
388.04
167.91
93.4054
14.746
-6.16508
47.9744
65.1445
-112.708
-136.321
208.27
242.53
93.8252
106.908
176.061
180.981
69.9877
-19.9525
-101.108
-104.828
-236.663
-269.195
-239.701
-105.23
25.412
62.6846
37.4571
16.8636
-37.7674
15.2553
-22.5889
34.3238
-4.53352
-133.111
-6.87055
137.583
73.4711
32.3617
17.1166
-3.71612
-48.1022
-82.8771
138.118
104.655
33.6159
22.5293
-64.0602
-63.5792
-22.6269
-139.1
-198.366
-46.7325
129.384
128.628
105.563
60.1789
113.328
84.1335
-29.7988
-156.851
-81.7954
66.588
158.348
150.556
-47.5934
-163.831
-115.764
21.5601
146.53
71.2828
-54.8577
-133.123
-114.807
62.1882
4.21462
-53.1542
-33.4328
-40.0572
44.2662
140.193
68.4959
-70.0687
-229.962
-68.073
141.714
80.1246
32.0934
-49.8234
-34.4595
75.9814
81.327
-44.7151
-58.1517
-76.9182
-73.7331
3.27249
19.3267
81.8288
79.2758
-3.77649
-190.59
-43.7911
11.8861
20.5367
72.3591
75.704
11.7422
37.5316
5.27903
-32.5892
0.294749
124.707
-4.87307
-77.4477
-115.827
-91.3081
-4.42442
36.2021
77.5454
223.884
242.933
77.6115
-75.1684
-167.112
-163.414
-81.1959
10.3311
98.0422
25.8319
4.03136
52.9318
61.1797
-60.0011
-206.272
-150.283
-174.103
-184.338
-79.4961
137.065
121.338
68.7585
54.2171
338.172
308.056
184.8
168.742
-27.2356
-167.604
-269.262
-389.84
-391.517
-148.249
196.776
157.915
39.5055
5.23555
44.7555
36.8126
-73.3936
-8.95438
103.407
52.9557
-140.54
-157.031
-56.4082
48.7975
58.063
104.664
223.111
261.838
158.829
-38.3316
-159.045
-44.6278
-91.5708
71.8649
151.334
126.859
36.7399
2.70393
-55.819
-86.8004
-107.657
-33.3136
-94.4351
-68.2536
-35.7593
-99.6365
-62.0817
58.2639
14.291
-68.6525
-125.975
89.8251
240.532
89.9519
-133.308
-174.328
-151.178
-214.337
-204.907
63.181
251.337
371.799
205.768
-79.2571
-87.7732
-94.5356
12.0983
219.235
257.195
228.463
106.036
-60.0208
-66.6508
-103.696
-141.858
-97.5456
-67.5234
-83.6715
-102.903
-258.483
-278.216
-315.575
-165.131
-0.13795
142.648
192.48
142.774
68.4183
96.4488
14.997
69.2146
41.1424
-61.1869
116.64
201.345
122.56
119.351
186.886
290.675
193.12
12.2279
-51.7105
-237.005
-316.03
-267.24
-114.026
-9.46783
55.3296
177.208
278.035
229.472
232.413
96.4683
-160.641
-198.289
-189.226
-244.041
-242.416
-193.387
-54.0303
-32.6627
-77.8178
73.7809
162.626
83.6307
-53.006
-184.647
-351.976
-220.077
-174.201
-90.2334
-70.5
64.8445
164.361
227.385
206.23
231.215
113.313
49.9598
-27.8665
29.6252
140.906
94.7458
58.667
203.341
253.467
196.869
88.0216
-136.32
-119.078
2.98424
47.9543
33.0542
-2.69899
-87.2195
-112.081
-102.482
0.0934643
58.9692
-65.9621
-142.758
-64.2799
62.2462
58.5407
-116.438
-255.734
-268.291
-151.882
-121.281
-133.831
-163.079
-104.332
40.8498
151.373
55.7004
-57.658
-123.15
35.8608
199.945
283.323
160.602
103.352
200.449
221.301
127.105
95.0068
40.0758
52.8521
101.843
207.368
185.006
32.7675
-169.451
-112.318
8.05486
49.5969
-67.831
-255.96
-358.525
-406.473
-406.114
-282.872
-16.92
106.602
237.19
264.695
187.261
169.928
104.996
-73.3019
-135.733
-27.8888
-65.4505
-213.976
-166.393
-2.73461
68.1988
45.7237
15.4507
63.6581
52.2675
-61.0831
-181.303
-62.4604
173.8
260.02
236.569
153.655
226.085
33.8792
-83.702
-128.981
-41.5937
-63.7986
-122.85
-138.066
121.167
193.983
342.023
207.839
43.9565
-88.5381
-171.932
-244.952
-170.956
-127.469
-84.1229
-107.464
-247.893
-132.897
-48.0423
-45.8685
135.214
127.75
137.268
102.717
-49.4225
-88.4929
-109.289
46.8995
165.609
328.168
211.575
-33.0501
-201.197
-67.9631
93.9223
101.385
-23.109
138.04
182.388
17.8973
-145.94
-180.583
-174.76
-125.595
-117.463
9.04429
74.9147
147.045
191.396
-65.5001
-143.151
-82.4446
-134.415
-195.775
-117.418
-35.5238
100.39
84.3896
33.9178
-13.5109
-35.1765
-38.6079
13.3239
218.091
222.79
11.4934
-62.607
-73.5843
-2.02032
113.502
115.426
106.724
125.608
-103.908
-264.845
-170.358
30.8381
20.8531
-109.575
-106.068
40.461
152.811
298.617
242.03
321.419
287.462
-34.839
-258.884
-250.804
-263.363
-140.972
-52.2482
-155.278
-156.254
-39.7739
38.5825
-21.3194
-44.3099
150.981
134.534
-59.5871
-95.5796
-99.8603
-76.9081
-96.0165
-24.9956
115.89
72.557
-12.6603
-13.1048
13.0855
35.9148
-16.7806
149.165
328.329
280.343
107.075
-16.4942
-67.4636
-3.78001
-112.035
-239.071
-230.011
-167.402
-52.8714
131.172
246.89
330.645
179.359
63.8796
-71.0875
-144.975
-20.9013
-62.7228
-248.793
-278.127
-117.415
-51.4887
-62.8667
-76.1033
72.7117
316.349
322.875
144.817
-62.9183
-218.949
-303.67
-169.827
-41.8475
94.2723
205.421
195.903
130.41
103.318
11.9712
-159.03
-311.436
-215.638
-101.551
82.2148
116.727
144.457
187.752
105.025
-1.71245
47.9566
169.558
-32.4858
-64.1677
34.6105
66.6263
20.4029
-187.961
-287.303
-179.799
-5.15051
105.373
171.975
109.106
39.822
39.6215
-36.5849
-176.298
-32.2493
-19.8756
-220.573
-244.073
7.53447
141.798
75.1574
28.8021
138.424
247.677
125.849
36.3745
35.7378
2.4683
-70.978
-31.43
113.591
68.0309
2.98868
16.9664
-35.2336
17.9052
42.7198
-161.598
-140.487
-87.9937
-45.8971
-15.54
44.313
9.42692
-132.138
-207.366
-109.483
-61.4245
-3.95864
84.1732
33.3078
49.7858
58.4675
75.0048
100.169
19.4445
-42.6641
33.5838
121.834
-21.8365
-114.728
-95.1004
-160.826
-45.1169
288.275
275.694
68.1191
-52.6898
-157.462
-158.76
-21.9911
62.0452
106.072
378.512
434.086
248.112
28.8797
-118.694
-235.004
-204.295
-278.832
-253.563
-5.73901
5.61506
-142.937
-162.166
-102.499
99.8776
199.303
59.1196
-6.94953
-127.147
-224.894
-236.674
-97.6849
75.2822
173.189
181.218
117.091
68.6191
51.1746
-25.6014
-103.231
-92.2843
-34.3544
-39.6869
90.8622
112.159
74.1739
81.1019
10.052
130.674
175.168
-16.4738
-116.478
56.5364
71.7433
8.78061
62.3727
102.137
42.5917
27.7695
-65.4247
-60.2531
-114.589
-0.442056
45.3768
-80.2278
-158.163
-119.976
-47.6607
114.084
-22.7037
-91.5988
-100.44
-159.303
-75.8076
-32.6215
-164.582
97.8623
238.499
124.191
-18.0071
-114
40.0707
148.278
40.9063
-85.1131
34.0834
117.8
3.56385
-98.9492
17.6748
-12.0975
-194.385
-252.743
-115.668
77.2115
149.521
131.213
348.312
380.844
218.322
94.1299
-14.9663
-183.289
-140.186
111.885
93.3033
-45.0659
-213.647
-309.461
-186.877
-139.837
-50.2479
92.6648
99.7685
101.729
69.9185
-62.9466
-227.251
-230.433
-45.7767
-13.176
-28.7928
65.3868
39.6141
-26.0312
-80.8696
-3.24423
243.709
266.979
97.0708
-68.9516
44.7848
244.999
190.186
-53.8481
-67.051
-106.544
-86.0646
40.5313
260.274
385.358
85.8718
-274.481
-207.679
-166.282
-123.798
-106.979
-66.798
-5.01512
-13.5929
82.5216
-42.4882
-182.467
-243.703
-95.5745
-9.86453
-53.206
-83.4817
-100.442
-122.502
42.6465
426.562
488.847
189.72
131.704
36.7498
-91.1397
-199.642
-288.455
-174.993
-25.5145
181.298
353.893
305.463
22.1918
-121.626
-187.214
-56.5097
41.044
12.7723
-96.0673
-203.613
-141.89
-112.132
-195.013
71.2073
218.096
124.543
168.117
232.792
132.451
-31.0114
-200.768
-138.874
57.2134
11.4348
-17.9877
-94.9415
-106.507
-33.7397
66.4107
34.3458
57.2244
290.179
315.227
44.8297
-88.429
-46.5622
-146.184
-393.991
-360.996
-244.606
-243.476
-118.454
37.7436
287.461
376.107
249.613
314.869
220.331
59.3255
48.7331
45.1614
-150.104
-281.019
-384.017
-237.679
-91.6931
-32.5515
284.605
415.893
242.824
7.35724
-199.508
-166.337
-105.611
-99.7436
29.1804
21.9454
-82.9391
-135.25
-245.885
-187.745
-121.794
53.5841
319.34
314.537
315.316
337.674
148.987
-116.636
-216.831
15.6126
172.091
85.271
27.0282
52.1135
-117.8
-277.226
-232.333
-220.596
-47.1032
167.204
84.5069
-34.6772
-145.822
-156.823
-173.285
-102.547
-126.379
17.4643
197.212
163.057
298.549
405.551
219.894
76.0323
-59.5527
41.8641
184.534
127.388
49.3856
-182.199
-265.449
-498.375
-411.706
-252.326
84.6636
113.339
-1.27196
14.1109
-83.917
-217.608
-114.706
151.99
213.823
188.668
342.555
266.176
52.9966
-127.328
-92.2997
47.7788
118.645
64.3641
-24.8286
-73.6976
-177.086
-131.836
-82.513
-86.7787
49.751
103.728
97.6897
52.8933
-71.6524
-93.1596
-195.717
-283.638
-165.185
-79.1447
40.5385
207.82
152.572
111.736
164.051
175.989
75.7186
-13.5118
-21.0808
-35.652
61.3813
267.625
201.501
106.48
144.683
-25.4483
-98.5834
-155.255
-132.103
-148.8
-207.188
-174.713
-44.1329
18.9493
72.0846
140.699
76.9243
66.166
-6.47356
-51.4214
-158.926
-265.828
-243.447
-248.529
-56.2832
-56.5331
-68.1079
55.759
136.355
63.3004
32.9117
64.8711
200.665
251.245
197.63
77.3606
28.263
65.297
92.2415
22.5656
-44.5293
43.8559
112.885
27.202
-165.515
-131.384
-9.54907
32.2901
-43.4081
112.801
11.7092
-65.2742
-236.863
-249.836
-137.209
-110.06
8.89816
172.617
349.616
319.041
293.881
161.828
-16.8733
-169.196
-317.087
-263.589
-89.761
-27.4228
-91.2694
-156.836
-111.985
-111.298
-63.8671
-47.9119
-25.4591
-68.0634
-5.87102
22.275
67.0512
127.302
66.1124
-68.1117
33.4875
115.201
133.838
146.845
101.249
101.254
41.9176
-6.96282
221.079
261.318
203.418
45.9062
-116.549
-90.3761
-91.7855
-266.151
-275.07
-180.98
-124.008
-38.7838
49.683
177.663
227.785
123.072
18.7033
-29.385
57.7198
49.0684
-130.33
-282.241
-315.88
-301.894
-178.475
144.006
293.82
316.28
198.706
106.368
129.561
124.131
-150.144
-296.135
14.6504
81.643
-46.4117
-115.557
-68.3936
-31.0973
21.2112
20.4947
6.42452
74.0852
22.3515
-66.6087
-126.827
-52.8408
-85.4186
-145.196
26.1142
102.999
167.034
195.225
-5.28671
-8.24926
6.3365
-131.538
-227.176
-135.633
-104.221
-24.6611
222.86
550.299
579.371
169.675
-31.3843
-14.9587
-80.4237
-68.839
-111.09
-7.37753
51.8738
-119.784
-440.237
-310.604
-111.519
-1.1019
125.785
111.823
152.575
59.3864
-124.182
-376.542
-367.488
-50.3481
30.7114
11.68
73.6527
115.292
24.3623
-160.253
-116.312
39.3139
119.314
99.4086
83.3161
202.743
276.218
254.471
380.014
360.632
263.866
95.2966
25.9899
-42.4309
-192.926
-421.18
-405.664
-159.07
-234.285
-127.958
-48.4843
-63.296
-78.9377
-32.9652
-33.2946
16.8469
297.385
472.892
71.3594
-101.319
-130.506
-166.71
-243.195
-234.368
-75.0282
136.088
246.631
112.442
-42.3568
-46.4341
-41.6757
-43.1424
-58.787
-106.703
62.2077
82.9505
-40.784
-108.677
-123.317
-23.5313
120.555
192.154
230.873
270.434
280.525
103.882
-18.915
-99.891
-97.6299
-137.507
-51.0622
20.3767
107.936
155.48
174.212
112.775
-195.4
-460.294
-250.193
-106.59
-91.412
-35.4143
-6.81256
-129.438
-203.339
-105.958
0.986677
-43.8029
-7.19849
73.6984
76.0636
244.548
516.192
294.231
-92.0777
-17.567
69.327
40.7251
120.926
201.108
93.0232
27.6113
-119.409
-232.624
-185.751
-225.016
-275.858
-90.7067
137.771
111.061
93.1406
-49.1539
-109.831
-20.0616
-80.4454
-159.526
-131.978
-110.576
-104.812
-71.0161
-58.8003
83.7205
231.985
255.726
153.332
122.578
151.202
139.635
25.7881
15.587
16.0155
-105.708
-85.6856
9.26674
172.383
257.982
224.577
-22.8249
-196.555
-150.771
-122.478
-119.176
-131.983
-69.7454
-93.2205
-7.54933
-41.4707
75.1346
198.222
8.4821
-129.611
-137.11
-222.555
-154.282
-100.783
-56.1322
169.082
281.266
88.6899
-51.1617
-55.9332
-106.962
-138.775
25.954
135.716
86.0311
56.0867
-43.9406
-71.1154
-37.4687
46.5144
303.768
451.225
338.638
162.243
-84.7857
-353.195
-286.696
-173.207
-62.9376
-25.0165
43.2754
112.355
54.9831
61.7204
-13.1911
-163.894
-112.766
-39.8425
79.9591
139.42
49.2403
-206.363
-328.237
-357.124
-253.802
4.49367
187.69
234.813
186.051
282.59
154.253
11.2599
32.305
-33.2878
-81.985
78.5006
-40.5931
-31.9487
111.193
191.016
108.491
47.6639
20.7721
75.5936
26.9201
-121.656
-138.227
-93.6509
-123.323
-213.614
-164.722
-39.6308
-82.6977
-29.3718
51.6772
-8.43889
125.464
159.621
6.45441
-16.1272
-174.583
-223.431
-146.858
-55.4164
-20.2322
1.16936
5.96831
70.0131
69.7832
179.229
335.671
219.633
22.495
-11.5089
11.4405
16.0256
43.7904
108.421
141.03
48.493
133.198
196.014
3.97355
-104.621
6.97118
-39.6041
-84.3402
-285.618
-305.542
-277.962
-280.356
-37.4651
179.125
85.6994
49.8695
9.41828
-91.9601
-117.3
-246.783
-284.939
-45.7793
94.4531
140.945
33.3356
-22.1043
-4.33224
6.94497
61.8092
293.167
456.424
403.771
111.912
-39.4576
56.7753
54.7325
-18.3066
-95.0341
-82.4425
49.52
-85.1631
-268.466
-359.53
-240.152
15.463
188.135
239.392
156.519
132.694
146.797
93.2089
-87.1865
-107.641
-199.266
-134.411
-6.08937
-16.7051
-5.67038
70.4403
-53.0778
-129.134
-155.506
-122.96
34.3615
133.261
65.261
43.421
94.1791
56.2693
-169.297
-276.403
-207.316
-98.4068
23.9521
60.4321
72.4577
157.828
77.5993
-58.3241
-53.002
10.8777
242.114
451.659
345.858
113.814
-15.8089
-76.6212
-113.635
-218.354
-274.274
-124.755
-19.934
56.8455
250.806
299.45
121.572
17.4447
-34.7994
-173.354
-91.0857
-59.1882
-171.16
-196.795
-175.68
-87.4284
16.2481
-134.214
-181.884
40.3339
187.404
171.874
291.027
368.352
164.157
-188.367
-344.279
-173.17
-7.63312
60.5398
-29.8342
-64.7014
-128.344
-241.806
-159.497
-102.98
-45.4907
442.339
625.138
374.488
89.5039
-122.961
-207.717
-297.736
-340.786
-109.54
14.1035
-37.0586
0.789666
130.046
172.424
184.864
168.612
188.35
229.892
274.576
-1.61615
-321.014
-394.612
-241.499
-101.192
-103.976
-12.4389
178.694
114.149
0.0464825
32.3112
109.84
-25.884
-190.427
-159.864
-50.6249
-2.3434
-31.8428
-74.9423
-134.979
-10.1903
78.3229
107.34
188.105
108.326
68.7266
-61.2715
-184.721
-110.771
-148.083
-15.7176
161.263
243.065
315.685
377.433
414.9
159.048
-191.286
-303.96
-109.848
47.2674
-123.202
-196.008
-249.34
-202.107
-135.076
-81.6771
-122.401
-91.4761
7.37762
-49.6191
-84.4423
28.5002
50.0243
15.0224
-75.5052
-31.375
208.009
312.003
206.012
33.1422
-80.4572
-133.601
-71.7356
88
152.871
172.169
221.321
189.004
17.0305
16.2975
-71.6188
-122.011
-79.088
-76.7638
35.0344
34.2056
15.8465
0.442793
-89.0084
-185.704
-110.037
-52.5692
16.4233
13.456
-46.3572
-41.9531
-86.1251
-115.018
-18.26
18.399
6.20573
60.291
81.2787
-0.795739
-99.6425
-14.7603
16.7886
-4.63482
-36.0751
-30.0737
136.381
273.294
131.631
-1.5595
4.9286
-133.59
-173.584
-66.4926
-118.956
-12.8789
226.564
229.425
105.387
-18.6797
-114.449
-89.8027
-140.89
-149.014
-48.3437
129.536
169.555
164.542
162.771
144.675
-33.0473
14.1048
107.998
73.2265
166.951
-19.8092
-256.149
-313.034
-337.621
-209.232
-94.756
-56.2781
-29.3699
-43.2006
-68.7527
-26.1448
-5.54717
-56.7472
27.117
97.0818
197.056
137.25
67.8739
67.1918
89.8794
148.101
215.318
275.066
201.165
18.9275
-127.378
-98.7352
-4.84911
-18.2942
-157.259
-251.707
-69.6433
-55.7366
-143.702
-114.889
-45.9147
-19.4039
-69.074
-183.518
-160.702
-14.4657
-6.95292
71.4424
139.693
203.456
166.626
19.9629
53.4643
142.44
157.139
23.8625
-161.373
-117.659
-62.0384
-56.1055
190.277
440.845
302.46
104.489
-23.1966
-108.59
-235.119
-479.047
-333.987
8.84961
37.2931
62.5074
232.849
233.294
55.7309
32.9858
-109.369
-94.0273
-47.57
38.8789
-35.9987
-206.041
-201.022
-91.1761
18.684
-35.0903
28.83
102.513
68.7974
-146.501
-167.383
-64.0677
-87.7806
-92.2615
71.7658
252.561
319.556
130.356
49.2914
80.0741
22.7568
-84.0883
-27.1672
50.4988
-31.4803
-29.0744
-97.7034
-85.2217
14.6904
109.314
103.003
113.101
174.089
117.428
146.37
70.5963
2.33351
29.3788
-84.9686
-472.008
-485.356
-167.685
-19.6043
105.258
161.997
131.046
75.2956
23.0782
-110.192
-234.204
-25.5921
-51.4946
-235.302
-179.024
15.014
189.264
184.794
63.7716
130.482
351.362
249.265
31.1873
28.3806
30.7092
33.3544
-204.386
-124.594
17.1301
54.5437
169.668
74.6507
68.4284
64.4794
-117.341
-201.479
-116.016
-208.77
-180.969
-158.893
-105.552
-62.2962
-101.169
116.505
75.1808
-107.687
12.3431
67.1546
8.7646
101.731
118.475
-7.06122
-4.46722
96.5622
331.959
296.473
25.6912
5.04627
-26.7855
-21.6857
-43.0256
-103.38
8.91954
-6.27649
-71.2875
-94.7832
-47.7455
-69.0803
-169.176
-289.476
-103.834
80.5808
137.841
111.631
-74.4738
-159.395
75.5702
217.705
181.333
34.3748
-69.4264
-94.8906
-33.9353
-81.3202
20.0253
358.327
437.478
198.211
74.278
-31.4148
-129.168
-192.06
-237.244
-258.818
-169.994
-162.124
-155.04
-167.074
39.8467
137.847
8.594
-35.8773
-40.9029
-58.6768
-14.4277
147.947
294.546
177.63
136.964
150.139
1.976
41.2279
48.8166
-35.1364
24.4386
-67.0112
-211.257
-84.5465
65.7646
82.8995
42.9415
65.7242
173.758
54.1697
-143.243
-301.569
-407.681
-281.289
-63.5776
165.21
317.244
153.987
49.4866
-47.2019
-172.96
-68.7216
-144.496
-160.094
-86.5057
-50.9426
186.38
344.364
190.543
87.9984
-5.57582
-121.439
73.653
163.328
125.173
35.027
12.6356
-16.5727
-172.552
-84.3557
-64.6345
-70.8655
31.4361
191.879
207.021
150.327
-21.4746
-156.352
-229.369
-185.542
-90.5885
160.373
210.676
107.655
-140.129
-208.951
-239.17
-110.073
-10.2147
-46.0639
32.9539
-16.5429
-18.3512
-73.574
-86.5194
-0.0922228
-73.7353
16.9541
81.0379
217.753
360.865
363.355
282.104
4.10846
-131.372
-26.3852
6.69268
4.91467
-43.1837
-90.4901
-82.4314
8.876
-93.6796
-146.068
-109.293
-185.218
-97.272
-34.6685
58.9184
107.283
37.6583
-175.661
-144.766
76.6906
156.782
-55.9669
-38.2651
-30.1319
23.8114
-12.6243
84.3683
141.16
71.1275
-87.5054
-171.803
88.3588
262.131
146.643
214.342
232.149
101.642
9.19679
-132.528
-102.397
-81.7251
-199.698
-217.503
-72.0242
155.473
221.021
184.006
168.163
83.9928
-150.061
-252.099
-172.473
-277.773
-293.394
-379.713
-319.854
-44.2825
89.8933
-27.1829
-76.3614
203.971
373.144
418.307
200.309
-5.92539
-37.7276
-137.061
-283.586
-107.776
328.135
464.835
212.862
112.827
138.677
79.5364
-112.672
-238.807
-341.537
-134.812
60.1799
86.7394
83.5461
-25.7426
-152.958
-325.287
-273.278
-28.712
148.729
129.779
31.0774
-89.9975
-50.0288
25.1226
168.772
245.747
169.558
200.465
121.048
-131.612
-177.543
-115.924
143.95
175.291
15.787
-36.6366
12.4982
-70.0939
-12.8944
-27.9845
-10.3037
169.045
250.339
36.7546
-245.341
-327.583
-279.005
-227.528
-171.446
-150.214
-71.2633
-46.0972
-70.6004
-19.4929
206.646
237.512
8.37554
-186.472
-105.964
75.7147
115.593
69.4612
-24.6287
86.0265
240.752
186.46
134.636
84.2546
71.5943
107.024
172.814
79.1701
-15.2802
-52.2973
-62.5504
-68.8705
42.2826
141.462
36.3118
17.2704
-101.369
-265.378
-357.63
-227.089
-126.879
-1.52995
99.2694
93.3894
53.6981
24.6088
-50.4412
-142.727
-301.373
-206.653
54.4147
222.767
211.187
135.405
62.3808
4.41152
-19.397
-84.7841
-133.696
61.2195
171.601
137.484
132.31
121.967
93.8659
48.2523
-45.9109
116.024
116.238
-204.668
-494.017
-363.09
-42.4862
155.315
239.798
259.584
175.774
118.107
89.2417
-45.3476
-113.662
-186.774
-323.238
-203.445
-45.426
46.9148
113.098
-100.152
-192.793
-76.6905
29.1435
176.181
31.7375
-34.8324
-21.1234
-40.0615
86.7386
223.744
262.553
193.903
-65.9663
-144.9
7.17474
21.7571
20.3493
40.785
25.0768
52.0678
-33.5175
17.1206
130.424
143.941
107.434
25.5993
-63.9361
-305.424
-400.477
-268.127
-201.895
-133.067
14.4925
208.6
302.473
252.817
115.25
-17.6472
-28.8291
-35.6883
113.507
53.3058
-86.798
-252.709
-366.965
-324.674
-32.648
170.327
254.453
88.3521
48.8722
14.3862
-44.718
24.4337
92.9591
10.0586
-28.7954
-94.2226
-75.1264
182.632
415.114
225.041
136.623
21.3407
41.815
-37.07
-130.706
11.516
-21.889
-175.185
-25.3932
-4.92987
-65.5811
-234.844
-308.048
-129.008
8.65703
8.14241
-69.5071
-120.965
-167.556
9.23034
179.436
242
212.568
160.546
41.6908
-101.384
-66.2437
106.283
-38.0727
-145.595
-49.1408
-10.9699
144.515
274.94
245.133
141.016
64.3976
-65.8345
-240.462
-364.153
-323.28
-268.19
-65.1498
217.853
383.706
366.677
235.731
124.857
-60.8286
-162.026
-87.8007
-101
-111.412
-218.926
-228.313
7.2024
137.084
-42.7183
-33.3143
131.192
204.715
126.44
-58.8515
-189.844
-388.281
-324.413
-157.17
59.436
345.774
500.455
364.463
145.828
-119.415
-185.137
-236.541
-75.814
42.7672
100.972
114.466
76.7627
37.6318
14.2545
-48.0388
-171.223
-138.16
-50.2244
29.1078
32.1985
50.1944
-40.1113
-182.554
25.4303
146.582
37.1034
-11.154
-88.9076
-76.9491
16.7285
5.44194
19.7277
25.6099
36.8471
94.7824
119.013
193.334
150.962
-75.56
-263.848
-313.166
-290.371
-20.1802
188.283
170.592
162.171
192.643
8.82735
-118.461
-81.6488
120.619
223.292
70.8317
-66.3635
-55.4822
-59.1102
-86.5855
-147.234
-109.962
-9.00741
43.9615
42.4951
-13.4306
-103.596
-71.2508
-22.4031
-49.4298
5.83723
236.481
305.418
-36.4391
-193.359
-82.7266
-105.536
-163.424
-139.161
116.652
179.158
158.278
97.4772
-46.4153
-21.5476
-155.023
-157.288
21.5419
192.042
361.81
202.316
-93.8579
-284.634
-243.28
-87.2336
62.5905
113.464
123.717
88.0999
-145.492
-144.053
-122.954
-137.963
-51.5382
23.3324
162.518
-17.103
-251.947
-229.664
-126.695
156.398
370.146
457.067
501.858
177.807
9.69486
147.289
80.5446
-56.43
-251.207
-316.379
-133.123
-73.5846
-123.477
-238.928
-272.904
-52.319
213.363
324.141
338.433
125.522
-130.988
-277.908
-250.738
-119.674
-147.878
-203.888
-95.0432
152.842
221.241
160.181
36.0719
-6.44795
0.0310192
35.5409
176.835
159.455
179.752
15.7339
-211.171
-217.589
-194.265
-158.347
-79.7996
-35.7318
41.8996
-27.1116
4.54723
100.668
184.093
186.372
186.091
48.7705
29.9926
-35.5261
-122.126
-74.3787
-56.345
150.903
237.107
128.262
24.082
-63.5617
-114.05
-57.6398
-50.1257
18.3626
-91.0672
-250.236
-285.206
-196.973
-139.834
-130.008
-80.6139
150.645
294.996
290.347
317.663
310.561
106.963
-168.324
-316.066
-141.061
-85.1209
-80.2341
-41.9595
112.887
101.35
-11.1601
-92.1889
-45.8996
73.7326
297.734
393.391
355.74
48.8714
-89.0629
-270.471
-452.9
-323.203
-134.205
-50.401
21.4197
32.5372
3.24009
-41.9971
11.6123
92.6114
-1.56882
0.207102
46.3023
-28.9589
20.8671
63.4524
92.3895
161.925
82.1962
-37.1024
-119.473
-106.652
56.8918
128.773
0.974529
-39.5682
3.64415
14.0886
-136.021
-109.866
81.0309
78.3607
37.7482
48.3634
-27.9964
-40.5647
-96.8937
-177.984
-180.741
-127.052
42.91
104.842
95.2677
25.9432
38.7624
58.8335
24.2298
94.9156
299.068
283.707
189.219
129.385
85.0968
2.12016
-211.295
-289.561
-156.721
-152.738
-183.162
-216.838
-267.499
-208.82
-69.2383
317.041
365.892
119.763
73.85
63.1564
133.115
185.807
-35.935
-253.272
-323.884
-194.253
82.5351
158.488
-41.5257
-159.159
-60.4446
-51.7328
40.8009
378.179
311.546
-4.44479
-103.362
-8.35308
19.5449
0.710754
-251.324
-201.589
8.43295
31.1987
-18.3883
-66.9844
-148.618
-131.337
19.8491
305.457
279.156
314.818
236.702
-42.4436
-77.7884
-126.108
-161.237
59.7687
162.445
6.13277
-127.731
-309.924
-245.898
-53.4092
89.7539
141.456
327.824
344.474
1.68899
-215.435
-152.521
17.943
37.496
-59.0361
-36.3151
-142.776
-147.91
-133.857
-157.353
-132.729
-143.188
-236.796
-221.502
232.506
423.819
313.353
221.345
91.1346
36.0772
30.9741
-144.82
-153.44
113.47
299.554
56.8717
-19.0766
2.82532
5.03798
38.638
-41.7186
-47.4733
106.304
113.055
12.1026
-10.9889
-146.7
-368.274
-455.462
-297.789
17.2361
256.506
448.772
382.664
115.341
-120.817
-286.223
-259.651
-97.505
-64.2022
135.661
196.116
200.806
167.185
-150.8
-349.59
-178.6
57.0899
155.738
180.198
93.5071
17.4638
-123.601
-272.742
-282.494
-127.766
163.095
147.332
54.0085
-3.62206
-23.7802
25.9635
62.8045
103.919
184.559
204.986
237.783
183.201
112.877
40.0641
-149.745
-175.371
-121.703
-216.279
-318.766
-286.101
-194.908
10.4599
95.4469
247.016
323.772
157.229
0.319437
-62.0096
-86.4097
-32.8077
-87.1331
-50.8639
-40.1915
-99.8807
7.18755
149.989
170.912
137.34
79.8216
91.5944
109.397
-35.1307
-113.772
-187.809
-237.259
-206.606
-196.276
-97.9904
-15.6753
108.344
95.8255
28.6011
60.6043
100.046
129.042
34.8764
-243.202
-392.165
-66.8396
180.03
161.328
103.164
18.638
39.5556
170.062
264.47
135.812
278.51
506.208
329.135
17.6946
-156.385
-165.586
-214.075
-336.858
-380.011
-157.459
-20.8155
-9.62676
-81.9317
-114.112
-57.9289
-148.381
-112.382
-106.02
-126.03
28.3207
7.56838
-195.819
-251.204
-112.109
87.2646
115.084
67.5626
163.204
300.899
340.872
378.537
227.36
69.1398
13.4756
184.316
219.108
56.0846
-102.784
-268.07
-344.597
-297.514
-180.218
163.91
276.043
217.753
212.526
162.509
3.24096
-141.716
-233.869
-81.2146
36.4938
33.84
-121.244
-360.781
-265.702
-182.694
-238.671
-196.988
90.2108
92.3186
143.26
67.6573
40.509
-14.6832
-51.1396
7.10695
20.5697
44.3723
19.7046
-55.0323
-67.7497
114.377
321.094
308.403
83.5999
-36.2552
-29.408
221.469
145.318
48.2789
-99.6036
-144.114
-16.4944
113.904
184.464
166.421
-51.6162
-213.58
-245.023
-68.4104
273.301
105.825
-221.531
-164.745
-30.2363
-41.026
-38.4096
-177.863
-221.373
-244.574
-242.462
15.2797
118.654
-36.3816
-128.504
-73.4676
104.903
160.337
73.2827
80.3248
-4.09893
4.8717
77.4202
57.6829
131.025
183.358
106.1
137.643
60.6262
95.1928
182.174
109.961
15.1122
7.00617
-62.4243
-140.407
-5.37728
46.3571
125.919
66.5489
-72.774
-156.007
-165.593
-220.827
-164.301
-25.1566
105.595
137.439
11.19
-87.7371
-171.448
-353.451
-336.679
-81.9985
54.0404
50.2522
-14.5044
68.4384
158.655
27.6065
-121.489
-128.099
139.975
371.669
253.308
84.616
-50.349
-135.036
-29.5216
98.382
225.854
387.164
230.22
-99.018
-184.643
-57.4492
-9.47047
-81.9492
-46.0264
10.129
-9.81786
56.1121
55.152
-45.7106
-99.7308
-184.698
-246.023
-267.818
-34.4433
162.667
139.974
-36.8165
-75.3122
0.169125
41.5773
-74.7379
-65.9774
102.891
127.856
92.8419
38.9873
63.8093
-95.3004
-273.767
-169.943
49.086
99.8398
181.635
169.045
106.968
41.9135
-156.847
-221.039
-43.6476
90.4021
228.074
266.182
84.7968
-130.093
-329.107
-153.08
225.977
279.358
142.767
-58.3571
-179.317
-44.6244
-9.23204
-34.9447
-87.3294
-176.384
17.4728
225.627
51.1889
-124.255
-196.934
-188.47
-133.87
-10.7564
10.9565
-76.8196
-204.839
-162.563
4.50028
279.656
343.154
307.409
355.646
251.409
-75.6472
-197.021
-148.732
-90.6871
-26.7388
70.6864
206.388
217.554
-47.0775
-63.9651
82.8542
0.254474
-255.509
-358.842
-357.87
-153.98
18.4902
192.667
148.324
55.7431
160.949
136.893
46.7116
-14.544
-2.90784
-65.1863
-254.703
-349.165
-202.424
-130.902
102.123
279.808
284.251
225.659
265.761
104.023
-138.78
-277.195
-280.46
-147.11
202.294
284.281
76.348
11.0891
-5.79602
41.5591
115.978
44.2803
-29.3169
-92.957
-160.858
-168.151
-133.281
15.0852
72.0807
-34.5916
6.61469
229.345
265.596
191.045
-57.1728
-213.328
-100.969
-76.6467
-27.9376
-4.31015
-93.5752
-99.0199
-9.15631
34.9301
-100.55
-206.522
5.39866
152.1
187.89
53.1241
48.7915
39.7739
-41.4992
-161.309
-212.121
-26.6709
202.705
20.1663
-74.1516
-54.8471
58.2674
134.147
116.626
10.2301
-44.9946
123.78
153.315
167.71
40.6267
8.79258
-36.3141
-200.802
-230.54
-94.2949
-12.942
-72.7124
-82.4445
70.6333
11.8449
-69.1854
1.55906
56.3732
179.986
250.364
235.452
49.9582
-123.799
-196.406
-294.409
-177.197
-9.97473
-45.0816
134.641
121.046
32.5473
8.89601
-207.58
-155.027
170.169
154.794
122.193
128.153
13.8545
-67.3994
-109.631
-125.634
-44.616
-76.7174
18.5495
111.733
76.017
7.58041
-92.2062
-40.0956
-61.1248
-66.8819
65.059
126.499
15.4135
-19.9295
-68.4622
-77.1546
8.90487
107.779
226.904
257.081
118.644
79.5229
172.468
73.865
-109.57
-223.213
-274.441
-146.745
-79.2064
112.599
155.209
62.4924
-58.0836
-168.129
-274.427
-273.839
-161.454
-123.836
-199.02
-201.245
-95.3715
38.0896
219.436
283.806
390.141
352.491
151.783
20.5279
61.137
46.54
128.608
84.1603
-31.2086
14.2223
12.4318
21.3132
2.74856
7.48756
24.5286
-38.4356
-219.299
-250.297
-229.949
-202.646
-63.8361
165.522
110.531
-138.42
-239.967
-294.311
-124.953
56.0019
152.508
247.953
259.953
138.729
-20.3747
-84.9447
16.2828
136.622
304.275
306.667
110.506
-66.2623
-322.33
-434.654
-208.098
96.0339
320.074
415.237
258.335
106.751
-65.6803
-158.63
-89.9842
-66.349
-141.772
-148.619
-118.232
-12.0063
-103.621
-321.18
-68.3988
158.989
95.1866
26.1003
28.6895
-84.5752
-222.145
-135.095
-148.281
-78.9071
60.8756
72.9852
-1.61567
57.3044
229.072
304.417
54.7542
-88.1116
-25.1279
70.8673
-18.4309
-18.6951
43.0563
70.9467
76.4767
39.261
157.582
236.736
222.257
6.30419
-120.834
-87.1947
-16.0697
-84.6757
-130.623
-176.551
-67.3597
21.0678
8.97936
67.6164
49.7672
-137.584
-176.037
-6.31201
68.4744
42.8846
-170.695
-337.785
-269.463
-87.8426
52.7641
180.856
67.8851
76.4355
130.801
187.774
155.044
-3.38273
-155.347
-145.091
-29.3734
126.026
243.305
225.525
210.932
101.217
52.3646
0.671177
19.3428
47.2023
85.1003
143.198
42.8291
-205.799
-279.245
-273.685
-48.3739
-13.2643
-37.7777
-124.808
-290.3
-288.721
-220.011
-185.545
-43.5202
66.5422
90.4517
65.1202
2.11794
0.992333
16.399
-71.9406
-29.1329
256.63
409.487
339.645
217.245
210.297
199.639
147.74
27.6411
29.8005
-84.2048
-149.825
-180.768
-161.917
-110.098
-48.749
-45.1212
-125.622
2.56283
101.495
72.5501
-2.89763
-94.0528
-79.9212
-99.6763
-294.981
-276.459
16.2948
135.409
190.137
385.675
418.706
89.8032
-231.734
-221.193
-106.969
-128.492
-42.9855
-106.692
-225.548
-147.949
33.3563
167.818
273.724
204.968
180.972
132.07
-135.539
-206.051
-281.241
-238.98
-91.2946
26.8856
182.522
350.385
324.527
124.603
-30.3681
-143.903
-157.998
-19.7771
20.227
33.697
25.0351
70.4271
120.462
-10.2787
-77.7683
-4.6148
-43.3729
-134.414
-162.12
-98.9308
-23.2877
-117.681
-124.787
42.9455
89.4653
102.412
53.1693
7.78294
65.8051
2.49493
-169.318
-144.712
85.5531
158.578
135.859
69.4212
141.569
102.731
-44.3745
-54.0718
-29.2926
21.0751
-5.57151
-44.3233
-135.724
-156.562
-48.6322
-25.3391
-58.6991
247.501
595.96
449.261
12.3859
-87.1982
-66.8441
-231.584
-373.915
-195.881
-149.88
-163.392
-176.797
-223.619
-79.5708
111.572
185.093
161.353
346.568
283.411
-16.1655
-380.739
-529.858
-395.924
-247.29
-64.6162
199.783
381.796
357.012
157.756
81.6638
117.224
224.015
166.452
155.882
-47.788
-30.7606
-13.9621
-139.679
-112.278
78.0773
180.419
52.764
-121.078
-35.6995
-8.37545
-179.92
-233.423
-201.489
-183.997
7.21248
76.0697
83.9975
44.6526
-67.1056
19.823
244.104
349.456
180.782
53.277
-26.434
-167.316
-221.409
-86.2179
3.77594
-29.4671
-137.571
-53.3631
38.9267
21.9301
93.8441
94.7534
-49.5956
-67.3612
-88.9789
-129.819
-75.2807
-106.823
-1.64945
38.7961
-7.27435
-53.834
27.8052
66.4615
-15.96
91.844
312.389
292.083
231.861
-21.301
-159.28
-66.3546
-40.7046
-222.048
-147.712
-37.2338
18.8476
183.566
239.735
168.218
-61.2511
-151.785
-66.3789
20.1033
14.9712
-109.874
-200.469
-144.249
-101.982
-35.6453
43.7783
167.479
151.616
164.215
37.7065
-39.1734
-144.848
-200.673
-320.078
-255.991
-37.0871
68.5827
79.862
194.678
370.732
606.987
372.873
-73.9616
-226.724
-120.378
-118.568
-301.626
-261.706
-84.3427
5.9701
144.481
123.255
57.278
-11.1064
-49.7506
-65.7387
-51.1906
-10.2287
76.068
5.369
-124.533
-108.229
-35.3796
25.2916
93.599
5.42541
92.1572
196.99
272.186
96.9861
-25.0689
-38.7565
-44.6397
-80.719
-57.4477
15.5775
19.6965
30.3829
-49.5102
-46.5157
-83.7848
-93.5277
-91.7975
-103.835
-49.9423
-29.3299
140.341
160.773
89.0464
51.9357
-41.902
-148.541
-214.149
-213.009
-118.25
138.505
424.729
403.864
-97.6515
-312.216
-204.608
-94.0754
57.988
219.56
126.628
118.815
-85.0133
-177.3
-163.556
-114.581
-18.0468
190.859
250.195
260.48
131.583
-64.321
-226.845
-354.33
-157.039
111.497
-25.2583
-39.2742
-0.390601
-1.19182
83.6232
133.034
92.744
191.216
165.296
135.834
82.4661
-60.3368
-134.353
-97.5486
-59.7799
-167.931
-140.75
-96.746
-1.12135
-36.271
-22.8883
37.7189
-2.41916
-82.4903
-39.6645
-110.645
-130.993
-132.918
-94.8631
50.2336
125.277
6.40244
70.7428
154.086
216.15
453.592
357.39
181.599
181.606
110.58
-94.5225
-250.903
-123.581
-155.243
-222.169
-189.329
-112.855
-29.345
75.732
89.8643
9.86723
15.6508
55.0095
-44.7314
-190.585
-327.056
-363.482
-283.7
-154.948
33.5693
248.671
173.482
122.727
360.166
432.277
255.726
-17.7972
-65.2325
-112.235
-123.404
-36.5032
23.8863
-1.12344
9.91895
-27.7111
-25.8532
-22.9818
-0.725089
-31.4851
-88.0213
-110.08
-79.9001
-125.42
13.6848
142.123
114.796
104.637
58.4252
-25.6413
-79.5871
-149.354
46.9786
186.576
172.794
101.187
-17.5723
-45.1625
-41.9362
-73.6963
54.8804
109.27
144.816
180.409
-33.6815
-243.868
-268.376
-288.946
-261.652
-53.4648
20.2472
60.2328
-48.2086
-27.5922
92.8356
180.189
152.219
36.7127
54.4404
82.6162
-74.0245
5.25444
144.287
18.4733
-119.23
-75.6829
45.5487
158.987
112.591
-35.8882
-85.3022
-65.0951
-26.3473
-86.1207
-185.813
-128.767
-84.0595
-82.969
0.92756
186.301
241.756
51.9607
5.14286
85.8253
38.2873
-51.1511
-44.1192
-7.25392
8.82073
9.12821
-127.638
-35.8402
90.0246
27.527
-4.82984
-51.7282
-88.5501
-13.5352
45.6991
-0.994531
-30.2744
88.874
275.748
49.6729
-58.0469
36.8801
159.853
117.536
-33.3886
-142.646
55.3376
8.79741
-60.0602
-44.573
-73.3949
-86.2979
-145.222
-195.719
-68.5686
-54.2045
-43.4932
-33.7708
-97.4918
-8.39298
35.9461
-78.0007
-30.4817
-54.9585
-22.9763
9.26979
-57.8934
13.8963
14.9113
101.322
406.811
517.492
404.855
256.494
40.6285
-88.2474
-189.255
-265.103
-250.727
-191.751
-123.365
-39.0494
-91.949
-23.9596
65.7979
109.212
26.7718
-21.8293
38.5775
-17.8394
-140.145
-141.511
-42.238
79.8886
67.8298
27.1789
82.5685
173.289
96.756
-2.26472
9.06452
25.2017
-66.9886
-54.4897
-46.1905
-7.46459
109.421
54.4998
-5.00854
-18.2276
-102.619
-115.722
-116.376
-36.7669
1.80703
4.1351
24.6502
-44.5248
-97.5739
-37.6784
-64.2111
56.4965
88.6145
84.4727
89.3568
95.2135
54.9035
3.90903
-77.1315
38.0977
45.4189
16.7486
17.1489
5.65557
1.53071
11.4433
-23.9736
-154.113
-132.197
5.35762
112.45
27.5886
-16.6798
3.30638
12.562
9.91272
-32.3899
-27.1363
163.892
37.5353
-59.9032
-66.2015
-32.9554
-33.1689
-94.5167
-72.7006
82.119
102.926
39.7616
-2.15683
-23.9785
-30.825
-41.671
-98.9661
-21.0737
61.3907
26.2407
38.9505
-17.0528
-18.7246
12.8701
-0.670997
-63.6781
43.3125
109.576
77.618
-10.1269
-6.12501
-9.77434
-34.5021
-106.452
-85.1832
111.847
137.593
61.3022
3.8453
15.5566
33.2351
-2.05127
-14.9227
-54.4288
36.4708
78.3106
22.0882
-11.2873
-19.2164
-20.2858
-1.18076
-80.9386
34.5053
121.22
29.5775
-26.0884
19.9883
8.09471
-41.9269
-49.5718
37.7662
-22.5347
-38.6038
-15.9339
-52.2001
-17.4352
-48.5714
-99.2975
-5.71984
-27.6521
-18.8246
24.7346
-24.9917
-26.5796
-47.2036
-101.614
54.3115
62.5756
16.4542
10.4138
-32.2396
4.94226
32.5523
7.76956
46.7679
145.789
41.4499
24.9885
-0.776168
-4.28282
16.953
35.9034
-41.33
-79.578
22.8706
-8.12774
-90.1238
-81.8804
-50.975
-33.4362
-85.1423
-111.134
-60.9779
118.992
68.0209
-12.2481
49.1893
57.1996
13.293
-17.5017
-61.0092
9.55464
36.6045
32.8225
7.81195
15.2024
-15.0526
-31.4726
-20.0989
103.21
66.4744
66.2402
42.5045
-11.1993
-23.4099
-84.5283
-42.2155
116.451
100.071
113.426
152.057
65.7476
21.7255
-40.7699
-63.412
56.3788
20.2833
-14.1536
-51.2266
-103.104
-74.4918
-74.5259
-118.505
-120.384
-73.613
-32.7304
-34.7764
-76.3365
-65.7551
-77.5479
-82.2303
-39.3142
57.6867
125.638
118.608
-3.89876
-16.5619
33.6255
0.00927094
-37.2716
1.79328
-4.404
-0.881904
-12.0555
8.86953
47.5927
0.123087
39.714
74.293
54.8144
59.0752
49.9807
18.4147
-31.0488
-80.7625
69.1312
124.079
134.23
149.519
87.5953
40.943
20.7116
-16.997
86.0225
38.5087
-0.826735
-4.07316
-77.3212
-90.3108
-84.0403
-149.041
-100.571
-80.2071
-7.54832
-27.9701
-99.1474
-83.8016
-48.6986
-5.51484
17.5499
-86.1126
-48.9027
139.799
103.802
67.3835
26.7209
-3.02378
-70.961
-66.4374
-46.8646
45.5508
138.637
43.16
-31.0229
4.44295
-51.8194
-81.1434
-101.428
-58.034
-9.5089
33.0342
59.7815
-10.0976
-48.2778
-18.3432
-52.3635
54.9511
116.263
70.4392
25.8931
28.1198
-39.2055
-16.8196
-11.0047
-76.8038
21.0671
99.2197
90.0085
55.1539
31.8997
64.8545
74.5776
56.8592
-69.2153
-33.8317
75.8779
18.3981
-39.3934
-50.3761
-12.9792
30.4907
-90.0299
-82.2281
-0.396523
11.9778
-84.9005
-142.492
-127.515
-79.5845
-97.6531
-35.9381
3.70405
-19.3164
20.6689
25.9365
73.9319
85.7935
-6.7603
-51.6904
102.601
126.147
101.089
42.092
-38.4814
5.0654
13.436
20.6433
27.3026
138.219
231.978
162.687
64.3365
-25.9793
-0.965359
-32.5489
-148.912
-209.029
-82.0379
-2.10105
-105.592
-123.977
-66.4589
-4.78304
11.7332
4.40433
-25.6902
11.1736
2.09093
-68.7977
-101.442
-77.8559
-27.3078
47.3967
71.2614
96.0995
49.2084
55.9912
21.8201
-0.0215259
10.637
-6.73466
49.8303
34.1554
55.163
121.628
66.1884
18.119
-18.2256
-97.5144
-52.832
-52.977
-57.3013
-47.3863
-56.7995
-95.9354
-30.748
-5.14124
28.5702
121.73
8.57538
-3.01051
8.95952
12.9854
-4.09061
-47.0965
-47.8743
10.1871
102.117
84.3374
-2.74273
-28.4019
-19.4619
1.51286
-21.4081
-64.5371
52.7381
109.854
38.3665
-20.6967
29.4886
47.7391
0.675462
-115.525
-85.0728
100.499
125.385
3.08639
-91.2448
-48.5305
-32.8299
-30.9832
-51.292
-100.941
-3.70965
66.1111
-12.0501
8.97709
39.2083
50.5328
102.015
87.9792
118.536
138.988
-4.98943
-117.336
-111.033
-120.906
-64.1861
-96.0276
45.2295
92.442
37.3367
-5.2603
-83.3885
-75.1582
-43.6498
-97.8243
-97.8441
-51.0959
43.9867
76.0879
-20.2769
10.7163
53.6017
-6.31919
18.6353
65.8451
135.856
112.721
-60.0144
-91.6257
-51.0137
2.91168
26.4001
12.4646
91.1128
84.4919
33.8417
13.8492
-0.192689
-33.1625
-109.93
-152.208
37.2036
50.3232
40.3222
33.9925
15.5108
18.4934
1.08945
-61.4946
19.9826
-5.48703
14.5083
-13.3736
-66.402
-19.6892
-81.5533
-137.625
-85.5015
-47.8313
65.7416
144.794
99.3627
115.213
67.9504
-84.9819
-42.4686
117.194
65.4839
-74.4697
-132.35
-13.3458
43.0081
55.3822
50.2955
-8.14432
-26.5604
62.9726
85.1015
27.5161
18.0707
-7.99589
-129.244
-144.476
-96.0114
-41.6872
40.4162
-23.568
-45.8305
57.0337
81.2558
107.278
-36.9207
-67.9374
63.783
33.8505
17.044
-95.3762
-146.838
36.928
180.17
146.362
92.6792
-6.80193
-32.6516
-11.8285
-134.3
-179.386
-140.087
-115.242
21.8945
46.3936
65.1498
11.6175
-124.919
-72.6402
30.2359
-16.7702
-173.178
-214.435
-55.8525
92.0986
248.702
398.761
424.266
350.4
167.153
99.6935
204.493
211.023
-41.7008
-233.583
-220.703
-183.002
-192.271
-204.196
-115.467
-113.201
-89.5822
-57.5491
-139.873
-185.067
-192.901
-196.405
-131.189
-56.2678
-32.4677
-85.7409
-54.1694
108.958
263.485
313.672
311.184
329.497
200.451
258.871
273.668
274.606
205.482
19.8591
-168.905
-166.922
-106.064
-121.54
-166.959
-150.344
-136.04
-163.505
-223.395
-294.576
-279.106
-101.741
32.845
39.0236
57.2029
14.2935
-109.646
-129.119
-127.758
63.5307
113.714
54.1102
-16.0032
-92.9322
-141.281
-100.469
-115.578
112.223
238.297
388.608
376.436
248.431
240.499
266.949
228.996
127.124
8.03033
107.14
249.007
36.2317
-34.7736
-34.4952
-119.659
-160.806
-184.314
-205.326
-170.17
-219.846
-317.463
-465.443
-387.41
-210.305
-199.142
-92.9844
-11.31
-74.3003
14.168
28.8738
-26.1962
142.098
304.522
219.298
197.075
270.987
279.176
187.196
158.597
142.49
94.4409
205.048
121.745
-32.9486
-203.531
-205.367
-68.9549
-89.6037
-159.141
9.5081
8.38582
-22.6562
-12.8417
47.1824
43.2658
36.4821
-57.9538
-100.023
-19.047
34.2685
96.3594
62.2725
-5.04543
-27.6001
-39.3579
-162.226
-218.735
11.6721
53.5944
-63.2639
-100.819
-159.015
-233.147
-248.158
-107.788
-32.1917
110.612
232.507
240.001
206.859
129.432
38.0129
-36.6679
52.6683
155.454
57.1075
-72.2345
-20.0104
103.437
69.7731
56.2392
122.486
95.2958
70.2452
22.0263
-2.3746
-35.8425
-122.263
-155.375
-103.39
-94.5116
-175.45
-161.145
-149.062
-14.6454
108.134
35.9887
85.7684
156.672
81.6937
98.9023
81.6645
24.6521
-50.6927
-223.767
-144.809
-47.9473
45.3538
133.328
155.619
176.314
147.33
-1.66028
-83.48
-163.963
-151.667
-66.6982
-90.8726
-85.9084
-105.189
-190.639
-116.304
34.8122
6.37497
91.4223
73.2127
96.4507
65.3
46.9187
-30.5367
-85.6623
93.0808
222.207
108.492
14.0959
49.3904
101.407
-13.4784
-86.9479
-0.295171
139.196
89.9292
-34.6726
-48.0688
-57.4118
-148.87
-184.477
19.0848
59.5154
40.4925
122.239
52.6194
-140.843
-263.892
-211.78
-20.0358
85.5772
131.539
116.809
24.2073
-23.9319
-43.2558
-61.3355
36.5696
120.4
126.586
30.6838
-136.364
-259.099
-280.301
-251.217
-51.7496
251.868
525.609
514.871
324.238
183.74
-23.3376
-172.198
-128.371
-8.26525
-156.267
-202.382
-120.092
-37.5685
-17.9306
-104.228
-70.4126
126.574
109.301
-5.66753
-224.989
-291.656
-306.313
-172.505
35.4979
143.589
97.6109
28.2927
30.3942
167.315
274.054
80.9605
-7.93153
-48.6182
67.3968
168.87
100.221
-48.0501
-118.874
-93.5915
39.6651
53.2111
69.7623
129.024
-2.03388
-72.9447
-107.054
-50.9326
-55.4866
-149.514
-63.3539
160.699
193.39
100.678
-285.169
-342.469
-136.175
-24.8252
63.2591
52.537
40.2275
229.925
259.652
148.722
80.4515
51.431
30.1505
-77.3331
-177.872
-124.154
-42.0581
84.9984
96.0613
-46.7651
-92.5932
-138.814
-40.9161
-72.4285
29.608
153.509
147.407
-13.0206
-97.0783
-202.556
-192.333
42.0188
160.018
162.51
85.8531
-116.039
-149.274
-130.481
-2.78611
243.339
266.83
216.734
38.9196
-141.392
-286.509
-255.594
-205.241
-94.3276
13.3782
167.799
152.301
-0.0256589
-65.5004
-55.2171
112.4
134.314
100.125
117.316
75.2689
-11.5619
43.7651
107.319
78.2426
78.2238
79.4726
59.255
35.7297
-50.4571
-137.04
-187.504
-107.542
-174.498
-169.744
-15.8835
-0.891508
6.38463
1.48703
-14.4716
-70.9109
-137.02
-93.1535
-169.641
-184.245
-74.0141
199.099
261.06
42.9605
-57.2731
-12.3247
-48.5679
32.2957
180.377
247.585
236.903
186.212
88.4666
-71.1916
-139.955
-67.7803
-37.2826
56.7793
135.218
136.633
176.702
61.9141
-52.5111
-37.0664
-100.306
-18.9573
76.5086
-108.887
-343.336
-391.478
-252.292
-113.374
-10.0246
154.849
107.697
27.8165
-31.274
-42.1215
26.9136
-34.7448
-46.7591
42.6156
43.6217
37.8877
83.4729
43.2009
102.395
67.5214
103.982
314.531
172.08
18.275
-14.6456
-61.4959
-42.6629
-89.7785
-214.048
-116.664
20.947
27.0354
1.18927
20.0932
23.266
-137.919
-92.8649
-50.5184
-86.4539
-9.85919
44.7835
-33.9432
52.8198
48.1024
-32.1851
-19.4123
49.064
108.363
80.2668
26.9563
-54.6737
21.8096
-22.6202
-27.0432
68.2877
122.212
20.8688
-15.3047
-27.0086
-58.2908
-55.3568
-84.1049
-71.0637
-35.3147
45.4523
69.9675
-47.8605
-79.5449
-37.2733
-23.1052
78.6623
71.828
96.2477
-5.25388
-106.559
-30.668
38.7372
-33.8199
-36.7975
-19.7844
57.88
244.045
199.778
-0.0786767
-43.7565
-13.1566
10.2026
43.3025
57.3683
-4.0444
-52.4737
-73.5135
-98.2769
-187.779
-141.899
0.504912
-0.932977
-53.9011
14.4824
31.9942
43.7291
-28.5553
-49.0573
2.61665
-143.989
-163.863
-14.8995
49.7832
109.668
155.433
114.417
-13.5367
-45.7478
47.9062
132.651
177.335
204.099
118.332
-50.3359
-63.4256
-1.23251
-7.3523
14.676
-32.0203
-15.4381
-59.1031
-6.05764
14.7814
5.1374
-153.402
-284.069
-45.3994
20.4479
-34.7069
-129.854
-146.494
-68.4396
55.4586
-17.6512
-182.537
-101.61
23.2467
79.1635
220.11
301.241
278.894
135.494
-12.7932
-72.473
90.2459
147.498
19.3771
-25.2962
-60.5656
41.8494
64.8254
12.2551
31.4516
-3.75253
106.237
48.4044
-48.1593
-95.9143
-226.928
-268.903
-241.235
-258.419
-222.988
-5.81671
55.3942
72.456
-30.1245
-51.8201
103.283
94.0581
39.2548
23.6873
0.262698
93.345
130.302
1.8746
-47.9752
21.8971
161.345
238.347
183.745
90.7311
57.0864
4.00145
-4.30466
-81.2671
-15.0823
-24.4157
-68.8087
-111.37
-181.108
-192.957
-116.606
4.05192
167.035
185.002
95.6124
-12.2913
-32.6652
36.0414
50.7347
-59.3354
-37.0695
57.3509
-52.4079
-64.8108
-86.2648
-62.7868
15.7061
12.2796
-95.339
-121.065
-14.4963
30.8272
38.9127
36.1889
-119.787
-123.587
8.84221
-16.9665
-44.0519
151.519
162.072
77.0388
25.4849
61.395
138.118
159.3
-33.0223
-75.2406
32.1526
116.067
42.4589
-69.8801
-114.011
-87.9527
-15.4072
-8.68813
-13.5847
-45.4423
-62.7113
-55.6212
74.5867
36.3573
-122.482
-160.378
60.6607
98.5841
23.7231
37.513
88.7684
84.2749
-51.6181
-16.3132
-3.02313
-60.7384
9.75928
2.73686
-51.4016
-27.7881
-71.1585
-13.7515
36.3002
34.812
118.007
134.65
43.5701
-20.8902
-103.474
-76.2646
-26.084
-77.8368
-85.7963
-11.9238
22.9876
36.186
6.14587
-18.0964
-50.5681
104.994
172.715
70.1812
16.8544
27.9962
9.19502
17.1362
-78.6691
-92.513
130.064
0.247761
-216.504
-165.59
-85.2059
-62.9267
-39.2515
59.4525
146.073
196.891
142.395
-18.2915
-80.2751
-51.6172
-143.542
-47.5803
43.8166
6.98541
43.8331
57.7525
-6.90443
33.7308
95.1125
74.2221
22.0629
-3.0022
42.0554
4.79439
42.1915
26.025
-44.7688
-109.728
-112.901
-98.3927
-97.5557
-29.9782
28.2764
18.5391
-29.3889
-86.3102
-109.68
-15.9414
76.7218
99.5464
142.328
90.9951
9.76029
-3.06289
-13.565
-13.5808
47.3542
18.1294
64.3826
-27.037
65.1177
105.726
7.25631
-96.9933
-219.848
-135.847
32.7053
92.4187
155.125
129.673
36.9956
-77.8842
-162.237
-99.7421
-93.6228
-84.636
-37.6205
-0.467127
13.2376
132.901
148.887
60.2089
-43.2455
26.6012
96.9617
-24.524
-118.202
-148.962
-130.556
-36.9782
57.9177
89.4247
104.691
131.056
124.53
75.8418
19.3667
-2.32816
-16.8067
-6.04555
-22.5659
-2.36407
-39.1433
-178.285
-213.825
-83.3789
-75.1558
-129.278
48.2591
94.429
116.572
198.85
139.763
-2.684
-23.5351
-53.3812
-153.018
-216.44
-169.854
20.4467
87.2122
-21.8503
-33.3033
86.809
244.837
251.435
178.466
248.176
185.863
-54.4713
-221.774
-291.654
-225.616
-184.934
-98.5009
18.7489
153.982
265.351
164.744
-52.4487
-177.319
-109.044
77.8049
181.738
72.9783
5.84208
-1.00723
-34.3975
-150.157
-79.7733
25.7522
33.445
15.9559
48.6665
19.1693
-27.3269
-144.117
-200.463
11.3995
83.1388
-3.97608
-137.379
-154.831
-188.818
-105.79
17.6602
180.042
197.012
100.916
69.6798
28.5286
-19.97
24.6637
7.62546
-15.8693
188.169
312.989
242.297
-19.9408
-160.658
-129.758
-16.7736
-27.7495
-21.7916
-31.8769
-75.5777
-88.6336
-77.3859
-10.9299
1.62849
-38.022
-85.1157
-68.9745
51.7096
-16.5011
-76.9662
-11.8082
16.4117
14.2026
18.0376
41.9838
128.996
135.632
86.4268
-6.55841
19.9785
51.5083
-72.0298
-168.075
-85.8068
-23.1575
34.1198
52.1385
35.1457
124.562
42.2625
-68.7691
26.4554
20.8995
-12.4985
-8.46066
-72.807
-37.7293
-102.435
-135.593
-1.67422
66.1815
46.9605
34.3314
-36.9714
-2.09852
21.3617
19.3055
46.7986
38.0154
-40.3465
-5.48983
1.41247
-42.5359
-210.153
-72.2601
116.618
159.409
171.224
170.901
86.7877
-29.0464
-33.7511
-15.4959
24.9836
69.1227
143.092
2.27891
-203.572
-220.411
-80.1846
-20.8207
-114.412
-167.497
85.3492
29.092
-81.8203
-63.8101
19.9694
15.746
-26.3443
10.6116
79.1779
71.7526
89.6394
-44.6672
-60.7899
42.5548
110.916
87.1606
-94.192
-220.44
-76.4944
136.994
170.128
147.527
95.4075
61.9985
18.8711
-36.4582
12.2561
-40.3996
-87.6641
-72.2623
36.5969
84.502
-102.128
-208.717
-116.476
55.1472
88.8484
112.789
69.864
49.81
-12.9869
39.2768
13.4207
-120.154
-144.716
-43.4089
-49.5854
-35.0648
22.8799
44.7664
-64.2699
-90.5244
85.303
146.488
62.7171
-56.4017
-51.4606
8.48798
-43.9866
-99.7852
89.8466
171.548
130.804
121.82
81.2176
-20.3125
-118.454
-131.424
7.92099
9.56503
-47.2639
-26.4869
2.36881
86.9192
94.6771
-68.3879
-89.5976
-105.773
-13.123
93.1419
-10.3995
-100.927
-103.6
-91.5946
21.6668
80.047
27.4776
3.80704
18.8848
38.325
15.1252
37.5597
-46.7664
-119.671
-50.3443
119.601
190.653
109.058
-51.9536
-75.7329
-58.2865
-64.6167
-56.4299
123.801
123.009
112.519
87.8772
61.8398
-124.112
-145.229
-105.622
-58.3087
-30.4339
22.9815
58.8356
33.7359
-5.34584
-11.256
-10.962
53.0707
13.0195
-61.2935
-68.3691
-60.682
-71.6746
-103.517
-92.3632
-49.875
45.7164
184.35
151.417
36.2608
-2.51457
-10.7495
-18.3835
-0.438272
119.135
119.121
106.203
32.3116
-11.8127
-57.063
-65.6193
29.5162
-4.49324
-97.9362
-43.997
-61.5436
-45.1414
-30.4867
38.6316
34.8654
-46.0273
-0.58477
11.0346
35.2151
28.3908
39.4486
-96.1327
-101.278
3.61788
102.504
63.8219
-131.413
-159.525
23.0777
105.824
94.0443
61.7973
37.0544
57.7074
34.1098
77.6377
48.0751
-49.236
-86.5154
-111.095
-158.293
-39.2085
53.6281
5.20696
-46.8644
-12.7595
42.45
91.5954
26.7879
-39.8069
-70.3921
-23.0501
-9.00152
-3.98827
19.2856
-23.5345
-99.1825
-79.9594
-26.5141
61.4479
114.298
145.369
102.582
60.6784
32.9283
-4.3626
-11.4029
34.794
69.8709
101.954
102.052
-48.3425
-239.46
-255.292
-73.8894
30.4623
18.771
38.1794
35.1722
-1.5984
14.9502
-58.1933
-17.8132
28.8526
29.2175
56.4545
11.2673
-14.0945
-5.78456
-68.5686
-31.3285
37.7841
96.5175
73.643
-8.46914
-64.4192
1.42983
71.4931
24.2065
17.3726
5.0056
7.52134
-55.4773
-92.475
-101.79
-155.724
-144.836
24.0858
165.08
139.43
-14.5366
-124.024
-84.8754
13.2182
13.015
42.9216
84.2525
81.857
120.08
75.8715
-45.542
-39.7871
-10.6548
4.50306
10.145
75.8782
100.861
11.3236
-94.338
-102.208
-64.9445
-36.2314
-45.7495
45.1171
67.7627
-5.14907
-22.7916
-12.9638
-59.6278
-80.0488
15.2869
143.213
57.5456
-8.69934
-28.4023
-23.0187
48.6541
29.7306
-42.8853
-146.322
-142.549
-10.9057
99.8068
76.2559
70.3495
99.6808
-25.6536
-116.887
-70.1446
29.3826
48.2103
15.0392
19.4408
40.2742
76.9158
7.67009
-37.2177
0.849137
-23.3882
-5.82282
6.63851
38.4728
42.4554
-89.4604
-155.101
1.79535
57.8183
30.4514
40.4582
36.0154
39.0376
-55.532
-26.7047
27.945
-25.5295
-13.5965
-5.30543
-45.6334
-61.5383
-45.7674
60.6929
51.4219
14.2689
-11.4417
-52.2678
-109.067
-68.2816
26.5988
29.0146
38.9977
150.293
142.929
28.9431
-34.0229
23.5956
56.3776
1.44219
-141.97
-68.0859
6.76121
74.9802
7.34129
6.03301
25.192
44.238
5.24
-45.5947
-2.89961
24.2012
-82.6743
-123.662
-112.295
-69.092
7.91976
-55.6713
-93.1439
31.2876
74.4337
79.9199
116.627
61.6193
62.0358
16.4365
29.4628
60.0317
52.4732
56.2162
-32.879
-34.3713
-9.93137
-98.7264
-83.547
1.35222
-12.2721
76.7499
88.2683
18.1133
-20.6076
-113.388
-119.531
-82.9455
55.5625
70.7802
25.2707
-21.2394
-0.80832
16.4062
0.0810051
-56.2805
39.3913
87.1102
61.6263
5.61902
-55.8341
-89.6742
-47.5917
-51.8707
70.4026
113.597
107.002
16.9734
-92.1049
-90.3958
-46.1613
-16.8423
13.0893
-35.2423
-9.87606
27.1751
-32.5048
-6.40151
20.607
16.2171
38.4607
122.44
-26.447
-19.6164
53.8593
27.028
10.7304
39.0331
-17.7852
-33.7801
-6.71292
-12.2933
-26.9913
-81.7537
-100.319
-29.94
13.8882
5.39414
35.2555
64.0445
57.9752
-83.166
-104.653
-56.4383
10.3932
103.364
61.0329
41.8506
85.4876
50.7737
1.53703
-0.477502
-39.5466
-5.08787
-51.181
-34.1809
-5.38028
89.8484
19.3
-70.8559
-66.6333
-58.8884
60.5396
78.9738
-89.1483
-113.03
-31.0588
-6.6952
-41.6424
-56.257
11.1284
63.6363
23.41
70.8359
132.339
115.869
47.5775
-89.6682
-10.4789
101.723
66.3065
17.4333
11.3652
2.90393
-7.6397
-25.5566
-93.7265
-151.233
-33.6453
72.505
73.0874
14.9159
-29.9449
-31.953
-23.9083
-114.817
-154.756
18.513
81.1161
1.02155
-19.6094
11.4836
39.0998
-41.2413
-65.5502
-7.9552
66.4117
95.3698
-69.1924
-159.737
-87.7397
28.4293
25.4666
-36.9986
4.97401
195.606
190.18
75.1502
12.9956
3.73036
-3.2589
9.64554
25.8682
51.9652
64.5038
-37.0635
-66.0022
-33.7307
8.85159
25.2299
30.148
54.484
3.09995
-6.70049
-31.5803
-68.1092
-6.87221
12.6519
-25.6454
-34.6636
-25.9175
-38.4458
-32.3042
-18.836
-19.2069
-75.1647
-129.696
-83.2334
38.0926
81.4229
-2.27517
-125.923
-81.0946
-23.9991
-59.008
45.9433
29.2629
-0.356301
52.5344
85.0465
66.4026
62.7046
63.147
86.3404
62.2154
85.9926
133.724
109.152
19.826
-43.6528
-49.8434
26.7631
43.0424
45.2845
86.3521
-11.1106
-33.3039
-168.058
-206.539
-165.563
-153.796
-31.207
23.8878
6.79214
18.6514
-11.4026
-35.4304
-42.9002
67.6939
106.648
132.189
94.7123
47.0368
-30.1677
-81.1781
-128.863
-85.3982
33.8661
53.831
2.77702
23.5737
-2.29639
-27.3482
7.11485
1.47918
12.7861
39.484
-96.0881
-131.947
27.7028
117.975
99.1739
-42.379
-18.822
17.0767
45.7672
44.6503
60.9359
70.1084
32.5207
-20.3052
-11.3288
-11.5751
-48.9649
-34.9634
-29.0403
-23.7924
56.7053
-16.6074
-154.928
-81.6862
-20.8523
66.4693
54.4506
32.9792
21.031
28.2641
67.9692
48.6623
69.9725
10.2102
-89.3338
-113.768
-79.2526
-3.78252
-29.813
12.3395
124.88
83.5419
44.4604
-68.6083
-134.333
-70.2854
-39.1841
23.0557
49.7278
-42.3379
-49.7114
-24.2211
11.2286
91.0595
-30.4853
-78.9312
11.6146
62.5002
128.229
105.656
19.1553
19.4136
-46.8345
-144.654
-50.475
102.343
89.4868
-9.10691
-61.373
32.7816
66.3645
7.94108
-85.3033
-40.9425
81.902
122.817
18.9991
-41.0487
-39.3929
-47.1589
-51.4446
-141.724
-66.9546
44.9888
22.4912
4.80973
42.0472
18.5118
-49.8307
-20.0187
-62.8107
35.4035
33.3677
-12.631
20.4519
29.7194
38.6669
3.30131
18.1878
96.4387
72.3643
74.856
41.9037
-84.0512
-112.441
-148.336
-69.0901
35.0301
27.2708
-31.0002
-12.0153
-16.0956
-6.5213
-42.1911
-37.552
34.0288
35.3131
37.6775
19.1759
16.4334
43.0477
87.1988
42.4084
8.5953
-50.9713
-6.84881
-13.1645
-37.8878
-15.8814
4.14283
-9.45867
-105.681
37.3292
65.0807
100.33
72.219
10.4005
75.9363
16.5275
-178.054
-129.875
-27.3856
4.62258
21.1206
77.4956
63.1727
25.7926
-72.9857
-31.2163
23.3412
54.1519
83.819
-21.3183
-16.0884
-4.62221
-46.1168
-115.059
-97.4609
-29.9132
27.7163
-0.15817
-101.069
-153.506
-124.027
-136.063
-8.67261
129.675
167.133
142.165
81.203
91.0497
141.065
85.4279
34.0731
55.388
-12.2815
21.7452
59.7884
68.045
13.555
-56.7604
-64.3912
-41.75
-47.5829
9.79802
-58.6446
-77.2578
-34.9002
-34.417
-56.7316
-66.2688
-27.8047
-39.5347
22.5155
-5.82844
10.3751
54.3658
6.77492
-74.2929
-7.00831
-39.2938
-4.8341
50.8108
47.3614
-7.74408
-40.5519
-35.6027
85.9581
131.579
135.763
30.9859
-155.504
-118.953
-23.3801
-6.93776
35.8787
14.9809
1.89329
46.2799
21.3279
38.1388
44.6525
3.52602
21.3484
69.7014
61.2081
9.0674
-74.7559
-128.177
-99.0687
-11.1883
34.4505
70.0075
70.7023
-25.1126
-41.8771
-24.2566
-41.0121
3.13196
3.37588
-78.692
-82.3909
82.0909
174.474
96.4972
38.9183
-68.7871
-109.572
-81.1943
-150.733
-217.734
16.8894
112.729
57.1508
62.2953
15.7724
-22.2232
15.0752
11.9983
96.48
136.065
73.6026
-41.2379
-163.786
-124.865
-10.8419
45.7738
91.3176
86.7584
110.456
121.132
33.2304
-22.1334
-69.4553
-25.6068
9.29885
38.2537
-10.0584
-119.879
-188.566
-125.278
-52.9682
-55.4002
-28.4929
140.67
123.521
73.0802
24.3271
-5.72006
9.63217
79.421
47.312
16.657
-65.9952
-127.791
-96.5207
-68.9295
-66.1095
-52.361
-17.7384
136.621
183.675
238.911
200.227
24.5787
-163.828
-266.056
-166.917
-88.7975
-38.6117
25.3249
85.3133
75.4538
25.7119
-75.3151
12.8419
79.3309
230.184
209.447
54.3237
-38.3256
-72.8694
-136.381
-193.834
-192.354
-13.0897
66.0487
19.1716
-43.4493
-59.1227
-68.8993
-84.0361
-74.7899
25.2058
158.912
185.531
112.48
25.7934
133.58
140.048
-73.5919
-133.36
-48.4115
110.637
25.5696
-100.27
-67.5042
-55.613
-20.4377
-5.31295
-126.853
-32.7601
14.0214
32.8336
33.2732
-63.6065
-53.6919
-28.2437
-19.8045
61.1427
80.4281
74.0359
57.7695
-38.7181
-59.7329
-34.3323
-22.5215
49.9538
55.9072
88.6151
165.723
69.4339
37.7488
-15.4884
-67.5098
43.2499
5.93801
-131.071
-175.5
-116.574
-39.757
-31.3971
-41.85
12.1953
172.684
189.331
34.9846
-32.8182
4.71682
15.2039
49.2145
-22.9344
-32.1994
-7.85637
-19.8612
-141.732
-110.038
30.1188
104.434
-58.3165
-40.0541
14.6673
-19.2437
-135.091
-97.015
47.7718
140.762
71.5863
-21.6856
-107.683
-6.14422
58.9415
75.6856
10.5219
85.0687
223.546
137.677
-114.585
-94.4712
-24.239
-46.5945
-91.3339
-34.0145
66.6481
-40.0753
-36.2458
68.1482
43.7945
-10.4537
-7.69321
-52.8229
-57.2136
-76.9841
1.81782
7.46296
-100.397
-4.33013
69.7827
35.1817
30.5771
19.1335
23.3517
-25.2385
45.3089
99.7782
29.9284
-5.92471
-44.6108
-92.1852
-38.2726
-32.473
136.259
127.485
11.4398
-17.0572
-80.8806
-59.1311
30.8879
29.8012
40.4658
-83.2717
-84.8115
-14.0093
-34.8524
18.7665
27.8757
-43.1769
140.031
150.89
51.549
45.3406
-40.9955
-121.177
-78.7149
-141.963
-127.62
-39.3912
57.7747
66.2474
74.258
90.6914
76.681
36.9101
-6.44285
-97.6036
-54.9554
-15.2724
-120.296
-96.0836
-28.9053
6.70106
19.9644
28.9474
14.0437
24.2128
97.6999
92.9325
43.8342
-0.170785
-39.6134
26.3658
-9.14025
-13.5822
89.5454
60.3359
52.8516
114.433
79.0797
-13.717
-120.228
-234.857
-189.954
-97.2615
75.2754
197.28
96.8022
-88.295
-193.255
-158.25
47.4589
134.836
240.525
263.232
129.044
22.4508
-130.496
-159.4
-82.4327
-56.0595
2.18765
28.0407
-62.6826
-31.4675
-15.5456
-50.7434
-92.8885
-141.113
-7.1429
68.4237
-12.7374
-126.762
-163.643
-87.2982
-60.9476
-52.3229
57.4408
83.9548
35.9979
73.0165
189.344
320.465
239.318
136.747
141.864
-7.42694
-136.816
-56.2026
-38.1276
-10.4932
-29.7518
-18.5559
42.3698
-32.8205
-81.977
-37.5516
-59.9468
-58.9202
-28.8983
-4.95123
-33.8827
10.1552
80.2874
62.2731
-42.4196
-26.5535
34.4285
-1.18524
-136.442
-158.637
-0.0105048
73.169
4.33851
-24.8836
17.6407
48.0383
10.1686
-67.505
-69.8329
195.036
144.531
-130.218
-152.242
-33.521
18.3319
82.7225
40.6345
10.0341
183.988
167.386
34.9134
-57.4151
-87.5062
-82.6784
-126.153
-92.7821
37.7125
57.8335
41.8976
-74.9011
-45.1987
34.8365
6.77036
58.6178
25.2545
-31.938
9.02721
30.2222
15.411
53.2746
-123.118
-119.906
-64.8721
-42.6851
1.57298
28.464
19.1449
81.7475
48.1549
-92.535
-35.2654
36.3189
131.467
121.832
-32.186
-32.406
-17.286
-0.121752
-83.8551
-71.2361
0.485755
81.7913
110.678
69.3103
23.1857
-3.03173
-2.96259
52.0703
-4.75685
-56.6329
-91.7633
-27.9708
-43.3392
-174.526
-42.5244
58.4924
141.901
166.401
94.8957
40.6655
39.2462
-30.2391
-68.7601
-75.6668
34.04
59.7802
-68.1167
-101.269
-16.3045
32.6056
-3.05713
-124.628
-104.569
-61.609
-47.1635
-17.8407
-12.8193
-8.51725
34.4482
17.0951
11.315
83.8508
116.058
33.6523
18.6662
50.1981
2.57892
-35.1746
-51.4389
-66.6086
8.63419
96.8487
58.4217
60.0413
40.3571
-5.7198
-49.3455
-129.032
-60.1776
44.9517
92.9575
73.0072
-33.1741
-29.8825
-56.5421
-163.015
11.0788
59.7845
30.4802
56.159
-6.83735
0.856209
-41.1615
-95.2887
14.0697
75.9575
124.591
143.967
108.73
-9.81946
-71.9762
-120.799
-22.1673
-13.5234
-44.9132
-18.254
-103.047
-127.705
-41.9392
-16.5764
39.8574
153.99
138.987
159.401
40.7651
-75.2672
-122.987
-47.0536
-1.01812
-105.946
-123.514
-109.288
-99.8718
61.7994
66.2311
96.7377
93.0775
99.7038
28.7666
24.7115
31.7693
-114.429
-22.7849
54.3111
32.3592
23.9325
-57.5736
-62.1377
-43.2128
4.42953
47.7974
59.1209
76.4933
57.7975
17.3812
127.209
69.4189
-5.66784
-11.8034
-59.098
-139.499
-129.781
-49.1159
50.3458
-50.8795
-87.9452
-57.1798
6.70255
47.7939
2.24084
-95.5992
10.5712
5.94682
-12.5008
7.76279
-29.8265
2.92651
29.1563
94.1662
84.7436
11.8794
31.9081
-28.8888
-57.7671
35.6864
96.6882
165.694
57.9731
-78.7429
47.7648
91.2345
16.1571
-26.5416
-143.717
-167.405
-133.429
-45.0125
-2.2611
-119
-30.6867
66.5355
98.6611
92.0615
-13.2023
37.2835
100.654
12.7066
-4.08107
-14.8829
-38.8943
4.35496
-64.6444
-69.6439
32.5192
63.0366
8.33736
10.4677
-8.54934
1.23522
-5.53531
61.1762
-40.9219
-13.6133
35.3651
65.1432
-2.75512
-71.8494
-90.307
-42.1502
-57.5891
-93.4408
29.992
110.344
32.9045
111.342
54.3077
-55.4868
-46.9489
26.3211
-10.693
0.439458
81.2512
27.1875
-19.6766
-97.0205
-73.9296
15.1687
-77.8432
-44.7699
23.2753
92.2396
55.5789
32.9273
82.7872
-36.7316
-159.963
-23.5694
140.972
169.056
161.813
-7.05281
-139.118
-167.162
-159.624
-125.938
41.6257
104.664
184.719
142.208
-53.8872
-128.93
-62.1677
-50.0111
-11.7384
-10.6109
48.2469
22.2973
-56.997
-52.0419
-21.844
-19.7481
-50.9173
-73.1452
91.4424
169.432
77.4497
5.65548
32.5841
10.6256
26.7417
34.2615
18.899
-110.512
-139.515
-17.9159
167.829
123.621
-106.209
-148.841
22.7204
102.215
72.0784
30.5935
-39.0119
-72.9285
-117.127
-131.782
-160.595
-6.23907
191.951
192.345
44.8398
6.95943
-7.03898
-58.903
-148.532
-150.27
116.026
241.105
95.0273
-1.98319
-41.4718
-7.27138
54.2011
-99.0757
-246.112
23.008
179.871
57.2159
-34.5161
35.8481
64.0577
29.1628
-67.9035
-74.898
-46.2382
-23.0633
-32.5756
-44.1982
-72.4043
-74.0992
-41.8012
86.6426
16.6214
65.3478
133.299
66.7175
42.3603
-39.2168
-101.2
30.8584
21.5336
22.1278
12.7702
-3.56654
3.40999
-79.0359
-105.792
72.7631
76.6466
-12.127
9.60684
32.4475
32.2524
31.928
-12.8493
54.3623
-20.0139
-57.3848
-17.5916
-69.2215
-60.4044
-17.1259
28.5547
-41.5055
23.4596
165.856
119.266
-100.199
-141.848
-92.3713
-26.2146
-52.424
-26.9621
82.2056
184.915
32.9818
-72.6687
-70.8646
-67.2151
-47.2693
21.0913
-9.19225
94.4253
111.823
6.19288
12.989
-3.84051
-36.9471
-13.2169
0.443596
21.2223
12.6086
9.34162
16.2746
-8.13565
-103.22
-77.7132
-45.4735
94.1054
126.679
77.5936
62.2658
12.6724
13.3702
-30.2521
-130.671
-115.473
18.2646
64.7996
79.9778
-10.6079
-33.6402
4.66133
32.3044
-30.8288
-51.4629
83.5278
62.2952
-67.9037
-93.0078
-12.4017
-50.8755
-119.246
-60.1696
13.6866
33.9574
53.015
-2.89233
-54.4389
-20.9143
40.4935
24.9827
6.50122
21.5533
46.4841
84.2761
72.9226
26.5376
-38.8265
18.9861
78.237
107.864
-18.9256
-90.822
-63.8708
-34.4035
-61.2047
-27.8179
37.2129
53.5927
18.1291
-25.3087
-40.1275
-77.0799
-78.4523
-4.76758
53.9381
62.669
83.6099
17.6437
-70.3355
-38.7181
8.81639
-48.7239
-75.0182
41.7876
131.933
67.0064
46.8247
38.4981
33.2852
44.7646
-57.9122
-74.7029
9.66407
17.9278
-85.6294
-92.4266
-75.2741
-85.0654
-26.55
29.9774
71.6594
155.783
97.5469
-56.6874
-98.1777
-63.6547
-42.1999
-80.1794
-64.8016
8.63859
64.7525
39.2982
-6.38959
-23.2995
-6.59596
12.8569
82.7161
108.513
51.9278
30.1816
44.1717
30.0711
32.1219
-17.5697
-121.342
-7.17429
1.69673
-40.5432
-9.36085
15.7582
51.4317
113.445
192.115
89.0858
-149.735
-98.8969
-54.5
-13.6652
-15.3596
-75.4501
-66.456
-51.544
-60.984
80.1041
91.4709
-51.1157
-92.5589
-50.2346
-26.195
-54.7402
-50.6556
48.8685
29.0951
26.5132
19.1148
-81.6373
-88.0131
-111.026
-63.3395
43.085
174.477
160.404
143.094
64.9028
71.4053
46.7755
33.5419
-2.64156
-8.65043
76.7418
32.3704
-52.7667
-62.2874
-61.3139
-20.4084
-7.68384
-110.025
19.4534
92.4588
27.7463
-43.2744
-19.0914
3.34086
-56.9032
-80.6617
-140.822
-37.4377
40.5323
20.5077
-47.2396
-37.5231
-33.5377
-0.554524
56.3358
163.563
189.342
150.351
-19.5641
-105.912
-96.1446
-126.749
-149.434
-45.7988
69.7529
63.8811
75.0431
22.0346
41.3138
59.8352
5.17842
43.0877
70.4329
-36.506
-55.3209
-23.7084
3.68188
-6.21565
-84.3783
35.8838
37.1155
12.529
-3.37182
-65.5558
-73.3306
-16.8761
-54.0908
-3.12189
26.7018
18.3673
13.6212
9.86717
-15.874
-51.1752
-73.7879
-75.1927
67.2974
44.8255
68.769
49.8323
47.2809
-8.18352
-38.1272
-9.65476
85.4018
133.213
111.953
-13.7061
-37.7212
-11.9634
27.2991
24.5443
-57.7734
-120.596
-148.43
-64.3413
-80.2388
47.9371
90.602
52.5582
48.475
-4.12802
85.668
10.8581
-111.818
-96.9505
-51.857
-35.5324
-54.5125
-56.0461
68.9843
58.5936
69.3381
131.345
117.237
121.706
70.231
-64.1127
-122.359
-23.4055
39.3457
36.8448
-62.415
-94.5646
-101.347
-99.8079
-49.5557
4.30044
120.828
72.4643
-60.3241
-60.0488
-40.8502
15.4235
-31.2612
-22.4048
46.0041
65.3983
98.6127
-3.82947
-79.8714
-79.7824
-76.4251
64.2739
168.746
133.44
117.18
111.112
14.8385
-98.1811
-198.251
-149.667
47.3756
31.6951
35.8638
-12.6247
-87.3103
-42.6223
-22.9299
-7.02394
66.6573
22.6638
16.38
-43.6715
-72.4937
-2.98434
16.6972
-73.1615
-59.809
73.4342
126.605
145.801
29.8204
-21.3797
-38.3234
-86.5973
-90.7588
16.2735
108.859
49.6388
2.04819
41.0575
71.2034
44.7206
-24.7943
-100.515
-21.4417
30.094
-16.1826
-67.4591
-75.0606
-53.3187
2.53953
51.4691
113.494
81.4313
21.4808
-64.1168
-127.468
-86.1301
-92.0535
-109.461
-14.0542
61.7506
58.9871
46.1997
-3.69888
20.4846
21.4086
22.2244
103.602
84.1396
40.5256
37.8984
31.3324
44.2325
-22.6042
-124.35
-47.7561
11.6557
63.0529
79.9661
-4.61578
-35.6225
-45.9699
-99.5715
-132.932
6.23277
89.011
79.3192
-53.1834
-102.77
-98.0519
-37.8432
-0.395816
60.4525
74.7054
119.331
16.39
-54.3611
-48.1536
-38.0128
8.73532
-9.61272
18.1414
78.0011
82.2082
-29.0903
-81.883
-71.2941
27.14
110.726
9.34031
-10.5423
41.4883
21.0419
14.6284
7.99661
-29.4944
-75.1698
-26.5256
131.79
67.9849
-28.4945
-59.6905
-32.8095
-2.23044
-60.9229
-170.759
-56.5473
68.7496
55.929
68.279
33.2575
-32.9597
-46.9096
-2.72848
3.16595
77.8721
64.1097
1.58643
-47.035
-29.9106
22.7905
79.3155
59.8605
23.9518
-14.3991
5.18127
-52.3053
-98.3633
-119.263
-103.962
-2.59545
109.773
56.6952
33.5163
51.855
39.9305
66.9948
-26.7495
-53.6678
-45.4425
-40.1252
-83.2728
-82.6108
-43.9105
2.63118
-12.0851
33.1519
14.1301
-22.7638
78.8093
119.535
43.6493
35.791
17.9435
-36.5855
17.1359
83.0464
98.2991
62.4457
-10.7146
-45.4062
-93.6971
-110.622
-106.392
63.4509
139.654
76.4843
-52.5338
-40.6517
-70.9587
-114.686
-82.0617
49.7854
3.95105
31.2328
-19.6122
-62.7432
-66.4212
-79.6746
-9.53894
-12.1111
50.7901
138.361
139.51
-15.9368
-95.0548
-33.4595
88.8749
115.921
115.224
133.443
45.994
-26.8585
-50.2829
-84.8057
-87.2868
-86.4603
-20.8457
-14.8775
-85.6174
-37.402
31.7946
32.8279
-2.84362
-90.0029
5.40334
84.9396
41.3263
-3.48035
-41.297
-60.2698
-64.1251
-71.7328
-16.9798
127.518
111.161
54.8447
41.1795
34.4052
50.286
35.7051
-32.8755
-36.5873
-30.9287
61.5717
108.319
30.0512
-82.0033
-127.323
-91.7635
-14.5284
-39.188
-26.1537
49.7369
-18.8691
-90.9987
-68.6959
-28.3346
105.079
67.6565
29.3852
29.5124
1.95168
-8.0087
-48.7677
-43.347
56.5395
58.3567
-3.2117
-3.46396
-11.7832
31.4809
46.5336
-9.11748
-22.5594
128.568
79.9083
34.3981
-6.55239
-10.1559
-30.3671
-3.96547
-47.065
-184.844
-71.1091
40.2161
-14.1136
16.6078
48.0153
63.6083
1.03028
-48.4793
-198.381
-82.4505
-10.7291
-51.8965
35.7328
62.2752
32.2607
53.6976
35.0938
-32.8219
37.5787
110.514
77.6626
-28.2277
-83.5817
-39.8754
16.7879
-15.4289
52.903
100.217
152.559
87.7329
61.5709
18.0343
-95.8847
-156.654
-33.4571
-20.6646
10.0939
40.8883
19.531
-15.8932
-132.678
-101.009
-60.6609
-112.032
-12.1212
55.9045
16.46
68.6985
85.9735
-2.55658
45.6855
81.176
48.1056
49.3547
-65.033
-134.466
-106.494
-112.472
-28.688
51.9698
130.028
101.693
17.4033
50.3837
-17.3557
-107.755
-51.5917
-22.5486
-31.1065
38.1778
51.0226
10.4376
-26.4559
-66.4345
-31.8652
138.617
122.498
76.8347
-49.1044
-74.0905
-55.0116
-6.55092
-13.344
-4.13338
60.8981
111.138
74.7638
-23.3782
-125.318
-85.2822
-70.0968
-65.287
-26.2832
89.6194
121.41
-1.23709
-10.8253
62.8797
83.9925
67.9888
46.3773
-31.99
-1.91903
22.3786
-83.1031
-109.471
-106.013
-35.6012
22.9617
-82.036
-98.4286
-26.9853
88.9326
86.9395
10.0125
-7.51312
23.8702
-49.7926
-25.066
48.3466
53.6962
50.517
3.09799
-27.5555
-17.9625
-63.6322
-52.8848
-10.4806
39.047
82.581
-6.92383
-46.2179
12.8395
-66.34
-88.2837
73.7119
33.2453
23.5929
-5.01661
3.83905
54.2575
50.4307
16.889
-14.0235
16.8373
103.857
76.6078
76.295
112.74
59.2307
-14.8026
-132.237
-90.776
-17.451
-24.7137
-124.289
-102.666
-45.8341
-92.8306
-200.252
-16.1851
118.012
84.0458
55.6074
35.5638
-8.83978
-30.5952
-2.10786
-11.23
27.1846
88.1446
62.4824
3.9602
-4.21054
10.2626
-18.3168
-49.1137
9.92336
73.5443
112.718
-17.1677
-68.5114
-19.755
12.6883
-68.295
-85.2863
46.5542
-3.78209
-20.371
18.579
17.6543
66.8165
-5.30118
-58.8946
-19.5727
-8.83993
68.7651
58.9282
-7.36867
1.49924
-19.3644
8.32668
34.6448
-50.4808
-22.8828
1.45457
-61.1863
-34.4614
-21.4425
-1.02298
9.21438
3.84109
72.474
84.2629
75.5146
74.9866
3.3443
-83.519
-100.191
-38.1528
4.06516
-68.3837
-68.3999
-31.8409
7.48768
41.2816
-42.8029
-21.7098
108.307
58.6035
-19.0915
-12.3969
-28.9712
-36.8609
-113.166
-74.0973
70.2534
25.4399
50.0613
101.93
77.3275
19.9259
4.56432
-28.3817
-71.5157
67.1393
126.539
95.698
18.101
-9.27957
3.32451
-13.1119
-56.8653
-64.2983
20.2323
43.653
-53.0916
-40.601
7.3209
-14.1277
-58.3386
-67.977
-88.5487
69.2265
70.7819
-16.8471
-49.6462
-64.6785
-74.5317
-81.2586
-69.1812
69.6164
51.0193
45.2475
61.197
55.1081
51.4872
34.6669
15.5664
53.1387
0.744026
-29.1189
-57.3905
-88.8786
-20.2092
-9.76444
-49.1923
63.9513
118.451
118.089
72.067
-21.6906
-16.3683
9.71175
-50.1565
-53.7951
-75.7079
-55.5937
-24.646
-21.6793
22.2547
52.1783
37.0157
-36.8712
15.0688
-26.4448
14.6651
-10.2561
-26.8642
-4.00201
-2.76028
-63.2492
4.41095
18.4912
39.1777
21.0756
28.7634
46.3952
-28.7569
-67.6388
31.6432
58.889
111.04
110.225
18.5205
-25.3596
-45.1781
-112.77
-50.392
0.242772
-18.136
-1.2149
-5.13653
0.991039
15.8289
23.1177
-38.9581
-113.605
-29.3827
-24.7884
-60.9742
-19.4084
19.3468
50.485
18.8034
-50.2729
-23.4506
104.189
103.249
100.851
92.7301
49.491
-9.99525
-9.65601
-56.0514
-60.9077
-1.48854
4.68378
-25.0876
13.8155
10.9268
-27.9174
-85.6139
2.68408
45.4423
29.4756
55.9182
-2.58834
-84.6187
-134.85
-171.032
-84.7276
44.2314
70.8367
57.4055
20.3051
8.12056
41.9099
-13.5693
1.74107
15.1585
81.9263
88.801
20.4017
-3.36149
65.302
50.2098
-1.40028
20.5211
-56.3298
-41.9242
-20.4573
-42.0556
-8.23861
29.3479
-44.1859
-82.2406
54.1015
59.1849
17.6781
-29.5422
2.59835
67.5127
-13.6799
-52.3038
-8.36246
-22.3771
10.9243
-1.57946
23.1044
43.8156
-27.9749
-86.4426
-17.4218
-8.12452
19.6424
-5.04364
-44.2651
-4.61568
-16.9026
-100.325
-27.4355
28.5472
41.0567
26.8777
-1.01827
25.0278
58.2843
-1.6456
5.92171
46.5164
24.5754
24.2218
-3.55299
52.5574
91.121
5.39375
-54.1504
128.153
65.3932
-8.74464
-161.768
-188.338
-91.6729
-31.7713
-37.3663
74.102
52.7119
45.8406
-19.8271
-15.8518
31.9257
8.47639
-94.4134
-19.278
28.651
57.6949
70.2528
-56.0008
-76.0594
-22.6748
-60.6131
1.95436
-24.206
55.7488
147.072
27.6977
-29.5439
-48.8678
-48.6248
141.326
180.812
84.2607
54.2146
-33.9158
-57.9516
-49.7563
-128.09
-93.2962
-70.3701
26.9923
151.994
97.6767
-53.8892
-155.803
-154.969
-62.4742
-3.99588
-4.36586
86.0063
-29.0193
-105.852
-44.4761
-4.58959
-62.8748
66.8167
149.913
183.433
59.6595
47.4622
49.53
18.0769
6.88022
83.9765
7.70165
-42.8355
-36.1148
-41.321
26.0394
50.5966
16.7929
-54.8363
-168.832
-40.5908
101.507
-12.4836
-38.3737
-60.841
-44.8761
-34.1735
-149.738
-80.4167
27.6072
46.7776
116.328
112.168
73.0294
26.365
-15.2482
-2.63121
-7.77032
27.8396
83.9515
-1.57419
-122.188
-142.513
-62.6098
4.44808
32.6362
54.1896
56.5199
-10.0063
-55.2081
-50.21
-35.2888
-11.0545
-68.4319
-62.356
102.141
99.0765
34.5817
69.3707
115.314
59.5691
-28.2191
-37.7542
36.6713
15.8502
15.1557
-8.20609
-17.4538
-25.6376
-23.4853
46.7278
70.0152
-2.11488
-29.6758
1.21414
-13.5044
-35.6413
-105.195
-55.8751
-0.305784
-19.1864
45.0867
59.0667
-16.515
-32.6013
-100.032
-76.5933
19.5781
15.9943
-40.7688
-40.7825
2.32398
31.5227
40.4972
60.5057
-15.8172
11.9702
112.156
-14.3436
-52.6677
-11.4541
23.9197
66.8663
47.9426
-51.3579
-103.617
-28.9838
113.425
74.7811
65.1201
27.444
-7.22675
-18.1617
-43.5649
-91.4035
-30.4988
-2.0222
-33.6473
-13.2344
-13.1979
-8.63583
-10.2128
-18.9045
-6.26861
72.9158
89.6423
36.072
-23.6833
-8.53938
-4.84467
-41.6354
25.3825
-12.6935
-0.729467
17.6638
-14.0338
-48.4085
-64.8493
10.5836
105.619
33.0172
0.0116869
14.1903
-26.1405
-35.5626
-11.3064
-45.236
-50.9034
-47.5466
-1.21855
42.3096
-10.4404
-24.2193
29.0873
34.5767
-58.4087
-0.777692
103.784
131.797
79.8821
42.6143
-13.1813
-57.3812
-84.1624
40.8589
63.5747
56.9201
13.3991
-11.374
-60.5176
-80.805
-162.449
-13.2836
24.7769
-6.38808
68.538
-4.20089
-69.4236
-84.1282
-105.956
-31.4308
21.3193
78.244
85.6934
-20.8213
5.36522
50.5468
15.4105
-26.1468
-67.4222
-37.5151
88.0781
52.5558
51.2114
103.332
56.3288
-2.78283
-9.95171
-41.6466
-75.1368
40.5674
92.8402
43.2502
6.8669
-7.18028
-7.99742
-67.7528
-100.497
-106.715
42.2397
91.3007
47.9369
-21.2043
-72.0085
-78.2825
-59.5946
-55.9597
71.7628
109.444
27.6165
-52.9246
-52.0008
-3.80775
30.4229
-67.7897
-111.056
-38.0983
59.9104
137.831
74.8193
42.9948
0.147885
-78.3324
-5.18567
58.241
58.477
92.007
-24.9693
-70.5847
-67.7367
-120.402
-57.1597
8.78353
77.2553
141.683
125.555
27.1746
-55.5865
-134.584
-138.105
-1.07666
65.0254
53.9299
-3.37836
-2.10531
-8.40714
6.01373
-32.006
-25.5443
96.8383
158.895
88.1654
14.258
-83.4817
-99.7976
-81.4002
-111.458
-122.002
70.6455
71.6689
-9.78434
-52.7307
-23.5895
-24.7451
-28.5652
-36.8305
61.4256
104.029
90.6088
24.5333
-22.8256
-42.2954
-50.5799
20.5437
93.3713
18.3485
23.2964
23.0053
-47.9002
-39.3855
-79.4159
-66.1415
72.9372
85.658
51.1155
48.8682
12.315
13.8069
-38.011
-115.273
-90.2507
-15.1151
25.1279
51.6628
-28.4721
-26.5802
15.3633
8.60045
-44.8714
66.1209
123.19
82.5943
-20.3714
-84.8064
-60.9441
-33.2075
-86.7927
42.9927
59.4592
35.6947
2.68098
-0.163191
-2.34661
-48.0124
-80.9809
-1.53001
62.917
80.9825
117.76
34.7119
0.802256
-57.1225
-203.688
-144.555
-19.5377
33.9671
73.8465
11.0517
26.6788
29.7251
-11.0699
-30.1725
88.2582
136.633
39.5055
-16.5256
-35.0665
-12.5822
-19.6706
-50.7912
-85.7634
-2.06693
84.3545
83.1769
14.0559
-16.1338
-12.7305
-45.9037
-51.2317
-103.386
-57.6977
94.8097
12.6425
-64.7452
-8.61519
2.41899
20.3207
26.875
-12.2312
66.1446
70.3726
21.9492
45.7835
23.5728
-14.2777
-52.7554
-43.1473
21.0152
-15.7897
21.3323
21.8651
-75.655
-77.4507
-93.092
-9.24335
54.082
-30.3615
-32.0361
-20.5575
-6.46152
54.3705
49.1212
70.9076
37.8138
71.1954
44.9517
17.8165
-58.9725
-34.5787
44.4544
34.5004
-96.396
-2.54152
81.572
66.6606
0.841231
-5.04009
21.9392
31.2431
-47.2703
-135.751
-56.1351
-40.5963
-4.72427
-26.8915
-6.88647
14.7276
-38.2826
-37.682
86.2589
99.3835
103.193
-6.40333
-15.6533
-17.8472
-45.3198
-84.2898
10.9444
78.4058
9.83043
-48.7851
-146.442
-71.7241
21.47
-3.04143
-35.663
79.7628
99.0235
45.7813
41.9652
20.3658
-15.1454
-52.6585
-56.8658
-4.68444
44.271
80.2983
22.3671
-35.0724
-12.3898
60.6368
84.4867
-48.2557
-48.8492
35.6293
36.3768
-36.9989
-50.401
-4.7355
-57.2957
-99.6605
11.0709
73.8343
-3.53114
-29.7026
-28.0346
-5.23401
-21.1337
-27.2882
9.6302
-0.559053
70.4037
107.129
1.18086
-96.7571
-67.2944
-32.6246
63.2159
61.0593
35.775
48.6401
-9.79343
-45.8297
-10.453
28.6852
57.8047
26.494
-36.7998
-37.9708
-30.0783
-11.5319
-14.726
-67.9628
-65.6806
27.8746
68.3935
55.8442
67.0791
63.4932
17.0549
-42.9409
-101.345
-44.0356
106.596
73.891
-16.6254
2.9604
34.9101
6.57142
-54.5642
-96.5921
-34.3883
41.2712
8.92266
-52.5887
-45.1625
-18.8778
-6.0168
-24.0448
-93.0664
-75.7515
67.2271
36.3197
0.786784
-3.63257
20.4345
10.4833
-78.5611
-63.6756
84.6112
129.809
87.8844
96.8564
76.335
17.2223
-24.887
-95.314
-47.2141
-12.6589
38.5218
61.2847
29.684
33.7549
30.7461
-31.01
-13.5926
48.0633
31.9061
-10.1577
-63.6231
-42.592
-88.1373
-145.101
-163.259
-66.528
82.4576
103.655
16.4865
16.0616
50.4959
86.8099
-8.36889
-47.082
-24.9629
-22.2775
-24.3208
-11.1787
28.5275
30.186
-46.003
-16.9728
63.3307
60.4195
74.4458
30.5073
9.22265
31.9679
-57.2905
-9.42993
-3.05482
3.81842
10.4901
-28.4277
-54.2538
-11.391
-72.3222
-74.6675
-102.469
-35.9776
50.3434
66.6127
106.603
25.2423
-1.33625
37.2153
9.50532
-46.7446
10.0885
47.1484
90.3434
59.04
2.42049
-0.666956
-12.902
-24.7404
-72.1748
-32.0693
86.0011
27.3943
-47.5051
-28.6504
-8.80549
-49.9346
-105.826
-23.5199
38.0769
4.18771
-8.70179
-30.3453
-54.5066
-48.0897
-54.6658
85.3338
170.659
91.2641
11.7721
-49.808
-20.9234
-2.85178
-37.1686
-49.1965
2.95406
110.032
117.874
18.9733
-42.1423
-7.88471
-51.0492
-49.6469
-74.6008
-23.5243
15.5699
-7.29802
-31.5174
-24.6025
28.9718
21.0911
75.4855
80.7898
63.8117
78.9879
-13.4503
-204.312
-183.418
-62.1513
20.9268
65.1013
-1.43929
39.7182
84.4388
39.9289
46.2401
2.36554
-41.1684
-74.8587
-38.846
69.3828
-6.9168
-5.29403
8.1912
2.56938
58.0228
39.1724
53.3051
21.914
-19.2782
-29.2177
-42.0334
-41.788
-6.44341
-74.7775
-9.70606
59.3697
38.9508
37.4434
31.1489
-19.0355
-13.5561
-75.7471
-17.6981
45.8597
20.5413
52.5199
28.7423
-35.8444
-80.8411
-53.8324
12.4846
3.56566
36.4932
45.1091
-13.1733
-74.675
-48.1341
8.8215
7.30558
-71.4005
8.95968
81.5861
24.7128
0.125627
35.3311
82.524
23.0265
-96.6091
-84.7299
35.0428
40.89
3.65532
-45.2338
-11.904
-10.6938
-26.7377
-60.3179
-68.5901
86.4255
130.812
64.2652
-14.4892
-25.2749
-40.5177
-45.9921
-43.3841
67.6626
79.3351
56.1167
-45.6316
-35.3677
9.10636
0.830173
44.4386
31.3063
16.8356
48.6972
41.9793
-65.5197
-58.2424
-28.483
-21.3785
-48.4414
9.09832
11.5081
-11.6218
-42.8573
30.5492
39.7817
25.7625
-25.9354
-39.6889
79.8775
6.56627
-35.5631
-30.3544
-19.8597
-43.084
-107.314
1.99468
19.2271
53.1418
53.2085
-11.269
-23.924
-26.3361
-40.2706
66.6987
60.8407
13.2387
1.97516
-10.5006
-58.7926
-95.5171
-25.8788
66.4047
48.3384
52.2971
58.8664
-3.0601
-11.1554
-7.28517
14.1604
72.7508
21.9885
29.523
39.9799
-8.27589
-28.138
-33.4282
-86.4323
-98.6403
22.3234
73.13
8.12321
-36.9247
-1.08609
21.0365
1.42329
-62.7116
-64.5933
-4.77289
89.9577
48.6175
5.40711
-20.8687
-17.736
11.4304
27.4061
-56.4133
43.0701
44.1064
-33.9125
-5.96876
-15.321
-40.6483
-40.4073
-55.4504
41.5433
56.5295
41.6427
15.631
-28.5196
-67.8496
-46.2355
-76.3816
26.4624
44.7355
48.5168
76.3445
30.5075
15.8046
-39.3984
-85.1046
12.129
29.3767
29.6062
43.5576
-15.3829
-12.1025
8.81445
11.5002
-29.2363
-43.0233
39.8777
57.5294
-13.1101
-37.5971
-9.9348
7.51209
-7.49628
-29.2275
25.3356
28.2865
-16.6027
-22.6382
-11.2178
13.6426
-35.0098
-22.3148
60.8127
39.8274
28.0488
22.0715
-22.3197
-21.6045
-68.2801
-14.8871
65.9549
45.9712
22.5547
21.7597
-25.3732
-38.2131
-82.6352
-27.1098
-38.0804
62.7487
45.8857
40.3047
-5.0951
-17.8167
-21.7389
-43.0637
-79.1632
35.3488
52.4825
25.3268
-4.49635
-8.87349
-23.7036
1.34425
-39.2159
-44.6372
18.1588
63.5411
31.9592
-31.9551
-22.4794
-17.5684
-6.84104
24.323
-32.5756
31.2714
74.1421
27.1276
17.6913
6.78204
-0.417664
0.176747
-18.5904
16.3427
36.495
40.2809
-0.110532
-62.5326
-39.7491
-48.7178
-80.3169
-14.1407
9.46128
21.1535
63.2158
22.7881
4.9011
-25.446
-33.3914
1.29628
-14.5211
-9.7642
3.61333
-37.6642
-37.2641
-42.205
-29.5275
107.047
151.833
102.093
64.3348
6.14454
-22.9549
-16.9056
-22.0927
-95.5502
-66.2883
53.6616
45.5654
7.80029
16.19
25.1773
10.8355
-41.1737
-76.3724
24.791
-14.3519
-115.79
-101.19
-73.8561
-39.0759
-88.3833
-58.2439
74.1763
92.1151
78.6718
37.3746
-27.3478
14.3049
16.4434
24.7802
3.18524
70.8327
84.5829
74.8075
50.1955
57.6118
18.4164
-10.4138
-60.7339
25.9109
38.7982
7.84979
-57.8614
-43.469
-7.42915
-44.163
-52.4759
-14.0416
16.4277
15.8229
4.18524
-19.8561
22.1012
50.4189
11.8811
-29.7419
32.9932
35.995
30.4387
-34.7129
-0.638258
26.1882
-0.402617
-73.2689
-1.33585
7.25833
-51.5342
-94.8498
-119.515
-100.674
-106.219
-96.4501
-33.685
-36.1916
-8.77937
71.4666
40.3558
37.4183
15.0484
55.5624
73.9669
25.5159
11.5147
29.5935
6.62505
26.452
5.73781
124.279
157.367
132.655
116.393
51.021
-17.4058
-17.5193
-57.9169
-116.597
-32.8123
9.24272
15.7343
2.75626
-2.14213
7.47417
-30.3928
-26.3987
-41.2443
23.071
-19.365
-103.222
-104.959
-122.087
-101.65
-18.2227
2.58408
22.9521
116.768
195.556
56.2258
-5.35757
6.65569
-13.1917
-21.9467
-42.227
-44.9272
39.657
36.2816
-24.1365
18.5423
-10.1355
-37.1305
10.7812
-0.675905
8.6128
-4.06633
-36.2726
-94.651
-130.851
-99.8589
-41.4335
-18.4796
45.0856
30.3617
64.001
106.181
54.3966
31.9795
-27.5427
-110.086
8.85944
73.3451
59.5121
96.8725
83.6318
54.8402
23.5859
4.67562
-14.7083
-27.4089
32.216
75.4831
11.3726
1.20397
-10.9156
1.66667
9.32304
-48.2213
23.6197
111.387
8.86401
-47.6861
-31.5481
-33.3007
-109.622
-154.126
-47.8069
48.0599
41.504
45.1097
-20.2713
-44.9394
-58.5968
-73.4125
-17.2915
44.2983
0.833545
-7.80247
-37.497
-0.651758
6.39681
-94.953
-88.9894
4.40866
-7.25717
30.44
-3.44473
-45.0669
-22.5154
-15.3617
-11.991
53.4875
83.37
138.62
67.5837
9.58568
52.909
70.8133
64.4009
13.1166
8.51227
60.4458
29.4621
-10.2225
-2.62826
-5.76235
-3.68425
-53.0372
-18.9462
40.8292
9.0113
-38.7183
-61.9951
-76.083
-24.6687
-43.7164
-77.1017
81.0164
78.5057
33.839
-75.5402
-71.1485
-39.6726
-58.7111
-14.9658
67.1929
17.4721
28.2792
32.8187
5.73675
9.07345
-13.3009
-22.6816
-3.83359
-5.67026
19.7263
26.4301
-32.9572
21.946
17.112
64.898
99.2569
78.3752
-12.9772
-90.7968
-59.3846
31.7267
-18.1529
-133.34
-113.893
43.8738
116.944
88.8916
72.0562
85.9233
53.2236
-9.84012
-104.739
-59.0972
-36.6921
-35.89
-64.0032
-62.6049
9.42591
-1.83889
-62.108
-42.1166
39.404
31.5985
-18.2531
-68.2501
-87.6037
-72.2429
-47.8448
-86.0772
-41.0057
95.6687
176.468
145.204
56.6247
25.7317
37.5146
-2.44144
51.4128
97.7973
63.6293
-20.9552
-47.975
19.1997
60.5223
-34.458
-47.5226
54.6163
47.698
70.8858
52.3013
-18.0538
-110.346
-163.367
-93.4867
-90.7771
6.48138
71.5172
34.495
-33.3408
-85.3115
-37.0432
-16.1567
-49.7138
27.5331
64.9802
55.1426
20.5712
-52.8902
-79.3796
-69.7431
-71.0584
45.1929
117.897
85.1819
49.8505
-9.8137
13.6937
25.7135
42.1805
117.318
65.7891
-13.5877
-18.3661
-75.1601
-58.8457
-52.4286
-99.1278
6.99611
31.8357
8.90842
5.35356
14.0692
-30.906
-59.5413
-43.9457
24.1936
27.3963
46.5744
34.8536
-51.6146
-59.4969
-8.30086
-15.5231
-51.1518
78.2516
131.702
103.243
83.2149
63.5996
-8.18023
10.5458
-15.5461
-79.6451
-33.9158
-14.1042
-109.885
-92.1031
-32.5592
12.1347
-4.90655
-57.7878
-28.6271
108.29
102.622
0.762728
-49.3343
-60.5667
-66.7117
-42.3471
44.4788
101.02
20.4589
6.20633
56.5612
73.6482
28.5195
-37.5012
-15.0794
23.2454
18.88
22.8595
31.86
13.0661
15.0734
-33.1108
33.7143
46.7648
-66.3093
-78.7303
-61.2031
-95.4362
-77.1755
-4.91484
-1.58823
-64.7016
-7.51145
105.06
47.4568
-35.2694
-77.7409
-37.8002
-24.277
-64.7755
-8.23953
63.8543
6.74776
7.71441
-7.2874
-12.9692
-7.71812
-1.7939
103.14
171.169
137.188
117.923
49.0587
-26.966
-72.6788
-105.462
-32.1405
-16.6674
-37.3292
-2.94088
-3.43953
-18.1402
-48.5601
-97.7004
-52.5086
95.5663
82.5423
78.3384
26.5959
-17.8533
-15.3525
-6.14501
-63.2057
-90.8852
83.85
189.818
100.512
43.4092
18.1699
-20.524
-25.7959
-70.506
-108.873
55.9782
55.3692
-49.444
-70.6815
-45.9268
-63.6703
-86.919
-105.96
-82.5562
48.3416
51.259
-24.1871
-43.0894
2.6093
-13.475
-79.1988
-88.0991
5.17849
66.1238
74.4651
-7.78494
22.4365
35.8874
73.9443
79.0207
129.836
86.1111
50.8767
36.9365
22.1657
36.859
-33.0129
-105.649
-17.2785
4.63512
28.9407
26.0411
-47.3223
-59.8359
-37.9767
-42.5024
17.6105
57.2026
46.6533
61.6845
13.8422
-42.0575
-70.1823
-57.9773
-92.7255
-66.8435
-5.74926
20.3358
11.5569
16.8014
45.6395
51.2838
-37.6186
7.42244
90.5584
46.9425
-11.0106
-64.209
-71.2339
-53.8608
-111.459
-144.144
-1.8048
45.0472
41.5106
48.5636
85.6443
112.036
35.7698
-16.9489
-27.6393
13.4243
15.2615
-12.4969
-28.6933
-13.0484
-15.3968
50.5669
139.484
156.087
88.6508
72.2599
2.73799
-57.2486
-89.7559
-110.394
-142.323
-82.4129
-17.5932
39.1503
58.8198
-13.2483
-52.8215
-67.0441
-46.6291
-48.9206
-64.9009
-42.65
-66.0384
-53.1332
22.9416
39.1971
28.3917
3.52401
52.6681
112.652
70.8467
40.1757
27.5976
33.4098
32.9113
5.96405
85.4647
134.573
65.2903
59.6032
32.2598
-57.239
-68.8021
-113.09
-74.4313
-7.83386
-14.2239
16.8887
-26.352
-59.1117
-37.5324
-71.4634
-44.1569
15.2143
-52.353
-32.3799
-40.7287
-87.3523
-52.8109
-52.2825
-6.84538
64.2978
179.587
146.763
90.5839
20.9057
-13.523
-10.7761
-2.14376
-46.4275
66.5583
180.216
58.7074
-25.4085
10.4958
3.79863
-48.1924
-99.894
-120.516
-11.3519
10.8646
-67.1354
-109.26
-7.21974
61.221
47.8324
-12.1935
5.11099
48.2921
32.1283
-35.8463
-17.0341
15.2452
-19.9385
-6.24589
106.071
89.9715
44.0702
-9.4506
-56.5495
-65.0419
-105.605
-139.635
-59.0918
-55.3153
5.41508
58.7027
20.0957
-11.9812
-8.06036
-7.95151
96.7181
67.8549
15.1132
-21.6698
-24.0307
-2.2335
15.6018
46.7598
13.509
100.173
107.765
70.2773
-31.4192
-19.1331
-2.70499
-27.0917
-63.119
14.9425
38.1268
36.7611
-58.7987
-42.5466
4.10663
-30.0035
-42.1094
12.0703
-0.110241
-6.79275
-33.8678
-118.249
-102.255
-57.8956
-8.29175
50.8493
49.489
119.442
171.951
98.7532
38.638
-47.7553
-146.718
-76.9374
-12.8972
-3.15557
-56.253
-91.012
-28.1219
54.5044
59.009
10.8264
54.6318
54.4926
37.7297
-13.8351
-55.8238
-63.8354
-31.0303
-78.8894
-112.189
8.56115
130.478
71.5435
69.2864
119.087
54.1743
4.65686
-19.3316
-81.8241
15.7855
95.2937
48.3327
11.0475
-43.7581
-42.871
-12.8855
-77.206
-19.3319
20.8555
71.7894
43.5671
-18.885
-45.4509
-78.8078
-82.982
50.6821
56.6644
20.8241
8.95665
-37.7511
-74.2511
-70.8725
-56.8905
41.2876
-20.6989
-53.7654
-19.2577
-68.1543
-31.679
9.98122
-15.1568
4.47876
48.7759
18.3685
29.1514
-22.312
14.0915
64.3271
107.988
76.8362
88.6908
108.128
84.7519
15.6051
-12.1706
-18.0473
17.9352
-15.4715
1.64883
42.1399
0.415614
-20.1803
-11.5951
-21.7959
-61.0322
-121.697
-89.9316
1.9876
61.9317
78.2361
-10.5602
-78.0597
-62.1163
-79.3342
-61.4376
-0.397224
41.4518
12.8793
-15.9739
-43.8501
-10.9805
-37.5303
-130.931
-106.659
30.5733
101.27
100.537
36.1407
7.54226
-50.8321
-84.7809
-92.9041
-36.6215
73.416
194.787
135.1
36.0258
23.6898
29.746
18.0659
-53.7723
8.26266
53.434
55.5148
32.3723
32.7464
45.1283
13.6389
-53.4654
7.15258
72.86
92.9499
68.1682
-24.0975
-95.9648
-149.176
-158.649
-59.718
-72.3532
-59.1432
12.5595
13.3339
90.7989
147.567
28.2105
45.2659
-12.4692
-64.9684
-74.3461
-134.682
-138.353
-83.2956
-68.5231
37.5525
34.3799
27.1417
57.6041
50.5442
31.7382
29.0146
-16.8126
8.9171
48.0399
26.3832
32.4046
-1.67273
-54.5021
-56.3794
-39.975
8.41377
26.9551
65.979
151.625
47.0787
48.1833
84.8297
62.0482
-8.47837
-37.8709
-66.4283
13.0353
-36.7105
-49.1938
-3.14895
13.5816
-27.1953
-30.9206
-52.0034
21.4996
32.3028
16.6625
-51.7085
-154.561
-142.021
-77.5136
-16.81
99.8383
80.035
70.4895
65.4387
68.9186
51.9973
-3.18583
-84.4353
-29.5277
4.24881
16.8891
36.55
56.872
52.1689
11.833
-75.1477
-101.443
-20.4167
34.0494
69.5359
1.41116
-4.13423
-19.0941
-3.3643
-44.9183
31.7657
26.9663
-33.6663
-80.8668
-89.3571
-7.12076
72.4828
-22.5209
-10.4412
16.8199
17.2947
21.0369
-17.4676
-75.7393
-69.3279
-30.9921
96.7399
130.792
67.5081
25.3346
14.3668
0.250159
-19.9929
-73.8921
-24.5886
7.28612
-3.04712
42.4653
49.3178
14.9065
21.1583
-1.61276
14.0084
54.837
57.9148
12.2279
2.01236
15.8836
-5.98117
-34.8708
-114.621
-139.932
-43.0788
6.09026
-5.74817
-15.7591
-13.1448
-9.48057
12.734
-23.5124
-36.5462
104.158
24.9722
-26.826
-40.5226
-48.8075
-45.13
-19.3603
89.1313
174.196
145.493
50.6166
-23.2425
-61.2187
-93.7158
-111.637
-122.697
-93.138
-26.9059
56.6703
132.325
52.5304
36.3523
47.8046
31.6808
45.2886
-5.79701
-50.1814
-62.4165
-61.7422
2.70148
49.2405
-42.6493
23.5197
71.4364
84.8318
113.658
83.8133
10.2615
-1.49537
-71.9161
-135.708
3.32275
77.4729
65.427
11.5667
-43.3327
-56.1075
-91.1404
-130.796
-147.145
-18.4224
13.7061
19.4535
48.0015
32.4791
2.26682
-16.192
-67.0761
-44.2929
-9.3368
37.4288
9.7723
-15.8405
7.49748
-18.7526
10.4542
60.9245
134.219
120.751
67.351
39.1139
77.9592
25.2149
-63.4966
-116.308
-27.6244
-3.6453
-12.8885
25.7242
83.651
48.7708
-51.9423
-153.093
-42.9783
17.483
-9.72752
-60.0764
-103.383
-68.1974
-10.9081
-48.4057
-17.1551
48.3948
36.1051
51.7822
9.72258
26.5869
48.0379
19.4678
-43.12
21.2902
47.742
56.7052
11.4128
17.6565
38.0802
50.8063
5.72859
43.2256
47.1842
46.8151
9.58871
-65.5717
-89.0407
-122.517
-137.561
-63.1755
-3.56695
-16.199
58.7567
39.1946
17.2813
48.9707
15.2457
81.9898
41.796
-21.7206
-58.2471
-87.0886
-48.6895
-36.0514
-94.8277
28.6998
56.7741
105.681
85.4281
36.8946
31.8776
-0.44097
-101.946
-75.7779
66.1941
149.253
149.029
56.9583
-10.2759
-46.2224
-39.3014
-41.6832
-108.676
-19.4655
63.6798
-49.9696
-74.1334
-21.9711
45.1774
40.9112
-36.3272
-75.4161
-68.1004
-40.4096
-42.9768
-44.7043
2.02566
-18.9505
-31.1556
-13.4901
14.2455
118.781
104.592
79.2172
44.1197
-37.2057
30.7558
15.6241
-0.991526
6.90064
-39.6696
-45.8152
11.5972
-41.7466
-71.2454
-90.5259
2.67817
80.8924
109.323
83.1896
69.0252
32.9105
19.1947
-94.8742
-94.0231
1.12725
37.1047
23.7235
-24.3553
-76.8207
-53.1958
-4.44676
-52.9615
-23.9354
62.4852
72.662
60.2534
18.4181
-27.4671
13.5545
6.8759
-9.18958
20.1462
-19.4581
-28.0653
-34.8675
-55.2564
-38.0404
-49.5532
-3.08608
101.178
97.8244
92.4302
17.5008
-72.2444
-88.1035
-194.213
-118.633
13.0357
27.7254
47.6369
5.92687
57.3517
171.279
135.498
83.6402
61.1597
-2.96314
-40.2594
-83.241
-103.032
-35.9822
97.9459
32.0577
-35.6989
103.805
111.988
55.6184
9.76298
-16.7295
-60.6021
-103.221
-125.34
-134.786
-90.0942
-3.30379
-22.8552
-36.6419
-28.1976
0.557317
0.324866
2.1507
-51.7644
-27.8092
117.037
29.6468
-4.5455
-23.8331
-2.26788
25.704
-1.8326
-26.0598
82.7381
117.602
89.5422
-11.155
-12.5635
37.6188
41.1117
73.2948
73.7012
39.131
-5.60188
-24.22
-77.3042
-33.638
-75.8961
-81.5896
35.1089
4.39956
12.039
4.56633
-51.7723
-34.711
14.0463
16.19
-40.7507
-35.1939
-55.8336
-64.3827
-18.8808
38.7323
50.7375
37.7913
-102.989
-130.524
61.4315
103.001
12.5368
11.2642
22.9264
39.0764
14.4928
-18.587
92.6504
18.8048
-33.3818
-54.5167
3.11642
-14.5019
-3.43131
35.8869
64.3129
114.149
112.054
47.5394
-10.949
-19.4074
-56.9088
-62.139
-100.697
-101.171
-23.2789
-35.0823
-116.159
-64.2142
-19.4027
12.4005
24.5985
-35.825
64.499
62.7255
-4.02546
-17.4431
31.0478
26.959
25.5414
36.4762
-24.4335
21.9171
65.6205
50.4329
-3.39839
21.6587
28.8989
-25.4121
-25.6929
44.4562
39.9453
14.1835
-34.8955
-39.0594
-2.20048
5.73133
-12.7311
43.836
20.6666
-43.7627
-30.9331
-26.8696
15.3235
21.2894
-41.5363
7.51372
2.9682
38.8331
77.7111
6.04322
-38.5621
-36.0229
-120.385
-110.257
-63.0727
-54.0164
-31.2012
-59.0231
-72.4245
18.4634
113.532
65.9264
98.1678
82.1094
5.76819
-9.56471
62.5051
82.4349
42.0358
5.25818
-30.1506
-6.73977
15.9766
-36.8477
-36.82
2.72153
26.8247
7.02809
-44.1124
-88.0736
-11.1531
51.6994
6.12814
-4.33949
22.3065
9.75452
-26.5651
-57.4316
-68.3564
20.1467
32.8445
60.9559
39.1306
9.59932
-11.049
-53.7789
-60.7326
6.86588
90.4038
145.872
104.437
12.3752
-77.625
-150.268
-119.122
-55.8162
-77.4411
-46.6249
2.96059
-16.3182
36.7549
29.2183
16.8035
81.0681
53.0233
53.0639
44.4697
27.0469
20.112
-29.3758
-99.7584
-60.4483
39.314
56.0275
44.5203
16.2239
56.7208
42.8256
-74.5453
-98.5863
38.9008
86.3573
81.5268
18.5799
16.1186
20.3323
-9.97119
-7.58044
50.5599
-19.2462
-96.4143
-98.7293
-109.143
-70.4306
-74.3494
-64.9575
-9.15601
-26.1793
15.8173
3.06072
-32.157
-13.5728
-47.3646
-36.5774
82.8824
42.2653
46.8469
28.8089
-4.8382
22.005
14.7731
-31.7793
55.5335
109.428
134.41
117.09
86.3885
67.4844
33.2423
-10.341
-74.6568
-116.47
-36.2419
-11.8903
-85.0471
-72.6172
-56.4857
8.8665
26.0711
29.504
68.1711
163.125
106.098
2.66976
-59.2517
-122.814
-184.243
-109.206
-25.5488
-48.1137
29.3985
28.0946
7.69259
43.5866
28.684
5.99423
-14.762
-67.8569
-35.697
3.39895
55.2933
7.59408
-74.8068
-65.0314
-47.701
-9.55929
168.38
120.05
64.4141
32.2326
-47.0277
-52.6748
-27.2841
-74.784
-47.16
109.166
108.698
109.089
50.3461
21.5546
-16.7745
-40.245
-77.416
-82.4489
17.2694
20.2884
-56.1395
-48.7907
-26.528
30.6046
4.29297
72.5922
107.546
64.1056
42.4024
-10.4583
-39.1705
-111.013
-186.617
-142.552
-142.765
-74.8127
25.2693
93.1245
117.57
131.199
58.3031
122.145
115.3
70.6163
11.852
-99.3113
-124.198
-14.0709
4.39524
-58.1654
29.6716
84.4963
51.923
18.2079
-5.41514
-14.3739
-15.4586
-19.3871
-93.4481
-127.203
6.93844
34.5874
-24.546
-37.1079
4.5032
33.8506
-4.99656
-65.4733
-47.7829
7.43562
-42.2853
10.6763
113.177
65.0836
-30.8931
-49.5236
53.5376
92.7969
49.6454
55.1362
-32.6723
-72.3496
-40.1795
-53.2726
19.8541
49.3312
99.7178
75.9431
-3.7248
-47.0633
-85.1934
-44.1689
39.9387
47.4915
87.21
53.6304
-43.4942
-103.906
-136.912
-85.6548
-6.11392
-7.32366
43.1894
96.9021
47.399
13.5359
-93.5643
-137.395
16.6343
36.3541
39.4653
-26.0282
-52.7653
-0.057338
77.016
93.0812
39.8846
137.024
166.969
98.1795
9.42949
-66.9201
-112.749
-107.724
-157.381
-89.7641
53.1577
83.2903
-10.7963
-10.2119
-26.5711
-26.8821
-22.0055
-50.5278
-60.6875
-55.7916
-70.818
-54.9979
60.9465
80.8357
43.1748
-19.2016
-9.74208
23.4875
27.1244
-8.03307
1.12979
83.3853
29.797
-31.0231
29.9215
40.585
15.183
97.0216
125.111
170.003
137.606
-9.23641
-157.095
-114.925
-11.0633
-12.3757
-32.3115
-53.5095
-34.7653
-63.9157
-90.0469
-102.042
-54.0797
17.3614
-24.2102
-36.9216
-10.4478
14.5185
10.7859
-58.2861
-23.0544
-10.0209
-7.42488
-13.3077
-41.2643
61.2288
57.7532
19.6033
146.86
133.56
46.9084
43.0275
68.8146
30.4849
-16.6221
-54.3159
-33.2312
-37.8082
-21.3946
24.3958
14.7807
6.2447
16.7974
17.9512
9.26701
12.35
33.4526
32.9703
-72.8506
-76.8074
-59.5155
-67.1162
-87.8417
24.2655
51.0507
54.014
35.5751
29.8332
17.0925
-24.1994
-62.9901
-51.5008
96.7394
9.98864
-84.2202
-75.5848
-67.7709
-20.4191
8.05794
11.5745
-62.9454
70.5152
131.929
53.1423
-37.7025
-114.175
-107.519
-36.8045
-40.08
-2.13003
92.0802
83.3739
20.8601
35.7804
32.5638
-16.1623
-55.9748
-37.8092
0.28326
31.4079
178.991
108.56
22.2273
-0.90498
15.3548
16.608
47.5296
-9.5379
22.7982
-1.98442
-26.6536
-9.65205
-92.5446
-85.0959
-29.6134
101.005
71.7064
18.6903
-40.5322
-19.9938
-34.9593
-73.2744
-106.25
-23.4239
3.30008
-28.6314
-107.935
-12.8887
15.3202
17.6183
-11.3919
24.0209
45.3041
78.3845
43.1874
-8.63641
7.72018
-41.7874
-13.3282
23.7465
-32.2455
-43.524
-15.7464
-72.8584
-38.5352
-45.4175
14.2793
126.001
146.067
118.229
67.4622
-22.0624
-78.5573
-84.4053
-2.45202
-20.6192
44.411
77.1157
-11.5224
-35.7204
-35.617
-10.9022
37.6902
-0.768178
26.0173
129.37
147.873
-14.233
-86.4544
-93.7354
-77.9183
-61.0621
-19.6656
-53.3687
-19.4437
-28.1503
-51.3573
3.4164
38.133
25.2317
-10.534
-56.6503
6.41761
43.5535
97.5082
65.4576
-34.5821
-86.7573
-95.6726
-15.6145
45.3899
70.8043
102.23
118.528
77.0122
87.8441
-7.57544
5.17908
21.9696
-45.7005
-65.6013
-68.4193
-116.403
-121.2
-143.305
-52.7297
15.443
50.5055
120.566
85.3512
25.672
-25.5114
-93.7025
-98.739
21.876
72.3347
8.72986
-89.2324
-107.548
-35.5601
65.529
109.87
54.9406
52.9422
-3.80103
-28.0096
17.7864
59.873
60.4717
29.6694
-43.1789
-1.96957
50.5436
66.0071
-32.0776
-33.6878
17.8185
17.979
18.8152
15.7277
-77.3044
-125.013
26.296
76.6861
78.881
52.2109
54.7957
3.4643
-75.8082
-13.9794
52.1348
-47.6934
-89.8594
-114.012
-192.301
-162.148
-70.855
37.3732
159.724
125.93
113.451
111.81
34.9547
-10.7408
-4.22805
-107.839
-155.758
-90.4452
-19.9652
3.28065
14.1437
79.7646
98.8228
98.8239
96.781
53.5171
87.8447
14.128
-69.1794
-90.3421
-66.5391
-57.9073
-87.225
-73.9398
18.9295
35.5924
38.5941
14.9124
-9.60764
-53.4067
-73.303
-94.0844
-20.19
-0.203526
61.1694
133.648
91.2833
54.4583
-40.387
3.87908
108.559
84.3513
63.2496
71.8466
72.7992
72.6762
-35.0966
-99.9845
-26.3988
-50.5555
-24.6401
59.0566
-4.3189
-32.0477
-49.7678
-152.526
-203.908
-54.6558
-3.61191
-57.8193
-104.649
-90.3672
-56.5745
-5.49817
-6.19368
-8.29731
61.8185
167.213
59.8358
9.11709
38.6249
77.9133
80.7431
100.174
53.579
109.966
98.1735
-37.5178
-87.8002
-79.071
-67.7662
7.05577
-24.2815
32.5426
42.9751
58.9929
34.7155
-26.6631
-33.6752
-12.8616
-71.1197
-2.3812
12.6753
-5.86093
1.7277
-92.9733
-102.963
-78.7164
-11.2773
51.4616
121.455
105.221
161.476
67.6179
-61.3562
-49.3394
-30.4714
-80.743
-79.4499
-23.7351
30.565
-79.7185
-98.5199
-81.2889
-19.1729
37.3595
30.1307
53.4288
25.8971
17.572
-2.78467
9.41879
15.6056
-23.4455
-66.1811
-10.8951
-33.1588
42.4889
151.392
160.142
168.086
46.2363
-55.265
-1.86193
-29.2104
-4.06329
32.2686
-22.1683
-18.5254
-17.2768
-87.9013
-118.893
-79.0275
-108.947
-64.9919
-32.7693
3.86978
26.5537
31.0963
-29.8723
-18.3987
45.7789
80.3655
56.6234
15.5883
10.4683
36.0824
-2.13071
-48.5245
50.7146
192.072
190.949
50.9065
-10.1707
-14.9777
-55.5982
-74.0304
-142.222
-98.6717
47.3952
-9.95777
-38.3394
-8.66998
-29.5325
-13.1554
-66.781
-54.5323
-9.33593
-24.0881
-59.5815
-95.4163
-62.162
16.5136
60.1514
132.907
154.231
133.076
123.064
21.2892
-99.4981
-158.465
-131.286
29.3256
61.144
36.5858
-3.80432
-6.41583
-26.8748
19.0409
-52.9949
-54.8731
33.0364
-10.2591
32.5667
75.9701
40.5543
26.4162
54.0505
13.4343
-35.1046
49.0344
109.61
-0.488213
-76.1829
-72.2627
46.0974
126.569
40.8932
-30.5272
-36.4738
-43.2344
-97.2544
-67.6764
-42.6145
-80.6049
-163.212
-168.5
-25.7796
51.002
56.8096
49.0358
77.3935
81.0284
47.8556
20.5458
20.8061
73.5536
136.089
106.171
53.1512
-17.385
-60.0671
-83.6321
-121.804
-128.824
15.2987
-24.1938
-80.3575
-20.9261
52.3895
34.4956
-1.56381
-30.1981
-34.5981
94.4789
96.271
6.7572
-19.5833
-1.21211
27.824
30.0657
-29.1755
-63.3412
85.8825
63.8647
1.30576
42.126
27.9781
7.16975
-47.9391
-91.0954
-2.94688
10.3132
45.3509
-53.8368
-96.9888
-74.8488
-50.8096
-64.0796
16.7852
5.03508
3.45663
56.993
21.078
63.2693
79.2599
72.0921
101.571
19.6677
43.1537
83.394
-7.35514
-97.2818
-192.576
-101.154
70.3789
36.5122
-53.1262
-44.8754
-41.7962
-49.3352
-33.6334
-16.1568
-80.7792
-12.3756
55.6472
107.375
36.5087
17.2409
40.8137
53.5846
-3.2604
-23.6565
-1.15452
48.4957
-22.777
40.673
50.7129
51.0231
-64.9901
-162.477
-105.48
22.2901
210.987
149.944
13.3544
-51.6638
-71.1347
-52.0341
-103.566
-118.04
1.80309
-6.98863
44.5466
25.8123
41.3227
24.5165
-17.7838
13.9429
92.0389
121.853
103.516
17.4116
-116.803
-157.838
-105.275
-48.3625
-59.439
55.2231
76.2309
61.5578
-9.86259
29.1761
47.6398
-3.84623
-58.6445
-52.9534
83.6517
107.919
10.0478
0.104083
-31.5553
-49.3855
-32.8856
24.3982
-29.6888
-74.3149
-70.8619
4.14935
18.4201
-35.6742
-67.8401
-9.27928
-26.027
10.503
54.9451
144.751
106.169
11.4478
0.292401
1.36231
-12.4081
41.5609
25.0017
-46.7196
-61.3642
-25.2122
-11.2195
-115.594
-65.9571
102.427
151.531
111.967
85.0586
-5.18123
-58.5502
-126.916
-162.463
-104.883
9.48773
11.6099
18.8275
-31.4693
-15.3296
23.8441
28.4503
-75.2323
-17.6607
187.122
202.916
109.799
15.9905
-20.3924
-23.5896
-55.0583
-71.2262
-124.667
-100.646
-6.98739
-28.665
-54.4528
-31.0222
25.6937
8.68499
9.01468
-11.7142
72.5774
63.4678
-4.41119
33.3428
16.4059
15.4473
9.58608
-40.8329
-8.00751
36.6413
51.7871
60.6
9.44734
-23.8305
22.3232
10.4773
71.5835
40.4211
-22.9064
-12.1962
52.7801
61.0272
-30.9124
-95.5427
-111.995
-52.931
-44.0976
-42.0261
-76.8984
-68.2207
2.15778
90.4377
86.4348
27.9099
18.1597
26.6285
-97.177
-126.594
-65.7476
-15.7594
-18.3354
-38.2905
-75.384
18.8428
18.3577
25.1311
63.2757
129.377
129.036
81.0812
68.304
54.6983
-26.0084
-11.4874
54.0959
43.7083
-1.573
-53.4628
-66.9833
65.4611
99.9662
2.45534
-54.5664
-89.7293
-25.9367
-48.7396
-62.9828
-96.2827
-43.1028
5.89264
-10.5832
-14.7932
-7.94311
-12.7984
-20.0565
-8.61256
-23.6165
56.0057
207.072
80.2963
-58.4428
-80.8589
-3.38264
36.9591
50.5152
-11.371
-26.4838
64.9193
1.34207
-42.3226
-55.8048
-74.8445
-50.0667
-72.3073
-93.5629
4.7729
109.69
73.6704
-35.6123
-11.7272
31.7616
55.9972
-9.57213
48.8884
104.246
96.0464
78.6569
12.2429
-22.4645
-76.2663
-89.101
-29.9716
-44.8213
5.76836
77.8584
22.7258
-89.3778
-61.8965
-92.8854
-43.3589
27.6689
30.8357
88.7998
49.1298
-16.7013
-54.8428
-58.6174
-55.0722
-6.37215
143.683
139.217
36.7196
-7.40765
-43.3629
-33.7927
-15.5324
-48.8735
-68.3847
39.7862
7.09002
-33.3165
-16.4422
-3.14869
-50.1391
-86.4813
-26.1304
1.26795
148.723
134.698
4.01915
-39.3972
-15.9432
-4.00295
-2.07939
-79.5329
-37.7637
-0.497085
45.3628
119.02
101.924
42.5754
16.3631
-26.3543
49.2171
21.9458
-25.0687
-42.2164
-56.1476
-35.7131
-79.9951
-114.991
-27.2301
95.3141
50.5104
14.2182
-50.152
-61.8283
-37.1712
-98.881
-120.241
-20.0375
24.5449
94.5578
39.3921
46.2134
72.4062
84.0407
-43.4858
-23.4166
15.5514
67.0029
51.9958
-9.16641
17.9433
-11.4889
-79.0603
116.862
185.912
92.6797
33.4626
-62.6946
-103.632
-134.757
-158.038
-50.1739
-28.7118
7.57782
44.0743
-0.262234
-62.1005
-20.9478
-33.5431
27.7737
67.3618
116.416
162.004
78.6023
10.1293
-39.4189
-117.948
-118.56
53.5725
27.3677
-16.898
-53.1727
-24.3279
33.1387
-21.5878
-111.474
-36.9965
47.0448
-6.9318
-48.0725
-42.5069
-19.6293
-28.8271
6.04465
68.138
-59.992
-30.9984
63.6387
-33.6672
21.2213
89.0751
104.359
87.803
33.2812
-23.746
59.2491
52.5981
24.5385
59.5868
14.6669
-21.3519
-81.7847
-76.5869
-35.6646
-110.411
-21.5345
42.7017
11.8657
12.6208
-47.3431
-36.6347
34.6356
-3.79846
-22.1917
22.2791
38.7128
49.8213
-1.67089
43.8669
-37.7792
31.454
26.7021
15.1424
-48.5585
-56.1056
10.5199
-10.0151
-117.398
-45.5185
-14.2866
92.5346
55.3381
67.8051
41.7949
17.5369
1.47859
-48.993
-64.9835
-40.1936
-14.8073
-30.4862
23.2333
59.1923
-13.2663
-94.4339
-39.1756
49.1051
106.909
32.1958
20.6057
-82.2394
-159.483
-167.708
-6.35717
84.9139
72.6592
31.8292
25.0471
8.65148
17.1406
-84.8296
48.0653
82.2037
82.1437
126.437
127.048
138.211
119.292
-2.91325
-144.776
-142.114
0.782659
66.2087
-18.6641
-13.8524
4.56258
-14.2687
-63.3248
-98.8714
-58.0515
10.1573
-43.3593
-127.716
-74.4561
-13.9206
-40.325
-70.2753
-79.5656
-108.746
50.1096
57.1088
90.4788
158.355
92.8057
12.9264
-46.1615
-7.24383
107.632
68.3006
25.354
-17.5038
-85.2065
-50.2202
-57.1705
-76.3659
-8.7346
57.1278
46.3076
9.33952
15.2663
92.5732
68.1714
15.4109
84.0478
70.9048
49.1516
37.1718
-20.2601
-30.0923
-29.6022
-65.4664
-52.7147
41.6479
13.3248
-44.547
-55.3708
-75.4724
-77.0955
10.9684
-5.26592
-17.256
47.9018
16.2554
-84.5139
-103.452
-123.747
-105.8
-34.7309
57.9275
174.345
142.097
62.4661
-11.4735
-13.1614
30.226
-47.8595
-77.394
69.9394
143.999
147.891
80.6834
-111.988
-209.525
-109.411
5.86627
-33.5467
50.4907
86.1888
29.6578
-32.6885
-5.73239
53.7215
36.7542
-17.2794
15.2549
26.4841
-1.11613
-94.4712
-80.5014
-41.8061
-11.5582
15.3948
53.8961
47.4849
61.8129
107.288
78.2832
-5.74514
-47.724
-84.0811
-68.1053
-133.665
-144.603
-28.2677
-21.8818
27.9452
66.7627
102.742
128.921
70.0196
8.22763
65.0028
69.2017
-7.4276
-47.3993
-0.612835
18.4192
-38.0034
-7.89459
23.1718
-56.7551
-75.4116
-48.3014
-22.2945
-66.2406
-109.348
25.5877
75.3326
0.194275
-25.9676
-55.9406
-77.8396
-13.0591
-33.9469
6.60907
70.1323
61.2919
91.794
113.261
100.351
95.5326
48.2083
-13.5167
-67.0814
-37.1547
-10.4841
-61.9468
-109.505
-95.0931
-41.169
9.11296
-45.7518
-5.08589
154.678
149.834
60.5946
-6.28886
-32.8712
-68.2914
-59.5248
-51.6309
-3.59572
63.2607
10.6001
-44.9359
18.1857
10.0844
-13.9947
-16.0614
16.3751
111.194
78.1923
20.2113
-67.3219
-93.4632
-57.6189
-86.7859
-36.7061
26.5814
-12.4011
-9.1132
43.4661
23.2343
-24.7361
-38.9081
36.7998
88.1498
51.6142
9.87645
-20.5343
-7.05718
99.271
63.9607
-69.721
-118.756
-64.1549
-25.9135
9.86205
-20.3213
-0.0728313
58.2309
-13.2156
-89.6451
66.3574
99.0685
15.0223
-35.4589
-29.092
50.0476
23.6973
-73.8504
-10.449
28.071
83.2669
89.8721
-3.99697
-31.56
-101.181
-107.106
0.800794
55.2659
69.4502
13.7306
-73.6976
-34.9308
-20.392
36.0398
134.449
47.8071
-15.0081
-27.7487
-83.7133
-55.741
-58.0815
-124.819
-33.2478
35.0907
45.1294
110.125
107.207
57.5918
18.7043
29.1945
-19.8166
14.6923
17.5336
-36.2194
-111.791
-150.526
-234.444
-90.545
65.4879
110.895
172.112
252.566
115.098
19.7749
-5.84015
-35.755
-60.781
-96.9111
-68.074
50.0148
76.7726
32.1701
-30.5438
-83.2352
-65.7405
-19.2716
60.8062
133.158
20.7988
-79.5732
-88.3521
-60.2439
-53.7776
-162.845
-130.768
72.7996
36.1357
57.1795
49.7223
0.652552
26.6651
2.17946
20.7964
101.941
38.4679
32.6072
123.951
24.2738
-21.0913
31.3966
-49.6885
-130.192
11.2211
60.3378
4.37043
-69.9489
14.3964
3.83826
-37.4727
-119.191
-67.4023
66.5115
64.9787
52.0378
84.9431
68.8465
-12.129
-125.432
-39.1317
87.5423
81.3349
22.2131
-71.9364
-43.4146
-29.4191
-153.078
-138.132
31.3618
82.3181
135.407
80.216
-66.2515
-153.496
-158.567
-72.0942
46.1448
145.224
163.859
81.6343
-17.457
-35.6625
-8.35781
-32.3654
-8.74484
32.9563
94.4135
50.1094
-10.0164
-9.92509
-4.00379
-10.9245
11.6084
12.1768
37.0781
-14.3674
-105.183
-129.957
-108.121
-68.7303
5.02513
120.752
94.6545
103.205
94.2802
57.9632
8.40875
10.9248
8.54492
-21.646
-53.7218
2.58982
-68.7559
-77.3006
-86.9867
-24.3184
-19.2399
-37.1193
3.02212
62.9627
29.0068
-5.11959
35.4946
37.3317
14.5589
-33.078
-31.9715
15.6457
-33.759
-1.52846
6.33785
-47.412
-36.3368
-37.1096
24.0334
37.5557
98.2572
149.027
54.0809
-80.1393
-97.5864
-75.4102
-105.146
-174.765
22.2941
114.305
66.1456
65.2284
147.597
66.0376
29.2787
-36.8207
-37.2414
115.661
62.0577
15.7149
5.40602
-61.2687
-73.5971
-59.1117
-90.1439
-82.7328
38.5847
74.3068
-18.3904
-91.8359
-111.96
-81.276
-68.5172
-17.9903
130.701
207.107
179.964
88.19
92.1911
55.124
-35.362
-118.905
-102.828
-147.241
-50.923
-11.8924
-109.656
-79.9971
-94.736
21.9538
155.897
179.892
71.4513
-3.00146
-103.967
-83.1472
-20.2151
-39.9002
-122.692
-22.4038
47.714
48.2248
58.4524
109.254
19.0449
-43.5201
17.0842
159.837
169.85
75.5197
-41.4359
-108.74
-96.3536
-90.5663
-67.6146
18.908
52.3722
70.0016
70.4745
-23.5556
-83.0211
-96.3039
-55.9991
24.4427
65.1469
126.074
136.777
67.2552
45.1092
-45.046
-22.033
-32.0838
-37.3515
33.6157
-39.7749
-178.361
-166.629
-175.005
-116.397
22.5462
8.70657
31.2646
9.67302
-12.8733
-8.99796
63.1157
103.159
42.767
8.08967
61.3364
56.7359
46.168
42.5719
5.98055
3.55229
9.29657
-28.9277
53.9164
76.9919
-21.023
-35.0324
-0.174974
3.73656
60.945
53.1201
-63.3361
-98.2607
-27.836
-18.871
-15.3717
-27.8725
-29.615
-19.7574
-42.599
-29.8784
14.9945
41.6525
28.1017
-29.4875
-56.1402
29.7791
26.7213
70.5459
93.2963
59.8149
71.2531
-27.5293
-110.072
-41.1139
-14.1068
-21.5505
48.2461
117.271
90.5988
30.4023
-48.7205
-89.5105
-117.113
-57.4375
-70.3139
-63.1841
5.51045
25.9832
-14.8363
-35.7427
-18.8411
28.9377
-50.3138
-82.0827
46.2638
90.8818
49.4024
-35.6215
-36.1214
-13.3481
-59.4907
2.22298
123.014
111.424
116.07
136.015
127.802
31.6378
-62.7508
-71.3158
32.867
43.4812
27.2915
-23.2992
-153.177
-163.324
-104.12
-75.1107
-105.73
12.0926
235.955
174.062
31.2937
-57.8786
-71.0766
-66.6316
-93.4635
-105.995
53.4632
100.702
31.1127
2.16838
22.5033
-17.2238
-35.5248
-38.0975
-65.5891
72.9994
110.446
-6.74549
-61.9077
-4.85568
9.91406
-10.1721
-54.521
26.1807
42.8617
22.8928
-27.7144
-9.57998
-27.5052
-45.1777
-61.9324
89.2287
107.748
92.2472
46.9644
-36.9284
-34.891
-16.3511
-119.275
-36.0714
-33.0019
-20.3037
24.3627
26.1679
62.0172
69.6545
-29.0149
24.2821
17.6777
31.0197
58.9504
15.942
-8.94721
-46.3224
-54.2496
8.08933
22.5603
27.6691
12.8687
-32.3831
-27.1226
41.7691
62.5455
-68.1387
-64.874
-44.8068
-30.0053
-35.7364
-20.2008
20.9342
48.609
-111.056
-79.173
32.4244
24.2031
8.45019
56.433
57.735
36.4274
-8.6465
-48.6424
-77.3907
23.8151
80.142
31.4256
42.1156
38.2893
23.8849
-15.6557
0.827314
86.1263
38.8575
-99.8039
-129.854
4.25941
-44.8594
-90.8747
-29.9236
53.8172
13.2432
20.5636
20.852
-41.6003
-41.8944
-74.6001
-28.1438
145.962
113.048
76.5512
6.73269
-40.9241
39.6664
58.1829
22.2463
23.0666
20.2697
21.4815
-19.9063
-42.1256
-5.08473
7.7715
-6.27187
14.8083
20.9499
-23.5496
-54.018
-115.328
-95.3162
-61.6636
-109.467
-74.4698
50.8979
55.2253
-13.4409
-33.0619
52.6269
114.571
59.6629
52.4201
43.5095
-16.8929
19.6738
10.5815
-3.15068
8.63336
-73.6014
-101.638
-28.1195
3.38098
66.1612
44.9421
-17.2988
18.0415
37.6452
-55.9385
-38.1173
53.0886
58.8526
35.4597
48.5019
46.9892
6.04454
-54.6147
-79.3051
-34.6415
28.3168
-28.8979
-41.4909
32.2469
61.41
24.2536
8.70846
67.1486
25.2484
-1.14898
15.3316
-43.7674
-59.4471
-79.1169
-127.35
-112.974
-95.1793
-14.1206
91.143
86.1259
57.2095
43.2138
17.7136
-65.3292
-131.844
-75.8549
64.6379
39.1616
118.446
228.122
139.513
37.5362
-68.9481
-158.194
-105.067
16.6341
96.1509
71.5466
-16.5685
-36.0631
-50.8558
-79.9867
-23.9779
70.6595
106.892
47.1542
-15.2337
-10.1449
-38.8303
-100.203
-131.353
-35.7052
26.8315
59.9268
-3.37847
-44.3639
-42.9989
-21.2635
-26.243
69.1306
49.3572
68.9028
-1.37438
-3.74119
38.4796
-21.5268
-68.889
51.6093
39.9936
-13.4554
-7.20209
-25.1806
4.90011
-8.39152
-36.5608
93.1226
132.858
57.6467
43.1088
0.841153
-5.16082
-42.2605
-37.1501
-78.3626
-40.3839
-34.2691
-31.5871
-113.548
-80.8878
-26.3086
-19.033
-29.5517
-13.3198
48.5233
188.776
79.5693
-41.6985
-37.2829
-27.4799
-59.3153
-24.897
-50.241
-5.50673
114.234
108.215
110.235
52.1093
24.8752
0.875242
-69.3269
-51.9274
44.2592
12.564
-11.8538
-47.8037
-31.6998
-11.1234
-40.2162
-35.7449
-8.90932
5.91431
32.9942
48.3085
-5.96064
-31.2646
-53.3769
45.9872
27.7976
18.7714
34.1994
5.86525
-43.364
-63.8866
-52.8672
45.8157
20.8153
-18.1731
-11.6057
6.22615
-12.8406
-37.1648
-28.8151
64.7031
37.1596
57.7939
98.1091
51.8333
1.7434
-24.9839
-34.3696
-70.5963
-43.5506
32.3694
54.1003
-22.5049
-34.7488
-30.8839
-4.90514
-56.4103
-41.5339
49.5829
33.5105
-89.0628
-47.1588
-12.2114
27.4882
25.2572
51.4175
-1.83502
35.0085
89.2382
33.3542
-9.37704
-49.595
-80.3257
-62.9716
-91.6685
-65.9449
105.196
96.3505
63.0069
75.3675
29.4311
-12.7001
-25.0946
-46.1221
17.7221
13.8934
32.0168
-15.0382
-46.1204
-8.77225
33.4503
-33.4055
-107.995
-10.7482
92.8424
61.9678
-11.2875
-4.41764
-5.02428
-6.48236
-19.8146
-52.3009
-7.74044
44.5571
-26.5119
-50.9388
-25.1819
4.04586
-16.0142
-20.0808
55.5425
55.8198
38.9629
-25.245
-66.0808
5.64951
68.6149
37.1755
31.0808
-15.9553
0.156736
2.59087
-25.4922
-9.08598
-56.2367
-38.5993
147.048
55.3924
-7.47223
-31.678
-90.4193
-15.9395
40.6285
13.6193
37.0001
-42.5243
-115.003
-98.8909
-89.2078
-6.84436
113.188
143.819
50.704
101.041
194.669
103.824
-99.4008
-97.9382
-26.606
0.271701
-29.5996
-69.1391
-74.6172
-2.68883
-4.59538
-6.58779
-17.4771
-18.8045
-77.1933
-74.566
-68.3528
-30.1089
63.3108
-33.1566
-69.9752
-20.7506
14.4641
61.0607
60.5732
72.5117
121.692
69.2273
12.2687
-40.902
-39.6968
8.57923
28.7772
130.765
123.759
73.6999
4.71615
-14.8093
3.79776
-8.33201
-92.5443
-81.7714
-46.3071
-108.198
-86.5605
-31.23
-53.0015
-13.2731
10.3747
-72.8418
-31.0979
45.0533
24.8033
-17.6146
0.795007
22.7513
12.1645
-14.4892
-104.554
-0.798785
108.099
111.617
74.9723
50.907
56.7493
95.5172
-21.7151
6.25979
52.2702
43.9836
6.90641
-31.7101
-18.2282
-45.193
-82.4649
-19.2367
-2.3997
-2.8976
29.0902
2.81856
-56.6162
-85.8371
-127.517
-31.8123
52.4892
9.24514
44.5586
23.5226
-24.8836
-3.35127
-34.484
-65.7284
-32.4321
55.9557
46.9463
-28.2552
-24.9288
-2.68796
28.4146
-44.3846
-100.455
-29.0496
83.1402
129.191
79.2322
47.1177
40.0028
34.9791
88.476
28.2458
-16.0686
50.144
65.2384
-27.9756
-42.0843
-0.838014
20.6169
-48.6978
-40.8115
26.297
42.5113
1.25194
-70.9577
-109.009
-113.8
-136.887
-9.63271
16.3739
5.08362
28.4551
50.3939
9.23243
-118.684
-152.389
-11.3219
1.61541
-10.9733
59.2984
75.5639
60.1323
44.647
5.39953
67.9453
68.975
-6.60499
-4.26629
9.06657
28.0116
40.3023
50.3115
23.4514
-52.6009
44.5281
78.1775
-9.18858
-28.817
-36.2562
-72.4449
-47.4362
-14.7506
69.2037
90.7723
12.311
-39.0342
-43.5694
-10.6882
-34.9489
-71.8267
-59.5409
-22.9794
10.4987
73.1945
54.4846
28.8088
7.18232
-41.5029
-117.057
-18.7136
10.632
-16.0255
-3.02643
22.5663
-43.9442
-56.1479
-76.5586
26.0991
120.054
100.201
26.3039
2.52626
-6.78678
-15.6068
-39.7131
-5.20024
45.8266
29.1942
14.8604
11.8187
2.50704
18.1305
-19.3529
-49.6915
-25.6211
83.9441
126.895
66.1749
3.27148
-40.1399
-61.9335
-87.1574
-136.095
-43.2187
16.1512
17.5351
-2.73524
-8.32618
13.4578
-32.023
-40.7405
42.0697
12.1987
68.2891
112.242
34.2397
-20.7792
-80.5536
-62.3721
25.0099
8.2935
17.1157
49.5798
18.5938
0.997621
-36.8124
-41.3526
89.4544
21.4097
-5.21171
3.11023
-50.7965
-74.6268
-126.921
-158.671
-44.3829
15.1799
112.944
94.554
72.8009
78.2323
33.9008
16.9118
-82.1253
-50.9394
41.7388
70.4251
33.72
71.375
45.3359
-17.0256
-101.206
-64.0798
-15.8003
149.537
55.447
-56.6126
-125.024
-128.069
-60.2445
-14.2733
-27.1719
61.4176
183.786
130.902
30.4904
-60.4557
-100.587
-83.1894
-83.4178
-7.34225
130.313
88.6604
38.8698
-41.3034
-40.0631
4.13987
-84.2359
-60.3865
-0.363478
17.1424
54.9034
11.1201
-38.5544
-65.8143
-99.4921
-26.6827
62.1552
56.0998
63.6063
21.2874
-37.7586
21.0152
23.005
-37.5467
-69.4239
74.677
175.281
139.561
47.586
-12.8868
-33.109
-56.1528
-133.958
-64.3926
12.0396
-1.68414
-63.1261
-49.9108
-7.7863
-4.45358
1.50815
88.8584
78.9144
63.7462
78.9422
33.4924
-1.71265
-81.8494
-174.019
-98.0741
-41.5039
-6.7276
6.58365
-20.4852
-23.4772
14.5472
7.30583
102.643
202.34
153.345
43.0245
-81.2247
-92.9334
-26.7146
28.544
-57.0651
-48.6689
53.1139
65.672
-26.657
-38.4094
-51.8549
-52.9781
-29.9288
23.4796
-24.8073
-33.0818
-13.0936
-104.335
