33.339
44.0172
18.1643
-25.6235
-15.5374
-39.4512
-23.7539
33.8658
30.6334
67.6426
108.119
23.3567
-18.9294
-70.192
-58.4165
-16.4321
-18.9213
-37.672
-29.0365
44.0367
-2.46546
-36.6517
-32.4099
10.4963
9.46293
-9.3686
5.32779
76.4895
38.1343
-39.1888
-57.2662
-3.26965
27.6058
30.3179
30.1877
71.9727
20.0593
-71.5786
-52.7587
-52.5821
-12.9869
-4.20108
-8.25193
43.9764
33.7402
-24.2172
-24.3759
-30.701
-2.90366
30.4135
9.60139
23.3909
33.0612
82.3525
37.5026
-63.4543
-39.0407
0.65459
-5.88294
-18.2767
-6.72057
33.9593
94.4025
4.22193
-93.307
-84.3862
-44.4735
-29.3203
-8.47229
10.9
17.434
91.6229
59.3618
-74.0228
-47.7883
-2.22032
2.79481
21.3156
15.695
47.2972
22.1474
-36.1067
-67.5243
-21.3863
36.1385
50.8302
43.8423
62.4822
71.1492
-35.7401
-42.8475
-52.977
-25.7449
14.1987
17.4919
64.5326
-12.2016
-35.8829
-29.8611
-54.8427
-35.624
-22.9945
-27.5812
39.3362
47.3214
-19.8868
-11.1317
-36.2964
-34.7851
25.524
23.8958
19.3432
87.2581
35.1986
-26.0126
-58.2407
-20.5239
6.04849
-0.18431
-9.89143
7.3624
41.4234
-31.6868
-65.1532
-36.0804
23.343
31.3497
24.8202
29.2671
130.27
48.9661
-69.0432
-86.8156
-31.1622
-0.902602
5.65012
11.4711
8.18718
27.5395
100.466
-13.4925
-112.397
-67.6454
-31.5416
-1.56106
22.5019
36.064
66.8025
-6.12118
-52.8093
-14.989
27.0509
15.1703
20.251
28.7828
48.5996
3.2367
-23.976
-37.2417
-80.0984
-12.8151
22.4541
7.89264
18.9611
94.3675
51.1554
-94.0591
-89.9921
-29.3345
-20.2749
-10.849
17.9436
91.1505
44.9369
-31.7129
-49.2648
-22.6968
3.19726
-9.72029
-39.381
12.6355
50.3922
-4.89286
-9.19545
-45.2658
-19.8066
56.6468
34.4981
59.6548
49.7614
-6.93107
10.0158
-28.0303
-8.69657
20.7125
18.0297
60.0384
-1.17968
-47.3518
-59.8763
-47.1452
-49.8751
-19.886
-0.0256843
55.9192
9.49825
-53.2333
-56.2915
-54.0056
-25.749
36.2729
43.2125
21.7621
85.4814
132.647
22.716
-103.46
-59.4688
-35.8789
-25.4183
-14.3156
-4.12741
75.0744
95.0689
-45.5222
-34.041
44.7684
43.074
38.102
11.314
11.5191
40.9194
63.7763
-91.9984
-124.437
-55.451
-1.23605
5.43406
19.1458
30.793
37.5975
-28.1462
-64.3882
-89.603
-42.2888
4.20303
38.2637
59.1956
62.2753
-15.7583
-31.7304
-23.0518
-39.9085
27.2267
24.2639
24.4417
95.8767
84.5688
-58.5524
-65.3245
-61.1848
-33.2306
-31.6993
-31.2269
-5.86881
50.8925
151.525
22.4292
-73.7287
-25.408
2.80912
-6.19688
-9.97518
21.0669
93.5455
59.2881
-112.933
-90.2069
0.388574
8.85217
0.408167
9.01124
43.0508
16.4493
-22.8608
-40.2081
-63.5184
-8.79079
42.324
63.0176
91.0287
36.5096
-31.4887
-15.8224
-57.1628
-29.7644
18.2226
28.5698
131.253
56.0038
-9.47416
-94.5423
-116.419
-84.9711
-30.7549
-33.8917
-29.789
2.86609
68.0284
41.6934
-27.0259
-14.0625
16.7283
10.0324
-14.686
16.4429
67.1915
95.4362
-13.8277
-51.7603
-23.0753
43.4212
8.10769
-10.413
10.4095
18.4534
27.8977
-17.2727
-46.8847
-17.4046
-5.82478
0.47941
12.6451
49.0303
66.9611
-50.7254
-55.0479
-79.5093
-48.2746
-14.1628
-0.535074
57.3988
34.6465
-22.6823
-12.6914
-16.3216
-22.0892
20.2736
38.8321
82.5074
77.4351
-42.0401
-42.9456
-41.2514
-63.7223
7.387
0.798019
17.9974
55.5293
0.139861
-23.8407
-30.9063
-21.1005
-0.484883
-1.68349
10.4686
32.3194
58.9965
-30.7849
-53.4286
-26.223
49.8216
57.7011
29.0228
44.4724
69.128
-29.5963
-71.8561
-89.6485
-27.3113
1.40377
-7.95739
2.88889
65.6545
64.6173
-56.0899
-65.5984
-57.0649
2.59495
9.29618
12.9259
39.5091
89.9882
44.7107
-74.9026
-62.0342
-1.27696
12.4493
5.32419
21.4479
85.2905
30.0493
-71.8955
-74.7169
-57.2923
-11.5097
-28.7685
-23.7739
37.5996
71.1715
-4.55401
5.23758
8.49021
13.6622
16.4219
14.8234
23.3533
26.4502
28.7447
-57.2306
-78.5788
-37.7758
24.1924
8.02759
-1.22551
80.4173
104.118
-32.2896
-49.3794
-60.6724
-22.0431
-16.101
-37.8615
13.4123
63.4618
-7.66457
1.79006
-22.2142
-43.926
-7.67416
-12.5442
39.7188
59.5067
-23.1907
-9.54544
-19.84
-23.1938
68.2667
55.7581
95.1223
74.2905
-55.3609
-82.4265
-63.3722
-50.2561
4.97951
8.82199
9.95868
64.616
28.4783
-62.825
-61.3714
-39.3848
-4.7861
0.182294
-16.4812
-13.6636
50.2514
28.0225
-37.2805
-15.7997
49.2061
51.3822
25.0548
10.5814
102.71
15.8897
-55.8492
-124.044
-64.6307
15.2953
-0.740512
-19.2211
-6.95318
34.8968
24.9936
-19.7263
-28.2941
-7.08568
-9.72361
1.4434
55.4071
98.9314
34.8318
-13.9376
-51.7852
-18.3736
-8.05544
-1.4702
43.0116
106.251
-3.30151
-39.8479
-12.1849
-39.7987
-61.3966
-72.2523
-51.8226
66.928
4.00714
-21.6429
-0.243196
-19.0107
19.2882
24.4929
13.7015
72.8206
117.817
-13.6573
-66.5616
-117.176
-73.9857
-33.2802
-19.3131
44.7583
82.3505
17.7177
6.52426
-43.4781
4.19418
30.6397
50.0307
59.8279
45.7813
-62.0033
-78.8281
-55.4318
-54.4073
17.0221
44.224
79.9309
83.3102
12.0267
-6.6718
-42.221
-46.4532
16.4723
27.7447
37.921
39.8241
-11.6339
-58.6218
-61.7087
-31.6484
29.4155
21.3081
-8.86845
-24.0326
30.6803
-10.5531
-62.3874
-31.8059
2.20332
-23.2146
-29.2259
-15.1066
37.8256
68.931
6.31298
-26.619
4.1639
23.1848
11.7912
4.46056
16.5964
55.4741
52.0935
-82.4811
-78.1586
-34.8556
-24.3299
-0.946359
27.1422
48.2619
62.2331
-13.9771
-25.3175
-17.015
4.81146
36.6848
27.2393
40.4293
39.7449
-34.1541
-8.27023
-17.9514
-14.6898
42.7522
18.7958
43.1277
24.9938
-102.163
-67.8691
-42.0006
-47.5296
-18.5321
-4.10176
31.6196
78.2103
4.42794
-50.1883
-44.9124
-38.0497
20.3911
29.3905
22.6721
27.8049
46.8265
-52.9589
-56.9612
-24.9967
37.3074
20.1443
5.72866
50.3546
104.131
12.0238
-41.759
-68.7653
-17.7573
24.1566
3.30566
15.4008
110.525
54.8256
-35.4592
-51.4665
-83.5885
-49.5174
-25.3794
-11.6199
33.6357
63.2652
51.5187
-60.9235
-59.8157
-8.00681
-27.6569
-60.7366
-1.37518
92.1665
59.0185
-37.2488
-54.0591
-17.255
16.3707
1.59975
11.0698
84.1651
114.327
-27.3271
-41.6582
-71.2109
-88.874
-42.8949
-29.6714
15.9106
75.2092
115.664
30.7434
-23.1768
-13.707
32.5503
13.5695
-4.54395
30.46
50.9593
-5.28142
-49.5293
-88.3768
-39.7128
-13.9088
-13.0059
8.09898
62.4699
-56.7275
-52.5172
-27.9759
-29.5246
29.4872
11.4853
32.2739
78.1703
-9.61658
12.6474
-4.31168
-32.3945
-11.1522
34.3445
69.1653
72.0512
-24.665
-54.9379
-47.6361
-48.8744
6.69355
6.75285
-1.62505
-4.45107
17.8651
4.77851
6.45732
-14.827
6.38187
6.3453
4.36004
4.43342
40.9174
58.9842
-86.1982
-60.8968
-5.62521
14.7469
-4.19221
-35.7984
18.6999
70.636
63.9619
-11.2259
-55.3893
-12.8396
-4.11166
-3.73518
17.198
20.9658
50.41
-45.7137
-53.344
-50.9257
-3.18672
-0.866843
9.46953
39.1351
72.9586
-15.5911
-4.44314
-27.9786
-24.747
6.0955
35.3654
86.7254
41.0701
-64.2292
-54.4036
-33.4397
-43.6704
17.7298
15.0763
-22.0027
1.32731
82.9706
13.9684
-84.9853
-92.4628
-12.484
12.2819
-15.9903
-11.4659
40.8988
83.1808
-17.5602
-24.1555
30.1339
47.0465
27.8464
-9.50537
93.628
133.594
-23.1823
-110.802
-107.671
-33.7116
-5.16298
-20.8516
47.7884
63.3715
-50.0992
-37.0866
-26.0803
-4.64613
6.10806
-11.3547
40.9313
78.0708
-12.1203
-27.8821
-50.0093
-76.1923
10.6597
24.4138
0.721748
76.8475
7.5408
-57.1387
-66.8205
-47.6542
44.6369
59.518
49.237
20.0388
53.3787
79.2621
7.25739
0.985995
30.6003
-18.5052
-69.5358
-72.4394
-31.1646
30.5911
51.1848
-77.3394
-26.2941
-15.4157
-42.4466
-23.272
-2.88318
-2.48751
40.1337
12.4104
-20.4612
-38.1417
-7.49758
-24.0079
6.94058
34.1002
73.951
9.01877
21.2095
18.5387
-33.9756
6.35042
24.29
61.0814
61.8728
-16.5778
-15.441
-21.7154
-43.8265
-25.7985
-16.274
32.8008
59.1075
15.8408
-10.804
-22.2231
-30.8201
-10.6788
-2.82736
-27.3268
7.54017
57.5953
-72.7751
-73.6965
-47.3338
-14.6541
-9.84215
19.5232
32.2872
80.3186
31.4785
-38.1917
-24.7747
-29.2866
2.97837
39.7526
58.9562
93.3274
-4.70995
-59.0233
-79.5209
-48.6329
49.1943
24.2552
-21.4396
51.059
117.246
-36.493
-95.7192
-76.0925
2.75489
37.694
23.7666
28.5979
25.7859
29.2507
-19.9067
-75.555
-20.4206
6.4016
-21.634
-24.6414
25.3414
90.1118
44.0094
-8.09054
-60.0365
-12.6561
31.8286
33.7422
34.6188
31.1371
-29.2158
-42.662
-23.7507
-47.1858
-37.4008
-18.0609
5.75533
9.79532
5.24649
-43.9208
-27.0745
-49.4882
-8.00681
3.36737
-12.4697
85.3473
132.05
-54.2944
-79.1271
-48.8357
5.28769
58.0214
75.8981
76.2032
58.4564
-9.8631
-5.49342
-6.88209
-31.6019
-17.0386
-13.8674
10.9737
0.399761
-33.9294
-30.2321
-24.0607
-53.141
32.0744
60.4491
75.6258
52.6638
11.8021
7.12588
-29.6245
-44.449
-49.1618
-36.7029
-11.7004
53.5955
84.7948
-29.3882
-64.8502
-44.367
-47.9872
-63.7618
-55.0553
-43.9439
26.4672
69.7725
7.77319
-5.31538
24.0906
21.8672
7.59639
14.771
58.544
63.0701
52.0832
-40.798
-125.696
-16.8981
-6.19657
-0.990784
29.6674
41.676
73.6478
17.5426
3.29281
-20.6056
-26.4319
17.862
50.0986
79.1379
56.9505
-50.7491
-50.7809
-58.8049
-59.8257
-44.2632
4.53111
37.208
10.2417
-89.0982
-55.7874
3.81717
-24.835
-15.5017
17.913
39.0566
86.3306
93.4601
-40.789
-74.2892
-32.2837
43.7237
0.117173
-59.9524
-31.9945
35.9649
37.8718
-48.6415
-42.0186
15.174
43.602
44.2556
48.9026
54.7065
-3.19867
-63.124
-39.3094
-22.128
43.6036
29.4373
1.91124
63.4939
47.7448
20.2232
-16.9067
-39.2643
-32.9959
-43.7659
-52.6377
37.0117
-3.06307
-54.3163
-33.4237
3.46213
34.7869
49.5532
59.2974
79.2458
28.1114
-36.4262
-136.598
-126.593
-44.4613
10.7257
17.5421
5.53957
24.2384
29.4258
-59.741
-88.8
-15.5838
43.8331
45.2095
71.2699
123.044
171.354
123.893
-40.9445
-20.3443
-17.1444
-36.3687
-80.5802
-75.254
-60.4175
11.66
25.7507
-41.513
-17.191
3.03467
-51.7696
-73.4544
-91.4566
-39.7338
3.37137
61.8009
110.044
55.4465
12.1662
-5.3846
34.5512
103.425
41.0824
32.8447
22.4361
-17.6123
-66.6609
-60.2044
11.773
106.315
-1.60375
-26.2194
-14.9379
-57.1646
-78.0972
-116.385
-131.002
-69.0212
77.4444
24.7735
17.44
5.66241
26.0302
66.4122
56.7267
22.0889
29.2025
-7.54178
-75.1401
-47.3512
38.556
83.2075
105.083
87.5058
99.4768
41.2857
-129.781
-139.011
-107.408
-8.15916
23.011
20.5841
69.2188
49.4379
-38.7476
-37.6872
-33.3155
19.7408
24.9548
-40.5904
-58.192
-39.0121
23.3694
38.5914
57.8776
68.3729
60.3205
-67.8439
-162.898
-47.4142
115.632
154.626
50.1283
-48.3067
-66.0033
-93.6544
-71.6016
-62.9633
-31.417
49.6114
104.246
-2.49871
-43.4012
-62.7841
-71.746
-39.0561
74.4069
154.799
179.934
21.5775
-149.579
-171.154
-105.851
-36.4693
39.0275
75.3031
91.6702
52.3
17.1273
-12.2991
-0.808321
51.1023
29.1259
39.079
45.6428
-44.7262
-49.9638
-18.2218
22.3786
55.4823
52.4328
49.4765
63.3791
-13.4158
-41.3343
-24.9845
-46.2486
-20.7923
-13.1317
-1.49531
42.1317
-5.52938
-138.761
-122.806
-112.821
-98.3025
-56.276
1.22142
74.5378
115.776
40.0405
49.3216
41.664
71.881
50.5657
12.1837
-31.997
21.7171
41.4966
-148.18
-172.748
-104.753
4.41847
66.4987
154.116
223.459
160.989
63.8994
-109.518
-126.999
-37.0209
-33.5859
-49.4118
-27.7234
30.0143
74.367
-79.6853
-217.497
-131.542
27.3439
67.9978
134.693
209.423
176.171
47.9521
-93.4635
-98.6275
-74.8988
-32.0851
-14.9629
2.02106
14.5371
45.9876
34.5897
-134.68
-120.605
-3.9295
55.4295
35.7625
29.7717
7.76042
43.3449
13.4806
-37.7765
-170.688
-70.6293
-1.45469
24.9896
53.0906
71.2455
103.999
70.9785
-21.4319
-11.891
42.9707
6.65113
30.9798
79.1411
92.8573
66.36
-4.73434
-66.1008
-105.341
-131.56
-66.5079
-30.8234
20.8145
-18.297
-28.6952
6.22231
-11.7211
-37.4789
-35.4437
-18.7566
68.8719
46.7178
8.85479
20.0134
-3.13798
-10.8985
-30.6549
-50.3254
1.13885
60.8488
19.8243
14.5888
-4.11075
32.301
36.7452
4.63524
11.372
61.3684
38.5166
-8.11269
-52.1309
-50.4702
-14.0694
-1.65481
-21.5154
-11.6732
20.6603
59.1934
-43.9072
-119.369
-39.2872
-22.75
8.6289
-0.23081
-20.5341
49.3797
60.3596
-9.81669
7.64971
28.481
43.5025
27.2505
19.5404
59.4323
6.36454
-128.991
-115.302
-87.9558
3.04698
31.2041
112.702
147.805
47.4172
-23.8042
9.00877
-3.74957
33.069
74.8951
52.1978
29.007
39.1576
-44.7389
-109.892
-122.635
-94.7228
-10.6241
6.04164
-28.2102
-27.0566
8.42247
59.5367
-92.3752
-155.236
-38.4181
28.6704
24.8614
-3.91857
-12.2184
7.77867
-49.1939
-35.689
27.6539
78.54
54.6394
56.4526
94.5294
88.3733
-12.7891
14.5746
1.6283
-30.8071
41.1548
105.083
130.132
59.6144
19.0415
-28.7685
-47.3445
-45.9233
-11.5202
-65.9557
-75.3314
-19.3562
50.5072
17.7609
-27.6354
-64.6007
-72.7828
-90.1268
-65.2356
-62.1962
10.732
78.2324
-39.7853
-16.3754
-8.59736
10.4868
-1.6228
-15.6485
46.8888
108.821
98.6828
-50.1474
-97.8442
-38.4447
-5.78266
-4.27252
37.7393
94.036
123.726
1.43416
-19.3042
-35.4679
5.73135
13.8827
1.81553
47.9831
94.4374
-31.6469
-40.876
-70.235
-64.1275
-22.0803
-35.3157
21.8492
51.8981
-27.3884
-51.0056
-12.798
-5.90808
23.0166
29.5213
77.5674
76.1161
-60.0589
-124.261
-138.736
-97.5924
9.08024
13.9805
34.1045
84.1805
129.236
-4.24653
-12.2174
9.33694
42.6037
73.0587
34.6293
31.5944
160.484
113.777
-62.7059
-154.178
-88.3598
-47.0935
-33.4877
-38.9625
-17.3618
52.8111
50.8282
-82.7775
-112.942
-41.2286
-30.7178
-27.8465
26.3709
-7.10918
-90.1531
-76.0166
-33.1767
-41.9863
56.3284
93.8556
69.2292
61.5318
30.9742
94.713
83.4827
-2.88279
-26.8555
13.6729
44.6863
71.9108
58.3417
131.315
23.4832
-102.791
-63.7756
-66.1625
-89.0116
-40.9705
-16.2207
31.5398
83.1326
165.88
41.4841
-64.1288
-56.3821
-41.1171
-59.1779
-39.9957
-28.8432
-56.2314
-48.3858
-154.283
-89.6046
16.0083
50.7897
19.6156
-11.9003
51.6015
94.0507
16.2907
-21.5814
-63.7128
24.3314
40.747
31.8427
26.0293
40.4201
-22.7146
-27.1682
2.26511
-32.4497
-30.6446
-9.21624
39.5747
90.9899
3.9198
-13.9769
-12.3011
-20.4269
41.5153
23.4554
30.6115
106.046
104.524
-101.688
-139.057
-100.562
4.7621
52.4037
67.1816
55.3119
65.1113
21.1753
-107.437
-72.9543
5.61855
6.47105
-43.7402
-62.4046
-14.3037
57.378
61.4181
-65.1947
-54.8002
71.8978
79.7223
-13.1582
-10.4512
14.9587
34.1108
18.1613
-177.019
-227.181
-116.912
-45.2168
40.9414
148.328
230.211
230.211
70.9955
-46.8846
-83.8067
-14.9506
-21.1688
12.8891
51.834
26.5812
-72.7692
-132.224
-135.819
-82.9005
58.9095
126.489
153.257
125.406
18.5917
-165.297
-167.254
-143.716
-30.0127
30.7991
33.6678
76.789
152.413
67.4138
-47.0617
-19.322
7.6265
-4.46532
-26.258
-38.2318
34.9219
70.0569
-23.3063
-54.1461
-27.9236
13.6355
-16.4834
-36.7678
62.0785
74.3476
16.1534
-11.1757
-37.394
23.0983
25.4545
-12.1173
24.0695
-22.9402
-49.6043
-45.9829
-17.1788
-13.2813
17.152
3.6238
38.364
15.4019
-76.4761
-16.8375
-1.12219
15.4012
33.7627
-15.7995
-109.724
-105.493
-13.1737
28.5642
36.3598
131.068
162.409
119.7
27.7282
-52.3729
22.7918
46.0875
-69.9595
-132.247
-6.11613
19.5642
-13.6811
-85.6098
-60.5451
-7.89447
23.1602
-47.9528
-16.4749
61.1024
84.8487
19.9898
-81.13
-63.0231
-2.85068
-54.6606
-38.4649
-33.8787
32.4775
84.227
69.3715
65.3122
89.424
-3.78674
-10.0606
32.197
46.6531
83.6574
35.4243
10.584
-37.3481
-71.3635
-42.1142
-67.0314
-87.6087
14.995
16.6908
8.05801
84.3782
-12.7367
-100.796
-142.997
-98.5711
45.6581
69.8427
40.658
37.0967
117.457
117.05
-32.7813
-127.971
-81.0221
-48.6675
-21.9367
-2.85287
11.659
36.0566
5.69277
-109.764
-14.8836
51.8631
64.3321
36.1818
33.1402
52.4903
46.7536
-63.8301
-77.5534
-1.5975
90.9423
82.6654
59.3213
23.6124
55.8947
49.1984
-67.6315
-110.437
-114.33
-72.4266
-17.6102
27.804
44.2922
22.9917
-9.24917
-16.4687
-19.4968
54.0534
42.906
-30.8247
-44.2161
-1.55839
28.3806
-47.7547
-77.4866
-35.4175
27.6563
-3.0668
7.0025
79.5043
131.237
108.463
-95.6085
-177.42
-106.744
-49.8902
18.3421
88.9836
110.428
55.3009
-45.2876
-42.0825
-45.4954
43.6066
70.8307
79.0497
78.3154
-16.353
-100.587
-83.6409
-39.7296
44.1627
106.563
54.3286
86.8729
87.2712
-43.1697
-88.2611
-85.3574
-86.8304
-36.6351
-43.0913
-11.4388
47.7504
-37.1699
-65.4447
-43.8503
-8.7681
6.29989
-9.18364
-35.6781
-11.9175
132.14
77.7005
-16.2439
-25.092
25.1469
34.6612
15.385
13.1368
53.2605
84.3055
0.503458
-94.9558
-79.6163
-66.7456
-15.7872
23.1955
12.4252
-26.7548
-10.2826
-13.1454
-91.336
43.1734
138.326
83.4915
73.5938
79.7183
48.0422
17.1564
-17.264
-37.2008
-42.831
-68.5687
-55.8427
-26.1095
-16.9829
0.78225
-46.2323
-17.9831
-33.4874
-42.5764
-13.7945
19.7694
51.0126
9.80868
-55.0249
-68.1461
-57.6081
-42.817
12.724
21.7629
58.0127
121.985
113.771
-5.69907
-12.0847
6.72164
50.0147
-1.27941
-49.4766
-27.7094
44.3619
111.503
-35.4918
-53.5655
4.28063
16.6973
1.14876
-14.9693
25.9114
8.83367
-132.379
-109.587
-37.709
5.54069
10.7092
78.3182
115.707
117.415
-18.3617
-46.8641
-63.0413
-81.7632
-13.8456
7.19716
56.8515
83.5787
25.7119
-6.74611
-63.4989
-82.5893
-19.2608
-15.08
7.53535
76.8439
-53.8087
-111.367
-82.1931
-46.1246
55.5965
62.8921
39.9353
-4.36902
19.2088
-31.081
2.74056
69.2723
114.516
160.567
117.995
-17.0603
18.4219
57.1119
-51.2743
-205.612
-113.219
-84.3532
-58.9556
-1.88091
9.89712
22.5719
107.517
53.1656
-30.5472
-0.992369
-41.5486
-78.5555
-31.0453
-27.903
46.1595
50.6286
-26.1527
-53.9731
-32.2399
34.506
32.1347
10.6448
60.9963
-16.6432
-53.6166
-48.4323
-28.0822
70.7648
122.901
133.138
153.682
17.6584
-95.1416
-106.372
-105.637
-41.508
13.7448
-0.9165
-4.88195
68.7296
97.3283
-23.4029
-85.636
-28.4594
14.1942
-7.08644
-52.414
-42.731
31.8729
37.0009
-104.287
-29.6563
52.084
34.2627
32.6456
16.3732
53.2539
1.95704
-98.299
-76.2912
-37.2682
21.5916
-3.18714
12.6973
76.6532
86.3832
-35.9382
-30.8439
-7.07442
1.59274
39.6533
31.7282
47.2829
-15.1348
-38.0975
-48.5497
-48.7936
26.7397
68.5847
4.01664
-8.19999
21.7914
20.6605
-38.0314
-43.7181
-115.389
12.8153
109.231
120.385
40.4276
13.8296
6.2798
55.7829
78.3237
-88.2352
-51.3351
-32.8377
-96.1625
-126.002
-69.4481
24.4923
96.4034
25.1092
1.51415
-16.5983
-31.4174
-46.92
-67.1879
-68.3206
10.119
1.15208
12.2164
-8.10253
-18.4302
60.4531
52.2083
43.2992
62.8125
48.151
48.8391
5.44918
-36.0293
-20.2809
21.3032
47.8903
60.7536
14.9669
-22.2822
-30.1708
-41.5039
-14.1472
4.65985
41.7916
32.0606
-22.4612
-12.6687
-25.9374
-43.7805
-12.6404
-19.3425
-30.2764
-3.11309
64.8411
-20.3424
-76.2557
-24.4634
-5.21052
-37.3117
-13.0697
8.97512
63.2481
101.613
-29.7067
-63.0402
-3.19623
33.3411
13.4521
2.05357
35.3782
56.0863
124.518
1.4122
-139.509
-37.497
-50.0597
-67.5226
-26.1768
23.4021
95.574
37.1028
-86.1584
-89.7861
-16.8313
23.5494
52.6354
36.9146
26.3852
61.4079
12.2468
-29.5661
-97.8652
-61.9475
1.66165
73.2108
122.937
139.293
92.0199
-31.4
-124.951
-69.3883
0.80026
-7.84257
22.1639
25.9759
29.7673
21.5384
-67.8919
-104.06
-39.6642
-20.6253
-28.7297
-17.4056
4.68866
30.9292
-28.4321
-40.3597
-59.5276
-30.297
8.4666
66.6948
145.999
172.781
61.9123
-60.7108
-91.5867
-83.2203
-38.8084
-4.70928
67.7516
61.8758
-48.5159
-26.8979
-23
-40.7355
-18.3419
-22.6739
83.0129
100.373
2.34099
-3.142
-47.0392
-119.064
-41.0456
41.7321
77.2724
155.21
108.247
-61.4805
-97.7788
-89.5582
-21.3391
-11.992
-15.3924
-20.3847
89.9393
90.5972
-40.4995
-58.947
-20.3634
-32.5973
-27.0161
-16.206
9.81446
40.1935
61.4557
-51.6648
-49.9801
38.2528
30.5293
8.14568
10.0046
13.9312
81.6852
32.7005
-21.8682
-38.2378
-50.7375
-73.3613
-37.0461
26.7357
81.7131
-34.8803
-76.0364
-73.4966
-9.53407
97.1368
91.7403
52.1551
35.9405
-26.0395
-23.003
-19.1644
-49.996
-37.906
-40.1139
-31.746
69.9399
164.744
59.909
-67.2884
-110.248
-29.0797
19.6455
48.4144
39.6288
22.3557
43.5276
-14.3033
-82.6757
-48.6722
-14.4064
-19.5718
-51.3105
-33.0004
25.1258
-33.6081
-45.2985
-30.991
21.3005
44.9175
33.0034
77.9753
115.759
40.968
-30.1412
-66.3446
-69.9691
-3.77195
21.5313
51.3058
108.67
10.9218
-104.888
-76.0544
-61.4836
10.1121
53.0765
22.4518
39.2691
67.5059
74.0308
-45.1485
-55.7522
-6.88965
-17.0089
-37.9114
-37.4547
-15.9802
24.7875
66.6339
-44.9691
-65.2444
-1.67856
-8.68851
-9.09034
30.9501
49.4572
56.9563
-36.0303
-144.841
-68.3834
74.9746
107.181
129.42
50.3243
40.485
-81.3612
-76.9037
-37.0444
-42.7882
-40.6464
-25.6937
20.7506
36.1252
-24.2723
-19.256
-13.2385
-12.4822
60.7715
107.009
54.7504
53.1634
-51.3694
-97.5081
-35.817
-15.3187
41.8597
36.252
-47.8268
-67.4527
-48.0662
-29.6036
4.5282
1.28598
35.4662
2.43172
3.51256
33.8124
111.613
125.44
-12.9751
-65.2223
-26.1336
3.71446
-21.881
-50.7891
19.8794
126.055
60.3654
-96.5709
-67.777
-9.69828
-20.6321
-42.3971
-14.9793
74.5706
56.3803
-99.7799
-60.4671
-22.7531
25.5964
29.6463
43.7163
36.2863
39.9956
16.2457
-71.7865
-101.818
-52.1375
7.13121
24.1535
41.2147
68.3517
73.0013
2.20099
-63.8
-63.1717
6.7675
-32.5806
-21.9351
75.3908
97.1743
-27.3554
-43.7218
-53.6107
-23.8411
-1.15658
-28.6347
0.653889
61.8481
73.0245
-19.7451
-44.2884
-21.4793
22.631
7.79297
-24.1659
-8.96179
8.22734
-21.7023
-8.25049
52.9299
151.387
102.319
14.3432
17.5831
-13.6164
-36.4431
-17.8402
-52.8057
-67.8704
-25.8447
-34.835
-28.0248
-61.5172
-54.7472
-23.5694
-4.79567
5.45935
64.9078
54.9411
63.4335
67.6395
-111.377
-187.953
-138.466
-2.01959
53.3142
84.356
152.213
46.5605
41.4806
5.4364
-36.7344
-7.37896
-22.7657
8.32002
74.0356
114.774
-14.8268
-65.9582
-97.8434
-80.6533
60.1855
135.213
69.9658
0.508498
6.80051
-28.44
-146.894
-37.9202
13.4669
-9.49553
-13.5049
13.4266
62.4021
93.034
-31.6547
-71.31
-31.7286
-24.0934
-35.5719
-39.1567
47.1359
38.1048
-2.28461
11.6577
-21.6232
-18.7693
39.9442
8.58498
65.2315
-16.2613
-74.2866
-55.2939
-46.1426
-38.7942
35.0097
11.9034
86.472
86.0316
-61.292
-44.4074
-9.46885
27.2212
54.3944
29.8248
-11.5665
3.82219
-1.13958
-60.1412
-78.2562
-11.8409
-1.733
-5.18215
23.4828
49.5567
113.506
62.2329
-34.4791
-41.6527
22.1368
8.12935
-37.3078
-75.217
2.60365
5.63918
32.0964
42.8256
62.4244
50.2093
0.767321
26.658
72.1372
-5.99151
-124.042
-157.494
-103.544
-52.7392
16.0761
36.9633
51.3029
-15.8867
-24.3942
6.13179
-15.993
-11.1898
-22.0556
-44.0248
-48.6691
87.1521
46.1664
-101.204
-101.818
6.11374
80.0668
135.22
156.25
125.075
91.8923
35.7745
-50.4397
-8.16945
13.2309
14.2099
11.0287
14.7874
0.566327
-4.54767
-104.635
-167.083
-125.004
-13.3952
1.26586
8.40425
4.32773
15.8803
-78.8628
-77.7245
-39.0234
-34.4335
34.0953
86.0565
108.436
97.4771
-0.204264
-10.6966
-35.0128
-83.0023
-27.9252
-0.443924
59.2368
112.487
-1.92315
-12.5911
15.574
-20.4528
-11.8993
-10.8267
19.5665
84.5238
16.6966
-18.7241
-26.1458
-17.5562
24.9108
2.94197
-31.2244
-21.3548
48.3471
60.8061
-58.402
-89.1926
-32.3627
-29.8864
-38.1863
-10.343
55.4391
66.0093
31.2882
-68.354
3.74307
19.9315
23.8299
6.86372
-12.372
23.6773
18.1453
-36.9195
-36.3184
-15.538
33.8124
41.6595
52.0287
2.57052
-26.5351
-4.99731
-100.435
-71.0426
-27.5247
9.05301
20.7405
19.1015
55.1113
84.9256
0.325149
-31.88
-11.4128
22.5026
-12.0455
-61.3251
-26.1969
-20.9017
-64.1306
-13.9126
50.6654
34.7134
99.7746
116.752
70.2818
27.1105
57.0663
52.3878
-89.0897
-141.57
-53.7463
-40.9338
-46.759
-2.24627
17.4767
22.5577
-16.0843
-7.01152
20.2368
20.1362
-39.966
-117.109
-68.3369
-23.8695
-65.5492
-7.83332
48.1722
56.0231
92.2117
55.3892
48.6232
124.759
12.7696
-19.2228
-17.8634
-40.805
-74.9033
-75.2997
-5.25425
55.9349
26.9753
15.5416
22.106
-16.2366
25.8048
35.2463
-1.58235
33.4691
113.816
1.14554
-32.2716
-71.8633
-54.6302
-48.4239
-32.4563
-19.7246
28.5597
101.287
10.1889
-65.1934
-7.34884
-1.54762
-8.74953
-25.7376
-10.4348
-4.72079
35.8936
9.54854
-95.6922
-2.01236
9.29937
-18.6617
23.851
29.6397
47.1102
80.6488
-61.5278
-137.376
-64.3786
-10.5652
6.8507
19.3864
40.0666
55.645
10.1523
1.11629
-27.0961
-30.9148
30.2149
67.693
91.4303
67.8592
15.3191
-15.8385
-64.189
-83.7314
40.193
53.9417
57.4475
51.7302
-25.5747
-112.079
-77.6184
-69.4774
-27.389
25.9141
27.6468
58.3895
129.676
-15.9403
-117.946
-73.3645
-19.9174
-2.1136
-27.8655
-57.0164
37.1872
67.7871
-29.5997
14.6172
90.6699
104.858
53.2356
22.5874
46.7246
13.898
-138.247
-130.67
-96.1802
41.3322
61.3327
38.0723
72.0281
37.6557
-79.5626
-55.4122
-44.3367
-37.4084
8.26517
0.918315
46.079
50.352
-33.654
-81.873
-68.2306
-51.9849
-4.30336
-30.7447
-45.6815
96.2359
195.038
122.726
64.1194
12.0652
34.3939
10.5878
-30.3982
-53.9896
-21.7468
15.5038
-67.2585
-102.602
-40.4955
-10.9555
24.521
37.0441
56.8608
43.8887
65.8025
-53.4449
-121.651
-80.414
-62.0963
-15.5619
33.9663
57.6785
99.828
-0.979975
-62.4314
-72.8472
-25.1264
4.7058
24.8753
77.2009
132.348
2.83589
-7.25478
8.9569
-12.3251
-1.6778
-17.8088
-6.57649
54.8073
-39.2266
-34.6536
-29.7592
-61.4521
-27.6678
-1.95179
-10.9163
81.7663
161.329
29.9157
-68.2908
-98.5135
-19.6061
28.3476
22.2103
-14.8577
-1.53007
23.2665
-52.9883
-109.655
-19.8399
7.79257
1.26133
34.4796
91.8282
121.702
-32.011
-131.506
-119.795
-23.9713
29.039
9.25784
56.538
105.095
98.3707
9.57146
-76.1306
-109.675
-59.7625
-23.8175
61.2101
100.47
132.089
84.5087
2.75688
-51.0096
-43.2753
-28.2989
-28.8928
15.0151
78.2127
0.175161
-52
-57.2221
-46.7935
-20.5729
17.0704
54.8502
93.8857
25.9607
-98.5932
-149.431
-108.444
-79.0058
-82.0477
-79.5812
-50.7092
-2.9685
135.383
56.7853
-7.27257
52.0185
78.4489
44.938
30.5266
70.39
129.464
14.5631
-41.7351
-10.2639
28.7305
32.4469
-33.5701
-20.8373
84.421
12.0913
7.89128
17.3067
-71.1527
-13.0642
14.8704
8.49166
57.0038
-24.0015
-75.875
-48.2621
-49.1487
-23.7341
-4.30298
10.73
41.3401
-44.0305
-45.02
-54.6979
-73.9751
-17.7932
6.1378
14.4703
42.0568
80.4428
59.3232
-47.8637
-68.8687
-19.9579
26.1061
26.4045
13.1942
63.5686
117.478
-46.084
-94.8291
-28.1991
-35.6189
-41.7533
-32.3585
12.4303
57.5354
61.2489
-50.5744
-27.7476
13.3948
58.3717
38.9826
36.4395
60.483
61.8257
-21.9512
-45.996
-70.0466
-12.8853
-20.244
19.0202
78.5093
14.8297
-14.3697
37.5944
23.225
-11.0088
-4.08062
-0.449636
37.3698
-14.2153
-76.352
-65.1575
-60.0547
-27.8584
56.4557
66.8273
64.2604
104.034
60.767
-113.227
-142.131
-113.173
-145.366
-173.357
-97.2775
24.7095
100.23
63.5823
26.9219
57.8439
78.4615
52.8801
19.0631
46.3037
25.6576
-20.0031
-41.6679
-40.6785
-16.9033
88.4949
115.235
201.218
119.544
1.28442
-89.168
-144.23
-153.245
-102.098
-51.6484
57.629
46.9549
31.0195
45.8144
18.5517
57.0456
16.4044
-37.0079
29.5376
61.2321
5.90695
-92.5805
-162.294
-79.0226
-7.0376
-3.31066
52.7605
81.0004
9.14361
-21.2202
-18.5847
34.5783
37.7659
9.61622
-7.5135
-6.38812
62.329
53.6251
-40.029
-64.0887
-28.3975
-20.2702
-20.2467
0.657951
37.3985
104.06
-16.0293
-77.3142
-46.0156
-15.0911
-24.5988
-7.97337
38.9597
79.1251
12.0319
-31.7605
-48.8685
-27.1517
-7.65965
-15.2748
29.8796
56.4897
-71.7248
-81.2856
-40.7114
-34.1778
-2.98167
10.188
106.052
167.706
24.2819
-57.4566
-104.709
-102.255
-20.237
89.4367
145.478
228.833
197.475
-47.9537
-209.623
-184.598
-34.6354
103.553
135.296
37.4697
45.1738
2.13058
-123.59
-135.602
-60.3678
4.95759
30.0822
-12.6042
-7.90836
-49.4567
-159.552
-169.025
-121.61
28.8123
144.462
118.53
124.862
101.585
-72.8856
-129.025
-40.4756
43.7732
54.323
-4.75147
25.9221
70.2284
134.984
62.9147
-27.6685
-5.52148
33.9497
-9.28491
-15.075
30.5852
108.882
8.71011
-67.8769
-67.2009
16.2875
49.7944
-26.0833
-91.5571
-47.4015
34.5896
-78.3941
-262.804
-199.334
-70.1605
60.313
167.66
246.758
217.714
132.229
10.1331
-52.9562
-50.4737
-52.386
-72.3075
-12.7061
98.5126
45.1807
-91.15
-115.976
-118.79
14.1322
95.8685
-17.4772
68.9296
56.1925
-69.5941
-191.966
-110.146
91.965
61.2081
-74.0773
7.75852
18.4523
-76.8698
-71.1294
-75.2305
-46.4263
36.5589
66.2836
91.0251
83.4323
108.958
125.574
55.8922
34.7149
16.6528
25.2684
5.92398
-33.4007
-76.8208
-16.0254
-32.4223
-40.9952
-10.8509
-14.685
-31.7817
47.2901
150.712
12.8217
-26.64
57.5341
128.317
91.4398
3.00838
-69.5546
-86.6699
-31.053
-118.991
-195.728
-92.9643
-15.9918
-16.3767
18.4648
94.8628
172.115
12.6767
-105.892
-135.055
-38.0928
-11.4598
-14.39
7.46564
66.5052
-61.1515
-49.803
-8.92894
-2.98905
4.80409
24.8922
95.9094
147.519
30.8367
-43.8263
-114.768
-148.343
-29.5302
102.016
254.228
305.697
130.021
-25.437
-71.9567
-125.09
-92.7743
-79.2844
-61.5137
0.0195532
-25.0622
-218.63
-165.893
-82.3938
41.6696
232.089
303.538
169.668
105.211
-4.6634
-53.9626
-105.304
-98.6068
-127.295
-140.853
-54.2081
81.891
107.01
-24.9928
-79.2115
-49.8
72.2147
89.2761
51.7889
69.6543
-149.119
-188.046
-97.4823
-81.3843
-110.927
-120.46
-61.6806
89.5407
232.002
226.657
206.476
158.96
106.356
84.5293
26.5738
4.90353
108.807
5.35605
-138.57
-203.205
-153.228
-113.058
-77.8383
-32.0083
59.8846
141.869
6.06605
-89.9488
-83.3209
-12.9925
0.767008
16.0172
23.0462
57.455
14.4299
-102.818
-121.626
-79.9599
-10.4783
100.305
215.381
192.946
45.3263
-113.083
-89.0919
-96.2887
-34.8759
53.9463
106.008
78.0096
24.7231
-96.1546
-74.9416
-17.0234
15.2731
60.9679
34.6391
42.4767
55.8089
-92.6179
-126.489
-109.509
-62.0926
24.3776
22.7353
31.8083
134.56
98.6931
-66.3568
-143.218
-136.527
-32.6257
8.23271
45.4318
53.1473
98.3814
79.3337
-8.82098
-14.8872
12.1961
-5.72165
-23.0085
31.6152
167.115
86.9667
-40.2592
-86.096
-61.1812
-9.08231
43.1411
77.0279
135.801
-3.56571
-62.9848
-47.1417
-52.9818
-64.4404
-89.1035
-104.822
-33.5909
-1.71329
66.4626
-16.5667
-141.764
-117.745
-52.7215
7.56206
108.367
200.508
222.393
103.736
-90.452
-44.5238
-10.2874
-6.39041
-33.5517
-53.3232
-7.759
94.7711
84.2861
-75.7875
-57.108
3.08619
-14.9722
-28.4064
-49.9384
-42.4454
22.615
-61.8679
-70.2499
-36.556
-15.7237
22.4352
59.8887
89.2463
104.187
5.78282
24.9912
-31.5144
-72.5598
22.305
32.5714
79.4576
87.5142
-0.921005
-15.0542
-38.3595
-104.4
-58.4293
-19.4742
53.3215
112.595
-23.7963
-42.5517
-40.2375
-12.3035
67.7274
60.9183
45.9534
37.4674
-30.2326
-39.9074
-123.531
-121.192
-31.3975
17.3948
26.7473
35.2079
49.641
-106.217
-116.559
7.5951
143.301
121.979
63.4252
22.4348
73.8309
22.8426
-92.5475
-57.6026
25.0115
-13.0236
-27.7316
0.311411
11.7396
20.2117
-36.8703
-167.971
-160.743
-13.9529
59.2205
86.5797
141.501
144.09
95.7867
-32.3454
-56.8313
15.6995
62.2939
5.61246
-120.485
-216.176
-170.369
-151.718
1.70379
146.4
221.267
164.062
17.9904
3.81124
-18.8511
-85.5986
-85.387
-66.8133
-41.4686
-11.9578
17.8682
38.6572
73.1313
88.7232
79.4645
17.6939
15.2772
-9.66611
-39.0243
-80.6037
-27.4856
142.642
111.841
49.4054
-9.46386
-10.095
-42.9989
-48.6022
32.294
57.5092
-80.6109
-90.5453
-95.4933
-100.174
-31.7659
50.2308
124.251
137.442
-23.2868
-105.928
-183.597
-222.961
-74.9072
17.1607
89.8722
62.9749
-72.8959
-80.1195
-17.4652
78.3668
148.22
178.21
216.77
170.317
-30.0106
-49.0705
-40.6603
-28.1814
-15.318
-69.098
-81.756
-19.1108
88.1747
25.0279
-78.4827
-85.0218
19.7743
37.6471
-33.9888
-111.427
-94.6544
-31.6784
25.8137
76.7535
247.678
173.097
12.5599
-112.031
-124.854
-44.3871
21.5894
-41.5209
-49.9631
7.50079
36.6073
31.6443
30.9767
-8.68036
22.9122
-61.0375
-3.13717
38.6331
26.6888
-28.6714
-100.24
-18.9408
57.143
-19.1288
-33.5064
-40.5436
-23.9062
10.9723
16.6094
48.0602
115.576
-18.422
-42.0993
3.80224
30.2555
117.709
68.6683
-38.5914
-72.3315
-56.1152
-88.8595
-96.7241
-74.4414
25.1396
40.8507
53.3635
38.1279
70.4139
-32.2617
-44.1697
4.69043
76.222
54.8959
32.2167
-2.46031
30.4826
13.8308
36.0136
-40.1441
-91.0189
-42.0021
-36.1735
0.39262
137.504
57.5178
-35.1755
-74.7614
-82.4632
-34.349
-56.283
-78.8846
19.3652
110.17
113.532
50.2078
30.1035
23.4096
-42.7528
-183.191
-170.098
-27.2303
14.6318
58.4441
96.3625
90.5501
52.0472
19.9268
-17.5
81.118
138.478
66.3825
-83.1293
-109.35
-94.3098
-46.3494
4.50479
0.963641
-23.8972
-23.6467
-37.4974
-23.6162
-8.2317
-59.5957
-100.956
6.65159
122.659
20.6199
16.4801
37.7561
21.3366
22.3719
80.5189
76.0654
104.631
25.1278
-66.1142
-48.8068
-38.372
-29.6762
8.49661
5.8089
71.4434
62.664
-47.1388
-127.205
-169.19
-58.5638
-16.0166
4.03417
87.0559
132.654
7.41028
-39.2726
3.88814
78.778
42.8819
7.7189
-13.4469
9.52293
2.31025
-71.9737
-133.446
-100.623
-60.0839
-21.2743
15.0539
56.4277
85.9672
112.488
-6.71889
-78.2068
8.86407
27.8478
-0.696536
-21.4837
7.6828
78.8406
92.0261
-22.2995
-38.6781
-10.563
10.36
1.39376
17.9358
82.0392
28.5645
-20.9747
-27.9701
-103.983
-177.883
-168.311
-51.6823
60.8887
71.9348
86.91
156.01
88.2723
15.4326
25.2517
18.2164
59.7394
23.4606
-47.9448
-62.0544
-81.6004
-41.7269
20.7875
-15.1289
-35.8539
93.0228
166.442
78.4889
-87.6426
-100.536
-89.8834
-119.883
-132.462
-70.3038
33.458
24.3777
-5.44941
5.21434
18.5946
-53.5602
-66.4958
-6.61669
68.0226
79.6842
197.52
245.65
150.878
62.6963
6.59098
-26.5661
-9.78058
-98.9205
-123.446
-90.3575
-79.1758
-55.8105
-61.3168
-51.7514
6.03183
2.47677
26.058
23.5971
7.05035
-29.2848
-70.5036
-106.001
-85.4881
-21.5838
-25.4689
-3.60072
36.7693
89.3043
35.9577
26.4031
79.2212
150.945
224.646
125.844
-29.6381
-16.2627
-56.1948
-75.7414
-59.5863
-26.826
2.81499
-36.8644
-65.2476
-7.91468
66.1738
71.0743
59.1475
55.7651
0.564527
-112.718
-172.635
-127.4
-84.949
36.9724
130.429
129.466
113.609
93.5505
-19.505
-77.1376
-93.7275
-119.621
-93.632
-49.4622
41.2014
90.7073
34.7283
26.0525
19.0119
62.2867
57.4171
3.9359
-19.0795
-68.4376
-153.737
-113.499
-45.1023
-39.3221
-44.0978
-37.8979
-10.3684
107.462
203.827
118.331
34.6015
-50.2484
-37.8342
-19.0575
25.8044
69.5026
111.533
-35.5734
-103.182
-89.9105
7.30583
70.1668
80.3181
61.4026
98.8342
8.09607
-63.6877
-77.9346
-52.4481
6.37855
-15.9995
-25.6647
-9.77177
-26.7886
-20.3773
1.37616
-40.6727
12.4484
12.0454
-13.4406
24.4478
67.6514
-21.1044
-55.6558
-49.0313
10.2979
20.1129
14.9739
-3.15795
82.2187
65.5683
-54.4288
-85.886
-29.6093
32.7915
20.7994
-5.03393
4.84537
16.6128
23.0312
-4.10262
-55.9168
-34.7439
-85.9651
-85.0743
-3.86158
49.9531
89.1802
16.8508
-44.4223
7.18424
57.2531
64.374
39.5205
10.9691
61.6326
38.8779
-34.1335
-23.9671
-20.9498
-22.7587
-47.0944
-34.7336
8.09122
-48.2482
-36.852
65.7785
111.977
93.09
36.9637
-17.132
26.5953
32.7649
82.4639
60.8209
-52.5607
-93.9787
-54.128
-78.3186
-32.9627
-52.5611
-148.075
-100.016
-40.9749
27.7696
6.29102
-42.8107
-36.5238
58.9122
37.5905
49.0664
-81.0008
-62.0478
-20.2895
5.81913
39.613
82.798
139.604
81.7218
-76.3531
-70.0846
29.5398
44.5063
54.1151
90.9876
74.399
20.1864
-73.8034
-191.001
-51.8786
49.6409
175.659
181.277
86.8756
58.2991
28.1447
-26.1169
-33.4788
-47.4995
-33.9253
-30.5503
8.26821
32.8279
-163.867
-156.408
-95.582
-62.7308
-23.1359
22.7469
-30.5904
34.0469
-13.1353
-103.833
-54.4018
-12.9527
17.5799
2.24426
4.04362
63.0001
127.371
150.365
-4.50278
-179.74
-109.44
-18.6295
97.5451
203.014
307.76
266.511
32.8036
-210.334
-145.888
-74.0121
-72.3059
-83.4926
-64.406
17.3607
26.1629
-95.9897
-122.147
-141.223
-21.6937
89.0605
170.898
175.607
86.4661
-15.3643
-138.698
-122.168
0.507047
46.5887
27.8338
25.6799
-40.5236
2.90053
24.3673
18.2737
68.35
107.197
20.1223
-1.8947
-34.7773
-0.00230959
44.8635
-30.0903
-30.5986
-138.84
-183.54
-121.983
118.496
274.292
171.487
29.6712
56.5207
-45.7965
-81.3842
-73.8901
-201.728
-200.233
-77.5789
16.7312
30.7457
104.579
94.52
27.7627
-18.8064
48.3284
73.9348
-15.9971
-162.301
-115.144
5.83952
102.308
88.3302
5.1753
2.04552
48.3552
11.6893
26.4957
-2.26748
10.3638
61.0906
10.2306
51.5122
84.9259
-49.7469
-69.6107
-59.4486
5.56513
49.0136
-32.0042
-55.0845
18.5745
69.3465
-21.3642
-67.3934
-48.432
-11.5158
10.6191
73.6352
84.1598
134.181
78.7778
-91.4678
-87.7448
-80.51
-234.046
-207.165
-64.9855
91.7821
118.825
28.4169
-16.234
-4.49354
111.097
99.1667
0.693233
26.287
76.3096
4.11134
14.139
-42.6921
-113.216
-107.512
-89.6731
36.2997
161.602
74.0664
-27.8037
-78.6744
-85.1752
-17.7236
8.42028
-8.42959
73.8158
151.003
53.8833
-18.129
-91.5973
-125.549
-111.196
-43.3567
35.8994
173.894
198.933
20.7328
-36.8793
21.501
32.3793
-8.17494
-22.4892
-5.28264
13.8126
44.9757
-26.8146
-80.8874
-17.9917
13.5847
31.9078
43.1532
-20.8502
-17.4174
-95.753
-164.087
-135.217
0.963566
53.1813
47.514
54.7953
67.4148
40.6638
19.2725
-29.1764
-68.6583
-27.2724
-14.3685
31.1611
106.745
45.7351
-0.724189
-12.5415
-46.1681
-37.1453
-22.8383
-10.6039
46.1052
12.6057
-0.573049
11.235
21.7043
40.2236
65.0142
68.1455
-85.1529
-141.307
-129.729
-157.539
-146.347
60.4354
200.468
134.787
160.552
194.485
124.757
-42.5788
-125.421
-59.4282
-3.47232
-0.287412
-53.7747
-89.0405
-41.5586
-80.4131
27.9233
22.3463
72.4797
179.549
115.414
-63.8265
-171.725
-195.458
-183.756
-162.31
-96.6832
-13.7133
9.88699
-8.07152
22.9514
114.17
168.081
185.276
143.759
102.216
96.7065
103.226
34.737
28.689
2.91266
-116.239
-87.7283
-54.4084
-60.5084
-22.733
-10.2833
30.2012
119.059
-24.4859
-105.521
-133.357
-122.173
-96.1396
-59.3769
30.9483
81.7261
109.743
-19.5216
-36.9966
-17.7424
46.9908
17.6312
34.3022
55.0215
67.7055
-39.7537
-114.802
-124.195
-13.113
75.0631
112.515
146.416
159.079
-6.98161
-40.8609
-50.5092
-71.6943
-77.5131
-89.2892
-56.2334
49.9363
1.02336
-19.8876
-41.0197
-27.1029
-3.48619
14.6066
90.6745
178.603
114.776
-78.0574
-140.819
-171.468
-90.8644
2.41821
55.9119
129.784
161.774
72.7716
19.9966
2.57705
-9.11369
-87.2852
-102.136
-81.2599
37.8058
101.773
-24.3523
-77.9076
-38.3241
25.9939
5.40905
5.47518
44.5516
19.4474
38.7125
-27.4745
-41.7096
-32.3711
-53.3546
-63.3425
0.48807
62.1628
109.07
-77.9927
-139.802
-60.8456
60.119
134.928
181.408
128.714
35.0532
-82.8009
-89.6024
-0.197592
60.1836
33.9894
-10.2255
-20.4351
38.3621
-25.9198
-113.314
-70.1972
-50.13
72.8257
19.2101
-115.287
-84.4551
3.79762
30.8648
-0.21172
3.84388
-46.4539
-96.6363
-89.5943
-66.01
55.9919
160.481
89.7124
29.3841
14.7839
34.7768
34.6954
-9.98572
8.35719
92.7451
51.7895
-0.295967
-67.9565
-97.1062
-47.3785
-13.9591
132.309
225.843
80.574
-31.6756
-67.4259
-74.0882
-13.1843
-20.5293
30.0133
122.024
-46.0654
-183.055
-130.979
-73.6422
24.1486
69.8693
35.8486
-39.607
-27.3866
-10.3852
-21.3676
-58.2302
-42.5327
1.06964
25.4925
-0.403462
33.3444
76.7325
12.2547
-74.2863
12.6125
72.3417
30.5092
-2.23904
7.45162
3.93881
15.5045
-50.2302
-43.6826
6.89295
47.6642
43.8879
53.6009
70.4072
83.7063
-31.7992
-52.5894
-87.8243
-50.6357
-6.37696
39.0006
90.872
7.52316
-35.0356
-38.5568
-63.7554
-140.452
-105.845
-35.0853
35.2902
45.3317
113.892
81.5911
19.4868
52.3135
148.249
149.066
66.3482
-83.8232
-135.1
-116.375
-124.843
-60.1533
-28.7048
-30.8991
50.2192
16.4717
32.3357
36.7373
-30.7014
-40.2363
-54.315
-27.5854
11.057
-21.5107
-162.754
-116.986
-19.3958
146.127
269.553
234.312
141.113
145.36
18.6197
-165.64
-210.526
-110.858
-3.6532
13.6653
-3.13207
75.9482
123.424
118.001
-53.1487
-59.9458
14.0444
-44.3004
-79.928
-82.1251
-91.5106
-50.4966
-59.6837
-81.5557
-15.8572
85.4777
71.3558
55.0435
79.5376
105.347
29.1362
-63.9443
-115.369
-84.2752
23.35
15.0309
25.4595
12.4631
7.48451
13.0295
-20.5397
-76.9894
-26.8899
-25.4041
21.4677
56.3566
47.2422
78.4573
88.2353
-41.6321
13.3647
36.8396
9.74921
-11.8874
-8.08718
29.54
74.7342
-2.64963
-35.2496
-86.3894
-68.493
-10.1653
20.0187
-16.335
-74.9783
-86.1811
-0.69313
54.8719
79.2575
98.6649
-8.87929
3.37862
19.4555
-103.508
-33.8026
13.133
-10.3926
6.43866
-3.19641
19.1543
40.0092
-32.3632
11.0335
33.9866
39.1194
0.69084
-98.6219
-107.347
-91.0172
69.0749
110.242
-7.91162
-27.0568
-3.29128
-56.0135
-69.2762
-8.23771
50.4492
72.5542
88.8052
-5.79874
48.114
64.8988
68.3964
14.0576
-63.2982
-48.6355
3.84079
-61.4477
-88.7182
8.07449
53.9873
25.1614
25.726
29.2749
53.8912
41.5055
10.5519
-17.9407
-62.5346
-70.5344
-150.235
-145.697
-13.0864
61.9847
169.502
217.039
100.694
-2.44124
-73.2372
-80.0271
-2.44535
37.3529
-0.71679
-38.5427
-94.8072
-103.578
-54.0429
-14.0551
-1.55013
90.6765
161.687
-14.9302
-163.96
-115.737
-104.701
-115.668
-77.3993
14.9869
102.64
174.498
107.682
93.22
99.1581
57.1274
-22.819
-64.8474
2.31994
34.2524
32.2364
78.423
54.3054
50.4342
12.379
-21.8335
32.6982
-67.3382
-158.306
-102.491
-23.5505
-3.42934
24.4027
-24.5866
-9.64011
20.8705
-16.2667
60.6954
36.8413
-43.9938
-105.912
-163.497
-164.161
-38.8812
91.8519
39.5277
-22.9066
63.2556
126.689
91.7542
10.0443
-56.8186
22.3648
101.438
41.639
37.2872
108.961
64.17
-3.73064
7.74803
14.8113
-13.6342
46.98
-42.3596
-95.1527
-52.7511
-47.292
-34.6707
-19.5155
-27.2055
16.6445
-37.9009
-90.5619
-146.031
-105.549
-41.0916
40.675
116.416
215.192
127.156
-12.9695
-35.2014
-44.2016
4.65507
-2.51528
-4.08928
47.9537
0.597451
-19.3924
-22.2186
-47.5497
-14.064
-1.35446
-7.32917
47.3398
90.3845
-12.4404
-135.602
-186.662
-60.8339
61.9977
76.7859
101.453
161.395
153.205
22.9632
-143.038
-90.324
-28.4918
-33.6573
-70.5687
-49.7629
25.7625
-71.1841
-16.6155
72.7937
166.182
155.429
90.2212
67.1108
56.4389
-0.636856
-152.943
-155.572
-130.686
-64.3786
-9.25639
-17.9978
2.49623
72.1975
119.085
-6.57293
-54.6903
-19.9706
-41.4935
-70.1747
-53.0312
29.1346
101.895
-27.1081
-66.5385
-59.5277
4.66825
26.2541
14.7625
42.3698
79.3282
147.326
209.241
87.5537
-36.1227
-91.1838
-113.66
-1.27392
36.1513
-23.193
-66.4325
-54.1615
-113.056
-52.3123
-22.2273
6.16476
19.3935
-24.922
-19.6029
42.3159
36.5251
-57.4569
-95.929
-72.887
-5.51469
96.3011
109.522
142.925
98.3921
50.4819
20.0084
-51.0435
-68.3952
-10.0644
-20.08
-2.21982
-90.9763
-88.4805
-14.0215
18.1289
77.9332
104.434
58.9003
73.028
0.4405
15.7679
-71.5417
-72.6619
-32.9611
-27.9583
-15.1724
-2.81135
41.123
68.6448
-39.5194
-70.1362
26.7794
60.204
-11.6884
-144.188
-185.051
-48.9374
-19.3295
-183.714
-117.419
8.1727
199.05
289.435
248.734
134.445
68.6657
87.6191
-12.9278
-126.365
-51.0313
-31.6132
-8.09144
-18.4683
8.84996
91.9697
-21.5944
-152.785
-251.144
-99.0367
71.5192
113.313
105.861
79.9314
-51.9948
-71.9283
0.839526
52.3468
50.0753
45.9552
15.113
9.82571
-36.2419
-152.843
-173.968
-107.504
-2.25936
0.73702
76.0041
115.818
105.012
62.0265
-39.3072
-129.466
-40.525
25.342
18.5312
-10.1612
-14.6863
46.3555
24.5041
-32.4773
20.8738
100.144
143.54
141.153
122.677
87.7475
21.8768
-43.7705
-96.0908
-116.958
-109.135
-103.209
-26.3943
22.6908
-94.4787
-123.214
-84.5101
-31.1528
32.2139
32.8144
42.0387
77.3924
-13.0042
-60.436
-40.5862
-29.7947
26.0714
59.3708
76.8044
95.0825
4.32139
-32.5205
-25.1321
-19.5369
41.8277
30.8571
7.28396
3.69362
50.3194
140.842
56.1395
-88.2
-59.313
-39.7728
-6.23602
-53.6453
-82.9886
-13.7236
-11.182
-38.3992
43.1421
56.1546
29.6334
0.273398
4.33458
42.5763
65.6764
4.82761
-24.9345
-77.678
-114.853
-76.3424
-35.7125
3.32789
-28.7951
14.8841
63.0254
84.5758
123.16
111.708
71.6014
61.5876
-18.179
-46.329
-38.1267
-49.3361
-90.4327
-95.1262
-26.4076
77.2308
59.8007
-21.3367
-104.524
-125.839
-65.1862
11.7275
130.503
147.852
47.2398
-3.54837
-108.543
-113.99
-29.8298
4.50923
17.4241
4.59641
10.5822
86.6354
14.5473
-87.1994
-39.0836
49.0247
95.0093
59.5255
40.9322
42.5538
-29.3693
-158.552
-145.003
-70.2995
41.0863
64.384
70.421
104.091
100.991
9.94867
3.9131
-0.726589
3.14049
-14.597
-9.63827
5.22976
33.7949
74.1923
-34.2231
-78.8178
-48.1809
53.7504
61.5102
29.1309
-44.6102
-41.4333
-24.5749
-107.285
-131.891
-23.7824
25.7094
1.06735
-31.3205
-66.4685
-6.73198
88.8954
96.4658
15.6568
11.6078
-59.4629
-90.1373
-82.1648
-42.4402
23.777
151.563
59.8197
41.1557
46.7608
-29.2722
-139.032
-94.9539
61.0842
243.859
256.279
251.869
82.4705
-52.3901
-97.7111
-79.2911
-37.2354
-8.22284
-116.423
-163.961
-152.235
-130.819
-45.2998
-21.6425
24.0691
65.9643
137.282
12.8661
-136.951
-79.2269
-39.6705
-10.9984
43.9378
21.2785
21.81
71.9686
98.4549
-36.0308
-73.7719
-37.5026
7.7978
-45.6952
-83.514
-74.9771
3.90132
39.1629
-31.1418
99.278
272.873
273.601
196.112
128.451
95.5823
15.0009
-26.6848
-77.5905
-87.1367
-61.7046
-114.008
-130.077
-18.2043
-107.386
-74.3547
-17.8821
-66.017
-89.6774
-64.6275
-4.09787
48.5567
-82.3197
-170.443
-130.737
-83.0028
-20.5061
29.6448
84.8772
111.936
80.4187
72.7455
81.9089
80.0246
121.816
94.4794
71.0796
55.2632
94.7475
90.9336
-94.9666
-131.837
-68.6619
-1.98861
3.98088
3.33485
-5.03181
39.8936
97.4383
55.9843
-15.1097
-93.3332
-60.5945
-56.0746
-22.9514
-8.69106
0.261017
14.8251
18.9425
-101.89
-74.6949
-56.1595
-33.4678
-13.1928
-4.59788
25.181
46.656
-48.3982
-60.2875
0.0548398
70.5116
82.3873
49.0229
35.4459
86.2134
2.06415
30.8365
18.3972
-69.0589
-60.874
-33.1415
10.9967
40.31
-15.8872
-90.236
-77.3558
-57.9321
-2.16686
18.097
-21.6544
26.3279
96.9508
-15.8993
-51.7396
-44.1036
136.906
232.324
118.379
-1.47693
38.0541
45.2379
-55.0032
-89.5944
-36.9344
15.1275
20.7816
16.8819
54.6909
-10.0781
-157.915
-128.597
-90.7742
-13.0788
-9.12816
-34.022
-43.5756
-131.629
-123.969
-40.4233
-7.34177
16.5245
56.5861
76.1701
136.828
161.318
60.259
23.5935
-20.2506
-11.2209
80.6968
88.3003
51.5848
98.9685
96.3731
-20.2886
-107.628
-114.56
-60.2182
-57.9084
-49.1821
-25.7676
11.8424
53.1373
-19.6169
-108.054
6.82241
58.7793
43.8642
41.3032
17.3723
18.877
43.5075
-16.4039
-109.176
-60.4494
-58.867
-86.6394
-71.8505
-25.7012
77.097
88.1885
28.7454
4.28976
30.8093
103.234
67.7704
7.01384
-17.8948
-70.3208
-75.1963
-12.4193
-43.1066
-48.8103
-50.9189
-10.814
125.221
144.184
113.03
40.5264
-52.0773
-80.0652
-66.7712
-58.1608
22.316
67.8206
-35.812
-105.395
-58.0728
-9.64894
44.7539
32.4873
12.3184
81.133
131.539
-22.2981
-114.543
-107.62
-58.6943
-4.76143
9.23582
30.8735
87.0678
-14.1943
-53.7476
-39.4091
27.4423
79.1803
58.2419
76.294
111.982
65.5747
26.356
-92.4583
-70.0753
7.79495
-12.2517
-24.408
-19.8285
15.2569
22.5122
-58.8561
-78.6063
-50.5937
-44.383
-38.008
3.51635
65.8302
64.9076
-24.2644
-20.2648
-11.4367
-11.2655
28.9426
16.3347
72.0506
67.1044
-53.5808
-69.4695
-78.5052
-71.9539
-23.7845
-6.97969
8.44707
22.025
72.6039
77.9976
-32.4785
-43.0499
6.61672
15.7211
18.3903
12.4275
49.1762
87.9748
-30.909
-64.2138
-6.91532
12.4672
12.6235
0.682364
37.7322
69.6202
-23.7047
-40.113
-52.1418
-39.6943
27.7398
26.0876
52.5699
58.0911
-11.6222
-20.9129
-26.8407
-58.566
-10.3735
-5.82534
35.4882
3.67381
-40.6054
-37.8518
-46.9119
-50.6224
16.0123
24.8046
56.3878
94.1669
70.0472
-38.4472
-82.5627
-67.3368
-15.4813
-16.6423
-17.7662
-9.62583
78.5454
-7.33438
-58.2973
-16.1676
16.9106
11.5991
3.88306
-5.73053
29.8029
81.5144
25.015
-91.1601
-53.6998
22.9458
45.6104
28.9391
43.2267
66.2505
57.9594
-44.633
-77.5401
-41.8008
-16.1643
-12.6203
-4.31086
31.1716
-6.69406
-30.5395
-12.2649
-34.7049
-27.0073
14.4202
38.087
89.7809
29.6608
-0.152961
5.94607
-12.6581
-19.5276
16.2532
-6.04903
55.1753
90.091
32.6369
-87.9481
-109.295
-69.7413
-34.0338
-19.1777
-20.5809
16.4605
70.1318
-5.33711
-35.4411
-2.10684
15.9123
15.972
-0.105953
12.4727
80.7774
-4.86255
-44.7336
-58.5914
-28.4612
38.2844
24.5295
59.0588
133.65
8.71038
-78.9156
-65.4057
-51.8536
2.88228
6.46136
41.7903
97.2741
-25.8736
-55.1763
-54.0257
-64.9022
-18.1
-6.68431
21.3418
107.458
-4.19959
-56.8197
-65.521
-88.743
-14.9132
31.7563
23.7781
21.4487
89.8448
66.4797
-8.85645
-32.3398
40.8292
38.7171
21.3644
7.80024
4.83801
22.882
8.6167
-136.556
-68.9215
-12.6717
-4.15757
-2.59124
25.323
26.4069
19.9791
29.2065
-61.3027
-47.9353
-10.7105
-7.96084
35.442
36.831
55.5972
70.4255
-15.1882
-17.7184
-36.4713
-7.43892
43.4473
32.6503
38.2794
-26.6726
-41.3187
-9.02733
9.23945
-14.9333
3.6105
0.382466
35.851
13.6942
-71.7066
-74.9359
-78.1408
-68.2093
6.77612
6.93807
-7.57805
58.1703
92.0158
11.2127
-58.4192
-20.1985
15.0038
13.2721
17.2132
19.7038
93.5722
78.139
-3.78089
-28.5046
28.2
30.7663
-1.57646
-24.1815
11.8208
25.605
-88.376
-89.416
-24.3088
7.44796
-7.92164
-13.6362
43.042
46.7284
-29.5615
-51.2186
-51.0351
-15.4835
12.1515
14.7609
41.2656
69.4423
82.4934
-49.0738
-78.0916
-84.5238
-2.18194
-2.98762
-23.9234
8.61108
37.1429
-28.7921
-31.5415
-21.0813
21.4471
38.4916
22.5817
24.8052
72.2707
107.924
72.9765
-44.1393
-66.2654
3.64685
18.5154
11.902
13.2686
17.2188
14.2394
-56.2144
-82.7012
-20.5055
-22.2184
-26.2176
-1.8963
44.6493
72.4683
-8.41
-38.1821
-66.8573
-37.7796
7.0048
-8.35302
30.3449
83.5734
25.7197
9.12876
-7.62672
-24.2378
-12.6233
-30.2184
-3.90913
-12.0419
-98.7909
-141.763
-103.452
-27.9363
57.4005
50.6025
70.8256
138.355
30.5407
6.87442
48.0752
10.3605
5.67556
9.37607
-19.1731
-16.6154
83.3388
92.5876
-42.35
-41.6654
20.1692
53.2846
31.2094
-15.1387
-6.96783
14.0699
29.856
-22.0686
-52.9038
-42.9575
-73.9679
-78.3274
-14.2783
28.5328
55.0695
18.8446
-82.339
-55.6735
19.7932
23.2745
27.4035
42.0923
58.4379
-28.4792
-58.4855
-44.9839
-60.1193
-47.9466
48.1853
74.6501
113.679
71.9709
-34.5432
-86.6569
-76.5555
-54.4313
-22.779
8.55917
58.0948
63.1377
-77.2932
-113.223
-102.393
-26.6737
73.1626
80.3141
40.3204
35.7442
122.567
60.5982
-21.0885
-29.7693
1.15047
-4.7338
-29.8021
5.19841
104.043
56.284
-61.2562
-57.4139
34.7617
86.5417
58.4017
51.6843
85.992
58.8359
-42.5243
-66.0108
-85.6537
-107.533
-97.7868
-75.8843
9.58636
-5.24253
-50.7894
-49.8318
-97.4959
-111.601
-50.8122
-1.33654
135.618
116.394
19.7238
-4.1022
-47.9581
-52.8916
26.9118
74.7642
121.487
154.591
34.9119
-61.7171
-85.827
-41.5008
-6.30457
-16.0596
-1.91269
56.676
135.784
-6.08221
-58.4033
-6.57587
16.6444
13.4456
29.4065
32.3079
69.2052
-68.5047
-86.4409
-105.302
-6.90151
-2.28393
-31.8139
4.56151
32.7052
84.3221
54.5475
-70.4552
-96.1765
-6.89775
-4.96392
-2.48988
13.2856
41.7196
-2.70718
-103.394
-77.5909
36.3878
39.2508
52.584
74.9308
75.1528
57.5415
-74.1636
-65.656
-65.0156
-62.5783
-3.05043
-16.0853
32.9589
49.0396
1.02321
51.3246
14.1761
-44.6524
13.502
14.3897
30.8573
74.3548
81.0412
-26.8725
-97.1928
-43.448
32.6849
-21.7421
-34.6206
26.9502
98.0385
29.76
-66.075
-30.9028
20.0924
24.3159
-14.5441
-34.6794
37.4901
-29.665
-52.1098
-89.4724
-109.976
2.96512
85.8619
62.1005
145.444
91.2308
-70.6997
-101.809
-134.449
-80.8655
-19.0428
-30.4423
10.9047
62.7818
115.555
59.467
-3.94651
69.7463
92.377
36.3457
-10.9419
-25.753
36.7731
29.7172
-120.673
-140.621
-30.5494
-34.8409
-34.6905
-28.7829
14.37
48.5565
111.008
86.2629
-47.0738
-32.5354
-21.3999
-48.9528
-24.1935
32.4344
83.6147
137.85
-33.2529
-96.875
-34.3879
19.405
-6.34582
-23.8036
66.7343
121.662
62.6445
-56.0616
-74.4558
-86.4136
-43.7273
48.4523
76.7225
103.198
20.5741
-32.6599
-101.19
-168.314
-64.089
-70.5463
-31.3134
29.6765
-17.1622
-3.62359
-41.9723
-46.6489
23.3586
79.0745
51.9093
26.5011
62.528
15.9876
3.87486
-24.492
28.151
81.4413
76.4777
78.1049
104.524
51.7695
-28.0929
-89.8805
-21.7288
-14.1662
-55.5947
-65.4661
-2.66344
0.0422785
-90.5227
-67.8101
-23.5996
11.9504
-5.44429
-16.8944
15.7093
77.1335
100.208
-29.3797
-57.1347
13.6765
17.3861
-11.718
0.467585
32.0096
61.9106
-68.3882
-128.44
-109.912
-32.7344
21.8718
58.7687
96.6834
39.9646
-9.51149
-12.5512
-5.54933
6.97471
59.9052
36.3672
31.6662
37.0762
-62.4351
-21.8222
37.8462
13.0585
19.9698
35.9051
45.8601
42.5643
-27.7527
-72.0348
-60.6103
13.6944
-2.33205
-9.80032
-5.3732
59.7006
-10.0939
-28.9873
-79.5531
-73.9602
7.59968
-36.0372
-46.5068
-49.2996
-73.2375
-32.301
-39.2817
-3.75928
53.1543
64.985
109.346
79.582
54.015
83.0488
-4.23222
-69.5542
-6.21511
-7.24944
11.0104
27.8169
-4.14993
9.35292
8.93024
35.8845
72.4858
62.7387
97.1824
52.6207
-48.8902
-137.635
-155.819
-108.389
-27.5993
-5.37882
51.5783
-13.5178
-18.5234
47.1513
-43.7543
-54.8621
35.6748
45.0914
-20.8219
-20.7062
54.5707
69.4219
44.162
-53.9144
6.89244
25.9088
-72.47
-113.248
-50.9318
28.4128
78.0099
4.5427
14.5763
-38.8243
-22.9812
-2.58495
18.8347
64.793
92.683
6.48186
-15.6307
3.16809
3.89849
-16.4753
-35.6155
53.6353
131.392
97.4875
55.735
-32.4895
-57.0566
5.81984
-19.307
-39.4446
12.0629
-64.449
-6.36805
-3.63911
-42.9446
-79.773
-183.035
-236.787
-146.031
3.14235
26.1587
68.2736
24.708
27.3226
20.591
-25.2758
-62.7721
-18.0371
-26.9649
42.1599
60.1711
125.301
84.7768
70.7217
89.511
-29.8722
-107.578
-68.2855
23.5481
96.4618
140.176
113.377
174.319
168.42
45.9227
17.8452
7.521
17.5124
94.6315
118.222
90.2389
74.9705
44.2845
-80.5653
-151.625
-28.3271
55.4311
5.31915
-106.91
-144.567
-61.8376
-104.126
-228.992
-171.723
-94.4121
-74.9584
-72.702
-91.2658
-61.3573
8.47371
-55.3582
-182.291
-222.3
-99.3465
25.2155
110.624
128.257
153.741
77.5404
18.1715
-35.0089
-6.62291
63.2512
20.701
51.4308
131.344
109.206
107.983
56.3822
8.43521
44.3028
97.47
130.234
109.474
-62.4995
-14.6277
12.4962
-155.69
-135.262
-49.8994
18.1875
47.4626
-71.2883
-19.3407
33.7865
29.4008
51.2302
55.2268
75.9584
47.8538
-49.8584
-86.2608
-43.0474
-30.091
22.4601
-9.1045
-8.9755
62.0208
141.625
54.1355
-211.471
-232.051
-49.6413
33.1797
60.5419
54.4955
33.4925
59.8647
16.0057
-115.267
-36.8415
-3.83934
-92.8821
-109.831
-16.3255
56.9255
145.164
128.963
-117.505
-155.471
-5.99025
72.9195
96.0969
54.7003
43.5233
-12.4513
-27.6855
-7.25772
-10.0088
19.4086
0.50457
13.4679
90.77
32.2357
-75.7954
-121.217
-137.393
-46.1897
89.9956
98.3626
150.933
161.443
68.4359
-36.0783
-103.151
-96.2862
-40.7705
-36.9043
10.9254
55.483
-3.38659
-34.3846
-76.4518
-78.548
-54.0496
-39.8179
10.3474
86.9838
51.7266
-11.2654
18.3063
-36.095
13.2475
83.5781
91.759
49.1066
-35.754
-24.7971
-41.1871
-50.7905
-5.91957
39.7618
19.9075
6.44662
-26.477
-22.7626
-61.639
-102.224
-11.5587
74.4035
183.863
151.174
13.9865
-16.2394
-111.27
-192.849
-123.309
-81.3717
-11.5498
82.4324
-36.7543
-38.517
3.39563
56.366
100.794
65.8406
47.5258
-12.7447
44.1753
19.3005
-127.132
-62.6026
50.7355
77.2516
94.2968
120.317
167.55
187.639
7.87512
-130.728
-158.129
-151.97
-99.1244
-47.2179
24.7607
19.609
34.2132
-64.1407
-145.288
-44.6222
71.5558
10.6473
-25.6026
2.82215
43.1554
-13.4408
-61.4491
-105.003
-70.0296
-15.2493
111.586
127.476
132.862
0.154006
-98.5283
12.0677
21.5565
73.1672
77.9799
-6.43313
20.7704
-11.8538
-6.30716
-58.9264
-77.9299
12.9677
34.0872
-8.35235
44.2981
110.018
34.8826
37.6338
-47.9043
-15.9909
13.7554
-61.2435
-66.1826
56.2495
-14.109
-19.0102
-94.1779
-112.702
-79.9764
-9.58603
92.1952
144.907
9.49529
1.3281
-32.6194
-53.5795
9.31535
-12.2839
-7.85419
68.3801
36.0714
-40.6381
-176.784
-234.625
-68.1034
3.85711
23.2748
196.724
225.345
101.005
-3.7994
-48.9055
42.8495
81.6512
91.836
84.7563
102.514
-62.8174
-95.2617
-75.7542
-44.4571
-35.605
10.1649
26.0302
41.8833
-13.9105
-73.8838
-85.8176
-78.2402
6.11466
83.9541
103.663
165.719
103.633
-178.571
-225.032
-154.755
-34.4496
-12.9812
-46.2344
21.3211
15.3826
-13.807
-24.5502
-21.163
36.6325
72.1728
38.7874
73.2185
57.0683
-68.0273
-55.551
-34.9731
-22.147
107.405
123.7
146.632
60.3157
-80.7806
-99.5011
-112.324
-53.3926
28.8319
54.2547
105.933
123.599
-23.1127
-94.4169
-72.7683
-38.2026
-4.27335
11.6154
-23.9491
-3.17383
115.02
75.8151
-33.7285
-27.1009
47.6031
29.3972
27.6559
-5.80698
6.09593
32.5451
-138.235
-149.406
29.1356
72.6718
-58.6644
-153.202
-133.547
-79.5359
-8.51982
-51.1622
-32.2668
46.5264
109.506
110.805
24.5623
33.9883
94.9385
78.75
94.8691
35.2244
41.1964
-38.8621
-77.0303
33.9964
109.663
65.4184
69.1251
37.655
-26.3922
-24.058
-33.2266
-73.9214
-40.432
-103.966
-44.5788
-92.0955
-118.939
-73.0337
-75.5975
-60.5622
22.2008
89.3132
-21.1864
-55.7078
-58.8377
74.0673
129.594
112.061
86.1802
86.7327
42.1164
-3.20166
-74.7016
-72.03
-57.1008
55.2881
145.837
115.321
-40.5867
-136.854
-138.94
-81.1458
20.9009
29.9679
73.4857
126
12.0356
-49.8184
-62.9022
-19.3506
31.5491
38.966
58.2332
80.3642
1.87605
-36.756
-78.044
-68.9737
-7.68048
36.3699
10.3224
-16.8063
-42.8405
-121.649
-94.9296
3.65243
76.1707
33.194
11.3376
-5.7018
-2.01931
51.2081
-26.2497
42.1316
96.0572
-7.45297
-85.9344
-93.9118
1.04566
99.0002
41.8427
58.5351
-10.9728
24.0928
23.5012
-21.4302
-17.8339
15.489
120.151
101.378
-15.6807
-142.648
-197.764
-134.705
-30.1071
43.6198
58.4055
-1.646
-22.7537
-50.5937
19.7332
-31.8708
55.2479
135.823
183.836
66.0597
-54.8798
-82.6008
-105.476
-51.8528
6.47886
16.8909
143.122
129.98
-37.4684
-92.8371
-108.585
-20.2392
7.09764
-81.4083
-50.5994
49.9913
101.354
19.5935
-114.745
-114.657
-9.37851
43.5726
54.8276
89.4791
149.876
56.692
-60.7278
-25.6671
44.3477
-12.4965
-44.0875
-42.7001
-11.8054
16.4296
43.3731
-5.28415
-76.7164
-61.0863
-20.6347
18.4559
106.243
62.5077
-32.3029
-66.7716
-78.7765
-47.4965
17.5598
-70.4705
-48.5449
64.4543
69.7371
13.0914
-26.5616
-8.86179
7.68422
-37.1407
-27.3782
16.8006
85.1326
113.178
51.3413
73.4928
76.8505
-25.4673
-127.098
-59.3183
9.65248
22.6922
10.4917
-108.441
-90.9103
20.3838
50.644
28.7396
-6.31675
41.9115
28.7521
15.2833
0.666734
-4.86338
-22.7683
-50.8899
11.0178
91.2818
-10.6048
-46.9235
-47.5573
-60.7446
12.8879
54.6942
48.5522
-23.8047
-164.022
-170.22
-107.307
3.61359
126.622
131.566
116.259
102.276
40.3014
43.804
19.2776
-8.70679
64.7631
48.6973
-33.834
-27.1395
-96.836
-62.9535
-12.4113
0.375005
32.8652
80.9804
64.7002
-78.9262
-79.8226
-44.6477
-51.8415
-95.3493
-86.8341
-45.8764
-9.89216
72.1355
204.439
57.4825
-61.7062
-76.005
0.659008
33.5006
21.796
-17.3339
-36.1583
28.609
99.0202
0.646581
-49.6399
-11.283
-28.8511
-40.6558
-5.06502
94.1807
172.447
-38.124
-170.328
-94.5385
29.22
71.6161
65.5876
41.0455
40.4579
-70.1837
-22.1469
-28.8534
-32.1834
72.468
83.4545
47.7878
20.3773
26.0232
-35.161
-71.5239
-152.219
-80.6721
-30.7723
25.5175
60.3082
69.9651
38.8641
-48.7375
-88.856
8.73461
28.5733
-27.6508
-121.686
-130.2
-124.873
-84.093
113.344
206.091
239.76
159.944
102.99
122.68
44.0867
0.743446
-23.9962
-91.9676
-139.825
-109.091
-87.5875
-25.6061
-75.0473
-43.115
20.1557
72.4278
53.1301
88.9806
45.9011
12.9433
-106.845
-91.6128
-29.1633
37.3442
33.5027
-11.481
-10.7281
-2.32919
-52.1684
-52.2906
-59.6101
-33.9455
15.7228
20.3021
36.1662
76.3179
109.158
100.735
-31.7406
-1.54046
117.043
82.7085
-40.636
-114.044
-77.7493
-34.6298
-4.96812
-35.9057
-71.476
-10.9801
-8.55006
-18.6859
-17.5481
-41.3806
21.3035
78.7897
7.03725
-40.0966
30.4757
18.0938
90.7234
106.916
112.165
82.6705
5.79036
-4.97583
-39.7526
-80.0182
-57.2528
-49.1265
-30.5675
-33.8168
-55.2402
-39.6566
-89.0401
-59.4502
3.4544
56.8758
106.744
54.7911
-93.8968
-112.332
-28.8318
15.5889
67.0808
64.0925
36.0103
31.9332
1.43996
-19.3925
-24.1216
27.2835
91.386
85.6837
68.2051
9.88281
-143.929
-121.98
-69.934
-20.9475
90.0333
54.2228
11.4805
45.0682
-28.9043
-45.5469
-44.6346
-13.7627
38.499
38.562
34.5682
31.9064
-9.9794
-46.7191
-52.8671
-18.2476
78.189
53.1605
0.612884
-40.0465
10.8484
-45.4928
-83.6184
-42.0401
56.0526
58.6456
40.2793
22.6538
17.0262
26.0776
-31.0205
-98.1425
-58.3756
-13.9462
-24.563
3.36172
53.5741
31.82
49.7978
7.82183
-6.19861
37.6624
23.9111
-11.2421
-13.4929
-9.13969
20.5756
-88.3224
-90.9411
-77.3523
-44.1451
-32.9521
48.9729
111.333
47.3892
-10.3929
-18.6401
1.12134
21.2015
78.4581
86.8612
133.281
37.6929
18.0155
7.37389
-116.76
-132.323
-1.83047
60.8948
83.7405
32.0946
-18.1303
-55.2539
-112.807
-144.383
-108.984
-53.1393
-20.1316
57.901
29.2551
-55.6324
-85.4666
9.81007
44.5633
85.6223
144.064
160.335
144.572
-44.5328
-104.207
-60.9107
-32.1298
-2.3417
45.0157
100.68
119.107
63.1486
-43.5473
-130.564
-100.936
-87.0019
-32.3166
22.6286
30.8367
55.2962
10.211
-102.904
-103.968
0.710284
7.64298
-12.5608
-10.1844
17.8637
-13.8891
-20.3825
-6.09537
41.6964
94.6628
101.322
115.906
161.579
50.6065
-128.014
-156.68
-86.615
4.58427
105.622
153.64
109.694
-14.1934
-163.159
-193.383
-154.22
-93.7601
-44.9656
-40.8068
-35.1154
46.7862
112.835
7.53254
-1.08303
33.3253
89.1414
36.7125
-3.90466
69.6213
145.363
10.0994
-89.9326
-87.6855
8.48668
47.5775
-8.07462
-20.4136
16.5882
-44.9927
-16.1678
-43.9037
-54.9243
0.237153
5.45059
72.5733
133.663
102.518
65.6923
-66.2691
-154.045
-107.741
-50.9542
79.82
101.59
8.58341
-20.4099
-35.8382
-49.9754
1.6821
8.98294
-0.727359
37.6037
106.781
-75.6453
-117.222
-74.5013
-15.2589
35.9122
61.1016
4.93448
38.5107
82.0666
-13.1661
-73.0893
32.7718
32.2887
-40.0601
-65.5892
-19.4348
-1.73764
26.9521
-31.2447
-125.323
42.0418
69.8675
44.9827
58.0839
43.7867
90.1214
-42.3171
-99.0228
-22.5954
81.4855
110.186
26.3484
-7.46071
28.3834
-146.619
-181.307
-103.401
-66.3469
-28.7795
60.1927
143.957
178.702
65.3882
-43.5814
-84.5003
-86.64
16.2312
69.7773
18.8141
-7.24943
20.0555
-29.9912
0.804226
-14.4634
27.9986
52.1035
46.495
20.2045
30.5202
38.8947
-64.3384
-52.1364
-1.07406
-13.956
-15.5179
-2.86593
80.4007
52.0418
-68.9665
-232.095
-223.363
-76.8278
-26.5556
26.2535
128.017
58.4307
59.2147
50.1457
42.1312
44.8511
48.5141
8.13688
39.6717
49.0075
-48.0384
-24.983
-14.6521
-5.18721
-25.426
11.1191
77.3342
138.023
-34.4297
-98.0226
-47.6844
-5.9677
-19.144
-30.367
-54.8457
-51.0469
42.7775
16.4689
-45.8071
55.9338
140.022
28.7893
-118.387
-98.886
-11.2739
73.8182
-42.9328
-78.1739
6.6212
53.3687
43.7156
58.0183
61.6084
44.2603
-27.1323
-18.8346
-39.5044
-36.2412
10.7706
18.5473
61.5531
48.8484
-10.3998
-24.2512
-16.6796
30.023
19.5136
-87.4141
19.7933
12.8277
-95.9817
-78.8955
-62.4764
-40.4532
43.0646
63.2181
103.095
2.6079
-79.705
-90.171
-50.5294
-10.5378
38.7828
31.4258
43.7765
32.2938
-22.2564
29.6076
41.1326
53.337
55.821
-21.4137
-62.6154
-43.25
37.6081
-1.04776
-0.0995426
45.1186
56.9985
34.0091
-20.8594
-5.23852
79.1303
33.443
-9.0156
-173.155
-71.999
-23.6691
-1.94916
-13.9699
-56.5121
19.2951
141.227
25.5103
-86.25
-57.0234
-10.37
43.4223
59.0707
49.4964
51.0581
-18.8619
-51.0488
6.31201
-13.4451
48.1584
84.4972
62.5767
41.7815
-34.5731
-128.266
-149.113
-114.895
-42.781
-18.9462
9.03087
-16.6333
1.40509
71.9898
53.4696
-35.7749
7.74531
6.35949
11.1101
20.4585
16.6863
-0.537597
28.3044
-87.9771
-42.9893
70.2499
75.2146
42.337
49.6992
79.7209
87.963
-2.84588
-10.307
-39.3587
-33.4002
38.9055
82.6336
48.2534
14.883
-69.8796
-85.1846
-81.3045
-79.0379
-50.4859
-49.9255
6.62775
51.1301
-6.19883
31.48
12.2423
-56.839
-64.4992
-53.0751
-25.9087
90.2721
52.8612
-46.4542
-63.5607
-44.655
17.8959
48.3853
38.1726
39.6379
86.0537
75.5349
-12.0211
-80.7767
-90.3882
-69.0346
-31.856
6.52963
28.6702
75.1954
105.916
-39.0269
30.1291
108.262
51.0486
-0.100872
5.71565
-16.341
-21.2521
-86.1591
-111.168
-54.0883
83.8624
94.0613
52.0527
12.5596
15.4114
19.9325
-81.0675
-74.7926
-58.9565
-4.65734
6.56455
15.2783
53.4664
-15.6269
-39.0415
4.01596
-4.46563
-7.51543
-10.7686
-26.0887
13.7794
67.3637
-11.766
-32.1508
-82.0343
-29.363
102.407
90.0001
38.7816
36.4227
-60.0959
-34.8592
-95.561
-30.1396
-1.31163
-11.6659
3.30017
30.9449
91.9978
102.949
-93.9997
-149.277
-33.6769
-17.7452
1.25103
32.6119
93.7147
15.8324
-10.9904
-1.98295
33.6298
44.4695
58.9911
45.979
46.0377
-15.8396
-45.6281
-38.004
-40.7983
-17.4219
23.6361
29.57
96.3082
53.9811
-59.6498
-75.2793
-87.8062
-37.2476
-7.18666
-11.3925
20.702
17.6381
9.16288
-23.6789
20.9124
52.018
34.1744
-23.6179
-124.592
-171.003
3.64922
92.5134
-28.8948
-96.1873
-28.4183
49.479
49.7957
16.967
11.491
95.5965
102.758
-8.63876
4.03773
40.5503
15.2094
3.19633
10.5557
67.7494
42.8935
-10.9748
-49.7499
-135.264
-47.9409
39.9451
92.921
113.597
51.6816
-15.344
-26.073
-75.293
-51.0673
-3.65887
-44.2523
7.93649
-21.9013
-57.003
-55.4137
-77.1867
-36.5715
10.7336
-23.7319
-8.14756
129.694
42.9971
-7.65233
-40.7843
-57.3229
-26.1356
23.7308
25.6583
27.2593
102.646
64.8998
-12.0243
-64.3686
-19.8026
8.29215
-9.04444
2.50937
45.6204
67.4688
-34.5005
-102.819
-23.6034
22.5546
-0.424485
10.4114
92.7919
139.289
-17.683
-57.7461
-47.2409
-27.8931
-1.25307
30.9726
-14.5706
-3.65935
99.6025
34.1332
-59.9287
-119.338
-86.5282
-74.4826
-13.5372
-9.3914
31.1033
144.457
102.137
-41.9843
-7.79808
-36.5711
-85.5697
-45.4786
-5.32437
62.6172
162.22
32.0766
-144.329
-76.4436
-14.4258
36.6457
29.6069
-75.4355
-62.1278
19.9249
61.6876
-29.2462
-3.32212
24.6143
47.92
70.4147
87.1279
134.093
56.6786
-51.903
-87.577
-22.9094
-13.784
-18.5312
18.4405
-1.8157
-23.8747
-65.2054
-36.3063
-47.0863
-54.6565
-29.7603
1.59345
48.3597
56.3783
0.126892
18.0916
3.39688
-6.84085
1.27978
-44.9934
14.5557
84.3627
-6.50595
-45.9498
-73.581
-80.3561
-25.5779
-17.0279
-1.1766
52.1292
191.946
122.739
-52.8758
-92.7789
-23.5687
-0.156428
13.3258
38.824
36.9229
-19.3263
-19.1177
-57.0871
-23.7601
-15.0443
-6.78796
33.373
101.769
115.229
109.008
49.056
-188.684
-169.267
-42.2259
-5.48773
-9.92174
-30.7644
-16.8497
37.4627
3.99644
-42.5139
-41.3039
-25.1104
10.1371
59.944
84.0654
100.349
9.20574
1.55695
-45.5355
-94.3243
-35.9109
4.82955
40.2194
105.424
112.858
68.9597
3.60954
-52.4552
-12.8103
7.22783
-3.56516
0.786114
-16.2049
2.62968
65.9831
-97.8741
-174.262
-111.959
-70.5089
-40.0236
-2.0078
12.653
65.5426
51.1722
11.3882
46.9553
35.4521
-18.324
-11.7767
-13.4859
19.5627
-17.0233
-12.5831
14.1606
-23.5064
40.5822
115.03
31.6172
-24.5704
-65.4101
-78.211
-21.8931
10.2036
23.3197
67.7257
87.2005
144.42
74.1838
-3.7517
-27.3375
-62.1529
-43.1327
-43.1136
-90.5803
-86.8165
10.2536
-47.3146
-4.66007
45.7818
105.199
115.348
29.836
-22.9066
-19.4268
-136.997
-220.554
-125.003
-43.2365
27.1575
56.9428
42.853
52.5008
91.7468
30.8866
-15.4001
-19.4655
59.7435
54.3057
-15.694
-30.2276
52.12
56.2532
64.7107
66.7788
96.4633
44.6152
-43.2643
-7.41995
40.6425
-26.7079
-62.1718
-59.1649
-73.674
-56.027
-53.6376
-20.3882
3.67145
-104.813
-90.605
-39.6971
-55.2804
-49.0746
-37.1418
6.93075
159.526
146.721
65.1476
-13.4383
4.85333
37.5036
6.35932
-19.6275
-49.3343
1.5788
26.2519
25.9961
-70.171
-7.2393
21.456
31.942
33.4975
71.9962
79.8128
9.6918
-90.8871
-32.5157
-26.8474
4.76615
54.8445
58.874
18.3818
1.97807
-33.3762
-65.8747
-83.3364
-89.0274
-9.89253
45.7426
71.2569
125.107
16.2662
-112.585
-84.97
-59.5248
-22.7498
26.8204
44.8844
9.50235
-4.58404
-40.2423
-20.7086
0.292714
26.7216
43.5123
43.54
12.4962
45.8726
121.249
-39.9121
-101.634
-5.15348
59.1525
-14.3544
-71.2362
-33.7341
48.9842
85.9637
34.7277
-39.7015
-52.7937
-73.6194
-87.0778
-68.7371
-41.9873
38.0782
35.7621
-25.503
-49.9847
28.8235
26.0597
49.8743
94.4727
168.134
76.388
-69.7478
-46.4927
-7.91796
17.2017
41.3613
85.7736
117.986
7.51018
-66.3829
-69.2952
-106.804
-103.031
-94.9144
-99.1619
-0.363809
-42.3311
-5.98783
70.5522
2.88264
12.484
81.0555
40.3164
40.0634
81.1328
-13.525
-75.7836
-73.5801
6.27221
78.8583
27.121
-70.876
-57.4218
45.3623
57.9433
-74.8315
-113.346
-57.1095
-15.0354
33.9751
95.7793
102.752
53.2306
-132.341
-149.958
-35.3515
73.1497
96.0145
103.007
85.9778
107.197
146.696
66.409
-15.8346
-62.4393
-52.7005
-20.5338
-32.6171
-56.1611
-11.2824
-32.2721
-49.9425
-32.1518
39.299
-11.056
-16.9044
-3.30819
-18.4825
-52.581
-57.5643
-90.5314
-109.879
-90.186
-57.0844
12.0883
126.315
74.7887
22.6427
2.72953
-42.4839
-9.78
46.8531
91.9308
178.035
187.458
31.0321
-63.0612
-104.408
-59.1231
-40.2131
-31.601
-4.02744
40.9804
-42.6796
-43.9521
-20.1042
41.1864
35.0857
34.0129
78.4969
113.072
-15.5724
-34.1895
-46.7694
-64.8655
-45.0518
-40.1055
5.52216
2.65564
-54.3701
-17.718
1.62374
-0.739743
46.2828
6.97631
-3.30345
-5.80842
-53.5023
-33.9407
-38.2326
-1.43046
130.665
101.384
-21.2356
-22.6209
76.5276
-18.1237
-51.2727
-20.5941
13.2373
2.82997
-6.22022
-25.9997
-15.5617
18.5337
-2.48034
-71.8779
-7.72496
15.7047
42.2709
9.35608
-21.1415
38.586
165.685
78.4622
11.6307
28.4473
-88.2049
-160.899
-156.062
-117.414
-39.7226
47.2408
-28.5775
-28.0462
-9.7736
41.4462
104.658
100.135
63.9472
79.4792
-20.705
-67.3847
-27.6097
10.3181
-27.2528
6.68989
104.01
124.696
49.5355
-14.1933
-37.7296
-71.1874
-27.8707
2.75022
16.346
55.8725
23.0916
-74.0103
-79.9859
-73.3001
-26.2245
-35.0025
-51.5359
-39.8845
26.0971
52.9397
-8.71653
48.56
86.3671
78.7351
60.233
-48.948
-39.8995
-51.1962
-133.687
-89.1332
-37.9094
16.5677
33.0363
25.4684
65.1187
34.516
-32.9581
79.551
83.8157
-0.429995
-59.1081
-32.098
82.3335
126.248
1.02525
-82.0676
-141.844
-106.903
16.7268
43.8013
57.6322
68.6864
70.923
34.7101
-39.0183
-18.5562
51.97
-0.108554
-80.8063
-61.4159
-0.636458
19.3658
28.7279
-75.1015
-104.283
3.01705
60.5834
36.8857
12.5505
-53.9851
-29.6757
117.499
50.5974
-7.30304
67.6981
43.0196
-37.0969
-81.092
-27.4769
73.2034
21.105
-83.9376
-129.608
-83.6438
-10.6687
27.6993
48.629
85.6801
8.06781
48.3106
85.7219
7.97698
-38.8098
-87.8669
-72.6126
27.5224
3.81124
-20.057
-30.0697
-10.3392
30.5359
43.5363
31.1301
108.432
143.338
-42.7683
-142.014
-119.75
-43.9743
-44.6947
-46.8939
-72.2876
10.8085
99.7282
49.9414
15.1247
83.8327
127.515
108.274
65.3449
58.4627
31.2763
-95.4876
-163.234
-148.664
-40.7143
22.5047
32.9876
112.675
104.287
-60.2593
-92.7362
-85.1508
-41.7477
-36.4814
-51.7125
-14.6781
36.2294
87.2042
55.9848
-74.1043
-110.982
-56.3767
-19.6395
12.158
88.4785
147.38
50.2803
-17.607
-47.7165
-15.2733
-28.7657
-2.34046
71.0819
215.442
90.0529
-9.5444
-72.6871
-162.597
-119.77
-3.39956
74.614
61.1466
25.4511
69.9679
-76.3148
-160.269
-116.959
-57.5745
-31.4703
40.5848
82.1721
134.552
50.2235
-54.055
33.7346
75.4455
44.8367
18.1882
18.4781
65.7946
71.3726
-19.6801
-37.9513
-79.9318
-44.7895
-18.244
-23.5569
13.1701
-33.1842
-92.5571
-85.9525
-93.0777
-78.6975
-85.2385
16.3371
83.1323
38.8058
-38.4837
-53.1765
-72.7703
-107.406
-61.3559
-67.2617
38.0228
134.073
83.3775
40.7101
46.0821
84.6569
109.825
89.5195
44.557
64.1198
108.623
22.428
81.3257
153.178
144.449
100.772
49.3013
34.2571
27.3495
46.776
-79.9889
-150.677
-103.751
-97.7919
-97.0475
-74.0778
-43.1784
-5.61779
-48.6297
-72.2152
-105.461
-62.3526
-62.9484
-35.8441
42.5105
62.3209
-93.2822
-160.833
-146.969
-89.0402
-5.31271
46.5284
95.7781
55.6009
-49.9409
-26.0116
28.3858
44.1574
65.7433
82.1738
96.9064
104.019
47.7173
-112.027
-109.199
-44.6396
75.3899
110.843
115.501
69.0886
44.8994
-12.3355
-114.003
-40.4307
60.5932
57.9231
13.6267
-2.69992
26.6908
62.3109
-10.9619
-71.3286
-109.001
-32.8794
-34.0979
-60.3298
12.3946
52.4812
-3.9063
-53.9685
-68.4121
-15.9769
28.9235
14.4201
42.0502
9.22215
22.2694
41.2396
61.8303
30.2879
2.49424
19.7026
68.8253
168.055
-13.991
-57.6629
-60.839
-80.5882
-29.6274
-38.3187
-58.1912
-14.4656
59.1082
-44.3948
-58.9709
-71.6993
-71.1646
-25.276
26.9873
49.8742
82.4416
94.285
-41.3626
-84.2816
5.69349
33.1792
10.562
-26.8882
-17.721
52.2787
61.6543
-39.7692
-49.0633
8.88738
4.26231
10.4998
25.969
70.8871
47.9248
-85.2837
-60.8101
-44.1999
56.2723
76.0249
80.1441
85.1249
-26.2976
-92.9841
-49.1031
-15.6576
-34.4373
2.40865
11.8993
24.4934
-34.4887
-36.7462
-30.172
-27.6589
-35.0829
16.1584
32.1467
65.8738
76.9328
47.077
-69.7446
-114.111
-25.7068
49.4364
64.92
-8.95125
-16.7779
54.264
-33.5914
-58.1866
-13.3238
6.52852
36.1947
17.2033
8.51258
76.5149
27.4088
-111.494
-95.6574
-24.3334
69.0478
67.0411
40.2973
28.6308
62.5506
-2.39215
-67.8917
-94.8426
-49.608
-13.4405
30.8582
48.1623
26.4345
68.8139
-15.061
-71.5068
-63.9369
-34.1001
-20.3913
-1.74419
64.7783
150.297
168.337
17.2456
-123.724
-111.053
-44.2318
-5.6729
-3.04513
-28.5766
22.8247
-6.94052
-91.2408
-122.484
-74.5298
-3.06268
48.7195
87.1513
122.659
137.536
19.1237
-58.2955
-47.5778
-35.6023
-24.0568
-5.95297
38.3076
69.1479
-17.5327
-37.2709
-55.7519
-8.08609
37.4583
-10.4965
48.1184
93.6202
13.3069
9.21786
-1.11921
-21.5408
22.0898
-7.25925
4.78392
-26.6665
-31.069
-30.8557
-53.4742
-31.4931
21.5007
38.5778
52.3767
-22.1903
29.627
71.4275
10.2286
-20.3629
8.96223
23.0942
92.8081
-15.5206
-123.75
-112.38
-93.8917
-46.6061
-42.303
-8.54114
33.8664
32.6332
36.4992
-15.4773
-168.857
-76.5976
-53.509
-23.4009
35.2289
64.2376
115.48
135.919
50.3607
-10.8871
86.8093
104.743
38.1941
-9.74853
7.51683
31.0443
5.48539
-114.922
-80.2603
-24.7277
90.3201
121.859
40.8666
55.2679
50.0258
-97.5029
-83.3731
-90.9285
-88.1484
-8.65438
4.29031
7.94663
5.90562
-52.0993
-29.0339
-35.6339
-26.1576
39.3699
8.8517
-33.9234
5.49074
71.0088
20.2749
-48.4734
-46.0944
25.1196
19.1685
-18.2975
-49.6795
21.7414
76.9948
2.35302
-20.1825
49.0858
13.9512
-24.907
-39.0743
15.036
40.9036
-27.4138
-37.1559
-56.7061
7.93211
16.0114
50.3407
130.618
123.535
12.7945
16.113
7.57775
-47.6775
-77.2314
-66.0552
36.4535
18.2759
-9.95428
-25.9433
-39.1511
-42.8703
-2.1812
-28.3431
-45.7065
44.6441
-48.2427
-100.112
-62.547
-10.4342
69.5076
58.8494
44.493
83.792
131.189
68.0842
-34.199
-1.66938
-16.9926
-55.8058
-98.4256
-57.6809
73.1711
159.63
44.8601
-105.662
-68.1164
-16.6012
-3.83643
-32.3577
-71.6058
-61.8533
26.9745
39.4442
-70.1329
-37.1114
14.0867
1.52185
13.5144
52.5284
133.647
69.3273
-37.7041
-93.4522
-34.0384
22.7082
80.4681
65.2445
83.4446
55.8961
24.3664
5.71594
-49.8907
-35.7417
24.0962
45.7466
77.589
35.0161
-82.6617
-151.03
-209.717
-152.953
-86.9169
-75.9937
6.88064
44.4297
115.362
71.8767
-59.3328
-23.7566
39.3415
57.8351
62.2533
50.083
55.0402
82.0858
-14.0096
-56.1507
14.9959
29.6161
20.1009
13.6881
30.798
49.1003
-32.1915
-76.5393
-78.2342
-37.7629
-26.9637
-46.9589
5.64003
51.0202
-12.0106
-54.1163
-56.2543
-58.8232
-21.7222
26.7266
59.2122
94.9983
205.101
115.317
-52.2491
-135.769
-71.2987
-12.9986
21.307
39.7641
104.113
154.048
35.6246
-74.3956
-13.9226
13.3615
-19.3603
-19.7886
23.3322
53.985
134.115
71.8161
-167.926
-165.982
-117.191
-90.0923
-27.9133
-16.3191
-49.6298
-47.4784
-116.89
-104.449
-41.3641
39.7467
105.579
110.7
84.1097
23.6329
-72.0045
-99.4397
-129.365
-103.103
8.98209
106.87
145.269
108.041
-24.3799
-9.86485
-0.211627
22.891
69.7665
9.10993
54.5567
85.7934
5.38742
3.43239
-0.85947
41.7162
74.8948
31.3217
22.3056
63.4932
-34.0815
-48.8094
-15.3588
-24.5901
6.96371
-30.3534
-7.39677
35.3973
112.725
69.1229
32.6495
-40.5588
-49.4913
-49.2143
-35.3386
-9.98229
48.1743
-45.0727
-148.2
-182.605
-56.7138
-20.9784
-25.3206
-60.7217
-25.8671
59.5533
28.386
-54.9048
-88.7276
-48.257
-14.9897
1.91557
40.5216
109.777
49.086
36.0461
-7.43956
24.7671
28.5275
-4.96797
20.5969
31.5572
-52.1151
-32.2055
32.1087
0.994268
7.98398
66.8667
93.2643
102.978
25.8561
16.3151
32.5666
-12.9306
-24.8487
-38.8567
-53.1417
5.46061
41.8424
-45.368
-58.8778
-71.8015
17.4232
48.0783
23.5201
21.4745
60.4271
-24.8744
-89.4362
-92.1643
-33.2236
18.4526
25.9992
32.0685
74.0534
-7.76202
-45.1825
-54.399
-45.4302
-13.0895
-13.5841
24.6586
26.5656
-31.0742
7.8127
36.6901
29.0881
-29.4305
-60.7163
58.4163
111.407
28.807
-25.636
-20.9673
26.1775
67.3629
31.1959
14.0416
39.7944
-9.96266
-70.152
-88.1167
-97.3863
-42.3744
-5.61775
-29.7551
-0.37891
168.9
129.534
-0.012778
-28.877
-40.1505
-41.2005
-48.1562
-81.8993
13.7655
59.6717
-19.0626
-53.2137
15.9261
74.2608
38.6815
8.59369
-16.039
-21.5155
19.7008
-93.5801
-130.396
-62.253
-7.90038
12.8198
48.2363
52.5868
98.4936
67.2374
71.7475
50.2146
12.241
-25.472
-17.2478
5.59162
92.0602
-39.23
-136.404
-95.1317
-60.6499
12.5278
40.674
22.0786
27.2486
29.7483
-8.28454
-10.4456
-6.46195
11.1996
-42.3945
-5.84792
6.04032
-31.0871
39.6944
-46.0466
-119.959
-3.16993
70.9225
33.9027
1.7815
13.3778
76.9631
95.4613
19.1568
-14.4275
38.9271
55.8109
16.6011
5.92822
28.6149
1.50837
-105.335
-71.7094
-82.4736
-32.5347
-43.8273
-22.1644
31.7059
69.1026
-8.56822
3.72384
27.7638
19.5069
-36.0178
-44.1358
-28.7898
-8.32863
27.3984
-18.9215
-105.291
-69.0963
52.7958
56.4321
18.309
64.9116
177.542
119.078
-13.9131
-131.77
-71.1509
-54.1367
-77.389
-49.4034
35.8807
92.4892
93.8893
8.7318
4.2669
37.4098
-7.23722
-25.7667
-0.284667
-4.28979
-15.4464
-89.3164
-90.9967
-2.11667
71.3126
50.1129
-49.4345
-19.7695
49.349
53.4751
48.7233
35.4867
25.2531
44.3043
-8.58348
-38.3258
26.9409
-67.6975
-105.651
-69.1889
15.873
72.2807
-52.0387
-60.6934
-32.8886
-18.1542
33.6755
7.97835
-13.8364
4.40862
9.03893
41.8464
82.8831
7.01205
-12.9978
-16.4727
-43.6599
3.60055
41.1229
54.7779
32.4587
44.4278
-43.5304
-112.968
-103.551
-11.9658
65.0372
29.0743
4.87521
94.4869
156.3
-18.6221
-91.1053
-25.6673
-11.9455
-26.938
-46.8433
-18.604
75.9509
114.991
15.6776
-65.2114
-62.9776
-71.1852
-29.7748
-1.77174
28.6186
52.7364
-36.1748
-90.7582
-86.4201
-10.5187
1.51721
43.01
89.8185
117.769
74.1463
76.388
6.31194
-95.3779
-128.55
-86.8701
30.4697
160.319
66.9896
-114.916
-82.2377
-32.959
27.8001
15.45
-4.90008
-0.658529
18.0835
12.5233
-48.1106
-6.50232
14.9438
35.3936
15.2694
20.7064
111.176
31.2442
-45.5976
-47.4874
-65.942
-17.86
-41.8139
-44.9311
65.972
9.42111
-20.4325
-10.0259
2.97273
55.228
100.481
48.4054
13.5214
-62.5766
-87.413
-72.6124
-87.2511
-46.3523
35.1045
92.5052
145.87
44.2783
-20.6125
-29.9218
-57.752
-16.5598
-3.72002
28.6162
92.0191
-5.79037
-80.7038
-38.728
8.51219
34.1374
-8.77923
-32.5426
-36.0865
-34.6236
13.6288
-48.0086
-109.079
9.71144
47.3535
1.39349
-21.3104
44.1919
66.9051
62.4918
10.467
1.79957
11.1287
35.8473
56.7037
96.0092
69.9762
6.28834
-19.89
-51.2651
-114.844
-133.789
-93.8295
-35.16
12.2036
53.1016
106.317
7.66871
1.80031
20.5112
6.88628
-22.5822
-29.5529
-14.34
-6.4157
-72.3122
-23.4181
20.7165
13.0932
53.0558
40.995
30.6597
167.923
115.036
-24.6301
-179.708
-178.816
-97.1947
4.45482
58.3598
12.2001
73.6699
147.637
-6.92511
-47.6033
-34.8526
-36.8749
-18.9492
-8.31561
25.4167
27.2955
-46.236
-116.775
-75.3946
26.337
81.7192
84.2011
177.946
54.9196
-83.565
-132.381
-105.121
-73.7526
17.7929
37.4687
139.201
201.498
21.3629
-98.4914
-109.524
-71.8694
15.9654
-37.3912
-45.5646
29.5037
112.595
45.5249
-43.3902
-61.7219
-32.214
-1.82028
-5.35219
-5.86072
91.2315
88.919
52.4562
-68.5672
-53.3006
-17.2419
35.3735
43.9385
-32.4451
-14.2637
-3.57525
-68.7364
-38.5488
-30.5219
-59.4998
-36.4639
17.6817
86.6068
88.5556
51.6272
37.2376
-22.7753
-64.3288
-19.4667
54.9263
104.612
-23.7
-153.713
-85.2572
-84.9413
-72.1002
2.85027
75.3641
171.368
179.299
78.4672
3.09591
-42.5391
-37.5248
-34.8255
-61.3936
-22.1007
-54.743
-74.0208
-46.65
-26.2427
4.03325
48.8056
50.2919
82.0727
104.412
44.7115
-113.581
-203.371
-102.269
8.64568
54.661
94.2194
117.314
149.897
29.6049
-45.6275
-27.0715
-1.80519
15.6364
-6.10342
-16.6963
5.31713
-69.9986
-146.07
-116.264
-45.41
-5.09187
5.18201
38.9753
130.975
134.136
67.0856
-51.1894
-104.289
-24.1094
-0.422545
11.1192
19.4999
45.5092
91.8384
0.279731
-45.1309
-1.95364
37.8548
10.5104
-24.8718
-30.5856
43.5644
53.9555
-109.838
-98.482
-72.4564
6.36566
31.2855
20.1664
-7.8334
-10.1027
50.7161
26.0751
-89.1704
-8.59824
35.7781
25.2576
-11.5122
-0.459748
133.144
41.7426
-101.004
-130.166
-29.3648
11.5212
30.3171
67.314
147.024
124.04
-22.4393
-52.4681
-84.3505
-88.7209
-25.6661
-5.56493
49.1807
-5.80744
-17.7088
-13.0827
-43.3239
33.6263
112.328
100.578
104.334
-94.1528
-132.537
-150.661
-169.236
-99.7753
43.6363
116.039
121.917
78.9785
-3.30132
-28.1596
-48.0368
17.0697
40.6967
-5.87276
-65.114
-7.67236
43.1577
-11.0171
-9.09692
108.516
120.208
92.2683
76.4014
104.692
154.591
-15.9739
-152.975
-161.721
-85.9112
-100.897
-135.498
-74.6384
-59.5404
-43.4862
-36.3259
-24.4947
-22.1751
-2.29901
9.46115
51.1072
25.7448
105.86
69.2409
93.8487
47.5952
8.13025
47.4102
62.7486
27.1303
6.03317
-18.1005
-44.3301
-39.0307
-44.6713
-30.8267
-32.4243
-59.459
27.6977
-12.3377
-25.0469
-0.575782
-1.01032
48.1368
13.3804
-43.2977
-23.2887
29.588
0.416845
-42.3239
6.92132
53.0696
56.2906
19.6685
-3.79391
33.5862
80.2155
-22.4568
-93.0585
-51.4509
20.1739
58.9042
23.7985
-9.52768
-49.3312
-139.515
-60.5295
-78.1854
-83.2234
10.2512
56.5936
147.484
186.921
11.0505
-62.088
-109.831
-99.9768
-12.3243
53.2451
160.83
154.478
28.151
-52.0138
-19.3162
69.3777
136.818
89.8873
25.9422
-64.5276
-84.2521
-149.835
-173.823
-141.965
-12.5924
20.2386
14.3605
-7.98806
24.7094
29.8209
-78.592
-8.55884
93.5633
80.9422
7.60741
-51.7688
27.1919
100.808
-14.1657
-46.5809
-11.8383
3.46892
-49.0263
-93.955
-13.4959
54.1208
0.00306803
-18.2314
-16.9102
8.17347
36.8935
-12.3433
-2.46591
29.0986
18.2601
54.8576
26.4617
-19.9333
57.8058
55.2802
39.7851
61.9299
-65.0526
-95.1463
-87.4911
-77.3365
-6.74757
14.8473
41.564
99.8891
24.6083
-17.5594
-33.2593
-17.0352
22.8032
11.1737
-6.34589
25.5758
84.0561
109.229
-64.9984
-84.713
-37.2654
-24.5939
-5.54427
-42.2065
-47.2176
-9.24336
-24.1222
-23.2392
48.6917
60.1754
38.3638
-15.1664
-9.6162
40.6722
-29.6898
-117.751
-91.8928
-32.6315
47.1111
9.49863
25.92
39.6218
77.3231
76.6122
2.42719
-9.92435
-44.7297
-46.2194
19.0169
24.0331
43.1252
84.6957
-56.3421
-97.4212
-26.9518
-2.32592
-3.20159
-25.8253
-4.11011
93.1534
57.5527
9.53873
4.34267
2.60901
17.092
-4.43784
-36.3558
-93.3054
-40.1539
72.6567
48.5355
-37.8708
23.6306
7.31082
-21.5106
-37.0825
12.1216
90.6085
75.9367
-69.868
-90.8532
-54.4505
-51.0627
-53.9046
-3.89574
61.924
12.9051
-18.9112
-72.1073
-75.8933
19.4992
87.5544
178.199
195.942
88.1237
40.6025
-45.0597
-122.753
-65.3335
-22.3736
18.1183
71.2908
-39.2516
-106.31
-83.0695
-68.2632
-42.2963
1.27842
71.8177
126.729
90.0066
-67.3736
-99.5808
-120.69
-30.8669
18.9112
37.9938
31.9414
49.3284
98.7996
3.30465
-105.159
-70.0793
-18.5645
9.02591
25.4774
46.3943
61.2901
105.838
-41.6559
-118.827
-60.8928
4.70347
26.3907
72.8053
63.6358
76.2716
126.421
51.1505
-149.915
-141.806
-73.8363
-39.9067
-8.40107
-39.1312
-22.4504
64.1736
12.7252
-36.0114
-5.21948
37.5248
90.9932
55.3023
56.7247
69.2051
-30.6993
-17.7701
-55.3263
-95.1524
-49.9721
15.0857
46.7224
144.298
183.686
12.9217
-54.6554
-87.3553
-53.4239
-82.2481
-63.1334
-34.8883
58.2765
31.5679
-49.0714
-93.22
-36.0779
-4.56335
-19.7625
7.75324
105.202
22.701
11.5072
-45.4375
-123.124
-88.6666
-44.5371
57.6128
114.896
-3.28983
-1.35818
-19.8279
-56.9484
-17.0233
45.8512
129.583
144.23
30.0354
41.0486
24.1732
-42.2862
-23.8402
-38.0296
1.4763
99.4561
72.5872
-83.7187
-87.2252
-44.4558
7.13795
13.9125
11.4852
3.76434
22.301
25.0714
-35.3308
-61.1127
-4.64492
8.34213
11.0401
2.50892
-1.5954
-28.6315
11.7602
-25.599
-34.6425
2.93897
-77.7159
-94.2038
-8.14135
4.6426
49.5161
115.053
27.7548
-14.7732
-21.3833
1.44176
27.7512
9.6376
29.9533
124.088
39.205
-47.2623
-101.246
-122.866
-20.1854
65.9162
54.2399
55.3019
-3.41401
5.42663
16.1641
-29.8115
-46.772
-73.1639
-12.1576
60.0436
30.2055
45.877
19.4656
-64.4821
-20.9714
4.42654
-25.494
10.2398
4.92798
-6.18448
-9.78147
-18.6554
25.9993
-8.52106
-29.8158
-32.5123
100.863
108.296
11.7373
6.13867
40.0996
16.2132
-10.6469
-3.55078
22.3323
-60.3691
-179.532
-148.337
-69.1787
-9.76514
2.76983
-14.1074
70.7385
124.467
47.0837
-24.0465
-56.0499
5.83581
40.6568
-3.74956
-4.95127
-14.729
20.3831
-68.6935
-77.4459
48.574
127.142
120.056
118.285
131.393
170.316
77.0893
-117.886
-135.004
-50.5538
-16.255
-42.0562
-14.6728
52.0368
61.7432
-13.5318
-190.484
-225.845
-118.034
-30.9042
-1.88784
13.6674
-14.9732
20.4338
-64.5295
-74.2029
19.9022
98.8538
36.4532
39.6527
87.7862
140.959
6.16482
8.53177
-9.79262
4.23239
46.2083
10.7122
66.9314
113.922
-9.19597
-90.1214
-90.7036
-90.1437
26.0713
40.311
-24.39
-34.5548
-135.6
-126.382
-74.1977
-63.6531
31.0467
81.104
95.3844
209.178
282.442
152.793
27.8592
-97.0946
-55.2971
11.0216
-21.8381
-99.0948
-72.2788
-76.9901
-141.841
-90.5293
13.5903
65.4144
83.5322
87.1654
83.4195
46.4643
21.0368
-233.692
-250.18
-152.269
-71.9569
-9.26514
52.7567
66.181
93.441
129.259
26.4389
-6.39322
-6.70815
17.2549
106.405
97.0317
46.3606
22.4051
2.00475
-23.8014
-62.8672
-4.19277
30.9537
56.0596
64.1882
-13.5765
-39.1604
-25.7415
-70.3371
-102.082
-105.313
-67.2454
104.228
96.6285
46.2367
33.8079
-9.1808
-46.9127
-9.05079
-2.37343
-5.46061
48.8114
85.9715
-20.32
-145.919
-54.9399
-7.07114
-10.4387
-27.1747
-27.8053
68.2953
63.8893
-28.034
-30.967
-70.4619
-31.595
26.3191
20.5053
105.561
32.7556
2.0353
11.8827
-25.4177
-10.7401
51.577
87.3689
135.917
36.0622
-102.028
-109.244
-117.838
-92.4164
-91.6813
-38.0405
83.758
63.1262
82.3817
118.995
68.3824
43.0673
-9.95538
-35.6698
-14.4755
-50.6981
-71.9269
-65.7883
-83.7227
-9.75184
46.5888
-6.54155
22.7005
98.2457
68.4649
15.5541
-65.9015
-75.8379
-49.1666
-32.0328
-47.3148
32.308
93.166
14.5649
-36.9212
12.3921
55.4311
11.9734
-72.5269
-92.6897
10.4102
64.1757
-13.4143
-43.6018
-24.3704
46.4204
109.216
152.876
169.944
56.5496
-152.648
-185.238
-98.4005
6.0936
31.6263
8.43958
35.8217
-6.35225
-3.17834
38.1454
39.065
10.2058
-55.5621
-81.7581
5.55629
24.1267
-5.26403
-36.1199
-103.217
-75.0456
63.6087
117.266
74.1303
124.541
96.6748
-49.3536
-90.7078
-99.9208
-66.8129
-47.8969
-62.0537
-42.0824
56.0813
21.8268
0.237693
31.7758
50.7937
59.0834
23.3359
9.30135
32.5427
-1.14532
-11.8812
-76.7719
-70.1697
55.1834
52.9193
69.8466
110.908
25.7067
-77.289
-119.808
-127.438
-92.3686
-56.3929
3.77006
70.6029
143.692
61.7871
-60.6571
-66.3603
3.32347
34.7439
13.9777
-18.2579
-8.57044
0.780278
-34.705
-27.2651
77.1136
136.822
94.97
43.6188
42.5794
73.7702
117.906
-55.3151
-260.057
-215.454
-104.738
-41.021
-18.7506
-17.8774
23.6388
57.6869
-27.5381
2.07425
45.1567
-29.8106
-29.7377
-17.6867
41.8474
75.1578
65.5486
12.835
-67.7143
6.21881
89.3843
136.829
175.107
148.629
28.7034
-80.234
-160.683
-110.703
-19.567
-36.51
42.3298
-35.9283
-85.487
-51.7725
-57.3794
-60.5759
-23.8792
-2.65758
49.4614
43.4538
54.3263
25.5655
-21.4154
-57.7638
-37.7025
21.4579
70.9607
85.0601
111.531
-1.65154
-79.9223
-40.4607
-68.4484
-81.8856
-76.7245
6.48363
175.576
76.4008
-39.0198
-24.6181
-35.4798
-27.8939
-16.4059
16.715
51.4361
101.755
-14.565
-49.9381
-20.6351
23.0925
-9.77948
-48.2363
-41.054
48.6392
24.0033
-19.0555
-51.8867
-29.6697
-27.3993
18.8683
112.622
111.205
8.87731
4.03881
34.1089
5.99193
-1.29423
-16.3802
3.4887
24.0077
-67.627
-45.6985
5.03215
-11.626
27.4833
1.38567
-117.953
-108.898
3.90929
-7.39682
-121.686
-88.9049
-1.0088
17.8545
51.652
67.7353
113.871
123.234
7.03136
-6.72172
30.7139
30.2396
29.586
-11.4062
-17.851
8.18978
-25.8685
-0.499004
-20.4338
-21.7933
9.04454
-2.74065
40.2658
97.8833
-41.656
-24.2678
11.7428
44.6294
69.6153
27.4827
90.6293
113.621
-44.5605
-172.897
-255.727
-289.604
-163.128
-79.2132
18.4634
147.802
76.9159
49.0009
7.19169
-27.2207
71.5348
93.1367
34.4457
-27.6415
33.8476
38.8711
-60.3483
-48.2843
34.333
79.3509
82.8552
70.9124
79.8537
114.457
90.2507
-84.288
-74.807
-3.37963
25.4574
4.95701
-1.62378
-18.2889
0.136541
-52.4678
-161.003
-141.199
-67.1053
-62.1745
-14.0722
37.9036
110.161
6.91019
-49.9653
-70.2563
-98.5006
-0.371569
98.3134
130.068
133.862
-31.5873
-33.7537
-15.7456
-15.4971
-22.8524
-17.4391
4.48574
113.537
87.5281
-26.6713
-33.0497
-25.7704
19.6884
57.2867
20.645
-54.3602
2.81274
-39.3304
-77.7283
-111.383
-41.6893
3.86792
54.1996
129.451
229.348
231.27
-101.064
-227.057
-183.967
-88.3627
-46.354
1.8199
89.4594
61.6913
-108.509
-91.6894
-55.0195
17.62
58.2146
81.9243
146.186
147.353
-4.12901
-99.9568
-124.136
-97.2389
43.5946
65.8403
56.214
86.7473
78.5195
-12.8111
-44.3051
-12.4686
82.3756
27.1473
-70.1505
-97.4247
-34.8312
44.6865
44.3347
-60.9898
-13.6524
-20.208
-39.2402
-1.41608
67.7798
45.1807
2.46977
-83.6362
-109.287
-65.2269
-66.7099
-65.1118
4.40853
51.235
121.348
115.97
58.9807
29.5328
12.6858
42.6874
41.9947
3.34675
2.13428
-54.9865
-89.0403
-51.0514
-56.8698
-6.95569
28.8407
40.5229
87.31
13.4135
-71.8231
-67.2531
-55.6724
-2.94797
51.8658
87.888
102.683
-28.2141
-176.622
-97.357
-49.3956
7.8371
41.5666
52.3991
56.7677
108.38
147.308
23.9221
-89.8241
-45.6834
-23.7777
-70.1354
-47.4626
-26.3784
6.43779
37.6324
-50.3599
26.6131
65.5533
10.1023
-32.9286
20.1824
149.26
228.04
74.5574
-127.55
-203.959
-166.664
-78.4032
-12.5664
36.7626
3.99974
6.80882
-19.9237
-45.636
-51.4465
21.3496
74.8834
130.437
120.758
78.6595
-10.018
-58.0248
-131.029
-105.686
-83.336
-97.9116
35.3182
132.676
-36.808
-17.0093
64.9485
56.9793
60.2293
33.5529
-10.8147
21.6041
48.2052
20.6581
22.2161
6.06003
19.7801
-56.2791
-125.714
-80.0933
30.0846
117.255
-9.97006
-83.3083
-7.7528
16.1261
20.2715
57.3454
131.42
158.958
-71.2874
-179.08
-203.716
-177.958
-138.333
-49.0633
127.794
214.639
73.6989
23.7223
-45.9049
-73.9955
34.1001
34.8613
105.061
89.719
-76.1818
-99.4413
-98.8686
-66.0758
43.8656
95.1476
172.794
185.776
83.9188
-18.6035
-90.628
-133.134
-102.549
-100.35
-17.6304
125.853
178.064
39.0093
-90.887
-147.885
-65.1021
8.07725
17.1211
-35.1825
18.9093
58.6588
-38.9808
-13.4922
36.1596
36.4345
-31.5758
-58.8819
1.88099
105.987
144.14
-104.36
-188.501
-132.682
-62.7634
17.6595
82.8597
113.674
119.621
15.4919
-21.6164
-63.802
-30.2688
-40.3724
-85.8235
-37.6868
2.42753
2.98054
102.962
148.656
118.256
110.766
24.9906
30.1001
-11.0998
-68.3572
-57.202
-72.6794
-72.5788
-24.0405
22.0061
42.8634
157.823
93.3542
8.05255
-48.4554
-68.9782
-94.8793
-151.458
-176.368
-146.131
-22.6625
6.90044
-29.3982
20.5278
85.587
92.4589
60.392
37.5333
101.194
91.9742
-18.1444
-60.2004
26.1718
151.526
114.053
42.1131
30.4043
-71.4915
-184.966
-187.416
-142.865
-40.8854
52.5007
132.292
224.688
104.77
-160.443
-223.632
-200.341
-93.9014
19.6838
42.7833
94.6501
144.676
71.7714
-1.31307
-36.3353
44.6997
119.212
79.2509
65.2964
41.9899
70.5761
-5.93954
-134.646
-60.5158
-7.45744
5.31707
22.9578
46.4961
66.2324
68.406
-8.94066
-132.028
-115.315
-38.4412
-16.7628
-29.0691
-27.9582
-35.7542
-136.83
-201.842
-150.422
-45.2989
86.3319
99.5884
156.705
172.238
40.3351
-35.5311
2.88918
17.0844
47.6324
59.0414
14.9076
3.38552
-104.855
-46.1554
-2.82358
12.1236
65.1353
91.4968
59.3524
34.6561
-67.904
-120.632
-35.4988
-0.758144
57.0275
78.7192
36.8187
13.6502
72.7805
-12.7644
-1.53106
12.1043
68.6629
23.8175
-24.0615
-50.5252
-12.6895
6.71977
-127.124
-193.649
-131.26
-52.797
4.18706
24.5941
71.5159
114.686
102.783
-111.487
-157.893
-40.8993
20.4419
63.6813
106.434
98.8657
168.471
63.2963
-105.661
-106.493
-90.8137
-117.421
-60.1146
0.262675
76.1337
106.422
96.3149
66.5416
47.0302
60.4322
-9.32833
-9.30388
7.74895
36.4866
-68.794
-123.989
-158.533
-82.8202
10.0073
15.3323
41.1933
131.048
182.497
69.7415
-84.6624
-98.1294
-120.646
-152.5
-130.115
-22.8722
91.1893
159.555
33.6905
-0.707722
67.1996
68.6471
16.2232
12.7023
71.9978
14.4656
-30.0939
-57.3269
-67.6392
-41.8593
-40.6828
-37.6569
23.8729
49.3015
41.3624
42.3835
16.2948
7.09258
25.9197
-1.71564
27.898
-105.662
-143.539
-71.7009
0.729699
91.0725
134.705
68.3128
41.6259
14.0797
-50.8597
-73.4203
-54.3797
-25.5771
-18.0131
-15.1185
-8.02609
20.2726
95.8318
110.762
-56.9282
-78.9413
-46.8605
-67.7433
-99.1261
-70.9663
-48.2993
-17.0951
17.345
7.77082
66.7592
84.0707
45.0902
37.7825
62.4246
106.326
167.557
124.018
-55.3957
-112.871
-31.7175
42.0444
42.0778
19.4509
54.6328
-10.8629
-141.802
-189.513
-205.883
-89.3005
18.6559
81.3673
147.782
149.281
27.8959
-43.8566
-134.838
-108.55
4.03792
0.515221
53.0013
130.093
99.3046
17.3773
1.03123
-27.0295
-69.9553
-148.097
-130.086
-38.2717
110.337
85.8058
-59.5714
-91.1865
-21.3513
54.7894
73.6876
53.6082
27.2682
34.9849
-43.0667
-65.9665
-12.5498
30.5428
-3.8503
16.1105
97.0481
167.807
93.7056
36.3378
-86.6588
-75.2538
-11.3222
45.1575
118.711
113.773
4.3214
-89.7344
-114.877
-143.226
-59.0972
-1.32582
45.7764
93.7468
-64.8057
-159.42
-156.885
-97.493
-12.9036
39.2884
53.3841
88.2534
120.243
63.3017
-90.5378
-122.928
-55.8391
6.06148
36.1873
42.2712
37.4486
27.0965
64.1654
-12.8128
-52.9653
23.3771
53.9783
1.20277
-35.9729
-45.3742
-16.4823
63.2091
-25.4269
-99.438
5.10156
34.2856
71.68
96.9891
138.822
199.248
195.445
19.1595
-208.197
-299.473
-168.859
-62.2992
29.3808
109.234
42.283
-4.2581
-35.0528
-55.5758
5.13249
62.1911
76.7922
49.3036
4.86254
37.5013
35.7313
-61.0596
-105.244
-99.397
-14.1363
114.608
23.2748
-18.071
-38.9251
-75.5403
-25.0626
2.07955
-18.2104
-8.21459
89.9587
13.0523
-54.8572
-56.5112
-19.1556
0.410893
22.4739
49.5867
142.443
57.4045
-61.2128
-108.524
-46.5525
-28.7732
-1.26545
9.83962
98.2451
84.8548
-52.4492
-85.2261
-92.9416
-5.9533
28.5505
25.7942
59.4846
69.1821
86.2285
-40.5062
-123.227
-16.9745
51.8493
51.0194
66.2969
21.4069
37.0011
4.18507
-93.9755
-21.4453
64.7703
30.8264
-34.7695
-13.4391
13.0333
46.7724
64.7701
-78.0138
-134.652
-81.1705
-41.1666
-21.2805
0.501634
27.1222
65.7189
59.5616
-123.34
-149.31
-60.4863
26.3465
147.922
211.209
205.502
114.108
-102.254
-186.69
-174.082
-35.8954
46.0728
49.9897
69.8496
86.2313
5.47063
-41.1272
-92.7741
-65.4583
15.6629
27.7837
26.4292
-11.7787
-127.485
-141.11
-101.776
-21.3143
98.1412
122.785
114.547
117.559
97.557
-24.6334
-29.0721
-37.8868
-7.98909
21.3346
53.9106
41.2009
84.3908
5.37476
-113.46
-181.097
-135.488
-82.3309
-47.9507
4.93844
92.2223
198.699
121.967
-14.9298
-32.1585
21.7893
-25.7758
-82.2437
-30.2415
54.2028
140.559
168.451
-40.8847
-81.3698
-60.235
-29.2562
-18.8591
-51.3212
-19.337
48.718
-41.876
-109.647
-69.7303
8.11916
-17.7562
-3.11576
46.6434
114.667
-0.502054
-76.0869
-128.032
-123.905
-26.8727
7.9623
61.355
191.138
127.112
22.8297
-17.7594
-23.8298
45.0681
-33.4355
-62.0077
-8.48338
88.2396
195.435
63.6827
-112.533
-50.9793
-33.832
-56.1121
-66.095
-21.0388
54.7081
106.453
-72.4907
-74.8697
-22.6059
35.98
56.4145
44.7778
-9.09562
0.473267
-38.1503
-56.3646
-82.2391
-21.1219
42.0226
30.406
-10.0557
-17.263
-84.9161
-35.9744
30.7598
47.0284
79.783
52.2995
52.1464
47.7254
-52.7044
-25.0587
35.6745
36.7318
49.041
-0.966857
-67.3406
-8.56068
123.26
46.1595
-105.268
-111.427
-46.5941
-32.9311
-66.1794
-119.813
-20.9876
109.697
-6.9713
-123.251
-49.5997
32.1658
65.1144
58.223
27.3701
11.805
69.4337
87.6011
9.9508
78.9959
121.506
40.5761
28.197
21.8523
-13.9017
20.2469
-75.4184
-181.645
-122.79
-70.2371
-9.12538
43.3114
72.4528
90.173
87.7723
15.0123
-72.4722
-110.686
-107.122
-59.5949
11.4482
78.0991
31.7421
-62.6533
-58.4578
-97.681
-57.1344
-0.505287
76.4873
122.532
131.116
23.4501
-18.6776
-19.2377
2.36606
23.475
11.7228
11.3809
96.8751
41.4865
-79.2973
-64.0222
-26.3907
-0.552514
-53.5648
-82.627
-7.49794
15.6764
16.6177
54.0416
21.6023
27.8012
29.7439
0.745362
40.2793
33.6269
-14.2796
-14.7421
-39.0069
-42.2064
24.6318
14.5045
55.6339
8.64256
46.9937
-11.7022
-26.0198
-13.0317
18.9566
3.38022
-64.208
-63.7664
-37.9884
-59.5111
-30.6848
16.2536
34.6542
-22.0153
-94.6331
-82.6338
25.7291
90.9423
63.9309
105.73
46.2523
40.2482
7.84872
-0.197623
-10.3436
35.0807
30.2098
-58.7555
-98.1005
-120.726
-108.546
-24.0237
51.4076
148.35
224.576
87.7421
29.8966
-61.0356
-81.3878
-74.955
-111.763
-75.3993
-31.9686
-28.6907
-27.5412
-78.9363
-32.3187
125.176
147.339
187.855
154.052
1.37855
-69.9527
-97.6909
-102.122
-24.7084
-10.9688
2.83477
28.8278
6.36424
15.8199
-90.4955
-132.567
-34.2211
3.24108
41.1392
74.2547
33.0277
1.02605
16.4087
9.23328
60.0757
60.1572
27.5607
53.3339
78.2693
-65.3351
-114.142
-109.759
-48.9661
4.33084
69.658
93.4189
75.7884
-2.42115
-74.4487
-86.6621
-43.7358
-2.37188
1.91019
22.0402
59.4348
98.1034
9.46563
-81.7483
-88.3158
-2.33518
-5.4257
-37.3662
-2.10787
78.1417
54.5131
-108.209
-96.0889
-12.3819
51.8381
133.743
64.4907
40.4335
-93.5529
-137.264
-92.4779
-32.3898
23.0421
36.7234
59.1086
78.961
140.157
76.9682
-39.5905
-96.7171
-76.4499
-33.8812
21.955
69.062
116.599
83.7026
-21.0185
-117.892
-58.0913
-38.5245
-14.0482
-8.95682
22.9698
52.596
67.7496
-13.9748
-88.0403
-58.6038
-0.0110505
-21.9951
10.0588
51.5176
71.7135
9.77196
-22.2581
-18.3338
-31.4071
-40.0408
-22.8112
7.4826
52.6691
-48.0996
-50.733
-33.921
-8.14883
31.0769
25.1901
76.8115
86.1424
-17.2108
-8.57594
-31.9702
-54.5543
-15.9613
-9.92216
-2.96931
62.1481
145.854
95.0358
-25.8551
-117.091
-91.3593
-58.049
-43.3623
-16.3196
82.6917
86.4161
-47.6721
-58.1701
0.070084
-2.41516
-1.87082
8.0485
72.497
48.6183
-23.9893
-56.5342
-72.1286
-28.3242
-2.95831
33.9075
151.744
96.8966
16.2091
-45.7844
-113.15
-119.376
-59.0423
-53.9649
67.1303
82.703
130.047
48.4161
-33.5536
-63.8152
-27.874
-22.5494
-21.4359
3.10795
78.401
-39.0643
-80.4218
21.9495
55.8767
61.2294
18.1491
-10.5588
17.0434
-7.93344
-43.4634
-93.2285
-72.6543
67.5143
165.281
135.852
15.0629
-81.6259
-56.8719
-5.53118
-87.4836
-42.6093
-39.8578
-40.5129
-49.5566
-51.7153
20.7211
72.0575
30.5179
23.4374
-6.90621
51.2805
21.5206
-50.3708
-52.2898
13.3652
-13.2152
23.0567
-3.2526
-21.3193
9.10661
41.3201
51.1824
8.43838
-42.9945
-0.283272
6.95923
17.036
68.2273
83.4109
127.592
23.1033
-52.489
-62.9799
-88.652
-94.4247
-14.0527
1.98137
3.52169
33.6311
88.7084
-12.7711
-105.911
-57.8361
8.22968
8.59096
-3.85321
-10.9222
16.3412
60.5344
-65.9884
-15.25
41.0802
25.4356
2.65129
-16.1176
39.2794
78.9956
-34.4652
-68.66
-112.652
-37.0304
-8.60554
-2.63409
23.2195
43.4389
63.2427
97.3587
2.59496
-89.5725
-45.3208
-1.60237
20.2775
13.0555
50.4928
97.7451
-35.0657
-63.6483
-4.21302
9.70664
-7.64023
-6.28966
42.5554
149.73
95.0553
-76.234
-157.952
-119.801
-26.1662
19.5448
44.1911
61.8773
101.837
102.591
-69.8237
-174.773
-77.4704
-47.727
-19.5413
-14.3561
27.6055
82.2562
-36.6126
-123.56
-105.107
5.39149
85.4373
83.3066
117.446
189.804
89.686
-52.8119
-65.6529
-78.2299
-15.0011
10.7192
23.5871
34.1886
-24.6378
-40.1302
-55.6975
-72.333
7.45306
23.9427
37.8831
75.0542
-7.48443
-59.1822
-40.0885
-10.6479
56.5552
88.6849
48.1566
79.6727
32.3467
-117.094
-110.412
-152.788
-134.112
-97.6243
-53.0649
9.39542
127.307
154.692
112.43
110.498
128.913
50.8633
4.38604
-56.6696
-51.4419
59.0519
27.1663
-188.424
-118.713
12.5804
-9.61842
-9.29689
63.1919
127.992
14.3568
-121.305
-183.756
-165.056
-96.9427
-67.7964
14.3503
117.764
102.419
32.8557
15.5812
10.5974
34.5908
112.118
106.945
161.259
107.566
54.5437
16.1225
-49.6578
-31.3783
-17.8247
-24.6585
28.802
-25.8642
-95.9973
-97.9288
-74.0614
-40.5366
-30.1651
-25.0279
-29.2043
-8.86385
105.752
0.0122992
-45.805
-25.6051
-0.0526395
2.16905
-22.6939
13.7281
46.9432
-75.3904
-141.067
-46.9118
12.7616
40.0582
20.2592
57.6753
127.208
49.5674
-17.0284
-0.0641822
-32.9556
18.4162
31.1276
60.317
113.629
-23.719
-29.4634
-4.99745
-26.4583
-10.0618
-29.0343
4.91952
97.1616
38.7086
-66.1782
-58.6076
-63.5529
-33.6026
3.25396
12.1525
27.0688
98.6563
57.3205
-40.8068
-91.9422
-25.4572
-32.416
-42.7002
-25.6315
3.90123
54.5415
-37.8044
-183.221
-47.1542
68.2827
88.8167
86.6946
95.0973
95.3371
93.3788
-60.1004
-118.278
-66.8074
-38.1062
-35.034
-4.82984
20.3958
74.8556
-11.1135
-56.0773
-76.9208
-39.6993
10.5812
46.8117
124.96
134.506
-15.1218
-10.6387
8.05571
-38.5378
-16.8498
30.2421
112.164
71.5228
-71.7029
-77.8576
-101.19
-101.889
-30.3498
10.7643
32.2331
102.671
34.7514
-40.5007
-79.6569
-90.0163
-13.6767
3.11573
-2.78492
28.9179
152.018
57.6633
-87.8227
-42.8078
26.976
18.8552
8.19895
2.17559
61.6026
15.0529
-51.1155
-58.8515
-16.9357
9.00947
-6.75582
11.1672
91.0933
30.2092
-9.87118
-50.6677
-86.5265
-49.207
-9.16659
-10.5219
50.558
82.8679
63.9376
-32.5046
-64.0294
-18.8156
-1.92208
-0.836715
1.11221
28.822
44.7723
-50.478
-71.3095
-39.8409
-8.61396
40.2068
59.8544
52.6848
119.903
73.0551
38.229
-58.6314
-71.1601
-20.5677
-28.1828
-29.0219
-61.8242
-43.1634
70.9378
-4.03959
-52.4116
-4.50094
10.6801
46.2811
45.5089
18.5415
-17.8194
-67.8128
-109.295
-94.2196
-84.0079
-46.6427
-19.9092
36.7998
138.353
137.526
130.415
84.2685
-6.86476
-11.1914
-52.0761
-50.6756
41.1859
18.9861
68.1232
88.3749
39.9394
25.8761
27.8327
62.7176
22.694
-87.1609
-106.356
-120.458
-158.828
-131.367
-90.1175
28.6729
74.719
-30.6544
-57.6307
-25.2263
-34.1499
-5.92835
-28.7853
-10.3131
53.5731
159.723
81.3122
-64.9495
-52.2626
36.6041
52.0523
54.8592
24.2248
21.2728
49.8539
58.8646
-90.6403
-9.87429
72.2672
73.6185
18.0006
10.9882
21.0833
40.8166
-11.4618
-65.1685
-38.5029
-11.2328
-21.2036
5.12726
62.7872
56.2261
-76.5048
-82.7747
-82.2222
-117.342
-58.7798
13.2706
70.1047
62.9089
-19.5789
-17.8524
-26.0954
-27.1431
3.87026
-16.6945
16.4138
58.6095
84.9793
33.9972
-67.1622
-63.3872
-5.77414
3.33261
2.44175
-4.1976
2.16777
45.3811
-5.81148
-28.3886
3.24976
8.61513
23.8722
54.3805
108.172
147.822
70.5847
-109.688
-137.494
-89.5869
-80.1322
-52.9726
14.0975
78.9344
7.0047
-18.441
-29.9228
-81.6856
-53.4248
8.09333
101.77
120.411
-23.1773
-69.6026
-60.0267
-60.5344
49.5645
186.835
155.741
141.314
49.4685
-65.8511
-77.3695
-105.104
-93.8276
-79.4608
-11.1134
66.8757
87.8228
45.8336
-62.7876
-89.3222
-0.931285
49.7884
37.4731
-56.385
-92.9118
-9.89493
-84.2171
-137.878
-63.8001
15.4192
33.5361
9.75129
15.9992
45.9814
88.0235
14.0857
-6.70232
16.7243
53.3805
52.922
76.3663
79.3536
82.5348
-34.2424
-39.6895
-55.3011
-8.57912
35.0714
36.0197
54.6067
26.0726
-75.6161
-71.3698
-39.6325
-55.8113
-5.34324
10.4254
15.0432
80.3289
-11.423
-49.2819
-62.3855
-65.8528
5.58529
19.5212
11.2943
2.63545
4.84187
19.8266
-30.4047
-42.2618
-7.85519
-14.8902
-7.26552
-7.36629
19.3601
100.512
92.8275
-73.8146
-51.9608
-18.174
-8.59401
-0.930215
17.2717
51.0302
15.9146
-5.00328
46.9162
36.7406
-16.0895
-47.3551
-3.98543
47.9786
25.242
-51.7398
-45.3238
-47.8995
-40.3865
16.9818
41.7912
87.9161
93.9829
0.367302
-59.9136
-69.2801
-50.1607
-14.5231
-16.5297
14.624
108.202
127.147
-26.6723
-68.5769
-82.6192
-46.4069
-18.6566
-43.0149
-38.1149
23.0378
122.516
-25.7847
-85.4206
-3.99777
66.6921
55.8825
46.5381
21.2212
-30.4741
-93.7887
-169.022
-90.1042
39.1624
54.06
71.5547
77.7828
82.0865
61.35
-1.35956
10.6818
-10.819
49.567
39.3986
24.1078
44.4127
-17.8225
-63.3318
-69.136
-64.8077
-31.5101
19.9949
21.4059
83.8085
-29.2388
-105.687
-85.1886
-75.0017
-43.0947
3.32745
16.5724
20.7453
60.9839
34.1447
7.39101
3.60429
15.3688
49.7108
45.9289
21.5258
-16.8844
9.73404
-77.9979
-98.5601
-71.4273
-14.3975
21.6281
34.8157
61.1765
117.072
89.4308
22.6919
-15.4838
25.7727
29.6914
-22.836
-27.9184
-12.379
29.7881
65.4471
-49.7528
-66.8455
-1.59559
-4.06177
12.1429
15.0801
-35.2814
-65.5033
-90.5284
-102.43
-82.7356
-30.2338
6.08389
12.3039
120.547
204.103
61.9293
-32.7224
-54.4245
-51.0695
1.79931
-8.75436
-8.55144
25.8127
2.20688
-21.7803
22.6002
-9.62733
-3.40907
7.64955
33.4141
36.049
48.0931
81.5044
-36.9299
-123.88
-58.556
-9.78409
-32.9705
-41.9053
-6.11922
33.6187
-3.44499
-63.8902
-41.6149
15.187
42.4118
51.2521
88.576
105.094
25.0654
-16.4869
-28.8911
-47.8396
-18.1722
-3.58041
57.1869
73.3515
-16.9279
-26.2145
-6.1475
-31.4734
-25.6409
-22.929
20.1219
68.3275
-77.0832
-64.9512
-25.7074
-27.7951
14.8036
22.3538
36.9502
90.1063
16.2939
-54.3051
-24.86
-3.12819
12.0963
-18.0752
-22.5622
-20.9065
25.7098
29.7356
-29.3623
-64.4729
13.8147
-12.885
-43.1651
-41.6619
16.4213
78.2521
147.052
65.6059
-7.64666
23.8413
-28.1814
-60.5469
-34.0982
-22.1626
4.8014
17.1484
-53.8011
-61.0293
-35.4647
-36.6748
49.9998
92.2352
124.325
124.536
-59.1668
-154.99
-203.785
-147.924
-3.37797
37.0343
78.8905
119.391
36.4334
31.372
24.4326
8.36143
65.5159
61.9875
57.7173
29.8225
-19.7265
-127.82
-85.0927
-44.3666
51.5646
71.6689
41.862
26.8374
74.526
-2.16483
-41.0366
-51.2419
-31.6154
-45.4257
-30.5369
-7.88985
15.2514
-87.7376
-57.7331
-23.0014
-3.39416
44.1692
27.8833
38.4916
23.6189
10.5026
5.02036
-21.9966
-34.5177
10.2201
17.5591
94.8754
18.8806
-53.3592
-46.3019
-43.649
-52.6914
-2.36974
-29.0494
-20.9229
86.0117
79.1431
-45.2589
-71.5006
1.74463
33.8275
41.9868
57.0814
116.19
172.113
-19.0442
-136.519
-53.6996
-10.5377
-34.0259
-65.8843
-45.2802
-5.36017
48.2211
50.003
-86.8395
-51.9678
28.5619
12.6179
19.9033
26.566
48.519
54.3834
-27.186
-37.5627
6.1108
-3.56226
10.6315
39.7066
56.0813
12.6664
-39.4199
-31.7151
-58.7499
-61.053
-10.3454
-3.34688
60.6535
56.0537
-5.82096
8.27209
-25.1634
-33.2742
-10.7035
-23.7286
36.04
47.9701
-25.3367
-31.4183
-35.3622
-14.4898
10.2934
-8.01299
-17.0273
4.55606
54.9289
-38.263
-54.3082
-28.9023
29.3238
38.6316
26.772
14.46
77.6084
41.1083
-29.581
-34.2871
-14.9077
-23.0388
-7.15895
9.08198
52.2107
69.265
-46.9574
-92.4074
-77.3136
-5.88312
3.16386
15.8511
58.6549
124.063
121.821
27.9169
-4.72013
-46.0107
-89.3816
-72.8192
-35.6398
18.0618
13.908
-44.1336
-59.7572
-74.197
-46.2787
-9.40603
20.6792
84.27
56.1973
10.1058
-6.74064
-47.825
-46.496
23.4315
52.8899
122.53
89.4874
59.5865
53.4927
5.12958
-30.1499
-16.8587
-45.5281
-1.34793
42.7032
-86.3373
-92.5453
-89.3476
-54.0937
-16.4149
-1.36852
26.2777
62.0181
-43.2073
-78.5402
-54.6014
27.405
57.8878
50.9422
40.3888
27.0002
-21.0748
-18.8194
-35.2347
-28.4256
23.9032
44.338
79.4655
31.757
-11.219
-2.55193
-20.4376
-35.943
31.3749
37.5056
113.147
45.6675
-83.9119
-62.4344
-59.6409
-55.1434
-19.1613
-12.4712
20.1196
43.2669
-11.8528
-33.0552
-37.3828
-16.7986
17.6255
26.3547
13.1816
13.9417
109.515
19.7099
-79.4705
-39.2548
42.5636
38.8235
0.058479
-31.8477
-19.391
42.3476
78.744
-79.3494
-82.1111
-24.6951
-23.6623
-3.69591
32.5797
56.782
70.9578
-16.8749
-63.3032
-17.5219
-10.2156
11.9086
35.8797
25.8102
72.6332
2.7602
-36.0095
-54.6442
-80.3129
-13.7288
26.1307
16.9211
25.2812
-7.61588
-39.712
-40.3359
-23.6787
32.2336
64.8242
85.844
99.5515
18.5111
-84.8083
-92.9826
-99.4103
-19.4013
28.4106
-0.649467
-38.1812
7.89739
63.4652
13.6486
-35.5067
-5.69949
28.3665
30.2784
8.81578
3.29495
36.4651
-9.0047
-42.6679
5.01183
73.5926
66.2585
5.81662
34.498
98.2714
-54.5785
-123.763
-78.9119
-61.5782
-24.0003
-7.75145
18.6601
99.808
43.3346
-74.6259
-50.0127
-65.4534
-23.5906
5.06392
12.536
42.1243
54.0825
75.9814
-19.9069
-99.8383
-15.5502
31.7153
16.8481
5.52379
21.7389
61.6221
104.417
-32.3541
-111.694
-20.4203
-8.87791
-17.6143
10.6355
31.4495
59.6053
71.5761
-20.0229
-91.4337
-69.1028
-42.3445
6.43244
19.4312
34.5902
72.8057
-25.163
-59.6897
-103.146
-48.5257
41.4784
76.4617
104.677
76.801
-10.9666
-15.4969
-14.0304
-34.7085
21.1846
23.1115
20.5736
-12.7482
-62.7728
-40.3067
-20.4717
-49.9846
-12.9388
-19.4584
1.95622
65.9492
26.4434
13.3771
-12.3585
-32.5369
24.3596
44.732
42.3997
96.5319
65.6411
-75.2027
-71.7253
-66.5373
-30.6632
-20.462
-31.9024
-59.9942
-0.556227
34.3063
-70.3671
-46.8293
48.8302
99.6565
93.8324
76.0397
62.188
25.9683
-37.0209
-91.5902
-48.2808
7.20974
13.3554
16.3223
20.0849
50.0387
68.9336
-82.9536
-81.2737
-50.2989
2.67859
-13.8663
-21.6691
2.33102
15.7901
-32.5821
-22.4634
-48.0689
-44.7728
-26.0549
-1.99604
70.7546
95.773
14.1074
11.7869
-10.2397
-29.1715
50.0967
49.8044
32.8931
64.458
119.179
-26.5682
-82.6412
-67.5445
-39.8184
-28.0074
9.38512
58.8888
100.547
-18.3362
-52.9052
-50.8419
-24.9928
-33.7497
-36.9944
-30.3521
34.9326
-28.348
-25.2525
-26.0628
-58.5226
8.07097
27.8874
55.1539
94.2419
28.6395
9.87575
19.3024
-30.8066
7.69653
-4.23623
-8.9964
60.7201
-6.09326
-41.2416
-60.1265
-68.1382
-13.1546
2.91227
5.13978
49.4301
28.79
8.45229
-16.9776
-13.0245
14.442
14.103
18.0173
55.3704
94.1764
58.8348
-124.574
-123.895
-51.9543
-16.6669
-17.6313
-9.82379
10.8225
57.4525
24.1684
-82.385
12.1201
39.4232
24.8889
3.66797
25.8581
59.8441
92.4982
-27.1144
-37.9812
-26.9164
18.6197
-9.00045
3.77089
33.5659
78.1728
-0.664314
-102.923
-96.8411
-62.3274
-2.39943
13.5767
30.2095
60.6846
-25.2641
-21.4982
5.20984
-14.9219
-18.3118
-20.7746
-5.93857
92.9925
37.705
-33.8273
-30.5906
-60.7616
-30.7677
17.2781
4.85385
3.57418
66.9365
119.829
-35.2461
-92.6413
-33.2901
17.0764
34.4895
9.83093
8.43247
70.6743
36.0888
-45.6034
-38.9138
-5.35575
-19.6685
-50.9197
-17.6025
66.5368
-23.7218
-5.46847
-6.65318
-42.6602
22.3944
26.4201
75.0413
143.101
28.413
-90.0287
-74.7184
-73.6143
-56.1703
-11.3537
6.53309
53.4781
31.5086
-42.5398
-49.1
-42.5214
11.1404
1.3298
1.35658
8.81019
53.3704
91.6719
5.14109
-80.7114
-12.3055
59.1015
45.9037
25.79
20.8672
53.8808
109.517
-34.0531
-128.007
-102.887
-67.0339
-51.8794
3.66041
0.169452
-39.887
-3.42399
63.8236
-18.7895
1.76624
16.3173
37.3029
50.3777
17.8063
38.3729
37.1935
-39.1048
-72.9667
-31.7738
15.4348
40.7044
36.3906
41.7253
2.1825
-34.5945
-9.01853
-21.0297
-30.2197
12.2496
62.6415
94.1636
-14.5595
-26.9404
-47.7056
-52.8311
-36.2234
-19.7951
-23.1321
46.4616
24.3642
6.88443
-5.66937
-34.5163
-45.9888
-48.8493
-23.3155
-12.8745
69.4562
54.389
-16.7987
-40.686
38.9814
52.5121
34.619
-14.7635
-34.5321
68.1252
-18.3591
-92.1239
-41.8153
-3.10327
8.38596
-3.05424
30.6274
88.7498
111.418
-8.57817
-69.0416
-47.1646
-16.374
-2.68575
33.0453
36.0296
39.5525
76.2875
7.24668
-73.3219
-38.4477
-11.1092
6.24271
4.31181
-10.4287
17.0354
-14.2124
-106.164
-89.0462
-1.28597
3.97048
31.5173
45.0248
59.4174
59.9463
-50.4807
-49.4947
-45.807
-9.15201
-24.5646
-35.8647
-10.6978
35.6952
45.7436
-24.0079
-44.2663
7.69588
42.4587
15.9834
54.81
90.9972
109.332
2.70229
-53.1603
-42.7655
26.0495
-7.15188
-35.9856
11.1483
7.80463
-46.1786
-24.8488
-25.5455
-21.0757
2.23166
-18.0726
17.2757
67.7177
19.1866
-5.02592
-48.2203
-52.7892
5.80097
0.694759
39.2005
38.7055
8.68821
21.207
6.36595
-21.7643
10.901
-7.92589
-3.51584
20.1447
-22.6126
-70.0096
-32.0737
-34.9367
-29.3727
-9.28146
-5.94398
-12.2103
49.1486
17.4884
-59.4684
18.3842
64.5464
40.526
26.5045
23.0957
49.6243
72.7477
-6.43562
-41.0177
-67.1113
-56.8332
-56.8077
-23.9514
18.3129
35.5032
64.8502
-4.52925
-34.8219
12.0785
58.338
59.1276
26.62
2.278
23.1585
-32.7297
-52.7753
-57.9387
-26.3298
-32.4351
-18.1171
15.5766
94.9956
-18.8406
-83.4345
-49.2694
-57.1664
4.25506
40.2463
39.6361
80.5215
100.913
-42.9906
-46.1121
-58.5924
-26.2566
4.72544
-2.24979
6.80493
65.915
64.3097
-79.3297
-118.452
-17.5954
39.7072
43.7304
31.3153
91.7496
124.276
-41.1688
-89.3846
-72.9622
19.4742
32.4501
27.3237
39.5862
31.2558
-100.736
-84.7715
-75.8962
-20.236
33.0805
2.92555
42.3737
64.162
41.3043
7.78739
-29.9619
-41.7885
35.7222
31.2251
86.3772
22.7581
52.7381
-73.6487
-60.6139
-56.3548
-90.4258
-23.8988
6.87031
5.34388
49.3236
89.4183
-41.1784
-67.0867
-33.3396
39.0975
44.2801
-7.40537
-61.7689
-2.95982
1.86528
-56.439
-30.9515
40.0708
37.1179
15.077
30.631
117.344
64.6364
-32.4124
-62.8499
-62.0336
23.6817
46.046
14.6378
79.0101
65.2598
-60.6404
-68.4083
-71.6288
-35.9864
-6.64276
-22.4592
0.592656
42.3611
57.6971
-24.3522
-45.8945
-14.8113
35.5873
18.6566
-2.19789
29.5148
53.9544
-14.1664
-63.636
-67.6906
-4.80567
11.394
0.308228
7.68035
66.8009
36.9294
-69.386
-93.6322
-74.786
-1.65723
5.97689
18.5409
40.0667
74.1071
46.8558
8.7305
-0.0100538
21.9682
7.32226
-21.878
-4.08287
80.5969
41.3459
-115.849
-141.575
-63.9117
35.8152
52.3097
58.506
105.156
46.8019
-6.37493
-29.0788
-39.6692
-2.07976
12.9539
7.79169
25.3032
-19.3511
-27.3856
-36.4661
-73.9518
-49.8384
27.2513
52.9391
67.6652
12.4052
-24.0489
-24.2827
-37.738
-5.79101
16.064
34.59
66.5712
32.2815
-32.0292
-33.7079
-42.3136
-27.7364
-34.3299
-15.9498
-17.8484
-5.18936
77.6458
50.3812
-101.066
-35.8669
11.4641
11.2266
18.4754
27.7044
37.4809
63.0339
-21.3663
-47.7832
-23.7397
-0.873373
10.8159
15.8918
21.8433
45.7768
69.9755
5.69918
-116.767
-113.425
-10.9089
25.6039
45.0835
44.3169
91.7826
-14.3894
-36.5111
-34.4671
-17.8354
23.0928
46.3901
56.8756
78.8492
-42.9914
-77.9765
-89.0835
-87.7925
-29.4559
15.3003
14.6559
94.73
-0.866532
-10.6793
4.68775
-37.6283
5.42574
20.1403
9.19421
48.6989
105.806
-21.6679
-53.3066
-84.0411
-20.1773
-10.6484
7.89811
14.9016
23.4556
-16.6482
-59.5281
-57.7718
4.30852
22.6812
16.3926
24.2098
73.4122
-5.2994
-9.07812
-19.7643
-34.1868
27.648
27.6068
40.8413
65.8155
25.4583
17.3379
-2.48333
-22.3753
-18.1067
-64.8587
-54.8172
-38.9959
47.7176
-8.66887
-69.3467
-34.594
25.1007
32.1887
32.1523
20.6192
60.7598
15.563
-52.7182
-48.3883
-29.8619
-45.212
-36.0136
8.08997
118.344
212.486
193.481
14.5693
-269.552
-327.812
-189.343
-50.2067
97.5069
200.19
245.31
153.437
-30.8393
-47.7525
-22.0803
-11.2312
14.3447
7.07859
46.7742
6.98496
-150.298
-167.425
-145.107
-35.4881
90.6186
180.717
151.566
96.6325
-39.7941
-114.73
-136.607
-85.6065
-29.3979
-12.1469
50.065
121.602
2.09512
-70.5498
-92.9075
-76.2697
-2.97444
-21.2759
-14.9961
69.5715
157.237
134.961
53.707
8.8722
10.581
-19.82
-32.8558
10.7638
81.0138
90.3328
-108.014
-145.667
-50.8056
0.98193
-9.39141
-9.8109
45.4713
41.7483
-32.3828
-45.6201
-30.1623
31.4218
46.1242
34.8314
70.2798
18.9059
3.3238
-102.612
-83.3183
-57.9215
7.13795
-15.6996
8.2066
42.1147
57.375
-27.6899
-79.2447
-64.5424
6.99923
15.5992
11.1061
73.2567
170.393
37.6564
-80.1049
-46.8092
-35.4674
31.0019
18.7289
-4.54406
81.4069
124.555
18.6623
-92.7073
-130.661
-50.2437
3.071
-31.1631
-51.0635
-15.6416
41.4846
-32.8276
-88.405
-17.0059
45.7123
39.6711
36.1654
113.502
121.349
29.1949
-16.2867
-70.1912
-19.7016
9.8793
-1.75949
62.6714
85.7507
-49.8995
-64.458
-63.9639
-84.0282
-57.9039
-47.0706
36.5619
93.7459
-36.6797
-77.7657
-42.207
-34.9644
25.1741
43.187
46.456
151.184
92.8287
-3.46442
-51.2182
-82.0387
-21.4766
0.774704
3.44987
27.9834
132.987
-9.18046
-80.8509
-77.598
11.828
45.1201
23.0298
-14.3584
23.737
106.136
-28.0619
-193.358
-120.909
-51.2518
-42.8518
-28.7717
14.7007
33.4148
81.6702
58.6831
-44.916
19.4605
57.6898
49.5789
62.1801
58.7121
110.344
97.2844
-65.027
-139.764
-69.6459
-2.51214
6.94732
13.2207
24.1661
7.89886
-50.8715
-38.3726
-51.5568
-43.8602
2.92903
15.6716
16.2765
67.4079
64.3361
-42.0836
-47.8566
-25.8665
33.0055
7.98252
-10.9873
0.658418
34.3827
59.964
-28.9196
-96.7754
-52.5245
-18.4086
3.7329
-11.2117
-6.48667
57.668
57.3513
-41.7802
-16.4326
52.8099
29.7923
12.6785
27.3995
52.3393
9.40415
-25.539
-44.6351
-50.8307
-11.7462
6.95228
12.4695
46.2883
8.27746
-37.7021
-29.4834
-28.7206
-6.61683
-0.195343
-5.41133
68.5134
30.7598
-50.6483
-7.85928
-20.4951
-0.508718
25.2546
-7.35044
-0.79084
20.8276
-18.427
-12.3313
-24.4624
-14.2799
1.28534
26
19.1529
13.6249
76.1272
47.1173
-21.8263
-45.1354
-10.9739
-14.1086
-21.387
-29.1717
-43.0881
21.7625
45.0181
29.7697
-40.5844
-49.8078
-61.3839
-23.4626
13.449
18.7628
39.3499
66.9064
-5.96661
9.95368
34.9461
44.518
33.0335
-8.37757
0.650656
14.8689
-12.6157
-32.631
-54.3549
-55.0279
9.38663
4.44719
40.1115
65.9307
-7.59171
-28.334
-37.7333
-47.6805
-21.8896
-16.9954
-2.49028
43.6581
102.707
43.3401
-67.0127
-66.719
-24.083
-33.2777
-31.2112
-11.6802
37.979
83.0701
-42.3964
-61.7281
-28.2046
19.9135
26.4687
22.7471
62.881
72.8747
-5.33915
-33.6586
-43.8407
-6.6723
58.9053
37.5667
35.2703
22.6064
-73.9226
-52.3306
-24.8793
-31.7873
11.7658
4.4761
32.3258
51.3502
-17.9213
-9.26418
-8.78907
-30.8678
0.598481
7.77708
17.0368
63.6629
99.0043
-21.5401
-56.9845
-69.8642
-35.3816
-23.5159
-17.4798
-53.8993
-21.9549
52.0731
35.6218
-50.0611
1.93814
34.6159
21.1078
-19.981
1.70458
40.1555
101.696
7.39079
-81.1512
-15.1801
11.673
-12.9874
-6.62984
-3.63757
49.9876
50.2582
-62.1549
-99.1722
-79.5607
2.5069
23.9055
29.5582
63.3649
22.7249
24.6989
26.9764
-8.45263
-10.3783
-13.4691
42.5237
71.0908
-28.7517
-20.7107
-22.0297
-35.8883
-38.1812
-2.95083
30.5682
67.0884
26.0046
-89.6894
-96.8677
-66.4459
11.34
56.1366
44.7282
72.1845
124.806
6.9866
-88.0379
-86.9542
-26.1778
-23.9594
-32.0863
-38.9327
-14.7316
78.573
8.20727
-41.816
-2.09751
64.732
50.2355
15.5872
41.4006
116.063
87.7353
-103.663
-166.347
-54.0223
-0.792821
-4.94304
16.6859
18.9059
65.8549
-2.92438
-52.1696
-48.9623
-4.91243
-6.56882
0.715137
47.7942
84.5542
17.5751
-10.7632
-67.8301
-57.4499
22.1286
34.0353
104.302
122.384
-18.1016
-84.6711
-75.1961
-91.0382
-48.5684
10.8545
-10.3864
-3.88462
35.4369
-40.7684
-40.9672
-3.20369
43.6719
29.7126
-1.19051
14.9552
49.0807
69.7849
-41.9084
-47.4551
14.3288
60.6047
41.7109
-4.23632
8.96416
49.1452
-57.2959
-69.7747
-60.8035
-8.25157
5.60307
-29.2287
23.5145
103.302
-15.3321
-26.6809
-4.03424
-22.9954
31.2841
4.95847
50.6166
66.5933
-57.9382
-45.7482
-51.5056
-105.148
-33.7793
38.2969
43.2046
71.334
53.0157
-9.36792
-21.1812
-48.1904
15.5278
31.0376
31.1667
33.8298
3.42555
-44.6879
-53.8805
-45.1247
23.5475
16.6049
6.15687
12.7655
104.451
53.4896
-122.34
-107.257
-32.8875
8.81088
20.3837
14.3173
46.5922
48.9462
-14.8603
-59.7923
-4.76413
17.0933
10.4703
17.8795
34.0214
46.5039
-40.1167
-80.8318
-83.653
-42.38
41.5636
38.1829
60.6932
118.139
12.2641
-5.63221
-4.62854
-19.6805
11.1305
11.6248
61.103
128.028
20.7953
-146.142
-121.691
-99.3986
-25.3206
-31.403
-87.7081
-0.0871369
107.711
4.25568
-24.3453
-28.773
27.5502
16.155
13.3858
23.023
70.3643
73.157
-27.9247
-63.4207
-28.0042
40.378
32.2153
11.7033
54.3329
70.5251
-56.5833
-81.324
-77.3364
4.90138
20.5695
8.72947
65.7568
45.3249
-33.9452
-14.1197
1.13166
-17.8678
-8.57483
-20.9745
29.8234
70.2356
-56.933
-48.0927
-51.7142
-55.6283
16.0702
8.62871
-2.08529
82.0466
103.374
-35.1971
-120.209
-66.903
16.1226
20.573
13.9414
11.7187
59.8459
-18.689
-49.0899
-24.6779
34.1137
26.9754
13.7577
7.04352
68.6912
62.8422
-28.1007
-46.5237
-49.4217
9.9979
55.6381
25.0888
74.4296
59.7118
-76.4638
-78.7107
-64.5264
-12.0735
-24.6975
-19.2554
57.6008
23.2479
-21.1461
-27.6332
-80.0494
-77.4244
-7.42163
1.16482
57.3668
98.8971
17.1234
27.2526
4.68962
-2.33707
60.1869
22.5483
38.7022
74.5596
-51.6243
-70.9175
-72.0006
-53.0047
-23.0554
-12.8052
-4.75955
19.3357
56.539
-21.1002
-44.4165
-25.618
33.3311
22.0179
0.40677
2.71289
96.6739
80.0555
-50.6253
-47.0469
9.29752
2.42217
-21.6827
-32.7352
12.358
53.4909
34.2296
-105.94
-85.1302
-42.626
-32.8515
-7.59809
21.623
51.552
85.4197
14.6632
-5.48341
2.86876
5.98469
-20.7338
25.9497
57.126
58.3745
-30.2626
-69.2901
-77.1749
-41.9738
20.8724
8.25636
50.6259
112.644
69.4392
-32.7326
-76.0995
-72.9238
-16.363
2.92378
15.7413
14.3408
65.4531
60.4021
-72.0237
-66.5198
-30.2245
-37.498
-36.2593
-14.396
25.7064
82.6003
21.5816
-26.9095
-31.9234
12.1943
20.0567
-1.74787
46.2396
111.148
10.8959
-25.0145
-63.0093
-83.1973
-14.5176
-13.3023
37.7064
74.2661
-9.44009
-38.1039
-24.749
-46.8969
-39.4602
-36.906
42.5722
129.577
24.0975
-11.2798
-13.1787
-22.7738
40.8021
58.1193
77.2796
-31.5623
-10.4863
-64.2067
-96.137
-86.3016
-20.8224
-16.887
-18.8734
2.49329
59.3352
5.22648
-55.6295
-16.2079
61.5878
49.4228
29.2117
-5.87123
18.3667
84.5084
41.464
-19.6859
-7.29704
6.76129
11.1397
3.75114
2.77431
-15.1782
35.9081
11.0208
-94.0437
-46.0143
-8.11723
-7.06463
6.97616
0.148222
69.5998
37.9424
-67.5397
-74.6207
-78.7922
-8.28363
4.77741
18.7752
67.499
57.3971
-20.2444
-18.6257
-61.2864
-79.5902
-21.0447
28.0985
55.4973
108.737
118.639
-19.4325
-127.999
-83.3405
18.7688
19.5407
34.2916
50.6404
62.5304
121.559
-32.746
-122.451
-50.7359
-29.1275
-19.1597
10.3442
26.4383
60.9355
32.3601
-92.1683
-50.8037
31.8874
41.9437
25.5145
39.595
45.7983
15.7296
-56.3715
-48.6799
-85.9222
-38.2324
18.4269
27.5682
51.6188
24.0824
-51.7601
-51.7151
-34.1653
-8.1993
24.2956
32.8226
96.4272
95.5851
-30.5305
-70.288
-67.4527
-44.0594
32.7121
2.00769
-18.3185
17.8763
56.6392
-9.42913
-78.1765
-54.7344
33.1753
43.1638
-1.28378
-8.91728
77.91
71.3498
29.3596
-59.1306
-23.1978
20.8192
-27.4256
-29.3803
6.36226
35.4964
82.546
-40.068
-68.4768
-30.2126
-21.5611
-24.0105
4.06012
33.5257
41.3942
-21.4339
-56.1694
-57.2756
-38.6636
40.4319
101.48
190.716
83.3748
-37.8423
-47.8318
-64.4786
-110.181
-40.1054
-19.4813
25.8314
33.912
-52.1192
-49.6582
-38.5878
-17.2107
30.2944
22.6582
24.3836
61.4665
95.5968
11.3845
-48.4752
-11.2605
36.0564
4.35453
-53.5309
-61.1112
16.3686
57.3059
39.02
-70.9083
-31.1261
13.0305
2.53016
-18.4021
18.0444
77.9939
-26.2973
-75.6244
-52.7828
20.3819
17.8397
23.7067
66.4555
131.307
30.189
-97.8211
-68.4365
-51.4958
-50.849
-19.8556
-25.9053
-9.44496
24.3711
38.0926
-5.92948
-37.3471
33.3787
41.7441
27.354
50.7529
75.3731
75.7355
-36.2424
-82.691
-30.5577
25.3428
-13.8837
-31.4608
-30.8339
46.5649
76.7271
-19.3574
-68.4497
-72.0209
-34.6921
-30.9488
22.2997
20.13
30.8558
52.5209
-28.0366
-51.3494
11.8734
17.6488
29.5702
33.9855
65.4699
26.7209
-110.453
-99.5804
-63.4494
17.9728
28.8414
27.794
89.6974
64.8384
-39.5908
-12.9978
-27.2563
-39.842
2.86182
11.9364
77.1143
54.916
-57.9792
-37.6092
-52.737
-37.0567
44.9804
30.1966
52.8418
44.6666
-63.0542
-67.3398
-73.7449
-30.7325
45.2182
40.0626
52.7732
107.982
150.339
2.24038
-115.712
-92.6792
-24.7152
-22.3829
-29.4572
-24.1553
40.6597
78.6308
-45.505
-78.3923
-46.9869
-15.9692
22.7999
9.4731
24.3032
63.307
105.629
-33.7449
-119.346
-35.4573
35.4896
13.0963
18.0316
29.2912
72.3615
-37.2795
-65.9136
-71.7239
-21.3724
11.18
33.0539
38.0557
58.9739
-5.96351
5.03248
-13.319
-54.8319
12.094
49.7778
75.8017
138.256
-10.3346
-77.0665
-70.6869
-94.694
-35.4889
-22.272
-33.7723
-23.1386
33.6288
66.6969
-1.84502
-22.6651
15.9278
33.583
12.2555
-29.6832
-16.3349
64.1233
29.4078
-63.7098
-5.69113
22.0135
17.8064
-14.058
2.25447
66.703
60.6042
-103.597
-103.162
-45.3476
1.71141
14.1913
26.4682
67.8533
43.0442
-5.84443
11.5177
-21.2564
-20.7115
-9.28604
38.1003
102.003
-6.74276
-73.399
-72.1767
-90.5505
-76.7844
36.539
92.864
129.809
12.5471
-78.4823
-85.2665
-55.2195
-15.1048
38.3469
46.4609
30.0889
56.9973
59.1468
-10.4957
-45.9393
1.10046
18.4387
17.1773
-4.71785
-18.5566
44.133
9.77137
-109.175
-41.013
19.6155
45.9383
25.3471
9.69458
30.8503
105.048
23.6683
-127.864
-108.271
-26.5634
-29.2383
-7.68873
11.5848
38.67
-5.30343
-22.732
-34.2187
-48.8471
-8.67551
23.9779
57.6097
107.305
36.3975
-29.0041
-21.9072
-67.1857
-13.3334
57.542
45.8654
66.0894
11.8556
-47.038
-55.9993
-41.3234
2.36737
12.0053
-0.904122
-8.39815
54.3615
88.4631
-49.5752
-92.3534
-39.6992
16.3669
8.21241
-4.67835
14.4343
74.7545
16.086
-32.546
-18.1278
20.3451
29.7739
1.86146
-16.5509
4.44985
-25.6005
-76.1168
-62.9829
-46.0981
59.1556
53.7695
36.6971
70.5843
73.6387
-36.0654
-34.1242
-25.4813
-16.0185
1.65371
-0.0285822
9.15296
-3.6737
27.5975
15.8034
-70.591
-52.9221
-20.5176
-11.1735
-19.2726
29.463
58.0745
111.812
13.1007
-131.21
-47.6142
6.5478
17.2542
16.1922
10.5176
-6.91223
24.4936
38.8934
-30.256
-67.1631
-29.9218
-20.4624
5.21921
11.5398
-6.05843
49.78
-4.41867
-53.2663
10.3126
76.1447
75.079
51.7899
40.0269
59.1373
1.53821
-26.0833
-44.9536
-59.7961
-40.4084
10.6079
47.4865
47.6844
-68.4043
-76.9832
-43.0476
-25.0475
-12.0469
-21.8328
8.72888
51.1317
9.40499
16.2636
9.21722
-14.0489
31.0013
29.4744
4.12464
19.9487
85.6311
9.83947
-149.774
-148.254
-53.0125
-6.16715
1.57251
1.66994
50.6416
141.787
56.6576
-33.1567
-24.6486
0.0236222
15.9506
2.8933
15.4129
35.8737
93.455
-12.3231
-140.955
-82.1326
-3.56418
-8.15029
21.2624
36.235
22.4381
41.61
46.9023
-83.4365
-16.8733
42.8695
52.3139
35.3829
30.1864
56.4682
62.2957
-67.2759
-114.336
-70.0047
-37.299
-5.96153
38.0237
67.728
32.4071
-74.4745
-118.833
-99.0083
-44.997
23.1119
55.4199
52.5271
87.2335
77.1838
8.78468
-48.5187
-50.3578
-9.8473
-30.1049
-9.28102
12.3994
47.0914
50.3549
-63.3746
-59.5552
16.2789
55.1958
35.6487
13.2369
47.3487
24.3103
-29.0205
-23.8658
-13.3947
11.4601
-3.94477
7.05724
87.0684
4.80985
-70.2107
-60.0709
-57.0683
-40.5856
11.1147
40.4973
100.992
-2.80388
-52.7197
-31.3655
-33.0227
-19.4118
14.3008
5.3255
58.2483
11.4774
-10.6574
-4.29269
-20.9356
3.82752
34.9785
16.7138
5.73043
55.7046
53.6419
-69.1151
-88.4913
-45.2808
-7.65047
-12.7514
-15.6393
4.52236
86.0838
83.5267
-9.83761
-52.4221
-33.6184
-21.3838
-26.351
