50.4269
67.9142
94.0255
41.7898
-36.0671
-37.7313
1.02731
-2.7825
-4.57542
-12.319
-21.8984
9.60635
25.4864
-33.1846
-25.8053
-9.07805
-2.70582
-43.6714
-96.1167
-105.596
-55.5926
-21.66
-17.4152
2.16875
38.1978
33.7631
40.062
39.0192
43.5332
61.7745
67.1217
1.79602
-9.36965
10.5613
-0.782992
-13.491
-21.3282
5.72722
121.933
113.599
9.5804
-66.9262
-120.695
-148.515
-138.166
-32.5358
46.1316
19.9853
25.203
30.4459
29.4797
46.2806
31.8775
32.446
28.7907
-29.934
-71.6012
-72.5729
-75.1313
-14.2395
49.3498
59.8106
82.7861
120.148
90.266
-29.8162
-79.7875
-34.4706
-15.6858
-27.9119
-41.0385
-25.0452
-6.78667
-7.68503
7.37033
36.1362
50.7051
47.9429
6.46017
-1.97465
3.91679
-23.5584
-7.72857
-4.05357
-1.38338
-16.73
-32.3997
-5.44768
1.67354
-7.34444
-34.6517
-45.1942
-51.6755
-21.9304
3.36874
24.1578
35.6105
44.7894
-12.0918
-30.8652
-31.7481
3.32681
40.5785
60.3287
72.4293
78.0726
2.49063
-34.3306
-51.7719
-45.0353
-27.1783
-33.0167
-34.3794
-4.60666
6.56508
10.3651
1.64926
-9.90154
17.5192
18.47
10.6171
18.575
25.8284
36.8569
25.7351
19.928
35.7785
24.7079
7.56274
-6.97832
12.1029
21.1431
-14.8986
-16.6498
-32.9773
-44.7502
-41.0376
-37.5828
-17.113
-11.79
-51.0659
-36.3224
-32.7226
-32.3523
-11.7663
-3.30081
35.0545
31.951
24.1319
33.1416
26.4705
25.1242
50.0846
39.169
35.7344
34.716
-21.2764
-46.5576
-48.6435
-38.8639
-13.3307
12.2154
23.0081
30.4554
39.0224
12.3543
-28.8785
-19.0629
-0.245543
-1.95315
-3.35689
-4.46889
5.30142
0.410157
-13.1459
-37.2355
-3.68474
76.7371
63.4688
-14.3542
-43.6752
-86.6909
-134.584
-143.179
-51.9596
34.4403
90.0406
103.101
92.0139
65.6954
54.0615
5.16469
-23.0741
-18.4728
-12.5709
-7.71994
-2.18877
-10.4129
7.08237
25.8399
51.3627
63.803
75.9327
75.7272
33.0703
-5.43612
-16.8966
-47.2603
-72.6158
-61.6241
-52.9031
-23.9156
-11.7502
-16.4527
-9.19299
7.1927
-4.98201
-81.9395
-122.256
-105.229
-81.9806
-59.3221
-33.7205
-22.762
-11.1715
-10.1062
-18.9687
22.1092
39.3294
50.2096
47.9428
49.2293
67.3743
59.3972
32.6494
31.7603
51.3297
73.2209
88.2586
108.545
121.989
80.8077
44.2383
25.5583
-17.1831
-19.4801
-11.1174
-37.1465
-27.2419
-44.6467
-68.3715
-56.0795
-30.0871
-17.7346
-39.7058
-43.7488
35.6522
102.338
54.987
-25.1043
-90.8838
-131.769
-168.006
-104.463
1.17882
54.7983
30.058
4.34518
-8.09108
10.4704
37.0678
47.5165
33.1641
22.5598
56.5675
32.7817
-16.8434
-73.8866
-50.0564
-1.21538
31.0286
63.8219
83.7684
59.713
5.688
-77.2456
-79.7769
-45.1545
-12.9364
-4.65007
-2.97436
11.3749
-9.25093
-46.0347
-41.859
-12.7161
-12.6689
-10.569
8.47035
56.3923
36.0969
26.1334
52.0859
41.9767
1.64366
5.74727
30.1363
37.6484
30.6438
23.073
13.693
-27.5195
-54.5454
-52.0973
-55.1064
-41.5455
-31.3385
-3.32596
-4.33273
-17.1614
14.5605
36.3321
36.7923
21.9484
16.4581
44.3302
15.5558
-25.6033
-35.5027
-40.83
-33.4651
-18.6378
-2.03954
46.5673
64.9048
48.3423
14.8845
3.95193
13.5072
-22.8362
-42.4303
6.14557
40.6138
-31.5405
-71.1588
-70.5457
-49.9449
-38.9189
-29.6705
7.53071
49.6074
29.1285
17.9304
15.9983
12.133
13.7129
10.5971
0.432625
15.6339
53.1883
24.4856
-9.98911
-31.358
-12.2011
-8.78829
12.5713
40.3494
47.4532
74.1885
34.9142
1.12385
8.07966
3.16427
-21.7518
-27.3596
61.1021
96.566
-15.8352
-107.025
-163.75
-185.362
-177.457
-73.7875
61.7159
102.601
35.6111
8.61196
14.8938
0.495021
3.54414
4.23073
24.5973
19.9637
3.00185
14.8864
-15.1861
-23.7281
31.0511
66.4235
107.379
139.618
94.2713
31.0837
-22.4402
-47.3634
-40.0266
-32.7224
-3.745
-4.71113
-46.0374
-65.6497
-77.2657
-49.5923
4.50925
14.8078
3.34114
0.124436
-15.3398
-52.5192
-52.3661
-20.3434
1.74868
-1.21392
1.48832
38.9001
69.9013
25.6332
11.4304
-1.48985
14.2399
6.34591
-4.55672
-22.4139
-21.5137
14.0719
-4.64114
-41.8965
-0.592498
61.9092
96.5709
104.824
91.6173
57.5724
3.02312
-83.1366
-93.7866
-39.8021
-24.3212
-21.4596
1.49152
42.8132
41.0931
-18.1614
-39.2885
-63.6515
-87.3437
-73.2978
-37.6514
-9.09319
-4.03486
-9.09185
9.8166
14.1406
22.3514
47.2382
34.8381
22.6652
16.1781
22.7694
-1.67575
-19.0815
1.30986
49.6639
49.5229
25.6633
32.1567
43.4289
-20.791
-31.5662
-32.8337
-11.9923
-3.01485
-16.4081
-14.385
1.10925
-41.5516
0.0405586
83.629
68.37
17.8187
-72.0412
-135.359
-168.569
-121.077
16.5997
56.2892
19.7827
33.6004
48.9061
11.7371
-13.1059
15.3027
35.7317
30.5948
19.209
24.7004
15.6407
-14.8474
-5.27275
39.4316
73.3892
134.965
150.274
75.305
-40.3408
-89.9647
-99.3193
-72.4807
-49.7202
-31.6274
-17.6058
-16.0741
-17.9732
-3.97459
7.47993
27.0259
18.6302
-21.9103
-66.458
-92.3711
-38.1797
-26.7479
-18.9031
14.8775
52.3453
89.5538
60.7225
25.1817
-9.51966
53.2466
35.2744
-25.0466
-72.8678
-111.216
-165.18
-88.388
16.8079
41.2902
55.2388
74.0828
66.7965
86.2075
64.4049
33.1841
5.55803
-2.48581
56.0401
63.2624
39.3427
36.5573
62.2413
18.861
-68.9359
-86.5446
-77.0011
-65.0017
-97.3852
-70.0142
53.8986
284.339
289.557
30.9043
39.9462
78.1631
-146.798
-365.46
-292.466
-110.931
-141.928
-311.163
-374.445
-391.424
-286.855
56.8802
324.023
325.76
243.577
178.852
178.787
280.374
490.998
488.467
122.167
-222.042
-68.8693
6.89814
-173.962
-189.905
124.97
158.245
109.707
204.334
176.375
-71.3745
-73.6489
-72.3701
-249.185
-468.998
-428.26
-391.105
-420.566
-263.385
-6.22305
123.336
121.193
264.668
449.597
411.36
214.073
178.753
171.15
144.949
201.957
153.569
-11.9073
-71.5944
-60.4286
15.7756
-58.046
-202.771
-309.383
-197.389
-26.4975
80.477
179.575
103.73
-122.589
-303.587
-452.987
-489.089
-390.226
-84.1727
181.779
180.573
80.7009
241.232
316.16
207.117
13.6477
-165.799
-212.844
-421.301
-437.694
-270.237
-81.6281
165.582
338.826
397.902
257.357
171.785
211.456
143.041
42.108
165.77
268.372
283.021
296.945
301.844
232.949
112.579
-119.435
-168.638
-145.56
-95.8703
-92.0019
-151.513
-105.283
-19.1271
70.5206
37.2451
-82.4644
-188.49
-166.802
-118.597
-157.3
-292.1
-214.162
-102.341
-68.0506
-57.5314
0.749792
38.3305
68.5779
39.3969
-114.155
-100.555
66.9461
55.8965
-77.5857
-146.085
-122.163
-42.4888
13.8169
67.7583
134.653
82.1325
-5.12326
-77.6184
-65.9955
73.7865
196.943
389.015
361.397
195.408
88.9671
-56.0168
-132.334
-144.118
-2.59741
137.28
122.329
170.505
262.457
333.465
4.84309
-470.183
-704.113
-611.183
-363.511
-194.109
199.347
388.718
307.527
178.054
4.57049
-86.7937
-67.9368
61.301
159.953
244.581
340.148
183.377
-148.836
-354.832
-251.44
-30.0011
106.786
241.998
243.791
146.943
-135.133
-341.663
-400.762
-256.94
-11.9783
157.663
88.1236
-80.5959
-110.535
-16.6311
33.2584
13.0147
-19.956
-97.3321
-40.8813
71.4522
149.854
106.623
51.3186
13.9858
12.1337
58.4282
108.879
112.256
74.8866
12.7901
-154.332
-235.227
-143.196
-122.626
-107.352
46.5002
81.1574
-5.33043
4.64438
30.2432
52.345
109.644
128.048
71.9123
-78.1618
-111.666
8.16028
74.7874
84.9115
66.7223
62.0991
90.7043
45.7337
63.4342
32.0594
-126.776
-140.063
-113.371
-100.08
-14.9751
97.158
127.966
68.1035
35.0367
10.0231
-52.3771
-72.6318
-115.323
-148.989
-124.348
-10.7873
59.4821
47.1313
48.8016
68.3294
8.21371
-29.3612
33.1096
40.4418
5.35652
-28.0691
-42.5583
13.934
11.9809
3.78005
103.677
177.71
171.102
132.421
76.6626
-257.229
-394.304
-380.453
-477.616
-293.123
12.9955
38.5224
-41.5302
-27.3768
127.133
367.447
495.482
346.061
201.539
101.249
-70.2427
-131.751
-49.0719
38.1816
49.1207
164.715
208.101
234.543
247.266
72.7751
-85.2391
-113
-84.7709
-35.796
-130.76
-279.207
-356.629
-325.454
-271.244
-219.218
-134.062
-43.0847
-16.902
-31.6642
-5.90569
74.3134
149.692
179.577
211.272
123.203
-35.7378
-56.6945
39.8381
63.0668
73.197
46.5614
-22.7275
-0.691055
26.9778
66.2826
71.99
25.828
26.162
59.6072
65.8858
60.354
-34.1317
-132.773
-116
-23.4063
-30.4908
-57.55
-54.902
66.5747
112.058
3.59488
-116.473
-64.3412
56.4286
83.4267
89.6663
61.3245
-15.7599
-96.7116
-104.212
-9.2993
61.3427
83.8953
54.3091
-33.122
-47.2655
97.0845
80.65
-50.7558
-25.7272
-30.2922
-58.2519
-104.552
-127.515
-43.5113
168.761
152.914
-18.3748
-135.349
-216.669
-277.063
-112.432
89.9519
121.434
68.2715
33.6369
6.14649
16.3338
64.9064
24.6435
10.1886
35.1317
64.1847
57.8275
58.9259
-30.1528
-55.8055
29.0114
122.244
161.138
186.11
55.7368
-11.3679
172.496
121.57
-16.9714
-91.1778
-145.339
-182.788
-163.166
-180.788
-234.621
-228.899
-162.306
-80.6731
-2.174
50.0898
97.8841
118.029
99.0819
49.8833
29.1924
45.0862
-16.2077
22.2042
132.709
162.475
185.907
121.275
40.9563
1.25167
4.71603
-4.40562
-20.7521
-5.89685
-53.0432
-130.957
-89.7362
-48.7734
-10.3116
41.1499
22.4731
-55.0789
-155.955
-156.206
-69.3777
-12.6506
-67.4357
-15.1776
71.0824
163.503
178.694
77.2587
-78.079
-99.7149
-101.946
-37.9913
0.295093
114.653
129.571
78.7639
-89.9293
-304.431
-295.751
-125.736
55.8352
158.501
241.216
188.682
131.322
97.8871
53.1549
88.1204
120.056
44.7968
69.6259
63.1806
7.72468
-113.168
-186.137
-166.647
8.16332
183.653
158.249
43.1827
-96.4265
-225.127
-210.358
-89.6716
-57.2516
-70.5098
8.03011
78.2093
59.4211
-67.6544
-179.024
-135.861
-86.7362
-107.584
-25.5899
143.101
259.251
209.608
111.549
-105.574
-263.223
-100.516
58.9297
81.0257
67.8042
58.4972
79.0105
71.0508
35.1774
66.8101
96.7788
128.613
89.9592
-27.5343
-91.3002
-78.7888
-106.365
-56.1072
10.5397
147.37
223.003
87.051
-46.6833
-5.58164
9.46733
-73.3609
-156.255
-238.629
-246.715
-105.734
9.80112
-22.9041
-91.4763
-6.44529
134.111
96.1953
39.1674
7.11331
-5.41043
0.0983085
43.4833
38.0859
15.0174
33.8173
-38.4192
-65.9273
-64.5392
26.8291
166.498
291.439
205.264
102.081
-33.9394
-180.794
-228.061
-279.404
-228.389
-51.7313
67.4312
69.4441
90.8954
100.497
90.2785
55.406
5.07718
30.0102
29.7475
-46.3093
-111.348
-122.388
-5.13772
23.7643
13.1536
88.6956
122.302
105.282
114.283
67.9736
9.88029
-44.5178
-4.74906
38.6815
51.8439
30.2516
-112.395
-257.39
-30.553
156.984
45.5263
-131.992
-318.448
-407.491
-280.532
-46.9762
131.003
234.014
176.29
67.9841
70.4955
84.2536
42.106
28.868
20.1039
-30.0498
-7.10676
44.4567
-32.0494
-62.9032
72.2546
179.962
235.844
238.618
145.757
-14.5646
-59.7613
-108.592
-202.725
-52.0383
74.3618
-43.7689
-184.866
-168.57
-68.4463
-28.4767
-2.26525
-18.6277
-90.6249
-57.9692
69.8277
95.758
109.488
163.962
44.085
-16.6077
-51.1515
-135.933
-69.8194
-82.2871
-93.2981
91.6309
250.195
145.759
-12.5183
-110.1
-177.395
-57.2522
32.0546
-25.7845
-109.875
-9.23971
94.7921
45.3464
70.412
20.601
-44.9922
45.8771
129.545
86.9965
23.5527
-47.61
-188.44
-165.27
-32.9683
39.1426
99.881
102.789
18.0917
19.0401
86.5742
34.2895
-37.6687
-96.6966
-37.356
49.169
80.9711
86.6665
57.4907
-5.9023
-70.2141
-116.755
-106.04
-22.7923
41.621
94.7668
110.917
44.0961
-17.9281
-63.0508
-85.532
-90.9239
-60.251
-29.8866
-34.0316
11.2363
-25.3
-5.18009
35.1729
-27.2007
-48.4383
13.4042
69.5049
49.2003
3.46173
-70.148
-107.21
-30.9101
-1.8802
-38.5886
55.1496
136.505
85.9941
33.532
38.3748
35.084
41.8113
-1.06211
14.6839
16.8845
12.9984
-0.578244
43.8258
135.78
83.37
16.421
-29.433
-185.647
-158.499
1.57373
8.95119
-35.3513
43.1861
151.554
40.5988
-100.496
-195.741
-231.686
-151.322
-16.0145
29.3046
51.8097
31.3819
-62.0672
-45.6884
-22.6927
42.8878
165.222
274.006
257.821
93.6644
17.5567
-148.038
-324.109
-155.561
53.53
112.814
102.851
34.3686
-27.4009
-56.0941
-89.8563
-44.9207
-3.85162
98.2545
145.647
142.621
68.2487
-69.1838
-72.1906
-19.3353
-6.85911
18.6878
33.9074
5.787
-82.227
-59.5522
40.6507
17.586
-25.1248
-23.4319
5.35864
9.42248
5.56592
-27.1299
-33.5782
-45.6134
-110.055
-173.379
-164.331
-46.5762
73.065
71.8057
-33.8487
35.6826
171.673
142.142
-12.2522
-54.5604
54.3979
149.051
66.2263
-64.7841
-143.169
-153.422
-26.5567
67.2189
116.29
96.5493
19.2736
-27.0796
19.6781
52.6661
124.518
63.9907
-40.6792
-39.8031
36.3503
80.6203
23.2985
-76.396
-66.192
-62.2719
-9.39669
10.6318
-57.9775
-57.6742
34.5494
-11.6488
-74.4336
-102.927
-141.03
-57.0502
139.35
145.76
21.6822
-55.9049
-148.555
-189.391
-93.5052
-13.6631
26.3698
86.4192
131.903
122.348
78.3764
43.949
14.5122
30.9974
65.3588
75.4464
106.415
15.3414
-38.8593
-24.106
-90.7984
-103.207
26.5356
59.6344
4.53401
1.81048
34.0232
44.6325
-30.4779
-94.9325
-31.6613
58.1287
20.598
-14.7165
-29.9791
-29.9597
-102.009
-93.4493
-39.1459
-8.86213
41.1965
46.3119
-10.9544
17.2404
25.3758
-71.0902
-59.0658
-51.6965
0.808
51.6156
54.5473
100.163
91.4021
-8.39071
-1.63592
-26.367
-43.3411
-1.47708
5.95406
60.9604
91.4307
24.5189
37.1008
-45.4651
-136.883
-46.1688
21.6952
20.9167
24.101
62.9669
45.8645
-49.4627
-58.2856
15.131
27.5006
78.1319
63.8025
-10.6424
-114.716
-244.928
-189.693
-23.4432
41.7178
113.643
91.7273
16.2699
84.5314
130.069
50.4391
-28.7827
-56.028
-46.5392
-20.192
5.25091
-19.7111
-74.0236
-82.5831
26.288
65.9531
54.1174
36.0945
63.7737
84.4883
168.652
138.848
-4.66776
-170.14
-210.471
-163.365
-95.6541
-20.1578
21.6991
22.9112
22.9946
44.2335
19.9655
36.9881
-7.98865
-44.7907
-36.6982
-16.0145
31.5203
47.2102
-33.8786
-37.6463
38.4157
29.5435
26.5194
69.0113
78.1614
47.5353
-41.5424
-50.1973
-18.2903
-73.9012
-86.5467
-29.0628
-22.0701
46.6022
99.451
72.362
-23.9466
-36.8278
-27.3263
-4.10908
65.1635
72.0363
22.434
14.0179
-9.89169
-14.0486
7.47111
2.13391
-30.6461
-51.7057
27.2965
41.1267
0.480992
-59.2573
-120.156
-100.299
-0.977707
-19.8061
-57.0846
5.64709
16.8296
10.1241
33.6046
28.217
-19.8203
14.7867
78.5415
46.1292
27.3226
36.5294
3.95078
-18.5024
15.505
30.9564
71.1498
82.1943
44.616
2.65855
-33.2074
-54.4714
-65.9926
-51.1006
-62.475
-86.0597
23.1404
26.7754
2.94446
-16.4578
-20.9249
-28.8411
-18.6907
1.41935
62.8318
16.8189
-8.13785
-6.79295
1.45166
130.453
158.389
62.0178
-59.4361
-160.999
-108.67
42.7953
46.2618
-50.2534
-135.014
-102.634
-74.9979
-22.9568
29.3406
31.1141
-30.297
-15.1911
62.4639
86.7567
35.0889
26.5535
32.4825
14.8567
43.0098
107.713
123.223
56.606
-16.1515
16.8726
20.8255
35.8347
46.1478
12.0868
-50.5205
-77.4042
-13.1199
111.736
18.953
-54.9629
-135.116
-296.669
-301.531
-134.766
-38.4476
25.864
82.0242
87.2074
58.494
41.4302
24.0977
41.9497
98.2335
114.653
80.59
63.3908
11.4445
-82.5159
-86.0583
-40.7204
17.5088
37.2749
28.2749
91.8587
199.742
132.668
-19.3671
-100.917
-115.917
-137.945
-136.947
-83.7015
-45.6672
16.1738
34.4061
-5.4887
-5.5347
-5.02933
22.0528
40.5346
59.1987
83.6966
64.1402
-22.4183
-88.3873
-106.386
-55.3232
-4.24608
65.7571
122.238
77.8511
-11.9413
-37.2667
-9.64537
-15.3925
6.88599
1.4496
-23.7577
-8.94378
12.866
-22.5474
-17.7421
76.502
83.306
32.3539
20.0737
-40.2206
-94.1658
-95.7068
-89.2499
-30.6109
11.2166
15.5218
-25.0522
6.09764
-12.4044
-19.3329
27.8485
45.9265
34.2277
52.2008
55.7662
54.7828
82.1821
50.1098
-15.1384
-70.5828
-116.317
-119.139
-39.1858
52.0088
84.9665
42.9445
-58.0934
-25.8842
75.2554
71.6324
9.2991
-49.9433
-35.286
111.92
91.4246
-55.7759
-160.143
-234.643
-152.006
37.918
131.239
140.359
93.426
14.6892
-0.381277
-2.31721
23.3761
61.5238
37.2508
-7.0289
-8.0079
1.90771
-47.7672
-93.673
-41.2387
-7.94575
-29.4232
-0.0645099
44.9752
48.2786
-4.55948
-51.4153
-94.1567
-21.2999
52.3187
49.5999
47.2741
18.8727
-12.1888
-11.1371
-19.6951
-36.3878
-11.4227
-16.4815
-14.9111
12.3688
-1.30729
35.392
1.06607
25.3006
122.7
104.117
24.0749
-70.0802
-189.209
-103.738
26.0842
2.42804
-14.9504
22.1132
62.7684
43.2076
16.2987
-17.9961
-30.3944
-2.68226
32.884
43.4254
81.9678
11.9639
-50.1341
-48.8241
12.9199
28.4202
33.0864
22.5635
8.85542
-37.2763
-94.4988
-92.7324
-46.9678
-0.501719
10.0951
1.83978
59.1246
80.8947
63.9294
23.3297
-40.4668
-10.9427
-5.17769
-18.8644
-2.90474
4.83646
-13.86
-34.1997
-51.6299
-55.7917
-26.6945
14.8217
16.2303
29.9546
28.7904
47.7863
20.6943
-61.6284
-77.8644
-8.39997
44.495
24.7804
19.0377
51.4095
19.3968
-1.37355
-23.1192
3.38607
69.2786
103.579
90.8991
63.1884
-58.3271
-98.0193
-154.32
-179.379
-93.2536
14.1387
53.0005
76.1009
54.0735
-5.95333
-10.6687
-13.2133
9.67501
39.0408
68.9419
24.1284
-33.5143
-18.2592
-0.991956
-20.1871
1.3845
17.7214
71.8251
64.6119
-3.13203
-1.66619
-30.1761
-96.2393
-24.0666
50.8661
29.4216
-33.0641
-28.0963
35.5333
46.5426
1.80833
-78.0834
-116.953
-42.6632
56.1331
94.391
72.0289
37.8568
-0.747942
-13.8142
-29.4146
-18.6142
-16.1249
-60.0354
-77.7183
-38.6268
10.0371
-21.2536
-51.3005
-25.8588
29.539
97.1711
68.4137
11.9057
-13.8505
-5.92618
-31.4769
-12.1001
35.3023
34.4776
-0.267612
-2.31119
25.7556
56.3919
29.2139
0.0974384
7.40262
22.8788
-5.57391
-8.44437
5.90116
-6.0371
1.98335
-31.1569
-26.5715
-7.6025
-6.35137
-12.0614
12.2944
-24.1594
-36.5919
-22.9763
-11.4544
6.2163
7.2493
-16.7638
5.43705
48.0002
54.525
-2.97974
-35.8133
-47.4136
-38.8524
3.33304
35.8612
1.70373
1.22037
46.0426
18.2633
-12.1765
3.32731
-26.6727
-24.4615
14.7654
15.6538
30.0067
110.897
74.1306
-10.7828
-51.4094
-133.104
-155.957
-21.8484
26.5195
-15.5882
-36.7027
18.2829
51.8539
45.859
11.9694
-9.82033
63.6319
104.755
84.1472
89.0744
-34.5983
-164.898
-166.052
-145.079
-40.0755
114.668
165.411
70.6001
-43.0394
-73.5313
-11.8526
47.0124
45.2349
13.439
32.0903
46.1196
15.7588
-17.9567
-70.4654
-45.9592
44.1007
32.9702
-1.89261
12.4386
7.02788
-28.4523
-23.6053
-36.1497
12.5771
41.7327
3.38911
-72.648
-50.9022
-24.606
-17.1376
-29.0354
-19.3312
-47.8584
-57.9247
-56.9045
-51.1936
-15.1649
30.1457
90.9897
108.003
111.982
104.576
66.3848
45.4558
-10.4159
-23.1696
-11.1977
-46.3367
-36.849
-1.25819
26.5805
43.9681
20.2344
19.3416
26.1061
48.6236
28.2431
1.40498
-47.8131
-102.065
-122.071
-113.821
-90.4364
-54.3951
-0.237563
122.233
129.729
20.0215
-79.3076
-114.163
-46.5839
28.2706
13.3557
-35.871
-24.4133
6.67614
39.9988
61.1012
68.2829
93.0205
73.3072
49.9464
44.7693
9.96678
15.401
-5.18852
-6.79205
-31.6279
8.93042
59.2383
31.4268
-56.0281
-46.7955
-24.9614
-40.118
-59.9557
-59.2139
-68.0464
-29.9247
-15.7388
-44.3264
-9.39092
60.0556
22.8032
-3.28087
-58.5416
-91.6237
11.34
92.3011
51.6597
20.4374
-9.97377
-45.1074
-16.241
-37.7523
-2.87751
38.9204
59.6367
51.5655
37.5515
68.3495
34.2722
-8.48799
37.9253
109.379
141.371
71.9146
-21.5227
-134.061
-214.585
-180.574
-45.7393
8.53302
7.35206
41.1378
45.9957
28.492
-13.6164
-14.6445
5.34133
15.9836
17.1577
7.73185
11.3577
-27.2541
-77.4409
-48.2595
17.6688
67.892
94.9829
57.6673
0.546806
12.9462
-1.15006
-34.5089
-44.0921
-41.0101
-14.6991
-10.3891
6.00974
18.7565
15.8619
-31.6742
-26.5108
-74.4876
-69.2786
-9.57514
-15.107
26.293
89.6883
27.6177
-30.9559
-30.1149
13.0081
61.126
55.2338
28.0409
51.01
58.9727
9.40235
-23.242
-43.2386
16.9226
78.2843
54.2245
19.1352
-55.6434
-155.855
-112.039
-4.41606
23.8568
-5.10364
26.8405
58.7452
45.6773
-10.7797
-25.5862
34.9459
49.2425
-22.4774
-26.0404
-58.1148
-105.067
-109.93
-63.4637
-51.2193
-0.744646
84.4112
106.765
73.7232
54.3336
51.3825
63.2193
38.7151
18.1127
25.6503
-19.0529
-105.44
-103.967
-44.9053
-33.2795
-21.8241
15.9658
-1.33811
-15.7776
-3.51404
26.6843
140.199
168.662
86.6688
-2.4787
-74.5544
-122.886
-144.089
-70.4803
8.32952
52.1333
31.1262
4.80495
45.1363
35.5211
10.9064
-1.85651
-17.3683
-23.0121
-19.9348
-9.46691
-39.5464
-68.2561
-34.8744
59.295
179.364
155.806
102.029
-15.1576
-128.85
-176.632
-154.936
-191.53
-157.652
-17.9271
90.8031
94.8406
34.9336
32.4836
96.929
133.453
95.0362
41.8761
34.9543
-24.3052
-50.0336
-8.18945
11.5602
1.3552
19.1397
64.0161
106.339
108.999
48.9044
-22.8791
-53.9125
-47.5154
-24.6286
-37.1284
-56.8022
-33.2245
-41.0018
-101.607
-163.421
-105.747
21.3803
23.392
-42.6062
-42.3378
-31.7577
-74.9325
-46.6958
58.9255
64.7058
6.63102
22.5118
40.1433
34.0381
71.1783
63.3386
27.2942
35.836
48.8208
78.2727
80.2788
-19.2184
-29.7336
6.78425
24.0373
43.4205
74.7752
64.0298
20.3348
-35.5597
-25.7879
-58.6028
-58.6518
-21.8889
-35.5449
-55.6261
-100.384
-75.5498
-14.3284
10.2508
17.7987
-23.3028
17.829
58.754
-11.2287
-63.1884
-30.7642
-43.4617
-96.3657
-11.0097
53.5141
74.5005
34.5066
-25.7604
15.5921
141.519
122.893
4.12279
-97.9651
-135.992
-58.4536
3.53713
21.1362
30.8549
30.4823
67.3118
80.3764
71.2458
90.5394
83.4441
55.1278
-0.860479
-73.5665
-82.2257
-103.504
-100.103
-69.1284
-53.8513
1.06014
72.371
31.1894
6.42216
-8.3566
-27.7293
-4.64419
35.4884
26.1931
16.9878
7.43826
-34.4724
-78.6909
-59.7934
6.16103
70.6977
78.244
10.0154
9.80218
18.8589
-42.5719
-66.7486
-62.4171
-33.1287
-9.96759
-8.51181
-10.0107
-13.1946
18.0095
44.7952
34.0336
3.66023
-17.3961
19.0781
62.0739
45.0257
19.7483
5.94044
20.9826
17.3614
20.949
19.9081
19.7001
-7.11041
-45.0604
-24.8959
-6.34984
-17.8022
-22.2855
-25.7754
-4.52969
25.3279
35.9466
0.930932
-10.8893
-15.4516
-32.7571
-48.2274
-19.4874
27.2407
85.2102
89.1441
-14.1112
-94.0101
-125.647
-94.3707
1.29941
27.774
1.48377
-5.95103
26.7167
14.5318
27.904
40.9721
26.6234
20.054
35.2616
30.2655
16.7732
4.84477
-16.7833
-31.1511
15.9411
52.658
45.3885
22.7233
-9.03512
-28.5433
-46.6824
-53.4799
-42.9337
18.7935
10.1367
38.2928
-7.46684
-44.8396
-57.5987
-56.7701
-45.6318
8.00463
18.8184
-5.34348
-12.775
20.1558
41.0698
36.8908
15.2102
16.6249
50.3487
59.7837
42.1398
10.4478
-61.3822
-86.3898
-38.7934
-31.2349
-39.9093
-27.4434
12.4826
41.2135
55.5104
58.0699
66.8792
68.1079
66.0303
-2.41436
-33.2935
-47.6728
-160.023
-134.996
3.06033
6.91685
-44.5041
-62.8895
29.8448
135.891
132.898
85.8227
30.4201
-0.407591
0.0444847
-2.47566
-15.8757
-65.0116
-55.2154
40.9118
60.7267
66.2523
59.6171
-32.0394
-158.055
-160.678
7.59274
66.7353
-27.7666
-71.4445
-56.6847
-14.0374
22.6405
-13.9797
-60.1276
-81.3151
-24.1302
65.6854
70.0124
54.2977
47.9748
26.0036
39.7737
46.0229
53.8853
48.0282
22.3967
6.22371
8.69512
2.07427
36.2422
97.4501
28.2321
-70.775
-37.6724
-2.61166
-24.8927
-60.1934
-58.2873
-36.2282
-38.6226
-2.18337
56.1623
27.7986
-49.4143
-53.5143
-22.9465
33.0299
54.7721
4.55393
-61.8845
-129.504
-112.54
-74.3875
-60.4708
21.2048
130.64
104.699
83.428
89.7009
56.9288
7.13284
-1.94879
4.40381
-40.6278
17.9408
92.6298
155.35
112.507
-32.4753
-182.361
-229.213
-124.369
-16.3625
85.4598
74.8797
8.3244
18.8175
-18.145
-81.7615
-101.27
-41.9458
51.0445
60.6966
84.0265
75.9947
-8.50002
-109.904
-101.777
36.7753
164.201
145.899
54.1736
6.96905
-50.2206
-39.9735
-12.1984
9.15769
12.4651
-10.5374
0.149621
-23.8334
-57.8633
-38.1022
-4.75575
2.04927
-15.8385
-57.0965
-71.6732
-53.0811
-12.2777
24.5857
29.4447
41.8989
0.403787
-14.7564
8.33547
-32.7051
-44.9499
-45.7549
3.22278
51.3395
35.161
21.0988
45.1668
-3.47948
-8.40072
-12.3147
4.45662
25.8216
56.9108
83.1062
71.8842
39.1013
49.9468
7.02882
-20.1896
-14.805
7.02656
-14.0001
-95.697
-159.689
-71.1088
56.9007
72.8592
40.3644
31.9904
8.07059
-37.8628
-7.97617
20.7249
32.7145
22.6846
22.833
-12.9771
-77.7968
-135.223
-112.005
-85.3774
-43.4802
-4.97865
43.7356
58.4505
15.8351
20.1968
111.009
127.949
49.5621
6.10456
-22.0385
-30.7174
-25.6666
-42.6059
-34.4017
18.8866
86.4355
53.222
41.8718
2.95369
-15.2399
7.65974
15.5022
-7.80842
-25.1286
-54.3918
-99.1698
-98.4298
-24.1771
69.2562
98.0157
41.1192
-40.1734
-40.8589
-18.5267
-53.1192
-70.7187
-17.3064
30.4507
90.8375
155.109
143.162
84.0392
-37.0482
-203.814
-263.188
-121.113
-51.9374
31.8341
55.4865
21.038
18.649
63.064
93.0134
67.5267
17.6854
4.45803
38.4568
27.1705
4.98328
-19.8548
-10.4739
-7.4028
9.26615
104.812
124.293
44.2407
10.9849
-37.4533
-58.5629
-55.7785
-78.5897
-79.7592
-41.4023
-22.1261
11.933
27.4353
-26.1404
-57.651
-40.9973
-49.2764
-33.9996
7.77522
8.27152
22.9041
27.159
8.59603
5.40495
23.2872
9.87864
5.03098
9.47098
-30.7962
-39.1982
17.7982
50.1954
44.2421
34.8575
63.5052
31.8986
35.3258
9.28621
-53.6316
-37.1834
-39.6728
-41.2507
-5.8792
15.1894
-31.0062
-46.142
-7.39052
26.5468
51.7026
71.4768
37.6894
25.5379
-9.23364
-15.2265
-23.6445
-19.9421
-9.91277
-3.60121
6.36481
11.5222
-9.0068
10.191
30.8283
21.4325
5.45029
-21.3685
-48.7025
-11.4767
-20.8944
-11.669
54.3254
57.9655
29.1091
-50.0709
-76.6239
-87.1008
-145.88
-57.2051
16.0701
75.2703
315.844
326.371
25.2065
-215.121
-340.224
-381.232
-189.055
-22.5341
84.2662
71.6209
12.6989
14.2862
91.3852
175.905
171.509
134.704
129.031
89.5138
59.3408
16.271
-106.391
-114.422
-3.1941
64.4332
116.055
156.701
61.8975
-19.1564
-42.8647
-56.2732
-74.0917
-90.9678
-121.981
-98.4457
-69.6172
-63.9093
-58.7874
-79.1922
-59.1119
-43.7819
-70.4385
-29.5738
5.15013
28.0665
102.053
158.193
128.367
7.12709
-38.3855
-66.9783
-60.6778
-12.1984
8.4559
-15.149
-20.7676
3.39469
63.9201
124.83
107.746
29.9822
-21.4985
-43.9155
-10.9593
80.4947
97.486
36.8238
-35.3987
-96.7096
-81.7218
-20.3732
16.6622
20.3001
-14.2379
-17.2561
9.97511
14.6925
-29.4967
-56.7241
-45.1875
-26.962
-44.3457
-25.1531
7.67135
6.72348
9.50896
42.3631
39.8459
110.768
129.706
52.1455
-60.7885
-73.0383
2.59915
13.5234
-1.56815
10.15
18.3928
-26.2291
-41.9005
-43.5754
-42.8762
-34.6151
-24.8378
-8.75028
-4.07968
-33.3532
-19.4032
4.70156
-37.7353
-14.4893
54.4853
22.6943
44.0446
115.421
22.0617
-71.6109
-101.853
-140.112
-112.294
56.7604
118.72
65.4858
37.2676
6.07069
39.3605
131.962
83.2909
24.5234
-6.52202
-37.5944
-42.8425
-35.1943
-29.0131
-32.9829
17.1631
62.4445
27.6139
40.9056
49.8588
-30.0465
-57.037
-36.1406
-20.4049
-23.713
-54.0538
-58.4551
12.2655
3.55677
-5.2863
-1.37622
-10.4267
10.0936
-9.82812
-47.9696
7.41246
66.8398
149.94
115.766
-32.9114
-158.491
-184.448
-153.167
-124.392
-50.5698
25.563
25.0395
23.3747
43.9929
79.6732
103.113
109.726
116.18
92.6594
2.58535
-59.2243
-83.9656
-60.55
29.8758
136.935
163.913
120.559
-0.665363
-42.2235
-77.7645
-74.7876
-1.85665
-11.1515
11.0221
31.274
7.73385
-67.3718
-120.243
-106.761
-18.9574
20.6789
-11.1638
-89.2913
-33.3982
57.0874
105.689
-30.9205
-124.405
-77.731
64.9114
76.7363
32.0012
-19.1899
-41.8406
-21.6087
4.12164
44.9968
40.0398
26.6576
7.53201
3.72615
38.9195
6.15446
-57.5661
-93.2812
-101.531
46.2504
174.856
152.259
70.8048
6.91115
-53.6334
-40.0405
7.59866
15.9879
-3.31483
12.3307
14.1453
-40.9097
-127.636
-95.9395
-28.2393
30.8504
11.7204
4.52
-13.0346
11.9336
54.6
28.4095
-10.3509
26.6671
70.7556
71.2552
0.432426
-73.489
-65.1109
-48.5015
-34.4269
-68.326
-36.7459
49.0374
52.5326
30.8459
8.24514
-4.59515
60.1041
33.1084
-15.9725
43.4027
41.881
-24.9741
-126.859
-111.579
-22.4052
37.1175
14.9663
1.00067
-4.11689
41.1461
112.709
15.1871
-15.0437
43.1484
11.6893
-27.8288
-43.0986
-10.7497
53.7524
10.2445
-52.7609
-78.6546
-26.9693
21.9168
32.2299
15.9646
29.4212
37.8925
18.5009
21.5702
10.5938
-16.5448
-69.7937
-116.935
-47.5362
0.00715772
-6.66485
18.8538
7.80589
-19.5239
-9.20321
40.3787
84.1383
101.015
36.8932
-47.2302
-42.7036
2.10167
18.6151
8.54101
11.4945
20.3483
25.002
-9.61091
-32.2582
-22.4568
4.3721
45.6379
42.8607
6.41538
-38.8663
-133.441
-125.674
-79.4071
-60.295
-32.9093
-62.4951
12.1333
138.476
72.4321
13.4446
11.8806
38.8739
71.5243
78.4249
36.942
8.82172
32.08
25.7422
-16.4886
-3.16832
77.2385
59.3794
-19.31
-39.6637
18.6249
13.465
-64.8869
-93.588
-51.676
-22.1885
12.7857
12.3196
12.6133
-16.9601
-0.816568
-45.8841
-158.681
-147.326
-16.8205
60.9964
54.4069
75.7917
91.0834
22.3376
-18.1679
57.523
74.7423
10.5083
30.6227
23.6903
-56.5727
-83.8854
-108.651
-114.55
-88.5323
-24.0887
23.0713
54.9336
60.462
57.5715
73.3998
48.7732
19.6562
46.3902
51.9356
58.8948
39.7014
-8.33697
-52.1619
-72.1101
-0.118426
20.7532
55.0015
101.973
0.887313
-24.4205
7.25262
1.17989
-39.6099
-51.8052
-48.8075
-57.6345
-52.1718
-36.3536
-35.5879
-81.312
-91.5389
-39.103
17.0924
28.9938
17.0991
43.1627
45.2932
14.779
24.8277
21.141
28.8432
32.0361
23.6432
47.8802
32.3416
24.4743
-9.03739
-53.3869
-53.5891
4.59851
29.3866
39.913
-2.50027
-11.3812
-20.1604
-13.4866
-24.5957
-25.423
-7.70935
-8.88175
20.7945
10.2296
2.85804
18.4706
49.0611
82.3621
37.921
13.5005
1.28314
-105.79
-172.144
-95.6246
-38.1597
-12.1044
0.602832
24.9787
82.4413
85.1023
71.7026
81.3516
37.3161
20.3506
27.1221
-17.9727
-19.6309
-19.9602
-55.2217
-26.2677
-11.7351
7.82294
23.6582
-11.5667
28.3743
64.101
8.44998
-62.2568
-106.27
-88.9267
-42.5431
-20.1863
-35.4128
-36.7782
-41.4662
-25.5513
-21.0266
-9.31523
58.9428
69.656
13.2449
33.2756
59.5412
39.7741
23.8346
9.69727
32.719
58.3862
82.081
78.5848
53.2122
-11.7905
-16.6931
57.8622
24.8893
-39.6316
-54.0336
-62.4646
-55.4298
-74.1232
-26.6487
1.62863
3.02065
-7.12622
-38.1748
-71.9127
-51.6759
-33.0541
-44.0953
-36.19
-9.22469
21.5918
42.3768
5.18126
32.1969
36.4506
24.2677
-16.1443
-24.4197
58.8732
97.885
63.3823
19.9593
-5.62531
5.95428
32.462
-0.0145596
-11.0204
-1.31017
-0.524503
-3.35813
-2.76423
-21.2004
-38.7964
-37.3228
-26.2457
-36.2092
-20.0833
13.383
3.95874
0.839012
16.8131
14.1691
31.0088
41.5327
-48.6488
-71.661
-3.84422
5.95398
-3.92664
23.5577
25.0468
-21.2409
-51.3217
-12.7596
38.2003
44.9558
33.7554
22.466
-9.57453
-55.7756
-32.1248
38.4415
0.020258
-54.6361
25.8281
62.0361
-18.8624
-41.8599
17.943
41.6399
35.3871
12.5592
16.7362
29.4726
6.00386
32.4239
-8.70281
-42.4295
-28.024
-4.35952
-28.2745
-52.78
-33.2798
66.7672
106.628
53.1843
-17.0867
-107.942
-202.655
-141.299
-43.1375
11.8063
34.5925
18.9369
43.1797
24.5426
38.069
81.7682
116.917
74.6934
44.2203
38.5946
38.8585
-30.0215
-73.5157
-36.4598
12.927
109.636
97.6975
-38.1777
-96.8464
-60.5929
-32.4343
-25.9683
-46.4529
-64.478
-62.8873
-61.6683
-33.2747
6.88196
18.9227
30.2073
22.178
-1.5492
-18.6108
23.135
74.3545
62.8107
59.5073
19.7923
12.8341
53.261
-23.0823
-99.5757
-47.3334
-4.53624
-0.0740073
-24.6616
-43.1336
-2.10968
50.6935
16.2303
12.2533
33.6389
38.4564
20.1838
-12.4981
-33.0482
-20.3114
-16.2622
2.27509
21.9173
80.8375
102.705
21.6966
-42.9992
-65.5834
-90.0931
-85.0959
-62.5365
-44.6745
-31.4506
-47.9013
7.21803
53.5311
32.8075
5.34505
29.8763
67.7308
105.034
55.5314
-12.3753
-31.8614
-14.3901
-5.97476
1.61495
24.4545
62.2854
43.4753
-20.4541
-49.0972
-28.4568
16.4944
-7.84277
-28.6245
8.30242
-10.2148
-41.5914
-49.0458
-52.7699
-4.3711
16.9709
-4.82063
13.8554
32.9063
17.2918
-23.8046
-44.7767
-24.5123
50.7207
39.0813
14.9295
-7.15717
-44.3519
-42.3478
-35.1971
-22.2653
13.5508
33.7548
38.0144
44.2025
37.0934
17.2224
-52.4426
-82.6548
-8.06952
57.4333
73.16
121.904
80.7956
-2.76301
-75.096
-118.525
-91.7063
1.33021
47.7031
75.2038
40.4464
1.98277
-8.01983
-30.2557
-0.279257
13.5485
2.53081
22.1036
-2.27861
-21.7889
5.72005
-26.2701
-27.1423
-19.3082
16.7922
61.895
56.5189
-43.0537
-76.3583
-57.9797
-15.7126
-13.1436
-45.2075
-58.7224
-36.4551
2.08277
-0.674166
-10.2212
9.16744
27.876
47.2864
-2.07044
-36.0178
-4.10634
53.4564
37.6229
25.9398
40.4675
35.3383
57.1668
39.5975
-2.62343
15.6503
-20.1691
-88.7938
-55.8825
62.5766
130.4
67.7024
-18.179
-39.7657
-43.0857
-24.8092
-8.70296
-29.3382
18.4374
44.0381
3.84757
-34.4718
-58.3138
-37.9578
6.71324
-5.52724
-1.00929
11.0917
-33.0288
-82.9617
-107.598
-76.9681
24.3541
57.7334
54.8555
44.0094
52.7529
18.9416
-13.4213
-37.7172
-50.6533
-2.48778
14.0578
24.8088
50.4907
39.262
11.2458
9.67579
33.9121
45.7731
33.5612
19.6511
-11.8647
-53.8841
-36.1934
-1.64368
-13.5558
17.0745
39.6502
64.8571
67.5786
-1.80748
-45.5517
-52.0681
-41.2274
-16.0016
-13.7427
-23.5944
-17.886
-24.9127
-17.7534
-8.80737
6.54792
15.3557
22.3842
19.4291
0.860259
-3.29521
-19.6225
-31.4507
-50.7004
-69.1466
-51.8015
-41.393
-32.5197
33.1329
62.141
39.2621
39.4029
65.2465
97.1175
122.854
58.5907
-67.7921
-105.469
-106.189
-80.5748
-17.9408
28.0616
24.0337
27.6423
31.0537
28.2048
66.8638
47.7429
-11.4942
14.0805
26.596
-6.56336
-19.0855
-26.78
-10.2155
-3.00227
14.6355
22.4122
22.0605
51.9518
1.62503
-32.9564
-10.657
-3.3488
-2.49792
-25.6815
-49.4221
-35.8116
-18.3768
-1.85533
-31.8973
-89.1614
-91.6275
-96.6192
-68.5974
-22.0751
36.6611
68.7211
95.3186
63.7566
32.621
21.5286
-3.35241
26.2823
35.5082
54.7971
32.6237
36.2046
6.60413
-24.5349
-2.34224
51.4698
39.2029
-27.2858
-70.0266
-38.2535
3.84152
6.82535
-34.4527
-56.6169
-44.5962
7.76746
53.451
56.2913
40.5764
4.17127
-33.1641
-71.7735
-41.2899
-15.3419
-15.1046
0.822564
77.6402
114.444
42.1711
-0.614632
-26.8402
-48.3925
-55.334
-14.9679
18.5354
10.9108
-14.7362
-42.4823
-18.1068
24.8966
65.9562
58.5018
24.4126
-41.013
-61.6773
-47.5039
-71.0371
-71.0522
13.7843
62.3888
57.2416
13.7711
-25.6052
-52.9824
-25.2655
-15.3825
19.7559
38.4038
12.0233
16.8827
28.284
55.3714
72.7967
62.4855
50.1099
28.4751
26.1627
-1.04382
-50.5962
-90.4027
-98.5396
-50.884
48.407
74.9779
8.35243
-22.3941
-30.4633
-39.8765
-17.4867
-48.6687
-55.2064
-53.4184
-44.0676
-0.444832
34.7804
39.9725
5.84389
-17.1664
5.63542
22.4482
40.6382
46.0891
24.434
39.7888
55.6356
5.04749
-36.0461
-51.6299
-33.3293
-8.03894
8.14798
35.1543
17.5999
4.80551
34.2906
-15.513
-61.7955
-5.1986
29.8479
16.2585
31.392
21.1563
-20.2182
-20.8227
-15.3274
-11.732
-2.20794
31.0582
5.93519
-63.0654
-68.2638
22.1394
25.0552
16.6924
-4.47808
8.83288
32.7647
13.0181
-19.9837
-7.3428
-0.15532
6.20349
-12.1133
-21.1189
-2.77798
7.34145
13.7432
13.892
17.095
36.6589
-20.9477
-70.6402
-14.2404
5.70594
-21.9369
-2.59604
24.0021
15.2262
12.7297
7.13703
10.3934
-1.9651
21.7719
58.8612
51.3724
16.6391
-16.3041
-44.2957
-50.6155
20.255
12.9462
-63.2404
-56.7555
-44.1513
-62.9742
-82.176
-18.8504
56.5177
68.6951
68.5818
50.8244
38.3837
23.4338
-50.3735
-139.492
-66.3099
-20.4477
26.6556
55.2037
76.6063
82.381
62.0689
25.9904
13.2882
22.5092
3.06237
-11.4846
-7.95575
4.92423
4.32661
-25.7193
-8.05167
6.79504
-21.2888
-1.81272
22.7374
-8.272
-7.40255
31.7454
2.15033
-14.3296
-41.4133
-40.9448
-52.8977
-27.9013
18.687
-8.32796
-6.67772
-12.1053
-60.1385
-59.5187
-73.3116
-55.9352
56.7708
132.455
84.7002
62.4286
19.6886
-56.1631
-112.057
-65.2904
25.4467
56.3683
48.4063
53.904
44.7626
25.2826
-18.0125
-40.8251
8.89176
37.568
27.2495
16.6681
-49.8949
-38.1538
-9.00438
1.3958
4.3568
31.5152
48.3059
42.823
29.7859
-22.8716
-47.0623
-52.0918
-46.1199
-11.6369
3.821
-2.56059
-11.6306
-4.67926
-3.77498
-19.9627
0.194497
6.57503
-17.0427
-19.7882
-1.72809
-16.5871
-4.8901
26.3013
27.5434
22.4699
28.8736
32.5066
56.6467
32.0354
-36.0159
-49.2701
-20.7528
10.2529
40.0329
37.3761
17.0193
-12.4011
-66.3508
-70.6934
-0.373687
53.9928
-3.25679
-18.5577
31.8941
63.8796
52.4079
0.799509
-50.6935
-67.507
-51.5136
-41.2257
-72.5757
-51.4955
-6.9522
11.3804
54.3631
48.6643
44.8619
16.9463
-26.9895
-20.6149
28.8458
0.841411
-13.2785
8.18295
16.0381
51.7693
46.2576
28.7471
22.8491
4.40799
13.7622
-43.2113
-63.7399
-24.7753
-20.3051
-24.2345
-37.3764
-17.131
34.8453
44.0174
57.2241
89.7443
34.3479
-49.5026
-121.357
-156.044
-25.3946
52.2814
23.3305
5.90434
6.25598
42.9124
39.9122
55.2808
70.0205
56.6773
0.462271
-35.9501
-86.8569
-123.127
-66.3775
-33.1211
-33.5682
-0.541614
74.8375
106.214
75.3101
36.129
33.5877
16.1073
-1.43344
17.9329
42.4472
-24.644
-79.8266
-95.2663
-40.1003
12.3785
35.978
53.2412
43.5083
-6.83783
-49.2121
-66.1041
-60.3607
-24.7179
-39.7272
-25.9098
17.1303
58.0781
77.4976
40.7774
-1.93253
-18.9786
-25.0463
-18.3083
8.93853
24.3972
10.4472
3.02508
-12.6532
-25.3744
-10.6124
14.2802
18.9537
61.1381
51.671
-35.2807
-67.6777
-51.368
-34.2359
-11.6052
13.4069
44.898
62.879
91.438
95.0663
82.626
17.8372
-73.9345
-117.843
-154
-68.8849
46.4351
55.0532
13.6789
-47.8592
-55.6896
-27.6006
-1.58258
14.1406
-4.96004
-20.6215
-13.1643
-24.0404
-3.69258
57.5114
78.8305
61.0605
42.4051
-10.273
31.2291
33.7739
4.18567
-16.4519
-60.7504
-32.6707
46.9481
46.0707
34.4796
12.054
-22.0632
-79.6565
-71.1154
1.04654
8.96946
-28.0795
-46.7792
-6.78571
35.5683
44.728
-5.03812
-34.515
-21.382
18.6762
23.4095
19.6663
12.822
25.4629
16.603
19.9465
35.0823
30.6546
-38.2422
-32.8374
-35.2171
-53.7971
-59.516
-52.5287
-19.0808
46.4184
63.5195
10.1368
3.75123
29.8727
44.7417
41.8292
9.75797
-33.283
-61.075
-36.483
-5.19693
1.70138
24.5805
8.32735
8.61802
23.1059
9.21765
6.61075
15.688
11.4144
-0.786399
2.06095
-8.97526
-6.4889
-5.75025
-19.2636
-59.2219
-34.615
-22.1331
-28.0774
-4.00121
72.0894
45.2553
-8.74889
31.1987
51.752
45.4035
-3.34979
-43.8154
-57.9352
-21.3501
11.7483
62.3524
93.9295
47.164
-48.4647
-139.254
-165.303
-98.7094
-8.03052
27.8586
11.0512
53.3086
82.1221
26.1466
-26.5572
-0.0127371
54.0094
49.8865
64.8691
78.836
27.7107
-71.9684
-104.104
-31.2999
42.5332
89.9778
116.877
102.029
-14.109
-103.079
-55.8654
5.05967
-29.2952
-79.0837
-75.0471
-38.135
10.4524
7.3347
-82.2832
-91.7197
-21.874
4.40414
-10.5011
-52.4586
-19.4055
70.806
60.7562
61.7718
74.5963
46.6099
2.6887
-22.9318
-19.0184
8.58457
32.2269
4.17775
-4.28719
34.3334
63.2228
65.3078
34.1336
-19.2047
-34.0821
-29.5702
-4.11798
32.7976
46.0832
-0.93973
-14.2559
11.1986
-26.688
-53.6577
-36.2344
-30.14
-28.5329
-33.9112
-58.8512
-44.9728
-27.7632
-49.9363
-33.5886
-11.8227
-7.99203
66.2823
73.806
31.8377
42.6301
24.7345
-21.8961
-4.51829
5.48377
-3.11979
3.42975
23.7413
50.9426
52.8493
-13.2456
-31.3964
-16.2472
6.35313
50.3596
53.9681
10.3657
-13.1082
-6.98892
-51.7596
-106.807
-100.7
4.52028
57.2773
49.3125
55.7218
83.8814
73.4002
-28.9293
-109.076
-142.434
-130.754
20.6454
100.346
49.0021
13.6968
-8.76892
-26.87
-7.20293
34.0146
128.327
131.796
27.7106
-78.8931
-161.927
-190.085
-125.285
-54.5848
26.8126
82.4242
155.211
182.262
113.679
38.658
-13.4592
-31.531
-15.8634
-47.2519
-35.0603
24.3426
-21.0564
-40.2189
-37.1623
-29.0313
27.056
44.3553
-16.2519
-35.8408
-9.48257
31.1557
5.81757
-40.6959
-35.2124
8.08376
14.99
15.8765
-7.83623
-28.4105
-76.3543
-69.4512
-27.4552
-8.48485
10.4761
46.2305
93.0854
92.2713
27.2341
-13.8184
-7.63437
0.282713
30.8698
44.1418
-10.8413
-57.1384
-60.0049
-31.6545
7.80165
27.637
24.7928
-2.13084
8.87186
33.7443
42.3175
14.6356
-26.6179
-15.3715
17.1334
10.9478
-36.2466
-49.5587
-23.5852
-3.92673
-2.73735
-9.80447
15.7096
8.95637
-0.145793
-3.69816
-0.8451
3.65811
-4.10276
32.7257
19.1125
-4.5394
6.62558
-15.3028
-16.9659
-22.8559
-4.88834
-0.690205
-12.4341
-4.5508
-5.25653
6.38584
7.53334
13.8236
45.0711
39.9877
1.71442
-52.1909
-101.246
-58.2436
12.8461
35.2695
61.1921
78.3689
1.51266
-5.79522
43.477
36.3226
-0.951265
20.7262
14.7399
-29.8958
-56.4741
-57.5269
-54.9574
-44.796
-15.1434
24.9568
44.8291
1.49922
51.0373
94.3672
41.0547
-26.2992
-75.7495
-129.978
-95.5744
-38.5924
29.4071
21.9695
-1.00785
10.4961
23.8498
21.1769
20.1652
40.6392
75.4758
49.3471
34.4696
-22.062
-94.4272
-71.6067
-7.46295
10.8827
68.5368
134.299
90.0046
43.7901
7.71282
-40.7618
-64.8586
-52.8477
12.9524
17.9737
-32.7204
-70.6027
-73.3773
-5.52643
51.2103
71.2074
15.0675
-61.4613
-66.2996
-38.9148
-12.716
0.543231
-11.1343
-8.35585
-19.6822
-53.3314
-44.5154
-11.5927
17.565
48.0695
47.8892
48.2159
33.8507
7.9434
10.24
-0.70921
-0.164289
-9.1075
-15.5324
8.85084
11.3646
33.3713
31.6182
0.0334412
7.70434
33.5975
44.3748
7.26942
-39.9
-39.1053
-1.26376
18.0094
68.3789
49.1241
-39.426
-83.4084
-72.2951
-30.3702
-17.6815
14.0577
46.5655
9.41144
-19.6292
-24.9595
-27.8371
-25.3936
-12.7968
-25.9119
-27.2932
11.3483
44.7951
27.4882
-21.0399
-19.3151
18.4257
49.917
52.8558
58.2157
33.3475
-34.8567
-25.344
36.2846
49.2016
17.7918
-25.8619
11.7143
27.3483
36.8356
-7.76356
-101.929
-156.288
-83.9862
-40.5772
-38.3298
2.07454
11.5718
6.45648
24.6556
44.9027
61.7021
36.3633
14.5281
-1.22178
6.88758
4.22641
-44.6059
-32.5421
28.5955
80.8084
106.809
61.4023
9.11409
16.5801
28.0016
-13.7104
-43.3046
-62.7361
-31.3394
-26.682
0.00552535
6.95865
-19.3731
-32.6392
-36.9612
-27.436
-9.89773
-6.00426
-10.5632
-13.0084
0.115375
33.4079
0.250054
-39.1143
-56.0896
-56.5557
-18.5102
27.5316
24.474
33.726
7.17517
-26.7886
-17.504
5.56413
39.6927
83.7059
104.79
87.2269
32.8846
-4.47789
-33.9229
-25.8391
5.22356
8.70299
19.5652
11.5609
1.92155
13.7143
-19.1333
-62.4318
-64.6399
-35.6194
-31.4517
-32.4166
-35.6376
-3.1073
21.859
6.6228
-9.93574
-0.0810411
19.4402
61.1769
59.0872
-8.43807
-36.8563
-23.2774
-18.3134
-10.2592
9.23985
30.1717
33.359
6.30422
-14.7514
-16.4977
22.5889
24.1654
-24.0263
-28.6762
19.0238
22.4931
-12.8801
-9.76762
1.69365
5.71467
2.01404
2.34589
11.825
10.3459
-9.8777
-23.2984
-40.1483
-5.67072
28.1948
9.4961
24.6269
89.6428
72.7834
11.5742
-92.635
-184.746
-201.089
-58.1565
91.7831
86.9511
4.10423
-45.3769
-81.2482
-46.2058
61.3186
117.756
63.9879
21.4549
61.6257
101.621
21.4487
-35.9201
-37.4872
-10.4971
37.1263
90.235
124.047
30.7515
-108.203
-152.946
-59.9879
31.0595
60.0972
23.4373
-31.2297
-16.7158
-7.58976
-17.3156
-33.9873
-15.6345
2.12415
-43.6867
-31.4519
-7.18826
8.9447
40.6292
38.7263
-11.0254
-3.71306
28.0874
30.676
21.5273
10.6303
-0.0727634
-31.2477
-60.8162
-30.6719
-20.3799
-47.4384
-67.0224
-51.2014
-12.2816
27.543
32.7189
29.8675
-7.64496
-0.39338
19.9996
33.9251
53.9063
54.2531
50.8979
45.7007
34.3155
15.9401
1.22302
19.9752
2.44464
-3.16174
-11.9779
-40.3275
-41.2914
-31.8562
-16.7042
2.20554
16.6514
26.2149
0.647349
-45.1142
-8.07463
-7.17765
-39.343
-43.0245
-63.8618
-37.1093
-17.5255
-5.34402
29.851
37.1986
35.1237
46.2782
30.9343
54.1831
48.1648
-1.85657
-10.3001
-37.815
-83.3407
19.3788
64.7942
12.3423
-38.4053
-83.6765
7.19364
135.562
83.7896
-14.3747
-44.1394
-113.5
-115.79
-34.7721
11.2472
-26.0641
-7.63219
16.7321
34.5088
67.8133
117.836
34.531
-33.803
27.4711
75.4074
90.3352
56.1881
-53.1411
-82.9149
-27.9282
7.48065
46.1963
39.2645
-14.4134
-75.4501
-97.0535
-109.918
-45.1145
39.0918
-13.0437
-26.8473
-28.6909
-15.6427
-3.1059
-4.65762
3.40065
-26.6522
-50.4672
-50.1177
6.03831
29.8214
14.1663
5.1394
26.5297
74.1057
91.5646
61.9189
30.0877
1.8652
30.8664
40.3735
33.4898
19.8812
-4.10576
0.738915
21.9211
5.02447
-19.9843
-3.8808
-14.5518
-5.64533
24.6351
22.0175
-41.816
-76.8586
-47.5542
-41.4159
-42.6308
-5.90037
4.84866
-6.49472
-30.9444
-32.0983
-11.6535
-12.2441
-0.518794
25.2688
-9.89116
-28.5628
-29.8509
33.9031
47.7982
7.73905
24.0775
78.42
53.6405
30.3588
28.8555
-17.0903
-28.4239
-58.2385
-25.3896
30.972
16.7378
12.561
12.7688
-7.91842
15.9411
40.836
36.6966
-60.3265
-97.551
-61.6501
-17.1873
-15.3652
-10.0442
31.6803
57.2492
19.4148
10.9858
27.472
-14.9903
-41.666
-45.1861
-30.2221
3.73797
9.86807
1.96049
42.3696
73.7224
66.2707
71.2326
98.9785
68.19
-2.80883
-69.3353
-167.457
-219.573
-103.798
-23.8523
-19.0273
21.4604
55.3496
79.1094
59.7977
-4.51999
-17.1118
22.0376
1.62609
-3.25384
2.58795
-14.1512
-27.5535
-3.32085
0.469255
68.8134
144.269
99.3461
10.5182
-8.26551
-20.0892
-33.0211
-39.1892
-13.3179
28.9907
28.6282
-37.1823
-69.5674
-77.1576
-77.7757
-24.9308
5.71972
-28.4868
-32.4085
21.961
7.1505
-46.2095
45.0913
83.8315
82.869
98.1204
82.3703
-19.8762
-64.6387
-69.4922
-40.4389
-9.94619
-16.2694
6.4629
5.42285
-37.5336
-41.7048
-21.8673
-1.7647
-19.4021
-3.69343
65.9611
43.4169
3.0398
-18.0857
-19.9826
-1.41468
32.9137
18.2022
-3.86754
1.62226
16.9529
-1.43202
-53.3085
-31.519
6.41021
7.80336
22.3135
33.893
57.2261
41.5592
11.1671
-11.7285
-14.2598
22.2902
32.5262
-0.218343
-14.6953
-2.99762
-16.2862
-34.6965
-8.61569
3.01464
29.5033
12.4915
0.0628426
41.9766
45.9678
-35.6065
-85.5702
-78.8935
-34.3461
-25.0899
-51.9436
-43.5552
3.68144
-15.1103
-29.938
-44.9072
-29.9542
-40.494
4.18127
142.509
154.699
90.7596
59.4387
3.16062
-21.3624
0.587994
8.77057
3.05173
-14.1001
-36.093
-15.6114
-30.898
-40.2398
16.485
26.1413
-17.5881
-103.73
-99.967
-8.763
-8.55414
20.2138
55.5317
28.991
-2.90529
-3.58064
25.6733
59.8174
79.1193
74.4508
61.6466
-5.28834
-76.3041
-26.6589
82.3676
73.9313
37.7023
36.2111
43.5793
-10.2939
-72.2903
-69.2939
-44.0593
-33.1654
-50.3253
-11.3373
5.42902
-49.2831
-94.7353
-109.99
-112.212
-51.5552
28.9202
20.3217
-39.6662
-29.1691
13.3552
68.9072
106.404
93.7091
81.2071
31.4902
-5.80278
-18.5213
32.6036
46.0234
20.0457
-39.6772
-82.6822
-20.5734
53.9087
69.4636
34.432
-39.712
-52.4862
22.5043
19.5875
18.6591
21.369
-35.9082
-74.5614
-70.8382
-1.8201
68.8037
49.8008
19.2569
15.4266
7.4273
28.0555
6.5735
-2.53963
-5.34711
10.0535
24.1863
-66.5241
-73.1164
-19.4794
-15.508
-15.3566
17.4564
6.14441
11.0028
-31.708
-73.7301
-10.8074
19.3976
-2.74798
21.7127
31.4644
46.9093
48.48
-16.8021
-30.1142
3.67977
-3.51471
-38.3183
-8.99518
26.9869
23.3081
8.78771
-29.2259
-23.9106
-8.63292
-2.27183
-26.6638
-16.6662
17.427
26.9732
15.3336
13.9183
11.9841
25.2656
10.1148
-9.19865
21.4335
11.3942
5.01017
1.41356
-0.940646
10.7278
48.012
51.401
33.9619
12.358
2.99917
-15.7241
-66.4218
-60.5015
-33.9868
-32.7543
-25.3456
-8.3889
-10.5628
-21.9739
-17.3933
9.95595
22.9372
18.8433
-0.571045
-4.45184
7.20268
3.12118
-1.39605
9.61182
-4.08041
-20.2433
-17.2545
4.17825
32.4481
33.8593
30.9021
31.4858
6.35697
-13.9905
-6.1318
-1.2039
23.4556
57.8036
52.6182
17.6342
-20.5614
-43.7575
-74.8479
-114.409
-150.48
-156.987
-91.3762
-42.9558
-32.8895
-12.4926
6.60379
28.8372
51.0703
90.6007
154.218
131.725
96.4984
109.015
145.128
144.456
119.636
78.2791
56.1357
40.0039
47.72
33.232
25.2997
7.59241
-56.1323
-133.519
-234.119
-311.298
-348.579
-320.699
-281.083
-184.571
-107.328
-54.4635
-11.8615
48.9976
151.166
250.188
258.645
195.699
147.569
127.752
140.244
163.427
217.839
260.737
292.437
233.45
185.416
183.7
124.736
-46.6366
-232.179
-364.844
-478.005
-582.522
-631.96
-592.411
-423.222
-211.054
-88.8033
-41.3434
-28.8465
38.5865
160.496
228.476
283.303
390.731
405.721
360.454
374.151
383.367
318.087
248.517
203.258
152.672
71.1042
7.64589
-55.4964
-107.668
-99.611
-78.2878
-97.9862
-155.331
-234.55
-287.104
-319.333
-309.383
-221.616
-240.965
-263.921
-211.198
-164.82
-142.501
-68.8865
24.0909
122.204
159.359
153.007
150.965
120.276
89.9626
110.521
137.86
154.958
98.694
32.4614
47.7318
69.5107
75.8015
52.0324
5.25327
34.9922
55.5055
12.5487
-35.8741
-13.6934
24.7028
48.2795
58.3104
58.8283
78.3629
72.4707
-30.8844
-99.6605
-90.8168
-76.9443
-91.2516
-104.117
-111.252
-123.097
-33.5381
74.8786
118.181
68.6831
-11.5456
-85.1199
-130.21
-149.163
-93.5551
-3.99311
30.0782
38.0432
54.9155
38.8197
45.6766
102.195
120.496
57.3542
-49.9855
-110.217
-138.448
-99.1402
-34.372
18.4017
85.1775
77.3625
131.668
180.427
139.289
82.8886
49.2081
-0.51731
-59.6859
-180.736
-235.291
-146.451
-104.476
-112.536
-31.5279
74.7401
127.859
141.351
165.711
191.137
135.647
39.0977
-93.1177
-215.701
-188.689
-113.744
-107.796
-148.8
-147.683
-51.8183
47.1474
65.1892
110.456
176.097
184.649
60.2652
-66.7988
-132.285
-144.061
-85.3027
85.3768
248.31
291.076
199.006
54.7351
55.5662
69.7986
52.7973
43.8263
101.986
155.733
63.3565
-38.4036
-141.978
-224.198
-253.096
-215.311
-231.193
-240.912
-203.168
-268.25
-277.655
-197.683
-65.9183
54.9101
124.421
201.626
288.712
336.7
257.789
154.649
67.6921
-45.9237
-64.4237
46.5826
148.262
72.0198
22.6478
84.5372
67.1725
46.3093
9.08081
-41.9714
-58.1706
-17.342
-77.5661
-79.3015
-40.769
-13.6609
-40.028
-50.4013
20.9494
74.925
107.38
106.805
7.19329
-164.675
-242.144
-296.578
-312.69
-286.488
-86.6601
116.881
175.693
50.2112
-61.0586
-128.755
-124.055
-24.9759
55.6111
68.3968
76.1338
151.013
223.551
246.946
383.751
527.209
472.995
178.566
-277.177
-477.696
-294.741
-149.189
-99.5888
-95.0984
17.6924
249.066
212.864
55.135
102.317
100.491
-103.257
-337.569
-282.862
-154.645
-170.5
-84.0147
12.8546
116.216
298.059
364.715
293.376
308.09
69.9951
-219.812
-469.917
-504.707
-307.714
-183.515
-171.155
8.32607
128.791
64.4856
-343.344
-542.739
-424.828
-217.002
-78.6179
86.7618
301.96
446.619
301.767
120.453
296.733
602.709
754.066
642.331
390.362
106.888
-100.59
-251.82
-182.728
-37.6544
173.523
200.787
388.361
360.251
-48.3524
-688.021
-989.599
-853.055
-678.381
-580.993
-496.098
-162.241
134.891
165.93
259.899
405.754
387.497
192.474
5.25821
-75.5942
151.406
191.068
-92.7821
-198.398
-81.2054
296.258
679.751
653.884
511.375
242.322
-122.958
-509.557
-716.877
-570.977
-472.153
-399.592
-159.387
59.141
211.21
362.946
401.15
328.136
63.9636
-250.874
-296.709
-124.548
-5.4168
-40.5786
-12.3461
320.296
754.536
759.085
326.125
-99.151
-306.451
-387.36
-483.467
-478.142
-429.678
-331.592
-245.279
-96.3205
28.3927
268.22
457.719
477.592
366.478
203.947
131.415
12.5683
-309.637
-363.559
-198.436
-350.069
-326.212
-109.773
131.937
229.305
237.64
233.491
92.2655
24.7406
43.8418
-18.8605
165.094
513.149
337.566
131.282
61.895
-393.054
-608.193
-576.967
-278.769
63.109
168.888
120.995
49.6653
-19.2052
-32.0781
-44.8713
-16.3529
-3.50383
80.6652
206.403
176.358
-28.8103
-137.5
-182.992
-78.396
-9.5466
-98.3972
-46.5346
119.955
175.953
-21.0864
-44.9653
12.5074
131.9
152.534
96.6781
-50.6789
-250.904
-288.791
-236.542
-245.3
-120.276
435.829
647.291
212.626
345.45
471.614
176.222
-314.657
-495.461
-478.48
-415.352
-251.087
18.8781
112.142
131.035
84.5506
31.2982
60.0805
-30.8456
26.6636
19.3479
-180.78
-184.781
76.8642
124.752
221.603
227.432
128.093
257.707
400.279
222.158
36.1003
-50.5903
-98.5917
-234.381
-253.884
-252.733
-309.631
-212.363
-180.942
-224.761
-113.887
134.188
205.793
66.6798
34.0763
111.082
131.378
78.1921
94.7136
244.702
273.564
19.951
-96.1038
-67.1497
-117.134
-187.305
-188.466
-85.909
40.6524
-40.6213
-227.831
-111.081
-163.855
-389.753
-244.511
-83.939
13.6931
110.509
215.293
314.503
315.301
242.736
251.565
227.263
94.1132
85.3933
132.253
64.9187
-42.3819
-60.9626
-112.984
32.05
257.656
270.341
193.962
-2.03162
-257.046
-575.428
-235.212
278.565
103.137
-321.327
-412.372
-365.503
-373.62
-265.958
-183.27
-26.4294
183.053
353.974
308.234
-34.2606
-271.139
-199.61
-3.35754
349.879
569.163
779.767
617.187
-42.7475
-380.988
-377.42
-269.5
-48.0272
179.738
272.362
140.949
9.13058
-139.633
-315.66
-315.277
-210.577
-105.837
33.2095
50.6659
161.19
313.12
193.081
-167.467
-345.864
-293.478
-147.88
-70.444
-31.81
50.1435
123.859
371.918
351.035
120.979
51.5173
53.5224
-76.4628
-140.498
-34.1029
-88.5812
-268.976
-273.982
-193.018
-178.883
-35.2979
230.149
445.775
350.01
42.0287
-162.901
-135.65
-248.204
-301.729
-32.3886
224.078
157.189
193.211
299.714
189.324
-38.9278
-300.827
-287.085
-30.4082
99.5264
58.6289
108.566
158.633
223.007
135.774
61.8975
17.8513
-135.469
-205.024
-294.611
-394.471
-219.011
34.3272
5.2341
-58.7701
161.61
525.278
460.943
84.9238
-65.2953
-53.8653
-190.857
-286.934
-305.031
-81.5133
153.996
294.076
377.258
294.848
-20.2251
-264.064
-203.394
-200.377
-157.806
17.2721
-91.4089
-345.429
-223.432
-53.3888
-117.517
-83.9474
-1.70783
172.799
256.47
126.692
139.025
256.572
296.049
179.901
176.425
209.728
-5.99313
-287.714
-345.475
-253.602
-102.67
-71.2631
-115.004
12.9867
119.98
234.761
337.412
171.289
-122.419
-254.017
-366.974
-450.789
-285.613
43.3616
280.378
457.279
511.754
340.015
50.0551
-137.778
-173.142
-14.7329
28.2634
-80.6187
-99.7099
-154.318
-231.243
-207.749
-7.76297
202.577
361.642
304.548
58.7538
-48.2119
-4.57129
15.4162
-192.666
-489.978
-483.68
-275.654
-191.958
-68.5542
293.331
439.143
345.45
151.14
18.5102
-97.4232
6.64569
189.312
112.462
-125.143
-208.155
-170.7
-278.324
-308.339
-101.508
194.116
387.041
384.778
425.976
373.22
23.7016
-297.836
-213.578
11.2327
168.084
385.498
110.069
-270.242
-305.421
-397.075
-405.742
-310.448
-79.9196
-33.3171
41.1337
212.683
248.899
77.4958
-56.8983
-115.902
-110.043
49.109
78.9482
62.8474
108.277
178.817
203.083
169.634
29.8043
-51.6697
-101.988
-193.819
-128.921
7.8372
47.4235
104.272
32.6528
42.0807
43.1998
21.0749
45.7234
80.5865
52.2062
-180.379
-465.163
-585.77
-403.215
-148.956
24.65
312.877
614.865
663.223
336.112
73.1208
102.779
88.3008
-16.2325
-148.357
-80.0497
-41.5741
-80.9822
-203.738
-76.6517
165.783
149.721
-87.1487
-245.129
-210.764
-151.819
-145.998
-168.977
-215.485
-248.992
-186.009
-66.3905
129.441
313.423
449.729
403.61
142.79
-334.501
-335.319
-332.525
-448.357
-300.963
62.212
375.952
404.628
392.556
571.718
501.673
352.435
319.02
404.771
236.201
-177.291
-502.945
-618.285
-486.547
-266.182
54.1343
115.657
67.5521
108.618
78.7294
-44.8659
-308.701
-260.974
-51.783
-102.971
-116.139
110.003
246.072
-58.1088
-225.176
-167.714
-88.5692
-61.8775
-239.051
-261.669
38.9978
181.196
162.346
124.861
239.205
350.319
527.064
490.359
77.7784
-402.504
-480.023
-371.393
-249.597
-155.539
-72.0662
-2.36598
64.0244
154.946
222.114
310.115
186.15
-13.808
104.967
205.452
67.6199
-119.776
-195.393
-220.603
-45.7755
275.901
286.566
84.4424
21.674
-48.6031
-210.051
-299.848
-111.303
16.3146
22.3918
-36.8082
13.8005
17.3842
-114.445
-123.2
-40.3203
-18.8378
-119.329
-114.84
-101.62
-143.506
-161.557
-119.98
229.468
455.166
302.559
284.095
284.385
54.7133
-102.89
-140.8
-168.367
-115.128
-148.543
-166.155
-147.844
-76.0216
111.768
163.429
58.022
140.788
273.904
290.212
-60.4824
-302.569
-117.761
-99.4848
-225.107
-124.144
44.0685
38.9299
6.69787
142.984
220.171
177.059
101.546
-27.6761
-84.095
-17.8326
21.3814
14.4124
37.1702
-102.604
-411.231
-394.026
-238.386
-63.425
-5.64401
106.501
186.993
228.812
271.707
198.788
18.3946
-15.8018
52.0489
90.0282
77.1351
17.3613
77.5285
76.5828
-7.51381
-101.892
-87.2466
-81.2742
-149.533
-78.1983
69.0299
93.5889
47.9089
-7.91451
-16.4757
-47.7488
-110.695
-96.9226
11.0165
46.5484
-98.5351
-226.55
-161.779
-160.551
-175.579
-92.5129
210.158
408.474
378.114
281.783
166.479
50.7991
-97.6791
-221.353
-301.937
-298.176
-115.204
-24.1032
-63.9066
-58.5268
28.8718
189.152
287.022
332.542
276.428
177.456
38.9718
16.0701
-45.6952
-160.492
-210.186
-222.573
-120.397
37.7593
-23.6475
-72.1354
-89.5983
-129.401
-59.6187
-5.52067
85.5283
194.863
258.146
142.625
-67.9502
-199.94
-231.349
-179.659
-153.461
-97.8715
12.437
76.5689
133.381
176.05
171.122
211.885
211.841
103.633
-12.0264
-55.2957
11.3024
-72.2252
-210.053
-167.286
-10.6133
134.477
110.532
-9.93478
-23.8829
-86.7489
-118.028
-159.65
21.0128
142.227
85.2838
43.9897
27.5317
29.1292
2.28957
74.73
-32.0202
-234.054
-267.007
-228.769
-116.569
-71.9526
-71.7159
57.4929
185.211
239.9
244.105
286.848
112.745
-24.3417
57.9858
-14.0819
-127.327
-81.2332
-48.1395
-88.3225
-87.5609
-16.4389
1.71083
0.615084
24.3571
60.5199
101.356
81.4624
72.2344
25.8949
-104.603
-153.211
-106.333
-153.034
-116.571
31.9813
84.8995
38.4493
66.5243
71.8213
8.06945
-10.304
8.54337
57.4735
32.3076
46.4568
53.6481
-9.20586
-0.463293
16.9579
25.7638
1.84725
-39.2002
85.7691
178.647
201.763
215.751
-23.4552
-321.72
-421.138
-344.412
-129.683
-4.45987
81.1706
111.655
-40.0843
-212.461
-96.8392
-69.0973
-53.3599
-20.4575
-5.32648
53.0318
81.8486
48.9903
32.6956
122.456
281.382
333.861
320.087
197.502
-24.2795
-179.044
-248.033
-232.51
-64.434
109.36
106.923
147.928
228.553
276.849
247.225
53.1545
-118.491
-359.557
-615.329
-518.884
-282.891
-70.8881
98.7503
171.055
94.5786
-40.6716
-118.534
9.60517
156.861
164.549
109.556
113.513
114.824
83.9982
-23.2877
-74.9778
11.2937
182.971
318.201
230.037
-79.4285
-268.331
-338.697
-315.797
-167.71
-16.8346
70.3262
79.7654
73.8941
95.2358
35.5177
-64.84
-153.481
-100.043
48.0199
74.0419
-24.8677
-68.0921
-51.9666
-114.985
75.6457
193.434
153.558
127.655
117.436
193.208
324.584
161.821
-45.388
-132.893
-255.298
-323.715
-145.425
-77.485
-131.556
-10.9495
18.5822
30.4671
-2.90862
-29.055
11.2139
109.504
156.157
134.032
81.878
-24.4626
-80.1009
-35.9127
4.38934
-30.7547
-54.9704
36.0862
-11.9568
-130.732
-19.5465
60.7757
45.6099
22.941
2.20925
-11.0798
-28.3104
-180.669
-269.789
-128.429
-10.1575
96.2872
146.055
160.565
174.875
193.35
78.0265
-14.5013
-74.5432
-64.5686
-5.70635
-20.0301
2.8228
-4.1198
26.6585
87.667
116.79
115.195
86.3612
6.76124
-39.1499
-98.0956
-244.705
-235.393
-188.747
-148.793
-13.2683
99.2729
103.095
103.8
75.5387
-76.0111
-118.165
-5.39213
95.0305
91.2776
24.2942
87.4208
119.037
-10.4213
-75.6711
-60.0087
53.051
86.2269
110.67
61.4394
30.0663
-62.1383
-167.464
-235.251
-231.04
-58.849
44.3801
32.1851
-25.9139
25.8301
39.7313
-103.894
14.4209
298.924
355.491
193.434
-8.51209
-137.852
-149.342
-149.102
-52.594
64.7641
109.684
80.5537
41.5639
18.3977
14.2526
-59.6851
-106.538
-78.6137
-62.5097
12.0731
-13.0965
-107.06
-112.661
-23.8065
-15.2873
-72.7404
-71.7524
8.07415
22.1025
171.031
226.131
225.751
152.307
36.7511
27.2587
80.3169
6.66252
-142.167
-65.563
-27.9031
-154.025
-210.371
-140.799
-98.354
-67.5945
41.452
109.031
108.059
1.97338
-151.786
-116.455
-68.1309
15.9603
124.378
139.337
130.149
119.192
26.8397
-111.613
-51.552
75.2858
201.202
125.868
-12.922
-182.764
-163.668
-67.6783
42.1477
112.272
88.5657
-9.12965
-39.7402
49.0988
39.137
-123.71
-214.69
-133.608
-30.8808
1.81169
22.6917
102.099
120.083
95.1388
97.1101
189.461
147.559
-7.80054
-195.587
-197.478
-175.197
-52.799
60.3968
-37.6276
-90.9726
32.4394
89.271
53.4564
86.7627
91.4441
62.9051
-15.9342
-111.003
-142.292
-83.9305
-68.4059
-54.793
-27.2165
72.7618
71.3695
32.3292
50.5149
146.1
195.379
182.08
52.0174
-158.007
-230.638
-198.934
-215.686
-195.664
-26.575
47.1311
5.28177
8.58753
130.126
216.619
154.399
48.1908
62.6872
124.257
33.4625
-64.4538
-58.4973
-48.6714
6.67087
99.2735
142.146
126.619
140.421
146.855
-33.2145
-195.697
-189.786
-117.494
-22.0866
-35.7471
-48.4766
48.9117
-5.06962
-274.061
-435.242
-440.584
-384.373
-231.477
34.31
243.176
356.561
326.05
243.672
152.47
95.3405
41.1319
162.689
194.031
1.01117
-125.98
-48.9928
64.6497
134.559
208.905
247.761
209.194
96.4837
-8.42157
-115.935
-165.024
-182.772
-242.811
-257.858
-116.922
-1.04444
31.1423
-7.82825
32.2992
73.2007
30.5009
-57.3947
-131.129
-108.188
30.7154
135.72
84.6606
-95.5907
-264.028
-277.911
-326.72
-310.202
-79.2059
189.885
315.465
293.953
236.764
16.6754
-202.288
-297.733
-84.9562
99.6248
116.408
131.809
202.65
183.87
182.094
299.747
355.59
259.981
191.905
144.305
38.0023
-135.216
-302.525
-331.124
-291.157
-95.9444
99.3189
232.955
154.031
61.6829
-10.3643
-155.439
-343.308
-423.789
-359.148
-279.013
-230.299
-172.285
-31.4552
109.148
152.32
186.826
189.533
111.044
91.4675
129.856
108.103
170.184
146.551
-8.09862
-235.217
-252.674
-74.1904
111.646
199.334
234.23
268.229
219.632
116.238
-59.2121
-213.497
-281.312
-329.24
-236.662
-73.9573
55.7506
93.0305
47.9231
24.0699
136.605
352.972
337.816
137.104
29.7007
-64.9829
-141.076
-225.37
-231.581
-210.675
-208.127
-150.935
-66.9471
5.03911
81.014
43.4532
-15.1874
-9.51118
-27.1302
45.805
64.9574
72.9271
48.0972
139.882
66.6464
-80.4253
-109.077
-47.0694
-21.9092
69.7167
258.949
340.807
363.493
270.243
242.511
284.348
6.74832
-329.872
-433.806
-514.625
-520.623
-522.121
-402.688
-226.987
33.8384
223.463
314.19
397.423
340.229
135.104
-8.84174
-50.6311
-151.076
-132.749
-134.012
-79.9886
60.5905
175.431
169.203
137.046
117.998
231.925
381.021
166.079
-76.2381
-116.522
-149.075
-284.629
-364.731
-172.357
-112.122
-127.965
-49.413
21.5582
74.1009
29.1059
78.709
126.508
134.105
13.9041
21.8139
66.2061
22.996
74.1231
69.8892
27.5642
-69.6235
-118.396
64.8507
139.782
151.227
112.479
24.3834
-105.426
-224.895
-285.9
-253.765
-162.011
-89.5758
-3.42365
38.576
35.4561
24.5445
-1.36775
-38.5642
-41.9128
40.1987
134.854
174.764
134.524
37.6464
3.66632
92.0943
121.046
223.403
120.553
-41.7926
-168.088
-156.775
-11.0215
32.172
-21.322
-16.5949
64.1406
102.372
55.8118
-81.6471
-60.7594
-26.8932
-122.769
-128.34
-74.0953
-16.3376
16.5805
-56.5369
29.2968
33.3475
15.9212
10.4996
13.3508
-52.8101
-73.7471
-23.4053
-36.2159
-55.5482
-27.5939
66.3874
-5.16196
-74.4116
127.457
302.743
117.966
-152.964
-35.2612
-31.5797
-55.6073
8.39555
49.4154
86.8603
112.313
150.848
102.876
67.8316
-80.4304
-65.8172
-84.5982
-206.357
-87.9357
24.3883
-98.2854
-203.152
-49.4924
153.645
123.567
70.5757
10.85
-51.2926
96.5625
156.134
10.6145
-206.108
-231.284
-260.041
-89.5743
68.2725
141.365
270.819
243.103
90.9607
-20.131
-130.245
-190.112
-140.173
8.67952
90.7857
85.0923
90.0512
50.4882
33.1434
69.7168
94.3191
70.1199
-30.6773
-68.3227
-39.1496
44.2085
15.8143
-63.4721
-124.762
-144.818
-19.1705
75.6745
-17.4007
-107.157
-73.8905
-76.0438
-78.8752
-28.1317
-84.8481
-133.469
19.5605
113.729
204.573
161.182
-27.0738
-78.3235
72.5665
99.1231
175.14
209.289
70.4222
74.1053
111.194
-1.98179
-182.238
-162.807
-39.9741
-81.995
-122.86
-131.697
-42.5196
70.7192
49.4468
12.2069
53.0812
-63.536
-88.6006
-54.4596
-52.7329
24.9366
85.3056
-33.4701
-154.247
-33.9141
132.858
214.585
153.674
107.278
52.9103
60.5318
-51.7096
-193.168
-156.819
-121.508
-73.4314
79.4955
143.428
167.374
58.1154
-127.77
-215.657
-181.203
-65.9191
38.6301
-3.72264
-93.606
-55.0047
45.3898
139.674
169.977
70.5081
16.1602
51.5466
196.256
238.074
120.126
-61.2298
-189.04
-247.31
-218.603
-83.0735
107.565
139.214
69.25
144.365
20.341
-41.022
-3.56389
-11.3521
12.362
92.7989
166.557
73.6763
-192.921
-357.06
-377.8
-314.941
-142.098
26.0213
220.554
308.769
289.793
249.799
139.127
-149.956
-326.241
-250.427
-122.866
7.79869
109.595
275.628
297.141
91.3434
-85.4925
-192.092
-117.199
-77.862
-106.41
26.6539
160.05
180.358
228.687
177.996
43.3103
-95.3578
-65.0545
-66.7634
-194.654
-135.918
-59.3006
-165.312
-142.431
25.6557
61.0138
32.3592
8.48737
-3.26992
29.8518
124.081
61.145
30.1213
-51.3535
-109.388
-71.2839
19.3083
11.7825
66.7477
124.302
109.609
-10.2622
-142.703
-74.0135
110.174
102.483
-43.8966
-15.1213
152.186
154.166
-90.0765
-211.239
-114.662
-52.1364
-19.8521
82.6881
91.8653
-4.85417
-58.1822
-68.9572
-32.1594
85.7063
131.089
33.6925
24.9867
117.197
211.69
197.718
-47.0367
-207.156
-270.872
-262.75
-214.221
-90.2798
36.099
45.8278
40.7517
75.7596
136.381
130.835
120.507
29.0768
4.15344
-25.6788
-180.827
-219.644
-91.8528
-52.1258
-30.4895
52.4642
98.9686
56.4517
77.8351
205.962
204.412
63.4629
-34.7383
-163.428
-232.867
-158.663
-35.4162
-50.0967
-34.296
15.1719
77.4958
104.836
55.8772
-16.6072
64.1085
144.964
175.551
178.194
69.8506
-79.4016
-134.246
-23.1678
68.8945
31.5098
-84.4648
-113.567
-136.914
-103.355
-68.3289
-48.668
-15.555
56.432
70.9963
70.3392
147.121
69.3829
19.4789
81.4956
-69.9432
-322.485
-310.416
-126.057
-67.561
36.4666
296.387
294.586
37.1886
-171.968
-234.751
-134.492
30.1028
138.973
62.5962
-109.698
-144.465
-95.4032
-9.62169
216.411
383.768
266.758
94.6275
-26.6256
-50.7521
-28.0006
-41.4796
-73.9116
78.6239
260.613
210.036
75.9447
-31.2401
-84.576
-78.8947
-8.81543
-24.7261
-33.477
-91.7451
-191.988
-256.261
-226.143
-118.622
-100.82
-103.735
79.0822
64.2701
16.4435
-74.7231
-72.2348
-29.5262
68.8157
56.5525
-58.0788
-41.0195
96.7678
160.484
143.704
146.044
48.9164
-37.6077
36.462
55.8072
48.4676
69.9142
-51.3972
-104.65
54.7925
92.268
4.5477
47.7983
46.0444
45.719
98.0012
37.3123
-128.783
-227.245
-234.397
-247.789
-59.9999
88.0947
177.802
138.396
66.6807
41.9127
16.9353
60.0916
30.2115
-45.9571
-52.3951
-112.046
-63.7661
-49.0045
-211.264
-119.373
34.2518
39.679
83.9271
136.05
87.9715
13.9752
0.815995
25.7791
67.8397
48.7162
38.6178
60.9115
88.0758
122.417
15.3507
-83.9619
-189.306
-182.07
-49.1574
32.9005
25.0452
26.1702
16.6557
-47.6356
-99.8636
-56.6658
-50.0557
-14.6553
77.9029
127.865
127.366
113.47
5.67148
-100.832
14.7899
118.95
-102.292
-182.675
-76.2459
-53.1049
-57.8085
-80.9687
-30.0685
165.255
177.936
6.4734
-27.8386
126.22
36.6397
-74.3447
39.7547
-17.2574
-120.001
-151.029
-86.1604
41.7195
147.75
145.724
71.5463
21.1528
-24.3205
14.8199
65.1609
-17.963
-107.11
68.0899
156.156
8.64976
-109.521
-115.904
-151.084
-150.601
-85.9633
10.755
17.4941
-13.2281
42.6737
71.7187
50.3944
64.3025
138.66
102.97
-0.544878
-7.29426
23.8122
54.1475
-13.2121
-205.841
-143.296
-40.9875
-16.2417
-1.25017
-44.1936
-4.19558
-28.8606
-35.0593
70.6068
120.393
96.296
21.3563
17.5252
203.893
263.37
2.11017
-256.476
-387.287
-264.143
83.6978
198.671
107.38
-0.391833
-90.2439
-121.703
-76.9305
98.1146
133.508
53.104
-25.4157
-54.2049
-0.240796
17.3279
-85.1664
-166.437
-44.9228
163.661
214.274
172.806
107.146
69.3627
11.8142
-43.3024
-87.4409
-11.6002
193.057
131.66
-23.5748
-99.4082
-89.3665
-24.0155
-73.7747
-115.875
-160.059
-157.571
-104.951
-105.417
-87.9657
-32.651
-55.472
-56.2872
1.66249
19.5429
80.0217
170.446
123.844
156.286
207.958
153.241
6.18541
-18.5684
-39.4752
-107.707
-111.747
-46.6243
52.6309
87.9136
30.295
-38.4905
10.6671
26.5383
26.2866
44.3736
45.2838
-71.8958
-137.407
-182.089
-179.189
-60.8045
38.6899
104.496
219.709
215.982
-8.01888
-178.413
-109.959
-1.80592
46.8213
70.3425
82.4329
115.619
121.334
55.8183
-58.5453
-67.3813
-15.6943
-147.382
-230.972
-135.857
-62.907
-65.8054
-44.026
27.6639
126.411
127.549
68.4514
47.606
124.191
128.371
59.2847
-57.2616
-124.242
-160.398
-125.936
-64.3216
-53.1642
48.3275
141.274
124.5
126.169
101.417
53.1891
-40.8258
-140.403
-145.748
-72.1758
-17.03
-22.3243
9.44939
49.2057
28.5971
-15.5565
49.993
70.6191
12.1342
-71.7459
-107.044
-52.1578
7.58295
26.8373
25.1589
84.6153
137.934
198.96
219.511
42.5025
-155.082
-214.95
-185.133
-165.445
-92.8196
52.8929
78.5681
83.3376
118.93
34.7019
25.0214
57.9295
-9.9791
-14.2826
26.4397
-23.3243
-56.6977
-117.51
-124.124
-89.1572
-54.8762
-12.886
26.0925
9.10894
-24.4029
-28.906
-23.1966
43.1788
69.6726
116.478
195.005
303.559
231.626
28.8437
-268.378
-472.272
-457
-189.296
-52.611
95.9372
223.845
254.992
205.665
51.2961
-57.4966
-99.975
-32.7089
31.0937
48.4117
30.1181
-19.8663
-119.35
-58.335
76.0954
273.225
389.66
333.102
190.414
13.6457
-194.929
-326.412
-345.453
-289.171
-111.459
57.5618
95.3833
67.1585
14.9331
-89.3024
-99.2738
-42.5923
5.48569
26.8553
24.8558
80.7102
-1.2676
-106.936
-161.984
-104.126
77.6816
127.684
130.778
150.44
30.9897
-69.3126
-28.3756
-21.4414
-30.0469
1.60141
-33.3169
-61.8535
-111.466
-94.19
-21.0708
-17.7943
17.5462
117.828
257.516
332.624
251.946
171.579
-25.1912
-266.759
-264.762
-110.232
1.35526
6.18953
-14.7784
46.369
76.2297
35.2895
-34.311
-71.9434
-64.2409
-136.572
-63.129
-94.2271
-174.946
-76.343
-111.791
15.0713
268.263
354.186
300.106
108.029
-170.505
-260.865
-208.38
-6.09433
75.9634
88.5684
66.5263
-34.0054
-48.7459
61.8863
22.4424
36.3601
11.9746
2.66638
-22.1928
-207.437
-203.621
-1.38456
107.353
135.651
123.133
84.9234
25.6299
-89.8674
-39.7181
32.9848
60.3318
47.8892
7.67308
37.0577
41.9669
24.0892
71.7867
67.1216
-21.8495
9.15609
-75.6637
-157.578
-115.389
-41.3955
22.4092
39.2302
92.6575
118.033
24.0544
-91.61
-170.578
-179.677
-234.078
-277.247
-112.645
137.061
219.586
78.0399
-0.881139
78.1108
74.0052
2.99166
21.8179
77.1899
218.937
183.832
-0.188413
-162.456
-261.988
-262.312
-152.639
-33.8999
79.0882
142.453
173.629
102.705
58.2149
85.1849
187.555
132.137
74.3466
47.2039
-39.2364
-104.125
-100.978
-31.7128
62.5682
53.4006
48.7274
-5.53402
-43.8996
18.1377
54.5108
-45.1333
-158.764
-174.716
-110.316
-46.2932
-49.0696
-73.6977
-60.0643
13.8433
53.0065
-3.94647
-89.3035
-47.7509
-46.9889
-68.7387
-10.2418
110.577
186.244
176.758
117.179
55.6412
-12.7739
-28.353
-46.7705
-53.3328
-40.5619
-12.1291
11.1749
-32.489
-18.9248
28.8152
24.283
65.0379
128.738
143.799
143.777
31.12
-130.329
-237.325
-283.184
-274.968
-199.492
-100.855
8.18181
76.0085
122.546
148.113
114.811
89.4751
99.9177
122.252
124.882
87.1111
82.8244
121.514
118.252
44.4091
-76.5074
-18.4493
78.1623
83.9397
2.46156
-20.6417
-42.0934
-40.0191
-40.5254
-136.687
-295.42
-362.008
-338.929
-275.111
-101.597
41.3895
71.929
57.4312
86.5289
210.283
234.457
111.647
57.1675
133.694
316.801
283.997
1.68864
-292.069
-298.534
-235.874
-155.343
-83.7459
-35.5973
85.0233
165.021
123.631
0.743583
-43.6507
-29.2397
-70.0559
6.64672
87.4809
133.55
152.548
38.4846
-10.4011
13.3353
22.523
90.5115
115.738
182.346
245.148
148.811
-65.4812
-274.614
-335.604
-250.146
-185.865
-46.9617
-4.74483
-29.5282
13.8945
16.6539
-121.344
-157.165
-126.13
-37.3991
84.7271
67.5583
91.4941
67.3461
9.1301
-48.3495
-22.7379
33.3282
75.8895
197.734
190.966
-2.87996
-28.2651
3.18596
-42.1834
-100.393
-94.8796
-92.1265
-36.6348
15.0246
125.382
241.629
249.664
147.913
-61.873
-117.049
59.7502
79.5491
13.8479
-55.2609
-137.618
-193.331
-148.034
54.946
-15.236
-199.89
-149.535
-38.4263
-23.9816
-19.7142
34.2155
17.3922
-4.55432
66.4222
179.747
236.048
189.352
140.689
30.4432
-24.5569
60.1646
20.3715
-106.821
-188.915
-135.745
-32.5015
7.91114
-6.0303
-32.4732
-16.4264
-34.2515
-97.7443
-72.5848
-37.5176
-12.3867
53.6862
13.5498
-26.2272
-42.532
-183.673
-98.6103
42.9653
89.1015
56.9133
188.191
319.842
115.224
-147.874
-182.384
-52.0762
-89.9217
-96.922
-33.834
16.0999
38.7049
83.2027
99.7934
54.467
7.99233
22.4678
-23.8777
20.5985
146.256
138.901
45.5162
-46.6774
-69.158
-4.20137
29.0768
37.9696
112.819
135.108
71.4468
21.3793
-6.44452
-102.934
-198.591
-214.515
-162.572
-102.609
-90.0642
-73.1892
-60.3175
9.29063
15.2599
67.4887
225.132
194.752
21.5599
-94.8094
-127.731
-70.9827
21.2475
126.211
202.573
143.951
-121.297
-359.56
-277.885
-153.287
-101.155
-61.0235
-1.11318
60.4871
169.05
176.992
121.225
98.4672
131.953
173.661
175.158
72.3664
-69.6151
-206.254
-291.546
-211.617
77.1085
342.438
359.65
217.326
76.941
-51.825
-74.126
-43.5473
-199.245
-231.132
-98.5742
6.78423
25.1741
-65.574
-114.23
-103.122
-67.5553
-12.4226
102.227
155.455
79.1295
89.6252
-11.6584
-136.87
-176.799
-115.968
-14.5317
-16.2538
34.5361
84.3165
47.3172
46.8371
14.1118
6.84255
66.7672
159.764
193.275
11.1811
-205.23
-250.497
-174.472
-158.877
-163.376
23.8862
143.516
79.9846
32.0447
55.4941
66.0442
49.0847
80.7855
130.943
174.535
146.729
71.8586
-7.50247
-88.2183
52.8529
231.587
142.777
18.6246
-155.257
-111.325
32.869
60.162
11.8548
-72.8603
-201.592
-226.98
-228.515
-207.44
-152.996
-104.528
-38.3789
-26.8903
-2.20215
78.2076
198.448
148.534
17.6703
-88.6021
-80.3008
-76.1681
-102.737
-0.0132983
123.871
126.83
69.5661
48.1355
165.133
225.27
157.036
144.985
122.361
81.3835
-10.2599
-179.115
-448.743
-468.654
-299.208
-77.8106
196.991
362.212
236.495
81.5599
41.1987
74.3911
54.1906
17.1005
-0.624899
-40.4086
-90.5567
-131.572
-149.021
-41.5564
91.2307
112.615
166.887
145.125
83.3562
49.3277
-51.2906
-154.669
-94.8596
-60.2155
-6.68013
-111.336
-89.4677
28.1436
-1.42494
-109.162
-182.04
-166.742
-77.4576
4.11369
-39.3733
-90.0284
-81.5021
61.6877
238.913
239.974
237.898
181.489
87.7776
11.9465
-53.0694
22.4965
118.01
25.4212
-15.5615
61.098
-9.03275
-68.9891
-65.8293
-165.767
-183.983
-98.6723
-4.50671
49.6986
-14.5964
-9.07939
-16.0348
-9.4164
29.6543
12.6328
-38.2102
-89.1494
-30.7839
87.2742
148.079
84.204
84.3423
108.419
103.492
50.0068
-40.37
-36.0433
-8.03842
15.8473
-13.8365
-96.172
-99.2145
-34.7448
7.91387
65.8071
30.7671
34.4063
-33.9972
-154.886
-277.4
-248.134
-62.0043
38.8104
33.985
13.0229
-13.8849
10.4256
66.7095
31.1335
74.6009
192.866
184.744
138.071
147.5
36.5002
-126.88
-157.211
-57.5067
52.6807
56.3018
-30.5378
-42.1658
40.5395
113.474
85.2818
111.436
59.9699
-117.395
-257.293
-239.055
-233.922
-205.627
-79.3685
-17.3083
143.03
332.496
171.081
-129.261
-83.2676
44.3083
131.383
76.4746
18.9046
-14.0647
-56.986
-38.0256
54.7471
136.508
145.052
80.1846
3.20214
43.5708
7.13619
8.05935
54.6586
111.618
118.336
-48.1357
-317.767
-309.525
-178.966
-43.2409
-64.0985
-112.209
-49.5198
88.4184
175.742
143.338
22.345
-31.0193
-108.367
-130.591
-50.7265
-74.6845
-115.647
-140.44
-60.8108
150.286
229.049
191.943
137.441
109.698
103.912
39.5901
-27.3996
-148.089
-111.302
-64.1199
3.88861
24.3758
89.3175
68.8864
-47.6176
-64.441
7.92331
68.1197
69.3342
2.87179
35.8443
64.0049
39.2132
26.7871
5.85296
-42.4996
21.4099
61.782
-58.781
-161.059
-149.675
-92.3937
-53.9524
-30.0044
30.4231
32.801
4.3509
13.5184
9.56451
33.8233
20.4232
-13.2469
68.3354
55.2703
-3.30984
49.4111
-1.38537
-100.786
-121.813
-10.799
31.0735
-2.85698
-5.04444
32.9097
53.3463
51.442
-26.0089
-117.606
-41.2636
91.85
61.8691
-32.8164
-76.135
33.2194
92.6269
0.0565003
-80.0803
-86.5888
-91.8274
12.7101
231.058
293.259
195.322
5.80444
-104.046
-114.141
-45.8751
-67.4854
-95.7434
0.516782
33.1221
-107.988
-140.346
-115.849
-134.787
-98.5461
84.1598
166.306
151.481
80.9104
-52.2516
-53.3142
22.7191
116.58
182.788
118.763
10.1644
-48.0395
-93.2686
-114.134
-17.8907
130.686
148.454
15.4208
-48.3514
-45.491
-70.9241
-169.479
-173.725
-88.2173
-92.8366
-110.561
-48.2719
-1.28332
-16.1049
-1.31659
16.28
129.488
207.826
196.919
105.384
30.4094
-21.7239
-78.8744
-78.8133
-45.7203
20.7393
105.889
113.995
61.1601
-23.7715
-28.3158
20.2404
33.8644
-46.4003
-32.0587
20.8234
64.6933
25.6533
-92.5998
-113.504
-73.1738
-73.2491
-9.87935
16.7242
57.0183
40.5641
109.396
212.499
149.6
-11.5472
-144.076
-199.319
-177.804
-176.208
-243.645
-245.355
-162.539
-10.6273
147.22
268.896
241.897
151.81
113.272
-11.7719
-37.0295
-39.6255
-164.489
-163.073
-150.379
7.64395
200.447
157.23
77.7128
104.258
155.712
172.697
132.317
86.0337
-28.3168
-158.759
-114.353
-51.1112
-35.3942
41.6673
58.7122
82.195
97.768
27.6553
18.6122
-50.0931
-118.214
-96.1301
22.625
70.4344
-12.8656
-93.5085
-227.161
-332.899
-267.841
-230.38
-134.745
60.388
144.557
117.806
2.88709
-163.018
-73.9004
116.018
216.97
248.532
194.31
156.044
79.0772
-0.605396
33.1251
53.4277
92.3808
153.459
157.836
123.406
-66.6286
-198.737
-173.298
-48.3593
19.1808
7.12765
-56.6093
-177.368
-170.439
-71.0691
15.5941
89.8461
31.2855
-112.212
-66.3748
30.5894
21.4564
-57.805
-65.528
-13.0288
77.3191
106.686
101.805
102.211
84.8608
57.654
-11.6962
-82.7062
-73.8676
13.3794
-19.3472
-73.4557
-65.1663
-14.5057
-50.4826
-75.2732
14.1204
20.4604
-33.8226
35.3254
120.893
100.901
-6.83272
-110.579
-137.221
-31.2775
110.914
153.199
94.0999
3.95066
71.7662
65.9707
25.5699
44.2976
20.6859
-57.7299
-92.3092
-42.7042
68.1544
119.827
59.0819
-66.8594
-176.513
-205.917
-175.174
-95.9109
-40.7074
35.4512
41.4628
31.231
-39.8481
-78.6948
-38.0932
69.6929
124.457
141.251
93.1343
86.5618
-7.69722
-117.582
-119.762
3.98015
162.951
201.803
184.254
23.3376
-140.81
-166.823
-177.959
-69.3638
0.854509
92.5192
94.0017
-65.7783
-85.6064
-88.6107
-64.7304
48.8042
119.89
96.1151
3.42421
-40.3372
-14.9519
41.9376
44.8659
45.5753
73.7178
48.2903
33.9883
13.6934
-12.0413
-106.752
-166.382
-130.671
-38.3898
68.93
119.373
160.415
91.6574
42.2085
9.02101
-15.6175
-139.99
-285.164
-384.527
-283.848
-48.8155
29.0639
100.476
124.383
115.406
162.893
266.772
287.802
195.333
41.2448
-38.5562
-126.581
-131.239
-115.878
-95.4367
-21.5401
46.7414
78.8529
204.945
232.035
143.663
89.3877
52.7188
-23.0787
-100.89
-127.483
-187.082
-206.613
-276.772
-210.033
-165.626
-190.426
-111.823
-41.504
23.7159
40.9006
57.002
161.942
199.324
186.424
121.616
35.3015
7.67185
1.28241
30.6983
17.4154
2.55223
34.0913
109.741
71.1127
11.2222
-107.37
-66.6146
-0.22213
75.7042
83.9185
67.7538
3.0213
-44.4629
-64.2276
-94.9359
-83.0049
-121.988
-154.675
-109.575
-69.9789
-18.6224
79.3313
98.0654
124.297
201.938
202.002
44.2562
1.47883
18.1734
10.2166
61.1122
86.8106
-8.90931
-91.5167
-133.605
-177.848
-173.732
-115.928
-72.4045
-78.8106
-54.418
-40.6092
-29.2455
-17.2601
60.1006
236.244
308.564
83.5895
-151.925
-162.872
-110.372
-68.5261
40.2009
27.3128
-56.7545
-16.5407
147.466
183.359
155.586
142.225
70.3243
24.4739
18.0475
-3.72676
-66.3769
-59.7531
-30.0082
36.1296
80.1707
11.1506
-72.8156
-81.1064
-91.9145
-37.0566
-3.01819
-15.3079
-28.2916
-23.6685
-67.9093
-99.7719
-118.94
-78.4612
-156.742
-151.767
-30.5706
29.554
7.83162
20.6587
2.8848
74.7886
126.549
98.926
118.432
151.02
246.268
220.967
57.1677
-11.2268
-60.8758
-17.1233
50.84
10.8009
4.66248
-11.4949
-68.5931
-123.75
-140.698
-132.594
-29.001
15.0929
32.9414
55.5332
5.07483
-77.8727
-175.776
-158.457
-64.9325
-56.4392
-16.2531
53.502
117.954
91.6471
101.497
156.931
126.98
39.3842
-47.1602
22.0956
75.3274
-43.7176
-112.187
-120.606
-94.091
-51.7337
-18.9714
35.7698
73.7299
103.285
109.852
-24.2643
-107.112
-15.0984
44.7952
-11.4481
-81.7852
-68.2313
-2.34608
23.2967
65.2793
7.28546
33.2643
100.991
105.671
93.2304
28.4615
-34.8263
-88.9521
-88.9327
-134.683
-121.281
-50.3981
-18.7083
75.6917
94.3306
41.8502
-4.39246
-10.0687
-25.026
-40.1106
-50.7073
-52.2801
-35.808
-16.1191
-9.13876
28.3302
71.3923
97.028
82.6044
167.422
187.447
83.8394
-151.097
-208.676
-63.0264
-69.9679
-179.135
-154.52
3.0594
17.3799
3.21858
-52.4684
-5.11661
65.6933
111.43
167.047
170.606
114.243
56.4648
13.876
25.4345
31.9199
95.3232
-0.209859
-145.998
-156.755
-75.0321
-9.07331
18.5087
-8.38819
-2.15588
-14.3341
-70.612
-95.863
25.1071
69.0595
-7.73524
-123.284
-84.1127
-54.6527
-109.663
-43.3571
28.2713
77.684
25.5294
20.0377
90.8575
67.049
-4.79677
5.42263
29.6957
65.7045
121.44
49.5116
-86.9603
-137.92
-90.0274
-3.84222
20.9179
94.5496
130.073
88.7865
127.133
104.736
44.7119
-13.5066
-91.468
-104.507
-84.277
-96.5025
-66.0414
-53.4891
-49.1515
8.61018
42.7421
96.1742
76.6537
33.5864
-55.4376
-156.802
-111.825
-24.3762
-32.2373
-56.1582
-29.078
55.1238
142.343
116.462
21.743
22.4928
49.8288
59.2201
-31.7949
-89.0367
-75.4192
-84.236
-60.9954
42.2623
198.496
207.115
173.873
86.3054
-38.5865
-153.479
-345.634
-337.689
-167.287
-61.9743
15.3568
0.0234722
14.92
55.7775
91.6489
145.164
153.064
137.184
107.083
80.8055
-9.68793
-30.285
24.0538
-5.18717
-18.8976
60.2593
232.306
170.006
13.4974
-37.1903
-137.535
-183.85
-110.089
-62.3927
-14.3389
-22.1638
-37.2645
-64.2144
-105.05
-136.193
-110.409
-51.4075
-10.9615
12.4313
20.676
31.4393
63.5689
124.701
81.2647
23.4541
25.7189
88.8837
64.6535
-43.6957
-95.5739
-116.38
-132.103
-76.9348
31.7425
107.916
138.981
101.144
7.66471
-65.531
51.3557
87.0663
96.7627
104.809
98.0209
53.8624
57.9213
48.9773
-134.433
-203.693
-231.111
-186.348
-81.7818
15.1099
111.35
108.03
0.278954
-36.311
-45.7248
-4.20299
-39.8271
-51.5061
20.9444
54.9998
34.0711
52.749
125.607
96.6981
109.544
83.8783
69.2184
49.7487
-44.2009
-150.706
-202.343
-226.549
-103.481
0.561633
47.8964
57.4471
-11.3691
-24.1889
1.36404
22.3606
38.8952
-41.8463
-161.376
-128.752
-25.8037
64.0743
91.993
186.552
227.544
167.271
139.892
156.857
43.2247
-119.001
-214.504
-176.421
-91.3307
-47.3949
-30.0118
-17.2799
-71.1038
-50.1171
-32.3683
-26.476
29.4567
53.0572
58.2416
34.1597
0.916193
31.4843
-2.03516
-13.1744
24.1088
65.8301
105.719
65.9057
58.998
87.7026
12.5643
-63.5877
-47.9479
2.72186
8.83757
-25.1341
-59.1218
20.3322
4.29954
-57.3355
-74.0967
-136.929
-132.337
-67.3362
-76.5558
-8.14882
65.4221
19.9198
4.13462
37.8365
103.01
126.342
14.928
-101.68
-26.6029
39.4205
45.2065
19.1925
38.0065
33.7736
32.9572
65.177
40.0508
-42.4677
-57.331
-16.8387
-9.70716
3.35618
-102.099
-188.341
-123.315
-11.1239
93.0152
127.511
167.23
175.589
101.499
-7.40712
-68.2132
-67.4365
-52.2101
-0.255169
55.6331
43.9425
29.1305
-76.1452
-182.243
-84.0795
59.6499
74.7852
-41.3301
-81.273
9.40294
55.564
-41.4281
-69.7139
-7.41428
39.5586
36.3715
29.9388
107.209
108.737
-44.8418
-89.2875
-9.45767
52.5928
6.17699
-76.9726
-32.6581
12.3417
-4.74106
-40.8235
-55.0996
-24.0943
-15.2477
-3.5627
28.9649
13.5807
-7.46294
22.2328
-12.5731
-54.4732
-26.9039
-14.0619
27.5792
110.947
175.179
189.337
81.1175
-26.6634
-109.351
-209.345
-231.288
-126.957
-26.4208
37.0667
55.4519
61.1569
80.573
91.0314
30.5542
30.1158
59.6519
44.7519
-25.3007
-78.5008
-26.7313
2.90786
42.0247
73.1895
116.831
158.407
131.635
38.4742
-47.9454
-66.4398
-91.3927
-147.186
-99.8875
-37.7421
-29.0642
-26.2263
-6.13458
-72.9728
-171.678
-202.303
-159.388
-141.297
-104.263
43.8865
131.074
151.134
191.301
192.077
152.145
19.5891
-3.95356
29.4849
51.9838
-2.39706
4.00201
22.635
38.1919
60.1073
47.5347
17.1528
-27.5559
-16.0972
28.702
38.5602
38.6745
-109.429
-172.328
-93.2975
-126.478
-127.595
-129.018
-106.486
-21.8131
38.9397
17.0718
19.2759
79.9377
132.036
139.177
119.833
130.493
97.3475
53.3905
-28.1907
-76.5282
28.1011
55.3719
36.1314
90.2697
51.7403
-17.385
-28.4226
-86.6746
-168.162
-133.951
-132.458
-217.896
-153.204
-16.5458
65.0593
99.6425
90.3233
-20.0085
25.1422
47.6526
-59.1992
-84.0091
-23.1985
47.9074
95.063
97.3885
73.1362
29.7679
44.7719
24.7161
30.5306
84.7402
69.8626
6.80502
-3.74174
5.70735
12.1496
-8.57547
-101.662
-140.037
-84.6403
-92.8689
-100.51
16.044
100.161
112.562
119.617
93.0989
15.6884
-10.1643
-45.8036
-78.1029
-103.132
-109.501
-53.9806
-4.33146
5.75489
55.8303
38.4113
50.3574
101.117
104.294
109.751
26.3994
-59.7724
-80.8463
-98.3482
-123.891
-102.407
-77.029
-62.9925
-3.69421
43.0098
56.1554
-10.4742
-72.6972
-86.4537
-7.3817
96.1484
123.984
129.841
154.832
95.8967
-54.3402
-134.664
-117.375
-3.37101
126.27
194.267
212.817
159.45
-4.46175
-97.2356
-93.8819
-23.8464
-73.8835
-133.412
-69.7431
-6.8313
225.289
366.384
236.245
-76.8494
-356.396
-475.955
-467.195
-435.83
-267.602
-138.617
-62.5121
60.5426
156.783
173.095
273.182
247.255
153.04
100.87
-37.2123
-126.032
-170.155
-139.919
12.1848
239.48
472.357
653.837
674.798
493.42
181.495
-81.0153
-318.179
-439.545
-421.271
-302.788
-221.919
-119.208
33.0006
73.3243
15.3197
-58.3834
-176.022
-262.813
-275.799
-263.413
-185.182
-74.3146
-3.11686
58.1516
76.394
96.6063
167.181
205.518
238.226
220.151
127.739
17.5927
-10.2541
31.5195
129.684
145.335
39.1741
-59.5386
-106.86
-140.837
-80.416
-43.71
-95.04
-73.7079
-14.5606
15.5486
69.1809
48.8202
-5.25035
-86.4848
-134.253
-124.549
-113.579
-97.2342
-90.3079
-69.3962
-20.7308
81.498
180.053
189.685
151.321
101.182
97.0951
66.8932
30.4793
57.2398
56.0967
75.8627
154.828
161.408
84.2511
-14.6911
-74.8909
-116.766
-169.374
-174.172
-142.415
-116.725
-125.216
-123.899
-150.948
-117.057
-23.951
19.9422
26.8276
62.6086
71.9148
65.156
56.8327
33.0732
35.5678
85.463
130.549
185.711
213.969
223.059
198.727
96.129
-10.1537
-59.6321
-22.5989
-16.4461
-113.329
-296.788
-396.979
-465.842
-376.744
-149.725
-46.0017
67.8813
31.9867
-19.4274
-24.1178
-8.82227
76.6469
147.122
160.925
174.499
160.772
177.721
162.206
111.813
88.6704
179.022
252.718
254.431
149.275
15.3645
-67.9771
-68.4491
-31.0001
-74.7497
-98.0364
-85.6689
-82.9011
-106.178
-211.87
-245.277
-255.286
-229.996
-207.024
-242.298
-172.262
-26.5254
64.0272
112.965
82.5867
-2.8861
6.59985
22.8796
91.1424
208.209
216.876
105.694
6.84612
7.49535
46.727
72.2244
115.878
158.995
160.166
136.802
65.4297
24.5467
-7.85858
40.5635
91.6497
18.477
-135.863
-239.143
-275.812
-278.466
-169.606
-40.9239
3.50727
-1.84292
28.7528
36.4117
40.4349
28.5595
19.0084
54.8357
56.2486
11.4434
36.6045
64.0622
100.585
148.116
160.267
104.945
-74.5366
-234.404
-271.461
-170.883
-106.03
-54.211
2.59347
23.4039
46.7041
53.6902
74.4119
85.3662
91.79
87.5594
49.6721
-51.0933
-94.7399
-26.6561
3.19661
13.8655
76.2703
107.322
51.7607
37.0014
31.1216
-21.125
-25.0494
36.9147
55.8901
52.5101
35.3905
-76.0554
-206.164
-289.176
-237.795
-72.067
-29.2617
-38.6909
-31.0962
19.7485
100.406
163.449
177.021
104.903
42.3564
20.0102
-19.2068
-57.2265
-43.4169
-46.178
-73.2176
27.1593
195.255
179.154
53.8041
10.8046
28.3615
7.17373
-39.5445
-152.386
-217.744
-180.317
-98.9496
-13.732
71.4109
134.399
195.636
152.357
89.9134
11.2884
-100.293
-189.323
-199.889
-114.245
-43.9721
-26.9847
41.2287
124.434
244.151
363.961
394.797
178.101
-74.0921
-292.245
-362.636
-278.582
-163.444
-131.49
-87.2069
-57.8296
-32.9814
20.4799
44.8636
102.133
123.237
44.698
17.2252
-12.8424
2.40989
-10.1123
17.8531
106.91
183.712
212.547
183.755
132.204
4.53774
-38.0104
-71.8725
-61.6984
24.6051
68.2238
24.2062
-82.5182
-177.45
-113.81
-127.521
-113.51
-66.4655
-70.1316
-143.496
-157.832
-144.397
-91.4985
-32.5576
-67.3228
-104.134
-13.75
110.556
171.689
106.839
81.752
139.929
159.258
161.85
30.3803
-28.7438
-8.71298
-21.1493
1.33997
85.7102
83.6989
97.8872
198.61
188.825
77.341
-62.3149
-131.777
-60.4515
-58.877
-90.5934
-91.3818
-93.021
-60.2476
12.4947
18.8955
38.3919
15.9662
-29.1395
-33.3494
-84.9907
-42.7519
-8.13798
15.1412
11.2761
-44.0058
-36.6614
-37.5783
-134.177
-151.705
-30.0314
53.0237
87.7578
183.061
140.72
76.8592
6.96266
-92.0023
-164.961
-103.617
-10.4724
31.258
10.7243
-120.857
-157.688
-65.5026
117.403
204.87
193.289
181.183
217.826
192.151
110.954
-65.2863
-207.735
-193.199
-141.405
-77.6318
-45.2162
-21.4636
62.1451
-38.8459
2.70931
154.485
207.97
88.0016
-81.1657
-85.8501
-12.8625
-11.1759
-79.1501
-106.242
-128.887
-57.1405
17.9239
48.7423
145.717
143.112
31.5159
-34.9687
-67.0555
6.9958
-25.3339
-123.05
-149.419
-72.3288
40.8641
82.5524
-64.4819
-107.686
-79.6218
0.675281
70.0799
55.6811
73.4653
48.287
-59.623
-41.3135
51.395
58.5774
14.5734
75.5669
90.2805
107.649
126.416
136.451
45.7229
-76.7387
-22.8636
146.546
192.933
67.6386
-141.356
-295.008
-313.507
-241.745
-107.605
-37.4029
13.1627
-20.2082
-85.7539
-58.2736
-39.1969
-51.5597
44.0209
73.2345
49.661
58.4813
75.9126
25.0238
33.9474
78.016
173.262
239.755
218.917
176.052
117.902
31.5264
4.57503
88.5327
122.214
55.0089
-42.7872
-260.361
-443.626
-364.024
-200.676
-73.5897
4.79828
-14.5401
-114.604
-200.554
-177.522
-60.3319
38.0133
73.7215
133.1
169.574
95.2905
31.5125
79.1774
74.4073
87.6819
211.931
238.119
119.466
34.7994
-0.362565
-74.8525
-108.423
-31.1756
33.4031
60.4944
91.1847
27.4545
-58.916
-125.341
-166.179
-141.354
-166.362
-175.905
-87.332
-7.52467
51.8755
54.5576
61.5052
88.4781
39.9959
-19.9496
-23.8828
1.06018
7.0441
13.1565
-37.3068
-23.8608
30.818
13.9215
18.2225
54.3155
72.2482
78.9032
98.2427
102.766
71.7421
67.2554
130.557
119.388
61.2803
11.4028
-138.903
-300.93
-305.728
-256.226
-86.736
75.192
67.1296
3.94096
15.051
51.2472
39.5138
11.8805
-7.47448
-19.1414
10.3712
70.3104
48.2656
-16.7113
-46.4151
-47.882
27.9296
121.646
143.654
85.1072
-64.9555
-161.557
-113.186
43.4128
105.11
66.1963
11.9468
-80.2536
-114.571
-67.2724
0.116091
21.9874
42.2374
78.582
16.6238
-80.8753
-116.022
-96.6228
-64.8853
-27.0481
36.5512
86.2598
126.316
131.207
181.53
160.266
70.8367
-29.7242
-92.1512
-129.597
-143.063
-120.68
-87.1175
-75.2169
-45.1253
61.7757
131.064
132.402
94.7043
88.8899
52.4248
50.3146
2.86868
-102.178
-169.713
-87.5956
-14.0384
61.4743
44.0156
30.6285
-4.82795
-62.5672
-117.159
-103.233
-79.5883
-26.553
38.9611
58.6791
60.1789
49.8788
23.8802
-45.3285
-78.0902
-64.1852
-63.4853
-43.164
-3.14111
47.7346
109.802
102.066
130.89
217.118
191.467
82.2586
11.5511
-38.4125
-64.868
-99.0542
-85.8902
-107.639
-150.513
-179.897
-116.967
-6.10891
5.80932
28.7596
97.5204
34.2843
18.4027
-10.6836
-86.4944
-139.594
-116.537
-76.4398
45.253
203.755
274.163
294.078
229.391
129.229
112.463
124.044
99.2208
-7.5725
3.74107
50.655
-12.5608
-96.7387
-246.552
-312.459
-329.28
-298.507
-203.001
-124.205
-79.0794
-99.0862
-78.3969
-107.531
-171.449
-103.084
-19.5677
84.4052
153.926
127.101
117.51
106.676
156.658
239.145
294.084
319.352
327.261
272.164
180.962
179.688
106.505
-10.7188
-68.962
-61.6798
-18.9285
35.8528
-40.6512
-133.357
-201.373
-252.68
-370.618
-442.905
-440.917
-434.907
-323.972
-142.906
6.75041
141.483
241.101
184.166
133.516
121.604
96.6201
37.2979
-37.684
-35.1255
115.144
371.675
590.162
717.297
778.233
457.591
-206.971
-727.495
-900.5
-793.525
-584.745
-320.552
-107.372
138.19
254.648
87.8327
-186.107
-169.923
7.03571
40.638
109.349
100.698
-65.0157
-73.7483
61.5565
202.909
459.187
878.562
1166.36
932.705
619.867
433.825
-10.924
-524.394
-909.449
-923.65
-723.125
-505.763
-268.698
17.2157
87.7923
-77.753
-187.223
-225.748
-443.677
-481.839
-222.926
-237.859
-360.225
-173.365
47.9319
103.796
204.15
414.869
608.535
729.729
730.906
595.747
398.619
95.5183
-136.365
-176.034
-148.979
-188.82
-125.278
-58.4503
66.6987
348.127
507.378
333.449
-24.1679
-555.912
-873.5
-815.56
-628.97
-559.108
-347.575
-153.43
-32.241
72.5162
217.46
325.527
400.601
320.094
189.815
138.136
21.4649
-110.393
-64.7359
210.643
368.87
404.508
472.137
202.641
68.0681
133.532
-15.6523
-170.752
-217.254
-218.363
-227.073
-246.159
-174.524
-71.0424
-17.6812
105.933
276.506
299.417
33.7456
-262.631
-370.369
-308.603
-172.137
-24.8959
101.803
144.944
175.994
242.123
197.222
82.6843
-72.7425
-162.839
-119.442
-36.4929
24.4031
14.1706
-145.026
-301.616
-328.968
-342.315
-267.158
-18.3279
224.338
439.854
410.871
188.573
82.0587
-47.2809
-77.8988
43.0868
14.7049
102.418
127.215
-31.2293
-157.782
-153.419
-141.623
-45.1529
15.6673
98.7845
166.395
90.0695
49.4024
35.4941
101.99
256.039
396.714
403.277
179.086
-83.1879
-83.5309
-192.884
-442.221
-568.516
-440.71
-246.29
-135.246
-91.1057
-1.00528
135.584
190.082
199.077
133.342
-25.4606
-161.587
-160.726
-196.906
-138.422
21.7665
10.5581
-22.1779
51.9069
172.964
320.776
407.027
335.937
296.426
290.778
148.491
-118.376
-238.789
-293.512
-375.789
-198.308
5.23618
39.303
-98.2798
-219.832
-228.899
-26.605
83.7493
50.4443
60.574
189.297
170.375
48.1613
24.4986
6.53163
118.243
237.131
139.769
6.80106
-138.582
-274.856
-199.38
57.0199
200.795
148.519
5.94673
-96.6323
-103.55
-145.274
-223.611
-400.312
-440.133
-285.153
-83.202
128.907
215.792
212.009
267.818
315.679
382.369
368.705
201.414
5.04094
-15.8326
81.1945
110.736
52.9011
13.0043
65.9983
62.0106
-37.1999
-189.87
-294.146
-315.325
-237.693
-268.858
-391.992
-325.277
-141.535
-13.0686
63.833
83.6995
34.1015
80.4708
88.1849
84.2216
100.333
117.856
75.1258
86.1701
203.753
398.047
562.571
421.071
146.116
-126.278
-414.504
-457.236
-357.446
-177.822
72.685
118.054
125.778
8.89422
-156.805
-281.275
-310.938
-282.631
-124.239
180.778
390.911
281.839
44.2695
-58.3617
-13.4627
241.246
470.613
395.231
82.1867
-217.869
-369.076
-347.815
-264.343
13.1721
176.92
280.774
244.29
49.0895
-130.862
-217.596
-333.226
-349.662
-308.35
-248.015
-94.7767
29.5161
269.808
243.206
112.505
118.502
119.76
180.632
253.9
154.029
54.7855
-24.5578
-101.999
-82.0952
-87.9386
-158.935
-50.5325
92.4589
162.097
211.299
-46.2132
-339.656
-421.15
-255.769
20.9191
172.337
179.872
93.9806
-19.0665
-94.5717
-90.3842
69.541
191.266
253.117
222.621
62.9223
-20.787
-137.599
-131.028
79.7571
260.516
250.745
24.9949
-268.869
-351.015
-326.827
-354.798
-270.678
-253.406
-188.527
50.6
251.365
410.042
558.789
439.912
74.99
-202.885
-162.989
-136.437
-234.399
-137.742
15.1248
146.05
346.886
444.072
333.334
185.146
78.8597
142.077
276.166
100.47
-283.691
-634.964
-922.187
-823.983
-414.747
-44.9555
198.616
242.206
146.076
107.599
64.64
56.3927
125.545
104.872
78.9861
21.4847
-40.3222
12.0746
63.0365
93.1717
127.32
78.6132
99.6202
133.842
52.7196
-58.2027
-210.164
-258.216
-130.716
-87.4224
-11.4142
134.124
169.789
186.742
270.267
336.619
188.434
-87.0004
-322.553
-369.938
-274.826
-54.4237
114.304
121.166
151.019
232.923
326.623
284.495
55.3993
-175.453
-352.108
-479.155
-476.662
-482.142
-405.134
-239.132
-117.954
32.8876
86.1352
226.392
413.135
388.726
270.033
327.647
512.77
358.752
122.536
-73.3267
-280.443
-446.625
-427.204
-73.9506
306.793
400.919
300.518
207.961
213.972
-33.8577
-328.555
-489.329
-604.328
-467.065
-288.996
-175.51
-126.5
-45.8658
23.3425
170.973
310.265
426.788
521.003
473.634
271.479
207.462
118.107
-81.1638
-256.931
-247.747
-168.355
-90.3474
-41.4627
40.4635
79.8043
8.16402
-110.383
-217.779
-271.033
-241.936
-118.654
15.767
84.705
31.767
-79.4034
-125.102
-68.3137
-7.16863
13.4873
33.1295
76.3086
89.7761
165.474
222.882
238.348
120.2
56.6471
195.239
155.854
24.9815
-71.7939
-181.166
-258.206
-244.12
-262.995
-207.363
-34.3862
23.5398
20.1144
89.66
177.648
174.011
145.046
46.8858
-27.8519
-15.1407
-55.8865
-94.0817
-2.50005
108.542
104.684
96.3192
78.0754
60.9634
116.781
107.025
-77.5408
-77.6451
-27.2848
-86.979
-129.237
-176.778
-126.417
101.11
77.9279
-42.8682
-142.384
-272.5
-236.964
-136.917
-28.1565
69.566
103.033
59.3661
55.9778
54.239
124.596
326.672
491.713
325.37
54.5006
-199.497
-464.11
-487.801
-297.477
-27.1505
97.8704
114.509
30.3965
26.5674
151.534
226.788
183.256
97.7888
19.1043
23.856
17.3598
-106.722
-159.356
-48.1268
145.025
268.971
284.293
150.955
66.4698
-80.8847
-194.663
-193.856
-197.364
-260.253
-218.117
-98.9401
30.4454
13.7261
-68.2995
-125.173
-157.305
-175.972
-176.208
-83.1352
15.1343
86.5976
120.04
67.6746
16.9528
36.9948
98.1566
148.185
186.798
183.932
99.2809
57.87
61.3142
52.2809
22.8048
-24.3761
87.0344
225.925
141.293
77.3753
-26.0562
-107.042
-153.636
-274.667
-314.798
-210.35
-61.818
-19.9818
-80.8138
-17.5278
140.305
263.67
292.229
226.526
-38.4827
-309.078
-522.983
-422.496
26.7185
485.627
449.074
325.446
212.587
-57.6611
-88.19
55.4201
-5.84515
-147.689
-130.104
-41.7858
-116.658
-213.005
-228.519
-195.435
1.90076
202.47
288.212
157.629
-31.6374
-218.358
-155.544
4.68335
155.232
353.063
310.656
124.555
39.2541
35.4781
-9.24068
-122.076
-167.337
-225.813
-272.336
-205.523
-81.3582
-20.817
6.05055
-58.8361
-129.433
-155.608
-72.2352
5.53116
32.6176
71.781
61.7056
52.0683
85.7567
198.858
251.048
215.053
151.911
-30.2449
-182.834
-192.024
-111.734
-4.50915
120.544
119.734
14.689
-78.913
-79.1184
7.24851
57.6717
65.068
88.5537
109.1
155.599
160.306
216.889
257.329
104.703
-16.5571
-167.798
-318.141
-342.108
-364.538
-476.379
-350.271
-142.388
-80.9022
-45.2507
43.7958
149.208
228.893
217.376
98.8775
63.9556
96.492
84.8768
-12.1405
32.2245
122.955
256.696
318.745
310.858
273.591
226.928
105.008
-93.6465
-162.836
-146.719
-236.833
-301.786
-199.55
-60.6858
-95.4309
-231.636
-308.345
-315.226
-186.762
4.28616
77.5508
97.7297
120.86
44.2956
-35.8836
-65.4313
-87.0504
-29.8915
-0.714105
-8.63568
28.3922
81.0594
56.6134
68.1003
178.57
277.489
230.688
135.41
100.921
26.581
13.2999
35.5142
49.2602
37.0825
88.6084
106.394
23.4185
-55.9291
-110.705
-194.952
-217.978
-203.773
-162.506
-67.8047
-0.043578
47.2083
64.4556
129.52
171.445
126.899
-9.50117
-28.8121
-85.6199
-134.714
-178.659
-146.413
-122.161
-79.1301
43.8995
151.057
164.737
143.461
75.4554
-50.1803
-166.662
-122.214
17.0241
1.62999
-22.5751
37.3522
165.633
162.725
50.9354
-125.893
-172.236
-126.507
-6.54795
147.259
123.451
107.62
51.5208
24.7276
17.2134
-28.6501
-22.7614
-92.0496
-184.259
-124.419
-102.296
-75.4702
-27.5793
7.33585
98.5522
171.156
195.373
170.472
111.415
37.2559
60.094
87.4148
118.258
104.923
97.6324
132.672
70.3863
-147.008
-339.082
-321.18
-263.556
-247.273
-202.062
-167.241
-209.268
-138.556
18.2409
172.223
239.432
192.507
90.1156
11.4991
9.32566
-5.3155
-6.65268
-3.64847
46.3932
121.975
208.124
197.116
113.953
-17.1035
-112.999
-37.4639
156.538
279.343
177.893
-24.2489
-124.24
-122.442
-169.944
-268.249
-339.942
-306.661
-162.97
-49.5478
39.7686
140.91
183.16
107.26
24.6055
45.5025
13.0414
-62.6149
-56.2703
14.7236
104.765
147.25
184.481
174.375
136.77
112.115
76.8496
8.83727
-68.1597
-148.54
-166.456
-169.931
-115.031
-53.2813
-52.5042
-65.0011
-0.10526
49.4253
73.8074
-13.6935
-116.128
-92.0654
-39.9347
-25.7888
67.0167
102.302
91.465
86.6732
36.582
29.3881
49.3065
60.2511
42.7238
31.3538
13.7808
-9.54666
-19.0151
-34.1911
-8.04096
-19.7914
-54.3951
-20.937
-0.555334
-126.546
-169.656
-153.447
-201.836
-158.517
11.666
59.1753
54.5872
71.0611
89.7072
70.697
78.9625
92.2423
125.429
131.348
64.7051
65.2581
125.433
71.8388
-5.0714
44.2958
82.5997
70.9729
127.903
83.3988
-168.137
-336.624
-315.949
-282.468
-185.582
-79.503
14.6422
103.211
123.955
54.2121
5.11638
-14.7337
37.8561
108.267
146.967
139.739
86.5406
74.6635
21.7382
-0.0427785
71.8716
133.013
114.765
103.027
-36.3437
-254.499
-408.423
-393.306
-223.445
-39.3325
28.1101
7.14562
36.6163
60.2624
30.1868
0.561612
17.4521
88.8437
142.542
113.976
-3.43449
-112.842
-95.5042
-48.5954
-10.4588
133.17
327.226
371.825
218.717
15.0528
-134.788
-153.715
-139.667
-97.9612
-96.9957
-120.095
-125.813
-117.73
-112.145
-32.4159
56.1958
148.12
120.323
76.5444
117.338
131.703
57.8413
-18.4771
-36.9493
-22.9648
30.5146
62.3879
-34.656
-155.804
-183.829
-179.285
-141.23
-100.746
-8.75502
46.7515
88.212
100.897
109.315
120.943
89.8058
55.1118
27.9208
7.15045
-17.9644
-5.97128
12.7848
1.19649
5.11616
20.5885
-28.5079
-42.2877
-60.8122
-56.4157
-19.4853
23.0241
27.989
35.9403
14.022
-42.8865
-88.9856
-123.429
-141.148
-124.096
-31.52
27.6611
56.8444
55.0518
24.41
24.7018
48.8678
128.819
239.111
273.369
130.097
-49.2999
-113.112
-137.673
-159.705
-86.8702
32.1155
68.7333
16.5928
8.84835
-2.44515
14.7495
2.28706
-40.6559
-51.9496
-7.63478
43.9746
33.1034
-58.1754
-118.433
-76.5531
9.29514
92.0176
151.995
129.727
33.3605
-35.6687
-45.2873
-34.9427
-59.1529
-110.171
-127.632
-91.2165
14.6528
95.5478
87.0619
98.8879
67.9733
-47.18
-108.799
-150.412
-191.109
-155.904
-58.6313
7.69389
60.9384
87.2765
105.892
108.631
88.5435
70.3049
97.2472
75.9446
28.1701
-0.9858
-50.186
-52.0955
-35.0241
-10.1639
66.5654
139.782
177.888
119.24
13.3773
-46.6071
-72.977
-78.2419
-47.5149
-1.9547
29.1751
-3.14405
-96.2471
-136.004
-116.349
-42.8196
70.3876
47.1857
-57.6203
-82.3703
-125.827
-118.31
-65.6128
-9.09904
51.5811
76.7331
50.9343
66.0634
65.4785
36.9201
-17.6273
-27.0261
19.8437
42.3858
52.7528
37.6672
-36.9168
-26.0855
61.577
92.3513
71.9266
67.0215
68.0175
37.8901
-24.6059
-48.3891
-25.1144
-36.4341
-60.9617
-46.678
-23.5219
-23.5797
-47.9523
-40.1227
-25.7483
2.87124
18.7248
-15.8871
-15.681
-7.68356
-7.17483
-24.6623
-40.5461
-22.9628
10.3312
81.3333
107.034
91.9059
-36.7394
-108.525
-138.674
-177.988
-211.953
-132.112
6.01655
39.9396
27.7672
80.5609
134.67
180.592
192.474
212.172
212.096
162.758
61.8102
-32.8016
-57.684
-111.114
-51.4289
21.1816
66.3459
104.219
112.406
24.706
-95.8295
-156.008
-168.063
-163.408
-155.798
-130.879
-81.1239
-111.953
-139.593
-102.456
-47.105
-19.9547
48.4319
124.403
112.616
59.6598
-6.15364
1.45724
3.8397
37.073
85.4
94.5163
124.469
88.7593
33.7508
-0.713085
-25.0499
6.3968
29.6474
24.459
42.0118
37.2471
-10.2405
-35.8776
-48.4385
-49.5766
12.7642
74.0475
112.877
55.6799
-29.0327
-36.1169
-15.4967
-23.542
-68.1386
-93.8912
-84.449
-43.4304
-41.6369
-106.552
-115.387
-68.1562
-27.5026
-26.8411
2.27006
20.1374
10.7024
45.0481
62.9798
57.9359
60.4723
27.5693
-15.5061
14.3354
89.1924
128.237
95.0597
17.5427
-17.8806
-15.6312
-2.27693
18.3671
3.14039
-4.93954
19.1052
32.5367
47.4282
7.11489
-23.579
-52.4508
-102.502
-101.571
-58.6653
-30.8905
-4.90872
-1.29829
-38.8845
-34.2409
20.5908
48.9455
-11.8279
-96.914
-74.4014
-56.0081
5.62659
49.0468
81.4599
86.0348
72.0195
111.275
114.057
151.762
126.511
49.0659
18.5972
-152.135
-227.392
-178.802
-184.109
-134.482
-61.6293
10.5232
36.9723
85.9085
111.928
76.2059
-27.4303
-71.4665
-10.3223
60.0542
91.7517
40.3503
65.5273
88.1441
14.6542
44.0289
64.4766
-27.4283
-104.988
-112.664
-80.6299
-27.6238
8.4868
14.706
-23.1126
6.21996
35.1386
20.8936
2.33165
-13.034
24.597
98.9971
45.4347
-11.2049
-48.3368
-39.6118
-23.4891
18.7196
90.1041
54.8054
6.4688
-8.50162
-12.6245
-14.2018
-43.3811
-82.3197
-78.1838
-78.4871
-49.2503
-20.5162
-43.4628
-101.33
-47.2212
16.578
65.7337
109.037
167.809
181.262
135.257
53.8126
-46.6757
-142.661
-123.274
-86.1312
-60.0515
-44.0964
-41.1699
23.5089
41.064
28.3463
23.8785
-3.49542
-28.7781
-30.348
-14.8695
25.0803
30.5504
45.2085
82.7089
130.757
163.714
187.952
3.1604
-170.653
-196.878
-170.702
-65.9154
33.6824
53.0713
26.3778
16.1621
-26.6595
-94.7983
-120.817
-90.7806
-58.7137
-42.1503
52.5642
114.768
86.1851
69.4168
43.1683
-16.5573
-6.44911
81.4437
138.203
117.249
92.9656
47.4824
-18.8202
-58.9663
-74.0119
-46.5207
7.7347
-11.1869
-32.0117
-13.5228
-69.6292
-128.958
-74.712
-21.963
-37.0053
6.11879
37.9032
-4.60105
-3.20662
15.9712
-17.9585
-29.4019
-19.9443
-8.34775
31.8431
14.9154
-53.6764
-3.25694
60.5007
65.8686
8.71694
-35.0297
-23.476
15.453
60.2955
100.894
102.634
45.6829
-51.2671
-106.348
-99.0526
-62.9394
-23.2414
40.2523
109.585
63.305
52.6223
5.45192
-49.256
-80.6851
-49.9269
-3.78719
-13.1085
-14.5513
-34.9667
-20.669
-19.8178
17.1673
85.6061
98.2006
65.5068
11.5197
-32.9631
-60.7326
-68.6151
-13.2337
22.1327
36.0644
63.1163
81.9583
61.5779
16.5818
-8.76595
-17.8727
43.9635
76.7585
72.6044
18.7777
-52.0948
-123.971
-193.631
-197.213
-166.428
-110.836
-67.2914
-13.3457
38.7714
73.2697
73.1107
60.1277
46.4789
27.3296
21.9792
35.085
26.8396
80.6677
134.266
99.9795
-15.1804
-100.946
-88.3176
-21.7142
53.9254
105.034
64.6686
9.4076
-10.0343
-31.3762
-63.1042
-82.1799
-65.7143
-14.6935
12.9696
8.54359
1.74168
-2.13886
-25.8336
-38.137
-42.5405
14.4886
41.0183
45.282
48.8034
16.13
-7.69918
4.47681
1.44259
9.65649
13.3071
48.6266
31.3404
-4.70183
-68.9407
-132.682
-110.184
-109.883
-96.4089
-2.21801
108.16
152.281
144.316
104.334
74.9017
24.3043
5.76923
-20.6076
-52.1177
-49.6404
6.62924
15.0384
19.4032
-16.9885
-49.5982
-14.467
-18.8314
-65.4265
-70.5711
-48.0183
44.2006
14.2572
-42.137
-19.9506
22.3687
100.584
166.743
134.402
33.2301
-119.213
-213.694
-269.245
-176.391
-25.7073
70.3514
91.0199
94.7852
98.7292
101.883
110.909
89.7462
121.668
100.927
6.26406
-42.1216
-92.4144
-132.063
-111.389
-97.5345
-38.5322
8.78259
46.9242
72.1115
110.965
91.841
38.549
-42.7345
-121.793
-173.064
-143.256
-58.4978
-8.02302
23.1816
33.846
-10.7483
-59.6618
-25.2491
17.9992
62.8334
128.417
143.187
154.734
49.5233
-84.7736
-62.8242
-21.8255
26.1449
101.578
116.167
44.1803
-40.611
-84.3375
-48.4702
-7.33128
10.976
17.5993
-11.1838
-36.4635
1.92236
31.9622
-9.5098
-56.0397
-45.5384
-27.664
-46.672
-34.8513
-41.3577
-64.2144
-42.9128
-52.7153
-104.908
-69.1991
8.85399
29.5317
18.0541
11.2952
17.2373
62.3644
70.0442
77.2195
77.409
78.9331
74.1291
58.2884
62.515
24.5691
-8.3486
-30.1732
-18.6239
17.7071
21.4509
8.66271
-34.9359
-47.1774
-49.7465
-88.6487
-100.454
-70.6166
-8.61175
38.3791
55.0166
-44.6477
-68.9179
-17.1368
-24.6441
-29.9984
-4.60905
43.9301
69.523
71.2621
94.8798
111.251
97.1692
61.1999
48.2071
69.5206
12.7891
-31.4633
-25.4443
-51.6734
-58.3627
1.66806
-22.7674
-92.9214
-101.974
-74.773
-49.9159
-32.7114
-40.1878
-51.0166
-53.9277
-57.3623
-62.7553
-47.1855
-23.7368
22.6973
120.737
163.739
117.239
40.9816
9.84206
38.3904
57.2116
91.5134
102.093
3.02034
-131.951
-209.506
-243.872
-175.048
-26.3821
66.1321
118.404
141.477
102.689
97.069
87.8405
23.8422
-45.0515
-65.1813
-56.7696
-26.9677
48.0713
72.2065
52.1648
48.3916
43.7854
57.2057
84.4076
44.7186
-26.991
-48.6027
-31.277
-21.7627
-59.7243
-110.283
-162.009
-197.736
-160.141
-64.8764
21.8663
68.1225
28.6888
0.801558
36.4403
85.9071
107.459
122.991
155.42
141.877
74.4525
43.1696
-25.4989
-91.9014
-73.7363
-64.4884
-110.353
-76.5985
-70.5597
-60.7524
-56.6817
-90.4091
-72.0271
5.13246
18.7812
44.0216
49.9334
47.2815
29.9042
12.7097
0.0304018
15.7793
51.9042
59.8228
88.8501
73.9092
100.195
95.057
90.4315
77.3278
40.5525
-37.2237
-67.2123
-159.527
-197.471
-112.121
11.5657
61.3978
14.2892
-28.4477
-43.3561
-113.539
-132.702
-119.582
-61.8035
4.82764
23.578
19.1404
64.126
90.7437
72.7276
115.472
147.789
143.818
118.781
55.712
4.9334
-95.0952
-197.327
-181.265
-144.766
-74.5082
46.3343
109.725
102.324
77.6856
22.9301
-6.99048
9.28863
-9.28428
17.8809
111.916
78.6603
-19.2445
-122.151
-194.048
-175.538
-67.1401
66.3441
126.877
154.464
135.907
2.59785
-71.4699
-66.6348
-31.945
49.1946
93.6383
51.2284
-37.875
-113.057
-107.269
-93.6103
-100.071
-10.8943
71.225
87.4824
67.2044
55.2025
39.2282
30.246
0.891476
-18.2039
-47.1219
-55.107
-39.2398
-26.1195
-3.17431
-43.6099
-53.8861
5.2477
-24.4602
-34.3878
17.2434
52.7416
93.7237
112.241
67.2425
45.0875
30.9663
26.8348
16.2355
-0.700587
-11.1162
6.26928
8.22411
-42.8627
-101.322
-55.8062
-43.115
-85.3883
-73.5395
-13.5066
43.9876
36.3087
-50.3827
-84.1119
-33.1112
23.3526
48.0318
43.2306
30.3253
28.2267
68.4172
44.7876
24.7334
44.8717
58.294
21.8199
18.6657
62.9488
123.12
104.808
60.4071
-16.49
-146.239
-198.406
-115.87
-85.9767
-57.2955
15.7211
15.5741
-0.755604
-8.04693
-63.4518
-88.0623
-72.6705
5.81737
19.4407
42.0584
65.7681
-64.2891
-121.322
-51.4939
42.7166
126.681
138.921
116.33
76.8171
9.98006
-27.656
26.0939
94.584
132.595
113.21
31.2118
-99.2141
-203.271
-168.271
-82.4316
-56.4758
-14.4145
79.9358
126.604
77.1369
55.8628
26.3878
-44.5723
-37.2495
-9.93314
-59.205
-103.722
-134.099
-126.712
-18.4462
56.5662
81.519
82.4385
66.7015
24.8608
-32.7095
-47.0431
-87.5628
-94.8182
-41.8384
32.0771
89.0489
106.074
95.48
29.7241
16.8668
-7.43045
-13.2743
9.13661
-16.4289
-48.5169
28.4639
75.8358
18.2529
-20.875
-46.7397
-33.223
-4.69636
-21.8024
-7.62949
16.7542
34.0242
38.6547
44.0278
78.5124
34.7993
31.9597
16.9217
-79.0314
-148.013
-111.132
-17.4823
42.0699
58.4848
28.3273
54.4805
142.04
102.866
-28.2153
-136.274
-189.399
-194.606
-141.498
-80.2238
-39.3968
7.82822
-37.3065
-43.349
-9.2356
-7.23033
33.2825
77.3888
124.895
228.044
313.498
314.744
175.517
-18.3089
-163.782
-233.379
-164.792
-106.096
-86.2779
-23.5336
-13.4807
-6.33552
113.579
136.852
108.648
93.461
17.5917
-33.0358
-108.487
-137.868
-70.894
-86.3182
-140.237
-113.973
8.30765
152.561
131.436
92.7398
55.4534
-6.78438
6.41427
19.073
-40.6756
-85.8398
-56.5862
3.6546
78.2089
46.7336
-47.2365
-106.334
-108.229
-41.6132
2.35612
8.15826
11.9051
4.28279
51.6751
90.7478
70.5347
18.1129
-19.1175
-23.3214
-13.2392
-21.9071
4.2064
28.9618
12.675
-20.1986
11.5869
22.3007
-12.0613
-75.7723
-132.283
-52.7584
25.5483
63.7567
66.7599
42.4426
46.0967
43.3387
35.344
6.94999
-0.651138
59.9067
77.4099
67.6789
16.8985
-6.88573
-15.3945
-62.2067
-92.0305
-72.1176
-12.5063
15.1229
2.39525
-6.27488
-63.0981
-33.6511
-16.9163
-73.1963
-66.1539
14.2288
60.7994
61.0957
40.7348
-61.7355
-74.7258
36.1906
114.626
112.523
-14.1643
-129.984
-63.6962
-3.85008
-1.76325
44.2432
126.869
101.94
88.5132
103.962
21.5647
-126.846
-227.335
-142.542
-67.5469
19.6274
48.1055
-10.3015
25.826
140.39
151.88
89.4438
-10.1389
-80.8899
-84.2039
-115.273
-120.34
-46.3934
9.81155
13.1102
25.8393
80.6209
109.528
36.0604
-54.7198
-105.972
-125.965
-99.1067
-98.1033
-108.45
-58.415
55.5807
121.599
163.872
211.034
218.511
120.612
7.47199
-73.7488
-83.2218
-52.7319
-16.8
30.3446
40.8506
56.8839
60.3032
69.9513
29.3117
-4.36318
-31.495
-46.0305
-22.5794
-32.5055
-86.8278
-123.49
-118.261
-67.4377
-39.5323
-26.6644
-14.5513
1.38622
0.171329
-4.12777
-36.9907
-64.3176
-4.75602
34.837
37.3096
62.1066
18.238
-9.00471
3.68352
0.640553
31.5118
100.816
111.417
88.7215
25.7761
7.47316
6.02462
2.67787
25.8844
36.3912
83.011
97.6025
18.7113
-108.877
-235.682
-280.356
-217.926
-140.107
-68.6476
7.98275
29.6352
25.685
1.84391
26.2035
83.7119
169.086
238.733
195.406
107.429
73.5125
-14.3857
-81.2757
-84.5353
-16.9064
41.4437
60.9124
99.9494
106.906
65.628
25.8186
-42.0719
-98.2654
-70.8474
28.6969
91.042
-2.09588
-144.227
-215.273
-256.626
-273.581
-176.262
-39.2238
18.25
15.2046
75.8983
79.3975
38.5268
84.8912
89.6306
24.1969
-3.05587
46.7845
70.2778
44.0781
-32.5872
-65.8292
-33.9565
11.0893
40.0638
47.3279
30.4264
22.0148
97.1901
152.288
113.337
72.7529
23.0695
-61.7657
-74.5929
-30.9322
25.5839
-12.0688
-76.6632
-168.503
-214.246
-175.668
-114.472
-21.352
90.0109
132.549
104.494
80.3087
25.4199
14.6447
86.8931
93.2659
64.3778
19.7723
-24.5751
-38.1063
-29.2412
-5.88225
23.1558
39.1585
48.2929
14.1998
-76.1576
-90.0512
-60.5085
-28.7944
40.0753
76.7061
38.2522
5.68343
-76.5556
-133.892
-114.474
-43.4151
14.692
17.2151
35.5643
3.51205
-46.1328
-67.1411
-36.8779
8.11314
42.2161
25.1243
18.2446
47.164
50.5044
68.9393
154.502
109.966
14.9481
-38.5235
-108.883
-131.348
-115.355
-74.582
-19.1655
50.1393
120.766
84.0991
71.536
90.7337
152.713
99.1316
-45.3168
-149.556
-128.803
-52.9736
86.8773
130.739
19.3921
-24.5501
-33.8877
-138.634
-135.238
-117.769
-162.855
-135.115
-36.4907
39.9839
105.79
87.0859
65.0326
117.666
160.332
114.848
24.8157
-82.1113
-182.295
-93.9055
94.0053
151.106
143.991
109.617
11.6921
-68.786
-38.366
15.9086
-53.9821
-101.475
-161.36
-140.393
-116.35
-93.1713
-21.3227
73.0455
67.5115
21.5772
-17.3263
-39.779
-6.08241
45.9833
70.9024
123.09
137.009
104.725
108.12
64.705
27.2787
35.7674
26.4252
-24.8655
-56.017
-52.0043
-89.9245
-55.7175
-5.5694
-0.320075
-74.389
-142.206
-189.012
-185.43
-137.045
-31.9464
81.175
161.125
131.291
63.684
45.0391
47.6918
52.6373
69.8525
83.8037
97.2475
79.2438
39.0249
-65.3331
-141.757
-134.947
-116.98
-73.7894
25.754
75.6031
83.7726
43.4507
26.0945
6.12823
-38.8659
-59.016
0.333341
59.8888
50.8465
10.1385
-35.322
-24.5136
-48.5651
-13.1271
47.5343
57.0949
47.0317
35.5152
-3.54881
-24.2785
-40.3669
-35.7831
-41.1662
-15.0178
10.153
43.5671
44.8566
-14.1071
-79.205
-118.355
-82.9147
-48.2789
-28.1057
-24.1726
5.78924
19.4921
9.29096
41.0503
47.9741
36.0544
83.1679
148.041
162.3
105.465
-19.7713
-122.235
-155.68
-116.204
2.88192
27.8707
-19.7295
32.7956
50.4702
-3.92004
-26.9288
19.13
-15.1354
-36.1206
21.088
83.2963
29.9385
-61.3581
-75.3732
-65.0046
-12.3924
22.723
29.1409
34.6173
31.5155
76.4937
74.8907
33.5262
17.6993
29.3799
41.9017
31.6175
2.24152
-103.507
-218.462
-195.936
-87.4245
-22.4059
-21.9661
1.89733
62.0328
71.1668
32.2705
-23.2204
-67.1562
-24.8457
15.4528
-25.5997
-26.3996
20.4836
18.6789
65.4276
100.396
145.846
192.632
156.579
111.124
35.0415
-48.1979
-77.7859
-35.9731
-8.00403
-41.8057
-50.0236
-21.7399
1.26663
8.46696
-23.3428
-77.4929
-91.2248
-92.8928
-115.122
-66.2937
-82.8342
-115.766
-82.9659
-43.4756
13.2902
100.178
99.8872
88.3273
73.5462
57.9171
43.163
8.43729
-65.9382
-73.2364
-16.745
-36.9494
-24.0319
6.43487
2.75157
21.6442
109.068
150.164
129.753
58.0401
10.8821
36.7508
88.7811
61.0232
24.4558
13.2784
17.7034
-29.3952
-66.2396
-56.9339
-50.7354
-4.38215
50.8849
56.5127
-9.5315
-73.6119
-91.19
-101.477
-174.953
-187.381
-182.926
-166.68
-145.239
-79.3273
35.9704
100.332
136.155
136.97
161.809
172.273
127.211
96.0522
103.098
67.3214
29.9424
34.2696
22.3744
-26.8825
-46.4727
-44.0778
28.4539
-6.67482
-38.7649
-8.73799
27.1588
26.7249
-30.9419
-90.3723
-158.884
-201.785
-178.38
-83.0032
-4.45268
53.2935
84.3557
61.7548
-32.9823
-68.9
30.4175
107.355
81.4143
81.952
74.2159
31.5353
-1.7433
-1.33268
14.1491
6.73998
17.1355
39.3765
53.8528
66.6187
-0.738743
-50.3762
-49.6949
-37.2904
8.45875
26.0232
-23.101
-39.9635
21.4532
52.4906
58.3509
-19.6256
-109.276
-137.387
-113.502
-55.5569
-11.5272
24.7351
-2.85313
-61.2454
-25.6241
-32.0938
-42.8468
15.814
114.632
147.511
148.034
102.172
0.573034
13.5065
49.4608
32.6808
31.2431
38.886
23.0307
0.303797
4.40949
-16.5834
-62.0259
-146.672
-192.24
-120.075
-27.7692
-28.7801
-35.1881
7.0586
15.4716
-19.5301
79.8611
151.744
88.6244
56.4368
16.2068
3.18189
17.9766
29.7247
33.4608
25.5186
-2.28442
-48.2038
-94.8514
-74.7022
-58.1348
-25.7756
-22.2666
2.82703
35.8164
53.7521
18.4818
-47.6776
-140.405
-163.748
-124.861
-55.5343
11.6615
62.8156
72.9428
70.3353
130.917
217.428
245.485
173.683
54.6971
-1.53398
-20.8531
-6.34451
-44.7425
-42.419
-59.5807
-14.9653
9.87731
-36.6555
-86.8954
-173.442
-266.758
-220.197
-132.11
-45.9123
14.6924
35.9021
41.8679
61.8158
113.31
183.538
234.373
181.566
149.717
76.1682
-67.006
-201.421
-189.43
-115.963
-20.7632
74.9391
139.048
135.301
118.066
47.7533
12.8655
31.1514
-4.99049
-67.984
-114.388
-141.206
-150.655
-75.8021
-43.6225
-41.5009
-28.1066
-32.2076
-14.6678
40.0886
27.834
32.032
10.0551
-8.33782
-22.9922
-48.5942
-7.50072
23.3971
41.4509
67.582
72.5318
54.4085
28.2175
3.8332
-16.1771
-33.4793
-2.69224
35.3706
31.5434
34.1007
41.2756
40.9063
67.7764
34.5334
5.396
-18.5406
-70.136
-42.5949
-20.1853
-43.339
-24.9
-6.72264
-47.794
-81.2666
-10.5948
28.7584
11.9294
18.2672
63.1561
73.2154
40.0369
-7.16992
-21.587
17.0107
-8.88569
34.8673
112.821
71.234
2.49168
-66.3616
-181.195
-283.745
-225.695
-157.907
-141.048
-40.1348
33.5858
48.8212
84.6079
118.499
136.977
135.067
122.114
90.3845
101.391
82.244
-0.505662
-41.2276
-8.65811
53.5307
114.669
139.162
93.9362
15.5496
14.2619
69.6122
42.3108
1.72392
-5.6435
-8.83485
-56.8072
-180.531
-287.023
-321.003
-313.457
-296.483
-166.332
-41.5436
26.1272
87.7467
169.017
201.848
176.264
137.586
94.1918
30.2173
30.7253
22.5633
4.14471
-46.8191
15.6204
154.429
185.511
142.941
98.3829
80.3623
31.1915
-24.819
-71.4268
-69.4663
-71.8221
-74.2073
-123.479
-185.374
-222.625
-189.531
-56.2027
15.2665
40.2928
45.7541
-0.67502
-67.0631
-44.6416
14.0787
73.0029
127.988
118.909
97.9406
49.2731
-59.9762
-87.8425
-4.29298
48.713
59.7672
80.9355
74.2154
55.2519
47.587
-26.8138
-46.9756
-32.7323
17.5597
90.0487
131.041
113.731
46.8866
-50.2269
-95.9871
-137.645
-139.605
-89.5777
-142.129
-128.762
-87.577
-96.5522
-103.905
-98.7921
-39.6716
61.3473
107.865
117.906
121.964
117.774
130.427
93.7795
81.3978
75.4764
43.3485
45.1133
46.7691
8.50456
24.9502
13.494
8.29199
17.8367
1.05491
-53.7269
-90.213
-102.763
-84.9108
-64.5663
-85.0648
-93.2951
-98.6164
-55.1188
-1.73929
4.37467
-21.2656
-0.00339856
61.8922
1.30727
-68.2908
-116.704
-104.32
-20.0848
38.6095
56.2232
79.5312
90.9461
103.04
104.401
92.1235
34.1769
3.96126
23.5105
16.036
3.17222
18.5255
27.869
27.4729
60.3294
84.1022
123.157
156.444
88.3574
11.4836
-25.2772
-52.0168
-73.6758
-75.7147
-96.1592
-88.7722
-44.9559
-37.5077
-78.3423
-91.1761
-36.6479
52.0813
26.8294
-104.879
-188.188
-230.016
-232.233
-242.484
-175.047
-84.2686
-1.91474
35.2861
95.2234
135.468
180.054
226.31
204.956
168.058
177.561
149.174
95.4158
27.4068
42.8983
111.735
120.891
141.549
158.898
136.922
75.429
26.1678
-20.9079
-26.5806
-52.2003
-108.571
-164.538
-215.999
-311.385
-342.129
-308.972
-198.587
-97.4995
-81.3774
-108.75
-98.3513
-13.1713
99.9382
176.079
199.007
178.145
123.432
22.7864
-50.6128
-18.9871
25.4494
49.5109
61.5615
86.5702
65.0222
37.089
7.26888
27.8583
69.0849
119.235
140.097
112.731
46.5036
5.26414
17.1765
14.2629
-2.09394
-16.9483
-63.5759
-93.1755
-173.604
-187.776
-131.098
-72.2896
-53.5656
-62.2347
-58.6189
-71.7362
-19.3259
23.1598
25.37
52.0471
22.9283
5.03365
16.2974
26.7298
41.6207
78.7549
89.4724
51.0849
38.3707
36.7233
47.9401
75.5399
83.8366
48.5486
-39.393
-62.8434
-73.361
-92.0956
-72.0247
-66.0209
-23.5364
-20.4458
-83.5415
-96.9797
-82.9121
-43.2003
42.6677
94.9656
113.698
80.3952
17.2947
23.9887
82.3016
111.88
117.873
58.5762
-9.23357
-0.999771
10.6324
46.3325
-19.0612
-81.5964
-38.2724
-2.19143
3.74801
-10.1713
-65.1012
-94.5319
-74.2921
-40.5219
-33.0659
-48.2507
-63.2712
-70.9537
-92.1717
-72.0061
-18.2493
-9.61021
21.0122
30.9732
68.1754
108.595
83.4385
66.2798
47.7519
28.3504
18.3863
11.1342
20.7588
40.0217
33.124
-13.0924
-45.7693
-45.8019
-24.5532
15.4319
38.306
56.174
47.8627
31.1645
10.4056
-42.1269
-28.1979
-37.6834
-25.206
19.191
85.8683
122.349
95.2557
-30.5706
-159.467
-218.291
-239.73
-180.696
-68.5588
36.7205
68.7187
36.557
6.11411
31.984
66.7488
181.585
218.683
172.155
93.4312
-36.9471
-208.021
-255.863
-176.569
-61.0004
67.9807
185.907
239.44
187.626
51.8093
-34.0195
-82.7016
-54.1399
-8.34916
-34.874
-66.1059
-98.8826
-151.895
-76.6829
30.8471
90.881
105.821
50.5827
-0.175668
19.6721
15.6705
-7.43078
-2.64394
9.72497
44.1255
-4.93656
-66.5456
-96.2519
-84.1549
-81.0313
-19.7258
-12.2771
-22.1828
-14.967
0.184228
45.0931
90.4039
64.7398
34.6005
-45.8091
-131.31
-135.264
-97.2661
-46.5731
63.8913
85.343
75.1375
71.0625
75.8447
81.6777
61.1735
60.7234
104.998
88.8492
-2.40221
-75.1249
-40.6357
15.1334
14.4072
41.1768
99.588
109.082
89.1615
54.77
-41.7456
-96.8361
-98.3943
-80.0534
-97.3903
-113.953
-80.0356
-29.6218
-35.7144
-57.5691
-58.6899
-73.1654
-107.984
-73.9561
-59.0878
-51.4577
-34.5242
31.4059
81.8096
75.1065
42.7524
85.0653
166.597
178.923
76.0948
28.9863
-5.24698
-32.0161
-11.1141
-1.37842
5.16263
33.5418
55.5408
26.4608
-5.74706
-4.63467
19.29
29.6322
29.8474
-4.07148
-38.3479
-35.5033
-51.2852
-72.5117
-49.8741
-41.6079
-52.967
-53.4401
-61.718
-60.2662
-29.0266
-5.71973
-10.2276
-27.8566
-2.13743
23.2389
17.3719
32.7053
56.1574
18.728
0.21752
-40.3208
-32.118
45.9444
39.6589
29.6393
41.2909
21.4947
17.8098
-23.1494
-28.1428
18.3455
52.0065
59.1076
41.0798
62.5964
70.9655
10.6206
-62.4719
-67.2108
-15.8962
36.0748
23.61
-24.7178
-21.9422
0.0765212
9.75318
-4.26182
-11.19
11.5109
-5.63386
-14.8188
5.55909
10.7184
-7.83389
-52.461
-63.9494
-72.582
-69.2122
-15.8609
13.7049
-1.41656
3.70833
9.78324
41.3826
74.6199
89.1034
7.01227
-44.5128
-90.0506
-93.7115
-92.9254
-77.7504
-5.01808
87.7722
59.3789
42.3503
30.4789
6.32708
-29.3192
5.86928
85.2126
100.162
30.52
-37.4176
-99.6067
-99.3211
-32.0892
15.4443
89.2797
116.557
111.014
101.806
57.1732
-3.11155
-9.7588
-8.12667
5.3159
26.3388
27.7924
0.972046
-49.7553
-97.5086
-99.6763
-58.4614
-34.6792
-58.0766
-34.2685
-92.882
-109.644
-53.2445
-34.3642
-33.8446
2.24209
23.2168
65.4868
78.9512
29.4985
18.7403
39.314
49.0574
31.096
11.9848
20.2236
77.044
117.926
76.8779
23.9709
8.6309
-22.5621
-48.4245
-1.93471
35.7913
19.1499
-34.5816
-61.3326
-70.5126
-61.2319
-35.7421
41.5935
78.7826
90.2316
24.1962
-45.5322
-78.0004
-95.341
-124.477
-143.922
-94.8691
-64.4197
-78.5543
-47.1213
-35.5996
-15.3794
40.8694
98.0054
120.659
141.9
137.078
104.451
69.2991
26.8111
9.64963
-19.0434
-28.986
-2.75342
63.8455
108.454
106.04
104.888
87.2182
13.7643
-20.0179
-50.7564
-55.4453
-84.8252
-112.897
-93.5971
-100.548
-117.331
-134.631
-123.146
-45.6279
14.3192
24.5369
17.2832
22.5405
20.2592
35.9312
67.2922
100.128
46.2383
-2.75568
-43.7185
-18.428
-0.230882
2.33785
-11.3483
-4.6555
56.8778
15.133
-52.014
-41.5913
-18.1432
-17.4751
-16.2715
35.2247
55.5471
59.1619
20.7993
-84.0051
-121.198
-51.986
27.1309
49.8353
66.7494
77.4995
81.2812
58.3402
-17.3156
-7.27272
20.0512
22.6772
34.5719
43.3681
46.6402
-11.5997
-9.22576
15.3203
13.615
35.8669
66.4451
45.9856
19.1177
-45.8611
-78.9812
-78.6359
-76.8512
-80.3212
-76.7743
-49.4945
-35.5544
-58.0512
-53.1291
-46.9317
-57.7717
-31.355
-5.89079
-14.2837
6.20757
26.001
48.1303
15.5258
-13.8669
7.54115
28.0687
36.0415
21.9605
45.4635
50.6342
5.42881
-41.0171
-47.3643
-13.8585
36.1506
57.0999
42.3422
38.7706
11.6209
-43.4058
-64.1117
-46.9742
13.5499
68.1361
83.859
80.2632
61.7741
26.6783
20.837
30.5162
33.2453
63.4127
80.6848
77.6028
75.7537
15.1365
-27.4014
-58.6315
-61.4835
-9.21986
52.4705
40.6429
-41.3293
-146.911
-246.787
-307.815
-204.483
-43.8821
-11.4988
-9.9268
19.4835
-8.61416
-8.42949
-16.8353
-28.3676
25.3861
49.9442
64.8335
69.6507
42.6671
-5.5173
-1.65186
56.4436
110.799
129.098
125.352
61.2874
-5.94465
-13.9109
-42.2475
-54.306
-4.57326
16.2494
20.4329
16.3407
9.27026
-11.702
-38.9225
-1.39245
39.2948
55.46
39.8647
28.9681
19.0617
4.40944
-11.8719
-26.6593
-37.8417
-42.5057
-38.2518
-33.0383
10.179
-5.01335
-58.9959
-71.3224
-49.698
0.896408
25.1343
11.3222
-20.5044
-26.2243
-41.7058
-65.5748
-61.8814
-13.3303
23.9126
-5.07011
-9.99577
26.9582
42.8889
-6.14624
-27.3774
8.36355
48.0487
52.5273
49.317
40.9037
39.1061
55.4388
41.5834
-3.24794
-27.4854
-22.3833
2.11361
27.3481
56.138
92.3149
96.0012
95.6567
48.4086
14.7036
-37.6379
-96.6054
-109.209
-104.975
-80.1244
-42.5782
-10.9242
-21.879
-27.7185
-4.27932
12.7091
2.99726
-10.8506
-55.8592
-61.1577
-44.8387
-27.7607
-37.8373
-6.95813
53.5262
91.2451
92.8347
66.318
27.1517
-9.19973
-29.0669
-51.1504
-75.3122
-56.2142
-1.62668
43.0628
56.8719
64.3731
89.5691
94.0221
50.9217
12.6548
13.2565
54.1218
24.7395
-46.6803
-107.094
-157.254
-138.264
-143.476
-115.865
-85.7859
1.28943
56.6016
77.2949
108.345
106.11
72.1714
88.149
58.9695
78.6149
72.5224
-37.4922
-127.898
-101.423
-13.5003
55.2101
90.8277
89.1442
106.799
82.9577
44.3516
-11.2337
-51.1218
-80.3331
-78.9567
-33.2074
-30.0897
-29.3549
-29.3424
-81.9169
-128.857
-110.916
-76.8926
-10.7365
-2.22282
25.4918
60.918
45.0212
-12.4346
-52.8845
23.9365
126.564
114.893
31.0574
-36.9964
-116.024
-164.512
-121.198
-1.17553
85.0464
132.238
110.399
92.9931
72.4224
51.2878
33.119
40.5911
54.4396
61.2844
46.8534
-18.9523
-87.1049
-73.6511
-65.0386
-53.264
-3.89162
3.68016
-75.0904
-81.7451
-34.4128
-0.349165
27.657
25.1844
21.9809
-11.0453
-60.0881
-16.606
11.6471
16.5101
65.7912
24.324
-18.8072
-29.9533
-9.04268
-37.3675
-69.3813
-15.4884
35.2895
43.0561
37.7569
40.9933
68.1815
62.53
6.27919
-17.3549
-16.8695
-29.64
-36.342
-13.0015
-11.8356
11.3163
-4.67055
-3.22021
31.8102
78.5432
95.9586
79.6296
70.4408
33.1648
-47.0679
-140.868
-159.268
-138.987
-105.367
-37.1614
15.0567
5.98838
11.4428
40.1187
44.6806
46.4955
37.8913
28.3403
26.7133
53.0922
28.2556
-30.1903
-41.0054
-54.2049
-76.6831
-20.8325
32.4459
38.8174
33.6923
7.94301
-28.3082
-31.4516
-6.34038
-20.2033
-37.6757
-7.08286
69.2272
98.838
76.7602
12.0633
-50.9184
-46.3582
-29.3903
-30.2772
32.3539
26.1693
0.484526
8.33583
20.8163
62.334
106.124
91.3842
31.1891
-21.622
-39.2684
-66.5324
-104.62
-99.4342
-44.6245
3.36072
44.5327
72.4538
67.0987
30.3079
-41.7673
-107.241
-151.124
-148.055
-76.7234
-50.1805
-42.2714
6.37024
49.8875
95.2487
110.667
113.42
76.5634
35.5101
-23.9448
-60.6497
-48.3332
-20.8321
-4.28562
26.9053
44.5304
56.6182
68.735
123.606
94.6793
17.4387
8.91702
13.7842
16.3299
-10.1126
-43.7116
-61.8518
-64.9747
-71.4037
-47.3438
-16.4604
-7.41312
-19.1907
-66.0063
-76.3538
-8.90518
27.0155
-8.64871
-32.4641
-15.544
29.254
47.9866
27.4441
-22.2003
-64.1744
-84.7212
-44.0087
6.85978
40.1653
43.1893
39.5363
60.0378
41.8937
46.2339
86.1458
22.4792
11.1905
55.7454
46.8076
-1.74061
35.6497
87.447
21.4278
-45.794
-105.317
-121.807
-129.76
-102.77
-34.6061
28.4259
33.2896
54.3949
60.8995
42.0889
-58.0201
-116.488
-82.9679
1.453
24.7503
18.8548
-34.6894
-63.0961
-20.8782
19.5263
89.6468
110.069
83.9017
71.8141
39.098
-47.2285
-72.0096
5.09225
84.7087
82.719
55.982
66.9364
86.0742
64.462
47.302
-8.12068
-70.2616
-107.382
-141.209
-157.507
-101.189
-36.0444
2.57098
-18.9107
-72.3165
-82.5404
-44.6249
-60.5835
-83.7568
-40.7698
18.8798
61.5293
68.7546
54.9348
44.1185
50.5555
120.086
132.542
106.846
104.661
72.4724
47.7492
14.3199
-14.1206
2.4527
29.7461
20.3449
3.00299
-11.4843
-50.269
-78.1493
-102.314
-115.297
-84.1136
-46.9241
-26.5114
-53.4312
-68.8822
-62.8391
-55.2912
-4.99293
-11.6099
-18.6725
44.1486
94.6893
114.487
71.7729
16.578
12.7968
25.4631
45.6395
63.4462
20.0588
-46.0262
-50.8956
-4.52955
-20.8149
