-143.268
-86.4486
-11.6874
82.2295
173.718
236.326
296.076
234.38
140.278
43.9302
-56.5733
-61.0699
-92.511
-116.503
-91.6027
-27.7481
-0.607819
-7.84256
29.4159
51.1907
10.9951
-7.71769
-48.5218
-76.659
-57.2921
-62.5675
-67.875
10.9757
52.7072
17.7595
-53.0425
-98.6417
-11.0401
81.5743
56.8796
-34.8994
-144.702
-204.308
-110.521
114.155
269.16
251.788
180.046
92.3406
12.6152
-21.8747
-63.1787
-105.988
-66.3184
58.889
118.337
94.9117
-13.3022
-96.8936
-74.9132
-4.76446
73.3522
133.951
96.161
-89.8043
-176.894
-125.283
-64.4862
-10.7554
0.648517
-3.00173
29.2578
86.3663
36.4911
-58.1617
-101.967
-103.451
-86.4066
-71.1903
-15.0077
24.3735
18.2273
20.5423
34.8735
56.9821
69.4756
64.5139
51.8595
94.0476
96.6455
51.4459
-42.8362
-124.423
-135.964
-120.265
-67.6177
-11.8132
-20.0279
-52.8596
-8.78358
69.2995
130.434
122.456
50.9303
27.7568
25.7833
-5.42092
-1.0432
-34.4664
-38.4399
25.9007
54.7209
30.6702
17.5317
28.6003
45.7821
80.1341
111.486
69.9806
-6.83131
-61.7359
-99.194
-120.49
-94.6365
-64.5316
-54.3045
-32.2919
-9.32284
-36.082
-76.002
-102.722
-74.7764
-28.5876
32.1312
64.3309
98.8134
49.5442
-46.9351
-53.9879
-50.2548
-5.54159
15.7109
44.5449
61.7297
64.0115
86.8329
134.295
83.9011
14.0674
-4.09958
-50.4326
-38.0031
37.4639
43.6359
-2.88814
-41.6502
-26.8626
-11.517
0.779106
-24.9167
-73.3299
-28.8031
32.54
22.5535
-10.0292
-12.3023
-57.8349
-61.9069
-34.331
-68.6988
-33.7621
29.9843
18.1732
3.29926
31.4859
34.1806
17.1041
27.0598
66.4626
75.9496
21.0507
-31.8094
-50.3487
-25.6947
-7.08667
-36.0323
1.00289
104.118
118.986
58.4472
44.7998
16.2058
-28.1755
-50.8233
-45.0751
-18.1172
-27.6891
-52.6974
-64.0201
-42.1988
-7.54044
-3.20303
-23.3789
-56.7542
-76.706
-38.418
-11.4972
-36.0406
-8.77625
87.4003
106.109
70.4921
29.8377
10.2359
-20.277
-14.3112
25.4977
58.1958
63.2068
30.9638
-16.1894
4.03437
22.0183
37.0942
31.7222
-9.34888
-37.3778
-69.4636
-97.672
-82.4187
-107.07
-112.536
-48.3474
40.7583
72.9262
45.1402
36.9158
32.264
27.6765
59.181
109.014
109.872
47.7349
6.66726
-26.9367
-53.3588
-55.8737
-46.0323
-4.62158
-12.5663
-39.7492
-54.0522
-62.5086
-31.7183
17.8543
-26.0972
-54.1447
-17.0451
22.1761
34.9827
32.4997
19.8453
68.0664
94.5115
103.209
74.9898
0.431155
-76.7013
-104.431
-42.8665
48.4437
89.6848
122.727
53.2385
-30.1249
-26.0042
-6.32936
-39.7106
-75.9625
-112.17
-125.646
-77.2554
-30.071
-0.239214
27.6598
36.8571
29.5279
42.4819
10.688
-72.5953
-88.7531
-77.14
-106.551
-125.218
-22.4322
165.81
237.195
217.174
159.536
69.3811
19.7343
12.9383
-5.17246
-29.8176
-75.1431
-87.6592
-50.0183
-12.879
51.7898
61.6276
-2.18182
-60.4898
-111.052
-87.9468
-67.1502
-95.1276
-94.984
-49.0781
-5.19898
53.5918
112.655
98.8771
67.0004
59.7236
85.9725
92.1789
56.0886
0.908484
-48.9271
-57.4948
-55.6275
-49.8105
-47.8913
-45.8555
-18.1797
-1.9283
-3.22079
0.293523
26.4241
49.4656
32.7113
26.1702
2.13951
-7.56782
-11.9795
-19.8484
-35.0749
-48.222
-37.5034
13.2681
39.2969
58.3593
117.628
167.89
96.4979
-25.4075
-69.5943
-41.7545
-50.0023
-58.666
-56.1111
-54.8762
5.33402
37.2223
-26.3989
-105.351
-91.5635
-69.1782
-62.2429
-49.0756
-14.889
18.3825
54.6968
49.6766
44.1475
9.85868
-21.7579
-32.9458
11.4039
80.1883
88.5523
6.58571
-53.5793
-33.6828
56.5819
141.897
135.781
132.493
123.55
35.1122
-48.1523
-61.381
-46.4991
-45.5403
-42.3428
-18.1376
-32.1203
-50.1554
-79.2808
-114.223
-109.144
-108.664
-85.8222
-49.5095
-25.5112
-7.52473
17.0608
56.8417
111.337
160.848
153.745
85.3334
22.9618
1.75756
-20.9965
-35.918
-11.0161
1.29363
-13.5969
-35.0001
-68.9386
-51.4109
-40.2867
-18.2599
14.7291
62.6505
120.253
99.6742
-25.5719
-109.618
-126.611
-142.541
-78.7987
33.9112
66.6977
38.9133
18.0818
37.4418
60.9053
72.1258
100.846
154.851
171.911
58.0421
-40.2407
-109.65
-197.238
-254.853
-192.175
-55.0205
73.8271
150.976
140.346
28.4034
-48.661
-69.4943
-86.895
-69.9462
-3.60426
37.7115
75.8793
64.1267
21.8746
58.9543
60.3355
12.0459
-25.5952
-16.0678
-21.3536
-50.7102
0.823555
27.8535
-13.1539
-30.6576
-20.5425
45.8449
87.1679
71.7117
22.8491
-7.10131
-65.8703
-93.1472
-112.526
-127.754
-57.3477
70.2719
84.6403
106.153
117.987
-1.56605
-100.664
-92.5618
-56.8906
8.45571
61.6786
106.275
184.68
150.102
44.3656
-48.7763
-132.364
-160.158
-151.123
-121.018
-64.7001
-15.0776
67.1864
84.7632
114.682
182.649
125.651
18.9177
-68.8003
-174.626
-175.136
-115.515
-143.469
-134.4
-64.8117
17.8431
130.266
200.767
204.833
140.826
58.9125
-23.7217
-45.16
-72.3247
-123.848
-95.8727
-38.7103
4.52685
35.8774
62.9017
120.03
135.545
115.548
103.155
64.6009
38.8859
29.291
-14.3824
-52.8729
-98.397
-97.037
-97.4332
-104.051
-75.2936
-34.0403
-17.0159
-4.81827
-18.5822
-30.6214
-15.1559
-57.2382
-93.5908
-60.8923
25.3661
154.854
216.477
173.437
74.2211
-16.0346
-30.9836
-58.4052
-101.024
-148.681
-186.482
-163.108
2.21555
133.452
148.75
144.397
118.781
22.5399
-36.5097
-31.7247
-48.1775
-87.1371
-117.464
-102.346
-18.5905
60.193
136.071
145.471
115.415
108.99
114.444
98.5989
21.1947
-62.5534
-52.7933
-40.0064
-73.2767
-75.9786
-74.8661
-93.6673
-102.645
-97.9964
-82.9228
-61.0967
-45.3086
-7.87602
24.7274
41.4508
68.4353
69.1472
33.9511
-27.9655
-101.749
-83.0938
9.05143
77.53
135.288
124.19
43.3822
-13.7207
-23.5215
-14.8437
15.5505
46.9711
87.3309
123.818
135.543
103.462
39.0787
-26.2104
-35.8487
-7.04856
-12.6939
-63.1666
-97.6407
-135.881
-113.729
-33.225
22.4346
32.45
11.075
-52.8877
-135.087
-132.566
-100.423
-111.667
-133.642
-75.9365
-2.13512
46.2951
77.2407
109.025
142.88
123.662
65.4495
49.0487
79.9967
99.1096
75.6883
53.3305
13.8046
12.4501
39.6104
3.57455
-31.6561
-38.7424
-41.1835
-31.218
-14.324
7.72952
8.77719
-15.8562
-38.8916
-46.1494
-27.4808
-30.9452
-79.7346
-108.456
-60.6908
-31.3662
-7.64
2.89999
15.5457
1.07723
-0.18199
38.6001
43.4789
26.89
58.1553
70.7625
67.1718
37.7995
21.3551
4.54897
-0.103176
0.30315
-85.7669
-104.956
-26.1269
7.13781
43.8619
77.7964
88.3249
121.817
148.587
34.7659
-72.9383
-159.594
-211.747
-122.559
-23.0874
9.43182
36.1049
59.4038
39.3604
14.271
46.0363
40.6025
-17.3793
-53.5413
-82.2749
-91.3255
-89.975
-29.5331
-35.1888
32.6657
68.3674
62.8703
70.7127
59.5268
45.7449
65.8419
66.6769
40.9752
-33.8245
-109.447
-63.2987
13.3391
21.2503
4.75765
-26.1673
-21.2825
-29.4062
-64.9889
-22.986
41.3359
109.634
141.913
37.6237
-128.502
-155.35
-88.9454
-16.9124
39.0411
82.9779
152.239
199.258
185.947
106.272
19.7349
-42.7558
-73.0763
-83.9138
-115.831
-142.768
-163.716
-185.461
-169.751
-104.939
1.74311
56.3198
38.2629
-18.095
-34.7787
14.0927
50.6256
16.9197
-46.5832
-46.8867
-3.57859
19.0603
66.6778
171.741
199.519
186.474
165.988
129.799
139.688
145.547
112.489
51.7603
-137.114
-282.853
-294.909
-200.392
-92.4756
-45.4299
-48.8597
-21.5865
0.97525
10.8804
0.302758
-17.4411
3.02377
6.08972
-26.2239
-35.6383
-46.7223
-43.7809
-31.1171
-53.0793
37.8323
158.915
226.857
223.993
156.007
47.575
6.62948
17.8033
31.538
22.7
-20.6967
-83.6901
-99.0547
-97.514
-109.527
-107.026
-100.757
-93.2054
-71.4154
-29.4223
0.0700622
28.4994
63.3124
92.4339
69.5586
22.7934
-10.142
-39.8362
-55.3344
-32.1392
-32.444
-50.4339
-67.8779
-67.5922
9.7343
110.77
141.352
100.073
52.0291
47.8546
89.9052
98.0884
57.0143
-41.7755
-110.507
-106.749
-108.823
-73.7656
17.0852
130.265
168.491
116.241
53.3157
5.40985
-48.4945
-124.007
-141.361
-78.6811
-23.2208
-8.54651
-7.19123
19.5534
26.2652
25.5258
32.7014
55.8068
71.2031
25.9458
-29.4207
-51.183
-33.3961
-27.7759
-24.7586
-21.901
-50.2106
-74.2388
-108.77
-180.579
-195.099
-35.6677
69.357
79.9062
55.978
30.0808
25.8067
45.2714
80.8551
97.5789
127.836
109.605
21.8973
5.14828
23.6144
37.2261
82.3079
141.46
167.371
171.14
138.562
25.9335
-60.1671
-136.274
-167.674
-168.855
-156.989
-114.154
-73.0867
-38.6099
-38.2381
-48.929
-33.3098
-58.0241
-118.939
-121.505
-84.7199
-72.0951
-46.9001
70.6569
153.885
68.497
-40.7791
-75.1884
-69.7069
8.59873
66.2598
114.503
134.035
114.427
77.422
29.057
47.8641
98.4406
136.784
149.489
144.564
124.317
83.1639
-5.50383
-60.2328
-79.1
-75.9832
-58.2489
-63.668
-119.1
-143.28
-160.52
-137.443
-127.923
-131.047
-109.389
-90.288
-56.7774
19.2557
33.2868
55.8235
104.503
69.8434
41.9805
60.2834
133.156
124.995
33.9033
-30.9727
-30.7542
43.2548
74.8612
51.9458
23.9067
6.20402
4.52143
-5.29682
-0.390005
-35.0558
-61.8542
-133.496
-168.155
-119.867
-50.0956
-18.7681
-57.0225
-28.2364
80.637
186.616
211.673
184.573
160.514
174.493
159.853
90.3612
12.0816
-35.0168
-65.1031
-94.9601
-111.834
-90.7389
-86.9303
-87.1191
-76.443
-65.322
-73.0072
-73.4788
-93.8817
-114.077
-110.646
-84.136
-59.3723
-70.0452
-57.0399
-14.3841
70.3062
130.104
124.769
114.043
130.71
129.371
129.834
140.186
94.0223
26.0968
24.2605
19.5723
0.603044
-48.1827
-101.372
-188.614
-230.402
-198.258
-241.235
-295.797
-242.399
-69.7768
130.94
294.034
446.057
481.541
381.994
207.878
31.5194
-112.131
-178.681
-190.19
-132.831
-139.226
-158.84
-41.8959
38.185
51.6978
151.043
219.192
161.6
77.8855
-4.98874
-100.307
-209.606
-258.604
-203.598
-106.456
24.1602
159.738
210.467
157.338
41.9483
-5.26513
-9.96309
-35.9558
-45.0006
-21.6006
-26.2153
-12.4044
-12.539
-75.012
-145.123
-156.773
-150.263
-114.359
-81.1847
-55.0107
-0.857357
24.0446
21.615
53.638
78.8191
122.088
182.162
182.292
159.943
106.478
66.6135
49.9331
12.4768
-11.4099
-7.70214
-23.5195
-36.6369
-46.9992
-54.6411
-27.8506
-35.2086
-55.6603
-28.4735
-1.30513
20.0164
59.5418
76.2892
50.7728
5.5117
-35.557
-83.3506
-69.2229
-14.3164
7.16113
25.2757
26.6435
-7.21457
-47.7403
-1.72321
9.96137
5.21291
-17.6604
-62.5198
-99.1393
-157.339
-155.495
-77.2723
-41.2314
-10.4432
36.5237
83.1534
84.6143
48.1535
30.2276
17.5974
40.3693
26.3829
-23.4504
-55.2441
-23.3795
56.6148
150.28
213.397
164.812
165.125
149.937
56.1665
-10.5238
-32.409
-46.058
-50.1084
-69.5078
-109.91
-143.176
-133.551
-116.255
-55.7279
15.4774
12.436
-11.3867
-43.3569
-68.5529
-51.9358
7.48136
49.2349
37.9268
24.4252
9.37352
-28.6144
-39.17
-33.6424
2.21678
55.2842
45.9304
13.2887
-6.69808
10.0694
53.4949
38.9089
3.48351
-29.6967
-51.6551
-35.7114
67.6458
134.829
120.345
44.8334
-8.24559
-8.82679
-34.0631
-34.8052
-23.9312
-18.9869
8.67389
7.09605
9.64857
5.61542
-15.7721
-13.8973
-55.4085
-117.909
-107.077
-99.4353
-77.9895
-32.4201
12.9049
0.630727
-31.8493
16.1731
86.2936
120.495
100.872
81.8488
35.2602
1.56817
-24.6717
-38.3625
-30.2521
-4.58957
74.458
156.507
120.596
29.3579
-22.3485
-61.5995
-79.9477
-48.4356
-29.5095
-61.6209
-43.6261
-0.435617
30.6587
0.863106
-17.8368
-13.1552
-6.17177
-16.0112
-37.1107
-48.5416
-50.7353
-20.8543
36.9091
109.355
98.009
37.328
5.2434
13.7091
50.0714
14.0619
-46.0393
-68.3215
-64.3511
-54.0972
-32.5334
2.81819
33.6855
29.9792
-4.90357
-28.9067
-21.8632
-14.7921
-17.7811
-41.7621
-48.3986
-26.2435
65.4191
153.048
131.681
63.3068
6.54675
-67.5979
-126.932
-83.519
0.934531
36.387
65.2597
28.6423
-75.6029
-72.3877
-11.0838
9.26408
27.9726
8.33198
-2.96594
2.69165
-31.2776
-66.2952
-47.7376
18.8849
69.1998
87.0676
93.8057
56.8789
11.5122
-8.17215
-28.2604
-22.6766
66.6953
106.831
94.3328
55.6165
12.643
-32.4319
-80.9375
-97.2164
-86.3268
-76.2455
-59.4688
-67.4213
-134.84
-114.816
-1.68893
61.1648
96.8386
109.861
96.3622
119.955
82.4745
-37.3177
-100.495
-116.35
-151.813
-107.846
-16.0492
31.0724
24.9899
9.95882
38.1554
85.0208
87.7259
47.9802
-29.2754
-49.621
-27.0672
9.03477
8.62471
5.97569
45.2759
60.7356
17.2628
0.830861
24.6472
52.3087
63.9799
77.5264
101.295
67.3186
-20.0647
-69.0234
-57.1726
-42.085
-51.7828
-60.8113
-83.1673
-120.565
-121.417
-66.6781
-28.3677
11.614
20.0203
19.901
15.7144
-34.1575
-66.7882
-37.0031
-19.2634
19.1023
68.0354
92.8225
129.574
167.744
143.519
77.2362
15.7625
-13.6244
-20.6879
-56.5304
-64.9095
-43.4864
-27.8308
-2.19968
41.4157
26.8713
19.0548
-28.9718
-129.182
-122.994
-78.8503
-67.8671
-67.5912
-52.5568
-6.82949
68.9206
135.804
136.072
36.2559
-67.0073
-82.2086
-34.6425
-12.3957
-9.01528
-25.5475
5.63299
16.1142
17.8837
74.9346
70.0164
74.2501
100.863
113.715
94.3433
56.2557
27.8388
-53.2047
-123.16
-102.173
-27.836
8.03199
-16.8138
-29.0751
8.74314
33.2518
9.41326
-15.12
-18.9911
-43.9246
-92.4707
-117.062
-97.0808
-37.2363
6.58826
-16.8139
-113.384
-66.998
12.8402
3.16264
1.68499
74.5831
105.541
76.6139
28.8077
13.0127
22.0225
46.9305
46.3047
45.5695
82.845
114.651
90.8521
35.5894
-17.1577
-8.615
53.1247
37.191
-7.13439
-14.7077
-56.2232
-120.744
-152.44
-138.743
-80.7221
2.18062
94.7895
62.4001
25.0471
15.9049
74.0852
123.737
57.329
-52.5943
-130.418
-164.692
-144.486
-105.219
-79.2621
-14.031
71.0799
117.131
117.134
92.1444
46.4879
-23.4695
-78.0558
-70.1499
-25.4139
-21.5361
-66.03
-97.5954
-40.0348
27.2632
69.8759
88.1188
55.8214
20.1962
13.1533
59.0579
101.009
127.095
175.798
236.522
202.088
127.27
1.82184
-112.437
-176.567
-195.799
-294.515
-365.101
-278.185
-125.435
9.69011
100.263
132.066
124.346
152.801
140.365
71.8079
-5.91167
-116.633
-167.93
-145.609
-71.9123
41.8986
108.982
85.3418
40.6168
32.6269
34.7418
27.7383
14.1256
24.649
34.8966
49.7451
54.0477
34.2426
28.6572
8.88668
-37.2175
-80.6004
-69.071
-35.8894
-31.7376
-78.7247
-127.513
-99.8033
56.3987
185.135
214.218
178.27
125.043
14.3253
-17.8574
-28.4859
-78.8005
-84.2192
-71.9824
-37.7427
-55.3178
-50.4389
-46.0877
-53.454
-59.5652
-25.5898
53.5702
72.5279
26.7809
29.5729
13.6372
-33.4896
-99.7756
-151.744
-135.693
-81.4313
-7.52168
15.5685
41.0795
55.1283
62.9384
56.8693
39.2649
35.3845
49.7584
81.6507
134.05
128
94.5869
54.8086
9.44901
-41.905
-42.4293
9.85132
6.39787
-29.2789
-10.6506
-2.84387
-38.797
-59.0221
-35.3377
22.7581
20.6078
-17.7405
-36.1339
-83.1521
-163.596
-163.569
-108.549
-16.0878
65.5851
98.668
104.019
121.662
105.446
65.2107
14.2065
-37.673
-23.7984
-9.35157
-31.3409
-21.3264
-6.02155
4.49577
-42.7692
-70.501
-95.1163
-76.8997
-19.1561
26.4554
58.5864
73.6497
51.418
38.0587
-17.7676
-45.9095
-62.3723
-35.9566
-7.5499
29.5568
97.7335
125.26
136.039
91.3933
3.66187
-19.242
15.5089
24.1155
-36.206
-53.6182
-40.28
-56.9133
-53.7505
-70.7151
-81.5226
-71.3783
-75.0421
-36.3666
-14.7757
-79.8932
-79.4225
21.8852
87.6998
113.82
138.055
92.4042
64.4523
77.2821
78.2377
-15.1742
-129.549
-125.595
-53.5191
25.5426
99.9997
178.914
171.838
75.3821
-21.4653
-43.9927
-35.9392
-94.5041
-131.958
-116.983
-68.8321
-15.008
20.5125
18.5644
-28.7706
-50.8667
-4.55916
28.9201
29.4874
27.4585
17.0702
-26.9387
-43.0009
-40.7119
-3.1414
13.9877
-8.12223
-36.0604
-84.4997
-82.321
-11.4741
30.7069
9.46956
3.79481
17.178
3.30148
35.9849
68.9322
78.3541
57.1358
39.3395
27.9553
57.2709
56.6857
34.9222
48.2329
92.5246
138.208
105.48
24.7181
-36.1363
-48.9557
-40.3846
-98.11
-165.628
-124.119
-84.4412
-90.3468
-106.758
-89.0592
-62.0172
-44.5107
-25.7546
5.309
-6.17138
-4.14623
-42.7313
-89.7492
-42.032
39.5277
123.01
209.166
250.203
256.677
180.49
54.9248
-39.1141
-71.8719
-67.1324
-25.9871
-28.4902
-22.319
-18.9278
-29.0491
-40.1088
-50.9124
-68.7265
-85.5218
-68.0925
-65.9571
-56.4115
-82.7763
-53.8471
75.1403
183.776
162.049
109.095
54.8937
-32.3518
-82.0679
-53.308
-34.9695
-35.1022
-14.6235
16.7508
21.4143
-0.354278
21.2034
46.3587
9.04564
-53.7548
-92.4311
-158.352
-159.338
-53.5542
60.9569
94.601
92.927
68.8834
11.4509
-11.5178
-27.0267
-45.225
38.4379
97.9206
51.1513
23.5695
-23.9117
-25.9083
17.4439
10.6191
52.3695
116.042
78.3026
48.1457
69.2834
40.0496
3.05291
-10.9389
-41.5473
-59.9826
-87.6597
-80.8662
-64.9238
-31.2495
43.2586
104.675
89.6452
-38.2624
-116.405
-95.3012
-96.1158
-93.6072
-107.04
-128.462
-128.968
-82.3924
-21.1217
25.3689
76.3807
83.6632
106.716
148.82
138.727
73.9413
8.1482
-31.3139
-4.75004
47.0278
70.3323
54.6705
47.8411
32.9804
2.72835
-46.6039
-62.8119
-47.3598
-13.1242
37.2063
38.3874
11.2737
11.7297
-13.7607
-63.8799
-70.4799
-108.362
-150.711
-116.138
-11.8539
79.4837
115.97
154.438
169.37
150.765
128.411
61.2716
-20.7921
-76.7239
-92.6202
-94.2365
-62.8467
-82.9421
-136.295
-99.6368
-37.1986
3.70917
44.0469
38.7189
32.4342
3.64544
-64.4096
-141.462
-131.842
-76.0927
-38.7873
-13.0365
37.3039
128.609
168.843
129.766
25.601
15.9946
87.0352
51.56
6.58948
31.5273
49.7265
30.8139
6.82797
19.9942
34.74
16.5343
-24.381
-40.2489
-39.8938
-27.7586
9.49969
9.50898
-10.5912
-17.5537
5.08221
11.5386
5.76227
-15.3299
-36.3256
-67.184
-79.3562
-78.5436
-67.6917
-47.8082
-6.3908
9.34663
6.20194
17.6689
31.5645
31.3402
19.1037
0.373618
14.4698
43.7468
111.949
117.573
-0.638878
-113.101
-114.202
-36.9282
14.4933
38.005
21.5686
-43.4315
-92.1944
-91.9653
-63.1624
-85.0156
-78.7101
17.041
104.41
124.595
95.5336
47.1632
0.994203
-18.6397
46.1787
117.125
100.243
73.274
74.0814
53.4269
28.9741
22.6774
17.8311
50.5591
75.3096
33.4572
-42.5844
-113.764
-153.777
-167.094
-150.84
-109.101
-44.8448
13.5693
36.5648
26.9069
-37.5297
-102.179
-135.836
-120.162
-51.8389
18.5446
78.6583
100.041
42.3343
48.9527
129.6
118.053
73.5459
31.3841
25.0201
65.4978
18.9372
-109.77
-108.718
-18.0237
66.3746
126.814
103.551
-0.206807
-77.6657
-79.9725
-71.5244
-70.6034
-91.3094
-70.4457
-1.34396
36.8675
31.5111
62.6165
41.3358
-3.14191
-1.4194
44.0536
54.2288
42.2586
19.1901
-0.223019
28.0238
65.488
44.0418
2.179
-19.8006
-10.8447
27.0198
28.2741
-21.4736
-62.07
-85.5229
-120.821
-98.8527
-39.3794
-13.8634
-0.997125
-18.5233
-43.5271
-34.7574
-50.9829
-57.7665
39.9248
126.574
125.235
70.9991
40.7455
33.7492
12.1792
-26.8458
-12.0123
-5.45586
-11.3452
-6.31752
-13.0837
-31.263
-30.3406
-46.6878
-99.9913
-90.3713
-27.9762
-10.6881
-28.2973
-69.9872
-59.7395
39.1014
80.5091
112.535
109.518
76.1512
40.552
82.2097
137.775
117.159
55.8917
14.1012
-11.5434
-6.13945
-16.457
-57.0428
-40.6628
55.1921
138.476
178.97
146.598
53.8665
-21.9246
-59.9979
-86.1376
-132.711
-181.995
-219.079
-245.814
-240.877
-187.895
-170.692
-148.972
-0.799545
194.858
211.061
137.194
50.4215
-1.30699
-29.5001
-52.0445
-104.648
-109.951
-69.9333
-9.45085
60.5361
130.737
168.223
182.954
219.497
191.479
120.671
41.0817
-17.7919
-37.1716
8.59326
7.22144
-24.0986
-70.9501
-79.917
-43.8503
0.531813
12.401
-27.7444
-36.234
-27.021
-26.082
-29.7782
-26.3715
-11.7762
-11.0177
18.0547
56.5806
15.1855
-58.2332
-84.2662
-57.6882
-25.0487
-20.4058
-53.245
-36.6335
35.0903
72.6719
82.9897
51.0144
-14.027
-43.8062
-42.1448
-31.5236
-77.3074
-59.0876
70.5523
131.048
92.5376
54.2856
36.1115
55.7571
60.4221
20.7286
-17.7539
-61.9917
-89.7653
-97.6674
-93.5478
-76.0263
-29.6229
4.01631
14.0378
3.61284
18.6649
1.53084
-32.5843
-15.0726
-24.4269
-46.6358
-41.9711
19.1927
93.7478
122.95
146.973
155.892
82.6975
-38.0368
-182.565
-191.986
-112.529
-25.2375
66.1768
119.063
114.337
116.361
90.761
64.6914
66.2043
68.0946
55.4235
-37.8849
-188.74
-275.64
-232.346
-76.2835
82.0269
149.633
208.514
214.477
165.763
78.0038
-43.4388
-151.087
-175.755
-168.572
-158.21
-105.197
-67.0936
-62.7502
-74.8124
-61.159
-6.87015
53.3761
73.5908
-4.67181
-37.1856
0.894992
33.2059
46.5469
60.9532
60.1766
65.3453
50.9042
27.2831
59.2911
41.8247
-18.3878
-15.755
15.6421
50.211
42.6681
55.3286
62.9766
35.9862
-15.2341
-75.2795
-93.657
-34.3146
11.2031
2.86957
19.5175
-3.15374
-22.0441
-12.6239
-14.2841
-19.8841
-3.96742
-8.19439
-5.12758
27.0901
29.8978
-1.21958
-21.9894
-48.2977
-112.974
-163.047
-54.3557
86.8194
160.954
129.047
59.3624
72.0528
112.792
55.1173
-52.0098
-35.7282
-54.1067
-183.875
-194.558
-115.529
-59.8978
-48.8255
-31.5993
33.1996
106.768
153.92
121.45
70.5723
28.8772
43.0081
33.4359
-60.1924
-125.882
-106.585
-101.995
-83.6769
5.49934
133.897
174.884
170.054
140.149
84.3977
25.5204
-28.8805
-59.7239
-78.382
-81.5896
-72.9811
-116.128
-137.047
-116.207
-75.1732
-36.3799
-46.7106
-3.58238
110.237
176.744
246.235
286.026
179.478
110.275
68.2264
-9.57527
-104.2
-166.915
-179.782
-160.752
-163.841
-159.826
-143.506
-116.313
-62.8869
-8.49583
79.339
118.208
51.1093
-4.97399
-33.6111
-76.7591
-76.9892
-71.3591
-5.75531
82.9896
116.745
130.712
126.553
51.0055
24.6648
67.7517
129.362
116.748
65.1151
-0.0760009
2.31276
89.3213
111.133
81.2462
27.611
-14.5821
-98.1889
-131.852
-113.086
-77.9252
-39.4
-6.68076
11.7918
38.8886
-14.5759
-175.488
-205.497
-104.038
-49.5379
-54.5517
-70.5294
-106.7
-96.5729
-30.662
9.27656
86.8427
172.791
177.812
151.901
130.417
119.57
151.376
138.014
37.778
-94.9281
-150.564
-162.582
-101.173
-18.4933
56.0873
56.4068
21.4391
-16.2862
-51.7687
-79.8805
-139.831
-135.195
-85.8012
-42.2917
34.3058
84.8077
68.5909
40.4645
38.6884
71.5446
65.3463
15.9664
-7.67853
-1.95565
2.63588
-1.1169
8.65518
6.40382
1.19483
26.2157
33.7004
24.7085
25.5246
44.0207
58.8416
84.4032
86.9303
35.5338
-2.50539
-24.5715
-5.28563
-23.5566
-86.1268
-75.8209
-19.6751
47.0895
43.4951
35.9696
13.531
-31.6522
-51.5759
-34.4772
-54.1427
-104.13
-141.046
-165.015
-168.485
-98.6407
-23.3748
68.3213
101.205
75.9478
36.0201
-19.4099
-38.8682
-32.6222
3.8909
49.4706
96.3886
78.6164
-24.0011
-115.847
-78.4952
-4.7548
5.62511
49.3027
144.073
199.791
153.477
84.1988
85.6963
76.271
47.1243
19.9515
-33.9843
-136.569
-143.369
-100.46
-81.9317
-6.73781
67.178
115.387
86.9096
25.4748
-26.644
-51.2711
-74.5532
-127.624
-127.646
-144.337
-88.1998
37.3977
86.0841
63.6165
65.8001
148.255
148.784
24.0986
-53.1338
-38.8957
-35.4504
-49.8148
-36.4301
31.5477
100.235
104.558
48.4331
2.36349
-26.9865
12.1319
-44.6979
-110.239
-77.1504
-28.9651
-9.55786
-10.5492
-16.8889
-59.7667
-169.478
-221.441
-116.265
-32.7004
-18.8115
-19.8317
-4.84579
3.99765
-2.81346
17.5952
51.0801
112.405
176.447
172.674
122.017
85.7774
62.4618
38.1557
16.8765
64.0803
145.943
154.593
91.2434
49.0119
16.2085
-49.5861
-100.546
-107.78
-119.183
-96.0516
-53.297
-50.5403
-49.0381
-47.3805
-45.44
-16.2125
-13.8465
-40.0487
-49.0295
-23.5395
30.0228
31.7436
35.3155
43.6771
-13.411
-38.5611
-25.0536
-22.3675
-8.09003
-3.2281
-55.4653
-68.4416
-34.2127
-2.13947
32.3442
53.8894
93.6985
97.5795
47.1582
7.4584
-16.9597
-31.1752
-52.1421
-76.6474
-40.0767
-21.0552
-43.1947
-63.0876
-38.7257
-3.05202
74.0454
127.737
164.814
172.509
108.124
31.4789
-49.7013
-82.0028
-76.7423
-65.0557
-92.6079
-147.859
-97.635
-29.2212
33.5066
93.2747
121.374
117.55
99.9373
74.217
55.4418
8.42185
-26.1046
-55.8019
-72.7632
-93.5744
-63.5406
-1.90621
72.7578
46.2713
-5.52339
8.22494
-3.15814
-37.1502
-41.3906
-4.07569
61.7628
101.832
108.173
66.0898
10.7735
-48.5895
-73.3187
-63.2994
-99.038
-115.014
-132.312
-164.663
-206.009
-181.117
-54.7946
81.282
126.833
106.117
59.1923
33.501
1.53355
-0.514822
13.67
24.0413
27.1998
56.3899
41.2611
-47.4086
-70.2676
-12.762
68.0487
176.898
263.602
243.912
159.896
66.2311
-42.636
-78.8187
-22.3925
-23.0865
-66.7793
-85.4775
-89.1699
-75.593
-53.3796
-35.4985
-3.50355
41.4943
74.6991
24.5635
-29.2896
-52.7665
-86.9002
-72.3376
-31.4848
10.6087
66.2239
89.1618
22.7728
-46.9708
-59.604
-88.5243
-107.838
-103.146
-124.286
-145.422
-133.583
-59.9429
58.4076
133.679
176.417
171.617
128.572
103.486
56.8811
18.8437
23.0083
22.9385
34.4803
41.2159
-5.90818
-77.0019
-90.4795
-42.8638
20.6769
34.2804
54.245
57.8869
24.5496
-21.8372
-108.197
-184.705
-147.124
-42.8585
7.4627
-24.4605
-109.527
-70.8473
-12.565
0.835879
-2.26941
73.9737
163.667
184.572
160.296
128.285
70.0679
17.8502
-10.9988
19.1122
100.938
98.3649
50.1261
7.27516
15.1934
6.9421
-41.3804
-105.209
-147.067
-94.8559
-5.65619
-5.37425
-60.3844
-97.8091
-93.5629
-4.05467
53.2691
23.0086
-12.5033
-109.615
-151.768
-101.976
-104.153
-120.151
-71.2648
3.95562
118.388
152.315
118.94
95.1698
78.6885
34.9372
-1.54745
1.02545
-2.32854
-26.4608
-47.9057
-20.8251
5.3133
37.4135
28.0179
24.9309
66.9244
79.4734
35.9079
-4.20386
-25.5912
-10.9414
12.1487
-23.5571
-41.2889
11.5222
62.9662
106.425
73.1355
-53.918
-68.5633
-42.0904
-84.3173
-34.3231
12.9519
23.4745
17.6268
17.3958
21.5465
18.3227
-2.06783
12.2203
24.0161
11.8871
10.4957
3.0688
-35.8078
-92.9831
-105.814
-58.9196
-67.7607
-79.0665
-35.0462
1.83769
24.4444
46.6933
94.8073
120.521
132.019
174.64
191.279
163.265
40.3216
-145.3
-246.667
-207.927
-173.157
-149.239
-107.521
-51.5263
2.85005
32.4742
59.9934
51.4182
47.6551
30.7589
-20.0512
-43.4173
-65.2977
-81.633
-85.8058
-94.4846
-14.7201
110.4
142.198
103.307
107.365
123.572
167.156
210.98
156.518
81.0178
45.1107
-6.13952
-63.0602
-99.6145
-132.883
-111.285
-91.391
-99.4273
-61.204
-44.7689
-28.8608
10.3913
51.1773
50.7885
25.8147
-10.1404
-31.5324
-89.0002
-91.8783
-33.7935
-28.2256
-49.4827
-32.8603
10.7961
42.8301
25.7395
9.61117
21.3238
7.54509
10.383
60.047
119.389
150.285
110.88
47.3725
2.30583
-45.7846
-72.2479
-31.6174
-9.16646
-13.3539
-17.0728
-24.3015
-16.9985
-15.9489
-63.146
-64.7565
-22.3608
3.57223
-24.733
-46.3226
-69.8002
-71.9833
-50.1502
-36.7863
-19.5982
11.6882
49.7155
70.0695
39.4781
34.7184
72.6372
76.5373
54.566
49.0157
68.2385
48.3005
37.3753
12.349
7.05369
10.9648
1.75987
-26.3608
-22.7892
-25.2257
-49.378
-30.6724
-12.2057
-29.3175
-22.342
19.937
78.7291
59.1873
-18.3974
-98.6724
-93.3449
-33.1147
-25.5867
-14.2437
25.1601
-2.67559
-30.2209
-31.8859
2.03992
5.32224
-78.0718
-80.1347
-20.6007
16.1198
54.9557
93.2671
101.234
83.6583
51.1609
21.7735
2.62003
-9.40625
-50.1809
-67.1578
-43.8337
23.9749
62.2414
70.5513
20.2374
4.84364
47.8132
34.1992
-25.6088
-61.7112
-74.4593
-84.1946
-56.383
-31.8015
-13.8978
26.3324
26.4872
16.9153
30.7423
-1.34599
-31.7472
-42.4913
-57.838
-90.218
-90.2077
-57.9101
25.554
66.8439
75.5044
94.1249
142.876
172.417
96.9356
45.204
42.2396
13.4611
-21.206
-63.3477
-83.8081
-61.9055
-59.3222
-49.7865
-18.746
2.72084
27.8159
45.2987
52.8988
64.3235
83.4228
28.025
-91.852
-212.221
-251.031
-228.559
-130.41
-7.97676
59.6116
91.972
138.372
172.343
136.707
104.096
63.2989
8.46414
-23.0074
0.70841
16.3166
-0.802749
-42.7936
-90.2497
-97.6572
-20.0168
40.1497
61.7186
35.3266
3.66965
-3.43464
0.535025
-34.1099
-69.9737
-61.362
-55.779
-22.6515
31.8986
44.8745
58.4512
50.7539
34.7136
40.7862
74.7065
90.0638
54.5164
80.5571
100.18
0.578516
-163.405
-260.03
-213.134
-114.381
-61.4248
-57.9802
-42.1546
23.927
90.7688
119.09
104.484
86.7867
20.1808
-62.644
-100.672
-69.6447
-10.2262
18.0644
31.2106
72.5171
128.671
183.629
171.574
92.92
45.7432
41.4379
19.5813
-29.4126
-88.5929
-100.644
-121.647
-159.569
-137.47
-116.555
-112.286
-53.0773
-9.42715
-10.4655
-2.54656
10.2551
86.8247
130.291
52.5685
-13.1034
-19.8825
-6.35735
-13.4769
-37.7442
-6.17029
53.4196
106.35
111.531
77.9926
32.3717
54.6943
40.3005
-4.62829
-19.0191
11.4782
49.2442
37.4346
-35.7259
-71.5928
-71.0127
-73.5505
-74.278
-59.3725
-77.8199
-85.6622
-70.5116
-55.0275
-30.7335
-31.0583
-29.3328
28.7939
71.0094
103.671
101.932
75.0555
26.0814
-7.74018
8.29915
21.3819
8.6596
15.4037
6.80711
-4.99383
1.43244
23.6361
1.67846
-49.1396
-20.0912
43.3029
62.3366
34.5745
-4.97943
-58.8865
-103.818
-115.423
-50.8933
29.7251
57.0485
32.9114
18.2802
13.2586
34.4691
50.3229
77.5068
99.217
50.5303
-33.5114
-57.3043
-18.7566
36.8308
26.3515
-16.3946
-74.6702
-51.8078
-16.8721
-40.5323
-68.7965
-105.959
-71.5458
26.1189
43.6961
31.0427
20.9075
10.5222
29.1406
46.9036
33.2146
-14.7014
-91.2298
-166.488
-131.034
-6.55514
85.5207
77.0808
54.0422
68.9668
88.9959
112.932
96.2246
57.5652
8.60754
-50.8363
-122.992
-197.284
-190.764
-70.424
52.7329
129.751
145.802
157.505
133.282
83.8755
27.3428
-12.0012
-39.1548
-62.0711
-88.5492
-83.3162
-56.7233
-72.6758
-96.5854
-73.6656
21.2811
126.254
138.882
93.8041
27.023
-39.6896
4.97419
53.8709
4.79921
-80.455
-112.867
-97.411
-87.8251
-64.8604
-32.192
2.80569
27.4621
40.3233
77.7662
125.384
130.06
122.689
18.515
-145.429
-171.235
-160.837
-231.691
-206.434
-52.3219
120.689
224.54
196.73
152.63
98.5324
46.1489
20.681
12.0798
18.3486
24.0906
-15.2424
-28.2134
-47.1591
-46.5435
-10.5934
52.344
99.3784
100.903
74.2925
16.7401
-65.5084
-124.433
-98.8327
-92.1953
-87.345
-58.0315
-66.8559
-58.3021
-12.8654
15.29
-16.3578
-34.949
-15.4852
20.2146
70.1756
79.5265
69.6886
98.6047
96.0211
0.81964
-57.0465
-40.2838
13.9584
40.5962
45.1479
42.4168
59.8441
73.4374
13.4612
-99.3552
-190.607
-244.756
-154.517
-42.6673
3.58227
11.5896
0.309656
-27.7351
12.0386
63.6072
97.4646
121.701
99.6247
88.1992
87.9822
74.9132
33.0292
-47.7893
-100.972
-40.2469
38.0593
93.3555
66.9537
28.7681
29.6263
2.93546
-37.382
0.730081
-0.537375
-24.0831
-55.2795
-86.8912
-122.751
-136.224
-106.736
-94.4666
-64.1645
-25.5202
12.5744
65.151
120.45
117.748
73.3033
3.34928
-35.0765
-47.2991
-16.3756
17.8566
53.6828
94.441
52.7275
25.2139
35.5655
-22.919
-92.3958
-108.581
-54.7259
26.5154
76.6127
88.3345
64.0579
25.7557
-17.298
-28.9097
-29.3091
-12.2606
0.6704
16.4995
-1.21905
-35.3082
-80.3448
-138.959
-130.714
-73.2008
-51.8337
-14.4104
38.2534
112.374
202.733
152.234
94.8398
100.971
103.196
64.1258
5.81989
-34.9724
-58.2324
-75.4602
-79.834
-84.6856
-61.2407
-42.0642
-57.6607
-7.65828
40.4651
47.2198
2.7414
-66.5531
-112.354
-112.542
-80.5116
10.1052
13.3207
11.2821
7.62237
-29.3719
5.6439
84.9246
100.027
115.666
110.234
71.4788
43.3931
18.871
34.7406
44.2568
14.9664
-43.4922
-87.2818
-73.0761
-12.5134
21.2278
32.263
45.0642
56.0936
63.7968
10.1312
-64.1615
-94.1305
-236.516
-286.98
-156.382
-59.736
26.9101
58.2619
27.8175
6.40129
20.3619
35.9205
81.7558
97.117
65.3592
100.999
171.197
194.117
188.97
113.128
-19.2374
-100.229
-30.4213
22.6675
-26.5581
-52.7518
-61.0138
-70.473
-55.3292
-24.5425
-39.1538
-77.2088
-91.251
-77.9771
-75.3281
-109.484
-157.654
-158.409
-119.453
-48.656
16.0202
75.303
116.469
157.93
157.659
135.939
118.331
128.182
104.876
19.263
-2.29088
39.6427
84.7958
60.6081
-27.7095
-60.1262
-70.9803
-82.749
-56.3497
-34.4613
-33.9378
-42.5933
-56.5336
-103.688
-134.006
-88.8091
-9.19968
43.6537
118.418
176.084
143.076
35.1031
-82.8243
-131.554
-127.608
-104.871
-106.781
-71.6613
-0.198128
80.6251
151.573
212.878
298.96
277.712
209.161
78.7377
-62.8762
-139.305
-187.225
-163.85
-132.63
-135.653
-85.2386
-61.3882
-36.6698
-11.8117
-8.70455
-10.3616
-32.0717
-53.9826
-49.5996
-46.1986
-74.1002
-46.7838
-1.72642
41.1809
44.006
43.5724
71.1117
88.2661
114.036
84.3727
45.2046
71.2304
65.8054
40.0271
68.8374
39.2708
-8.99072
-33.2785
-38.3322
-45.6082
-35.7162
-31.1696
-35.2117
-42.0602
-5.99934
0.849666
-17.9475
-29.6695
-19.4028
30.2853
54.648
27.4734
12.2993
-12.8741
-33.295
-5.81574
3.64092
-17.5496
-24.2618
-15.0526
-13.6994
59.11
66.6185
-26.7502
-82.4853
-91.8817
-67.4655
-1.10987
-8.89731
-126.59
-139.084
-33.7165
48.4914
81.378
77.2935
52.5157
29.9719
41.2623
62.7289
44.3182
5.13848
-26.5921
1.96956
84.4021
98.8896
81.9006
36.1323
-10.795
-9.04893
71.4263
67.8904
-6.80299
-74.5277
-86.4145
-72.9075
-51.0591
-61.4501
-97.9166
-120.894
-54.8744
21.8716
10.2598
8.3333
53.0132
102.704
97.9395
55.6139
14.9528
4.7163
-0.240688
-25.9311
-67.7369
-60.8122
-3.45835
27.549
25.7625
1.21559
-16.5586
34.2432
63.5083
34.381
3.76095
-25.2291
-11.2113
-18.4187
-26.9995
-40.7023
-83.5919
-168.62
-203.039
-82.2357
56.0231
117.809
87.3452
63.8142
55.0193
46.4891
70.2242
70.9953
14.2663
-24.211
-15.2548
-13.5049
-35.298
-45.7571
-20.6442
21.0913
36.8809
79.8509
129.396
82.793
16.7944
-40.2462
-67.9263
-50.2001
-14.4734
22.0371
50.7799
18.1586
-18.4233
-9.60112
-1.35196
-16.1537
-30.6632
-48.8111
-59.7568
-46.0134
-28.5953
-42.2397
-24.7346
-24.0707
14.5605
33.536
29.8502
5.40625
14.3845
41.6903
38.3374
29.1528
25.3755
-12.3502
-38.4066
-30.2858
-26.6278
-20.2456
-2.48564
19.3125
3.92467
33.278
73.1383
64.6042
-5.5815
-71.5976
-126.047
-170.762
-183.456
-102.972
-16.66
58.735
108.065
89.0084
93.7089
172.922
252.971
251.33
191.542
90.0551
-50.2271
-139.746
-158.875
-188.541
-213.062
-210.582
-120.017
-50.5436
-42.1793
13.6587
51.1664
9.44121
-26.7443
6.33959
38.7508
40.0209
-13.0704
-8.88636
31.022
83.1792
139.695
139.029
131.074
120.109
97.7555
79.6603
35.254
26.133
51.1136
25.4027
30.5756
-19.8105
-90.4354
-105.317
-114.347
-157.504
-194.338
-199.548
-176.901
-148.688
-75.5547
7.39319
29.0139
37.8786
58.0764
76.997
62.4797
62.2324
76.069
37.5466
-22.1468
-29.0137
-4.80376
6.91892
-9.08654
11.5508
74.9136
55.325
-23.4818
-107.032
-153.138
-115.238
-13.5952
148.148
293.031
395.684
392.707
298.157
103.278
-74.8862
-184.994
-213.379
-232.504
-206.875
-110.085
-105.201
-146.396
-117.411
-60.5135
7.84787
60.7725
98.8374
81.4056
-2.71211
-83.4372
-169.943
-222.298
-179.637
-51.7593
51.3366
102.873
109.884
127.096
131.343
98.1266
96.9514
104.273
87.436
62.2146
47.9559
47.1249
31.1044
4.75514
-30.2814
-45.9648
-33.6924
18.5579
49.7261
-2.61854
-80.4813
-125.025
-98.783
-45.9221
-24.8499
-4.03533
65.9228
58.3536
7.3057
-16.5174
6.30247
21.0804
-9.01963
-14.0397
-38.7091
-59.1163
-33.3091
-2.57251
-11.2579
-6.34276
9.03856
30.3767
20.6543
12.7536
-71.851
-143.579
-126.643
-29.3201
57.0645
142.691
193.649
264.929
254.039
102.802
-34.7021
-116.068
-137.973
-134.379
-137.624
-103.421
-47.3017
-30.3664
-28.0778
-50.0902
-26.0118
-6.73102
-14.5359
-22.482
-0.302853
12.1346
-12.0012
-70.9028
-126.369
-77.6001
41.7114
131.896
148.077
151.367
138.274
82.2418
26.6413
6.44301
25.687
20.7386
0.569063
106.076
136.58
47.7909
-49.3469
-120.46
-142.884
-135.377
-95.9917
-60.7936
-11.3357
78.8751
120.502
53.5054
32.9796
58.9879
45.1403
80.9536
43.0167
-43.0596
-109.96
-117.589
-66.5637
-67.4566
-137.483
-121.515
-72.7484
-27.3831
6.68838
19.7726
42.5457
31.7892
38.4499
51.203
29.3586
-30.5945
-62.8006
-88.53
-64.161
7.4537
62.1033
82.9575
104.813
104.846
123.035
77.7341
46.2198
24.603
1.65358
-16.7917
-24.5374
-45.8103
-79.3662
-56.381
-31.0641
-30.8542
-74.0299
-77.4118
-44.3825
-3.40032
38.8239
66.7855
73.2615
102.038
120.99
119.736
106.451
93.8978
84.8419
22.9774
-73.1381
-123.727
-127.888
-127.852
-145.397
-168.375
-103.216
-51.9687
-42.0634
-8.39498
28.6029
22.9968
28.5505
34.5981
12.7328
19.4229
8.79094
-13.4317
-27.0006
-31.0995
-11.0436
15.9678
47.6176
75.268
62.1602
101.527
174.206
177.332
162.577
106.732
-12.4669
-66.1751
-110.231
-135.511
-120.543
-109.125
-80.4434
-62.7097
-54.5246
-18.477
12.8126
39.7109
38.0314
28.5681
40.4017
22.0647
-68.4412
-179.474
-197.666
-93.9852
18.3702
71.5888
92.3791
80.7916
47.1282
9.68402
14.6223
32.8166
66.7185
92.9921
95.5081
86.9896
88.0387
72.5267
79.6629
87.482
50.1859
41.579
28.2157
-76.2476
-169.242
-166.079
-100.474
-71.918
-44.1066
-35.4444
-57.0082
-65.0864
-77.8389
-86.5047
-19.297
6.31462
-23.4048
-25.7014
-5.12098
-4.64261
9.60436
27.3606
38.1615
50.8845
78.5336
53.4907
-6.17166
-50.659
-66.1713
-50.9103
6.51747
55.0809
134.393
176.78
127.678
74.3823
23.4178
0.571045
-15.3275
-10.9456
4.13109
1.49852
-57.8229
-75.7378
-41.6188
-3.35262
22.9356
34.3933
8.7373
-10.0136
-7.5344
-21.3505
-68.7571
-105.681
-99.0159
-61.308
-29.2482
-36.9196
-30.1435
-21.9404
0.101608
27.6953
44.137
47.0258
72.2944
112.007
111.442
105.205
88.1164
15.0643
-99.8783
-119.7
-89.5713
-91.8757
-80.5876
-95.3197
-102.674
-22.8287
47.5932
85.0946
104.345
111.98
117.108
110.332
73.0826
10.6836
-20.6583
-22.7841
-5.28271
22.4405
1.8347
-1.67242
-1.07538
-28.1404
-32.6761
54.0579
121.16
85.6565
-5.47734
-98.7682
-138.932
-160.688
-140.731
-117.671
-118.325
-101.019
-91.4343
-88.2305
-38.6626
18.9108
89.0004
101.421
55.4034
54.0332
52.1119
35.8954
30.7081
20.0969
13.1123
7.44049
-4.20901
34.9813
77.6789
108.904
121.548
106.174
99.9406
112.293
93.4906
48.3817
-2.31975
-56.3228
-86.1543
-71.5265
-70.3823
-78.7964
-78.7528
-71.8078
-30.0781
15.1479
15.5285
-38.6926
-110.104
-135.361
-123.088
-127.118
-75.2439
9.78611
79.8673
139.238
148.43
133.157
120.291
78.6363
59.7001
18.9179
-26.808
-64.7255
-102.828
-115.873
-115.407
-67.4744
-9.12555
6.94254
7.77864
36.8282
38.5624
40.5464
46.3886
38.5903
25.9905
29.5471
30.3142
-33.9372
-166.511
-187.06
-89.2625
29.0165
70.2022
52.218
65.94
108.505
122.736
108.087
108.503
97.5359
68.9266
10.8296
-70.9003
-107.36
-127.017
-117.844
-100.594
-29.2919
59.8582
87.8502
53.0339
8.31909
2.95401
12.5879
13.4422
-19.5613
-33.7882
-40.1406
-36.513
-21.3296
-32.7299
-91.0331
-157.305
-118.826
-20.8635
31.7484
44.3051
60.2962
90.3466
78.3392
51.6543
30.4485
24.6759
56.3272
59.0472
41.8491
32.5042
37.6249
9.22198
-57.8242
-79.8648
-25.0771
29.4002
43.212
44.9798
41.4222
28.3731
11.0857
-10.6298
-24.2081
-55.1377
-49.6567
-7.76391
17.3099
37.4964
0.488284
-44.6465
-79.0334
-79.0519
-87.4132
-101.706
-98.5513
-67.5343
-39.5868
-17.3382
-19.4617
13.372
78.1955
87.227
76.0332
81.8619
113.644
93.7624
71.0287
87.2215
94.0545
81.0743
30.3879
-18.1915
-40.3606
-110.365
-203.8
-172.342
-95.8726
-46.4699
-14.4472
-0.644266
15.0204
45.6694
49.8661
79.9775
52.2556
32.3104
7.97715
-31.6393
-32.9266
-24.614
3.70267
41.9493
102.042
141.03
162.269
123.16
46.7259
-19.3962
-59.1374
-106.385
-169.736
-123.562
-60.3905
-40.9079
-35.1363
-39.4025
-57.9039
-58.0747
-35.6794
9.70055
60.205
84.4234
80.0146
33.3597
8.59625
-12.3466
-42.3844
-62.3475
-41.1532
0.782909
43.3273
66.9689
62.1447
52.0409
28.8124
-25.6345
-35.2457
-48.4288
-61.1465
-73.8647
-74.5056
-68.7964
-44.6312
17.7721
74.8032
75.2566
73.456
77.9364
56.3651
44.4922
33.741
-21.5865
-34.4009
-35.8015
-43.921
0.670969
27.7611
21.6829
19.0271
1.5143
-23.1763
-29.687
-3.04317
27.6884
36.9275
44.8166
39.4643
30.1295
13.4886
-16.9834
-4.94385
-11.9663
-26.3645
-35.6838
-31.8646
-30.7883
-25.7083
25.9326
41.3769
0.328247
-31.7432
-98.0411
-98.0984
-41.8068
-19.7088
-1.1222
22.2221
27.5924
23.7914
31.967
21.2945
14.1383
3.1819
3.464
-7.54296
0.0349782
-14.7175
-39.9555
-31.8172
8.17191
35.8569
71.345
65.1935
97.2941
124.247
69.0595
-12.7359
-82.6494
-80.9541
-49.9299
-37.7535
-1.93837
25.2656
-12.375
-89.1154
-90.8419
-51.5478
-35.9096
-7.24372
21.108
64.5291
100.917
101.79
44.6654
-6.24605
-33.4896
-65.8827
-98.3241
-118.937
-92.5888
-10.4487
43.5069
69.393
121.048
214.238
193.582
95.9221
17.4741
-51.7745
-89.9516
-115.948
-116.734
-110.459
-110.449
-84.3081
-29.4196
9.66349
52.9359
81.2522
71.1282
19.2072
-27.9961
-38.6131
-40.1565
-66.9793
-65.0199
-2.54143
37.7057
56.3838
59.2092
50.9404
26.5121
15.5777
31.3819
37.6519
41.7789
48.7585
50.2228
25.4037
-14.0146
-19.8484
15.0451
41.1366
30.6753
14.0786
-38.4851
-69.9055
-57.0978
-51.2197
-58.9755
-37.3568
2.71708
48.4057
72.4644
66.8729
-2.82349
-96.1865
-82.8284
-9.2691
22.2154
-0.188513
-50.5477
-90.6239
-90.348
-73.0087
-31.6179
13.8017
12.593
27.0261
50.1107
51.1437
24.9267
-47.2029
-77.8668
-47.9601
35.6767
143.997
151.539
92.8301
99.0915
115.534
66.4823
44.7699
32.2579
-33.4153
-69.0975
-95.2783
-85.965
-56.3282
-34.2795
-20.1199
22.2509
33.1289
-13.9085
-41.0055
-51.2177
-49.1742
-35.458
-32.4975
-34.1401
-44.9339
-37.0178
-42.8399
-43.8825
-0.340317
52.3653
66.7867
71.5563
51.1867
28.1039
6.15183
-12.0128
16.8987
47.4841
32.8261
19.7311
4.26266
18.3357
56.712
52.8242
5.84058
-60.473
-90.9788
-39.5378
-1.78805
22.0067
49.4914
38.0794
20.7067
23.8766
26.3483
-16.2013
-90.9047
-101.655
-81.4127
-52.5684
-29.1323
-33.3017
-25.0027
19.1546
105.574
173.076
187.213
121.69
-0.404359
-71.8485
-71.2171
-47.5495
0.780855
-3.79257
-54.8341
-73.6854
-61.2447
-49.5347
-37.8556
-32.3324
-30.9587
-17.4362
-42.1553
-68.2779
-96.2295
-68.7755
-42.8865
-21.4673
45.9076
63.6848
44.6783
57.8197
57.8836
44.1243
67.5966
78.9183
99.7033
106.795
96.1311
73.5007
85.2527
58.725
30.5523
-8.85107
-47.7133
-58.3275
-45.1522
-49.4695
-38.8436
-2.49171
-6.96304
-23.7565
-40.3163
-42.4374
-36.2294
-32.0297
-16.209
15.3697
19.3239
7.6524
-21.9992
-15.9594
-3.63637
-27.1305
-88.3222
-114.541
-91.9957
-45.7265
6.57412
24.5978
33.3156
14.7773
-6.81943
22.5387
33.336
26.0699
28.3758
17.2137
19.795
45.9848
42.6853
22.9355
15.3688
40.7665
58.4184
62.7536
22.2787
-21.2567
-32.9886
-43.0267
-40.4151
-28.4544
-15.7257
-23.5826
-19.978
6.70032
15.9933
-9.03163
-23.4087
-14.8894
-10.2865
12.7509
-5.69062
-30.9028
-11.3911
13.9632
24.4115
4.54819
-17.897
26.4727
49.5059
54.8619
38.6817
-36.8449
-61.9497
41.6178
135.781
138.187
109.078
43.3909
-36.5913
-62.2677
-101.345
-185.438
-161.428
-97.54
-65.8278
-23.4758
-4.16427
-13.4859
-8.3769
-23.1254
10.5948
91.6714
113.673
26.4071
-52.3074
-59.4359
-51.3076
-32.1492
29.4817
33.0094
51.3951
106.794
110.741
75.2444
39.5929
15.5159
9.44252
-3.19788
8.25887
12.8201
-8.12321
-21.9275
-26.7819
-31.7911
-27.4483
-21.095
-26.7599
-21.1367
-13.1231
0.940744
20.546
38.3055
43.5424
7.03136
1.18811
5.40254
-4.51594
-27.3746
-40.1482
-46.7937
-55.9657
-56.0229
-29.9687
-6.68241
-4.57136
-7.62599
-5.64391
-3.58542
-24.3485
-50.5348
-13.679
17.358
15.6251
28.9172
35.7577
27.9001
13.0769
1.88548
-4.47325
7.60172
10.8094
-7.5928
4.18445
49.2276
87.9254
61.3187
-19.0049
-105.37
-40.0806
100.35
150.522
153.268
137.545
65.9046
-2.55484
-38.7765
-66.786
-102.849
-130.015
-134.834
-84.3607
-36.4115
-69.6419
-129.761
-142.459
-97.806
-33.1045
51.9874
58.6179
14.8369
-2.46376
-8.90975
-11.4481
28.3271
75.0367
79.8061
119.572
167.871
150.58
87.0279
43.2341
36.0878
25.5679
15.4931
-11.1452
-30.1405
-27.3398
-9.41047
-36.5622
-65.8172
-68.168
-80.6267
-81.3514
-59.758
-51.1482
-36.617
-36.6809
-47.7211
-28.1613
16.5914
12.4425
23.3599
45.9956
47.8002
21.4466
9.7369
9.31425
23.7513
30.6915
3.4195
-18.7922
-10.7525
-5.8126
-3.98074
-1.81175
16.8214
41.8673
39.8951
31.156
22.2655
10.3477
-3.78701
-16.8994
-12.1012
-15.2228
-7.02257
11.4705
11.0214
2.74272
-4.59255
-22.2795
-39.8923
-65.8341
-97.5784
-96.0451
-38.102
-20.0658
22.831
64.0552
86.5077
96.0929
62.3432
39.7618
31.4335
65.4711
126.572
114.96
52.0801
-18.7848
-57.9652
-88.8753
-97.1493
-69.6509
-46.5962
-31.782
-62.3918
-61.2817
-54.9667
-51.6497
-54.9576
-54.5783
-29.974
1.44463
-1.14175
-21.0994
-31.3846
-19.3969
30.7345
81.8663
92.4461
79.6872
53.3248
27.4081
26.1342
72.1926
69.5659
38.1867
17.85
8.37768
7.39143
-4.36836
-9.5741
-5.22616
10.0275
-1.26984
-32.9039
-28.5929
-31.5068
-29.9037
-28.4898
-25.4849
-5.94437
33.9806
50.3429
8.70049
-25.0074
-37.3023
-56.3562
-55.4326
-35.112
-11.8378
65.0897
122.555
110.966
34.3622
-77.8199
-108.966
-94.8135
-94.7227
-60.7661
-33.5877
13.0348
17.4398
8.94964
4.70709
9.36138
43.3521
47.144
30.2952
17.732
-2.69275
-34.3208
-61.2565
-64.8053
-11.0942
39.2259
51.2944
58.8827
86.294
67.4011
20.7999
-16.9859
4.20844
31.4424
33.7495
29.592
-10.7447
-16.3006
26.9897
71.167
65.9026
32.2372
-32.543
-90.2099
-108.738
-87.8587
-44.6982
-15.2333
-16.234
-7.95086
31.3459
19.175
-16.0489
-5.51817
-8.40918
-19.9874
-13.5983
-17.5573
-36.1389
-63.7423
-57.4564
-42.284
-10.2282
29.6664
63.2108
79.4347
96.4412
99.9294
34.6447
-29.3381
8.91179
46.5818
17.39
-31.0109
-42.4353
-30.6767
1.69016
7.32407
-6.10483
0.466804
23.9743
12.96
-22.1278
-46.404
-33.8531
-2.21628
-23.5093
-49.9204
-12.3416
23.987
3.18068
-6.17224
-21.0724
-58.8768
-93.4429
-52.5748
7.97751
106.487
198.013
207.37
122.986
48.9585
21.8271
-2.15314
-24.3825
-36.7495
-38.4509
-57.342
-56.8433
-60.3196
-67.507
-69.7376
-57.4169
-28.4083
13.3594
11.0911
-9.82592
-65.3987
-113.824
-116.665
-88.6665
-51.5515
-2.65856
59.4795
94.503
86.7387
65.2085
69.007
67.8113
63.7527
29.0532
17.5944
58.1291
83.7234
62.7538
75.1616
63.3694
15.928
-41.9716
-80.9996
-69.43
-59.586
-57.6752
-40.3817
-38.9666
-16.1027
-25.9879
-40.511
-28.2847
1.24835
36.39
54.8285
63.8097
62.1205
40.6303
-10.2328
-32.559
-31.8512
-33.6242
-30.1942
-5.36405
26.4315
70.3741
34.1049
-23.4458
-55.5194
-57.6203
-42.4833
-36.9084
-45.9069
-27.7265
-15.1709
-50.2001
-78.2606
-65.6532
-33.3796
-12.3976
14.7884
95.9299
158.332
207.243
206.524
143.308
40.3321
-70.9058
-165.556
-136.73
-56.7211
-25.6459
-14.2485
-10.0403
-15.6994
-1.32092
27.1367
40.9091
33.8881
13.9713
-4.458
-46.8571
-74.4344
-97.9466
-127.01
-168.99
-116.56
36.64
132.19
121.333
74.6827
72.8534
88.2979
85.0856
85.3317
101.031
85.957
69.2853
34.7167
11.9432
-1.07426
-38.8577
-63.7549
-72.509
-80.1912
-57.6339
-16.0491
-1.96304
13.2205
22.2277
-0.691337
-6.0118
-30.3801
-63.3177
-62.7393
-71.2645
-63.5375
-47.3934
-38.4669
-34.5076
-14.9388
-23.4907
-44.1497
-42.4413
-12.3208
29.4411
60.8114
53.6391
43.8866
35.315
23.0601
18.8904
27.702
52.6589
54.633
49.7871
59.927
78.0963
95.6928
57.8694
15.9357
-9.25065
-18.5471
-41.2001
-52.3885
-47.6278
-27.4091
-28.2728
-25.0412
-26.5202
-24.3751
-23.8984
-16.258
-8.31959
-5.54559
-17.7884
-26.0652
-34.2277
-46.3909
-25.7493
-21.0167
-6.51446
16.1734
32.2324
42.6869
36.2311
21.1318
21.4986
16.48
3.99093
1.97988
0.528501
-42.0729
-60.0423
-5.26862
42.334
44.3132
26.8892
-2.55066
-14.43
0.948037
10.6495
1.18904
-6.56019
-6.90672
13.2639
11.4385
-5.00737
9.06151
22.0694
38.2401
57.5825
78.0768
65.4544
12.935
-38.6298
-28.2336
-18.8217
-16.4007
-14.747
-38.2333
-59.6669
-72.2965
-79.3876
-78.4645
-72.424
-35.7775
-29.6444
-40.5718
-49.4236
-45.9317
-34.642
-10.9741
12.4787
43.4841
46.4928
48.5339
65.1752
98.3409
138.15
149.463
104.808
60.7235
33.8984
-5.45516
-20.5829
-24.3374
-9.64377
-12.2467
-29.5245
-67.6235
-61.2531
-37.5179
-22.2588
-19.1904
23.0101
37.7598
5.18903
-31.6313
-20.6077
34.7304
58.5855
46.3381
12.7774
-7.79831
-33.2015
-74.7648
-74.1763
-62.9821
-35.1644
-6.73638
-7.37831
-4.39841
6.5827
-16.9907
-25.1686
-41.0785
-36.2254
-31.3203
-56.4831
-79.0218
-64.8673
-31.2686
26.7703
66.4989
88.0222
89.0899
84.1348
92.928
97.4409
76.873
48.4582
54.5445
36.9997
11.7733
-14.7398
-27.3836
-19.2903
-12.5592
-18.6009
-40.8798
-17.6482
-4.70386
5.42138
3.92182
3.6315
0.77456
-7.79652
-17.217
-12.6906
-8.13163
-10.3899
0.0913669
8.51006
-5.53611
-13.2913
-16.3446
-15.2047
-9.66224
0.103037
-17.3787
-31.4034
-25.7019
-32.339
-23.662
-14.9254
-10.6328
7.68944
17.0318
13.1745
12.123
7.22189
-8.94186
-21.6853
-22.9682
-10.5889
-2.80506
-8.26995
-18.7939
-27.6887
-21.5395
-2.1953
26.495
27.6854
31.6102
57.3574
69.5011
59.8731
61.9902
58.1943
28.1221
-11.3382
-44.7704
-38.3493
-15.3694
-30.0957
-25.5529
-19.7276
-18.1816
-9.65984
-3.49351
1.55273
18.5699
23.5444
17.5211
-11.9386
-24.8783
-7.05889
-1.6822
11.382
13.93
1.01138
-11.6343
-26.4951
-28.6355
-15.4153
-41.6286
-60.2309
-27.9661
0.531045
38.6806
45.5273
16.9359
4.02816
4.03644
41.2186
93.1371
103.471
55.1783
-10.8737
-40.5367
-42.2562
-42.979
-39.4628
-45.3256
-50.1956
-26.7643
-2.88012
-3.82079
-9.73662
-6.22698
1.80216
8.28751
8.42131
11.6416
8.50147
-20.7313
-41.5954
-29.8595
-13.9667
-4.2528
-16.2483
-16.3737
23.5106
68.6781
74.0678
68.4265
67.5136
50.4773
29.8555
11.0978
14.1664
0.335708
3.75094
10.9247
3.59589
-19.6272
-58.4686
-63.2748
-34.0903
-25.5362
-0.912156
12.4094
-0.738084
-16.842
-37.8753
-23.854
-11.681
1.0334
3.50778
-11.6186
-25.9677
-23.9609
-29.7192
-42.4194
-42.1749
-4.30492
6.60873
12.0322
16.7688
34.6232
53.3937
66.353
54.5651
38.8791
16.3862
-9.35614
-7.01039
4.13223
10.5781
8.48032
-4.16833
12.0463
14.4821
18.8428
4.40619
-13.5763
2.34414
3.82475
-16.7509
-1.68704
-15.3218
-44.691
-69.2985
-52.722
0.455779
49.3529
53.5598
-1.25162
-39.6556
-28.48
9.51902
57.9967
95.1963
90.6815
43.1406
-22.3725
-43.4548
-53.0066
-68.6626
-122.005
-129.989
-111.058
-91.515
-62.8843
-48.8347
-31.624
36.9684
72.6265
138.494
163.938
128.692
16.8036
-37.0787
-6.13255
63.9256
118.368
131.858
142.977
112.099
76.8717
53.0565
30.1573
-1.99099
-83.5961
-147.847
-145.894
-139.934
-125.9
-170.166
-182.2
-125.609
-63.2983
-8.57241
-19.9864
-82.4202
-79.2
-12.6798
18.033
0.412118
-15.1659
-24.5201
82.5386
222.574
295.92
278.069
185.406
92.1318
45.0827
32.8406
20.358
-13.1605
-8.16159
-15.6201
-27.8249
-35.9762
-23.7934
-67.4937
-94.7564
-55.7738
-16.5306
16.2601
-38.4252
-130.592
-139.732
-69.0804
-37.3425
-11.9494
3.70356
10.3043
-1.77214
7.23184
10.9675
-10.2476
15.4722
21.8209
0.103355
-21.6863
-2.6906
48.9107
77.0255
89.6017
66.6559
-8.42537
-71.8041
-82.0044
-32.6218
-15.749
-43.4161
-24.2711
35.7431
20.2484
163.47
77.2106
47.0022
42.5196
26.4401
24.5307
35.0849
5.47553
-25.5666
-35.9951
-58.0383
-83.6487
-97.1999
-88.8914
-102.552
-100.511
-122.276
-143.419
-115.629
-56.4996
18.2179
74.436
87.7223
85.1971
114.455
142.853
123.118
115.86
150.008
186.332
149.219
64.9957
3.7494
33.9793
73.6139
14.831
-48.3404
-77.8115
-94.9829
-62.4856
-14.3164
-3.04038
5.50726
19.4751
-1.88023
-46.5566
-86.7589
-91.6689
-103.305
-190.665
-186.811
-55.6879
20.165
-23.1769
-65.2907
-73.8489
-82.3768
-91.0307
-58.1557
-31.487
19.4308
74.5849
71.7829
58.9776
78.5938
105.214
133.444
148.684
129.593
108.278
84.3185
58.5495
21.1924
-5.51153
-28.4444
13.0329
48.7741
53.3429
58.2178
28.7662
-74.4429
-154.624
-139.125
-73.8325
-96.5508
-93.2733
-73.7677
-26.9072
0.408973
22.8707
25.9028
22.2181
8.48751
35.457
47.5982
-9.18018
-43.6579
-7.65573
32.3054
27.281
32.432
54.3961
45.7285
-2.76661
-14.3359
9.27337
32.6441
-21.0232
-98.7878
-81.6128
-80.7791
-60.7606
3.20255
5.99056
43.0508
127.284
143.597
44.7781
-64.4273
-88.2577
-65.2545
-12.7727
-11.5471
-41.0724
6.7159
58.9341
61.4438
105.33
182.904
174.396
83.0181
2.51109
-44.7787
-49.7839
-112.719
-178.559
-127.461
-7.35751
21.3097
25.3981
62.3502
29.2777
-9.51558
33.5043
25.0088
-46.1797
-110.309
-150.197
-162.883
-120.996
-44.305
-40.9452
-79.4927
-113.148
-37.29
38.8576
61.5452
61.8369
82.2079
115.186
108.167
102.923
93.6736
82.5557
55.6433
15.4542
-7.4459
-15.6585
-47.6771
-155.883
-186.582
-63.2521
91.9506
188.698
212.135
208.125
224.339
334.999
487.747
401.193
98.6544
-159.869
-258.318
-294.357
-330.01
-326.167
-273.835
-192.395
-140.365
-94.7688
-48.3568
-57.0588
-91.6594
-120.115
-147.284
-129.654
-134.162
-195.654
-238.418
-188.252
-50.06
74.8934
133.738
160.251
197.465
229.711
238.34
224.48
223.742
269.471
266.964
197.706
135.62
60.4902
10.8092
-55.961
-80.8391
-107.776
-144.421
-146.741
-93.223
42.0299
86.3792
144.047
145.121
38.3955
3.87031
-42.8751
-54.8931
-69.117
-68.239
-74.3103
-95.7708
-70.9497
-40.2245
-65.3359
-79.1561
-77.5404
-66.8343
-3.74325
46.9778
37.6911
28.6753
-36.9974
-77.2152
-43.4684
-24.2667
-34.4891
-86.1362
-89.4466
-84.7462
-108.334
-48.4974
50.7958
98.2241
101.152
73.7683
67.6053
49.5415
42.462
41.3535
10.6663
-32.7946
-53.0019
-35.416
31.203
36.4524
31.4424
35.3704
57.9482
127.901
183.19
151.895
110.917
51.9275
18.2695
19.4691
-31.7681
-93.5274
-147.312
-123.699
-93.2962
-62.9283
-52.8377
-45.0663
-16.9378
14.1327
62.2213
97.6656
98.7361
51.4509
62.5083
106.071
60.466
-7.34835
-98.1797
-169.539
-148.849
-125.089
-85.9971
-104.591
-100.756
-19.2845
21.6995
81.2544
123.568
92.8594
49.0279
-1.16946
-44.2748
-56.7273
-62.191
-97.1735
-99.7178
-50.9539
4.22108
34.2704
51.373
44.7215
4.58758
-17.5716
-41.4875
-75.0643
-25.537
14.6971
21.1246
45.6146
47.902
128.204
218.643
208.089
165.198
107.769
75.0556
11.8526
-15.0024
-18.6082
-36.0637
-63.2958
-57.5668
-22.7353
4.68666
-5.88927
-27.4536
-58.2833
-128.189
-220.448
-225.367
-183.002
-134.658
-35.8799
27.1955
83.8591
150.268
211.472
297.22
318.823
207.078
76.9051
-21.6255
-77.6412
-114.696
-150.145
-178.959
-181.566
-130.156
-47.5083
-51.7478
-48.6435
-48.5386
-85.8299
-86.8483
-61.0881
-80.3642
-93.1206
-73.4362
-55.9808
39.8445
130.583
189.598
216.928
183.267
161.264
156.994
131.692
108.32
89.0934
61.431
20.1078
-39.6357
-45.0704
-31.1431
-69.7749
-99.9081
-87.6778
-95.6932
-85.0822
-68.7197
-32.7846
-6.30063
-14.7169
-23.7217
-26.6685
-8.87073
6.9902
-29.2701
-34.8393
14.9651
-13.3946
-30.6277
-18.6412
-109.293
-159.477
-89.875
-65.4787
-74.2527
-4.77101
64.768
118.45
220.453
285.474
285.317
263.113
151.883
20.355
-12.4408
-35.6742
-55.2746
-57.2981
-55.5742
-56.2756
-74.7498
-92.1586
-101.554
-81.5547
-62.3368
-77.9198
-75.1308
-74.3813
-124.166
-154.346
-133.009
-74.8958
0.0996765
54.2429
17.6107
3.93538
8.44135
42.2676
114.762
140.121
198.574
241.298
224.067
197.126
154.634
105.337
17.4452
-52.8388
-102.111
-156.749
-169.001
-169.149
-149.462
-106.121
-48.9723
17.3994
34.1587
6.76074
16.9231
15.3906
-7.84712
-7.29764
-34.9647
-64.6826
-84.3367
-124.637
-94.1634
-4.45813
3.42157
34.1032
112.286
169.119
175.899
140.206
115.668
97.407
23.1069
-10.7806
-55.7701
-101.008
-104.576
-101.508
-95.1164
-59.2491
-51.233
-44.6581
-46.3478
-56.1897
-35.1234
-32.6814
-38.2124
-19.5645
-4.32033
70.8576
114.777
90.343
85.0556
107.792
98.7909
119.837
129.123
65.14
7.91816
-33.325
-31.9242
-37.3017
-28.8357
-80.2208
-65.733
11.6385
22.0789
-36.705
-63.4432
-28.4184
4.00032
-6.68123
-7.07796
-21.0467
-46.348
-76.4621
-75.4527
-41.7356
-15.7369
6.93892
12.934
9.87028
9.94776
3.9512
-8.10667
-32.2541
-31.5402
-48.2029
-61.7614
-48.0204
-9.81491
20.569
68.4008
90.2353
109.987
103.507
52.3004
25.598
22.4259
16.1688
18.7148
25.1429
27.7804
44.5632
36.595
-31.0124
-49.8604
-46.1824
-78.8575
-39.232
19.376
86.7148
126.261
73.4676
-43.118
-76.2938
-39.1485
-9.6015
-19.6855
-63.6341
-77.1405
-44.476
-10.5561
38.4389
22.2241
9.92747
-19.4968
-45.2718
-6.24675
-11.3723
-58.513
-81.9688
-89.8586
-54.1857
18.6439
51.2572
37.6725
3.86494
1.31838
61.5211
113.629
99.0994
50.9767
11.6921
10.0422
28.5354
6.75699
14.101
-8.7825
-30.7588
-11.3907
-33.4227
-43.0401
-19.7959
7.67799
58.9939
57.9462
22.3832
4.17691
-33.2784
-61.4106
-62.3521
-82.191
-96.3446
-24.1815
8.1422
29.8929
50.4333
75.8823
66.5123
34.0266
54.007
68.7963
56.4985
51.6406
-21.1752
-35.8948
-10.0842
-49.599
-93.9427
-95.6051
-72.1124
-23.0013
4.34559
0.771919
7.87173
-10.2286
-32.41
-41.7088
-77.3181
-66.2267
-62.3841
-61.2441
-34.2752
-4.28769
29.4389
39.9497
65.3479
154.293
156.474
132.267
116.304
92.0002
78.3437
-2.40126
-47.7731
-28.1573
25.3693
27.5076
13.639
-7.89131
-48.0084
-87.1707
-90.8614
-82.3393
-74.6184
-58.375
-23.1398
-10.7352
20.8996
67.2743
61.232
17.7128
20.3605
19.8918
-10.6004
-3.65022
-23.6685
-3.94587
29.5193
-11.9038
-0.169433
103.234
105.908
-18.439
-122.399
-168.631
-159.964
-127.851
-79.3829
-63.0721
-34.1779
15.6892
27.5652
79.5599
95.8332
89.1876
80.213
68.1012
54.1997
59.1758
5.75987
-72.5763
-108.061
-97.125
-12.6299
81.458
77.5218
52.9328
53.327
57.6844
71.2681
60.1233
29.3753
6.74595
19.3124
19.9153
7.27136
-47.099
-94.5904
-110.202
-90.554
-73.2731
-41.732
27.0634
76.1404
61.0552
51.0327
39.6588
44.8404
14.5471
-70.3166
-88.5517
-52.4589
-44.1034
-13.5811
10.31
31.4749
50.8694
12.7628
1.49861
22.6448
50.7374
52.6266
29.0769
-8.64477
-46.1266
-84.0761
-78.5271
-60.9052
-7.30744
1.64493
-25.3794
-50.7147
-60.5825
-62.1767
-80.3347
-60.1662
-15.8213
29.1749
56.3125
70.4864
34.0234
36.3043
74.7639
80.5902
111.132
131.697
97.5517
46.2435
-13.7225
-7.12615
23.6928
29.1612
6.38148
14.1338
20.1719
20.2034
28.8643
7.92924
-39.9045
-81.3649
-102.5
-96.7246
-93.9925
-104.222
-109.381
-89.5178
-50.1713
-31.6231
-4.81484
50.503
56.6041
42.3166
84.5162
73.7472
18.8888
-30.9403
-48.6621
-16.493
34.8249
49.7341
51.3521
19.9707
-16.8462
-31.1295
-21.0659
-4.19769
17.0262
10.3341
-31.6923
-53.4605
-28.0228
32.448
37.9838
10.4554
3.45366
86.481
123.945
146.415
163.499
91.1236
9.24778
-20.331
-70.5362
-113.108
-179.909
-236.939
-179.189
-54.5487
7.70626
5.78244
6.23145
7.51293
-6.96117
-9.57345
23.0489
8.49713
-9.50576
-38.1957
-83.8989
-3.27866
58.698
62.5002
89.0745
117.979
131.079
161.18
115.286
62.2611
52.846
13.6355
-20.4593
-14.834
-9.40575
-34.8606
-53.1501
-85.7402
-128.572
-137.9
-137.164
-123.758
-86.988
-41.0292
-1.12553
60.189
160.953
249.397
221.64
101.68
-3.73331
-38.3285
-56.1731
-85.1817
-94.812
-88.6807
-99.5646
-101.544
-81.9273
-99.0111
-87.8877
-65.097
-31.0961
33.2589
91.7579
101.398
80.593
67.3195
92.9703
58.2183
25.0448
29.9571
13.1838
25.3724
33.0072
21.3277
29.9506
26.7513
35.9756
56.5529
59.9184
39.504
-14.7643
-98.034
-148.222
-184.37
-182.931
-193.338
-197.763
-113.561
14.2338
117.605
222.942
278.195
309.228
251.139
133.594
35.6217
-6.19036
-22.1468
-42.9178
-65.5917
-72.4004
-72.02
-69.0189
-39.6687
-10.8591
-35.7635
-79.2391
-89.3972
-94.8756
-101.061
-146.461
-198.272
-121.115
11.378
84.4436
110.528
107.99
100.624
127.423
104.183
49.9555
20.5862
31.4839
31.4895
14.9594
-1.92738
6.43754
33.3894
28.1966
-1.68259
-20.1087
-36.2371
-115.722
-143.332
-88.6014
-39.6653
-28.254
-14.4204
-15.0624
16.6274
88.2811
108.809
105.456
94.578
66.3508
60.39
45.3545
5.12207
-3.85788
-35.6816
-77.316
-106.036
-116.22
-101.892
-96.5779
-99.1526
-55.2411
6.89759
43.1476
91.5746
171.414
236.44
212.921
183.922
171.733
69.3411
-8.50542
-42.685
-137.197
-235.862
-310.712
-339.784
-327.247
-231.901
-99.0803
4.23646
136.538
198.37
124.975
66.7633
40.0969
11.6257
29.6567
31.8529
11.1494
0.364371
5.30155
13.2859
47.441
157.913
233.554
242.646
235.798
210.891
163.627
122.999
24.8815
-68.6723
-63.6785
-88.2696
-165.254
-217.672
-224.698
-223.314
-249.151
-227.559
-160.841
-111.742
-45.3329
13.5538
63.9128
90.5116
75.4965
64.3802
69.3174
52.4283
13.6556
1.97866
16.5518
22.385
23.6127
13.4694
-27.2499
-91.0902
-78.8555
16.7514
71.3245
120.869
148.418
99.709
29.4679
32.3205
33.5634
8.01293
-2.90161
-26.3005
-62.112
-78.1766
-61.5144
-14.637
22.6007
33.767
42.9259
75.9136
111.385
119.931
58.2493
-21.6981
-37.0204
-40.9565
-18.2223
-55.9763
-88.1231
-112.329
-168.898
-127.026
-84.8358
-52.4552
-28.0546
-52.4977
-46.8367
5.29308
42.8899
95.3118
66.471
46.2659
69.6477
89.9802
72.1206
52.3165
47.5996
75.6937
102.793
126.569
118.486
41.1556
-29.0539
-53.443
-91.3601
-58.7218
-43.7962
-56.9871
-39.6567
-60.0813
-78.7053
-71.5661
-69.2382
-44.4189
-4.19154
23.4085
-1.73379
-44.8312
-64.0789
-75.3964
-69.3449
-39.111
-16.9854
-17.5712
30.0248
39.0008
41.2509
68.1899
83.4292
85.3534
100.594
56.1012
63.2007
77.5733
46.2438
27.6345
20.7843
2.30955
-10.6589
-30.6273
-27.7744
-25.3239
-10.9776
8.71201
24.7982
46.9091
40.8817
-22.3765
-103.416
-108.878
-111.862
-99.0835
-78.2428
-68.1413
-62.691
-36.325
26.4678
85.0535
130.094
147.646
123.42
75.1564
49.9708
18.3594
-22.3604
-71.4335
-74.3671
-49.9764
-42.8762
-41.7144
-31.1954
-22.1925
-42.2987
-71.9402
-67.0095
-24.8151
36.618
63.5877
45.9562
105.575
183.481
164.282
125.07
49.3054
-34.4252
-76.5438
-100.994
-82.9807
-50.4096
-70.3323
-54.1147
0.998335
4.99758
13.7802
0.532693
-50.2708
-111.058
-153.313
-162.064
-189.671
-194.376
-143.948
-66.4188
50.7352
138.153
180.176
215.354
242.46
294.282
293.389
219.151
121.686
61.7967
19.236
-35.7782
-54.9387
-89.7948
-104.812
-76.6144
-110.882
-121.899
-62.906
-2.30761
16.2277
11.025
4.7993
-12.5143
-44.3216
-57.4241
-54.4377
-56.8834
-60.7351
-67.2315
-58.9815
-15.5796
20.9606
65.2403
81.2281
47.3835
14.7875
-10.1288
-32.3449
-38.8329
-48.7685
-30.5263
-35.951
-54.7328
-25.9369
-15.0361
42.3391
86.8839
95.0408
84.3293
47.2484
4.40729
-14.2733
-24.5272
13.3158
19.4914
56.2667
62.4608
59.5802
38.8383
23.397
-2.56706
-25.8727
-49.9601
-55.6405
-86.7175
-122.297
-108.663
-74.422
-23.0102
19.7781
27.1893
39.8945
76.3507
58.8842
42.9451
31.1789
16.1788
16.1722
2.34752
-14.1157
1.45365
49.5721
70.9867
55.4792
44.3712
43.7286
10.3872
-28.2061
-40.8946
-22.34
-3.75212
-20.7434
-72.5827
-91.6587
-69.1134
-81.7916
-94.4121
-75.1713
-50.7152
-9.07792
2.4499
15.4145
15.5371
-3.42363
-18.1392
-6.68846
43.7761
58.9481
53.4702
49.0257
55.9109
63.0373
65.3609
53.2432
59.5935
68.3361
79.9225
79.6371
65.7264
55.8972
22.5433
-27.3174
-21.4792
-39.4851
-52.6532
-72.2604
-94.6056
-107.847
-132.254
-142.801
-102.324
-96.4659
-59.2537
-13.471
-18.412
-0.925412
11.8829
-1.09256
17.2053
20.2169
36.6405
45.4199
27.2256
33.0494
49.5552
56.4233
76.555
84.9832
105.692
90.8109
61.3802
64.3388
50.4721
19.1632
6.41974
-18.7347
-40.8464
-39.8416
-49.5106
-45.8771
-45.653
-37.6947
-31.4371
-20.8465
9.16744
4.34525
-34.0961
-37.6122
-23.9415
-1.99972
-11.0551
-45.0058
-75.8786
-49.0567
-20.1501
-9.3852
18.9934
20.5323
17.0987
24.4018
18.6941
64.9893
108.205
57.6161
-15.1904
-57.302
-64.4585
-56.3507
-72.3773
-46.489
6.14424
34.9614
66.3219
78.9777
55.7487
37.4005
32.1116
26.5638
-3.57016
-57.1796
-75.2787
-99.8162
-122.149
-78.4789
-46.6858
-47.8788
13.7372
94.6425
133.763
104.957
58.9516
38.2771
47.7388
44.4517
19.4406
24.5915
55.7453
66.581
48.6374
47.9855
49.2827
20.9263
-7.08038
2.55829
-11.0391
-17.4667
-66.2409
-123.571
-133.262
-130.135
-112.022
-64.6344
-40.212
-37.9607
15.8702
58.9642
26.4924
-42.1333
-72.9297
-80.7714
-61.3992
-46.4503
-52.6995
-52.3372
21.724
115.853
140.054
137.326
121.63
97.4209
69.1529
36.9608
-2.66879
-30.0785
-49.0483
-63.2705
-68.8274
-19.5183
23.4261
64.9899
62.5214
56.4987
57.7832
50.2438
18.0151
-12.5725
-46.6993
-33.4478
0.857637
16.6805
8.3217
-13.3624
-38.4905
-47.8095
-70.2042
-50.4206
-33.6297
-27.7906
-27.7396
-30.4671
2.96563
53.4873
56.301
32.4478
-4.64773
-40.8315
-35.4255
-30.9221
-34.35
-30.2495
-9.63453
20.8503
51.8248
69.3974
74.7847
63.7715
39.5365
9.27962
-1.19738
-10.9829
-43.3534
-84.3449
-66.6268
-35.6998
-22.9122
0.893483
14.2611
-16.9354
-5.43414
25.7227
27.0506
11.5423
6.98443
2.65285
4.48214
6.22353
16.7604
29.9304
29.1031
7.35068
-5.80456
3.95197
22.5801
51.4283
58.6619
46.3972
51.614
65.0987
32.7153
-13.155
-39.1318
-62.3883
-71.4692
-68.516
-90.7871
-82.9214
-72.0031
-76.2931
-68.5455
-44.4561
-27.6469
-30.2211
-32.0277
-1.70824
26.3052
24.1174
18.3366
24.4984
22.7565
19.1753
34.2498
83.5635
103.075
79.5756
83.8417
72.1967
43.5467
18.0206
4.92226
-11.4662
3.60538
36.8703
27.462
-2.80888
-28.8882
-44.7557
-37.9331
-51.3631
-42.8571
1.98946
24.007
-24.7187
-54.5082
-61.2691
-49.3634
-56.3963
-52.2518
-8.61639
10.5519
42.4086
50.2296
32.2221
25.6758
-1.57704
-4.9594
60.0286
80.2199
69.4092
13.4989
-51.1694
-76.465
-84.8291
-76.6573
-45.1221
-32.2569
-26.5826
-0.442157
6.77472
14.8707
-2.25909
-18.6338
26.3796
74.2227
58.3912
26.8767
-19.7793
-37.4458
-4.14062
34.9682
23.8239
4.26288
42.3521
39.3702
18.6996
0.443857
-11.0024
0.81719
2.85328
-0.99803
46.1083
85.3521
34.4713
-21.3741
-31.2607
-31.8446
-62.7842
-74.0195
-64.3526
-41.696
-11.4785
1.57896
4.04119
10.7237
17.2924
22.4401
16.3589
51.2007
50.2551
28.3513
-11.3108
-70.0487
-107.041
-105.114
-83.0012
-29.2818
27.7849
48.3179
61.7593
92.0981
124.56
112.942
41.5507
5.44882
31.6741
25.5096
-4.65477
-53.1038
-74.4814
-60.5069
-57.7631
-58.183
-46.3643
-19.4232
-15.7634
-24.3985
-32.2503
-23.234
-13.877
-8.73526
-26.92
-1.17632
37.6568
40.9695
23.4933
34.8311
53.8415
36.4091
15.1641
24.4657
32.118
45.2688
40.4513
18.7004
18.6536
7.51995
-23.5051
-27.3604
-44.5719
-54.5989
-38.4032
-21.8005
5.62227
13.1737
12.6256
30.2755
37.4369
1.73123
-7.27083
-6.07772
-20.205
-55.7479
-41.6558
-33.4163
-43.9732
-6.38701
27.5357
34.6837
46.9919
61.6029
60.8121
52.5467
30.35
11.3596
-2.87386
-32.725
-43.1889
-30.8585
-25.1851
-32.3254
-22.8507
-13.3729
-23.9907
-4.69669
0.682842
-9.25667
-21.3349
-39.5858
-57.1554
-85.6641
-54.3574
-12.3467
-3.11048
25.5751
53.1521
75.5531
73.8638
61.4745
75.7802
59.8555
50.432
38.9502
20.7204
13.5729
4.23648
-39.5791
-42.1649
-38.928
-33.4156
-17.5516
-26.7134
-53.3958
-48.0017
-18.7328
30.4775
85.5449
84.0173
36.8382
-22.6101
-42.2905
-55.1886
-43.5802
-29.1115
1.27172
46.0314
38.3927
22.131
15.6253
8.49899
-14.2259
-60.5237
-75.0561
-31.0062
-26.3558
-52.0365
-75.3644
-59.8103
-14.6163
24.0994
47.8963
86.1628
121.29
96.532
39.2555
19.1251
32.9699
27.4288
29.4298
37.6124
39.9769
6.82707
-8.92744
-14.6624
-21.5896
-43.5612
-87.8287
-101.919
-45.307
-0.372228
-3.60885
-37.05
-56.3358
-39.1764
-33.5374
-35.5487
-7.01989
13.3045
7.33747
10.4516
24.376
57.612
63.7099
39.5011
1.29198
17.4249
49.8369
48.2066
23.6124
7.91241
37.3637
50.5619
14.8708
-11.361
-7.63699
-30.7854
-35.1372
-24.8886
-16.0687
-27.4771
-49.0209
-35.606
-28.059
-27.1149
-14.8819
-31.6541
-47.587
-40.2609
-32.9754
-2.92179
-2.6822
-23.743
-5.86033
27.2654
53.7205
79.5029
110.846
147.151
137.551
118.814
99.7407
44.6771
-23.3681
-66.5023
-98.2498
-114.167
-90.0844
-85.2132
-73.2757
-80.5198
-71.6858
-24.3481
26.2947
30.0826
-7.53498
1.59909
-51.6878
-96.9345
-88.9584
-66.3418
-37.0604
6.01121
36.2192
78.0013
144.071
202.394
186.68
131.768
62.8722
11.2156
-26.7873
-54.0861
-36.371
-16.6171
17.8972
4.24468
-12.2608
-29.6988
-41.6862
-56.4442
-28.5361
-30.1765
-32.4625
-41.3684
-52.1946
-77.0729
-100.908
-60.4287
14.3919
35.554
29.3037
20.6055
-3.07756
-17.9396
-19.9847
-17.1251
-11.6823
26.4243
58.5311
92.45
100.308
101.801
89.1553
62.2134
23.5806
-10.9283
-18.5394
-26.5358
-32.5837
-21.3211
-6.54982
-5.13997
-35.6411
-33.8643
-12.1656
-29.1572
-17.6229
-15.49
-29.4645
-45.7223
-75.9707
-55.0257
-17.9453
-24.4523
-36.3918
-30.3439
9.74537
60.26
68.4874
70.4635
79.0942
92.6385
104.563
76.1897
26.936
0.791128
-46.0346
-61.8417
-57.2755
-47.251
-60.8608
-79.922
-71.3856
-33.7952
21.9062
55.0128
19.1782
-23.6697
-73.9327
-68.9534
-37.4352
-27.3173
15.6489
56.607
68.0509
81.5598
144.791
172.304
107.538
-2.52075
-63.2905
-53.6052
-38.1575
-22.1339
-27.9056
-22.4116
4.183
27.4937
38.6361
7.06296
-48.7011
-85.7624
-91.9185
-64.1726
-61.6088
-46.8698
-46.5301
-68.3548
-41.6331
-2.52034
38.5158
43.8586
20.8674
32.7161
29.3827
-5.94836
-18.5066
-22.937
3.18435
49.7917
93.8006
157.138
158.744
99.8772
83.525
79.3264
32.8172
-9.27294
-37.8245
-55.5518
-72.1309
-84.9342
-73.5411
-60.2156
-50.1807
-58.9915
-25.5306
-30.3573
-56.0655
-60.1269
-33.4874
-19.5808
-31.0979
-32.3251
-19.689
14.7528
41.1742
55.5062
71.1692
65.8436
45.5927
16.35
-9.79934
3.7596
11.0428
16.0427
12.5372
36.1071
48.1266
20.2286
-20.4818
-54.8163
-51.3405
-68.2272
-78.2714
-79.1708
-60.1233
-43.055
-22.138
17.5417
76.2418
131.205
198.014
202.412
144.47
57.1142
-32.7758
-99.9031
-107.901
-63.1289
-40.4026
-45.8509
-59.6615
-24.7277
-12.4658
-33.9767
-51.0655
-63.7138
-27.9919
-4.48232
2.98662
-8.79991
-43.1001
-63.6317
-55.0708
-18.8856
33.764
58.0742
69.0473
42.3117
11.5558
7.04159
30.1424
63.4973
63.5922
72.073
78.4827
84.0472
79.7427
66.6938
11.9899
-16.7271
-68.0544
-98.2181
-78.3195
-51.9827
-49.6498
-32.1173
-24.9607
-11.9493
-6.40701
1.18268
4.72589
-17.5559
-19.5842
-27.4271
-33.5097
-36.0935
-30.1185
-38.8934
-44.2603
-34.2729
-9.34998
3.80331
32.1195
44.1873
41.2289
95.9985
130.377
127.577
83.6256
27.343
-29.0408
-48.3675
-13.7975
1.40477
20.5599
-1.60439
-41.0213
-28.0241
1.19358
0.874225
-15.9511
-55.7351
-58.1419
-46.5261
-30.8616
-52.415
-73.2566
-65.5216
-28.8136
-17.1943
14.831
13.5883
-1.49103
-2.59458
-11.2439
9.38253
21.394
29.3873
71.6855
89.6516
119.037
148.338
113.279
81.4359
45.5598
-28.8626
-54.0604
-41.4239
-31.2144
-33.8286
-49.6236
-40.3172
-42.4532
-30.6355
-30.534
-54.3934
-49.0578
-46.2838
-48.273
-29.2141
-27.2422
-46.2501
-43.2506
-35.078
-11.2732
14.3769
26.6636
17.0244
39.9715
94.4331
96.4319
83.898
96.9204
77.1707
56.5453
45.03
11.2154
-20.8933
-61.2759
-68.3779
-60.6219
-50.4281
-13.6351
2.67258
-12.9087
-36.437
-53.709
-40.8124
-13.1973
1.3899
3.96173
3.28009
-24.7971
-23.3742
-2.95572
3.6241
9.60696
0.950909
1.94733
3.66878
5.009
25.6421
27.4905
18.1936
24.8224
62.6832
100.475
68.8649
15.2551
-28.6253
-30.4948
-3.33135
6.262
-30.8848
-46.052
-35.5444
-16.5495
8.60149
5.12464
-22.1794
-47.9724
-48.7235
-36.4352
-39.5798
-27.1217
-20.2663
-30.3612
-22.1666
-12.5965
5.70641
32.8626
27.3655
31.4152
62.656
70.4431
68.1432
44.8739
37.3057
47.6685
29.6833
18.1066
-1.79042
-13.8377
-6.0419
-14.988
-36.1476
-16.5905
8.45762
-3.7725
-24.6167
-42.4281
-51.1141
-53.6277
-42.4835
-45.4472
-22.1206
0.330334
8.60014
14.2494
16.9314
23.1021
16.379
-17.3566
-11.2589
21.1124
36.972
26.6938
21.4983
28.0008
9.81216
-21.3149
-37.7102
-37.2421
-8.93945
-1.33592
10.8182
17.831
8.61791
0.561888
3.59205
-0.890613
4.61971
27.8296
18.693
-10.742
-27.2643
-49.4202
-39.2213
-20.8162
-7.66793
20.0566
48.2945
61.6894
43.478
24.6079
-2.70298
-16.7744
-3.08265
38.0049
87.0155
82.7164
35.0405
10.82
9.16635
-4.58552
-14.2907
-42.8334
-81.1573
-73.3104
-64.9645
-66.9978
-73.6939
-84.1128
-73.5919
-52.3713
-38.6815
-7.53854
-1.58204
-13.3606
-30.1468
-17.6959
7.31778
-0.647012
-8.53969
14.6883
50.826
55.6182
69.2564
96.5731
139.642
151.908
174.315
189.12
123.557
42.4297
-16.068
-65.8458
-82.8497
-103.569
-126.546
-87.5923
-52.6164
-43.4541
-35.5138
-44.2097
-23.9832
8.63128
-17.1669
-67.8789
-92.2517
-62.488
-57.5488
-79.4563
-60.7131
-6.39875
53.7663
108.103
121.796
123.032
95.3839
31.544
6.94287
13.1822
10.0115
7.15091
-6.88359
-16.8846
-7.18898
-11.9412
-23.5355
-46.1595
-52.3204
-45.8974
-34.3738
-31.2814
-18.1678
1.02169
1.91325
-2.81644
-1.88044
7.79195
12.1093
4.44233
30.1553
44.4869
27.2021
20.8136
34.198
44.1374
38.5521
24.2774
26.0916
21.8986
24.3113
42.0812
20.3241
-15.2651
-8.88783
-19.9516
-32.1327
-4.19566
4.49501
-15.0555
-37.5049
-30.1015
-31.7308
-39.9316
-55.8216
-68.8883
-48.5055
-38.551
-20.2967
-10.487
-10.0045
2.37801
-4.11821
-40.5604
-23.1585
-22.0642
6.00805
27.5607
42.56
61.8687
40.8565
5.559
36.501
51.4438
54.4426
56.2423
43.6236
40.5936
21.7225
5.48914
10.6724
-31.6004
-43.0533
-27.2795
-36.6514
-14.5879
0.977246
-5.94268
24.0339
23.399
11.9764
-6.87727
-21.3296
-5.71005
-2.89533
4.24053
-11.5846
-13.0904
-10.6212
-15.409
-37.685
-33.9934
-25.2054
-7.64084
-6.46445
-16.1732
-21.715
38.1249
50.9471
51.6757
48.7889
53.0464
29.4762
5.68795
-7.90482
2.43141
-2.27757
-29.0324
-48.2278
-61.6715
-56.9193
-66.8252
-97.5163
-58.4289
-33.5036
-0.372419
54.2624
55.022
51.4005
66.017
72.6341
104.784
75.1429
17.8192
-12.9139
-41.9358
-41.6083
-31.2811
-39.2205
-50.3568
-9.46209
30.1135
33.4272
21.9074
33.6834
23.1868
-14.7702
-59.5569
-96.6163
-91.9205
-30.3498
-26.6735
-17.3554
6.84661
19.1284
23.5165
20.7021
29.5669
44.7176
52.2279
59.5418
64.1885
102.145
97.7803
55.6294
48.3084
47.7081
33.8376
15.5239
-36.8506
-107.772
-152.48
-149.751
-84.3283
-41.0746
-29.6901
-25.2982
-10.9094
16.703
22.7218
-20.4236
-17.4541
-5.79862
41.2068
40.7611
15.8111
-19.0668
-47.538
-54.8006
-37.9683
-36.7357
-12.874
25.6302
31.4212
33.7438
48.1716
82.5282
73.529
37.3145
28.2324
36.7252
20.1354
10.5233
-33.1562
-44.3152
-51.5686
-61.8865
-43.694
-20.3291
3.59686
45.1874
62.9474
73.8356
52.73
25.8698
39.8342
58.434
26.907
-10.2737
-17.1413
-18.9485
-5.06762
-38.0699
-80.4644
-45.1252
-46.5159
-36.8848
-30.8896
-42.1624
-38.5822
-41.3245
-43.6341
-26.3053
0.867988
29.7147
13.6547
-23.1185
-31.8683
-8.76749
24.5038
46.0677
19.8842
6.79053
-0.768858
-0.769148
29.6889
48.989
21.8005
-1.24981
32.223
57.7476
46.5467
15.3123
6.03713
6.99506
17.0568
33.1658
66.6201
69.6768
25.4711
-36.3582
-36.5298
-12.663
-16.8092
-63.0292
-79.279
-81.343
-25.9012
1.65614
10.5018
12.7533
-12.5005
-37.2417
-58.1352
-50.9739
-0.636011
10.8712
3.95271
-13.9221
-16.5329
1.21489
31.4889
85.9724
93.7267
80.5531
51.9563
20.1143
-22.7439
-32.6053
-67.0311
-64.5557
-15.1505
2.08786
-3.20424
-16.6059
-39.3067
-36.2184
-35.3947
-24.3428
-22.39
-3.47212
26.5091
-0.150269
5.84516
19.4047
24.8612
33.4595
19.7629
31.9955
40.1153
31.6409
14.0526
26.4897
48.9187
39.4175
-5.81075
-8.33775
17.705
2.94284
9.15396
4.2685
-7.84678
-6.92835
-15.4081
-8.38491
17.4371
3.27665
17.0902
4.30168
-22.3091
-39.2656
-55.8774
-48.8281
-40.0287
-52.3786
-45.7943
-40.5094
-55.6336
-46.9484
-23.2832
-20.1903
-18.4188
-8.32805
5.29708
21.3916
32.4298
67.0751
86.2982
85.2967
71.9078
75.8577
72.5062
41.8133
-7.21207
-24.5952
-37.682
-69.7222
-86.5544
-47.4565
-9.93407
12.023
-5.58729
-27.9413
-33.8087
-24.7237
-5.16041
-9.09957
-45.3847
-13.0908
42.6574
78.4447
70.394
73.9575
88.517
94.0216
96.3581
84.058
39.8467
-12.7954
-46.684
-65.846
-76.9804
-82.4814
-67.0782
-53.8389
-60.5012
-57.5361
-42.2045
-54.3565
-68.8658
-85.0112
-71.0174
-4.44558
14.0044
3.44181
5.44963
19.9729
41.9802
48.6887
43.7801
47.5953
99.9866
109.691
83.8034
49.0418
19.9163
24.7031
29.4207
-12.2689
-28.3881
-0.254182
4.0143
-31.7074
-41.0645
-10.0273
-15.2915
-42.7269
-37.2174
-6.62041
18.3372
5.92978
-46.1707
-50.8794
-38.8448
-20.1809
-4.6222
7.14342
10.7256
17.5603
12.1451
-12.575
-13.3569
-20.0359
-42.238
-66.4119
-22.7999
23.5112
35.9928
26.6354
39.1392
57.0232
76.1416
98.3528
102.429
85.0822
39.8552
-24.0312
-69.3689
-90.1276
-85.2758
-67.9837
-39.7463
-45.6943
-12.4457
18.7986
2.5353
6.27126
18.1569
6.83669
-27.4161
-53.2991
-54.3484
-52.9598
-47.8512
-35.9624
5.46125
56.7275
82.4554
83.3151
87.3882
84.5196
57.7531
56.2377
27.833
-15.382
-28.9969
-49.6693
-40.7863
-6.01464
11.9369
21.4574
-11.4017
-48.3483
-74.7363
-91.8408
-57.6665
-3.23494
15.6404
57.7429
76.3215
80.7232
104.91
58.1921
-6.44336
-22.7061
-31.818
-37.9268
-51.2595
-62.5274
-62.2885
-53.1117
-34.8659
-24.4776
-2.58915
34.6268
14.1849
-22.1868
-24.1811
-22.4729
-26.2899
-47.082
-76.5046
-62.4766
15.418
51.048
47.1365
54.5285
64.6524
71.5124
80.2033
66.9572
87.5769
140.114
149.75
119
45.7397
-15.1735
-44.6694
-84.8415
-117.799
-129.321
-114.404
-91.0333
-84.0838
-56.8525
-36.9601
-40.8225
-16.6019
-0.289733
12.2773
26.4552
26.0025
7.55803
-25.7454
-52.6439
-46.0866
-32.64
12.7368
52.9202
77.872
71.0335
47.0799
36.6115
54.3029
84.2935
89.6579
101.129
45.605
-26.2671
-64.4724
-66.0851
-71.4182
-92.3006
-92.1534
-40.5674
-3.3596
5.6574
-30.7776
-28.7562
-3.40213
6.61312
41.7156
58.3834
35.9966
6.71301
-18.0023
-53.4468
-58.2215
-13.9884
65.1563
77.1971
35.0515
2.47933
13.4077
2.70207
4.34147
-7.9963
-1.07303
28.8208
21.2448
16.7218
15.9454
0.366289
-29.0628
-38.7591
-37.7138
-30.95
12.873
40.9218
1.65148
-9.82445
1.22941
-0.403007
0.187064
-6.80484
-29.8114
-16.9306
17.5044
-11.1316
-48.8551
-49.0337
-40.9109
-14.329
1.01861
-16.4832
5.87375
44.4237
39.6282
10.1114
-0.555153
13.4888
12.8427
-2.49437
1.17164
24.6332
43.2968
33.58
13.4664
3.08028
-1.85761
-10.2158
1.76248
-18.4034
-23.4747
18.7176
41.3798
23.9329
-12.8275
-40.4789
-61.6534
-47.3069
-41.6418
13.7543
53.8002
30.9089
25.2705
4.34121
-36.0885
-17.2816
-8.22316
-15.1155
-7.55524
14.1407
34.8122
18.141
-16.7559
-5.93812
18.3656
32.8243
37.0852
11.9236
9.4276
12.253
-21.7046
-22.3926
-25.238
-3.87999
10.1993
-7.69058
-7.34922
-7.10534
-32.2054
-20.1142
2.25798
33.2995
50.7231
24.8887
9.98926
4.79598
-22.2794
-31.0856
-24.5277
-38.1904
-40.4926
-46.9899
-42.3943
-22.9531
3.77689
18.2227
33.309
57.4616
39.1919
-8.0783
-37.2904
-32.7011
-16.185
-21.9448
-47.6057
-26.4443
10.2132
48.3964
60.4321
57.1751
53.3432
37.5533
37.3565
28.4649
14.8951
42.1386
52.7801
37.2758
27.7447
10.1538
-27.4637
-77.6217
-106.361
-65.2251
-20.5225
-12.8779
-14.8084
-20.4394
-1.09039
-15.2885
-25.4881
12.7278
17.0223
11.3978
8.4224
-23.6659
-46.7745
-62.8296
-50.5482
2.37168
19.5296
32.1611
49.8089
48.9668
55.9372
39.5043
21.2779
2.83157
2.50218
10.1282
12.6593
-3.19209
7.24094
19.7115
4.7825
-32.4392
-19.1052
-7.94422
-7.8931
-16.8468
-12.3532
-22.7774
-17.0013
-33.3047
-11.5762
15.4471
18.8884
23.4154
2.90366
6.98849
13.2584
-21.1418
-16.6155
-15.6936
-30.952
-28.7959
-27.1308
-19.0723
3.58679
28.0689
45.545
68.3697
63.4098
70.7528
64.7939
45.6556
28.2448
-11.78
-61.9413
-52.4845
-49.3323
-43.7452
-43.9487
-46.0462
-19.5369
7.35943
-2.33086
-21.8568
-10.5872
-5.52409
-11.3557
-28.8214
-38.7482
-36.09
-32.9687
-21.9789
-5.28573
16.8167
63.1907
88.9667
102.047
76.5166
51.5815
37.9619
15.2277
3.97604
14.0034
9.58842
-15.7859
-20.0447
11.2771
20.0131
-16.5174
-33.5431
-31.4656
-56.6429
-62.9046
-57.3484
-55.2491
-64.086
-68.4462
-37.8754
8.7487
19.9412
24.7848
29.9409
29.9788
59.1253
70.3274
56.9366
55.3254
50.5845
42.7821
-5.34148
-35.6859
-25.9529
-25.1069
-35.7965
-18.1509
-14.4653
-5.51969
-0.135474
-14.6066
-16.7813
-3.14645
1.41664
-12.5856
-3.666
37.131
41.5945
15.5249
-1.62647
-1.16558
13.4099
2.84899
-40.1612
-65.0263
-42.2505
-59.8176
-36.478
4.84505
9.0769
15.3139
41.2391
84.904
91.269
82.2598
77.5457
50.767
2.27249
-43.1046
-80.8926
-76.4355
-42.796
-33.1936
-13.0438
10.4804
7.72147
-8.36806
-41.2392
-37.1708
-6.00495
-10.9226
-14.9413
-45.6733
-79.5445
-61.1785
-57.4935
-80.2633
-62.7867
16.2898
103.812
205.543
251.689
245.317
177.833
67.3976
-17.3183
-48.7129
-40.101
-67.4032
-87.2435
-85.7074
-74.4398
-55.3315
-35.9702
-33.7926
-28.3044
-32.2078
-24.7527
-32.054
-41.9198
-91.6528
-129.661
-118.695
-62.3742
9.13735
61.9989
85.0359
84.7234
79.8703
79.2006
86.5826
111.31
116.589
100.261
69.6662
14.4717
-9.0273
-36.1763
-72.9093
-42.2815
-50.1545
-67.3643
-66.3848
-74.0759
-54.625
-3.98773
34.0904
25.2599
32.919
26.3408
30.8874
25.146
16.7592
11.8524
2.88787
-9.11601
-6.87209
-9.98367
-9.10094
-50.4735
-63.9334
-46.014
-20.1767
16.034
17.6104
13.0737
12.0376
-10.3226
-25.7472
-26.3333
-26.5064
-22.0036
-13.5661
18.406
36.2484
56.4243
92.8149
102.698
79.5774
32.7792
-14.9512
-19.4789
-11.2462
-0.786418
9.55569
-2.26247
-9.43442
-24.5421
-48.7981
-25.0967
-25.5336
-49.223
-56.3468
-89.0804
-113.991
-109.864
-89.6761
-28.9116
42.4729
82.8861
124.182
143.87
143.615
125.706
74.9007
3.8925
-16.6579
-8.84932
-11.2895
-25.344
-33.1113
-40.9475
-47.2844
-47.0166
-5.32113
0.111922
-13.2636
-23.5434
-39.9087
-43.4519
-42.7437
-71.475
-74.8604
-26.9405
8.43526
34.9775
22.0439
30.1707
52.546
62.31
51.2483
58.5174
88.5233
113.901
122.163
80.6478
20.0018
-15.6729
-61.1535
-84.7298
-62.3788
-50.5271
-51.0502
-48.873
-12.9087
-3.21701
-5.14684
-33.48
-47.9936
-36.5183
-39.1796
-43.3922
-52.0376
-44.6173
-33.8256
-3.09204
12.2377
41.7116
94.871
100.207
57.9378
42.5166
12.1416
-23.932
-49.908
-31.2028
2.46231
26.821
34.2636
5.22001
2.64126
8.83539
-8.98549
-4.88588
-27.2234
-16.564
3.28845
-6.28339
-13.5516
-6.45121
-9.73681
21.9992
24.2944
8.29758
24.3256
11.4955
-27.1786
-24.9006
-0.193359
26.4631
26.3994
3.42963
-5.63558
5.76145
17.7432
16.1177
18.4139
7.46205
15.1815
15.8675
3.44511
-19.4911
-29.9579
-21.5109
-21.3075
-26.4929
-30.6873
-6.81018
19.5831
6.62488
-15.4701
-12.7697
-18.1269
-63.4493
-67.4946
-50.5318
-50.3328
-7.71651
5.17362
27.7779
73.3039
76.8859
64.846
38.6225
6.78548
26.2275
35.9242
12.0922
-19.6243
-17.7324
8.97444
2.26025
-7.55938
26.0816
25.0639
33.4105
28.3384
-12.604
-66.6679
-105.987
-102.786
-68.1656
-54.1687
-12.6064
14.7321
8.87618
30.3404
66.8986
80.569
60.4243
83.8692
103.954
61.6742
13.3903
-1.81701
-29.2764
-36.146
-41.7827
-41.1347
-13.273
-18.8269
-47.02
-44.1134
-34.2395
-5.40596
-2.46084
13.2731
11.1158
-20.0462
-41.4464
-55.4455
-52.5156
-18.4042
0.290102
32.1315
33.8395
32.3407
53.1003
67.3988
38.4265
2.56732
-20.1368
-1.49087
-3.01618
-20.3091
-11.7551
-8.47112
-10.4582
3.03837
3.94614
16.7968
9.72638
2.82101
4.59734
-14.9286
-12.1892
-6.12087
-1.42552
-19.1306
-20.2539
24.1994
34.8039
27.6431
20.304
25.3643
20.9774
-4.33073
-37.9002
-46.831
-14.7727
1.03358
-13.7598
0.273087
17.1044
23.1664
8.41922
-29.121
-42.5042
0.563527
25.45
9.53078
0.0239151
1.91857
25.1362
46.9838
27.7634
16.4109
1.01807
0.957124
-2.85995
-30.2138
-22.3748
-24.9441
-53.7086
-39.7393
-14.2046
4.48468
-4.6136
-25.8532
-2.98675
-8.43817
-16.7646
-19.7423
-14.6458
-28.7581
5.96864
23.7511
33.1294
43.4957
38.9039
21.1276
33.1082
60.6254
42.3827
5.87762
-20.1674
-44.8241
-52.7862
-36.465
-12.0417
39.1999
50.8899
48.1455
14.328
-10.4513
-28.4247
-36.4588
-15.0667
21.3968
30.2957
19.9971
16.1252
22.2912
27.9553
-7.38302
-47.4171
-17.5695
6.37468
-17.6911
-38.6614
-45.3712
-36.9265
-27.6098
-22.1428
-22.6339
-18.6639
6.19326
2.60181
-8.22034
-0.988407
1.57945
-10.4644
-32.0991
-11.8557
29.4953
54.4148
53.42
52.829
53.7889
43.0524
17.4971
0.65226
-24.0643
-35.9786
7.34208
15.2386
7.05474
1.64457
-5.71237
-2.47308
-7.0972
-10.9355
24.3899
23.73
-1.91522
-5.90102
-6.66211
-15.8513
-44.6875
-54.2596
-17.336
-6.32977
8.81928
17.5456
0.0923517
-2.66988
-0.345858
13.3835
-2.99127
-42.4172
-48.6239
-34.3261
-29.7781
-2.29432
12.731
41.3618
80.2515
82.1066
69.9542
29.0608
-13.9829
-9.17644
-23.4095
-17.467
-24.4956
-2.02561
9.25485
-13.8582
-24.0551
-22.3915
-20.1155
-3.54523
-12.7487
-50.645
-19.9283
-8.0978
-30.67
-21.3366
13.8156
56.5703
67.84
41.4306
45.1509
55.2576
44.8157
15.2044
-9.18913
-50.6165
-80.8398
-54.5649
-35.9756
-33.9778
9.3874
48.1322
32.8397
27.1678
12.5299
-9.71455
-14.3353
-32.1204
-15.663
6.36561
7.82171
4.41653
2.86303
-12.0585
-25.0257
-9.52705
30.5756
32.0671
27.9088
27.3622
-0.366773
-2.84623
3.46806
22.5102
15.1283
14.1016
6.57441
-15.5444
-37.7648
-30.6571
-6.72499
2.42301
-16.043
-41.0093
-20.2543
-11.0092
-15.6188
-11.8688
3.05297
15.5038
-2.31136
-17.8703
-0.557489
5.77168
4.39245
-3.64561
-1.65035
6.15189
-14.4887
-15.0352
14.3446
9.51741
16.4891
24.2746
14.0123
30.6647
21.5246
19.2945
28.1734
10.9975
6.00534
6.08846
-18.2914
-35.2683
-32.922
-21.6807
1.47934
18.8633
38.4927
26.2223
-3.48341
-9.46374
-15.5483
-6.53302
-6.77795
9.70649
20.6715
16.4533
-4.31341
-18.4741
-38.6551
-29.4535
-29.6037
-15.3203
53.5006
52.6473
28.678
26.4644
23.0872
18.0593
-10.8426
-49.7357
-54.1404
-25.1339
-27.7812
-33.9882
-32.0986
-9.96635
10.4827
4.8051
-15.4537
-6.42505
16.7365
11.0334
-17.6419
-16.3436
-12.1094
-3.566
-3.18924
14.6897
26.7335
9.51126
18.7718
16.4256
20.2926
7.52947
-41.6247
-60.8987
-0.546879
62.5676
94.5192
62.977
42.0493
35.6523
16.1189
-2.17241
-7.14188
7.62582
-19.4365
-47.2856
-59.7276
-36.2244
-17.7744
-15.163
-24.7812
14.5716
44.7379
22.4287
-24.636
-42.5912
-28.2709
6.85988
24.1921
56.9352
44.3315
15.7975
-2.96362
-40.191
-43.8397
-42.5404
-49.938
-18.9908
-4.27668
0.407403
8.76952
-1.37214
8.69489
13.6012
11.4287
8.706
11.4627
-1.14069
-23.1316
-57.0898
-65.3184
-18.5418
22.9948
36.3196
58.3988
67.3844
61.6929
41.2107
21.6234
19.1643
28.8663
7.38791
-8.3364
10.1168
9.16909
-12.9759
-33.1408
-54.6126
-62.9773
-55.0816
-36.4161
-49.7901
-20.3503
7.40848
11.0988
32.7987
49.4128
41.6521
26.0046
-7.97402
25.5822
38.0999
32.2112
14.9434
-11.4406
-15.2703
-13.5779
-15.6123
5.36652
-1.3801
-18.0396
-0.979102
-12.3679
-20.6992
-24.6981
-45.7736
-51.2037
-35.6282
-24.6536
-7.35905
-23.5097
-23.869
3.77386
50.8628
116.592
116.246
87.3173
58.3849
25.8144
-8.26809
-29.0294
-36.2428
-50.1262
-57.4674
-53.8754
-59.1476
-41.7603
-20.6278
13.2991
38.0321
19.7227
6.43228
29.9351
1.13854
-39.4305
-43.3033
-45.7642
-22.2025
-11.9091
-19.8651
13.0468
56.4104
63.6474
77.7562
76.1767
66.0665
48.6884
14.0246
-35.8904
-73.0282
-44.128
-9.52363
-8.3763
-14.8591
-30.0001
-28.5021
-10.8971
-7.25207
25.2916
67.4609
43.4315
0.117539
-27.2379
-57.5709
-58.965
-52.7633
-16.956
34.0294
55.7507
61.8938
37.9968
11.5923
-16.5837
-23.6694
-38.1465
-27.7811
-0.503084
-11.0188
-32.8709
-37.741
-35.5359
-39.8197
-25.6939
18.0731
61.6353
67.6271
43.6691
15.6687
11.1299
8.54862
-2.42057
15.1991
29.3871
36.0493
44.2845
38.74
5.19393
-23.803
-49.4785
-26.9425
-18.4786
-21.4652
-17.0744
-29.9828
-44.3907
-39.7526
-35.4348
8.71507
13.7363
12.7347
25.6857
25.7183
14.5184
6.24151
-26.5287
-34.9362
-17.2936
7.78782
27.2449
15.4384
21.8316
32.4378
35.9426
20.3202
24.5817
30.9511
-1.98247
-29.6739
-24.2032
-19.712
-22.5716
-27.5441
-48.0855
-39.7519
19.4513
3.38058
5.13944
38.2302
52.2493
45.7202
24.701
-10.6004
6.4164
1.57231
-38.0004
-45.7081
-28.9323
-34.2378
-26.6956
-15.7336
0.239347
-5.08468
6.85046
5.03461
-21.3103
-22.909
-36.2253
-43.0438
4.33109
26.1293
33.52
53.5457
51.8132
65.5401
44.9371
17.1082
16.2633
12.049
19.5802
43.1996
22.5487
2.81692
-11.1178
-17.898
-36.597
-42.2706
-6.83834
7.98785
-31.9713
-66.5044
-54.7481
-41.0412
-71.4197
-60.8402
3.8637
37.7559
59.4042
68.6902
56.4175
31.7693
9.16323
2.31678
33.2783
41.4362
48.9945
47.0167
17.0886
-16.781
-70.7227
-86.8284
-81.8142
-55.9025
-34.4003
-42.9917
-55.9642
-37.8311
-24.1766
0.674802
18.5153
40.3706
52.7355
61.7845
35.0176
19.3591
17.7094
27.0299
12.69
39.7322
58.0151
64.7241
53.7302
15.6018
1.55303
-3.89256
-30.311
-41.1684
-34.2431
-27.991
-36.3208
-47.8943
-44.2308
-39.2922
-36.7552
-34.0136
-33.4217
-7.01815
0.77572
8.02364
37.3331
62.1186
54.9488
22.467
11.7427
29.9539
12.1542
16.2575
1.86651
-33.7769
-41.9016
-49.6336
-37.4312
15.3474
45.1893
57.5203
54.4861
13.1891
-14.4064
-44.1279
-46.953
-23.9903
-14.5002
4.31364
21.5894
12.9124
6.9858
-22.0904
-48.229
-36.8814
8.02146
33.2323
45.9533
26.3535
0.959369
5.94551
25.0665
16.2532
12.0825
1.33173
-18.0732
-37.8244
-29.3467
-16.2593
-0.800565
-10.8401
5.31516
41.1144
38.4216
7.49147
-24.8642
-33.9109
-37.2116
-57.3794
-59.2426
-22.9472
-30.1694
-27.9915
-2.99388
37.4277
83.7677
90.5617
72.3814
69.9864
69.4969
41.9273
27.0047
8.85257
-9.70701
-30.7032
-50.2576
-51.0135
-32.3711
-48.3275
-40.2734
-45.8236
-38.4922
-19.4504
-2.59681
-7.77868
25.8581
43.8754
58.1844
30.2955
-14.3871
-6.93903
-11.7361
-48.7769
-73.5165
-34.8153
26.0661
44.6741
29.5781
35.2362
34.5037
13.7816
6.23872
4.61308
20.8358
6.08982
-39.0336
-56.3472
-54.4073
-41.7473
-40.3026
-30.4914
12.3725
58.218
98.6819
94.7097
52.4772
15.5437
-4.28889
-13.1528
11.1698
1.19616
-9.0423
-7.39912
-26.5353
-23.8809
-49.1873
-74.0023
-41.6448
-16.9744
-2.06273
18.5373
23.5711
26.7533
32.3953
8.06332
-1.28209
17.9054
9.84
2.81913
-18.6015
-26.0748
-12.1508
7.08414
3.29499
-9.06531
22.6992
28.6059
15.8693
0.359339
-17.6691
-32.0221
-52.5477
-49.3133
-15.3222
12.7068
73.3083
82.6563
64.783
56.2827
31.9923
10.6011
-18.323
-63.4576
-39.4079
-13.0233
-37.311
-38.8656
-51.0082
-42.0835
-13.6165
-5.61067
3.05781
29.604
10.6941
-5.49152
-39.9539
-50.545
-43.2457
-46.8619
-9.64363
57.5497
91.1725
99.6982
72.2882
57.2182
61.4413
47.4866
-2.64418
12.7227
22.3398
-7.89458
-23.6602
-32.0124
-27.4329
-26.676
-44.723
-52.6503
-15.4375
-7.57444
-43.3824
-80.3497
-64.4683
-20.3461
-7.28594
-6.58175
0.720548
6.36801
34.3008
18.0263
1.07194
12.5916
4.81286
1.07462
57.4811
59.395
42.439
54.4785
81.3398
98.5077
61.5221
10.5685
-6.74651
-17.8557
-15.2164
-15.0995
-37.1483
-52.8578
-66.3503
-73.8395
-46.1597
-34.0445
-23.8413
-14.5636
-39.8244
-39.6158
-27.805
-34.0139
-48.1814
-18.8977
5.12281
16.0793
7.89016
7.16427
-0.673191
-2.77389
7.44205
29.4116
78.9585
95.0736
74.9892
64.1526
57.1867
33.9634
1.85754
-34.225
-41.0927
-18.0169
-22.0731
-9.52578
34.5312
60.5302
36.3803
-5.33892
-1.5165
9.41366
-2.76147
-17.4269
-37.7135
-42.3231
-49.0207
-55.5469
-40.7415
-15.629
-2.26073
15.5178
12.1319
-1.15029
-12.0121
-46.5819
-39.6663
-22.3357
-18.5019
0.00509647
-0.539664
4.32654
11.7408
7.3351
16.5992
26.9938
24.293
34.1365
35.1644
11.2425
-10.6995
-16.7617
-23.1205
-26.5894
-12.1315
-1.17095
9.30409
17.9797
78.6815
143.441
120.723
55.6184
48.2141
27.6718
0.024681
-20.261
-49.1545
-71.1961
-92.638
-105.22
-103.03
-38.1519
-17.7896
-8.62994
-3.35032
0.686152
-7.76982
-19.8348
-55.3629
-75.9883
-74.8547
-77.2941
-71.3074
-8.64104
29.4114
38.1352
31.6804
75.9535
99.4308
92.3003
94.0392
76.4416
75.0853
69.3374
39.2133
13.1479
22.2392
6.53139
7.76308
1.21645
-6.17848
8.24952
-4.74725
-30.4164
-40.7826
-7.49109
2.06943
-8.20788
-18.8851
-20.9859
-14.7672
-35.2403
-51.6134
-20.6471
-24.5023
-25.8595
-39.1708
-28.2911
-25.4308
-43.3654
-38.5174
1.15814
7.72314
10.6249
6.01304
-12.2394
0.134722
-1.23901
-0.949384
25.8448
26.0499
23.1144
31.2267
18.2523
19.7158
16.7118
-7.12505
-4.87306
-8.16531
3.1205
12.8046
14.2145
22.1813
19.9746
4.45277
8.75819
17.7498
25.8622
22.8373
5.82659
-3.20347
0.140448
2.46337
-15.7153
-33.2716
-18.0774
-1.52699
-12.8939
-9.41434
-8.46357
-21.4492
-30.4849
-18.9301
-0.757829
32.9328
25.6022
27.9364
15.0953
-2.29107
-16.7198
-22.446
-52.0397
-22.5937
-19.965
-13.9352
-6.67107
11.6786
32.13
43.4943
39.6023
61.3823
51.8273
28.0584
0.911324
-21.9766
-32.3392
-76.7732
-116.011
-57.7743
-25.1293
7.46301
31.4563
24.3711
39.3529
47.4091
12.456
5.67586
9.88407
16.9813
3.3759
-7.68276
-2.42128
-2.12305
1.3879
-15.2354
-17.9743
9.25321
27.7023
5.45147
-6.63461
-14.4086
-19.5233
-38.6973
-25.692
-10.606
15.6547
25.5815
40.9731
60.3435
43.0963
-2.71726
13.6613
-8.105
-35.9284
-37.2175
-43.3358
-42.1423
-35.7933
-45.6588
-21.9987
3.98551
38.9134
62.6647
55.8067
74.275
80.0672
32.2775
2.08353
-27.6631
-33.0756
-16.0617
-21.8723
-16.2952
-15.6645
-19.1121
-29.026
-15.4846
27.6001
34.3238
12.8262
-0.145583
-14.8404
-30.504
-40.7199
-64.3022
-55.584
-18.8903
-23.6096
-42.2547
-17.9322
10.8885
17.2701
32.792
36.9612
39.6518
64.6208
55.8617
30.4919
26.4356
23.5353
16.4641
-6.17463
-23.8722
-18.2443
-3.86644
1.54655
-11.6398
-19.1724
-28.0417
-38.649
-15.9598
-3.3961
7.40201
23.6551
23.5717
13.2541
14.6219
-0.924365
12.4158
13.0101
8.21071
15.5241
15.5753
-4.89864
-14.9104
-43.3661
-48.523
-16.2461
8.02955
17.2187
11.5627
-5.34728
-23.7403
-13.1972
3.81973
6.09917
31.8399
26.4275
9.36577
-0.597714
-2.78024
-2.10031
-11.8097
-15.5082
-9.15019
-6.22935
-4.10546
-9.14287
-5.49486
-1.1402
-19.4171
-17.9663
0.781974
-5.20044
-10.8619
-3.57298
-5.99245
4.15492
9.81256
8.02277
-3.51378
7.02318
10.3705
14.3995
12.8445
20.6605
20.2071
9.2343
-7.29456
1.33667
27.7941
23.408
14.8757
21.1039
16.1427
9.56516
1.36203
-8.30887
-26.5137
-18.0928
1.07406
-5.71362
1.64529
-5.78158
-13.6158
-10.56
-28.9684
-23.5776
0.747404
1.02404
-12.2995
-16.6032
-9.59756
-6.02869
-8.17366
4.05206
7.10637
4.64056
5.16553
-5.43133
-9.63964
-9.22406
-17.072
2.89614
27.0787
9.91907
17.6818
25.0991
12.0358
-2.50834
-21.9933
-7.44638
-8.63169
-13.5999
-7.58046
-18.197
-26.7825
-7.08389
8.28733
40.2006
40.8441
31.7535
14.8817
6.01661
-2.72682
6.30895
7.77021
-5.7804
13.172
8.35904
-2.28165
-7.98698
-9.2014
-17.9152
-8.91788
0.742492
-11.8237
-16.2739
11.1972
3.40689
-5.36773
-6.86069
-11.5192
-13.8136
-14.2657
-5.98371
29.6888
43.5676
8.24377
-3.00619
-6.48805
-5.36109
-8.555
-15.1814
10.7141
23.0643
22.9582
8.63585
-9.45631
-8.47586
-23.3888
-34.7168
7.91907
11.894
1.1953
-5.5598
-26.3608
-37.0241
-49.7287
-32.34
15.7374
15.867
15.8404
27.0756
18.0063
3.24175
6.85506
10.2171
-3.98393
-3.6121
16.2943
22.5445
18.328
15.4305
8.57172
3.51115
-4.15415
-24.4701
16.8128
26.975
13.8996
9.69876
13.1789
12.4116
-17.4106
-38.4906
-19.5099
11.9993
32.5756
26.2983
6.33936
9.41258
-5.18219
-33.9249
-32.5319
-18.3108
-14.3074
1.48021
-14.2903
-15.7135
-22.8934
-38.1674
-6.13453
-6.58394
-17.9353
1.08213
12.2195
8.37456
2.1189
-4.50268
-10.0486
-3.78509
-4.65596
4.56709
-5.34178
-14.1879
-15.8575
-11.6073
-20.6224
-16.3943
20.308
30.5699
15.1089
19.3979
36.506
33.9231
15.7393
-2.7729
-10.4629
-0.529908
32.8006
32.0398
29.6105
37.4096
31.6139
19.2826
23.5611
8.97662
25.8356
36.1176
15.6389
8.33322
-20.9873
-34.5469
-30.9257
-22.5258
-2.46162
-10.2952
-21.5672
-39.2593
-59.0749
-53.3505
-52.6309
-52.4244
-32.5408
1.94013
-1.69813
9.58245
9.67052
8.81868
9.83657
11.2007
6.14862
23.2614
26.9726
22.1563
0.386703
-11.6895
-5.8238
-5.4497
-3.7856
-6.19936
4.41696
13.2441
15.3502
5.40734
14.163
22.4693
6.92286
-19.4938
-21.9342
4.17006
8.43325
1.91029
9.01484
7.53778
-3.69709
-14.97
0.686516
6.3525
11.4908
19.1225
13.8936
9.2788
6.07897
-16.4559
-24.215
7.0899
12.5617
1.99573
-3.11548
-16.5113
-20.5863
-8.2499
-11.8179
-10.1425
7.24937
10.2888
-7.10155
-15.7045
-3.07988
14.7596
8.72447
-12.8772
-3.3668
27.9272
36.4294
25.6486
9.00671
-0.801195
-16.081
-30.6767
-29.794
-25.7724
8.85831
5.30513
-5.52181
6.48029
1.86987
10.1501
12.537
-9.65133
-1.83404
9.97414
-3.31939
-16.1329
-27.6745
-27.5985
-15.451
-5.65255
20.0158
23.5054
38.7881
28.8388
-4.02881
-10.0488
-10.783
-6.22255
24.4822
29.6487
10.7077
6.18718
-6.47598
-9.04477
-19.3695
-21.0057
3.80812
-13.312
-16.3503
-2.33316
-3.11103
5.1234
2.49328
-1.49201
5.32783
7.45783
20.9694
28.7916
12.5003
1.46446
-7.04505
-10.8564
-1.44453
21.0536
14.7275
12.2977
3.48639
4.76836
0.343563
-20.7254
-32.6624
-24.4893
-14.7052
-1.10871
-0.533133
-7.85649
-14.208
-15.3171
-14.3667
-8.70874
3.89797
9.71663
7.32803
-5.3061
2.21745
3.10396
-7.82942
-17.6858
-9.69974
-0.0109436
4.53379
15.9853
13.2711
8.5727
-4.52772
-6.81559
-1.66766
-0.00243528
6.62379
13.6698
8.23205
19.2693
24.9316
3.61315
-0.0729151
3.31327
0.551059
6.0969
14.3102
19.5598
15.7829
3.61587
-15.8918
-9.59343
-2.80298
-0.217462
-8.79679
-11.994
-19.5029
-24.3766
-19.6577
12.5195
-12.6046
-39.898
-31.4665
2.14285
18.591
36.3379
34.792
42.2601
23.0764
3.46919
5.97042
-4.80791
-12.3278
-0.011685
-25.0886
-28.4173
-17.6607
3.55716
2.61686
-12.2215
-0.998124
7.29076
-17.145
-11.8908
-7.4899
-30.7747
-28.2886
-19.1208
-4.22256
14.4806
23.8892
23.9476
40.4932
37.3036
39.6628
20.7618
-4.75314
-17.5343
-9.48305
-8.41335
1.05223
35.0659
38.0699
7.64288
-14.6716
0.0775534
21.361
20.0978
-8.58531
-49.6402
-46.2205
-19.6139
-27.2752
-28.4962
-16.142
-1.09972
0.121586
-16.068
-14.9109
-11.0877
5.02013
11.9812
14.8174
8.9459
13.9417
-4.40905
-0.343137
2.92725
4.66101
11.7902
26.0752
21.1794
1.21571
-7.11762
23.8865
28.3177
9.63069
6.81967
-9.81782
-23.9544
-14.1496
-10.1513
-0.413667
14.1474
12.0938
3.06567
-13.3505
-11.5306
-12.3016
4.10223
-9.94701
-32.6961
-8.93249
-3.76863
-12.8941
-6.34018
11.9525
24.5929
16.171
-6.67111
0.75318
8.27557
5.53446
0.990404
2.87277
6.44285
-12.8064
-28.781
13.3548
22.8635
14.7638
22.2571
14.1609
6.66342
-8.20943
-32.7274
-19.4374
7.7148
-1.76335
-6.46028
-14.1566
-11.0054
3.34316
4.63379
-7.77419
-13.7504
7.09475
19.9521
6.12579
6.37601
7.77012
8.13747
6.09014
-21.1589
-33.9127
10.5853
25.8331
2.48271
-2.67279
2.99688
6.50673
8.29341
4.65812
-12.202
0.00645165
3.84943
8.35953
3.96371
-6.13703
-3.86419
0.799115
-11.2206
-7.39839
9.22105
18.5252
-8.81095
-45.696
-44.613
-37.5208
7.74244
50.2358
31.5152
19.5056
11.7553
-0.112757
4.78863
-21.1221
-26.566
-18.6306
-13.5425
-0.738638
5.00896
-6.546
-5.12653
-11.3895
-5.90217
18.5894
13.2846
20.2449
8.69358
-14.4825
-6.23582
7.81056
7.66886
20.913
42.899
33.0636
17.0722
10.8827
11.4783
2.53427
-4.92959
-10.956
-0.927262
22.3608
11.1292
-7.85371
-4.70203
6.40783
-0.879828
-24.1167
-34.3535
-13.8636
-14.1495
-34.7092
-48.4415
-31.0744
-20.7642
-11.5224
-9.96361
-10.2141
9.71247
8.34235
18.9927
20.5565
15.8571
7.20145
8.6804
3.71977
14.37
-0.441456
4.6663
8.82111
18.5491
18.1699
0.328439
-8.43164
6.60605
3.01403
2.71545
-0.303295
1.57359
9.00778
-4.90339
-31.304
-7.7967
5.88896
11.3018
6.6862
-14.1668
-6.04643
-2.77037
-18.4061
-20.184
-14.0698
-2.1278
0.751411
2.345
10.3468
13.0841
15.3317
6.40226
-11.8807
-8.99998
8.70161
4.09439
2.87081
9.68771
22.1778
9.73576
-10.433
4.78496
12.3609
15.0747
16.6861
14.8482
13.9327
-5.24152
-10.886
-3.05014
-16.1382
-25.1021
-11.8139
-1.62078
5.85563
3.63425
4.83377
4.90142
-2.38935
-10.866
-8.92851
-26.2432
-28.1462
-27.5945
-17.037
1.31743
4.96195
10.8252
12.034
7.55745
6.07804
9.11376
11.6475
9.52899
19.0681
11.9454
-2.65639
-12.3212
-13.9104
-3.38002
15.3978
10.607
0.131646
6.11093
4.65187
5.62398
12.1665
7.18899
-3.60025
-21.6562
-7.3517
19.464
9.47393
-2.46326
-14.1383
-13.3909
-12.4969
-30.243
-22.3082
5.6756
0.322635
0.876339
-1.18773
-4.83207
-5.15307
-24.3835
-38.419
-12.6429
6.35749
24.5669
48.3107
33.0946
22.0475
11.8666
0.370651
9.12564
7.88018
6.50992
0.995807
-4.50478
7.50552
12.3752
-5.89776
-5.76031
-4.78145
-9.00432
-3.31705
-11.7861
-27.4274
-24.5975
-23.3085
-8.22141
24.9875
21.4707
9.89534
-0.663733
4.82774
18.9912
18.2895
11.656
3.01104
-12.1854
-14.3831
-23.1898
-15.2543
13.2419
14.3456
18.2386
42.3434
20.8752
1.21585
-21.7728
-36.4205
-22.2989
-14.2453
-24.5108
-7.77038
12.0839
13.0757
-13.3428
-28.4725
-21.0041
-0.394905
9.7451
4.88884
1.78004
4.13479
37.7193
12.1597
-0.647504
-7.40298
-3.92001
7.83208
6.33728
-6.37321
8.58581
10.7582
5.00809
8.1735
2.30849
7.08985
9.60209
1.3656
21.5408
10.9914
4.18184
7.54665
-21.8178
-19.5799
-10.2074
-30.9071
-33.3668
-26.5265
-16.9656
1.30649
7.9189
-1.84211
-13.6741
-21.9004
7.29622
9.77484
0.813861
-0.456992
-5.44196
9.5524
17.2931
9.01892
7.71874
8.67633
8.59637
24.1124
30.8991
30.3801
25.5838
16.3707
-10.8812
-6.75961
9.01315
10.1963
-14.871
-19.8583
-11.8692
-4.6749
-13.9736
-11.553
-16.9231
-3.35966
-9.04864
-17.3378
-9.55734
-3.72974
-9.32231
-10.6458
-5.66901
13.0516
20.0694
1.57157
-8.25576
-5.89081
-5.28167
5.61127
11.2142
-5.08014
2.68046
31.6704
23.7447
7.86761
7.20851
5.21703
-6.57995
-24.9432
-12.8719
-4.87332
-1.6895
3.81146
10.4724
16.574
7.89434
-11.7912
-14.6303
-1.89025
0.833238
10.5691
-4.30337
-36.2215
-26.5747
-7.58849
-3.89979
13.9144
42.3632
49.6395
19.0936
-7.13662
-12.4896
-6.80336
-9.60972
-12.9447
-28.573
-33.2139
-51.1743
-51.1048
7.14577
91.4743
116.124
74.8636
19.4211
-18.5274
-29.3106
-44.8356
-52.4399
-43.2914
-53.4163
-54.0525
-26.6168
-25.177
-9.81382
15.6771
64.2353
105.871
83.138
45.243
0.0654246
-52.0443
-70.808
-46.8488
-28.2046
-22.1645
-33.6246
-18.1094
8.10346
11.261
36.4216
62.19
61.8069
57.4357
53.4738
34.8674
-4.90328
-22.8288
1.95304
4.53206
-4.69599
-14.7236
-10.745
-5.85344
-7.22864
-11.0793
-10.6098
-13.8095
-14.3084
-1.50001
16.8568
20.4012
-19.0212
-46.9282
-47.9361
-55.0895
-47.475
-24.3779
0.47462
3.77076
-11.5248
-11.9353
-3.84991
7.06443
33.9025
41.7116
60.5687
53.3096
18.9116
19.0557
12.6288
-10.1433
-32.5129
-55.4002
-44.9025
-1.84529
1.46236
2.61398
25.9462
25.6721
24.2039
3.8976
-14.6311
-14.3541
5.08202
22.1389
19.2192
9.55238
25.288
16.7173
-1.95593
-9.88089
17.626
29.2383
4.74407
-8.0806
-9.07722
-23.3593
-36.4852
-35.527
-30.7113
-19.3193
-14.7225
-5.83334
1.3362
0.390357
-5.05966
-12.2754
-15.9918
-14.5171
-23.3733
-19.512
12.4003
31.5753
48.2199
31.5996
14.8872
10.502
-6.68138
-2.66443
31.5656
32.0756
22.8855
1.89291
-23.2288
-16.7106
0.774072
7.28311
-20.9376
-14.8496
4.00795
12.1739
1.98242
-10.0245
-6.9087
6.11913
-3.7036
0.460881
9.5741
13.9624
-0.715697
-14.937
-14.7986
-10.7179
-13.9855
-9.58518
-16.5937
6.11581
21.0221
16.57
11.618
8.99174
5.54343
-1.56298
-18.0054
-13.3772
-6.33874
-15.2274
-16.8877
-6.13264
-8.11977
-20.8121
-8.60582
21.1524
18.151
4.84822
16.5336
13.8134
7.29449
-8.72786
-3.04678
18.3934
0.68299
6.99366
10.8893
-11.6386
-6.16982
-10.9155
-31.8505
-7.28097
14.2904
52.8067
54.041
33.1792
26.3547
13.518
-5.9669
-43.3686
-25.5878
1.83087
3.65791
-4.41522
-10.4325
-8.14575
-15.968
-41.3618
-34.1019
-7.74388
5.24193
-10.2999
-20.9006
-15.9202
-12.1405
-6.80549
6.68024
29.6324
20.5164
17.4265
2.92463
-32.9406
-61.6771
-61.2417
-30.2027
21.2486
77.2716
80.0394
50.6767
24.2566
17.6031
21.9305
29.0096
18.425
-7.53343
-17.6001
-9.83716
-17.5988
-11.4438
4.45144
10.239
5.53545
11.182
12.5988
-9.46216
-34.3213
-53.5306
-31.4547
-19.7697
-11.4968
-4.27726
-7.94898
11.6468
5.44004
2.83265
-1.28968
-5.30502
-12.1837
-15.4982
-5.44837
15.4058
25.7345
27.4158
18.957
18.8305
8.603
-10.2237
4.84562
23.5211
13.8251
6.11376
-9.66503
-36.2962
-40.4436
-33.9261
-9.81742
8.26609
9.73716
22.041
25.1162
5.34098
7.47177
-4.57064
4.12497
23.5856
20.21
15.5241
10.0957
4.38427
-2.87803
-3.40499
-15.7662
-1.69483
-8.49492
-17.315
-26.8209
-31.9101
-18.8008
-12.2039
-13.5107
-24.7552
-15.5488
8.49757
22.1145
27.7918
23.5523
8.73102
-1.64317
-18.9792
-22.5391
5.54272
27.5986
17.1169
11.6269
16.2467
1.87311
-13.6465
-15.7811
-12.8172
16.3135
36.4077
28.5057
23.4229
-0.910366
-18.6062
-37.1823
-58.9703
-35.3402
-9.59013
11.1572
15.7835
17.4509
10.4002
17.511
25.3041
48.3463
28.2475
13.8775
-0.842692
-49.1954
-82.249
-61.5677
-30.3824
-2.86116
24.6405
30.6596
33.2163
14.2986
9.11439
12.5203
2.56111
-14.0527
-13.5256
-9.66126
-11.8843
-12.1847
6.89612
7.45472
7.04206
20.6659
27.1145
31.4224
21.5205
-3.12979
-18.0931
-8.40894
-0.844046
-2.53445
-17.6268
-4.65695
9.87238
7.28302
-7.43517
-19.4618
-12.4695
-15.1949
-25.7193
-6.26994
0.969076
-0.357357
9.05214
24.9654
43.1947
32.078
16.5323
-36.2325
-45.6981
-19.6656
4.84693
20.2332
35.7475
41.079
27.4958
-2.99527
-19.1863
-23.1059
-20.9218
-31.0034
-32.0634
-23.5316
-14.6653
4.61036
13.2616
4.41604
7.31649
30.8633
23.1657
7.19822
-3.54643
-0.333218
-13.3452
-42.7645
-27.0331
0.86211
3.28407
-16.2935
-42.5682
-22.2655
-3.8045
0.959346
2.92179
29.0813
46.6942
35.1586
25.9287
25.1661
24.1844
18.8384
22.1774
9.65658
-13.5648
11.4819
16.3353
2.34798
-11.1402
-25.8629
-33.7906
-25.034
-31.6572
-29.8945
-19.1405
-36.3505
-28.3054
11.845
39.7896
59.2022
59.8284
36.8118
11.4265
7.9654
0.42837
-25.7279
-25.7462
-23.7
-16.9824
3.14476
8.03188
15.4337
18.9905
38.3328
37.207
9.08421
-11.7347
-26.3753
-51.3527
-36.3998
-43.7052
-50.3388
-36.9151
-11.4686
4.19521
2.58866
2.68656
3.95755
-0.563353
6.92411
16.2305
11.4015
17.0175
3.84863
-8.73211
7.74129
13.938
20.9901
18.2361
-8.12866
-13.3599
-6.49993
0.717684
7.74612
16.6216
22.7906
38.8333
33.1805
11.5143
4.0901
-0.809725
-19.2681
-16.9142
-17.8937
-14.3887
-17.002
-12.7897
6.40414
13.8957
-9.03187
-4.99581
23.2921
8.60529
-9.371
-16.1022
-16.4369
-5.02265
-8.50292
-15.8914
-22.0047
19.0151
41.3468
33.9843
20.9006
17.69
3.11331
-10.8408
-29.1706
-26.2076
7.24374
1.66471
-14.0783
-15.095
-41.2173
-55.9368
-29.8136
-11.3065
9.28734
23.4436
29.0383
6.37798
8.78404
13.0192
9.98583
4.71629
15.4281
20.5014
26.2481
35.1329
19.9476
13.172
9.82527
2.31182
6.29292
39.5819
18.8686
-22.8642
-48.1132
-44.9765
-39.9728
-44.3612
-60.0797
-39.3963
5.39827
31.5985
31.3196
31.9874
41.1668
20.8274
-12.3409
-5.34911
-5.49123
-13.6025
-15.7889
-20.2849
-20.9536
-20.4606
-17.3799
22.5129
46.7151
38.1921
37.5013
21.3533
-0.997376
-17.9249
-35.7629
-37.2938
-43.0632
-26.4252
8.42056
34.3967
41.9782
37.3333
9.8577
-13.2085
0.0452941
17.8573
8.85197
-6.92151
-18.8222
-26.4357
-16.6291
2.66192
6.63244
21.3215
41.2211
55.6224
15.1707
-11.2816
-23.4552
-43.9944
-50.537
-43.692
-18.2159
6.79416
4.58654
0.713354
0.0829239
3.31458
26.8658
29.6114
12.3851
13.8564
8.78496
10.1914
16.5208
7.59775
18.3483
-1.12763
-33.0164
-25.2373
-31.3631
-20.8311
23.9406
29.7028
3.14945
-23.7066
-42.3648
-41.8037
-64.8405
-70.5301
-66.8954
-70.4569
-53.3264
-7.32423
47.9632
77.2377
153.846
191.544
143.144
74.3827
35.7
10.076
-5.48898
-46.9656
-70.2126
-53.3139
-18.6095
-19.0837
-11.0598
30.6719
65.7298
45.3083
2.58686
-26.3614
-63.0361
-100.536
-137.121
-122.363
-70.8742
-46.4753
-30.5189
10.2448
14.4616
20.278
34.1682
45.934
55.3336
46.7511
23.2168
27.8516
44.2711
58.2143
54.488
15.1229
-8.89914
-16.2462
-29.8726
-35.9775
-32.3104
21.158
44.666
39.0307
26.2514
23.1404
21.5143
19.0901
-1.91579
-18.5443
10.4551
9.85801
-17.9449
-28.6092
-27.877
-33.3418
-33.4131
-15.8035
-6.22475
-9.92974
18.6031
-1.94252
-17.1579
-59.5685
-84.2655
-42.652
7.43265
10.2362
26.2763
58.9562
55.3411
21.664
-8.83525
-30.3044
-32.7071
-33.3805
-6.41589
-18.9368
-6.11498
9.85637
-8.1535
3.93737
42.7163
87.5641
97.8537
42.8874
8.7756
13.4228
3.4063
-19.1134
-41.1098
-26.8248
-18.5034
-19.4652
-2.75415
12.4181
3.44237
11.5382
12.399
-13.7896
-26.0646
-13.4349
-11.8718
-3.82631
-0.935237
-1.66396
-13.7282
-21.8569
-16.8728
-2.50463
-3.97095
-10.9263
1.06234
17.587
19.6537
-6.11929
-16.0741
7.32593
-3.25067
5.08521
20.5778
10.3354
-5.84437
-21.6164
-4.90451
29.9952
37.8479
31.7897
24.7407
15.6122
19.373
6.77548
-16.039
-17.2205
-3.85258
-0.447242
-3.13404
-28.5084
-32.1078
-1.99247
-5.21176
-14.8959
-37.1379
-66.8352
-55.7811
-16.1403
5.15645
17.8498
14.9946
-7.02464
12.7942
17.59
26.7196
24.966
23.29
49.3795
56.0215
36.599
22.7621
20.6289
9.86617
-6.93484
-6.31902
6.63153
-3.36508
-30.5155
-17.4247
-6.05381
-3.91618
11.4825
5.18751
-10.3765
-32.7488
-53.9514
-46.5191
-41.3433
-52.3288
-56.5761
-51.4356
-28.4012
19.3404
49.4957
96.7757
114.231
75.5662
38.0868
-5.55642
-29.3315
-42.2649
-44.4018
-21.7296
-4.19635
21.0909
37.5318
17.3528
0.0256188
2.80367
-2.48036
-11.1761
4.58002
-3.62037
-25.6147
-44.5959
-42.0476
-19.2458
3.55528
11.878
-2.2475
12.0822
46.0256
32.5937
23.308
17.1748
18.2635
27.9848
26.2347
6.88273
19.3302
19.261
-25.3061
-45.9788
-63.0191
-94.8687
-80.7513
-43.5715
-2.75378
7.82855
18.8702
25.3873
19.3914
11.0861
0.94465
-4.80787
15.6929
18.8643
7.7677
18.8851
21.1396
24.5665
10.4368
-3.93789
31.443
51.7521
63.555
57.7577
18.01
-12.7129
-15.9254
-25.1025
-54.7206
-29.6301
-3.82721
-6.15994
-35.2535
-48.26
-30.604
-11.3703
-10.163
-7.06579
21.6462
18.914
0.169672
-1.11755
-17.6173
-15.3016
1.16655
-4.16667
-2.39887
-4.94174
6.20003
-1.19823
-3.28798
13.8558
20.6044
5.17521
2.05078
-9.81701
-10.3306
-6.40467
-11.9253
1.23291
4.80992
7.49878
17.5656
32.6105
-0.0045526
-1.06592
1.01392
8.3177
16.1248
8.13479
-5.04281
-4.48671
-4.5872
3.07101
10.4784
18.7806
8.20782
0.330222
-2.84364
-9.22584
23.4968
45.6642
21.4227
-17.7472
-30.042
-28.3962
-22.3046
-27.3806
-39.3793
-22.2793
-14.4512
-9.89336
1.28055
10.4573
-28.8405
-58.4657
-15.579
21.6669
21.7024
14.8257
-9.31075
-0.000856014
11.4843
0.832125
28.4155
37.1113
33.2495
41.4343
38.8386
7.68515
-17.7448
-21.3137
17.7899
36.1356
52.2122
57.9117
19.04
-13.8711
-20.3566
-22.6854
-11.4413
-34.3387
-42.4412
-36.6637
-33.2091
-28.036
-34.0883
-33.089
-24.7285
5.36825
12.1157
9.35701
-22.441
-23.1825
-8.66754
-10.0717
-24.2675
-14.7762
9.29547
18.737
11.2719
2.01896
15.1009
29.1446
15.8655
14.5686
49.8411
44.8491
32.6112
23.4043
36.17
26.5113
7.15317
-25.7259
-46.6129
-17.0691
11.6273
4.34556
-19.9767
-22.9694
-17.1275
2.5025
16.9703
39.9726
40.7131
13.9456
-41.0548
-46.6395
-15.3885
-28.4249
-31.5591
-26.0197
-35.2317
-27.2468
-8.04475
4.48217
27.3065
43.9518
55.1091
39.4371
10.6445
18.0734
-13.0589
-48.2359
-30.4661
5.34388
9.23186
-2.74145
-22.858
-2.04663
23.5017
32.4426
37.6427
32.3373
8.63274
-19.4257
-51.7708
-47.0049
-37.0551
-15.0022
-2.46618
-18.223
-3.48126
2.96256
-10.3683
-4.05059
10.9629
21.8094
23.3586
10.3145
-3.50376
-11.1838
-14.158
14.9103
38.0913
24.5951
21.6234
6.08711
-10.3574
-18.9421
-19.9633
17.7398
23.2038
30.327
40.2789
12.7578
-9.56837
3.99814
2.95893
-17.6267
-8.23155
-9.66588
-10.0438
-21.9101
-29.9331
-19.1753
-12.7818
-31.6344
-33.1918
-6.52035
11.2301
-36.065
-23.7594
-3.29772
-1.44062
10.8628
27.7081
12.9094
25.2776
26.2418
1.43699
1.8812
15.865
17.4785
23.6901
16.066
15.9013
36.8859
32.7465
19.9799
6.12195
1.25482
-19.4525
-37.8972
-8.55573
4.22423
-11.2535
-15.9745
-27.8496
-14.9944
2.98535
-7.82859
0.44365
3.72797
5.86946
3.76809
-14.9623
-40.2175
-54.8407
-55.2802
-36.7708
9.87713
24.1643
26.5
15.6973
9.83027
12.499
19.0023
16.1141
16.0396
24.2674
23.4452
12.3807
4.88104
-1.4574
6.4269
4.43583
-2.43397
-4.7802
-10.482
-21.2562
-17.4279
-9.69452
-15.2704
-30.0266
0.906746
24.4178
13.5846
5.78365
-3.61162
-15.0551
-7.40529
-24.9715
-24.5053
-10.9879
-1.71771
9.94118
23.2629
48.1472
71.4565
81.0534
45.1265
6.02547
7.12811
12.7231
-10.2789
-9.28649
21.4327
8.47981
-19.0695
-51.3135
-81.8956
-65.6063
-29.2729
-29.8272
-17.1244
1.30468
-3.72188
-17.4557
-26.1397
-31.4564
-16.7256
17.9873
9.89439
-10.6612
-11.0927
-4.4271
-10.4393
-3.08042
27.5593
52.8877
60.5082
53.807
33.5218
24.8074
14.3508
17.1332
46.3274
84.2809
57.137
11.4291
-27.6829
-58.2387
-57.1785
-59.2799
-50.7258
-67.0918
-70.7411
-48.7776
-22.1276
-4.39501
29.2511
49.1729
54.2804
41.4553
27.7886
11.7461
-18.0307
-53.2966
-64.2417
-43.8657
-14.9263
12.3789
50.7276
63.4668
53.7984
47.3519
40.6048
32.8879
7.53648
-12.5929
4.67746
-22.9272
-61.4189
-77.3501
-72.5637
-35.7269
-18.7139
5.46408
32.9127
47.5433
32.7922
26.1071
-1.91044
-18.6646
-20.1647
8.35297
29.7014
52.032
47.8634
27.5152
-6.68423
-21.0289
-12.9889
7.8456
-2.61004
-3.90829
-12.9396
-17.5329
-13.0871
-23.2515
-21.9497
-34.9768
-52.357
-23.7596
6.12083
-3.39124
-22.1186
-27.5905
-8.07673
8.22773
15.6839
30.6179
20.0456
20.8205
51.0225
25.9014
15.946
-2.98621
-9.52919
-6.51014
4.37583
16.5152
41.6368
24.4889
-0.363439
-6.77957
3.56971
-3.40097
-30.4573
-27.3457
0.740708
2.84263
11.1293
4.12157
-17.5828
-22.2809
-22.5374
-17.192
5.56244
22.107
32.4731
25.5503
-0.023177
-4.60345
-16.1332
-37.168
-68.6147
-53.0099
-13.9301
4.21597
-0.0168205
16.2976
13.3867
22.3133
47.4168
46.2715
40.4254
28.2236
4.15058
-19.0222
-33.474
-32.7887
-18.5401
12.1555
31.3651
39.8204
56.55
34.7801
5.53306
-4.13078
-10.0065
-9.74679
-3.81102
-20.6542
-50.6997
-57.9094
-63.7137
-55.4564
-31.3473
-23.1902
-8.75892
4.20946
11.3737
18.3134
38.4849
43.1084
35.168
6.06967
-8.35536
-2.20453
-11.2519
-18.2851
8.49052
40.5497
43.6048
37.4218
33.3225
23.2181
25.0129
20.4622
5.1871
-6.61383
-28.4624
-48.9519
-35.9105
-15.0136
7.4134
-5.75496
-14.8508
-28.7309
-27.5667
-13.7944
-5.4394
-8.50516
-5.83241
0.56559
4.98296
-0.368007
-5.31922
5.89087
-7.13441
-15.7848
14.2873
23.2788
4.45935
-20.2563
-18.563
22.0184
27.0295
13.5716
29.3855
24.286
-1.95694
-14.4919
-17.8098
-17.0818
-16.0027
-2.36607
33.4956
36.7397
16.9456
-11.3713
-14.9323
8.10867
20.3842
6.57014
-14.0292
-6.7492
-10.7202
-5.54669
-1.93309
0.409435
2.55071
-0.514614
-18.2899
-13.5872
12.4108
17.37
-6.019
-9.2278
-0.370388
5.3391
-8.60179
-30.5983
-29.3819
5.41842
14.6518
12.7083
18.0456
17.1406
4.64922
0.691561
-17.7512
-13.5224
0.74387
-4.51102
-4.43329
-0.765283
-3.89798
-5.60144
-5.36598
10.8964
17.9574
8.51783
-2.39569
-16.8374
-11.349
5.53501
1.16375
13.9346
14.3578
-0.92051
5.33421
-3.07629
-14.1626
-5.8072
-2.9342
3.48669
0.422908
-8.75004
0.71081
8.93149
11.6664
17.0167
10.5738
14.5447
13.6354
16.7383
21.3217
-1.36968
-22.0572
-17.9408
-16.2401
-20.2386
-24.3722
-2.0361
4.69129
-11.6799
-21.0763
-11.1785
0.438511
7.58729
-5.04858
6.73169
-5.99327
4.2022
11.8656
-0.667302
7.6321
13.7253
-2.53442
-0.787716
15.299
29.1815
11.9096
0.988552
3.1142
-0.952014
-8.0888
-7.80388
-0.111033
30.7648
21.7864
-6.85423
-5.15311
-12.7512
-34.1642
-39.5093
-33.5122
-3.74857
-4.88357
-35.4249
-69.3962
-48.9951
19.8724
50.4975
41.1774
26.0087
36.3243
39.8543
8.15516
-23.8182
-27.6182
-30.1126
-16.594
1.21691
17.5533
35.8756
50.036
38.1151
37.0208
44.5061
48.6482
33.4971
-3.71548
-15.8163
-28.3837
-28.1144
-24.9088
-30.4519
-6.21526
-6.14677
0.654067
11.4269
-11.0957
-27.4107
-35.9506
-41.7889
-37.7958
-29.6485
3.85832
14.5857
12.6433
-5.0297
-22.1909
-39.3322
-19.905
-7.31696
5.78103
6.1965
4.7175
7.8423
9.78663
4.30952
17.1445
11.9293
12.1502
33.0871
28.7436
6.84351
6.45021
35.062
44.174
37.7228
33.2142
0.578819
-3.90988
22.8127
-7.5455
-20.9717
-5.87704
5.98676
-4.77901
-2.24042
-4.95716
-6.16235
-3.8853
-29.6896
-34.8594
-24.119
-22.9097
-26.342
-42.2437
-46.3221
-54.9154
-45.8703
-3.15363
19.4264
40.9982
29.294
-3.14905
7.44421
16.6639
15.3527
13.5904
9.96408
19.1775
20.7454
7.20548
13.0014
10.007
-1.15786
-0.706148
14.8154
40.9023
50.8062
9.69102
-18.8475
-15.0729
1.88406
5.25813
0.910519
1.4247
-7.98475
-16.0539
-18.5619
-30.973
-11.4333
4.54409
-5.76632
-12.4913
-17.1258
4.54147
11.2988
4.34287
13.9517
11.0033
-7.5702
-5.95058
2.5104
-1.36983
-25.4635
-27.0121
7.17034
9.88342
12.6174
4.48444
-26.7206
-29.4617
-20.9742
-11.0499
15.6612
2.8196
-5.31642
6.61367
10.7457
24.0737
23.7541
-4.56148
8.27815
22.3565
10.0833
7.07747
-23.8976
-22.3688
-5.62995
-5.05442
-2.15082
39.6969
61.2553
46.2067
19.5592
11.9465
6.69756
9.73125
-7.39347
-42.6078
-55.5509
-57.3547
-58.5366
-35.0865
-12.7297
8.4475
16.055
23.039
16.776
19.1189
28.5341
-6.31002
-22.659
-23.0164
-24.7349
-3.34929
6.02098
14.1391
29.8099
21.5572
14.8778
12.8166
6.50744
-2.29317
-7.29207
-2.05142
12.9419
9.69168
13.9842
10.6404
-6.67546
-19.9392
-36.0603
-23.4083
-1.19209
-0.114371
-0.927672
-2.1141
-4.25999
10.275
4.72929
-4.88518
11.1935
14.7107
6.25754
4.18563
9.71114
4.34415
-2.27783
-7.6862
-28.2175
-24.651
5.54512
16.4299
7.11269
6.09651
11.4327
2.60479
-27.3633
-29.299
-1.59355
9.03042
17.3447
13.6724
7.85755
2.55076
-15.1619
-26.8292
-11.4701
0.621242
6.52666
8.72737
6.64128
17.3002
9.52508
-12.5486
-29.5736
-1.91605
8.07752
-2.52153
9.79232
37.3338
19.1127
-0.83537
-9.24907
-1.22775
4.16785
4.16189
-5.20029
2.67686
24.753
29.3533
16.0312
-2.03853
-22.9853
-31.3334
-52.5826
-69.2338
-41.1997
-5.20948
18.3992
31.3686
26.4417
30.139
35.0408
15.6737
1.64247
6.71096
8.5919
8.13293
-11.089
-12.1485
-20.5608
-29.9184
-10.5113
8.95441
33.6842
32.3251
3.60739
14.7373
0.118204
-29.1289
-32.6027
-19.2711
-7.68928
-24.0526
-44.7107
-4.5019
32.9598
34.9808
21.1818
-9.77526
-13.3801
-9.03035
-15.0677
11.6824
38.0946
37.8293
27.6659
0.700105
-20.2751
-22.7402
-14.1932
-25.6777
-21.8112
13.4383
15.8447
1.01525
-9.65619
-12.7094
-7.10931
-1.73166
-23.7232
-10.0812
28.9948
35.8179
17.2091
3.94088
4.02051
4.79082
9.19525
2.60299
-4.39394
17.3667
15.1162
5.03369
21.3072
4.91532
-26.561
-43.0621
-34.3507
0.654849
15.8509
12.6839
-0.985484
-5.27807
-1.39153
-3.72809
-3.50828
18.0036
8.91901
1.16698
-1.15758
-8.71031
-12.685
-28.6214
-21.9004
0.485136
8.23085
26.0892
24.0469
-5.99952
0.297643
23.0316
3.65262
-31.1582
-30.5448
-8.58567
-4.73437
-23.7291
-5.09576
9.74138
3.9351
-23.3946
-2.69681
22.6234
27.2462
17.6122
13.6678
3.05837
1.72647
9.09629
23.3502
15.7882
17.6966
-9.47281
-36.2773
-28.2224
-18.4614
-12.9186
7.54095
2.32298
12.9838
22.0249
12.1052
17.0168
12.5693
-9.37459
18.0417
3.77652
-8.02422
-5.98437
-6.27126
-17.8617
-18.1694
2.23958
32.6613
21.8304
14.1964
9.82141
-12.6477
-12.2412
-14.5421
-14.353
-27.9471
-39.0463
-28.7028
-24.078
-19.2466
-7.85302
-3.30035
-3.49885
-5.11626
-9.08842
4.54898
35.6183
41.0168
21.3613
9.80416
7.58588
7.60752
0.916793
-18.7814
2.42993
11.9997
9.05695
21.5765
26.2884
-1.64486
-5.47577
-5.22852
22.2227
20.1418
4.8615
-1.18381
4.15914
1.97032
-12.508
-30.1177
-11.7719
2.48077
-4.8974
-0.900662
-14.0834
-20.6366
-7.51716
-18.7946
-13.6148
3.13403
3.66783
10.4975
9.59112
26.3695
38.1326
20.1815
-10.9016
-40.544
-15.6377
5.76114
-20.6528
-40.3323
-24.5584
0.994734
19.2302
19.8954
11.1383
1.49311
0.0367119
-7.27954
-6.52624
3.71095
-8.94765
-5.74756
15.2331
22.1481
19.1033
20.9005
15.8435
9.66635
-10.019
-6.38068
15.8475
0.743708
-21.1511
-22.3626
-14.4527
-2.48821
2.46459
-1.65906
-1.75173
8.20926
33.9566
10.358
-21.0322
-29.3497
-23.9911
-11.293
-12.3503
-1.96498
15.4311
24.8736
11.9234
1.9413
-0.541014
9.48287
1.82874
3.27859
-1.56879
-11.1029
8.76394
1.99488
8.91401
19.5321
11.3658
-1.55849
2.73863
0.223668
25.9353
35.9082
15.6457
-21.2167
-47.9265
-27.5029
-11.0896
-0.778994
26.0044
4.686
-9.03264
-15.9756
-40.7194
-38.7098
-52.1493
-35.3917
22.7841
32.9138
13.4689
-0.827759
-22.974
-24.2162
-17.7216
-9.52078
17.4212
23.2618
26.0075
23.1204
7.56833
18.022
13.2032
9.0636
54.5516
55.4977
27.8873
-0.121362
-29.1229
-23.3072
-11.6729
1.52209
-1.44829
26.5963
42.2331
25.3539
-9.94945
-21.8394
-8.33054
-16.3283
-65.8243
-71.5948
-26.1102
-9.55123
-21.3544
-19.251
-18.418
-14.9988
-9.05243
6.52648
28.3882
52.0844
40.8686
32.9433
17.6715
-0.0283278
5.43988
8.79733
-4.23362
11.8393
33.9088
32.9604
6.63267
-6.48304
-5.9119
-16.6896
-13.0555
1.61647
-19.7987
-21.3402
-26.5581
-28.8083
-27.0847
-47.8899
-41.9642
4.62895
23.9646
27.8798
18.6633
5.26469
1.35415
-2.49102
0.540065
15.3361
36.1181
30.7319
16.9941
2.49766
1.43122
1.99329
6.00804
7.90598
13.8836
-13.0456
-24.2059
-19.9178
-23.4294
-21.9367
-27.63
-13.0197
24.9239
21.1479
5.18984
-5.65319
-27.8435
-15.9434
5.82281
14.8169
30.1555
15.0676
0.156064
-8.78774
-9.84472
2.67029
4.6533
9.26774
28.3297
22.1107
16.3942
-6.73839
-15.495
-0.973566
2.80748
-2.48432
10.1733
31.4088
10.1913
-10.3405
-27.457
-42.6719
-39.8344
-11.7884
12.592
13.305
9.53406
5.38324
-4.52075
-4.54222
-4.48068
-11.6778
-7.64913
-1.22873
-6.65712
13.0782
6.60387
-4.71193
1.09842
-4.08886
-16.2211
-6.75946
-12.8152
-1.75046
3.74379
11.7185
14.2519
16.996
13.8772
-2.83734
-7.92364
17.9766
15.3946
2.04924
4.39376
-5.85767
-12.3805
-21.6205
-27.002
-9.64788
2.26766
17.9826
39.1907
23.2362
7.8414
-3.83275
-17.9846
-20.5109
-11.7062
7.44969
30.5947
10.6121
-2.64003
4.9378
15.2321
6.1301
-7.22994
19.8752
34.4542
25.5526
11.9017
-2.606
-15.2124
-34.7036
-76.1073
-84.0192
-52.1324
-29.5837
-14.3749
-10.5259
-3.69054
8.91648
9.91596
19.4722
37.3247
40.5818
36.0987
15.0755
11.2107
5.07249
-7.10959
-2.88352
12.0382
-2.03605
13.6513
44.7836
52.8328
31.4729
18.4894
18.19
7.32853
3.81481
-12.6963
-31.126
-43.0009
-45.4283
-44.3818
-51.3827
-55.5504
-38.3309
-6.79356
20.1488
11.2127
12.38
23.4132
23.0288
7.5672
0.147075
-3.8766
19.9627
11.7317
-7.6203
-10.2285
-14.4822
-4.73415
-0.90486
-1.2201
17.7983
17.3549
13.6521
9.54446
0.457137
-7.29236
-12.782
-23.6494
-3.74101
22.3898
23.0975
13.1833
-8.17666
-4.73012
-4.53477
-8.92564
10.9125
7.18388
5.07837
8.21926
-9.90206
-9.13276
0.96829
-1.32246
-2.73337
-8.3434
-0.00368324
17.0948
6.15805
-7.30162
-11.742
-23.6728
-15.1511
7.40339
8.45436
11.393
7.16331
5.72419
3.74431
5.58067
-10.6041
-18.9021
21.9839
31.6421
20.4456
13.835
8.09771
8.08762
-6.18077
-26.5915
-3.11772
11.3419
-12.2621
-20.4838
-26.7871
-22.2406
-10.5865
-2.19606
-11.9874
2.75327
20.6422
14.0375
-26.5139
-24.8495
-10.4652
-1.4626
-8.8007
-3.58535
27.6852
29.2539
9.92576
13.7537
23.6746
22.9538
23.1483
3.3195
3.17354
-5.14776
-10.229
-39.7155
-74.2999
-49.0852
-11.3301
0.710113
-7.51194
9.79057
19.3237
22.9957
16.6979
17.9518
16.7068
25.1968
15.7798
-0.999834
-0.38862
6.86964
1.71542
9.00562
30.5596
42.8288
43.6573
31.4853
14.3329
-7.73409
-7.26145
-26.157
-31.3632
-40.852
-55.6093
-26.8532
-4.23393
-26.2968
-38.9701
-32.8411
-15.1058
8.57928
-2.01807
-2.05759
-0.705675
-5.79175
14.6436
34.3919
8.95185
-10.7156
-25.1595
5.03163
14.8953
4.82442
9.06373
4.58583
6.83905
24.0252
26.236
3.45778
-0.253617
2.44848
14.9478
1.23405
-11.9342
-9.11659
5.05991
13.6226
13.7135
12.9343
17.2131
3.20376
4.77414
14.9029
12.7782
-5.69212
-24.9109
-30.2036
-18.341
-15.2731
-12.4359
-4.12861
-5.73264
0.0851496
3.94738
-4.37542
8.31439
-2.59872
-3.21523
5.53687
7.68502
6.86591
-8.17857
-14.5411
0.0855496
-4.06337
-15.511
-17.8935
-16.366
1.70838
-1.32778
-0.217202
15.0546
13.409
7.06081
5.30293
-2.27763
-0.150812
7.5168
10.1913
24.8123
47.0777
61.1926
43.14
5.20123
3.61441
9.86618
8.49646
-23.3537
-38.3228
-8.26907
-33.4173
-58.4468
-67.5211
-59.9749
-51.1297
-59.4596
-72.3995
-40.3435
24.2174
48.3755
45.5183
52.3857
79.6775
86.447
58.0602
63.8932
54.0315
44.4249
19.6082
-28.7519
-54.5409
-89.4587
-109.639
-94.1949
-46.2382
6.08379
41.7129
38.4174
11.6219
-1.41099
-11.7316
-12.9077
5.30639
5.92565
0.527987
-16.6219
-14.1784
8.70304
28.2552
39.3062
53.5301
62.0325
85.2577
78.525
52.3451
21.6466
1.76969
-18.0131
-31.6354
-54.9124
-55.1189
-28.2266
-46.9067
-54.4711
-40.7244
-43.5616
-43.0429
-45.6647
-27.7589
-0.2896
14.7538
30.3262
29.5869
26.831
21.9192
6.76357
1.22535
-1.62444
-12.2559
1.29608
-5.79161
-30.1607
-15.2297
-14.0588
-7.2406
5.49983
15.7087
24.3596
19.8804
9.29916
21.4219
32.2595
27.4515
31.9068
30.5557
22.7012
14.8652
3.2783
-2.82164
-5.74722
-7.21663
-20.6914
-42.8286
-19.2514
-3.3332
-1.68283
6.67319
5.82632
3.72451
-11.382
-19.4369
-4.20019
6.00657
-0.0901127
-0.352526
7.34744
1.82466
-13.8212
-24.5121
-9.00514
-0.633652
-0.799596
7.24354
4.68121
5.7907
-14.4371
-27.8801
-33.2598
-22.8308
1.77923
18.8101
42.6719
48.0414
28.1424
2.24119
-18.7014
-3.86866
13.4588
8.37524
-1.60099
-6.05027
-8.14125
-19.087
-29.3718
-35.8672
-11.3647
14.3993
30.3147
31.1016
24.7904
17.2119
-8.83635
-16.9142
-26.2616
-7.90504
14.7439
-0.467572
-8.90131
4.11103
0.357425
-20.0241
-35.3118
3.03972
51.0124
56.2546
35.5154
6.63365
-17.7767
-26.9548
-26.0423
-1.9629
-8.05156
-11.7504
-2.9251
-3.43491
-12.5436
-20.1585
-6.52911
31.8776
32.6905
45.6903
41.9143
7.23239
-31.2597
-48.4354
-69.5561
-38.3624
-11.5197
-8.72294
-2.40232
-7.11111
-5.68183
6.39025
9.30074
18.9799
30.8286
34.1932
27.3702
2.56827
-8.97779
-4.35794
9.1425
0.703787
16.5441
33.5299
33.5857
9.81331
5.82232
7.79655
9.39919
-4.1924
-28.7166
-38.4029
5.08489
-7.8255
-15.8329
-15.9028
-27.7238
-25.1966
-14.71
-4.35976
14.2663
1.21256
-22.3073
-18.4606
3.54068
14.2057
5.95695
3.57334
4.42807
-4.04852
2.26057
1.70257
-6.63986
1.6659
-12.0901
3.72386
23.5404
18.4931
19.1164
7.82696
-0.944878
11.2901
6.44433
-1.36745
19.5294
16.4151
3.87569
-8.50056
-16.688
-25.543
-21.853
-22.9297
-35.0742
2.79718
26.6918
21.6231
8.04259
2.6559
0.600198
-0.741996
-12.938
-0.466105
4.80175
3.27748
-3.50611
-6.79492
12.1001
21.6243
2.0972
23.1928
22.4562
18.4382
9.84446
-14.4426
-14.9363
-9.28214
-21.8958
-13.9059
-16.2847
-20.4039
-13.0206
-10.5781
-5.76942
-8.60036
-17.8726
-11.8951
-4.16235
10.0453
10.4962
4.17235
14.9667
24.9651
23.0158
0.0103011
2.80809
19.324
15.2049
4.81855
-0.978251
-7.4439
-3.29562
-15.1814
-27.8964
-10.7517
10.5935
-3.41145
-1.66816
3.13269
13.7316
8.64691
3.98448
-8.29291
0.502561
19.4992
8.0131
-0.26756
4.70418
1.80492
-6.18645
-10.5028
6.73583
5.33306
3.78388
3.81137
-13.9384
-10.484
-2.0427
-7.13601
5.23948
-9.13092
-15.0337
-7.46158
-1.12753
8.07471
3.8535
-20.486
-9.98611
9.26602
18.3755
21.6455
-6.28248
-15.623
-9.41951
-14.3909
11.9972
41.1818
14.5537
-3.60817
-9.25729
-3.711
-0.83928
0.0637128
-14.2841
-30.4179
-2.39962
1.8609
-9.96091
-11.2341
-9.36151
-4.58351
-2.98928
10.3269
36.2718
36.8879
9.70665
-13.1175
-9.45499
-7.89533
-10.209
-3.43278
11.4577
24.1975
23.0795
0.371293
-21.4131
-10.8442
-2.98641
11.5673
5.07883
8.60907
20.1328
14.8437
9.15039
6.69533
-7.42338
-19.4237
-21.7931
-11.7447
5.18624
-5.44798
-11.7029
-11.3023
-7.23049
0.712501
-7.23056
-13.76
-1.67855
2.46814
1.06284
-9.65456
-11.9213
-1.7683
-17.4
-15.5672
-2.86279
27.7742
45.3776
34.8939
17.5239
16.9181
8.58242
-10.9985
-17.9963
4.34596
-26.2443
-52.3915
-44.1054
-13.8399
12.9862
11.2961
29.8603
36.8668
19.141
25.9116
20.5992
-2.39899
-8.79003
-14.2805
3.30345
18.7643
5.53914
3.35252
6.95416
-7.13507
8.70324
19.6736
13.4299
-10.5844
-33.4651
-25.368
-27.1924
-29.6017
-23.8578
-20.1946
-25.3063
-3.86937
7.8467
6.6204
-12.1241
-15.0764
-2.24696
15.4647
23.8184
16.3003
24.7184
45.4894
23.8486
-5.26839
-0.765162
9.50457
9.80812
2.53617
-1.20845
-15.4437
8.39947
-10.1119
-17.2368
-14.5759
-12.8049
-14.8995
-25.8318
-19.6889
10.6808
8.69164
6.4675
11.5515
21.9257
21.9448
18.9733
9.95585
19.4157
6.93186
8.2788
3.94553
-12.1371
-25.1787
-31.9376
-31.3994
-15.9947
-8.66668
8.41107
7.99857
-6.52639
0.738002
8.18768
-11.6871
-5.94335
6.77203
-2.81841
-0.487915
-4.20775
12.0082
14.2849
23.3604
19.069
9.25682
19.9661
7.56727
-12.1768
-8.56272
7.96333
2.56511
-26.9289
-16.5425
5.98031
8.97885
-7.01098
-19.0801
-0.699636
3.3307
-17.9806
-7.33356
1.13364
-3.80869
-8.34247
-5.70146
-4.09308
5.76201
