26.0149
18.4407
25.3685
37.1812
53.573
65.722
40.9586
-12.2109
-41.0229
-55.7185
-78.5545
-77.0971
-35.3485
-23.8576
-59.9932
-66.2924
-33.7917
-4.91588
-2.18285
14.1001
33.4599
61.6134
70.5439
38.6333
-3.25534
-25.4523
-12.5355
6.71533
18.2947
36.11
33.7741
8.87128
-11.6572
-7.54214
11.896
5.04709
-28.7716
-34.982
-19.7373
-16.3477
-21.7715
-42.3404
-50.9265
-26.0542
-9.58314
-11.013
-10.2123
-2.07677
13.002
27.6713
33.6702
30.0656
20.1234
22.8056
41.7367
38.1408
19.4641
8.89023
6.72526
5.3048
0.300969
-15.7973
-24.3038
-23.7895
-17.947
-8.79312
-1.21154
2.40396
5.57776
8.20767
5.33872
0.568619
0.529232
1.17428
9.55076
6.12375
-0.123425
-5.43074
-0.783968
-6.14608
-8.01452
-8.2111
-8.86456
-7.27286
-9.13125
-12.2792
-12.7157
-7.1221
4.65639
6.73244
13.6053
23.9524
14.5467
-5.08951
-7.41163
-3.72051
-5.21202
-9.20297
-11.263
-4.46284
-0.306181
-4.68215
-7.0592
0.285661
12.0264
16.0796
17.9041
13.9069
10.2482
11.8446
10.1905
-9.13795
-32.4306
-32.9722
-13.1687
-1.35676
5.2318
1.37517
4.69004
3.5732
-3.69851
1.76121
7.19322
1.61162
-3.60215
2.4118
11.4329
19.3511
15.2673
8.21456
4.44436
1.4076
9.62079
18.978
7.09012
-15.845
-24.1975
-18.8894
-10.4097
-2.73976
-0.168888
2.09517
13.7695
18.5931
4.49559
-9.13704
-32.9786
-47.9832
-38.6236
-23.0873
-12.3482
1.20678
9.30704
9.99155
7.31344
14.8101
23.6449
19.6084
12.032
9.03695
5.96491
3.00413
-1.33748
-11.1936
-5.21918
10.9772
27.9814
34.4285
21.7204
5.83554
-2.26814
-2.25615
-3.39814
-1.99127
0.175788
-4.68206
-9.83778
-7.4858
-7.60953
-15.8762
-26.4907
-23.1075
-14.5148
-7.76805
-2.5978
-2.02576
0.386399
2.26216
5.30227
7.27499
5.1118
4.39109
6.29018
3.24869
3.6251
6.23358
1.14366
3.48774
6.52706
11.4146
16.3064
7.68705
-3.75201
-8.99126
-12.982
-1.92719
4.57278
0.233515
-9.42951
-9.71761
-2.85775
-3.07797
-7.15619
-14.2967
-23.7088
-26.4726
-2.348
6.39072
9.22721
13.6398
18.7529
19.8086
17.9574
22.3121
22.1772
9.88905
4.87012
1.67149
1.46779
-4.94143
-17.5221
-19.432
-2.56103
-7.71219
-9.19799
-3.18972
-7.24265
-7.07285
-8.12359
0.759131
15.6909
18.8875
16.3546
1.04147
-5.51974
-7.44859
-15.1059
-12.9254
-1.78714
-2.51516
-2.91526
-2.22877
-8.99811
-3.89874
3.92694
2.44505
5.46166
9.61543
4.39917
0.5875
-4.49766
-8.43543
-12.9143
-7.55728
-4.88535
-10.6313
-1.91359
13.4827
8.60856
6.01267
9.97038
13.0826
10.4455
7.33371
9.75594
13.1747
6.31128
-6.21572
-9.44733
-11.121
-10.7557
-11.4208
-4.47518
6.3222
10.7919
13.9414
8.54734
0.988736
-1.02879
-4.13545
-3.67429
7.30478
1.663
1.59887
4.3988
-3.37397
-7.899
-14.0136
-13.3577
-13.0324
-14.4745
-10.3475
-6.75442
-3.66698
2.20848
0.602235
-1.77764
6.94736
11.0603
14.2242
14.0095
4.92757
7.61874
9.75385
5.58563
3.14091
0.326641
1.50547
6.86838
-1.72078
-5.19036
-0.932148
-2.42176
-7.64419
-14.9749
-10.8932
4.69008
2.42029
-5.08558
-4.13777
0.779106
2.30862
-0.980095
-6.44237
-18.6589
-31.9813
-13.8969
4.51945
5.67902
11.5974
12.9133
9.38238
10.1483
14.4849
16.7433
15.7148
9.17028
4.18088
-1.95256
-6.82591
-0.718473
-1.56793
-6.17861
-6.43288
-0.46262
12.5321
6.41746
-8.83389
-14.4542
-7.48596
-2.31419
3.79891
0.327138
1.29824
7.59949
8.00499
6.83137
1.34578
-0.979928
-1.8822
-4.23169
-4.93121
-2.01605
0.674007
3.83886
4.62287
-4.44394
-1.52469
1.02228
6.39544
5.89049
1.43028
-2.15635
-8.20891
-7.31878
-13.2492
-23.25
-21.2675
-11.25
-4.567
-6.99051
-13.5987
-1.20518
13.3156
21.7382
21.3447
12.5098
5.05746
4.67873
2.47325
-0.00843613
-7.4082
2.85263
1.35464
-3.80123
-6.13051
-3.92198
-3.68307
-2.27612
-2.59129
0.904929
11.6257
8.44675
-2.20671
-8.96922
-5.27983
-1.33217
1.75334
-0.818418
2.01228
7.44964
13.4194
5.39759
5.67042
5.69391
3.87177
1.718
5.98796
6.86111
4.53169
-3.10011
-6.42683
-4.19335
-5.72461
0.160532
9.77894
7.30446
6.64709
7.15964
-0.647702
-9.44725
-14.224
-12.6662
-2.82737
-0.332983
2.8132
3.70671
2.99548
-1.23141
-11.6202
-15.5813
-16.5247
-10.3676
0.219152
5.74995
8.34507
9.57777
2.4079
3.13648
-1.55681
-7.91709
3.03417
5.20906
4.62551
-6.77134
-17.2426
-11.5967
-6.89212
-10.3764
-1.02482
6.52886
11.5704
10.4749
11.8295
13.0179
9.02809
13.1968
17.5227
9.28103
2.88848
1.34408
-6.70879
-13.6629
-21.8047
-12.9224
3.5637
4.44894
4.64256
0.238449
-1.24581
4.20422
-9.78251
-15.3483
-0.143392
7.5275
6.37173
2.62325
-5.08647
-6.74578
-9.11237
-3.56071
-0.39626
-2.27156
2.43958
1.43743
-1.6716
-4.32665
-7.27536
-7.7046
-6.34073
-0.523589
14.4531
18.1679
9.12676
5.9786
4.46519
0.841029
-7.22476
-8.6946
2.55986
10.1363
12.2594
11.3335
9.96873
6.67068
4.66774
-3.75245
-16.7203
-10.5612
-6.6753
-3.68811
7.51003
9.52212
3.56878
3.25206
2.58104
0.856749
13.1948
17.6513
6.60045
-23.1489
-44.5424
-26.8537
-14.2478
-10.5968
-5.69053
2.25868
11.7365
10.9503
3.31057
-1.88998
-5.92116
-0.691748
1.42095
3.7821
5.33218
9.48206
1.16494
-5.12869
-4.72415
5.87977
15.2232
0.989205
-2.74301
-1.66626
0.11634
4.70987
6.77039
3.69733
6.34642
-0.474608
-1.74536
-0.0484643
4.32593
2.81774
-4.17561
-7.82417
-8.14108
-6.97157
-1.56395
5.52265
10.7868
9.5179
5.52703
2.36774
0.743454
-2.22727
-1.00968
1.27706
-0.794408
1.69514
0.501019
-10.4376
-5.88664
1.37638
1.79893
-5.65136
-16.2029
-13.3346
-7.31442
-6.03631
-8.74694
-6.50407
-4.28957
-2.16765
-0.189092
5.68685
8.06259
10.373
10.8056
5.00034
8.44467
17.7724
11.5182
7.43088
3.34414
4.37207
7.87023
3.7286
-3.66038
1.13144
1.45026
-1.27109
-5.8641
-9.76114
-10.4455
-11.3305
-5.68689
-0.0986398
0.195291
1.017
-0.325838
-5.47676
-13.6114
-18.2069
-9.38703
-3.52367
-1.57855
0.124033
1.58642
-1.26518
2.21081
5.61333
11.1839
17.7788
17.1659
16.5567
14.2183
5.8523
-2.7984
-3.74479
8.66499
10.3141
3.76302
-1.37076
-15.0533
-35.9151
-33.8449
-17.1785
-10.463
-1.70959
7.07542
4.6917
2.36156
1.04269
0.503127
-1.08794
2.47499
10.8863
5.61222
2.15002
-7.22267
-7.60968
-0.265441
12.6099
18.4844
25.7221
25.0443
21.3738
14.1128
2.32239
-0.374684
1.47565
-0.355247
-7.83428
-12.0586
-17.8765
-15.304
-15.3747
-7.3058
0.00108338
-2.65225
-6.04587
-5.59659
-8.28881
4.29967
13.1692
12.3585
2.59361
0.5049
-2.07616
-12.982
-13.1417
-11.7484
-9.31223
-4.62022
2.95826
-1.90324
-0.834158
3.32334
-1.34387
-0.13654
3.29314
6.34419
8.91378
3.59585
5.58396
7.37393
-0.114912
-5.95949
-2.12785
5.47498
-2.88682
-8.26238
-13.6811
-10.4985
-4.1322
-4.96498
1.77419
8.24883
12.4677
12.3928
11.8293
8.44336
7.40909
3.86534
4.55156
9.59613
4.0745
5.68907
-1.17247
-7.54369
-4.98576
-8.8649
-7.75134
1.56141
-0.60205
1.96505
-3.11697
-5.61052
-0.474674
-4.46134
-1.9982
-1.09786
-1.28968
3.52268
4.80016
-1.29759
-0.490883
-0.853858
-1.1563
1.86746
9.33831
6.96827
-5.13816
-9.87555
-2.8108
-2.19577
-4.27086
-12.87
-20.2631
-18.862
-23.7547
-4.55041
13.2418
14.217
11.2056
10.5726
9.05953
2.92872
14.5096
16.6436
8.96025
6.57875
7.8171
3.96673
3.45171
-5.46546
-2.2501
0.676888
6.46382
8.81478
11.0754
0.766449
-7.51036
-13.8868
-8.72338
-8.40326
-12.099
-9.9931
-13.0637
-15.2019
-18.901
-19.9677
-7.59711
8.13861
8.77108
9.88388
7.1202
10.0834
12.5341
13.5887
6.20414
3.41757
7.10691
7.46946
-1.00016
-5.83548
1.07168
4.73406
-3.01846
-9.70122
-4.56578
8.96154
8.37201
-0.838083
-4.59782
-0.382965
-3.37208
-9.3146
-6.16573
5.33341
11.8256
8.75898
-3.82144
-7.22942
-9.97652
-10.3998
-7.53032
-5.02959
-3.69564
2.53418
10.8066
14.1254
14.6412
2.52843
-2.56345
4.69654
8.24434
10.6436
4.67275
-3.29246
-7.18554
-11.3522
-14.5489
-13.5281
-9.65953
4.91409
5.25207
0.945822
-1.29074
-1.99701
-1.62246
-7.06383
-12.7032
-10.6559
-4.33032
-2.84081
-7.0597
-6.55857
0.410071
3.12161
1.21361
6.17709
8.86419
13.0956
13.9324
9.92035
9.40035
5.46213
2.7256
6.65661
14.722
11.0289
6.16489
4.0222
2.13587
-6.85029
-7.72587
7.49614
4.63479
-5.25724
-7.76791
-14.1474
-6.2874
-0.0237485
-0.950433
-0.903427
1.40996
0.975083
1.15826
-2.36883
-12.2222
-14.1537
-11.3975
-6.4192
2.22719
-2.7476
-3.38731
-5.141
1.50697
3.53785
0.721082
-1.05441
5.34387
13.4834
9.92471
1.99025
-0.210421
1.54547
1.72858
-4.06006
-15.0566
-8.29592
-1.48903
-2.40102
-5.90914
0.568716
11.6671
7.10849
-2.73122
2.52479
17.4868
25.5817
16.1347
5.24933
-1.89342
-23.2399
-30.4873
-15.4083
-5.87668
4.31238
12.6378
9.30809
4.88605
0.792812
0.432636
-0.690893
3.46154
6.74827
6.73746
3.64746
-0.527135
-6.80461
-9.96457
-13.2268
-15.4305
-1.97319
14.5507
11.5534
5.44643
0.0539888
-4.52944
-4.17436
-4.6056
-11.2092
-2.64166
1.63752
-2.11147
-3.5972
-1.81003
-0.378116
0.743207
1.59473
-1.04988
8.85574
14.1863
13.5733
4.03289
-6.80568
-12.0603
-12.352
-12.4793
-3.39954
3.93405
10.4407
9.38472
12.2685
17.4923
9.10396
-4.63943
-0.656526
-4.72212
-8.15407
-10.077
-10.7991
-4.0623
-7.43934
-5.84352
-0.163918
-0.271218
-3.391
-0.930222
-0.596558
-0.859702
-5.55492
-5.48926
-4.63335
-0.788051
8.10724
18.133
15.9121
13.7245
12.4081
10.835
0.116954
-5.41545
6.75619
8.65329
4.31354
6.64266
4.2016
-0.514627
-4.84848
-8.65134
-11.0081
-6.48193
-0.899347
-7.22478
-8.7994
-5.42566
-7.10119
-5.45586
-7.37719
-1.70092
8.68666
10.8707
7.35936
1.83949
0.19871
-1.22145
-6.49045
-3.34079
-6.19436
-8.74062
-5.14096
-8.24265
-9.00697
-11.3442
-12.0192
-1.62722
4.09489
6.34547
9.38643
8.63271
1.27536
-1.02281
-2.22343
-3.39009
-1.14129
8.17198
10.9493
9.13215
10.8413
12.263
7.59403
3.99749
2.93481
-0.487944
4.51835
-2.36848
-10.2029
-9.12351
-3.74333
0.105089
-0.577769
0.664444
4.73289
5.48508
5.56072
-3.03509
-3.78995
-2.52145
-3.23979
-2.76922
5.8215
-1.99838
-7.99893
-6.63611
-6.11739
-2.87772
-0.451889
6.99926
7.4779
5.67151
10.5675
13.8059
4.99729
-3.99203
-15.7857
-7.37287
3.39523
1.13515
-2.33369
-2.30169
-4.83062
-6.42668
-3.99115
-11.2364
-15.3961
-1.5987
6.16928
0.419733
-1.7122
0.361311
1.85254
1.23118
-4.01381
5.99798
12.4428
4.59125
3.19523
-1.17848
-9.68888
-8.9006
-4.33272
-3.19586
0.528991
9.83875
12.4237
5.38575
6.2259
8.13209
2.40218
-0.725094
2.97701
8.51264
16.4693
6.613
-2.31479
-5.98607
-10.7978
-15.1805
-10.7302
-11.2092
-21.374
-15.9397
-10.9201
-6.37328
-2.33796
-6.99477
-3.16386
2.89018
10.8874
13.9226
13.3951
12.9076
7.50925
6.49364
5.98147
2.54287
12.0559
23.7851
29.519
29.0038
26.5313
18.5561
15.3542
7.972
2.1869
5.04632
0.263721
-7.79638
-11.0606
-11.7745
-15.6655
-21.4112
-32.0367
-31.1935
-31.5629
-27.6166
-31.4645
-31.0392
-27.5364
-23.5877
-21.8021
-10.7208
-0.518389
0.38101
7.35628
6.5415
3.89504
5.15374
5.71932
3.38646
9.94549
17.1219
20.1197
22.506
23.3991
16.5758
8.21952
1.78928
6.8575
6.17504
9.02474
8.27842
5.13167
6.26541
6.86588
6.2005
2.23079
0.366093
8.98161
13.3288
6.26564
0.132168
0.682115
-0.10924
0.665034
-2.5111
-3.24251
-1.50137
-8.04755
-9.0635
-4.66611
-5.91733
-11.6494
-15.0368
-13.2815
-9.74928
-5.9995
-1.47759
-4.05657
-2.99973
-2.81986
-5.6481
-0.446626
4.07891
3.77096
0.250109
-2.72437
1.42031
4.33485
-0.301057
5.0365
9.30366
7.62566
8.56711
-0.30003
2.00183
5.8608
1.48158
2.48286
-0.371985
-0.725325
-1.84466
-2.58315
-4.64223
-6.60381
-3.43129
-4.36005
-2.21219
3.49954
6.2984
3.66443
0.811621
2.87817
1.53036
3.68587
1.46848
-13.3334
-14.2561
-5.76441
1.16405
7.42554
12.7895
7.31897
2.26103
2.66658
2.56979
-1.15398
-7.87636
-11.2194
-5.4876
-3.82715
-7.39688
-9.25895
-11.4098
-8.60794
1.48876
10.1048
12.2359
4.12408
-0.515882
-4.97679
-9.79128
-2.19245
5.88864
8.04458
6.89333
11.7363
11.2044
6.22789
1.82362
2.14355
8.01446
12.2383
16.6138
14.1235
4.62231
3.21588
4.7651
-4.14698
-7.23786
-9.51446
-9.44399
-9.41512
-11.8265
-10.7509
-7.36244
-9.95529
-5.6936
-3.63311
-4.78005
-8.77168
-12.7002
-12.9626
-12.278
-12.5128
-1.78539
0.925411
3.05801
3.87261
6.21709
6.15776
6.93845
2.49687
1.40301
5.89361
8.90493
9.88005
4.48524
1.70384
0.0274137
0.842591
2.45937
2.05593
5.22757
8.09998
2.37431
2.69855
4.56334
8.11441
9.2283
6.93187
4.88669
5.52597
6.2092
4.34933
-1.60338
-1.76703
-7.88091
-4.48394
0.135273
0.343883
0.0131933
-1.50759
-8.64348
-10.8676
-15.3319
-14.3718
-5.67692
-3.76861
-6.47062
-6.30371
-0.916391
1.90827
2.02518
-1.30718
-0.992095
-1.51381
-4.16646
-6.38792
-2.39836
-5.09251
-11.1801
-15.7509
1.54811
16.022
16.185
10.7948
9.33448
8.0819
2.10359
0.700752
13.0476
17.3455
14.2377
8.71784
1.03728
-7.62465
-4.92618
-9.50278
-12.0416
-4.81454
-2.9345
-2.26409
-5.68722
-8.30521
-6.06657
-0.676595
-2.48738
-3.22898
6.62324
10.6246
10.4015
8.11673
-0.357088
-1.80489
-1.73521
0.168196
15.406
18.8347
11.5635
-9.01848
-14.263
2.54971
7.6382
4.50898
-2.32794
-9.58002
-14.1511
-10.0272
-8.47143
-6.21797
-10.1258
-13.7242
-8.60866
-2.82775
3.88699
7.52102
0.670534
-1.28964
1.78975
8.03061
4.50547
3.65354
6.24655
5.21169
5.0516
8.70573
9.69442
7.12339
-3.44024
-3.95649
4.71069
9.09116
5.34572
1.25205
-3.6712
-4.7563
-10.5523
-14.976
-14.8375
-9.92731
-2.07404
-4.98054
-8.29097
-5.87006
-2.98806
-2.38645
-3.29935
5.49631
8.75241
6.4321
2.96041
0.566369
-2.57935
-5.98782
-3.57439
8.3244
11.0477
11.4956
10.3161
8.86282
3.98023
-6.99405
-6.58859
-6.74226
-2.30717
1.65886
6.68196
7.13976
7.73092
-1.48941
-9.30959
2.31775
4.09571
7.32059
7.15094
-5.95067
-11.2947
-15.1357
-12.7183
1.16108
-1.87708
-6.98532
-8.18281
-3.35396
1.14756
2.7097
1.39948
-3.3612
6.25232
13.3706
6.85929
-0.196743
1.00297
3.54244
0.262815
-5.04605
0.919289
11.5629
17.2096
10.8657
6.6314
2.36388
-3.33011
-3.89836
-4.27462
-2.03937
3.41855
-4.06282
-15.5916
-12.6529
-7.51937
-9.35188
-10.7298
-6.72447
2.31207
5.14664
7.7261
5.84179
2.69922
-4.3597
-3.74216
-3.72417
9.80722
11.8221
11.662
7.51826
7.44307
10.0053
8.34578
1.43784
-0.408915
6.91165
4.27264
1.62197
-8.26935
-14.9846
-21.5213
-21.6631
-22.2709
-20.5198
-12.2317
-3.25674
-5.75867
-3.41755
0.437133
3.46397
1.68529
0.932969
11.5577
16.7907
16.369
11.2873
7.43321
4.59405
5.03067
7.58496
7.24658
5.75751
5.98983
5.65992
5.72919
5.99108
-8.39702
-16.077
-10.532
-4.62183
-4.52602
-2.56348
-5.99223
-3.7677
-6.86245
-0.999748
6.3904
6.93943
9.37386
10.3826
8.65332
1.04692
-5.93452
-7.94459
0.877119
1.6425
1.04952
1.19919
-3.90259
-6.44675
-7.9013
-8.48059
-12.4524
-2.82092
1.41554
1.7906
0.383414
-0.481257
-0.0987512
-5.42478
-13.3369
-8.46629
2.25364
11.3027
6.36117
2.99989
7.42877
10.1921
8.33733
2.65027
-1.97944
9.91137
14.8282
9.76562
9.70917
0.647893
-3.25673
-7.56069
-12.6358
-4.76315
3.9078
5.1677
1.35308
-2.3655
-4.96995
-4.19874
-0.397235
6.79738
-3.04796
-8.10336
-3.88885
-7.62488
-9.83677
-14.0815
-11.1323
-0.216358
2.27088
3.88167
9.68464
7.23376
2.65509
-2.25104
-11.1203
-14.6208
-6.84499
0.679266
-0.579886
-14.099
-13.5549
-2.71208
5.39499
11.1734
24.782
26.2543
25.0737
22.0037
20.1302
18.9837
11.6738
3.84482
-0.656213
-21.4758
-26.4193
-8.06769
0.994582
-1.63857
-12.7236
-16.4143
-9.12174
-0.630694
-4.1242
-8.00291
-11.0123
-9.07803
-8.78634
-7.88548
-7.36394
-6.22189
6.76959
5.59001
8.91131
21.5023
21.3583
10.1328
-6.20652
-15.8863
-7.3279
-0.156425
4.83528
0.689301
1.33801
1.87452
-2.59723
-1.11021
0.191447
-6.8597
0.631842
5.91788
9.3677
11.3112
12.0413
13.4484
11.8321
4.92586
2.2146
-0.843182
-4.77752
-4.14151
-5.39462
-6.17697
-6.57024
-5.83116
-1.09214
-0.526781
-2.78754
-6.77821
-9.1758
-10.2928
-13.6669
-12.4986
-1.73597
2.525
5.45154
6.46326
5.28449
7.5889
5.48645
7.07322
6.88004
3.82444
1.46901
2.97376
1.20753
-1.01256
-2.58052
-2.78809
2.01616
0.0342168
-3.08566
-13.2755
-22.5225
-17.307
-7.52909
-5.85169
-3.8784
8.02886
12.7109
9.76867
13.3099
26.5657
19.9433
-2.10569
-16.696
-10.5759
3.31792
6.79252
7.13491
6.12411
0.954756
3.11786
5.90576
2.33957
-3.63693
3.04161
3.80215
-1.11271
-5.43036
-4.97691
-11.9649
-16.8539
-14.1942
4.86072
12.367
9.15795
0.569422
-0.462328
-3.74881
-9.93826
-2.90473
5.16164
1.11864
-0.950606
-3.20274
-5.4101
-4.13949
-4.67712
-6.33959
-6.13501
5.97097
8.06138
9.8245
8.73577
4.93122
-1.29888
-2.21417
-1.1511
-6.17547
1.43542
-0.98809
-0.953187
1.54107
3.05461
5.42556
2.45778
-3.08444
-3.44047
-4.3763
-5.60358
-12.6096
-13.1135
-5.86883
-6.90939
-1.07439
10.6395
14.0425
10.7899
10.5856
5.82
4.80618
2.2371
0.408901
0.000777554
0.561431
3.35541
2.53072
0.138058
1.74007
2.6121
0.462465
3.76478
4.72916
4.83486
3.48471
-2.88207
-4.84291
-8.6268
-12.5183
-2.27632
-0.404575
-3.41477
-2.93709
-5.86244
-6.74367
-7.78479
-3.90219
-5.92306
-5.97234
0.255533
-0.32328
-3.74064
1.01466
5.21287
4.67477
6.71273
11.931
12.3223
13.4595
2.66926
0.914107
1.18788
1.95775
2.16388
-2.94632
-8.81333
-6.59146
-3.15955
-5.64642
-5.34315
-3.97215
-3.5719
-3.80627
-5.22226
4.1444
2.93936
-2.78939
0.29419
2.5326
1.61174
1.91024
1.36661
1.92947
0.740672
3.36127
5.06898
0.314298
-2.72559
0.493058
0.332351
-3.69567
0.602841
6.91033
6.76009
3.89902
1.82962
-2.0476
5.36945
5.09656
2.11853
7.2902
7.69081
-3.35363
-5.80806
-3.17869
-3.85387
-6.67269
-3.35703
0.581884
1.40405
3.33773
-0.681632
-6.78698
-13.0352
-17.2504
-5.0154
1.93867
0.0338467
0.522357
2.57943
0.643528
3.52044
4.50252
4.13051
1.21936
-0.756332
0.472874
-2.77101
-2.23243
5.70866
10.6862
1.86344
-0.917878
5.39687
8.33819
2.2394
4.34726
1.12302
-5.4754
-6.53209
-7.05964
-6.34072
-3.16316
3.10022
3.64434
1.94033
2.90158
-0.171276
-4.11382
-6.73082
-7.43657
-1.05732
8.00721
8.42212
1.34338
-2.95288
-8.37448
-5.16491
1.99214
3.14299
7.5352
4.76101
-1.8419
-4.85973
-7.7179
-11.0476
-14.3896
-19.849
-8.23868
-7.12102
-4.80572
-1.75962
-3.25637
-1.89487
-1.91288
-1.14481
5.06099
6.35034
7.55405
11.0647
3.60885
5.66298
7.38822
7.95001
10.9376
13.6603
17.5775
19.463
20.5341
17.5509
5.36229
0.797302
4.81542
7.68116
11.1164
0.692834
-6.12408
-7.6737
-8.06681
-10.1075
-17.9846
-19.3568
-9.66544
-9.49604
-11.5439
-5.88699
-9.29685
-21.7207
-32.6464
-23.6417
1.5534
13.9287
12.835
10.1229
11.3523
15.8779
14.0408
14.5082
7.38843
0.501113
-1.72559
3.37726
-0.872693
-8.63312
-8.38225
-6.82756
-1.18186
14.1854
18.6125
15.3134
6.93502
-6.82422
-14.2884
-14.5464
-17.2306
-11.4327
-1.07631
-0.566392
3.97711
6.8129
5.83348
0.699086
-2.80055
-2.51791
0.287449
7.85784
7.44788
7.39791
3.44164
-2.90401
-3.89871
-2.87974
-5.46683
-9.4362
-0.944096
1.44074
-6.92958
-8.81222
-8.62347
-8.6145
-8.63429
-0.414982
9.53657
8.53663
8.42425
3.96576
3.40958
4.65741
5.36922
2.38091
4.4505
1.56475
3.71318
5.78292
2.72358
2.12845
-0.0767167
3.30606
12.6035
13.7044
12.4051
3.74327
-8.5242
-10.144
-15.9491
-19.1743
-8.91634
-12.3028
-12.2205
-8.91375
-8.4813
-5.82222
-5.0419
-1.41222
-1.78429
-1.48355
15.6128
19.0456
6.5052
3.67492
2.57625
4.32227
7.82455
12.2142
11.9183
6.78358
5.2103
12.5713
17.121
3.8287
-15.6767
-27.3856
-31.3354
-21.4675
-8.56313
-1.71929
-7.4733
-7.2945
-0.643794
2.58414
6.60146
7.59995
3.22519
14.3141
29.9953
23.832
2.49534
-9.67692
-17.364
-16.5524
-5.10821
7.83451
10.2821
10.3954
16.1948
8.124
0.214252
-3.03914
-7.88874
-2.85107
-5.42703
-11.2565
-1.67579
-12.6386
-32.408
-36.9319
-26.6124
-14.9633
6.80494
20.0649
22.635
21.0541
19.9397
21.5164
9.1187
3.63813
7.15881
6.59193
8.17063
6.09832
7.36686
6.61114
-5.32196
-7.60924
-4.93182
-12.1633
-16.4807
-13.5692
-15.7176
-7.09593
5.76659
11.6222
12.3516
6.25633
-0.78877
-0.677401
-3.15599
-4.73545
-6.39871
-4.69812
-0.0109157
-0.973878
-1.54544
-0.986693
-0.512981
4.78017
11.2789
0.941106
-7.71837
-6.48812
-10.1187
-8.50267
-0.148242
5.6529
3.64566
-2.62952
-7.22891
0.265686
12.9063
15.8424
7.93283
7.93117
13.9418
11.2091
7.61487
1.13994
1.2792
-3.205
-15.383
-16.3069
-11.1973
-9.65803
-8.88599
-10.2299
-0.565477
7.67043
0.509769
-7.46342
-7.23728
-2.30646
-0.228698
2.29037
12.2903
13.4978
17.6512
28.2534
25.0944
17.6342
6.77846
-4.94287
-5.90696
-23.3198
-46.3533
-32.1488
-19.0952
-9.10212
-5.76514
-4.54777
-8.82743
-4.95946
3.35616
4.33282
-1.25762
0.617632
-2.40225
-0.257038
0.351911
16.2713
29.05
25.6721
19.7263
30.246
40.1931
12.8651
-16.4789
-11.7628
3.137
-9.65584
-10.6621
-11.0546
-11.7737
-5.25393
-8.99779
-16.0182
3.08595
17.1162
12.0336
2.58688
-7.58364
-20.8199
-33.4735
-34.8728
-14.518
-11.0121
-5.75517
3.69616
11.2838
25.2671
31.8468
27.9489
16.2869
12.297
11.918
8.94756
-4.64109
-14.6409
-10.1051
-9.17925
-9.0286
-2.00146
2.63316
-2.8125
-8.08351
1.02456
6.8704
6.02703
1.53711
-1.04426
-8.72674
-9.46815
-7.92112
-6.51964
-5.24945
-2.46714
-6.98539
-15.1899
-11.3109
-4.40791
-3.20194
-3.3505
7.10293
19.0391
15.5821
11.7895
20.1761
13.9512
4.80761
4.04661
5.60555
3.65263
0.252858
-7.99664
-6.66535
-9.6094
-11.8811
-12.6522
-9.0052
-5.82905
-2.2895
-0.327739
11.9041
17.0586
17.0422
25.6804
18.9046
6.19186
4.92953
-0.140909
-22.1591
-46.5774
-51.9156
-25.0154
-1.79173
2.87767
-0.18439
4.08781
10.5354
4.10746
18.0807
21.7855
10.9198
6.47162
8.97968
3.64791
-10.6752
-13.6674
-3.09674
7.70714
21.189
30.5271
29.7188
10.5053
-4.37174
-3.19666
-6.94252
-16.9866
-14.9912
-0.130547
-7.87535
-8.93149
-11.136
-13.8976
-24.9154
-29.9205
-17.2905
-6.60757
-4.33345
-0.376953
14.2908
26.9255
32.3217
24.1497
15.4268
18.175
15.1553
8.32675
-5.61243
-12.794
-27.1984
-38.7767
-43.352
-25.4714
-7.40558
3.21676
8.23525
10.8205
9.13328
10.3893
13.4778
12.6157
11.5474
5.43691
-2.04158
-5.84742
-0.377692
10.9367
11.4739
5.53009
12.7384
14.2612
5.24202
-0.496092
-3.70713
-0.132273
3.62721
-7.47408
-13.8577
-6.81306
-5.10937
-2.14573
-4.23719
-2.19244
-1.59391
-3.62165
14.7847
19.3824
5.34144
-4.78329
-9.19983
-13.5662
-11.003
-10.4397
-11.9795
-6.56241
4.01856
10.8127
3.96385
-9.9297
-12.857
-4.91801
2.46354
-1.60337
-8.91934
-8.85988
-9.50201
-8.00616
-11.598
-9.22392
6.8991
15.6547
24.592
34.5605
38.6172
36.5398
22.036
14.6517
13.9364
-7.76436
-21.6602
-16.3061
-5.74065
-8.69663
-22.0692
-25.0604
-14.2392
-2.14751
1.05952
-5.1264
0.00381106
12.3408
16.3471
1.35273
-24.5476
-41.1817
-29.8431
-18.2767
-3.01416
15.4543
24.2073
24.1544
22.9755
25.0339
19.1257
-5.7452
-8.98651
-0.00792465
9.18209
13.7613
-0.654438
-8.86607
-23.7972
-24.1185
-3.07204
14.5764
15.6734
13.7118
3.18876
-5.87938
-14.1861
-16.4564
-11.9829
-7.27831
16.9358
31.2546
19.05
0.398029
-8.33386
-13.1268
-18.9837
-23.3976
-0.265665
3.02899
-3.02409
0.625465
0.719784
0.0818979
-2.62033
0.856088
10.682
9.34942
6.31689
5.56093
1.42711
4.26804
1.74012
-2.59044
-3.75192
6.26976
8.35316
9.83458
1.74729
3.27012
2.88189
-15.1233
-27.2921
-18.2719
-7.80766
-1.86865
4.78975
-5.65474
-9.62263
-2.39891
-2.82503
0.711162
-2.28949
-3.68732
1.84839
5.1427
13.2571
14.196
10.2065
9.65056
12.1626
14.0127
21.7106
24.456
17.7837
11.5988
-14.4216
-32.3524
-21.513
-16.5481
7.14689
22.9552
3.7314
-14.8145
-14.5121
-12.2007
-15.9647
-29.1272
-24.6232
-16.584
-8.16577
4.15876
-1.26951
-8.31991
3.70177
15.4417
35.9632
46.0804
21.3381
6.60215
-8.76693
-29.2377
-32.8042
-10.7408
9.95844
7.97994
3.22712
11.609
19.9612
23.5234
21.0203
18.5213
11.9139
-3.68311
-12.8739
-13.0827
-5.60642
4.06582
9.61258
-0.305509
-32.1747
-51.9296
-31.7667
-9.7071
-4.81965
-7.52459
2.12038
18.5784
11.4819
6.22421
0.864672
-13.1825
-16.4827
-5.7206
7.28124
11.9575
4.21029
4.19154
2.79294
8.73547
19.9622
26.5078
29.3116
12.8781
4.95234
10.4647
2.4175
-10.9444
-4.10302
-2.20589
-5.37523
-2.73637
-7.83786
-10.3962
-16.7564
-23.4968
-24.9844
-21.0393
-33.1175
-13.1717
20.4577
31.5706
22.6908
17.2255
6.09407
-2.433
9.29037
10.0123
-1.61634
-4.40195
3.80191
10.6025
11.8587
4.3328
-9.43578
-15.8233
-12.6986
-17.2151
1.35217
7.17432
0.00806371
4.23585
6.77052
-2.64764
-3.08694
-2.39351
-5.05036
-2.38163
-4.47241
-13.6336
-11.2908
-4.58816
7.10334
19.7096
25.4541
20.3521
13.0753
15.2936
12.1134
0.507223
-4.59664
-9.13553
-13.7942
-12.4495
-17.7294
-22.8792
-29.0673
-12.4609
-12.6175
-9.10068
4.09596
8.22066
8.46658
4.45245
-3.77403
2.10502
-0.112911
7.14687
18.6012
17.3109
9.12942
15.5842
17.3767
13.354
8.03681
2.92029
-9.95067
-20.5854
-0.35139
14.6521
10.3911
-5.72159
-15.6293
-16.5954
-0.823316
5.49883
3.43654
-4.93743
-6.35042
-6.26603
-10.861
-14.9312
-6.02914
-0.421847
5.09918
12.6291
27.4469
25.5444
5.05725
-15.9651
-16.3248
-4.42783
-3.87526
-8.44379
-12.8075
-14.2075
-13.4231
-11.1089
-6.17661
3.52995
9.27401
15.233
11.8803
1.64566
-1.09674
5.42371
2.16012
-16.3912
-13.6009
-11.3317
-17.586
-15.8727
5.09217
22.0559
22.0966
21.3385
27.2948
27.3414
23.2237
13.1215
3.61671
-2.50863
-11.729
-8.49761
0.401717
-2.21765
-0.11776
3.32176
-6.50288
-4.93677
-7.30772
-7.22823
-7.12652
-2.90627
-5.18917
-10.0041
-12.0549
-12.8637
-14.3238
-11.1059
-9.76827
3.38939
13.7848
7.71819
1.63903
-1.61354
-0.302398
4.79686
-0.985808
-11.9898
5.35209
5.35309
-2.95015
-4.78661
7.65062
17.3341
17.0973
10.1359
3.13253
3.03873
-3.09374
-12.0273
-10.7443
-9.1833
-8.27263
3.64769
6.61808
-3.94597
-29.3321
-21.9132
-0.255873
18.1258
28.9702
20.027
11.3843
14.8234
12.0875
7.74787
4.97751
-0.721119
-0.689091
-6.66225
-7.25492
-7.46093
-8.17602
-8.32216
-9.65971
-1.03002
19.397
15.1999
-2.82294
-5.24752
-8.54235
2.52434
6.08403
-3.81576
-14.6986
-22.9976
-28.0549
-11.6317
3.47277
12.6524
7.42827
6.77144
3.43956
-10.4569
-14.9036
-6.92523
13.794
18.7421
14.3707
3.14571
-7.05704
-24.0294
-18.1105
-11.8429
-4.79296
11.3858
24.4012
9.02212
-3.93274
-2.97282
3.97331
8.74236
-1.34642
4.63932
22.5556
19.3568
11.118
8.91748
4.25368
-3.44774
-5.33949
-3.22835
-5.93067
-1.85105
6.47453
8.85802
3.7659
3.74394
6.21019
-9.50266
-11.8083
-11.5141
-11.8965
-16.715
-27.3255
-20.5
-12.1148
-7.99901
-8.5233
-0.573356
8.47846
16.8431
15.1396
13.2714
9.68919
9.20463
14.0054
17.0053
6.2243
6.46498
-12.161
-31.4791
-19.5945
-8.74536
-1.63906
0.106411
3.90127
6.35721
7.72889
1.7126
-10.4752
-10.3954
-3.68187
-3.53205
-0.361297
0.571954
0.798471
-1.06671
3.9946
12.528
21.1226
20.8962
20.3563
16.2019
11.3823
7.11645
-3.95123
-12.3259
-10.1551
-6.76553
3.77151
2.83186
-0.0333632
2.49343
1.04705
-11.1598
-16.6449
-17.2003
-33.8991
-36.3457
-25.5681
-4.79189
14.8821
22.709
29.3504
26.4069
29.3018
18.5166
4.0307
-3.90336
-9.42111
-22.7239
-21.4321
-29.1054
-34.6678
-11.2327
6.48974
10.3028
20.0779
15.9392
8.41053
8.84718
3.07881
3.32469
-3.06533
0.439574
1.34061
3.71413
8.52707
4.802
7.01451
23.5839
17.4439
17.6201
14.461
-1.49558
-18.475
-29.247
-12.9745
3.20685
7.63666
9.57869
0.649588
-14.1794
-20.4922
-22.2272
-20.6383
-11.8754
-6.94759
-9.70837
-17.3086
-37.2615
-27.0932
-0.487196
15.0616
9.98563
19.2449
29.2161
32.3224
25.5454
20.5972
11.3134
4.53847
0.639207
4.6012
6.96922
4.79034
-1.15082
-8.41421
-1.36004
4.97836
12.8236
15.3294
9.06332
5.39511
3.59221
-0.205655
-5.14971
-18.7207
-23.2029
-21.2042
-14.8764
-10.0475
-3.19035
-6.82379
-22.8683
-23.1143
-12.6171
-16.7118
-7.23089
9.16656
21.7637
17.8469
12.0547
6.1314
4.55336
6.77032
7.25783
6.52001
14.7629
21.8163
10.3098
5.84476
0.568348
-14.7344
-7.08381
-9.89325
-13.707
-3.15358
-0.816567
1.62141
14.5655
9.07844
-13.3096
-29.1062
-9.0807
9.94319
9.07312
2.29433
-17.7887
-9.39234
3.65469
-6.33203
-6.46134
2.5104
4.743
12.9466
14.7325
12.8463
9.35613
5.7624
7.98979
4.90227
11.4748
28.8412
24.2772
5.97058
-9.00855
-8.57247
-6.87001
-24.0176
-21.472
-7.47394
-1.39872
-3.44825
-8.32632
-13.0999
-23.9362
-21.6087
-16.1904
-11.3506
-9.52404
-8.06644
2.1447
5.33192
2.02053
5.23927
24.8499
29.4895
19.5778
9.44113
2.1768
1.35104
-3.30519
-4.47505
-2.39349
6.64046
10.7021
7.0267
8.97645
5.48479
1.79312
2.24591
-1.95728
-4.10646
-8.82204
-9.1837
-4.93356
-1.93564
2.49075
-2.23591
-7.03616
-9.083
0.694733
4.66012
0.383852
-5.84981
-2.33731
-2.33196
-3.82441
-7.81487
-1.71916
5.01712
9.27344
9.90738
8.82569
-0.749121
-8.84194
-6.39038
-7.62999
-2.20568
8.96706
0.342958
-16.0135
-11.8584
2.53759
5.70164
1.97715
-2.01357
5.53077
12.9034
9.80914
12.1085
9.59261
-0.134754
-8.34267
-4.35149
13.2463
7.65883
-16.3492
-24.0464
-22.6486
-3.66464
7.10347
15.76
17.4506
4.46786
-1.99231
1.20906
1.64987
3.47049
-5.36355
-14.9782
-6.42778
3.93901
9.9352
10.115
-3.46419
-0.837419
12.4126
8.9359
4.24846
2.26215
-0.288997
-5.52364
-11.3737
-5.76435
1.43781
4.3214
13.0707
3.00994
-11.6399
-12.0236
-10.965
-6.48751
-4.86691
-10.1082
-13.7858
1.0702
14.2707
15.6335
4.00991
-4.94682
-4.17664
-1.84105
-10.8323
-11.1928
5.74393
2.89876
-3.96656
-5.67858
1.9269
0.571058
-10.725
-10.6703
6.03358
18.874
14.3308
4.93566
10.0171
16.9964
12.4181
8.48657
10.0454
-2.89521
-5.08507
-4.04224
-15.5901
-12.6449
-14.0156
-12.347
-0.493747
5.97779
14.9437
18.3537
-1.88965
-8.0294
-7.59712
-13.3665
-5.65161
5.70716
8.93929
5.67109
-1.76283
1.57053
5.31706
7.42035
3.33112
3.49921
4.81476
3.48869
-9.35246
-9.4039
-10.6675
-15.8428
-11.7409
-2.43621
3.2457
12.6686
12.4648
4.94954
-0.471411
-0.891199
5.31026
2.41964
0.974368
3.82766
-13.5284
-39.867
-39.17
-19.3504
-3.35318
10.804
18.7307
21.0926
20.2884
7.50473
11.1852
13.2805
6.74729
6.25883
17.9334
23.7519
16.9262
10.9176
0.803263
-7.38082
-1.51399
1.0532
-0.435057
3.57691
-11.1239
-21.8117
-20.8611
-29.2251
-29.9862
-17.2375
-5.12954
2.57951
11.7659
15.562
0.726093
-30.4619
-29.4875
-7.70282
0.55311
0.961073
10.039
20.2047
17.2761
10.6094
18.9557
21.1279
13.176
13.5663
16.0978
12.3957
4.64473
-2.93865
-23.0004
-29.5413
-15.0214
-1.16054
2.41219
4.5987
3.23387
2.82233
3.03954
-0.453976
-10.283
-15.4693
-14.6612
-7.33771
-2.59369
4.25255
6.33725
8.34977
11.7638
6.83053
7.20799
1.24475
2.84762
6.90706
7.38096
-4.42849
-13.8523
-12.0113
-0.246683
3.50674
-0.788593
6.15455
6.21274
1.6259
-0.889011
-1.0522
1.17439
-4.96115
-20.3208
-17.8328
0.613143
7.30574
8.15122
13.1534
4.18259
-3.763
-2.33202
-10.2328
-10.6996
-6.90472
-11.8625
-9.97052
-0.261248
4.28234
10.8116
9.21744
-3.44076
-7.10017
2.8963
13.1974
20.5189
22.7939
17.3038
10.9238
0.986443
-0.111031
7.98501
15.0635
6.98253
3.90692
5.90631
0.443844
-3.17649
-10.2728
-20.8399
-12.5298
-20.6803
-30.1588
-8.68533
0.26984
-4.57829
-7.66252
-18.2841
-12.6864
-7.94308
-6.42061
-7.04766
-8.14683
-6.92373
5.67382
18.5289
22.4823
10.3287
6.12815
7.47022
5.85587
19.4859
25.1184
11.8104
12.743
9.10135
4.17609
2.72144
-3.73318
-3.3228
-4.90696
-6.08311
-2.00264
-5.30664
-9.2252
-9.17698
-12.9667
-10.0058
-7.56291
-8.01018
1.13635
9.55386
10.3453
1.84022
-3.36129
-0.303004
0.710044
-2.98056
-16.0773
-21.4168
-12.9069
-4.56613
-4.96053
-2.91043
3.96223
11.9828
19.3787
8.62248
-6.24047
-14.6618
-13.2172
2.18977
12.8783
13.9657
5.24426
1.95248
6.57008
7.96552
16.8677
20.278
13.9328
8.70957
6.10036
-2.84348
-12.9981
-21.6047
-12.975
-2.30085
5.80348
14.0733
9.55848
1.61502
-3.25029
-2.49471
0.315627
-3.05837
-5.44138
-2.9147
2.71925
7.56832
0.0732202
-11.1144
-6.85196
-9.67791
-9.63914
-16.6046
-30.1048
-17.4652
-1.11403
6.92023
5.62151
11.2337
7.15522
3.37816
-8.93868
-8.10889
-0.115613
6.46111
4.31372
1.38709
4.67424
8.61579
13.513
25.17
25.6989
20.1979
10.8423
-6.32063
-14.5219
-12.8883
-7.99812
-9.367
1.56191
3.63501
2.0814
4.70248
1.71517
1.67195
2.73377
-4.56378
-25.9287
-51.0262
-48.0321
-15.493
-0.256467
6.64065
16.5353
22.8269
21.2893
15.319
13.2085
8.81832
9.65818
11.4064
14.3705
11.3016
8.38136
-0.0591518
-8.40192
-7.13262
1.30434
19.6522
16.3124
-1.42898
-15.4276
-21.8846
-21.1355
-12.2243
-5.7036
-2.78196
-4.87165
4.55969
4.70267
-3.83693
-0.451936
-1.58256
-13.7951
-16.9888
-13.823
-1.59269
9.40898
12.3173
6.31206
-3.64554
-6.57698
-3.75263
-0.483084
7.80264
13.9679
16.6039
11.7032
6.08406
0.291492
-8.51917
-2.39369
1.06513
-2.37536
2.88462
5.41868
-3.04508
-0.320014
2.33601
0.674422
-2.13433
-0.620034
5.30786
7.21935
1.37047
-6.84906
-11.1844
-9.31006
-3.34623
0.911289
6.20628
1.19949
1.88237
11.1877
8.40913
7.47323
7.74428
-1.89208
-10.1776
-12.8967
-14.9119
-8.05703
-6.27535
-7.92829
-6.79248
-4.61801
0.614174
14.9078
17.0845
8.47677
-17.4378
-20.4416
-17.6115
-8.45834
-1.28342
4.98639
7.80853
18.7383
22.0095
17.3663
9.24764
-1.56036
2.8559
11.3851
10.5825
2.69835
9.32171
13.6524
3.79328
-13.3279
-9.65092
-2.92914
2.11638
-1.67185
-6.22765
-10.9894
-12.2631
-11.0583
-9.02352
-8.13526
1.78449
8.90711
3.84365
-9.05146
-9.14005
-10.4173
-9.868
-15.3893
-14.6636
-0.700216
10.6219
3.91156
-8.66319
-8.73258
-4.43867
4.2027
12.7557
25.5424
20.5778
11.3088
8.65836
3.98923
-2.57437
-1.80144
3.00541
6.9031
3.36016
-4.129
-19.4529
-14.3805
4.07383
13.1075
23.355
18.0612
10.7532
0.822255
-9.44566
-19.2378
-3.47884
2.18813
-0.890294
0.185815
-0.140464
-0.5815
-7.61254
-11.1944
-1.56585
-0.885377
0.322585
4.24272
12.1228
16.3121
10.2775
-0.664267
-19.9187
-40.0851
-42.1252
-22.6358
-10.232
0.877214
8.01629
11.2298
14.8463
9.44711
8.95564
13.3521
8.39957
4.83204
5.65229
6.85856
6.56453
1.97634
-1.11469
5.15521
13.1331
27.3346
29.8421
11.8806
-6.47925
-6.81038
-7.36219
-16.9979
-31.1633
-20.3
-17.8002
-17.6271
-13.9723
-13.8164
-4.44116
3.19747
1.85647
-0.464476
5.7214
11.4503
9.10137
4.73649
0.919368
2.61522
5.42059
2.22913
-1.49291
4.48448
6.72238
2.20271
4.88288
6.43732
6.2745
8.18641
3.93778
4.78704
1.57552
0.726966
3.1086
-8.87908
-7.59051
0.86446
-1.15952
-6.77521
-12.753
-18.4968
-19.4884
-9.7383
3.37981
-5.75801
-4.57721
9.99382
3.12819
0.382856
2.2122
5.34887
4.2439
-5.33531
1.3371
24.9463
36.9281
23.7868
14.9407
6.91296
4.73654
3.24233
-4.30994
-13.8022
-10.8658
-7.14266
-8.01092
-13.4838
-10.1719
-4.42822
0.952395
-3.25353
-9.48602
-9.26523
-16.1185
-18.9541
-14.6888
-5.00922
-2.06069
0.350529
-0.978861
1.04454
8.46633
8.37204
-2.46402
-1.75621
4.19452
0.205262
-7.66315
-2.8229
12.6851
18.7446
23.721
20.144
15.8391
18.5325
14.9381
16.2106
13.9413
-5.39336
-31.6059
-47.4616
-29.7558
-9.35806
1.01645
4.88286
13.9374
17.6059
16.4958
12.9451
3.78941
-2.04583
-6.1275
-10.3912
-21.7855
-18.2704
-4.08958
0.0102703
4.49002
8.90816
17.8297
24.9503
13.8772
1.04301
8.20373
6.07886
-11.9813
-23.1317
-16.5836
-15.6962
-27.4963
-29.6343
-11.8914
4.21395
8.41351
0.305123
-10.5551
-9.37814
-1.77384
2.34631
10.4446
23.0868
18.2187
10.8585
5.50242
3.42273
0.376798
2.60051
2.46773
2.3946
13.7751
13.178
6.16176
0.96534
-5.16242
-10.6793
-1.49424
3.84029
-1.9298
0.780705
10.5762
4.77893
-7.01111
-14.662
-18.967
-8.38341
-0.7304
1.23245
6.62114
7.36918
2.47149
-5.89676
-11.9177
-1.20648
12.6341
11.2586
4.64093
-3.46043
-5.48825
-4.93852
-1.04035
2.39664
-2.87384
-4.60955
1.86655
-2.93614
-5.12526
-0.494381
0.232159
4.0287
1.44001
3.73202
6.65035
2.40069
-1.47874
-0.778229
-2.78303
-9.70515
-12.0366
-0.451113
22.1238
20.2125
10.1085
3.25211
-6.76723
-13.3265
-11.362
-10.2928
-11.4383
-1.64907
-0.684314
-3.19189
-7.81327
-4.4928
-1.75106
-3.61075
-9.17498
-2.05832
17.1786
19.4893
6.98425
2.50332
5.27098
9.38889
4.27924
-4.23589
-4.65172
2.02124
2.36662
-2.35701
2.10353
13.1919
14.0024
11.8696
6.16041
4.87974
12.2636
6.8516
-10.104
-19.7628
-24.6472
-20.16
-12.02
-13.2973
-6.78141
7.01907
5.97613
0.787023
-0.306825
-1.04582
-6.3831
-11.9333
-4.92131
-7.06611
2.04751
11.5595
6.79124
8.28727
12.1741
4.26062
-7.77036
-6.20462
-3.78524
-0.0906807
2.60228
1.18777
2.02956
6.76481
4.77167
-0.788386
12.8575
19.5511
11.2319
5.5768
1.98473
3.21332
-0.644168
-20.7239
-15.9143
-1.25688
-3.00821
-9.84545
-6.50466
2.63423
1.9747
-1.10349
-0.693047
-2.87721
-4.99385
-6.88691
-6.81531
-7.82033
-3.68541
-0.419783
3.71852
4.90412
9.74175
22.3515
14.68
5.29502
-0.607714
-5.45624
5.42468
7.261
-10.1706
-8.24744
-5.74497
-9.5032
-8.95497
-10.393
-8.07065
0.769475
6.05601
10.2412
12.5408
10.8954
9.08669
7.20263
-2.02649
-10.6604
4.57197
7.74895
-1.45877
-7.72288
-5.05321
-10.4466
-7.73055
-2.99027
-2.07237
5.23914
12.2225
8.65049
6.35929
4.18507
0.543658
-18.5523
-43.3179
-33.2049
-5.11088
9.58938
11.1413
10.3185
9.54989
13.7132
13.4621
11.8249
11.7269
11.747
6.84393
-1.09565
-9.7442
-5.19556
-7.62251
-11.22
-1.40773
9.37646
24.1225
23.2237
8.48627
2.50038
-8.76616
-15.4597
-21.0416
-20.4875
-8.38769
-1.54766
-10.0557
-16.7311
-6.11087
-0.085932
-1.55932
3.52957
19.1857
13.0002
-7.42783
-3.3318
2.99641
0.60402
-4.17128
0.424589
-0.445852
4.90942
9.96187
7.89154
2.78253
-3.23051
-3.72452
11.7577
8.23576
4.45166
-0.945843
-8.71087
-14.2331
-12.0866
-13.8429
-12.2471
7.10296
7.63404
8.61706
5.70489
7.69387
7.05263
3.01537
2.66126
5.57349
10.4238
11.264
1.9278
-4.6523
-9.78001
-16.0016
-7.75032
-1.75423
2.37131
15.5739
11.8133
1.78187
0.41649
0.79992
-4.2357
-4.38913
-8.61269
-5.4346
-3.21373
-4.20537
-6.43225
-10.9255
-7.57812
-8.13228
-3.82786
6.74677
2.01641
-2.81322
4.87405
3.24431
2.8449
-4.06565
-1.77128
0.00563165
-1.92358
-2.08544
4.6859
13.173
14.8234
5.17324
-4.08654
-2.67585
-3.20619
9.71778
11.9278
8.39039
-10.2547
-45.0435
-39.0392
-9.17771
12.7548
19.7958
17.1672
14.6826
16.4284
6.88177
-4.73517
-6.34647
-4.4045
2.2679
7.57193
2.59309
0.854944
-2.70406
-3.96482
7.02326
18.8788
30.3916
30.0603
10.1491
-8.61984
-11.5589
-13.5319
-13.05
-8.45996
-13.6407
-11.052
-9.10805
-10.1154
-14.5912
-15.2713
-12.4419
-13.8735
-8.94396
-1.62621
-2.11474
0.442006
8.97524
4.58715
1.66256
0.732172
2.84619
13.3877
10.0206
4.07557
5.75176
5.01865
-6.27599
-7.50053
6.2931
14.4852
8.52865
8.96915
0.510174
-10.896
-16.1076
-10.1989
-6.14053
-1.05388
1.97777
13.2466
15.3217
15.9252
17.8281
17.8699
7.52551
-5.9049
-7.46685
-5.89555
-4.7674
-1.54648
0.401323
2.97942
-0.767283
-1.98257
-2.26559
-12.528
-9.93784
-5.42249
-5.59488
-6.39479
-13.2279
-20.2709
-17.8541
-16.4674
3.08139
22.0691
13.2205
4.27276
-3.36941
-11.2385
-1.50512
3.86819
10.077
16.3928
12.4737
14.9556
13.2621
5.5189
9.68565
6.73113
-0.855534
-5.35213
-1.77752
3.66711
-3.10197
-15.1257
-14.2795
-4.81831
-1.61715
2.11438
-15.2763
-38.9703
-23.4069
-1.24057
6.01566
11.0402
13.395
14.5644
7.43594
7.43656
15.4022
10.9128
1.59389
-8.73033
-10.0209
-1.04965
10.9345
8.57491
5.7209
7.56187
9.89023
13.928
9.73166
3.47019
5.95413
4.21626
-0.306477
-3.18281
-12.1515
-15.5816
-14.207
-14.5361
-19.1497
-14.7587
-8.61723
-0.812772
-0.544232
-6.11299
-8.62505
-10.4873
-4.34609
6.79664
4.21585
0.000742551
-5.00582
-8.51674
-4.17511
1.114
1.02138
1.46906
4.73
11.2949
17.9589
24.967
24.2309
12.4818
5.46278
1.1645
3.81939
-4.61957
-10.9141
-4.70127
2.12418
3.18156
0.291018
-0.167285
1.00635
3.98045
7.09393
6.75456
7.31532
7.52666
2.4917
-15.5738
-23.131
-13.2659
-16.0072
-18.6894
-21.0109
-20.3141
-11.7497
-9.78286
-3.23216
8.47884
13.0715
14.2056
16.1529
15.1536
17.0503
14.1001
-0.160227
-6.35553
-5.91988
-4.30938
0.470502
2.9807
6.25072
13.0348
15.9059
15.0313
11.573
11.3831
5.90291
-2.84702
-5.08599
-11.8326
-35.7864
-54.7228
-41.7452
-19.4035
7.14022
21.7328
15.0724
6.02586
9.00425
6.69816
9.96552
3.61878
2.68514
8.66988
14.7389
13.8328
-0.752851
-11.2821
-6.93342
3.01678
16.8517
24.0862
14.8247
-3.35303
-5.92463
-0.382959
-9.41074
-6.30908
0.607843
-3.46791
-11.3422
-13.8363
-11.6823
-16.2797
-24.1332
-23.6563
-10.9179
-0.491612
2.0686
2.5218
9.72773
16.8543
16.8458
18.5042
7.97707
0.558244
16.8944
13.5968
-3.49833
-9.90963
-7.09895
0.907545
-0.3873
0.366061
8.13794
7.7737
7.65056
1.08665
-8.5625
-5.73209
-6.16779
-8.71352
-8.3606
-7.66831
-6.73049
-7.25979
-7.02992
4.37065
9.40857
4.93169
4.16623
3.44531
-6.19814
-11.3194
-5.65672
0.360773
0.537309
0.91023
6.29885
12.2029
13.0923
21.092
17.6348
4.97669
3.24977
-3.38662
-18.584
-12.278
-2.58303
-4.29559
-27.3383
-25.3582
-5.80765
12.8461
12.5023
3.53064
-0.83661
7.95076
8.5643
5.26655
9.32544
7.33785
0.568259
-5.70515
-11.2115
1.36439
7.21373
-1.64105
-9.10609
-1.22908
14.7371
13.7329
-2.70943
0.994916
0.714253
-2.22643
-5.12002
-9.40556
-7.75417
-4.64844
-3.18639
-2.07138
-4.50489
-0.947372
2.3043
-4.65981
-0.803455
1.04942
-1.8136
2.18053
4.76451
2.13372
3.52966
3.41209
-1.81161
-7.63827
-10.981
-5.83018
-0.185058
2.18626
-1.85117
-0.0723298
3.85433
5.68558
12.5034
6.61424
4.83187
8.30712
1.12066
1.9661
1.55411
-2.13754
1.20622
-0.789278
-2.95134
-7.51879
-0.286567
0.468405
-3.14386
5.27545
9.69791
-4.41197
-3.826
-2.44713
-3.06298
-3.31604
-2.47203
-0.933036
12.3998
17.1261
9.95663
-1.51644
-1.26846
-6.30524
-9.61797
-6.61947
-2.83694
-3.65952
-10.7408
-15.7456
-5.86517
3.56027
10.4314
6.92621
-0.0553341
0.883376
-3.58078
-6.43297
-3.07958
5.03835
0.27381
-20.1029
-24.1053
-14.2812
-11.2234
-0.483674
0.875973
2.48342
7.45604
7.82205
6.72113
15.3172
20.7667
23.64
19.5481
23.982
27.894
15.454
-0.718725
-16.7563
-8.74498
11.5342
8.36477
1.90905
4.21315
-1.76182
-8.01936
-7.53461
-7.48424
-10.9834
-19.8465
-18.5408
-20.2185
-21.18
-20.6188
-20.533
-16.4974
-7.46893
-0.478537
-0.128832
8.07256
16.8873
16.4847
13.1405
16.1337
14.0709
11.1199
3.60104
0.834685
5.47987
3.29242
-1.70534
-4.98513
-7.69285
-1.62706
2.56421
-1.30636
-0.495037
-3.14083
3.53081
5.34627
7.03229
1.11904
-1.33458
-3.77418
-6.84121
-10.0785
-11.5072
-0.115942
1.14762
6.19892
1.98747
1.66119
17.8056
17.6325
4.00607
1.00646
-9.44299
-6.99376
-4.2301
-3.85708
0.634913
1.04247
-6.20722
-4.17861
0.663622
2.16666
2.96133
-1.69129
-3.95471
-2.82385
-2.74827
0.721513
-2.7506
-1.62411
4.95532
9.8113
12.3115
7.26206
-5.83128
-14.4406
-16.9628
-14.3194
-7.46441
-3.87639
-0.191594
6.61084
10.1275
2.19241
-4.70561
1.81783
8.7025
6.35667
0.420503
-0.180967
4.44723
8.96758
17.9514
19.3889
9.0054
7.62785
3.25837
2.00174
-2.87614
-28.6426
-46.079
-25.494
-5.17037
1.50774
1.94967
-5.04597
-9.13936
-10.1204
-8.03182
-8.0026
8.71982
15.889
12.0793
8.48682
9.3109
8.07914
11.2256
13.7478
18.0383
20.6358
20.1257
10.0428
1.45034
0.86638
0.699316
-0.0526468
-6.0946
-11.1974
-4.70194
0.117448
-7.13989
-17.0659
-21.5084
-20.2374
-21.6198
-22.0563
-13.4817
-9.10809
-2.80368
6.08073
13.6616
5.94777
-0.049012
1.22309
4.82836
-0.0404732
3.66246
7.94218
7.40224
6.91657
1.56729
3.11799
9.9711
14.1383
19.4061
20.0115
8.31785
-6.01968
-22.0013
-13.426
-2.82311
-7.84817
-4.94703
-1.81006
7.01143
18.1812
12.9116
8.33169
6.85492
8.2642
8.94989
4.91079
-11.0839
-37.2435
-41.3124
-26.0132
-9.18131
6.87864
0.971002
0.411236
9.99248
4.43861
-4.32983
-10.5482
-15.3802
-16.3764
5.81876
18.3778
17.0874
7.36833
4.04496
4.36377
5.43919
17.5288
22.1763
18.1256
6.74587
0.105882
7.61983
7.66324
0.99654
-4.86953
-13.0976
-8.43744
-5.25163
-0.791432
-9.66142
-20.2619
-23.0335
-20.234
-14.5456
-0.62929
6.48758
11.0461
4.56822
0.111733
11.1709
7.29991
-5.49793
0.291264
-1.4887
-3.2749
-3.2795
-4.50263
-4.77114
-3.50922
2.00972
6.75865
13.1106
15.9582
8.82911
4.4185
7.77181
10.2989
9.57065
-0.719002
-10.2083
-8.70715
-3.19358
-6.76887
-7.9618
-4.16933
0.285253
1.63083
3.25465
6.56291
5.82685
4.83538
2.05168
-0.149549
-1.02377
-1.78475
1.65413
1.92638
-2.41029
-14.4349
-22.5497
-14.3102
0.336754
-3.70211
-1.92706
7.71804
6.43939
4.45798
-0.339242
-6.69341
-6.26973
-2.92523
-4.33242
5.93167
12.6796
9.22865
4.04003
3.71093
7.42824
11.9112
9.17285
-5.6282
-5.45518
1.44453
-5.58899
-6.72689
-0.554879
3.56383
2.75601
-0.493342
-1.08546
7.47295
11.7153
2.91101
-13.2472
-17.6808
-14.7086
-8.50707
-3.73669
-7.52257
-23.2112
-20.3134
3.95634
15.6321
27.0733
21.1235
14.4283
5.92079
10.5708
13.8008
10.8577
4.6974
-0.0157386
-5.94441
-7.39152
-8.17815
-13.327
-9.5377
-8.13121
-4.25953
9.19909
15.0499
2.27587
-5.7998
-7.7544
-6.27434
-5.00618
0.972321
-2.54344
-3.97764
-3.90219
-4.42355
-4.45093
-5.73381
-1.99949
2.42166
9.463
7.12962
4.36603
8.80451
7.0769
6.18806
2.5913
-1.7961
-7.24407
-7.29055
-4.50032
-6.49162
-13.1157
-9.23178
-6.66759
-3.43678
1.71816
9.47105
12.6958
10.1682
8.79614
10.6622
12.8451
-2.14732
-7.2154
-3.67368
-13.3685
-16.463
-9.11282
-10.6887
-7.38792
7.19856
12.8393
13.7187
16.1736
21.8449
25.8495
8.67692
1.24263
7.24394
4.57205
-6.23525
-8.71286
-3.01435
1.21808
0.0714966
-7.0768
-13.6726
-18.5922
-15.4335
-15.1507
-19.1335
-14.9372
-10.3232
-4.8018
-9.56606
-9.33742
1.66292
5.297
4.61624
6.82621
5.91271
3.7874
6.71098
16.0556
17.5568
12.8033
11.4389
6.61683
2.19153
1.55243
1.00679
3.80477
-1.18229
-3.69356
-2.74625
-6.07153
-3.82811
-2.07357
-5.63759
-1.86313
-1.58619
4.51936
11.6328
9.07436
5.86683
7.26247
3.39372
-2.15458
2.12946
-2.86174
-4.73992
-6.86251
-10.6126
-9.42862
-13.1306
-17.3001
-7.4998
2.07445
5.99097
7.48761
8.85778
5.09301
1.37183
-6.17587
-8.39674
-9.30456
1.41279
1.2387
1.17206
3.63256
6.78518
2.80852
-2.41341
-12.1846
-12.0118
-1.84893
7.01418
12.7828
12.7746
10.4598
7.49072
-6.39493
-1.32115
0.558143
-0.629916
6.01065
5.14905
5.0106
-0.400451
-5.72236
-4.89909
-2.45341
2.56212
7.30956
5.79509
1.77836
-2.86463
-10.071
-7.85017
-7.59914
-4.53787
-1.39584
-0.018723
0.0984171
-1.4447
-3.16371
-4.85943
-3.93629
3.60995
6.09167
5.81906
6.13578
1.88079
2.18027
1.39281
-0.0829861
-1.11057
-0.953304
4.88231
5.1065
3.16277
7.2054
1.84711
-0.486793
-0.674652
-1.06837
-5.66485
-10.2907
-19.4661
-22.7717
-25.8425
-16.9012
-4.43281
-2.56232
6.89605
13.4589
14.3532
12.9749
1.94244
9.67879
16.3115
20.0429
26.3459
32.1057
31.137
24.632
17.8491
14.3448
-3.28881
-27.6531
-36.8709
-37.6483
-32.511
-30.8809
-33.0881
-22.7515
-6.96486
8.26853
22.128
20.1629
9.26771
2.83947
14.4559
11.1111
-7.79634
-34.1789
-41.5501
-36.2494
-17.6089
10.5696
23.7096
17.7161
6.62159
-9.61364
-14.2354
11.3753
18.7363
-1.30159
-2.33858
9.41364
21.5655
39.6059
36.459
40.3257
47.4444
50.12
29.5862
17.3931
7.98199
-17.1473
-40.5496
-71.7303
-108.075
-116.974
-101.982
-95.5937
-74.8153
8.08594
74.2137
113.17
110.416
73.5747
49.2956
23.1185
19.9954
22.442
-9.31088
-48.7192
-37.309
-25.9438
-14.2845
-5.46989
37.689
97.4177
118.686
85.0144
32.3802
-72.4183
-151.021
-172.624
-144.55
-83.939
-39.7728
3.39717
28.6602
44.4565
65.0205
83.0083
63.3178
56.081
86.554
108.475
105.218
71.3518
70.6937
83.1823
55.3
8.82826
-45.9162
-79.065
-72.6299
-76.7336
-104.416
-116.074
-123.734
-124.913
-70.9598
-25.57
-20.3271
-18.2395
-20.5886
-22.1947
-40.8355
-33.2302
-32.6449
-42.8002
-30.2871
-19.2511
10.1662
8.59711
30.8404
85.5658
125.416
142.274
134.432
95.7747
66.048
79.4858
84.1674
48.4385
-25.5591
-48.5218
-67.669
-103.883
-161.471
-148.376
-67.3866
11.0858
50.3199
94.9374
111.883
96.2123
83.488
45.8361
0.818277
-14.5828
-41.1509
-105.093
-148.293
-144.377
-130.127
-109.494
-83.9669
-20.7186
63.3305
120.636
134.605
151.429
166.366
180.234
172.205
107.725
5.34577
-41.8738
-19.175
-0.508052
-12.1565
-2.69664
32.9319
39.0045
21.0177
43.0195
81.2417
44.2146
-40.6909
-154.793
-207.755
-172.174
-143.321
-163.113
-205.508
-201.491
-155.293
-118.355
-85.3637
-56.7946
-20.6088
-17.6617
-21.6181
10.0388
59.0543
73.4266
94.0396
90.398
111.455
165.158
195.458
171.079
120.459
93.8936
55.7571
-8.50838
-28.9154
-34.9256
-60.8726
-70.9893
-30.1145
21.2304
54.1715
79.7376
89.9832
45.3699
14.7673
36.0071
57.3421
57.9767
30.2292
-20.0438
-32.4485
-45.7819
-47.3403
-35.9116
0.646381
15.4872
-15.6128
-17.4899
-43.1233
-50.9821
-54.4428
-70.7909
-95.0387
-84.7658
-49.0419
-8.82657
13.9928
26.1676
9.10062
5.43937
10.1116
2.85216
-12.6928
-1.61605
11.0345
36.9373
54.2409
50.4097
45.3675
41.0411
25.6185
23.049
9.29513
-2.27763
-12.6141
-26.4162
-42.3921
-51.235
-73.2117
-86.49
-73.6664
-54.2411
-13.9878
7.61362
-13.0651
-46.4552
-52.1837
-36.8707
-22.6682
7.48133
35.9449
11.6938
27.509
54.3505
42.5758
31.8379
42.0092
42.4579
23.1773
30.3032
47.9175
51.5341
26.5001
27.0726
43.656
51.5485
51.0796
26.6498
29.1298
3.32386
-26.7705
-9.5764
11.0293
16.0532
2.76252
-11.4498
-26.2576
-42.9109
-17.9142
8.75554
-7.78842
-35.7988
-46.6462
-49.9948
-51.8833
-42.507
-3.04949
28.6538
13.7747
-23.1358
-21.6004
0.711614
3.61617
8.89783
25.9646
31.6222
38.0172
13.1345
-8.31055
-16.3103
-27.8321
-21.2037
-3.59077
-11.6027
-18.1371
-21.501
-23.9919
-8.39273
6.93335
30.0544
49.3272
46.4577
16.3829
-12.1222
-33.6422
-37.4847
-42.0804
-27.7666
0.929914
8.03632
17.4287
47.2189
40.9986
21.4633
9.60323
2.67016
-12.0341
-20.3163
-22.0352
-26.4622
-37.9128
-28.5093
4.23705
16.9958
0.0375084
-11.108
-12.6449
-6.71529
14.5295
8.65935
6.312
-0.882175
16.956
8.62191
-9.28767
-3.75401
13.8495
26.8783
13.8192
-1.17764
-3.42575
-6.78576
4.09413
27.0155
44.8644
40.6907
23.3847
16.1367
32.9702
53.7885
9.27743
-52.4553
-70.8515
-57.9436
-42.5676
-41.7225
-51.0924
-49.9125
-42.9567
-18.2929
9.50281
29.4924
33.0884
28.6272
36.0607
18.064
-6.03101
13.9412
-2.55827
-28.3603
-20.9044
-7.05439
-0.306721
9.52153
10.1659
26.6731
42.74
44.9418
56.998
58.0382
30.7439
2.29712
-13.8124
-33.7368
-47.4137
-28.8272
-11.7981
-19.6842
-38.6332
-38.1495
-13.0205
15.6206
20.1942
24.6206
28.4639
27.3427
7.22469
-11.313
-17.7858
-8.37006
-8.52639
-24.7966
-25.2826
-8.50178
-14.6713
-39.6691
-35.271
-19.3953
13.9553
38.0201
62.2901
82.2344
71.2426
58.4839
48.0455
5.01572
-41.6698
-68.0495
-73.0898
-53.299
-39.0608
-24.2253
-23.6022
-34.7097
-26.481
-1.5413
15.0771
25.8696
22.9796
10.2184
-5.0729
-17.7208
-16.1781
-15.6904
-0.221304
21.0657
32.5477
41.4744
38.0535
9.21343
1.12533
1.65404
-6.80746
-1.88512
16.5541
28.0003
26.4806
8.02269
-10.0354
-19.2952
-5.66834
-7.8453
1.6634
12.5948
13.036
-0.208706
-1.36808
-5.05254
-12.6375
-24.7236
-9.49516
2.60314
1.19815
-0.97992
14.3998
17.4959
9.58714
1.25522
2.08154
-2.54585
-37.4712
-46.0232
-36.1193
-38.7358
-52.4347
-37.878
-7.48125
6.4079
24.8098
36.7967
32.9414
31.6506
41.7418
16.0381
-6.67323
-2.21263
1.32509
-0.861236
3.91678
11.3835
13.5602
9.52627
-0.0946114
10.836
25.6789
26.4476
21.622
13.9612
3.08334
4.52103
4.967
1.32732
-16.3317
-23.3961
-35.9076
-43.6817
-37.7051
-30.0108
-31.2061
-12.6721
23.6677
19.6201
9.20745
17.1915
18.832
9.46229
-1.83271
0.181711
-2.95726
-8.49889
-20.937
-28.0261
-19.4335
-8.09902
-7.78799
-1.66435
17.8003
32.5761
21.0342
-9.07098
-23.4119
-15.5152
-17.6223
-24.4194
-40.9737
-33.9783
8.23341
39.4509
53.8237
67.151
71.9207
72.5683
62.4647
24.8639
9.38887
-2.81256
-29.301
-39.0239
-38.3903
-33.9421
-23.7657
-10.2826
-5.20685
6.1904
15.2667
-1.6148
-22.5036
-25.8283
-25.231
-30.031
-31.3445
-25.0802
-20.4509
1.78665
13.1687
6.76712
4.44375
7.45517
13.0083
23.1113
9.34683
1.74379
-0.438749
1.16327
18.2614
37.1217
47.5021
35.6691
24.9676
8.90218
-0.890241
-6.77935
-11.3598
-7.42735
-13.6024
-22.8161
-21.1097
-23.5495
-25.1811
-26.8091
-24.044
-12.6174
5.60008
4.30888
-7.45359
-6.58819
-9.52772
-10.6198
-13.5451
-11.6282
-8.89788
-12.9959
-8.94909
2.06136
16.2736
21.8861
10.7198
1.3272
8.4681
22.0893
25.1762
24.168
46.4498
75.1104
89.2363
80.5557
39.3151
-13.3195
-36.0103
-46.1955
-44.7541
-43.6065
-44.9432
-42.6848
-43.6127
-31.6064
-15.5991
-11.6974
-15.1881
-11.8178
-12.9497
-14.4194
-16.6736
-26.4553
-32.1743
-36.0954
-19.3845
2.95919
12.2623
14.7995
15.9708
24.3385
32.829
42.353
42.7455
39.2156
45.275
71.6774
93.8423
79.1221
48.9876
18.9114
-20.9918
-54.3285
-63.7882
-58.8416
-45.9009
-32.2671
-21.3019
-15.1472
-18.2258
-21.4362
-17.0409
-14.2674
-13.4556
-3.2811
-6.25073
-19.3466
-30.0069
-29.1039
-16.9948
-10.2138
-0.705162
21.5448
30.3858
27.1288
19.955
11.3422
4.72509
3.94523
-4.30895
-0.613442
5.95997
7.50319
6.39964
19.9116
37.2674
54.9706
59.0739
39.4549
13.8569
13.4245
5.05997
-0.886846
1.54565
-8.70991
-26.0227
-39.5199
-47.7909
-47.6896
-34.3635
-36.5124
-38.7631
-32.464
-18.9548
-24.1542
-29.797
-36.683
-38.6561
-22.9108
4.79141
13.5312
23.0265
19.3472
9.58405
21.7651
38.7775
50.3998
56.5775
55.0905
47.3739
34.8091
12.1721
12.6933
18.656
18.6736
15.3199
-3.33498
-17.1889
-25.2893
-7.71151
8.68828
19.8401
19.1855
-0.979814
-10.9354
-3.7054
2.98733
-11.6537
-31.4382
-45.9053
-45.0259
-32.8723
-30.8976
-26.6214
-25.7677
-31.9175
-26.5398
-16.8211
-0.540643
5.28874
0.569525
-5.07575
-0.235791
7.29779
2.31647
-6.51507
-0.0522364
3.24012
21.4362
36.9089
46.1146
52.7047
46.1379
43.1016
29.9974
15.6296
6.03927
-8.85862
-13.291
-19.4136
-27.81
-25.5879
-32.5846
-18.1014
-2.33643
7.58796
12.9311
15.5884
-0.987875
-13.8223
-9.38187
-15.6868
-15.5619
-7.76528
7.9853
17.3727
9.5557
2.12984
-0.503183
-7.12001
-2.85553
0.247604
7.27672
5.80653
-6.17354
-10.469
-10.1034
2.40821
8.33013
15.9561
17.574
21.4629
26.4166
20.9007
-4.51516
-27.7162
-30.6608
-17.2743
-1.9114
-6.6114
-12.0907
-12.7556
-15.7818
-12.7071
-9.72434
-9.33431
-10.5843
-6.19029
5.04479
3.81129
-0.727941
-2.22486
4.99923
21.663
35.262
28.5644
23.2469
16.5434
1.03135
-2.25694
0.34509
-6.3821
-12.3383
-15.6909
-8.82315
0.397037
4.87766
0.161198
5.11584
16.9567
16.1532
21.5084
3.47936
-37.2068
-47.6957
-28.8826
-14.3628
-8.38044
-2.65051
-2.29037
4.32172
17.9433
30.356
31.9704
21.1375
12.3096
3.61713
-5.31223
-10.5596
-16.2312
-20.0837
-24.7766
-19.7355
-9.99022
-0.889723
6.42445
19.4045
13.1649
0.961665
5.9645
4.92683
-0.102154
-5.83272
-5.90207
6.0167
17.7723
14.6555
7.4185
3.53229
-0.374743
0.827288
-6.91672
-13.563
-15.6991
-17.8412
-9.0969
-10.7114
-6.7751
-0.946673
10.7006
9.09954
7.70177
7.29628
5.08039
9.10874
10.4377
6.53186
4.22208
-9.16499
-15.9569
-10.4577
7.0409
15.0413
22.6103
25.1301
10.8364
-10.609
-14.1957
-8.03799
-8.80871
-8.38887
-12.8708
-15.3482
-12.138
-11.7748
-23.0164
-17.3981
4.97296
21.5676
22.5097
6.28062
0.0117895
2.41327
-7.52701
-6.21166
7.47424
10.5283
5.41921
0.058415
-4.30892
-10.1435
-14.8576
-19.2007
-14.673
-6.81311
6.95135
19.6866
25.0997
30.0167
21.8222
15.8485
6.69446
-12.2295
-10.2649
-5.05908
-15.1308
-17.4787
6.00914
25.5765
19.0476
17.4191
21.4315
8.32649
-0.776085
-9.13631
-14.8227
-27.274
-35.9107
-29.7635
-15.5561
3.25329
14.1298
8.32532
13.7552
25.39
19.7975
12.6955
-5.70762
-26.3766
-26.6567
-20.4874
-11.8826
0.350612
-0.453726
12.1631
18.1376
1.21613
-1.32465
-3.91262
-7.15105
-10.5538
-21.9114
-26.2176
-20.4074
-15.3537
-10.9304
-1.32719
17.7379
27.1412
25.286
23.249
21.0747
30.2277
38.7616
24.8005
12.8386
15.0574
5.99731
-14.1882
-17.5991
-11.1733
-5.09619
1.98656
-16.8861
-25.6337
-16.3017
-9.28678
-13.9887
-12.2117
-2.86838
7.68462
6.07699
-0.305754
-9.45598
-13.2555
-10.6816
11.582
28.3283
28.6913
7.27639
-8.5852
-19.6896
-16.9796
-11.6342
-12.1129
-5.71396
2.47964
2.37804
-4.04755
-10.1326
-8.95941
3.61247
21.3544
26.5848
13.1688
13.3906
14.41
10.0589
29.2357
28.316
7.2683
-4.74781
-18.99
-23.923
-18.9362
-15.7059
-17.8293
-4.48769
13.4291
15.9928
1.49171
-17.776
-29.0783
-12.918
-5.50538
-14.9391
-15.2647
-10.9846
-27.4431
-12.3222
1.81315
12.0045
24.6075
24.0053
14.505
11.0295
10.9113
-1.71433
-4.69083
0.640849
15.2646
26.065
19.5581
9.93753
20.788
21.5312
17.7269
1.14369
-15.6231
-24.0383
-20.505
-17.2761
-12.7137
-15.6312
-7.72591
2.85753
3.91493
3.42017
0.254548
-5.316
-12.0982
-15.0801
-3.79102
17.9533
20.6568
-0.266381
-26.6177
-30.2113
-16.5314
1.41673
8.85222
12.8608
15.8912
8.99636
5.66701
17.1268
21.248
7.80142
-2.69448
16.3679
37.4139
14.8468
-11.023
-31.7092
-49.8707
-49.3153
-26.9564
-1.05135
13.3718
16.7111
3.37483
-1.45326
5.43435
4.9726
-12.6121
-18.3208
-11.4981
7.44898
16.1122
14.0231
11.3542
17.3757
14.8018
9.00227
17.6662
23.827
11.3899
-10.3195
-23.7211
-30.5764
-24.2436
-7.70306
-0.847382
15.4652
27.944
27.054
13.0001
14.5979
10.8461
-15.9532
-35.0992
-24.0242
-12.9451
-21.2393
-27.0413
-10.996
10.5311
12.252
-1.84344
8.73572
11.3553
1.08974
-1.59371
-1.4806
2.96126
4.28089
5.04764
-8.50356
-4.53292
3.55876
-2.4514
-1.11071
-0.64534
2.49665
19.458
9.30898
-8.52108
8.9075
21.7025
10.8326
19.0627
16.453
-4.80469
-12.653
-12.6469
-7.34599
15.856
18.3272
9.09092
13.7295
5.91495
-26.9501
-28.5593
-21.321
-34.6294
-37.6629
-30.9075
-26.7649
-13.7559
-1.21254
-4.38669
-5.4746
8.07309
18.2768
6.76531
-3.767
-12.8738
-2.31701
15.0519
9.70391
6.70984
29.9727
36.4191
33.458
36.4132
37.1114
31.0409
19.7344
18.4886
13.1789
3.66566
-6.54445
-6.83402
-5.45092
-12.0828
-26.0847
-38.2755
-48.2525
-54.9649
-46.4113
-26.2187
-11.5526
2.72439
11.7868
4.51967
0.729211
4.43507
9.64678
14.6833
22.4689
32.2529
34.3367
12.9259
-0.859086
-5.44576
-10.9412
-16.6231
-12.9692
-8.12618
-2.73029
3.53524
4.2476
0.372374
-3.8615
1.76273
18.4774
20.9608
4.65276
-9.31572
-22.4144
-34.7442
-34.8794
-22.4938
-21.9097
-2.86449
22.4616
30.6637
24.3045
19.9232
8.02872
3.2678
5.18057
16.281
27.7686
30.3884
16.0554
6.67641
-3.81152
-11.9482
-8.98366
2.83669
2.59215
-12.27
-15.4707
-23.6778
-28.8232
-23.2255
-10.6436
2.62033
10.5909
14.4542
13.5903
3.80682
-6.43819
-4.87342
-4.48901
1.64492
-5.93467
-9.05867
-9.75578
-10.3346
-1.72089
5.97254
12.5364
25.1872
17.2224
8.94632
8.2424
1.92596
-4.50443
-13.0399
-19.9018
-20.1673
-9.33296
-6.3997
-3.94938
-9.26732
-0.551215
-4.22732
-17.4829
-18.1374
-6.89583
18.1961
26.3468
19.2725
12.1841
7.91343
1.668
10.0129
20.9446
16.4179
7.45889
3.38595
-5.38233
-6.90414
-9.17834
-14.195
-5.10695
8.75218
7.69633
4.05081
1.31517
0.964984
-1.06336
-5.72029
2.07024
1.29995
-1.88443
-10.5548
-13.278
2.91843
12.6998
6.05224
-0.566602
3.84831
16.0912
16.2886
13.1786
20.9615
19.7635
1.81722
-23.7896
-48.6737
-50.7581
-33.0689
-30.0011
-23.5439
-19.9076
-6.74184
8.78511
3.67716
9.67127
18.5796
13.2645
-0.423085
-12.2338
-5.57175
-0.800692
-4.04738
-15.5854
22.9619
66.9908
66.4922
34.2171
8.64773
2.11249
-12.614
-14.6646
-8.06652
-9.96977
-2.67313
4.56626
-10.7887
-23.0118
-19.963
-7.59963
5.3475
6.39747
-0.589841
7.10331
-2.90632
-15.0679
-1.65419
14.0801
24.5335
24.0684
33.2753
25.9868
3.0071
-22.5305
-30.0857
-26.6358
-9.37905
14.3806
17.141
2.29647
-13.6044
-27.5047
-34.9234
-39.7369
-61.7609
-58.2104
-25.0668
7.21647
6.74673
7.41739
18.6578
28.0259
17.4807
14.7031
18.8741
14.2779
26.1233
22.7139
27.1773
33.1421
23.9644
15.6937
2.69131
-4.52623
12.9686
25.2587
14.2775
11.981
15.4344
2.69559
-18.5022
-26.7961
-5.44532
14.6595
2.25829
-15.6044
-24.5101
-22.6917
-21.0801
-25.3073
-17.4887
-11.0139
-4.96356
-2.822
-19.7283
-44.0031
-52.4959
-46.2009
-21.0266
3.97071
26.5296
41.0311
35.9528
25.2893
19.5976
2.77781
-23.624
-24.2929
1.44929
19.5352
21.4927
12.4729
11.3538
14.6994
24.798
30.4091
25.0881
16.6884
3.34448
2.17948
5.05602
-7.59815
-9.37365
0.316272
22.685
30.6158
11.7884
-9.1529
-17.1336
-28.9823
-48.2028
-42.2105
-12.971
19.371
40.9418
45.4434
41.1274
9.57686
-39.0968
-68.9271
-53.6328
-50.478
-39.6876
-33.9342
-45.4322
-27.2416
9.89338
4.2888
-1.57419
10.0446
32.6141
43.7621
9.63094
-14.9218
-18.2607
-7.0048
13.4297
37.0553
44.7906
60.7576
42.3977
37.1143
15.27
10.5675
34.5861
36.6941
26.9654
30.0476
15.7934
6.94461
-10.2017
-28.6019
-21.3019
-11.2084
0.86114
-9.52437
-39.9805
-52.2977
-35.9399
-31.5174
-26.9719
-22.462
-40.1407
-48.3014
-45.9288
-22.3973
-5.5998
2.51954
7.68564
-4.90856
-21.0365
-15.356
-5.05205
-8.45746
-8.30849
8.30209
22.6793
11.7926
28.0908
48.3177
37.7911
39.0837
57.7192
64.2674
51.2367
32.9044
37.9966
32.6737
-8.17408
-4.85136
21.0516
11.0759
2.90369
-1.28502
-27.1896
-65.026
-41.1012
-27.1318
-22.9967
-24.7451
-33.4237
-31.2497
-28.2869
-31.2894
-27.194
-16.7448
-12.3328
-0.632009
25.0435
15.0071
-0.277043
11.349
17.2646
25.4353
14.8329
22.499
26.9794
31.2767
16.9497
8.09261
0.061169
-17.5704
-32.2169
-33.9249
-17.6741
-11.5706
-24.7421
-21.9381
-10.9051
-9.64003
-4.20921
-5.22153
-6.2602
1.04231
8.61534
10.1913
10.1229
26.0943
37.7116
21.7722
11.2035
26.8419
27.7148
37.2321
23.8202
3.09325
-10.6678
-28.6853
-32.7088
-13.8781
16.6062
29.0812
30.9388
25.2909
19.6077
8.28577
-25.0199
-45.4575
-55.7531
-68.8591
-44.119
-24.764
-7.5434
15.4254
20.2794
13.4517
7.35831
10.2618
12.3747
11.2882
-9.08164
-13.1726
-11.7595
-13.1838
-2.3993
6.90518
-2.52294
-7.44635
-13.8518
-4.35616
0.525476
-4.44683
8.09823
12.7371
24.0106
43.7296
45.4551
26.5608
13.6664
12.7775
29.571
16.7768
0.380486
-11.7567
-17.8373
-23.5217
-22.7555
-33.942
-33.379
-25.6022
-17.3989
-15.8145
-21.855
-20.9551
-24.2504
-27.4192
-7.15046
12.0827
38.3764
67.4673
30.799
17.7359
17.002
4.79853
-9.41672
-19.1029
-32.3448
-17.4578
-0.121498
4.72688
4.21724
3.43931
7.43475
12.693
22.459
38.5143
52.5179
64.6138
38.1652
-20.0247
-36.0375
-39.9039
-40.0967
-27.7797
-28.1358
-17.123
4.14469
11.258
0.229331
-17.2992
-27.304
-15.9375
4.18142
-5.43619
-33.3529
-28.9373
-9.51237
9.02711
7.03386
27.4155
40.0212
19.4422
32.6172
33.7147
21.5213
33.6868
23.4368
-2.15923
-25.7956
-36.6937
-7.17055
11.4951
20.7877
20.5726
4.82498
-39.9642
-61.8184
-63.2884
-44.8708
-31.1222
-30.8338
-18.7915
-10.858
11.1743
17.5576
5.74769
9.57011
10.535
19.3503
36.0383
25.6938
23.1664
17.7112
16.2646
41.9548
62.5298
47.6684
26.0331
15.6524
-5.57385
-6.6268
-8.92998
-26.6451
-38.6934
-30.4725
-23.7888
-24.1245
-6.92504
7.82306
15.0087
5.93328
-3.6943
-13.9116
-27.0656
-25.6459
-31.5549
-35.9933
-26.6106
-16.5178
-7.21023
-14.3845
20.3481
51.3138
40.7332
17.564
-15.0771
-15.8988
20.9942
25.8395
10.4825
4.60609
-1.14747
5.79576
10.0936
1.6613
10.56
15.6405
3.01669
-7.59083
-4.72826
19.1657
18.63
-12.205
-20.4042
-7.99541
2.68358
10.6569
8.03352
-18.7246
-27.1021
-24.9694
-32.9221
-36.203
-26.8682
-11.0937
-13.9123
-5.89503
14.6677
11.2323
12.4254
3.54185
-1.65008
19.6934
20.5347
14.0927
19.4639
6.94396
-16.7133
3.66312
14.5321
2.79379
44.4787
54.2648
40.0984
14.5894
6.62354
12.3369
11.9117
3.14507
-4.22899
-0.50004
-19.1071
-35.0426
-34.9495
-28.8881
-25.5984
-25.8368
-15.9944
-18.7251
-9.92741
-3.72606
-36.327
-54.017
-47.1072
-30.3166
-1.12659
-0.483637
0.0232426
47.0558
76.1214
75.3481
73.7766
26.2996
-7.34615
-9.22317
-8.55835
12.5602
8.28124
-3.76695
1.79421
15.3972
4.74962
-9.22676
-8.20047
-8.66969
-22.3298
-34.7926
-36.4372
-36.1985
-28.6993
-31.2587
-44.9313
-19.8027
11.8773
34.499
33.9732
33.3848
40.7472
47.7513
34.1177
22.0137
9.85967
6.48521
3.35868
-10.9059
-23.48
-13.5819
-9.67423
-14.8457
-25.6293
-13.9664
5.48811
12.5362
3.43464
-11.7879
-15.3319
-15.6362
-16.0638
-10.6717
2.4592
36.2482
60.1607
59.985
41.6269
35.5834
25.4928
16.2819
-1.82299
-29.7276
-45.1483
-53.4822
-60.3082
-52.212
-32.6677
-35.8522
-29.9858
-24.7024
-28.0318
-14.5344
9.53061
6.49804
-3.71193
-8.1106
-6.53636
-3.34477
1.70746
35.5519
60.965
61.6291
46.166
27.1458
35.3234
37.9497
42.9035
43.7891
30.042
-2.72193
-27.4002
-46.6572
-42.0382
-40.3228
-35.4817
-18.8219
-11.5377
-1.89773
-0.266861
-9.7834
-14.6114
-9.35559
4.00304
21.0753
23.054
14.669
7.12817
-5.16167
-6.75659
9.51098
16.952
9.71518
-2.05597
-3.06909
3.12442
-0.220516
-32.5922
-44.4643
0.0256322
9.8501
-8.18827
-12.5559
-0.0939297
-4.95184
-12.0011
-6.88792
-11.8705
0.536483
-0.712266
-13.3713
-13.0802
3.3217
9.0435
-4.95768
-14.7735
10.0191
35.8673
28.7224
5.59152
-3.05787
-15.327
-22.5303
-13.4253
11.0283
26.9877
26.3243
17.7295
32.8427
69.8612
83.4263
52.8338
21.1649
7.60398
-25.0899
-41.4774
-41.7022
-39.9198
-29.3558
-7.75913
-7.13673
-14.8254
-23.4299
-27.888
-42.9912
-31.256
-26.6237
-14.5384
-11.9768
-20.6684
-32.8035
-21.6313
1.36061
7.19875
22.5169
32.4903
19.337
22.5563
24.9354
6.06256
9.33033
16.4931
21.6186
11.0434
11.8319
15.969
36.6283
37.2814
3.01541
-28.7338
-32.1253
-9.66868
0.880433
-10.2505
-4.85066
12.0502
27.2552
22.1588
21.5924
1.80652
-32.8661
-26.9014
-16.9412
-29.3313
-32.7482
-37.0526
-37.2708
-29.5087
-8.45852
18.6189
34.8625
49.1725
47.0574
35.4058
31.7175
12.0586
4.08553
2.67662
-26.9918
-39.1493
-24.7218
-7.20083
-26.2144
-31.4021
17.2828
47.2149
25.6662
10.1602
6.89831
-4.41178
-17.9091
-37.5947
-41.8987
-32.883
-32.398
-22.6063
-19.2106
-17.5807
16.484
32.4274
31.8755
35.7139
56.6984
75.1035
51.6619
33.2153
38.5087
27.8522
-6.14747
-29.9441
-21.6561
-9.61192
-10.5526
-16.0194
-25.7546
-48.1991
-59.4009
-35.0326
-29.869
-18.793
-13.275
-6.75877
5.82796
11.0572
2.04559
-11.7557
-21.9997
-22.4434
-10.35
2.16479
-3.69291
2.39938
23.5017
56.438
73.5714
63.0426
50.581
42.0782
32.2659
19.4048
3.43127
-16.1962
-26.3916
-27.9271
-30.0012
-49.2767
-47.4316
-22.316
0.542784
-1.59477
1.8026
0.490574
3.46198
0.0872241
-7.30366
-7.05012
-31.0363
-42.4368
-48.4248
-35.274
9.75169
43.7907
47.6944
50.556
66.0433
51.7017
19.5959
-4.55603
-21.9005
-23.6955
-29.5617
-22.8646
-14.5832
-23.6051
-8.28161
16.6513
16.0901
6.63306
-4.1136
8.66381
1.95065
-12.4307
-2.34045
-8.39638
-24.7346
-5.85771
16.5735
24.3348
36.3413
34.6078
28.4254
25.9223
11.0625
-24.3027
-52.181
-59.0608
-45.3535
-38.0148
-4.8456
10.8637
8.20485
9.78962
16.5126
13.8943
-1.38473
-1.23361
5.95582
26.3278
33.5842
23.2146
24.4085
10.9598
-18.8604
-29.8324
-22.4533
-17.8487
11.6805
28.8964
33.302
19.6141
-3.83187
-17.6269
-26.4817
-34.5774
-18.5526
-2.85366
-5.48607
-10.3188
-9.69218
-16.8026
-13.7655
11.4799
9.04736
9.51431
6.9335
3.26822
-4.97325
-1.80552
2.2655
8.3151
17.6967
26.9349
7.52734
-1.23091
-5.61143
-13.2939
-7.89844
-21.8182
-41.8103
-26.6686
4.64006
-12.371
-9.70949
10.1136
18.8814
26.1768
26.9775
22.4115
24.1996
17.681
3.45566
-6.05513
2.90555
9.68922
8.78795
5.18387
0.757354
-4.78651
6.42158
23.0866
31.4833
19.65
23.416
25.611
14.8677
-19.5657
-43.0801
-32.3096
-33.5109
-48.9439
-56.2106
-58.7781
-38.7974
-7.16647
10.7436
33.8569
32.6284
15.8567
22.3316
13.5055
-23.8224
-54.7042
-54.3763
-28.7049
-13.5767
10.1114
20.8907
21.5166
36.4836
41.0668
43.8855
31.975
17.2982
11.3614
4.17209
-15.6841
-15.6712
-3.94399
-5.53246
7.00729
-5.35579
-11.4365
-10.4029
-13.5779
6.06996
8.62668
11.8283
25.7751
0.0838131
-9.57404
-0.531453
5.69536
23.4658
28.8118
22.01
12.2143
3.32787
-6.93973
-15.0475
-6.4671
2.05106
5.81729
0.345016
-20.8027
-46.8648
-51.3661
-15.5413
5.80574
10.3973
10.7963
4.20052
5.55726
-23.0254
-53.2228
-46.2239
-29.171
-18.4366
0.706721
3.92901
2.13359
22.4959
47.2563
53.4844
44.1489
41.8447
38.3102
19.1518
-23.2643
-44.8707
-39.491
-20.2523
-8.33621
0.48554
6.70812
7.51064
4.6136
-5.47706
-13.1233
-7.91673
-7.44322
2.1869
20.5853
23.1173
29.444
30.3134
24.7827
-6.9232
-7.51442
6.13754
2.20041
1.42695
-0.516421
-9.68971
-9.19282
-9.60472
-8.92687
0.627795
-1.69164
11.8705
9.70981
-7.8031
-15.6419
-18.0904
-12.6024
-19.237
-28.4811
-37.8238
-38.1455
-23.9211
-3.91523
8.99106
20.442
35.0031
52.1176
31.1075
13.5562
34.3956
44.0802
2.07564
-28.4971
-26.49
-33.7494
-35.0367
-31.9785
-17.7781
-4.22166
16.2859
14.7366
1.78614
-12.1963
-12.7807
-9.15007
-15.0493
-15.3019
20.2459
63.406
72.5228
60.2648
45.4575
27.009
6.18008
-6.09238
-33.9808
-58.0768
-63.8475
-49.2285
-38.7049
-21.4474
18.9937
56.6802
60.3199
47.0833
25.4678
4.26286
-23.6002
-40.1423
-48.6488
-46.8265
-25.6322
-11.4334
-18.9911
-19.1409
-2.71629
9.09602
14.6289
22.9126
17.6766
22.4339
22.777
3.66888
-9.2459
-23.6601
-15.9142
-6.80345
11.7053
21.3641
13.7648
11.3851
14.1807
2.17998
1.47029
13.1998
27.4484
23.4514
-3.2775
-9.19288
-0.850922
-9.69913
-20.4187
-16.0704
-13.2874
-5.9223
18.745
11.5775
-1.76133
-16.7441
-32.5721
-33.0129
-22.9022
-4.56279
11.6364
7.37406
1.16023
4.67404
20.9614
24.1714
18.2864
10.6503
0.60503
-18.5829
-31.0697
-16.0112
-10.3473
0.240593
-1.22014
-12.1923
2.34966
13.3964
15.6364
23.2016
22.2417
13.0482
4.56192
8.46372
13.7535
12.9689
6.42127
3.70539
-2.07303
-1.39329
-1.38973
-9.21686
-12.7549
-14.7816
-10.6906
-9.25409
-10.437
-5.87445
-9.16194
-18.2109
-25.4694
-15.344
5.86777
6.17478
2.32335
15.5465
44.9076
60.7559
35.8921
-6.67838
-14.2785
-8.66859
-14.1901
-25.0734
-13.3753
9.42589
7.05658
-11.193
-17.58
-20.4401
-23.0635
-24.3558
-21.1987
-15.8892
-30.5193
-53.0948
-56.1451
-36.4325
2.5427
47.9475
61.8925
52.0199
51.906
60.4048
45.097
30.0676
29.797
30.1202
19.9137
14.5365
-0.542614
-25.2892
-28.6699
-4.40135
22.0068
20.1583
-3.90563
-28.2429
-38.8401
-38.5611
-42.223
-23.4837
-12.8734
-2.53139
7.00175
15.339
12.4336
7.01489
-4.6985
-10.8578
9.99591
10.6963
5.17575
-1.75069
-5.10134
-6.65388
-5.24228
-5.99812
-20.348
-20.639
-11.3715
-17.4275
-24.9613
-19.6896
-10.0801
-13.5338
-19.5493
-1.32837
26.2816
45.2262
38.9694
43.8249
36.6868
25.0004
18.9814
13.6808
10.6847
8.46897
31.2712
18.3682
-3.84529
-17.8488
-18.0959
-18.078
-26.7839
-28.3451
-15.8881
-6.2164
-9.59463
-16.49
-20.2681
-18.2999
-24.706
-27.0715
-26.3267
3.64888
19.402
7.46622
-3.36805
9.34689
18.1558
26.1657
26.443
21.3738
18.6246
16.6335
19.212
16.3344
24.5297
14.8506
-0.581198
2.28998
5.64899
1.65237
-18.5043
-43.983
-36.0004
-23.1292
-16.6282
-4.86161
-2.53692
-1.7255
-6.03247
-8.51836
-7.10158
-4.73003
-14.0475
-32.0355
-29.0444
-5.44146
6.84914
10.8603
11.5506
21.397
57.0074
79.3436
63.0385
39.4436
14.5479
-10.66
-27.1423
-32.5592
-20.2864
-26.2898
-9.64498
-9.94973
-13.3128
-12.7061
-24.9139
-26.7294
-13.1256
2.66264
7.4821
0.577664
-14.4877
-20.8233
-21.5469
-8.46318
4.14349
10.7753
27.6779
32.2271
36.2035
35.1929
14.3221
-0.623277
-10.689
7.67943
34.7479
37.0084
21.4324
-9.3608
-40.1752
-57.3652
-63.9676
-58.5062
-35.0601
-13.0218
10.1293
21.9451
35.9704
50.3431
42.4447
25.5972
12.6175
6.17237
-1.30869
-9.84574
-20.1288
-16.0957
-5.93832
-4.55091
-1.71646
17.4111
31.3268
23.4693
9.53941
5.37168
1.33068
-16.3199
-32.8649
-33.5349
-26.6173
-10.8068
-22.6325
-32.325
-18.4738
-2.68876
1.21821
0.282542
-5.3896
-3.13693
20.6618
40.0521
28.0711
8.00895
13.1702
11.0366
4.91253
8.71906
3.31412
1.8745
-10.7323
-12.7592
-5.06617
7.83403
20.0514
13.7293
-4.66391
-15.2212
-21.416
-11.0907
-0.123485
3.2367
8.64108
14.1769
17.6939
6.42737
-1.80198
-5.05083
-3.13095
-15.8414
-15.3419
-11.6762
11.0913
22.1874
8.29647
3.85986
-2.21801
-9.01124
-4.37718
-1.39217
-3.78333
-22.6429
-17.6376
-1.81375
-23.0137
-37.9298
-29.4132
-25.1177
4.12425
36.7474
32.6121
14.676
11.4717
17.4122
20.7962
18.8534
23.952
33.2141
33.7568
26.5068
8.53511
-9.8699
-35.5543
-47.9133
-29.0588
-3.46972
-6.01844
-14.0444
-20.2012
-24.5514
-19.8577
5.44108
18.3653
22.9302
32.8982
21.9038
12.9668
0.12734
-12.8901
-15.3266
-15.3519
-25.8909
-6.64095
16.597
7.43622
-7.25981
-5.87262
6.19176
3.34333
-3.55733
11.7994
9.08501
-8.82273
-12.7857
-11.9966
3.44219
3.1642
-10.0134
-1.46369
18.5941
18.7947
31.7275
25.936
11.8891
6.15753
-5.1953
-8.96876
-0.0885945
0.284834
-9.15867
-20.4285
-24.7251
-27.193
-29.7045
-23.673
-16.1964
-8.05849
4.1994
18.4409
14.2307
6.90692
4.48476
8.74128
4.07835
-8.67734
-11.2196
8.83057
36.8991
44.5807
26.4149
25.4118
11.9863
-3.29666
0.703751
-5.62858
-19.2698
-22.1224
-12.5825
-20.6277
-37.2769
-29.7409
-11.2247
-10.936
-10.435
4.17552
25.6302
23.9968
4.48095
-13.476
-4.64323
11.7352
15.706
10.2387
-1.2361
-2.09109
-0.691695
2.95069
8.65516
11.2242
6.55445
8.72506
16.8584
34.8097
23.5609
-1.76708
-8.80142
-20.3415
-38.1211
-27.6513
-24.9511
-35.5576
-15.6969
6.2036
6.83722
12.0146
14.9195
11.1281
0.593091
-12.1249
-9.05706
0.337611
-4.5836
-31.7116
-26.722
3.6866
3.42794
13.0006
35.8101
41.2603
44.2886
28.0162
19.2603
44.4225
24.0452
-11.7643
-21.2994
-21.6281
-18.974
-20.9444
-32.2816
-26.0656
-20.6108
-1.16544
13.3068
13.641
1.96843
-16.1732
-30.8215
-33.8004
-18.7328
-3.84113
-2.98808
-13.9032
-4.04073
8.52152
24.5303
23.7271
17.3508
27.1483
32.2042
13.1267
-2.96762
-0.53847
-9.60314
-25.6733
-23.9595
-11.9361
-4.29591
-0.8059
0.559345
6.1687
8.52193
3.62673
21.1435
41.7065
50.4105
59.1996
25.3249
2.43501
7.76628
-11.0637
-22.7792
-33.0203
-37.3779
-34.0525
-23.9734
-20.4926
-24.7492
-23.0891
-9.24541
-6.84842
3.35538
-1.47873
-15.1619
-19.8375
-28.6178
-40.9044
-18.4191
8.91049
18.1902
32.7805
26.9671
28.2059
28.1903
30.4291
38.7099
25.7072
8.93974
-1.19839
-15.2649
-12.9943
0.918398
17.6
18.5859
17.856
14.2114
5.42525
16.5137
10.5461
-9.82924
-23.0028
-23.9083
-22.9887
-23.2268
-33.0456
-31.2357
-16.6518
-8.21366
-14.1042
1.99317
20.3003
10.2221
-0.219879
7.73351
7.80058
13.1719
12.6587
-2.44776
-2.62726
-0.180832
-1.03534
-9.73412
-5.88224
7.76889
4.9911
-1.23732
-10.9821
-2.76612
16.1034
10.5538
10.2317
9.24188
-6.90195
-14.1113
-3.3824
-7.47708
-11.3235
-11.3938
-8.01969
4.8653
7.74518
9.45245
6.94766
-6.40366
-11.3727
-7.06905
1.58539
4.44191
8.14384
10.4988
10.1084
21.7151
19.1799
3.96043
-13.0741
-6.48226
14.6413
20.2958
15.9143
1.69587
-1.0945
-3.4853
-2.21764
-5.15621
-9.08481
-15.0278
-13.6932
-22.2064
-34.1258
-13.0113
-1.32214
-1.51913
11.6287
8.26718
3.04854
-3.90644
-10.7171
-8.73675
-5.83261
-13.0295
-8.40053
7.18149
17.6265
9.19588
4.196
7.50373
12.8314
14.9996
27.0527
0.636389
-1.5852
9.99273
4.62856
0.506918
-1.73792
-9.12848
-25.1325
-26.892
-14.7532
0.291614
8.17512
12.3761
15.4045
23.0516
31.4599
14.2659
0.549129
-1.05529
-11.6677
-16.1278
-27.5368
-34.485
-31.2166
-24.3469
-12.0185
-1.58891
4.53397
14.7634
28.639
38.969
31.2959
18.3961
23.8815
21.4449
-0.206093
-12.1133
-8.57623
-16.9958
-28.6663
-27.6862
-27.9271
-13.233
-0.830981
-0.506769
8.91806
10.6949
-2.59418
-14.4234
-20.3091
-7.79425
18.7268
12.792
-11.1775
-14.4966
-2.88042
4.95726
16.3181
20.2381
22.904
22.7677
23.8588
9.17595
2.7822
4.71272
-1.87663
8.29465
24.7918
9.93078
-2.97154
-20.3172
-30.4358
-22.6585
-17.1793
-7.74578
0.508097
1.72701
-3.46985
2.91494
4.33161
-4.22261
-6.60753
6.73467
14.9469
-7.02417
-28.8824
-26.1981
-19.3595
-11.6366
0.397269
0.705971
3.83735
6.21613
0.594178
-0.164619
8.93702
18.2834
24.6377
19.4438
1.85004
2.40395
13.3534
14.9109
20.5885
19.478
8.0089
-9.74154
-12.5659
-15.0098
-11.2508
-10.07
-13.8888
2.14601
4.23258
-11.3111
-14.6805
-9.62025
-17.1429
-7.12176
9.93446
15.0203
-6.24922
-28.9637
-36.2513
-21.8611
-8.40235
-1.98881
10.03
39.699
47.15
33.2804
25.4263
21.0488
24.7833
32.6244
5.66078
-17.5795
-22.1025
-22.7331
-20.595
-10.9069
-4.09103
1.20488
-12.8304
-12.6461
-7.81164
-1.76279
-7.5166
-10.9069
-18.1221
-16.6508
1.282
11.1071
23.8272
21.9914
6.33379
-4.52376
-7.37757
-10.3682
-7.45296
0.101411
2.12266
-0.481609
-2.71173
6.91525
17.2588
11.7907
14.0028
13.7242
18.206
22.1332
-1.70401
-27.0367
-31.989
-33.4266
-11.764
8.50325
14.2575
7.42833
4.02057
9.59906
11.7436
11.3552
9.19008
-2.28391
-2.92053
-15.0767
-21.7926
-29.1928
-31.4426
-19.2365
-6.96428
-1.85141
-8.2883
-3.11125
8.74148
9.59098
15.2835
27.0312
27.1975
3.94646
8.99925
16.1925
23.4084
29.1634
23.5228
17.7605
10.4451
6.48209
-8.1866
-18.4588
-23.4467
-22.8442
-26.5864
-23.015
-16.272
-10.1754
-8.0823
-1.37686
4.72464
16.5285
0.235963
-16.5964
-17.8953
-29.8272
-33.1194
-4.83804
-1.29487
-17.6284
-26.349
-19.3445
10.1921
44.7248
81.7561
102.805
74.3284
33.622
13.9295
1.09957
-21.9721
-34.0085
-34.4911
-36.8418
-43.3093
-33.838
-17.359
-18.3312
-17.6369
-0.201531
16.6993
25.5374
28.2573
20.7929
-15.1857
-44.0819
-33.4212
-13.9368
1.36788
11.3268
-1.7127
4.28574
12.8013
19.9456
15.8073
14.1117
13.2379
21.8434
31.9512
24.1845
21.9105
1.98902
-21.9665
-32.2783
-24.4755
-13.9165
-11.891
-7.42978
-7.28664
-5.07216
5.76855
7.74775
10.9816
11.485
3.50406
-10.4796
1.05615
-2.18261
-12.5989
-12.3504
-9.81503
-6.64887
-8.09408
-23.8559
-17.7326
-4.58579
-3.82898
12.3811
37.8001
52.7762
49.6373
14.6323
-11.7772
-22.5728
-11.5318
11.7779
9.01038
-5.3371
-11.7871
-12.5062
-13.3682
-10.1005
-4.22081
-4.29251
-11.5538
-15.6998
-10.8419
-4.2709
-18.1302
-40.4437
-13.5449
26.6356
46.8449
57.0366
50.4885
6.67776
-14.3628
-15.559
-3.36809
-0.98524
-12.6381
-12.4079
-13.1645
-5.44828
2.57071
5.37027
17.531
12.1564
0.233889
0.193707
-8.27263
-9.51974
-16.4222
-33.0455
-23.7938
6.39859
13.5108
14.5205
2.33614
-4.79822
4.99976
9.92568
7.96934
15.3751
6.39319
-1.55572
-0.957269
3.66688
8.19548
7.40231
3.85955
1.92678
10.9435
6.16267
0.578319
8.64459
8.85536
2.07223
-10.6355
-24.8099
-15.2355
-15.6594
-8.73368
-5.45642
-12.1225
-24.0693
-26.3243
-17.6612
9.32856
23.1101
19.7296
13.1653
2.36249
-0.788732
-4.3369
-9.50358
-4.7132
-1.69368
-2.44946
4.17243
3.04363
15.5988
9.43729
3.38867
15.7366
25.5534
35.293
22.833
1.86719
-4.73154
-29.9214
-39.5774
-32.2706
-2.45637
19.2543
15.266
-3.26233
-9.8797
-9.70819
-3.32157
-6.23149
1.22757
2.87062
0.518234
2.18226
1.50336
-8.04538
-8.13437
-11.6351
-8.91314
10.9286
17.1765
17.9322
-4.73903
-21.1238
-14.9645
-14.444
-7.76923
5.94432
16.1204
20.7504
12.2745
8.5832
10.6979
13.1936
14.0382
19.3105
9.875
-3.97381
-13.3607
-3.60676
4.39242
3.29918
-3.02774
-6.7408
-1.11888
4.61845
-3.06549
5.26504
-0.839057
-12.9397
-14.3295
-20.658
-24.0163
-15.2076
-13.4203
-22.0101
-14.7264
-5.34042
-5.66861
-13.1588
-10.0843
9.7715
18.3148
19.5176
14.0244
16.5962
14.4871
-2.92868
-5.71082
11.2947
1.16529
21.7735
36.8956
16.9143
11.3985
3.50421
-2.26928
-5.46468
-9.9942
-7.73007
-7.57887
-7.17329
-4.95323
-13.0648
-8.67581
-1.07388
9.82172
19.6833
28.0529
15.8708
4.47809
-17.9928
-28.3618
-19.2144
-8.13168
-2.12689
-5.59096
-7.75865
-2.34039
2.90409
-2.11755
-9.55824
-14.7912
-5.85137
-1.85065
-5.43506
-10.5069
-15.3122
-18.651
-14.0664
-1.05346
7.85003
18.3575
14.4967
13.4983
14.412
20.5479
38.6111
46.0304
34.8973
19.9581
16.2684
19.279
11.6251
-8.54944
-21.9413
-23.3606
-26.4102
-32.6597
-33.0916
-28.5774
-33.8997
-29.6523
-19.0418
-5.49329
7.60943
16.3049
12.4491
15.9208
16.6049
3.85156
0.897728
-18.9995
-21.8083
-0.612483
1.80862
0.581796
3.57186
15.7211
9.44412
10.0223
15.0723
3.09257
5.00545
7.85609
3.74961
6.66883
3.41754
-3.76594
12.2094
16.3669
18.7682
31.0855
14.6489
-7.01236
-13.6515
-17.1659
-28.0856
-39.7916
-23.2349
-6.684
-2.55401
2.86465
9.59725
3.64836
0.214997
-10.301
-13.3509
1.93919
6.43543
11.5812
-7.72997
-8.56765
1.39811
-1.65444
5.61907
11.9318
20.3815
25.4717
9.83089
-3.21669
-8.8131
-14.7569
-10.66
-7.40627
-8.12844
-1.59357
-2.86554
-17.3828
-20.0558
-13.6686
-16.1932
-8.80568
15.4473
28.9176
31.7146
35.9718
20.245
5.09381
1.83454
-2.3155
2.17381
9.63563
-8.43412
-11.3093
5.96759
7.74133
-6.72579
-18.0081
-14.9103
-7.22894
-0.201825
-2.22427
-10.948
-16.9645
-20.6516
-17.4712
0.858935
4.47642
-1.11281
15.3129
24.0434
17.1316
6.64497
-3.97264
-5.80752
0.00544853
10.5462
16.1373
7.33397
-2.40442
0.0977857
5.67738
-16.4858
-9.07894
2.10506
0.382791
1.59223
8.73552
13.5803
3.40285
-8.01964
-10.5269
-12.5835
-17.3812
-10.5035
-5.17353
-15.0279
-26.8757
-9.66888
6.32877
13.9751
22.0347
29.712
17.6578
5.33653
-1.52813
4.66034
5.23034
6.8678
7.41022
13.6368
7.61049
10.8482
12.5724
-2.47721
-13.9003
-19.6738
-16.3069
-11.8657
-1.20981
-2.60954
-3.78603
-7.17506
-18.3053
-19.8676
-12.3462
-18.7211
-20.7051
-7.19031
-5.32037
-6.3226
8.89409
15.983
1.63957
-2.3513
3.33093
13.4935
29.2027
42.5155
38.375
14.405
-3.4268
0.283539
21.3323
22.1847
8.49075
2.17111
-0.556154
-17.1041
-34.3845
-29.6124
-20.0493
-14.2898
-7.24276
1.90038
5.31273
7.90978
3.1995
-15.9026
-33.4538
-24.0948
-6.16728
9.07
7.64298
3.34799
0.689151
8.29338
0.182204
-14.5788
-5.74433
11.8001
19.2882
20.3001
19.2431
13.4677
12.1538
4.81227
-6.12653
-5.6725
0.740328
7.43176
5.64958
-4.17167
-11.3611
-3.2089
21.178
35.0454
30.9123
14.7464
0.376441
-25.8416
-40.1959
-32.4171
-14.2544
-4.93095
-10.2231
-3.62518
5.59164
-6.93627
-11.0649
-8.43661
-14.4598
-20.0172
-18.1958
-17.1029
-18.8207
-20.4486
-4.53057
19.7353
31.6243
35.9679
23.3536
18.8693
15.8763
9.87423
13.6014
13.6661
5.45671
-2.90279
4.67775
1.11512
-1.51114
13.7752
8.05007
-0.793802
-8.73787
-10.6503
-7.55835
-6.1963
-3.60157
4.54803
-2.13671
-19.9123
-25.8471
-16.7901
-16.9512
-19.001
-14.6469
12.6219
24.7947
15.3703
22.256
25.5207
16.1653
7.83098
4.69763
-3.00152
-19.7838
-28.3526
-34.7659
-25.1712
-0.400139
21.516
26.1241
9.74907
-0.855934
2.85944
2.79895
1.84186
-2.11118
2.81976
4.35492
2.6804
-5.12767
-10.7698
-8.80791
7.14716
15.035
17.7468
16.6877
4.87151
-3.62867
-10.1947
-6.02179
0.982951
3.68757
0.857709
-0.611884
-12.5247
-25.6538
-14.0793
-7.07616
-12.468
2.90871
13.9951
3.47296
-9.35651
-5.67953
7.1861
7.36128
0.666223
3.70378
10.5623
8.02835
0.157545
6.36898
3.55611
6.30404
8.43947
0.158219
-12.0997
-7.37294
-10.3537
-14.1128
-3.34312
5.84473
2.75178
6.3537
5.1626
8.16056
17.7673
6.5293
-11.4129
-17.9131
-3.19047
-2.99428
1.41445
0.992636
7.98048
19.3871
9.17702
3.08035
-2.38953
-8.73392
-15.21
-23.7024
-27.0965
-16.8571
-9.4531
3.86419
12.1182
13.9649
24.3969
23.3788
11.3502
-0.817025
-14.7562
-33.7704
-29.3765
6.08899
23.2498
18.8113
10.745
7.22202
6.88813
7.00471
3.26655
-7.73576
-7.32116
-14.7842
-21.1857
-13.2359
4.70582
22.4305
18.3172
8.75762
18.9488
30.0454
10.572
-19.1685
-19.4707
-13.0874
-9.92151
-8.22049
-5.91701
-10.6625
-13.1869
-13.9596
-2.78242
9.15301
19.145
28.692
15.8819
-6.24895
-5.40694
0.0905822
-12.0804
-13.1256
-5.78333
-10.4138
-14.4717
-17.7594
-9.54998
5.90101
16.2009
18.2338
16.1363
10.4842
-7.04977
-11.7376
-10.7376
-22.2315
-19.8903
-5.02312
2.63914
21.3647
33.8936
24.117
20.3247
29.5608
21.3247
5.84768
1.12373
-6.81239
-23.724
-24.1735
-2.04993
1.04524
-0.599922
1.20813
-2.99822
-5.2339
-19.0542
-22.4362
-7.87147
-23.0146
-24.9468
2.66963
13.9464
5.3908
1.29856
0.457203
2.6759
7.61465
13.1994
17.1409
9.81959
13.341
5.79386
-11.9609
-11.6292
-3.26423
0.155379
2.5166
-3.33642
6.14436
7.23219
-7.18656
-16.265
-16.1751
-6.57428
0.666587
1.00307
7.34927
18.0743
17.0323
21.1467
17.6475
22.195
35.675
23.7101
-0.619153
-8.86399
-12.4163
-16.6775
-23.5244
-20.9207
-14.5191
-11.6299
-12.0163
-16.1174
-17.4192
-14.19
-12.9238
-15.3715
-6.92966
-13.7139
-16.1754
-17.0463
-13.3306
7.26261
4.35563
-10.6942
0.762675
20.2522
52.7515
71.0858
50.5369
27.0256
-3.73848
-8.00803
0.762909
5.37347
-1.32345
-11.0753
-16.4806
-16.1011
-9.34229
-3.60546
-11.9546
-17.6393
-11.2549
-4.48667
-7.63457
-14.6548
-27.739
-23.3612
1.58643
19.1116
38.6457
43.3175
28.4905
15.2631
12.7759
13.3849
7.71037
8.71159
9.88827
-0.458697
-25.2242
-38.284
-31.8432
-28.9102
-38.8708
-35.2276
-16.7154
-17.8383
0.0848969
43.5019
87.7898
83.4644
50.4316
41.5263
36.5728
-0.128305
-23.1327
-36.3229
-46.0496
-44.4201
-37.4972
-28.8698
-12.9266
-0.38539
6.63335
2.93144
-9.34558
-13.4345
-19.87
-38.7141
-46.3279
-39.0213
-22.6604
-20.6014
-19.7384
0.978534
14.1608
22.3473
23.3935
19.572
33.9405
43.8428
49.8808
63.2297
62.1616
44.521
27.9859
17.0187
2.88362
-4.42597
-22.2978
-24.7681
-20.7963
-18.4096
-18.7808
-14.3435
-10.1858
-12.968
-8.70331
-2.42917
-5.83426
-13.8146
-15.2673
-16.2503
3.66845
12.5421
-4.55769
-0.296064
10.5684
0.565283
-11.2847
-12.1023
-2.97728
-2.47121
-6.89074
-2.81722
-0.654118
-0.693468
1.09171
-0.906789
-5.26854
2.19528
-0.886278
-21.3639
-29.8783
-24.6939
-4.73462
6.77891
15.2329
20.2546
52.7679
67.6793
49.8027
39.3626
33.3434
13.9769
-0.203213
-9.32129
-10.4458
-12.7296
-20.5377
-32.273
-31.8266
-20.6587
-20.0818
-10.1494
3.79869
-5.00504
-18.5899
-27.8338
-48.0627
-51.8727
-45.6628
-35.1624
-8.19633
18.4291
15.3835
15.6368
24.6008
37.898
48.1338
38.2339
34.8849
36.6727
40.6592
29.1878
16.0358
8.12383
0.803741
-2.47548
-13.5214
-23.2893
-19.224
-12.6364
-19.421
-22.3177
-12.4967
-3.72545
-2.7208
2.03623
4.8813
7.03523
-3.72117
-9.32038
-12.7003
-12.6597
-11.0564
-2.70481
-2.59526
5.92851
6.42382
5.5831
8.76577
3.75108
-6.42984
-12.0028
-9.9668
-9.42416
-22.0472
-20.3854
-12.3664
-3.72539
13.0396
16.9746
12.8586
47.6529
74.7745
58.547
24.5773
1.07957
-10.7851
-21.4949
-23.3175
-21.4362
-26.0674
-25.5962
-15.8676
-11.0902
-7.38295
-10.2771
-12.398
-9.67619
-4.62093
-4.79786
-10.0086
-22.1992
-24.1588
-12.3923
2.2325
9.7383
18.5608
27.6256
22.2456
21.3337
25.767
30.8426
29.2495
28.777
21.4681
9.02981
6.88446
-5.53592
-11.7983
-6.19758
-4.5002
-13.702
-27.0802
-27.5349
-11.0141
5.20929
11.9723
4.53253
-5.43758
-16.453
-26.5463
-34.3705
-27.667
-12.2895
-6.66807
-0.458607
4.16605
8.27125
10.1161
7.03471
0.851407
-0.445305
7.34693
14.9595
11.2705
-15.276
-20.928
-1.49438
13.8786
14.8946
20.0742
34.9006
36.1617
28.818
30.6267
25.865
2.87121
-17.0404
-18.8984
-2.02224
-7.2649
-24.4693
-27.1985
-19.1366
-10.8185
-27.2818
-52.4638
-54.4877
-45.376
-32.2488
-6.30963
30.7583
62.1331
39.9824
20.8787
31.8178
43.0607
27.3334
1.75509
-11.6617
4.33594
18.4349
9.7881
-11.1279
-31.4925
-14.0723
19.3241
22.698
-4.95949
-45.8062
-81.8801
-101.192
-89.267
-15.6466
40.8089
58.4226
69.1267
71.6476
40.3033
15.0411
-6.30213
-47.273
-46.8815
-3.03498
22.1752
13.6861
49.3447
118.287
159.955
208.773
193.661
126.02
64.5428
0.18848
-3.04375
-157.731
-331.718
-238.428
-241.563
-322.349
-287.082
-193.788
-201.233
-129.442
-2.81408
100.843
146.665
146.522
125.046
61.7551
83.2226
135.925
145.042
160.479
138.144
180.09
226.51
160.098
169.814
182.21
114.538
46.1612
50.0152
48.3916
-21.5573
-74.398
-124.082
-181.286
-195.799
-179.938
-165.887
-170.076
-162.978
-172.114
-178.687
-125.297
-54.5801
-43.8451
-8.60126
59.0717
94.1087
98.1979
105.356
44.0897
6.25172
-3.68833
-21.1592
-21.7853
-4.25757
15.51
21.7286
16.9345
10.0782
11.3827
9.1726
24.4733
52.0852
40.196
47.4669
65.1354
74.2883
79.0758
65.3143
26.4379
21.1501
16.2437
2.66482
-11.9084
-26.2661
-34.5982
-30.0759
-23.6796
-19.6144
-27.0808
-28.5515
-17.6092
-11.2468
-18.0807
-17.6496
-1.68396
6.46599
9.63568
9.99795
8.35199
6.18003
-2.82884
-13.394
-18.5472
-9.86388
2.63402
-2.75385
-18.0763
-12.7994
1.86907
-3.4587
-14.3912
-30.6862
-52.5076
-51.6649
-35.2835
-10.0137
20.5958
65.0162
94.1683
87.7495
53.2707
30.39
1.68333
-3.06133
5.12221
-7.29771
-20.4362
-22.5296
-24.372
-32.3206
-29.7393
-16.0176
-10.3215
-30.6466
-56.1304
-60.896
-33.8539
-38.3687
-59.8795
-53.1297
14.2738
78.7272
99.9779
96.1843
48.3655
16.3879
14.8581
-3.10219
-6.31691
49.5323
87.7268
102.838
86.8207
49.4225
33.8292
16.9056
-12.4725
-26.4216
-39.0665
-45.908
-64.6432
-85.7158
-79.556
-72.2738
-51.1456
-25.8509
-13.8859
-12.2612
-22.4101
-50.9666
-56.0398
-47.8746
-20.2914
12.256
30.5987
34.9631
15.7334
16.2955
29.176
32.1824
28.264
10.0506
9.58471
27.4835
28.5644
2.6917
7.86065
34.9641
42.0396
20.2967
6.6697
2.4834
7.23123
15.0671
5.51098
-6.96895
-11.6403
-29.5548
-43.5371
-42.2684
-38.7503
-32.8082
-26.1366
-28.1018
-10.901
14.0711
17.32
6.67107
3.80273
14.5139
15.6003
2.00342
-12.2834
-12.8837
13.8105
34.9243
41.797
46.6245
50.2441
43.4377
31.3628
22.7548
20.8087
14.9858
9.97101
17.0174
14.2189
-8.29302
-33.6273
-55.8567
-57.1582
-36.7485
-26.6323
-23.8617
-12.96
-5.43363
-5.51958
3.21621
0.892875
-9.49946
-7.41915
-6.10656
-2.90999
-2.7341
-5.38672
-17.0617
-28.1492
-25.6563
-12.4063
-3.29611
-4.78089
-9.85851
1.09627
14.75
14.5987
8.47999
11.0111
12.5811
5.20379
17.6404
39.1102
42.0876
34.6696
18.048
13.3011
10.8851
13.2829
7.12418
2.86015
-7.3305
-17.5885
-22.2886
-23.7029
-25.9765
-32.5964
-29.2172
-24.8837
-26.5106
-14.6294
1.56386
3.30881
5.1324
10.1571
23.4769
15.2008
-6.2119
-21.0659
-11.6418
-11.8139
-13.3209
-2.39738
3.95374
6.0779
9.35139
14.8025
6.60914
-3.61699
-3.03726
-0.928446
-5.20914
-12.5458
-13.114
-8.94914
4.79509
22.4669
30.9283
34.9898
28.2901
17.9214
16.2508
16.2723
9.12345
5.72758
4.16336
12.8332
15.3866
9.45561
-1.87839
-3.89468
-2.05843
-6.7961
-1.74604
0.473458
-9.19307
-12.2765
-5.03114
-3.62704
-4.59652
1.87141
0.566863
-8.34098
-5.41635
-2.15719
-10.3437
-19.8851
-16.5484
-12.9091
-11.6665
-8.75606
-6.49042
-0.669968
-0.192608
-4.11675
-9.05328
-6.92499
-0.975308
0.637242
-0.726605
0.120401
9.74836
5.78238
1.96287
0.113654
7.86554
1.06541
-13.3552
-28.5421
-22.6117
-1.95364
8.50022
13.9313
21.3225
20.4409
20.4985
21.8434
19.7051
25.8196
13.1407
0.850263
-12.8992
-17.7078
-19.4127
-17.1771
-13.1497
-8.89855
-0.613795
13.919
16.0717
6.44391
-8.03241
-25.579
-33.2398
-26.2019
-28.3431
-24.7486
-11.5765
-1.65848
11.2836
25.4193
33.6184
47.7466
51.5235
49.3947
37.3365
15.8195
8.76003
9.99063
7.51506
-3.95763
-16.6811
-21.2329
-28.1331
-31.1113
-22.9387
-20.7776
-25.0672
-28.2964
-26.3051
-15.0224
-11.9889
-13.6834
-9.27772
-6.66415
-3.6527
-1.27679
4.69669
18.4412
20.0939
13.4976
9.93959
14.3156
25.2573
23.3848
19.4589
22.4231
18.9881
16.2307
22.0914
12.6884
-3.17923
-7.69633
-7.63892
-16.7818
-12.6244
-3.09183
-2.85139
-12.1015
-15.6048
-12.5229
1.34503
8.41659
-16.5108
-30.0414
-21.0225
-19.4224
-16.9763
-14.7705
-8.62348
3.95657
11.8811
5.55017
4.00629
8.20935
2.07802
-2.35676
3.65919
5.65812
8.93328
10.3696
9.62539
17.219
34.6553
41.7522
32.1775
18.3327
3.12805
-13.7455
-22.4582
-19.3543
-6.84639
-9.26413
-14.0885
-3.81251
11.7792
7.75406
-0.205733
-8.69218
-12.0686
-18.2974
-29.9895
-40.2648
-45.3423
-42.9655
-24.7526
-1.75839
23.0735
42.5652
38.2317
14.7998
-2.79375
5.89929
21.7416
24.8741
20.7966
23.4385
21.2104
14.8694
5.22033
-5.28814
-29.573
-25.378
-4.75363
12.4659
18.0457
13.7163
-3.61036
-11.3643
-5.67113
11.8856
28.7426
21.743
1.50734
-29.6069
-73.1553
-89.015
-70.0088
-42.2378
-6.6888
36.8471
59.083
50.6466
38.2927
27.916
4.6136
-8.71202
-7.13152
1.88825
6.30385
5.69587
3.36963
1.65061
-6.09856
-23.8473
-17.5474
4.52398
26.7019
27.7543
19.3441
25.3918
24.1198
21.8871
-4.75085
-24.7623
-37.3234
-41.4235
-25.449
-25.483
-15.555
-2.73954
0.629608
-4.92244
-1.296
10.7081
3.8152
-1.34277
-11.4968
-20.9298
-26.6085
-43.0064
-29.1466
-3.82386
22.7919
41.1816
52.7083
51.252
43.3364
39.4614
34.1251
22.1444
16.8878
20.3257
14.407
24.4596
28.6959
8.84705
-0.695486
8.50429
4.0694
-3.65404
-6.69686
-18.7956
-25.5713
-30.7811
-28.8111
-23.7254
-29.0625
-34.3467
-38.2579
-46.4769
-46.9147
-38.5119
-29.3241
-20.7345
-2.25341
7.03963
3.93116
0.968387
0.809968
5.05199
3.83772
-4.9558
6.37322
21.4425
23.2692
24.2106
17.8429
12.6344
1.129
-11.3537
-19.4715
-15.7889
-6.73116
3.83395
18.8639
25.2292
27.7319
28.1467
12.2654
10.948
11.1765
2.54573
-3.2914
-8.49929
-16.1448
-19.0692
-20.9317
-21.7594
-6.92901
-6.97678
-4.56057
16.5875
35.7402
41.5023
40.1243
57.4186
83.0947
61.3731
28.4348
-7.82049
-33.4814
-38.1144
-51.9575
-55.2528
-43.6212
-36.3777
-31.4486
-29.7731
-22.7878
-7.61776
8.85763
11.2359
23.5888
17.9515
-24.7428
-46.7555
-18.9241
-0.277737
19.2845
-4.3205
-33.0417
-42.6066
-18.7882
-4.18289
11.6804
24.1414
44.8912
52.4395
32.4155
14.678
24.7986
20.8172
41.8046
69.5586
81.4755
74.7892
17.8388
-30.9437
-54.0002
-60.654
-24.62
-12.9808
-55.0536
-127.406
-111.509
-73.6522
-22.8915
45.7809
67.9077
38.4171
6.38491
-4.08376
-29.6299
-42.0603
-21.6836
-11.4722
-11.7119
12.3544
30.7218
58.7037
68.9123
71.0506
67.9501
71.5994
52.7563
34.2921
-1.11077
-35.0723
-35.585
-2.21795
16.3864
14.7354
-8.72255
-37.9446
-57.5561
-68.3538
-65.5923
-43.6935
-30.4943
-19.5767
-5.77798
-1.44884
9.42299
43.5177
38.3681
32.4184
15.4382
-3.05459
13.7066
25.8018
16.6331
-4.66814
-24.5547
-34.7442
-32.687
-37.0424
-45.8937
-49.4187
-47.0672
-50.2534
-44.131
-6.36932
41.3279
68.8003
72.5075
71.9323
75.3823
75.8178
58.9014
30.1567
12.1663
-5.8863
-9.84339
-28.6768
-60.1648
-77.2634
-62.7048
-16.0607
18.9444
66.6922
65.49
44.2586
17.9499
-7.86303
-39.0881
-79.0457
-84.1535
-54.4507
-29.9086
1.36986
17.2595
18.5661
22.2374
27.1254
44.5722
58.3185
51.1038
26.6663
-3.07695
-19.0163
-16.5189
-23.0585
-22.0167
-10.9684
3.63885
17.1686
11.7987
-14.9382
-17.4157
-18.9944
-43.4166
-49.3313
-40.5004
-26.1197
-13.5731
-1.21804
2.16794
1.89601
11.53
4.30567
1.06939
8.12905
19.1798
41.0966
51.4592
39.2299
23.0483
-0.631931
-30.2444
-42.9041
-38.2001
-15.3449
-0.431008
4.24964
23.894
29.2798
20.5687
22.4829
28.7435
31.5624
21.0353
4.54117
3.81381
-10.109
-15.5739
-7.63021
-5.10907
-11.2438
-11.2639
-5.51126
7.0075
1.12638
-3.60722
13.1266
16.0241
5.2765
-8.24983
-20.2982
-14.9692
0.0469217
3.39297
13.3857
18.0456
6.42476
-6.42858
-14.3951
-16.9059
-9.82127
-0.0218742
-6.20858
-13.6512
-10.7659
-10.9127
-5.64993
-0.34669
-4.33182
-8.50287
-1.03884
-2.60934
-2.7223
-1.00994
-1.43494
-7.3095
0.773569
8.6726
24.0526
26.1115
10.7925
-7.88236
-11.2395
-6.55645
-5.74931
-12.4264
-12.9502
-5.9649
-0.886867
9.96872
10.8615
6.6209
-3.26087
3.34634
3.35494
-5.94679
-10.1918
-9.88866
-8.92468
-0.139782
-2.99442
-10.0944
-9.65653
-8.99903
-8.10956
-2.09923
-2.76946
-3.67113
10.9374
30.03
30.312
34.9853
37.9429
42.5236
31.2006
3.17719
-4.08312
-6.88679
-1.66302
-4.53865
-11.0242
-11.3187
-15.6031
-18.9363
-10.7102
-12.399
-8.27343
-0.499954
5.10624
-6.65799
-14.5224
-23.271
-26.9736
-27.6681
-14.6402
9.30229
-2.65471
-22.1769
-25.6719
-0.857268
28.2604
32.9443
29.8338
37.035
35.6763
25.967
17.6114
14.5886
-6.07275
-21.6609
-19.694
-15.8308
-12.478
-11.2242
-8.10069
-4.68389
0.382084
10.3024
11.3149
2.15403
-6.69805
-0.0510473
14.0331
8.38116
2.91527
4.39817
0.555825
-19.6774
-30.6329
-22.2368
-13.544
-5.07785
-0.49822
-6.10741
-5.00513
11.1792
19.9995
25.6679
22.1536
1.96145
-6.04297
-14.3585
-12.4455
-15.9755
-19.4934
-24.2229
-23.5041
-4.2651
22.9204
27.4366
35.1703
51.6433
47.9924
32.3917
15.2224
-6.17317
-18.4403
-23.7717
-18.3032
-10.7902
-15.4038
-16.2829
-7.17074
3.97139
3.46511
8.24088
15.3186
2.1045
-18.9387
-38.8396
-46.6228
-43.0056
-32.4541
-12.7317
11.2117
34.8041
35.2387
7.76019
4.22631
25.0224
30.3302
24.7577
2.30282
-0.617795
4.74813
-1.08278
-8.29202
-8.56304
-1.69016
7.0597
6.64426
-8.07279
-15.8186
-10.9648
-6.10079
-10.4571
7.98076
39.55
32.6507
17.4251
9.67967
-0.0687536
-8.13992
-17.8354
-16.4777
-12.6511
-13.0662
-12.9339
-14.8054
-7.98902
-7.99797
-6.76895
-7.99268
-3.34755
-0.755498
1.96511
2.97329
4.40742
1.12368
-9.97531
-11.5935
-8.30197
-6.7388
3.46695
16.3492
26.84
20.1972
15.4788
13.0373
9.70936
8.36023
-3.0944
-26.2524
-40.8366
-40.2815
-14.6318
12.3942
32.0447
41.2382
28.7006
18.5793
17.8865
15.9958
4.28123
-16.5749
-25.7822
-26.4739
-27.7834
-22.6694
-6.87919
23.2504
49.412
52.9072
34.0932
32.2827
-15.563
-85.2678
-77.158
-62.8457
-37.4342
10.4299
22.855
28.7232
37.8249
11.5032
-32.7229
-11.5161
16.1272
20.0896
9.52885
-20.6948
-13.7549
30.6797
74.174
32.8859
1.11929
26.6025
26.2794
-16.7956
-45.5625
-34.9359
-24.6383
-41.9722
-46.893
-15.9134
11.05
9.09658
-1.41242
-10.3727
4.42365
17.7822
7.19765
-9.70195
-23.9033
-1.70987
27.0496
35.3323
31.6471
32.2196
32.8676
9.56227
-6.30129
-0.699079
-4.05552
-6.6535
1.21311
-9.80866
-12.2741
-7.19899
-13.7258
-26.6651
-32.245
-28.2294
-21.0964
-9.68689
-2.55774
6.2378
2.53177
14.4338
23.6613
18.1284
8.71276
16.8414
27.0296
30.3724
26.227
4.86623
-5.47445
-8.64792
-26.4122
-26.4768
-21.9096
-22.5426
-8.4614
-1.71902
-5.97235
-2.52
-12.0638
-11.5735
7.93571
11.098
11.2812
11.8548
1.97156
-10.1601
-6.59197
12.1775
25.9284
27.1076
26.9631
21.6269
8.06595
-7.77231
-26.5516
-23.0709
1.69525
7.19944
3.52793
6.97958
-1.45426
-9.12713
-5.97242
-3.95019
-4.43669
3.24012
14.1787
4.41563
-10.4211
-3.16549
-11.0455
-26.8062
-20.4988
-21.7666
-14.7517
-15.5781
-21.4072
-18.5464
-9.04918
-5.37739
-1.60735
8.62025
10.2793
11.8465
22.2166
22.9958
10.6913
2.66809
2.93247
3.01406
7.89111
18.0818
23.711
28.2269
29.8625
27.5918
20.1629
7.11445
-15.4871
-15.1998
-7.78022
-6.67471
-6.5681
-8.7525
-9.84159
-8.45351
-4.64886
2.16593
12.954
19.0344
25.4732
19.2333
-5.88976
-19.9895
-29.0317
-26.6157
-10.8459
-2.64207
3.25421
5.5458
-6.21385
-13.5112
-12.4002
-14.6606
-21.3645
-19.8212
-11.0818
-6.97065
-6.93125
-3.80061
-5.26578
-3.07971
1.47482
12.2539
10.9404
8.96191
5.0043
-4.91498
11.2824
12.7774
-16.0768
-18.2535
13.9822
31.9258
20.2244
6.52495
-1.96026
-6.40572
-1.28439
-10.4899
-4.06157
6.71292
15.5863
15.178
12.5821
13.488
17.3637
11.385
3.99889
9.13035
31.1235
37.3336
18.3821
-8.20863
-16.2079
-34.9594
-55.4042
-48.3659
-37.809
-34.2574
-24.6939
-12.3165
2.11139
13.7593
16.2274
0.917384
-4.82071
3.60508
7.06953
6.99779
15.1679
8.63459
-5.67909
-4.60274
15.6958
32.7134
42.1319
39.0115
6.1753
-12.6333
-17.5916
-24.3375
-25.9658
-29.5994
-22.6714
-4.87138
1.96576
20.6645
21.4454
2.74134
-0.0215662
3.10945
5.86008
3.23658
-0.38161
-1.17165
2.42171
0.517939
13.0125
22.7529
12.6936
-0.256723
-20.0599
-28.3522
-8.6652
-2.55336
-8.30355
-9.28343
-2.87041
4.81908
3.04208
-5.76246
-11.2913
-6.84345
-5.75732
-1.1998
3.77945
3.00351
-6.45167
-12.0302
-5.5684
7.76435
16.6379
19.4261
3.16234
9.508
12.4828
27.6111
33.3119
11.6735
-0.819682
2.49919
-28.0013
-48.7031
-39.1615
-20.3793
3.54674
22.8456
33.5898
32.7886
6.93303
-16.908
-15.7518
-8.527
-5.82439
-7.89633
-8.87411
-22.8566
-28.0876
-6.50265
-5.87693
-6.90758
17.2444
27.9771
21.5621
12.1489
3.70282
-4.39747
-10.0733
6.72109
21.0471
25.31
21.572
11.7301
2.39963
-6.87372
-20.3997
-24.3408
-16.5776
-3.83921
4.90118
3.03721
7.2564
14.3713
8.13994
7.19987
-2.48622
-11.6791
-10.1019
-11.1875
-3.29585
-3.78706
-17.1498
-7.90533
-10.2402
-7.80113
-2.25832
0.142442
1.13702
-5.37989
-3.35688
14.0706
16.0787
14.1099
14.409
4.65967
-0.594317
-0.0755639
-7.99166
-7.08734
-2.75867
3.59966
10.0618
5.49144
-1.28783
-21.3413
-26.7506
-16.1223
-11.6513
2.44144
14.7227
24.9356
29.6818
35.9661
36.0421
17.7809
-11.723
-19.8693
-12.3517
-13.5918
-21.3216
-20.4903
-19.5678
-19.297
-4.61849
13.8816
23.8643
17.5656
1.49928
-5.38141
-8.12132
-18.4745
-12.6831
-7.81742
-8.68658
-7.50662
-1.67747
-4.49366
-3.83052
5.71237
17.2964
19.6117
28.5347
35.3594
27.0048
20.2538
5.00148
-10.1367
-8.70314
-9.36209
-9.70896
-8.9715
-9.96965
-16.0885
-19.407
-8.26552
2.06489
4.65173
-3.0178
-8.03065
1.3478
-3.14513
-11.6614
-9.15551
-8.35643
-8.65377
0.228178
5.71082
14.2779
15.2876
5.38411
4.31641
11.6196
5.98901
-0.600253
-0.879835
7.95728
10.8063
11.8341
8.20286
4.05371
0.573255
-8.8084
-29.6421
-26.3649
-13.5637
4.06437
13.9697
2.49298
-8.63547
-6.51138
-4.61419
-7.01823
-13.6898
0.203844
15.5075
2.11774
-1.77557
1.75236
0.212843
-7.02883
-14.2585
1.97495
21.3922
26.8625
21.6812
16.0901
7.99111
7.62719
9.08246
5.83668
-6.94661
-5.66782
2.4497
-6.67011
-13.614
-7.98356
-6.54286
-3.05852
-14.7503
-16.9301
-8.42789
-11.2353
-8.23732
-8.82573
0.568754
11.136
3.79366
2.93511
1.54605
3.16058
3.39876
-3.01834
9.42797
16.4411
11.9192
10.5122
0.564843
-12.006
-15.6455
-14.615
-12.0472
-7.68955
0.930971
15.1214
12.4319
2.66792
3.48899
3.93864
9.79529
9.8226
1.80079
-2.1195
1.02493
2.93998
2.24478
-3.44193
-6.36631
-3.14822
12.1267
0.888941
-6.0953
-4.87676
-6.41017
2.60045
-4.00581
-18.1176
-10.0743
-7.2893
-11.3747
-4.97623
7.24215
11.099
10.7044
15.5889
13.7627
-1.50642
-5.16686
-15.5175
-4.24367
15.8516
14.303
2.40007
-1.80031
-6.3166
-9.08414
-6.36503
-2.56507
-0.714051
-1.08685
-1.27337
1.13716
1.85334
-2.69598
-8.80371
-1.61079
9.92197
17.0089
9.12298
-14.022
-18.8185
-15.0182
-9.67942
0.524878
1.9182
6.34371
9.21551
6.7363
5.70959
4.86528
4.98173
7.32771
5.23958
5.99926
-2.0552
-8.11157
-5.04743
-2.59377
2.5836
6.77696
7.54339
10.8068
14.6069
6.95826
-5.46352
-11.2837
-6.56258
-4.88492
-1.24028
18.1591
11.5538
-2.27992
-5.37896
-19.8942
-34.4248
-32.2702
-18.058
5.0801
14.7258
11.4175
9.41275
8.33882
2.99669
-6.49853
-20.5423
-10.4281
7.89071
12.5175
7.65469
-2.44592
-1.48486
-2.16759
1.03039
10.6982
18.274
17.305
12.1951
-3.61908
-8.40655
-8.75894
-17.4974
-18.0662
-7.29188
-3.44526
7.01776
12.2084
3.68453
2.05779
5.11889
14.3349
7.36378
5.49736
-1.88235
-9.19517
2.01779
3.61155
4.3727
11.8255
16.6153
11.8196
-0.819125
-1.59371
-14.8507
-12.6474
-1.85523
-8.07691
-17.8461
-19.4375
-11.2531
-12.49
-21.4381
-22.5127
-1.73734
19.2674
17.7605
2.0693
-6.55046
-1.66994
6.2242
8.26287
12.765
8.75085
4.1666
4.37175
3.64993
2.33796
8.86527
14.4165
10.685
7.44036
15.254
7.75082
-11.2005
-15.2962
-11.5929
-1.22806
10.456
7.48148
-7.59756
-16.6857
-11.3012
-6.33701
-10.083
-6.25375
-3.28245
-1.0377
-5.1134
-4.1088
-0.553682
-8.55953
-4.07877
10.1195
29.0081
24.2989
9.68974
-5.77826
-21.6185
-19.396
-4.31262
15.1546
23.1307
17.0456
10.8064
-2.59578
-16.658
-21.1776
-14.818
-13.7404
-6.33702
13.0308
13.743
3.51568
-3.58109
-10.5608
-8.76849
2.09471
10.1414
3.48923
0.507733
-2.28758
-10.4679
-11.8254
3.79756
3.61015
0.24286
7.22805
18.1692
17.0365
5.34911
-7.7785
-10.3686
-2.43553
-0.222151
-0.323551
4.57036
8.35934
8.64943
-2.46534
-14.7468
-8.96167
7.7366
17.5165
12.124
1.75138
-3.97261
-4.59903
-10.7532
-11.9676
-0.7565
4.13887
3.6584
-9.38742
-17.6626
-13.1182
-15.7165
-8.8873
3.06586
1.3556
9.44292
4.72166
-7.42398
-8.14992
0.502047
7.53353
18.7216
16.335
11.4731
9.26515
-1.71809
-3.14617
-1.36244
5.71957
9.30094
6.16068
-2.94936
-2.38975
-1.13481
2.13046
3.23035
5.22293
5.17183
3.69643
2.93969
3.46936
-0.953247
-7.60425
-6.31375
-9.59032
-18.9112
-25.8152
-18.2258
-14.3675
-13.9155
-6.63951
10.521
14.3569
17.97
21.082
25.9497
11.8802
3.93823
1.34384
-11.4299
-14.5915
-14.3104
-17.3533
-10.0282
-5.14491
1.94514
10.0601
10.9356
15.02
14.3365
12.034
10.3216
-0.784055
-12.557
-16.5988
-17.5601
-12.1871
-10.1736
-8.79251
-10.2719
-2.83928
3.58533
12.2018
14.3197
15.1496
19.8581
9.55888
-15.8669
-17.7942
-7.06538
4.95311
11.3315
13.4703
6.83517
1.25262
-3.28769
2.96893
8.64296
10.2254
8.88475
1.50977
-1.29216
-2.5203
-5.89295
-4.74465
-9.6192
-4.26305
10.029
11.3094
2.91293
-8.18154
-13.8015
-10.4351
-6.94374
-1.91434
-1.88561
-7.62693
-8.62632
-7.9653
-2.08936
8.54349
8.55098
-0.212045
-6.09226
-3.09745
-3.32705
-0.755311
2.72009
0.0387561
5.6799
4.22765
-4.32811
-9.68059
-1.0449
3.32388
2.93242
-1.42675
-4.85815
-0.0520969
8.32059
0.535395
-0.363916
9.10865
10.9517
9.14898
9.85611
2.31279
5.23147
3.45079
0.242995
1.98084
5.2326
0.244766
-12.3851
-25.9548
-16.239
-4.56014
-0.429946
1.69151
1.52319
2.28821
2.802
3.10245
5.67192
1.38816
5.04534
15.3469
11.3343
3.65255
-8.48019
-26.0165
-18.9044
-10.3635
1.94835
15.9889
13.035
7.82947
1.39043
-7.1079
-5.77462
-0.381731
2.48024
4.27258
0.308139
-2.34492
-3.12226
-5.02313
2.28398
5.4498
8.06195
18.2291
17.9308
15.4096
6.51174
-7.79357
-12.5309
-18.6942
-20.3976
-16.4287
-12.8898
-11.3871
-11.2323
-10.2425
-11.0975
0.053658
9.551
11.5914
6.02828
12.0548
7.38736
-3.32801
-8.36766
3.83579
16.1255
20.2323
14.3916
11.9687
6.15151
-0.810222
-16.2665
-19.9611
-6.46136
2.99102
10.7554
6.20365
1.02638
-0.994392
-1.60556
-5.3179
-1.03432
13.1939
9.35405
-4.73409
-7.59746
-9.29122
-10.8532
-10.5159
-7.21976
-3.73238
3.77825
2.04392
-10.6387
-14.2017
-15.4113
-9.10992
0.271681
2.98859
9.27446
13.4219
17.4391
16.918
15.7342
18.9564
11.6908
0.241944
-12.47
1.79432
6.96793
-0.843318
-11.1051
-10.8511
-2.72191
5.24892
4.39407
-2.33153
-6.82188
-2.15263
-3.09897
1.26776
7.24194
6.49138
12.6645
4.16058
-7.92446
-7.71836
-4.20136
-12.5623
-12.7102
0.87202
7.21397
5.81753
-8.04401
-16.2119
-18.3089
-17.7053
-20.0726
-12.6463
2.60751
9.07593
6.81193
11.9239
11.7738
8.06971
13.6222
11.8409
6.02665
5.20235
1.18964
-3.87872
-5.20997
4.24131
13.7152
17.5961
14.9077
10.3244
3.84329
-2.7379
-5.71642
-9.35836
-13.1643
-24.9126
-27.1385
-11.2357
1.96015
10.886
14.697
14.7492
14.6227
2.01739
-0.990323
-3.95346
-9.12916
-13.7534
-7.8176
3.20385
11.175
6.72512
0.756126
-2.59566
-12.9539
-11.7124
-4.36007
-3.96939
-1.66511
5.05874
11.0062
7.0033
0.658727
2.94703
2.65435
0.639917
-3.21515
-1.49749
6.28064
3.675
-3.67226e-05
-0.0792379
-12.451
-18.2473
-5.27011
5.56636
11.8109
14.5156
4.78546
-3.66981
1.52665
2.40964
5.23592
3.41421
-8.76688
-23.7417
-16.582
5.82166
9.17635
3.6559
-2.54469
0.203098
8.74239
12.3716
14.0339
19.8708
14.0641
-3.34782
-13.513
-13.2313
-16.5345
-18.6282
-18.8177
-15.1159
9.8509
24.4812
20.5059
5.04645
-6.51643
-2.46613
1.94272
-0.239672
2.29922
2.89723
3.76349
-1.81698
-8.06811
-15.1276
-14.8118
-6.21491
-3.19469
7.3874
10.8635
10.1269
7.37165
3.38774
-3.6391
-14.6652
-13.6587
-5.39889
3.96215
10.1836
9.77191
6.53241
1.56806
-5.87075
-0.561401
3.1152
1.37067
-0.615617
-2.62806
-6.13566
0.248835
9.55508
11.1667
15.6207
11.7549
7.37731
2.03548
-9.36609
-11.7893
-12.0877
-14.1334
-12.209
-5.21636
4.75349
5.43148
4.7357
6.39516
6.19789
0.639972
-4.88351
3.05337
4.72566
0.440023
-11.6344
-17.4321
-13.6444
-8.49077
-3.48444
4.41982
12.1051
7.65264
10.0406
3.70139
0.0888272
-2.29275
-4.49705
-2.32117
4.29052
10.9585
11.4409
0.333928
-3.10576
-3.65304
-4.66428
-6.70157
-9.23757
2.00642
5.38021
-5.71325
-8.54447
5.80709
17.5922
19.4353
12.7443
8.01832
5.62501
-11.4589
-19.2215
-15.2548
-15.0422
-18.0369
-17.1081
-5.30691
7.34129
10.7426
10.9725
8.18981
3.52508
9.30786
8.55215
4.23801
4.31796
0.747915
3.11879
2.72941
-3.58794
-2.01112
-0.171419
-3.18022
-7.57874
-10.9369
-4.32718
-6.15149
-4.44284
0.370588
-2.02218
0.760162
2.73784
8.12354
8.85075
8.81009
3.29205
-2.2895
-8.361
-5.33161
-1.28727
4.00515
0.786678
-2.18595
0.925381
-2.7233
0.808226
1.5485
7.71685
12.147
6.87304
-6.22573
-8.15992
-4.92966
-4.14397
-0.925223
-1.99689
-1.7609
7.5045
5.81007
5.03389
-0.0273091
-1.10235
-6.80052
-14.3504
-11.9302
-4.55509
2.43457
5.45246
3.15349
8.05149
7.57749
2.6807
-1.60911
-6.84314
-9.05296
-1.68692
-1.44743
-8.39271
-0.83048
10.2199
12.2127
8.77316
13.2881
16.984
14.0324
-2.27339
-5.23086
-15.4207
-19.0688
-16.3572
-8.63935
3.62599
3.4276
3.89602
-0.962626
-6.60102
-1.73497
5.75503
2.23505
0.570277
3.50804
8.47926
9.52029
6.16075
0.0216956
-10.0406
-19.5571
-17.3417
-5.67633
-1.45528
-1.61169
1.07315
3.04366
5.2254
2.49009
-1.71512
2.37567
6.83161
4.67953
7.2146
14.2896
12.3984
1.28699
-4.67021
7.89535
10.6994
5.90325
1.17406
2.46228
-1.35319
-14.0568
-17.9126
-9.79574
-4.76453
-7.78734
-10.2072
-11.1695
-10.9986
-6.71285
-4.77665
-2.82736
1.51054
3.10538
10.125
11.2827
7.58209
4.92106
4.72987
3.72271
4.66537
11.712
9.22671
7.00295
8.2921
9.30729
12.4256
3.55991
-8.70393
-8.5431
-9.87404
-11.2431
-10.0311
-2.21525
2.16328
-5.02849
-16.1694
-11.1511
1.13754
-6.17761
-7.24873
-3.20343
-0.858283
-0.580067
0.781409
0.348556
11.0101
20.9675
18.2412
14.4398
13.3
5.7169
-0.0347978
-6.67841
-8.57156
-4.68921
3.62291
3.69606
-10.7499
-18.3742
-20.0203
-15.789
0.382788
8.79874
1.66617
5.84731
5.83108
3.79472
1.33
-10.2481
-14.0135
-6.50116
-16.3643
-14.9753
-1.12809
7.13053
11.1297
14.4361
13.7225
16.8185
23.763
22.0288
12.8032
0.680706
-3.65937
-4.99125
-7.48809
-12.1984
3.20916
8.95258
6.16796
-3.82823
1.59252
4.64682
-4.74858
-18.5668
-19.641
-16.1004
-8.7726
-5.02862
-6.30877
-6.71
-12.957
-7.88224
2.86939
5.30326
1.21887
0.420737
-4.63671
0.104357
6.2079
8.73679
7.0556
14.8891
18.6677
14.4712
7.56437
5.75291
3.31159
-1.06656
-2.38273
0.0589253
2.38278
0.364129
3.72038
0.598562
-7.4807
-5.25198
-1.99056
-12.1201
-14.1143
0.151125
12.9073
6.6026
-6.34236
-6.5247
-3.86511
1.36006
2.23444
0.949904
2.37597
1.40971
-2.73908
-8.72766
-8.96533
-4.46905
-4.40827
-12.9695
-11.1012
9.12818
19.0292
18.0227
12.1257
6.50965
-0.256713
-0.84107
5.1688
1.25852
-2.50648
-1.0365
-6.79019
-14.4973
-17.192
-12.9719
-9.19463
-5.04117
7.32402
19.4386
10.0768
2.44407
-3.56592
-8.89343
-0.289996
3.18477
2.19556
4.00296
-1.44042
-6.44682
-9.96222
-4.00253
-6.74493
-1.1523
12.1205
12.456
7.34108
7.8536
4.68265
-4.0337
0.470563
15.9391
32.6964
24.4852
1.57327
0.465229
4.91569
5.34831
1.34666
-5.42385
-11.9919
-17.1512
-10.3478
-6.57999
-8.32135
-14.4019
-11.4716
-9.18346
-12.3025
0.0370768
5.56034
-3.6454
-16.3321
-14.0735
-6.77667
-6.30448
-8.69467
-9.46966
-4.10606
-1.4438
0.129868
6.64273
9.50096
6.45366
7.00664
7.46028
2.08769
13.5981
22.4831
16.6562
11.8893
3.14105
-2.83358
3.22856
3.01596
4.31937
7.3191
4.65504
-0.0355219
-3.35063
3.44079
1.78959
-8.68067
-16.9654
-21.5146
-11.6944
6.3501
5.83012
5.17941
6.07219
-1.09287
-3.37158
1.03402
-6.72163
-11.4192
-8.78945
-7.07845
-0.302758
2.90725
10.8773
10.8279
6.99483
0.832915
-1.59806
8.41327
10.4965
1.36396
-4.07012
1.48343
3.36637
3.45997
3.12687
3.3012
0.488749
1.54945
-3.89312
-12.4968
-5.44288
-3.88977
-15.0542
-5.30211
-1.78733
3.07835
6.06123
1.83804
-2.03709
1.1057
-1.08375
-5.04644
-4.1864
-3.39873
-6.75681
-7.70215
-0.377991
3.02909
10.1303
6.11372
-8.35311
-7.56433
5.03755
3.46212
0.694213
-1.86785
5.69006
3.96779
4.31448
1.90953
0.264232
-3.21488
-8.47599
-7.98112
2.10652
4.88441
8.30767
7.8081
3.04145
8.77176
9.63083
14.451
9.23013
5.71863
3.4932
3.83585
-1.54483
-6.33933
-12.8716
-15.9924
-15.721
-4.93591
-4.94045
-6.38019
-3.73716
4.75172
7.57994
-0.946433
-5.06123
-2.67374
4.72903
-0.540871
-3.30013
-5.81595
-9.58919
-17.1342
-11.8639
-2.35148
5.35427
4.83159
3.75461
1.56307
4.49936
9.84009
13.1241
11.4792
6.57676
7.93012
5.13983
0.54041
-7.42699
-8.91197
-4.2804
-3.98969
-3.30171
4.17259
9.13843
12.8665
12.1644
10.8975
9.2295
6.48509
14.5376
12.7887
1.20916
-8.89955
-11.6568
-11.7479
-21.4293
-21.236
-17.5937
-15.0169
-6.66277
-10.4337
-14.5924
-3.91492
6.23094
6.38295
3.92927
2.34007
12.0411
1.63944
-5.15782
1.5467
5.39946
7.90145
3.58667
2.33704
18.7026
21.1279
16.3869
12.7346
5.00978
-2.56488
-6.31246
-16.2353
-17.298
-14.7239
-11.4169
-11.0071
-15.7224
-7.09047
-4.73128
-5.00224
5.30178
7.28993
13.3742
15.9986
8.69151
2.5157
-0.901079
1.82393
2.73796
3.99641
6.99937
7.64395
4.97055
1.83243
-6.3458
-12.4305
-11.7511
-4.89137
-4.10657
1.59416
2.03462
3.82546
-3.42122
-12.9311
-7.72924
7.00943
10.7951
2.07226
-1.38081
1.35608
3.13594
4.95748
3.38592
3.70399
6.85503
7.54581
6.47817
2.60309
5.21964
1.31419
-10.8045
-13.6882
-2.80724
-11.19
-14.6489
-8.78249
-8.42867
-13.3194
-17.9991
-6.56187
10.8881
14.045
3.32434
-4.5283
-6.64184
-3.08048
4.91089
16.1566
18.1466
12.9072
7.99207
5.17865
3.90311
13.4898
6.73393
0.882336
3.32311
7.00124
5.47539
-3.57164
-13.788
-13.4403
-8.43985
-2.23676
-0.515398
4.63463
-2.18028
-9.99309
-9.74062
-7.32178
-0.288332
-4.49286
-6.89084
5.18893
6.52588
3.03063
3.86659
3.42638
10.2983
10.0915
3.46317
1.09976
-4.82535
-8.63946
-7.4817
-8.74358
-0.858059
-2.06173
-10.8498
-6.07975
-3.13066
-1.53765
3.97958
10.1137
13.7538
12.135
2.12504
4.27952
-1.96465
-5.23392
-0.565779
-3.96432
-6.7745
-0.79846
4.94464
4.41773
7.87279
11.2416
19.9463
11.066
3.16027
-4.4738
-13.0759
-15.9918
-18.0966
-23.4753
-11.7368
-2.30133
2.58472
6.5719
4.76963
-4.06524
-13.7126
-17.447
-7.86352
11.7069
8.87893
5.14964
6.75428
6.88105
7.61208
9.46881
9.4427
16.2516
17.2497
16.6077
10.6729
-5.0583
-14.0691
-18.7686
-8.74899
-1.75437
6.85965
7.77058
-5.5651
-20.9861
-24.4188
-25.9813
-23.5235
-6.89875
-3.83096
12.1266
21.7271
17.3709
14.4939
13.5001
10.4585
-0.363413
-7.51504
2.16409
5.28103
2.97165
-1.19863
-0.625264
6.3338
0.724573
-2.30189
9.64766
7.86946
1.87933
-4.12275
-10.5547
-5.37266
-4.1817
-4.88413
-7.58636
-8.12637
-2.23017
5.96544
5.33343
-3.62601
-7.73837
-9.11171
-3.59558
5.38216
3.82336
-3.85432
-7.73009
-7.93336
-7.22443
-0.155934
12.3592
10.4955
8.08893
13.5823
16.5388
10.9546
2.38838
-1.9412
-9.70249
-2.87018
5.09585
3.46551
1.21927
-1.32066
5.88954
13.3515
9.76303
1.37957
4.15648
6.7647
-13.0385
-28.4908
-21.1001
-20.0358
-19.8304
-11.8832
-5.70189
-2.65128
0.617924
-5.94158
1.03679
9.26661
5.52513
5.46079
6.19984
4.95349
4.07864
6.75724
0.986204
3.01959
13.3717
19.5268
11.7285
4.00539
3.30074
0.737706
1.15085
-0.595079
-4.50422
-3.88186
-5.9859
-5.66374
-6.16664
-4.70357
-6.89362
-12.1436
-10.0239
-2.2305
3.16004
-1.56706
-0.466962
11.7997
10.2323
0.289004
-3.99467
-5.02249
-2.14294
0.728308
0.146558
-5.14058
-5.01541
4.46712
3.23118
-6.71012
-3.79824
-1.44541
-2.84981
-0.0969504
-1.25832
-0.0244747
2.74763
-1.7921
1.3655
7.82599
5.42383
2.14309
3.3791
13.2397
15.8746
16.6636
12.7608
6.67164
-1.38648
-3.7376
-7.0386
-9.10393
-8.53656
-11.1012
-8.17068
-0.0819616
3.57363
0.742029
-4.61406
-7.20359
2.05515
11.2449
6.64638
-2.82934
-10.0482
-10.3421
-9.1952
-10.3525
-6.35378
-0.746976
-0.934565
3.2137
5.89265
4.1233
3.56069
1.36774
1.48763
6.39615
10.0508
9.28986
-9.1324
-24.2017
-24.457
-21.1437
-22.8021
-11.9262
6.76085
15.5987
17.2515
20.4552
19.4667
15.6217
17.3545
20.9248
18.7883
15.2651
14.1514
8.84392
1.77512
-6.90322
-0.599673
7.87939
0.00613675
-10.975
-12.6951
-17.0724
-20.4048
-23.5202
-24.4968
-14.8256
-8.3522
-1.89581
0.902026
0.276431
2.31884
2.73867
-4.48441
-4.04521
-0.929571
1.35027
0.491887
0.0653007
5.68725
11.6896
6.06247
-2.90522
-2.88308
8.05494
10.0078
3.33339
-0.523785
0.194603
2.28233
-1.39522
-8.66309
-13.7026
-5.39065
-4.1592
-2.767
6.85098
13.1424
11.8355
8.73264
11.0928
18.4789
12.2597
2.96913
-10.2743
-11.3781
-9.96986
-7.72813
-10.7319
-13.6883
-16.3088
-6.15275
5.40649
8.16766
9.74436
3.02378
0.168612
4.15612
8.33956
8.24381
3.60556
7.6268
11.3734
5.61496
-4.54018
-14.5137
-13.0237
-7.98041
-5.72616
-2.16036
6.15236
8.07308
2.28521
-4.20976
-5.02079
-0.325621
1.21115
-0.27859
0.392906
-3.25484
-9.51845
-14.5942
-6.18557
9.91814
16.1866
21.0991
9.12116
-0.367846
-4.34281
-6.81889
0.0655524
1.31174
1.96969
0.536405
-2.21305
-2.39272
-4.10398
-15.6746
-6.83615
10.1913
18.4526
13.6701
5.2782
-2.59889
-5.55399
-17.2584
-15.149
0.220647
12.0147
14.8648
9.81453
-0.273502
-7.3828
-12.018
-21.9717
-24.0507
-6.67851
12.8195
9.56068
2.71849
-0.374284
-4.84085
-4.17463
-4.16391
-6.16896
-1.15565
5.79836
1.3415
-5.51831
-6.94162
1.1444
10.9913
18.0614
8.02232
6.7647
18.7308
11.662
-5.28278
-13.8196
-7.94865
-4.21662
2.78931
10.6955
4.74147
-2.75907
-3.45041
-1.98754
0.0149166
3.87945
13.5981
11.7885
3.93786
1.4849
6.00604
3.37994
0.180911
-7.31341
-9.8225
-7.17253
-11.8317
-15.2728
-11.0447
-13.3173
-15.5802
-4.49724
2.58311
6.5496
8.15773
5.59596
-0.426984
-6.72297
-8.65032
-9.90313
-6.43912
9.82116
19.6471
20.3493
25.3863
18.0924
6.96999
-0.36377
-12.0771
-12.0164
3.30001
6.53907
12.8803
19.9333
20.2804
1.23508
-20.6047
-36.2769
-44.9591
-48.8999
-33.5174
-13.2786
2.54485
12.0183
13.3632
9.16007
11.2998
19.9285
16.7012
7.3111
-2.358
0.680992
3.02675
-12.3759
-21.3525
0.839134
19.5566
32.1995
34.8565
38.5705
32.6206
9.69366
-13.4282
-18.847
-16.937
-9.36611
-5.00334
-4.6854
1.89396
7.27197
5.6933
-3.77509
-6.49056
-19.2204
-26.2685
-28.0834
-26.8965
-19.4807
-9.0243
3.71345
13.9017
10.241
5.69685
2.46216
1.93825
2.44142
-2.1144
-12.1565
-3.05563
5.21208
7.49412
11.3268
10.9849
10.2626
8.44559
10.8483
9.29109
2.66681
-1.23018
-10.4085
-9.38717
0.880024
4.40203
3.17145
-4.43869
-4.35673
0.873832
11.6377
10.6125
0.889427
-5.05411
-17.869
-33.4889
-25.2235
-1.35211
4.5102
9.43329
19.0849
24.6109
26.0328
13.8076
0.488131
-0.501232
1.04768
-2.37466
-6.44826
-9.03672
-10.4189
-7.5769
-6.13157
-8.11139
-2.38944
9.74815
5.72214
-2.3317
0.513201
-2.63242
-11.9966
-19.0947
-14.2753
1.57172
17.2365
16.1605
12.8629
6.56161
2.68346
3.08341
-0.256537
-4.25051
-12.4801
-19.644
-9.97418
1.40771
1.78936
5.43477
-0.429288
-2.43978
8.07091
7.43167
9.15235
6.55458
-4.51583
-7.4293
-2.21466
1.57695
5.8065
10.0161
13.0468
9.27433
9.28119
10.0735
6.33103
0.536311
-11.1947
-25.2601
-23.4858
-15.9956
-2.59805
4.11628
1.84835
-2.18415
-6.29434
-7.68578
4.32094
9.7764
13.7192
8.13788
6.29426
14.3407
11.1931
12.1026
-1.60926
-21.7553
-28.4347
-24.6894
-18.933
0.206754
0.951447
1.66041
8.84019
5.95158
9.57028
18.0432
10.3019
10.9394
3.96093
-6.87361
-10.5679
-14.9073
-9.4879
-8.43914
-10.2839
-12.201
0.77004
13.8774
13.1024
12.025
15.6258
10.5663
-0.84154
-2.69433
-1.31642
-2.76554
-6.80171
-8.1692
-1.07594
16.9236
17.2385
1.53063
-8.3699
-6.37799
3.4443
11.2872
8.22969
9.44279
3.52357
-7.64624
-14.2292
-9.90932
-4.25925
-4.59392
-2.34204
-0.954035
-8.3933
-8.12174
-11.6475
-19.0105
-14.4206
1.23944
3.70949
7.84792
3.00561
0.65263
7.46864
-0.481456
7.56329
6.93524
-1.91461
-0.14167
3.71096
1.34415
-1.7457
-0.196314
10.8863
15.2932
10.7747
5.40461
7.91328
-5.78692
-13.0564
-21.1983
-9.64908
10.2803
17.3094
14.3457
13.7654
6.51645
4.18337
3.57225
-5.71023
-5.47836
-11.9722
-21.6459
-13.898
-8.81208
1.59113
5.0683
-11.8307
-16.642
-16.2167
-5.65047
5.35908
12.6872
8.04702
7.11401
4.58826
2.77195
1.53354
-8.21682
-9.87646
-0.232048
9.82211
13.7392
8.32909
-0.557418
-7.10205
-5.0773
-0.68671
5.83517
19.8528
23.9394
14.4225
2.84266
4.44431
12.2008
8.73396
-0.471512
-16.2237
-23.8252
-21.2809
-19.3387
-8.80023
1.14673
-8.70874
-12.2791
-8.06466
-6.19655
-4.30422
4.07306
9.70142
7.37584
6.39088
3.8778
-4.40544
-5.34477
4.43754
6.84662
7.41788
9.1283
4.07725
-1.10418
-2.76817
0.488317
16.6027
23.7936
13.7693
3.38897
-4.18313
-8.59049
-13.8379
-13.5138
-8.59529
-7.40184
-5.44841
-3.07333
-8.70407
-14.3362
-8.87628
3.71052
13.7032
13.0778
3.69359
-3.60757
-5.76083
-5.11255
-0.140991
3.32577
5.55453
11.6762
4.40589
-7.27379
-13.7425
-6.42094
4.78434
-5.82436
-23.6879
-9.94065
11.8533
25.318
30.5682
27.3272
23.3021
21.241
6.53136
-9.24148
-15.7225
-8.18351
-17.061
-28.8547
-23.6756
-13.8675
-5.56251
-10.1506
-11.5042
1.74116
13.2716
11.423
7.24095
9.07131
5.74924
-0.0156971
-4.58698
0.946118
3.87812
8.94591
15.8575
9.55035
6.99129
-1.14658
-3.51901
-0.264836
6.50707
5.31993
-2.79506
-15.8297
-17.3361
-15.027
-12.6563
-12.737
-12.6969
-4.29573
4.30275
1.87144
6.13502
11.2956
6.04693
-0.118519
-8.93312
-7.43567
14.7859
18.2855
4.06731
-2.30136
-2.19944
-1.03571
0.776945
-0.355825
3.97669
4.30257
6.80486
6.46182
2.55785
-3.49615
-7.31108
-0.362473
14.9407
12.6718
12.5999
7.33872
-13.3734
-16.8664
-11.0087
-4.12069
0.588971
-7.0732
-2.85233
0.868616
-3.33529
-7.62825
-7.56576
-8.6209
-8.64019
5.17252
6.89165
12.648
13.2878
14.4527
11.6872
1.4737
-5.73803
-7.20294
-2.26025
-3.97026
-13.2443
-10.5448
-4.04051
1.356
3.21826
-5.57132
-11.8655
6.03994
11.1382
-0.0385338
3.14585
-1.46713
-19.9343
-25.0589
-12.5839
7.69222
18.7967
17.2605
3.21348
-1.95478
4.04822
7.30174
6.02753
15.6542
11.4049
9.51559
8.41351
0.476973
1.52601
-2.15189
-2.22068
2.56016
2.87665
0.966661
0.922594
-1.17871
-3.72212
-11.2942
-19.2189
-15.3122
-6.10873
-3.70684
-1.87289
-7.04047
-4.23527
3.74566
7.30326
6.00871
3.97176
4.80503
-1.51722
-7.2921
-8.19258
-4.89972
-0.603893
-0.788981
8.3161
16.4447
12.6714
3.5573
-7.75234
-5.06053
1.92318
0.694778
-1.03518
2.72785
0.0910697
-9.09087
-11.3657
-11.2477
-4.5444
3.72305
7.59841
12.3365
4.20202
-3.03781
-3.48027
0.665508
6.78792
6.44321
2.58006
-1.77011
0.372027
4.24677
1.64671
-1.85344
3.25405
3.126
-0.513796
-7.89737
-8.27146
-5.52299
4.88656
2.56067
9.01709
16.7502
9.18803
-4.90797
-5.3065
-5.51541
-3.11156
-2.37702
-8.5082
-8.15578
-4.26679
-1.50369
3.608
1.76674
-0.52455
-2.96951
-4.52398
-1.27088
-7.25114
-8.32636
-6.8057
-10.9255
-5.37189
-0.187334
-1.25684
5.04456
10.9477
9.62205
4.32953
3.24465
4.20484
3.9987
-0.25369
2.06043
11.0408
16.4609
9.23911
-1.12824
-0.69506
-2.08263
10.9115
11.3317
6.50087
-2.41905
-11.0601
-8.29973
-2.97983
-10.9803
-10.1344
-5.83223
-1.09612
0.365926
0.36186
-2.25935
-6.44338
-11.3517
-6.54342
-7.74924
-12.804
-9.36594
-2.83464
10.2933
10.6082
8.84265
20.4412
15.5673
7.25706
5.2833
-1.374
-4.19759
-9.9759
-14.8291
-8.84291
-7.36241
0.891307
18.0344
20.2868
20.4769
23.1808
21.4568
11.7801
-3.54287
-21.6808
-23.2816
-25.0467
-29.0791
-18.6351
-11.3009
-15.3708
-20.0948
-17.4078
1.65804
12.5085
6.54739
0.381218
1.048
2.18688
11.7633
16.5113
16.8362
14.9087
22.114
23.3494
20.339
16.1425
12.893
-0.272389
-2.92753
3.18966
7.33649
6.52735
-0.909643
-11.5292
-14.5877
-17.2541
-9.60912
-9.42276
-6.01632
-8.01211
-7.73126
-5.10037
-12.4762
-16.1678
-15.4155
-15.7035
-1.0215
-2.57337
-12.3408
-15.4022
-17.7178
-12.6643
-12.6491
2.95655
18.2138
23.2222
23.4147
25.9635
20.7716
15.509
3.89525
0.192353
6.89174
9.43005
8.1422
9.21025
3.52996
9.17272
9.65509
-6.49374
-10.6375
-14.6285
-9.19298
-4.29763
-0.0517877
5.92686
6.08768
0.664571
-7.34193
-3.46481
3.19068
2.25219
-2.08917
-18.2142
-24.7048
-18.4569
-5.59572
-2.95452
-3.15588
1.34452
10.3387
15.9828
9.95142
6.25344
10.0111
2.9104
-0.385836
-0.124115
-1.59263
2.41752
7.34799
-3.80782
-8.62068
1.76747
12.6205
13.1901
9.20124
-5.82649
-18.2491
-20.6734
-13.6781
-4.00588
8.50663
15.525
24.8405
24.2699
-7.54827
-22.2139
-15.3972
-10.921
-17.1792
-24.3291
-16.7149
6.12165
-1.53944
-15.0942
-16.0398
6.34096
28.1463
34.9466
21.2813
5.31058
-3.87151
-14.4392
-12.0719
1.3221
13.8737
13.5493
7.83872
8.63754
7.11963
8.98647
8.82178
4.77596
6.49903
8.60571
9.91077
6.39446
-1.02675
-4.91005
-0.494812
-3.12647
-11.9436
-16.9289
-18.9525
-13.0441
-16.0203
-13.9992
-3.77653
-9.11168
-8.06599
-1.94632
3.11299
-5.10339
3.71839
13.5179
8.56215
3.0128
-1.78205
-7.38147
-10.6433
-15.3029
-21.2624
-7.09922
4.16116
5.44602
16.3316
18.1392
16.1227
16.4765
6.0268
1.2472
-5.17034
-4.87836
-0.905702
-2.06061
-3.26272
0.516242
7.38095
12.5511
14.5355
22.3098
22.6382
5.53447
-14.828
-21.2959
-15.5116
-6.72788
1.08701
-0.420414
-3.15109
-1.61284
5.11919
9.93021
8.16182
2.03546
-5.83064
-15.1498
-15.7658
-9.61671
-11.5197
-2.2466
9.00596
8.55342
1.08466
-1.61521
1.4902
1.72099
-9.78385
-13.6018
-2.96574
-6.19245
-21.6366
-14.6532
3.71153
2.3898
-1.31959
-0.613071
9.56924
18.8531
12.9634
15.2225
21.028
21.3199
25.0882
20.9154
10.6996
2.68794
-2.60656
-12.3174
-7.98486
-5.1708
2.15972
-1.08975
-10.3997
-2.71629
-11.9729
-26.9641
-31.572
-30.3587
-14.4831
-3.58465
1.73677
6.29122
-1.39468
-4.45507
-4.16741
6.56553
12.1346
10.5871
10.0578
13.4479
12.6137
4.03401
-13.2608
-18.0032
-7.3934
10.4019
14.6571
14.4249
18.4578
17.5804
10.0725
-1.47348
-10.0888
-4.721
0.658962
2.41817
-3.27899
-11.9376
-10.5111
-8.912
-2.33406
6.34328
11.7337
2.25238
-1.86817
-1.33819
2.25363
7.62462
1.52182
1.19293
-5.0923
-2.6819
0.47206
-6.70784
-10.4797
-16.5629
-22.0317
-6.97075
3.74125
10.0526
9.70646
0.805929
2.28443
16.2807
21.2718
26.2963
5.49202
-19.0213
-36.1586
-34.7743
-16.7761
-8.28253
1.60553
6.10718
11.6204
9.23595
16.385
23.6002
17.1611
6.79279
-1.51978
-7.93755
-15.8969
-8.74935
-0.0864945
-7.27887
-0.0238997
11.5006
15.2547
11.0224
4.0895
1.46165
5.09906
3.63655
-1.18342
-1.42239
-6.77194
-9.44227
-11.7353
-9.47114
-8.32841
-11.2034
-5.86817
-6.77245
-10.0711
-13.8347
-10.9985
2.70618
25.2408
23.4904
4.69855
6.73689
0.435752
-6.11714
-3.38711
5.38755
20.0415
17.9333
13.6198
5.53329
-11.9657
-12.5156
-4.9292
-10.3342
-11.7303
1.14561
16.9807
13.2344
-0.16897
-9.37627
-11.8826
-16.2109
-23.7949
-14.0932
0.107644
-1.52322
4.40296
6.81722
2.63224
2.48367
10.7468
12.5935
22.2004
19.8643
8.73723
4.61263
6.16335
-1.7429
-24.4351
-26.7951
-0.576315
5.4678
4.99162
1.78885
-3.04952
-1.31043
-9.1717
-5.71966
5.08937
1.29978
-1.37268
8.29988
1.8407
-3.54601
-1.3273
0.106111
-8.05602
-17.1277
-11.3958
-4.22591
-6.2909
-5.32052
-2.31812
5.16157
3.71432
11.9203
16.1691
14.9527
10.0633
7.03916
7.83526
7.78661
-8.40173
-17.1156
-4.66496
6.43194
1.18044
0.868487
4.66764
10.0995
6.38596
3.27702
-0.0970598
-7.53617
1.59632
3.19338
-0.377971
-2.29014
-2.98357
2.07275
4.88034
-7.92656
-11.51
-15.1814
-24.279
-28.8691
-16.044
-4.51845
-6.75315
-4.03411
1.89347
9.61773
23.7306
25.5442
15.6112
7.35427
-5.83936
-10.0002
-0.444908
0.519522
3.87622
16.7552
13.8125
15.0983
18.9837
8.67313
-4.82184
-12.229
-10.1468
-10.7966
-12.3375
-11.0204
-2.08743
2.38839
-0.486821
0.0899996
-1.1527
4.64063
0.839264
4.75321
4.53488
-9.07203
-6.18073
6.74094
0.166301
-2.65592
-0.335264
6.8922
13.6
-0.986003
-12.5085
-1.58723
-2.52575
-6.39064
-4.56686
-5.56341
-2.61493
-2.91282
-7.76916
-6.30092
2.6153
4.49597
4.81707
9.76562
7.61882
1.64394
-0.798973
-1.54294
-5.17298
-3.91884
2.17819
-7.66388
-0.491462
11.8564
8.82667
0.580673
0.806085
-3.95656
2.98327
5.82554
3.26233
3.75986
-4.38137
-9.56715
-4.22129
-1.14444
1.87013
8.71803
9.4505
8.42902
7.85479
3.45222
-2.45404
-13.8847
-25.7234
-15.6636
-1.32429
5.18215
7.66044
-2.54651
