-5.22007
50.3834
24.396
41.0986
52.2515
34.1361
52.0892
59.8304
63.0002
68.8387
10.9185
-63.1753
-79.3262
-68.4087
-42.1377
-33.9467
-15.214
-3.59471
32.765
28.3347
24.5122
14.562
11.5919
-18.5291
-44.3277
-35.9238
-20.5235
-55.1357
-49.3842
-35.4387
-5.94652
7.68967
-3.10869
-0.794104
43.6738
16.0262
15.523
7.78334
-0.187254
30.6212
26.3561
15.1704
34.2737
5.98003
0.933738
-5.4483
-15.5216
-2.78998
13.7498
50.4424
92.0858
34.0303
-44.6392
-66.4782
-71.4591
-63.5195
-45.3092
-4.67278
38.6299
66.0175
34.0594
30.447
40.7736
52.8202
75.3452
64.3287
39.1493
66.8063
33.2458
-75.3929
-194.942
-206.689
-156.562
-98.1284
-0.251373
102.305
108.543
76.3739
-2.77086
-68.9691
-112.779
-130.555
-114.769
-78.0941
-61.525
5.12651
51.471
69.9099
110.834
151.307
174.867
181.945
163.1
131.684
25.7443
-23.1505
-26.1257
-24.4868
4.55321
21.1429
45.0823
14.6096
-57.9343
-40.3085
-26.5839
-60.4665
-77.1575
-96.4516
-91.173
-72.523
-65.228
-44.2446
-15.9372
-12.1418
-6.81751
-5.60531
-33.2123
-76.2656
-68.19
-24.234
-40.3745
5.43343
82.4337
89.193
64.549
26.7223
14.2589
11.3161
-3.84539
4.97567
39.0668
48.4319
41.2415
15.0448
-8.35319
13.3125
30.8807
52.5231
79.9502
63.0771
40.8236
-6.10713
-34.7741
-68.1004
-77.5064
-73.1117
-108.211
-82.4293
-21.9097
10.0339
29.9344
44.4975
59.2029
85.6959
69.5237
4.16242
2.31895
14.2307
-2.36825
16.895
57.756
46.158
44.7144
-50.793
-112.868
-125.12
-103.296
-70.7636
-39.8861
-10.0268
28.054
63.3531
10.085
-12.2774
-1.049
8.25026
9.97324
17.9599
54.006
102.776
43.4739
-1.99217
-46.0086
-32.9009
-21.5257
-6.96994
28.4095
44.9649
22.2385
-6.66487
-46.0099
-75.6042
-65.2136
-66.648
-10.7842
50.4851
37.705
30.0593
-8.95735
-62.1701
-38.457
1.10827
68.4014
130.645
96.4202
41.766
20.6306
-8.12209
-25.4738
-41.3715
-8.53327
15.4862
50.6626
48.8938
-35.8255
-83.7398
-67.6359
-22.5158
22.8675
13.0867
9.46975
-13.6178
-84.0483
-130.268
-101.661
-72.2567
-40.9774
3.98629
67.6447
107.549
89.2383
59.6585
23.2353
-3.32243
13.5356
27.1497
34.2831
38.0103
37.2766
60.1991
6.27837
-47.3731
4.03814
27.3537
18.7406
24.2378
27.8393
2.64233
-92.5282
-156.622
-140.07
-108.878
-43.6339
20.2475
62.0341
105.685
119.303
84.2024
5.14068
-36.2375
-21.9056
51.5911
78.5537
49.2494
60.5156
37.027
-85.3066
-186.823
-198.886
-157.16
-61.2962
25.2243
64.9471
82.8965
87.9548
-1.35046
-33.4594
-44.6555
-34.1946
-16.8859
32.7555
54.9833
22.9906
24.6131
59.0407
77.6484
132.917
157.384
157.577
152.327
22.2772
-72.1886
-77.2022
-69.4101
-79.4644
-62.8741
-79.1186
-92.098
-134.945
-147.434
-99.3747
-74.3733
-72.0929
-28.0013
-0.845757
68.2347
112.373
80.893
40.5405
32.5258
46.3678
45.0053
50.409
62.8279
12.4919
6.64719
2.92777
-47.3753
-85.9953
-108.8
-110.531
-105.262
-44.0301
93.5885
192.806
191.814
138.961
21.9193
-42.5926
-119.213
-167.933
-116.906
-58.7858
-18.5869
46.6276
54.7966
78.0327
98.6947
113.138
108.538
88.1404
70.7121
36.0031
-45.2584
-85.317
-56.578
-26.8405
24.5642
39.4221
44.8009
60.8751
-58.8773
-141.285
-166.548
-135.432
-97.0675
-89.7536
-66.8334
9.78548
49.663
98.2175
138.186
83.1649
19.955
-55.4806
-147.684
-179.465
-152.687
-25.9195
75.852
93.0302
136.375
126.59
106.471
79.9624
56.781
41.6946
48.0557
-10.5258
-20.5176
-39.0799
-87.2318
-88.5336
-45.606
-0.0337883
9.36974
28.3435
84.1098
49.9899
36.9038
64.39
131.185
128.895
20.6983
-66.7499
-150.095
-152.639
-155.637
-137.152
-129.695
-78.2976
-2.54765
44.0332
29.7386
36.1639
58.3099
73.6929
74.1408
77.9615
61.1493
57.2683
-5.18189
-40.6643
-15.6852
-14.7905
-1.3452
-30.1933
-41.8922
14.3902
45.3261
-2.52352
-9.2132
20.9471
43.3267
10.5579
5.0155
60.2545
49.8517
-4.13524
-58.533
-133.069
-181.81
-168.798
-113.18
0.229576
79.071
97.6729
111.933
115.102
91.8746
77.1102
55.1926
52.2142
-19.2944
-73.1078
-61.4661
-83.2643
-76.3335
-39.4723
20.238
96.1478
97.2896
82.8402
29.6031
-62.7583
-116.152
-114.039
-102.735
-59.8303
-14.3247
10.7061
19.7736
17.6359
44.0834
63.9915
47.6745
47.1294
60.8558
95.7727
115.635
68.4848
-3.06294
-101.165
-117.039
-77.146
-12.7071
28.1376
108.332
43.8307
-20.3664
-72.0968
-155.01
-235.048
-182.062
-43.8272
65.4972
105.956
63.1211
30.0908
20.3211
46.2527
85.1078
126.255
206.942
199.366
47.6639
-15.5688
-91.934
-73.7967
39.095
64.5368
42.3958
-5.78164
-104.417
-152.312
-227.648
-282.077
-170.73
-50.8077
-15.3423
-19.1521
12.8226
26.0357
22.7973
29.3781
90.3214
118.697
156.33
202.339
152.314
47.5971
26.8586
29.5199
37.378
-0.456255
-0.4355
35.1528
12.4608
-101.817
-145.199
-117.236
-89.2231
-62.2821
-69.897
-52.9078
7.63755
19.1187
37.9492
77.384
18.9318
13.1383
5.96124
49.6833
59.6339
-27.4889
-117.212
-133.464
-69.2352
34.5812
80.5062
95.8638
77.7657
50.9904
24.6029
-8.25138
-29.4331
-45.3772
-65.4425
-98.6597
-73.9988
70.7567
105.479
44.3814
-6.76971
-6.35343
32.5211
70.6109
148.4
167.213
113.001
-20.2281
-145.526
-156.316
-215.588
-196.436
-69.172
-21.7638
-44.0563
-78.1328
-79.4664
-25.3261
47.3517
103.235
159.359
193.877
196.494
156.532
20.8511
-18.4891
-21.4095
-12.1388
17.6378
2.54556
46.4456
76.4481
-23.9095
-45.6534
-30.7269
-45.3914
-64.8305
-122.618
-142.672
-124.641
-102.599
-37.5756
1.77064
-6.90095
-24.7376
-43.8936
8.84325
129.079
247.376
191.724
27.0866
-115.934
-197.904
-191.615
-157.929
-104.176
-39.3079
20.5641
50.6934
123.545
163.244
130.778
128.965
127.137
103.996
23.1729
-50.4007
-72.5446
-56.8894
4.57439
77.0555
133.622
209.039
137.674
53.24
-6.02797
-34.5944
-93.3241
-120.768
-113.635
-62.9567
-71.9687
-122.258
-116.881
-111.493
-106.396
-104.189
-93.306
52.4985
136.624
33.8396
-52.3815
-128.079
-137.699
-160.887
-113.244
16.6377
135.457
301.559
294.728
141.627
27.0827
-35.1414
-79.5021
-116.621
-118.577
-11.8217
80.0467
-0.128144
-2.69358
103.89
156.532
168.711
167.27
173.289
125.094
23.7124
-50.1407
-111.615
-140.04
-112.859
-46.4881
27.196
21.4499
24.7626
7.29439
-78.7416
-149.924
-196.709
-169.747
-48.3306
-49.1626
-56.5519
-0.310664
31.2552
30.446
10.5121
5.31081
-10.8346
-49.2815
5.73916
39.7035
41.8898
52.0228
64.1132
78.8141
68.4911
80.8367
54.626
32.5016
48.4495
28.6805
-4.98288
-55.6317
-66.7012
-55.9663
-79.1244
-98.2459
-116.681
-36.1254
5.31874
26.405
30.1309
61.165
89.2957
117.982
112.478
43.6399
-3.03151
-54.8913
-72.2674
1.8661
56.2736
90.3136
107.79
54.9654
24.9331
-45.5939
-78.9183
-69.4441
-67.6095
-20.8117
-31.0623
-100.527
-107.964
-66.2359
-38.7218
-13.8586
30.7239
60.9743
46.7079
-2.32235
-16.6449
-24.7139
-14.7826
25.4675
38.3367
53.1244
29.5039
-6.98518
-50.4689
-38.289
1.56161
42.6632
40.0769
26.2269
11.2685
0.510475
-14.1193
-42.5189
-41.1963
4.6846
29.1856
31.9922
17.4987
33.077
0.504314
-4.13673
-12.7146
-7.77082
45.0803
36.3213
21.0338
-8.47046
-118.175
-156.672
-111.342
-49.5729
10.8411
65.8252
110.098
130.622
102.855
90.3814
72.5836
47.5861
44.1303
31.8295
22.0909
14.238
-46.105
-95.838
-115.218
-91.186
-7.34119
24.4629
-5.17497
-15.1448
-36.6575
-104.247
-123.961
-85.8401
-29.6034
-28.1346
-39.9619
-33.2412
4.67848
50.5684
82.3636
95.7705
126.472
70.3388
31.2415
36.7298
45.1221
10.4414
-11.6908
-22.4013
39.7503
26.1141
-43.9372
-81.5415
-77.4053
-47.5662
-51.8612
-118.902
-73.0297
19.77
53.1053
19.2144
1.5095
52.9954
79.2843
51.533
70.0263
104.558
111.629
49.2189
-2.96595
28.2835
37.6222
-33.9927
-34.1094
-25.6996
-3.95998
57.7587
45.2102
-16.5877
-58.4037
-53.0174
-99.5547
-120.751
-107.342
-71.7172
-42.5378
-1.13814
68.7035
145.197
127.869
-4.96744
-111.67
-105.237
-92.4094
-77.7841
-67.8587
-34.8674
3.70751
7.0207
21.9055
27.2771
40.6582
15.1514
11.1453
56.8922
59.9421
47.9001
36.9066
14.8586
-39.3009
-3.28675
71.8152
139.899
127.667
136.682
89.4352
50.8106
-22.7752
-88.9927
-132.623
-179.639
-135.675
-45.9594
-12.7229
0.499094
7.72952
1.49077
-38.6044
-58.3575
-39.1088
24.0604
93.5879
58.6104
21.1147
-4.41683
6.5994
6.10159
4.44024
-0.385396
5.21805
53.2471
19.9218
3.69151
29.9611
13.1681
-4.50507
-37.2107
-59.6824
-40.0389
44.2083
40.8617
-57.6957
-100.352
-73.7154
-46.8747
-19.5046
-87.0772
-104.164
-30.8154
21.8983
58.4464
121.681
130.163
130.931
83.0854
41.9612
23.0446
10.8834
-31.2627
-107.643
-95.04
-30.5489
-19.3466
-4.11002
34.997
101.171
158.331
131.082
29.4002
-51.3374
-40.9751
-50.4326
-70.5932
-60.2408
-18.4058
7.54292
-4.96585
-16.1907
20.7346
69.1797
14.6689
-31.7152
0.570763
-3.43379
-44.4811
-92.6233
-78.0835
-14.7667
29.8136
21.3335
-19.6415
-19.9036
-11.6223
-20.0745
-14.4321
-11.0027
6.40752
8.38792
-57.9396
-81.7117
-36.4709
3.37378
9.54056
30.5725
69.1021
84.6321
54.7622
44.3691
34.2611
50.8654
51.98
56.145
80.3302
46.1947
-21.0326
-34.197
-34.8824
-45.8312
-31.6492
-40.6376
-43.8196
-30.3841
12.2467
-18.2706
-25.2378
-3.64391
33.174
35.8952
56.2198
73.3952
39.3554
-21.3621
-62.4981
-90.8626
-60.9392
-70.3532
-76.2152
-19.9165
-7.1611
-6.09128
36.2473
57.4812
72.7153
62.8501
-1.95616
3.58947
9.05471
-16.9869
-32.8574
-61.0847
-66.6624
-24.3791
4.12395
55.9781
33.2222
15.892
32.5694
28.1653
29.3761
11.16
-9.9601
0.215282
-12.6845
-23.7137
-0.783114
-30.94
-43.6592
-28.8756
-23.3471
11.8447
67.7993
77.2287
-4.26447
-7.25068
38.1942
55.5496
62.3963
35.1108
18.2568
24.6318
57.1229
-19.7465
-71.557
-45.88
-41.0233
-44.4233
-61.0088
-80.8146
-54.3691
-3.25964
-31.9396
-52.853
-14.5374
-17.3374
0.255294
36.142
35.2441
35.8436
4.56066
-27.1465
-41.3037
7.34386
39.2883
26.8725
19.0506
38.3778
23.7189
36.1827
32.1937
23.7823
51.1073
76.367
57.1456
26.0788
6.68278
-21.074
-4.49772
-65.6719
-68.2632
-54.1015
-33.4128
-16.0106
-14.8724
-78.3941
-128.057
-74.4702
-0.513536
20.4545
9.70885
-9.14079
-18.8856
15.9213
11.3275
15.9799
56.7354
77.0225
46.8101
80.8908
135.407
123.05
17.714
-35.4099
-29.052
27.1933
61.2879
6.79428
-20.2514
12.618
2.17256
-31.8043
-27.8599
-51.141
-76.1668
-67.6749
-55.7548
-21.5517
-22.7241
-105.981
-157.761
-143.127
-61.0156
10.1392
48.4597
81.9476
94.9776
114.195
77.5843
-22.9669
-37.0391
-32.2366
-18.0624
9.07122
52.9595
46.9679
43.764
4.79795
-1.63015
23.0497
3.89807
16.353
43.2376
27.901
43.9355
53.3212
33.5091
-22.8102
-18.1872
27.5619
21.5507
7.25918
16.7067
-7.08907
-49.1712
-52.3726
-96.9175
-105.071
-66.4381
2.2632
53.9987
18.9393
2.43963
-4.74783
-21.5493
-10.8507
13.5113
29.0189
51.2954
10.9614
-18.8285
-50.9948
-55.3545
-33.9134
22.4436
54.2822
54.3219
-2.32059
-49.0104
-66.1025
-45.4906
-14.4977
-15.0479
29.7806
87.9765
87.9166
12.5048
-0.658785
-5.80485
-1.9691
10.0728
24.2848
15.9854
44.4777
15.2822
-21.272
-17.0463
4.34813
-0.996712
27.55
38.1967
70.1101
94.6736
-27.7033
-89.1533
-22.3739
10.4913
-45.1985
-108.752
-96.8314
-77.9231
-85.9176
-139.091
-134.441
-69.0338
-5.6204
39.7833
96.4568
153.305
101.227
50.3044
48.003
45.3043
73.2361
45.8022
-11.3886
2.64912
-5.34763
41.8916
73.5803
81.6358
81.6433
46.8996
3.68741
-1.07532
1.04611
-16.3213
-22.8493
-37.3301
-27.5799
-39.8723
-67.5916
-125.492
-120.588
-115.695
-97.9248
-35.9291
2.21616
6.68835
13.8564
28.9347
57.2079
30.1184
6.92548
16.4028
-20.7319
-45.4627
-28.8576
5.62412
59.724
30.9083
8.98756
20.8406
55.1804
59.5165
37.4632
22.6281
20.7063
2.84685
-5.7614
-1.10964
12.0609
51.1508
49.0558
25.7192
22.8557
-8.13004
-39.6236
-48.048
-14.191
20.3812
30.1133
37.0071
17.4598
-11.415
-99.409
-173.164
-129.402
-57.2428
-0.396001
4.41878
-19.0877
-14.7784
8.86718
53.7624
44.3848
44.1136
52.1095
16.609
-25.2696
-7.27067
6.32706
34.9141
70.6159
36.4305
31.0241
52.9913
43.1475
21.2796
-5.04878
-6.65324
25.3546
-19.7464
-52.1037
-80.9691
-75.7331
-50.0065
-21.6676
5.98309
24.0457
-12.1115
-14.2272
-30.9397
-43.7734
-6.27816
32.2792
59.9286
56.9052
34.0234
-24.5713
-26.328
-25.8212
8.20781
6.04435
-11.1278
-8.52718
39.8041
24.6294
-34.5011
-40.5141
-3.08385
-5.95335
-6.81371
-18.4108
-2.75064
48.1001
33.1349
35.4508
18.6575
23.5069
3.0794
-20.6896
3.92746
46.0764
39.6818
-5.54068
-30.5257
-45.9848
-17.0806
-10.1504
18.4818
40.7888
-14.718
-18.8898
-35.8429
-54.255
-24.7072
-10.5845
11.255
44.9399
1.60908
-29.863
-38.1255
-52.0931
-47.262
-28.104
-10.8744
53.165
113.801
110.357
54.6164
56.8796
79.1192
43.9346
-0.0225313
-50.4726
-96.9034
-78.3033
-26.8357
-42.2702
-28.3285
6.13308
11.2121
-23.2712
-32.7519
-21.4374
2.39426
22.4578
-40.5507
-59.0063
-6.90273
5.79347
6.19894
22.1187
54.6197
60.6426
18.8381
-44.1101
-64.5113
-20.4256
24.0674
15.318
72.8208
176.758
127.29
99.2642
64.2575
-16.3787
-58.7658
-129.079
-188.191
-230.582
-233.584
-117.534
-6.70137
61.3598
105.424
154.615
185.09
138.574
114.445
46.1856
-0.288868
-27.8195
-21.3271
-47.23
-80.545
-56.539
24.0934
61.1733
77.7564
76.4415
61.6861
-27.0716
-108.868
-114.045
-45.8779
-44.7183
-73.2422
-74.2542
-66.8564
-22.7011
-30.0198
-43.829
40.6173
47.0489
7.43707
-6.36943
-17.4192
11.0898
47.0616
60.1894
93.6234
98.596
86.7809
16.4692
-2.84958
-12.3514
-26.1223
-21.3263
-34.5567
22.875
34.5159
-35.1886
-70.3511
-28.3466
20.1436
22.3671
-20.4252
-0.567207
41.7658
18.4794
-14.5732
-11.1648
4.916
44.6353
24.5132
-9.16179
-61.9765
-68.2598
-69.573
-75.8932
-53.4636
-23.393
-3.69907
-5.86096
-2.64954
35.1229
25.6487
11.3713
7.90508
24.1658
37.7683
38.7482
66.12
103.122
32.3762
-7.9875
0.563763
21.4903
117.613
108.1
2.50158
-70.8418
-123.4
-131.011
-121.109
-121.229
-59.2347
-1.65412
35.6198
93.5753
112.816
86.2375
27.6838
-24.227
5.16199
35.3014
20.4217
30.9301
0.194429
-85.5343
-88.4003
-27.9049
11.5743
46.6895
50.1505
36.751
46.0476
8.1779
-67.0368
-124.36
-111.314
-91.3092
-53.2424
-15.6104
9.83913
15.0471
56.2699
43.4769
-18.551
30.3944
74.0949
47.3736
24.1042
13.4315
32.1383
6.13664
-27.6228
-11.9478
7.19487
28.2023
54.6001
83.2519
84.7208
6.80554
-11.5114
-31.4891
-43.0437
-47.2291
-50.0526
-24.5455
20.7762
-18.48
-31.4984
-31.7315
-34.6379
-16.0252
-2.08964
-18.2366
-2.62824
8.6952
-38.264
-75.8033
-74.6106
-23.3094
7.03827
29.787
8.42991
11.3912
32.8753
15.4434
33.6157
76.6409
98.6798
98.0601
83.2112
60.7102
-2.79138
-40.7183
-53.3073
-45.4659
1.04515
12.3136
-5.68358
32.9941
20.0693
-47.0751
-35.6331
-38.5082
-41.5248
-29.4776
-15.3103
35.3657
-4.16392
-24.5353
-48.6364
-48.0023
-22.3667
-13.3079
-9.15993
16.8975
30.525
-44.3154
-72.4892
-61.3856
-19.2837
42.7554
67.4534
59.6237
64.5484
84.5556
43.3311
-6.19027
11.3106
12.6453
11.1662
18.3904
24.2253
47.2687
46.3722
-45.1511
-86.497
-43.8701
-3.23392
22.0543
9.18044
10.7532
0.474724
-27.7204
-37.3286
-20.6391
-2.05275
6.001
14.6171
10.6707
27.8584
10.4173
-24.22
-26.3534
-31.0238
-5.8589
0.877302
7.9469
23.6777
-3.37319
-52.2928
-60.0276
-50.7672
-29.4957
-30.628
-40.5291
-12.7404
-6.24076
6.2964
27.0787
41.3741
40.4719
49.7152
50.1432
60.6663
74.3431
46.2177
35.7005
13.5549
-6.95933
-4.72008
-38.1172
-52.9023
-31.9524
-4.63832
-57.2157
-44.1192
10.619
23.4583
23.7473
17.9347
31.9485
45.7547
-0.61348
-33.5495
-35.6369
-11.8957
6.39935
7.60312
19.3047
58.2788
71.6017
30.4199
-41.5387
-46.7905
-10.2944
-19.3256
-53.9371
-59.7541
-28.4408
-15.7842
-5.60275
25.1961
32.4864
-12.5001
-48.5271
-34.2719
-5.89368
31.0024
11.4603
-26.5057
3.45935
25.3664
32.2013
-13.2682
-21.9829
-22.5846
40.4266
50.9322
-42.2869
-66.0656
-49.6593
-12.7483
21.0084
30.8925
59.2039
96.7688
50.8675
-16.2721
-10.7534
-2.83318
-13.385
-10.9788
13.8622
55.2055
58.7356
46.1176
19.8131
-1.16075
9.54544
-1.9926
-0.816861
-6.09159
-64.3897
-80.4579
-66.8351
-58.3014
-36.9198
-34.1377
-5.24646
44.1791
1.00974
16.4675
31.5162
19.8011
30.0185
-2.37091
-39.8492
-35.5849
-33.6865
-11.9556
-17.4148
-61.6263
-14.8071
62.9494
84.9653
57.2444
36.9026
-5.27642
-48.6688
-41.5662
-2.56274
-5.93096
9.31626
16.3788
40.2993
67.0883
10.3041
-40.6841
4.67266
17.393
6.59684
14.1987
27.6944
17.8617
45.1219
12.4649
2.15569
8.86246
-10.4575
-46.7453
-70.5497
-122.391
-96.43
-72.5366
-39.4282
-7.54436
23.3474
48.3183
40.5825
45.6242
97.7358
62.8901
-9.36699
-54.5424
-74.2825
-52.3345
-27.1771
-1.96044
73.238
67.1021
63.8486
92.4141
59.6039
28.2593
-2.08468
-33.1982
-24.3398
15.5544
8.88108
-44.8708
-68.3497
-54.1947
-16.2988
15.524
23.1864
9.16584
5.15227
-20.5863
-76.1512
-29.9293
1.41847
4.57651
15.6927
51.6992
81.9877
-1.04228
-9.03795
-1.64362
-27.7597
-40.072
-68.2176
-56.4054
-12.5234
-15.1807
-33.7487
-20.5455
-3.05253
10.6396
7.1198
20.1952
78.5442
98.3298
55.3568
7.98537
-32.0299
0.928042
8.56054
11.0168
66.0686
73.7241
24.9952
23.1017
14.6447
13.5007
-1.75294
-23.1504
-34.2146
-19.6379
-3.60629
-48.1301
-118.454
-148.381
-100.98
-50.7282
-32.2364
4.34303
43.4356
72.5539
53.5644
-12.072
7.39391
36.6215
36.0101
23.5101
-4.40474
-22.768
-26.0148
-24.4135
1.82143
29.8197
68.4848
102.321
96.5107
85.0505
59.1403
-21.0807
-54.8513
-80.5655
-76.7241
-30.8838
-26.7108
-7.11701
19.0766
-23.175
-21.6544
-3.17176
-1.48311
-11.0765
-6.26858
31.534
49.4658
-2.07221
-36.2258
-58.819
-62.0114
-15.6454
-14.9309
-6.10665
26.4539
70.1579
29.8593
-45.246
-40.4317
10.3202
24.764
27.0304
24.9495
61.542
62.3004
-25.0315
-46.9846
7.33547
34.6399
14.9776
1.02554
20.2484
2.98066
-84.9043
-102.6
-92.8178
-38.4316
18.1323
75.7821
175.649
195.482
90.5398
-35.4232
-95.495
-126.872
-113.392
-123.067
-104.895
-67.5671
17.5667
23.0794
9.50135
27.4229
62.6719
53.8142
36.2337
50.4751
74.8519
14.0875
-71.8613
-104.859
-51.441
24.8225
66.4947
82.0515
102.285
136.563
158.045
85.7643
10.1834
-20.7476
-28.2957
-41.9112
-60.2915
-65.775
-60.4039
-73.1634
-71.4658
-98.1493
-116.011
-95.7361
-43.1805
33.6905
6.65604
1.16868
14.5611
-0.311056
-21.5058
-0.376997
9.38113
33.8654
-24.9223
-45.301
8.23382
31.8059
50.9888
59.2466
65.8798
82.8022
6.95986
-64.6479
-40.194
27.4652
67.2095
37.1998
32.543
63.5461
48.0273
-19.9779
-47.5431
-36.3356
11.6282
24.5591
12.2609
27.8253
26.3494
18.181
-43.982
-56.3182
-11.5068
19.5388
4.91776
-40.1361
-34.6326
20.6952
47.4897
-41.5484
-71.2445
-21.5055
-29.621
-54.3009
-48.0094
-37.3888
-26.6353
-10.4549
-23.3149
-58.447
-12.517
22.7329
58.4276
73.0764
56.0055
18.5501
-28.5287
-77.8793
-62.8308
19.2903
68.2487
105.494
132.639
169.867
128.396
58.8129
6.87003
-62.9767
-104.134
-95.1911
-96.9011
-39.6263
80.4563
87.1097
39.0216
0.305792
-44.5863
-84.8382
-104.204
-118.276
-132.688
-106.092
-120.593
-90.1402
9.32335
71.155
92.3317
100.956
129.465
170.957
128.201
50.6053
-40.834
-49.7449
-19.1211
1.71887
58.7257
78.5246
31.5662
29.2381
23.7169
7.86939
7.088
-24.6978
-41.6773
-59.0201
-70.3151
-91.9478
-96.4096
-66.3871
-30.2743
-50.863
-45.3901
-52.6264
-49.3365
-25.6055
12.2807
56.4915
73.2964
56.5023
66.235
58.3091
15.8871
33.084
24.9993
32.2345
32.6248
28.9598
17.6517
8.2956
-0.123602
-64.5742
-64.6614
-24.6567
2.16332
9.51812
16.4319
24.1089
34.8572
45.8297
-6.19151
-36.483
-0.379679
-39.1048
-62.0759
-46.4944
-27.0535
5.40893
-27.3141
-52.9171
-9.61443
59.0457
41.1138
21.9051
18.4522
23.1567
0.202697
5.20023
15.4162
10.4003
28.9429
45.4305
56.6537
102.294
56.021
-2.61449
-23.4967
-52.1911
-26.9002
-34.128
-69.7519
-75.0491
-49.4891
-27.4894
-62.8912
-53.7525
3.72233
28.5743
16.1019
6.43865
12.3257
33.0435
40.0626
-27.24
-23.6265
-4.62158
13.7179
15.6999
4.95112
17.4147
-0.44704
-21.0071
-53.2668
-36.9125
25.0268
47.1748
38.6719
78.58
44.7448
-6.22413
-32.7022
-45.0288
-52.4945
-47.6309
-5.86092
65.2883
41.6647
-14.4774
28.1234
29.9112
39.2552
56.7677
51.9714
34.5563
54.3116
49.621
-48.3472
-117.131
-102.57
-71.0639
-56.6723
-50.0502
33.0082
101.05
109.059
17.7048
-38.7724
-72.3084
-94.4493
-91.3434
-69.2122
-47.4045
-17.702
42.5966
44.1737
-25.4778
-21.9019
-32.2912
25.8277
85.0355
106.397
111.047
31.6058
-41.9066
-59.9494
-34.509
13.6976
79.649
97.9272
103.692
54.1259
25.7706
9.68059
-32.5872
-60.155
-44.8691
-6.71452
4.1647
-37.4384
-59.7614
-53.5834
-54.5766
-51.7202
-37.0963
-14.4323
36.7726
-32.8052
-45.8742
0.340552
18.6985
31.1403
35.3996
38.5944
42.2186
34.9459
-45.5136
-69.6764
-62.3978
-33.2664
-19.6327
-14.4589
2.1378
20.5092
20.9131
-28.2404
1.62905
74.9912
78.32
38.3391
1.99502
17.7243
61.2838
3.42071
-22.0467
-12.744
46.9446
72.3241
56.2742
29.4147
36.6633
40.3893
-47.9337
-70.9713
-59.2886
-28.9753
-59.8703
-40.2129
3.95053
8.49653
-48.8278
-76.4272
-56.5674
-3.42888
0.850786
-12.9179
7.23174
51.1457
39.1946
4.40654
-3.39795
-17.9797
5.64978
7.51626
8.62533
18.0996
16.9173
-15.064
-29.4693
-35.8776
-6.01669
19.2821
26.7908
44.6618
45.1171
52.3531
9.33935
-28.6086
-42.6268
-37.0483
-44.5817
-19.9901
36.0573
57.0102
7.94668
-24.2896
-19.4085
10.8613
-3.52444
-4.24593
67.8687
120.495
28.4704
-23.786
19.9187
29.7872
11.2194
-14.7439
-28.5226
-13.6585
-98.2013
-140.043
-149.693
-145.811
-52.6824
57.8635
87.0533
100.505
83.1753
33.6271
-18.1188
-64.5723
-57.4339
-29.1737
-22.5308
0.660528
94.7614
107.072
52.7686
41.235
85.5092
76.9023
72.0933
52.2586
25.5213
18.3102
-27.2356
-56.2607
-44.4695
-33.0253
-39.5915
-53.4942
-30.3071
1.53355
-29.9229
-76.0798
-86.1078
-78.9234
-42.926
-35.3031
-22.9963
29.4953
58.7822
36.1227
14.3872
-24.1561
-29.5428
-21.1448
-6.2562
15.4574
10.973
4.06816
33.6256
41.3672
36.3105
29.3717
15.7362
25.359
63.5521
22.3619
21.3138
22.3666
9.0129
7.17691
-4.14291
-23.5484
-6.18798
13.3092
4.24793
-27.4431
-14.1056
-7.49526
-20.4719
-29.2313
-27.901
-0.96981
-4.40963
-31.9039
-37.5006
3.16722
31.2546
17.9433
-4.26576
19.6418
26.0586
2.24675
-6.76141
-12.6524
-13.5593
-7.72547
10.4434
48.631
10.8077
-41.8831
-65.7218
-68.297
-66.5552
-45.0956
-0.768901
77.3282
125.109
88.3389
81.7602
52.5497
7.97296
-30.3123
-52.8695
-62.3706
-40.101
5.45686
-35.1743
-38.9362
9.33733
31.1908
31.3715
33.1638
25.8202
19.9416
21.7067
-27.2958
-102.754
-91.4985
-81.216
-42.9399
-15.7362
-4.70546
10.5545
47.3137
8.50429
18.2041
46.5046
36.9803
16.5418
25.1624
58.145
74.6158
23.764
5.34704
-25.4866
-26.564
-5.13628
11.9719
24.1691
24.7333
-3.14585
11.3277
9.65658
-3.64095
24.2393
8.91397
16.194
13.3135
-23.3295
-49.8852
-66.9423
-58.19
-8.73701
15.7392
33.2832
46.3976
-39.3777
-91.4546
-126.87
-130.741
-74.653
0.622744
45.7438
63.6774
31.8487
13.6977
-12.9161
-8.12044
41.9917
68.3142
55.4866
35.0087
68.4538
20.1006
-12.8762
-7.29847
131.353
171.599
124.288
60.4274
32.0552
-71.0404
-144.468
-185.24
-185.673
-174.92
-153.492
-85.7552
2.08443
64.513
79.6738
23.6296
24.9311
67.5707
39.9811
33.2949
39.9757
43.4735
72.8982
47.7917
50.4083
65.1454
39.0729
9.08178
45.891
82.6657
82.7267
-9.51753
-51.5051
-83.3607
-97.0617
-84.1828
-90.6298
-76.2738
-39.4533
-24.8146
-103.187
-98.0824
-79.2523
-45.1376
-28.5394
31.3103
87.5908
121.112
81.8686
46.7204
32.5504
27.324
-1.99103
-11.9774
5.54
26.3703
25.0444
36.5985
20.5961
-21.905
-27.791
-34.8284
6.23868
57.9036
17.3877
-11.1066
-36.2612
-32.8453
-6.28731
-5.93751
16.9805
19.8771
-20.2788
0.923688
18.3692
25.5175
11.2549
0.654157
11.885
9.86447
-23.8295
-22.4708
-36.8839
-29.5937
17.2132
21.1195
11.5403
26.116
18.8814
-14.8512
-41.974
-21.049
5.39242
-2.12983
-26.8778
-15.606
32.9366
40.1139
-39.7862
-48.2339
15.4898
25.19
6.27884
-9.30599
-19.1529
-6.43002
-21.0247
-48.5855
-25.4508
-0.751195
11.2848
8.42137
-0.0696579
6.28219
15.6304
-10.3696
-16.4519
-6.19789
43.8181
79.3359
105.626
89.7937
39.6157
-7.80788
-47.165
-47.3585
-7.289
-0.084764
10.0139
41.6419
22.3336
17.3736
17.1117
-1.50682
-2.74873
7.5153
-18.6883
-25.0902
3.35247
-54.7059
-110.05
-97.2497
-61.9839
-38.7718
-18.1585
-19.9387
-5.24562
-7.29104
9.20604
8.49211
9.47965
4.24412
14.8746
29.6835
49.4683
23.6748
-4.82588
-26.6751
-36.6914
3.00875
39.104
62.1326
82.7277
21.4244
43.1401
106.937
76.2456
18.9336
-50.3305
-78.0251
-57.0176
-80.4372
-123.993
-114.329
-77.8056
5.25148
53.7606
67.7567
49.3134
45.2361
71.9011
9.90346
1.28171
42.6087
32.6099
-16.9265
-12.0167
34.6008
79.5791
50.5187
-12.646
-9.67924
32.9749
30.3685
-0.185269
-28.0144
-34.2771
-6.10846
-19.7652
-61.2216
-91.2695
-72.0059
-60.5879
-27.7103
-43.5864
-47.2591
-62.5041
-56.1078
-19.5851
26.0503
53.6245
59.0105
66.0929
93.017
42.6332
5.68993
-22.4284
-50.0158
-24.4492
2.51085
10.7957
64.8588
40.2309
19.1521
26.1053
-9.32193
-11.0826
-11.4526
-19.7577
-4.90803
23.6465
1.39091
-26.3576
-29.6648
-5.61823
-1.52766
14.3625
23.959
33.4776
65.7291
55.8278
-18.7439
-23.8498
-10.8263
6.1137
4.88147
6.20179
35.1124
9.99499
-61.9233
-77.6067
-37.9662
21.5754
25.9202
24.0015
48.7894
31.3703
-38.6904
-69.7703
-92.8229
-78.9546
-33.3695
-18.1816
-9.26578
17.1201
32.212
-1.318
-23.3631
-4.2428
38.7672
35.9907
34.5288
40.3502
45.4716
-15.8205
-25.8968
-9.97634
19.9062
30.1267
23.1169
-11.4214
14.699
18.2167
13.6415
-4.3285
-17.8299
6.88817
12.9645
8.55223
10.3805
38.9549
2.35223
-46.8534
-61.0264
3.3293
6.47934
-24.8669
-10.9117
42.1782
-10.5236
-54.3585
-48.2714
-20.3462
18.1013
36.5278
44.2665
65.2553
18.1036
-2.25776
-3.53449
-25.5125
-16.4768
-17.4696
-33.941
4.23105
-25.6832
-44.9571
-26.1583
-28.6417
7.38498
23.5264
5.69976
21.0787
-26.569
-28.0047
-1.54014
17.4414
34.2616
29.6045
34.4254
69.483
63.129
4.58288
-14.9095
-17.71
10.4511
5.88786
-16.1986
-37.0486
-32.6454
29.3235
11.9915
-53.8972
-61.8287
-70.9522
-33.9627
21.1295
50.4221
34.2338
57.1105
18.4251
-11.6026
28.1467
42.2246
50.9952
74.7748
64.7009
25.5195
-44.8138
-96.9633
-101.227
-93.8228
-74.3069
-39.9977
-18.0336
29.6295
24.304
-0.579682
-20.5074
-74.7831
-57.9935
-8.20273
27.1887
58.8662
5.78359
9.09439
53.8901
69.2936
95.5019
125.682
106.575
104.667
71.6824
26.6204
7.70058
-50.1004
-81.8653
-68.5928
-42.1826
-30.6046
-43.451
-28.3155
-49.2906
-112.279
-100.48
-98.4013
-91.4597
-57.1936
-21.7787
19.8773
-7.8884
-67.5657
-28.0129
44.6036
70.0944
62.3023
58.7005
93.7548
85.6296
38.0933
35.6564
34.6078
49.8054
51.605
36.5791
39.5072
17.889
-41.7952
-49.3556
-25.4995
6.46966
42.502
62.1947
60.1506
21.0788
-33.9982
-56.1686
-62.0875
-38.5036
-30.8566
-54.552
-58.0691
-39.3377
-4.22968
-33.8457
-49.6981
-23.1032
8.28977
2.54786
-3.82168
9.49956
35.91
53.6366
32.2502
-1.80621
14.2036
12.6525
11.6538
15.887
31.3536
31.8183
28.4875
-47.6243
-60.1287
-26.5867
-31.2179
-34.5846
-13.7284
6.59017
16.2889
5.16916
11.0959
17.3423
6.98374
5.78865
-14.5404
-15.1551
10.6147
-4.84558
-9.96521
-4.47757
-14.2118
-13.694
-0.483621
77.5342
126.246
109.698
86.4977
54.59
1.13269
-33.3182
-69.1985
-102.568
-92.2949
-50.5194
-20.2626
-49.234
-58.2783
-29.3156
3.82029
12.3713
9.69206
24.9869
25.8328
11.9435
-46.0166
-33.7395
-16.7497
-21.9497
-11.9271
23.3157
90.9867
68.4012
32.3478
18.7448
18.3459
41.2787
6.92198
-22.7017
-19.4173
30.97
-9.92028
-37.9616
-40.7128
-43.2761
-16.6357
18.9336
34.3903
42.5438
59.6372
23.1255
-17.6412
-18.6061
-10.889
-19.0776
-33.1586
-28.8273
-30.2562
-20.5034
-65.7586
-76.4525
-11.3456
43.9881
36.0132
34.3387
48.1785
40.9296
-23.4519
-36.7043
-49.8253
-13.4134
13.054
49.9644
71.5572
76.131
36.6282
3.40049
-6.49625
3.82959
33.3812
18.0061
17.5051
42.9855
-4.4801
-82.109
-95.2043
-91.5609
-40.3924
-14.3555
-21.2452
0.371959
-19.9218
-43.7512
-19.8349
24.8226
63.2189
66.8329
48.1979
51.4573
16.4266
-42.8532
-44.8327
-22.0545
10.2361
35.3137
34.9419
36.113
25.6589
-17.4355
-7.64265
-30.1736
-44.8537
-38.3515
-50.4896
-55.0594
21.2719
52.6668
-2.89238
-52.356
-32.1168
11.5543
8.48615
-1.8117
16.481
42.8099
46.431
-27.6292
-23.5778
21.8622
32.2865
41.3691
60.0902
47.6374
38.4534
38.1677
-30.022
-69.584
-25.8922
-5.28533
22.2983
26.423
22.5381
28.7937
21.4708
-7.78783
-35.1775
-21.8937
-31.2741
-34.5959
-45.7144
-61.8181
-47.1005
-5.06701
63.9628
22.0384
-34.1579
-27.4729
-5.23059
6.43351
17.626
-6.60315
-84.6178
-138.878
-119.576
-48.8977
-4.13899
46.147
95.203
131.645
163.835
93.6403
-1.81212
-12.5267
-39.4789
-22.1517
-11.3201
-0.468828
49.7355
46.6866
39.8217
63.9495
109.028
107.865
65.1154
3.12875
-36.2263
-115.131
-111.859
-66.4369
-33.8031
17.7647
40.8544
5.50851
-65.8749
-131.014
-97.9282
-57.8862
-60.9367
-41.3082
-26.1355
-6.3684
30.9237
17.8654
17.0136
25.1768
28.9757
80.1142
71.6603
18.6574
-9.3409
4.8581
-41.8785
-61.3548
2.77933
51.6635
52.6822
52.404
60.6661
80.9195
85.9277
11.9272
-64.5178
-51.6717
-42.7211
-36.672
-45.7587
-29.7405
-25.5447
-18.669
-2.93562
16.9239
52.8327
47.7503
-6.7485
-25.3934
-49.8197
-83.4897
-100.876
-142.113
-101.436
9.40216
92.3884
98.0388
104.305
115.606
107.477
33.8617
25.4801
33.8796
15.0404
14.143
38.8988
33.8382
20.2441
-2.58791
17.8517
23.0168
-3.94191
1.44125
-31.8093
-56.8257
-28.8386
-17.9056
-68.8384
-86.3344
-66.8225
-17.7373
-23.7947
-72.5385
-118.259
-114.78
-55.6569
-23.7856
-14.0905
32.8276
55.0365
42.8731
37.0452
52.039
53.6008
18.9285
4.76705
31.3776
68.63
45.6872
5.05078
-5.59441
4.50836
-18.7025
-6.91105
16.9538
30.9514
55.2423
90.9412
125.483
93.11
62.1945
12.2646
-48.3252
-54.0943
-44.8335
-61.9097
-70.6394
-44.2794
-9.05613
-28.9558
-34.3753
-26.3476
0.0624843
2.703
-14.806
-17.6213
-16.0871
1.39753
-46.7142
-54.2831
-37.179
-29.6735
-31.9753
-31.3167
-5.49685
29.9105
42.4234
7.67902
-14.6429
10.5027
61.61
70.0558
43.3541
36.2499
30.1206
-46.2071
-61.2268
-11.1052
94.0148
75.7356
15.8085
14.1887
23.5545
-41.4188
-65.8187
-105.231
-119.446
-72.5075
-8.33229
69.1775
84.945
35.1794
55.7072
62.5649
47.1435
76.202
70.3144
10.652
-58.4044
-83.2948
-39.0946
-27.3466
-26.3541
-1.40053
10.1574
28.2655
66.4372
66.7741
-24.8523
-63.2842
-64.274
-23.5127
-8.8164
-18.9041
-21.8813
21.8323
1.44785
-89.7162
-106.412
-66.6395
-44.17
-4.745
37.1613
90.9912
117.737
57.794
45.5152
57.2207
55.093
13.1867
-39.6756
-82.3562
-104.311
-88.1783
-60.7966
-18.8898
35.2214
84.9018
83.8366
90.8686
104.559
81.7405
0.204091
-43.5763
-51.8759
-21.0328
-41.8986
-60.5074
-10.7098
-0.890342
-19.1386
-8.26162
20.5546
22.5826
-4.98251
-48.8493
-53.0664
-12.2187
8.02944
-29.9865
-22.4763
-5.27836
19.85
11.0486
7.94991
34.1463
82.0369
24.818
-19.7937
-10.5939
15.9757
22.9089
25.915
51.1611
71.9888
-35.3434
-69.2269
-64.6387
-83.2078
-43.5334
-17.8055
13.5241
56.331
17.1509
3.28148
-5.10527
-22.3032
14.6819
41.2306
64.527
14.2746
-11.735
-19.0901
-25.6846
-27.0935
6.25021
-0.646739
-18.3934
-18.4242
-7.31687
-7.37477
-7.43463
18.7061
53.9682
47.7439
32.6447
4.93168
-27.0774
-68.7274
-73.6391
-17.2736
7.12051
9.47967
6.77354
0.848739
51.9301
143.824
121.188
32.4204
-32.3466
-98.1568
-130.455
-138.226
-137.839
-129.197
-56.4466
-5.3187
21.9553
88.8305
108.804
113.548
91.5562
42.7021
18.7379
5.38175
-22.9501
-45.3827
-13.9244
48.2989
79.3552
91.9244
125.651
126.083
54.9252
14.9552
-46.2244
-99.636
-104.8
-110.357
-87.3633
-75.6083
-72.353
-43.3916
-38.7716
-40.4965
-23.0842
-34.5471
-46.1438
-30.4471
22.4381
33.0878
14.049
16.5066
68.2444
75.6603
37.9118
14.7019
48.2844
63.3365
27.8735
26.8832
42.1167
37.3985
-4.36071
-57.5831
-60.8196
-56.2448
-33.2696
-31.0501
-23.7412
0.600903
-4.38069
16.4037
79.0459
17.2661
15.9696
23.8666
15.9421
4.34232
2.36822
7.66555
43.4469
10.3183
-19.438
-42.5525
-46.4592
-38.6448
-57.5121
-43.5194
-4.89571
42.8546
36.2122
-42.3966
-43.6057
25.9505
50.7219
26.5844
7.93029
-1.06116
14.086
24.6267
-66.7032
-71.0025
-44.2215
8.50298
18.0434
24.2717
64.484
99.7947
82.2607
-3.52822
-29.8201
-16.3133
-39.1294
-41.9905
-27.0049
21.1353
42.3968
-2.48058
-38.7906
-53.7555
-31.1029
-15.5871
0.875493
29.1884
59.2968
10.6904
-26.9499
-35.9227
20.7465
70.8353
36.0605
12.7464
-22.8445
-69.9368
-92.6007
-120.453
-133.418
-104.198
-41.1263
35.3976
76.8733
103.469
126.841
115.536
86.7377
77.6498
59.5832
26.3514
-5.37711
-34.1458
-56.4829
-0.11442
46.252
62.9684
50.9061
35.3789
35.181
51.2104
-20.754
-72.578
-58.4119
-54.8222
-72.9388
-76.9936
-57.0485
-23.6406
-71.3719
-110.765
-112.593
-91.5213
-33.5757
0.054188
17.2538
50.2918
85.09
93.8966
56.5079
50.7956
73.5609
38.2322
1.28083
9.66475
57.4137
34.8314
-10.6141
-26.7422
-21.3389
-9.1485
-15.1953
19.3255
104.58
97.3195
19.0342
-17.8396
-56.6564
-75.2311
-72.1346
-83.6752
-79.9141
-36.9789
5.18208
-39.8644
-63.8012
-10.3232
33.5914
43.7442
59.1076
59.4475
50.1633
41.2151
-11.329
-20.924
12.7275
28.8679
11.6832
-15.2842
14.2487
48.3673
7.04763
-28.1304
-26.6221
8.35779
6.98469
-10.4458
-0.702967
15.0439
22.1857
25.3432
-13.8075
-55.7609
-89.9954
-99.8819
-45.5714
12.5737
-9.57414
-8.51388
-0.861881
5.92563
50.1293
69.6202
91.3226
138.5
66.2744
22.9374
-24.8593
-58.6666
-41.5044
-23.098
-37.5757
-28.7323
19.7257
-22.974
-59.0467
-66.744
-24.3178
14.7451
22.8996
8.99498
14.6992
11.7829
-26.9537
-90.9027
-43.5561
-7.89444
3.22741
14.5506
26.9361
31.8048
46.7143
36.0628
37.402
46.375
25.2278
11.2724
25.7248
26.9175
21.3806
-46.4587
-54.8626
-30.0993
7.23983
26.0305
24.5201
30.5696
38.5136
-63.3259
-77.9264
-70.4485
-60.3942
-5.46804
27.006
75.7772
116.218
61.0919
3.21922
-28.4392
-38.0407
-3.55243
9.10332
-5.95714
-18.9453
0.554527
6.92492
-27.7875
-62.1721
-16.9742
5.02657
10.9615
14.707
-6.21862
-19.3504
-10.8012
-53.5394
-33.4013
-0.0990141
-6.58626
-10.4577
21.2831
37.0904
35.3416
-2.69706
-2.84616
8.43391
4.54997
5.50953
28.3914
35.6493
29.3134
-9.58096
14.7911
66.525
41.2017
9.82809
-37.6353
-44.4461
-12.059
-35.567
-80.6767
-115.435
-109.092
-28.2705
18.2453
42.2615
71.6254
116.103
128.593
65.7306
36.0723
9.61653
-45.0362
-98.3998
-101.077
-72.2839
-18.0194
21.4204
18.2039
52.8122
89.6209
105.245
90.9866
37.2975
-10.3212
-29.7527
-65.8324
-124.995
-123.845
-72.6477
-13.5983
27.5265
33.5569
36.8432
34.5707
18.6898
20.7216
18.0519
23.676
0.78188
-23.3706
0.651295
10.2992
-39.3095
-42.5052
-15.8877
10.2618
14.7896
-0.366313
3.35679
-33.6403
-68.1662
-38.6751
-10.4658
13.6599
34.3504
40.6529
37.5427
61.5687
96.7569
43.3085
-25.3676
-18.9053
2.98086
-19.3832
-42.7591
-34.0114
-9.89285
-21.8798
-30.0319
-7.92316
40.3605
31.7028
-9.67103
-16.2669
9.8164
7.77702
-34.9473
-43.812
-54.4738
-10.4764
23.2211
24.1544
59.3933
60.9403
6.8409
-14.8321
-19.9525
2.75626
24.5797
24.6408
24.6785
49.7535
42.9236
-11.2628
-25.0032
-19.8163
-5.55214
-26.9878
-33.1475
-2.42673
0.272219
-49.3573
-41.3584
-9.04583
15.449
11.0343
7.15011
6.25254
14.685
44.9745
-0.632594
-75.1332
-66.4406
-24.3865
-10.6878
-12.5021
-12.9239
0.858457
4.54368
-6.82276
0.416281
24.5816
6.16368
-6.74206
21.7167
48.0809
62.9004
11.5114
-1.60649
-10.4092
30.019
51.4606
2.98587
-22.0935
5.23572
6.08546
36.4979
0.27339
-43.7945
-18.9828
9.43119
69.332
89.4582
49.9805
28.2525
11.1416
-18.4272
-7.96672
-34.5009
-62.6849
-61.2869
-90.518
-74.8142
-53.2972
-58.224
-26.8994
47.2403
88.5342
72.8082
30.9225
-83.9546
-137.478
-129.283
-104.647
-87.5308
-75.524
-35.7261
36.2152
60.6188
67.2118
47.4627
83.1734
111.53
118.642
95.6701
86.9065
61.3813
62.528
41.6286
33.8757
74.1278
70.3824
39.2351
14.0836
-8.339
-10.6311
-58.356
-64.5843
-39.2848
-25.5519
-11.4567
-15.301
-5.66653
-34.3745
-104.68
-126.554
-135.097
-124.996
-71.8688
-31.9414
12.5791
36.1797
-7.17726
13.131
21.5578
22.3476
24.5097
-7.68181
-47.4183
-63.7859
-26.0952
15.4658
10.5977
56.9097
107.211
107.349
76.6219
51.2494
64.1414
104.435
62.4138
3.56035
7.25715
-3.3255
-24.4939
-30.9109
-12.2978
24.2104
-1.01347
-33.2312
-38.555
-39.3203
-26.9978
-4.16912
38.0205
54.9199
-16.8366
-40.244
-68.1249
-97.5654
-73.2009
-44.9684
4.03884
46.6524
40.3565
9.76071
-25.3374
-60.9693
-42.7367
-20.3769
15.0071
82.0944
90.3694
46.0285
6.63633
-23.7661
-8.54108
-3.83011
0.135843
-25.207
-9.49036
0.0155255
-41.703
-38.6085
-20.1877
11.591
41.258
38.8121
60.5696
114.526
49.2529
-79.4859
-95.6629
-84.0836
-70.369
-46.4782
-4.59772
26.3705
59.4464
35.1498
20.5147
23.752
43.4382
34.154
40.9911
52.8781
66.073
28.8986
18.129
-15.467
-14.8236
-4.51224
-27.697
-18.5874
0.850052
-39.4865
-46.6783
-41.6734
-40.8395
-22.152
-30.1479
-51.0806
-9.50626
-37.3672
-43.2238
-40.1458
-23.526
18.5209
29.1271
33.5359
57.0528
98.7699
65.1557
26.2491
9.71623
4.92961
-24.4565
-59.2139
-80.1796
9.59165
91.4525
77.2522
2.60796
-40.6988
-49.5008
-58.055
-72.7583
-26.3317
-7.95526
-31.2833
5.97119
48.6258
74.7428
67.2586
49.6067
69.1432
91.1831
40.8421
18.4745
-21.7025
-67.913
-64.2119
-46.6969
-10.2
4.80094
31.351
23.5778
-27.2432
-49.5179
-22.4954
-33.6083
-70.8008
-58.7775
-18.3257
-8.63864
-16.6409
-18.5543
21.4897
29.728
0.616248
-17.972
-2.83692
20.0405
43.29
27.5076
5.3548
14.6529
20.5658
35.9604
24.5962
13.8961
23.7782
-7.33371
-22.9268
-38.4518
-46.9183
-30.156
0.998933
32.4614
47.226
-10.7978
-7.40759
9.807
18.7518
31.2721
24.7182
39.9264
39.7233
-11.1033
-15.6938
-18.5399
-32.2041
-17.729
-10.6383
27.8479
15.1575
-32.6078
-35.1985
-29.3312
-29.4065
7.60429
5.7007
20.4003
34.4404
-3.73865
-1.6314
-26.7049
-15.8591
25.672
8.88697
-2.499
13.2762
31.3048
-19.1477
-81.6738
-54.5898
-23.769
-3.5943
0.964143
-6.7293
33.5248
43.3697
10.8275
-43.832
-16.3167
8.05132
23.8835
10.8656
5.54704
20.3842
47.5703
34.3726
12.798
30.9538
25.157
-4.63628
-11.8188
-18.1458
-9.53842
1.14695
-19.343
-28.163
-33.3487
-15.1265
-1.93687
-9.22931
12.8242
3.147
-6.65514
-14.2191
-44.969
-36.571
-0.650706
27.7281
77.6832
67.2442
18.3466
19.3949
6.91323
5.6882
9.47661
-8.26398
-11.4719
22.9615
26.9605
-14.3473
-36.6631
-22.6764
-7.33226
-19.8073
-57.2445
-58.7096
-42.9944
-76.0125
-61.1551
-7.40225
47.0073
48.3858
40.214
43.9273
28.9249
-0.208063
12.1114
-0.214609
-1.19198
3.86974
2.03556
33.2853
23.9523
9.23085
40.7408
43.5584
12.0117
19.8126
4.93196
3.51137
6.12115
-21.5406
-30.8016
-57.2476
-48.9844
-12.0603
-6.45822
4.91037
6.29599
-12.1638
-5.84777
-16.0272
-8.65746
8.3823
-5.98977
-8.46714
12.7281
25.408
-22.4296
-16.743
1.53033
16.4331
14.9838
-3.8875
-25.7615
0.950739
56.7001
-19.8924
-40.8296
-6.70626
3.25068
-1.86108
0.518912
26.545
80.3481
89.0045
0.194319
-24.7211
-16.8125
-27.4631
-24.3249
-15.31
-3.67406
25.2922
-4.8202
29.6475
49.955
43.5584
3.01224
-50.4908
-73.8288
-65.2828
-91.8519
-103.434
-118.872
-104.57
-2.56598
79.0155
148.775
183.998
157.504
60.1346
5.25513
-11.4633
-0.910529
-43.1412
-101.243
-69.1571
9.24703
62.0333
9.8585
-4.53475
21.8322
27.7474
10.4164
-1.04176
7.57527
-17.6398
-36.7792
-27.5725
-43.1433
-20.0358
-1.86261
-18.2972
14.4239
-22.6733
-40.0371
-1.99496
14.2844
32.9294
68.0531
49.3566
52.7066
28.4164
-35.0762
-46.9937
-45.5315
-40.6326
-48.122
-65.4153
-43.4823
10.1441
34.1583
-12.1999
-26.3738
2.50616
19.1493
30.6332
25.5738
47.242
75.2192
52.0023
10.4419
1.63203
26.5599
20.6952
-11.2364
-37.2494
-42.7308
-17.5609
24.9065
-10.5219
-20.4213
-2.75304
19.1013
44.6277
42.8318
49.4707
28.9782
-39.6381
-59.8452
-59.2067
-50.0243
-15.7803
31.4522
62.0201
8.82902
-31.6003
-38.7359
-52.352
-66.5512
-48.6592
-36.1884
13.0673
21.6677
-1.4957
4.73881
5.734
10.5789
16.8784
9.83471
49.0333
55.8155
34.4628
14.2398
-23.6423
-3.76976
26.3971
40.0667
58.6672
57.6159
-21.4731
-32.3687
-23.936
-29.9883
-32.0685
-35.2424
-21.5528
-3.87593
20.249
0.445866
-13.0927
-6.82139
-10.561
-15.7479
-11.6428
-15.3735
7.07182
-3.47028
-34.4255
-26.9032
35.4096
41.0683
45.0747
53.8988
72.2516
60.8596
-14.2688
-54.4333
-46.3988
-45.6529
-55.1941
-59.1194
-47.9469
-9.03862
-6.21145
21.5072
-2.96476
-5.84896
1.87672
10.5385
68.2293
88.3049
2.21857
-25.8821
-28.8876
-26.9849
-1.28606
15.8237
13.7968
65.9792
45.1369
-10.3359
6.08928
2.32757
-4.91347
-16.4711
0.106611
13.0965
7.20883
-30.5713
-58.4239
-57.863
-12.6492
5.69605
6.60917
0.735619
24.1967
6.77481
-11.4974
-3.76586
33.0765
70.3771
55.2439
32.5834
14.1565
-23.3493
-16.4224
-10.5152
-6.48988
-16.2533
-35.346
-42.901
-28.9409
-73.1374
-60.4327
-46.8299
-35.4714
-1.44338
18.7326
24.3075
40.1352
22.4015
5.39905
-5.90734
-3.58466
28.1889
39.8767
44.5417
77.3707
68.3054
10.9357
-28.5846
-53.5363
-47.2217
-35.6213
-18.4852
14.4845
75.3928
86.7704
6.58511
-25.9577
-0.917141
8.57966
-2.81221
-10.3076
-3.30486
-6.72986
14.1027
-18.161
-53.461
-16.3616
-3.50609
2.99112
17.0188
9.68994
27.6407
34.8735
-54.7948
-113.144
-65.2608
-48.6909
-44.58
-33.8724
-8.44015
35.1848
31.7061
34.4981
23.9868
7.64252
38.2571
55.5234
45.2703
55.3496
26.4567
-7.21248
-25.5871
-46.3099
-22.8565
0.960241
8.81907
61.7858
47.057
-17.9445
-31.415
-29.1003
-21.1156
-31.7389
-39.1274
-35.3901
-11.0935
26.3125
-0.256764
2.50477
26.2829
26.4716
20.553
13.2444
19.2451
26.2194
-1.10292
-18.5304
3.68664
39.4054
39.8686
8.2858
15.1613
8.63554
-64.4971
-71.6208
-34.6286
-15.2306
7.66477
3.63255
25.1469
58.0038
-10.2551
-67.1955
-51.2593
-20.8467
4.41842
-7.97919
-7.82984
1.59707
16.6455
28.6858
-16.8989
-19.4342
16.8522
14.5812
-11.6496
-13.6672
24.3931
48.2185
65.5861
19.8988
28.7816
39.6885
42.6906
34.075
3.99244
-48.4379
-44.4318
-17.5527
-66.0476
-68.1511
-20.7663
2.85926
14.0379
3.86296
12.7175
18.872
-26.2934
-47.0686
-57.2388
-35.5338
-12.3961
6.33451
-6.75644
-3.32439
-20.7955
-11.6143
1.90067
19.2002
49.3246
47.4414
51.8201
59.7305
22.5248
18.6679
0.377519
-15.7704
9.81251
9.23266
11.573
31.8994
-8.38686
-3.22383
-13.0402
-15.8326
26.2883
39.8744
26.6695
57.3418
52.6561
-32.17
-54.7203
-72.4452
-57.6265
-52.7122
-39.6441
-42.897
-14.0305
-11.993
-32.7109
-38.3852
4.23446
1.27971
-17.0568
-19.747
32.4857
28.8722
-19.1621
-24.0952
5.19063
66.0848
74.3622
42.4697
28.797
22.1869
15.6154
7.70815
-4.75695
5.8365
10.6242
-19.0746
-2.82148
17.6784
42.7743
-15.1206
-64.149
-46.5697
2.35085
-18.3069
-25.8873
-19.9746
-2.81593
20.7969
1.37622
22.2816
44.0607
50.8027
31.1561
-3.48813
-14.1327
8.24085
34.7132
-18.0988
-65.6049
-37.5518
-8.85679
2.98454
4.4381
-19.9417
-28.0017
-22.0118
-54.1784
-56.1796
-6.43173
13.5582
6.74857
-2.73384
35.6885
42.1659
25.0649
18.5012
-8.47814
13.157
48.5736
62.7911
61.4616
14.2237
-24.0518
-26.8884
-30.2837
-24.6694
-8.35953
14.8827
46.8124
-26.4615
-41.7486
-32.6683
-37.0728
-23.7614
-9.89671
0.303163
20.5027
-15.2546
-18.923
-13.036
-31.1868
-14.0844
17.4435
35.3036
32.1123
54.0706
80.3553
22.3258
-19.8252
1.16119
4.04112
7.65751
-1.63744
-7.55782
22.5999
8.51527
-59.5623
-55.2034
-34.3002
-8.32997
3.12424
12.3366
4.69627
18.1137
29.8607
-59.2322
-65.699
-20.2581
14.6475
41.0838
30.5458
25.2225
30.0466
-7.8815
-26.1065
-20.8644
4.74859
31.6679
45.2562
56.8801
50.4405
-1.56224
-43.1429
-49.5856
-35.1523
-22.9971
-22.7579
0.715544
18.5716
25.6806
-20.7378
-40.1244
-17.1126
2.62411
4.2374
0.196656
2.45861
-1.01855
18.8586
-40.133
-75.7161
-34.8395
2.50035
25.4132
41.2464
52.7465
66.7909
78.6681
10.9903
-38.57
-20.4244
-12.0728
-12.3222
-1.87235
6.88455
8.997
-31.8817
-35.6968
-46.9252
-28.4952
8.80522
56.296
76.9548
65.5845
19.1806
11.7542
8.54793
3.30646
27.1137
24.3565
32.3229
0.00115007
-71.9303
-87.6954
-70.9765
-63.3555
-39.7342
-22.1144
-17.538
20.7016
26.5977
-2.6253
-12.4952
-17.6656
13.4748
22.712
2.79399
-10.7454
3.00879
19.4181
-19.0205
-4.81017
26.5279
18.1775
16.4907
31.5045
57.2764
79.9509
42.95
8.94773
0.964761
-5.62132
-28.8703
-50.989
-46.948
-13.1788
-19.6239
-47.3934
-33.3534
-29.6081
-9.81877
6.47954
28.4044
32.1066
37.9062
36.282
11.5678
-20.5309
-17.0054
1.98152
4.73892
20.1332
46.0426
32.0135
-10.4812
-43.0967
-45.5515
-32.327
-21.4881
-2.95009
24.4711
50.9767
45.3846
-22.425
-39.0831
-30.9497
-15.5635
-14.9625
-6.1541
1.10329
19.9373
22.2904
-52.7376
-54.1107
-18.9236
-21.7806
-30.7382
-3.65347
66.259
80.6618
29.6865
19.0078
44.6763
86.8305
54.9331
12.7653
20.0739
1.62656
-64.7679
-59.7274
-50.3034
-21.0775
8.99454
5.78464
18.0656
20.9112
17.8738
16.5983
-41.5805
-65.9611
-63.3583
-98.75
-36.3952
-18.6259
-40.379
-19.6872
4.60111
51.899
98.9968
70.4688
23.908
16.2854
2.32154
-13.3447
-5.35634
2.43722
0.637584
2.37904
16.164
17.3944
53.2979
72.0128
-29.4328
-42.6904
-13.2382
-17.5364
-31.6742
-28.3715
-2.01049
20.102
54.9557
-10.4594
-13.5675
6.31881
4.27119
1.56103
13.2249
21.3308
65.4898
24.9699
-76.1797
-83.4428
-47.5113
-31.2406
-21.477
-9.11152
23.0865
-10.4001
-18.4451
-0.676332
-4.31657
16.4748
45.6103
53.644
36.9081
-27.3818
-43.9599
-36.3287
-49.4504
-13.0741
74.5247
101.984
112.133
74.0552
30.0485
-35.0887
-62.6992
-51.7744
-29.4472
-13.0328
-13.8036
-8.78364
-2.66427
-56.6133
-68.3612
-33.5743
-3.16687
6.14768
-13.855
-13.5804
10.9621
-28.2445
-49.146
-25.8287
0.49887
31.3839
27.3302
36.0894
42.0378
15.303
5.18707
35.3688
46.9868
65.5596
60.9367
55.3144
55.3775
-5.80912
-46.8543
-34.9127
-25.8174
-19.0813
-18.3537
0.430322
33.2234
19.0452
-29.0235
-49.1387
-43.3371
-29.3309
-23.6043
-17.8674
-19.6897
3.11429
3.31814
-22.9691
-37.2644
-8.04986
1.07319
3.64253
7.43586
1.20321
-5.53668
18.1204
22.0806
4.39813
23.2218
25.0251
10.3155
9.14824
14.5622
5.9509
16.2436
-0.0226734
-26.418
-15.238
-6.54968
4.0741
15.2917
17.0994
30.3362
28.8588
-3.80625
-37.218
-41.8061
10.9453
24.1676
20.6289
27.1729
-21.4485
-39.1138
-45.3659
-70.1801
-65.1836
-18.836
29.5043
84.1192
106.185
69.2423
70.6432
37.2513
-5.36868
-24.5927
-38.3791
-46.6619
-4.78278
-1.57853
-39.0828
-65.1535
-45.5644
-30.7316
-23.0038
-12.1135
7.6814
28.8715
61.6881
-22.7148
-58.0095
-42.3554
-56.1903
-55.5727
-11.3214
45.5528
70.2884
42.2452
22.2248
23.4109
45.0472
36.1768
23.6133
18.1809
69.0857
41.8703
-5.02834
-26.1941
-44.256
-19.6438
-14.5867
-8.91937
-3.16812
34.0859
18.6327
-41.7423
-33.2473
-2.87265
1.78452
-1.22237
3.08358
13.5629
63.2385
30.0153
-68.8493
-61.0339
-20.5928
-1.65173
-3.11905
3.15393
-2.98576
16.4727
-10.4203
-72.9072
-54.9562
-14.2825
-12.2722
4.0501
27.2994
45.3948
56.1657
0.587683
-36.0302
-7.58764
11.8874
22.4826
34.5164
40.7794
40.0285
-1.58899
-14.7463
-26.7947
-15.9227
12.9031
27.2576
47.9567
61.3333
-14.0046
-62.8106
-73.278
-63.5229
-11.8458
17.2526
48.1225
55.7933
2.17959
-15.4446
-38.0904
-57.4524
-26.4124
-5.15734
16.4788
54.8503
21.5362
2.0088
1.8528
-13.9792
14.719
18.0715
6.62092
1.46709
22.0037
24.6627
-24.9836
-35.9719
9.91522
13.1169
-10.8154
-18.6035
1.28694
42.3744
30.9247
-59.9629
-62.8896
-47.3798
-51.1876
-55.7225
-25.6441
3.04035
33.9683
18.5737
2.65337
19.3008
36.1142
37.0731
24.7325
18.8563
34.671
1.6437
-15.2946
-23.5731
-23.7132
22.5983
38.8061
41.8024
65.6505
24.5843
-25.5352
-21.2482
-20.8908
-0.214155
12.2224
-9.51779
3.6877
-3.2055
-5.94453
-7.3921
-39.7094
-30.6818
-10.8018
-15.0779
-8.93564
15.2479
-22.0212
-28.2889
-27.9544
-0.948266
31.545
45.0097
51.9453
40.6032
-24.1663
-54.1376
-52.9051
-39.5104
-12.796
-8.12242
-8.49003
18.9623
-4.60996
8.81917
16.6575
19.3954
70.6838
70.5231
45.3271
14.4405
-33.9589
-50.7456
-52.3917
2.25154
75.366
101.631
119.414
72.1706
-13.7194
-101.241
-129.007
-137.991
-145.897
-148.924
-70.4801
-11.3792
25.694
16.3969
16.9011
91.7068
150.282
118.161
82.27
74.8335
-41.9681
-109.65
-101.123
-59.5056
-14.2659
73.1502
87.1039
66.9101
68.7693
28.2722
-12.0571
-35.0246
-28.4604
9.73898
19.0894
-14.4456
-18.8832
-28.0737
-46.2094
-52.496
-14.1827
-1.53262
-32.0396
-31.1178
30.9442
32.4556
20.2518
25.6508
60.9764
81.6232
26.798
-13.9188
-0.23667
-42.7171
-68.2416
-53.4529
-29.5118
-14.6497
-33.5847
-45.7816
13.7865
12.8402
-12.0661
-8.75882
-29.1745
-29.4987
8.38901
30.1784
42.9821
90.3279
88.4175
12.3058
-62.8128
-44.7087
-23.2684
-44.0052
-40.5098
-10.9135
45.7737
31.7388
52.9084
108.001
107.831
47.8829
-12.6805
-70.6728
-62.4505
-109.808
-123.397
-146.06
-99.3979
-6.91683
19.0923
47.4245
122.665
156.615
96.0973
48.3959
75.477
52.0155
-31.0647
-111.701
-117.031
-61.9803
8.27344
-0.690138
-35.6439
5.2529
46.7527
84.8785
92.3676
89.6187
96.5338
4.87278
-57.8777
-38.3616
-16.5819
-17.5481
-59.7085
-55.264
12.9114
37.3877
-27.1209
-61.7896
-68.253
13.5209
49.1488
36.6569
29.271
7.46916
-56.978
-88.2249
-113.474
-84.04
-55.2071
-79.424
-59.0657
10.789
-34.2747
-52.8597
-52.6922
-11.5079
68.7279
136.237
197.549
224.171
158.2
154.244
102.327
55.0156
39.1708
-4.30527
-17.2031
-20.5523
-99.915
-110.101
-99.8766
-93.237
-12.9134
-10.2352
-27.621
-48.1557
-105.877
-92.4572
-73.3522
-59.1417
39.6497
78.1398
16.414
-23.2696
15.7376
43.4376
6.11242
2.98112
23.6921
31.1051
31.4565
-9.83583
21.8135
73.7567
9.66297
43.6516
66.9434
5.13371
-53.2325
-97.897
-110.254
-69.201
-14.1393
-71.3291
-21.001
36.8579
20.0527
34.5843
80.3514
98.593
94.9849
15.1049
-18.4128
-13.9156
30.38
5.05955
14.8851
43.2277
-8.08292
-8.81577
11.9122
-20.6708
-23.7664
40.3963
11.8316
-9.94542
49.2075
12.6993
-34.0243
-70.5814
-36.4029
23.3026
-24.0247
-47.2915
-21.747
13.5705
-8.21257
-71.5016
-74.613
-13.1792
28.7198
13.9645
34.9724
71.6572
47.3097
-27.156
-93.3583
-99.327
-94.9637
-110.849
-94.0478
-8.20486
91.578
66.5484
43.7723
96.4245
143.11
95.3038
77.461
62.9086
28.0409
-55.1795
-84.1645
-68.8634
-95.4908
-68.3726
75.8492
172.449
100.071
20.9087
-58.0202
-41.6598
-14.8754
-4.83897
-4.1733
-25.3255
37.5801
37.0152
19.1286
0.365771
-27.7086
-15.2181
-41.7822
-40.1928
-12.3682
33.6356
19.1159
-60.303
-50.1682
15.2229
60.043
-22.375
-142.513
-84.7755
-6.19699
-89.9393
-111.535
53.5095
84.863
32.888
6.9772
63.8074
125.208
35.4922
-43.2924
-50.6475
-37.2436
40.9286
92.5449
73.5439
26.9145
-20.699
36.1858
44.4462
-1.0184
-14.1589
-22.051
-6.26484
25.0702
24.4921
-16.3612
-43.8672
-60.4713
-34.0619
-61.2296
-63.0892
-31.1115
-77.8579
-64.7695
24.7215
49.2048
25.3536
15.6587
75.5723
135.071
172.307
180.278
107.049
15.9121
-58.956
-124.6
-192.236
-204.104
-90.8153
-18.9583
-29.6141
-30.542
-25.3833
-9.62506
35.2679
62.2964
142.235
157.378
21.046
-49.412
-65.4978
-107.515
-88.983
-81.9247
-28.3014
113.683
165.146
123.233
43.6411
-12.3463
-65.3696
-94.6348
-46.7305
-28.434
-21.7612
78.1567
47.1622
40.761
54.8583
-28.1325
-74.0292
-76.2409
-65.7321
1.30617
81.375
24.8909
-27.6953
10.7649
58.3693
87.3446
102.949
102.815
56.1093
67.1646
-17.0458
-127.661
-132.185
-157.928
-110.124
-13.0848
46.2154
4.44842
-81.5799
-97.0763
-61.3109
12.6508
66.5906
36.4621
-16.887
-10.2449
34.4878
88.5144
137.307
78.8637
5.91027
-59.9478
-116.465
-129.588
-168.155
-84.2212
-32.4691
-13.0215
23.286
77.6292
70.8509
123.873
99.9428
99.0822
149.63
179.381
137.978
19.5042
-26.4865
-68.6863
-83.3482
-74.2095
-40.4117
-26.442
33.0767
13.4591
-1.56716
15.8124
-2.1403
-5.93441
46.2896
-51.6976
-53.1351
-81.3541
-121.832
-51.1366
16.8243
24.6215
-18.1587
-73.8241
-50.7061
-56.126
3.55426
34.2985
-46.9328
-96.6916
-74.0677
-25.0957
-6.93218
-8.46785
-12.0493
13.0175
72.9067
88.2305
54.5039
30.8469
20.245
-25.8394
47.3174
152.569
102.477
61.5263
96.4793
114.426
105.784
91.9643
26.3962
8.32161
-1.90316
-31.1011
-102.21
-106.469
-93.1341
-62.7165
-63.356
-136.5
-144.546
-48.8416
-61.8788
-79.7923
8.67562
74.3025
63.7888
24.8776
-0.387529
-20.5852
-26.0705
-15.3751
-3.30752
3.36399
55.9083
101.05
47.0874
56.7092
31.7106
-22.3646
-48.135
-40.7943
-8.25862
-20.4747
-33.7424
11.4096
9.34025
15.1312
49.392
19.2954
48.5
27.6285
15.3014
37.842
4.28298
-72.747
-52.5137
-1.04481
90.7926
158.822
93.4817
7.01465
-71.9881
-78.6216
-45.1777
-79.9795
-127.266
-80.1373
-16.5477
18.2362
20.1117
39.0036
35.0922
-10.1397
-47.279
-15.0697
-6.30472
-2.18078
7.63818
-31.6007
-24.7938
1.91409
36.9874
36.0194
30.4773
39.9926
54.5458
-7.24831
-23.6918
9.23389
19.8117
10.5823
22.9099
14.3083
6.02286
-1.63539
-39.4438
-68.5363
-97.5918
-12.9794
38.4679
-5.85286
52.1828
78.8152
-17.3319
-0.490056
7.26309
-54.4243
-76.3715
-68.9825
-52.4846
-46.7253
13.267
36.2715
36.338
49.5538
75.3109
15.884
-41.8503
10.8969
128.123
132.949
46.8405
21.0621
62.0819
35.7759
18.8726
72.5654
47.4073
6.56165
-75.9719
-67.301
-87.9641
-114.134
-109.746
-106.553
-12.1691
74.9777
21.3775
-97.4493
-137.964
-28.7801
40.4365
45.7672
-47.5503
-141.379
-170.34
-113.466
-18.9229
109.93
267.602
258.733
78.8378
34.9881
23.8134
-12.4526
-24.7063
-62.4536
-7.38349
61.9785
44.5434
-51.9936
-108.169
-108.528
25.5321
95.201
131.548
95.814
27.384
-38.4006
-52.3539
-42.8255
52.1702
75.934
19.0185
-14.863
-89.2268
-94.6468
-80.061
-69.5933
-70.9171
-36.9298
-52.173
-33.375
-35.0897
30.1008
125.038
138.235
100.037
54.5491
-26.0093
-100.954
-67.8463
18.5471
40.9937
41.9995
76.4822
73.2953
38.855
0.0617298
-35.2074
-11.8698
49.7941
89.2635
94.216
12.0356
-91.4805
-118.095
-44.5664
-47.5643
-65.9811
14.6395
35.9016
-55.0894
-136.337
-113.472
-135.201
-144.835
-60.3581
16.0938
48.2657
89.6351
104.677
110.406
23.9921
-56.3041
-45.2111
37.9926
119.727
140.602
54.1015
-38.4238
-62.6629
-74.4393
-49.5583
35.3789
107.398
162.986
86.9002
28.3784
40.3895
23.0304
-3.36414
-75.066
-83.8205
-13.6775
81.6624
26.1568
-95.6232
-130.768
-87.0895
-63.2104
-11.8903
53.7488
84.3491
20.4375
-17.6795
-27.9449
33.3915
50.8709
41.6384
18.0356
-7.37234
-6.32457
-38.3947
-105.772
-176.879
-157.173
-77.668
38.246
98.3242
137.203
121.791
52.3292
-9.13765
-32.7512
-66.1113
-92.6553
-123.55
-70.1659
12.2452
53.4049
81.4236
95.1872
128.965
146.834
93.0272
48.7526
-39.9242
-64.2134
-37.9776
-29.3298
-22.1673
19.5701
39.0154
15.871
8.85632
53.6277
84.5617
21.0227
-94.4216
-173.688
-210.302
-141.058
-60.8006
54.9784
102.722
160.991
158.467
45.7575
-58.548
-144.541
-161.966
-200.616
-70.4427
83.0702
163.607
117.499
89.5318
60.0535
40.7473
105.768
70.0763
-90.6594
-34.1576
7.68741
1.85904
-32.1964
-34.5782
-37.5587
-34.797
-41.2037
-88.0724
-17.8161
19.2524
4.84572
-3.73104
-38.7968
-14.6255
1.1461
-9.16667
-33.5542
30.1023
114.745
87.9965
41.1399
5.55738
-12.1751
-20.0943
14.2447
63.7766
113.979
122.037
78.3
-21.6999
-168.405
-240.266
-161.241
-68.7029
0.657727
53.5418
49.3247
45.379
16.244
-134.79
-202.791
-146.525
-15.3317
84.4437
132.957
196.499
209.11
136.423
63.462
9.83881
-8.13585
-29.8728
-32.2302
19.3917
19.332
16.386
-8.17578
-54.6454
-32.4964
23.438
21.2727
-26.291
-143.419
-149.024
-101.68
-105.244
-98.2299
-12.6243
87.5664
171.842
159.772
89.6193
72.6342
40.87
-0.788988
-59.56
-89.7082
-45.1883
5.74457
20.1063
32.6784
22.5488
18.101
6.88403
-48.2491
-74.1235
-56.279
-5.92858
-48.0362
-40.8751
43.0915
74.6533
-23.4434
-71.6554
-3.80406
34.3002
-34.0602
-11.9235
-18.0568
-3.19192
-4.51533
32.5929
53.6189
32.0781
28.2643
58.3517
70.2981
36.1882
34.4421
-35.7502
-57.8842
-53.535
-24.067
-12.9992
-7.41301
-11.4525
64.1549
82.2086
62.5466
42.1011
8.92067
15.6702
8.31025
-78.3726
-131.07
-161.696
-122.945
-36.9222
20.0704
103.07
87.2465
73.7342
62.8653
48.2102
28.2602
35.9352
11.3453
-19.4998
-6.81842
-16.6193
-56.2425
-82.6403
25.2686
157.535
139.555
22.998
-120.377
-199.105
-296.008
-306.639
-126.702
68.8734
134.975
90.36
63.3847
101.017
85.6429
55.8265
48.1519
78.2493
122.011
81.3232
35.2184
5.16501
-66.3236
-16.0172
57.5148
71.8729
94.1132
54.7184
-28.0202
-65.8953
-36.9866
-71.5012
-163.647
-186.771
-123.485
-87.2515
-89.277
-49.6502
46.0001
56.8571
-6.80364
-21.9216
19.4871
38.8504
55.2676
43.136
132.532
206.978
99.4275
-32.7553
-38.1386
25.1257
56.3252
48.1032
-19.0321
-128.477
-142.347
-164.851
-133.981
-30.7776
36.1305
72.8977
81.1317
106.85
68.3433
13.4772
3.31817
-10.7393
5.40072
18.5311
-21.1176
-27.9494
4.85619
-10.6944
11.9974
53.7083
36.4283
72.8258
88.9163
137.725
88.8074
7.10181
-19.0256
-103.791
-157.223
-230.241
-224.234
-113.581
-60.8346
-36.2577
34.6112
37.9071
32.6404
-2.5242
-30.6444
22.4399
100.96
100.228
60.8019
42.6055
63.0802
28.3705
18.4697
10.0492
28.3374
113.553
115.308
-0.0916163
-96.5902
-69.3258
-90.714
-114.738
-79.3322
-14.9153
91.8213
104.181
55.3207
52.3315
28.9424
-57.4994
-103.38
-88.3927
-33.9637
-19.2798
-38.3261
-30.9248
-55.8271
-58.4688
31.1999
52.5024
78.0567
107.547
47.2032
-8.28819
-40.6399
-25.8187
24.5916
83.8836
109.532
30.2249
-97.9467
-150.246
-133.636
-31.0771
71.953
134.806
110.375
72.5224
60.9111
19.5461
-36.0592
-103.192
-102.845
-38.8817
-3.25797
-21.3892
-15.2342
-46.2043
-102.77
-87.8112
-3.30064
75.8292
56.1355
29.5114
57.7615
27.3369
37.9489
11.2868
23.4451
59.6695
77.2776
59.459
-4.25367
-90.4816
-131.728
-144.265
-60.6053
59.525
124.114
136.872
74.8285
-11.7315
-27.5297
-66.0832
-131.554
-120.783
-43.3941
11.0633
46.8317
29.2731
28.5974
87.1907
152.284
145.3
76.4107
18.8214
-56.5339
-113.403
-159.324
-124.491
-51.8123
-7.88064
-10.2382
10.7399
49.9756
117.273
146.602
46.3326
-103.347
-118.21
-105.943
-104.901
-80.2776
-5.6499
27.5616
58.7738
53.6999
52.2135
99.3748
56.8387
45.7599
15.929
-28.7611
-32.189
-46.8794
-93.0636
-124.667
-49.6118
72.6403
143.833
141.145
100.525
-6.90708
-67.182
-68.9335
-74.3546
-70.6737
-32.0026
-3.99444
-9.23132
-59.7609
-7.70879
72.8001
107.09
50.5103
9.26324
18.3023
44.5744
104.72
38.2275
-27.1896
-23.1942
-17.2532
-20.1741
-20.6057
3.54762
-2.48635
-8.74415
-62.1168
-47.5808
-21.0743
-23.239
-51.5298
-45.2199
26.5475
-3.19299
-67.5434
-17.2307
26.48
62.8877
71.2703
32.1667
18.3387
-36.7002
-129.252
-90.4768
40.6252
59.825
33.9309
9.65577
-7.11396
12.4927
66.4507
10.4271
-90.0121
-35.7913
66.0893
3.45938
43.3913
78.5737
13.8889
7.45751
-4.75718
10.1444
27.335
35.6981
11.9866
4.13476
41.4627
13.0073
-25.8647
-75.6636
-123.359
-99.5844
-61.5622
-66.4968
-12.5768
100.17
67.9581
3.63506
34.6391
63.2322
106.647
132.571
72.1812
-9.16751
-38.2586
-136.694
-265.105
-162.49
-39.305
8.61549
54.8866
77.2419
76.8492
39.5747
24.716
-56.8578
-54.762
9.94346
77.9452
107.336
54.4322
-47.9283
-66.2054
-63.5372
-31.8656
34.5459
118.81
78.0863
-21.0934
-85.8685
-105.008
-86.7786
-5.69912
74.6816
92.6641
81.1192
30.3959
17.7151
-62.8753
-94.9639
-46.2642
2.94275
19.1946
62.1337
24.9739
-23.3687
-33.4651
-7.38338
39.5728
68.568
58.7019
44.2643
-2.1312
-20.44
-43.311
-47.1092
-42.5515
-28.3395
34.0281
36.0585
-28.6565
-50.2766
-78.1636
-81.6831
-24.7792
17.6301
33.7889
34.5328
47.6132
60.3982
48.8586
23.9
23.1881
-23.5866
-58.7415
-32.069
-4.02288
-18.4133
-19.1698
-31.8243
-25.1719
-3.36485
46.8344
65.1041
58.83
54.9005
26.1854
-8.50665
-38.4469
-60.6183
-70.0322
-21.6361
13.4212
42.1941
49.1292
52.9182
41.6623
7.64302
-2.79942
15.2838
4.47062
1.8861
-20.4826
-63.5188
-69.8221
18.598
45.1327
27.5407
6.68119
-73.9173
-163.324
-204.238
-201.941
-132.392
-0.640637
60.9596
75.963
99.5801
115.561
128.07
135.849
121.9
135.884
147.685
106.202
-20.5712
-98.2001
-76.3796
29.4843
113.176
93.245
82.0705
51.939
-24.807
-96.1022
-122.133
-111.644
-96.4651
-84.2744
-122.465
-106.009
-62.3619
-61.5985
-70.902
-43.9997
-39.0543
-10.9837
-10.5951
-3.02853
-8.00846
43.778
71.2308
106.515
123.698
92.5932
18.3974
31.9016
36.5917
25.834
41.9517
6.00055
-8.59486
-33.3432
-99.7807
-80.433
-2.89133
15.522
-10.7445
-56.7735
-25.1786
79.2372
115.596
80.5806
57.5245
8.26807
-30.1681
-37.5925
-70.1792
-73.6721
25.4268
72.8994
-17.9882
-18.033
77.5954
92.2471
56.0936
10.6472
-21.2341
-64.9194
-95.3704
-182.949
-148.129
-37.6616
34.1671
56.8005
59.588
38.798
20.5144
-8.11441
-64.5421
-92.8579
-47.558
12.602
60.144
86.1488
94.7706
77.5177
48.4212
10.4291
6.33771
110.637
92.6072
-2.54661
-54.2267
-79.9498
-81.36
-111.626
-107.719
-6.16195
43.897
35.785
65.0818
16.5263
-35.2331
-62.7173
-46.4769
-11.5296
48.4907
104.72
126.255
34.924
-38.0127
-49.8164
-66.3737
-60.0874
-32.8197
-3.65727
40.4559
53.0382
-30.8742
-48.6237
-28.1527
-9.40338
3.85122
-1.26185
-7.62215
23.2268
42.4602
-3.88853
-25.631
-17.9602
-33.4456
-39.3736
10.7893
37.1667
67.8313
49.116
2.40706
-38.7776
-27.6537
23.541
35.9724
31.3099
51.1905
32.6448
-66.9363
-86.3574
-73.3389
-38.9228
-30.4122
-41.7898
-23.6049
6.10047
34.3507
22.9902
11.2301
48.1304
95.2126
93.9652
99.8459
110.041
43.105
-27.3885
-71.2564
-80.326
-40.6504
-36.904
-9.76346
57.3472
79.3377
6.29337
-4.81972
-19.8158
-48.6807
-45.524
-38.1331
31.3818
99.9385
22.1999
-46.3501
-122.168
-157.147
-146.78
-171.714
-171.292
-108.265
-21.7983
41.1321
87.7824
111.375
169.815
203.413
163.022
118.763
81.9308
78.5663
-5.88204
-78.6652
-43.0891
0.585357
20.6522
49.5497
37.0614
13.655
7.00157
13.2799
-19.0807
-19.7038
-20.4483
-76.7685
-92.643
-105.273
-96.2207
-57.8688
-12.5663
-60.0133
-70.9666
-61.1191
-65.1169
1.00645
30.7014
49.7623
73.4164
99.0439
89.433
93.8773
91.1679
4.7821
-49.4853
-52.4404
-77.7393
-53.6208
29.2984
59.443
24.3737
9.15634
80.6869
70.12
31.0564
-58.2843
-77.105
-75.7551
-52.2834
19.1574
38.7367
46.7444
38.8247
40.8688
10.6893
12.2308
55.8271
53.9166
17.9896
-19.8443
-65.5257
-65.0014
-68.4205
-57.4446
-49.39
-50.7327
-25.1618
84.6792
104.268
30.6592
-11.6794
-28.0308
-55.2413
-43.4679
-37.1408
-15.7439
-5.89831
-14.053
-35.9349
-30.9114
18.9925
3.36455
-9.92374
7.95542
33.2708
83.8025
68.9779
-8.51226
-2.75466
14.8563
-19.6082
-3.13875
45.4255
52.3451
-27.2693
-27.0443
11.0216
30.9613
78.0844
69.4367
40.6706
35.7591
-67.6587
-108.119
-73.1478
-42.6991
-30.7569
-50.4202
-34.7779
25.7265
102.287
63.0796
27.0718
4.98078
-17.9906
-61.2371
-74.8084
-98.1724
-73.5089
-55.2787
-1.10204
-1.33214
30.1411
43.1089
50.8938
47.9192
48.2879
60.3269
69.1218
-11.8548
-36.3963
-11.7282
14.855
17.2416
64.4116
79.0808
54.9466
18.175
-86.9848
-114.548
-50.3204
-2.95098
24.4738
44.8076
28.5222
15.5137
24.8769
29.4578
13.8746
-7.8736
-77.3042
-110.728
-118.037
-160.377
-116.683
-49.9908
-23.7909
37.0938
90.2572
99.3391
80.3473
57.252
48.0512
15.7473
36.1514
59.097
36.1243
-2.38391
31.1749
71.118
24.0002
6.48249
-14.0487
39.7755
45.3778
-8.94176
-25.5593
-5.39097
62.3176
27.7318
-39.7636
-44.8325
-84.5782
-136.216
-182.515
-175.966
-89.8743
-47.5867
-64.255
-8.95746
65.0182
51.8662
53.2282
91.7455
130.816
163.605
159.493
69.3747
-37.8406
-62.1156
-55.3247
-76.0276
-46.2048
61.4405
76.4779
19.2831
-5.06135
-6.01619
8.63906
-9.81815
-2.63179
20.2968
-10.0133
-19.9921
-32.8553
-75.9912
-15.1941
39.2338
32.5866
9.06319
15.6553
18.0224
-32.5655
-48.0848
12.4736
-12.4966
-50.3189
-16.3844
-22.3754
19.8849
64.5049
26.5471
40.2184
7.04213
-8.83285
-38.2924
-121.172
-148.5
-152.131
-149.752
-79.1859
33.2996
138.916
131.291
116.517
171.433
119.472
81.9545
53.2873
-32.6349
-67.8027
-41.9804
23.1045
82.2179
23.5206
-4.0948
-15.0584
-6.89181
21.5868
32.9125
-18.9054
21.8962
51.2383
14.1693
-116.488
-174.721
-74.4671
-7.51217
-5.27758
32.9175
36.8607
-17.6605
-87.9341
-125.965
-78.6326
0.451769
32.9841
29.0964
36.2178
83.5133
109.092
-10.3497
-48.0913
-28.6101
18.2314
58.1959
31.8665
-7.78271
13.2065
7.03997
-13.5999
16.3015
23.9642
5.52369
25.481
27.8766
58.1283
28.5608
30.0597
28.0979
-35.9945
-79.3052
-89.1902
-61.6779
-11.3708
15.0877
40.1671
49.3174
-4.58307
-78.2934
-85.6592
-74.6134
-62.7701
-107.642
-60.7154
-0.634148
23.0304
64.2608
80.0069
38.1723
48.6474
123.212
56.9131
-12.874
11.7852
32.3978
8.76728
0.353205
14.8263
70.3945
148.335
153.272
78.4411
49.7751
-19.7299
-104.886
-216.578
-207.599
-100.998
-57.8101
-37.8968
-32.7667
22.9018
80.8075
62.4626
16.8587
-35.1776
-100.153
-84.7252
-86.9598
-107.293
-71.1947
22.2497
123.569
78.5325
51.1111
83.4349
105.613
29.9181
18.5273
26.8848
45.2031
58.8142
93.1894
36.3488
-4.60542
-10.4745
-5.75082
-23.7707
-32.0933
-36.5857
-20.947
-12.4372
-81.8428
-99.3892
-38.0899
10.9227
-11.8063
-4.84339
2.74834
14.3679
0.103339
-8.42487
-9.22475
5.07851
-29.3996
-42.4564
-28.5705
-18.5053
-6.44945
-41.7792
-4.72716
48.9962
121.591
206.961
167.261
73.1011
-6.41127
-87.5932
-68.7382
-54.2517
-23.6909
-19.3651
-54.7367
-25.7837
10.8607
-46.9264
-80.3142
-50.6039
-18.6576
19.5067
25.0405
20.6116
20.3364
-18.8777
-24.1911
31.2016
66.1808
62.8162
31.998
14.7646
25.4537
-4.1491
-36.6952
-33.8048
-38.2765
-9.53763
42.0004
61.0169
67.2328
97.3404
14.8417
-107.484
-131.146
-137.228
-155.399
-89.3497
-15.4143
24.3208
89.3669
58.8839
-15.6269
2.24425
21.0472
23.7493
54.6701
108.603
114.855
59.4677
-4.59977
-36.1448
-22.5994
24.3011
39.5679
-10.0341
-32.7759
-0.932027
10.4754
4.92566
10.3278
17.5848
8.21229
8.5594
-21.578
-55.3736
-40.1729
-92.6338
-103.688
-65.2241
-24.2068
13.7438
68.4403
43.0224
-24.6169
-4.02884
32.4577
8.45471
9.3251
-1.08288
-32.1612
-16.7806
-14.4925
27.2687
93.3147
83.2955
11.9757
4.59985
-16.9479
-44.0255
-41.7328
-27.0475
-39.0823
-32.7
-17.4015
24.2905
38.3492
41.8389
18.1833
23.5222
6.02252
-27.2528
-20.5498
-67.4347
-64.8193
20.9682
99.4778
119.26
60.183
-37.5703
-48.5399
-57.8021
-34.6894
6.35496
62.4064
86.0235
57.2407
-54.9202
-73.9394
-27.57
-24.4673
-44.4645
19.7142
58.1844
-3.34894
7.09165
-21.7918
-91.99
-22.0913
56.8871
53.2346
40.0718
28.4085
-0.558135
9.70206
-18.3605
-23.5519
5.71942
37.2079
13.1359
-23.7299
23.0979
9.79158
-42.0548
-91.5188
-127.383
-60.2765
47.2047
44.7027
24.3365
53.606
96.5094
37.2518
-29.49
-100.05
-93.617
-54.3038
9.00505
24.7288
-29.856
-48.2727
-40.9083
-44.0848
-4.55563
79.9143
124.837
126.649
107.659
45.7739
-3.62184
-10.5981
-46.807
-45.1794
-9.97226
0.537177
37.9758
64.5074
64.3624
3.40654
-16.802
-5.33703
1.91154
26.1317
20.5743
-21.9293
-53.6865
-105.363
-124.649
-65.5053
19.7891
-1.37059
-11.2276
28.8084
11.1917
-17.6371
-22.5464
-34.6511
-47.9756
-8.55657
48.1494
55.3568
33.6811
-53.3797
-33.505
2.80877
7.04534
5.21454
31.3487
57.9605
80.3482
46.4712
-19.8273
-3.80462
41.5355
82.7371
32.9589
6.99569
-6.54491
-4.51007
-25.7898
-34.2325
-12.2184
31.922
-15.2015
-48.2794
-38.6128
-7.40542
-11.1802
-56.7421
-148.828
-163.607
-95.964
-22.4498
63.7939
120.939
175.509
162.384
67.8214
-69.0156
-98.3114
-46.8337
-20.3243
-31.4782
-28.3091
26.9513
47.9804
16.0187
-10.9001
-8.11684
51.1141
112.784
110.042
39.9689
-12.1646
-83.338
-118.021
-50.2262
14.9795
63.5949
55.1142
48.645
58.1285
16.6516
6.42696
-25.8045
-65.6921
-39.2059
-16.5217
16.91
49.4157
-64.8898
-118.293
-78.7155
-44.3928
6.67795
-2.07284
-50.8272
-33.6778
2.97506
-13.2602
-56.0784
-78.1568
15.3704
73.1324
60.6081
46.6617
25.9083
27.1673
43.7203
39.7775
78.4955
73.197
30.9889
39.2185
31.1561
-10.4327
-20.3108
0.587211
1.37196
26.1307
46.1709
18.8401
-4.34695
-21.8199
-69.4673
-76.6482
-81.2204
-61.1431
-34.4378
-16.1572
56.6967
88.9861
58.0014
-19.3985
-50.0913
-27.0096
-36.3393
-103.917
-102.3
-10.5648
-15.4147
-39.9265
-10.2058
36.8572
75.2146
67.3412
67.1031
68.2217
60.6682
9.78356
-84.7692
-120.098
-77.6351
-40.003
-11.5733
41.0185
85.7919
112.16
138.449
89.2646
33.7795
16.4009
-49.026
-85.7091
-39.9444
-8.85087
27.6523
25.1685
-3.39312
-1.04963
20.8188
41.7817
13.0183
-41.5563
-45.1841
-22.5761
-43.4192
-37.7362
-26.7442
-25.79
-1.19916
-2.41921
3.74551
11.1315
26.9161
7.87957
-38.1173
-47.4426
-41.1614
-64.4983
-80.1718
-45.7242
-9.75013
37.4623
67.0071
76.8169
81.3371
104.305
56.4828
-74.2568
-116.664
-79.4494
-20.2294
-17.5528
-5.07053
25.5859
51.6522
79.2466
51.7038
27.1958
45.2424
43.6001
33.4734
32.7065
25.6381
35.7299
17.839
-41.4929
-59.9822
3.29787
58.1014
46.8699
22.0316
9.73596
-6.77761
-115.779
-123.627
-70.0933
-27.5465
-14.4059
9.43256
16.7583
2.6813
-28.0532
-40.7771
-61.5694
-72.8028
-39.5526
18.3869
78.4625
64.6332
59.154
14.2694
-6.75931
-22.7302
12.4063
-19.4618
-30.0633
-17.3696
19.215
0.759462
30.1298
36.2526
10.7589
-4.02427
-13.9355
16.0781
38.8425
-15.9479
-5.32199
17.2314
-2.79046
10.5314
33.6993
40.4495
35.477
47.96
38.149
-5.07728
-22.2008
-37.1287
-45.3812
3.82575
-41.697
-127.532
-165.177
-115.521
-63.6472
10.8153
56.5828
107.045
110.241
91.6162
51.6379
38.7651
34.6509
52.641
44.5526
24.8783
9.03241
12.0398
-25.0541
-77.4451
-66.8156
-23.4163
38.3593
68.9005
87.4704
108.263
8.17356
-118.199
-156.193
-153.84
-137.443
-118.102
-40.6396
8.27601
42.5571
28.8668
23.2284
39.6128
22.9467
11.4106
75.0545
114.842
85.566
21.2668
-24.1188
-57.9478
-38.2313
-0.120504
33.9622
50.6896
83.7402
48.1122
10.9624
-47.0833
-98.7617
-54.0672
-3.13933
-2.6972
25.3092
12.5387
8.38322
17.4579
13.3522
-5.15121
-16.5857
-52.7026
-30.7637
-42.3238
-40.0096
6.8381
8.54042
-2.80777
-28.578
-36.7217
-12.6486
53.571
20.084
3.03998
5.41251
37.7145
81.1002
73.7889
8.8979
-4.65618
-41.9466
-71.9759
-52.2634
2.20051
20.8671
-12.5474
-4.12398
56.9744
72.1044
10.1852
-17.6242
-46.9708
-33.5082
-24.7739
-33.3975
-41.2976
-14.3652
-4.11176
0.218951
28.1616
45.4207
48.4501
43.0846
100.659
150.722
136.569
4.97912
-113.505
-144.882
-83.4549
-59.0549
-67.7868
-46.9083
-55.395
-70.9698
-43.0974
-23.4964
-0.510158
43.0219
43.4212
68.7182
61.2037
44.951
-10.679
-41.5401
-21.742
50.3434
122.918
148.584
105.003
57.0489
-25.7304
-114.223
-135.71
-120.862
-99.7979
-71.0322
-2.42635
46.0163
-8.82529
-18.6339
21.9797
-14.2159
-30.4926
11.9433
32.0368
43.1681
-13.8312
-6.29168
20.21
21.6705
51.9584
90.9767
132.584
139.478
51.3584
-0.402744
-33.8913
-66.1145
-63.3134
-79.4809
-73.2999
-30.1185
-26.8988
-88.6736
-95.2504
-67.1133
-16.2034
1.19024
-6.34037
-27.339
-25.3926
29.6266
89.4932
95.9823
122.956
76.0216
25.469
-11.4929
-8.47787
34.8241
24.3079
-23.2995
-82.6931
-72.1223
-68.9413
-40.1159
-11.9943
-47.9706
-3.0859
88.0086
63.9138
14.7819
14.0179
1.33602
-2.97633
-7.12506
-54.0761
-18.3611
-2.30481
2.17005
23.9877
81.1112
113.398
65.7496
5.63243
-27.3131
-95.4583
-75.1255
-52.0979
-51.1621
-10.6911
16.947
5.64321
31.9643
34.9266
37.386
56.9927
43.836
54.9676
51.6293
1.58864
-75.7177
-79.2961
-49.3416
-77.7752
-89.6191
-28.526
29.3949
30.7644
-33.5296
-59.5907
-11.452
4.90562
17.1066
22.4894
13.1373
15.7916
16.4573
39.3836
40.3474
2.70138
-23.1377
1.56838
36.3693
72.1648
81.2928
89.3385
101.854
42.9411
12.2805
2.0368
-14.6339
-37.1108
-72.5781
-73.2723
-44.6512
-59.3185
-97.4249
-108.005
-108.501
-49.8987
-27.7726
-3.21438
35.4669
109.52
74.3555
17.9642
-2.55978
2.16374
-6.7668
12.6019
4.64719
-13.6383
-12.9974
1.18435
-7.47002
13.4158
19.1453
7.80032
-37.8558
-32.8995
33.5335
69.5754
68.7155
-10.2282
-41.3938
-27.8084
-31.538
1.08223
6.92975
27.231
94.8586
77.149
42.2557
20.566
-11.6224
-21.0258
22.1168
48.2432
48.6053
-3.0479
-60.1007
-99.6731
-119.516
-86.524
-27.1031
56.1705
94.1031
35.0068
12.6418
-6.06196
-57.888
-48.9132
-37.201
-32.2718
-36.7836
-9.41714
20.4312
-37.3745
-98.068
-71.8601
-13.1832
51.4539
91.2541
117.937
121.91
90.7809
33.4094
11.6388
-16.245
-38.2324
-68.5395
-58.7083
-51.6935
-41.6634
-16.8202
43.4331
37.4605
18.5215
20.5845
21.6519
20.1759
59.3429
37.6861
-30.8099
-46.814
-86.0955
-91.9966
-38.6131
11.2521
29.4919
72.6811
32.9105
30.7634
76.3889
60.4984
-22.8314
-59.174
-33.7765
10.1152
32.3918
23.8513
-48.9908
-54.4195
-38.7011
-24.2887
-0.849915
-12.8493
-26.3324
10.0777
54.4976
13.6999
9.23034
12.0155
-36.9512
-23.9363
1.98258
9.55817
48.444
53.9032
16.714
12.059
-24.6528
-60.643
-46.0778
-53.0754
-67.8026
-69.7901
-16.7875
15.0726
21.8938
36.8826
70.8794
65.1258
80.9522
61.3589
7.48793
-12.8458
-30.7171
-15.4096
10.5033
6.63115
32.8611
30.6364
-22.5281
-53.0737
-54.8142
14.5584
69.6089
58.7957
28.7427
-6.8398
-52.0633
-49.1059
-40.8663
-31.8008
-11.1096
11.182
30.5641
26.0982
37.5995
13.745
-48.6439
-80.1743
-31.4266
14.0592
-11.7217
-38.3259
-4.70461
12.2766
-44.97
-75.7634
-30.7928
-30.8793
-41.7757
6.62822
35.2804
31.7394
68.9283
47.2365
38.0569
16.3689
8.08614
24.7705
39.7464
40.9342
85.5895
72.3957
12.7105
-25.3763
-1.68534
39.5011
41.1286
59.8874
32.6917
-14.0697
-37.5565
-50.5121
-93.7827
-73.9298
-102.592
-108.739
-57.8262
-62.2118
-47.8582
-5.09844
32.8363
45.4521
11.6232
-2.79767
61.2263
113.444
100.576
21.5293
-15.9863
-19.3077
-37.8865
-38.2286
-43.231
7.29024
77.6612
53.3372
16.829
-3.629
32.7404
43.9025
22.4256
-20.5374
-99.5079
-68.6071
-18.2393
-32.2362
-74.0539
-109.057
-91.4314
-47.1379
7.7965
45.2799
57.1999
48.6367
27.5828
50.0759
40.2952
95.1066
75.3095
25.2763
-1.94152
20.3861
68.358
37.5225
-53.1957
-53.6535
11.2581
86.8332
77.3952
29.9392
7.88758
-4.29604
-27.2826
-47.8454
-20.4349
2.04786
-53.0116
-72.7153
-56.5802
-36.8484
-24.7378
-41.1796
-73.6552
-78.2387
-41.2473
-91.1006
-59.265
14.1793
32.4223
14.3399
9.21981
11.5571
10.6679
-12.5844
-1.59666
40.7042
111.655
110.761
68.6523
56.7701
49.818
-24.8157
-10.6632
27.4901
15.2986
31.393
46.2059
51.4086
45.253
8.5465
-22.7599
-61.5405
-89.4433
-91.4096
-98.9751
-60.8549
17.2041
0.932806
-2.80719
2.1075
-11.9689
24.3747
34.7127
21.1273
23.3373
21.0543
5.14331
-41.7249
-28.3654
-26.0963
-20.4933
40.229
95.9663
136.715
87.8268
-11.1351
-87.4403
-91.0203
-80.3959
-58.7457
-29.0203
33.0118
66.6699
11.8497
-18.5395
-18.3624
-17.2916
-18.8146
-7.92948
52.2198
61.7724
-85.0616
-84.464
-40.5177
-21.5051
6.90244
18.5967
45.3004
68.5916
77.0156
17.2744
-10.7689
-24.0211
-7.6358
3.01521
9.95785
-4.86575
-10.3604
23.4179
38.5575
-20.3978
42.4627
23.7284
-14.9427
-7.26663
-8.40539
-21.0536
-12.7098
-52.0665
-74.5882
17.316
21.1362
-6.33989
14.8814
14.8361
36.4134
-9.26285
-32.2937
-40.1645
-43.6307
-19.072
5.66092
22.4289
-8.90485
-34.2302
1.89377
9.79298
7.38492
34.1942
34.4827
56.8505
32.4927
-28.2115
-26.6124
-25.0216
-20.855
22.5073
42.5546
21.0059
3.9774
-0.0192121
8.17093
-3.04924
7.80404
27.6846
39.8146
36.6596
61.4969
73.3937
-17.8578
-69.2004
-63.3844
-35.0044
-16.0729
3.5646
-0.539854
18.8893
-19.3049
-59.9151
-73.841
-67.7313
-79.9263
-97.1
-61.7249
-4.35655
-14.0772
2.67345
-1.33189
17.2626
71.0432
59.622
80.2992
96.0521
89.7102
94.4857
23.9825
-54.0437
-24.8332
-2.61616
-2.7856
29.4777
65.5003
121.526
100.504
75.006
8.09934
-75.9638
-110.296
-120.11
-85.2598
-22.3261
-21.3112
-46.7986
-55.3456
-89.9916
-66.4315
-5.00697
10.1365
26.9841
17.665
15.1288
23.7574
23.6482
4.54591
-45.5429
-33.4801
44.8549
80.4619
35.8125
44.7528
-2.12943
-43.1986
-11.3383
1.06621
23.4069
33.631
-50.8045
-48.0405
-18.7963
32.1371
14.102
-38.1578
-7.51942
30.7914
-5.92718
-12.635
2.86228
15.883
52.4699
47.3647
42.197
19.0048
16.1004
11.199
-12.0101
-13.2619
44.2845
63.4359
33.9614
-23.1705
-17.5371
-8.84001
-51.7688
-36.2941
13.9926
13.0443
-8.30562
-15.0093
-87.4112
-140.38
-105.74
-32.8232
0.121134
9.38555
5.61945
24.5137
71.9063
-10.4585
-88.9214
-56.132
11.734
71.8076
53.9269
23.3459
74.3081
135.813
80.2182
10.7081
14.5255
-7.54083
-55.2538
-81.5415
-80.6549
0.130359
53.934
87.5643
73.0657
61.0457
12.4711
-27.41
-29.5221
-27.4715
-31.6585
-13.4766
-47.6408
-86.4276
-68.8602
-29.0134
45.4329
56.2464
-16.4177
-25.6674
-18.0039
-45.0866
-55.6255
-49.8617
-11.8698
35.609
78.0735
68.2801
54.8385
48.3812
39.2429
2.44052
-16.2326
-22.3766
8.09947
32.3566
-8.94166
-9.64128
3.70101
12.4037
22.1978
10.6265
13.1366
-53.6691
-122.845
-133.553
-84.7475
-14.1163
12.9772
30.6432
85.6958
95.4727
46.0451
41.6005
29.5165
-7.54031
-10.6886
12.2631
15.1021
-12.1046
-28.9616
-29.4859
-28.6625
6.70134
30.9477
33.7627
13.6814
21.1033
41.2464
-30.5528
-125.353
-106.856
-26.2511
28.0514
45.7544
35.2237
56.1052
65.13
37.4015
53.5225
15.6994
-29.7489
-36.4456
-50.9766
-71.073
-22.0543
43.1115
23.1428
-1.8506
1.57712
-2.4456
-34.0261
-46.5961
-41.2421
-34.5292
-75.9447
-48.9433
-14.2842
48.0337
99.2788
153.89
131.808
23.0589
-20.8838
-52.2708
-59.0853
-46.227
-6.04521
-8.11353
24.7188
33.6139
60.7947
63.5975
47.7453
6.08677
5.17367
-5.48561
-42.4811
-91.2049
-114.64
-102.555
-82.2482
-19.4878
23.7449
69.0925
91.2674
103.238
12.1437
-40.7468
-53.9515
-32.9536
-54.7069
-83.469
-97.9816
-52.184
35.5493
16.6228
14.4556
66.9078
84.293
60.359
50.8399
39.7446
41.0667
48.6068
-0.178211
-32.8074
1.47568
5.46045
-2.89684
14.5001
24.1093
33.3771
11.2855
-17.4113
-44.5564
-32.7615
-7.83066
13.6609
28.062
29.9965
-53.5228
-80.5596
-57.0582
-41.7437
-30.0357
-31.7802
1.21113
51.2246
62.5357
52.6059
36.9043
13.1406
22.907
20.6784
-7.58142
5.72783
16.3622
-23.8213
-33.1598
-24.4369
-1.65627
-18.3262
-19.2947
-26.7578
-37.8672
-92.8072
-110.608
-48.4972
-7.55701
25.1054
33.8581
39.107
74.1798
117.433
102.94
110.479
105.949
56.7776
-53.0845
-141.448
-127.269
-112.472
-125.824
-53.1364
50.7592
90.2353
91.0444
56.4126
52.9885
5.65481
-15.7558
10.9217
23.7303
9.11749
16.2109
-14.3018
-22.1705
-43.7194
-51.4761
-11.6213
27.2998
74.3185
64.3466
-4.74643
-27.2687
31.7233
60.9006
-26.903
-66.9783
-58.4364
-42.9771
-17.0749
-32.2734
-63.828
-35.1918
-54.462
-72.0493
-19.7788
62.116
61.0692
54.2667
44.5242
55.1664
80.7219
28.2305
-20.939
-46.7034
-27.9796
-27.9428
-23.7992
16.4788
9.59741
-53.5936
-62.4743
-60.9804
-45.5365
-46.5577
0.838693
60.5146
87.5496
57.1212
49.5829
76.1996
67.7909
40.9339
12.0998
19.5178
12.8217
-36.4968
-26.806
-40.3185
-30.6153
16.1629
42.8609
23.0786
37.799
52.9193
-24.6099
-39.7085
-25.9729
-19.1215
-22.1403
-24.1151
-36.5839
-4.43234
1.50069
-34.1301
-44.345
1.69286
-0.185866
-22.4276
-49.2828
-46.0685
-74.0095
-63.0921
-42.6552
-7.66808
25.2636
14.7629
79.7295
125.875
75.6956
-48.1986
-63.509
-27.7922
8.96978
47.4152
67.9509
107.425
121.062
89.4889
53.4611
31.6577
46.3555
32.394
4.59844
-16.2864
-0.411149
-16.8672
-102.113
-136.611
-115.465
-86.382
-76.0844
-65.2971
-59.2099
-56.088
-18.6718
-18.4449
-35.3338
-0.87403
19.2793
13.1751
17.0046
43.5863
31.2402
12.4534
33.8834
10.4338
32.9118
42.789
72.7879
78.6732
29.9914
35.9543
38.4291
33.1606
-9.91407
-41.9714
-30.9388
-43.9496
-17.1517
54.1379
34.9845
23.3963
8.32658
-27.0374
-37.6389
-31.6736
-52.396
-37.7725
-42.6792
0.467004
20.6621
-11.7492
-7.64382
42.63
120.921
100.076
7.93106
-52.5866
-48.7403
-93.382
-52.533
-29.5801
-34.4363
-3.33295
31.0336
-4.99718
5.04327
9.2064
18.939
16.9421
12.8505
16.4992
29.0072
-42.5722
-77.117
-59.6773
-13.8973
10.5118
-21.6375
18.5959
44.8516
-9.48867
6.9011
45.7048
88.5018
133.806
69.0638
-12.4458
-31.4182
-3.33811
-10.2677
-27.0367
-38.5661
-35.0403
-18.2351
3.98791
34.0303
59.6784
18.9914
-86.3855
-114.919
-66.7418
-59.7552
-74.3728
-69.0889
-10.1912
60.5215
49.4305
16.9778
17.2455
79.2451
76.6737
30.7123
4.25598
-9.18756
-1.60355
8.91575
-65.8251
-87.5565
2.426
55.0667
75.8787
81.7706
70.1629
25.8116
40.5205
3.4197
5.83659
36.668
1.58921
-34.5225
-41.9858
-58.2676
-17.8388
-28.6762
-45.881
-47.1564
-1.50227
47.994
36.9029
12.7419
0.81098
-26.7942
-51.5186
-60.9681
-104.047
-97.3523
-36.6586
-2.18161
30.7827
14.8649
17.2271
60.9911
63.8905
34.0825
-4.38629
4.51181
62.3482
61.309
-7.90997
-18.5172
-29.2681
-22.8657
3.73243
10.2598
20.9024
50.5847
43.307
-23.5865
-32.747
-23.8704
-3.37207
-5.79448
-21.645
-18.3189
17.3087
44.3044
3.91059
-49.4468
-8.09667
-8.24232
-12.2526
19.078
25.302
37.8821
9.51504
-19.9284
-3.19947
-5.7445
-31.5311
-18.6745
12.7253
95.1732
106.829
54.9697
6.78281
-45.9066
-53.1513
-49.7825
-59.6603
-42.2298
-40.064
-71.5456
-74.6753
-40.1008
-0.954439
2.98244
-18.2879
33.4298
67.49
51.2962
51.301
38.8786
52.9508
79.2466
58.2754
8.23594
-7.56971
-1.27705
-62.3814
-115.921
-104.643
-57.4092
-29.5065
-17.5393
12.6929
45.8362
44.2751
21.883
29.3643
51.1706
28.5146
-7.8414
-25.651
-3.65862
5.93945
-8.86244
-10.3221
32.379
66.4196
57.6951
78.451
108.596
17.1733
-68.1259
-76.6736
-58.4293
-31.3333
-3.19299
-15.3928
1.83417
-31.0984
-99.2409
-126.161
-129.399
-95.102
-39.4849
-2.84222
10.9658
73.3323
136.781
77.6815
34.0955
66.2559
60.6486
28.9749
1.3114
1.71775
22.3865
54.2033
47.6772
24.5401
-19.1035
-37.6848
-57.7811
-35.6049
-20.7325
-31.9346
-13.0351
10.1105
-30.7519
-19.9886
-5.55313
40.6658
77.8553
98.6614
95.7392
16.7155
-124.578
-179.161
-151.569
-71.3849
35.3191
67.8701
72.1957
22.6614
-30.3499
-20.8215
-38.5774
-85.2079
-26.5185
26.3063
39.997
2.9316
3.09592
-8.56045
4.70042
65.6431
138.545
129.669
73.1946
40.17
13.8014
10.4173
-16.0445
-18.6872
2.84282
18.5074
34.6513
41.4405
9.17643
-38.3893
-52.2623
-44.2664
-73.475
-77.8476
-73.8835
-54.3167
-42.3473
-55.4476
-77.4015
-86.0172
-68.8749
-48.8017
-16.8199
38.5851
87.2374
46.229
10.7952
1.82772
35.703
44.4331
16.0907
15.481
68.4725
79.0845
55.3437
31.8567
19.5681
18.6047
27.5062
11.1303
-5.68259
14.1594
-9.95855
-27.5365
-23.173
20.1223
47.1837
57.1598
26.7918
20.0757
30.0002
2.59661
-97.1069
-118.057
-96.6582
-70.5551
-17.129
11.2575
22.7256
55.475
15.799
-21.5905
-14.9578
-16.8766
-49.5332
-52.8348
-13.0642
30.1752
-15.3261
-41.7474
-37.0378
-21.2752
22.3697
21.3834
27.429
61.3337
19.0295
-2.03492
-0.182974
-16.5645
-3.83872
22.6844
42.7391
47.9595
32.0188
37.0313
15.3867
-22.7725
-10.5867
5.85234
10.9596
11.3512
19.8781
14.3065
-11.8906
18.4228
81.7577
69.2577
47.961
54.2069
-45.4948
-140.717
-136.193
-143.703
-68.6645
4.11638
-0.189801
31.0197
44.5299
-7.14084
-29.4671
-6.07353
16.1865
19.8844
15.7743
-43.1269
-47.8584
7.90739
-21.9534
-73.9841
13.4161
81.2431
97.7501
109.339
92.3858
59.9798
36.7165
-29.1782
-53.8822
-45.1896
-10.4597
27.9786
4.11795
5.44765
-5.24296
-35.5561
-36.8278
-40.4903
-3.6226
0.754297
7.65554
20.5873
-50.8105
-104.888
-103.147
-87.9144
-69.5186
5.24728
62.3784
98.9447
47.8753
12.4461
30.4936
37.156
58.4429
59.9478
38.743
33.6289
-17.0585
-44.9917
-19.7614
-0.576256
32.9437
63.7933
50.3497
39.5949
25.9713
-8.63895
-31.446
-16.2862
5.21869
-13.0389
-57.4606
-59.0183
-71.5361
-70.4416
-38.5767
-31.1583
-16.518
-7.58759
-8.59323
25.6234
22.2438
-11.7607
-18.9358
-26.3118
-2.83733
3.92772
6.57971
34.9578
46.6691
41.3616
91.6994
74.7977
17.657
-22.852
-48.7644
-53.9731
-19.3398
50.3905
30.9401
-33.038
-33.3993
29.2799
55.4457
37.2084
43.2437
57.2656
55.5346
-3.70011
-66.5968
-36.992
-17.7091
-55.4675
-72.1546
-66.7097
-56.9704
-75.5196
-132.256
-86.3883
-23.1829
22.6862
61.512
79.8626
100.917
112.782
82.6738
47.1056
20.3732
15.7037
5.43729
-15.3532
-16.4721
0.547019
17.8889
13.7329
-6.29053
28.0058
46.1832
-20.6406
-38.5865
-15.3152
11.0837
16.4697
-12.3126
-46.53
-75.3887
-100.746
-106.664
-79.5733
-26.5728
-18.8851
-20.3023
-1.21481
29.7159
63.2677
96.101
93.9047
105.38
80.3307
21.2627
-10.4281
-17.7911
-24.7373
-17.7707
-25.5542
-14.7522
-26.4422
-19.5249
-10.2957
1.60721
-0.15767
7.86772
35.7112
53.4603
37.5918
-3.28378
-41.1242
-68.5571
-64.7622
-14.5947
-7.58507
-15.7777
6.58923
5.44893
-7.17836
6.1022
34.1589
41.4756
39.0996
27.6526
41.6485
4.3966
-86.7266
-73.4321
-27.5826
14.4408
52.8023
99.748
136.34
93.9591
8.10124
-68.88
-73.5028
-48.8145
-30.3997
-31.884
-47.1701
-74.4345
-64.1171
-89.2771
-123.414
-104.722
-31.3924
16.2419
60.2155
89.7629
98.3561
33.092
0.209785
24.5704
69.1038
100.114
72.8816
60.2356
60.0157
-11.637
-27.5658
-11.7884
-7.72594
10.281
28.0842
60.5919
53.6683
-39.2514
-52.8367
-63.8952
-83.6144
-42.8079
-24.402
-13.7662
-36.6403
-29.4953
-18.0774
-38.6385
-21.7051
20.1678
23.6632
13.4933
16.843
40.3053
-0.520334
-33.3838
-14.4972
45.9541
25.4477
-6.22885
-14.7097
-11.9713
-52.4024
-69.5666
-44.2003
-4.70307
27.1861
60.8784
62.2458
62.798
97.3879
91.2541
47.7965
-5.19298
-29.4277
-52.45
-27.1908
-12.0621
-11.9642
-35.7244
-59.751
-24.8555
-3.34693
7.09653
16.7979
35.0369
80.3343
41.3194
-40.3499
-30.7608
-56.3265
-90.2074
-82.6799
-74.2686
-54.4894
7.27407
-33.3006
-20.6516
16.3935
48.6386
64.836
65.701
90.172
103.674
91.8758
25.6696
-54.8745
-49.7085
0.308711
13.3252
23.583
49.8732
66.7257
35.5788
-1.50825
-20.7693
14.6668
27.6589
3.24313
-18.6547
-31.8381
-59.5442
-63.8489
-82.935
-68.463
-63.0773
-94.5858
-120.909
-112.446
-76.17
-7.29726
53.1446
66.4631
88.0922
110.943
105.499
88.9765
14.8725
-0.747188
7.26235
14.9419
12.0043
6.97799
28.5513
47.431
3.31415
-30.2579
-21.8568
-9.58677
-13.4398
-10.5769
-5.82155
-4.17202
21.4183
22.7571
-16.8473
-17.4623
-9.93766
-18.6451
-31.7701
-30.4373
-6.25766
34.9217
-0.334808
-38.5354
4.02029
41.3151
61.7961
67.6175
28.4208
-59.7934
-71.0062
-40.329
-76.4223
-61.8244
-36.6871
-16.3411
18.5407
21.6886
53.2211
73.5612
22.6054
-31.9244
-16.5309
1.37052
26.3731
59.2377
61.3274
52.0687
11.7016
5.23791
-8.56671
-50.8777
-49.5701
-4.26642
42.1487
28.8451
-41.6186
-38.4897
-13.2258
-2.49719
-5.39446
-15.5232
-6.04792
11.0191
45.0064
-12.6581
-68.85
-57.1087
-15.0854
5.43344
-1.89266
-10.893
22.964
43.9088
-2.49965
-30.3547
-7.07466
-6.59944
-14.6853
-15.5187
47.489
75.2435
49.4519
25.9738
11.8247
21.7879
22.4639
-2.1001
1.28314
-35.7779
-40.0655
-6.48239
23.2648
25.4871
-4.07589
-24.3926
15.0947
30.5006
13.0666
-57.1367
-96.4173
-87.3796
-77.8314
-100.466
-109.479
-12.2724
86.1783
122.441
73.3978
78.7449
85.1379
65.8717
45.7067
20.0961
22.4434
25.8448
55.5177
43.0798
-38.7399
-52.8919
-15.9371
-2.00034
-16.6447
-31.444
-34.6772
-30.6569
-55.366
-67.8754
-39.9443
-16.7342
-16.754
-16.5638
1.88531
10.9552
-21.9151
-32.2327
-33.0625
-18.9875
19.0822
47.8321
35.6371
21.2426
16.8124
44.5208
28.7211
-47.0592
-61.2443
-47.6368
-19.9754
57.1881
76.3793
69.0903
49.8261
35.6505
38.5007
35.0003
5.91525
-10.7546
-40.1406
-46.5079
-49.0691
-42.8562
-5.56272
8.48827
10.1901
13.272
18.593
31.423
7.3482
-23.55
-20.9757
-13.2783
-21.3395
-27.7914
17.2397
62.5355
36.0586
33.3119
60.8736
37.7127
-12.48
-27.7576
-51.3797
-104.053
-160.517
-151.766
-124.104
-68.0782
18.7802
20.4266
27.3895
94.6342
148.264
127.208
65.0101
18.8869
-1.48832
-15.6327
5.61115
38.4322
67.5905
70.6617
35.939
70.8732
128.818
124.492
77.6501
-3.70335
-58.3842
-63.2295
-99.7571
-157.865
-171.795
-138.72
-111.324
-104.063
-86.9146
-60.9923
-2.46055
33.4875
-9.95583
-28.1214
9.69491
42.5633
56.8891
78.1148
87.4443
79.5264
38.8586
26.0382
-5.95451
-29.8295
-21.2038
-23.8978
-5.13044
40.7235
25.5515
30.9441
-3.56636
-31.3793
-6.16082
-23.8382
3.11202
2.61731
5.14685
14.4503
9.66607
11.2881
54.5593
55.4777
116.613
141.934
119.27
93.4358
12.1928
-115.107
-176.259
-221.768
-216.405
-142.314
-72.4285
10.56
62.8395
60.0228
39.9614
45.4053
58.2454
73.9799
103.127
82.1901
-13.9303
-51.9792
-65.7435
-66.8745
-36.1417
14.9791
75.5076
92.9535
99.377
53.0643
17.2317
-14.5814
-21.3869
-12.7758
-28.8155
-46.3314
-29.2438
-98.6389
-135.639
-125.621
-83.8706
-53.8549
-38.6629
-13.3835
24.6885
27.281
45.2653
56.6978
60.3244
54.9305
73.7449
94.7263
30.2268
-8.98822
-5.96485
-36.1649
-50.354
-6.02834
-2.16453
27.6277
63.6314
6.33513
-56.4377
-49.8472
3.76818
42.8784
41.8013
32.4881
38.4153
77.4294
36.5606
-16.94
-53.3924
-45.6509
-17.6585
-4.80375
-21.6203
9.10348
23.7106
-22.5411
-48.3008
-57.6016
-38.5648
4.18113
37.9678
111.497
92.4604
15.4434
-41.6629
-29.4379
15.2475
3.41094
6.78633
1.95473
-70.1739
-109.416
-114.44
-64.3953
14.0263
54.9393
56.5018
51.7688
27.2521
-40.0918
-137.024
-198.147
-93.4783
33.5327
84.9669
85.6771
81.4941
119.542
171.015
105.227
93.5756
80.2925
55.3273
3.09511
-60.9825
-57.6346
-4.47429
-15.5438
-41.0089
-25.3478
-18.3709
-29.0697
-66.2848
-68.6104
-34.0486
-43.8263
-72.3904
-121.658
-148.693
-92.5618
-14.6505
45.4645
82.4789
34.4411
20.9128
14.1351
-10.4586
47.9758
101.487
96.2585
117.678
90.9171
61.5815
43.2453
11.7192
-12.1255
-13.8808
-8.19158
7.72772
-3.40312
-25.4309
-33.6714
-58.1795
-35.2956
-21.2818
-43.3323
-31.3844
-11.2065
-7.15401
-26.2801
-21.8663
7.11113
3.24228
-5.11105
-10.1357
3.81149
17.2687
-16.2538
-15.1058
11.6667
16.2154
2.32851
-0.896588
3.22852
26.6839
5.84665
-25.2223
-8.67001
31.2972
26.9726
-27.9754
-16.5995
24.4997
71.1747
69.0529
-8.45281
-55.323
-65.3577
-72.5551
-40.8799
15.8747
84.028
71.571
20.3504
17.3752
66.1
44.352
-20.1331
-47.7274
-14.457
9.09968
-42.3789
-79.8877
-68.3855
-41.5636
-10.7689
24.1182
65.0769
102.069
52.4323
-33.4471
-93.7339
-79.3896
-20.5149
-17.9398
-37.2961
-13.3362
44.6684
17.7524
-15.0911
17.3178
38.006
38.7236
16.8539
-1.63572
36.3698
39.108
21.9407
-1.88722
-7.44667
-11.8959
-18.5274
4.11948
32.5138
-10.8106
-14.2245
-5.46666
-12.0025
1.94967
6.57463
16.845
70.0145
6.55791
-89.0351
-129.93
-101.382
-56.9004
-24.4541
3.98163
75.3935
96.1502
101.573
83.4105
37.7591
16.3211
29.2799
25.618
5.0769
-1.09968
-29.2809
-74.2991
-77.3958
-61.6162
-67.2484
-71.5209
-94.3622
-64.3905
28.0913
53.4614
11.889
53.3032
62.1833
49.2662
21.5291
17.4015
12.8457
13.1295
-46.277
-54.7224
-8.59632
27.0345
41.0509
95.0113
146.09
194.022
156.734
70.0559
-48.1817
-162.757
-187.458
-176.38
-153.921
-47.3781
7.62106
6.04862
7.733
16.3786
38.0121
24.2256
22.656
54.4433
19.4746
-22.8098
-3.47488
-9.61817
-15.1354
-1.82098
11.7691
22.9419
49.5367
77.7278
23.6915
-63.1882
-66.4538
-0.32847
21.2409
-14.566
-53.5949
-65.7786
-83.2587
-206.855
-237.99
-113.599
15.5568
129.399
207.233
186.26
166.461
114.829
99.0541
37.9517
-6.58804
-46.2903
-66.9029
-101.564
-78.0912
-59.9702
-41.901
44.8057
133.913
274.217
313.346
244.729
126.704
-77.8811
-262.592
-383.984
-312.368
-130.728
19.0212
85.6834
52.9507
1.37672
-66.0275
-151.386
-141.605
-2.52573
67.141
33.6045
-20.8975
-56.1551
3.46218
19.8513
-0.837776
77.7476
185.185
262.827
163.424
-4.91121
-129.418
-104.139
-68.1131
-36.4931
8.42751
53.5686
51.4726
-19.9329
5.06054
49.289
32.8559
37.087
-27.224
-68.5308
-49.8403
-14.1068
-31.2604
-54.5812
-123.339
-60.2695
-85.8396
-180.168
-88.9849
-6.32733
114.783
210.776
209.869
185.366
172.956
136.863
48.4395
-92.7087
-140.365
-154.454
-247.779
-205.563
-16.0507
118.651
198.544
172.523
156.188
175.311
224.935
227.471
55.7628
-142.153
-276.677
-343.206
-322.694
-232.442
-110.178
-11.6802
-59.8006
-61.3869
19.488
13.1998
-11.3248
4.59374
57.3476
153.172
247.76
172.916
40.8997
-65.6483
-92.4608
-80.0219
-60.2733
-8.55085
49.151
-3.23841
-23.4222
1.49022
151.258
193.165
172.08
103.985
-15.7916
-142.885
-131.993
-141.585
-110.06
48.1154
156.164
184.326
142.01
33.6774
-92.6999
-225.841
-236.686
-148.052
-11.4351
87.4451
72.7076
23.5342
-8.06322
-3.82882
9.36311
65.1607
11.4336
-70.278
-132.2
-185.643
-196.52
-152.789
20.0208
211.782
304.742
348.275
337.041
273.284
113.205
-22.2684
-84.1549
-82.3635
-105.852
-172.827
-174.527
-72.7854
-8.64217
44.2124
8.10369
-128.464
-218.734
-206.275
-135.093
-10.9438
26.6509
-3.9042
-46.5996
-28.7342
79.4329
102.589
54.8597
45.9711
-24.7983
-42.1112
-71.9424
-177.518
-154.459
-27.5503
115.492
192.041
207.733
194.425
101.726
32.3577
88.8145
207.606
204.355
124.717
38.7463
-58.9208
-131.159
-163.216
-8.78749
92.5098
84.0439
68.9133
46.8807
-24.887
-65.9218
-67.5107
-25.5098
1.80704
-30.9869
-139.429
-237.548
-265.409
-212.495
-225.715
-210.735
-140.79
-6.89855
68.62
67.0077
72.878
112.634
136.054
140.681
110.461
43.6275
20.1686
-17.7705
-31.5868
-20.6463
6.48588
104.057
134.788
96.085
118.162
125.292
129.885
100.254
69.0448
34.6157
-49.3786
-65.5432
-16.5936
-28.8078
-68.8388
-126.239
-136.947
-192.482
-173.309
-68.2916
48.674
69.5814
19.8289
0.347374
30.8607
-45.3825
-75.6329
-49.7818
9.86759
36.0785
58.6144
47.5435
46.3339
33.506
12.7163
26.2247
56.6123
63.1928
21.9376
-4.73257
-51.0476
-41.8735
-15.6306
7.34824
-10.1103
-10.8918
9.33721
11.9791
10.7786
33.8963
-22.4268
-68.3567
-65.5653
-46.2865
-78.0201
-127.899
-118.562
-28.3803
63.0973
58.0299
89.1838
167.273
242.69
224.724
160.918
62.5685
-54.1738
-125.047
-145.47
-54.9892
51.6121
107.703
27.5731
-113.352
-199.446
-191.515
-146.91
-55.8112
-21.3841
-13.4815
12.4531
1.50712
-13.5271
-55.2985
-38.9015
21.4804
87.8332
140.43
136.333
52.9665
10.7017
-25.2199
2.73101
65.7357
114.099
126.641
110.123
57.8951
43.2296
28.5469
15.0256
-26.7288
-147.603
-217.115
-185.271
-122.472
-55.1233
-10.5572
-29.5152
-64.7311
-54.8251
-7.5379
30.8921
56.861
67.7151
107.402
108.319
49.0765
-15.0288
-34.1263
-49.5126
-43.071
-0.0750867
44.1872
40.4787
15.3799
49.3255
118.367
127.828
90.1186
-15.9005
-175.453
-268.685
-188.134
-86.791
-92.2175
-44.9908
36.5733
95.8317
110.669
64.1193
38.0605
67.9254
69.0292
70.8167
91.1521
55.6732
0.262335
-11.9646
-7.73337
43.8522
73.4184
88.1185
60.0289
28.9394
3.79196
-67.5844
-169.058
-151.642
-56.7684
26.0388
4.65145
-48.1783
-90.5492
-130.743
-144.638
-145.383
-61.6893
25.5287
41.9155
48.4091
71.4466
57.1899
31.0043
22.9657
62.5996
86.2201
141.147
107.874
17.9087
-59.4154
-90.3458
-39.5705
52.9087
42.8224
43.0594
46.4867
-16.3616
-71.964
-107.261
-83.5036
-18.7722
12.2344
71.0193
135.871
124.453
75.7501
34.7371
0.965647
-13.0131
-79.1354
-86.384
-79.5422
-75.454
-54.1386
-43.5037
-24.7854
-12.2457
19.1948
22.7629
-25.2294
-17.7507
27.1993
16.5597
-37.0175
-49.3137
16.9159
53.6563
42.7816
-38.5498
-8.65582
23.3534
34.2178
50.4894
74.6529
65.1952
45.6077
-78.6651
-170.324
-147.381
-69.5265
3.94536
35.7177
29.449
59.3837
66.3039
17.0588
26.5263
22.1191
36.3801
57.828
58.5744
47.4365
58.8338
10.4934
3.57637
9.00191
48.1806
63.5182
17.21
-12.1009
5.05165
2.77028
-33.8256
-76.2565
-119.504
-105.918
-84.0047
-49.1722
24.2318
71.9099
-4.8308
-100.792
-135.746
-72.0457
-28.4336
47.5519
62.5038
-32.2265
-151.935
-192.726
-108.776
-20.8856
18.9967
67.1554
164.204
200.22
134.893
99.2149
66.9395
40.1708
77.254
138.371
137.798
97.3727
3.41099
-58.4991
-71.2615
-37.9146
46.9397
107.845
75.1432
26.1102
-23.9501
-75.8135
-116.385
-117.704
-92.139
-84.0503
-77.8102
-92.2707
-70.7714
-65.3071
-82.5398
-66.5206
-6.6771
-15.8917
-8.98087
38.6885
85.8628
85.9296
-3.05723
-101.47
-100.194
-87.9036
-39.5037
32.9574
80.1861
87.6992
90.7057
67.9819
38.183
42.1313
44.4198
59.8865
74.5644
44.775
44.8316
55.3645
52.0824
58.0274
38.9048
61.7139
60.4557
56.3283
30.9722
-28.764
-83.2822
-102.824
-89.9994
-63.3444
-75.4187
-93.3333
-93.8103
-145.622
-144.733
-96.1377
-64.4402
-15.073
29.424
19.7337
35.8825
40.4243
7.48908
19.5968
50.3843
14.7606
-20.2888
-32.7597
-32.1612
23.3214
93.9441
109.253
117.066
157.715
173.947
119.986
8.51883
-49.5809
-38.9107
-86.656
-72.6285
6.55669
57.8066
25.3819
-27.6163
-19.0999
-3.65531
-44.2931
-77.0566
-40.8067
9.11741
43.5811
41.4263
22.7076
-3.75336
-1.19805
-20.4598
-113.407
-214.43
-231.901
-154.733
-92.2162
-8.07262
76.5857
86.5981
79.3688
102.384
136.137
138.871
74.0542
6.17039
15.5821
52.8679
7.14808
-32.2804
-45.2117
-53.2062
-26.7769
43.9777
139.395
121.591
89.6265
39.5474
-22.4217
-54.9896
-44.4995
-41.7778
-63.0304
-91.2077
-120.77
-144.37
-131.107
-102.754
-33.3057
4.93422
25.9058
58.583
114.695
137.225
77.0478
23.8259
-0.324694
14.3923
26.2071
35.9458
40.9257
6.14575
-17.9119
-16.8939
-17.9259
19.0108
5.24011
-45.5829
-48.9682
-55.2558
-30.7828
8.01304
56.3119
108.253
141.276
81.6536
34.2977
-30.1179
-114.824
-117.143
-102.799
-76.669
-34.7501
-3.42748
20.5662
48.6486
75.6714
43.351
31.9362
-0.245233
-47.539
-59.1284
-88.1844
-119.749
-118.898
-30.11
16.5759
16.8668
45.9174
50.5044
57.0713
78.1166
101.245
143.936
120.692
13.9848
-19.3511
-18.8398
-48.8436
-47.1989
-67.5397
-71.3532
-71.512
-58.0046
72.8007
134.13
96.892
21.6594
-37.6471
-38.3198
-60.0717
-36.9278
-27.5281
-52.9544
-37.4874
14.3582
18.5208
43.605
54.5808
52.5682
21.1721
29.9061
23.6738
25.5269
-7.66783
-69.4925
-97.8443
-42.6263
25.872
42.3275
28.423
14.4857
33.858
18.321
-29.5148
-109.541
-213.224
-247.572
-139.161
-23.5617
78.6277
123.523
164.285
186.375
88.0099
22.7738
41.5195
51.8226
96.1978
113.877
85.4712
15.8575
-151.389
-212.863
-193.492
-95.466
30.7973
95.0819
70.9082
78.6038
41.9233
-4.39561
-7.69507
3.17404
34.1225
10.8451
-21.114
2.01196
71.6528
97.7709
-6.44022
-84.0426
-86.2706
-114.305
-124.233
-113.111
-75.437
34.5768
84.4554
8.17263
22.5212
54.6015
38.1567
-9.79073
-25.7489
-14.2205
28.9418
63.3342
-65.7812
-131.738
-45.8145
33.4984
86.1491
77.1803
125.156
184.163
124.447
15.2581
-51.7072
-40.3925
-30.5762
-32.9065
1.8152
0.897174
-48.3255
-56.9669
-71.1448
-70.4657
-51.2365
-55.5392
-16.8052
38.5273
44.0246
42.6059
46.1332
0.939691
-20.8074
-37.6493
-25.3689
3.29557
44.3059
31.8309
12.834
33.8187
52.8397
-7.03683
-66.6939
-115.396
-138.895
-88.2413
-66.4514
-77.5582
-25.7298
67.6634
102.578
102.296
113.057
115.833
42.0739
22.0977
16.9836
47.2246
86.4078
60.5334
56.8178
49.4866
20.8133
-43.5195
-53.9735
-82.3648
-102.474
-111.027
-107.262
-44.095
31.3181
20.9267
2.88295
-12.5873
20.4525
29.681
22.2315
10.4866
-10.0059
-45.5644
-110.547
-89.6723
-63.5259
-3.02601
54.6833
83.7567
109.332
129.331
127.801
48.1009
3.32452
-3.29296
-13.5907
-28.9931
-42.6457
-71.1804
-71.4212
-101.236
-126.794
-68.4507
-10.3015
49.1714
83.4773
76.2677
73.98
38.6505
-39.5791
-35.8046
24.27
77.0351
23.038
-31.089
-25.3357
2.97033
26.5038
27.1764
-8.88378
-10.7746
12.6955
24.4814
38.0881
-30.7551
-38.9693
-27.2609
-37.9413
-53.5839
-5.81938
11.017
20.8137
-5.85776
-20.7787
-5.52285
-0.446864
-12.2227
-24.5349
-20.6628
13.5573
51.0781
20.3275
-22.2203
2.92262
72.3597
75.7245
39.958
-8.54955
-43.6925
-49.4591
-70.0192
-121.388
-32.2849
38.9637
102.563
142.386
103.116
12.7728
-47.3006
-100.263
-120.712
-94.3871
-58.9784
-5.30671
31.183
39.9274
52.2869
38.1945
85.4736
134.025
122.081
99.6869
20.1552
-34.8372
-54.4657
-137.214
-165.206
-103.939
-35.2664
-9.76783
-1.44065
11.32
46.5881
-2.83022
-14.8492
20.9879
48.7407
68.1534
67.1526
58.5461
86.4538
78.1007
-31.4022
-133.521
-224.13
-267.726
-234.997
-73.8561
52.5103
128.875
172.093
111.02
39.1621
16.7312
14.741
25.6576
24.7787
50.2529
66.8201
-24.4735
-72.2124
-31.8074
38.1069
77.2812
96.9791
159.567
180.846
58.9701
-16.6156
-75.5482
-98.1394
-67.6581
-50.7984
-7.97569
-45.3728
-122.994
-100.009
-44.2169
-19.5652
13.9547
-28.8197
-70.4507
-105.593
-75.2722
-4.14418
62.9391
103.163
112.465
75.287
82.3821
72.1145
-10.0917
-55.8169
-87.0167
-78.137
-32.6896
-13.603
2.41347
-0.0686117
-2.37792
-19.8135
-75.3118
-27.0252
56.6665
87.3236
79.3269
44.7261
23.6685
10.3466
-57.4279
-75.05
-10.1628
51.029
84.3168
105.236
92.8611
60.7118
13.5425
-26.2205
-31.5606
2.76177
35.8192
26.289
-14.6734
-91.1858
-89.6637
-83.024
-83.4174
-70.6878
-24.1487
-1.88132
36.3363
14.7726
-16.7388
-5.36576
-6.87024
-12.6577
-2.80751
4.68455
31.3821
67.3438
67.5072
40.8272
-10.5537
-22.8515
-47.3661
-41.368
-15.9089
-0.170663
22.8169
41.6656
0.747231
-44.7234
-49.9725
-46.427
-22.9269
19.9914
51.0157
47.3389
-52.9615
-89.9454
-44.0492
-0.0522748
56.3733
108.206
128.432
169.377
151.525
73.8662
60.0251
-1.81339
-81.3782
-142.038
-213.088
-220.48
-108.991
-9.33563
-36.2804
-43.3383
6.26604
48.1652
122.87
177.905
147.227
82.2282
-19.4041
-106.3
-151.801
-94.6529
-36.4476
-18.3833
22.6617
79.5862
110.258
89.6229
95.7562
62.9541
11.3641
-47.2775
-69.1415
-59.8204
-100.123
-136.683
-63.6737
16.2146
77.6105
83.061
74.7434
46.545
-11.4896
-36.723
-8.09544
20.3043
44.0673
42.387
-36.9609
-98.3179
-82.6908
-92.852
-27.3574
-1.85544
-2.04463
0.372285
-37.9558
-16.4982
-30.5777
-52.3151
-12.6844
27.2562
40.3892
71.4408
101.436
134.649
162.764
35.8356
-85.4441
-108.966
-56.0871
27.6211
42.2802
20.3029
18.3922
33.8529
27.7396
-22.8393
-8.31444
19.2395
11.0417
-10.8315
-24.1119
5.98916
31.9032
-37.5542
-84.2878
-27.4518
19.8282
11.0288
3.66618
-12.9634
-22.4121
7.11193
2.67238
-29.8685
-10.2987
-3.73055
-2.95842
20.84
23.9922
2.36297
-60.5552
-140.767
-156.02
-103.612
-34.5285
58.145
97.6125
129.606
81.9165
69.3431
86.167
57.1716
30.8546
17.4842
-15.1857
-4.72361
18.2478
-30.4712
-43.6822
-29.6692
27.8861
46.8529
8.28826
-2.63167
-17.3689
-9.99422
-58.5369
-88.576
-18.8243
62.4985
69.9602
38.5922
71.9154
65.5191
-30.4309
-99.0388
-150.118
-166.346
-134.095
-49.9925
23.9076
43.0973
25.3225
46.0731
53.422
57.6285
91.7644
95.6562
105.329
47.9759
-53.2797
-126.39
-168.593
-122.467
-35.6522
47.1033
142.917
197.057
140.927
99.4142
17.092
-23.0355
-9.69223
-23.737
-36.3593
-27.5406
-41.6751
-51.2397
-85.4214
-95.6737
-40.4578
14.368
37.605
58.4292
56.2365
15.4946
-71.3708
-80.9066
-51.5896
-72.0779
-79.7013
-30.1829
18.7271
82.0838
74.6172
-2.87359
-10.1611
-39.4326
-39.4335
-6.43683
30.3144
88.3418
90.961
43.6113
33.3973
27.0617
29.99
3.52196
-33.5756
-39.2671
-47.8796
-48.5285
-5.88395
17.2629
47.0665
52.9272
42.0282
83.914
73.4531
-14.3612
-37.1688
-64.8787
-78.1896
-82.1526
-79.0112
-33.1548
-5.52542
29.531
79.351
68.2964
66.6095
55.965
6.01446
-56.4976
-65.1236
-49.9395
-21.1492
-27.4188
-48.2579
-53.401
-55.4436
-9.87995
19.7885
27.9618
44.0228
-0.421835
-32.4682
-29.3933
13.5306
83.5155
143.616
121.983
48.6996
-40.9556
-98.8861
-108.452
-133.311
-57.9336
89.7401
66.6352
-7.97545
-36.137
-18.1804
7.52582
18.8226
31.1506
75.0038
90.7711
37.9303
-6.19647
-31.1408
-16.2581
6.30557
5.50352
-16.6292
-9.87627
-12.8657
-31.0793
-75.193
-40.1252
5.79054
11.9338
-3.14333
-1.14124
19.4881
38.8338
22.3345
21.9964
47.7352
22.6677
-56.0934
-77.8842
-17.3233
-14.1636
-47.6471
-33.608
2.54097
-12.4713
-17.9653
60.1695
151.88
172.138
69.4399
-9.75812
-65.9302
-74.2732
-43.2445
-53.8147
-56.7639
-73.6032
-49.0524
-6.2216
-36.2333
-6.3721
53.4408
70.2949
75.727
7.33159
-30.0485
-27.0301
-36.2425
-41.2584
35.5598
108.697
136.321
40.9641
-77.6094
-151.348
-175.481
-149.687
-42.7693
55.634
100.282
124.45
152.145
60.1089
-14.0824
-3.87253
-16.4575
28.4881
48.2218
22.5338
25.8996
-19.6494
-73.6003
-46.7916
-8.39849
13.2611
36.1215
33.4927
-5.06005
-59.4144
-49.4359
-38.5205
-24.1157
4.13237
5.50504
-16.8478
-32.2062
-71.0083
-56.2103
-28.9494
-2.90712
17.585
33.0942
62.127
83.2416
101.218
106.177
62.8923
0.23602
-27.4
-56.7925
0.543953
22.116
32.0922
41.4845
42.0527
-15.2214
-64.1867
-144.953
-132.165
-74.8151
-38.9433
-19.2576
34.3471
84.906
25.9711
-69.6389
-87.493
-37.7605
7.74735
61.5166
73.764
21.2
-32.9015
-20.5819
24.8388
78.7025
69.7376
44.2775
31.9385
12.5114
-24.4145
-25.6076
-29.6841
-22.1375
32.8261
69.8905
78.1992
57.9493
-7.55672
-55.871
-81.1923
-82.5082
-43.4799
-29.5097
-18.9889
9.96013
5.22329
20.7751
5.44969
-27.0374
-3.36661
28.497
63.5755
55.608
61.42
3.64937
-59.4531
-86.6097
-95.6076
-67.4918
-31.3468
9.82886
53.3927
69.3208
66.9606
-8.33051
13.0238
47.4699
27.6469
-29.7631
-55.3125
-41.282
-24.3009
-40.4787
-44.6826
23.4354
64.271
49.6148
27.1312
-22.1935
-47.7133
-70.0319
-8.20415
33.2432
18.3204
41.8083
48.2866
43.4764
57.2063
36.2071
12.6411
-30.9075
-53.8158
-23.619
23.0218
83.116
70.0677
-33.9708
-49.8598
-23.7296
-16.8978
-11.0701
-58.5005
-50.6556
-24.905
6.4192
-46.2688
-54.0481
-30.1379
-16.5253
-1.43341
9.7155
-0.396135
-14.9332
-11.6727
-21.8419
5.70845
92.6174
107.622
71.3592
38.6011
25.4188
22.5824
0.448646
-50.3401
-54.6185
-5.22704
-3.19001
-11.5841
13.6711
52.2452
10.2781
-34.6364
-55.5784
-75.9345
-71.9379
-48.8837
-5.12996
79.1581
64.5859
22.2029
33.215
51.8943
55.2917
54.3324
11.6625
-11.3817
-17.4634
-2.03801
-41.0828
-74.4922
-21.5131
9.8679
-2.97173
-26.4821
-28.4745
9.5097
41.4266
-16.2959
-17.3021
9.85472
10.703
-2.8486
-9.60916
-8.89992
-25.2207
-8.37955
0.998331
-4.96188
30.7173
10.0231
-0.44563
-0.167138
10.5197
27.3723
-59.0405
-105.401
-78.7998
-51.0659
-59.6567
-56.9129
35.5123
112.38
117.013
170.38
157.643
70.2041
4.82682
-6.79763
-3.20515
-7.7863
-93.4832
-114.486
-60.8425
-43.6569
-4.94696
57.1295
108.335
127.729
89.2926
13.0785
-63.3617
-109.488
-113.817
-112.876
-55.3712
21.1024
72.5661
43.1485
-5.15832
0.684673
27.4755
19.7305
8.03393
9.00209
39.4005
20.9487
-117.249
-156.594
-93.7133
-26.3156
-2.28666
20.061
45.5569
33.7497
-16.9902
-29.792
-33.287
-29.1229
8.03157
22.4805
55.9825
81.7947
83.1695
61.8758
-29.1052
-17.6405
49.2289
61.0409
59.415
54.1176
33.9366
7.98966
-45.6499
-56.1489
-27.9445
-19.696
-18.6502
-24.8329
0.607873
29.1006
-20.8195
-39.7002
-47.8678
-39.0436
6.95858
-13.3809
-6.29394
50.4924
65.3594
42.6543
-21.9761
-26.2539
6.80775
-10.92
-3.36381
6.64855
-19.1637
-63.8076
-116.012
-118.352
-12.0207
62.2314
50.4856
-9.072
-16.5163
-13.8261
-24.7024
-2.7599
39.8282
80.2343
107.116
121.666
156.272
111.723
-19.678
-83.0968
-95.9261
-102.997
-80.554
-76.796
-37.7461
-5.87998
-39.4458
-7.94826
62.5819
110.129
112.383
55.6551
36.1675
32.5045
-27.7068
-91.4637
-121.071
-96.5691
-18.0375
32.099
56.666
82.6056
115.269
101.976
17.9661
-51.8228
-30.7845
-22.3536
-28.5499
-54.6189
-71.5464
-81.6372
-56.5422
-79.3288
-86.9687
-80.7762
-55.9698
-29.4676
-5.47566
-3.12541
5.38381
49.5284
41.0426
48.5885
63.7357
59.8385
91.3524
118.538
127.168
111.25
50.4597
-12.404
-62.0937
-57.8727
3.54197
35.3501
6.67286
-5.96579
-10.479
2.88618
0.208025
-15.58
-5.6629
-10.3748
-16.4317
6.36087
-3.87995
-55.1604
-83.6745
-81.5751
-48.8171
-15.2888
-19.1354
-25.3946
-8.93945
-7.64278
-44.1185
-53.1849
-4.51072
22.5847
53.1482
56.0417
55.4879
112.676
96.8808
-31.7776
-63.9964
-64.5613
-96.5175
-127.719
-66.3189
44.5831
89.0303
54.8596
55.0759
51.7175
65.4266
90.7577
104.321
94.3821
22.0039
-71.3853
-81.8522
-66.1175
-13.1085
23.0156
-5.26125
10.1922
34.0043
-33.9926
-65.6062
-116.234
-107.661
-29.9378
12.5002
12.4206
16.6668
43.8663
36.9993
39.4531
79.4709
102.113
54.5343
-33.2565
-115.987
-140.279
-115.65
-43.5144
-4.24869
49.1572
61.7977
38.7486
28.2475
36.3786
22.6772
44.9116
55.0066
-7.75398
-18.7365
-52.3812
-56.1462
-36.8729
-34.9769
-26.476
-10.5602
33.9349
57.7171
38.8631
34.1535
68.2606
74.865
102.848
61.5299
-6.85397
-42.5581
-64.7061
-84.2344
-97.7808
-93.5311
-35.3572
-51.5687
-50.5232
-13.8997
10.0293
38.7025
46.4656
33.8041
29.3469
53.278
6.04357
-35.8401
-52.4312
-43.3235
-22.1637
-9.55909
1.62557
12.8816
33.2627
14.188
-7.12169
12.3764
25.9619
28.8984
43.9632
76.4243
107.978
56.0112
5.02536
-26.7483
4.49783
14.3274
-17.1108
-34.8794
-12.0981
-51.1202
-120.347
-126.851
-81.1719
-0.480384
30.7676
23.6966
14.3055
16.9824
16.8469
-35.8123
-31.6002
49.7168
108.331
109.727
66.3088
-14.5925
-22.268
-5.10411
-59.0339
-74.0404
-31.4222
13.6448
6.78027
-62.8272
-96.6193
-3.20173
34.4568
25.077
19.1313
42.6925
40.86
7.25167
-17.6707
-7.31915
7.99212
23.145
32.9771
23.6857
30.5995
61.4412
77.9322
81.4302
15.6533
-45.07
-39.6636
-32.0615
-19.3178
-35.791
-85.209
-84.2949
-97.4461
-102.012
-102.121
-100.734
-46.0058
16.0928
32.7918
63.9095
67.2979
49.2414
47.226
24.7987
56.2495
100.834
124.47
109.617
38.9344
-9.3703
-3.8659
-13.5883
-24.6995
-13.1169
-12.4803
-14.2998
3.56858
13.6695
-66.3252
-94.7108
-78.0725
-40.0608
-15.1859
-11.8969
13.6785
66.2721
57.1114
-31.3947
-37.9301
-3.03811
-4.75426
10.9431
45.3241
64.2937
56.5535
2.43682
-94.7176
-114.084
-87.6593
-73.2607
-0.973308
56.4527
83.6904
105.647
83.5212
59.6818
17.7153
-37.1485
-101.786
-153.344
-101.876
-20.871
16.2257
56.8508
63.4719
59.6878
87.9721
73.9232
57.2572
40.1928
0.675965
-66.0789
-86.7143
-92.6307
-51.7145
-7.05109
15.3597
59.8194
158.921
165.19
84.9343
-43.011
-98.1685
-123.608
-129.221
-94.991
-38.0786
49.4396
105.716
88.6156
41.7434
17.5746
-8.97482
-24.8683
-63.5792
-94.1924
-115.926
-102.469
-59.7988
-4.65237
36.7414
84.172
114.924
154.605
168.698
121.763
-0.721878
-168.389
-284.928
-313.681
-254.989
-70.0627
31.4851
87.6005
125.14
138.327
150.794
152.839
134.478
143.454
132.949
38.763
-41.1832
-100.711
-124.247
-80.6137
7.20663
55.1322
117.016
148.926
113.382
20.1185
-18.0164
-40.8934
-56.2497
-55.6995
-50.9706
-55.0442
-71.8612
-143.854
-161.294
-119.644
-132.486
-120.008
-51.1049
-13.5932
23.0969
46.4428
90.3681
124.351
130.819
92.3539
44.5301
16.0515
20.9275
-43.0209
-64.2965
-45.4344
-20.1677
-0.935055
-8.01709
56.9708
136.081
133.651
133.093
77.9504
-12.4741
-40.7846
-55.194
-46.1146
22.2939
43.9052
-32.83
-87.669
-93.7007
-55.5982
-56.242
-78.1271
-96.6019
-38.1518
33.1318
32.3987
43.1814
99.8451
75.7925
20.1301
-80.1531
-79.098
12.8726
4.43785
-51.5116
-53.4434
-31.8017
-54.1874
-93.2279
-25.6503
96.8432
146.391
144.035
122.519
66.6049
20.1339
5.50886
-4.25798
-11.0488
-13.803
11.6143
52.3376
50.3317
35.7501
13.2326
-29.7843
-15.1571
64.5511
62.6098
-4.97413
-91.8361
-135.781
-129.535
-99.9812
-83.8009
-33.6503
-5.40017
-82.3814
-117.701
-83.5918
-0.463597
25.4006
-20.2753
-18.0398
27.8017
59.8377
61.6646
66.6683
91.8999
65.5811
37.2109
45.7818
34.0279
32.9132
3.61474
-27.1038
-33.7358
-22.7931
-29.1728
0.129151
49.7557
90.634
72.585
57.4314
36.4505
1.89549
3.58613
-6.78633
-9.13093
10.248
-16.9591
-54.7123
-57.6263
-56.3974
-7.24493
-0.31802
-40.7747
-23.4384
-29.7757
-35.7453
-15.5063
-13.2337
11.3376
11.5944
2.10693
25.0889
54.9758
13.6657
-55.4163
-51.6661
-35.133
-28.7596
-8.03704
4.7504
30.2572
51.8336
-10.9032
-54.649
-12.2831
34.3156
70.7828
136.008
168.596
126.939
-45.1403
-142.012
-186.578
-169.206
-117.648
-78.986
31.8666
142.052
154.027
103.568
-23.6253
-92.4719
-96.9422
-55.7904
34.8897
93.0391
77.8312
38.6305
-34.7649
-90.0734
-37.673
-1.38421
28.4937
64.2864
109.42
125.178
71.9467
12.9734
-42.2797
-79.1374
-58.481
-22.519
43.4626
61.9442
37.1927
-71.5367
-95.021
-79.1899
-57.1967
-17.372
9.08451
9.3868
27.2673
52.2133
-7.48801
-56.8976
-72.2112
-82.829
-66.0545
-14.3205
56.0263
98.0687
43.6441
7.31313
-41.5998
-14.603
-9.58123
-72.3724
-58.1061
30.0314
33.5687
42.4641
43.5518
29.3483
57.1325
49.5129
23.3436
60.5647
6.56345
-28.9327
7.46796
-11.8481
3.21371
21.3815
-18.4957
74.5271
89.5053
37.6725
-39.4887
-74.5955
-65.9489
-52.7656
-29.6925
10.9349
15.6614
-3.98398
7.88668
39.8627
16.7026
-13.3553
-11.8078
14.7665
-1.01731
-25.3173
-35.6745
-45.6644
-65.0558
-103.636
-45.577
1.78416
6.47183
4.54844
12.299
48.8582
83.2036
31.6828
-16.8318
-37.2467
7.56641
23.5881
-10.9089
-14.6954
30.1171
1.4293
-39.2429
-61.2629
-55.0011
-6.88442
61.3467
103.18
101.998
82.8735
31.917
9.1888
-18.7586
-5.91173
1.41311
-21.6143
14.2189
45.1347
-6.36669
-27.9384
-35.4504
1.32533
28.4138
2.10968
-77.7841
-94.7185
-41.8322
-25.459
-34.2091
-44.9375
-24.8614
-10.5548
-9.77911
4.16975
31.8034
55.2242
3.0119
-5.60049
48.94
78.0783
50.3152
4.78946
-20.3543
-25.2903
-65.2155
4.39008
48.6489
51.6281
9.37378
-46.5357
-58.6589
-72.188
-95.7487
-24.05
42.3921
73.9889
98.6616
65.0165
65.1627
51.3358
26.9709
19.6719
11.6837
14.9412
66.8189
20.5693
-34.5876
-49.6688
-67.9072
-36.9265
-20.6801
-22.5718
3.63518
-7.10829
-38.5505
-44.0178
-28.2932
-76.7878
-93.3431
-67.1925
-55.2381
-30.0498
-7.01797
13.3727
83.8395
60.2695
35.6336
40.2424
56.4525
47.9585
29.7348
30.4431
48.3488
14.9423
-54.749
-64.6098
-45.7324
7.79275
14.8631
2.71206
17.7106
39.9147
8.06803
2.56956
0.238452
-3.93394
-25.3682
-25.7242
19.1954
78.1902
0.171025
-63.7791
-96.6643
-97.8035
-62.9807
-20.4647
59.0741
148.901
122.07
73.7936
25.0908
-17.8161
-18.1741
-29.2793
-56.4489
-57.8941
-50.6306
-18.8239
42.1862
21.3607
53.3038
91.7956
102.841
85.8003
42.1082
-9.77171
-45.1996
-104.002
-95.6409
-50.6179
-8.21541
19.1252
23.0369
-7.94742
-21.064
-67.8808
-90.4199
-110.957
-142.581
-78.7264
0.604943
2.21426
29.7392
22.1979
45.7187
70.3391
66.0226
87.2297
116.967
85.9612
31.2975
-68.5598
-103.49
-95.364
-61.4853
52.4823
104.529
114.557
137.499
76.6552
-1.75117
12.545
4.96783
11.6512
9.98196
-14.5615
-48.7813
-64.2173
-62.5464
-84.2981
-68.2536
-8.78883
44.0275
56.8468
39.2517
-5.22539
-37.9032
-31.0583
-69.1426
-46.07
-11.9412
-50.8379
-94.6174
-68.6441
15.8702
102.192
92.9591
-9.34214
-76.3801
-67.6382
-34.4236
6.90015
42.1536
81.5679
13.845
-2.56593
34.3201
42.164
42.1648
21.9837
35.213
68.7661
63.3747
43.2568
3.56899
-47.5711
-59.5448
-2.65638
49.0949
74.0761
57.7119
-8.61195
-39.6276
-45.0173
4.73741
25.8355
0.0308327
-23.7097
-29.0435
-73.1111
-64.6297
-40.8535
-17.1105
-12.752
-39.4498
-71.7549
-39.0348
-50.3971
-40.9145
-28.297
-13.1848
29.8427
33.9906
50.2362
101.797
64.3458
10.3531
-31.6788
-69.2956
-64.217
-67.1056
-13.2012
50.0939
-8.6169
11.2935
59.5295
69.391
89.3673
103.557
118.699
122.702
103.215
8.71574
-59.8591
-90.2543
-60.1389
-37.8493
-16.3163
18.8401
64.6079
77.9205
-35.7021
-87.8401
-46.2752
-53.298
-94.38
-110.794
-73.795
-27.4504
-9.37651
-53.5492
-79.5109
-0.335872
65.6389
63.5897
42.9254
30.5182
18.5189
-25.9774
-60.4273
-33.1777
47.6895
96.024
81.4061
11.3219
21.2931
73.1401
33.8919
-1.83142
-48.4996
-87.7283
-106.574
-95.8715
-31.8395
17.5195
19.7182
44.2258
56.5065
74.1987
70.1674
44.0381
48.5452
6.62701
18.7561
52.8001
40.7937
0.0506496
0.535971
-17.4318
-0.0642823
6.90862
-11.6712
-20.0612
-75.8175
-90.5552
-49.4924
-19.2504
-16.7881
-7.57569
-9.10313
-30.6779
-26.4432
-25.46
-27.2733
-20.7606
0.917645
2.835
-20.6935
-73.2596
-57.0328
23.3713
91.6182
75.0524
20.5468
23.3297
19.9088
-37.2793
-87.0632
-49.5827
31.1262
88.8962
89.6116
85.1186
78.4224
82.2704
18.7224
-27.1546
-10.9107
17.0822
7.62314
-10.0297
5.47404
45.9651
19.2086
-4.4399
-17.326
-7.59163
18.8988
-18.9295
-80.0813
-87.9341
-91.0386
-106.432
-74.3161
-39.7028
0.495944
12.5861
17.4421
18.7693
38.0069
38.3447
20.9364
7.38771
-10.9059
-66.1406
-57.7966
-16.0472
61.058
63.4122
54.6011
24.6667
-5.34494
1.66526
5.97175
16.3489
38.1587
-9.98945
-21.5997
-4.69807
-13.8944
-14.4463
0.734124
1.79279
61.9419
53.4881
45.9543
28.4762
-1.34969
7.29525
6.57074
6.01953
11.1628
-41.6413
-73.1404
-80.5983
-83.1972
-42.5404
-11.9919
33.716
71.7125
48.5759
-30.4937
-68.083
-35.1015
19.4461
32.571
43.1857
25.0263
3.3645
17.4427
14.2912
-16.5764
6.36099
30.9549
26.252
8.6156
11.9219
15.7406
-7.47313
-10.5096
-21.1283
12.9357
36.0487
-10.3607
-53.6032
-45.9382
-38.0025
-55.3992
-101.146
-134.223
-86.9883
0.206286
63.0103
76.7511
78.5657
97.9549
82.2436
71.29
75.8609
47.3838
14.5639
-26.6304
-54.353
-72.6203
-43.727
17.5061
-10.668
-76.09
-45.6456
4.6773
49.5579
87.6065
49.4446
5.78772
-24.1601
-29.0557
1.19026
-4.24538
-19.2076
-34.5245
18.8965
80.2511
9.303
-26.2118
-21.0345
-41.1876
-12.9671
44.9388
90.7898
83.2788
0.75843
-61.3262
-53.2746
-37.8824
-47.726
-83.1943
-70.7836
-40.5427
-83.983
-92.117
-58.9699
-7.06817
93.51
159.203
169.447
122.878
52.6791
36.8084
3.86073
-11.5839
-11.1591
-32.8629
-8.198
-0.7797
-44.5739
-45.9666
-48.1071
-68.2011
-69.0351
-58.8311
-24.223
-5.44128
41.769
42.6776
-7.1152
-7.37097
21.4535
23.6734
26.7096
42.1973
55.7279
60.1408
20.9885
-3.26701
11.661
36.0737
44.484
75.5103
96.0088
50.9062
-27.5109
-60.3403
-118.427
-182.339
-187.571
-154.319
-43.9732
24.7252
45.8224
66.3369
29.2921
-13.6263
-2.8114
7.35074
40.9949
74.8738
118.479
162.404
90.5892
-56.2037
-105.365
-110.125
-46.6353
39.0517
91.3222
123.767
103.932
37.2891
36.2009
2.37642
-42.4213
-95.6905
-158.018
-204.153
-194.983
-117.728
-115.603
-113.458
-39.1751
69.3432
123.428
133.12
116.756
126.61
132.015
49.8947
-12.2143
-6.35361
-9.40559
-9.12819
28.526
79.4664
105.959
101.297
100.494
21.2965
-27.9921
-63.2729
-62.2649
-18.1368
10.1927
-51.6251
-82.0185
-80.1031
-81.583
-87.1016
-84.4924
-53.0844
-36.6408
-13.6714
-53.6719
-72.8893
-19.9542
65.8037
77.0815
37.63
21.4474
42.1609
32.0611
-2.12875
2.98682
38.1117
67.9241
72.2375
57.924
47.952
71.2483
90.8673
-11.5946
-117.902
-118.014
-76.7295
-83.3374
-101.107
-48.3729
92.5349
126.709
79.3494
49.4401
5.68641
-38.8879
-25.4196
-16.4204
-2.69391
-19.3207
10.3291
4.35183
-14.3982
13.5034
37.9293
81.8111
72.2907
37.7254
44.5177
27.2653
-51.0294
-84.0032
-95.6294
-25.5688
-5.83697
-39.6697
-30.0607
-27.0368
-51.2467
-28.8089
-32.7894
-34.2097
-36.7508
-63.1399
-30.4585
5.61489
10.7856
31.0556
39.617
39.6813
22.4847
31.5555
20.6784
-46.0906
-4.98643
43.4755
43.7505
39.4157
60.5981
94.5178
121.736
78.0454
31.5721
24.1011
-6.30325
-70.6179
-122.862
-164.534
-178.925
-91.1502
8.51173
12.7374
-4.35405
35.0005
76.6573
101.19
100.581
80.8269
55.3988
5.22963
-45.3275
-60.8499
-52.4682
-14.4632
0.129662
28.364
55.4474
53.4065
79.6987
39.1466
-41.3925
-31.5127
-2.80181
-5.15836
-16.77
-100.755
-186.1
-224.659
-217.098
-107.153
36.6057
145.656
129.973
90.1951
59.2133
11.2517
22.8029
42.1705
36.716
30.3738
32.6373
29.6581
28.8737
-26.9247
-32.3438
24.1458
81.3596
114.337
94.6179
82.5774
27.3872
-86.1297
-98.6145
-96.292
-105.644
-54.4865
-25.4529
28.0015
49.1985
-17.3145
-51.3905
-56.4066
-32.3056
9.95442
15.0812
49.7563
46.0379
28.0486
26.7482
-32.9674
-86.7366
-63.061
-47.5175
-19.9487
13.3325
41.7831
43.7607
25.27
20.2997
34.3232
20.6898
10.5777
11.5348
40.919
29.0749
-25.239
-45.4572
-34.8151
-36.656
-25.966
-15.5147
5.72376
58.1026
72.7824
34.7349
5.30931
13.5973
39.7704
64.3605
66.1118
48.5854
19.5592
-80.9355
-156.073
-183.939
-152.623
-95.6413
-63.4292
-31.8891
-5.55208
29.8375
86.1688
125.475
159.9
137.909
46.01
12.5377
-22.514
-74.2255
-58.1122
-32.4919
-4.33566
38.4695
78.2157
141.293
134.678
84.0682
8.89108
-2.35383
-25.2912
-67.7209
-118.541
-151.409
-134.899
-34.9629
-3.08746
-25.877
-18.9372
-18.5865
-33.8826
-46.0515
-68.7734
-38.456
0.426481
-7.05049
9.19393
71.3282
102.543
66.4293
41.1892
44.0935
-13.1098
-84.5253
-152.765
-166.657
-46.4223
39.4633
79.074
132.337
122.737
37.6162
20.8647
45.7257
70.3
74.6346
83.3668
69.2479
79.2938
63.1667
14.3946
-13.4085
-7.70307
3.40442
11.3659
8.97817
11.6878
-21.9891
-73.0242
-131.287
-115.612
-50.1645
-38.7226
-58.8794
-71.482
-72.0167
-48.4042
-82.4077
-120.84
-100.702
-45.8806
-34.4321
9.22277
71.8162
120.757
94.7905
36.3927
10.6134
48.2716
76.5882
50.7084
43.9379
79.4055
47.9201
12.635
-1.85188
-23.6213
-6.26351
0.978315
-3.08698
-10.3415
-59.9901
-56.6988
19.6514
97.2298
109.521
36.6344
-6.31594
-11.1772
-50.7852
-38.0828
-9.09388
-6.19446
8.50245
7.94077
7.71404
18.9903
9.20453
-1.93347
57.6104
65.9658
47.141
-25.0983
-141.391
-231.323
-195.819
-59.4728
-20.7051
-12.3002
14.8171
17.6634
9.12563
10.8153
56.0354
87.9202
60.1901
36.5825
34.9505
63.3221
31.0408
9.95018
16.3153
45.2813
49.4915
-13.3069
-63.6717
-53.1603
-4.85566
4.34734
-2.52485
5.61968
16.6325
-44.7566
-59.537
-42.6823
-23.4124
-46.7584
-36.9633
3.65582
-12.7599
-50.3561
9.42676
48.7346
61.068
83.665
92.2936
91.9836
94.7527
21.0188
-22.5573
-25.2894
-3.0318
54.7361
73.1192
30.6816
-6.78902
-28.9781
-105.685
-172.356
-190.924
-168.216
-98.4182
-8.06347
46.4673
105.354
99.8995
56.1784
17.9566
14.3088
47.7219
70.6932
87.124
94.9456
-55.2867
-152.343
-138.101
-75.628
6.71608
78.3496
110.013
137.49
65.4439
6.97604
-15.2569
-29.0964
-11.0616
-12.1465
-3.05832
17.847
-45.5423
-85.6856
-107.171
-96.87
-28.5036
23.9077
56.5584
48.304
4.03011
-40.9971
-24.5255
5.18747
10.8624
7.51327
1.65429
5.17242
49.015
19.4831
-14.6969
-11.2805
24.4355
22.9342
0.684878
-14.3509
-5.5236
17.0831
60.3766
20.3778
30.9215
50.4939
25.4047
20.8424
23.4309
16.4273
4.02237
-16.2719
-81.3435
-70.3722
-50.6007
-29.1285
-17.4671
-35.7884
-44.0413
-73.223
-99.9281
-47.2637
-8.17804
60.461
64.9769
49.8284
78.5899
73.0232
55.8473
46.2875
31.4082
20.1653
21.6246
14.0585
34.2095
32.7871
25.6604
12.3675
-7.73292
-17.3442
9.96018
-8.71356
-27.564
-20.0117
-9.26048
-68.1551
-108.889
-127.631
-127.896
-140.855
-104.658
-41.852
11.6415
22.2975
48.7683
95.4096
125.072
110.538
46.3464
30.4073
49.868
7.25001
-16.9017
-16.453
-14.1735
15.4489
40.0908
70.1524
106.217
88.3763
32.4794
6.57602
-15.1054
-33.4997
-68.0451
-89.5497
-92.2447
-43.2235
-12.3499
-27.2588
-23.3374
19.181
20.0875
-23.2407
-34.3138
8.91571
48.7867
48.4189
-7.67459
-55.6411
-35.132
-13.2766
22.1045
24.9341
-5.68246
-18.1957
-29.1017
-34.6913
-9.92076
3.4654
6.04087
13.5412
4.24348
19.4949
10.88
6.49727
-5.37386
12.0979
46.334
75.3575
83.7785
87.8355
29.9896
-8.64794
11.1248
-8.42177
-25.2516
-34.2586
-25.1118
29.8769
7.8783
-25.0234
-45.9029
-53.9461
-40.3593
-39.9117
-70.8097
-81.6955
-72.152
-25.2781
-1.08224
-8.87615
-10.3211
-3.93694
1.74762
38.5914
51.2635
28.8219
-12.4045
-29.8253
15.7922
56.4366
75.3566
113.991
164.024
137.92
54.9851
-36.6985
-136.467
-154.385
-104.915
-18.6199
48.5095
79.4446
24.8827
-31.9936
-49.0708
-61.0617
-48.0232
-43.2183
-42.9802
6.03591
65.6806
2.49427
-47.8306
-23.0996
18.4874
46.5707
72.5568
105.554
109.242
25.3093
-3.42419
-27.1463
-65.5154
-78.9442
-47.4119
16.4807
87.0845
45.9329
35.3388
20.0504
-43.393
-66.1083
-62.2887
-56.1185
3.85863
6.84613
8.33984
-23.9905
-69.2627
-69.9245
-50.8297
-29.8943
25.5719
69.4121
44.3341
1.61541
-18.254
3.05077
16.1947
-2.27838
-23.393
22.2593
15.5289
-5.29135
-25.8823
-1.46307
36.792
31.0297
33.6861
57.8749
31.5861
-10.5726
1.47241
-4.22286
-3.39083
8.27843
10.0203
39.2077
28.9662
-22.6706
-11.1564
-15.419
-0.468418
14.0333
-9.57525
6.60659
33.4405
15.5336
-11.6592
-33.5184
-38.0142
-19.0037
-14.8281
-10.1109
-2.02541
-14.2597
-51.3916
-44.3914
-11.3367
19.1431
45.8541
72.0831
50.8437
47.0266
34.1802
-43.8141
-85.7197
-102.757
-109.491
-72.905
-44.1838
-14.663
39.108
51.6131
55.9901
55.9844
62.4952
39.8475
-6.77068
-33.6612
-24.1815
-51.216
-37.509
19.9996
53.1929
79.9915
84.7314
82.7748
54.5467
-30.7082
-32.4951
20.749
40.0664
44.0973
13.5224
-64.5358
-84.016
-83.0952
-37.0424
15.9896
8.12182
5.80188
-1.74262
-34.3439
-7.87166
-3.27862
-0.478382
11.5447
54.9355
75.973
24.6039
-55.6951
-126.133
-142.934
-133.997
-67.2963
25.3799
53.5785
45.7997
49.4539
45.5487
49.6691
32.4553
-0.499568
-22.1793
-5.34162
-2.96663
14.2246
22.2101
61.8065
53.387
-4.82458
19.3457
63.2014
87.4459
87.3164
36.6577
19.5511
-10.4116
-61.041
-78.6791
-81.7435
-69.4811
-54.6596
-47.6557
-21.452
20.9402
58.1899
1.85119
-43.8979
-47.5276
-10.2541
-18.9974
-34.775
-32.6725
15.0017
24.6757
6.69065
-44.0371
-23.9422
12.1458
34.5822
56.9443
62.7728
39.6333
62.0227
16.5012
-24.1763
-19.7142
-18.8023
-2.22097
22.93
19.346
28.4942
-17.5677
-24.7414
-4.59426
7.98419
40.7305
55.0574
58.9364
64.7937
-39.2526
-125.659
-149.873
-180.555
-129.65
-49.3025
13.5221
113.033
104.271
65.7197
12.6218
-4.37403
39.7581
57.8748
66.0601
70.6504
36.0307
-33.4705
-93.0233
-115.342
-35.4357
27.0097
63.9105
110.345
137.22
126.925
99.4728
-11.3534
-45.193
-67.1767
-75.5191
-89.3758
-77.745
-51.8471
-97.741
-110.251
-62.9309
-27.1683
-13.2895
-4.8397
18.398
43.4588
18.136
-43.2303
-60.5646
-78.6451
-63.3919
-18.7891
37.2599
72.0732
127.761
118.737
50.0796
18.4092
45.9458
59.4274
61.4212
48.5994
50.7597
50.0133
-6.18872
-50.1327
-32.2593
-21.5483
-10.5034
-19.5331
-28.2288
-29.4709
-1.01993
-6.06597
-13.5151
-8.16245
15.9956
22.3929
4.88712
-23.4538
-0.789292
32.2915
-23.9738
-43.0092
-10.4731
16.0068
11.2905
14.5069
-5.95054
-12.3384
-29.3252
-61.8986
-55.7944
1.42066
17.2282
0.265368
18.0633
24.2791
3.42489
-32.5249
-85.7551
-104.743
-38.3871
11.6752
55.9411
92.4143
65.2575
46.7787
25.9306
7.89626
-34.9201
-52.8637
-78.7446
-67.5547
-14.5809
22.3227
29.0303
17.5774
59.222
126.671
179.922
169.869
93.1133
-46.191
-100.665
-125.616
-112.966
-114.426
-102.248
-42.5399
13.6269
71.1966
88.8184
46.2131
29.4819
26.6834
20.0095
3.60112
-0.405944
12.1712
-2.73889
-30.1801
-72.2205
-59.5817
-40.256
-39.3979
2.50603
29.1174
26.5275
38.7434
30.3572
23.2155
10.6096
8.09381
-21.1124
-31.8321
-13.016
-16.4421
-51.4614
-66.4966
-82.1724
-66.3079
-4.46221
57.3548
123.901
93.0101
-9.63122
13.0575
58.9111
9.91177
0.338133
18.4142
56.0159
114.316
91.0703
-9.56431
-84.4598
-127.163
-143.991
-157.707
-78.2044
16.6331
69.97
75.5302
11.6945
14.2167
50.0897
30.4502
-2.27644
-3.2554
51.2657
35.2164
-41.7939
-78.2914
-64.4532
-1.09304
48.8539
55.3489
72.8762
65.834
-14.0081
-52.3364
-39.8238
6.84345
33.2157
44.089
59.8445
40.54
-10.3177
-42.2933
-101.068
-134.862
-110.447
-43.8003
11.2848
33.9866
35.1573
16.838
25.8233
22.9047
44.7587
50.3835
34.6565
20.1053
-12.516
-75.4201
-48.6195
4.79461
69.2636
80.9593
30.799
-7.88953
-3.85292
0.583743
-36.6869
-52.6075
-32.5147
-9.87311
-6.47702
28.8245
47.7959
24.0841
27.0712
-22.8151
-45.0449
-0.626777
-17.5074
-78.0852
-84.1132
-49.4411
3.27566
