66.4733
57.6525
9.6408
2.06874
20.9666
23.3638
-9.35613
-62.6128
-75.9847
-48.3562
-64.1873
-98.4401
-83.1708
-36.7439
23.0319
43.8117
88.5082
122.011
115.613
87.8017
43.4354
-22.6731
-83.5066
-98.8608
-79.772
-48.9344
-2.8318
-11.4361
-5.9864
21.642
58.0823
80.4993
67.0151
28.26
-8.03107
-42.847
-45.6381
-77.1999
-114.68
-111.116
-78.6082
-26.4373
36.7652
-14.2632
-40.6319
36.5458
105.914
165.039
189.538
166.709
143.392
83.9833
-5.5948
-68.1964
-118.377
-95.9908
-49.7819
-21.3949
-4.9943
22.7032
6.07465
-17.9778
-37.2747
5.92878
2.96364
-73.9369
-104.092
-83.2727
-90.3451
-92.6919
-56.5802
13.2784
58.8328
80.1319
98.1224
73.7269
22.1272
29.7999
40.3102
-38.8613
-66.3137
-48.8638
-14.4109
26.1059
40.2099
77.9958
60.8111
21.4851
21.9214
20.8168
2.19018
-26.2051
-37.136
-42.0362
-48.0211
-49.8901
-37.8696
-31.6992
-25.4067
-11.7905
8.48549
27.8671
27.3461
25.7148
37.1833
29.4699
35.3824
21.9745
-6.88712
-4.98801
4.24599
-1.03347
19.4437
34.3722
30.4684
33.5493
30.1182
-3.89232
-10.4921
18.672
-3.1104
-11.8425
-14.6368
-27.1857
-54.3059
-90.6873
-81.2776
-39.6903
-58.1083
-65.7923
-43.9699
-16.4287
5.32952
31.7993
87.3944
108.515
62.948
81.4937
91.104
13.3997
-27.9288
9.94496
59.6123
97.862
86.7559
-12.1094
-70.2566
-75.2462
-85.7426
-99.5189
-98.3973
-82.5955
-59.7901
-44.6494
-47.3505
-38.3905
-14.4135
-24.0823
-6.98313
51.6117
69.4464
46.4022
9.63841
-24.8676
-28.3823
40.7743
56.6626
56.9895
71.0735
61.104
43.4617
54.125
59.639
51.0305
19.176
-2.75423
27.2516
-5.92564
-42.4607
-19.9806
-2.88122
-19.1379
-54.1096
-73.7087
-33.1812
-10.4829
-0.247041
4.25879
-1.13265
0.242513
3.53189
2.0908
-17.1682
-34.7361
-22.8885
-45.0787
-52.2409
-20.7382
1.27804
19.72
53.2824
55.2232
34.7401
-10.2674
-35.217
-25.361
-32.7193
-95.637
-107.447
-63.0567
-20.0695
2.52521
37.2733
82.7478
116.515
149.346
166.089
128.07
32.8295
-17.3687
-36.879
-49.2808
-38.7812
5.24156
-10.5382
-46.402
-50.6641
-18.6098
-1.05754
-9.02179
-16.3231
5.09558
22.1389
26.7754
11.9459
-23.2546
-68.8669
-104.959
-78.5392
-27.0057
4.81464
-5.38363
-37.0478
-90.353
-103.178
-26.7843
89.1374
160.712
188.937
183.427
155.102
93.221
-36.997
-152.959
-166.959
-107.668
-82.4598
-49.0056
2.98372
25.7373
38.0798
18.8201
-8.09402
36.8078
61.9601
51.4907
11.838
-27.7053
-13.8692
15.1387
16.3621
-5.22491
9.16121
20.3611
-0.855349
-26.0258
-14.5265
-1.29389
3.25545
-17.0886
2.06847
18.518
21.3273
14.657
16.6076
6.01493
-21.3582
-36.8493
-38.3099
-48.8293
-49.6344
-33.7038
-4.8738
15.3099
-9.95401
-11.4966
11.1789
33.0171
48.6254
43.2365
4.29409
9.9166
24.3626
25.5962
25.8714
-13.9353
-51.7232
-42.9496
-9.10969
17.3136
23.9263
-3.66986
-41.6575
-21.7943
3.69236
16.6106
20.226
5.84185
-4.96648
2.83916
10.2802
-2.66125
-0.587494
-12.3087
4.35145
25.7574
-5.1053
-27.971
-32.4071
-23.1931
-17.4907
-0.423547
27.2643
8.68791
12.6874
46.8952
37.4763
0.933513
-8.12439
-12.1339
-23.0496
-15.6539
2.77995
19.2179
2.94044
-19.4175
2.26837
20.0615
10.3063
-5.83604
4.20663
26.9147
12.3071
-19.8191
-26.3499
-38.8926
-18.4215
10.6526
14.1642
3.5982
13.6858
22.0847
6.6068
-4.26965
-26.8763
-38.5073
-3.41846
-4.68209
-21.8369
-11.5442
16.5095
77.3599
122.919
118.448
79.0484
18.8814
-23.9265
-22.3112
-110.399
-220.88
-140.073
-25.6612
20.8983
60.0316
69.2694
44.4191
6.24204
-5.00424
-5.75606
-36.9849
-83.7742
-88.2748
-73.3203
-44.8083
-12.6112
-1.72211
-3.01957
2.60343
75.5242
132.729
34.5806
-9.13731
81.8085
109.981
38.2231
-1.98748
-8.0477
10.675
27.4438
40.7504
37.4379
-8.96103
-26.4715
-30.0648
-21.576
1.84216
12.3887
-3.63758
13.3624
61.6484
38.9233
-37.4636
-125.003
-161.286
-93.7815
-13.718
12.6794
58.7578
45.2292
-14.8012
-41.4461
-32.3694
-18.5271
30.4781
62.8889
49.9125
30.0095
23.6489
-20.0107
-17.8577
10.71
21.4936
8.13451
-3.4072
-11.3766
-12.3165
11.1431
-12.7702
-24.1856
-2.70639
14.8453
-29.3896
-82.323
-82.2992
-40.5474
7.20965
67.4388
79.4995
58.9846
42.134
-4.98363
-39.0147
-60.1972
-30.9558
71.933
132.737
131.2
126.268
86.3645
-7.86839
-43.5535
-29.7572
-29.6141
-56.5313
-85.6501
-91.0302
-127.801
-142.992
-108.215
-69.962
-22.9366
-22.4454
-3.5975
35.5188
62.745
27.8149
-13.6553
-53.2571
-39.4693
40.5785
95.9443
108.785
147.274
151.963
76.3239
1.92202
-19.7108
-23.5432
-2.94319
-9.06568
-20.3628
-3.29877
29.8712
32.1483
1.09626
-25.0152
-78.7374
-80.7893
-29.76
10.3336
14.3862
38.1057
36.3375
9.1921
-8.8001
0.0121006
26.8333
72.589
49.7952
-3.07924
-23.8324
-33.3083
-116.991
-154.992
-124.684
-49.7778
62.7861
107.164
76.3888
51.5776
20.4221
-62.9819
-132.972
-169.718
-148.68
-127.433
-68.509
6.98348
106.201
189.137
169.876
156.07
188.037
157.156
39.3189
-46.9949
-97.6559
-121.523
-111.254
-53.5402
1.55476
29.4144
42.0748
59.8118
85.8295
78.2294
16.1634
-27.9006
-57.9124
-51.8365
-17.719
-14.3628
-19.4112
-9.23783
4.73052
-15.6559
-16.7416
-43.9777
-54.7293
-72.9463
-45.3691
-1.65339
33.0148
46.2364
49.7595
75.6253
88.0079
49.0781
17.9674
-30.6858
-66.5583
-61.7988
-19.2208
-33.9916
-67.7625
-38.0054
-22.1318
-20.3089
-4.82567
17.3034
39.1736
46.2217
45.1177
59.5677
65.0478
63.6686
41.7379
-9.22291
-61.6025
-100.562
-61.2308
-16.6437
10.8332
17.7866
-13.9463
-21.934
55.1598
94.6386
86.2029
63.5884
15.2046
7.95623
25.0607
-0.20985
-75.9304
-185.674
-183.188
-73.6259
35.676
100.963
87.9986
51.6367
51.3491
81.1515
99.7717
41.887
-72.7614
-86.1439
-108.228
-145.333
-145.658
-143.054
-125.891
-50.687
56.676
144.233
168.913
130.23
79.445
25.6939
-2.31882
-4.8535
-17.135
-28.4319
-13.6069
24.3518
40.0579
1.30472
7.09685
33.9654
30.444
40.0928
43.6431
44.9146
9.02113
-10.3764
-18.4338
-34.7378
-43.0996
-17.6585
9.13347
-0.949053
-54.6074
-65.7726
-0.944011
25.4712
-27.0091
15.9346
42.8084
3.84055
-30.0655
-30.5154
-41.0921
-38.6514
-6.1623
19.043
16.4488
-12.7647
-57.7178
-44.5025
-21.5256
1.0509
-3.26674
-28.3313
-51.3751
-26.964
-3.10616
30.5241
91.3228
84.9913
55.8357
47.2363
52.5309
24.7139
0.0766441
17.4513
1.13871
-28.4458
-23.1677
-23.4011
-5.886
47.6742
127.944
133.28
76.5409
36.7136
46.8133
-52.3466
-203.134
-142.303
-15.2675
35.9899
35.5784
28.1071
21.7282
-5.09406
-97.0025
-149.062
-142.408
-126.111
-95.1448
-57.878
-33.5823
3.11318
37.8412
27.4274
21.145
65.4465
110.141
80.5871
14.4175
-5.80407
23.1675
11.1886
-3.58857
-6.89037
49.2489
127.23
142.827
128.584
97.4811
8.00681
-54.5529
-65.6283
-57.7131
-42.2574
-36.4389
-66.6071
-77.5675
-78.5427
-67.2754
-34.928
16.2831
64.5058
77.833
57.492
49.8085
45.6777
34.7329
52.1768
65.6097
20.9302
-64.0736
-117.994
-150.265
-151.879
-149.685
-111.948
-6.96742
115.174
120.301
81.4583
78.0669
95.4443
67.6319
32.9163
-33.1132
-115.618
-126.257
-121.6
-126.36
-64.8864
26.1234
100.871
139.87
184.251
204.29
190.434
122.963
-37.5824
-146.273
-156.324
-166.718
-179.498
-124.677
-42.7224
29.7436
70.8143
64.2814
48.9082
34.0202
59.3424
119.148
96.7363
19.3105
-46.0523
-54.9321
-71.0048
-65.0482
-9.22958
35.491
32.9467
2.86577
-27.394
-49.1464
-99.3751
-96.8075
-37.9834
30.5103
49.5699
30.9621
-10.8708
-47.3625
-13.8272
-5.72159
-64.6246
-62.4964
20.0293
43.2102
51.4081
114.178
146.505
143.157
107.753
57.1881
45.6354
43.901
73.5111
114.686
78.8677
-14.3462
-90.416
-151.577
-207.861
-191.446
-131.176
-86.1523
-17.5316
72.4059
101.71
16.9515
-92.0251
-116.449
-95.0979
-86.1715
-49.3028
13.4266
36.4854
34.0649
34.3753
19.2904
-3.39493
23.5806
126.791
176.218
129.85
50.9589
19.3975
-9.10477
-62.3554
-45.8747
10.5671
-0.697742
-8.24
8.3879
-32.7077
-97.1694
-131.514
-150.656
-106.497
11.5449
97.9977
105.962
48.2559
19.6126
67.5854
102.674
62.5198
6.13642
7.72965
0.389437
-53.2727
-40.1204
43.9183
101.705
135.814
137.684
106.007
69.9544
23.3426
-54.0713
-131.562
-199.414
-198.907
-181.673
-144.82
-49.5203
-3.2718
44.2579
41.2451
46.1629
63.0993
-4.88094
-90.707
-107.881
-62.5455
2.65095
47.7596
40.5641
42.9466
105.24
154.595
138.778
81.8708
60.8381
28.4735
-43.2478
-121.752
-163.838
-126.316
-95.8675
-71.1704
-5.43286
86.9459
117.215
59.318
-20.5465
-62.3993
-34.8927
43.964
76.6783
83.3927
102.726
53.2964
16.2045
7.39443
-6.6886
-12.8525
-19.9026
-18.8948
-41.9195
-85.7582
-51.9031
-31.7188
2.82504
15.3517
56.3706
22.71
-64.4484
-34.3013
60.0632
44.6312
-6.5869
22.814
84.1862
52.824
-78.0014
-166.658
-147.677
-82.2919
17.957
106.475
116.335
91.8824
66.5886
29.4899
-22.4267
-0.0572056
51.4613
-7.0961
-104.284
-123.168
-101.634
-104.29
-110.505
-57.238
21.5134
60.0786
26.7616
-13.9316
16.8276
66.3619
81.6674
70.269
34.8455
65.4519
125.351
119.135
78.853
10.3203
-46.0025
-46.3625
-26.3664
-15.2391
-13.1878
-27.9441
-42.2421
-10.2155
13.063
16.5885
-9.0114
-27.9388
-19.8896
-42.4701
-47.8365
-47.5918
-97.9248
-110.173
-74.8949
-32.2956
13.7486
53.5493
77.4519
101.025
129.51
124.987
83.0326
78.4234
24.7302
-51.2813
-68.5582
-48.5132
-43.8076
-42.0261
-51.8414
-49.623
-68.5305
-69.5377
-62.0185
-43.7959
-31.3454
-11.6764
-15.9034
-43.5827
-26.5842
88.096
171.919
128.287
76.6951
88.5764
177.911
186.706
48.1743
-53.054
-82.9375
-152.81
-174.499
-145.138
-115.978
-66.6127
-20.9845
-9.00304
6.96315
16.5033
17.9128
-28.6042
-34.3192
9.16768
84.3908
71.8141
-43.7381
-101.691
-20.3304
60.0387
87.8447
135.454
221.575
243.612
182.706
97.2051
-8.60404
-115.886
-145.836
-124.042
-110.096
-59.995
-31.9642
-3.18565
-20.7533
-53.356
-47.0863
-20.7742
-21.8759
-82.6596
-119.101
-103.378
-30.951
61.9649
70.054
-13.5573
-62.1013
-30.5302
-17.3806
-6.38213
-24.1716
-70.9794
-94.1019
-49.9208
38.6884
116.246
136.878
129.732
150.224
168.774
132.924
61.1823
-70.4892
-107.577
-10.8277
80.7711
106.886
102.229
77.1406
13.0186
-68.547
-91.8417
-46.6618
-31.2656
-80.7153
-145.252
-198.353
-74.8758
70.8334
77.9487
58.6379
58.3613
44.1245
3.91032
-51.181
-43.8151
-42.3791
-54.471
-66.2066
-66.5974
-26.9732
8.5373
0.751959
-14.0271
-15.9537
35.9512
94.1293
29.7368
-90.282
-61.7994
11.3461
21.5289
24.2281
9.49795
-2.76482
-5.08115
49.3455
99.4799
126.54
128.175
108.419
48.5566
11.7289
-25.6829
-17.0555
-34.706
-75.993
-126.679
-141.948
-84.2206
-28.9921
34.4225
60.6954
69.9141
60.102
27.1143
-21.9323
-48.245
-56.5844
-40.5565
-12.2426
-28.8173
14.1867
90.7894
95.23
35.0381
-10.8587
8.7167
41.0931
42.7665
-5.96805
-86.8938
-126.402
-118.539
-99.0557
-45.2576
25.2008
96.4947
122.336
68.8199
-26.5274
-52.0743
-60.1066
-81.5459
-23.306
96.8164
129.857
51.2136
-31.1209
-98.206
-93.7575
-12.5793
20.8904
-8.96033
-28.2896
-34.1291
11.4246
41.0368
70.2057
144.903
195.061
167.736
122.468
80.7182
-74.5451
-194.083
-200.99
-142.452
-57.6822
-21.5912
-30.6258
-48.4504
-36.2737
-8.60035
31.0628
57.2612
46.3267
5.32568
-41.6683
-24.0026
20.3408
19.9629
-45.3454
-80.7378
-34.4419
44.9556
92.9843
93.586
85.5352
34.8267
-60.1336
-92.3718
-42.5004
2.96511
54.8918
82.9447
121.21
128.523
22.1976
-56.2861
-69.3574
-65.3835
-32.7671
12.935
73.2166
108.456
21.7237
-133.742
-194.439
-142.64
-39.2938
35.8764
57.0955
38.9986
9.45351
-39.7718
-92.092
-93.3702
14.5454
62.6656
41.4355
57.5695
58.8119
41.4693
40.276
-36.0993
-90.4695
-50.0825
3.15605
74.6794
95.3499
50.7177
18.8612
17.7252
-6.34659
12.118
19.1926
-22.8127
-60.4572
-106.25
-110.461
-80.8749
-29.0841
-32.3202
-66.6368
-36.2852
81.4297
184.936
153.569
56.8955
57.8839
102.096
78.3259
37.7602
10.1165
-34.3977
-57.8801
-51.729
-19.4714
-14.318
-71.6304
-107.674
-101.168
-66.7484
5.04874
77.6003
123.414
13.6794
-159.329
-240.579
-139.263
41.7985
146.87
139.854
116.424
125.924
89.6168
-17.288
-90.9085
-101.928
-26.5096
50.4885
111.82
116.26
11.3225
-51.4725
-68.0696
-50.7807
9.51441
53.6577
-15.8283
-79.8076
-93.8578
-77.9246
-44.0047
-16.9665
-0.0689554
55.6212
60.6175
48.2537
19.0481
5.64024
-65.7892
-138.908
-91.4076
-23.6487
-22.1868
11.3499
105.054
177.538
183.456
98.3315
12.628
-23.3462
-66.2779
-63.3357
-39.3722
-28.7526
-5.43184
34.6992
63.5941
92.4013
58.9079
46.6405
39.7409
-31.4116
-91.8249
-75.42
-38.6486
-50.0253
-54.8816
-22.0655
-3.65034
-0.0728852
11.3223
-13.7217
-45.026
-91.1981
-82.3516
-8.11861
47.9964
12.3311
15.758
91.4701
177.166
207.922
64.5016
-100.002
-172.83
-137.118
-138.87
-149.587
-112.008
-62.2932
-2.77894
36.1606
40.1959
101.503
169.557
192.526
133.582
43.9717
28.1505
-42.3123
-116.678
-143.951
-76.5607
-4.39166
55.0998
108.55
115.399
80.0432
61.3525
16.7824
-8.20853
-26.8389
-8.99418
14.7696
-24.6041
-114.078
-139.025
-83.2658
-14.1709
39.9825
60.8735
32.5124
8.78669
33.6104
66.0022
42.0025
-9.49511
-30.3841
-37.6035
-28.5363
-39.2476
-49.9508
-65.3087
-55.3298
-22.1015
-9.53197
-44.8055
-106.76
-66.454
3.40708
36.5012
96.8125
140.634
175.392
159.717
71.7495
22.1201
-32.643
-19.5366
1.99624
-39.3306
-34.0514
-46.9141
-70.7831
-53.4724
-82.9049
-109.912
-82.8674
-111.336
-101.234
-38.0867
42.2934
107.794
71.3285
-8.99988
-20.0931
103.319
190.299
106.551
45.8352
41.4652
27.1801
68.9222
111.997
90.1209
63.7675
75.2616
63.7297
-4.1368
-78.6838
-160.895
-220.013
-212.778
-137.389
-100.295
-83.6551
-97.2044
-97.1859
-42.2091
32.6411
86.6466
83.7725
78.6961
63.8943
58.7218
81.9836
85.4104
90.2707
70.5556
-17.1153
-64.4199
-91.1611
-93.6142
-22.6304
92.1747
159.617
123.014
77.9307
81.4731
-3.68164
-73.3474
-17.7797
14.7163
-55.4335
-143.539
-161.931
-138.034
-130.427
-115.029
-39.6322
32.3109
60.654
94.6281
122.268
92.4815
63.2089
66.6498
47.8382
-12.78
-28.8022
-34.3441
-88.6177
-112.411
-52.2294
-14.5019
26.5325
33.6279
58.3254
65.0501
41.78
-1.10242
33.8321
122.147
73.6981
-43.8396
-88.6905
-87.3766
-18.0244
40.1263
95.7492
93.9031
26.1034
-49.0259
-88.1148
-47.0969
-35.0261
-37.8736
-4.51106
33.7061
55.2738
34.4938
-113.884
-206.347
-163.416
-46.2877
37.5025
58.6169
45.3823
47.4809
49.6459
105.305
78.858
42.8953
100.446
68.0356
-2.45756
-42.5204
-58.7327
-10.3278
3.77107
-21.4726
13.6576
30.2571
7.0179
-22.6579
-42.4085
-54.0331
-62.3863
-52.0371
-33.5333
-29.2232
-23.7189
-23.1954
-5.32229
-2.97781
-32.1742
7.2066
51.4862
27.4012
15.5441
49.2889
79.9338
79.862
130.501
141.191
41.7102
-36.4018
-82.1935
-89.2135
-62.0583
-99.1527
-73.0997
-4.44689
16.4491
55.508
64.5478
12.4789
-6.14137
22.3258
15.604
-16.7861
-56.0023
-114.833
-171.45
-128.501
-32.2066
-22.71
-68.6988
-31.1553
39.8063
151.369
233.781
217.201
190.347
169.77
125.339
20.8235
-66.1834
-113.806
-124.243
-126.468
-88.7992
-49.2288
-34.2656
-63.3483
-93.3088
-65.6876
27.6655
26.5126
-9.88063
-32.1793
-21.2949
-23.8138
-67.4039
-63.8571
39.2973
115.612
80.3271
50.8016
49.5119
45.5435
29.9132
-14.7507
-52.9289
-51.2666
13.185
112.841
146.285
127.374
75.2574
-35.6451
-74.1349
-65.6627
-72.6187
-90.5812
-105.919
-63.0332
0.91578
-13.2647
-16.3811
29.8751
61.811
74.3674
46.4996
13.4678
12.3754
3.06113
-65.0923
-96.625
-83.0489
-37.9568
-58.3986
-40.6067
-7.79772
16.8441
-10.3472
-31.6887
13.0676
94.1921
129.327
109.466
95.8425
118.258
127.912
49.7231
-58.9455
-108.134
-74.7523
-37.843
-16.2496
-24.1508
-60.0568
-88.2378
-76.966
-34.5969
90.5771
134.113
50.8789
30.0269
36.9846
18.3288
-10.7876
-22.2475
-37.5222
-51.7559
-69.7995
-114.851
-117.8
-53.9886
-27.5713
5.27799
16.7727
-5.42179
-51.6828
-74.5051
-67.9994
13.1303
116.138
112.267
107.788
85.3365
34.6232
30.9327
32.4615
38.7562
71.9795
2.89516
-43.499
-58.4831
-65.0253
19.0445
112.252
160.605
126.453
69.3093
11.8828
-59.6323
-149.676
-158.877
-122.343
-49.4357
6.69465
-30.3167
-44.3295
15.3483
69.5927
107.22
33.3641
-54.8941
-65.9955
-127.353
-144.598
-64.0185
21.7542
29.6521
-14.0397
8.91176
94.4598
105.471
69.4828
-13.1524
-20.2668
37.4208
38.8424
-11.4553
-61.0591
-39.6118
59.1529
182.266
186.584
70.7115
-43.5401
-102.014
-81.4867
-47.5252
-17.9475
-36.379
-51.1267
-62.9515
-122.181
-138.817
-99.4959
-17.8917
36.4684
46.3372
24.9989
48.7143
86.8418
52.446
-24.261
4.97849
114.387
146.146
66.7074
36.8165
31.6147
-53.4861
-60.3994
-20.143
56.3768
111.627
45.3296
-37.8605
-55.1115
-51.5964
-70.1304
-112.331
-101.488
-73.9742
4.32893
112.304
92.7534
-12.0433
-27.3499
-8.85523
-2.44947
15.0736
-2.06962
-43.6646
-92.0241
-97.7881
-70.6795
-72.4584
-64.8188
-19.6074
39.2122
100.871
146.058
142.128
138.139
113.663
74.4697
27.2254
-29.3011
-104.673
-74.4931
6.58426
8.54372
-38.3689
-24.8494
-6.91111
-24.7073
-60.1099
-44.9499
4.09524
69.2988
103.823
20.1794
-58.7348
-91.5507
-125.965
-107.606
-67.3517
-11.1014
32.1113
48.3329
72.2687
43.8962
14.0918
8.88268
7.35062
0.242359
54.4248
158.644
149.545
115.68
86.7533
38.3278
-19.8008
-50.6647
-40.1044
-60.542
-87.0395
-36.2684
-26.9524
-80.0612
-139.025
-134.26
-91.1749
-119.962
-106.326
-47.081
-34.8149
-27.0575
47.1456
79.2553
85.8966
98.4276
78.4508
47.4646
3.56594
-1.94188
67.5893
97.383
120.969
148.561
142.325
151.797
145.943
52.8021
-47.7207
-115.033
-122.011
-142.441
-158.255
-160.765
-139.206
-86.3924
-23.5506
8.7848
-22.8382
-64.5458
-72.9313
-51.2896
9.19925
25.7932
42.3478
40.5896
38.8893
47.8362
83.4964
122.714
133.963
72.5709
8.50501
-29.7618
-31.1317
-51.7318
-73.6586
-45.5296
39.8165
79.188
67.653
81.9087
36.5769
-54.9656
-24.2887
71.1623
112.343
45.9093
-80.432
-145.221
-180.26
-141.325
-107.521
-97.1058
-66.091
-4.65041
46.4746
75.9007
91.031
135.879
140.323
5.47312
-60.2247
-50.7769
-37.1892
-55.6507
-86.4164
-1.85144
99.5842
147.97
114.353
37.0909
-25.5515
-49.9029
-80.3532
-61.7384
-29.9215
-42.4816
-65.4422
-81.8257
-90.3545
-36.6988
48.9473
97.2456
87.6448
84.4227
70.3744
102.521
194.342
160.873
78.8561
11.2078
-58.5229
-78.5749
-84.3646
-87.2326
-87.5008
-78.9704
-62.9911
-40.208
-36.93
-40.0576
-55.9129
-108.943
-106.497
-88.2858
-49.1881
-15.9465
-76.3934
-64.6486
45.9317
149.232
199.479
195.991
178.36
147.759
98.5929
27.8202
-11.6448
-45.0096
-32.8645
-8.25436
13.9927
20.7015
2.38543
-20.2495
-59.0707
-84.7121
-63.5296
-46.4064
-67.0621
-101.273
-88.4759
-86.0318
-86.55
-77.5117
-34.0705
23.5455
74.8007
119.044
167.296
183.728
129.139
111.213
81.8683
-21.8201
-86.8783
-91.4072
-79.2624
-61.1671
-77.3799
-70.7497
-21.0125
15.296
21.5021
9.57641
0.96977
-26.0806
-74.0484
-60.4167
-20.7294
-15.6823
-41.0694
-9.51544
18.24
41.7627
74.698
103.199
113.148
105.154
101.972
51.4953
11.3389
3.99679
-24.5035
-55.477
-89.1107
-59.7729
18.9841
21.765
14.3112
24.7638
7.78981
-27.3856
-59.3021
-75.2283
-114.857
-183.134
-138.903
-19.6377
43.6714
49.2811
36.3555
52.6288
74.829
56.6829
36.1554
25.7571
5.49776
45.2599
117.231
115.351
56.0669
12.3356
11.6618
32.8872
69.3105
83.3432
61.0062
-41.2794
-167.471
-156.086
-124.601
-131.457
-135.463
-84.7881
-36.0494
16.8922
39.906
7.90075
-57.8
-112.554
-51.7702
21.5722
64.4688
85.7642
75.3752
77.602
46.8227
-1.77081
-14.9349
-7.50538
32.1244
81.5599
102.801
102.303
79.9722
69.0752
56.7952
24.1334
-27.7885
-72.1045
-76.3442
-46.664
-37.6692
-49.3587
-45.2115
-49.2528
-64.6532
-90.1889
-64.5796
-13.2709
29.2705
63.1564
72.3924
103.265
165.317
95.8792
-28.2458
-109.852
-138.452
-67.705
-37.5993
-21.4544
20.4807
57.2023
53.395
1.18278
-33.4663
24.3535
70.4679
29.3419
-22.6947
-70.4308
-61.1708
-88.3317
-114.415
-83.2442
11.0043
53.2231
48.8865
109.861
163.942
130.339
94.0273
-10.4192
-103.087
-89.1334
-69.7388
-53.9682
-59.1368
-47.22
-28.3231
-17.0869
-0.813813
29.3203
87.0293
105.749
49.9681
28.4758
0.693673
-74.4595
-100.741
-109.939
-176.371
-132.278
-14.4281
64.6932
74.4506
105.636
139.507
132.062
111.283
88.5763
98.7011
126.654
66.3589
-43.9496
-102.139
-114.829
-146.272
-154.487
-66.3425
19.7223
71.8925
113.936
138.255
195.299
209.921
29.2903
-121.202
-201.525
-223.021
-203.209
-171.094
-146.909
-115.149
-30.2423
54.1688
95.1953
100.947
102.628
107.327
138.235
139.438
54.294
-91.6573
-211.885
-213.45
-82.6887
52.819
115.729
125.52
97.5727
4.71059
-81.4436
-90.0664
-85.706
-43.5979
-18.4941
53.6009
70.5499
34.6065
12.0956
-11.4442
25.603
122.556
138.87
85.4446
73.8756
47.7248
-31.9283
-106.989
-94.3697
-30.8767
29.1575
32.1585
6.42426
-5.15544
34.1318
39.8988
-2.80591
-42.5885
-76.0932
-57.1212
-56.2841
-73.7122
-31.4519
8.13017
-38.2343
-105.067
-114.247
-23.8182
81.8636
73.0028
1.06741
-9.42662
54.499
81.1703
45.6871
11.562
11.4575
37.2024
20.2931
-15.1313
-27.0594
16.7988
1.03888
-24.856
-6.68525
30.7565
70.2384
23.9271
-40.0821
-23.4064
15.8825
26.7608
13.6842
-24.4751
-46.5783
-34.2209
8.70684
-4.26372
-33.1993
-25.7756
-16.4222
-16.0038
11.2511
39.0877
57.9084
71.5042
83.3934
91.7969
15.6665
-51.8339
-30.7321
-35.1346
-98.5262
-116.498
-107.079
-72.5969
-48.2375
-22.6653
21.1986
36.9107
64.5577
67.8034
54.1369
-7.01826
-37.8611
6.02352
63.4259
10.662
-14.2276
-1.69776
-6.61844
-39.0663
-72.7102
-96.9753
-39.0761
59.7432
102.526
71.9623
63.384
49.1298
57.7334
53.5933
10.5546
10.2861
23.6451
3.31504
-47.2667
-36.163
-7.34238
34.681
35.9358
42.1958
144.72
203.037
88.3272
-58.7309
-157.571
-184.512
-210.453
-191.758
-131.618
-102.085
-84.0621
-39.7039
-46.9778
-40.9869
9.1934
49.9653
46.7274
13.5261
30.4184
102.489
115.576
97.6303
108.477
119.051
131.891
82.2646
30.1158
17.5203
-31.1237
-71.257
-67.6968
-57.7255
-50.2978
-65.928
-86.4522
-50.2985
28.2567
58.8665
29.8569
32.1064
30.252
11.6159
41.578
24.046
-12.8692
-28.5288
-45.2343
-77.6063
-103.072
-100.252
-69.7253
-21.1744
82.3182
142.664
91.0457
32.7307
4.38835
2.62887
-2.59485
-53.8663
-59.4902
-58.3439
-91.3928
-87.9474
-56.2744
11.6212
104.351
142.613
132.997
107.41
89.0511
51.3791
-22.6029
-64.6135
-32.5036
-19.0297
-28.551
-34.6747
-21.6131
-27.4911
-76.4175
-124.969
-78.5288
-7.75567
74.9356
127.193
128.801
106.15
97.2241
55.4543
-34.7258
-85.2285
-108.034
-76.7396
-1.07561
27.4699
11.947
-8.42697
18.2183
41.604
29.8884
22.9244
-14.2169
-64.2203
-87.3853
-82.4188
-95.1113
-99.1753
-103.67
-38.6107
38.9561
53.7377
59.0098
44.2647
28.3535
14.2206
-13.3141
6.89392
-1.87766
-35.7462
-24.9638
16.0622
63.2497
117.718
88.6842
54.1993
68.4314
87.4828
65.2973
40.056
70.9844
62.2726
-8.96667
-82.45
-163.792
-140.454
-101.756
-77.3722
-27.5401
22.4452
45.5402
88.8856
111.191
28.1368
-57.3098
-85.5401
-78.1738
-70.6432
-54.738
-127.598
-172.156
-71.8412
71.2794
120.923
158.31
188.127
193.229
131.79
-13.6859
-133.307
-187.188
-125.499
-52.5637
8.24144
83.2595
74.2569
16.6794
11.9037
18.8292
59.0531
60.439
2.68287
-29.6881
-5.41586
5.20857
-51.168
-70.6984
-62.2827
-27.9405
6.23667
56.0714
56.4269
4.58833
-36.3313
-36.9098
-22.5291
-35.6119
-49.4881
-43.7624
-1.22553
44.4779
54.865
57.0399
86.649
76.4539
53.6113
28.9869
-7.85196
0.0402459
26.4616
12.5819
-50.3572
-83.7666
-52.4038
-69.3236
-80.068
-50.2754
18.1164
56.3575
17.8228
21.8868
18.792
22.3908
32.4602
-14.4834
-78.3642
-117.004
-109.264
-54.6201
8.00102
33.7411
-29.6031
-80.8562
-24.4208
87.547
154.673
176.834
159.791
147.436
166.239
105.925
43.7485
-62.9408
-171.116
-167.057
-134.719
-116.459
-78.4565
-42.9439
-12.5734
2.01536
15.8464
82.9108
99.743
56.7709
-8.28909
-33.3257
-40.5183
-45.6859
-18.6239
0.593107
-29.863
-33.2417
-12.3445
-5.81916
-3.43773
13.2811
36.0083
25.1667
-0.137123
13.9153
94.8119
118.011
44.821
-42.6622
-72.6671
-64.4402
-66.7046
-52.4215
-40.6226
-14.511
-3.98827
32.3327
72.7339
83.3711
67.1357
51.4078
15.3065
-19.2327
-42.3232
-44.6447
-18.0082
-29.1727
-62.9517
-40.5871
4.21735
9.71359
18.0271
-10.7739
-59.8765
-73.1276
-19.357
20.4188
-1.44724
2.47205
51.9882
90.0633
96.2377
53.1036
50.4238
54.7956
-9.57063
-22.6148
12.4683
24.1113
6.03438
-3.12262
-24.6435
-31.7503
-7.46474
-23.4473
-42.2927
-56.6966
-50.5092
-38.7851
-5.85682
5.70005
-7.52622
6.09896
9.77677
6.53598
5.38311
-13.1049
-27.1467
-26.4763
-27.2122
-12.2279
-22.6314
-25.3255
-4.43912
3.24459
18.8976
21.7082
21.4541
56.6504
85.0958
53.5596
28.5486
36.145
18.9348
-43.282
-44.7156
-27.2926
13.2068
54.949
75.6128
77.786
64.2973
-8.41931
-94.0394
-138.965
-118.646
-56.0664
-22.7035
8.09188
12.3684
15.8113
26.562
8.68087
-10.8421
-17.8535
-19.1623
7.28447
-7.39968
-1.89396
30.6592
19.3991
-3.28142
43.0169
65.0641
53.5311
37.0373
8.12814
2.01353
-12.3102
-36.0757
-14.6314
-0.307397
-30.0463
-43.7931
-0.00778327
21.3341
-9.72715
-38.5647
-61.3412
-73.2215
-62.5635
-15.7502
26.3055
64.0701
126.349
115.149
44.9936
25.2861
-19.4545
-69.7994
-87.5446
-77.6979
-48.641
-22.0583
16.1378
27.7721
23.2863
46.5791
30.2489
12.0198
-2.32142
-7.42439
9.51918
29.3831
6.43907
-0.366327
43.1499
-20.065
-67.7748
-28.9731
24.4008
36.5699
3.09893
-22.7642
3.13283
29.168
49.3017
-15.3627
-110.255
-58.4258
-1.46157
34.9665
55.9846
48.6528
42.0884
69.5178
26.6159
-6.85436
2.28278
-13.9802
-17.5746
-37.7791
-61.0262
-55.0263
-85.8289
-113.169
-91.4099
0.882635
92.8062
56.4558
15.8234
-6.34399
18.7866
28.0482
-13.1565
-49.2464
-2.43726
80.3942
110.385
132.613
58.1989
-15.1993
-27.7681
-24.2282
-28.0483
-4.56906
-15.0472
-31.9201
-33.0194
-22.5143
20.4871
8.74816
-60.8275
-53.8585
-12.2506
-8.03272
-34.5794
-49.3884
-45.9768
-58.7131
-43.2163
18.3796
59.481
71.7932
74.3358
79.5119
85.5291
60.8508
56.7581
69.3525
36.0838
21.2688
-0.26165
-23.4598
-5.50745
-35.7081
-81.2554
-83.0303
-75.3869
-89.1493
-69.0616
0.624359
21.4381
-57.8059
-72.4095
-4.80723
41.6063
84.6371
126.99
128.488
119.555
92.5451
30.6101
-76.4117
-174.418
-162.639
-100.098
-67.2751
-61.3968
-47.0817
-22.6035
5.02665
38.8876
101.562
151.845
110.395
69.1954
54.6545
-16.8082
-102.808
-156.331
-88.0735
11.2129
88.1475
93.2768
78.9291
84.5025
104.665
61.277
-45.1946
-130.422
-173.144
-101.912
11.3023
40.7778
24.5754
-1.60333
-31.0995
-34.5398
-24.168
-3.36663
-36.401
-50.5579
-16.4391
43.0343
66.4416
68.0049
57.7134
57.7023
90.1722
97.3502
65.9278
27.2336
-20.797
-50.8208
-34.1006
-49.2438
-99.8956
-87.0408
-44.3199
-20.8128
-34.2662
-21.396
25.526
60.1388
8.81594
-50.0132
-102.329
-29.4078
37.73
63.09
105.094
88.5819
37.4903
-21.5109
-55.8196
-56.4259
-63.4966
-82.0475
-66.3481
-30.642
-7.15376
18.3534
25.6498
12.9679
5.79295
44.4566
110.947
97.0855
51.8814
42.0954
13.6838
-18.9776
-30.2822
-32.9964
-12.465
-15.2337
-26.7138
19.7618
33.9586
54.8221
63.5922
11.7235
-20.3285
-8.56638
-12.5125
-41.3814
-49.7012
-75.3197
-62.9402
-34.5273
-31.2153
-1.28164
23.321
27.1681
-7.70543
-18.7128
18.07
32.005
25.5357
-15.5091
-29.4926
-7.1674
6.18714
24.1362
44.6551
21.1697
7.24015
-26.4399
-52.9652
-41.5849
-9.38835
14.3599
9.70866
-10.3048
-14.6444
-8.07985
17.7136
36.6529
39.8009
51.5368
40.911
30.4124
7.32398
19.6363
34.104
47.0858
38.1658
29.4563
3.07082
-44.2293
-98.1881
-101.904
-86.6967
-38.7842
-25.6727
3.66058
54.1755
50.7014
-1.14784
-32.1379
-29.0659
-12.2417
-32.0821
-58.4419
-58.3529
-59.6502
-60.3222
-15.7768
67.0058
125.593
130.856
82.9951
43.782
39.3761
32.764
-60.0831
-97.1088
-42.4367
4.89923
54.9456
130.106
133.689
93.071
37.7033
-47.3681
-96.9017
-121.506
-126.302
-111.765
-70.5102
-18.3678
-26.521
-11.9658
26.7855
84.7851
137.425
62.9186
-7.18955
-13.617
-49.8107
-94.1746
-93.8725
-72.815
-58.145
-8.03652
61.9188
71.7768
67.4906
56.8837
42.3524
68.255
87.866
46.6095
-5.27146
-24.2741
23.1518
52.7299
7.5942
-23.4387
-43.0842
-68.3843
-88.8713
-65.0333
-64.1013
-66.5111
-73.6482
-19.9394
38.5265
67.7112
62.8719
-4.71959
-29.7172
20.4252
42.2463
52.5196
52.4263
44.1957
21.7064
-9.07267
-6.6805
-18.2617
-20.3598
-5.28009
27.6246
79.0028
42.4036
-46.0026
-58.5807
11.5034
37.326
-0.188385
-24.5593
1.43515
19.1988
-58.0409
-121.438
-106.188
-46.0116
-25.3996
-27.2336
-43.546
-38.5764
2.77367
9.59384
-1.16296
52.3507
83.8238
55.6767
21.1278
3.21688
1.67656
31.6168
-6.85926
-26.2754
-11.0551
27.2725
58.8473
84.3351
115.734
99.9557
64.2806
57.7393
31.9784
-6.26226
-22.8515
-30.5814
-21.3278
-10.4145
-62.0834
-105.345
-105.316
-101.031
-74.6552
-68.9164
-36.6937
9.85629
43.4123
21.0361
-7.0636
14.3414
39.5462
27.0579
-5.83337
14.3206
8.85235
-12.5576
-39.8243
-68.0668
-31.6984
6.57659
18.467
9.56528
-10.9334
-8.25713
13.9605
40.4544
55.6648
68.566
85.9504
56.3818
32.0261
42.548
14.7949
-14.8823
-16.2151
13.6529
-25.1505
-5.13106
30.6586
6.56032
-49.5479
-48.8836
-21.61
-23.9713
-75.9849
-95.1617
-69.2652
-39.683
-27.0597
-0.892041
22.1636
48.1617
75.0034
82.2168
42.6318
-9.61932
-40.8022
-89.0909
-87.806
-42.9913
20.2876
72.2417
54.9668
20.9161
10.41
3.17693
-3.823
7.82786
44.2105
69.137
79.4046
76.9447
71.1624
59.549
54.7212
55.664
4.16879
-32.795
-92.0461
-165.97
-146.715
-112.895
-104.092
-87.1326
-69.0815
-48.2747
43.8141
100.657
111.013
131.404
96.5876
18.2643
-14.8949
-34.5898
-77.2897
-107.493
-51.4718
36.0487
51.4714
69.7933
49.1865
-3.76201
-29.1564
-28.642
6.47236
37.8781
26.9862
-3.43858
-26.1513
-82.0557
-90.5236
-50.5479
-12.1428
48.3216
72.871
81.2617
73.6881
19.4901
-6.98014
-0.210794
36.3996
39.6311
-1.97032
-20.2347
12.5648
47.7236
27.8837
-1.5419
-45.3846
-74.5691
-40.2136
3.52226
7.4035
-29.4693
-9.333
36.9098
22.183
-10.4024
-22.5914
-15.4019
-10.3748
-2.16343
19.8674
25.0158
-2.05799
-30.9527
-51.6759
-53.0053
-12.3433
46.4685
30.0365
-16.1023
-59.3693
-50.1413
-44.4359
-31.1923
-0.344264
-49.3498
-111.927
-30.7417
46.0346
103.465
124.169
102.76
111.871
108.013
8.36188
-71.349
-75.8944
0.671688
83.9222
67.6981
11.7649
-45.2162
-81.8661
-87.3592
-62.0877
0.543465
95.5253
104.063
87.073
77.0123
59.1704
-14.0008
-91.727
-122.94
-71.3936
-3.44884
10.6669
-44.744
-109.968
-55.116
53.003
48.972
29.7172
42.9118
14.4748
-9.84615
-20.0614
-84.572
-129.033
-95.8251
-4.766
44.972
45.0735
35.5678
33.1631
28.1341
11.7515
7.60779
5.36597
-15.0135
-35.3546
8.02498
71.5254
74.5308
31.6168
28.3409
18.7829
1.39291
10.8545
-17.2067
-42.2502
-24.2061
15.0367
54.3427
38.4994
36.3495
33.2772
5.74061
-52.0058
-79.3722
-63.8074
-33.2254
-36.7552
-34.7089
31.6195
61.2368
45.2795
53.4601
41.6144
35.532
-8.34116
-63.211
-79.0694
-79.6036
-60.2896
-54.5744
-52.8594
-44.3956
33.8054
76.6358
75.5617
74.9839
81.5395
33.8178
-63.64
-71.6649
-16.6142
55.8664
94.9113
36.6031
-0.769622
48.2512
62.2175
26.003
-29.472
-105.61
-129.57
-118.742
-72.2403
-33.6761
-20.4273
5.60179
23.8796
30.054
69.2569
32.0099
-9.08542
-53.2619
-74.952
-38.765
-0.961517
38.1452
69.7784
80.1241
84.0578
59.9865
49.3189
69.8398
38.9965
4.04305
-31.5932
-51.4228
-57.5306
-29.2531
-9.08011
14.2279
16.7553
-14.495
-9.07733
-1.61431
-34.1077
-54.1864
-72.4613
-91.8398
-58.493
18.2217
76.4868
74.1939
67.9169
64.5718
57.9534
75.9718
34.273
-49.8388
-92.1049
-65.64
-32.1555
-34.2361
-3.2825
25.6995
45.6075
7.23276
1.76285
24.2035
-4.98604
-31.6152
-60.34
-57.1472
-59.3436
-75.0433
-102.084
-68.6697
51.7962
155.461
157.857
125.76
85.596
64.6996
-40.592
-142.935
-159.008
-46.7726
65.8697
61.0106
57.7495
60.1916
33.9323
-3.57277
0.284109
41.954
73.8815
5.16889
-101.077
-150.609
-90.3473
-54.73
-56.8574
-62.194
-18.9036
87.7816
120.801
62.6284
14.7072
15.7219
26.2812
26.7979
30.1434
45.4733
28.1974
-15.7238
-13.3717
-29.3131
-35.0554
-44.0364
-38.7894
-5.34771
43.9486
45.611
50.1154
13.3019
-1.56827
-44.2308
-101.604
-82.7546
-46.3277
-13.153
-2.84912
-39.3321
-30.7924
10.8072
25.3002
20.743
13.5295
0.924167
-15.1848
-29.0974
0.503485
77.7233
93.9117
41.6388
-23.8152
-25.9367
-47.5196
-23.1169
42.8586
84.7169
98.2308
112.409
95.7454
70.091
-1.50534
-83.8636
-128.528
-98.6896
-40.8571
-22.4692
-6.07972
-1.02815
-15.2963
-18.5781
-15.0229
8.47125
35.5052
-7.30488
-85.692
-93.9515
-65.5973
-39.3169
6.41482
86.7771
110.265
158.037
157.265
108.154
55.8379
11.3525
-87.4735
-94.1663
-85.06
-120.154
-143.212
-120.557
-54.8078
6.64246
32.0406
18.6505
-8.30211
-17.8843
-24.7857
-55.1959
-23.5994
2.81855
21.0747
32.0024
46.3157
65.0844
73.8675
52.9699
49.2326
111.507
133.738
69.647
9.41891
-19.3351
2.43791
44.0431
51.6021
7.63526
-39.5835
-72.8277
-81.2211
-85.9193
-110.127
-106.599
-57.0324
5.04505
-1.08011
-64.3626
-25.5912
44.7264
137.048
198.753
201.045
170.816
96.3357
-12.1869
-105.779
-175.663
-198.09
-169.768
-121.225
-67.8467
-38.504
-51.0826
-48.5925
-38.0948
18.3932
49.7692
19.0092
-4.58836
-15.1314
12.6004
17.6787
13.9788
15.4037
24.3411
59.7726
135.598
150.936
96.9371
29.5974
-3.47716
9.52753
45.6864
24.3062
-7.42599
4.83562
31.5346
10.2293
-30.5315
-54.6706
-65.122
-75.1985
-64.2905
-46.1706
-31.3955
-13.8205
-22.2973
-26.9677
-0.799763
10.0266
1.76809
21.3518
46.6756
47.748
32.2193
7.97238
-10.031
-12.0823
2.39197
-4.10979
-42.1075
-82.8206
-77.9881
-59.5622
-41.6212
-4.24257
48.8109
106.25
102.655
86.4466
182.924
275.705
189.549
-5.65447
-95.8183
-135.287
-161.451
-185.063
-212.327
-182.341
-130.121
-1.5754
85.7664
54.7459
11.881
-14.8912
-17.563
-39.6213
-35.1431
-3.81007
-46.0776
-85.8703
-45.403
35.2297
77.1828
98.6033
119.999
138.469
123.479
133.571
137.412
91.576
19.5646
-5.2863
-5.51143
33.3175
38.0221
-29.0339
-61.3372
-36.424
-59.8395
-108.802
-127.724
-94.3473
-77.3443
-53.7512
13.1785
89.9487
118.709
61.2606
-11.3601
-56.0357
-43.8289
-0.780495
39.6013
-16.9599
-70.7566
-54.3103
-52.9174
-70.1552
-79.294
-65.376
-18.3419
16.2766
56.0089
62.9048
25.9449
-16.7063
-2.21596
20.1948
31.7589
18.9367
21.6826
54.9624
50.622
20.3576
8.91487
31.9099
58.1797
6.15137
-53.1494
-108.197
-32.7843
67.0897
87.4784
105.998
102.421
103.809
98.4015
60.0084
-6.05534
-75.2131
-98.5097
-84.39
-101.3
-101.253
-92.4887
-87.5856
-84.0447
-26.2387
15.3543
79.3725
81.045
58.4154
50.7352
-33.4631
-104.281
-130.663
-125.473
-83.7405
-34.9379
32.3348
74.1814
58.5558
42.1262
62.7745
70.5447
63.9047
49.2932
36.4834
33.5749
23.2998
-43.6494
-44.9939
-13.6229
7.48311
39.1494
37.9954
20.4601
7.62724
44.3284
66.3672
87.2043
78.1198
13.7564
-73.0663
-85.7373
-77.9308
-54.0622
-35.3839
7.4021
-7.61797
-6.33758
-46.5376
-99.2384
-54.1278
9.63249
-3.13853
-16.1975
-21.0834
-12.6292
9.25322
-12.7025
-53.2626
-6.78794
36.124
24.8289
24.6042
14.5487
27.9545
46.2057
61.3261
71.3125
38.3189
7.84218
-67.2688
-139.048
-72.3255
24.2938
106.026
143.301
89.5088
40.5395
39.8712
13.8048
-36.7736
-88.9014
-76.1487
-16.4121
0.695414
-38.6571
-26.3397
-9.60217
13.1469
19.5517
43.8454
37.29
-19.1444
-70.8549
-81.3453
-89.188
-62.9949
-41.3137
-34.9691
-13.4962
58.5852
122.746
69.7871
9.45315
-13.6355
-9.48846
-2.03077
-19.6929
6.02086
-3.82794
9.074
37.931
50.8452
52.7575
26.3953
-17.3521
-26.534
-7.02985
26.294
68.9077
71.133
18.7247
7.24463
13.7409
24.1719
10.8864
-29.0503
-73.5394
-108.821
-76.2097
-50.5042
-29.8234
-5.39436
9.43188
3.81169
-19.9679
-24.7587
-16.358
-19.0987
-34.5609
-24.4916
15.3063
36.4621
-0.378236
-31.7548
-22.0287
7.42216
44.9588
53.4435
70.284
70.7205
60.4808
39.2036
7.49082
-27.6391
-15.3167
7.4888
12.0504
2.39039
-6.41382
3.03281
10.8801
1.49703
-5.79798
-8.82716
-18.6242
-43.6481
-36.9362
0.53281
7.10931
-11.4595
0.175634
20.5463
0.364948
-21.9021
-26.0389
-16.8279
-40.7897
-30.2878
6.85885
-2.63181
-3.32157
0.347889
34.4874
63.6636
17.8324
-31.0967
-29.759
-46.9939
-46.5021
7.0168
26.3802
4.5174
31.7139
74.1491
49.2156
-1.42376
-0.679551
17.8954
18.4335
25.5112
8.49188
14.7291
-6.57129
-64.453
-47.8885
-9.38135
5.44936
18.2094
13.9284
0.0685875
13.3186
7.72564
-4.45117
-24.3255
-4.65661
31.9292
24.9261
5.40613
-18.0562
-45.019
-46.9859
-48.1449
-45.8424
-41.7827
-2.13146
57.1602
46.2151
-2.96169
-3.41751
-0.721302
5.57704
13.8642
-8.95245
-12.5677
-7.1068
-26.0325
-28.7076
-2.94466
24.7242
36.2859
43.5084
47.0755
40.2741
29.1136
-4.08972
11.3308
9.85848
9.3354
24.8365
9.7547
-28.1626
-28.143
-41.8815
-23.6396
0.197444
0.915031
-5.6843
-23.2464
-20.712
-4.80147
-2.17496
-40.3577
-39.2872
1.26398
37.0048
18.0596
17.6517
40.9089
4.6768
-19.1274
-49.3103
-42.2347
9.1648
19.0605
18.544
40.3907
55.8432
46.0089
-2.47879
-32.8513
-30.2452
4.97125
5.73979
17.7214
37.0383
9.87994
-37.664
-52.2654
-30.5649
-17.664
-6.39911
-5.85131
-8.32818
1.3
-9.35176
-35.1652
-41.3525
-20.615
12.0946
29.4816
19.0961
20.1816
32.8186
24.3866
-15.6435
-32.383
2.03231
13.6901
27.3544
33.1494
37.9901
25.2647
11.225
6.05839
53.5458
90.1343
70.6001
18.2858
-13.7072
-10.6551
-14.7828
-69.2073
-74.9461
-53.9754
-52.9465
-74.6944
-72.1156
-46.381
-39.0767
-35.9448
-12.5389
8.42157
-29.8044
-78.486
-42.0717
50.8882
125.632
132.076
120.245
87.9023
81.5691
78.3323
-2.5579
-103.211
-106.288
-44.2411
-28.9514
-22.6879
-17.7438
-1.58936
15.3276
14.4395
37.5513
64.2504
-6.83029
-87.07
-85.2049
-13.3928
4.30392
-5.32545
-16.9147
-10.0855
38.1159
64.8716
33.5618
7.77035
-9.49364
5.39995
48.8776
48.6476
40.1138
25.3814
-1.81618
1.04372
17.8984
0.300982
-46.5864
-80.3524
-42.2844
-9.92528
-53.5419
-55.594
-8.96842
36.2094
54.4478
13.1842
3.36182
15.0562
-51.1897
-39.037
4.47616
14.6937
37.9089
50.8712
13.33
-27.0226
-20.7939
-42.541
-77.9054
-56.5727
8.22652
51.3732
25.6363
-1.20491
6.46166
26.0234
40.6859
-2.98392
20.1569
53.5238
25.0511
-8.73253
-15.3019
-20.3692
-48.4365
-58.6174
-41.0338
28.5919
98.0867
77.4577
43.1944
67.7173
93.2634
32.9141
-23.3075
-67.5065
-58.0952
-27.1437
-49.8184
-59.124
-63.4233
-31.8135
-9.06203
21.1134
45.9839
41.6883
0.735154
-46.5708
-82.5145
-85.9003
-56.0312
-59.2104
-56.6264
-21.9716
25.7059
76.5937
81.0885
58.8145
45.0785
18.048
9.11312
19.3169
40.6998
17.2892
20.1012
40.0376
28.9735
13.2108
1.69471
-16.9379
-16.1925
-3.32587
8.61459
52.5105
37.6883
13.6837
-8.61403
-39.0227
-27.8216
-37.6488
-5.96113
50.501
28.7901
4.20665
-10.2861
-47.3792
-52.8305
-39.7959
-40.3171
-27.5088
-14.5937
-19.4461
-34.0145
-51.3655
-42.8736
-14.0094
18.6523
37.862
17.3224
15.6444
7.82556
-36.1959
-76.6397
-83.6178
-30.2772
53.7805
83.3841
88.2478
88.8214
113.617
85.1626
27.2432
0.429362
-0.792967
-35.5671
-72.2988
-24.2303
42.32
91.2669
77.2361
40.9934
40.7134
65.4759
22.1352
-31.6182
-60.3658
-79.3992
-106.667
-87.2275
-65.9108
-46.6953
-35.4803
-51.249
-72.1237
-20.9954
4.89881
-65.1037
-82.0484
-68.2712
-42.284
-18.1689
1.18065
19.7129
57.0953
99.6076
112.109
99.0646
88.7785
63.2273
23.7847
16.6016
19.8027
40.1538
53.1368
35.4175
36.3529
68.8072
11.7518
-24.0376
-22.1843
-24.7784
-35.8649
-3.64419
-5.97968
-47.6107
-66.8294
-63.7757
-42.3949
-18.0456
6.02228
7.88881
-0.350375
-22.9892
4.31033
9.20104
-8.58687
-45.195
-50.0332
-52.569
-44.7673
-37.4686
-22.3828
0.518546
27.3192
46.783
41.9296
31.5769
31.1136
39.533
77.5382
47.3492
0.204206
-8.75982
-23.5232
-11.6718
28.6391
26.3218
17.5435
-0.893789
-2.62095
-10.2994
-26.3323
-44.3032
-64.5444
-73.0623
-55.4619
-36.5602
-99.1663
-84.5987
18.87
150.559
232.886
208.401
124.863
49.3986
-10.7986
-88.1577
-130.718
-104.882
-48.2594
-11.9254
9.48238
20.3094
-5.34812
-29.9881
-12.9975
36.4292
95.823
58.4996
-38.1566
-105.14
-134.272
-124.65
-62.6341
-13.0889
-8.16584
42.0621
80.7473
76.1452
43.3252
11.4826
-3.02969
11.3193
35.7714
44.7436
44.938
8.70848
32.8411
44.7151
-6.61799
-31.5233
-40.3397
-29.4598
-9.22814
3.74422
14.2584
20.6782
22.9255
-18.7985
-63.3926
-55.1851
-46.1783
-34.3644
24.5868
43.2968
31.2623
26.2103
9.59095
5.81594
-12.8993
-33.7557
-33.2256
-15.7575
-2.6514
10.0418
9.37077
14.4902
7.54563
16.6336
42.2199
50.7
24.7735
-16.1422
-21.1227
27.6214
18.1715
-14.14
-17.1531
-27.3311
-17.8094
-22.61
-43.0188
-53.4172
-54.4062
-49.3876
-30.4064
-35.6075
-56.1369
-62.8915
-8.71861
97.5773
158.626
167.397
158.266
163.383
114.972
13.2383
-95.8974
-167.433
-158.459
-91.2071
-45.0343
-21.1718
7.73313
24.2537
41.9109
45.8073
30.922
24.5771
-21.638
-75.0261
-66.393
-47.4811
-64.1105
-88.8621
-55.389
4.74585
49.6004
84.4872
75.7246
51.8344
64.7425
58.4124
23.7045
-5.05472
-18.2213
-5.36037
19.1353
34.1307
20.309
18.9567
-5.24986
-38.2794
-21.8121
-41.0484
-46.6355
-13.861
1.68245
25.9707
56.7647
48.6382
20.3683
6.34056
-29.288
-35.2755
-32.3661
-29.2276
-15.334
14.7204
-1.1961
-37.7492
-29.9434
-29.5757
-41.2622
-45.9738
-27.3388
12.5065
29.6779
19.919
33.5801
26.6826
-2.59063
-32.577
-19.1805
6.17019
23.2242
30.3062
50.5235
45.1987
56.3121
46.1818
-12.1376
-22.0898
-8.87637
10.7825
42.3154
16.5042
-12.6108
-6.98223
-24.3121
-26.3383
-28.5141
-31.2928
-13.6841
-14.5455
-13.6768
-6.71444
-46.6718
-48.0165
-35.3704
12.2584
73.6001
71.0892
46.0676
12.9698
-15.3827
-6.86564
9.35513
5.89672
5.78529
-14.2155
-45.2963
-29.2143
-13.5317
-16.943
-18.0021
-18.8792
-1.42844
25.5462
31.6906
-6.01999
-9.25438
0.983897
2.43263
1.21804
-22.8785
-36.7789
-14.8997
6.76519
-3.2448
-0.947274
47.8474
94.8054
90.3075
78.8233
43.9308
22.1201
-11.9536
-39.028
-57.9169
-77.1461
-84.222
-38.0432
-25.9409
-17.4708
14.3372
25.3172
19.9308
18.5389
36.072
41.9395
5.02602
-33.6265
-35.6566
-38.1988
-34.8907
-30.0314
-0.490105
22.455
47.5826
39.5769
2.37102
-72.3195
-113.557
-48.1144
26.7793
77.0179
81.8449
112.652
123.614
98.3765
53.7816
0.134343
-43.293
-68.8573
-63.3959
-30.7381
-11.3056
-70.474
-80.6222
-43.8266
-7.96187
7.12573
11.4563
-25.1852
-57.9884
-52.1764
-17.2558
-9.80466
-19.2765
-26.0578
-25.3468
-12.775
36.571
77.7844
63.1735
35.6087
36.0711
59.0266
33.0545
-4.49901
2.44838
54.8848
47.3203
21.8953
43.0638
6.15237
-0.332982
-20.5393
-35.4911
-18.0707
50.0288
35.2301
-40.7648
-74.9571
-37.8496
-23.9475
-25.4264
-4.25212
0.462994
-11.8294
-44.3863
-48.8469
-19.2182
-3.66976
-29.4065
-35.8064
-47.3092
-33.2272
8.83547
26.9609
28.7546
44.7687
55.1222
72.1205
54.4006
38.7522
2.30884
5.70252
23.9004
52.1892
70.2119
38.7722
8.57546
-6.87683
-32.8685
-26.5964
-6.53494
-30.0768
-48.4127
-63.4798
-68.4602
-37.3474
-36.9379
-58.3165
-62.9493
-52.28
-11.9717
-5.65354
-0.94115
15.6362
43.9972
60.2471
51.5382
28.8966
19.477
13.6522
23.5882
39.1536
18.0155
5.46848
8.3656
-28.4878
2.15384
23.5417
22.5231
12.9751
-2.59943
-32.6349
-18.7464
12.211
-45.4617
-91.1875
23.2287
111.183
145.659
153.322
58.0071
-11.569
-29.5643
-39.8392
-101.355
-127.173
-120.973
-69.2687
-35.693
-24.1561
-10.6367
9.21125
-6.33767
-55.7484
-35.0597
18.3461
13.4366
-22.5975
-68.5536
-57.8732
19.0989
51.3667
38.5964
41.4456
79.6726
133.641
124.316
79.805
40.1195
40.8428
39.4102
42.6869
12.4559
-9.0967
-11.4096
-39.2462
-69.1415
-58.9643
-26.5121
-50.5642
-52.4655
-35.8873
-29.0356
-30.5208
-11.9306
-7.98509
-9.88373
-3.21435
-1.82231
-28.4652
-25.2942
-37.2945
-9.28715
16.8229
31.8155
56.2351
50.7152
35.0284
26.3491
7.1586
-31.7578
-41.1032
-24.114
11.1814
43.3028
36.6615
-2.19458
-47.7829
-55.3989
-27.7954
24.2272
36.0211
27.3769
25.0594
4.87435
8.30577
-11.1828
-29.9165
-27.1224
-6.66613
-13.1955
14.2802
25.0387
29.5232
40.7421
69.2578
52.1952
22.4991
23.5162
12.7657
-24.1554
-10.8315
8.10544
-19.5996
-61.895
-85.5411
-126.473
-159.784
-103.745
-3.02001
81.291
104.775
92.8981
73.0607
42.9074
-23.5551
-67.3497
-97.5948
-54.0188
7.1131
21.4564
12.6774
8.67418
4.08283
25.595
41.8123
82.604
141.438
113.542
40.0868
-26.0422
-47.1324
-30.1311
-13.2127
-22.7284
-18.9703
11.3882
31.216
1.6017
-36.3407
-55.211
-50.8587
-49.7439
-30.9047
-15.9119
2.22701
11.5058
10.9448
-11.7208
-42.6632
-16.3986
-22.9002
-35.0515
-25.3463
-27.5076
11.0574
53.9234
77.0185
52.2969
14.8826
3.12018
-8.7781
-23.1841
-31.5977
-18.0484
5.38919
50.2587
36.012
-13.6836
7.69922
21.959
14.8983
16.8162
-2.48604
-12.6536
-7.84591
-1.48029
29.9976
48.1827
19.2068
-15.8823
-8.69161
10.6856
19.6473
56.7576
20.7319
-25.2806
-20.2858
-1.20793
-35.2863
-75.491
-48.9701
-13.6433
-19.502
-47.3718
-71.4137
-45.8787
-42.3607
-84.2644
-76.1893
22.5971
94.7644
106.528
110.074
96.5118
68.401
40.7873
-23.4787
-55.7107
-73.1321
-34.9363
21.0278
41.8728
39.3137
24.2656
9.78628
8.71617
-8.78151
-6.71668
22.9212
-3.02553
-74.9757
-85.1034
-51.1052
-33.4943
-25.1168
-23.1163
10.7169
52.1998
57.4675
39.531
16.8051
-21.6388
-27.0932
2.26796
35.8397
57.5904
83.5016
82.0775
23.4427
4.38755
9.45232
-4.24558
-37.0274
-57.4278
-56.5199
-35.4044
8.6484
7.10706
2.93093
20.8338
2.27489
16.8153
34.2776
6.48549
-23.7386
-103.362
-169.247
-141.27
-83.9725
-91.5286
-101.615
-11.2376
65.6594
72.2189
95.739
154.667
168.726
154.838
123.612
32.79
-53.9731
-62.8504
-19.7211
8.85451
2.10728
-4.16909
-9.791
5.7654
25.311
33.7117
59.0411
-27.3771
-106.76
-100.617
-85.3311
-74.8662
-55.3985
-31.4676
26.0915
57.3933
37.0222
3.70808
-52.3963
-62.4872
-52.9224
-0.109875
61.9852
20.7091
-53.3257
-4.34293
84.459
93.2231
95.6287
154.916
201.293
191.886
121.233
-1.7825
-92.7124
-103.158
-96.4596
-110.163
-143.318
-109.67
-80.2718
-68.8781
-59.0668
-40.6579
16.9387
26.6969
-13.3224
-51.959
-90.8024
-112.578
-110.702
-110.785
-89.6876
-27.7364
39.4215
92.086
123.322
115.698
136.777
152.766
145.356
145.426
122.373
97.376
67.6465
4.88635
-94.1044
-92.0685
-16.634
-19.5508
-71.1671
-88.6382
-89.7845
-42.5706
80.6928
189.77
169.85
69.4404
-12.1193
-121.04
-185.063
-145.28
-19.9
68.0974
64.6017
32.4166
31.7219
26.3061
-20.668
-103.772
-143.762
-125.311
-79.5356
-39.798
-55.1269
-109.613
-67.2812
18.8673
64.3945
81.3803
99.9055
101.348
50.6684
-2.41634
-3.0242
-1.99169
7.52694
19.6804
25.4049
29.6236
54.4235
38.7213
31.0176
5.19915
-32.7364
-42.6248
-19.8103
-2.60707
10.6287
76.612
108.416
18.2121
-64.5034
-71.2703
-30.6099
14.7716
28.4348
-10.3516
-75.8378
-42.5558
20.4437
47.6619
29.3531
19.166
7.48748
16.6543
10.3531
17.6536
62.6785
34.6704
-11.2383
-19.7116
-40.2614
-14.331
-12.982
-65.639
-87.6417
-58.6268
-23.1434
-47.4186
-69.5206
-50.5876
14.5749
55.7984
87.9207
74.5886
42.6954
-16.1904
-107.935
-129.941
-118.449
-45.0611
54.8763
115.352
85.4248
44.8248
28.8352
41.5349
86.1341
70.9533
45.7264
19.8884
-17.1884
-15.2683
-29.8886
-57.6714
-40.6128
-19.7612
11.433
52.3377
86.0558
37.0202
-28.4814
-79.4315
-101.373
-75.6876
-5.40686
43.6879
67.0926
68.9305
59.788
66.2074
35.4191
-21.0614
-55.9495
-96.7674
-103.15
-67.4408
-2.14588
61.6176
65.9802
5.50112
11.7014
34.0199
35.1272
22.4959
-0.38985
-32.8283
-69.3908
-63.445
-68.2522
-80.9671
-42.7417
-9.29498
-28.2702
-19.3562
-44.3277
-45.6405
42.9224
111.324
111.476
117.633
119.159
118.97
110.064
26.3196
-59.9165
-95.5401
-70.9372
-37.5461
-23.8826
-24.922
-33.0977
-31.4118
-26.3052
-10.8842
6.4308
14.0634
8.11933
-9.82321
7.07148
47.6451
-1.82059
-91.779
-110.842
-74.0085
-39.1179
17.2153
50.8169
44.862
19.2495
20.4903
52.522
60.2416
61.4521
68.3699
62.5548
44.7837
-7.21879
-55.9229
-91.6445
-105.164
-95.6659
-93.4564
-38.2429
64.7184
131.348
109.836
59.5241
23.7363
6.98954
-25.5131
-19.7849
38.0586
67.7903
41.9924
13.0246
12.892
-21.3551
-89.1915
-119.824
-92.6608
-33.7295
14.3351
-30.3876
-43.9936
19.8835
86.3068
123.422
119.678
69.1263
5.40078
-49.4093
-123.953
-167.665
-153.295
-74.5727
-31.5293
-24.3332
11.1614
66.62
75.193
29.5262
29.6941
49.6287
35.4506
-16.2537
-47.8353
-58.6346
-32.2772
26.5335
68.8829
62.8861
52.4146
58.0322
71.1072
53.4493
24.1215
13.0846
24.5042
25.3444
7.31326
5.38586
-0.603415
3.96096
3.6135
-36.9266
-78.6889
-96.0971
-101.223
-64.4331
-21.9532
1.42356
22.8632
25.995
15.7348
16.6766
8.56263
-9.21791
-19.9917
-21.1666
-13.2364
7.73364
-10.4841
-22.4981
-37.5391
-29.5941
-6.51187
1.68536
30.5641
66.3406
69.7079
41.7883
18.966
13.0643
8.06742
-4.26283
-9.26402
-10.6532
-17.6454
-18.8188
-9.36804
-15.3955
-23.0452
3.19304
45.428
-29.5634
-122.075
-71.6204
30.7086
64.6703
82.3695
106.282
120.529
105.174
37.4579
-36.0049
-70.988
-55.691
-17.3714
-15.0968
-25.5266
-39.5626
-32.836
-28.0123
-31.9196
4.53613
33.6655
12.5176
-40.0798
-62.6459
-66.5348
-75.1044
-67.5864
-27.9275
22.0363
37.3418
63.5588
68.078
41.1065
35.4319
30.1958
20.4831
9.08178
8.6454
-7.37116
20.3615
57.3358
33.9743
1.79192
-14.7162
-18.0563
-20.4911
-22.8682
-23.2765
-14.0251
0.350633
10.6802
18.3712
37.5094
33.324
-13.3875
-33.1847
-11.572
-6.97265
-19.6957
-50.3633
-40.0461
-28.0596
-58.705
-50.7781
-38.3754
-22.5174
17.0049
85.2932
136.819
173.673
134.14
56.4706
-21.0856
-70.8281
-65.87
-31.7798
-24.4001
-44.9808
-58.9338
-41.8802
-44.9454
-61.6638
-53.2378
-59.9265
-47.0947
-6.86564
6.02632
-4.04751
9.8004
17.5898
40.4783
81.5972
60.7263
-23.3186
-43.4254
-23.2978
21.8461
44.0187
79.4425
147.793
194.167
180.475
81.0923
-83.859
-180.43
-120.502
15.3007
88.2534
73.0174
-15.4824
-97.4928
-95.979
-64.4768
-21.9786
-0.915324
1.98369
-39.3449
-102.369
-69.7948
-43.6255
-50.7332
-34.9949
18.184
89.6014
122.273
36.3468
-78.504
-145.919
-185.998
-134.28
-55.9979
-22.1257
15.6946
45.8676
41.3288
54.8309
79.4167
104.621
95.4403
80.5526
73.7682
72.3499
95.3113
133.115
139.732
97.7834
12.92
-26.1284
-12.6749
-27.3112
-27.1321
-35.1015
-25.118
16.5287
11.7483
-11.77
-30.1395
-26.818
-24.013
-34.0418
-33.1894
-59.3874
-125.317
-128.596
-97.1519
-65.0236
-44.5124
-52.9841
-40.4846
-1.26975
8.55665
24.4289
25.36
50.5326
76.9407
57.1212
28.635
11.5346
-28.7486
-48.9558
-42.5897
-36.408
5.61781
36.3248
52.5205
49.5844
19.9433
-6.88462
-8.76415
12.7865
55.0887
82.0354
93.966
91.9065
78.2
51.9355
-36.2967
-86.6372
-37.848
11.1655
17.8138
-18.3311
-42.3215
-49.1484
-35.6737
11.0497
44.1126
32.8685
-43.4601
-104.187
-128.688
-145.247
-132.176
-49.1953
4.69021
-12.9559
30.1659
74.3075
61.2976
92.3776
69.4733
-5.48171
-97.9162
-115.192
-57.3286
-0.516071
97.1683
287.944
512.476
547.523
250.2
-40.8924
-112.347
-186.325
-242.619
-157.371
-144.11
-138.893
-181.008
-243.381
-208.966
-85.2883
27.9325
68.9797
34.4627
-59.7496
-156.077
-211.924
-280.066
-240.727
-27.6803
122.04
164.421
212.842
301.92
240.731
246.609
276.991
189.791
76.3362
-13.9472
-33.4275
-13.4911
-25.84
-28.7458
-0.715706
12.4276
-46.7325
-66.0989
-42.7537
-33.936
8.79022
18.8837
-63.9179
-165.429
-190.118
-144.241
-34.2765
112.595
111.533
88.7302
88.0858
109.619
102.732
-5.25484
-88.1808
-98.0433
-123.263
-92.5344
-8.64467
-7.21207
-66.3825
-28.5372
30.1904
14.8893
-51.1994
-108.834
-127.562
-105.673
17.3006
147.743
186.669
77.6844
-39.2626
7.13552
28.8704
22.1127
-53.807
-101.801
-61.0214
183.877
478.424
471.69
202.75
49.1584
-0.144641
-48.5513
-126.21
-227.815
-273.952
-275.963
-258.706
-26.9853
186.92
221.198
199.455
58.2698
-111.889
-183.101
-252.895
-271.349
-339.537
-345.392
-156.808
14.0334
106.472
61.5119
-25.3788
-7.29805
-33.1264
-8.00333
139.226
258.458
335.326
335.238
228.438
129.072
131.288
129.631
106.283
81.8661
15.634
-51.1128
-63.3879
-65.4502
28.4831
152.769
42.8445
-78.199
-107.491
-151.006
-175.975
-256.924
-334.67
-275.37
-91.1359
188.392
419.252
335.302
111.943
-116.165
-205.825
-183.111
-162.351
-156.755
-161.034
-160.284
-37.0991
145.775
268.638
253.692
102.765
-43.4166
-82.1433
-73.9145
-0.817532
-28.598
-125.482
-69.2562
-13.417
16.9727
35.1664
-1.6091
-16.0403
42.8621
78.24
78.1972
125.142
204.403
262.606
274.721
188.392
110.198
3.39269
-95.9236
-148.692
-213.795
-245.788
-213.689
-185.928
-233.173
-194.822
8.38034
129.908
106.109
80.2291
68.7719
65.5371
104.206
111.15
28.642
-25.2943
-95.0465
-98.4035
-58.2113
-38.4183
39.5126
-14.7152
-124.737
29.9455
213.793
140.12
-52.5312
-97.1912
-9.5536
-8.2511
-32.6162
37.0913
-48.2587
-68.6155
2.70975
64.4907
10.267
-76.9733
-137.515
-149.059
-92.3434
71.7297
152.974
94.6099
125.143
202.23
122.651
8.04782
-61.5638
-47.4451
45.4784
51.4943
-48.587
-169.405
-137.538
-15.5106
123.892
182.616
183.985
53.2178
-72.1986
-104.143
-72.0067
-60.0224
-95.2973
-69.3307
9.34729
64.174
50.1276
11.8697
-14.1417
-18.0765
6.05892
-36.8188
-158.868
-184.214
-91.3706
-7.2147
31.0231
11.7815
-2.73361
43.3953
93.3983
88.3968
58.7763
15.1081
29.2985
95.6288
148.46
159.132
104.534
65.1688
-17.0477
-72.1578
-92.3832
-129.225
-191.88
-186.308
-157.799
-92.39
-43.1418
54.0256
140.837
135.97
137.133
146.063
60.4558
-28.5656
10.7521
122.994
116.351
-63.2232
-95.7637
-15.5777
48.7827
82.3745
43.4342
-38.7333
-117.546
-136.232
-87.5254
-123.785
-179.106
-193.982
-148.263
-97.9199
-33.5002
23.8145
-35.5283
-149.236
-128.591
25.9257
216.959
212.581
102.485
63.25
182.075
297.841
228.966
204.505
154.683
62.6851
-19.7682
-32.1065
-49.3375
-62.186
-39.3399
9.86061
18.3682
-42.0783
-94.0312
-91.7335
-132.981
-128.76
-96.9134
-148.358
-172.441
-137.737
-43.5665
69.3194
94.9892
57.9799
131.449
243.472
161.555
-13.8515
-113.903
-98.6858
-73.0455
-39.8749
-7.52421
-4.59147
-23.7801
-26.8353
15.6195
76.6578
44.4515
-36.6806
1.16219
51.3705
23.8155
51.3096
14.5338
-5.73218
-25.9569
20.5769
70.8451
13.6806
9.9957
-12.7156
76.5388
82.1143
-5.95385
-55.4721
-84.9152
-114.106
-118.428
-109.89
-79.3527
-66.3755
-64.4052
-60.1856
-117.633
-180.183
-97.4588
-28.845
74.1641
164.952
177.381
268.85
333.428
450.899
406.253
51.2676
-149.29
-84.3351
-61.198
-195.472
-294.275
-223.995
-134.508
-104.577
-64.7008
-37.2331
132.436
378.471
314.678
95.6383
-80.1774
-171.735
-265.598
-360.41
-329.403
-122.341
44.8617
72.1159
98.0953
154.561
173.699
150.019
66.3732
21.0291
24.2693
-9.94655
-70.9618
-155.979
-123.768
23.1103
184.736
179.681
-23.9564
-130.455
-83.6713
3.35956
3.19263
14.4121
55.3154
117.886
208.709
188.368
175.142
102.879
-15.9955
-61.6155
-129.814
-186.883
-179.533
-264.815
-282.713
-226.137
-79.0823
-49.88
-24.2999
80.2862
188.161
215.124
149.104
23.5007
-105.308
-239.299
-272.996
-188.628
58.3825
417.668
629.264
578.868
301.744
53.9815
-121.212
-176.241
-131.431
-113.841
-143.576
-80.5688
-64.7636
-139.894
-77.3128
32.6163
88.3078
52.0205
52.4115
74.8355
1.84308
-264.213
-481.691
-478.579
-308.333
-95.8141
93.6189
144.612
55.6333
90.6413
187.053
134.449
93.8658
87.1555
63.8892
92.873
101.259
63.7698
84.2438
79.4037
69.6582
57.51
-35.1247
-93.6224
-68.6355
10.0986
80.3862
106.469
69.5307
82.0472
163.362
138.456
68.201
25.0531
-108.988
-160.813
-117.021
-38.7063
0.473471
-53.6799
-227.583
-326.531
-235.31
-67.7641
168.443
222.014
197.013
275.486
311.771
10.3942
-291.544
-291.19
-240.893
-228.833
-198.624
-136.832
-71.1753
114.63
244.871
116.028
7.41143
-11.3366
-2.22249
-16.5168
-59.8011
9.2224
143.927
143.141
148.294
144.508
35.8991
-22.5412
-36.4333
-22.0191
70.8051
144.786
62.2768
-109.29
-251.855
-101.385
81.9923
114.184
78.5769
-12.0967
-159.009
-230.01
-233.458
-230.437
-199.061
-0.210066
215.615
311.882
298.207
227.078
45.3115
-67.6309
-94.4709
-49.3214
-6.86439
-16.1561
55.8874
148.473
125.988
68.7561
82.6232
78.3264
18.7871
-87.3442
-220.674
-238.103
-106.143
150.297
291.643
36.3608
-102.616
-84.6403
-64.0847
-103.205
-132.39
-98.279
-154.794
-141.068
-36.0915
45.9488
44.5287
37.2609
-67.3703
-93.942
10.8813
72.7067
32.331
-112.648
-144.63
-43.9096
-2.38221
-70.8916
4.17683
199.165
374.818
413.583
371.823
269.426
13.9627
-116.376
-99.9532
-65.6034
-72.7331
-24.3522
10.4616
38.513
103.665
84.485
-43.0089
-47.8143
-54.7999
-117.501
-171.175
-247.025
-283.703
-286.453
-243.582
-152.01
7.00548
112.316
178.016
111.782
94.3698
231.655
260.767
128.261
-58.8274
-231.611
-215.545
-85.9539
113.52
315.105
276.772
84.5308
-27.4897
-47.1762
-21.9407
-78.592
-77.9964
-58.4229
-62.9924
-28.2339
-39.4885
-172.547
-235.6
-143.118
20.7558
62.0044
-20.3099
22.4181
82.2098
28.4791
41.3969
101.91
84.443
120.142
160.392
156.619
120.015
92.9582
77.0838
67.1197
9.43161
18.6472
24.743
-48.9624
-173.589
-228.502
-152.775
50.2398
132.779
79.6333
-24.6513
-70.7578
-150.768
-188.475
-70.1618
18.5724
-116.438
-193.342
-197.194
-177.19
-91.7493
-18.3058
42.4015
144.058
121.479
238.251
422.48
361.659
215.269
91.0252
-36.968
-155.323
-126.636
-54.9854
-70.0404
-132.502
-102.475
-7.12867
185.21
300.156
119.394
-71.0289
-123.43
-183.608
-212.916
-265.559
-277.638
-263.587
-245.211
-162.205
6.24702
172.617
256.984
215.465
159.244
161.992
236.237
234.094
48.8006
-25.9791
105.78
132.294
57.2061
-30.0873
-27.0011
-45.6252
-127.207
-167.204
-114.579
-66.4323
-9.12874
139.624
185.202
106.128
-5.50327
-25.0675
32.4922
7.42086
-117.142
-192.466
-192.957
-147.83
-47.875
103.898
93.697
13.9192
-27.2679
-41.5652
-38.3326
39.5391
23.9699
-44.8186
-31.6568
47.7782
-9.47466
-94.3764
-175.092
-116.534
-6.91748
-45.31
-143.952
-111.611
148.472
500.5
691.757
426.065
200.489
3.93594
-148.469
-203.33
-224.605
-299.14
-317.41
-189.353
-64.3004
2.47352
27.9526
-27.9857
-56.6726
-19.057
31.2964
33.8531
-60.9082
-175.342
-171.449
-3.16124
22.8757
89.9693
192.941
169.307
164.638
167.685
123.83
53.8163
50.3223
57.3824
116.11
169.261
150.806
37.7017
22.1912
26.2194
-55.7024
-228.1
-421.469
-304.949
-180.532
-217.968
-149.088
21.1808
139.798
252.402
384.638
280.985
82.3627
41.8758
-8.14065
-135.876
-148.163
-26.3936
12.0448
-41.2038
-36.931
-163.42
-264.07
-233.69
-122.462
17.221
54.5676
110.243
191.106
95.4029
-46.2987
-43.4677
35.5072
14.7846
-13.8372
-15.4335
-32.0883
-1.76727
38.5387
27.3363
2.92663
69.3499
180.999
170.655
124.03
91.7973
21.2893
-113.873
-197.911
-204.369
-192.196
-119.385
-53.7046
30.6968
231.565
267.866
111.863
11.418
53.6988
124.903
28.4856
-16.3894
-24.2281
-22.4817
18.9092
22.4389
-11.3569
16.7925
29.2626
-68.8039
-195.635
-214.71
-186.145
-164.515
-167.002
-102.198
123.554
336.954
315.482
9.16618
-52.9643
16.6555
48.5613
-7.55915
-157.933
-148.943
-104.189
-145.218
-174.084
-52.584
59.2919
116.762
115.813
31.3335
-52.7763
15.4708
105.083
107.159
162.752
240.242
97.7639
22.6138
57.9008
67.4953
72.4316
20.823
-74.6473
-122.002
-85.4867
-30.1075
-41.5554
-47.6752
-21.1001
1.0713
-26.9682
-62.1122
-123.038
-233.033
-328.392
-234.5
32.3119
157.607
141.546
128.729
112.431
70.5153
41.5672
65.3377
43.1369
32.2829
43.3483
27.1954
39.441
147.808
200.203
117.981
31.7093
-50.7541
-105.805
-106.75
-103.659
-144.769
-225.509
-142.093
92.2304
112.829
26.5103
-8.1965
-4.62949
22.6074
85.7178
184.277
158.198
-2.11397
-95.7976
-171.282
-206.601
-118.302
-39.6345
-10.3197
-65.2936
-90.6042
27.1394
110.237
78.6082
52.8986
123.819
42.2706
-7.0123
10.7932
29.5941
-33.9983
-95.1021
-84.5937
-18.1606
72.5511
47.5021
-14.1745
18.0863
61.7718
33.9226
-13.1292
-69.0555
-95.7444
-107.762
-56.8292
-14.7127
33.8841
8.588
-40.4728
-38.835
44.3569
236.009
330.893
189.441
22.7974
-27.2329
-9.53707
-42.7043
-54.4824
-33.1042
-38.2748
0.523082
58.5818
105.487
75.5691
13.4026
-32.5012
-60.7051
-108.662
-148.206
-187.651
-241.083
-210.345
-120.414
-29.0165
29.5355
26.6881
58.3247
33.232
-64.7098
-88.1958
-52.1715
3.28149
65.3249
55.9455
20.8267
229.714
575.6
524.258
121.56
-98.3995
-155.483
-124.158
-19.0172
-23.3758
-50.726
-44.2311
-161.61
-241.939
-122.564
109.262
340.714
288.251
44.9671
-17.7957
59.5536
-127.434
-385.767
-447.179
-315.391
-189.588
-24.9684
82.9907
24.508
-56.0101
-80.7449
-89.2983
9.38554
204.688
315.298
184.887
-21.4151
-143.969
-133.814
-75.3086
-7.69077
74.463
23.0349
91.8259
236.747
281.983
233.805
144.171
63.9642
160.02
226.149
89.6091
-26.7829
-99.9127
-141.829
-110.742
-75.8726
5.96453
53.796
-1.67286
-14.3626
-43.053
-108.481
-166.06
-146.902
-161.039
-184.742
-215.169
-177.821
-131.21
-92.2972
-11.7375
29.913
62.771
41.078
-36.6957
-145.314
-83.9215
9.67889
151.13
238.912
358.161
315.991
130.674
50.8587
0.138394
-59.9401
-100.026
-94.1397
-17.2992
126.506
175.755
74.951
-36.9285
-59.2469
-5.5776
-6.89475
-99.5518
-159.181
-133.904
-178.284
-269.553
-218.15
-14.9272
129.358
326.628
484.715
497.521
387.285
158.482
-141.602
-327.669
-255.065
-176.468
-236.497
-267.415
-177.774
-23.4798
174.973
280.345
100.139
-74.4544
-113.814
-80.2233
-10.2091
-59.8582
-203.449
-301.571
-262.526
-130.411
121.384
339.37
281.286
157.837
192.646
189.581
153.388
38.9307
-147.797
-288.134
-200.331
-53.4533
6.52609
-9.69434
10.3546
-16.7622
-20.9668
102.541
191.621
156.848
59.3511
78.3435
181.899
142.547
22.9653
-52.4096
-120.439
-149.232
-102.616
-13.8425
113.603
142.497
61.692
-1.38329
-71.8784
-119.784
-250.133
-349.365
-274.328
-158.266
-112.864
-79.3231
30.1982
221.151
398.973
410.165
214.219
58.2146
-18.7566
-96.2693
-301.657
-327.897
-143.159
-36.3951
10.631
82.0326
305.888
282.583
89.0252
-13.8404
-35.1425
21.3724
111.889
36.2144
-153.164
-200.357
-158.983
-100.789
-57.8611
-27.2203
10.8161
-26.0621
-41.5158
46.1398
141.22
82.4539
-7.00913
23.5588
7.14096
-29.6989
29.4224
95.4682
77.1458
74.9863
77.3359
23.8602
79.0579
163.887
116.181
-77.6094
-91.7344
-58.4208
-47.7316
-67.3973
-171.025
-215.881
-209.746
-165.036
-90.2637
4.83765
4.0615
-100.182
-150.438
-66.0376
155.11
261.549
139.536
31.4839
41.591
152.451
224.341
295.754
294.493
80.6646
-80.2135
-114.643
-125.024
-144.189
-77.349
-10.1498
24.3217
-17.8288
-78.1991
-50.964
-124.37
-131.1
-46.2953
-21.4159
-28.8146
-6.34039
2.08764
-127.391
-215.224
-96.3867
-5.48391
43.5491
76.3409
69.9
195.828
288.757
163.109
143.387
236.574
138.168
-91.9882
-190.054
-97.2646
-14.9714
-61.6799
-109.398
-77.3187
-16.4783
-4.76197
-15.0984
-4.3122
-3.01937
8.15843
67.5048
-5.4144
-74.4939
-41.4468
-126.617
-256.266
-232.058
-131.69
-60.5613
101
196.315
148.927
128.635
180.741
194.016
111.35
73.567
70.6206
27.489
-41.7036
-98.4098
-158.874
-225.756
-226.316
-148.025
-60.693
100.593
297.132
304.193
446.61
556.896
357.93
-46.1426
-318.468
-342.881
-228.799
-152.476
-112.676
-108.948
-165.586
-149.138
-125.586
-75.7622
-25.6358
-19.8048
-45.9964
-120.679
-157.225
-65.7262
-179.433
-288.34
-163.781
100.666
130.626
143.541
241.018
296.752
287.461
228.611
182.928
192.382
192.262
186.474
159.937
116.26
46.1241
-54.4916
-110.463
-136.965
-210.157
-234.292
-159.853
-84.6683
12.0382
16.3064
-30.1051
-79.4725
-103.482
-48.7491
0.625658
15.5388
40.6949
34.8114
-46.3539
-119.906
-122.333
-36.9989
1.424
-6.71658
-3.48195
0.819256
83.2669
171.194
151.447
15.998
-94.1885
-76.1703
-36.9379
-3.65486
11.4314
-19.1922
-47.0325
-56.0513
-4.02439
56.9886
61.8792
58.924
66.8768
27.2569
-83.3002
-170.472
-150.95
-104.22
29.8228
238.874
355.607
304.378
234.208
127.585
60.7658
26.1452
-66.3757
-160.559
-200.907
-191.821
-161.368
-127.286
-89.5648
-60.0899
-3.19612
-58.0589
-138.393
-109.351
-36.7765
105.621
124.933
94.5461
144.986
238.383
230.867
11.7892
-99.5684
-78.5476
-83.7297
-75.3228
-48.9399
-31.5399
10.7865
45.6503
-55.2174
-123.777
-74.0875
-20.8067
-57.2047
-215.665
-276.863
-150.913
-126.92
-164.918
-76.458
215.252
485.712
462.036
271.669
152.537
168.75
269.264
279.948
135.203
33.1828
6.72872
38.7944
45.4621
-103.501
-274.798
-313.959
-316.188
-317.633
-258.975
-179.913
-144.568
-137.53
-35.7308
173.95
292.553
167.045
-4.07795
-126.852
-115.463
-83.7047
-13.3484
6.84238
-67.7503
16.4373
131.044
146.104
118.312
170.689
209.795
147.724
33.147
-105.481
-172.293
-131.08
-95.4047
-100.749
-97.8433
-64.1615
93.8856
261.306
267.283
128.109
30.5062
29.1386
35.1254
48.3117
50.0383
-74.2453
-191.045
-167.707
-59.5569
-27.132
-5.45437
-22.5531
1.80537
58.6346
-16.4348
-59.4703
-91.1076
-163.032
-196.264
-132.143
-34.5045
60.2665
55.5652
-76.3746
-115.568
-33.6822
46.834
60.2314
187.178
486.564
503.392
317.025
38.5422
-163.62
-242.538
-255.656
-159.481
29.7822
188.657
162.081
154.093
60.2249
-137.218
-141.547
-106.869
-136.833
-131.191
-101.322
-223.771
-285.415
-183.487
-49.1342
68.0645
128.726
90.928
60.5684
0.99684
-52.731
-35.5745
-10.8391
-68.6421
-14.3567
193.256
246.23
138.955
55.705
81.5213
163.821
171.053
41.4695
-153.532
-242.333
-204.73
-69.7555
151.546
257.652
248.848
228.821
130.236
101.598
113.434
-32.8778
-233.96
-313.001
-317.555
-191.598
-63.6706
-75.0908
-128.968
-109.452
49.2954
178.622
142.536
81.5369
18.5509
-108.875
-235.967
-188.748
-68.3586
-35.7891
-105.529
-82.6311
155.03
392.453
440.369
318.013
108.53
-60.3489
-54.2476
-51.8946
-102.671
-140.151
-157.302
-180.695
-153.891
-86.6826
-0.868812
-27.8489
-76.3302
-44.5702
6.63745
10.7157
27.4922
59.1303
28.3397
-12.5798
54.5738
155.001
204.905
290.719
337.916
147.81
-26.5762
12.9224
-3.29176
1.08746
2.87298
-23.8472
-12.7123
-58.3112
-61.3358
-17.9067
-91.923
-293.814
-289.362
-243.58
-269.145
-200.343
-96.4479
-77.398
-97.7679
13.3223
107.466
187.34
252.459
274.23
161.796
-33.1848
-28.009
73.703
14.04
-46.48
19.9509
46.6553
49.8044
135.432
147.814
48.1371
-84.463
-252.865
-155.797
51.1196
143.046
132.661
132.003
85.2223
35.8929
-35.4168
-174.751
-236.708
-119.006
-4.90686
-27.6696
2.97526
67.2604
122.414
112.295
4.51092
-22.8886
-34.9575
-141.132
-147.074
-12.8843
19.3915
-84.3843
-127.712
-62.3521
33.6175
59.0023
114.702
143.063
112.036
81.7514
16.4966
16.793
6.66131
-14.7855
45.7673
128.03
125.3
113.856
91.189
26.2594
-162.877
-248.775
-202.456
-135.675
-29.9234
3.0753
-128.7
-241.543
-206.795
-92.7546
-3.78863
24.1855
19.0657
157.41
269.851
301.365
282.867
121.414
-50.1803
-66.4283
18.0764
20.376
-10.4953
-120.314
-218.549
-214.577
-98.5345
136.319
362.592
328.398
207.431
151.834
143.184
-27.1843
-224.635
-392.86
-409.829
-312.884
-175.492
-99.0422
-88.9242
-7.4367
122.589
256.488
208.061
151.606
112.632
-17.5926
-180.582
-128.319
84.6493
100.834
-77.7523
-119.344
-34.154
38.2874
72.227
135.886
206.929
157.547
56.6628
32.5067
-44.7883
-101.824
25.3253
56.0854
-4.43558
-69.8594
-122.618
-174.997
-224.886
-240.313
-138.267
-12.8262
-26.9717
-37.0236
34.5686
121.882
151.545
181.686
290.603
344.045
147.842
25.7622
46.7524
31.1749
31.5704
41.8765
-32.447
-117.812
-176.856
-114.839
17.1019
-37.6095
-78.4401
-115.202
-108.639
-50.0486
-45.0772
-146.771
-206.518
-191.908
-86.9006
21.292
41.7474
94.7758
141.255
98.0063
67.419
4.45732
23.6676
56.3887
32.9227
51.7695
24.685
17.6209
15.3216
-49.7728
-98.1535
-37.5351
62.1074
131.309
218.968
220.194
220.633
179.286
67.6374
-83.128
-187.35
-174.552
-127.657
-87.2017
-56.3677
-74.4017
-49.9062
0.841073
-51.7387
-103.298
-85.6023
47.9894
211.55
78.5765
-22.9586
4.95091
-90.9617
-223.374
-253.955
-137.494
-22.9668
28.8742
27.6764
-9.40965
0.164636
74.8638
130.014
208.712
297.421
257.514
141.302
107.58
61.1688
19.7857
-141.053
-244.787
-257.338
-175.441
-75.2727
-54.3139
-30.5698
106.496
198.551
233.597
243.563
164.576
-25.0283
-132.875
-221.217
-296.83
-253.295
-208.667
-236.101
-194.113
-46.17
64.2748
105.238
132.917
129.8
198.741
231.62
149.389
40.301
-46.5939
-120.142
-82.811
82.2247
109.888
85.931
89.6186
55.1915
-20.1201
-133.325
-110.978
28.8044
73.6286
77.045
87.0475
66.4891
12.2818
-5.7278
-10.934
-30.2933
-65.1832
-76.8769
-58.072
-41.0489
4.10791
-6.82613
-50.3774
-35.8567
-7.85673
-11.0052
-35.4619
-49.4431
-7.83951
73.0891
95.2969
116.958
101.523
30.3385
-64.131
-115.59
-151.525
-197.369
-206.11
-167.375
-110.102
2.00852
81.0669
60.226
36.9293
76.3708
106.644
103.017
57.6831
35.3308
8.36386
-14.9745
-31.6794
-26.1472
63.6016
97.3027
46.0252
89.6624
253.397
307.466
195.841
54.8754
21.4983
59.4778
-7.88465
-112.311
-148.825
-192.661
-332.141
-386.955
-332.359
-206.381
-55.2274
55.7843
61.9988
88.5273
157.548
105.89
-25.8807
-89.5542
-91.4135
-36.2304
50.8382
120.939
165.678
201.029
145.627
68.9208
101.456
68.2913
34.4162
58.8732
88.8924
75.6332
7.33254
1.7494
14.9996
-74.8366
-178.434
-208.43
-159.953
-117.444
-26.8491
-2.79989
-19.6419
-69.7825
-92.5704
-89.9242
-32.8769
16.462
6.24557
-68.8647
-17.5428
98.8245
223.657
205.043
186.808
233.683
124.633
7.15138
-78.6997
-110.003
-116.284
-130.098
-102.283
-71.4588
-42.507
-4.88877
5.14219
6.74022
22.9679
45.2593
-5.29094
-130.475
-253.049
-183.561
-39.4481
-7.53299
1.97512
6.15543
33.0124
118.29
83.069
46.2388
66.0982
129.515
230.106
196.326
125.834
170.477
188.552
68.3808
-80.0877
-55.8361
18.187
4.14056
-110.601
-156.554
-131.713
-124.23
-154.949
-200.706
-148.364
-85.8219
-39.218
-32.6112
-90.9106
-49.8036
26.2201
79.1695
66.5635
72.0649
64.4639
31.1901
3.29076
-43.5592
-26.0361
-38.1157
27.7306
220.454
323.037
387.48
412.53
283.529
64.4991
-175.794
-265.053
-258.094
-234.159
-262.634
-270.129
-226.848
-165.334
-90.8337
30.9832
123.531
34.9151
-30.8454
-87.343
-172.259
-182.426
-188.338
-190.493
-81.5993
45.267
230.442
363.315
380.491
352.029
304.626
305.573
307.438
305.279
290.148
49.5791
-214.504
-223.686
-60.801
10.1502
-3.44116
-127.087
-273.458
-384.118
-402.576
-307.313
-192.964
-133.483
-92.5617
-105.471
-102.322
-25.3124
73.9126
105.726
83.815
155.475
184.516
117.748
-6.76902
-18.6976
-32.8134
-11.0142
77.7784
123.599
151.827
109.179
70.2151
119.674
183.846
231.675
186.698
8.22324
-75.3751
-74.0871
-149.259
-259.971
-254.131
-142.245
3.21968
39.3628
8.25791
59.922
80.4479
24.3373
-40.3809
-19.2058
-0.0877448
-67.7007
-107.502
-111.536
-110.948
-69.5778
-11.9176
-34.0679
-18.4781
57.5634
74.9746
69.8227
17.7879
50.4832
134.796
99.4238
42.1473
48.6372
-31.3804
-71.4913
-105.585
-115.475
-14.5652
174.334
377.438
284.249
-4.49483
-158.178
-158.211
-154.488
-106.63
-51.2601
-0.583926
46.9638
73.4538
74.5623
-88.0997
-182.405
-176.452
-158.939
-64.0298
27.3563
151.416
142.263
-24.5443
32.011
141.292
182.143
134.947
39.0389
-86.9958
-138.08
-167.676
-216.484
-206.227
-179.883
-52.1266
53.4579
174.288
214.948
207.963
173.865
118.414
62.6637
-58.9183
-195.841
-149.145
-70.8638
-83.5463
41.5079
188.936
277.612
283.322
168.072
66.0012
4.29404
-85.0974
-93.2144
-65.1905
-135.55
-185.423
-135.671
-170.346
-230.793
-236.534
-140.543
-27.9734
51.5576
115.439
137.336
81.7479
2.98927
39.6694
82.2153
30.0104
10.9797
39.7766
80.4343
123.388
153.549
138.504
55.5005
-63.2444
-148.17
-100.524
-19.1651
-76.2953
-205.071
-217.404
-109.491
14.0492
98.7469
219.427
263.426
156.858
140.714
214.662
125.616
-73.4088
-119.863
-133.831
-151.445
-79.626
27.2224
125.712
87.9109
-44.1223
-64.8119
-68.5796
-68.7048
-45.6636
-140.661
-333.269
-269.062
-113.075
-142.877
-152.485
-3.42633
167.381
168.081
115.863
156.101
155.717
127.352
58.5052
21.4507
86.2131
147.128
149.03
-17.0332
-111.334
-43.3313
23.4485
16.4008
141.598
182.406
117.852
13.7182
-65.7557
-83.6235
-92.465
-135.081
-172.943
-130.536
51.7294
93.106
35.5906
33.7993
-0.560182
-6.43252
-58.3515
-132.39
-111.007
-127.739
-174.185
-153.444
-61.643
46.3863
84.9262
83.4058
149.605
179.013
144.858
75.9735
-61.223
-113.099
-90.8531
-32.0709
42.8071
51.6345
159.23
183.325
32.0764
-35.7312
-29.6482
40.0415
24.7928
-100.232
-190.96
-79.4141
207.681
372.982
241.907
79.4232
-71.1357
-50.7487
-73.0014
-188.216
-184.717
-102.052
-147.59
-196.199
-166.324
-138.525
-123.988
-71.4097
-35.08
17.3694
62.8112
76.9421
10.3524
-170.7
-157.56
23.4028
207.909
279.103
288.891
290.166
225.476
119.879
36.6469
22.7997
40.0263
-17.6562
-133.171
-166.472
-50.4317
67.291
180.331
66.7117
-184.947
-218.401
-124.135
-153.123
-208.063
-168.931
-64.0003
-4.35465
30.6887
45.5764
32.9964
51.9275
77.4434
88.2114
93.6814
122.411
68.4293
54.4962
48.0743
80.8903
132.902
158.855
72.8573
-30.1068
-104.497
-135.051
-117.35
-117.685
-136.534
-143.432
-130.95
-101.097
-91.5643
-62.5108
29.1125
124.03
217.658
231.1
285.581
321.499
68.1503
-138.242
-58.0321
0.699851
-17.7381
-105.381
-160.393
-138.569
-101.95
-70.9717
-23.1775
-27.4536
-49.5911
-55.6806
-2.05576
10.4858
-83.4504
-146.03
-228.869
-299.767
-124.338
133.779
142.909
77.374
122.095
230.369
229.006
186.624
108.486
77.6115
69.7473
64.8473
119.533
162.751
147.474
147.305
84.5145
-104.55
-195.684
-143.782
-117.549
-202.501
-189.875
-128.845
-96.4192
-72.0626
-37.6528
-50.541
-24.9987
22.4333
38.1777
39.0333
29.7633
36.2726
29.8573
-44.4444
-50.2046
90.948
184.054
98.2881
19.6514
9.28385
-44.0676
-132.952
-125.347
-83.91
-52.7693
13.3955
43.2778
88.5567
221.405
343.587
318.221
203.089
69.2366
-99.1364
-322.039
-380.561
-291.334
-160.21
-99.5927
-107.604
-79.761
-1.98447
47.2827
19.684
73.3483
134.934
80.3088
-53.5926
-175.666
-153.142
21.2793
139.888
164.871
107.731
106.573
112.635
66.7728
98.0446
139.458
44.9971
8.30375
30.039
4.73407
-47.3375
-101.572
-124.656
-64.3241
36.663
79.5275
39.3567
-4.29655
94.277
7.69836
-112.953
-83.1568
-156.185
-193.167
-216.133
-151.386
-13.7886
45.631
75.2451
35.4537
56.3723
36.9808
9.01349
14.7588
12.4528
40.9107
7.91141
-66.2492
-48.9526
24.6688
130.316
264.368
266.362
112.771
-0.324159
-116.252
-173.768
-169.538
-60.3285
142.491
221.365
134.878
64.8393
-19.2173
-109.094
-162.298
-166.238
-120.434
-138.161
-97.9979
-77.2573
-120.559
-90.7386
-52.2489
-15.3507
26.0172
87.5161
119.836
66.4024
60.2128
158.251
297.931
199.492
93.9331
22.8264
-22.0842
10.3191
16.6914
-53.8566
-79.6005
-36.7892
-126.431
-173.683
-95.3854
65.5172
171.068
109.175
-5.02039
-66.9852
-129.059
-211.636
-240.536
-162.068
7.29111
204.583
257.989
150.652
-26.2787
-190.788
-196.277
-92.1857
97.1606
213.16
236.271
21.1883
-130.946
-74.6234
3.28412
32.6906
-0.846953
-40.6608
-26.2612
19.5098
40.7314
-4.97476
-21.2568
-31.3765
-140.04
-57.259
67.577
129.697
183.537
201.681
25.0979
-67.891
-40.1726
2.6873
70.6968
149.563
75.7866
-60.7548
-96.4129
-102.131
-126.124
-128.89
-140.05
-122.312
-33.1693
-48.6239
-44.8507
-16.5189
-2.64056
45.0682
127.642
164.501
166.535
127.586
81.4725
-65.206
-136.947
-74.9027
-41.4115
-15.6774
0.942987
-2.60986
-25.0393
7.71083
69.3625
104.155
125.291
114.44
-32.3843
-164.889
-152.616
-31.3569
-4.14775
-94.2965
-181.793
-115.132
55.1301
144.592
82.1885
-51.7825
-97.0499
-31.2958
53.2355
70.4085
69.804
56.1506
-39.9272
-39.9201
62.8405
67.9591
39.9107
50.0294
104.908
146.839
121.485
119.456
35.519
-121.923
-145.479
-102.804
-102.988
-80.4191
-10.9515
21.6857
36.445
25.7265
23.6898
-92.7081
-155.614
-160.54
-155.37
-183.158
-225.244
-185.4
-34.3331
140.506
390.54
549.648
401.303
220.831
168.707
50.9601
-80.2436
-176.838
-204.1
-126.682
-94.7021
-40.5832
-19.0626
-26.3147
-6.48945
6.36077
-7.64735
-13.4209
-63.9498
-146.346
-237.834
-276.923
-172.494
3.89179
32.2035
23.2141
35.1621
69.4842
118.071
126.037
163.736
126.406
107.59
87.6854
162.324
248.115
182.745
114.581
24.702
-83.5611
-179.827
-143.427
-4.68287
51.1374
24.6274
-16.3854
-49.167
-66.9895
-74.3134
-146.477
-217.883
-240.951
-216.937
-121.159
5.36288
71.19
107.707
135.697
98.2613
72.0759
41.5436
-8.93455
-39.9277
-5.75954
101.613
89.4277
6.72965
-48.3197
-50.0223
-6.65238
6.17396
28.8964
27.2329
45.1841
-21.552
0.133688
141.344
133.303
29.3157
-13.192
-25.1819
-52.7647
-76.4436
-35.1217
47.8643
67.1564
-10.8839
-8.46826
-62.0539
-139.331
-135.816
-62.9207
37.436
135.609
200.54
111.865
-69.5895
-69.1442
22.5946
33.5097
-65.976
-107.388
-95.2933
-82.6811
-113.874
-72.4842
-16.4722
-35.5421
-17.1851
57.9512
103.871
100.672
95.3108
20.4478
-79.7025
-146.332
-189.129
-142.981
58.0841
298.017
464.836
379.353
241.477
96.3332
-66.9432
-166.642
-168.685
-91.5865
-48.7294
-50.902
-77.0849
-113.957
-135.295
-154.57
-206.735
-171.269
-65.0637
8.04749
42.4976
-33.4057
-79.4131
-5.27548
54.8441
104.234
74.344
80.626
140.424
175.653
153.463
94.0673
51.225
23.2491
-25.1829
-8.19526
60.9859
93.7638
50.2884
-2.69543
-34.4323
-85.9182
-126.439
-70.5863
-14.0893
-107.634
-97.6803
16.3888
39.7922
-22.6513
-75.2759
-55.3789
-12.4431
25.3262
81.5991
203.911
236.664
58.7276
-33.503
-21.2369
-82.2885
-130.751
-143.236
-155.231
-138.796
-48.6236
40.5384
26.0622
-30.4628
-52.2545
-30.1805
33.1866
126.465
115.353
34.6047
-17.4274
-112.933
-155.223
-128.575
-94.7537
-41.6721
-16.7372
79.0261
147.103
182.623
266.432
166.149
4.65733
14.9585
92.2671
159.441
187.98
151.224
31.6806
-72.5047
-145.086
-128.482
-65.9841
-11.8255
-45.2471
-102.176
-103.693
-136.975
-163.041
-169.146
-209.925
-164.055
-51.1816
35.4501
60.0483
64.5311
37.2274
-6.18887
41.5585
28.6576
-19.6051
13.3482
133.602
166.472
102.058
76.6606
88.9307
70.9602
56.2572
80.0468
123.101
99.9844
27.4977
3.72766
-66.4319
-109.765
-118.822
-64.5837
11.5486
76.7435
51.3478
-21.1679
-34.0454
0.13909
7.73206
7.41325
39.0344
-34.7377
-138.099
-233.313
-214.109
-14.602
68.8572
-37.6293
-138.574
-124.526
-68.6709
-57.0405
-35.611
-21.3917
28.5215
116.36
165.381
110.178
28.4484
-38.0058
-98.4913
-5.65178
121.699
191.411
171.257
95.3305
32.8349
40.8695
73.7136
20.7147
-32.5345
-31.8758
7.99345
124.233
109.712
-46.782
-165.375
-131.799
-22.6505
34.4384
-4.30517
-51.4676
-34.872
-39.5558
-40.7536
-36.8541
11.2287
81.4388
119.548
41.3566
-53.518
-158.933
-224.328
-222.831
-145.574
-9.11954
107.862
76.5727
-19.1546
-1.15012
-2.95364
-3.65662
92.1943
192.693
219.14
114.544
29.5567
-7.12674
-22.4364
-39.6107
-55.8948
-102.803
-117.341
-103.505
-21.7473
102.803
204.777
235.456
182.056
112.701
68.5022
-54.2132
-239.33
-306.556
-320.535
-201.727
-14.1398
61.6092
70.0715
104.646
112.103
182.623
254.062
179.016
-1.9265
-183.424
-303.576
-261.944
-161.233
-115.047
-22.0322
50.2349
83.6133
77.175
62.2214
72.4549
-5.21955
-23.6564
183.281
378.019
203.159
-3.70412
-59.8834
-50.3459
-104.425
-117.658
-115.948
-78.2695
-19.2773
52.7286
-4.6426
-44.1375
33.911
31.5366
-48.1922
-71.1867
14.9711
58.0405
-46.6599
-132.546
-65.5047
3.43464
-95.4539
-142.156
14.2687
75.8457
92.0634
79.81
48.1138
55.8467
69.4267
163.883
210.19
213.958
177.371
130.723
96.7135
-42.3399
-250.105
-340.412
-241.593
-178.072
-160.305
-184.215
-197.612
-115.597
22.7793
96.2856
214.569
268.847
230.991
122.563
-67.8185
-162.294
-126.061
-130.499
-138.488
-75.9771
-11.19
38.3806
63.2894
93.6776
109.808
126.999
121.719
66.642
-16.9583
39.3138
191.312
314.927
309.405
118.991
-78.7266
-180.626
-195.07
-229.251
-216.612
-208.81
-177.032
-122.523
-28.3265
69.5469
106.922
149.828
151.687
64.4156
-27.5275
-82.3901
-186.035
-364.651
-366.535
-164.044
126.802
282.102
267.761
242.364
134.368
58.0122
63.4079
56.2377
12.8809
-20.194
-5.09982
-24.2386
-1.21136
45.8796
59.8048
23.1927
-77.7457
-95.501
-58.5522
-66.2903
-102.787
-123.433
-31.5839
57.8964
110.388
116.144
57.6659
-8.54198
-58.5365
-90.8532
-79.2229
-73.452
-58.9943
49.9015
104.343
124.053
148.614
74.8699
-42.3867
-16.1075
59.1908
123.361
29.6051
-100.976
-135.387
-124.68
-76.3458
-31.5517
65.4133
106.359
99.9559
118.612
8.8107
-122.711
-162.434
-165.876
-184.407
-187.352
-87.4157
14.4866
29.0458
-30.8396
-95.0397
-16.4782
106.225
183.198
167.426
99.6345
45.8044
89.3421
186.156
203.082
183.577
118.933
78.4448
-37.4595
-84.5544
-95.6414
-102.875
-108.213
-115.427
-102.309
-61.9414
-80.6654
-133.668
-160.951
-118.996
1.00908
159.043
260.253
165.838
-9.31915
-61.4707
-71.2453
-71.2317
-27.4051
-23.8498
6.76798
69.7724
82.8861
35.157
-23.4451
-25.0398
-6.37071
-12.0961
24.305
57.643
74.0492
11.3429
-132.894
-191.499
-107.841
-37.4434
12.7649
23.559
3.32499
31.5824
46.9786
57.4841
55.5462
19.7789
15.0644
49.1906
42.1638
38.0264
-5.87962
-58.774
-52.638
-35.7174
-18.895
26.3706
-18.5412
-121.231
-69.5427
30.9496
124.821
171.522
149.852
96.631
21.5952
-26.0224
31.6915
-0.461096
-95.5078
-118.911
9.67887
69.515
-13.9507
-79.03
-101.927
20.5013
122.309
132.628
-12.0877
-137.519
-172.664
-136
-84.5803
-98.4614
-12.0188
70.7082
32.6933
19.4064
69.0917
71.4087
10.5299
-52.6776
-80.2786
-53.9121
-39.2061
-101.215
-115.435
-47.5248
69.8834
129.371
77.2728
109.708
199.768
282.611
171.919
21.0943
-38.738
-30.0407
-6.45898
-6.47436
-19.9385
-10.5751
-55.305
-103.601
-113.82
-128.238
-88.8654
-21.9732
15.9755
52.572
176.93
152.051
9.26765
-68.5535
-55.3699
-21.3046
-60.3128
-78.1847
-81.9
-63.0537
-60.835
4.1869
75.1274
70.7166
45.2657
52.758
100.012
80.0847
-54.2492
-127.791
-151.147
-117.16
-83.6505
-117.02
-94.502
13.8222
173.416
267.738
85.3956
-80.853
-99.4343
-60.031
37.3365
100.878
103.724
51.3458
-42.1871
-35.2185
102.999
243.087
206.162
33.066
-51.3605
-40.3001
-7.1694
-51.4652
-130.499
-173.784
-42.4046
89.4161
99.6863
30.6494
-33.4209
-103.943
-126.301
-91.4277
-68.133
-68.9843
-113.808
-197.883
-205.439
-144.855
-17.4386
29.5654
0.804468
0.720243
70.9216
262.607
414.437
321.383
187.813
71.6846
-31.1041
-37.6478
-54.6601
-84.6315
-69.3696
-17.1594
83.306
114.879
124.39
140.17
115.997
23.7479
-197.592
-83.3236
-18.6438
-155.326
-162.676
-16.3047
48.4016
-18.6012
-219.671
-336.435
-268.558
-153.913
-106.806
-3.49382
177.73
259.628
227.659
103.175
31.2156
23.942
41.3163
2.73939
-35.5086
47.5591
15.6649
-36.9578
-77.642
-106.244
-47.2651
90.5128
177.601
166.135
134.95
61.2378
-7.38016
-85.4991
-64.0809
8.75842
-0.775021
-49.9626
-131.904
-162.5
-97.6702
-1.07705
25.0132
3.2857
18.9636
84.6528
138.09
120.151
78.4961
40.9209
6.35097
-66.6528
-152.847
-143.252
-84.004
-84.4465
1.89207
208.381
290.822
308.305
281.114
111.392
-10.9157
-81.3781
-98.9502
-150.976
-206.43
-221.042
-210.94
-183.483
-131.72
-78.9968
-24.9507
-32.6465
-39.6836
18.3714
55.7932
-91.9962
-164.976
-197.288
-200.791
-66.7349
17.8671
19.1459
132.816
393.743
552.391
441.869
265.794
136.533
45.2227
34.8016
16.1446
-44.9592
-61.2109
-49.8241
-69.7839
-127.986
-168.948
-144.181
-89.3417
-16.5935
2.25591
-55.2833
-147.429
-240.08
-249.243
-140.4
-22.8583
65.0753
174.133
242.773
271.085
219.692
78.333
-28.209
-72.9025
-31.5118
22.2653
-1.02179
-71.7924
-115.332
-97.913
7.11728
12.8312
-70.8314
-106.025
3.61307
64.1134
84.4143
28.7593
-10.4333
-49.0687
-55.0065
49.0777
179.522
223.154
204.321
134.246
2.08601
-100.572
-110.52
-117.099
-69.7324
-60.0905
-57.0873
-77.944
-94.8614
-13.5151
13.128
25.213
111.471
99.4929
42.3439
-25.436
-100.846
-158.719
-229.367
-213.962
-98.6787
63.8281
118.341
113.969
52.8575
-26.0431
-46.0752
35.3384
99.091
80.3355
35.0893
-20.1794
-92.1843
-62.1328
-42.031
-51.2625
-33.8453
52.2083
149.818
237.344
361.377
309.525
114.169
2.44681
-48.6201
-40.6458
-56.0309
-145.551
-152.297
-111.576
-57.516
-32.0281
-74.4304
-47.9123
18.9846
-16.6012
-77.3252
-178.108
-208.75
-170.149
-141.741
-61.6483
54.4211
67.9609
115.908
243.544
336.903
243.853
66.4888
-7.10425
-19.3064
-16.0095
-9.19195
-39.7423
-36.7816
-5.85438
4.0798
13.082
-16.1044
-64.0023
-98.9087
-110.819
-123.747
-70.2081
-23.2956
-62.5923
-121.001
-142.304
-101.778
8.77887
103.022
163.704
160.513
194.762
232.393
273.734
346.002
267.91
1.39809
-112.336
-187.027
-231.651
-160.604
-89.5525
-89.4706
-131.235
-151.592
-87.5121
37.5753
75.0912
20.3024
-89.3742
-91.6246
-92.3994
-170.406
-181.466
-179.699
-77.8115
92.7918
94.1367
141.613
247.933
247.941
208.841
116.842
16.5497
-14.5381
-17.9254
-10.7333
-21.405
-16.2424
6.56166
37.1077
-11.9113
-53.6393
31.6402
157.366
91.7287
9.62189
-43.4688
-77.0252
-100.747
-69.255
-5.02316
31.9731
8.9416
-12.8103
71.259
72.8103
-28.7962
-68.5826
-23.5377
-97.8522
-140.169
-86.4345
-115.073
-158.991
-105.198
9.70251
116.576
93.1334
15.716
-15.9413
-63.7423
-26.2929
21.1338
35.5784
40.1871
81.128
155.448
148.23
158.655
169.845
34.0598
-33.9548
-36.1699
-75.9642
40.0432
188.205
161.303
106.784
-12.1717
-179.143
-249.822
-280.438
-246.106
-214.465
-185.602
-147.255
-101.034
-2.2859
62.0199
129.487
189.265
239.757
239.155
192.926
37.6902
-110.485
-133.58
-137.781
-84.7131
-5.86956
16.7877
36.5283
114.931
194.734
201.896
96.463
-28.4549
-90.6973
-131.223
-155.439
-83.6624
-6.54761
-39.228
-97.6797
-82.1945
-20.9225
-11.0412
17.3292
48.9245
113.899
143.136
143.167
126.636
47.5775
-49.8742
3.50606
75.3512
53.7235
-12.3221
-46.8075
-61.2518
-114.224
-94.1001
-109.196
-159.834
-148.819
-74.1099
1.50355
71.4791
72.4909
132.355
162.966
198.574
145.395
62.0129
-13.3081
-64.8115
-117.357
-195.921
-229.064
-184.774
-113.801
-87.9999
-36.6053
91.203
267.039
292.805
129.846
17.7573
-79.7122
-178.651
-151.717
-113.189
-60.9635
12.4686
15.5353
-0.56501
85.272
264.04
217.113
85.592
-33.4976
-141.498
-128.93
-51.3683
-63.931
-135.897
-62.0669
5.29933
86.3002
169.915
177.714
122.517
40.0695
7.91756
46.9765
122.229
71.1277
-37.2473
-12.0699
12.8668
-62.3055
-61.2792
-34.704
-93.9956
-158.024
-101.716
3.27746
-8.07322
-7.22187
-35.0251
-89.6878
-131.099
-116.672
-109.759
-94.1004
-97.0082
-104.376
-68.0398
45.1343
222.853
326.47
251.084
143.495
111.57
33.1824
-24.1861
-65.447
-39.0551
-9.83796
-16.4603
-13.7831
-43.3482
-46.4604
-31.3701
-15.434
45.9208
160.194
211.332
141.062
-13.4982
-26.8837
19.3704
3.97861
-54.3026
-93.2695
-80.5495
-61.5818
-34.4929
-58.3082
-126.429
-162.492
-143.425
-104.757
-65.9047
-71.8745
-107.239
-15.9002
125.136
328.803
363.761
145.819
-41.8811
-99.4074
-78.1655
-56.6743
-83.2707
-100.321
-69.0512
-15.0649
35.3965
51.6219
94.3338
120.284
111.263
2.70924
-51.0614
-27.8752
-16.763
-56.7168
-92.5805
-45.948
10.6633
-1.47449
0.252593
51.1777
97.8264
85.6814
28.743
56.2811
74.9245
2.48939
-45.3749
-63.0174
-67.1932
-27.4155
-9.70838
-108.15
-167.44
-94.2789
3.76292
-0.30208
28.4847
109.095
92.6938
56.9795
62.4923
63.6012
48.1108
-27.6661
-26.8153
49.6276
143.304
211.805
169.074
159.309
60.1416
-139.826
-254.1
-348.971
-344.013
-172.291
-45.0533
-17.8289
-26.76
-48.9663
-113.842
-101.387
-40.2816
45.2154
84.5029
84.583
73.7881
101.093
140.106
64.4314
15.6361
103.755
108.629
97.7672
103.261
87.388
113.76
88.7503
119.06
179.666
112.671
-34.8726
-122.554
-183.989
-217.351
-246.486
-264.313
-251.845
-184.436
-100.983
1.21179
49.3454
87.7536
134.801
177.241
89.4394
-71.9418
-26.5731
-59.066
-132.511
-73.017
59.8473
227.21
242.895
127.795
90.1743
49.3874
49.3241
6.42218
-16.0345
-5.60174
-25.529
-75.8424
-183.558
-182.55
-37.5877
93.1617
75.6762
24.4558
33.7549
108.514
27.7208
-105.353
-113.092
-69.5049
-31.5055
25.9233
15.7454
20.6546
30.2302
-13.44
-66.0209
-86.3694
-75.8574
-83.8984
-84.9674
-52.6554
3.80427
57.5268
64.234
69.16
111.428
94.3702
83.9559
130.231
155.568
40.7899
-81.3008
-93.093
-61.0618
18.9345
103.527
102.441
11.5664
-22.6372
14.0312
79.6982
89.4019
-10.8084
-107.098
-154.946
-154.259
-100.638
-37.3079
-12.0864
-57.8272
-73.9932
-62.2691
-60.6825
-57.9686
-40.1493
-16.1202
17.4242
110.767
138.571
71.0511
-55.2907
-115.101
-35.156
20.6322
12.7811
55.376
87.7919
54.5139
-15.8057
-43.2419
-27.6619
-15.8767
66.3655
154.804
113.281
8.99948
-68.5191
-71.3456
-1.63964
255.557
335.928
65.2981
-51.4326
-28.082
-69.7896
-75.2637
-32.3412
39.1859
25.816
-43.7974
-117.878
-41.9114
54.9005
14.2544
-132.889
-131.902
-87.8173
-155.989
-239.496
-333.216
-308.113
-116.847
3.92109
78.901
203.538
235.594
187.887
97.9631
30.0567
52.9719
100.451
87.2317
38.7992
22.8573
88.2255
107.449
98.7546
56.4747
50.2447
5.82723
0.587716
44.3973
35.886
37.4027
-29.3549
-78.6405
-99.752
-136.909
-99.0311
-35.7592
7.1632
13.2935
-29.2909
-49.1937
-18.096
-4.664
-28.2898
70.3866
81.2464
14.2897
-23.7121
-57.0441
-45.5764
-70.7593
-39.8205
-27.784
-41.8491
-15.6533
35.111
63.7494
76.2258
24.3637
-64.7495
-109.59
-21.5724
29.6644
20.4233
-30.9647
-21.8843
32.9264
78.6867
110.105
132.416
129.026
100.256
34.2234
-56.1718
-67.857
-60.3062
-98.8372
-120.015
-80.0294
-11.8049
24.5178
6.14064
23.5
98.47
109.932
95.3686
60.2245
-9.09914
-19.3962
-120.347
-172.42
-140.812
-126.963
-83.0652
-22.7348
-4.6711
27.6262
66.54
71.1557
59.5897
118.419
86.4938
2.85315
0.233935
80.263
106.719
-9.57535
-53.6252
-44.8262
-1.94799
-28.1099
-119.616
-61.8164
35.1157
49.6922
22.8157
33.5031
39.659
18.3706
-15.9723
-50.2342
-59.8749
-12.0648
-2.38597
-21.9422
14.7277
39.067
-29.8886
-86.1427
-53.7369
-0.565897
63.1534
93.5112
48.4213
-28.0989
-33.1457
1.01339
47.6848
48.743
12.4191
-10.7249
-23.5833
-27.8076
-46.2099
-71.6851
-84.1193
-21.0315
60.8695
90.9541
90.4861
71.4332
25.0989
-42.4315
-45.2456
-24.0549
7.04446
-34.8249
-64.3952
-28.6802
41.9798
57.6792
-2.18767
-45.6975
-38.4395
31.8839
74.2268
79.9705
54.5866
-10.0079
-47.6511
-9.98452
33.0021
69.1012
57.658
34.2461
5.51393
-10.5049
8.9315
-41.7654
-97.4542
-115.592
-102.672
-82.1668
-57.2348
-156.061
-152.515
-73.8447
-59.3889
78.7145
212.57
185.973
106.784
39.2904
31.7566
42.3652
17.5368
35.0055
-1.56716
-32.6464
-35.8229
-47.679
-21.7246
27.1468
37.391
31.5881
-29.6646
-64.1305
-43.7553
-58.7375
-109.596
-113.959
-65.5342
63.1008
227.75
353.656
310.718
98.2834
-43.2437
-53.5023
-69.4614
-46.3392
20.9912
-9.39074
26.6097
52.5574
-61.1763
-103.054
-58.8398
-50.505
-48.4834
-87.3461
-148.797
-174.582
-196.414
-210.871
-87.7923
61.3389
45.2359
14.0003
44.2881
41.8079
23.3969
38.9509
33.7173
47.6657
70.1516
74.567
94.0448
93.176
93.6942
80.5423
96.0185
68.3623
-28.5136
-103.99
-100.904
-48.1761
21.6007
54.0788
60.039
62.9442
67.1172
76.0888
30.5853
-29.9886
-15.1343
-19.6538
-37.6612
-13.637
-36.6871
-21.7816
4.38102
-12.8015
-42.3216
-88.6065
-95.1905
-51.3806
-35.9842
-33.6597
-24.3812
-16.528
-16.4495
-13.1768
-1.2555
-1.35412
-2.7974
-7.34966
6.90341
0.20818
15.2129
58.4047
65.0313
35.0227
12.4914
13.4412
7.03562
-30.8162
0.393881
20.1463
22.7262
45.3668
66.4934
61.0241
14.7738
-14.2976
-27.6321
-19.7308
-40.5557
-78.9213
-72.8818
-26.4575
42.5174
69.5824
41.1658
2.54909
-15.9915
-23.9823
-55.2834
-42.5526
-27.8757
-28.0645
-31.3119
-21.3558
15.8067
54.0139
81.9803
74.6259
-1.24842
-63.2426
-68.2855
-14.9106
-9.88795
-50.2585
-49.2196
-25.8456
-22.1582
8.54531
57.0447
83.8373
124.941
145.09
156.159
129.722
28.9681
-1.93531
-49.1005
-66.437
67.1978
191.643
114.905
-21.2994
-112.071
-194.14
-228.115
-214.094
-164.967
-87.7492
-72.6668
-92.6641
-89.7398
-61.7811
-25.4601
24.4722
26.6116
63.86
103.994
76.8725
47.9615
11.3888
1.55202
-23.0939
-17.247
-0.858328
45.4506
194.294
247.947
185.526
139.591
80.103
-22.2692
-56.2375
-88.8572
-97.6465
-38.033
-41.8057
-75.932
-74.5683
-65.4623
-31.7104
5.93623
29.8531
57.5311
112.356
82.0137
-64.3054
-145.987
-167.757
-94.6875
109.498
189.681
85.9898
10.0946
-18.2241
-26.1308
-97.3874
-104.417
-76.4117
-70.2862
-77.6589
-55.2627
6.54017
31.2164
37.6982
74.7615
87.7412
86.5021
71.13
27.1556
-99.4082
-174.187
-137.254
-38.4372
8.53179
19.8146
61.382
87.5608
118.441
118.645
71.395
55.3536
71.2132
31.5598
-34.7531
-36.1177
1.11557
-8.622
-3.36594
4.09889
-27.5802
-38.3229
-20.3688
-25.9917
-67.2152
-45.7925
22.0356
31.3917
8.28899
-1.60544
2.78761
-5.6851
-16.4695
-19.035
-23.181
-33.6503
-21.2734
19.5907
34.2539
6.6111
-20.5647
-2.28619
32.0599
35.4901
52.0784
45.7049
-7.00828
-35.8508
-41.0493
-61.7261
-69.7033
-36.3182
-26.9513
-4.50634
58.7861
52.6312
2.69354
-50.3645
-42.1111
18.2649
27.0169
-4.20093
-10.1701
-27.3544
-31.835
-17.415
8.93786
46.5118
61.9772
37.6614
38.7481
34.3627
13.2883
7.62414
19.0279
22.9358
11.5848
-10.9823
-25.6769
-30.7711
2.88742
34.8552
23.3571
5.43397
0.574911
15.2442
-16.1614
-16.6354
-12.7537
-14.3505
-10.47
-12.9593
-24.3773
-13.935
-5.84569
18.9452
36.767
-6.20418
-77.9441
-97.578
-38.8486
45.8414
20.5424
-25.8952
3.30206
-14.4364
16.2237
23.2377
0.881799
4.50569
21.948
43.2676
10.8214
-9.73399
-28.3154
-32.7196
-21.3806
39.9339
62.6255
26.6751
-11.9713
-58.8316
-45.6677
1.32849
-2.25603
27.7102
60.8049
76.2798
71.065
56.6662
18.5553
-24.221
-24.0736
-26.2946
-25.7695
-20.8917
-19.872
-31.1914
-21.2561
-5.83833
-22.8289
-34.0466
-16.7811
-1.09562
10.1106
1.22958
-23.7244
-19.233
-6.66212
-25.318
-18.4383
-11.0957
8.49866
1.56649
10.9435
-6.13853
-24.921
-12.3302
45.8523
103.487
118.771
50.8773
7.33648
-32.0538
-61.0979
-44.2464
-26.1357
-27.71
-18.3851
-9.56096
-0.697404
21.5486
31.5678
27.6794
32.5078
37.6535
57.0196
63.6802
29.8173
-13.7579
-71.6793
-63.2175
-62.0909
-40.1816
-16.143
-19.8394
-38.3373
-32.5414
16.2907
43.2566
42.2071
31.2131
30.3464
-26.0146
-66.5976
-62.5521
-44.0118
-9.2293
22.8948
11.1291
-16.0554
10.4558
17.1817
12.7045
21.4298
22.7836
30.4409
37.5225
36.1429
24.8427
-5.62043
-15.8792
-9.48204
22.3404
37.8506
11.7881
-15.1544
-18.0624
-11.2221
-8.07655
-20.6234
-24.7356
9.84298
17.2891
-7.84045
-4.88512
23.1139
-1.12823
-29.2648
-18.0201
4.97847
5.72145
-1.12312
6.16839
0.300175
-36.0135
-56.551
-50.9322
-73.4821
-47.3803
28.7346
53.2501
54.6022
80.0772
70.4341
35.0122
5.58573
7.22886
-11.4529
-31.8232
-47.7173
-26.6063
12.3101
38.4859
48.4864
66.2371
48.2424
9.54322
-0.70565
-53.505
-104.03
-69.0945
-9.95992
-11.0151
-16.0713
-5.36912
-16.6071
-13.8216
-20.4826
-29.5137
-10.6685
5.32101
2.9497
-6.51597
-1.9878
45.1515
36.6175
-4.56866
-6.82575
17.9276
40.2516
60.0855
53.6927
20.0126
-0.510442
11.8399
20.665
5.95452
9.0281
-4.96686
10.5004
10.1494
-35.9769
-34.3777
-4.9879
-21.8213
-32.3351
-25.5153
-26.9914
-9.20938
28.4944
-5.58451
-15.8913
5.09368
31.6588
-1.21667
-34.8627
-42.1272
-39.1673
20.5419
38.2284
6.95514
7.05382
10.8545
7.82535
22.4134
20.6877
6.39361
-6.46135
-21.5942
-5.30337
9.68593
4.81188
-5.68877
-37.1871
-32.2196
-6.27629
-3.02258
8.64206
13.7054
2.54787
-8.9006
-5.02536
8.87946
10.5877
-13.1218
-6.41201
-7.52906
-20.2051
29.8027
75.7351
38.7367
-33.4921
-57.4139
-39.0172
15.7126
54.3482
39.4149
29.4278
7.6016
-1.23496
-0.894813
-19.7969
-22.441
-31.0711
-15.9684
-11.187
43.6357
56.9403
10.2607
-5.79371
-5.34482
-48.6147
-37.0997
-13.2199
-2.91615
-6.35207
12.3531
35.5404
8.5391
10.9521
65.3111
60.4523
14.2627
-71.4216
-123.612
-87.2113
-38.2953
21.9244
22.9029
-16.5569
-10.8732
14.0551
6.92531
19.7196
28.5487
30.7312
28.1339
-20.119
-0.0520536
33.2323
27.2439
29.5293
2.63931
-2.04285
25.4633
35.6677
-15.6144
-19.6637
-44.9613
-84.9278
-49.0298
-2.83606
21.2297
17.4789
-18.5308
-31.1091
-31.8782
-17.0597
19.6617
25.3163
-6.50975
18.0167
32.7347
77.3134
74.6881
27.1233
-1.91299
-32.3174
3.78165
41.7896
-8.2467
-32.9452
-17.7934
-15.339
-7.5468
6.58387
21.4872
25.9334
-9.78501
-55.2785
-72.1703
-65.1141
-25.6918
0.394583
-22.3411
8.98412
72.6786
44.8163
16.1844
-16.9737
-24.7794
24.989
61.5905
31.9199
-9.2713
-14.6851
-37.4695
-31.7381
-1.42287
-0.713226
0.6551
-0.0696167
7.6586
3.33192
23.0519
-15.2844
-38.306
-24.8667
-23.6769
7.05591
40.8086
3.14798
-21.7194
15.9435
41.339
9.31283
-2.67141
-8.68512
0.342623
28.6045
30.9199
5.75233
15.2132
29.0059
20.0306
8.46819
-23.0041
-32.9894
-40.0767
-32.2687
-29.4934
-0.641295
7.02244
-35.0472
-60.7409
-31.7484
23.1585
50.9142
12.7811
-32.5794
-11.8281
20.7672
17.4546
1.784
4.21253
16.9168
28.2137
26.2304
41.4389
32.5057
2.87456
7.78557
-25.9328
-19.4176
-1.10156
-12.8362
-19.2757
-1.2467
21.3099
16.6906
-3.44905
-10.6215
-12.736
-33.3052
-35.2217
-11.2527
0.792811
11.4955
15.6551
20.7914
35.0577
19.1073
-19.3947
-1.7979
-0.210188
5.27801
-2.56384
-22.0555
-34.0362
-35.0885
-8.91647
1.99377
-6.09163
0.703886
-18.8923
-22.7862
-5.93918
21.3174
34.0841
39.4342
18.0058
10.1744
31.3986
9.97384
-8.38982
9.13605
19.1499
-15.0113
-21.6515
2.02424
23.1214
15.6466
-26.0449
-18.3363
16.9902
9.53829
-49.6926
-44.5957
-24.3752
-27.7849
-12.168
-4.30239
20.0341
32.4723
33.5347
29.9762
6.19955
0.614507
6.66945
0.444173
-29.8899
-22.6951
0.250122
33.0562
47.2349
27.3149
24.8667
6.20479
-4.23172
-14.277
-18.4789
-46.1726
-37.6343
-18.2828
-4.23558
-14.1492
-18.8499
-6.54277
4.15705
-16.2578
-26.5305
11.6778
42.9855
38.854
30.6896
37.2523
42.2755
-12.3597
-24.8525
-3.43995
17.143
-1.84808
-56.6097
-48.8552
-22.4198
-9.49731
19.0178
26.6075
13.0655
31.0996
16.5322
-4.27444
12.899
-7.06116
-14.5392
-35.979
-45.4765
-25.6289
5.40066
14.9828
-27.1096
-28.0274
8.61717
43.4685
53.4076
53.0766
39.791
46.1177
35.2925
8.47136
6.80629
-17.3368
-35.2937
-51.8783
-53.9039
-17.9694
34.5453
30.8051
-47.9723
-69.3447
-37.5261
14.9569
19.0267
-2.17069
-11.0517
-20.835
-23.8523
-12.941
-0.612947
-4.35473
19.1006
32.1734
41.3924
55.331
27.0347
15.4424
10.6662
-1.62372
-2.65151
3.86994
3.51043
-12.0825
-13.9186
8.28632
19.6872
-10.4853
-4.3642
-4.67042
-12.5039
6.21786
-1.90701
-20.067
-19.1441
-25.0241
-3.85809
-14.957
-35.2733
-4.63703
18.8801
12.3821
20.5123
22.2111
5.4744
-23.3316
-28.7708
-22.133
-3.5801
-12.4674
-16.868
10.759
17.1349
14.5943
10.2964
8.33191
8.02274
39.8138
66.9868
64.3209
-5.12241
-10.1937
-1.45423
0.358751
9.60491
-25.9035
-51.2784
-32.8461
-39.2221
-32.0216
8.51085
16.3864
12.5107
-2.29853
-20.9707
-0.861926
38.9133
42.4313
-11.4093
-24.0585
-31.1472
-69.7256
-65.827
-1.46277
63.2698
62.5046
25.0716
33.1521
16.9002
0.83876
-6.75437
-6.55658
2.11845
18.3013
12.9884
9.06891
-9.28952
-31.1602
-36.6171
-41.1158
11.1429
55.3634
54.2542
-9.25146
-57.184
-31.6947
9.48749
8.65648
8.40195
28.8751
26.5096
5.58018
-3.61723
-8.5142
0.396795
-4.14194
-32.0377
-60.4182
-18.2857
2.18911
-3.64891
-20.8548
-25.5515
17.8107
45.4485
36.0582
24.3749
-11.1307
4.31325
9.41316
-3.38371
-21.5445
-20.7268
-2.24601
2.38204
-21.2646
-11.4346
30.7981
38.6648
16.329
9.44531
21.3587
28.5136
-4.1237
-73.4207
-57.6949
-8.72795
41.4108
32.5334
10.788
-5.9928
4.48692
32.4014
2.95625
-16.3461
13.2314
10.5016
-18.5795
-46.1001
-28.8585
3.45447
17.6209
23.5661
-3.46014
-5.0049
8.09637
-4.22974
2.41057
23.6708
30.2509
22.2755
-25.3067
-41.4079
-2.59064
16.4604
4.65956
-30.264
-23.4715
-9.55924
-20.2719
0.80297
-2.35196
-24.66
-1.76972
13.0878
2.00075
-9.315
-28.1067
-25.1035
-23.8241
-16.1452
33.0738
26.6871
27.621
32.4003
26.1719
47.1038
41.1692
32.8787
22.4226
-9.4507
-36.4074
-14.8908
24.5472
29.0966
-8.12253
-21.0157
-15.1612
-4.48004
-26.3691
-30.8463
2.06559
-4.27696
-9.40855
-9.2688
-45.5432
-40.5444
-3.12787
16.8464
23.8489
-5.31083
-21.5248
-22.1574
-11.3204
28.6555
82.0531
102.817
65.4019
-5.70936
-40.1138
-31.3394
-32.5443
-27.8649
-48.7465
-53.922
4.36655
21.2343
-11.8984
-9.98871
20.958
65.8643
70.984
52.757
9.85103
-69.7745
-94.8534
-92.7034
-75.8565
-19.405
24.1945
35.1753
29.2764
18.0813
26.8506
33.513
23.4383
23.1021
7.88558
-2.45364
12.3508
23.2685
-11.7231
-6.43119
14.7742
22.2414
7.64021
3.65375
7.72817
3.74081
9.23961
-7.99206
-13.1493
-9.07882
-12.1616
-3.444
10.9213
1.06523
5.83492
3.60922
-21.1769
-37.2622
-49.5347
-49.1246
-41.5127
-8.80838
0.306916
11.9737
9.8826
4.46376
8.62563
20.5241
15.4898
23.0846
36.0008
34.2248
20.8641
-5.2636
-30.87
-19.1831
-19.1623
-34.9027
13.6088
29.9243
2.33162
1.92411
-17.0825
-11.206
18.3185
26.4931
17.2788
30.3796
35.2
15.1024
-8.25108
-33.1012
-35.1226
-6.88313
2.20166
-13.5071
-29.9437
-34.9732
-2.41685
-4.79544
-9.80974
-13.6937
-10.7077
16.3864
24.274
7.29887
-14.5613
-13.6445
8.24948
38.6199
47.9459
57.7917
35.042
-0.953613
-8.45029
-58.5037
-45.9664
-6.88886
12.3409
4.79409
1.88748
17.7323
28.5715
4.11929
-23.5788
-29.4898
-11.3277
-23.0881
-44.8518
-38.045
-8.2095
16.427
50.6552
78.9333
110.603
81.1799
28.4988
-1.61777
-50.039
-53.4657
-54.16
-67.3373
-63.8391
-64.4672
-45.2273
-20.9046
6.32016
28.885
17.3848
-2.25994
-4.77411
-15.1925
-36.527
-34.809
-17.4381
23.413
32.3844
20.2592
39.7035
34.6577
32.2083
39.6144
47.127
56.3192
44.3607
48.049
36.1541
16.6855
9.46369
-1.60908
-32.6324
-23.4438
2.18918
-28.2902
-63.078
-53.2359
-35.9789
-26.0589
-18.2043
5.8618
18.7336
16.6386
-23.1879
-43.8178
-31.2332
-14.195
-0.0162458
-1.65073
11.6489
10.3361
-0.659804
-14.088
-24.0344
-5.47492
-4.89851
-4.78247
7.3879
21.9445
55.8343
50.2726
30.6614
48.3899
21.7082
-19.1901
-31.7562
-27.7013
27.3464
20.3942
-24.3244
-11.2141
2.09121
-13.9177
-4.26921
5.54553
-2.34969
-27.2407
-15.1403
14.4143
-3.51981
-15.9932
1.39457
18.7887
49.6182
51.107
16.1852
-5.05574
-46.062
-56.5071
-16.9585
-2.81784
-10.5508
-6.15586
1.19431
-23.4079
-12.8391
14.8926
11.3977
11.7462
12.9206
-10.002
-22.1207
-45.6546
-43.8663
-10.2153
7.59866
34.1713
37.7683
17.444
40.3294
33.114
16.6695
25.9918
7.58273
-2.09857
-2.92381
20.9523
29.3474
-22.352
-51.0849
-26.428
-8.40193
-4.03899
7.29431
11.8706
40.9164
18.7613
-17.5073
-4.47791
-1.90363
-14.6471
-13.8579
-4.85247
-3.18423
-4.88081
-4.62016
-40.5936
-25.4625
-1.53676
-2.62155
-16.1637
-18.2093
-6.56996
9.4634
2.89954
-8.46997
4.73451
16.3421
26.0673
22.3262
21.9421
3.25402
-6.05188
-22.3336
-16.7308
21.198
47.0795
26.1993
-12.472
-18.0183
16.1049
4.9642
-24.2378
-22.627
-11.0317
-17.9066
-3.02256
20.5522
5.02101
-31.5008
2.19913
48.6904
34.2659
28.8726
26.3021
-2.23307
-7.11582
-19.6072
-6.89065
-11.6478
-28.498
-26.0155
-36.7328
-33.2192
-6.28585
47.6697
41.5714
-8.53009
-33.2679
-6.63265
-10.2458
-24.679
-3.54423
53.0528
58.2692
41.528
-2.19045
-36.6349
-24.1025
5.21101
4.60991
2.84525
16.6932
18.6754
-21.0104
-50.6892
-37.1515
-16.6062
6.64487
-6.51867
14.1176
32.1972
-11.5627
-34.0295
-7.13069
28.1743
58.4765
38.179
-9.94337
-22.8848
-26.9168
-11.4905
15.1925
-20.1656
-28.308
-0.424165
10.5421
15.2077
45.4718
24.3969
-8.51185
18.9329
38.9336
7.46642
-14.7709
-39.9969
-35.9541
-3.44147
8.43627
-7.31582
18.3316
21.597
-17.378
-18.2419
-0.0839357
-3.89
-20.4284
-27.0979
-15.1236
9.45806
0.0176252
-36.3425
-15.3603
14.8943
2.00629
-14.2667
-1.39386
-0.0504547
26.2366
33.8491
18.5223
10.8077
2.05519
0.510744
11.2159
21.153
5.2961
4.22993
-8.18368
-3.6456
-8.48985
6.8998
21.6602
-1.03153
-17.0368
-12.7664
-8.23199
1.14697
47.4077
61.0163
12.3051
-17.8583
-12.4784
6.4528
3.69634
-33.0161
-62.8751
-33.5864
-15.4859
4.74649
15.2833
-3.4611
-26.6098
-20.8053
-0.801383
15.9942
21.3207
21.778
-17.1097
-39.5908
-47.7421
-31.5239
-4.67548
17.0646
12.7604
8.5103
7.84434
35.7314
34.12
20.903
8.82179
3.11126
25.6584
40.9013
35.2764
1.1044
-32.0072
-10.6878
12.1072
3.29262
9.82622
-9.0533
-30.5708
-20.4456
-5.26284
6.63235
17.9547
-9.53162
-13.7336
-4.52955
-14.7113
-29.7
-28.7413
-13.71
3.35082
17.4241
45.6371
37.8642
16.9163
12.84
-31.2932
-31.342
7.17093
-3.78296
-14.3123
-13.9862
2.63789
11.0885
-11.8192
-15.694
11.4389
54.9582
27.833
-37.5068
-39.8099
-5.39698
-0.0835029
-20.9939
-43.1517
-36.5942
2.08277
24.6594
36.5876
37.9803
14.8641
13.5197
14.4165
1.94689
-4.77475
-11.2848
-26.9351
-32.7515
3.73423
48.9352
65.6829
55.3503
10.0141
-17.5431
4.45866
31.8307
-21.7179
-58.7345
-56.686
-53.6274
-2.33084
42.7629
31.5589
20.8485
50.1054
23.6771
-26.992
-50.4574
-69.4727
-50.3211
-3.29538
-6.73856
-31.227
-20.5363
-23.5846
-36.118
12.3276
62.403
51.2236
33.0847
5.53218
-15.9358
2.4501
0.528448
-19.6439
5.82839
52.7283
53.4003
34.2479
10.9737
-5.53354
-14.8524
-6.47319
7.45928
6.1527
6.92921
6.48814
-7.08352
22.0523
-15.4967
-39.5068
-38.0213
-18.5636
-7.00913
0.231928
15.5575
18.0192
29.5435
5.29486
-33.9698
-32.3535
-9.90876
15.256
-19.0627
-34.344
-38.949
-7.24143
5.12249
-41.0343
6.92805
28.8488
31.0646
50.8332
45.564
27.6763
-15.6657
-16.7897
12.8319
33.9901
26.646
-26.3957
-42.6755
-31.4983
-15.561
8.37442
21.3639
29.3278
9.52158
-20.2737
-24.4944
-11.236
-40.9454
-47.2452
-28.1547
-7.76284
22.1365
34.3345
3.57298
25.3448
76.4631
20.0549
-20.4765
-4.46147
18.8326
7.79204
7.96573
17.948
8.34669
-17.8745
-44.4142
-17.7394
6.8965
-0.828048
3.03269
14.3255
24.8185
30.6154
-0.016787
-21.187
-32.1437
-1.11289
-1.24125
-19.6742
-7.36951
-0.634629
-13.5449
-13.3139
-19.741
-16.1461
-16.5571
-24.3302
11.0649
36.1952
26.5342
32.4866
18.825
9.13394
-10.4421
-41.8091
-46.0491
-4.63165
12.4079
5.55212
-7.80191
3.21693
6.11793
23.8227
52.5431
33.3169
21.4572
26.4683
9.48612
-23.6462
-34.2858
-48.6238
-33.947
-21.8225
-2.9935
21.6026
18.9488
28.3715
11.5485
-11.1758
-7.74824
-9.92138
4.79015
-13.4792
-17.3448
16.5162
28.3358
-1.61267
-1.97549
5.96118
26.1978
22.9064
-34.412
-72.3989
-3.9477
-1.94171
-32.8318
-21.3403
17.8604
42.7329
35.7768
11.8792
14.8447
10.8963
9.01748
24.0389
23.0111
23.3611
21.8955
-2.98272
-23.9857
-56.4697
-44.3656
-9.55475
-24.6129
-24.3955
-21.161
-29.7991
-10.4231
15.9005
23.8851
12.4766
-16.076
-23.0481
-5.99441
-9.00304
-16.0538
7.50369
19.7752
8.17211
11.6132
49.303
47.4815
24.8213
-5.57441
-7.32485
33.8208
36.9704
21.6293
22.4604
-12.7622
-21.5824
-25.2188
-21.766
-21.0292
-9.77487
12.7096
-9.48244
-24.8727
-15.8089
-27.6395
-18.1274
1.89048
2.3449
9.33591
21.8114
36.9785
50.216
-10.1003
-59.2051
-36.0695
0.527813
4.6042
-9.16976
-9.37936
18.3201
17.0162
-19.1397
-3.40883
27.1426
36.849
17.0675
23.6262
1.37883
-37.8704
-20.3948
-15.0796
-31.1378
-1.39647
8.01232
16.2911
2.76791
17.9989
12.086
-28.8509
-37.2348
-11.6758
6.41822
-13.4492
-13.1169
-1.65389
-3.84273
-10.8123
-14.6572
32.9692
55.3282
24.7669
19.4841
27.1291
14.1022
10.0309
-8.33528
-9.72555
13.3715
13.6195
-5.59734
-7.18266
-3.44985
-20.9125
-50.4278
-23.6874
-9.14392
-1.10977
31.478
-3.50312
-56.7282
-23.5806
-4.97528
15.9181
53.2478
66.1057
71.1019
35.6501
2.07956
1.96985
-13.5118
-48.8413
-61.3697
-32.1832
0.304422
-20.1307
-18.0413
-6.65136
-5.23096
7.47223
4.80461
1.02563
-17.9323
0.0702132
-12.2917
-32.5219
-20.4862
-32.3751
-23.9943
14.7871
46.0402
57.7791
39.0626
20.5696
42.4214
10.2529
-16.7613
-16.4709
5.37121
10.7516
8.00041
-1.69927
59.6515
35.7706
-7.78861
-24.1604
-22.0853
-2.85055
-3.64037
-38.1339
-45.2776
-32.5935
-15.4052
-28.8003
-31.2388
9.9853
33.5773
34.7372
19.012
25.5489
47.1013
24.6565
-29.9685
-40.3242
-9.63588
8.14664
9.60748
-1.61006
-1.78732
0.50249
-2.2551
-23.6924
-6.2399
-11.2761
-34.9364
-26.7471
8.91655
38.552
43.2494
38.8698
34.9272
42.6292
34.3372
13.9255
-33.8725
-71.3911
-54.2934
-25.1807
-21.5476
-10.4481
2.56912
9.50633
-11.7659
1.05585
0.688736
25.8522
29.4986
-41.2104
-52.9513
-25.0382
-0.79461
8.12051
-9.22898
-35.4597
0.541072
68.4362
45.072
20.88
14.6775
45.2264
58.7664
11.4747
-1.64803
25.0808
8.63999
-20.1437
-7.09325
16.6338
-0.771069
-54.3254
-74.3178
-46.4668
-22.4302
9.16385
17.6205
-7.12054
-22.1199
-17.2311
26.0612
22.6378
-20.7964
6.74322
29.1666
15.5369
8.84613
0.602474
2.4501
2.71559
-10.3542
-5.27772
2.62545
-4.429
-18.5028
16.8427
45.9926
50.0114
26.8054
4.61782
-29.4662
-35.6805
-34.9493
3.24502
31.2568
-18.9369
-46.0806
-13.3708
-26.8315
-15.2737
1.74621
32.7574
22.7234
-19.8856
-3.788
12.8757
-25.0879
-47.8226
-18.5618
2.05207
5.04567
-9.5605
-7.05674
7.63536
-7.18457
-11.1842
48.7602
59.8423
46.2348
27.3103
-30.071
-4.71824
49.6635
72.9862
60.4492
3.03835
-18.7234
-21.0463
-13.4842
-8.79272
-25.1052
-44.4574
-33.3066
-41.5017
-31.5522
20.2836
-1.3718
-13.4497
-24.7994
-17.5912
38.3979
26.7268
-0.899081
-10.459
-38.3028
-16.6551
8.98899
-10.0642
-25.7139
-18.2547
5.96458
35.7473
60.5835
64.5848
59.6422
29.7634
-34.711
-58.3403
-31.634
-3.88849
4.85331
1.96935
-28.8962
-28.053
-22.2305
-8.35597
10.1055
41.8272
47.4053
-0.246021
-28.0918
0.03651
-11.4272
-23.124
-28.3133
-13.0723
10.0587
15.725
14.2169
28.3468
39.5396
2.86959
5.9894
14.9348
-0.697723
0.916227
-16.3186
-3.28644
3.77527
16.149
19.6847
-9.20125
-29.2468
-27.2437
-21.0957
-23.0195
0.191062
28.8788
38.7595
-12.1599
-40.6715
-22.7521
5.55295
-16.5355
-18.3839
-4.00452
31.7636
22.1595
17.8902
48.3126
51.3471
8.56942
-22.9512
-54.6358
-40.7615
3.69547
2.82774
-4.51728
10.4406
38.3899
18.212
-8.42468
-38.4504
-34.2631
-8.10607
-7.25895
-18.341
-16.8991
-28.2468
-25.068
18.8633
51.1516
55.3262
47.4391
21.0262
-13.7882
-10.2858
-23.8672
-37.9839
-30.8446
3.32335
20.6819
3.5785
2.96593
31.3172
14.8909
-6.75999
11.1493
25.5957
10.4778
-19.3971
-45.6433
-16.8564
36.2688
52.1461
49.1054
39.7276
-7.1419
-36.8704
-53.9072
-63.4881
-49.0616
-20.8021
13.4287
12.6581
15.4799
18.7687
-19.6009
-28.4275
-7.79812
-13.6507
-24.3657
-16.981
-14.1239
-0.390614
1.04009
4.88606
28.1033
31.5942
43.5767
55.2484
48.4045
20.2871
8.15215
29.3417
13.1323
-1.83599
24.8797
16.9619
-42.3181
-64.8765
-55.3944
-45.1777
-34.7669
-56.4124
-25.7147
32.4419
53.5793
73.6295
49.4739
14.9431
11.4274
35.1486
4.9523
-50.3761
-59.0255
-43.7817
-42.6398
-26.1257
5.52363
5.24682
6.57433
-3.37186
-0.544505
7.38512
-17.7149
-29.5628
-19.2934
-8.58826
1.07119
-1.91422
4.124
10.9593
35.0362
42.7518
37.9868
38.0031
36.8287
51.7616
47.4481
3.21272
-17.577
-34.4381
-27.8262
-0.133823
20.191
21.8485
-8.86663
-54.2946
-39.3463
3.6969
3.07839
-12.7545
-9.89448
19.9673
20.0181
-17.1188
-49.6254
-62.7271
-46.0494
-2.84177
33.3356
28.8658
-0.121567
-43.5455
-34.661
-0.133813
12.6443
12.5692
37.3805
41.864
36.3191
37.2365
34.7531
11.9099
7.83809
35.1761
27.4825
-17.2205
-24.1038
-16.6812
-21.3572
-9.20009
-2.90923
-15.6383
-42.5846
-50.0351
-9.35691
2.12052
-26.9612
-5.87362
12.2773
18.288
-9.56937
-20.551
-13.6719
-31.0669
-27.2801
23.3246
62.6229
77.5897
45.437
32.5455
20.7629
24.9364
35.9316
4.69495
-51.9923
-47.4338
-10.233
-1.77565
-12.2066
-23.0676
-17.8655
-34.8119
-26.7942
6.54132
29.285
5.77345
-7.09606
-30.7643
-56.5799
-30.2693
-29.3538
10.4201
28.6789
9.29195
15.051
34.6996
47.4472
61.7933
50.5066
18.361
18.239
3.33216
-20.5651
-24.3487
-7.8331
12.999
-18.6298
-29.2169
-17.5801
5.77989
35.3857
35.1175
16.2636
1.52733
-14.5258
-13.2681
-36.4385
-79.8734
-64.0573
-12.5302
4.96763
3.60201
19.157
39.975
6.37285
-48.3001
-31.5061
2.73076
32.5712
30.4504
15.1374
-6.44886
-18.5218
-15.9665
5.31329
9.96761
11.3819
3.15383
2.09662
-1.44371
-5.54667
20.5103
21.6103
18.9278
25.9914
23.3732
6.92054
20.5631
12.3627
13.6466
18.5338
3.2454
-23.8025
-65.0084
-77.462
-15.5193
7.28691
9.07145
-9.02558
-21.9852
-3.5731
19.1082
25.1088
12.0898
4.27718
14.2607
3.51011
-15.5052
10.258
-0.36071
-29.6356
-47.196
-60.3266
-7.92869
29.4192
19.9414
42.6229
67.0157
71.6924
54.1682
37.9641
28.9613
-16.6579
-78.8589
-70.1004
-32.1153
-4.61532
-14.3968
-21.3563
-25.8339
-38.7681
-38.2178
-5.51879
22.1328
39.651
-8.08118
-51.2284
-39.1424
2.82586
17.2236
36.7924
20.0009
-4.51063
22.1746
24.8315
25.0473
16.1172
7.2754
43.0738
29.2652
7.53104
18.5238
8.79426
10.238
17.2457
-17.582
1.1638
-12.6142
-38.9806
-34.2621
-23.6004
13.3507
20.4423
-37.8689
-53.3168
-24.1261
19.2724
56.1805
38.6412
1.95149
0.485009
1.2998
-12.7906
-24.4193
-34.3143
4.34969
-6.30288
-62.1071
-44.3431
42.0798
74.5923
-8.12832
-38.1983
2.48034
24.0377
15.0067
4.84783
5.16174
2.60097
10.5111
10.1157
18.8132
21.4165
-4.06908
-36.8419
-25.5963
-10.854
11.8991
-2.3497
-52.5363
-61.8046
-5.14758
40.5109
53.6559
39.0347
7.378
-19.7875
-24.9285
-28.7237
-11.523
13.8131
11.0757
37.1063
68.1222
0.388058
-65.9659
-31.9925
26.915
38.1053
38.5488
17.612
35.0005
27.5018
23.1953
-10.0001
-30.1446
-15.6891
-23.1343
-18.4584
19.3699
10.5481
-28.1106
-35.0567
-35.7185
8.08424
27.2055
-5.84466
-33.981
-62.5163
-58.7973
-17.8187
-26.2285
7.57058
28.1884
13.2873
3.40538
8.15231
11.7405
6.14948
12.7756
14.8376
34.8829
38.4593
16.6841
32.3221
60.1703
38.3573
22.0158
6.81287
5.40428
-37.4841
-44.6867
-25.7729
-40.3115
-41.6497
-43.5946
-64.2294
-53.0047
-28.1213
-18.2399
23.7259
72.0711
63.983
33.0672
34.3743
24.1396
15.6406
-12.5271
-27.4407
-24.213
1.69089
15.7414
-4.41164
11.0978
17.4445
9.78835
11.145
7.68569
0.323543
7.92024
-3.67753
-60.7846
-54.3338
-21.8529
-17.9608
-41.3122
-48.2695
-13.1877
27.478
52.0358
76.221
68.6848
40.7838
19.5164
48.6923
38.1418
-6.74887
-23.5582
-19.7017
-17.7713
-4.94987
15.8933
16.8677
-12.821
-15.3439
-24.0766
-41.1776
-24.15
6.49521
-18.6723
-62.9642
-57.9255
-32.1136
-23.9904
-31.9679
-16.3453
16.69
15.1399
-14.2359
-48.6021
-38.6826
-20.6306
11.8523
65.0466
82.6172
82.1795
113.275
126.598
104.144
20.8094
-58.0943
-84.6436
-51.2287
-1.71149
-0.15715
-11.9256
-13.828
-22.8549
-5.72133
16.3201
18.8336
20.2147
5.0143
-16.3002
-13.3516
6.40955
-64.3775
-76.2372
-52.4005
-23.8117
-19.7377
-7.52985
0.487681
11.0045
58.4158
87.798
79.7709
65.4385
45.5778
6.49585
-34.9232
-48.1825
-43.2001
-51.4149
-76.4997
-82.8639
-16.9005
-7.13444
-42.5972
-54.052
-28.6294
32.3697
89.4204
92.3032
82.7588
91.0187
55.1761
-22.1301
-60.0065
-56.5528
-46.5806
-34.9611
-29.1895
-29.828
-14.787
32.7961
69.4644
75.6295
84.9716
86.1273
78.5125
29.6657
-35.7952
-55.0212
-72.1618
-82.2955
-78.3842
-54.1719
-64.8706
-64.1084
-29.8682
4.43849
32.617
47.4329
39.068
53.9075
60.8252
48.4882
56.3335
19.4801
-9.12857
-23.9199
-30.095
-54.4445
-99.5488
-100.114
-36.6577
64.9739
96.191
72.9272
47.7429
13.4884
-35.3906
-47.406
-34.5666
-33.4523
-32.5692
-14.4456
-15.1853
-19.2549
-33.1879
7.96345
53.8514
81.6905
122.883
115.49
98.0511
44.7116
30.6784
-25.3178
-108.167
-132.775
-103.861
-54.2487
-17.2515
-3.09773
-35.1978
-80.2219
-69.8782
-5.5084
64.8144
64.8803
29.1696
8.47131
29.2697
24.7826
-12.7298
-40.3216
-20.8189
0.483745
38.0288
63.3632
29.5306
27.5932
51.6772
60.0921
78.1927
60.0355
-11.9477
-46.7346
-51.0787
-63.1728
-84.1549
-106.657
-62.6089
16.1416
37.8401
24.8076
-3.34936
-3.83518
19.8944
28.7152
34.9772
7.83012
-27.6839
-54.0656
-53.479
-14.9225
14.8168
10.6266
24.8831
19.352
26.1711
39.7689
15.0785
-16.5329
-19.6159
-18.8595
-34.2
-28.7864
-4.72583
13.994
29.5408
27.9184
10.69
-11.8218
-33.8556
-17.1446
-2.44188
2.72142
23.2708
39.5598
52.4991
61.9567
5.94386
-68.1619
-85.4366
-32.0722
24.4267
92.3148
103.971
73.2834
61.3383
27.696
-19.4898
-77.6317
-94.0406
-91.5974
-61.4047
-8.48121
-26.1408
-52.7267
-87.1767
-47.9962
38.2225
110.922
103.091
46.2318
-6.58928
-50.074
-42.5704
-42.8515
-50.3505
-20.8948
-1.07824
19.3403
52.6818
54.6312
68.6229
56.5623
11.9423
-5.14648
24.912
33.592
4.28816
-28.9838
-54.4736
-34.4354
-7.15599
-14.2951
-44.6119
-55.4291
-66.7795
-59.1942
-11.1469
32.4526
43.2665
36.2309
9.40699
4.5825
41.6825
91.0048
101.366
67.1367
-8.28645
-41.9168
-9.44497
-4.40216
-9.83258
-3.94637
-6.45807
-4.64285
-47.4317
-72.8114
-46.8933
-0.329472
13.7929
15.9318
44.9185
49.5736
34.84
15.1255
-23.9957
-47.3281
-42.8439
-36.1369
-10.1481
-10.4275
-24.8184
-13.1955
9.43409
19.1438
25.2192
24.2195
2.87574
-7.8358
-13.9916
-24.7641
-39.3362
-22.5136
-14.1753
-56.6975
-54.7392
-21.8899
45.2839
86.7705
72.8565
50.9964
15.895
23.8802
16.6135
-6.19086
12.7445
43.4588
58.4593
59.0533
25.7686
1.88956
-42.9333
-48.0535
-44.0982
-25.931
-12.3804
-39.4465
-58.1032
-57.2811
-69.9832
-45.372
16.0359
12.3426
9.61688
24.8715
34.7025
27.0438
15.4196
5.90505
-4.04471
5.199
23.376
31.508
28.1248
63.5738
86.1702
66.1718
23.3186
-11.1603
-23.2657
-35.1881
-33.8599
-65.2684
-84.2254
-51.4526
-31.6239
-21.4107
-21.3131
-41.6108
-22.3874
6.6878
28.2725
10.7188
12.2808
10.9416
27.3195
43.6788
29.2945
1.66676
-24.0478
-19.7145
8.61504
40.4704
35.6167
19.3932
16.0329
18.8325
27.7969
6.54667
-57.2587
-49.4687
-41.4691
-40.8502
-35.0389
-10.3069
14.169
46.6537
20.0577
7.09062
39.8802
42.788
3.21587
-15.6744
-14.6091
-16.5561
-12.9267
0.804339
3.23645
13.4576
-3.73297
-29.9052
-22.6226
-15.3699
0.522467
-12.2748
-34.247
-27.1465
18.7281
74.3592
82.6113
48.3303
7.87612
-26.8982
-37.5699
-20.6478
-26.2715
-42.2623
-45.83
-12.7459
77.8752
96.8101
45.6154
-2.93131
-41.7829
-45.3232
-33.7778
-30.6154
1.28711
5.41867
16.0618
29.4204
35.3275
7.83928
-41.0525
-69.7727
-21.4736
-16.155
-3.70983
14.4015
26.9058
8.59284
-0.551672
13.3399
41.5965
9.56448
0.545383
-19.5216
-31.6416
-30.9037
-36.0562
-25.6873
-4.54479
43.7609
76.6033
53.2328
27.7631
24.2922
13.4115
-2.6956
-26.1965
-12.9907
20.5998
16.4426
1.08877
-6.1416
-45.0634
-64.7672
-42.9998
-53.4009
-63.6818
-41.626
-12.8639
11.4301
36.1476
119.784
155.646
138.196
70.4533
-6.80529
-51.3546
-72.6938
-75.9685
-55.8937
-35.8557
-4.63126
-10.3692
-35.3928
-26.5087
14.3965
15.9796
-28.4196
-56.2978
-26.8447
21.235
2.67485
-65.5407
-63.1117
-9.89159
8.7285
-1.65883
5.40016
47.4253
69.8574
65.1502
65.09
78.2612
80.0091
68.452
53.8338
21.214
-3.70302
-28.5834
-35.4811
-38.002
-52.7859
-55.7158
-42.86
-55.1083
-49.4152
-19.4957
6.88157
20.2224
37.7658
30.5796
0.598883
-8.40725
2.88027
-17.96
-48.9366
-28.8004
13.7387
26.7975
1.25994
-32.0152
-27.2336
-19.1771
-26.3603
5.21027
43.4883
59.0459
48.269
19.4589
17.0344
24.8321
4.43867
-35.9445
-51.7153
-30.0969
1.43225
31.0443
52.3678
63.1194
32.9547
0.790184
-10.3562
32.3546
-15.369
-50.0699
-24.6217
-9.57873
-7.29953
-17.7399
-45.6789
-75.8008
-51.7961
-20.5553
-15.6132
2.7331
5.25263
-1.23088
16.1942
45.134
49.4276
34.2512
-10.2966
-51.8628
-9.18109
24.1862
9.93674
21.1729
9.37366
8.25034
22.4336
26.1652
29.8423
72.1594
78.9411
28.2602
-3.96001
6.60062
-27.0406
-57.7074
-56.3603
-57.087
-39.1644
-2.34116
8.81603
-16.684
-40.3695
-37.3501
-4.99555
22.8761
10.7532
-4.43742
-27.1675
-49.9446
-19.4279
13.0505
-2.56561
-45.8198
-48.7442
-27.3487
19.8857
110.711
174.246
174.229
150.83
70.3528
-22.5943
-83.7346
-92.4388
-91.2274
-87.7797
-49.7933
-13.7144
-8.03656
-8.21952
-7.33793
11.3868
36.6199
39.7829
6.47083
-18.1087
-58.0633
-87.3161
-80.7444
-61.4346
-47.305
25.0333
89.8722
74.8333
46.2279
10.0965
-35.3081
-26.5384
4.15742
5.119
9.11462
36.0966
34.0099
27.9788
17.0589
26.3001
20.4176
24.2397
4.67524
-7.26466
-1.11745
-35.5753
-30.9738
-12.6663
-21.3838
17.9173
57.9844
58.8028
33.7205
25.2645
29.7264
17.6475
-49.8466
-88.4808
-68.9308
-62.7941
-30.4008
11.1387
13.621
-3.62682
11.1866
29.9964
17.3823
-7.3497
-27.1136
-13.5463
16.5604
2.59173
-17.0078
-25.0974
-33.7644
-40.3199
1.8446
41.1807
48.9331
35.6222
-14.8009
-64.5589
-27.7388
-3.05896
6.35902
5.86107
-8.5184
7.2756
36.4626
17.816
10.0377
23.8267
37.8838
59.0919
27.7328
-8.33426
12.7065
36.8101
2.29725
-18.5608
6.96001
-16.7436
-57.7866
-45.3457
-23.0535
8.62844
5.29837
-9.76254
-6.31531
6.01084
-7.60013
-17.9749
-18.861
-0.969812
9.54272
16.045
11.1833
-4.28655
6.02157
-6.37997
-39.5834
-25.4363
17.9425
22.4305
24.251
21.5488
1.14671
2.88112
11.8653
13.5698
-20.0013
-36.4263
-28.6746
-46.68
-14.1719
17.4365
16.1688
14.2366
33.1315
51.3971
44.8239
11.9553
-11.1715
-30.3729
-38.1796
-32.7078
33.7491
78.3743
36.4228
-24.1353
-13.955
-3.78852
-26.1254
-9.76859
-12.7149
-3.77626
-20.1295
-38.2641
-31.6428
-19.2917
-12.6917
-5.29063
-9.14786
-16.0329
-15.3116
0.433541
48.9322
58.7178
58.0008
69.4609
59.1466
40.1524
18.6037
-29.6622
-73.7604
-72.6103
-38.4283
-19.226
-33.9088
-37.2845
9.03552
36.5085
28.2114
8.65728
-39.2375
-74.052
-56.4858
-48.6651
-27.7107
12.4705
32.7821
52.3474
102.526
119.382
98.1672
68.4372
57.12
47.5627
24.5258
-17.8559
-60.705
-100.849
-94.3633
-36.1884
11.3077
25.6727
-28.0885
-64.8745
-44.2903
-46.035
-32.7628
-36.9472
-39.8696
-7.88469
25.0908
43.4894
33.6297
2.13437
-6.61426
5.36666
16.5538
59.0797
69.5626
25.6764
-9.40405
14.2524
32.9341
21.5112
-7.82865
-12.1472
-6.02722
5.00769
-21.471
-39.2992
-32.0044
-26.9745
-17.8417
2.57495
0.645019
-23.3655
-26.0581
-6.78673
-40.0944
-21.8395
38.0127
49.7309
60.1464
52.2597
61.6382
51.184
-9.83065
-54.9363
-37.2505
-25.1409
-17.3369
-18.4807
-31.0716
-17.5783
5.24839
21.4025
27.8577
31.308
51.0391
47.2617
18.6451
-17.5867
-79.3778
-94.9221
-68.9538
-22.929
28.8792
65.572
64.8975
44.5759
-5.05963
-40.0474
-43.9955
-34.835
3.16987
29.4035
14.0922
10.3409
18.5191
-10.1005
-31.9488
-24.79
-13.2403
19.404
36.9611
23.4891
3.07915
-1.10536
-50.5226
-65.2932
-28.56
21.6596
63.6889
68.5652
18.4783
-9.69294
-5.10515
-1.82337
-24.913
-10.8578
11.6183
11.2521
7.02952
6.96748
-10.7913
-38.3101
-27.0176
-10.7638
-19.0442
7.65747
55.9322
62.8489
86.1465
47.9361
13.962
1.04726
-11.0434
-44.7094
-40.5846
-12.9693
12.2235
-29.6308
-78.211
-74.5553
-60.2319
-23.6841
-13.5678
10.3273
70.4359
52.4087
-1.37615
-46.1362
-88.9677
-63.3389
-3.72491
34.9284
21.9559
8.86102
16.1673
6.40456
16.9858
42.0572
63.5236
64.4667
65.0712
73.8516
66.4636
15.5051
-10.8843
-24.1835
-7.46107
6.08279
-17.8033
-38.1496
-26.0984
-19.2501
20.4753
5.04344
-57.6951
-78.2011
-55.6486
-4.61029
9.96887
-1.53873
-25.5788
-61.0978
-67.1802
-28.977
12.9771
52.3408
66.7706
82.8071
84.3862
72.2757
15.2701
-23.3351
-45.5058
-37.0795
-6.93997
6.37839
-52.8167
-81.8586
-37.7067
-5.20617
11.8743
33.8983
35.5673
15.9896
2.99407
-9.68924
6.48792
4.92126
-3.47742
-9.30859
-31.7185
-17.7433
13.2414
11.9218
33.2016
54.8888
48.9259
43.2853
24.7618
5.09373
17.6078
-4.15895
-15.611
-27.6023
-41.5034
-29.4164
-15.298
-12.0638
-9.68662
-43.06
-70.0204
-98.55
-57.6945
5.33122
36.7961
54.8954
63.4453
30.4072
40.9634
54.2887
43.7079
46.0735
27.1145
24.2482
13.2232
-20.6944
-49.6791
-42.2129
-26.1769
-27.3145
-4.53076
31.114
27.8956
0.370646
-54.6939
-67.8787
-26.4987
12.1001
37.3524
12.6668
-16.8596
-16.5762
-14.2599
-8.14078
7.57103
14.7789
-0.533726
-29.0067
-29.8759
34.5016
93.1213
61.8513
7.29161
21.37
41.6612
-18.0313
-50.415
-22.2405
-25.5857
-38.1057
-27.9019
-7.88593
20.7297
23.717
3.54698
-2.23723
-8.67659
-21.6059
-40.3002
-53.1296
-18.3219
13.5738
14.5497
12.7913
37.8492
71.5675
74.0746
26.4613
-22.3838
-23.9416
-23.1469
-10.8914
-19.4634
-16.7334
-17.128
-44.7228
-45.0304
-2.25157
60.0498
48.5415
1.31673
12.4648
26.5792
0.749707
-0.278049
18.5162
1.80979
-20.3784
-29.1623
-22.5275
-8.31221
-9.45637
7.08496
8.19971
15.2416
32.1916
33.1746
23.9823
15.7004
32.0205
9.48536
-19.7052
-41.6132
-67.6253
-92.575
-70.4091
-3.78826
10.7881
22.4255
44.3151
39.5128
30.8306
0.298547
-3.66961
4.62101
34.3801
24.8436
9.10672
9.71062
4.70768
-21.7518
-56.6023
-30.7437
14.5502
13.4872
-29.0851
-49.8301
-27.3627
-27.8663
-13.136
-1.24078
-5.74855
22.5085
52.7478
67.3472
91.3146
105.369
39.2007
-29.2748
-49.1238
-38.3098
4.69387
-19.3968
-22.0756
-1.23873
4.50477
-19.8432
-12.7969
-0.747086
-23.7036
-47.1307
-33.9254
-27.8905
-12.8817
-8.20291
-30.9699
-30.2504
-13.5975
-20.6229
-11.6581
32.0991
50.4228
64.2303
45.1608
44.2707
33.1758
-12.0132
16.9012
43.3867
48.2347
27.3087
3.3005
-0.147187
-11.0094
-3.28987
-29.4646
-59.2613
-69.5814
-107.356
-130.728
-53.7375
35.9923
91.6547
114.775
73.1068
61.3692
74.6714
23.9722
-24.7927
-30.7247
-17.4021
11.2101
5.5741
-25.0877
-20.572
-31.1844
-49.3683
-14.7732
43.8774
58.1206
21.7765
-31.5094
-66.4023
-79.0024
-65.5365
-35.006
22.4292
48.32
19.4077
-46.7099
-63.5984
-50.9263
-16.3882
21.0073
27.7267
32.29
61.926
50.4898
18.6349
37.9459
35.1518
26.5254
34.7423
33.7567
17.4073
-2.6286
-45.9271
-66.559
-46.6142
17.405
76.3676
63.9265
13.9498
-13.1632
-43.7164
-49.0455
-16.5011
0.934262
16.9529
15.3294
-5.45292
-13.1982
-34.5586
-57.6629
-44.0916
-13.9256
-9.55498
-9.44259
2.65901
25.285
-3.77657
4.05004
30.2531
4.00452
4.90198
35.2391
22.6096
17.9119
21.0957
29.1385
34.74
33.9437
30.216
27.6891
-0.337076
-33.0808
-63.4769
-71.194
-44.8549
-34.7145
-38.9836
-91.3913
-79.4928
-20.6876
25.1377
50.3956
38.8823
53.2064
79.4062
80.2529
49.6555
-2.80763
-50.1899
-43.4715
-6.52675
-12.9395
-15.0441
17.0086
3.56004
29.2074
76.5706
72.715
63.7133
40.6091
-11.302
-24.5029
-46.966
-56.8009
-47.474
-50.1701
-37.5087
-21.6902
-13.595
-13.501
-37.3917
-38.6856
-2.463
-5.49843
-13.1458
-48.4816
-56.2559
5.18272
50.1581
48.4162
43.9726
26.3311
4.15586
3.25802
25.6004
32.4721
40.6265
30.0401
6.59076
0.481638
-6.7713
0.400514
32.1991
20.1449
21.8805
32.4409
35.6133
17.7606
-14.8618
-41.3861
-45.6322
-58.9838
-47.7632
-35.2343
-21.5405
2.02998
-1.96416
-1.99227
23.5001
14.4073
21.9165
16.9634
-5.10725
-15.1239
-41.6691
-33.1304
-39.0196
-39.0853
-17.7423
7.75949
5.07389
20.5732
41.4098
25.8689
46.5135
47.1644
36.5375
43.2409
32.9148
-5.56386
-22.8391
-29.6861
-50.1888
-49.5486
-16.529
-11.2319
12.1033
36.9087
19.2084
-10.3241
-17.2245
-27.2491
-2.58321
29.7744
-5.20694
-13.3878
0.991725
13.1618
22.1727
3.03233
-16.5283
-8.88411
6.66738
10.9393
13.0504
16.7353
-0.95286
-4.0199
-2.86279
10.822
21.2513
12.318
-21.3258
-47.1224
-51.01
-41.278
-21.0975
-31.7339
-43.106
2.50814
50.6142
72.5308
62.0403
25.2712
22.9135
27.9062
1.31226
-13.6666
-13.3646
-15.8916
-15.9602
-10.1975
14.6528
22.7518
-15.2958
