33.0346
76.9014
117.288
134.87
115.57
81.8138
53.7417
-16.6112
-37.9862
-48.8425
-23.1216
11.5761
40.9187
77.4756
122.285
143.256
58.2717
-86.9505
-127.23
-140.037
-139.345
-106.677
-84.9953
-74.5706
-48.7885
-75.1122
-63.5107
41.0404
89.7304
67.401
25.737
3.95446
-5.57051
-42.8772
-86.0169
-89.4189
22.1327
154.249
182.915
163.188
104.663
16.5896
-32.7589
-75.875
-78.1058
-16.477
-0.173774
-2.02804
-19.9171
-42.2791
-1.37077
18.7208
79.0336
164.893
148.265
41.0417
-63.9561
-135.23
-149.244
-155.781
-131.197
-63.4725
21.1546
75.7292
88.3869
97.8052
44.9498
71.1075
46.3843
9.2842
-30.6259
-49.3357
-80.1748
-99.3909
-65.5904
9.28254
41.456
46.1437
58.8198
42.8929
47.7224
62.3463
31.3645
12.4026
-17.1852
-87.8748
-76.395
-108.305
-112.347
-54.1771
-5.06315
51.3937
82.7447
16.4778
-0.474076
-18.5361
-16.3826
36.0242
51.4286
69.4113
27.8552
-38.6895
-47.9734
-31.1942
-1.91553
23.2832
84.814
120.242
103.997
43.6193
-50.9868
-137.644
-201.887
-183.482
-152.055
-103.523
-37.378
45.1115
107.946
116.439
156.898
175.81
150.09
144.014
84.8383
8.70135
-58.6791
-157.295
-152.629
-87.3057
-25.8422
-6.50917
39.1335
134.187
181.534
133.76
100.265
20.9761
-59.807
-106.129
-100.727
-46.8122
-30.7881
-88.2857
-148.088
-131.891
-105.862
-57.6905
-32.3298
-11.9143
35.2001
95.3572
72.4419
53.9487
102.031
89.3868
3.72197
-64.8157
-85.2861
-81.5495
-75.9008
-110.218
-95.2603
-38.45
24.4555
58.1599
66.0291
79.5945
98.1189
107.539
72.0078
67.0366
76.4821
53.4711
-3.24836
-1.35728
24.649
37.8073
-16.8062
-16.8004
-10.6418
8.12956
-0.390639
-23.435
-20.3864
-9.94392
-48.3486
-64.3488
-80.3127
-71.7946
-31.4453
-22.7822
5.25968
27.2891
-6.85175
26.6878
43.3994
32.001
54.5609
34.1638
34.2594
22.3231
-77.1159
-84.3417
-59.2722
-57.0624
12.6964
45.4154
15.9759
6.48198
-65.0476
-98.504
-107.669
-121.066
-105.82
-38.6492
56.2485
148.807
144.106
95.2531
60.3227
48.7688
108.698
146.287
172.725
162.394
50.7806
-82.7366
-100.43
-90.7764
-65.4864
-43.3082
22.0658
105.142
93.2676
30.1189
-100.451
-176.537
-176.056
-161.694
-149.963
-86.407
-13.579
5.60029
-59.3212
-52.9946
1.87973
56.4903
77.0924
82.3511
136.983
159.658
70.2594
2.74414
-1.90486
-15.8347
-11.3011
-12.6523
19.7756
85.4873
50.9174
-16.9132
-28.3078
-42.0905
-22.8892
-27.7234
-35.8525
-43.7814
-33.6049
-55.8069
-42.1804
-1.08345
1.10778
-37.3481
-21.6805
-9.844
13.5938
37.5813
22.6996
13.0096
38.3969
57.5554
33.4098
-6.83893
-7.83893
43.5546
32.387
54.2603
63.6183
61.0027
92.3862
61.878
32.1637
26.3569
-79.5453
-134.838
-128.398
-141.578
-141.423
-99.4112
13.5691
97.2596
43.648
0.476515
-23.9791
-48.852
-14.8234
28.7349
41.4677
106.049
110.458
89.1036
21.7664
-92.5975
-98.9788
-65.7695
-45.3159
-49.7511
-17.779
-40.0615
-86.8031
-110.075
-58.8074
15.9321
104.994
129.634
139.994
147.347
139.658
15.1981
-60.1614
-81.3107
-34.2168
34.3624
92.1859
85.3251
83.9813
78.1869
65.6553
50.2341
7.82066
-51.934
-83.4808
-89.8262
-91.613
-119.941
-116.017
-107.99
-131.985
-112.641
-80.1366
-26.2229
16.1171
-10.5651
25.7378
36.4436
-2.42805
9.22738
41.7282
64.741
84.5723
104.603
85.2402
74.5355
58.2696
32.3154
-10.988
-21.4434
10.3344
41.1369
60.7566
53.1221
26.4247
16.0724
-25.5091
-63.2087
-70.3087
-68.4089
-126.283
-140.959
-61.9381
-1.66795
35.0763
22.648
2.67557
7.58889
19.8197
-6.34859
-5.67771
1.54401
-14.1615
-26.7621
16.8922
87.872
149.882
133.877
74.7816
66.7163
111.169
77.2589
-24.7416
-76.7886
-88.7086
-126.57
-148.291
-153.553
-126.732
-88.1575
-43.3749
-0.868249
15.5857
3.92691
0.571249
34.1598
-0.439952
29.6724
74.7872
69.4589
59.0057
70.7037
50.9964
43.0484
78.1398
93.2489
61.3835
26.5159
-12.647
-49.0423
-106.391
-90.1249
-78.3088
-112.879
-78.9343
-44.9018
-30.4615
-35.3157
-17.9921
18.2132
38.6106
40.5184
60.8241
52.5505
51.552
54.2844
27.0914
4.33573
12.0467
0.269847
14.5932
4.43594
14.4554
41.9988
34.9844
60.5111
58.125
34.2112
0.260814
-36.8107
-86.5798
-89.7176
-94.4759
-100.14
-107.698
-60.4466
5.37546
27.232
41.1735
60.9637
60.1183
35.3469
12.2649
12.069
9.87441
-49.9078
-47.5403
-19.0414
4.0276
-0.810131
-0.192543
17.9474
26.107
-3.25515
-16.4975
-58.7801
-28.2165
25.5632
57.0012
103
159.029
122.166
32.012
-60.6022
-117.66
-135.999
-133.703
-132.213
-88.563
13.0904
53.1534
46.1618
39.9034
40.8782
40.6844
56.6266
53.3468
77.8746
22.433
-21.7424
-68.5236
-39.2697
17.8598
51.4369
37.4054
39.5623
62.5833
104.763
79.304
-27.9568
-52.3134
-50.7369
-37.4976
-13.1335
-20.5101
-29.777
-45.3325
-98.9274
-97.8305
-102.047
-83.3607
-40.8553
-23.0593
6.89843
42.3677
17.8976
24.4677
36.5655
52.2455
66.5688
69.6555
73.5269
16.7081
-12.5913
-11.834
-14.6964
-15.5942
-14.182
-7.11622
22.9196
-12.9834
-14.4998
4.65897
6.15538
8.00506
47.4501
52.7186
51.5641
46.5257
-0.431547
34.4512
40.387
7.40189
-51.2828
-101.08
-142.743
-159.739
-117.922
-65.4585
4.52553
42.7282
40.0656
39.602
54.3463
44.5229
63.5968
94.5438
65.413
-29.3302
-8.93495
-14.3127
-35.5852
-40.4986
-9.37623
35.7106
79.6192
75.2332
88.0757
57.7022
-3.40519
-31.4719
-46.292
-21.7676
-5.22394
-34.3138
-55.8864
-88.6863
-91.1306
-45.5536
-25.9863
-32.8636
3.8226
16.6525
20.9037
13.3795
5.81078
24.8332
23.4979
24.064
40.3934
67.5014
32.5931
-50.6574
-60.0545
-5.33427
43.768
-0.833257
-69.886
-48.2441
1.83651
-53.0359
-112.558
-87.0929
-39.1938
44.0234
111.916
133.599
166.268
133.524
45.9629
2.08143
6.25726
28.1121
11.0189
3.10461
7.31757
-38.0201
-30.103
-4.2935
-14.8483
-12.2607
7.01292
48.1862
62.3894
-41.7232
-99.5568
-113.311
-136.034
-113.269
-59.09
-21.1484
20.9924
25.6664
5.00836
-9.91226
-46.7867
-8.10012
14.1997
7.09458
15.2505
33.0932
52.0598
28.6709
19.2559
52.3264
45.1423
17.0178
-17.6459
4.4704
48.2925
51.1839
18.0583
-20.7958
-16.7954
-13.7828
-18.8669
11.1079
39.5679
57.515
63.5276
16.5338
-43.4369
-44.3603
-48.903
-44.6372
-6.72489
49.5571
75.6788
-6.3206
-65.3886
-78.8857
-77.731
-71.9763
-32.7038
13.6743
42.2274
-19.8637
-35.299
-3.62358
-6.10245
30.2028
60.5098
74.6983
71.7958
27.7442
6.9861
19.2717
14.2107
18.9524
-10.299
-46.45
-65.8192
-20.0685
10.7865
57.4016
102.876
64.6228
5.03399
-57.8335
-76.9578
-61.9758
-83.562
-134.808
-59.4301
44.6248
25.4521
-36.2923
-64.1125
-37.54
-47.7616
-52.6603
26.1261
128.737
150.105
88.8454
19.8928
53.7074
116.638
46.2714
5.40452
10.2742
38.5362
56.4397
-8.59101
-61.1908
-53.7279
-17.0964
-40.0881
-39.1083
-10.61
17.2384
6.72968
-34.5301
-60.013
-67.2554
-105.448
-80.9805
-45.8122
7.78765
12.3894
14.3064
8.6218
30.122
51.9108
9.36117
-25.156
-37.1379
4.60031
42.0073
47.006
40.4359
49.9873
60.3242
-9.91338
-19.9089
5.28696
13.9194
-6.27208
-1.07575
23.958
36.7332
18.9875
-1.83587
-13.6381
31.9523
49.6884
17.0596
-15.4622
-67.0578
-107.226
-64.6066
-33.5203
-46.8659
10.2288
37.1389
57.5037
75.042
23.6898
3.76256
-3.84882
9.44009
37.2931
23.7347
-6.20979
-36.2339
-56.0375
-81.2544
-108.642
-72.794
3.56084
12.3685
-3.92296
34.4457
39.6978
24.8011
36.4906
39.6142
60.2231
62.9435
34.28
-4.81031
1.38847
-11.6952
-48.1773
-38.0102
-25.7098
-6.8582
38.8733
48.6743
21.2607
29.3297
11.2311
-61.6673
-73.7828
-58.7883
-44.169
-31.1481
-14.8068
20.8559
16.4359
-25.0503
-17.3003
26.2325
35.2142
0.0203683
16.0589
101.83
167.379
135.537
76.341
-10.3931
-84.823
-106.711
-27.9096
-2.06954
-35.2909
-54.9791
-97.5215
-129.808
-119.507
-97.5778
-109.949
-80.3984
23.4721
105.083
62.5201
67.8694
53.874
35.8223
16.1156
20.2682
73.4928
143.295
99.4674
9.71437
18.1823
39.0697
57.518
34.2324
30.7198
55.6592
4.26249
-30.504
-51.9875
-45.9355
-16.8793
-63.3512
-63.7873
-7.87891
-60.0464
-73.5629
-40.3677
-10.522
-6.75633
17.8113
32.4847
19.7736
-27.6846
-44.4679
-56.5381
-65.0259
-36.5332
-0.332496
21.6889
44.2392
30.3694
-20.0733
-35.0974
-10.5026
61.9595
79.6925
43.7874
-10.3535
-22.4866
19.6318
-35.4801
-52.7433
-24.4376
12.3068
50.7079
73.5755
75.9417
63.8966
56.3337
16.6107
27.1146
8.84077
26.2035
38.0624
32.7594
-15.125
-101.471
-111.022
-108.059
-178.55
-149.187
-106.909
-23.3675
55.8577
104.132
130.551
117.802
61.7779
10.2254
-32.699
-34.2322
1.98761
-17.2667
-21.4458
24.0771
57.2254
80.4103
108.691
103.334
56.9879
-15.9924
-49.931
-60.4179
-58.395
-85.3771
-125.278
-91.1134
-53.1058
-18.528
17.5324
47.3543
39.8268
40.2955
66.9856
25.6741
-11.178
-24.6963
-67.3197
-64.0253
-0.416959
69.1895
72.5843
-3.15014
-26.3536
-13.7018
8.27655
29.3096
46.5154
60.5012
35.0111
-30.1858
-50.5968
-55.0454
-28.5831
4.76215
1.36825
46.3398
58.2423
4.42389
35.0097
55.0047
19.6023
-5.85448
-69.6826
-62.3583
-52.5976
-97.7634
-144.007
-172.089
-108.83
-17.0032
24.0056
55.6428
98.4794
114.521
103.651
92.0094
83.2079
84.3829
15.5481
-35.2995
-9.49504
58.395
79.2826
41.5135
27.8141
45.2955
33.7072
13.5987
5.0422
-7.83919
-9.9502
-69.4242
-150.764
-152.342
-133.865
-107.857
-83.2688
-35.096
-17.8964
-4.93733
49.4961
13.6449
4.09433
34.848
39.7897
61.3465
82.4403
78.4633
63.9861
28.2366
8.90225
8.95553
5.47066
-11.6712
-32.6945
-9.051
27.3572
1.14304
-16.1959
-41.942
-60.7278
-4.6534
26.7571
33.0168
27.5716
-2.70298
-46.7732
-84.6173
-93.9769
-49.4757
-1.60502
38.2849
71.7888
87.0152
78.6715
39.8562
23.6747
49.4585
67.6056
61.711
23.2027
4.21262
-44.8815
-110.728
-120.784
-92.981
-32.0396
28.5908
26.1921
30.7301
20.5631
-43.8193
-61.5315
-48.1677
-4.73792
23.4092
7.64321
9.3339
-15.8318
-39.1337
-29.1232
-39.6577
-11.3396
77.1821
124.584
109.647
38.5822
-14.2818
-17.3385
-11.4324
-20.2848
-7.26476
-8.2245
17.5113
10.2514
-7.21207
-42.5774
-46.4922
-37.8164
-14.4478
-2.20422
22.3224
48.4333
51.5372
-24.1212
-33.7981
-1.10482
13.6766
0.807059
-21.4895
-29.6856
9.83106
62.231
36.1554
-13.0691
-17.3731
14.336
31.9655
37.99
34.7222
25.1097
13.2063
-42.12
-82.6208
-70.0985
-54.3563
-29.6773
5.36946
33.6658
28.5028
6.07631
26.5767
79.0205
65.4827
20.5019
-47.724
-62.344
-79.8968
-104.191
-107.702
-104.333
-67.0168
17.4121
59.4092
76.7731
88.4538
99.9418
57.6416
20.1634
20.7852
44.9458
29.0163
-31.6166
-40.4075
6.58892
27.2976
10.1876
20.2842
29.6942
27.957
36.5513
24.9638
5.24192
-7.4033
-45.6245
-41.088
-10.6039
20.5105
18.7834
8.0817
10.65
-6.90204
-134.73
-161.205
-102.535
-25.0957
16.9879
36.1089
86.6848
106.212
56.4746
-4.05776
-27.1405
-42.4061
-21.7933
-51.8571
-75.7538
-69.6682
-30.2625
-3.41102
-5.18284
-1.18499
52.2979
86.9391
89.1369
65.7026
47.4226
35.8093
-10.9141
-69.8107
-36.2152
-0.791401
15.6936
42.9088
71.938
91.5591
80.8149
29.3483
-25.152
-47.9929
-57.8721
-36.1331
-10.0542
-8.87863
-4.80354
-39.0978
-27.168
-32.3978
-36.2657
-15.8698
-18.0359
-8.82843
3.36434
-24.8584
-29.8257
-21.1601
-31.4793
-28.9647
-5.48885
41.2148
13.6965
-14.9834
1.67355
20.6213
-0.152246
16.8853
26.9674
52.8603
44.8371
47.0532
55.5652
51.7409
18.2463
-6.99826
-26.0019
-26.4676
22.2867
31.0834
-35.7732
-88.9839
-65.4232
-19.4846
22.2725
24.9596
15.1257
33.3369
-9.57874
-52.8878
-47.6048
-27.8672
-10.9286
-0.876852
-5.78191
20.5663
45.5277
-8.24028
-29.3116
14.6095
49.9649
36.185
24.5407
14.0167
0.674511
-10.4822
-37.3821
-27.8994
3.78329
8.21324
-4.22242
-3.40592
7.83345
101.915
129.23
34.1199
-39.795
-107.806
-167.629
-149.973
-106.7
-57.9123
-66.6348
-28.2569
39.5471
80.9797
103.452
88.3947
78.935
83.8709
99.0751
54.8755
2.81401
-63.5056
-67.734
-11.8829
35.625
89.7524
124.468
97.215
4.96925
-25.4149
-25.783
-51.054
-77.2321
-74.1679
-30.1637
-34.1974
-58.3503
-65.3974
-65.8183
-33.513
-1.55897
11.0647
23.8566
-5.80675
-30.7399
-26.9584
-10.522
15.9293
55.4979
46.2475
69.224
2.31718
-36.9576
-49.3111
-65.357
-60.1938
-28.3854
-0.0560365
35.7498
32.5176
45.0008
25.3027
-1.60349
24.822
40.9056
56.9869
69.9953
77.9342
42.9679
0.814777
3.77436
33.9865
8.21139
-8.53139
-15.8316
-16.4039
29.9507
37.284
-23.11
-70.8999
-91.3464
-101.457
-78.8008
-41.6656
-21.359
-15.7631
-16.85
-35.9599
12.0634
41.364
37.3417
54.4189
57.9618
56.7183
54.3418
-7.87193
-63.5263
-80.6032
-51.4835
1.29065
19.1836
36.2835
67.8331
33.0205
17.1525
-4.85246
-28.7273
-34.1743
-0.633319
26.5386
26.2986
-3.83977
-29.9374
-39.2271
-49.475
-7.87895
7.75832
1.83829
17.8734
66.1595
70.3019
-3.94824
-50.6125
-35.588
-25.867
-18.4443
-28.3519
23.7199
70.3378
-16.6689
-34.3794
-10.252
-7.83762
-21.5639
-35.1475
-14.7827
13.2181
15.1256
17.449
-6.27691
-16.3367
3.13698
9.27179
73.0485
163.251
157.065
112.624
7.69487
-105.037
-120.526
-104.575
-53.2839
-39.2921
-55.6305
-43.3469
32.4618
42.693
35.2045
22.6214
9.67693
-14.2305
-9.57427
-9.00556
-65.8169
-94.667
-74.5067
-36.979
-21.6527
-5.41605
77.5244
117.529
101.077
52.2028
51.3265
53.4376
4.66951
-36.6541
-39.9982
-15.9636
31.3629
19.8736
-16.4139
-28.5067
-34.9916
-66.476
-53.3369
-32.0967
17.9614
21.9059
30.6577
10.0014
-24.0939
-1.11445
14.3666
16.4278
28.0645
-0.590259
-23.2457
-49.2552
-63.9975
-34.6381
2.18463
37.6369
72.969
15.6884
-5.85859
-5.42955
-23.7686
2.28967
35.0658
47.1391
53.2703
32.5763
22.7739
18.9634
-26.5413
-42.1021
-29.1145
-6.72912
-17.8372
-9.61785
5.29404
-31.0123
-43.3737
-19.8717
2.54596
2.44125
26.5386
56.8724
75.9164
0.726721
-33.7438
-6.05256
-8.90244
-16.3619
-13.2552
13.9088
46.2469
8.56747
-59.5798
-52.6623
-46.3815
-31.5473
-12.4723
24.6965
30.6111
27.3816
25.4222
-26.343
-41.6446
2.94912
11.989
10.6099
9.68525
24.5852
48.8988
20.425
15.5552
27.3672
84.3449
70.7094
6.95745
-27.5767
-56.7229
-116.007
-140.953
-125.624
-63.779
31.4658
42.4234
40.4273
30.5393
71.3576
93.0454
23.9968
-0.100181
5.59999
-12.5484
-10.2618
-18.1206
-25.5742
0.557347
-16.2588
-4.96978
27.629
59.065
56.2183
-4.05265
-31.8511
1.45928
-36.8915
-54.9798
-50.6578
-30.4511
0.146213
5.57332
20.0137
23.9134
-27.752
-38.6061
-27.755
-7.73252
45.8355
68.2645
79.4533
80.1704
22.583
-0.249593
-17.3508
-49.8951
-5.46062
1.70298
-37.6861
-41.6571
-11.6929
-49.0763
-46.0914
-29.0582
34.8957
45.8379
40.0487
50.9238
53.824
67.8798
2.15761
-38.367
-37.2983
-67.9472
-74.8251
-58.3066
-25.1177
9.98549
51.465
36.258
-9.4499
-9.62253
3.5059
-3.8952
7.39961
16.5285
43.9282
14.4965
-47.7509
-63.8415
-9.27146
3.33451
27.2266
54.503
56.5953
26.6448
-36.8395
-16.3374
1.78077
-11.4144
7.69735
42.9559
52.082
39.4935
-21.4183
-25.6795
-47.3067
-55.9403
-23.9379
-14.8643
-3.54613
24.9127
31.7758
30.9059
29.5624
13.8324
9.75142
-18.2849
-25.3186
-18.5901
4.32076
1.38417
-42.2869
-53.6811
-31.0028
-17.8103
-11.5808
13.4301
30.5346
9.2653
-23.9929
-17.9993
-17.8714
-14.093
-6.29076
10.3688
83.2777
66.8086
-13.5239
-38.1215
-46.5599
-40.007
5.07358
31.3736
73.5147
60.9624
33.5283
34.3558
17.7189
11.5204
34.5225
16.3748
32.9314
17.2783
-34.6216
-46.8455
-53.665
-40.623
-31.2599
-29.644
-29.826
-14.6564
-25.2076
-44.655
-70.8395
-39.6334
-8.49506
15.9174
44.9051
51.1804
67.7159
96.8697
20.8143
-7.23022
13.9872
17.529
-12.3377
-29.0529
-22.7104
5.25109
-14.6296
-74.7926
-55.3426
-20.3581
13.9975
16.3316
15.0823
31.8576
25.0783
-25.6828
-36.9789
-38.0667
-7.42641
9.90072
14.0129
24.5442
33.6619
27.9919
49.3698
38.0536
42.0892
63.8639
52.2208
45.4548
18.1796
-36.8417
-40.6217
-44.1495
-60.1189
-52.7849
-62.6872
-75.6179
-26.2961
-45.3045
-52.6719
-43.9471
-24.5704
11.6346
30.7071
51.7627
75.784
110.345
71.3605
31.8177
18.5965
25.9733
10.4015
-21.2652
-23.2023
22.6195
-10.6549
-32.4608
-45.0611
-9.62914
31.0761
16.9109
12.6031
19.8407
-27.9626
-58.6415
-66.5825
-52.6562
-18.91
-15.5417
-22.644
-21.3296
8.60342
28.7736
-11.2114
-33.8583
-3.17003
18.7784
22.0461
25.6459
38.0916
57.0239
19.0842
3.49316
1.30617
-23.6403
-21.9604
-17.9546
-2.67404
37.9773
48.6001
29.1987
-2.67692
-9.82244
10.6159
15.3699
26.3564
4.62991
18.7096
22.8679
-19.2794
-31.5721
-31.1878
-35.2492
-3.41757
31.5115
51.2933
16.8175
-13.4635
-33.2995
-42.2838
-46.4524
-44.3567
-25.6288
19.523
18.0589
-40.5869
-31.2229
-26.652
-7.32872
28.0675
8.93305
26.5118
37.8802
-1.56793
11.7495
11.1374
-2.85676
-5.24317
-21.7136
-12.8485
20.6254
-35.3937
-58.1446
-31.4501
8.06487
65.8951
72.2402
54.8043
65.4651
41.3803
19.785
-2.27994
-7.00224
28.6458
13.5015
-28.1888
-41.5379
-11.269
11.0309
-10.2867
-69.0774
-21.2919
9.67554
-5.27575
-24.544
-33.8649
-38.1513
-23.8019
-43.4204
-28.505
19.3738
52.6283
41.8526
19.2904
-4.10029
-5.28296
-32.331
-47.6441
-37.3941
2.67852
72.38
92.4096
78.1998
69.1891
16.2621
-12.17
-43.6992
-47.2699
-22.7004
2.04911
5.71032
17.0452
-19.6358
-42.5868
-35.0341
-17.9802
20.7914
30.5998
8.01384
8.46503
28.2125
13.5941
-14.1527
-74.0955
-60.5023
-34.2052
-6.50176
-10.5049
0.706834
24.6774
24.4908
-26.9779
-7.8416
28.6694
39.1853
37.1806
38.9426
44.4276
62.2715
14.0333
-33.7016
-51.7499
-38.7218
-10.4366
9.96468
40.0481
62.0708
14.7519
-14.7258
-34.497
-47.1569
-37.6244
-21.8026
12.0558
35.265
-19.7497
-19.575
-16.7919
-26.1811
2.8446
-5.59739
-1.65503
15.2192
-13.5026
-4.52093
-6.02421
-1.26726
33.5167
27.0901
-4.11643
-17.9671
32.9981
58.3338
-33.4049
-55.8361
-21.2692
-12.768
0.0140286
-10.4153
-13.4662
58.9245
39.4187
-18.2937
-6.22448
12.4324
35.0153
14.4287
-0.266619
-5.22939
12.1247
13.7321
-18.2375
-32.0612
-8.20692
-21.9237
0.77973
27.5168
52.5614
42.6068
22.6336
-2.18956
3.08314
-0.625483
15.9346
9.6077
-9.30508
-40.3369
-69.0845
-75.2309
-79.231
-75.9884
-52.7551
-13.885
43.7796
90.4798
66.7061
10.0954
-16.684
0.29759
29.8619
16.7519
17.5595
1.33357
-3.18013
-41.1938
-102.813
-77.409
-24.3099
19.7273
48.4085
69.6929
95.6682
43.2561
-2.03103
-11.924
3.30081
9.7878
-2.26222
8.4092
34.2771
41.3977
19.7079
-0.417634
-22.3648
0.0492407
40.7128
42.3864
43.6522
40.8038
-2.64085
-36.2462
-47.1825
-21.716
-15.2222
-50.3446
-54.3486
-28.0575
1.38456
-9.0017
-68.0677
-85.0854
-53.55
-21.3872
-2.82419
-10.6831
-5.23658
33.3675
31.8765
-1.25617
-50.779
-23.4807
-13.3403
16.8341
42.1443
48.5535
54.7694
61.7541
6.36788
-19.2878
-10.2478
8.41086
25.759
51.5861
57.3654
67.7271
30.9288
0.649159
5.91049
9.86935
38.6255
34.2869
15.9111
24.1294
-29.2011
-70.3084
-62.741
-66.9478
-54.6266
-38.2419
-38.6931
-29.6284
-30.0625
-22.6513
1.97804
-9.15176
4.07961
19.6612
25.9228
38.4714
27.1953
9.53941
-1.52841
-40.133
-24.9208
-12.1489
-1.67022
17.2864
19.3734
-17.7614
-11.5513
-16.7162
-23.2134
-16.0453
-3.27601
8.45926
49.7978
77.7024
41.2685
11.323
25.8515
18.2431
-17.6711
-19.4482
13.981
58.7827
19.6507
-77.9972
-84.6057
-43.3845
-4.38886
11.139
30.4043
44.9999
47.8518
5.57345
-19.2686
-22.646
-27.6813
-17.7843
18.7017
10.851
15.4991
-11.1362
-9.50697
-12.764
-5.91503
35.0114
38.6051
51.0337
47.6697
-17.8849
-23.5405
-19.8802
-40.3715
-43.5623
-37.9931
-30.7424
20.6546
-16.2286
-51.4665
-36.4153
-14.6041
12.9577
11.5591
-14.7612
-13.3706
8.20788
22.2961
-19.3618
-22.6113
22.2344
34.9767
39.2172
39.7297
57.0344
70.9131
-7.09076
-45.8171
-24.5829
5.21614
15.9269
13.923
23.0275
28.1151
-24.7443
-22.9186
5.54371
6.59482
16.1548
-5.31844
3.66802
22.4722
-16.4689
-43.9921
-39.0199
-40.1918
-22.2175
-10.4025
8.90294
10.7007
-9.94757
2.38217
-4.09808
-14.4713
25.5896
27.9546
24.44
34.9793
3.30619
-34.9325
-45.4772
-44.7054
-15.6607
20.739
30.2221
5.46756
32.0904
11.8246
-32.7504
-29.2048
8.04167
0.860363
-8.48986
-1.45142
12.0185
8.45211
5.97187
-29.9166
9.1648
39.3327
36.875
13.374
0.899952
5.5089
22.7598
3.04997
-17.2308
5.11081
24.9491
9.78404
-23.7791
-46.1042
-10.2365
-14.5488
-6.06663
-0.173643
-15.9661
-9.15951
11.5227
30.2455
61.7186
15.0962
-41.5658
-51.2489
-41.7057
-22.8924
-33.1621
-21.0276
27.5121
55.4222
47.0108
3.15801
-41.1305
-38.4898
-17.4875
-4.17282
-4.88943
21.9181
27.6901
-39.0156
-56.3357
-0.786269
55.7856
60.1162
47.7253
71.1289
85.2648
31.1871
-23.6109
-54.9273
-51.1342
-19.7825
1.10674
41.3877
36.1327
-17.4311
-32.7914
-40.3227
-29.6563
13.859
6.15294
-0.985261
6.54089
-18.3636
-33.7935
-49.8458
-43.6715
-27.6038
-12.2206
1.08158
14.6676
32.4279
5.94448
-37.6913
-38.1893
0.256973
24.7553
27.7055
8.647
46.3308
17.0889
-9.24121
-6.53999
22.7644
35.9546
44.6578
28.2462
24.4668
21.7546
20.5065
-8.48483
-10.0508
-3.0481
-3.89458
-21.381
-12.8298
7.65342
24.8553
-17.8008
-42.0428
-25.2817
-7.42645
-21.776
-25.4952
11.745
35.4269
-22.7204
-39.281
-27.6065
-36.8024
-32.0424
-35.1048
-6.90601
33.1239
12.2223
20.616
0.567752
-14.2177
14.8058
23.7879
48.928
81.2459
34.8607
4.00241
-24.4158
-39.4425
0.584277
13.5094
8.26828
6.68658
40.2
60.3047
2.73352
-31.1982
-5.45968
2.84028
2.15764
-24.1502
-29.0139
0.453327
-38.9188
-60.9658
-36.9633
-33.2921
-26.7633
-20.1039
16.6456
71.8428
45.5226
-20.6843
-29.9042
-23.9909
9.81179
10.2303
20.184
24.3038
56.7411
25.5424
-11.9967
-33.3489
-20.282
-18.4223
12.7359
31.9496
22.1452
-3.287
-34.2368
-46.2244
-37.0926
-28.0106
-26.5907
-10.4793
36.5984
35.8134
4.62968
27.8344
24.3988
35.9207
52.3091
39.4491
44.2871
52.8183
50.4844
-23.949
-46.9589
-44.6402
-30.2598
-23.305
-19.9999
-7.82323
6.21617
-52.1315
-62.381
-30.4936
-3.33017
-16.8877
-41.0138
-17.2147
26.5819
2.43594
-10.6822
-38.3028
-45.6664
1.40458
25.5533
58.9496
60.1154
9.16036
-12.8757
4.68297
16.5126
49.0017
58.5544
83.5851
81.5239
22.4563
-13.9962
-36.359
-54.2743
-39.1897
-33.0414
-25.6743
27.081
-11.8745
-40.8104
-47.0584
-21.9202
-0.134002
18.8803
37.9726
54.7816
87.2942
36.8413
-61.1435
-81.334
-50.3018
-16.1339
-5.58674
-13.0158
0.815988
35.2721
27.947
-34.7057
-11.6213
-6.26646
-20.3357
-31.5659
-30.1036
1.23456
32.5766
-5.17945
-32.577
-16.7272
15.7075
25.2635
27.019
26.5836
66.981
25.3989
-7.94133
-19.747
0.826474
13.8989
12.8703
10.562
22.9433
16.3529
17.7686
5.45112
-25.9463
-24.6584
-16.2335
-6.76795
21.5711
-12.9807
-10.4433
-12.7063
-35.0845
-10.4162
4.91515
-10.6492
-2.46029
33.2804
9.74483
-20.8454
-37.7114
-21.2116
1.14151
2.32712
-3.29873
23.6734
41.9035
-8.37458
-30.8226
-12.6573
-14.1769
-16.3154
-9.57678
16.6451
32.0551
8.87699
-14.8948
-39.0258
-7.64133
31.0875
49.2
61.0434
61.7491
29.1578
9.618
-23.001
-45.0142
-19.9194
-23.6961
-6.3163
15.9028
-5.10925
-29.0796
-27.9899
-20.6753
0.282838
0.442945
-5.08238
19.4685
45.1951
-5.37381
-34.1358
-48.7268
-32.9571
-8.27296
12.7432
18.5146
27.5435
54.2988
66.2438
-12.1372
-33.8187
-12.8659
-1.49254
-2.93043
-4.63206
-12.0822
-17.077
-2.83948
-13.3846
5.24762
8.64355
4.89272
4.75737
4.5631
25.527
28.8428
-14.3214
-28.4706
-24.6296
4.20417
15.1813
0.40164
15.1067
8.39704
-3.24478
3.79837
4.0206
3.71792
12.0092
31.0796
40.3127
-18.3622
-55.6054
-48.8848
-57.0061
-51.9809
-1.33448
14.5277
29.835
45.2421
28.3943
12.1407
-1.96743
1.76382
10.5851
-5.60375
-1.47702
11.0166
6.96688
-32.3905
-47.6174
-1.35082
33.1743
28.0619
9.71569
9.74663
23.5423
-8.44881
-38.6591
-40.9881
-10.3997
5.99137
-14.2458
-18.2691
26.476
31.3051
-14.64
-21.1552
-22.0202
17.8689
36.5555
36.4046
21.8005
27.6855
48.209
-4.05446
-28.0513
-27.4607
-29.132
-23.0229
-14.4008
3.61573
4.67722
16.3703
-35.9159
-25.1861
-8.87087
-10.1746
3.91777
20.8394
29.4519
60.3145
31.717
-18.6254
-46.6823
-43.8963
4.0767
10.5164
-7.10083
-14.2529
20.4139
58.5252
6.2621
-32.7508
-20.2399
-22.2114
-23.7225
-12.3805
8.55841
17.3814
24.804
6.15505
-56.4471
-54.9056
-21.6795
7.12317
25.4703
28.223
36.5771
39.7211
29.9244
-8.49888
-2.27162
12.903
23.1668
32.5654
28.2485
31.1049
0.688958
-53.3006
-56.3641
-52.659
1.42258
26.0247
26.7698
52.9542
34.3611
1.46946
-22.635
-24.5754
-16.4124
-23.1908
-17.322
-26.9724
-13.5142
-9.9153
-19.5652
-32.3644
-21.6858
-12.9783
-25.5618
-28.3963
1.86675
28.6571
41.4974
-30.2767
-23.7565
3.75026
12.5445
12.4012
25.0789
44.5501
51.5042
10.953
4.92945
30.4037
46.417
27.782
13.0981
31.1748
18.1644
-40.2587
-62.1415
-61.9523
-47.4284
-19.8221
2.67814
30.957
49.6216
16.2241
-2.54487
-3.05417
8.61168
34.871
14.1664
-40.7502
-32.2722
-19.4471
-41.9466
-21.739
-11.7322
8.91531
31.2032
30.0764
11.5511
18.4091
-4.9591
-43.6897
-62.1012
-33.4717
-22.3524
-31.5047
-27.1127
4.29841
30.5698
58.1399
37.1129
-0.477996
13.7322
10.0565
3.64512
33.3619
51.5388
52.2961
40.1313
-16.1543
-14.9498
0.837037
3.21941
-20.7069
-30.336
-5.16766
30.1322
-17.6763
-41.8037
-46.7031
-36.4961
-5.97021
19.8906
37.5915
52.5063
-18.2452
-34.5241
-37.7231
-51.2841
-33.7145
-11.7085
25.0754
86.3564
60.653
14.8979
2.61481
-29.0898
-19.2787
-1.08035
9.30281
-5.03147
-0.612017
44.5572
-2.27303
-71.485
-21.7118
7.19256
7.26733
1.15351
13.339
38.4575
-17.8558
-65.0997
-38.3003
-10.0685
-15.1729
-14.206
20.3135
60.2019
14.2095
6.91359
1.34203
-13.312
8.67715
45.4665
47.804
45.4246
47.8035
-13.3527
-30.4802
-44.7761
-19.2507
-11.9647
5.63075
18.2885
20.9565
8.42442
-29.8751
-50.8793
-28.4602
-9.34069
5.63154
-3.54532
15.8823
45.645
-1.58521
-31.8035
-41.1887
-20.2649
-21.1013
-7.60037
26.9362
30.6761
42.0127
-9.5546
-25.3887
-26.0022
-9.6788
-5.8478
7.46611
30.3088
36.6138
-6.30702
-18.0134
-30.0643
-2.13946
1.7218
-6.57379
50.2784
37.1667
-1.58541
-3.53201
-10.2054
-14.6252
18.7584
30.1544
44.6916
37.9586
-27.7578
-41.0998
-30.6865
-14.6975
12.2424
23.4217
39.4898
36.197
-16.0512
-28.1691
-44.4709
-21.4203
-9.40495
-14.4279
6.33795
23.2949
12.7554
-55.5398
-66.9405
-39.1828
-13.6823
3.16044
5.87335
14.5369
33.9054
15.7058
-59.8762
-68.7509
-17.3008
23.9868
50.1137
78.8819
92.3273
68.6976
-3.98437
-89.2002
-46.8939
7.84649
21.6611
30.0496
37.3215
36.544
26.8593
-16.156
-23.8867
-18.9193
4.08652
10.6361
17.1024
13.1124
14.4766
-37.1786
-56.9706
-65.2968
-38.0124
8.30965
11.2877
37.3774
33.657
1.07262
32.0945
35.4688
10.9052
-7.19029
-28.8178
-9.63807
33.876
-8.24636
-22.2926
-37.0357
-67.3659
-52.5706
-43.3067
-22.3998
14.1671
57.987
7.16536
-19.3884
-16.4569
-0.404655
-27.9567
-37.5827
-9.75971
46.333
35.0189
0.591521
-0.426834
47.89
53.8708
44.778
56.8957
86.784
42.6126
-2.80364
-23.4063
-43.2366
-21.056
-9.76348
-3.98561
27.8996
20.1551
-39.8525
-60.4356
-47.3296
-11.4679
7.95933
6.96658
16.8399
-30.491
-43.3135
-32.8137
-29.1965
3.34257
40.0335
41.7826
41.0493
71.0002
6.24943
-43.2942
-60.5022
-55.441
-17.4684
-5.52178
-17.2854
-12.887
21.739
46.4247
-16.5565
-17.8568
-14.5369
-20.4125
-12.2131
24.601
46.1824
84.4917
29.6589
-32.5373
-18.7273
-5.63194
6.20944
18.868
19.6883
21.3773
39.6526
11.9516
-34.9642
-56.3755
-21.489
-0.953874
-5.9623
14.0015
52.4601
0.7859
-32.5851
-66.1025
-47.2778
-15.6044
16.2586
44.5089
51.9104
-3.59205
8.65403
21.0783
26.1092
21.5676
-4.78968
-15.4568
22.5988
21.8814
-17.0964
-35.7611
-53.3611
-27.9417
-23.429
-32.9269
-20.6679
20.1879
15.3469
8.8587
-3.25385
20.8761
21.7551
0.404284
-11.5407
8.11269
-37.3627
-44.6468
-46.0305
-33.1537
2.64318
14.8008
28.3956
47.6685
22.6856
39.0657
44.9498
24.3604
24.7898
30.8026
34.1468
37.6068
-0.267686
-47.0299
-69.5148
-60.0277
8.95542
31.4829
18.9292
10.5577
40.454
42.9389
2.09688
-61.034
-31.7762
-43.0453
-44.3688
-38.643
-29.0801
-36.8828
-11.3325
12.1149
3.27592
26.59
28.0638
15.5462
19.7197
16.6591
14.574
27.8492
-2.759
-10.0321
-14.2877
0.171635
4.14246
5.7437
18.6731
38.1586
-13.8172
-29.2016
-34.5345
-25.2142
2.46388
3.88866
6.50387
17.0554
-2.99087
-21.6965
-20.173
-8.34654
5.61672
11.9535
21.7279
41.1799
11.6609
0.2757
-2.40566
-18.6945
14.2566
17.3899
25.6107
37.2709
-32.2829
-28.8755
-8.73846
0.899929
14.3258
3.16116
4.8311
-1.46078
20.767
14.6516
-42.7614
-45.5202
-30.1457
-27.9159
-24.546
-21.2151
13.9188
42.6309
-25.6356
-46.1687
-0.548547
-1.01805
-1.86223
8.61878
38.2224
69.4528
44.5822
21.1189
11.3156
3.76137
18.5121
10.2556
0.935592
-5.30964
8.81433
10.9768
-35.1098
-50.6072
-28.8899
-21.9195
-6.27433
12.5679
35.4967
8.7924
-17.5341
-23.8692
-16.3149
-13.7367
-30.0179
-27.3608
30.4248
14.9552
-45.9365
-43.0201
-33.2889
-9.47708
30.5459
32.9875
44.3536
57.3869
31.1139
23.3548
15.9846
15.725
6.19112
-27.7591
-27.4643
-6.62809
9.47286
-50.4822
-40.9674
1.50548
41.2239
45.279
37.2173
45.7616
79.9001
11.4903
-20.6841
-34.7992
-9.70874
-13.1691
-48.4533
-39.5299
3.42168
-23.5252
-22.5107
-6.86146
-19.1341
-2.54911
-19.1823
1.23338
33.6016
15.3071
1.85797
-41.7975
-70.6101
-16.9182
23.2169
52.4741
38.8012
-11.8423
-15.2186
-11.2386
-29.4079
3.58568
22.8803
13.7483
15.5827
64.4899
16.2725
-24.3205
-13.8225
5.65383
1.2671
-0.78494
1.30217
14.9752
36.1766
15.0296
-18.4387
-17.89
-12.5678
-1.88034
-1.36081
-6.83532
-19.9921
-4.63513
-12.8496
-10.0138
16.4085
11.8505
-2.52852
-0.481239
22.1635
35.6742
1.94646
-5.65423
-35.3519
-45.7867
5.77414
12.8773
20.8368
9.10155
-28.1408
-8.78785
12.8118
7.50289
4.13404
-10.0105
24.311
0.380833
4.44553
-27.8375
-30.647
-27.2746
-16.4932
-13.532
0.512626
14.5647
36.6347
16.6847
-9.68312
-14.0674
-1.76341
-1.92996
11.6946
19.7005
52.6922
22.2764
-24.954
1.40079
-2.47752
2.32534
-11.9125
-6.83252
48.3586
23.6422
-39.0635
-45.2804
-32.7295
0.762101
-6.14728
-5.17426
36.1314
37.7321
6.77025
2.52918
-16.3406
-15.8986
-0.884618
-4.87147
5.70138
38.289
-19.6847
-34.5819
-31.8263
-4.17497
19.5743
10.5114
6.21133
11.0158
19.847
4.50949
-54.5559
-39.8068
-5.0695
11.4683
-3.98325
-8.6713
5.64001
47.1873
19.825
-19.1829
2.79363
-2.94641
-13.678
5.71841
8.01185
5.25517
33.5516
29.0437
-18.482
-11.5302
31.3225
34.6902
12.8638
-5.74434
3.43222
-16.8978
-34.2888
-39.4114
-43.0901
-27.2733
8.10069
23.1987
21.2203
-29.6968
-1.18182
0.0967749
-19.2626
-6.88219
11.247
17.3092
23.817
-11.579
-12.1284
-24.4063
-23.8916
14.7271
23.9717
23.5324
44.256
25.9959
20.256
-17.7709
-17.6397
-4.22963
-7.2893
5.0406
1.48582
3.06072
50.3355
15.246
-17.1358
-23.5412
-18.628
-25.9566
-20.3784
3.38715
22.2151
29.0232
1.84064
-3.04674
-3.40102
2.5394
-11.4272
-2.61466
-14.2936
-11.039
-6.95465
-37.6174
-58.1435
-36.6538
-12.6745
3.46545
5.26444
26.0088
48.1261
44.1273
-14.8551
-36.3642
-14.0808
32.0343
48.4479
51.8428
47.5661
33.9564
2.42638
-35.0376
-60.7898
-28.5076
7.93802
31.7113
17.5188
49.763
16.5733
-67.2495
-93.2859
-97.2154
-30.6729
16.0593
37.6205
53.8836
89.6769
85.6996
-16.2263
-42.9923
-13.6449
9.65
1.20752
1.49616
2.62604
-18.6698
-46.0849
-61.6033
-37.5109
26.4513
31.1242
30.8943
54.1008
48.5475
12.3364
-13.5899
-57.0866
-60.1385
-25.8038
-20.7599
7.09216
36.0934
14.7887
-10.2012
-23.722
-7.31984
19.8883
9.99615
29.0081
33.1841
0.0100266
-12.6955
-34.5437
-54.2819
-32.5439
-15.2655
3.0348
32.3246
39.9438
20.9504
3.25874
-8.3653
11.8061
23.2277
23.0234
11.6376
10.5563
31.7942
-3.92944
-52.4678
-31.8038
-11.8279
10.5996
18.4643
2.92596
-6.83813
-4.74712
-49.5288
-30.8632
21.7956
30.7692
4.9717
9.04761
13.1058
15.9751
3.86447
2.09114
6.46413
20.2896
45.0433
43.2551
18.5813
15.8859
13.8708
-45.7395
-60.506
-84.8786
-71.026
-40.1919
-24.9474
-9.36697
-5.01311
5.58172
18.0623
21.1444
33.1726
32.2236
2.8874
14.4531
63.0169
37.9526
-26.7159
-44.9183
-37.2113
0.615186
-26.3104
-28.2951
8.75454
49.828
18.7942
-2.10459
-6.74013
-17.3202
-23.6776
-22.5109
10.7495
35.4833
29.8737
47.4429
32.4261
15.1451
29.1064
-9.12442
-31.523
-27.0745
-20.3641
-0.202575
-5.84716
-26.6556
-10.3401
-1.2745
32.586
38.9077
10.6414
0.175903
-17.4126
-12.424
-4.08977
-33.2282
-28.9156
-16.2531
-23.992
-20.941
-22.1166
6.02207
30.6793
21.876
9.16593
6.85468
40.1346
11.4453
-19.2388
-14.8785
2.05121
-15.3488
-18.4544
-10.0392
26.0231
45.3744
31.6093
-34.6018
-34.1493
-34.7545
-25.9217
-19.2659
-9.36411
9.56528
52.0654
20.7014
-2.48143
12.3177
22.8336
16.6096
9.30281
4.11272
4.70325
-3.99694
-35.4375
-31.5828
-23.7775
30.4554
71.9522
76.4549
66.8009
33.0154
14.2929
2.44527
-29.543
-33.6529
-40.8382
-22.4765
-3.70166
-22.6317
-13.9624
-7.84046
-28.2954
-56.0007
-46.3728
-42.3236
-37.7979
-2.69594
-29.3437
-51.8343
-26.3464
28.1825
40.5599
34.4972
31.0625
47.3864
44.5047
4.22697
-16.7719
-3.84604
7.25283
4.17412
4.09865
34.5879
30.1916
-1.46729
-13.3506
1.03402
28.7185
46.9324
22.9971
17.1564
-0.958675
-33.5082
-34.231
-24.104
-20.2951
-8.55551
-10.1807
-8.28811
-9.00703
3.34157
-13.1373
-36.2194
-11.3225
3.26405
3.54854
14.7059
31.4927
36.0388
26.1445
-3.56934
-35.6044
-20.3605
-24.2135
-3.60082
5.93508
8.28691
19.5346
54.6098
22.0855
12.5079
32.5369
23.348
-12.322
-22.5422
-9.35673
-1.01002
-48.6972
-55.2452
-53.9628
-32.4128
4.82321
15.872
38.0722
52.9452
-6.15708
-22.5847
-33.0394
-44.2786
-35.3399
-20.5242
-2.48223
29.7331
25.9416
35.8221
47.4168
37.8503
46.3268
25.0827
16.9796
17.9423
-32.4527
-29.5937
-23.0985
-49.5285
-28.0838
-2.82198
26.678
-1.82901
-9.18509
-36.1758
-38.2977
-12.7602
19.1288
27.0186
32.1355
63.4117
40.2476
-9.06048
-28.5366
-25.892
25.7769
36.3994
29.298
12.1868
47.2581
2.57396
-62.3012
-46.3258
-24.5577
-19.7454
-35.371
-29.8791
-1.45307
19.2461
16.2066
-55.602
-37.5991
-5.4755
3.92458
4.16421
13.0123
21.2762
25.245
-31.9869
-28.0954
9.19285
32.889
50.7215
56.6144
63.5188
48.8911
-0.00631052
-26.2657
-40.5491
-55.4768
-41.7265
-20.851
23.202
39.7209
18.5767
4.53247
-10.4913
-27.6073
9.84007
-0.465376
-4.38978
12.515
11.8927
-33.1232
-36.045
-23.5252
-2.94909
-6.01306
-13.9343
-9.74827
30.9112
37.5664
-11.7607
-18.41
-15.6353
0.740747
-2.57825
0.0327006
39.9199
38.9624
-13.0941
-32.1036
-39.0497
-2.89877
9.94471
19.4799
46.4866
67.5437
35.4106
3.84586
-5.02883
-3.15571
-0.000240315
-26.4487
4.29592
9.05269
-35.7506
-46.0005
-51.8342
-20.4828
51.7634
45.8653
27.0945
23.5307
-7.46707
-40.8883
-54.7474
-44.4869
-19.2675
-14.0647
-31.3332
-16.4534
19.0921
16.2863
10.0992
19.1738
38.5485
26.5586
4.86687
-17.8478
-15.1556
11.7738
8.99883
-24.0269
-7.9555
25.1953
33.9836
20.8405
23.9538
39.1113
49.5417
-31.611
-61.4939
-49.1788
-36.9102
-11.2683
18.5009
36.76
50.7997
18.2772
22.7276
8.83768
4.69565
4.74398
-21.098
-26.536
-8.10431
-44.2983
-50.5886
-43.5125
-52.0895
8.26416
41.3099
69.2929
82.6038
7.0892
-54.3228
-56.3438
-59.0422
-28.8704
-18.4208
-2.76943
11.3804
46.4712
46.4549
30.8955
13.9093
7.5564
10.2573
3.22204
-0.907659
28.9748
24.6712
-1.54112
-9.70114
-6.10954
1.81716
-5.0692
-5.06427
1.97222
-21.0869
-77.2632
-56.6397
-28.9498
-2.91278
18.8363
0.369459
14.307
37.4588
13.6189
-6.60089
-14.8691
-5.50928
22.4339
29.8334
61.2262
66.119
62.2753
52.2723
-34.3546
-51.2787
-16.3353
-21.6613
-35.4073
-31.6283
-15.3941
17.9831
-3.9882
-14.9022
3.54252
-11.103
-37.8031
-38.7085
-38.3715
-33.6097
17.3783
46.8696
20.6848
19.3507
32.8799
5.41363
-7.65983
-6.17871
20.4521
20.3491
-23.0161
-46.5529
-35.4207
-27.702
3.64587
37.3418
53.888
44.4981
-10.4805
-30.2245
-51.9344
-50.2742
-25.3487
-18.8646
34.749
63.1055
47.1082
55.2914
30.4663
12.7186
15.3558
-3.86394
10.8879
-11.5805
-38.597
-28.3076
-10.7728
2.37887
31.3198
22.1371
5.88282
11.1422
-21.1706
-39.6125
-35.9471
-21.6086
19.4893
-4.33879
-15.9932
4.9869
19.3901
-14.909
-8.34641
12.828
22.6926
15.227
-1.81722
-11.929
6.94935
-6.7445
-28.1648
-35.199
-27.0197
-23.6724
-2.30286
8.56359
17.4435
31.6853
44.2858
-7.36641
-31.5355
-0.516489
20.4178
0.521644
-24.0651
-14.0917
20.848
-10.7291
-15.104
4.78173
29.7645
48.1805
52.5081
32.8583
25.101
-10.4248
-27.9023
-37.8088
-56.4752
-38.5527
-15.0448
4.30278
9.0346
35.5057
23.897
-25.5781
-35.7149
-14.6362
-27.0043
-22.2369
-11.0178
7.21064
37.1229
40.8513
29.886
48.7775
45.9588
27.6401
3.96187
4.22498
19.4763
-19.3412
-29.6079
-43.7168
-33.8964
-16.6926
-34.7183
-4.6028
41.8141
-12.7336
-23.2279
-29.6492
-26.1648
-3.82097
-8.61495
0.77487
-17.6549
-18.1355
13.988
21.6811
5.9933
19.0032
19.1917
45.812
34.1405
26.0067
13.9927
0.835064
-22.893
-9.56115
9.7
42.1872
35.3351
33.3805
-26.7456
-40.8704
-34.6412
-26.4557
-29.5499
-18.522
11.14
44.6942
-14.6958
-48.8633
-26.1458
-5.94471
0.761169
10.3163
18.6525
30.4059
15.6981
5.38425
-39.7583
-37.1751
-1.85149
-3.23533
4.54449
-0.840392
15.5826
24.9814
-18.4017
-29.5343
-0.265791
6.75631
9.93287
3.77809
15.4694
-15.6488
-6.21909
16.6372
21.5837
9.24697
18.7668
12.7104
65.0972
37.4472
21.5478
10.1386
-9.97852
-21.5816
-25.0701
-44.031
-27.7344
3.83001
-1.39902
-12.0529
-31.2909
-20.5203
-12.3303
5.14544
1.54389
-19.1307
-3.18097
-18.487
-55.8925
-36.5806
-20.3367
0.448634
12.4429
20.2874
39.5035
45.2589
19.3619
4.94442
22.7548
38.708
43.1373
45.7804
31.1521
-13.9422
-51.9268
-57.0968
-47.8075
-20.923
11.2714
57.1338
102.195
85.8671
-15.9593
-32.7719
-20.3265
-20.1375
-28.8629
-30.5717
-23.2341
2.85522
1.35362
-39.6858
-57.6312
-32.4808
5.36489
8.4537
11.8398
8.61849
14.217
19.5256
-47.6403
-72.6892
-1.36059
11.379
4.70319
12.5049
40.8549
57.1556
59.8936
-13.9569
-32.81
-21.7372
-13.2768
10.9991
9.12033
17.6476
43.8592
21.8889
9.84121
-30.0284
-32.626
-9.98759
10.1461
44.3865
70.7744
21.9058
5.74833
-12.2253
-11.4958
-1.62628
-19.0165
-2.79394
2.88773
-34.0038
-34.6796
-39.5374
-46.5828
-38.7616
-46.4979
-15.5303
5.16099
2.22932
14.8257
2.6465
-7.2446
7.1867
15.7017
13.9764
34.0588
37.7876
42.3596
-1.26963
-14.6363
-15.0423
0.68403
13.1054
2.8606
32.8293
53.1175
-12.3066
-26.1324
-1.29075
-1.26465
-15.3315
-23.9142
8.59595
40.1998
-14.3887
-55.0745
-27.1825
-9.03158
15.4468
2.49643
14.4067
24.8685
22.0744
16.1498
-23.4607
-27.326
15.9062
37.8282
27.5155
14.894
39.6998
-8.02816
-79.0014
-96.7133
-64.0137
-40.8894
-19.4929
2.91021
58.9052
100.666
58.5263
32.0822
11.7558
-22.9376
-42.8233
-43.9275
-17.4222
-9.97119
14.612
10.5881
-23.7173
-12.9592
15.0097
10.1364
16.2889
39.0627
59.7065
37.1167
-40.1078
-66.933
-46.5661
-41.3905
-38.1293
-14.7678
50.8706
28.3456
2.22948
3.96008
7.80178
7.06124
-4.87062
-5.47439
30.9497
14.4117
15.7813
2.74685
-6.83593
-0.406225
22.7991
33.4655
63.356
-12.2994
-44.0484
-26.3076
-29.6193
-15.5198
-4.48994
-2.70849
16.4756
20.5798
-16.8151
-22.232
-21.3546
0.145538
8.71397
7.24242
-0.0657115
-5.08771
24.4045
1.35295
-47.0773
-12.6613
-0.232289
-5.65612
-7.86258
-8.50917
17.3214
26.3886
-34.4026
-37.163
9.84123
41.2675
42.0805
31.9293
14.8605
-8.31539
3.49483
5.97031
-24.9258
-30.1965
-8.85695
18.3101
14.8453
-1.57395
10.3303
19.0181
-30.6485
-48.0476
-26.9605
-13.168
4.01562
15.0338
30.1406
21.4973
16.1981
19.0423
-9.75476
-10.3927
14.3582
11.0634
21.0194
19.3778
-2.32105
-3.38729
-2.91451
-7.18721
-1.28476
-11.0534
-10.1913
-12.8728
-15.2246
-41.5861
-47.6516
-11.6698
-7.78123
-30.2846
-27.8151
-19.9868
11.5771
27.5772
9.23228
38.5647
78.7679
73.2804
37.9427
15.6402
33.436
7.90452
-15.6295
-17.5377
-17.9288
-16.4034
-27.5078
-30.6456
9.45708
-23.8641
-32.7949
-14.0624
-10.6298
-14.2421
-9.12614
-6.58447
28.4347
19.8129
8.64853
-37.8314
-41.7123
-16.6076
2.72927
1.53955
3.13685
28.5615
44.3959
13.3531
-36.3957
-6.98276
23.5858
22.638
5.50953
-8.27017
-9.06415
-8.40575
7.14886
-1.84752
-9.43205
33.4732
42.555
51.8603
48.0319
35.2498
15.3092
12.8483
-11.5038
-16.2797
-11.7951
-4.72279
-17.6757
-27.6067
-33.9602
-22.6553
-36.9206
-58.0786
-47.7614
-19.1985
-12.756
-7.42944
-8.78134
8.48632
-29.0415
-34.2535
-7.45088
-5.7386
-1.08101
7.01615
35.733
64.7602
41.9464
38.8344
26.7322
16.5631
27.7823
18.0226
-11.7779
12.3195
33.9146
41.5378
-16.5184
-46.828
-4.20531
23.0393
15.2161
16.981
12.5473
-16.3342
-71.8608
-88.0471
-67.3504
-43.2464
-15.5503
21.1389
54.8587
14.7152
-31.3251
-21.7582
0.798657
9.42214
30.2485
28.3169
38.9152
60.9668
34.0692
-53.386
-60.1369
-24.479
13.7078
26.5921
36.3038
36.4633
53.5943
18.4328
-18.5238
-5.29884
3.73859
-2.93599
-18.8874
-17.0777
9.56365
-31.5145
-43.0627
-54.3042
-33.1878
8.41336
12.0069
9.57792
48.9232
39.7392
3.37733
-47.1989
-61.2334
-43.8324
-26.6124
-6.24703
0.359392
-5.79538
1.29774
-39.4534
-36.4085
13.9836
36.4252
32.1484
42.8544
79.737
82.9697
49.0605
23.9735
1.20726
-8.85328
6.50346
15.6449
49.2249
4.22569
-30.006
-27.0336
-36.0943
-42.601
-20.6129
-26.6366
-2.61238
0.70614
-40.1988
-40.7279
-43.3821
-50.1581
-24.5042
-16.1348
24.4952
27.6267
13.629
13.5747
22.7774
70.8945
84.2033
64.6411
46.7053
35.4136
26.4013
-57.5786
-90.3278
-76.4607
-31.0557
-23.6078
-23.757
-23.8464
-0.000235893
17.9068
5.32111
2.60213
-2.3382
-9.20415
-23.3257
-22.3684
-11.1814
3.82993
16.4092
-15.09
7.06003
69.258
72.0681
44.3946
32.9001
35.0474
44.1567
2.20217
-14.0889
-35.9167
-32.1062
-4.76443
14.4366
14.5601
-25.1576
-83.0389
-80.9833
-61.3479
-35.6116
13.3116
23.9471
42.5685
33.2125
16.2017
14.6511
-1.90761
-15.9531
3.72002
-2.74502
2.40302
30.4582
19.5215
4.37586
1.21587
-10.9219
6.08209
18.4964
13.0241
-0.879421
8.202
-36.6353
-33.4668
-8.07067
2.83402
-9.67317
-18.9302
-12.2061
11.3847
-3.49829
-5.4541
-17.3663
-3.95826
25.5344
31.8733
38.4815
52.6984
-14.2321
-30.4826
-18.2642
-17.1052
7.7636
20.6637
31.1281
42.291
-11.6402
-14.0517
-11.3249
-17.5435
-3.92372
-13.8655
-20.0072
24.2386
-3.81205
-59.4305
-48.6041
-39.4997
5.79241
18.4662
13.4331
14.0184
60.6716
39.911
-15.7539
-35.5068
2.83732
13.7682
-4.13447
-13.1212
-3.23806
21.8889
65.1903
34.8822
-28.9546
-24.3721
-28.2199
-16.8237
2.49634
0.548538
-2.38248
6.47715
-41.0711
-33.8605
6.39101
18.7454
18.1562
15.396
28.3926
43.4793
6.40494
-7.63801
-21.748
-26.6963
20.6621
27.026
27.4739
4.10032
-19.0501
-14.3714
-9.34742
-19.8819
-11.4182
-4.64936
40.5552
38.7502
-10.927
-24.8331
-50.6144
-59.437
-29.8166
-30.0694
-47.4479
-27.3321
42.0824
36.0349
-29.0446
-8.20025
26.2538
32.3729
20.6898
-0.568982
27.8838
53.1751
-24.3753
-40.3921
4.71044
19.1072
29.1731
33.8783
51.5846
58.4301
11.3891
-1.79517
-5.54408
2.07962
14.2329
-1.77651
-0.522968
21.8256
-6.33121
-42.7327
-54.3336
-64.6513
-51.7704
-32.8365
5.517
40.4595
63.238
23.7083
-32.1834
-47.0591
-39.0387
-49.4197
-61.1628
-43.1233
12.817
8.85122
-13.4788
-16.1865
6.85145
21.9922
24.3497
35.9326
67.4295
84.4203
53.3079
-9.09878
-22.22
-4.79098
8.23871
5.19829
19.3401
49.5499
56.2603
-10.7544
-36.1063
-23.7465
-0.00571843
-11.0656
-16.0093
7.16169
22.1578
-29.0581
-16.4898
-8.69611
-15.168
-19.2265
-22.1175
10.3744
15.2885
-24.7323
-28.3026
-47.9555
-41.5724
0.0696275
17.7163
36.1285
10.3829
-13.8001
-6.70108
5.36245
-2.88342
20.0018
21.2339
30.6724
-16.4579
-21.4065
-18.1628
-19.2804
-16.4977
-2.12535
-4.52782
-8.0422
28.8671
27.3501
5.89788
5.17939
32.9992
48.4375
40.3936
15.2482
6.26397
21.5628
3.67618
-26.2894
-5.94424
0.0768171
-7.96241
-15.8707
-9.24433
-2.31424
23.1125
47.5634
-8.98877
-11.45
-0.593484
-34.6841
-57.1603
-37.4269
0.451691
30.844
-34.0748
-64.2204
-57.341
-42.0511
-10.2833
6.96085
35.5244
54.9309
-1.08287
-9.01699
-10.4052
-7.18303
7.20826
30.5971
39.5509
87.8308
66.3196
-9.82647
-30.1611
-41.2144
-23.038
-9.21765
-2.35417
1.10728
25.7506
48.0338
-1.61835
-43.7961
-0.465478
29.3024
34.8342
12.1335
16.8027
45.7138
-5.37282
-58.3841
-54.2494
-21.7431
-13.0724
-12.5786
4.55655
13.6774
-32.2013
-65.8284
-54.3327
-38.3199
-6.85877
18.3646
40.2397
57.4455
23.5418
3.31884
10.6354
12.1051
37.2581
34.6711
27.3584
30.1632
-8.91322
-40.7334
-21.3545
-7.33129
23.4837
47.7901
34.7672
26.7292
43.4089
-33.5212
-62.4812
-75.2168
-65.1917
-50.7553
-51.8258
-61.0489
-42.7067
9.60682
41.2842
5.59758
18.7946
32.6484
27.1269
19.5307
23.1896
45.4017
81.4815
36.5277
-47.6033
-12.5865
18.0053
18.2395
-1.93567
-10.7792
-5.75941
4.91355
-36.8905
-46.238
-25.6686
4.75831
17.7668
28.0162
33.1037
32.5127
-5.57548
-22.9585
-44.0695
-39.868
-14.6719
3.45879
27.9714
42.7242
20.3177
8.6812
-0.859915
-17.4027
0.0885407
-14.7556
-16.6299
22.1902
-5.13429
-6.19378
-2.72443
-2.98245
5.72677
-16.927
-31.1485
-4.32579
31.0268
-0.606856
-30.7545
-52.0206
-24.7633
4.76809
11.9371
42.8983
85.7961
18.9952
-11.4989
-28.866
-8.42395
-3.20903
-7.61611
-3.3915
21.8506
7.0855
-4.87601
-14.9901
-21.4741
1.16865
-12.0797
-9.08919
55.2115
25.2529
-7.82837
-18.8022
-16.6607
9.71805
2.34106
-5.02243
26.4839
55.5293
-18.1198
-46.0039
-29.8731
-11.335
-1.24384
16.4797
29.8744
67.844
71.0266
-11.819
-46.3059
-33.8769
-35.6706
-51.4649
-58.0342
-25.7305
19.2282
48.4289
19.227
0.185098
13.6003
4.4153
-3.76639
7.2174
17.9569
21.9783
-51.5483
-83.4915
-66.2441
-6.12526
25.8237
58.089
97.0862
86.7298
35.281
18.954
-29.4983
-78.967
-67.4484
-56.3241
13.0584
24.5399
-3.42334
3.74916
-0.4198
-14.2922
12.0965
29.2704
37.3644
25.5368
-18.6112
-25.8551
-28.2698
-29.5275
-4.37697
2.55516
24.6753
42.2701
10.5213
-2.37675
-3.52889
4.86138
-1.37904
-16.9627
-22.1401
-19.0586
21.3179
-21.4567
-26.099
5.79279
28.1484
35.192
27.24
43.0336
76.5074
54.4646
-41.2235
-51.535
-27.6982
-28.1903
-32.4399
-31.3565
-19.2178
2.10278
-19.164
-34.6291
-29.4401
12.2969
18.5433
9.63454
10.7446
20.8447
-16.0781
-40.1855
-44.0646
-27.2718
23.7458
28.9335
43.93
60.1292
29.1356
6.00108
17.2577
5.66199
9.71221
14.0206
22.1529
50.0285
37.3822
-20.6136
-39.7831
-53.6942
-46.5393
-52.4076
-57.1829
-39.2252
6.96544
29.8542
-0.312055
3.0818
26.993
38.3843
34.7138
5.4652
14.8435
49.1942
-6.08244
-20.418
-21.9742
-23.7594
-45.8117
-46.1278
-18.4966
5.78131
-14.5052
14.524
29.602
34.241
49.3362
7.20828
-7.57696
6.6186
-19.6112
-13.8187
-11.4434
-30.1582
-12.4986
-7.51146
19.8312
59.3758
9.41183
-5.65576
4.31977
13.153
33.595
29.9688
23.3078
18.8665
-17.5097
-35.2461
-35.1567
-42.5595
-23.1615
-14.724
-11.5539
-13.6221
16.1647
31.6912
-10.8429
-2.74861
37.7371
13.6651
-11.1932
-18.6123
-15.4506
-15.1216
-6.78469
-41.7221
-76.7652
-53.4729
-17.5767
10.0196
22.2388
36.4572
86.8278
46.4746
6.71355
-1.5866
9.18114
9.06529
25.322
40.6398
54.8299
8.94593
-17.8477
-20.357
-22.7498
-13.35
22.1391
36.6128
64.3689
8.82654
-37.6333
-31.6594
-49.7502
-30.9792
-13.961
-25.2295
3.49443
34.113
-29.2832
-52.299
-36.7622
2.95083
23.5983
14.5682
6.64888
-9.0487
0.530417
-17.7245
-63.7865
-45.7142
-16.6451
6.71626
5.27158
8.69471
42.1109
7.4568
-41.7132
-43.9326
17.5603
50.6523
61.6347
93.5107
108.81
56.5324
33.0487
20.0624
21.1261
14.0208
-10.5879
10.1127
15.3344
-58.9354
-74.2135
-56.9527
-54.6771
-20.5436
0.098171
-5.10946
5.43468
18.3539
15.5037
-43.5497
-75.585
-66.6041
-56.4332
-37.432
-41.0965
-6.93133
43.1057
4.85726
5.01802
29.2033
18.7828
38.1767
35.9998
34.0825
39.5919
46.1518
15.9187
11.9399
-33.1628
-46.2062
-20.3643
2.99858
-2.04722
-3.58912
-8.3319
2.35368
35.7216
76.1057
55.9684
46.92
60.0612
21.2649
-6.70562
15.0092
20.8094
-8.36304
-15.8364
-28.8454
-25.0737
-77.2373
-70.6247
-28.9052
-65.8391
-89.4484
-60.3242
-16.9705
2.32797
-51.8206
-57.0285
-51.5312
-36.1718
23.6706
30.2457
2.58925
40.6294
59.5237
78.8975
81.3992
53.2218
63.1952
51.7868
39.5294
91.6136
127.744
88.5897
22.0966
-57.1596
-61.322
-32.9031
18.7247
18.5159
-17.3774
-68.3019
-72.6102
-77.8284
-77.9172
-74.0296
-54.1158
-23.534
22.2212
35.0424
2.01762
-19.4445
-2.28911
19.133
-20.104
-74.1788
-20.6063
62.315
54.6375
43.045
43.9441
72.3201
103.492
99.3256
44.8092
-24.8389
-164.612
-230.035
-215.498
-199.024
-124.155
-48.9045
22.626
109.41
152.203
113.949
83.0783
52.0944
74.1568
88.0437
88.4414
85.665
41.8732
-17.0607
-63.506
-27.2485
71.7188
135.307
171.681
137.834
63.6237
26.6864
-111.885
-190.541
-179.897
-92.9817
-32.8906
-25.3858
-45.9656
-55.1293
-104.712
-109.515
-93.8902
-87.6438
-68.394
-47.4597
13.0841
74.2959
63.1895
65.5699
64.2134
43.7904
84.3798
100.411
82.8025
98.7207
23.2917
-48.8791
-78.9067
-97.156
-60.7468
-72.9572
-74.4625
0.532818
70.4334
29.2593
2.31736
-24.7635
-25.4096
10.6984
43.7438
43.8698
81.3876
93.4919
-2.58627
-29.1131
6.44947
51.6515
80.3646
39.2509
-7.81092
38.7438
7.93598
-61.2147
-34.467
12.1379
-3.84895
17.7378
83.066
73.763
-9.94902
-106.23
-154.35
-169.508
-156.355
-147.528
-75.5152
2.18411
14.5125
43.0688
38.9097
33.5641
113.394
123.351
88.5357
120.923
130.523
53.8254
9.63131
-47.0971
-52.0622
-37.4932
-75.1364
-84.2544
48.3927
79.6746
-31.8689
-70.5014
-61.7223
-59.0073
-24.936
15.0157
43.1933
61.4012
12.5502
-42.8874
-102.937
-92.8386
-65.2171
-30.2816
20.775
55.6663
60.1534
77.2108
74.0887
77.5719
116.414
67.6036
-15.0973
-6.60586
-32.6918
-44.1104
-72.541
-101.822
-96.3701
-72.2224
-20.1725
44.1572
38.8903
-1.1693
5.16126
14.2747
39.3139
42.9198
33.3544
17.8266
30.9967
31.1614
23.1853
11.6867
17.1774
-4.93999
-7.35859
-10.4075
-7.15439
12.301
-24.9716
-66.5087
-78.3801
-63.4071
-48.9136
-0.920874
29.7004
40.1259
67.1877
0.285285
-53.9079
-50.8399
2.87341
8.61776
10.6384
10.8649
8.24214
8.79414
28.5587
41.7328
66.5132
71.6098
52.8616
47.4741
53.2609
17.3843
-22.2439
-41.4614
-93.0317
-74.9358
-24.1534
-31.4066
-37.4569
-98.3346
-92.2834
-30.6189
21.2754
19.2675
12.4842
29.9021
63.0083
24.0675
-5.00285
28.2994
55.9493
51.5384
10.9535
-3.10508
-16.5658
-14.7918
-6.14961
-44.0317
-8.93598
77.4918
89.9628
31.2195
-19.3241
-3.21105
43.93
-30.4582
-86.2426
-33.285
-35.9327
-54.7726
-52.5635
-46.6326
0.187713
6.05199
21.0268
14.9083
-2.46793
8.93866
-27.3141
-33.9392
54.2012
108.081
50.0314
-25.3936
-108.202
-18.4003
69.8412
102.77
95.1255
42.1661
7.64632
-23.2041
-49.5921
-73.4869
-89.599
-53.1106
-26.7224
0.499494
55.9647
98.5373
44.147
-10.5508
-48.0835
-15.164
1.4535
-67.3114
-60.713
-15.2622
5.20243
15.912
-27.9447
2.66202
44.2275
68.9302
85.1956
78.5893
51.5656
28.4468
-89.7061
-153.667
-136.305
-101.483
-29.3885
23.3464
62.2605
91.5805
32.0423
-36.5447
-35.4367
0.139375
39.3669
66.0641
81.4295
59.8857
8.10054
5.45167
17.6256
-32.3053
-7.60922
-19.6589
23.847
102.941
21.0647
-57.8178
-47.7609
-30.2615
8.36988
17.6599
53.0916
45.1831
-61.7649
-94.4899
-101.984
-77.5501
-37.6695
-13.3493
-8.91573
14.7876
41.6118
23.66
-11.6733
-65.9703
-65.9901
-19.422
24.5059
24.6788
-5.96483
11.1187
35.2891
17.622
134.764
135.722
58.9843
32.774
7.23215
-41.7068
-74.317
-98.3456
-59.687
-29.3855
-17.703
-18.9407
19.6794
98.6171
117.021
55.4539
18.2906
-9.48775
-43.152
-44.883
-51.8761
-32.1738
18.1592
-22.1829
-1.02621
25.4558
11.9637
26.4457
18.3917
33.9889
31.3471
-73.3702
-58.5425
23.9246
16.204
-27.5833
-10.8252
9.31934
4.2118
16.8092
-65.0477
-108.609
-95.2549
-4.83232
37.4713
26.0993
29.3835
67.3582
28.4285
36.0468
41.249
74.3507
73.4882
-54.2461
-76.8369
-24.9938
-50.7546
-42.9128
-29.9701
-52.5176
-17.6138
31.5196
46.8529
53.0841
-1.38165
-25.0257
16.8349
42.4219
18.5049
-14.9628
-17.4512
36.0757
8.1488
-50.2683
-47.338
0.742866
27.7226
-11.0155
-21.5533
27.5563
73.9032
105.895
57.6667
-11.2725
-66.7875
-67.7706
-61.2652
-88.8662
-12.6381
40.7201
62.9447
63.3583
10.3497
-12.9577
8.71908
23.7668
26.6711
-3.45634
-55.3348
-48.6466
-74.0123
-150.302
-54.4239
1.2468
58.5955
117.174
129.569
146.938
107.328
-5.42198
-57.8249
-63.9645
-14.0499
-17.298
-99.7479
-77.1663
-35.2586
-52.1931
-32.4907
-21.1239
11.9899
74.6194
57.7436
52.2355
74.6296
58.0534
23.3888
-2.63528
-2.57487
-3.19734
-60.6203
-85.7111
-33.1856
-11.2249
-40.2898
-119.071
-111.474
-49.0626
-0.84917
25.2934
13.895
68.0979
125.456
44.9537
15.4319
21.687
25.1498
47.6025
28.6986
37.9124
86.9642
59.9232
7.01773
25.7426
105.28
82.917
-7.61857
-32.762
-24.2344
-87.7622
-78.9048
-100.332
-132.561
-77.5645
-44.9158
-11.7136
19.0513
33.8699
-33.2974
-78.6718
-69.2326
-45.2589
-3.63806
13.8345
-13.5514
36.4958
85.8366
91.8555
39.4494
34.4515
50.4822
24.4268
-29.8258
10.1703
9.09914
15.7564
-1.57141
-90.886
-62.5861
-4.55385
-7.8213
-30.3247
-35.2962
36.5861
93.6836
104.803
8.71509
-39.2929
-16.8379
30.0282
31.9923
23.2473
36.2626
28.3142
-27.6611
-35.2045
-39.1788
-20.6674
49.304
118.442
117.101
76.7686
-24.5416
-133.954
-207.473
-188.022
-66.4067
-15.2603
13.7015
35.0365
30.996
65.6434
48.3062
-1.26038
14.9426
-7.80053
28.2786
59.382
-4.24491
-121.168
-165.589
-95.4582
34.3714
99.3284
144.069
148.581
150.93
125.886
38.9312
-10.0175
-17.6797
-73.3712
-124.498
-197.872
-139.52
-58.0468
-33.5305
-98.6782
-93.553
-22.2041
52.4387
114.59
122.981
85.2474
76.5577
52.1092
-23.2855
-54.1572
-21.9408
65.9621
75.5145
14.5551
57.2533
171.419
121.194
-2.22206
-119.441
-109.308
-22.5031
-5.20007
-3.55301
-8.47713
-24.0734
-69.3915
-84.655
-90.5587
-49.1529
-9.46364
28.3165
-14.4553
-63.8972
-31.6244
-12.727
14.2506
17.1713
4.70254
25.3047
53.4756
28.2642
39.9591
-0.663035
-62.8566
-25.5282
27.8495
16.5954
19.2948
25.3316
53.4725
58.2515
16.5279
79.3523
76.5355
-23.5507
-103.609
-102.462
-20.4032
72.1305
72.9623
86.3035
84.2881
34.6157
-0.0459493
-28.4418
-18.2124
-13.993
-45.9595
-63.9009
-112.619
-167.306
-115.889
-86.6634
-25.8993
18.9342
-19.8168
19.9866
86.7504
95.7031
73.9289
-53.1003
-134.705
-27.8736
43.8172
43.3383
35.4724
23.879
75.7661
97.5689
92.3274
102.115
113.04
112.356
72.6572
43.7137
38.5736
-21.2599
-154.713
-251.887
-225.52
-149.474
-62.7134
-37.3655
-74.458
-64.285
10.9237
91.3638
81.5477
64.8433
75.2511
86.2294
71.7763
21.9829
-40.1948
2.9956
19.7279
24.9605
52.9849
54.7531
-4.84317
-28.1265
13.5393
22.1468
11.9851
-18.4094
-7.28454
-49.2554
-68.1266
-49.5429
-73.7492
-28.837
-9.04145
-19.3424
6.67674
10.3541
54.3845
27.4302
-33.0235
17.2785
94.7483
74.4427
3.54525
7.80189
64.9175
52.5721
-31.929
-61.9058
-68.0115
-126.747
-106.462
-89.4558
-98.5539
-48.425
-32.4379
-18.4697
0.217716
27.6726
62.5447
53.3892
55.296
130.295
134.043
98.0797
77.1515
89.7205
64.1922
23.2057
14.1174
14.2545
-66.3284
-156.049
-134.897
-64.7534
-14.9185
-22.4527
0.215752
-30.2372
22.0196
45.8997
29.4238
-13.1189
-28.6038
-66.471
-55.8784
-15.6242
72.2207
165.24
70.857
2.31442
41.703
-44.2118
-177.634
-153.286
-78.0048
-82.9869
-48.0122
1.36259
24.7999
31.9933
62.1812
91.6118
132.794
179.846
152.932
75.5281
0.480353
-63.5256
-42.3426
-12.1222
5.82007
78.6978
84.7616
-23.5146
-69.7357
-15.0986
-33.1745
-21.7699
-11.9093
-11.1684
-47.674
-98.3014
-77.7667
-97.9381
-108.9
-94.1713
-93.4194
-47.2456
-16.4168
47.4886
120.225
141.21
91.1111
1.90746
-54.6004
-48.5368
-7.2562
-54.3273
-53.0218
-16.547
19.3195
19.9066
17.4045
24.4774
43.1686
91.8772
55.6704
-60.4202
-43.0335
18.5102
34.524
73.7072
116.32
122.486
140.463
29.235
-34.0937
5.45196
-42.6992
-67.7089
-32.9383
-19.2351
3.22796
38.0609
-46.414
-124.774
-123.836
-49.6327
25.776
39.8696
13.5444
1.83018
-30.4635
-88.0429
-107.464
14.9367
31.3923
43.0285
33.3169
12.2547
-19.147
37.7947
32.1741
-20.6738
-8.38111
19.6767
31.8438
47.9236
-5.79157
-30.7145
-44.427
-72.2637
-37.7275
38.1662
65.5624
74.7821
80.5195
24.1463
30.1147
13.234
-19.6205
-46.2701
-37.4251
-33.0092
-40.5655
-23.4738
12.3973
36.3631
29.3606
-41.3197
-39.4272
18.3201
28.6553
55.4836
56.0101
4.1975
-44.2003
-20.8782
21.88
55.8393
-6.88963
-54.1651
-65.768
-84.228
-55.6309
-50.0742
-38.5139
-37.1437
-38.9415
9.96728
24.3436
31.1137
64.9362
39.1598
7.77907
5.70606
11.9029
27.2866
-2.91775
-27.1744
90.6375
120.244
58.0798
18.2117
12.6225
8.78987
-1.97362
-26.5603
-70.1037
-68.3437
-10.7356
28.2258
42.2404
-31.8104
-28.209
89.0466
94.1993
-5.05331
-51.7468
-44.7029
-55.9412
-44.8167
-64.8989
-75.4141
-129.654
-137.41
-75.7081
-27.9317
51.3079
58.2186
97.1239
120.847
99.5081
88.8107
63.9923
0.648154
23.3664
87.8347
73.2143
-6.08411
-14.1611
11.7766
14.389
7.54117
39.4529
50.5377
2.32975
-5.06459
-11.1741
-39.0839
-115.59
-166.65
-140.015
-63.9013
-50.5455
-47.5313
-53.5633
-54.8757
-31.13
0.0869428
36.1471
15.1364
-28.5607
39.0879
98.1377
67.1433
37.3481
37.8075
50.8274
49.0107
30.5508
29.6973
25.688
8.18021
21.0476
-21.1486
-53.9441
-29.8413
-9.13403
24.3968
31.4979
-26.2229
3.24332
4.79644
17.8041
30.9121
37.2471
-12.2844
-10.1567
20.5225
-35.6102
-62.5189
-62.084
-50.3172
-42.7372
-11.907
14.6663
34.2304
39.5151
19.183
28.6585
97.1326
128.716
55.0691
-16.8318
-69.1659
-56.6006
-15.9844
-79.1938
-127.779
-62.1465
42.4415
154.587
160.551
122.588
41.9108
-109.172
-226.688
-303.689
-298.984
-260.362
-119.113
34.8555
119.277
130.423
181.288
188.223
161.002
184.302
205.721
188.564
63.5446
-58.3471
-53.4935
-43.5081
-25.6959
14.9755
84.2699
168.905
140.79
38.6263
-61.4713
-152.219
-168.194
-120.974
-98.474
-125.94
-89.4231
-49.5536
-79.0031
-81.9294
-99.7606
-95.2741
-75.2664
-45.348
-39.449
33.1431
0.356013
1.84521
63.9367
107.584
97.2605
87.0304
81.0875
68.0801
49.1221
22.1897
-14.9901
-14.8389
38.0747
41.7087
2.20296
5.84095
57.5063
9.27063
-27.4469
-0.123134
52.557
70.9564
16.5505
-15.4006
-1.00813
-41.6643
-68.0251
-58.2558
-9.14101
10.8531
4.34597
9.89875
20.5404
-43.0373
-36.6414
-5.84229
-12.1395
-4.30376
43.4635
62.9836
74.931
73.008
42.4469
-0.890983
-59.9852
-78.2072
-87.9956
-121.957
-142.799
-58.5586
-21.752
-65.0629
-109.296
-47.3987
54.1404
44.1005
-17.6243
52.9658
89.4964
41.7964
44.5502
28.3196
51.0071
66.065
24.8869
31.1815
91.3301
118.318
98.4685
58.3847
43.4407
26.8388
46.4284
49.842
-57.1953
-76.614
-78.5865
-87.2184
-108.225
-74.2274
-32.217
-15.1116
-60.4952
-69.8909
-50.9008
-48.0372
-80.0994
-49.3705
20.1411
40.0824
48.4499
54.8657
27.433
-2.13703
23.5369
32.8543
44.3745
43.2705
46.5668
57.1007
35.3851
-27.9788
-30.8324
-16.6843
-14.8657
-35.9629
-56.8186
-43.0675
-26.334
7.92754
-16.8402
-23.6153
41.0616
51.8593
38.811
4.74143
-9.33393
30.8894
43.2824
19.6961
-22.4333
-24.2842
6.70404
29.7874
63.0195
102.781
88.7541
35.6601
-29.1391
-81.2688
-60.799
-3.57089
8.2833
-57.5393
-113.425
-70.1742
-43.0905
-74.6298
-51.1358
26.7809
104.038
100.914
56.7256
-30.4336
-40.0881
-75.556
-127.762
-127.095
-66.404
10.7654
71.3245
95.425
20.534
47.7033
124.529
149.462
169.693
145.681
54.8278
-97.4805
-182.56
-178.63
-151.029
-106.531
-99.1355
5.65799
131.259
159.841
104.493
43.2859
-7.70378
-32.3098
-5.73824
46.701
110.147
99.1874
0.886154
-51.6032
-62.6885
-58.2178
-51.4951
-58.8861
-39.7074
6.01097
66.4039
-4.13149
-64.3579
-39.9837
-29.8905
-18.2766
-3.7732
-49.4009
-55.818
-27.0228
3.31993
-25.8788
-23.9609
-2.72071
26.1539
54.1589
29.7506
37.1743
69.2108
123.272
87.2167
71.8564
95.8573
78.3181
17.0641
-69.7886
-99.2984
-31.0424
-14.5675
-69.5546
-114.332
-124.951
-89.9278
-54.5096
-31.946
-41.8102
-36.2104
10.0242
82.1429
146.037
165.065
111.729
27.3459
-33.4848
-89.2712
-95.8659
-118.281
-94.0991
5.34529
37.7252
19.9953
106.281
133.988
38.2929
15.5274
18.9346
35.2628
40.8429
-4.76256
-69.3734
-57.1965
34.2836
33.69
17.1791
13.7292
32.0215
81.9911
73.9559
-1.5732
-39.9625
-100.07
-149.812
-141.084
-79.8372
-74.9751
-91.7674
-50.0389
24.5023
39.4471
-37.7626
-66.4557
-55.3439
10.0415
60.3039
96.2944
79.1751
79.5778
91.1373
54.0953
69.911
105.494
60.5151
22.9384
29.0915
39.1053
40.7689
-18.4353
-50.8174
-51.6526
-15.6939
-17.1326
-11.5776
12.0836
12.574
-23.8857
-21.414
-47.0295
-74.7933
-48.6923
-74.5635
-86.3068
-61.8857
-26.6141
4.9748
37.8813
102.812
92.7634
-22.7935
-94.1761
-56.5732
-2.13508
-10.015
-58.6932
-55.7592
-22.9245
39.5351
81.7184
31.3446
-26.146
3.76192
-27.4188
-19.375
17.8783
77.1464
129.698
126.969
101.286
56.9964
-21.9107
-86.1478
-133.474
-119.777
-29.4046
14.3958
79.057
117.833
92.7154
89.49
81.4242
33.0859
47.0026
46.1589
28.3318
-20.6369
-86.5893
-146.218
-173.251
-242.522
-248.696
-254.375
-211.293
-141.198
-28.0903
78.798
87.4823
25.2923
-11.9562
-35.1781
48.0479
122.095
163.788
147.924
97.3332
64.0392
91.5882
182.792
261.207
348.585
367.354
278.818
212.221
184.016
103.236
-1.12665
5.09411
64.5498
62.5057
54.5266
-61.5589
-255.409
-308.497
-254.272
-182.506
-157.812
-207.261
-297.142
-333.834
-292.989
-178.971
-122.5
-128.949
-125.122
-133.045
-110.161
-82.4019
-105.005
-137.008
-103.663
-28.0685
80.1488
131.684
120.835
102.489
109.69
74.5964
60.247
99.2239
109.935
91.95
144.003
140.033
69.8123
56.9189
64.9928
62.6852
53.4325
47.3489
55.0632
66.358
102.627
135.37
154.467
174.185
140.88
130.07
154.673
152.179
150.315
146.17
59.5296
-24.9709
-98.6254
-150.831
-208.877
-205.962
-171.586
-107.178
-127.833
-196.819
-181.519
-187.5
-164.398
-169.542
-205.688
-276.345
-353.161
-334.426
-273.461
-218.503
-61.1917
78.5497
160.078
229.518
249.979
254.409
245.197
240.25
188.298
162.943
140.612
120.195
87.0516
109.959
185.188
305.388
331.926
280.031
227.043
191.303
97.555
-2.06162
-83.9646
-152.512
-201.069
-233.362
-245.195
-228.325
-161.152
-103.108
-55.2289
-21.9858
-109.294
-193.206
-177.596
-171.264
-115.435
-58.5289
-64.2464
-69.7311
-24.8943
23.3879
43.3156
48.8109
64.6876
76.4625
56.678
43.8615
48.6118
-28.4431
-64.0341
-25.7388
70.4078
95.8478
64.7144
83.2389
114.344
39.2207
30.88
28.1268
-14.2075
19.4501
123.401
163.644
136.197
-0.401357
-96.8496
-115.888
-110.044
-52.2157
0.920382
-8.06948
-37.5098
-32.812
-81.3982
-82.6171
-66.25
0.522441
33.8286
1.71912
-0.0603217
33.1969
-86.3561
-229.895
-179.947
-29.5259
73.5781
139.222
168.417
177.699
96.7573
23.8122
1.44762
-26.6271
3.88662
6.98372
8.7184
20.7884
38.7892
20.0797
21.1488
5.6993
30.6916
79.8435
66.0887
19.5719
45.1941
-13.156
-123.863
-102.51
-38.013
-28.6957
-20.6955
16.9772
46.455
9.33719
-60.1923
-67.3825
-86.8394
-97.0696
-89.9199
-92.884
-31.335
-38.8401
-45.6153
13.603
36.4432
64.5821
117.012
102.363
42.467
-12.1804
3.14299
25.7726
23.1276
32.2492
76.136
58.1603
35.5301
19.8503
6.27094
-37.028
-66.968
-3.23365
28.2014
27.6754
13.7501
-14.1381
-131.943
-248.865
-122.315
25.6229
50.2919
-4.79139
-85.5546
-68.8186
-28.183
23.8934
110.61
197.138
229.319
205.982
147.069
76.6367
31.5096
-17.3082
-95.844
-138.907
-96.7869
2.42415
18.9304
-5.47808
-27.9491
2.9525
13.3819
-6.26137
-0.739928
-2.65401
-55.2475
-76.7528
-48.7728
-70.9163
-92.6683
-31.2429
27.2721
57.1027
62.2327
28.0436
29.9649
14.7024
-68.3321
-140.918
-129.779
-51.8431
40.0763
60.2406
48.1526
50.9975
71.4427
52.8276
-29.3552
-26.7911
6.17207
-7.18706
-33.2879
-35.6826
1.08207
58.4035
69.8876
43.8939
47.2943
86.7727
86.6029
23.3204
-14.6595
-11.403
-69.0988
-115.958
-148.501
-144.578
-117.808
-47.0232
40.1992
103.356
48.7454
33.2151
27.4307
21.0679
28.5438
58.4996
52.977
10.749
-18.2011
-7.73541
-18.9205
-3.62704
19.4253
37.0878
46.4994
56.7825
79.5451
69.2685
43.4774
2.75483
49.9191
31.1931
-54.3812
-84.1822
-48.3933
-105.644
-132.35
-105.829
-80.5991
-35.8989
31.5519
28.1162
55.9058
79.4832
32.0522
-26.4363
-67.9472
-44.3417
-29.0471
-35.4265
-39.9133
-17.8997
51.6781
87.0423
65.7951
117.092
115.391
70.997
18.2679
-54.8977
-78.7714
-92.2481
-85.0036
-40.0661
-1.89799
39.2004
71.2031
59.4638
74.3223
39.9891
-13.9184
-39.9017
-62.56
-47.6799
66.6428
121.789
85.5928
-26.3107
-100.711
-130.896
-153.243
-135.896
-78.1735
-30.7283
37.4859
94.6755
83.9772
26.5639
-25.7895
-31.1663
-18.4389
-45.5939
-10.5584
62.2734
71.2442
25.2549
-46.3388
-2.65113
50.685
122.247
195.544
178.829
99.1776
-4.50863
-58.308
-66.3283
-78.1831
-76.7509
-97.1394
-96.6564
-63.6592
-60.4063
-96.2438
-78.2822
-46.1076
-20.6658
-9.93836
2.84254
51.4583
61.8796
68.7343
38.096
49.5272
43.0466
11.7123
-26.8762
-24.3216
-17.9343
-21.4089
-60.3231
-34.0582
46.6011
95.2899
64.2733
16.8046
37.1929
105.254
146.796
54.1405
-11.6069
-31.7013
-2.93103
-20.3301
-61.6715
-36.0319
15.5709
-3.14405
-41.4999
14.1353
82.8402
56.285
6.47727
-15.9745
-38.5055
-88.9694
-98.8286
-108.946
-108.827
-39.8524
-30.2617
-41.7527
-29.4145
-50.609
10.5764
63.2114
26.468
-14.4967
-21.1565
-9.14152
55.561
47.2865
51.0658
70.4574
69.925
66.2052
-6.881
-100.275
-127.012
-116.376
-100.039
-33.4144
46.6549
59.4737
-64.9162
-133.236
-87.4848
7.92884
67.0643
123.461
174.632
199.982
189.571
134.938
83.376
86.9094
87.6333
118.904
86.4167
67.8934
57.1494
11.2516
-6.87818
-2.69062
15.4457
17.2346
-53.2131
-112.079
-115.216
-140.326
-255.407
-317.811
-244.22
-178.361
-213.356
-198.745
-165.593
-84.4912
-3.92905
46.5107
95.1619
48.8071
-47.8402
-13.3227
90.7718
117.809
130.656
133.555
135.579
121.522
110.067
133.094
119.614
73.6814
47.6962
0.375088
2.23767
3.24468
47.6344
-5.55031
-71.3565
-49.4477
51.8825
115.97
136.296
128.183
147.67
125.607
-13.9526
-144.92
-179.545
-181.035
-160.01
-68.7469
6.77634
20.3361
24.944
31.1099
4.04805
1.24986
-3.36713
-4.98656
-25.8743
-102.292
-126.083
-147.456
-245.408
-235.002
-87.2513
45.755
118.142
111.58
44.1882
26.2407
48.1738
85.3863
97.3461
65.0594
72.7447
149.336
131.143
80.9252
38.7539
18.8532
-49.7315
-60.4455
42.6469
105.111
104.494
44.4785
-8.70692
-24.8727
-56.3163
-78.6782
-81.0012
-98.8164
-69.74
-32.9299
-42.9558
-88.1801
-66.8236
-52.5689
-45.1331
-17.8104
32.657
41.2805
34.2784
-13.922
2.60696
20.4002
1.06085
-18.0749
-37.2941
-31.3111
-21.637
-31.8574
-12.6596
22.7139
24.1532
15.9233
41.7762
76.2229
143.858
121.248
54.4568
0.293362
-47.8696
-43.0209
-81.273
-138.656
-152.582
-105.976
-16.097
-8.83725
16.7158
108.418
163.401
137.028
43.2336
63.5534
41.2979
-53.996
-105.001
-71.0574
-19.6634
40.277
51.211
40.6534
47.9253
35.9674
61.3592
94.6851
70.6559
23.8447
-7.88624
-30.2383
-86.5813
-137.859
-89.3775
-126.286
-153.891
-83.3263
-76.7634
-69.1828
7.91734
1.74317
-11.8997
22.946
49.5991
80.3883
87.0731
90.635
97.8143
103.776
54.6795
-39.0312
-81.952
-62.3769
-42.6955
-5.82774
22.3175
48.4761
79.4699
43.3601
-12.6481
-14.6246
-3.26017
13.8165
24.4911
26.7159
29.4188
31.1253
-15.626
-41.0627
-37.4068
-26.6349
-6.76615
12.1776
9.55531
10.5433
1.46568
-30.9674
-56.3117
-29.2273
-17.7103
-18.7893
-0.290914
51.2821
-15.9109
-41.9164
-9.95141
-9.87085
-8.07029
-3.5105
-15.2883
16.0111
12.7159
6.11892
36.8911
50.3199
53.3782
17.8579
-23.3418
-10.0922
-32.3979
-46.5421
-56.4389
-95.8527
-1.43231
70.1081
50.3867
19.758
-7.34351
-89.0331
-60.7421
46.9004
108.856
113.599
64.333
2.8742
-93.9033
-111.048
-133.557
-158.66
-91.0318
7.29047
94.7362
167.248
172.637
134.137
91.4379
17.6539
26.3391
97.9895
114.623
14.0487
-41.084
-53.4655
-56.8615
-66.1088
-83.2614
-64.944
20.2447
63.43
39.3032
6.44541
-37.77
-162.536
-194.753
-159.335
-114.061
-55.0544
-22.6363
-3.0206
10.3816
-42.2021
-6.61894
46.6093
76.3222
90.6148
140.57
132.613
119.086
65.8645
-35.4397
-47.0164
-14.9012
36.2083
17.2533
0.0118387
9.44217
12.2389
7.83449
-39.5623
-63.3432
-49.0044
-90.5707
-53.3192
-6.23353
47.8355
69.3782
46.1934
11.5089
21.892
68.7878
20.5639
-39.9868
1.45924
12.653
-19.1799
-13.058
28.6163
46.1514
42.7901
-5.72232
-0.498545
-35.8309
-53.3028
-28.868
-30.9536
-8.74201
14.3963
10.4153
3.19159
17.0374
52.8031
70.9942
46.2487
20.875
-20.8011
-68.2587
-69.6566
-97.8013
-134.716
-117.728
-93.4601
-50.291
-42.3635
-3.96023
37.9001
88.3298
128.529
35.285
-2.30615
8.65995
-35.1788
-64.1427
-13.7577
75.9491
131.022
100.661
44.7844
30.603
84.7881
95.4243
76.305
77.7627
57.6741
4.9832
-31.3464
-102.69
-173.499
-121.577
-70.3645
-47.682
-10.0033
5.94581
-23.8414
-60.7803
4.00385
85.8726
64.6935
-24.298
-75.1034
-104
-109.868
-144.706
-108.737
-68.3477
-44.6096
13.8226
128.674
190.722
201.008
195.953
103.608
3.85921
-9.70154
-9.06716
-35.725
-54.9492
-21.07
54.3281
104.779
119.795
112.399
93.4819
16.4386
-59.8015
-53.8286
-22.7789
-59.5558
-125.905
-140.852
-135.972
-78.0182
1.58513
-0.0398408
-9.93226
-62.9469
-116.254
-87.7929
-26.2142
22.9239
25.6174
20.0896
73.1413
125.514
130.79
49.528
10.0843
-5.63051
10.9858
7.16515
-10.0979
-35.1499
-34.1412
-26.9796
-77.1157
-39.1172
6.60409
-11.4637
-18.403
20.3313
77.1906
110.976
105.188
53.7886
-0.726236
8.89972
23.7268
14.6597
-18.9568
-44.7206
-42.1526
7.10408
-9.66658
11.4444
39.9252
6.60573
-3.08974
-14.5012
-35.3175
-61.7161
-84.0251
-104.813
-107.705
-46.1297
-27.4482
-35.6629
-15.8902
14.2674
38.1146
79.8191
74.8182
74.4859
103.706
63.4563
55.7002
49.1722
-3.10983
31.6313
76.0246
75.9165
58.4134
7.67432
-43.5504
-90.1427
-127.76
-78.6507
-76.4184
-63.3862
-37.8099
-50.0878
-60.2438
-80.8425
-94.8864
-112.512
-117.174
-56.9494
50.8486
102.684
124.938
113.967
52.3524
0.715996
19.5841
45.8773
89.1178
66.055
16.1992
2.20577
47.2873
77.0783
67.2408
71.0304
100.918
105.307
84.8147
61.9259
31.4897
-28.8209
-63.7707
-124.391
-118.459
-52.4476
-0.256155
-4.90367
-4.07366
10.7197
37.5777
-37.5506
-95.8273
-114.187
-102.451
-65.8384
-56.9732
-62.6436
-14.2971
-11.2553
-109.414
-118.396
-111.182
-35.3687
76.9875
128.689
86.9787
57.0342
44.6863
-14.9475
-67.7338
-58.0283
-64.5785
-57.8933
-2.0561
30.2739
59.6839
84.3035
63.792
84.4427
139.673
111.416
101.149
126.334
57.35
-48.5196
-160.546
-210.399
-190.299
-107.715
-20.3115
89.665
172.936
202.533
181.514
140.473
58.852
2.01935
-8.05347
-39.6044
-1.8068
15.8465
-36.1183
-104.19
-100.546
-33.2741
47.6977
65.1622
80.0979
75.9678
-21.5021
-83.7024
-96.0874
-122.163
-157.361
-168.315
-128.45
-86.3615
-46.2512
-35.5413
-77.1889
-35.0758
-11.8766
-4.72579
25.1673
72.5677
126.759
141.334
99.1505
60.4064
79.9087
58.0545
18.6109
31.8483
58.6564
81.6757
80.3791
10.7848
-22.5915
-41.1474
-52.5625
-97.3692
-117.606
-107.844
-79.4395
-34.7825
-0.483867
11.034
49.157
95.7847
115.873
105.504
92.5763
29.7768
-8.75849
-14.0863
-39.436
-24.9201
-23.8794
-35.0612
-1.26649
44.7277
-7.3671
-77.4473
-63.1273
-49.3783
-6.3191
34.7867
5.58674
9.69721
70.6882
29.581
-57.626
-85.5452
-80.5379
-85.0804
-78.6083
-33.4438
5.67017
57.9845
52.6272
57.8856
120.096
94.5775
1.7085
-47.7321
-25.5943
23.3981
17.5943
-5.71829
-43.2621
-38.5945
-13.9566
28.2602
63.7821
58.6076
-14.645
-28.9513
-29.8437
-39.4862
-29.5484
-42.0375
-13.6138
63.2465
82.1263
52.3738
-18.1228
-43.4447
-21.2683
-47.0605
-81.5431
-53.6344
8.02722
48.2909
44.518
35.0324
57.1842
50.3899
-9.944
-48.9993
-28.5976
36.0299
98.7599
59.1026
16.8722
-3.43482
-58.5491
-130.517
-155.083
-103.622
25.5041
100.133
45.7235
14.6409
-5.53144
-24.4059
3.10274
35.3008
71.6016
79.2031
48.5936
-3.5204
-33.2358
-19.0305
0.752756
8.236
40.3722
-0.026743
8.40536
15.1775
-28.7825
-53.8264
-13.7531
37.7785
14.1195
-115.415
-152.917
-107.553
-66.0482
-40.4739
-33.1218
-68.044
-67.6663
11.7418
77.7812
105.139
99.5556
141.182
156.753
129.126
97.0938
61.6524
-1.37855
-32.4202
-29.4935
6.54287
-6.42734
-58.6534
-25.6635
17.1509
-16.4567
-18.0308
3.4607
6.95154
4.5621
4.7458
4.79737
2.09982
-24.4802
-87.2688
-121.453
-106.578
-57.4953
-60.0427
-22.7805
53.6072
110.064
121.906
36.2162
-22.7992
-3.86965
-6.07227
-31.9846
-42.4254
-53.7991
-28.703
-32.8543
10.2251
26.5271
-4.72354
-42.6738
-62.6362
-23.829
-7.56536
-48.7027
47.3351
102.756
101.656
74.5272
41.8607
36.6437
26.0702
-13.7394
-42.6507
-21.3355
-2.84618
28.1224
2.37639
-26.8729
21.1373
68.3919
34.0345
4.30701
-0.165462
46.6385
12.3288
-17.7254
-17.73
-45.0356
-97.493
-123.46
-109.544
-41.2519
-9.17701
-47.081
-33.9451
-9.20842
38.303
94.6046
93.0354
49.9772
64.9543
61.6607
94.069
43.7608
-28.6525
-0.0612112
25.3259
73.5825
112.854
99.2753
75.5793
49.7688
-21.4907
-48.5515
-58.3612
-79.6458
-133.037
-189.747
-168.651
-121.114
-75.1478
-47.1581
-60.1568
-19.0053
38.7852
42.6582
4.51355
-16.6085
-10.862
35.5401
83.1171
14.5307
-14.3909
21.1032
33.5608
30.5763
47.5684
69.9658
76.8991
86.3612
22.7376
-13.94
-55.5973
-60.8013
-58.88
-59.9967
-52.725
-43.0683
-21.349
22.0334
18.3099
3.86772
17.5961
62.2593
93.2808
102.767
5.10803
-14.9399
1.73269
0.139969
8.49226
18.7523
45.7497
80.9104
80.9586
-4.39498
-28.7374
-28.0176
-26.9413
-44.4222
-50.9143
-5.34271
51.5038
51.2929
-42.1515
-79.7753
-43.8977
-41.0961
-58.6168
-84.0533
-61.0668
-44.3092
-31.5162
-25.082
-21.3287
-1.32849
-30.3589
21.2092
75.8374
27.3976
2.27959
-0.704631
13.0093
30.4689
57.3468
102.285
174.362
130.355
53.9108
-0.742065
-67.8244
-117.36
-123.529
-122.365
-66.4575
38.419
54.7292
29.3906
16.8654
37.9922
8.84954
-38.1493
-104.374
-93.4641
-44.9371
-84.115
-109.786
-40.4724
33.6196
45.834
42.1112
59.7694
96.01
149.078
91.3924
43.7398
43.8014
4.2613
13.4191
46.0926
56.8059
86.7251
129.911
37.5371
-7.63405
-4.90836
-13.2021
-39.9672
-62.6555
-28.7797
7.0697
-53.0585
-66.2318
-92.7285
-93.2379
-97.852
-69.9463
-47.7621
-66.3221
-86.5915
-61.8599
-32.5818
-10.6739
5.21992
-18.8153
-4.69463
20.3388
-7.61748
3.05114
35.7313
80.1395
134.002
96.7951
59.3924
61.3423
52.9787
-9.49373
-8.50729
-39.5525
-43.951
-34.0476
-41.8717
-44.2836
-8.22664
-15.5917
-46.2553
-37.7422
50.632
99.8078
85.6137
80.9064
144.985
113.264
61.1373
-31.3444
-120.304
-118.881
-104.676
-30.6735
40.3053
82.3669
58.5187
38.2279
39.899
48.2307
19.0585
-76.0494
-104.987
-35.144
24.3491
-23.4552
-97.9837
-131.831
-83.1845
1.67285
21.2435
-28.4796
-94.7507
-122.052
-145.774
-165.751
-99.4285
30.4127
89.3175
140.292
200.017
233.576
210.832
116.987
4.4915
-3.19068
25.9096
89.6021
88.202
45.9288
65.8363
87.5208
54.1027
-21.2362
-55.4798
-47.9131
-36.6657
-90.6733
-100.258
-119.124
-132.445
-122.357
-122.522
-126.054
-80.7197
-11.4557
0.26449
-60.3098
-57.5347
-18.5333
7.49443
51.2515
85.9929
113.754
154.001
114.056
59.1441
43.0057
23.1649
-10.3287
-15.6402
3.14439
48.1448
48.549
-15.5002
-31.8554
-41.3495
-30.7084
-55.2675
-49.8542
-1.56175
75.5102
111.561
82.78
-30.5409
-43.4981
-4.90136
30.4048
-2.73475
-46.7987
-28.9782
8.64192
-61.423
-150.962
-177.185
-146.621
-67.3714
18.8658
59.5491
78.5552
106.023
43.7116
-6.04027
9.80297
83.0777
107.792
101.889
126.566
214.619
185.563
48.377
-90.8439
-151.237
-128.311
-79.9743
-82.6266
-19.8162
-31.6264
-36.7378
-15.652
-20.8545
18.0616
77.1157
53.695
9.72428
-56.8043
-71.8055
-111.467
-196.809
-159.436
-90.2511
-4.94611
73.7448
97.0046
127.828
119.235
13.9038
-8.02513
-22.6885
-42.7516
-32.0554
-2.00054
31.8329
-7.53507
-10.5318
3.75106
-7.16207
-38.026
-55.2504
-14.3234
47.5511
83.366
123.536
108.495
86.1971
80.165
61.7717
67.5107
28.6615
-25.6047
-55.6893
-61.8029
-75.7202
15.0444
78.0795
72.9642
-0.0358512
-135.853
-173.396
-132.857
-78.5739
-45.6496
-35.9178
20.1798
87.2184
61.202
49.5202
12.6625
10.2508
38.9968
16.1512
18.9952
27.1336
-46.0437
-96.5724
-46.4416
-11.2268
33.9901
89.2817
96.4515
45.8151
-27.4948
-76.8441
-104.917
-106.409
-98.1657
-88.7549
-15.4301
90.4121
113.54
114.441
93.1079
39.6394
2.91712
2.45912
3.25795
43.1104
82.337
8.53198
-38.1249
-43.1743
-34.6619
15.9678
70.7796
41.7678
-9.07419
-49.2961
-63.3424
-101.122
-56.1035
-63.6712
-138.696
-147.397
-93.7093
-43.3203
-21.3373
4.51156
83.8249
133.772
121.831
111.092
80.6682
14.8375
6.25094
62.4141
132.315
79.3141
6.66819
-14.263
-34.564
-50.5744
-31.4228
-12.7831
31.2565
23.7611
-22.7846
-27.041
-47.6555
-47.3749
-71.2408
-88.7213
-9.539
59.7148
44.0591
43.4977
0.415726
-23.4024
-39.2556
-42.7844
0.00309019
48.8885
6.13173
7.0213
39.2836
60.6514
50.8174
-28.6299
-75.803
-79.9982
-62.853
-127.522
-141.869
-122.102
-50.2456
-4.65734
42.9754
87.3194
127.904
145.5
35.5338
35.9814
86.8811
93.2495
58.2248
11.2443
28.5026
57.746
84.3681
51.2207
51.5661
69.4278
54.5114
17.9208
-49.2598
-67.2514
-63.4195
-121.01
-122.932
-119.53
-89.1303
-96.7174
-103.864
-72.6548
-26.9913
-56.6521
-36.8284
0.509797
5.75838
19.7056
20.6996
47.3582
57.4356
53.1307
98.0204
84.0221
52.3281
111.658
96.3333
-2.02908
-3.45721
-57.8473
-109.391
-74.1427
-59.4479
-5.80411
30.489
44.5769
65.5076
51.5996
-21.7825
-0.220304
8.8861
5.74074
-37.2768
-39.3782
5.77452
10.9155
-33.854
-94.0395
-84.7878
32.891
79.6576
38.141
12.0336
38.5721
60.6319
40.2592
-13.155
-24.7429
-20.6574
-57.6727
-68.6507
-37.3524
66.9623
136.044
195.724
157.131
43.4397
-76.1473
-236.615
-262.245
-196.863
-207.18
-87.4593
51.8568
106.331
120.691
122.191
110.943
115.593
65.1569
19.8632
2.68214
-34.7636
-65.1448
-63.098
-31.7317
19.08
116.197
151.328
80.4357
47.0853
69.612
-14.089
-120.927
-154.046
-146.329
-81.4404
-35.8266
-57.8485
-29.1331
-11.3872
3.0223
-12.5402
-28.8859
-19.8552
60.4842
71.0609
42.2245
97.2442
110.817
68.0829
44.6136
12.13
2.39298
-25.2108
-23.7366
-74.749
-116.161
-83.1986
-62.5151
-40.9655
1.4285
11.8534
23.1914
4.14095
-6.93552
18.3492
49.8627
44.845
52.2332
31.9241
19.5012
-9.90401
-25.8382
-20.1694
-46.0042
-54.0497
-41.899
29.0432
69.1899
77.6219
80.9244
61.1425
30.7527
-20.6302
-76.1409
-95.2524
-42.4911
-9.35412
-3.53494
1.73039
25.8828
64.1362
36.1875
16.1927
41.7294
35.9588
-2.11772
-21.8577
-33.7955
-68.1732
-118.088
-119.56
-82.7645
-72.6238
-61.3319
-1.12211
64.4249
110.307
121.526
108.094
92.1538
84.5918
6.45527
-46.1143
-36.4179
-19.1104
-48.318
-56.4949
22.9258
102.389
113.944
14.0696
-76.371
-82.4815
-67.3775
-54.9199
-48.6477
-44.0124
-5.25245
49.8025
7.43124
-10.6125
47.5787
77.4101
57.2856
35.6917
23.929
2.04349
12.2286
-34.6032
-43.6125
15.8295
40.968
24.9209
10.7108
3.29914
-56.3995
-112.504
-99.7956
-83.7112
-44.4568
-44.8528
-13.193
41.3143
18.4412
12.4066
33.5
37.7071
0.831431
-0.576341
16.1091
52.7171
8.52369
-2.61312
24.5478
32.8999
23.0722
7.31055
-19.6067
-18.6111
-34.8205
2.51596
33.1714
18.0356
33.6361
61.909
55.4919
51.9814
65.602
28.6993
-21.9539
-41.0171
-10.7589
11.9736
-17.7159
-43.7309
-45.8708
-28.4855
-88.0305
-133.166
-69.3028
-59.529
-52.3456
2.17826
46.5413
95.7749
84.886
-11.6534
-108.337
-152.3
-103.919
-19.6975
29.6412
57.5903
138.702
136.555
125.491
131.095
115.359
85.3907
58.4222
29.5819
-7.32042
-93.9541
-108.931
-123.506
-79.7017
-0.0496749
19.2149
31.1219
34.6093
31.0867
18.6794
6.57814
-23.5087
-39.9378
-28.0759
-36.3578
-56.4928
-65.6951
-36.325
-55.4471
-65.1469
-41.2208
-5.75397
17.3899
38.2167
55.1935
70.6449
66.4712
61.2383
24.9486
-21.7723
-16.8291
-14.4022
-14.5081
-5.56441
-58.0123
-56.0991
1.1731
6.87746
-2.49108
-9.75951
54.3635
71.0055
29.1583
-14.0936
-58.6594
-55.8695
-6.51549
28.4164
54.6476
71.406
26.3874
20.4034
21.0158
11.0862
51.7432
81.3769
78.1533
67.13
-20.9641
-62.6418
-42.7554
-68.6876
-76.5854
-65.7807
-50.1201
-29.4317
28.5695
-32.0752
-80.3098
-54.5469
-45.9462
-41.516
-23.3707
1.45085
8.06745
3.05478
-17.3996
-19.5883
80.6222
145.858
98.5398
42.1806
27.9106
0.693082
-59.5696
-126.925
-108.791
-35.537
35.1085
118.16
129.085
81.313
42.5072
-18.465
-29.8651
9.76531
0.735009
-44.2722
-41.5288
8.62754
10.3555
24.4869
12.2712
8.42141
8.60931
47.2168
51.335
56.9622
42.1885
-42.9033
-144.784
-174.463
-142.23
-45.1695
8.55171
-10.7525
7.61918
90.7539
65.8289
-13.6112
-36.8342
-24.0658
-3.38237
3.41802
44.6642
61.8672
58.2457
28.2862
8.55907
4.13914
33.7771
9.62267
-11.4189
-38.8171
-52.94
-75.6882
-70.2778
-29.5146
44.7605
72.7009
79.7209
115.784
65.8953
-47.658
-63.9197
-58.0103
-68.3042
-96.3441
-112.371
-64.5038
12.1229
59.8664
70.3453
55.7337
16.026
29.8147
47.976
40.6229
40.1023
28.326
-28.8015
-80.4554
-54.3498
1.13095
34.3385
46.2967
63.3934
127.166
114.032
10.2867
-128.688
-137.785
-64.5243
-8.32803
24.8325
37.8838
18.4255
-31.4271
-49.1757
-17.9372
31.0094
11.6718
-8.76279
17.9286
35.7702
-25.5501
-105.31
-106.557
-56.9717
21.4299
120.508
139.663
121.216
101.51
0.468532
-67.6968
-70.9079
-93.0523
-66.1513
-64.9196
-48.4923
-30.7095
-34.8565
-3.9955
19.8005
54.4696
73.426
49.9894
7.60071
-7.22875
28.3001
3.47614
-18.3706
-76.6783
-37.4033
55.7199
79.6361
62.6671
55.7341
14.6012
-59.9479
-58.5773
-25.9099
-28.9672
-59.4596
-18.4641
51.3881
28.7376
-33.8681
-11.9075
31.6256
48.1675
-3.65587
-40.5565
-10.9911
-9.12262
-64.055
-67.8703
-44.1067
9.23782
67.5304
89.085
71.1144
69.0414
90.977
0.225893
-39.1043
-14.5461
20.0145
-15.4587
-38.1389
-13.9043
-14.5926
-35.022
-14.0083
-14.79
10.8724
34.4525
8.3306
-10.9752
17.9595
21.4899
19.0712
22.4053
-33.741
-24.5494
-18.8289
-5.90052
11.8112
28.1602
-18.1178
-84.2996
-49.542
1.6432
-60.2455
-121.949
-92.0162
-28.1729
-12.2731
32.236
48.8796
49.8233
67.7938
79.2546
117.769
150.546
54.5984
-34.9746
-74.433
-121.535
-124.862
-58.581
14.5295
120.199
140.402
138.023
117.125
48.2241
-21.9231
-49.318
-95.2724
-89.6737
-91.1112
-68.7201
-73.7713
-42.2833
25.8101
56.6904
58.7938
77.0464
100.969
52.8039
-42.4782
-104.107
-59.5162
-10.2616
4.74879
5.73306
52.7204
11.0001
-5.68558
-39.7557
-12.7993
-17.8607
-38.9083
-74.6676
-79.7805
-59.3629
-34.8815
33.6154
33.9284
21.3421
48.2555
50.5198
53.0439
59.286
50.0117
41.1862
15.7095
-21.867
-29.0895
-13.8261
-8.15201
-14.0828
3.73203
27.1894
5.33004
-35.6022
-46.3917
-80.9356
-54.9702
-9.4365
26.0018
61.3217
58.8001
24.2763
5.54216
-2.35063
21.1529
23.0815
-32.1136
-19.5926
-5.06621
-8.85372
-28.5928
23.3305
31.3615
-20.7788
-52.371
-48.241
-20.1446
38.678
55.223
18.5074
12.1895
72.1132
100.729
90.2833
25.8855
-28.2911
-51.7719
-117.523
-129.686
-76.6417
-8.20974
-28.4125
-5.67145
38.6277
53.4233
17.0639
2.70782
-36.8777
-100.186
-54.4138
16.7641
27.725
12.51
11.0647
28.7132
61.1028
97.5787
109.227
94.5361
71.3632
67.7667
35.8832
-13.3335
-22.9652
-2.43855
26.011
9.29694
-0.889931
-33.3093
-80.1298
-95.648
-185.878
-183.277
-144.496
-106.493
-60.5897
-7.53548
36.6292
60.6186
93.8881
37.6546
-23.2988
-15.4157
20.9856
44.7203
55.0796
59.676
52.4511
52.1803
18.6726
-24.319
6.87732
21.8357
6.1401
10.1942
42.5919
72.6982
29.3966
5.77895
-20.4834
-24.7073
-18.7444
0.251159
27.4802
30.4329
-20.0053
-30.08
-27.974
-22.6183
-15.2991
18.2451
79.978
72.598
72.8133
51.1909
1.08164
-87.8994
-138.668
-145.92
-106.303
-0.415161
44.9875
26.5069
9.72017
-19.6285
-31.6367
-44.9181
-33.2987
-10.3799
6.55291
-34.5512
-51.701
-38.1754
19.0771
62.6809
70.4385
81.9731
123.279
71.4776
23.215
-24.7564
-36.6966
-13.0244
20.6884
29.3661
70.3059
25.8369
-41.1637
-34.641
-30.8085
-2.73188
17.6146
8.4495
-5.25196
-8.09969
-65.5767
-47.5972
19.8161
62.6161
11.4905
-52.5725
-78.3817
-80.5506
-101.246
-91.2467
-106.242
-50.1583
16.0968
80.9983
119.276
110.539
72.7703
82.0487
36.5898
-67.1637
-14.0634
33.3568
15.8258
12.3777
39.6605
66.5791
99.9406
48.8933
40.6432
41.3158
30.2009
5.74447
-10.0307
-32.2694
-34.5567
-53.5812
-83.9666
-101.543
-94.1009
-50.2127
-26.0961
-19.7388
-16.4666
-78.9407
-75.2507
-22.1329
-10.1503
0.859071
13.9515
39.8987
53.0103
10.7638
-2.77713
8.702
18.2183
26.6185
76.0679
78.1766
26.8262
-29.3111
-59.5195
-62.678
-27.4588
42.0021
49.637
27.541
21.974
94.5251
64.3746
-25.4565
-5.55851
61.6192
77.8903
28.2773
-24.9098
-37.0914
-32.4928
-38.1205
-67.9727
-52.8572
14.4336
34.4799
-21.8023
-43.6268
-28.5945
11.0201
-32.7435
-96.3483
-54.0852
3.43044
11.1943
17.9717
19.511
33.6911
24.1566
5.80992
-42.5447
-83.7422
-48.2453
19.4371
37.3189
69.693
52.0734
23.9671
63.1315
46.9892
41.1597
32.3871
18.607
38.0183
34.6119
12.5354
2.00623
-33.8174
-103.681
-155.962
-174.042
-134.096
-67.4246
-4.3822
17.4409
-0.0480794
59.6636
116.147
95.1613
60.8441
100.213
129.056
58.2266
-13.8155
-27.4087
-34.558
-57.9794
-54.4277
-35.9922
20.8437
72.5309
59.7668
79.4133
74.5539
73.301
67.9844
-9.89329
-48.1283
-121.91
-147.833
-122.904
-92.546
-58.965
-31.4012
-27.2371
0.547887
4.84241
-1.00717
43.1656
62.0784
47.8371
34.9131
-4.33547
-26.7603
-57.5487
-88.1769
-63.7275
-20.6489
3.86821
8.90655
-13.1008
-13.0633
21.5422
86.7799
71.4514
28.3144
54.9575
53.3724
22.1028
12.07
8.56609
31.5927
71.3574
95.437
13.6428
-5.5838
17.9497
-11.0097
-33.1778
-36.2594
-45.0644
-16.9064
-36.9003
-102.162
-85.7467
-42.2323
-20.5958
-0.798965
45.9637
70.6683
29.611
3.44218
-4.66622
-24.6902
-28.3299
-27.9313
23.526
52.5012
44.6637
21.4081
6.2845
-23.7817
-16.0464
-3.13024
10.7712
30.8437
-39.5696
-92.8435
-94.6641
-74.3436
-27.62
9.60303
25.1609
29.3372
72.0816
41.8453
18.5443
60.8174
132.984
136.937
58.099
-42.9302
-99.1061
-119.559
-95.2762
-81.165
-59.3375
-3.82306
60.9274
150.14
156.554
92.2206
10.0848
-40.6036
-39.2538
-39.1047
-108.135
-187.042
-188.474
-160.256
-84.8195
4.3845
69.6508
117.864
127.326
134.049
163.68
164.589
99.2296
19.0715
-6.62079
-16.6007
-35.9535
-69.1905
-93.6548
-59.4934
-34.5792
-7.38328
0.0417275
-5.38651
-23.91
-33.482
-30.5065
-9.31273
12.1575
28.2955
29.8525
19.729
0.666761
-34.5808
-55.2401
-41.5568
-10.388
21.6162
22.6596
46.9582
60.366
39.8877
16.5672
29.3706
44.7009
19.4837
-43.6326
-69.7849
-96.0983
-109.477
-101.85
-73.2528
0.0751001
41.6011
33.8804
72.1
68.68
34.0478
30.4179
-9.64032
0.539177
56.6232
20.9695
7.14138
24.991
53.6087
81.3915
69.3912
78.2957
32.8201
-28.5061
-103.01
-126.239
-109.696
-39.1599
-26.6193
-38.5741
-6.17051
39.1047
-8.12641
-31.4283
-34.5701
5.62855
27.2753
23.6191
4.03233
30.5859
11.7068
-31.3845
-19.021
30.4936
75.2772
47.3744
2.64239
3.34421
28.4623
5.12113
-19.73
-20.2487
32.2859
52.0071
41.5832
11.289
-19.1217
-15.849
-71.1509
-93.7411
-79.3661
-84.7228
-64.608
-21.6704
-22.2682
-62.0847
-48.9048
-14.5312
6.84218
59.2057
86.207
83.5096
102.308
112.278
85.4881
6.65614
-22.7659
-2.60591
57.4046
62.8849
25.3764
4.52576
13.8375
-13.1388
-51.2089
-14.0361
5.54093
-1.91811
-22.1553
-27.5644
-26.7662
-57.7071
-105.001
-107.972
-90.1527
-31.08
-12.3937
-15.8322
27.6936
41.7097
34.9873
58.7788
57.7372
39.8175
20.4819
-1.98585
6.73232
-22.3258
-53.2754
-24.3003
11.9734
18.1268
20.8813
2.3086
23.776
55.681
70.8398
33.2925
-47.8969
-124.902
-86.3282
-45.1288
-26.3662
34.5353
63.9722
5.71071
-9.27771
19.5226
24.1581
5.75765
0.133573
26.2764
68.4736
62.6509
-6.30346
-20.6854
-18.9044
-7.16471
21.9181
51.5126
59.5077
84.6717
78.8462
-2.74952
-7.41673
14.7628
-19.5881
-53.583
-62.9542
-74.619
-55.6301
-65.2662
-89.6468
-73.4704
-32.3559
-18.5659
-33.4216
-36.6722
14.9244
50.7914
-0.650117
-39.1121
-61.1538
-29.4131
20.2188
37.8393
29.6444
10.4298
26.7952
101.641
140.588
131.656
77.2462
-2.26952
-48.685
-64.1352
-82.0436
-153.683
-159.792
-84.5647
8.27495
45.0871
72.3059
100.801
97.4629
56.9338
10.1168
9.34816
26.9714
24.4822
10.1678
28.7474
63.6673
35.6454
41.335
59.6286
71.4031
91.9362
-4.01232
-95.8331
-106.813
-141.828
-114.601
-92.5574
-84.4667
-36.5423
20.4927
76.5708
51.1351
-38.8057
-97.9465
-106.704
-86.9308
-38.7643
-27.2734
-29.8596
9.44488
89.0235
111.551
111.094
89.7016
75.477
35.334
20.989
17.1841
32.6885
47.4864
-23.649
-39.6735
-10.4171
-20.5955
-28.5402
-56.3467
-59.277
-30.2878
-19.148
-46.5003
-57.3
-10.1242
47.5659
88.7387
88.732
78.5702
31.4432
11.3478
1.3818
-22.5156
0.60256
2.0609
-16.8016
10.8112
-7.62949
-9.88502
-5.3045
-13.636
-9.60013
-7.37267
-13.0258
-14.5465
-49.0549
-40.135
-29.4774
-44.1918
-36.9228
-30.6107
0.303332
-13.8248
-20.9016
38.6663
88.0383
81.9849
60.0126
43.0408
62.7296
37.2675
-43.9609
-58.1611
-93.3414
-115.851
-64.682
0.265695
-4.69012
2.23518
59.1721
12.4211
3.24475
40.9507
63.9733
45.0995
20.4041
-8.39324
7.66514
1.08861
-46.2644
-31.6956
26.7136
40.2287
73.2606
120.627
102.451
58.7382
45.7822
-33.8296
-94.0148
-87.9763
-79.3432
-84.5499
-74.4005
-22.3135
9.6456
-40.0247
-71.2099
-37.7337
10.9098
35.5272
24.4014
6.35147
15.8285
-13.37
-10.0165
-27.5106
19.2062
67.2472
21.2164
-21.8438
-51.0199
-29.4806
-25.0184
-100.453
-96.8518
-32.535
16.4005
52.1096
87.9862
103.232
114.507
34.2723
6.50846
21.1258
20.4422
15.1633
7.02653
18.6405
57.9791
71.122
59.5903
20.3029
-14.0995
-23.5609
-45.191
-34.1907
-11.8416
-62.5561
-67.7319
-60.5683
-40.3093
27.6633
38.7879
49.3529
67.3751
10.2291
-69.8721
-106.667
-140.039
-112.364
-51.3219
-22.7777
2.2756
-4.14189
-19.4262
-4.16396
47.8771
111.963
107.47
56.8684
28.1854
32.8805
23.3656
-27.8084
-37.9341
5.55386
44.4362
61.9466
79.9264
110.241
69.9421
14.6419
-31.9541
-73.0078
-62.4781
-34.2435
-26.8743
-38.6524
-51.5982
-7.03136
28.1129
12.8467
-4.17884
-0.122819
-22.3486
-43.4103
-42.4727
-22.5496
11.3699
6.66355
9.12197
9.58293
22.4626
55.6348
36.8738
8.83218
-18.0597
-90.559
-105.717
-98.8221
-84.1517
-24.4385
3.90261
23.5842
54.1938
-12.1288
-32.4214
-3.19633
34.5145
90.0759
109.351
76.3474
5.17275
-7.75772
-20.9875
-48.058
-61.7742
27.0617
54.3699
30.456
28.4346
38.4663
72.7095
62.3358
90.0544
161.707
139.823
-2.33238
-138.353
-198.844
-203.835
-178.19
-108.68
-77.8811
-95.2396
-4.67287
60.0637
96.7095
116.63
81.7234
59.278
55.0828
44.0862
31.3151
-10.6969
17.8184
41.4725
78.7094
73.6899
97.1697
19.5777
-98.7943
-146.513
-95.0511
11.6172
13.3926
-63.9941
-71.264
7.44577
48.4994
-34.0686
-120.865
-175.441
-185.648
-146.835
-143.261
-174.024
-90.7379
47.4127
131.173
194.993
275.524
300.659
254.099
204.013
84.4821
68.2415
84.2699
-14.0479
-156.343
-151.437
42.7235
228.381
279.349
158.774
-84.1158
-267.302
-372.189
-370.756
-383.073
-243.08
-34.4465
61.2242
54.298
-18.9077
-76.3587
-48.4327
-7.80107
88.2513
174.903
179.454
143.455
103.056
156.287
246.062
311.606
289.62
72.5325
-97.7672
-113.267
-172.021
-348.708
-359.205
-77.6931
159.847
303.567
241.715
2.252
-144.788
-85.4979
3.32925
-6.74053
-137.712
-286.089
-333.202
-306.268
-203.651
70.6167
276.846
262.122
194.062
215.8
202.008
60.8965
-39.1727
-96.4499
-89.9611
-42.4399
-39.6996
-90.3169
-95.7923
-3.1181
10.4138
-15.7095
-116.911
-109.587
-65.2515
-26.8172
26.2057
95.4991
107.122
125.521
131.754
73.8792
33.5874
5.6883
23.681
93.7273
72.4031
5.60953
41.5352
17.4078
19.7885
-28.4202
-45.2027
37.6875
139.526
129.41
1.56393
-103.115
-168.945
-181.639
-198.499
-217.167
-213.64
-126.734
-75.0054
-0.039192
115.415
194.441
115.633
-45.1745
-52.2977
69.3041
122.489
194.47
209.246
144.092
30.9953
-64.0405
-86.8465
-93.8539
-71.3074
18.934
86.2616
67.9689
30.6644
-16.55
-41.3173
-41.2641
-31.873
14.2424
-0.811177
-36.2009
-37.0454
-120.74
-132.602
-157.635
-11.415
124.694
206.972
191.835
71.9753
-107.485
-206.805
-212.22
-218.273
-175.072
-96.8136
-3.06307
50.6585
56.4303
69.0812
113.935
139.299
153.336
116.31
165.97
123.648
36.4303
-29.0009
-39.7274
31.7559
108.185
93.8944
106.438
147.117
83.219
-21.2781
-130.174
-233.672
-186.762
-112.437
-74.4357
-74.7805
-80.5043
-39.0341
-9.24164
-42.0336
-64.2189
-69.9571
-66.9172
-15.0457
11.7309
18.6263
9.50599
40.2554
131.406
140.232
107.353
88.7684
23.8393
8.6354
34.6986
40.5063
32.0082
-2.20107
-88.2082
-138.997
-115.538
-83.9874
-30.3492
3.93642
14.2784
37.4066
60.8555
93.2199
73.2539
23.191
-25.1888
-49.6277
-69.2475
-112.387
-116.857
-48.507
1.74683
67.1588
163.453
194.656
200.194
175.137
106.805
74.8218
-4.55837
-141.025
-162.46
-118.824
-110.619
-134.766
-98.7671
-64.2199
-59.2074
-36.0848
-36.2405
-21.2563
14.6147
52.3709
74.0249
61.0744
89.9572
109.886
50.682
-57.9153
-120.277
-45.754
24.1709
11.3661
-80.227
-70.8571
-24.3733
16.4611
41.1634
65.5967
69.1032
78.358
-1.14696
-83.2622
-77.9573
-10.0023
13.1149
16.3395
64.8319
81.1746
32.8358
25.0209
-18.3725
-67.0602
-7.92766
72.7898
94.4186
96.5351
31.5819
2.38366
-25.0243
-55.1912
-18.0905
-11.195
0.388976
-0.484404
-125.601
-158.102
-89.7184
18.5909
82.0498
71.0119
30.0907
0.164545
-49.9486
-49.5462
-14.3125
36.2999
126.289
133.712
46.1481
-80.0372
-175.269
-288.99
-304.991
-119.995
96.2136
158.346
148.932
131.533
185.742
172.601
79.7691
14.9276
1.14461
-43.202
-70.5903
-99.1643
-133.298
-125.427
-40.0164
26.7821
54.8558
135.017
148.267
87.1775
31.914
12.2176
-3.19225
-77.7194
-65.5997
-21.4243
-12.4663
-19.3211
34.0068
63.2859
36.5502
-30.2763
-48.4384
-64.586
-37.1212
0.746821
9.63302
44.2304
104.739
29.9991
-46.3755
-71.4287
-109.213
-109.811
-96.9487
-85.6822
-59.85
-22.8328
-39.867
-13.6964
55.4729
107.084
85.163
35.5835
11.4133
22.0695
24.1868
35.9193
5.8034
19.9698
65.0901
76.0764
89.9651
70.6797
5.39552
12.2073
49.2099
43.8297
35.3149
10.0479
-8.78315
-39.4604
-73.5608
-55.9998
-49.7838
-53.7278
-19.829
-6.10152
13.6543
-62.7908
-121.304
-92.2278
-69.5614
-58.4852
-44.6187
-2.32276
54.7798
53.3787
65.0559
73.676
26.1566
-28.1293
-52.99
-48.0053
-47.436
19.2344
75.0853
52.8032
31.0053
18.9052
35.1567
70.64
92.442
123.35
118.065
26.6704
-85.6904
-172.573
-216.135
-172.513
-135.782
-58.1733
66.9115
143.55
120.08
46.9264
3.79403
40.5319
54.3793
81.0477
55.9288
14.5337
-22.2303
-38.811
-39.8607
3.19961
77.6841
130.081
94.6724
-21.6112
-88.967
-109.197
-79.7549
-96.119
-65.3549
-47.9205
-53.1285
-14.6759
-16.3281
-45.9907
-21.7636
-37.1436
-21.9681
12.1269
61.6333
60.8053
22.0908
22.57
1.71321
41.5036
83.8015
116.285
91.0678
65.7542
29.8931
-34.782
-87.4866
-87.5
-53.4463
-18.0784
6.241
-4.52733
-24.9007
-17.5474
-41.018
-13.8092
-17.2723
-34.2151
5.75032
1.94311
8.46723
58.9934
18.4975
14.5193
29.2993
34.1846
33.5161
-18.4331
-65.1958
-4.6518
-0.500058
-13.7368
15.4572
44.0024
50.354
19.8691
-10.5702
-12.0933
34.325
26.9453
-22.6139
-46.4192
-33.3117
-50.0958
-50.2416
9.25171
62.173
64.4116
-1.2512
-100.642
-92.9784
-48.8338
-38.2184
-38.7513
-16.8408
8.31057
50.4413
48.7232
59.272
72.0372
108.599
77.0144
26.6856
15.7249
0.422846
-51.188
-62.1819
-93.1451
-27.8165
55.2571
68.5203
104.847
101.036
50.9834
-25.6762
-135.596
-192.842
-168.29
-152.278
-93.4612
-17.0791
17.5763
55.8251
66.9043
71.924
80.3479
78.5652
103.822
78.5695
-1.38844
-20.5116
-57.3574
-67.3066
-42.6478
4.69586
40.4919
83.9924
145.493
91.4224
29.8738
-9.50659
-34.1975
-47.4568
-63.4759
-34.2529
15.2223
0.53602
-31.5822
-29.8816
-21.1417
-47.3548
-36.9217
-23.716
-15.8645
-27.4613
-57.5639
-50.2419
-75.1028
-37.4827
12.0589
6.89782
6.56677
25.0996
15.8173
-16.2441
8.23251
46.0573
77.0995
92.1808
105.614
110.54
61.2139
-12.7206
-53.4801
-63.527
-28.3921
-15.8286
-13.2942
22.4522
34.5613
-37.8991
-36.1466
-22.3828
-7.05323
27.1484
23.3508
4.87467
3.00517
22.0185
-15.8752
-19.8264
-26.1232
-38.3095
-79.4619
-61.5521
15.4911
55.9566
39.7223
21.564
-14.0202
0.742876
4.02673
-7.08988
5.62058
-12.3407
-54.3532
-24.3646
-6.83647
-26.3245
-10.1597
3.60665
50.0666
72.5937
58.4576
38.3085
20.011
20.2338
26.8466
12.5306
-5.19808
29.7343
-13.8066
-33.376
1.14876
22.0618
-0.33493
-63.297
-93.3466
-35.2161
-24.6075
-43.6422
-51.4267
-25.4389
6.99975
7.45563
-11.7224
-47.4274
9.84214
31.6076
39.6704
84.4141
120.76
104.188
57.4482
11.8031
-2.68641
-14.3898
-34.1144
-56.9486
-89.0033
-56.7593
-9.41811
42.6016
61.4431
60.5464
75.3737
54.115
-54.872
-70.6229
-49.7874
-65.1753
-37.1388
-15.1607
-4.21607
-0.469296
-36.0194
-52.7332
-17.0255
-47.214
-20.1449
18.3034
43.0847
43.8908
8.01352
9.56658
-2.42155
20.6683
39.4228
35.8696
81.0598
35.203
-31.1523
-88.7808
-126.434
-113.042
-71.1824
7.31835
87.4209
127.07
104.54
60.8407
13.5025
-14.6057
4.61209
18.1534
16.2701
20.382
5.97025
-21.6028
-27.5143
-20.0905
-29.4313
-3.43291
59.9455
102.846
66.442
39.2449
-9.1611
-66.289
-44.462
-44.697
-51.2173
-28.5633
-57.1366
-75.9734
-64.497
-60.7567
-24.3036
8.2461
19.0385
67.6487
63.6252
19.4552
-20.2039
-37.825
-14.0052
0.164085
11.9738
30.409
83.7108
70.4983
-21.8331
-86.5668
-70.1779
-32.8506
-0.74898
25.9279
35.7476
42.4728
10.51
-55.8313
-23.6567
41.3094
24.9749
25.5734
69.8648
47.6554
7.45925
-3.92139
-47.6414
-38.7791
0.737004
17.3304
12.554
-2.19455
23.0328
-1.21162
14.0982
4.82156
-31.7573
-15.4446
-12.2036
-19.4398
9.36689
11.2752
19.5071
4.29551
-14.2191
-31.2411
-14.9647
6.22056
-7.46347
-56.5012
-12.8951
-4.91164
-8.0246
8.70024
-4.07839
-3.7912
42.779
38.5479
34.7275
27.8582
-6.97809
-39.4363
-29.608
-10.7919
-23.8162
-21.9143
-36.9128
-23.507
14.7442
41.7622
41.3526
56.6772
29.6407
35.4225
8.49858
-34.5326
-64.1039
-50.5125
-28.2106
-6.15682
16.8764
38.1901
-2.83663
-23.9573
-4.96085
-4.44369
14.0114
8.89602
16.1238
37.5352
42.2563
20.5244
16.6352
-9.57803
-11.4232
5.56541
-11.7721
-15.7209
15.6923
-35.1415
-77.6732
-37.0868
30.4767
94.3533
93.8255
68.3983
52.6337
0.473836
-73.5918
-91.8126
-99.6183
-112.288
-128.087
-127.5
-82.1818
-12.3031
36.4254
28.0015
41.6977
103.456
136.376
102.189
73.7255
55.2231
81.6098
13.1014
-0.174547
8.57142
22.277
49.538
37.0323
3.26715
-10.9045
-41.4331
-38.3347
-49.6264
-23.8351
34.8489
19.0675
4.98691
-14.6262
-60.3931
-63.2084
-68.679
-90.5909
-53.623
-51.1576
-24.8377
-19.1112
-44.3312
-32.5715
8.37861
39.3354
79.4642
106.31
117.736
104.161
9.43804
-33.0932
-46.9757
-60.1759
-61.0246
-87.3684
-102.952
-83.3173
-6.36501
33.9392
-4.18479
36.2516
77.3639
91.374
89.9085
74.3053
70.0905
63.3287
13.9109
-76.477
-72.807
-67.4041
-61.4609
11.9048
69.9528
71.1352
63.1593
4.13944
-35.4541
-55.3087
-36.704
-48.8932
-13.5051
31.8448
44.7884
12.1106
-7.37652
-29.872
-25.794
-3.26854
37.472
55.6052
52.9578
-16.8985
-60.9123
-56.7532
-24.4424
20.6603
67.9635
97.622
92.3559
2.07087
-72.3667
-117.23
-128.921
-75.165
-32.8464
-38.8537
-25.656
18.5739
17.79
-27.6238
-0.781582
41.5895
59.5684
69.5698
73.1167
76.4552
33.9115
-52.3124
-79.3538
-49.9672
-15.4694
1.63261
-17.5643
-19.5282
-32.5153
2.18557
59.1558
36.3537
8.16155
21.3897
17.1427
44.6508
-25.4963
-58.8928
-73.36
-76.0934
-48.0805
14.6635
82.7095
174.707
203.622
113.545
90.8602
57.1945
15.9579
-47.7457
-123.116
-133.028
-70.9484
-33.0243
-68.9428
-68.8671
-22.3093
-19.4265
-17.9222
-14.8448
-32.8185
-1.36185
18.6164
-37.3391
-86.0785
-41.266
-0.20148
6.53625
5.60205
2.99988
40.388
43.9135
10.58
12.7981
21.4208
2.69066
29.854
53.8719
89.4011
27.6416
-14.4085
-29.1357
-44.0826
-8.07437
-1.52963
9.51457
32.6007
-7.36038
13.6855
37.1868
14.0114
14.9525
17.0446
3.26565
27.0376
29.943
42.0969
42.0353
-41.7108
-71.2112
-60.6354
-53.8352
-21.038
45.0664
14.5004
35.5777
41.9993
47.5977
27.2874
-12.6292
-54.1529
-63.6305
-68.7271
-128.032
-119.896
-122.637
-159.033
-130.745
-27.1427
82.2894
151.66
117.263
109.129
108.528
122.847
70.1967
9.21284
21.5392
56.3852
43.9263
-24.971
-39.6474
-28.4812
14.8413
28.4819
38.3088
78.811
90.6604
31.1354
-0.834445
-29.0252
-39.0864
-78.0058
-107.972
-61.6625
-26.7274
-86.3398
-113.088
-119.426
-76.469
-0.230074
34.728
67.5956
94.1104
16.1183
-22.9314
-19.453
-39.8665
-35.2938
-44.1485
-32.298
13.435
30.7688
16.62
-19.9761
-13.3406
37.4768
57.2639
62.1994
81.8739
107.916
89.2012
20.7445
21.2204
55.8838
85.2443
62.6627
-31.3103
-63.1766
-69.3126
-78.75
-28.8965
7.61409
6.6473
-1.41743
-8.89919
17.0784
-42.6501
-70.5384
-57.8253
-56.8084
-63.1795
-23.7385
-0.924438
32.3018
35.8859
26.6155
62.2312
62.1353
39.3675
19.7058
-32.7807
-84.8232
-104.051
-98.529
-58.8601
-31.0029
29.2551
53.3364
42.5526
50.6449
63.139
71.6149
42.8723
15.3074
19.5047
28.0627
47.6677
55.77
54.3055
-18.4956
-90.9324
-164.446
-132.366
-93.7557
-60.5502
17.3615
90.7301
103.588
112.116
75.5269
10.5748
-4.82457
-19.7474
-24.3392
-36.3096
-29.331
-17.3101
7.22447
-4.781
6.19239
16.2026
54.9735
59.3452
42.4236
5.41676
-28.9115
-83.6407
-103.004
-99.2354
-64.7846
-4.14831
15.5353
40.955
38.9635
-14.027
-32.9504
-46.3987
-32.0034
2.86678
15.8334
28.9284
88.5119
84.8929
113.048
106.604
57.0125
-0.789824
-54.8131
-56.8851
-8.38949
-41.1256
-62.7732
-68.6723
-53.3711
-27.7302
-1.45181
32.6321
40.1625
11.2987
25.2488
40.5067
17.7916
5.3386
-19.1532
-31.2116
-11.1455
-1.89288
41.1943
46.5938
0.842696
23.4244
57.1527
49.8919
62.5789
-10.0503
-91.7281
-118.177
-152.647
-154.777
-75.9775
-5.48153
23.4066
70.0742
86.0316
57.1003
15.2423
24.4887
9.89642
-30.287
-43.8606
-35.1653
-10.1835
9.5607
-34.957
23.7816
92.7922
109.741
80.3075
59.5409
19.2011
23.6247
11.5619
-20.728
-19.5212
5.56607
10.5064
16.1779
-9.31795
-40.1551
-100.964
-97.9964
-120.545
-120.92
-51.5691
4.88468
43.5937
50.7142
30.3833
63.1261
69.1448
45.0717
52.7503
65.9594
54.5063
13.786
-65.2537
-50.1017
-31.6079
-19.1864
22.8066
41.623
29.559
30.8486
18.5729
-38.9273
-56.5708
-46.1754
-16.6318
1.85533
-6.99895
-20.3995
-16.2372
-33.9676
-54.2394
-49.1274
-20.43
-2.05865
16.5682
65.9858
139.655
49.8864
-44.6684
-67.5126
-78.1353
-58.036
-50.8222
-17.0021
58.793
102.719
32.1605
13.715
-4.81583
0.720502
35.0345
46.1044
68.3836
67.5754
71.2333
-11.993
-53.1472
-10.3267
26.9013
15.2746
5.06118
29.7036
43.7533
-20.8593
-63.5883
-73.1921
-46.6277
-83.8931
-81.5175
-48.177
-39.1699
-28.6068
-60.6048
-34.2461
-22.5024
17.4754
25.6101
62.5876
92.3965
90.4172
46.3258
28.0477
11.5607
6.17322
13.3318
40.4759
93.4901
120.314
34.6354
-48.3823
-91.5521
-125.3
-116.29
-158.461
-106.68
4.51351
-2.64935
-11.2668
10.1472
29.07
52.4065
42.6506
15.3445
71.0914
48.3515
1.3928
-12.1679
14.6379
48.5748
53.7126
32.3689
3.41983
-25.5736
-8.54041
-42.7055
-109.275
-88.6489
-29.2543
26.4153
81.6793
59.9649
43.4315
76.7504
67.8661
38.1691
-3.9143
-21.4705
-39.4804
-26.2443
-5.98478
-13.3809
7.0008
55.8557
78.3769
68.0826
37.4651
-27.3171
-95.2521
-86.9804
-122.616
-112.521
-57.8748
-63.0444
-73.6718
-54.7207
-45.2346
4.42395
27.2639
-18.1551
-12.7284
37.9746
60.8621
81.4547
76.7007
52.4444
70.2743
79.3909
79.0467
34.2133
11.2181
10.5644
-4.74174
-22.375
-19.965
-15.7274
-37.4331
-57.6662
-59.7091
-3.35148
5.91822
-2.92199
14.3029
26.4498
26.8687
32.2553
-33.9567
-26.7167
-9.20836
-27.5403
-27.5567
0.350903
18.1545
10.8238
-40.6002
-19.8523
-0.329366
-9.74914
-10.7883
-0.331942
32.6714
65.3074
15.1466
-16.0839
-41.5753
-40.8749
4.51164
22.9182
52.236
57.9854
21.0811
17.4783
-7.17022
-51.6057
-56.2373
-49.1324
-22.006
6.33927
3.50322
33.1464
39.865
35.4826
98.7535
100.183
86.3394
39.4744
-57.1315
-91.5322
-124.207
-195.191
-176.258
-89.7978
-21.718
63.6496
126.236
135.359
67.32
-26.2407
-53.9047
-48.5101
-45.453
-23.2639
3.2345
7.37781
9.52296
-9.30538
40.1095
89.2
100.062
123.181
115.242
58.3472
12.6409
-7.50505
-11.1311
-33.0203
-34.6025
-24.9209
-27.097
-25.5504
-3.62112
-27.5697
-100.848
-68.5869
-34.5233
14.3345
30.635
6.81396
-3.94489
-15.1214
-7.82412
-18.0278
-35.8365
-50.7503
-56.628
-30.2899
34.9311
69.4839
14.0272
-32.6032
-46.3982
-45.1449
-4.08803
-7.50483
-2.56009
6.19004
34.9844
41.7119
29.8589
52.7765
69.3064
52.285
47.0589
46.3569
27.8898
-11.3173
-63.4532
-55.1452
-9.15323
15.0047
5.00836
3.85945
36.36
36.6391
11.0105
9.57598
-4.38751
-27.4938
-26.5232
-1.28694
38.4354
11.4422
-20.0915
-63.1843
-78.1534
-69.5797
-27.3486
-1.84779
19.1245
9.53757
21.8003
-1.26374
-1.45382
8.75009
17.8466
8.37824
14.8504
13.4674
27.239
4.30405
-51.4444
-32.8684
-4.05076
12.6893
19.4432
21.4386
35.4834
50.6521
20.2854
-1.96286
0.513503
55.1204
80.8539
49.0342
-11.4926
-49.0321
-103.747
-127.354
-157.967
-184.264
-141.542
-56.6366
37.0479
108.624
104.87
100.375
75.4666
18.5033
34.36
65.6825
75.4675
81.1238
7.1049
-26.4196
-9.47908
1.65909
28.5611
45.1826
75.4719
105.651
45.4714
5.04001
-41.2084
-73.6425
-74.0705
-64.1978
-36.3263
12.5049
-2.31557
-66.0383
-99.1034
-126.058
-116.017
-81.781
-36.8858
5.39482
71.9637
90.5054
34.5108
-7.32494
10.4209
-11.5983
-29.0987
-17.6243
31.4736
77.9124
49.7632
8.52253
28.9159
57.0434
35.879
3.35934
9.37305
32.4027
47.8623
38.081
-53.5522
-63.7604
-39.0482
-13.583
1.88886
2.35902
15.6309
14.4078
-38.1385
-55.1207
-11.8019
22.5225
13.4375
15.1082
32.6947
-13.9455
-31.7297
-17.4868
-10.4089
-6.80447
27.8012
49.6377
76.684
65.6486
-10.6338
-10.4698
-10.0321
-17.6184
4.25235
-1.48113
4.06006
6.82593
22.9034
-35.8973
-59.8525
-52.1645
-58.6189
-65.4622
-61.7851
-37.7187
10.2151
-26.0793
-30.9418
-10.9088
40.9926
48.6213
34.1936
54.7931
46.455
15.8032
17.8531
-5.89403
-25.642
0.389523
6.32904
66.2292
112.841
74.0662
56.0943
-10.3138
-66.4701
-31.0583
-19.2221
17.0067
27.7485
-58.6604
-70.0768
-67.0767
-83.54
-119.382
-104.417
-62.9246
0.835921
50.298
-6.91397
31.1539
58.3951
69.8945
51.8311
64.7192
80.6418
72.4876
79.2397
19.7266
-28.95
14.4266
20.654
-0.146747
31.6232
66.603
73.0379
91.0619
17.5329
-68.6713
-49.8886
-70.8188
-87.9831
-83.1015
-86.1938
-80.7593
-68.587
-80.7187
-74.9276
-43.8203
-0.615426
23.5729
20.4694
25.4848
-6.09369
-17.4038
-12.5735
-32.1162
-17.2299
42.0117
73.8443
59.6927
2.43793
-16.9267
-16.8995
3.67132
22.8713
48.8835
46.5105
65.1039
94.3821
80.8396
38.1449
4.48436
-4.01682
2.25518
-26.2205
-36.739
-7.49767
52.0413
45.0283
-12.0522
5.55672
11.1865
10.6735
2.57389
-19.2461
-29.2621
-41.3316
-82.3811
-85.7122
-66.3619
-35.894
-25.7738
-3.49461
19.0023
25.409
-20.2769
-33.0789
-38.3581
-20.7705
-10.0259
-1.06146
6.27792
34.987
24.5226
4.86777
0.801062
-4.77689
20.9557
30.7375
42.9836
80.2793
114.924
53.2398
-21.0329
-39.3339
-30.408
-38.0227
-37.1446
-25.5059
-20.308
-5.69481
-10.169
-27.785
-3.00608
18.2872
19.468
36.4181
63.3052
79.0431
96.2366
-33.6668
-169.065
-133.41
-66.6663
-39.1735
0.0185049
52.7722
74.961
48.7296
25.0124
-0.621364
-10.4006
-8.92407
-7.31923
0.860884
15.3446
-33.1078
-22.1829
-27.7004
-43.5407
12.6909
57.813
63.6975
85.8311
43.2127
29.1322
40.32
43.4998
21.0518
-19.0144
-56.8699
-39.9661
-81.335
-122.405
-167.865
-133.604
-41.5034
-10.0398
-19.8044
-17.6207
54.8121
108.851
80.4639
63.8138
74.422
81.5931
49.5037
19.0354
28.1297
67.6103
38.5129
-0.536644
21.4251
39.0439
70.1133
57.6051
48.7899
39.8422
-24.7755
-95.5698
-145.938
-145.122
-96.2245
-78.9425
-64.4427
-70.1391
-59.7383
-46.859
-78.3188
-57.3215
-2.03456
30.4166
50.5181
63.409
80.1793
62.0988
-4.49463
-21.4569
21.3159
56.2328
59.7082
55.5121
95.8528
61.329
7.1837
-31.406
-44.7493
-46.6386
-11.8588
6.05344
19.711
44.1863
70.6513
-6.69096
-25.0448
4.49962
37.8184
29.5077
24.651
-17.9261
-64.9605
-80.5654
-97.3477
-53.5242
2.19352
16.6035
0.858303
-15.1753
13.8317
31.7285
14.7399
8.13044
-5.08844
20.5988
7.54773
-24.0108
-15.1102
-13.9878
-37.5709
-3.14826
23.7043
30.5968
20.271
-5.09802
6.86729
14.3107
-9.59363
-20.9521
-12.456
0.67133
14.4253
8.85003
35.57
71.9949
36.8644
-51.3858
-71.1277
-74.4723
-56.2843
-38.2828
-17.0777
28.8121
106.027
114.332
13.2877
-31.0708
-11.8183
6.18684
14.7865
-4.79921
-17.4311
-30.2398
-60.8956
-109.953
-128.828
-117.057
-46.9193
33.7995
109.104
147.643
159.051
90.9095
22.3797
9.96775
40.4793
39.3047
24.0477
31.8992
41.9972
-20.9923
-30.7238
-14.0944
-22.6349
22.807
66.6702
86.3615
63.2675
-43.1487
-139.486
-185.403
-150.257
-68.7651
-19.8011
-5.21166
-13.5375
-30.7173
-76.039
-97.3148
-92.9193
-34.8149
6.96597
34.6621
63.487
105.687
126.562
134.319
15.1811
19.7999
55.7999
71.6102
39.7273
-5.12797
-37.0333
-34.3921
-30.7205
11.1534
32.429
2.43014
-22.3357
0.514349
29.0748
9.54902
-39.2646
-42.2059
-29.6263
-15.4565
0.617679
-1.02383
20.7328
9.99202
-61.7782
-65.4838
-56.5238
-34.267
6.42183
25.8572
73.0558
92.7949
49.0354
28.2092
11.4726
5.72465
11.6333
3.55134
24.9154
27.515
39.1551
-21.0742
-91.8265
-82.0319
-29.237
-22.7622
-28.5867
-25.6632
32.9073
47.857
5.50816
-28.2823
-27.0708
-22.7967
2.22867
33.7854
68.2501
70.8923
60.531
17.1106
-22.1494
-60.1594
-94.5226
-120.283
-106.668
-64.2938
-50.4814
-46.1561
-20.0621
-5.99536
27.2499
59.7931
102.637
154.71
119.566
93.7788
79.9866
-4.80026
-90.7023
-88.7938
-39.2614
54.6688
110.554
111.324
107.788
69.5403
45.698
20.8654
-17.4213
-24.9017
-1.75413
-56.3055
-119.009
-135.963
-133.549
-137.024
-136.601
-96.5561
-35.04
36.491
10.4749
-2.85245
11.2672
41.2185
61.689
63.5823
40.3447
38.328
0.545498
-34.9294
-70.3361
-30.1499
29.626
30.8181
5.8693
6.79292
-4.42568
-13.8766
5.6232
0.00519035
31.2002
57.0537
78.1639
71.3552
74.3867
76.6088
41.5412
14.4212
-5.95136
-10.8581
-1.9695
5.59364
16.4661
-6.5591
-57.356
-52.1394
-39.0721
-48.3483
-67.5395
-68.7833
-34.6225
26.9289
8.75438
-20.6112
-39.0649
-40.5755
-22.1671
-17.5211
5.6456
28.2992
53.1119
65.9971
20.6659
-43.5552
-26.9536
-20.9851
-15.716
24.0375
52.2712
51.0803
2.23962
-26.2718
-9.83839
7.82784
16.9888
38.5452
91.9521
123.195
34.5801
-57.6537
-127.36
-159.577
-167.59
-128.978
-28.7371
23.3942
10.8641
72.1012
109.643
115.244
113.889
85.0621
63.531
52.5178
11.9346
-19.0761
-58.8767
-78.8075
-28.2189
22.1914
38.0149
29.402
52.8474
34.3636
23.7624
-9.87831
-20.1404
-67.2745
-108.674
-105.345
-76.567
-101.424
-65.7041
-69.6231
-26.3458
-4.58887
0.0704866
-3.46667
-0.554995
11.6032
48.057
53.3287
56.8618
86.4667
68.1481
45.553
48.157
40.0754
30.7737
-19.8238
-3.99871
59.9288
66.408
63.7792
33.3734
-3.43725
-32.5504
-77.462
-80.6124
-41.3581
-11.2104
-19.2151
-42.2245
-25.3211
0.121037
-31.5836
-21.5489
-47.0048
-64.6721
-28.9207
-8.49584
-12.433
0.538799
24.0827
23.7403
35.1997
41.3783
36.0649
41.1702
37.9151
53.4954
32.0434
7.40956
22.9129
6.78674
17.01
10.4468
15.7894
31.7407
19.0803
-25.9975
-38.3249
-54.0007
-45.2867
-25.5021
-43.5213
-42.0017
-19.9009
-25.3171
-16.6563
-33.2692
-13.9176
-1.85661
-1.84433
53.89
105.27
49.2894
-4.03459
-49.7513
-40.6015
-19.6491
-1.77723
18.6671
22.2667
-4.50355
-3.22791
6.88892
-3.90089
-24.6076
-56.0791
-72.6163
-52.9885
25.1231
65.3444
-9.10216
-18.6887
32.9294
63.936
82.0913
78.4997
79.6054
105.097
43.0557
-30.5768
-50.8661
-36.5443
-33.3839
-26.2777
-15.2543
10.7593
43.2781
56.371
-12.6346
-65.8775
-73.0308
-86.9091
-80.8859
-52.3699
-16.7589
1.92525
-20.3482
-47.821
-29.9995
2.5359
21.7138
7.90866
25.328
56.6475
27.1643
35.6542
29.5068
35.8561
67.8164
70.1835
92.0655
59.4247
-8.06602
-12.9741
-29.0096
-81.5462
-119.418
-170.318
-108.563
11.3792
49.0639
25.2483
29.6403
41.784
78.4525
65.6923
40.7022
26.7444
9.31916
-54.3272
-76.5852
-60.294
-23.7586
-10.0954
7.20102
36.4295
68.2327
78.7911
60.8107
17.8812
-6.53413
9.7977
-1.0149
-12.1882
-11.4905
-56.8081
-68.3134
-59.3448
-45.0135
-28.4597
-16.9205
11.137
45.1086
38.1027
9.68529
-14.9308
-25.5278
-16.9123
-3.22408
-0.0134323
17.2796
37.853
61.4652
7.58076
-41.5132
-19.5126
-2.01032
4.88271
-3.09814
11.3831
2.27795
7.40869
-22.4289
-40.8184
-50.055
-35.0098
5.40535
16.9484
23.997
33.2062
34.9067
-30.7415
-73.0981
-35.3771
25.9187
36.9142
46.9893
79.9908
96.1737
94.4389
111.044
58.6052
-10.2175
-50.6283
-52.227
-21.1313
-15.1345
-47.4914
-72.9018
-84.256
-71.8644
-36.5527
-41.7746
7.50379
60.5371
44.5071
16.6095
-26.5437
-71.1932
-76.6831
-67.3026
-12.8725
56.0913
64.7449
69.8053
47.1672
16.965
26.7612
19.9063
-5.12528
1.77668
41.6895
10.0844
-6.88538
-26.0974
-43.7918
-66.3712
-69.8263
-49.1105
-19.6663
-6.41362
-47.0335
-32.281
23.7271
60.3791
74.9548
79.1293
77.1758
78.8223
57.6144
-11.4495
-28.826
5.78239
-4.84415
-8.23281
13.7946
33.1873
18.2088
-36.1056
-36.2829
-34.4899
-6.8293
6.89464
4.61949
5.58512
-2.91389
-40.904
-42.8218
-53.7644
-43.4964
-31.6408
-37.1427
-6.98293
4.3312
18.7406
30.1344
29.6357
15.3443
13.0859
-11.2883
-40.5543
-55.3342
-64.71
-37.4216
-16.3721
17.4495
47.8736
53.4829
50.0835
52.8483
99.1707
67.9605
16.7411
-3.92631
-18.4658
-24.6375
-31.2124
0.123684
58.7602
52.1742
34.7227
22.1783
17.4637
14.7029
-2.37262
2.13854
31.9502
-2.9017
-39.6117
-72.6618
-130.13
-132.346
-108.834
-113.633
-64.9412
-36.8753
-6.66465
13.5648
28.4581
60.0867
60.6075
84.971
143.519
100.079
68.2221
25.9263
-10.303
-13.2599
-6.08905
-22.0313
-26.9413
18.3936
49.2046
26.2895
-12.4899
-16.9509
-9.68182
-8.15249
-20.3731
-30.2969
-19.951
-32.5814
-92.9448
-116.856
-79.7035
-7.57929
41.8349
74.4215
67.9451
49.2661
60.0031
-2.2296
-45.4294
-3.48701
16.6257
11.8266
-18.3186
-16.7559
-13.614
-55.9879
-56.9173
-28.0123
13.55
72.3309
77.9675
37.4998
25.7479
2.64721
16.6755
33.9758
18.5888
31.9863
35.6161
27.227
18.3679
4.57058
-62.4139
-63.0786
-46.886
-12.8518
-11.4873
-9.88456
7.31242
29.6099
2.18138
-85.2433
-100.317
-60.5353
-48.2127
-30.7862
-10.6773
15.0817
27.5037
-1.62707
17.0388
36.1637
65.649
65.4662
59.7744
75.6199
87.85
40.6344
-28.8973
-51.6218
-38.1493
3.69843
-6.8564
-21.4395
-5.01978
-8.99497
-31.1608
-11.5866
1.14702
15.0144
-28.5063
-28.1028
14.7943
12.9595
2.56464
-39.0076
-56.7563
-21.1215
8.03148
0.824481
0.11898
1.40461
0.727781
-1.14737
-7.69727
-15.168
14.9678
57.5795
97.2214
112.005
92.0169
60.7066
54.1863
19.0467
-56.9737
-80.0856
-90.5399
-92.9572
-72.0847
-30.7946
-1.97622
0.390251
-41.9402
-37.5508
-31.3745
2.01923
18.821
7.1025
2.4414
-22.4758
-41.9005
-33.1481
-35.1725
-25.036
19.8571
41.8085
63.2384
58.9218
56.133
40.2826
19.7246
20.0492
24.3094
18.4754
11.0167
-6.14569
23.5556
53.766
20.6865
3.60958
5.4719
-3.18899
-6.16666
-45.229
-85.1731
-111.119
-61.561
-19.8369
-4.51861
3.7864
8.57878
31.9537
60.3094
18.7447
8.21328
43.432
50.2054
19.2166
-2.51703
-2.88286
1.97806
-8.02837
-37.0906
-6.57645
38.813
58.2002
-14.1391
-41.7545
-24.5402
-4.56551
16.7577
-41.7325
-42.4719
-17.4708
-15.1546
-18.9997
-51.8377
-64.7193
-40.8724
-40.1628
-52.8035
-14.178
36.8489
69.1197
71.772
39.4005
37.7728
31.1917
-11.9148
-24.2207
-27.213
18.103
32.2559
28.6547
35.3162
64.4501
34.3659
-23.7413
-15.054
7.4519
27.0296
6.43605
-16.8464
-1.18748
41.8036
26.4133
10.3649
1.23604
12.671
12.3613
-16.3822
-16.5398
17.8426
8.2853
-23.6066
-58.5039
-51.2209
-24.9787
-32.5325
-21.9155
6.78599
-28.6392
-41.4651
-41.3591
-49.422
-21.9695
-4.996
21.1927
65.6405
-4.25088
-43.7242
-53.4745
-90.4061
-64.6662
-26.6537
18.4007
76.8157
89.44
83.3045
86.572
68.3589
63.4235
40.2061
12.4688
21.6862
56.3069
42.2558
12.5424
-33.3039
-2.81518
20.1219
10.1363
-12.4148
-22.3952
-25.0002
-52.6829
-86.8554
-126.648
-134.832
-90.9328
-39.5867
22.9159
52.1453
51.3934
56.5593
21.7406
16.282
26.581
28.6131
32.1726
30.5797
45.8172
66.0035
15.8088
-12.9778
-4.44674
11.201
54.8845
80.4318
54.7421
-41.6106
-125.716
-140.797
-124.231
-90.73
-26.0731
12.2779
38.8455
57.291
31.2288
-14.8492
-25.4598
-33.5453
4.97944
-1.29819
-15.6775
-12.2695
30.7222
37.6319
10.9006
71.9881
70.4432
43.8782
32.1572
-10.8575
-19.716
-19.0334
-80.4619
-104.428
-40.6492
15.0836
42.317
62.4641
80.2426
48.9843
24.9965
5.48938
-13.1643
-25.1226
-29.2634
-43.2379
30.4789
78.4678
80.2876
69.2606
53.7372
15.1661
-12.1745
-44.3143
-28.5223
-35.6651
-77.1146
-134.224
-106.567
-31.5656
4.35983
14.4235
-16.3086
-41.075
-38.6948
-26.159
-44.873
-82.6946
-86.7244
-111.92
-88.8
2.03566
114.64
194.068
135.772
114.284
71.389
46.6842
44.3212
60.7338
92.997
156.601
139.319
40.9832
-22.4753
-78.41
-96.8943
-98.5429
-108.69
-44.7926
11.5414
-32.3281
-41.2218
-52.9361
-47.4521
-33.7653
2.74192
48.0299
2.06174
-37.2978
-53.9435
-71.0693
-62.2902
-2.74238
47.0007
87.6208
98.5688
92.3854
108.686
69.4087
-0.997751
-20.9033
-63.0378
-75.3099
-78.6541
-130.741
-103.183
-36.4909
8.37836
17.9941
-9.52358
-42.6442
-17.3022
55.4737
65.9981
22.6132
30.9112
51.7421
35.2083
25.6453
18.73
36.7506
61.7855
13.5024
19.6964
61.547
48.8208
9.02937
-16.2761
-21.3693
-8.5739
-56.5533
-74.6906
-54.9642
-29.6515
-16.6949
-2.86581
42.5082
86.0501
148.501
91.7517
-15.5883
-125.411
-163.802
-168.929
-132.269
-68.9583
-32.0134
-31.6451
26.4274
68.6503
83.4185
67.0412
34.6383
39.1416
46.4742
17.3691
11.4474
0.872449
-31.6901
16.4895
63.8504
86.7429
121.33
92.6775
32.6032
-25.4795
-54.9121
-82.7575
-84.441
-67.237
-25.8642
16.8659
-61.5457
-103.375
-81.4417
-45.4726
-37.0536
-29.9315
-13.1051
6.96008
-6.21986
36.2623
74.6532
97.6504
96.0243
63.5211
53.6395
83.458
25.2728
-2.43746
-7.38543
-16.514
29.2782
27.5655
46.9881
23.1886
-79.675
-127.818
-146.174
-139.135
-104.675
-92.3475
-36.667
39.1512
27.197
66.9176
103.087
124.934
118.609
53.8173
1.07385
-19.9626
15.0031
8.95997
-60.8542
-51.5582
12.6532
30.8903
17.0837
9.56797
17.193
35.8372
16.1929
-40.9784
-24.6111
2.25348
-2.41683
-14.7875
-64.9027
-94.0458
-60.0983
-38.8065
-39.9457
-0.836676
43.9483
42.1035
33.5708
7.06634
1.30387
38.3311
32.6949
12.659
-5.1587
-3.98287
33.4796
29.629
34.1745
60.8459
15.137
0.640291
-12.6554
-31.6408
-68.5325
-94.9073
-88.9834
-29.3323
48.7509
62.0283
48.0099
25.3251
23.4066
23.8087
5.1108
2.55002
9.19926
-5.49155
-54.6703
-61.2516
-3.46993
17.6518
15.3504
4.83339
22.935
39.9778
20.6118
-16.2582
-40.317
-7.51084
3.99196
-5.17776
27.1669
9.77923
-24.2193
-17.9899
2.51091
3.43094
-6.33834
-35.6182
-19.4346
4.12811
-21.1253
-2.81716
24.6186
60.2936
57.0837
12.1938
8.34973
16.4386
-23.7337
-74.5871
-109.164
-77.5774
-17.9347
-32.0865
-33.6864
16.8494
65.4541
43.2071
12.5129
12.4228
66.9775
88.6916
61.1725
25.7737
-3.90261
-25.4606
-8.2684
-43.0484
-4.63985
39.2659
66.5475
67.3581
30.2484
13.9182
-18.8301
-62.8924
-125.191
-70.722
-11.6215
-6.96825
-24.1175
-49.5893
-21.43
-8.90182
-17.225
7.01353
-2.43431
23.5181
34.5617
19.2644
12.5987
27.5497
10.8751
19.8359
29.6412
22.8229
31.2758
6.63635
-5.11679
8.76149
-2.10639
7.09895
-10.2072
-30.9887
-27.2706
-21.9828
-23.9902
17.5979
29.9248
-54.1561
-97.9052
-81.812
-29.407
11.5732
48.1026
66.0283
78.9639
69.2148
-11.866
-45.4291
-11.392
1.14147
-7.94265
-13.6053
39.0033
68.0208
13.6586
-14.5579
-17.7719
35.9651
62.6751
47.0888
58.5177
41.7085
-49.6429
-102.167
-106.852
-85.9389
-14.3604
35.9363
48.1854
20.0507
-4.00054
-47.4694
-80.3329
-67.4688
-39.866
-51.9137
-18.8545
43.2662
74.0855
32.6841
-6.9926
-6.93464
35.2386
66.6772
89.3117
76.1971
76.1816
12.3825
-44.3386
-32.9236
-30.5496
4.99385
35.7667
26.7592
14.3623
-3.82466
-24.8103
-64.198
-71.2952
-37.9761
-22.8356
-23.8458
16.0604
80.5395
52.9722
-67.2428
-111.256
-59.2235
7.4616
11.9473
17.9591
39.2072
46.1273
24.765
2.05308
-70.7191
-91.6275
-23.6444
-3.31711
-8.513
-1.60924
-0.80678
22.9606
-1.54951
-5.07897
62.0683
76.1529
49.4085
6.62921
-14.7458
15.546
43.1276
61.9173
64.1578
57.9158
89.086
81.909
12.0539
-54.6423
-86.245
-70.7797
-40.0718
-50.7652
-67.6492
-39.7939
2.46653
1.78925
-42.1744
-13.1191
4.03871
-18.8649
-30.9299
-37.1948
-26.6215
8.63349
7.48534
-15.3685
0.384054
22.9604
39.5553
27.1871
4.3042
10.9594
-31.7423
-48.8021
-39.0832
-12.5579
17.1577
11.1842
23.4672
37.2443
-25.769
-14.8339
5.69295
22.3866
59.8627
82.2673
92.5731
80.3334
38.4396
0.246767
-26.6697
-47.5534
-36.7183
-35.4488
-28.9974
3.50951
30.8051
-16.7812
-15.6659
-12.3338
9.43129
-11.9109
-32.8173
-48.6235
-40.8924
-59.26
-84.3349
-42.968
7.02244
34.3671
52.9132
53.4984
91.5072
55.0244
12.4332
-2.26967
4.96062
29.5167
29.4835
34.8004
104.15
74.4559
-16.0157
-44.1968
-83.6457
-107.191
-108.931
-132.749
-131.932
-98.0829
-25.4657
18.1894
39.8819
94.436
108.074
70.8373
25.276
9.56394
-61.9984
-77.4877
-62.0725
2.16281
72.9483
81.9688
91.1815
113.947
121.326
84.2919
45.3235
31.4588
6.14322
-25.4855
-53.639
-69.329
-82.7077
-91.5536
-105.974
-98.7115
-59.5223
-22.235
-7.07359
0.723725
22.818
65.1907
82.8396
25.9814
6.98685
9.45833
20.2719
15.3758
14.8713
44.9063
-13.946
-54.7412
-39.7223
0.378388
30.1362
36.1663
56.688
53.1966
-1.68245
-48.2238
-62.3104
-84.4718
-93.6235
-58.4765
-18.3725
36.5999
27.6044
-14.5646
-21.2613
-15.8827
26.8095
35.2224
30.7004
42.9803
44.1587
32.65
-16.2
-50.759
-51.1331
-25.8019
-28.7327
-24.6544
16.7954
82.1103
48.4407
39.6266
51.7122
53.6797
37.7126
12.0868
16.5668
40.5713
-13.338
-36.5597
-10.7732
3.54439
18.1478
-16.3992
-5.58198
7.73716
13.5182
6.31511
-12.5428
5.2282
41.9659
-7.81026
-110.506
-175.059
-168.772
-161.631
-127.608
-83.9011
6.1015
61.1395
83.5551
93.0864
147.626
126.496
40.7577
27.3722
48.1574
41.8752
33.1465
30.4027
35.6105
46.2414
78.9138
48.3299
23.5082
14.2967
-28.3537
-59.5572
-78.4452
-95.6386
-71.6181
-53.8304
-27.0628
4.99183
18.8867
-1.58144
-33.8434
-32.4768
7.77823
-51.0733
-66.4467
-45.5697
2.6755
49.8601
53.0697
35.4369
42.3629
26.548
13.5441
-4.20145
-36.9823
-51.2483
-58.3344
-26.1689
40.2035
13.9519
14.1952
28.783
29.818
30.5715
4.78882
2.15444
28.1782
58.3714
72.6279
46.1802
30.5795
23.6498
7.10628
2.96052
3.88633
-45.1007
-95.4252
-104.424
-92.7015
-37.7934
6.00979
11.0901
12.0706
49.3799
59.993
10.8791
-10.5163
-25.9004
-58.9426
-59.5208
-50.9581
-8.599
48.8568
82.2285
58.4985
63.9086
107.42
121.176
39.6829
-58.9411
-93.0585
-69.2259
-73.1554
-80.9173
-72.9625
-16.8968
22.9471
50.1431
51.3145
61.5994
14.7559
-5.29981
-12.7892
-46.4695
-41.2464
-13.3942
-10.4796
26.3383
40.7523
15.3345
-3.30889
-37.4695
-90.098
-107.661
-89.1814
-31.4925
46.641
87.5472
36.0718
12.7107
61.7944
73.99
65.211
53.1249
35.8922
43.7295
37.9486
-77.3009
-112.317
-19.0209
27.438
25.6605
16.1312
19.0126
38.7394
-3.76429
-64.6434
-70.5916
-34.9641
-11.1668
15.5932
31.9102
32.6408
-26.2821
-37.7395
-37.7688
-37.1911
6.54182
35.4377
45.042
44.1217
11.4226
24.001
31.4287
22.4143
35.4167
35.7618
51.7298
43.8747
-51.6776
-86.6918
-89.2223
-99.5199
-58.0716
-3.90713
1.4952
-3.84566
24.8746
9.00681
-30.6747
-58.9092
-34.7417
-9.47289
28.1799
37.3081
28.3049
20.7225
-9.99583
-31.1508
8.79182
36.3105
39.7344
38.8875
49.6683
32.8493
38.432
1.929
-26.8752
8.56995
10.9876
-6.42285
-1.65432
19.9844
16.9844
-30.1782
-51.3429
-36.3485
-46.1008
-10.9472
97.6611
124.244
119.546
79.315
-38.3686
-140.493
-178.304
-154.04
-129.532
-48.9704
14.5634
50.5367
42.7793
22.515
4.13225
31.5024
71.9394
82.9108
81.0851
57.9377
10.1108
-68.4034
-128.406
-115.745
-61.8481
-23.2791
27.4587
91.1645
159.646
106.572
19.9328
11.6877
24.1447
18.28
2.7643
-13.4533
-7.92282
-42.1902
-72.8087
-52.0408
-43.7093
-20.1947
-18.9145
-30.7213
23.219
93.6668
46.6433
-18.9035
-38.6658
-27.2383
10.1312
23.1226
16.3902
-16.2758
-55.8779
-80.8221
-79.0505
-61.3319
-29.4185
-3.55631
18.471
51.2586
94.5771
67.2498
24.3486
10.3746
17.3126
32.7184
18.2548
0.174852
15.9064
20.3558
-28.0628
-17.015
-2.8676
1.84259
-12.2995
-24.1339
4.86184
19.1734
-19.7901
-32.0197
-18.8753
14.5828
43.8391
35.4508
56.0804
50.1476
-15.1934
-48.1743
-35.1728
-7.66274
36.7436
31.2826
14.6658
-2.01105
-56.1024
-51.3291
-43.2131
-32.2484
2.20276
26.4209
39.6187
63.8733
-8.62219
-93.5867
-130.948
-117.64
-93.2196
-58.7426
0.540156
37.7464
64.378
48.5453
82.7864
133.815
142.837
82.2064
40.3615
26.3225
10.9586
-5.3477
-89.0585
-95.8377
-15.1687
59.1088
77.3673
93.1631
93.9769
55.2216
1.6577
-70.9087
-111.236
-98.3108
-108.065
-142.135
-119.744
-76.4842
-46.6364
-20.5433
-31.6986
-26.4777
41.1799
75.8427
94.9161
80.5879
68.8843
37.165
-15.0845
9.79688
-1.26352
-11.0111
8.61747
31.0304
67.5254
80.3371
16.3096
4.54011
-2.82095
-28.8756
-18.2417
-13.9749
-5.19509
3.56186
-5.48141
-43.7682
-38.4011
-44.0083
0.0915452
11.6602
-2.51087
-10.8554
16.3155
13.059
-28.2975
-25.2386
10.6873
25.3538
26.3802
22.1306
43.8195
46.7345
-21.407
-48.3704
-48.3114
-22.5542
-18.6786
-12.3166
49.2674
44.5749
11.9987
4.41137
-39.9861
-52.7317
-50.5104
-53.5248
-7.11083
13.101
14.5681
1.79897
-3.24629
9.52337
40.6913
31.2775
41.752
0.0322391
-42.7529
-30.108
-10.4407
35.6488
88.0035
99.7034
101.507
26.3212
-12.473
-10.764
-10.0182
-9.22649
-28.1234
-21.3185
-9.23216
-10.783
8.8244
-68.2751
-122
-80.7502
-50.8604
-83.8238
-106.794
-76.5575
-25.0277
30.5267
44.4582
70.4925
89.5326
80.9527
66.2544
45.5303
22.6248
25.6942
65.258
34.68
25.1257
48.6753
31.0841
31.7289
32.6452
43.0349
52.8009
-1.96957
-69.5401
-96.9561
-90.418
-59.4783
-49.7891
-43.9259
-28.4331
-37.4959
-33.4656
-40.2596
-75.4744
-71.9897
-44.678
8.73416
56.677
60.1295
64.4263
52.3
36.213
24.0033
17.4601
-5.38961
-9.81262
7.41439
59.9724
48.2018
13.5391
-0.842933
11.4008
21.6884
6.9419
13.0618
-6.66373
-80.71
-67.2907
-22.887
-0.457709
8.39497
36.9758
84.7365
44.4109
-11.6217
-29.6566
-29.2396
-56.3626
-55.6022
-73.3996
-2.23004
33.9737
-24.148
-17.0766
2.1606
16.9223
57.9021
48.8619
38.5548
47.3319
31.1283
-49.9291
-62.5665
-28.3535
1.66515
26.9929
40.8548
31.9931
41.7304
20.4063
-8.24152
-22.8226
6.44933
-6.42974
-31.0695
-22.6193
30.2964
-10.7987
-30.2428
-42.8157
-29.2963
-4.74747
-11.9069
-0.445842
21.0687
1.23848
-14.6674
-7.23623
9.62232
34.8857
-6.31149
-36.0438
-6.99178
-18.9017
8.95696
6.00062
15.3438
16.6835
-32.3767
-31.6105
-27.6033
-32.0017
-21.7766
0.2734
6.88681
6.14025
18.5708
54.4559
45.3998
19.7626
24.593
25.576
17.2241
24.2726
18.8918
51.0946
92.7457
81.6975
55.8432
13.7691
-13.1165
-29.9557
-71.6723
-79.6067
-46.1282
12.2004
-9.07802
-33.1082
-36.0887
-10.8161
-36.8926
-89.5623
-110.202
-95.0448
-87.1587
-59.2679
-78.6979
-24.6755
31.2583
48.2557
60.1973
78.4135
113.941
121.279
71.8012
32.822
30.8162
1.08994
-21.5463
7.84645
53.6227
48.1888
46.0952
47.5248
