84.6255
-121.588
-174.487
-112.827
-138.983
-155.757
69.287
233.102
232.728
165.795
85.6496
70.0258
121.772
176.007
89.3107
-3.07718
91.9397
249.465
192.506
-113.09
-278.501
-108.659
-22.5897
37.5163
205.12
320.887
173.238
30.767
-23.2551
-79.7623
-56.6882
-40.0743
-136.673
-230.007
-223.929
-204.277
-211.125
-251.32
-202.789
-74.1985
44.3155
139.778
169.117
109.999
-21.9206
-131.381
-2.05728
37.7584
-43.9581
47.4897
150.569
300.528
402.256
370.794
260.874
118.686
36.7917
16.4487
167.284
306.91
93.0166
-136.41
-312.641
-439.088
-596.635
-651.961
-510.559
-263.152
-50.4336
117.762
362.002
458.59
332.263
216.332
45.1116
-112.591
-181.972
-198.158
-201.533
-203.314
-148.905
-172.298
-139.571
22.4629
170.267
234.064
253.714
245.208
281.277
187.562
-41.9466
-233.518
-205.37
-68.4214
50.6593
187.664
314.311
290.486
198.937
-43.1418
-162.805
4.25774
143.146
132.137
54.7552
-47.3859
-78.1116
-29.8979
-37.7649
-120.232
-202.577
-253.068
-246.352
-172.354
-183.324
-190.593
-153.131
24.3264
233.338
195.596
211.691
213.685
111.414
-84.1294
-172.891
-124.788
-31.6105
31.3544
76.5975
309.787
375.717
183.266
-41.1392
-187.84
-184.269
-156.423
-171.082
-226.524
-290.684
-132.096
11.0395
-3.65233
-14.3592
58.7458
111.111
116.417
54.3295
12.3401
-31.4004
-179.067
-115.461
6.16286
57.9359
70.5377
112.444
117.652
177.444
213.906
172.159
231.363
246.722
161.879
129.82
7.66153
-105.386
-214.729
-328.938
-294.852
-219.942
-120.057
157.58
344.52
329.791
200.756
40.0368
-53.3373
-175.27
-247.214
-178.563
-140.315
-196.436
-231.992
-200.721
-86.8016
15.4864
165.708
237.642
158.075
105.475
40.6225
-156.783
-267.9
-242.066
-193.019
-113.34
-31.5812
80.6557
138.252
103.009
86.1834
150.962
172.883
122.139
110.302
128.416
90.8737
41.559
-4.7142
-59.1314
-168.138
-284.783
-146.148
81.6232
101.743
55.1993
59.1902
94.616
107.26
81.8952
93.3535
99.1984
99.1609
141.499
210.324
164.585
86.8063
42.6514
-18.2161
65.5859
3.17686
-188.59
-311.609
-343.308
-285.45
-209.647
-184.753
-138.393
-22.3951
-68.6468
-100.925
42.3891
29.0349
-92.6278
-126.642
-92.1969
-45.7776
5.75814
44.0804
10.2023
40.2595
67.9891
81.0093
79.2226
122.231
208.922
276.223
223.94
98.5111
76.7568
39.8092
-57.5988
-68.8045
-51.6716
-107.822
-89.2324
-61.3182
-14.5526
105.615
75.2512
77.3443
145.894
152.617
138.278
110.967
26.4366
-48.3
-100.479
-221.307
-300.42
-189.514
-91.5515
-16.6896
61.8402
46.7457
44.9423
60.6515
-4.94803
-72.4244
-71.0738
-47.1116
-86.7456
-105.054
-38.4904
72.6547
106.431
54.7951
8.77413
47.7266
146.933
116.338
-47.096
-107.989
-120.429
-100.488
-126.288
-120.982
-67.1709
-73.4052
-69.3066
1.9472
124.404
257.861
358.15
191.369
60.5913
94.4519
73.22
-14.395
-142.438
-212.461
-109.733
-68.238
-70.4117
-45.4199
-5.11902
27.4432
37.1472
34.0528
35.466
-22.4736
-51.5624
-37.903
-103.958
-70.2048
24.528
26.5591
54.8606
86.348
108.416
132.615
41.3895
28.8758
37.4203
-9.50671
-56.9597
-87.5072
-10.3741
24.248
37.9194
101.671
281.051
259.898
118.731
84.6149
21.406
-186.133
-257.854
-229.794
-213.155
-224.121
-203.762
-181.772
-163.382
-150.242
-99.8612
-2.14209
77.3428
203.965
337.988
184.439
-50.9675
-152.397
-234.285
-203.545
-8.74898
128.43
152.705
305.882
341.982
185.812
29.1196
-34.3024
-22.5116
70.4372
141.376
85.6587
-32.2917
-150.823
-238.449
-162.758
-130.433
-146.738
-62.5481
-24.6688
-83.2723
14.7592
105.709
41.9298
47.142
56.9415
127.593
196.578
110.759
51.9771
49.4135
27.511
-2.27389
-13.6389
-59.5117
-59.9454
-61.674
-67.1221
-64.5324
-33.5197
-53.1124
-82.7592
-64.3522
-81.4926
-57.6499
54.5469
89.1749
66.864
67.1162
84.2593
-47.4759
-187.201
-95.808
194.257
234.319
34.8912
-78.3529
-112.653
-84.8617
-112.301
-119.136
-46.2762
2.11745
-16.814
-87.9804
-152.51
-153.069
-85.6384
69.6981
157.807
246.999
329.614
281.813
234.451
276.447
256.809
79.7364
-42.0344
-120.398
-208.609
-117.138
16.7798
-51.2998
-190.824
-285.472
-243.433
-122.624
13.7541
-7.34706
-147.313
-163.616
-40.3331
16.0804
-206.307
-172.943
99.8538
86.0951
38.1522
84.1415
191.187
158.784
81.1677
101.205
134.59
218.651
245.292
131.157
-9.55918
-68.6787
-61.3
0.705856
-7.13504
-96.2733
-116.647
-172.409
-131.02
45.2604
105.565
92.9043
49.5664
-38.9133
-104.327
-116.85
-63.0896
9.04692
88.7729
163.661
138.569
131.234
114.43
24.1774
-52.7381
-93.0395
-142.76
-250.234
-345.05
-279.006
-135.367
-36.7181
32.9288
93.6725
113.249
90.5421
68.429
41.2872
-9.61158
-9.95438
-1.59264
24.5344
11.9222
-14.0993
-3.77439
42.6271
87.9754
63.1573
130.765
222.825
146.436
-3.44786
31.5178
204.802
185.477
-16.6176
-125.52
-115.122
-50.732
-71.9423
-109.371
-114.631
-54.191
-27.8473
-47.8357
-97.135
-138.438
-73.5747
-36.9689
-65.1567
-14.8845
67.5778
-6.32068
-165.515
-218.015
-31.6464
141.84
86.9237
-8.35373
22.8623
273.542
419.044
304.034
204.666
84.1106
9.8278
-55.6252
-100.49
-143.145
-130.282
-118.915
-111.025
-105.257
-136.455
-128.036
-127.802
-128.616
-38.2653
51.291
66.7434
-21.4537
-74.7091
-34.3364
-16.8242
2.79736
-10.5276
16.7314
49.1353
-6.85703
-5.90141
83.1248
114.674
105.353
78.6233
97.8808
140.991
245.934
403.69
331.69
175.001
21.989
-145.111
-218.365
-198.933
-107.413
-134.925
-159.322
-142.453
-63.2328
-40.2791
-64.2728
-43.3888
-30.4588
-15.3527
-10.3395
-34.3968
-135.622
-233.349
-181.8
-103.402
-65.5776
16.4186
96.8277
94.8467
26.3641
26.6639
57.3983
55.7544
-13.9482
-34.3039
32.3587
159.349
205.664
153.074
111.101
89.4059
68.7607
5.40628
-31.9364
-47.8267
-39.1754
-38.9898
-106.214
-120.181
-7.03756
213.018
487.673
504.456
294.057
104.123
-58.6881
-390.284
-593.844
-539.175
-250.799
-94.9157
-120.351
-94.0302
-17.6222
-6.96263
-44.4711
-44.8711
44.6551
94.5411
54.0795
40.7966
-89.0027
-151.584
-48.7176
37.079
80.1772
197.22
296.934
314.617
163.138
74.5672
64.5826
22.7848
-16.7369
-21.336
-38.3701
-28.2583
7.43721
-14.2051
-50.7344
-57.1321
-103.178
-129.571
-83.1178
-28.0045
-1.39632
26.6084
39.6904
-12.1681
-70.4096
-46.191
-6.53525
-3.0555
-0.107731
59.4999
74.2878
25.9038
25.6382
67.7989
68.0089
27.3899
-54.4922
-110.169
-92.6289
-53.6473
-10.5597
48.1634
109.129
154.57
114.449
75.9223
38.4094
-18.678
-49.4195
-116.041
-182.841
-234.382
-207.769
-144.511
-92.1004
7.94816
194.832
241.134
177.702
43.8704
-46.264
-56.3272
-40.5212
-8.11478
4.86166
-58.7072
-27.4537
58.755
36.9961
4.10627
-13.6491
-27.3394
-24.8828
26.0264
40.5918
-55.0351
-146.368
-83.2273
11.136
87.8472
211.935
297.73
148.633
38.1701
14.6156
22.3289
3.42902
-30.6459
15.4439
73.2094
68.8792
57.6317
6.50785
-96.9826
-180.264
-251.036
-259.845
-152.193
-23.1676
80.3485
73.2482
22.6118
42.3386
39.5932
-47.6226
-144.334
-177.144
-168.603
-145.279
-66.3134
-17.1255
47.3197
139.193
159.622
186.611
199.546
164.981
136.458
190.159
338.372
134.757
-101.556
-139.467
-101.755
-49.9217
-40.8824
-95.9828
-160.407
-136.911
-46.4235
47.3013
11.1026
-49.0852
-17.4725
17.0179
9.41454
-56.061
-104.086
-134.955
-220.604
-144.339
9.43441
62.5393
-10.3595
-9.45528
51.6032
118.605
197.737
192.883
118.759
87.1724
109.652
93.0846
53.1014
35.3194
71.2427
70.384
-43.149
-164.116
-201.366
-166.043
-155.219
-111.999
-20.4198
25.191
42.9284
-11.476
-107.79
-168.537
-162.583
-27.6901
91.2807
107.729
248.568
259.962
126.978
76.6516
76.5082
86.1778
69.0473
110.227
84.3878
-36.0942
-101.079
-131.086
-77.2414
17.9117
14.9579
36.2134
42.2379
-42.9215
-103.416
-102.329
-201.719
-309.602
-328.075
-251.963
-76.1074
28.0056
60.941
73.0241
81.0131
131.312
86.0289
62.9339
108.158
118.734
157.899
160.274
118.013
66.5203
53.1518
47.5063
-11.9339
-12.1041
29.5507
24.9683
-12.9811
-52.9115
-24.5132
-28.3329
-31.3016
25.2889
84.061
39.2552
-23.3057
-62.8149
-144.614
-188.84
-191.581
-121.726
-34.6388
-26.8516
-102.941
-77.9941
17.6495
62.2664
69.0824
148.76
264.358
184.772
119.117
-48.4151
-205.138
-141.566
-100.659
-55.3038
91.9043
194.949
158.512
-8.14646
-76.3109
54.8812
123.053
105.437
74.8071
35.746
-41.3385
-168.206
-289.673
-229.517
-158.909
-39.5214
88.9575
76.9052
6.697
-21.78
-9.71971
-15.2447
-13.0414
106.256
176.912
50.2394
51.1898
108.865
75.6579
15.9588
-31.757
-48.7797
-73.4035
-85.5255
-127.892
-95.2597
-16.3688
35.5121
42.2772
18.3325
51.2801
109.851
108.245
28.2057
-56.8583
-77.4801
-91.6676
-112.166
-126.426
-113.239
-23.5449
-9.73475
-77.9436
-42.0437
73.0238
176.14
376.2
457.042
270.828
161.698
108.154
-15.0213
-160.965
-207.69
-179.374
-128.021
-113.708
-120.268
-80.8248
-53.5904
-79.9818
-125.15
-104.704
-28.7447
-78.6215
-122.635
-168.515
-153.902
-26.4505
24.3211
-9.84187
28.7379
126.677
157.862
126.302
90.2453
137.122
174.987
175.441
177.322
155.676
123.191
62.2398
-33.4076
-40.1033
-93.2732
-243.741
-232.253
-52.3344
116.879
175.813
115.217
104.196
50.6446
-26.1526
-99.8494
-291.989
-436.819
-339.935
-193.815
-105.437
-58.0887
15.5068
173.397
434.467
512.762
343.677
187.445
110.689
68.3566
-65.2897
-217.753
-229.744
-136.122
-100.466
-90.3072
-36.744
1.75696
66.8885
101.748
12.9333
-34.5076
-61.8626
-138.177
-225.647
-208.631
-108.991
-49.2305
-34.5311
-80.2328
-45.4114
71.0867
141.502
151.635
159.348
172.157
210.854
279.032
222.284
100.281
27.9481
-23.6471
-111.395
-152.629
-115.274
-44.4071
90.9337
119.283
31.7319
-48.8596
-95.9791
-142.642
-208.77
-287.787
-216.219
-67.4094
58.9116
106.563
23.9636
-39.6822
11.8262
104.246
166.816
142.321
39.119
-15.5701
-48.2252
-78.4036
-108.386
-115.735
-53.3666
48.0594
144.428
233.593
225.62
156.493
136.086
184.723
96.4442
-49.2824
-117.232
-138.427
-124.018
-118.012
-144.25
-160.779
-202.065
-211.51
-101.852
-26.5309
16.7406
147.859
293.064
197.884
72.7458
1.00625
-176.002
-275.027
-182.99
-40.5453
33.9883
37.3784
11.1286
9.44039
61.9507
119.221
165.469
167.579
107.83
8.94817
-32.3519
-86.3775
-172.534
-140.175
-102.339
-58.151
56.7178
60.9978
63.7405
113.101
117.772
180.439
192.181
123.493
17.4216
-54.2115
-92.5276
-112.285
-81.0321
-39.3603
-42.1866
-55.469
-54.1129
38.8661
122.892
140.632
84.8346
6.31714
-22.3291
-34.0556
17.5788
-42.4979
-110.272
-86.8641
-66.5988
-136.66
-133.297
-4.34324
77.6609
-34.9201
-81.1205
-119.482
-194.797
-157.571
-102.476
-108.701
-96.823
-41.2398
45.8122
113.517
93.6169
129.133
193.907
196.248
170.343
169.402
97.4342
-20.3988
-60.6872
74.5263
129.75
116.534
110.585
86.7384
61.3219
51.9752
59.649
11.1614
-76.2624
-100.659
-98.2863
-116.983
-70.3697
39.0784
160.759
138.388
81.9685
-61.6402
-212.594
-205.823
-170.691
-113.7
-76.8463
-113.151
-185.166
-192.384
-123.239
-0.637701
70.9688
84.2681
100.787
103.167
106.788
27.8963
-171.973
-213.678
-107.026
30.0798
63.9206
47.2088
156.253
297.936
165.397
6.01109
15.9619
77.5406
85.7239
61.1788
11.7364
-42.3764
-55.9488
-39.6788
-46.7537
-69.3992
-52.2756
2.10379
0.332511
-53.3524
-50.3817
42.0169
107.853
72.6533
75.4518
109.211
55.9753
-4.28919
-12.5406
67.2727
97.8404
41.1687
8.47083
-6.65309
-38.0295
-81.59
-104.096
-82.0824
-88.561
-135.949
-184.574
-203.369
-232.828
-209.09
-58.8018
39.0222
122.806
213.407
281.832
207.501
81.2423
20.7985
-22.3846
67.1145
-2.06215
-103.99
-67.8579
-30.5026
24.335
84.7051
123.822
78.3148
-64.6444
-179.765
-150.134
-71.2783
-13.7556
-16.2692
-14.2387
-30.2359
-53.5088
-36.2335
-0.663174
-44.6336
-4.26728
76.9864
110.626
98.3741
76.1575
119.24
184.216
202.633
214.015
185.319
98.8227
0.856834
-55.0496
-133.397
-239.113
-226.721
-119.466
-30.1996
-26.241
-73.5553
-75.6381
-49.3919
-83.923
-139.703
-143.658
-119.665
-82.2359
-35.5837
11.6754
31.3773
59.404
112.34
165.714
241.037
277.061
216.292
66.1211
-12.4031
-19.6446
-69.6567
-57.3463
-51.4176
55.3499
215.245
54.7591
-80.3641
-114.696
-214.612
-253.244
-163.45
-81.4691
-70.3386
-78.6092
-115.545
-105.153
-21.8918
66.0194
64.8351
51.6168
95.6458
133.749
141.825
50.9323
-52.9998
67.59
154.131
146.853
126.947
33.4746
-110.808
-137.012
-52.5415
29.6359
100.703
121.421
22.1226
-39.3486
-58.5552
-68.5059
-72.0652
-95.9537
-93.5931
-64.9808
-22.575
27.4001
53.8041
69.8054
106.692
136.278
141.578
95.5557
26.2026
-54.0048
-132.153
-172.163
-161.006
-114.466
-59.468
-27.9174
-3.88546
23.5289
30.1379
29.6553
56.943
77.7097
-16.3339
-126.03
-146.716
-139.778
-119.235
-57.0162
10.2564
60.6252
78.499
139.427
289.582
357.657
438.869
217.895
-75.786
-189.443
-180.708
-177.302
-218.954
-249.637
-199.722
-96.7886
-16.3447
82.7304
107.497
83.7867
89.1324
71.2125
41.6507
7.49988
-30.8855
-97.155
-208.77
-134.397
5.71532
57.7054
70.3741
89.1807
99.7383
113.249
162.098
174.535
141.621
60.4506
6.18076
-89.1353
-184.098
-164.652
-62.5691
25.6198
52.9647
52.212
27.3366
17.777
5.62619
-102.372
-184.233
-198.824
-154.623
-135.508
-74.2003
-39.9829
8.18923
84.9589
139.68
304.346
375.218
208.803
42.4263
-106.629
-194.913
-181.064
-159.906
-97.9993
-38.1087
64.4155
122.329
123.111
94.6158
84.337
40.3464
48.0259
33.5432
-17.3016
-70.4479
-172.786
-231.551
-214.898
-173.323
-36.9868
204.157
214.406
80.9645
79.2654
86.4291
47.722
32.7046
28.3367
4.8739
3.46838
1.9745
-29.8403
-23.4216
-13.1205
-19.6794
-23.1361
-20.152
37.5763
31.3755
-75.3055
-250.558
-230.631
-132.237
-59.145
24.2787
-9.68462
-42.4744
36.8744
78.242
87.3747
123.067
153.881
138.467
83.2849
39.6053
52.5623
106.026
130.706
123.635
57.0856
-56.213
-108.438
-85.089
-122.613
-134.628
-6.33794
96.1984
84.4259
64.9928
28.7102
-39.8129
-59.2809
-45.4226
-23.9715
10.9607
-30.0462
-91.1968
-113.95
-115.381
-113.022
-108.937
-67.0319
-27.1599
-6.21337
-11.1167
52.3149
180.711
72.8553
-43.0629
13.2326
125.144
176.292
146.41
109.712
116.246
41.4172
-94.0701
-202.106
-220.739
-154.935
-125.57
-116.291
-62.7037
0.615212
56.071
67.515
4.59062
44.8768
87.5389
60.84
8.10603
-38.1188
-41.5082
-9.10769
16.7864
59.6251
116.435
160.168
156.07
82.3526
55.1098
50.1086
20.4258
45.1188
78.4706
23.0845
-38.6668
0.348921
35.8159
-54.8277
-116.769
-130.64
-128.038
-135.071
-143.073
-147.694
-142.852
-113.624
-72.9847
-53.4063
-39.3675
-6.38343
28.5791
62.7976
102.372
150.657
182.758
122.394
36.0404
30.6315
34.3313
-11.9178
-40.2602
5.81687
95.9999
284.851
285.799
91.1899
-56.0044
-113.38
-177.044
-207.171
-176.58
-188.665
-242.413
-218.061
-154.308
-80.6312
5.86943
78.7179
92.8163
95.9798
107.608
90.1598
48.3263
-46.3597
-52.8655
54.3415
129.943
179.718
210.287
196.716
133.354
83.6501
62.3706
11.5588
-55.3388
-53.5571
-62.3986
-78.3993
-61.1034
-57.6072
-52.6921
-16.7496
-13.9137
-76.6272
-105.918
-70.3725
0.863031
33.3377
22.1109
18.1522
23.9417
17.6024
4.14625
-39.4602
-27.5408
-19.2707
-69.3626
-74.6435
-78.5263
-87.0687
-81.8482
-90.621
-87.5922
-20.3999
48.2121
61.9611
43.8541
45.6282
73.4993
65.231
32.3126
52.7406
72.8608
28.2204
-29.8762
-57.7839
0.441612
70.0338
128.466
308.585
261.931
24.1059
-107.722
-182.903
-153.165
-82.9483
-23.9435
72.9233
100.027
140.007
138.132
5.06792
-102.845
-138.533
-158.123
-116.535
-31.9707
-17.0188
-59.0782
-131.073
-128.383
-83.9651
31.1468
60.2959
-7.46465
-26.6594
-59.2016
-47.2446
14.6421
26.8707
27.3802
67.4526
94.319
124.831
126.416
102.805
45.1492
-5.79159
-15.5712
-60.0729
-53.407
44.4491
74.0346
100.524
144.377
132.809
57.6114
-54.3466
-140.325
-201.888
-219.812
-155.248
33.2155
264.212
154.167
-10.0452
-48.224
-61.8813
-77.5831
-98.027
-70.636
-32.1621
-54.5599
-68.2264
-49.2583
-42.6773
-20.5681
-6.28371
38.8782
94.2843
118.134
111.28
46.858
-26.8629
30.3172
-7.93547
-80.2949
-77.0594
-46.6661
-20.8456
48.7357
144.384
153.097
102.112
-12.4105
-95.8842
-109.455
-81.309
-56.6941
-72.1889
-41.7195
72.5551
227.537
140.922
-60.615
-29.2592
42.6915
80.3448
74.0261
-9.27949
-57.0822
-73.8677
-84.8214
-68.5975
-15.2518
26.8427
39.7236
5.00789
-40.552
1.19451
26.5137
-48.3184
-184.735
-199.379
-92.7466
-98.8449
-144.219
-132.949
-44.7577
118.519
338.111
382.247
246.758
188.427
119.046
21.856
1.61587
0.104046
3.47751
-10.8867
-43.7579
-103.17
-200.419
-203.473
-93.9364
9.26582
52.6662
31.8499
-7.82952
-6.92304
-84.2785
-137.944
-91.2585
-81.0126
-105.397
-70.1676
-14.5126
24.7931
102.326
204.811
276.024
237.37
236.231
245.788
111.01
-22.8976
-80.3157
-111.571
-113.999
-146.331
-234.811
-251.347
-191.658
-115.207
-11.7587
54.4479
75.9312
89.5137
63.7575
-38.356
-121.548
-95.1228
-45.3442
-13.5249
89.6042
167.943
160.017
118.481
57.1157
-58.8855
-111.196
-73.5786
-26.7388
-9.01658
33.3002
118.546
249.735
255.864
143.443
68.7305
59.6221
137.863
60.3504
-210.047
-335.136
-283.078
-182.897
-133.196
-108.581
-45.7983
3.80808
26.0957
96.4266
116.071
92.4772
38.3832
-68.8398
-157.579
-140.561
-118.224
-118.689
-147.709
-145.767
-31.0586
101.674
148.785
169.485
229.091
271.725
291.767
227.01
103.81
5.51107
-40.9791
-66.3642
-101.174
-151.752
-150.664
-56.2332
44.9293
84.1235
79.5745
21.7031
-17.7918
-11.621
-74.3019
-149.866
-90.2232
-97.0909
-113.553
-72.3487
-46.8753
28.2576
241.765
259.409
92.7942
-40.7428
-53.8632
-70.5661
-94.667
-103.509
-134.248
-114.431
-11.3649
50.2821
87.5595
102.42
22.3524
-40.043
-58.5568
-33.8527
14.3889
17.3369
-54.1001
-18.1353
73.5078
88.2639
82.1351
12.9553
-62.8337
-85.3899
-60.4615
33.5026
102.894
160.602
192.55
194.712
229.79
234.189
34.3377
-140.331
-199.267
-235.034
-236.063
-176.319
-81.8632
-12.1088
6.66945
22.9019
18.2645
-33.5857
-80.6585
-67.8283
-52.8315
-74.3163
-63.2654
-28.0627
-40.5295
-19.6557
72.3508
141.95
202.736
132.361
14.8594
-31.987
-57.0862
-40.2973
6.9848
44.6703
87.9706
131.571
148.639
110.532
45.975
-29.4706
-51.1191
-85.2118
-160.05
-199.816
-138.7
-58.0183
-17.8164
39.6732
61.5838
57.2099
76.8394
70.6281
39.6817
12.6367
-20.0469
-50.2225
-106.626
-130.325
-39.0298
-10.3428
-18.3799
130.291
263.563
150.779
78.3065
89.4841
28.9998
-19.5788
-39.3461
-52.5341
-30.1759
-12.5314
-97.2198
-135.564
-144.571
-119.32
-62.9162
-58.95
-54.4618
-15.0405
-24.7291
-73.4183
-73.1287
12.8751
82.98
93.6282
63.5371
-26.3006
-99.1478
-44.8016
26.19
29.6414
72.8773
149.366
191.577
177.5
135.23
101.005
68.4438
45.6303
-2.51481
-76.149
-112.763
-58.0704
-30.6434
-92.3748
-91.4089
-18.7237
22.9387
45.9598
79.9526
65.2834
43.7488
39.663
76.2565
20.0126
-14.9852
-15.8833
-74.1967
-107.99
-86.8007
-99.2202
-188.049
-219.443
-136.944
67.1932
192.925
117.512
78.5409
30.5798
-24.679
-2.78908
-89.2273
-217.06
-222.905
-134.49
-19.2936
58.0487
106.88
133.168
149.384
134.886
117.086
99.8237
28.5806
-97.9512
-169.183
-120.065
-58.8625
2.34129
50.9491
78.9705
220.833
298.061
176.403
96.5613
46.945
14.9957
-10.178
-49.1235
-70.2618
-75.5381
-72.0762
-57.0076
-59.4413
-115.538
-125.506
12.6444
95.1916
48.9155
-26.056
-101.435
-183.819
-149.108
-87.1354
-39.4633
-7.89388
-8.33559
5.34485
37.5642
21.2808
-39.2284
-25.1968
42.143
99.8416
142
184.847
199.523
138.999
101.966
67.1719
-2.29841
3.89721
-53.7256
-103.563
-176.325
-208.728
-176.335
-155.263
-75.5854
263.222
427.032
185.405
14.6683
-28.3029
-79.0686
-151.868
-214.951
-225.144
-204.988
-151.045
-49.6237
10.786
29.7224
46.0818
71.9062
45.8383
47.1989
87.848
93.6697
-47.0064
-60.2656
103.427
155.207
110.937
75.6876
56.2286
11.3001
-8.72274
-19.8731
-34.1095
-31.3265
5.66449
51.5607
86.1062
122.316
118.607
79.9731
-1.66808
-74.48
-145.523
-173.28
-120.313
-86.306
-77.0607
-64.6968
-57.0154
-19.7686
15.4659
26.6993
37.4377
62.4397
60.6185
33.2348
8.24293
14.8962
51.0075
37.8656
6.2465
-13.7859
-59.0896
-73.8729
-41.5447
-35.8767
-41.4743
-26.902
-26.461
-77.5673
-111.639
-56.0224
10.79
-0.584589
-36.8662
-39.4688
60.3371
194.901
356.598
373.131
157.451
-62.771
-188.601
-145.228
-79.9108
-36.2436
6.76239
4.84698
8.11095
35.6697
72.3477
78.5664
-7.71602
-60.5016
-76.7466
-85.9535
-99.111
-114.142
-161.987
-181.527
-55.278
75.8654
122.446
82.0858
53.6536
45.2861
44.8448
55.1446
41.362
-5.01274
-55.3805
-21.4836
9.47613
40.5825
157.644
221.998
146.492
40.7953
-67.5117
-137.808
-134.24
-139.578
-133.168
-103.603
-38.4038
9.23869
7.92485
21.47
39.0746
66.1859
75.3837
4.56397
-32.6554
-25.2935
-64.3795
-59.5241
-15.362
5.88871
8.16273
20.5617
29.0706
29.4213
26.6164
2.98162
-6.04641
-16.0792
-13.6929
-7.06871
-24.8117
-16.5346
9.61648
32.1859
89.141
158.187
253.255
334.538
141.394
-85.0816
-204.94
-220.506
-184.592
-104.805
-47.4914
-22.3579
-30.7349
-31.3095
-23.1614
-9.54477
73.0129
91.1571
31.0031
-10.0829
22.849
56.9523
-79.0278
-195.867
-137.595
-82.7824
-77.835
-82.7277
-85.5902
-52.452
-17.8697
4.60747
9.01584
31.6745
97.0454
155.306
170.75
183.304
177.091
121.458
-2.94266
-95.9413
-109.206
-115.828
-50.535
35.3113
104.7
135.877
139.304
121.96
86.5961
51.0899
1.47322
-26.2212
-46.7158
-74.9879
-131.677
-173.526
-226.92
-209.398
-115.464
-8.99114
181.737
224.978
139.379
124.82
34.9061
-33.0493
-57.5444
-71.6853
-57.2227
-52.8642
6.82815
20.2662
-64.2918
-107.084
-115.237
-87.4014
-19.4162
-2.1469
-11.3859
-34.1369
-103.919
-123.568
-42.7738
18.9186
56.0981
76.2021
79.3651
60.9812
101.061
154.94
138.461
102.111
120.144
162.426
73.9163
-60.122
-106.339
-96.9985
-44.8954
-9.79583
3.59221
13.8026
39.8078
17.1189
25.1899
54.4892
59.5158
53.8673
17.903
-24.1769
-73.4879
-122.544
-104.732
-60.0035
-47.1728
-21.0259
26.2798
34.5887
-1.9271
-117.455
-172.087
-155.167
-118.038
-71.0742
-9.88339
23.8506
140.115
295.729
174.113
5.66451
-42.9692
19.325
25.6765
-85.8069
-82.7258
-11.8299
30.519
28.9661
44.6169
92.423
55.0237
6.83992
-30.9029
-49.3228
-25.6148
-7.01358
-51.7021
-130.355
-34.5643
34.5747
34.8999
14.506
-13.5157
-16.888
1.49976
11.272
17.1534
6.98079
5.57781
0.364017
9.35915
30.5243
52.5678
57.9207
57.0842
57.4109
29.4114
-0.485426
28.09
76.2885
140.225
44.3758
-95.2865
-139.696
-122.672
-64.988
1.83424
58.9654
37.7036
23.9115
81.6997
67.5461
-21.327
-80.1348
-112.333
-143.624
-134.545
-108.702
-105.035
-99.8697
-110.958
-59.9821
26.6467
84.3343
130.993
111.093
62.1706
14.6758
-24.712
-21.5447
-67.3827
-94.8115
8.69027
113.877
149.219
275.967
330.121
144.486
29.0742
-37.7178
-112.812
-104.013
-46.6865
1.09943
37.6285
34.4149
4.39356
-36.9991
-82.5034
-122.543
-141.731
-128.466
-90.9853
-51.2334
-25.0539
-76.1598
-124.093
-82.3979
-34.1159
40.5883
111.026
191.51
164.536
104.072
65.1601
12.3503
-36.6869
-14.5426
29.2063
54.9224
34.6816
18.2275
0.197748
-18.6605
47.2098
23.6263
-78.7426
-71.5121
-62.2781
-69.7925
-18.0682
-5.91871
-8.57407
38.7459
49.1217
-0.428819
60.1281
57.4157
42.3971
-8.87563
-34.5684
-36.54
-50.954
-116.448
-145.569
-73.9374
-36.1452
4.93364
47.3767
68.2479
81.1921
67.908
40.7923
-3.88711
-64.6936
-58.3502
-3.06081
8.00095
-2.86955
6.76491
7.47436
28.3669
66.9561
83.4
102.99
156.825
227.81
159.167
-16.8713
-100.924
-117.992
-116.53
-119.312
-112.582
-63.2985
-39.0117
-64.4959
-62.2669
4.45732
24.1707
-30.4671
-67.2182
-144.606
-210.99
-154.522
-76.977
-42.2753
88.2136
315.568
293.771
208.136
190.71
94.1588
-14.7592
-38.5619
-41.5924
-45.9331
-39.219
-58.0146
-79.9801
-36.7901
26.9011
104.835
102.326
29.1373
-30.5659
-87.2207
-161.343
-236.236
-146.609
-21.9685
52.3725
85.8576
111.542
137.787
101.298
49.0121
18.4515
-4.91151
-39.1818
-44.8405
-57.7085
-61.0561
-64.6847
-126.429
-128.761
-62.3943
26.6827
64.9089
88.6288
94.1679
62.1911
121.948
227.438
203.001
197.857
119.907
5.19659
-70.9231
-80.5233
-51.5673
-97.5298
-181.067
-167.284
-83.5552
-23.3315
-14.3313
-34.2738
-48.3558
-63.8283
-101.582
-127.231
-158.345
-183.07
-136.484
-99.2926
-35.8945
107.105
320.661
275.015
138.594
132.269
167.116
133.615
87.4028
20.1202
-44.209
-56.6212
-63.5827
-62.0158
-69.1589
-19.9586
49.0446
4.80877
31.4894
83.7431
68.0964
9.94615
-99.2071
-98.4972
-65.6511
-37.5412
-23.9233
-48.4099
-48.191
-10.74
15.776
-18.175
-39.446
-44.0161
-38.3635
-27.4665
3.72975
62.0798
54.4657
8.80172
34.5648
33.4174
-18.4175
-13.9985
8.18837
8.1612
4.77512
17.3473
49.4524
93.7826
95.3323
69.904
32.3329
13.1166
12.7568
-10.4211
-35.2025
-45.522
-74.7445
-101.177
-133.133
-116.712
-54.2552
-8.62943
33.7051
75.9115
80.5652
49.5384
22.4625
14.2435
1.02277
-44.0821
-67.2015
-67.9179
-51.4082
-32.9146
1.64786
25.2815
25.4106
52.2606
174.852
134.159
35.1865
86.1001
240.041
169.876
-28.8382
-112.219
-111.398
-128.285
-124.954
-59.4502
-39.646
-86.4324
-149.492
-134.959
-101.171
-76.1418
-78.917
-122.764
-50.2853
55.8674
68.3275
32.9853
-56.2729
-56.5503
66.9948
123.882
80.7983
74.804
95.2434
120.07
156.092
192.872
214.026
219.121
133.638
-31.0261
-50.4467
32.1044
19.9097
-1.38117
-3.39897
-20.7058
-102.128
-64.8996
-68.506
-136.495
-148.473
-133.752
-116.026
-148.856
-163.153
-132.648
-81.2017
-46.7704
-3.17737
73.4345
105.644
81.15
14.2918
-12.8115
-24.4923
-54.1315
-67.8642
-92.9513
-85.3554
-26.8095
-18.9703
14.8389
92.7424
265.765
371.007
232.313
137.258
75.2524
104.47
180.006
74.1112
-42.4585
-122.153
-150.486
-115.073
-85.3761
-66.6669
-42.285
8.11694
47.0647
52.4475
-14.5063
-126.332
-222.589
-291.695
-224.95
-123.833
-82.4446
-94.6026
-56.3319
56.5138
133.605
141.451
146.888
136.507
104.026
83.5806
39.3119
35.6757
139.104
247.392
181.856
117.308
73.3794
54.7619
92.4298
61.0759
9.96353
-46.8817
-159.68
-209.653
-184.867
-185.031
-250.337
-264.834
-219.559
-135.402
-47.2554
71.3386
222.037
103.159
19.0217
8.28054
-20.5112
-19.9478
27.4357
80.132
98.2928
23.1259
-31.9354
-19.1309
-20.404
19.1357
63.7584
44.9113
58.1948
78.5759
116.467
60.6399
-147.606
-188.341
-86.4641
-11.9712
30.0288
74.5746
97.9279
113.948
136.207
181.233
159.378
86.2684
32.3693
15.1932
-17.0258
-49.4049
-99.4982
-183.947
-256.207
-265.764
-255.359
-204.855
-39.2065
260.1
234.21
122.255
52.9903
-43.4719
-97.7253
-116.352
-74.7739
-98.6231
-153.692
-127.378
51.6094
241.712
239.475
122.302
35.5512
25.7509
53.7614
138.185
148.354
-8.76782
2.68958
8.73283
-80.8827
-229.64
-356.749
-285.385
-131.143
-43.4491
61.3187
218.125
527.158
652.658
595.98
505.926
33.6553
-202.636
-229.602
-277.077
-355.896
-438.632
-465.069
-410.447
-294.614
-98.673
42.248
55.2774
41.087
98.7171
162.56
67.2095
-186.224
-331.063
-292.43
-198.697
73.5411
180.886
193.151
243.448
270.573
240.605
228.52
238.983
241.607
254.828
329.125
302.475
199.092
126.3
8.81539
-107.555
-286.904
-363.174
-326.231
-212.543
31.1719
95.641
3.67342
-101.386
-162.384
-229.173
-282.501
-271.461
-149.851
-0.0583336
156.836
114.111
-2.36842
-38.7389
-43.4026
-34.2041
-8.43999
-10.4226
3.95286
3.34286
-11.7478
-18.707
32.9794
140.152
212.217
214.889
189.985
121.484
28.8759
-66.1002
-197.809
-177.579
-21.7179
29.5968
25.8833
79.5004
173.816
180.09
86.5932
10.0344
-0.135019
25.2826
42.8906
-2.80345
-74.1925
-78.7398
-39.8028
-16.7844
-44.3118
-112.606
-190.744
-231.487
-188.985
-37.4106
63.4365
71.5996
21.2504
-29.7422
-61.1526
-58.0213
20.0676
47.7682
142.058
222.353
84.1968
27.4345
30.6954
31.0092
42.1017
38.8537
25.0352
49.6049
42.1224
-4.70479
-34.9341
-65.164
-104.539
-102.711
-40.9814
19.4728
14.6766
7.399
-59.0885
-135.81
-112.128
-136.292
-137.212
-62.4141
86.6707
148.126
100.777
140.113
189.642
195.656
243.304
211.475
45.9285
-53.6672
-84.2658
-118.938
-169.014
-121.446
-70.6836
-40.9957
36.6291
83.6883
51.8933
-34.2639
-99.659
-135.012
-156.909
-166.367
-164.668
-149.196
-145.205
-113.217
-12.5747
84.8228
172.135
218.565
231.835
187.136
102.069
40.4807
27.5127
54.8568
79.0772
73.6601
27.7278
37.3083
158.597
255.194
72.9437
-57.6504
-125.253
-178.771
-189.947
-202.847
-236.678
-243.734
-199.458
-146.466
-58.5076
127.161
232.429
168.185
109.052
63.649
9.41552
-48.0992
-104.507
-148.286
-15.4761
95.4388
95.2309
102.049
153.999
180.868
190.217
86.0073
-30.2392
-61.5165
-65.8789
-148.074
-179.589
-72.8552
19.2956
33.6665
1.54383
10.6043
-1.79518
-39.1742
-61.9883
-109.077
-130.061
-85.4713
-12.2441
-16.4901
-39.0237
13.1461
68.6591
81.778
44.192
8.53733
1.85038
32.1809
113.697
281.229
216.474
53.959
15.5241
-14.9721
-52.286
-51.6426
-1.13979
8.92032
13.9195
-21.0694
-126.26
-119.764
-80.1514
-68.6201
-84.1888
-96.5602
-79.0809
-45.3634
-34.2883
-67.903
-13.3088
43.8587
0.275185
-41.2588
-3.92169
100.191
145.308
93.4545
31.129
12.971
45.7498
54.5636
44.0076
46.9839
74.6846
87.0257
69.5666
-2.45522
-59.9004
-102.066
-84.194
-65.2585
-39.0044
-6.81227
-15.9179
-59.9687
-68.4854
-20.3644
48.7826
128.024
163.864
146.728
131.579
80.6592
-54.6587
-155.87
-196.777
-151.924
-127.569
-135.321
-116.257
-23.9527
76.5627
130.043
175.642
167.66
61.0962
-22.5186
-106.697
-127.186
-88.2723
-42.5312
-33.0653
-16.138
26.9812
56.1566
56.7218
32.1216
-18.4673
-79.6552
-120.406
-119.327
-154.513
-71.2818
105.26
168.258
279.557
329.823
151.653
53.3223
9.6825
11.4406
4.61243
-20.8592
-19.6949
-27.098
-43.8624
-65.691
-92.4592
-70.4746
-8.02915
57.7343
87.4515
7.9676
-141.071
-198.675
-208.972
-150.28
-0.684772
75.2957
170.459
183.777
51.3612
-36.2884
-84.2285
-149.324
-101.285
-10.2026
8.55057
50.7103
115.333
107.587
84.8088
29.9509
-30.7965
-54.6522
-77.2735
-74.9253
-17.0493
26.2348
25.1453
56.5065
181.347
175.42
126.16
85.8535
-0.761478
-85.2623
-74.4686
-51.9877
-62.9475
-73.1307
-63.7677
-39.9635
-31.4923
-33.5836
-44.7991
-97.749
-101.672
-75.0526
-58.4017
-83.0312
-86.1243
-44.2797
6.79382
121.487
193.104
186.956
178.664
132.991
86.2428
22.1681
-49.6992
-113.768
-150.61
-169.041
-139.134
-36.029
148.931
342.135
165.97
-81.507
-168.435
-114.721
-19.6192
72.7215
127.422
146.808
103.425
46.0838
11.8418
27.4081
-11.8811
-52.7778
-10.4383
28.907
31.3709
-2.092
-94.4126
-253.881
-222.51
-113.335
-64.4501
-46.7879
-22.7943
-50.4435
-98.6906
-64.3318
-21.2146
-44.657
-56.3122
-15.2409
70.3343
168.559
196.183
183.542
158.278
87.4773
-53.0799
-172.766
-130.76
-50.2859
26.8272
233.875
390.083
235.727
46.2792
-67.0892
-102.837
-72.7103
-32.1685
-37.0509
-70.9969
-72.8238
-40.5116
-40.3946
-52.5503
-49.7549
-39.3079
-15.1909
54.9227
122.132
49.0284
-123.177
-254.877
-217.808
-119.427
-49.7284
6.95171
70.4077
82.6874
81.7658
123.914
148.798
122.782
105.984
101.18
83.315
13.7769
-63.2295
-105.744
-122.719
-113.377
-113.144
-42.9655
89.3243
62.1469
-70.7421
-91.9512
-47.2309
9.6829
81.7732
150.679
172.74
123.226
90.8897
0.102396
-130.597
-132.653
-88.8022
-35.3039
70.408
79.4978
-0.724493
-113.386
-152.335
-25.0971
90.6865
85.5045
35.2995
-12.664
-61.7663
-112.944
-187.424
-225.345
-172.418
-45.906
78.3204
133.392
145.6
121.132
55.1411
70.7371
100.912
90.8582
78.475
72.8653
128.603
157.647
90.5125
-0.691164
-86.1254
-130.08
-135.486
-142.527
-100.197
33.4613
193.819
162.616
116.937
49.3958
-60.9955
-108.727
-102.185
-131.176
-127.264
-93.4486
-103.187
-111.892
-75.1212
-23.5303
9.7255
18.1721
43.8854
86.6278
66.4474
-16.7927
-88.3304
-19.3805
33.7854
-20.0447
-63.8084
-49.2025
-35.1654
-9.57086
24.9419
82.0885
93.1878
102.615
133.353
168.83
199.772
226.444
149.391
50.6599
-46.4796
-161.763
-244.987
-268.873
-198.29
22.0418
108.42
86.1978
96.7762
93.3416
1.52985
-114.119
-169.803
-168.492
-127.12
-93.198
-45.0472
48.4673
117.125
117.607
80.0131
45.0013
47.0626
74.9291
75.9461
33.0323
29.3061
58.0452
20.2427
-28.8193
-35.7262
-65.4427
-81.1655
-73.8019
-108.948
-131.756
-133.974
-133.341
-86.2755
-35.5616
15.8352
87.5265
129.477
209.411
294.987
115.433
-10.7158
-46.8
-46.4588
17.5745
12.0154
-11.1409
6.86712
17.5301
26.4561
31.6854
5.15767
-44.2909
-48.532
-17.2522
-3.45904
-3.90274
-14.6948
-67.5793
-149.544
-113.084
-68.4718
-36.8998
-32.6779
-48.0911
0.916652
48.3309
58.8907
47.2582
115.238
147.875
124.4
161.126
105.246
17.9568
-39.3914
-72.2749
-68.4688
-83.3572
-103.498
-65.5403
-22.6511
-22.281
-30.4721
-18.2784
32.1874
86.7365
122.682
121.666
25.6113
-52.9447
-62.4041
-170.972
-218.179
-140.584
-80.6496
-68.0385
-32.2263
-8.76638
7.85252
68.9334
109.824
121.029
148.545
180.034
102.235
-5.06329
-4.44124
23.071
10.1635
-2.90088
-6.34527
23.7003
77.0735
80.593
72.6688
74.7073
34.9766
-24.1739
-70.6616
-121.886
-152.759
-148.359
-160.504
-199.59
-163.5
-62.6505
35.6809
50.1872
15.1718
14.8282
12.4332
-8.96322
14.9958
51.4594
70.9263
96.2608
102.076
44.8685
20.8692
18.7654
17.3986
55.6685
91.3355
101.817
115.143
116.151
4.87861
-80.576
-64.7216
-79.2688
-93.1274
-91.1952
-88.8626
-80.8616
-32.2384
41.4272
34.555
10.1214
-7.41299
-2.87817
26.6733
25.8807
3.0567
-40.3958
-91.255
-147.947
-156.291
-108.42
-12.767
197.972
241.301
163.716
74.5438
21.8384
-23.8971
-97.8721
-174.578
-175.77
-86.6834
9.63753
73.8321
96.7043
98.1903
123.04
151.961
206.604
165.374
61.3386
-10.1884
-96.6061
-98.8807
-76.3151
-60.3149
-88.5956
-117.898
-121.506
-39.9271
34.7555
-0.533312
-58.6299
-50.1917
-7.31566
40.3996
88.8636
63.0734
15.0863
28.6574
46.9792
-39.2221
-185.997
-191.702
-111.234
-10.0263
67.8997
98.1559
84.3863
92.2571
83.2118
22.8922
12.0885
-5.93513
-31.6254
-48.2511
-48.3535
47.8902
78.6419
10.2199
22.864
101.548
107.361
29.8706
-26.73
-35.5686
-10.2699
10.7998
27.485
19.4099
21.1381
13.4085
-16.7685
-31.4959
-47.196
-59.9052
-90.7023
-122.797
-99.726
-32.4073
-35.0483
-66.575
-45.2927
-8.43054
-0.803655
-30.0345
-32.504
-4.23305
36.4946
59.2477
79.7897
102.838
87.89
39.0256
7.17114
13.9666
32.1302
104.62
218.399
139.202
37.2014
-25.1392
-60.4899
-48.5121
-17.1033
-37.7181
-63.0512
-61.8975
-42.0729
-1.12935
-7.64257
-23.4136
-15.7634
-59.1265
-79.4906
-91.6665
-121.381
-173.72
-236.228
-168.769
-58.8966
29.9676
82.3571
106.173
120.495
158.036
170.989
149.292
166.855
124.09
91.7888
96.2004
69.948
59.2164
53.8149
12.3467
-66.4836
-195.196
-311.735
-243.919
-118.517
-33.4628
30.3876
73.5599
81.8403
84.592
74.7163
54.0345
7.44142
-1.3094
51.5592
95.0939
48.8006
3.84694
-43.276
-87.8464
-90.5833
-96.4609
-133.477
-63.705
62.7405
78.1356
63.7617
43.8755
60.3964
70.2055
75.0914
7.11809
-85.6546
-116.659
-115.925
-81.7348
48.3492
220.613
132.408
-42.3575
-39.8595
33.354
70.2493
15.4222
-67.9225
-88.697
-106.708
-123.388
-150.986
-150.951
-112.332
-40.308
20.6726
65.7238
85.6983
42.4537
2.25046
-62.4713
-23.525
89.0208
96.9613
44.054
59.9712
79.6288
67.4218
70.2677
99.6056
162.697
212.667
229.214
109.285
-11.1753
-88.8448
-163.866
-233.08
-239.409
-209.046
-121.889
142.174
306.179
192.281
84.0268
31.075
-32.9333
-88.9478
-108.81
-110.945
-127.434
-144.24
-147.699
-116.385
-62.0787
-47.4968
-62.1619
-61.1711
-22.93
38.1826
38.85
-36.6546
-42.3791
94.0741
160.244
105.871
58.9289
62.0439
55.4889
11.5631
10.8209
25.8083
8.55844
41.9168
68.1882
77.7221
76.4549
60.0065
7.74701
-33.4495
-67.0155
-181.089
-181.806
24.2231
223.278
158.423
76.4406
37.2171
-0.971564
-45.2774
-77.6747
-96.4174
-80.6132
-36.5819
-0.0255964
17.7153
4.42688
-76.132
-141.95
-128.973
-90.1616
-16.9662
20.129
-53.9771
-120.837
-1.91367
83.3426
89.0093
98.0086
108.089
77.5617
36.1215
11.8774
-13.2698
-9.49324
-28.1535
12.3794
134.607
201.212
191.394
143.443
80.6513
1.94872
-73.8149
-104.281
-95.6658
-102.754
-125.002
-152.674
-192.503
-184.12
-126.253
-59.1027
18.057
54.6972
117.359
191.824
143.161
76.5254
20.2939
-20.7503
-6.5261
8.50765
-7.1818
-12.9419
-5.95326
-34.1565
-55.1815
-28.0269
32.9896
77.334
123.432
89.1661
18.2132
-29.7369
-79.665
-128.054
-99.5888
-74.8362
-83.6742
-85.7964
-91.4372
-117.68
-100.86
-46.2724
24.2693
112.622
200.187
292.591
356.465
315.201
239.653
83.319
-107.473
-201.052
-249.739
-328.224
-303.196
-216.526
-82.5994
10.7622
54.2774
113.112
251.172
270.552
105.493
19.7315
-27.7009
-50.6305
-14.7427
-111.717
-222.432
-135.162
-19.1632
24.8632
71.9959
99.8058
93.4987
87.817
47.9079
53.3851
54.7342
13.4963
-66.7981
-106.397
-38.9298
-7.85274
-10.3082
-38.9691
-87.8547
-67.218
-30.3757
-5.14244
28.8622
68.8625
93.5083
123.581
128.192
101.336
26.4733
-40.1471
-74.1198
-130.322
-228.661
-218.055
-138.623
-118.252
-64.6012
16.8576
55.62
92.0002
89.8312
94.3669
166.22
215.136
133.027
69.7903
32.2561
15.4425
41.7508
42.3303
-30.3158
-34.4878
30.8892
22.0412
-39.3709
-54.3094
-90.2073
-121.75
-124.699
-78.931
-29.125
-6.46678
-38.3154
-65.7021
-20.0244
14.5586
25.6992
19.6274
-1.6364
-29.8947
6.27157
57.8215
38.4769
13.7563
36.7785
56.4385
55.8765
26.7582
3.09599
14.7085
-5.75682
-19.3393
-24.0864
-37.9746
-29.0136
-6.78743
-0.719605
29.3302
52.0037
51.58
57.381
47.6492
15.4598
-11.1241
-0.514692
-10.0196
-25.844
-24.3966
-30.2359
-50.2087
-77.9946
-122.491
-149.779
-159.274
-140.929
-103.741
-17.5791
119.158
295.836
260.58
197.934
238.563
190.7
134.095
81.1256
-33.2842
-121.176
-190.207
-194.629
-142.219
-78.8198
-24.6736
-7.76369
-13.4702
-9.35461
7.5745
-23.6526
-135.396
-225.613
-159.986
-76.4619
-85.7324
-106.118
-141.037
-90.2818
64.6505
172.372
201.902
178.865
156.383
168.238
170.078
160.636
164.232
173.238
166.538
154.666
122.093
37.112
-19.5209
-69.6689
-111.567
-98.5004
-79.6264
-95.4966
-99.74
-120.89
-154.6
-178.058
-160.931
-120.731
-74.8966
-43.0435
-22.0514
46.1874
86.642
3.4517
-150.145
-261.93
-192.722
-69.0382
45.0016
134.168
239.726
324.31
250.114
169.288
86.1572
44.3151
19.0434
-9.43749
-2.46874
17.673
-14.6277
-88.0528
-143.686
-129.048
-52.0656
8.90888
-1.82533
-8.99469
-36.9016
-80.5758
-116.541
-165.196
-183.335
-150.394
-17.7386
134.39
229.68
313.079
286.326
198.752
181.454
163.842
0.245783
-92.2239
-45.4217
27.4809
145.155
64.0349
-87.3688
-115.823
-143.383
-172.736
-134.242
-91.3392
-88.4508
-120.745
-140.823
-143.764
-113.391
-15.9231
71.4702
14.9376
25.4498
71.8271
52.3056
-18.2022
-130.026
-90.3655
19.3342
75.8978
114.46
136.345
137.534
106.786
86.1495
69.6252
35.9058
48.0178
61.6436
13.5816
-59.7025
-55.0292
9.7209
92.1883
146.831
105.409
28.4022
-3.56109
-58.5596
-144.088
-176.772
-137.566
-89.582
-114.871
-124.412
-74.4761
-34.7264
-57.6934
-59.8994
-60.4617
-26.4658
25.6608
71.9931
90.0492
64.0291
57.3775
65.4262
81.5845
95.0618
160.687
171.5
62.8571
25.3258
68.9061
55.1739
0.945542
-57.5639
-133.021
-170.92
-141.864
-94.3336
-22.9263
11.0635
-14.7365
-29.6073
-14.7722
-18.4724
-34.0642
-100.276
-146.879
-105.873
-47.9657
9.29501
88.0928
180.763
245.401
278.085
370.812
460.901
209.61
-131.356
-333.78
-384.967
-309.128
-196.966
-101.323
-61.9007
-44.6997
8.49472
32.5551
-19.1132
-42.5513
-54.173
-4.33124
10.8969
-28.7449
-63.5548
-141.073
-216.082
-80.8498
80.1138
229.984
344.464
268.193
151.023
124.691
137.417
78.6197
19.9794
-5.86665
20.0953
39.2725
22.6947
-52.255
-97.5832
-100.256
-93.4013
-95.6025
-98.1825
-34.887
38.2543
46.0019
32.9077
44.72
46.54
-3.04069
-61.8394
-61.5309
-42.7703
-51.8679
-53.318
-23.9278
-15.7091
-31.8007
-53.0132
-79.0967
-108.498
-100.502
-54.0394
17.4111
88.853
107.142
96.3794
88.3599
49.419
-1.44298
-79.7879
-89.1216
-0.477648
16.5512
9.33045
24.044
42.5895
63.926
73.9222
117.617
190.604
105.441
-2.31566
-32.8105
-51.5237
-92.8312
-171.272
-235.51
-192.06
-90.202
-0.643715
82.6691
59.8501
2.67701
6.44696
54.8095
161.371
314.225
369.736
128.483
-115.267
-121.888
-140.935
-166.984
-149.988
-119.788
-75.2251
17.5262
68.6618
67.9316
128.45
87.7112
35.9826
15.6658
7.43823
69.5176
27.5883
-118.942
-205.935
-148.325
-71.208
-50.6811
-21.3274
-1.56632
0.883369
0.737989
7.14988
20.8494
21.3463
8.06793
-21.6483
-17.6905
4.63386
58.2684
58.8178
-11.4698
-48.3755
-54.4926
-50.5546
15.0899
53.254
54.9449
62.961
61.2308
64.9452
79.719
62.7268
30.0009
15.4778
18.6576
8.66521
-3.14243
-2.4746
9.58576
-1.96659
-47.421
-98.4498
-132.934
-110.74
-52.9251
16.4652
96.4523
100.17
64.3092
23.3962
-12.0133
-16.1952
-24.559
-42.3803
-47.1098
-43.2697
4.74429
61.1432
97.008
112.001
85.8208
59.122
20.8177
-81.1428
-181.049
-200.943
-199.809
-191.204
-52.391
32.802
-62.5953
-43.6477
33.8155
89.9411
118.137
123.668
123.604
117.354
92.6567
74.4782
70.956
62.0739
56.9019
51.4466
38.9885
-6.46518
-67.1292
-106.841
-188.159
-160.852
7.67565
79.9507
86.168
27.6858
-14.9696
-40.2614
-59.4727
-59.1004
-22.394
6.17664
25.8571
62.6493
94.912
25.8086
-16.1189
-11.1542
-2.2279
23.3689
2.64892
-55.8861
-67.7976
-74.3551
-65.7411
-11.9343
31.1443
56.7856
29.5795
-8.47533
-56.1652
-118.998
-154.23
-156.81
-143.276
-37.5474
130.108
286.891
283.275
198.686
122.69
47.1587
-8.31863
-125.372
-304.469
-288.262
-132.403
-16.953
6.00379
20.925
185.592
408.885
319.26
118.163
20.0821
7.77354
-23.7433
-102.083
-104.092
-34.9885
41.2145
70.2123
35.7146
24.1699
52.5619
2.10474
-121.727
-213.3
-202.691
-150.99
-177.667
-217.409
-90.8262
27.679
44.4398
54.38
44.3289
27.2532
27.8621
36.9884
42.191
44.3538
63.8028
112.779
98.3757
3.63286
-13.7018
33.1842
118.793
161.742
126.447
65.3771
51.4246
62.4561
-76.2748
-244.424
-244.317
-204.599
-127.94
-54.8859
-18.4399
22.6864
50.4763
67.4136
125.442
177.663
135.594
68.9663
9.10074
-46.7855
-103.599
-163.223
-158.442
-127.692
-39.6224
21.9699
25.3467
94.202
108.664
81.1565
70.1102
60.3813
46.7364
32.5428
60.9571
76.9521
35.5333
-5.2628
-41.6111
-66.8652
-77.8899
-92.1386
-109.434
-94.9931
-15.4961
69.7859
59.9425
-34.3001
-90.333
-104.351
-130.164
-95.6668
20.2528
190.463
231.264
147.275
-10.7528
-103.534
-127.382
-97.8345
3.83398
110.45
127.128
85.1524
50.156
22.3799
-15.4082
-31.313
-24.1216
7.90542
48.5815
45.4323
20.9747
-34.3799
6.76204
39.1474
64.7832
73.7627
29.4229
-62.0005
-155.077
-188.449
-171.202
-134.663
-96.2127
-49.8283
22.3579
97.3889
155.895
148.768
98.0484
39.4691
-27.5412
-101.468
-185.927
-205.992
-132.729
-120.556
-142.731
-120.237
-47.457
190.662
371.828
314.151
250.623
213.849
162.786
90.0737
33.4875
-5.29212
-40.675
-70.7592
-103.324
-136.553
-127.246
-89.3343
-8.04967
123.853
215.474
212.898
188.096
-29.8414
-215.941
-211.917
-176.536
-148.299
-134.564
-133.614
-122.198
-101.828
-64.3752
-25.3398
-4.39275
6.7732
20.7595
60.3507
72.6586
55.9031
50.0183
61.3353
30.8442
-20.7345
-40.3103
1.52437
50.7588
65.6597
64.5368
41.8041
17.302
6.16426
11.986
25.4198
48.6106
62.5686
66.5108
67.003
45.7381
10.8119
-15.7554
-29.4181
-44.9876
-67.9779
-48.3361
-31.4647
-87.5031
-79.323
-42.13
-6.36645
19.7581
44.2315
43.7015
56.4094
52.1674
79.6765
108.686
18.3081
-98.0062
-153.398
-147.249
-115.656
-94.2304
-42.4944
41.3499
243.073
404.921
231.157
54.1727
-43.557
-104.409
-152.699
-191.074
-189.695
-159.674
-134.845
-115.47
-36.9911
42.9432
70.5367
68.5422
77.6317
88.1599
77.1634
14.4506
-124.453
-202.953
-107.108
-91.0482
-126.361
13.4838
228.79
278.49
197.313
132.265
78.6187
38.578
44.8473
41.9164
26.8598
45.9156
63.8614
39.9952
-18.9599
-64.2204
-96.4359
-132.882
-115.076
-30.4586
71.3914
58.4354
-9.5132
-6.19663
20.5856
-19.8196
-108.089
-100.273
-32.3156
12.0314
32.832
17.5746
-5.39584
1.41344
21.0302
-15.1227
-55.8369
-52.5083
-13.1101
-5.92162
-29.5176
-69.3578
-101.312
-28.7247
28.4924
33.4652
70.9878
62.9241
42.5985
30.6636
24.0917
2.61489
-10.2412
-55.5519
-102.717
-59.0124
-12.3972
43.3099
198.484
282.87
157.426
57.1439
38.8656
24.3513
-55.7662
-81.2845
-79.859
-82.1901
-90.461
-90.942
-69.2194
-12.3446
38.3027
96.7621
128.118
112.969
21.0098
-112.57
-321.77
-367.998
-245.81
-144.223
-31.7859
69.2929
97.6314
121.171
139.508
164.724
173.125
173.502
144.362
94.6295
54.724
15.9847
-5.11322
-14.0688
5.96723
41.3487
71.0933
66.6172
83.6665
63.9495
-35.4225
-127.808
-107.866
-67.7464
-45.8821
-82.3453
-135.307
-127.237
-105.855
-98.9778
-93.9948
-94.6017
-106.091
-73.1931
20.7222
69.5107
80.0388
105.698
111.457
89.8416
54.0554
17.3049
8.30387
7.75095
105.061
147.086
36.6076
-14.5547
-18.0807
-1.06323
-0.933262
-12.1648
-16.3944
-49.126
-100.073
-88.966
-41.4195
-22.8387
2.46387
30.6941
15.66
-12.5922
-2.79965
8.94681
-37.4954
-39.3622
59.1653
94.6746
115.451
111.095
67.2691
14.7725
-18.4188
-52.992
-108.041
-143.89
-121.924
-112.409
-68.3132
-13.0449
26.078
49.533
69.0339
76.937
60.6273
38.6347
-14.5406
-31.8697
-16.5492
9.15602
49.1384
99.0238
144.207
169.919
219.467
231.503
82.4698
-19.4908
-80.8131
-146.203
-150.745
-135.761
-136.569
-151.113
-171.232
-170.472
-111.237
-77.8619
-88.3246
-74.9568
-30.9907
27.0539
59.0852
-0.179561
-98.1527
-158.168
-32.2968
134.244
226.953
230.567
187.758
143.979
124.089
90.1556
-58.6652
-178.642
-149.592
5.85014
241.309
212.855
78.854
-1.0549
-50.7116
-16.5192
14.9183
45.4199
64.5537
-42.6154
-162.565
-177.9
-157.241
-112.724
-48.5156
1.51717
83.0599
172.425
233.767
115.468
-100.587
-160.993
-134.858
-108.087
-93.9876
-78.6295
-37.384
1.77465
-0.34062
11.1632
40.0488
41.7783
25.115
13.5015
0.279334
-8.16657
4.4237
-2.33253
-38.5229
-17.2948
-3.76077
24.3986
66.1911
90.3496
89.9929
88.972
129.263
33.4337
-50.2251
-46.7551
-27.6686
-18.8555
-19.0074
-25.8566
-31.6885
-16.683
12.9671
31.5664
24.1777
3.76622
-16.7894
-11.6044
-16.5249
-40.8513
-42.0014
-28.1543
-40.8833
13.0767
55.6922
55.7693
48.2487
25.8962
-1.94851
-39.1075
-26.0265
-25.0728
-37.8198
-43.1052
-27.2481
-11.1504
-14.5699
-38.7699
-71.6272
-63.418
3.2682
7.68234
-35.24
-18.3482
-9.67659
3.06866
48.1141
92.8609
85.8513
76.9053
34.0619
16.0296
44.9366
77.6008
39.8559
105.74
164.438
69.4524
29.0962
-26.7627
-122.981
-138.905
-97.0382
-51.398
-15.6676
16.9031
-56.1414
-113.724
-92.8424
-54.566
-31.9421
-14.3048
-5.78304
-2.89065
13.3542
-35.1403
-70.9926
12.316
81.633
118.791
123.173
101.24
12.5712
-85.6605
-99.2989
-123.455
-127.489
-82.3762
16.3568
101.408
155.047
232.227
189.414
49.876
-3.76315
-39.3849
-58.1519
-24.2035
-20.0857
-36.8632
-33.6554
-24.5083
8.53001
44.6159
22.8596
-1.23871
19.3903
15.1445
-16.2781
-51.5814
-84.4951
-118.846
-98.0007
-42.5399
-20.174
-22.6235
-20.7282
-5.95586
1.15502
13.4791
25.2857
26.9792
38.8996
60.7668
67.0772
61.3356
58.0717
43.126
11.1688
-13.0989
-23.3192
-43.8019
-37.6724
-1.68618
12.7311
1.15552
-6.60897
-3.95541
-10.013
-11.6145
-7.6018
7.30685
23.5731
35.4337
35.1368
26.4335
16.4848
3.67436
-12.7965
-28.1965
-32.7811
-40.2791
-29.3725
-8.32383
-8.73136
-12.7223
-7.3151
9.78453
13.111
6.95359
-10.0793
-20.9466
-12.1505
-3.75879
-7.53437
-0.308623
20.3467
22.3833
2.75831
-29.23
-41.041
-20.3372
-10.0775
-18.6826
-4.78404
30.695
47.1236
41.3566
30.6841
26.1768
29.1183
30.8711
22.4624
13.3019
9.76171
1.87365
-12.5838
-19.0507
-22.9702
-10.9511
-10.2675
-25.2989
-18.664
3.72715
13.097
0.827135
-19.3965
-35.3384
-30.8201
-15.156
-4.34313
-0.642915
0.576673
4.18054
10.7782
15.632
14.8368
1.25513
0.428866
13.8685
16.2641
2.86477
-7.16946
-6.92684
-5.51279
-9.88632
-4.68894
4.15399
-0.659753
0.4488
11.9679
9.19994
3.55514
4.48577
7.2481
6.09341
4.79217
-1.47281
-8.19944
-19.6468
-17.0339
-6.7138
-5.72092
-6.85426
-7.61851
0.162785
14.8006
20.7404
21.9925
14.9744
11.7433
8.67857
7.45655
2.55216
-11.074
-26.3172
-34.9458
-22.8372
-12.179
0.225799
8.95483
16.2706
22.0702
27.1384
32.8024
25.1556
3.98989
-12.6764
-34.2118
-42.6917
-26.1072
-4.28296
6.63505
4.66324
7.26486
13.5102
10.2526
3.23509
-9.13793
-7.08762
-2.85488
-0.678956
-2.45135
7.15362
17.9517
13.2005
6.43482
3.57744
14.0522
12.1868
-16.6841
-46.0989
-71.2025
-59.4223
-29.0088
-9.0165
0.495804
10.6921
29.6931
42.5974
41.38
35.4536
41.1987
49.123
42.0671
16.9325
0.731578
-0.422626
-6.25847
-14.8778
-19.8707
-13.8886
-5.83408
-11.6175
-21.3162
-20.6443
-19.5115
-24.5406
-25.0065
-20.5673
-16.224
-21.0324
-17.5398
-6.09316
-3.83114
6.96652
21.1477
23.5228
21.0187
17.7496
5.91182
7.055
16.7347
22.3873
11.7684
-4.21159
-4.76639
3.38338
7.79982
2.84864
0.914084
3.53433
8.97163
3.60201
-11.9415
-25.0385
-16.7189
-7.59423
3.18329
5.37951
10.6574
10.2181
13.2513
17.4611
10.5926
-5.7855
-12.7585
-9.69539
1.53363
18.2574
13.7271
4.15182
-4.18177
-25.8666
-34.4973
-32.8207
-36.3676
-38.7739
-35.0142
-13.9818
9.25059
31.6672
25.827
-3.49116
-8.13374
8.97387
20.7003
16.5677
15.9274
32.2499
43.0855
34.5425
17.4173
-16.7524
-51.0237
-35.4646
-3.75096
17.1613
23.7112
38.8527
38.0106
19.6948
40.4507
82.2041
45.5327
11.4673
3.03026
19.2847
5.66945
-79.479
-141.953
-137.86
-120.492
-108.278
-78.0961
-77.8872
-58.4561
-8.78176
-5.41569
-31.105
-5.37757
31.3096
37.9781
42.2303
95.1795
102.45
70.1006
22.8525
-33.7667
-10.1586
77.8664
110.509
142.581
262.477
253.081
195.031
178.865
83.4948
-49.2975
-137.682
-209.218
-206.769
-183.406
-178.314
-160.864
-134.341
-105.707
-74.9933
-0.927898
38.6393
-2.9798
-46.107
-68.2349
-14.699
106.504
16.3026
-124.014
-144.772
-82.3384
-49.0492
-38.8985
-33.3978
60.0084
235.384
274.806
242.92
135.998
2.7785
-60.3866
-47.1402
-19.3868
9.08974
64.7342
37.2915
14.6836
116.482
152.392
133.353
117.522
-1.78866
-72.6886
-83.8685
-62.482
-91.6438
-154.649
-182.974
-118.192
-25.6848
-11.0092
-60.4379
-79.5472
-45.5557
-34.2129
-67.6355
-95.372
-92.8865
-55.51
10.8716
98.3468
215.886
240.846
247.264
114.877
-25.0436
-45.9949
-75.1313
-127.767
-128.069
-106.319
-76.0196
-14.2518
35.4689
60.0384
129.618
243.36
236.104
109.954
-26.4856
-85.3182
-77.7436
-93.7917
-159.889
-159.279
-143.226
-121.577
-68.6954
7.28799
66.2604
107.399
137.435
137.576
117.524
154.455
97.4578
-133.691
-184.519
-120.496
-48.4281
-24.9573
-4.90295
39.4273
63.3574
42.2994
0.420843
-0.479305
9.59753
37.6344
27.3296
-0.811159
-28.5195
-52.4037
-64.519
-119.75
-159.175
-103.372
-41.3361
28.0321
58.7564
65.6665
71.4852
81.5323
74.4771
70.6718
45.0965
-19.7922
-27.3971
-4.2891
14.207
40.6146
53.9757
34.5021
18.5622
-4.83306
-26.023
14.4941
46.8149
55.6446
46.0581
0.617386
-51.3051
-72.1765
-73.0532
-91.8903
-95.4916
-16.1358
101.324
182.821
233.617
163.97
7.91725
-55.8678
-101.456
-175.636
-200.166
-183.738
-173.92
-162.753
-86.2575
-10.1575
48.1685
57.4117
41.3713
73.0908
108.116
101.624
57.4148
37.0335
-3.96857
-82.9318
-88.37
0.394807
53.3646
20.1071
4.96976
-1.13092
14.0002
26.0004
31.7977
48.4439
42.3804
36.7933
46.2901
69.7363
70.9885
27.3415
-32.3451
-79.196
-100.921
-51.5457
19.5861
5.87223
-11.2812
26.7542
37.6847
27.9054
27.5252
36.3885
35.7566
52.084
40.5412
16.3619
7.79664
-30.1126
-56.5799
-68.6079
-88.649
-123.584
-111.423
-35.9511
20.0919
25.2634
11.5898
13.116
15.62
20.1516
-3.76871
-41.7897
-56.2075
-70.5958
-61.3229
-46.0113
-18.9101
12.2596
49.1979
70.3271
69.4296
64.9512
35.9451
-7.73306
-8.46874
-8.14138
0.39178
13.1388
34.4104
106.323
173.912
136.579
110.475
209.855
197.525
20.5702
-89.0179
-131.145
-141.471
-126.836
-144.016
-200.003
-245.016
-248.553
-177.257
-79.3976
9.68318
46.7473
53.3428
16.3123
-23.523
52.0938
138.498
119.701
117.01
117.902
32.1483
-10.566
-32.3785
-24.6874
20.3895
61.2931
89.8458
108.45
79.1416
32.0912
-4.61815
-3.69366
-13.8327
-56.8749
-72.2807
-84.9892
-124.676
-157.585
-125.417
0.610082
85.0183
81.1754
68.8942
81.4988
91.2993
102.751
91.6298
57.1438
13.5342
-32.8912
-54.5322
-65.4012
-77.8386
-91.6569
-84.4496
-67.9364
-61.2022
-68.9957
-42.0412
33.7518
76.7414
73.4525
62.7196
45.6216
33.1788
5.58292
-8.3798
24.3839
51.67
64.9358
22.5242
-4.79055
3.24606
24.3431
3.48137
-81.7109
-154.826
-122.676
-62.2779
-24.6853
126.184
137.107
-53.8271
-138.922
-97.202
-64.1927
13.015
125.422
203.463
176.169
111.622
48.1556
-36.46
-90.5395
-75.4364
-17.2299
-0.931256
-76.5107
-193.228
-212.477
-220.875
-111.745
92.8097
152.506
114.331
126.177
102.01
4.93495
-56.1077
-66.673
-42.2601
-5.36465
35.306
60.3245
55.8936
51.4223
70.5731
105.368
145.077
128.803
98.7541
90.5915
37.7221
-19.3702
-45.6791
-75.9381
-98.4763
-104.156
-119.686
-113.889
-86.109
-57.8738
-17.6172
20.8939
52.3719
51.437
18.7363
-21.8179
-49.3961
-38.4727
-44.7348
-54.3071
-20.9147
7.38705
6.87034
10.0859
20.487
12.0839
-18.9252
-32.5772
4.09929
38.5777
47.1641
27.8797
0.900089
2.38794
4.00562
1.55399
39.022
55.5303
17.4354
-26.9892
-7.31084
24.4782
36.8104
39.1615
28.6387
13.9883
-0.233873
-12.5463
-33.4056
-42.9376
-39.141
-51.7265
-51.9747
-20.7023
16.7225
24.7689
30.5325
17.8643
-8.03655
-17.3648
-17.3594
-19.9484
-4.31651
0.503167
13.3672
33.9688
31.2405
12.0984
-16.0337
-18.8545
-1.21717
28.943
37.5504
16.2573
3.99312
-3.99905
-24.9639
-38.3712
-13.7736
21.6171
-2.69288
-8.88221
-6.62376
12.5937
1.79564
-20.9698
-23.9686
3.72864
43.5615
76.35
57.6484
33.8723
26.6126
-27.4679
-34.1207
-24.9387
-36.7061
-51.6665
-63.3589
-92.8502
-70.3332
-29.4743
18.0882
89.092
93.0368
42.3981
34.1806
-19.0099
-106.782
-158.883
-127.855
-47.122
33.6479
223.52
322.985
208.089
59.5856
-38.1057
-115.281
-166.633
-104.103
-4.03311
-11.7963
-87.4982
-86.195
-26.4055
15.809
64.0293
118.467
121.253
83.5613
9.12213
-54.2406
-122.19
-168.352
-104.289
-2.60049
62.3521
95.8969
112.234
54.8118
-32.2076
-46.672
-40.1015
-35.9183
-16.9354
-2.16285
25.272
34.77
20.0638
15.3415
10.1166
11.3455
-8.58924
-35.5579
-21.9414
4.16834
36.1228
67.2181
69.0976
49.9775
21.6747
5.8982
5.80915
14.3451
14.7509
-2.81157
-32.1903
-37.2885
-31.4645
-35.7587
-35.7388
-44.0815
-74.3108
-114.984
-117.446
-52.4574
35.1156
83.0792
100.269
79.6478
41.0803
1.65922
-19.5313
-9.9543
-17.1412
-38.1443
-33.2159
-20.8067
-8.86124
-0.275674
9.69921
11.0009
15.4188
50.1414
72.2895
50.638
8.12327
-35.0671
-63.4595
-65.8013
-38.6478
-20.118
-40.8772
-17.4727
25.9717
42.3962
51.8124
72.7787
95.4893
79.6147
35.1052
21.3161
16.3311
-1.50358
-4.03839
8.55699
6.53925
-0.398362
-7.07339
-10.0022
-16.0557
-23.0297
-13.0162
-38.075
-61.0585
-66.1295
-70.7298
-85.6023
-89.3298
-67.4588
-31.703
-13.0259
0.738415
27.6917
38.8437
39.4594
45.9291
53.2139
50.4778
36.0338
21.0195
20.3338
18.4981
20.7865
28.7835
37.3865
32.4605
19.3435
0.566049
-11.8924
0.248009
3.43159
-0.477905
-10.5764
-15.9946
-28.5109
-48.8723
-56.4895
-48.9798
-29.827
7.56882
11.4783
0.149263
-8.31428
11.9
44.1634
54.3299
31.5698
27.2253
45.7591
19.9726
-8.63513
-29.9828
-36.0064
-28.7735
-25.2308
-24.1982
-21.4598
-3.71916
10.6744
-2.63801
1.56026
8.97724
-9.75029
-21.764
-30.8024
-32.9241
-1.43001
-1.70534
-5.89451
34.2051
34.1166
24.1837
25.2957
9.83584
-17.3796
-36.6686
-46.6814
-33.1301
-9.30097
2.07477
17.5751
45.3947
67.9292
66.2342
53.6897
33.4282
26.9266
41.923
33.0962
-12.6604
-48.3246
-50.2759
-51.401
-31.9956
-8.12535
16.3894
44.4709
23.7373
-25.2085
-59.5328
-43.1899
-19.9699
-29.4208
-50.0034
-64.0279
-61.6142
-43.7351
-28.4477
-21.1748
-10.366
23.6095
40.6686
32.1875
39.7945
63.9865
53.2262
18.7289
14.6066
52.9396
83.2495
69.7054
26.3917
23.6426
22.4739
-6.43965
-30.0412
-51.7577
-57.4737
-57.4996
-37.8133
-5.96983
8.31958
14.8338
11.5416
-3.08227
0.156494
25.6569
51.8662
40.4906
4.39316
-44.3794
-80.2744
-76.9804
-67.5933
-41.9254
-1.74722
21.9713
26.6001
19.7132
16.1046
0.957392
-5.3643
6.10853
10.7487
13.7694
33.3987
60.1401
58.4143
23.4593
-25.9394
-59.637
-31.3424
-15.5632
20.3747
65.6373
63.883
28.7099
-17.8402
-42.8634
-42.741
-40.3026
-44.3603
-48.0679
-54.9884
-58.2225
-54.978
-48.6895
-35.3223
1.96923
42.3998
74.0435
79.4408
68.9498
59.4931
31.303
11.7783
18.7496
-2.94016
-8.87005
1.8358
2.50551
11.0984
21.0384
31.0321
38.482
18.0736
-10.0415
-19.4971
-15.8774
-5.3862
1.61503
-4.05566
-26.8433
-41.499
-38.121
-32.4835
-37.7022
-23.4039
-9.0566
-14.2545
-9.13378
-3.87622
2.85426
18.328
26.2997
41.6476
32.8658
16.4658
-0.0370247
-10.6889
-9.3617
-0.087254
0.816981
-18.6173
-41.2359
-48.6853
-28.8075
2.58539
14.4078
19.7499
18.7112
12.5787
19.7088
22.0363
14.3376
-4.54245
-7.58495
4.26606
23.6264
31.8807
47.4464
29.7466
9.48778
-15.4218
-40.1645
-58.0624
-61.6667
-46.8618
-21.9564
-1.46324
23.8458
54.6994
46.0802
12.185
-3.84757
-0.420467
10.8402
12.6256
2.96912
-4.76663
-17.248
-24.6318
-33.6715
-38.0574
-16.6927
6.7712
17.9016
31.4404
43.0516
48.2216
48.3632
30.0172
4.28982
-15.0487
-23.1602
-16.6479
-11.3589
-18.6164
-23.8786
-13.4577
-18.4782
-24.3564
-19.6364
-7.18209
-4.98656
1.72176
13.4609
9.75848
-9.76744
-18.91
-26.093
-28.8148
-14.23
4.60984
12.8866
15.2088
18.2619
7.65057
7.37874
9.10462
17.7366
29.4969
45.6398
44.5359
22.6555
9.31512
4.00082
-10.4223
-25.0817
-34.7432
-36.9607
-34.6194
-29.1107
-8.53284
5.36597
-2.393
6.98412
4.30413
-11.1286
0.327039
15.9357
29.9573
14.8829
13.9229
41.8855
42.8989
13.2706
-27.7024
-38.3748
-15.6937
-0.715426
4.89533
7.10581
1.10704
1.39954
9.88741
5.21282
-3.94214
-24.4938
-34.036
-35.3923
-34.194
-22.1003
-21.2567
-13.8588
10.6647
22.9802
32.7862
39.2591
16.696
6.3001
-4.36096
-7.14175
-5.25458
-3.59406
-5.41433
-15.9051
-13.3987
8.3468
21.0821
18.7022
18.5102
32.69
39.7472
6.16415
-29.5959
-45.5722
-37.2278
-17.0042
-4.6938
3.25682
3.716
-0.849363
-1.09693
14.6316
27.6541
19.876
16.5245
14.5439
-3.68381
-17.7034
-27.9163
-30.6554
-45.1274
-52.2227
-34.7043
-10.5187
15.9424
48.7389
88.2518
84.1725
55.5363
19.2136
-8.72654
-18.7157
-26.6538
-26.8614
-11.1383
6.89125
2.36179
-10.4373
-14.0187
-25.8489
-21.0218
-5.25722
-6.84042
-0.235845
4.87326
-0.354125
-16.2076
-29.0132
-10.1618
15.6237
27.9697
18.9519
7.56015
7.48732
-11.2236
-23.9303
-27.5506
-17.3012
-11.3465
-4.40871
3.64977
14.4171
20.5273
22.2091
20.6865
5.55535
-11.9939
-6.26315
1.61542
7.98197
10.4417
11.7029
14.4428
7.26406
-7.76236
-13.9499
-2.32878
5.73863
1.08661
15.1741
27.6488
36.3711
27.8238
17.0005
20.6247
-0.0900887
-30.9065
-26.3628
-27.0055
-29.2868
-33.1537
-41.6823
-41.8441
-23.0228
6.63754
8.97052
7.61026
4.66193
9.80867
-3.69997
-9.94639
-1.05869
-5.46371
-12.6414
-30.8476
-47.5762
-26.6912
-6.2368
10.3667
35.6412
47.7806
39.5109
36.7036
34.2037
31.8216
35.1328
31.9343
31.6537
12.6198
0.90202
11.0276
6.31095
2.4688
8.29975
0.433016
-10.4664
-34.9676
-55.3674
-63.2137
-61.7379
-29.1806
8.37965
12.5689
-9.8828
-21.6105
-18.7141
-23.1982
-18.1836
19.9897
48.3534
31.336
7.00912
16.0547
0.126817
-9.36224
6.5366
16.2653
18.7046
24.9652
22.5526
5.33747
-13.3689
-12.2185
4.59844
15.2087
7.80109
9.97966
8.47995
-3.65714
-14.7888
-22.0293
-26.8991
-41.1135
-34.2067
-31.3335
-22.0584
-17.0324
-6.78287
17.8534
28.4064
26.3048
18.2026
11.4129
14.0305
22.657
23.9589
9.5013
1.70462
3.70566
-2.63185
-20.6399
-19.0036
-0.975222
6.43428
13.5989
23.2948
31.4059
33.5758
12.5569
-7.23298
-16.804
-22.1618
-13.6484
1.98303
7.41978
11.3189
8.07875
-13.715
-41.535
-72.9415
-82.1275
-67.8895
-40.7739
1.80269
30.8731
30.2201
72.5205
86.3693
51.9935
14.2043
1.70321
-3.81807
-7.60393
-14.0384
-14.3902
-8.93473
-3.15813
-0.776479
-7.32902
-0.585465
6.42818
-7.27357
-10.1703
-8.86302
-8.01793
4.7892
-12.8051
-21.6459
-7.56487
12.0123
35.5821
51.8917
36.6179
17.2875
2.01505
-13.7303
-21.3817
-28.7337
-35.2078
-28.9794
-16.8864
5.03724
20.6815
35.089
56.4551
62.6629
18.6518
-32.5631
-42.704
-34.3627
-29.511
-35.2294
-28.5657
-21.172
-5.39202
20.7699
38.1826
34.5085
28.9938
31.3279
33.5511
18.093
-12.4545
-49.4479
-64.3738
-53.3699
-32.7025
19.496
31.3166
-1.03636
-9.30136
-14.7721
-20.3247
-11.492
-0.0172896
1.13132
6.81663
25.7806
38.3564
34.1852
18.0563
15.2472
11.5599
3.33081
-6.63272
-6.47961
0.429721
-16.3675
-19.2015
0.645841
-3.20853
2.72512
22.1179
29.4649
19.0848
0.631173
-9.83814
-17.5577
-21.2213
-23.4401
-9.69486
22.0332
38.2272
10.0706
-19.0204
-29.6368
-25.436
-22.0518
-11.0856
1.88521
1.49573
2.03297
0.705364
-2.58384
-2.85033
-2.67509
-3.80288
0.859115
6.6527
12.8039
15.4556
8.15347
0.341942
-2.41438
-14.6594
-24.1508
-38.3259
-23.3529
2.16863
21.7227
40.0319
41.3857
35.9513
20.342
18.3527
0.899588
-22.5169
-22.9672
-12.8278
9.52243
27.8845
27.4868
25.7836
21.4173
-1.83026
-10.9453
-9.25319
-23.3266
-30.564
-28.5199
-29.2103
-22.4867
-25.7647
-28.7438
-23.727
-2.04307
26.1659
43.7062
40.464
11.847
-10.7324
-33.4887
-55.4512
-38.2843
-9.65517
-0.34893
7.01792
8.57955
9.46077
17.1856
23.2031
33.2925
41.9672
45.5704
36.2221
25.868
8.71664
-3.84203
-12.5793
-15.7305
-23.8669
-23.2336
-14.1996
-12.2945
-2.93313
11.6238
17.1796
13.7767
15.9007
5.88958
-10.034
0.518331
3.48647
-2.13343
-7.44405
-16.2883
-11.3394
-14.6105
-23.0632
-31.8164
-26.9056
-10.5329
12.5377
12.4124
2.48338
-5.18463
-1.00829
0.209169
-7.94251
-20.9041
-31.1378
-39.4082
-27.4907
2.33377
18.6184
25.6338
32.4562
32.0142
15.9693
11.7017
12.238
6.90773
-2.82115
8.04796
20.4849
42.0081
50.7387
35.2724
28.002
23.0793
18.1133
6.64245
-7.79639
-29.0735
-34.672
-25.2261
-28.2858
-35.2459
-26.1843
-15.0242
-6.35101
7.48358
16.4421
8.36111
-6.57957
-38.995
-55.3959
-45.7674
-41.0441
-27.2462
-5.52374
-2.60209
2.44043
26.6223
39.8717
39.875
32.4402
39.8959
40.1748
33.7025
16.3253
-10.6388
-18.5609
-15.6326
-18.6188
-17.8705
-11.2773
-6.00991
-10.874
-7.37932
3.1734
13.6734
15.2204
5.70237
6.51805
4.31864
-7.94346
-13.8203
2.18042
14.5832
25.3175
23.4349
2.44962
-6.30943
-10.4354
-19.3194
-18.4312
-11.7712
16.3504
44.5908
22.5854
5.83403
1.70012
-19.1403
-27.6473
-23.1424
-14.9989
-8.92686
-2.92627
-7.12865
-16.9837
-24.1182
-23.8747
-17.6876
2.04931
14.9055
17.4016
24.9863
18.1731
3.71593
11.1859
9.85206
6.74725
11.581
9.86814
7.89167
4.96517
-9.07944
-5.10427
-2.42072
-19.5327
-19.2127
-5.52097
0.750825
4.13509
0.461006
-10.9373
-10.333
-7.38537
-3.7959
4.13245
9.54561
12.073
21.4153
13.3213
-5.97336
-6.97256
0.248742
-2.20307
-2.75752
6.98845
13.9416
2.15761
-10.7686
-18.6549
-18.4493
-11.8885
10.0294
17.0577
19.3169
17.2905
10.7621
1.54977
20.4771
27.3627
10.0232
1.18211
14.8038
21.919
-3.75723
-30.1106
-39.5767
-34.4957
-32.873
-33.4119
-22.8471
0.349767
-1.32029
-7.9773
-6.82702
-2.09123
-3.36946
-5.23192
-17.0608
-20.6996
-10.2503
1.74152
5.91875
7.12381
23.4444
38.0773
35.7283
36.667
41.9077
37.913
19.5291
-0.126767
-9.64213
-5.25154
-22.0826
-39.596
-18.6226
5.56202
4.99802
2.6292
14.6753
13.3792
-1.75168
-16.1753
-21.7657
-7.09244
-1.8477
-8.91824
-5.71943
6.60494
5.39824
-7.23542
-15.1935
-19.4049
-10.0739
8.60064
11.8644
18.4558
27.5187
34.1576
31.1139
8.46374
-25.1087
-34.2933
-18.2593
-5.91525
-0.0455477
0.31011
-4.67689
-12.8783
-11.1776
-12.6932
-21.8526
-16.5525
-0.164059
20.9718
25.8359
20.1847
6.10449
-9.47693
-21.7236
-6.30529
16.0116
12.8299
4.2041
-0.99979
-17.4532
-18.166
8.94765
25.8844
20.0843
17.303
5.9472
-9.64716
-15.5893
-35.8266
-32.1749
-23.1714
-14.2083
7.3861
24.593
32.7412
32.4779
30.4625
20.6293
9.29196
5.72631
0.132579
-10.5776
-14.9908
-4.23611
2.06572
-4.0191
-9.79983
-15.772
-9.14284
-1.82722
-5.12016
-0.543085
2.45451
10.712
3.89869
-10.1108
-9.99813
-7.75907
-1.73607
6.43952
-0.0251543
-12.5594
-15.9897
-9.73252
1.86199
12.2033
12.0008
30.0032
32.6265
9.05951
-24.0185
-37.491
-36.756
-26.2938
-7.32263
12.1345
25.7314
22.1519
12.9219
10.2179
2.16313
-6.50718
0.524578
5.32444
14.0048
20.5193
13.5728
-14.2665
-33.7524
-39.645
-24.3549
4.29432
28.5946
38.4588
46.7554
62.0541
38.8667
0.104316
-37.6889
-58.3489
-43.0355
-23.2034
-17.7723
-1.7357
7.30109
-0.378737
-12.1678
-27.4699
-12.8903
2.83913
11.002
-0.31849
-8.35125
-4.60509
-5.41588
-16.4605
-4.86764
18.7121
33.992
43.3582
33.1731
15.2441
1.31803
-25.4096
-48.9755
-38.3416
-12.6147
15.9642
28.2252
35.1784
44.4141
41.9725
35.6134
7.11577
-25.4666
-34.9006
-29.7313
-23.1272
-13.3774
-5.32301
6.83578
15.9916
7.73128
9.52831
2.29401
-4.01965
11.0742
19.744
6.23793
-23.7303
-35.6876
-31.3789
-36.6764
-37.1209
-11.9456
1.084
3.6102
3.08678
-3.48464
-9.49953
-4.82998
6.76351
5.92624
-17.7963
-21.5677
1.50476
9.24686
9.5809
53.1198
128.818
121.347
55.49
14.7624
4.50813
-28.2493
-59.1436
-55.481
-40.939
-27.1676
-27.6765
-33.3947
-37.8861
-27.91
-2.16062
13.7349
8.10851
5.60846
6.95851
-24.3331
-63.7096
-58.8737
-38.2018
-18.4611
13.5853
64.8938
96.002
72.6511
49.0733
51.7462
32.9281
2.31069
-2.47934
10.1754
6.55015
3.59965
3.6093
-5.14864
-20.8794
-29.5725
-41.8468
-33.4185
-9.06909
-0.921948
-4.91578
-18.3554
-33.8323
-27.3762
-6.48911
-0.903189
9.6856
22.8845
7.44598
-17.9577
-21.2847
-5.41576
10.8872
13.3425
17.7758
29.655
16.9509
-0.0232848
-17.9473
-11.5532
-3.95947
0.734031
3.20973
3.22625
3.22549
-1.69468
1.05779
-6.75394
-5.52678
-4.00606
-9.67229
-17.2049
-22.0559
-18.8673
1.93155
48.6904
78.4112
68.9849
56.354
35.3366
29.264
10.3131
-21.9458
-37.3173
-50.0885
-52.6735
-40.6201
-29.1011
-19.2801
1.98146
25.3988
15.0824
-4.9487
-34.2441
-51.2647
-67.5793
-49.1499
-24.5948
-17.6062
-3.71199
7.54453
13.1547
30.1937
45.4908
51.0601
44.5799
35.9027
19.5349
12.8226
9.60779
4.77115
4.0168
16.5949
33.8326
32.367
11.6961
-2.66279
6.80086
14.2442
10.6808
8.79609
3.87795
-27.3823
-34.9246
-25.2055
-28.9778
-29.9084
-24.624
-25.9874
-22.5291
-19.9879
-18.8681
-25.9369
-23.0743
-9.46278
2.42102
-3.86846
-10.3253
8.97754
17.2874
7.08431
9.70342
33.7398
37.6528
15.416
-13.1215
-11.2678
3.48068
-5.12201
-7.42743
-0.394703
17.3515
54.0531
58.1858
38.2503
38.2826
25.9204
-5.64237
-30.9099
-45.3357
-40.7336
-28.3808
-31.8599
-36.4414
-15.0573
7.70469
10.3116
12.3229
12.0874
1.30107
-2.77891
-5.37579
-15.7479
-6.83552
2.99762
-1.87301
-2.31507
10.0513
6.43434
-5.17993
-18.0549
-21.8011
-5.96007
6.50709
23.2753
61.2719
63.9886
41.6837
31.4816
13.3229
-25.5078
-55.1254
-59.2217
-46.448
-38.3947
-41.0121
-25.7135
-5.71589
12.9962
28.0002
30.4438
33.1469
41.3218
33.5225
7.95277
-9.14825
-12.1371
-13.6276
-20.4605
-30.2554
-15.0345
2.96062
1.26255
8.60951
1.06688
-3.65444
32.2034
37.8765
30.1209
29.9611
21.5166
9.47999
-8.42176
-16.0516
-35.8899
-48.4954
-47.7857
-41.142
-17.5628
2.91528
7.80752
12.5993
15.3228
0.0843516
-0.00477612
0.234305
-21.324
-22.3547
-20.0247
1.76141
28.6478
42.3673
46.1515
26.4079
24.6784
24.2229
4.0133
-3.66217
-3.34069
-1.81799
4.45163
0.338309
-11.2996
-20.6404
-20.3916
-29.1444
-55.3503
-57.5917
-28.5345
-5.4759
-0.797245
0.426876
27.1106
71.3625
88.0727
53.6758
40.8274
30.5043
5.04569
-17.5918
-31.1608
-42.5637
-33.5745
-2.38567
11.3843
1.1211
-9.04438
-9.49822
-14.0321
-24.9957
-23.8605
-8.03205
-11.1047
-55.8362
-74.3758
-51.586
-17.6953
13.5608
41.9329
61.4828
53.1294
50.8562
47.5126
24.5331
2.79398
-1.27182
1.7831
6.08589
8.42446
12.4715
-0.691589
-16.3515
-28.5029
-27.5479
-9.55513
6.47444
3.80805
-5.45438
30.4794
55.6041
39.6206
10.7659
-17.6539
-30.0507
-26.7456
-21.2018
-6.23764
-10.4229
-24.5923
-36.1712
-29.4966
-27.1571
-19.4354
12.8019
38.0444
46.9641
30.2129
8.60855
-42.6803
-81.5655
-61.6962
-24.6096
7.20326
25.3836
40.5824
57.4897
47.1319
35.2533
31.8155
30.6794
24.3355
14.6761
7.31456
-3.0835
-24.6905
-43.2844
-40.4441
-37.9057
-32.9816
-10.9976
1.47979
-2.93522
-7.64779
-3.99669
10.7785
-2.29293
12.6838
35.5242
37.404
33.0678
22.9478
14.2906
4.54058
6.82337
2.97645
-12.147
-13.3906
-6.09016
-14.7942
-13.9542
-5.12002
-5.40194
-19.0771
-28.4391
-27.5962
-14.8967
-34.9591
-58.9193
-33.6355
-2.92102
5.1103
5.76247
12.9519
26.4904
28.595
24.4427
25.2404
29.9533
29.4292
32.5809
30.3751
28.5591
21.953
14.7921
-3.07939
-18.019
-13.6636
-2.40724
-1.18817
-12.4945
-8.53412
-12.6015
-35.5734
-49.0167
-32.0271
-11.903
2.62596
10.0701
10.6415
-3.24956
-6.24972
-1.72851
4.29532
5.22319
14.9272
50.1559
44.2465
34.6025
17.8558
-1.95418
-15.2624
-21.7153
-23.0838
-22.4787
-40.8531
-36.9273
-21.3652
-2.92996
3.24591
17.193
39.3921
18.8543
-19.1937
-29.6084
-32.1356
-35.4844
-21.6884
-8.52782
-3.81297
0.00213012
10.419
28.6619
41.834
39.0979
41.9905
43.2269
31.4983
-6.35405
-28.1727
-20.599
-28.8771
-25.7359
7.87379
43.2595
64.1656
48.2489
23.0516
4.41449
-11.2662
-24.004
-21.6454
-15.0199
-5.94222
-8.08512
-21.6567
-36.9744
-51.418
-37.8609
-20.9055
-21.3427
-11.907
9.35641
30.5864
25.7561
-18.3286
-45.5825
-27.6579
-7.42653
3.40937
8.18122
-0.336872
1.70229
13.9847
19.2288
25.0938
33.3151
35.0227
23.8763
29.9975
33.9225
12.1744
0.690961
-13.0707
-16.8033
-5.36306
-1.67298
8.02799
6.32582
5.20736
9.35451
4.37417
-4.01312
-9.26854
-15.3527
-16.6345
-15.3637
-22.176
-31.3311
-19.1855
-15.4976
-17.5268
-19.7922
-13.7027
14.0503
25.8475
13.0584
10.7603
14.7229
18.428
29.7512
35.3919
16.1843
-13.6149
-9.33241
6.79974
24.8063
31.2415
36.5844
17.624
-33.6968
-56.6195
-43.2987
-37.4047
-53.6865
-39.1955
-13.7655
-22.4882
-32.7421
-22.6096
8.90099
34.7309
37.0091
46.0954
32.7143
-2.33957
-11.1889
-5.98144
-0.62995
3.71355
12.8381
19.6074
21.8034
19.026
8.07153
1.27859
16.4376
31.2262
28.2235
9.20794
-16.9486
-37.9607
-40.0796
-43.8717
-32.6755
2.76255
31.6956
47.694
77.3327
72.6939
39.9498
5.62358
-19.6107
-38.812
-53.4137
-63.7021
-60.2324
-49.822
-24.4465
-4.37635
-10.2628
-15.7973
0.645864
19.2997
20.9977
-5.96261
-37.1399
-28.8005
-20.4805
-22.227
-13.13
28.9545
60.0249
71.6107
54.2848
19.2176
-11.7076
-17.4108
-10.7034
3.12954
23.2686
29.8278
36.4718
38.3437
21.0506
1.64412
-0.0838903
-6.34209
-32.3914
-37.9544
-22.752
-19.0313
-23.8841
-26.6165
-18.5749
-3.71067
11.5342
15.3779
16.1666
-5.65796
-38.6541
-45.6532
-39.3827
-16.1275
24.5181
79.7524
105.503
82.2017
21.2869
-9.65655
-16.2571
-32.3094
-42.8486
-47.947
-42.2189
-26.0504
-15.1595
-2.61359
6.21035
16.0574
16.8804
19.6836
24.2889
19.8045
8.55635
-13.1056
-36.1632
-41.2663
-28.0333
-24.3873
-9.96916
5.95368
3.12018
-2.18299
6.79966
28.8166
29.3796
18.6959
24.746
25.0481
17.2229
16.5711
4.2585
-14.2833
-22.6502
-18.6507
-14.6879
-9.24731
5.07539
17.8414
18.0099
4.73189
2.06004
8.2147
5.89257
-9.34402
-19.1047
-18.7513
-22.1496
-10.5096
4.78947
17.4487
43.7299
81.9324
65.3558
3.75976
-38.3496
-50.7425
-51.2205
-43.3833
-22.0327
-2.67284
5.16852
14.5835
1.4683
-17.6808
-20.7299
-15.9623
-13.495
-10.9507
-11.6585
-18.4276
-26.9636
-32.5756
-18.3892
5.07477
20.2481
32.97
45.5344
52.0102
39.7799
24.5521
8.10333
-22.0525
-25.7823
-19.6187
-2.17896
27.4198
46.7118
58.3502
37.5342
14.8327
-10.3334
-25.7534
-19.7067
-7.00945
-3.75715
-9.48129
-14.2746
-18.8997
-23.0119
-23.9209
-20.8339
-13.4884
-12.6361
-4.62088
0.366907
-7.56476
-16.1596
-20.4008
4.03508
19.1032
27.687
23.0602
9.7687
9.43838
14.4229
15.9817
17.4664
10.4828
6.34688
2.6465
-4.67376
-10.6809
-12.9382
-17.3806
-16.3519
-21.4199
-31.6838
-20.0033
29.396
36.9065
2.708
-14.6757
-13.1113
-13.6021
-13.6673
-14.1198
-13.8301
5.86395
9.4871
2.15596
10.061
16.9631
23.4749
32.4112
3.79045
-2.35089
26.4598
20.9932
1.01685
-2.91419
7.3353
1.79371
0.718964
4.26332
-2.48452
-13.2403
-12.8678
-16.473
-24.0297
-18.8768
-11.1591
-6.21441
-3.37424
-6.9743
1.75602
-11.2321
-31.2108
-30.6188
-34.8289
-13.861
14.586
29.8662
45.8633
56.9347
65.2268
49.3936
21.3304
-3.53405
-16.5702
-24.0995
-31.4243
-33.0364
-19.0737
-3.64251
13.445
19.827
9.52531
-2.35321
-5.55807
-7.66057
-8.85478
-9.31319
-10.82
-16.1089
-24.259
-13.1815
4.41636
15.4415
13.1335
1.19516
2.37978
12.2218
9.16291
-10.5162
-3.19767
20.8475
14.3522
4.95164
5.5855
14.4281
8.44864
-7.11759
-23.1539
-38.317
-32.0435
0.6177
30.0218
42.1043
39.9069
20.6437
0.817533
-5.94971
-10.1327
-11.4881
-18.9926
-32.4487
-36.534
-27.3015
-16.8966
-17.6273
-17.3772
-9.76326
3.23205
23.1085
20.0699
-0.583893
-15.273
-9.3698
5.11571
23.6068
32.8526
31.8721
20.6519
12.9644
1.48614
-10.1686
13.1497
26.3318
16.192
8.9578
0.738743
-10.93
-10.2394
-11.1144
-6.39486
0.951984
1.38083
-5.31582
-5.71325
4.64971
15.7333
9.28793
-10.173
-16.6291
-4.13469
3.85598
-4.78552
-17.4218
-29.3559
-28.4188
-12.214
5.07652
11.3574
13.0932
6.6963
-4.76134
-17.1871
-23.6061
-22.955
-16.5968
-14.8141
-11.1082
5.2326
17.5599
18.2057
12.5861
-1.78335
-3.85411
8.19971
10.1191
19.8328
20.9506
24.3015
29.5671
29.8255
28.9245
13.9843
1.90837
6.30453
10.6638
2.32309
0.64726
-11.2603
-33.2908
-31.084
-29.0007
-14.6919
-1.21732
6.75698
26.8047
27.2535
12.7231
-17.548
-36.7083
-44.5522
-35.8628
-22.1354
-16.3303
-16.813
-18.814
-10.0566
-1.06256
10.057
25.9654
28.4103
27.2775
22.8414
18.78
8.56313
-7.60925
-12.7751
2.07244
21.955
27.4362
18.6726
4.07482
1.96193
-2.36138
-16.8706
-15.0986
-0.867048
1.97741
-1.34086
3.68101
7.35781
-4.86505
-11.3771
-17.6803
-18.4153
-24.2213
-26.2942
-16.529
-9.93058
-3.27443
16.1405
37.8458
74.1146
73.929
34.1595
4.48554
-14.259
-27.7731
-24.5611
-20.8929
-41.5148
-47.3164
-35.1604
-8.25408
12.1738
31.819
45.3748
34.0591
22.1037
3.72896
-14.5724
-50.36
-78.8132
-68.9164
-31.8702
0.0280005
14.3352
13.5621
15.0277
20.3099
34.2433
44.6804
38.7529
24.4616
11.8408
-3.86807
-14.0886
-10.9256
-2.2326
6.34251
5.26465
11.6507
16.7794
15.6892
20.1561
17.2179
5.25467
-1.46335
-18.1966
-30.6643
-22.9893
-14.4892
-10.7911
-7.19882
-5.49888
-10.0335
-16.7269
-18.5853
-23.4721
-11.8978
4.32017
24.2338
21.514
0.482052
-18.3354
-17.1756
-7.51315
-2.49246
15.5043
22.9611
14.6143
13.3161
6.90733
-3.3596
-13.8745
-10.7044
3.11343
20.6895
23.1772
17.7229
21.0429
18.3724
13.3265
17.4666
10.933
-13.061
-30.8026
-30.8279
-34.3563
-32.3959
-22.5689
-12.0148
-0.711206
11.2219
14.5902
16.0223
10.2426
1.58106
3.77699
3.23615
-7.28231
-13.11
-14.5178
-9.49894
5.28797
14.1926
18.516
12.0274
-9.50414
-23.2851
-17.7764
-11.8494
-18.9463
-8.76939
20.5424
33.6843
19.4842
-3.9926
-10.0723
7.34048
51.4812
53.0705
18.424
-13.0526
-20.788
-18.6378
-21.3564
-14.7611
-0.653982
5.30571
-1.94222
-5.28598
0.734223
-4.55255
-12.1129
-10.0107
-2.34866
10.1772
16.0822
-1.70407
-53.7103
-65.9969
-55.3739
-23.929
13.9713
45.6022
69.1458
73.0734
61.4904
30.0096
7.39221
-5.56033
-12.0911
-12.2638
-14.6781
-10.2032
-1.38959
-1.7035
-6.47133
-5.73109
-7.07575
-9.70166
2.53536
-4.72117
-31.0108
-58.2706
-52.9497
-24.9838
-3.0274
17.7217
37.1022
50.0252
41.1446
17.18
5.77159
-10.4789
-14.9705
-8.77909
0.944102
-2.28526
0.783782
3.77484
12.2132
22.8284
24.2317
20.0078
-4.21317
-29.6071
-23.7706
-8.765
-13.8425
-23.6957
-16.3156
-5.93626
0.147197
7.09634
10.8909
2.4931
-8.58539
-4.32633
9.12396
13.108
10.4563
8.38567
30.4392
44.8692
39.8597
16.1382
13.085
-1.50217
-22.9197
-22.9451
-19.2257
-22.1342
-26.6956
-28.625
-28.4684
-19.3618
-6.33938
1.19013
-1.11309
0.826352
14.4614
11.2577
-15.2646
-26.9202
-30.9464
-20.3554
-20.0499
-2.69594
26.6553
30.9976
27.2176
35.2464
32.432
23.9694
11.2799
7.09298
20.1836
24.9872
3.32711
-9.35496
-18.4914
-13.1567
-4.98463
-2.7785
5.91425
11.7626
-0.293341
-10.4883
-13.0416
-15.9872
-24.6154
-24.0534
-14.7656
-8.28647
4.97359
15.3579
12.4516
8.13354
16.9567
21.583
18.8465
9.56509
-4.41861
-17.3876
-23.0414
-37.9906
-46.45
-25.1742
-11.3179
-3.132
11.4557
12.2139
13.4692
14.1034
18.2948
16.3165
11.8833
11.7312
20.0656
17.8533
4.52446
3.35334
4.58766
4.01622
6.29429
2.89338
-1.68795
-6.79215
-5.37829
-11.949
-31.5119
-31.3164
-14.4626
-9.49024
-2.03697
15.6116
33.1074
30.3596
7.52427
-0.38974
0.47655
-10.0337
-28.2075
-33.7907
-21.3804
-12.2698
-3.3515
6.57308
27.9475
44.7807
22.8964
5.8073
-3.8059
-19.2435
-40.6959
-44.8671
-33.6059
-15.7182
11.3589
20.7889
40.6201
41.3596
18.4299
16.1499
28.4453
15.1456
3.45113
4.11094
-9.15181
-24.2774
-22.3801
-18.8985
-11.988
0.130005
25.5553
37.6119
37.2239
31.488
29.5703
4.68689
-27.5199
-41.2179
-32.498
-23.8966
-25.5659
-15.8407
-12.0955
-26.3516
-32.6996
-26.5623
-12.2443
0.23883
8.32091
14.5876
11.0292
4.38544
-3.05668
-2.31853
1.44687
9.48338
7.59383
9.81654
15.4215
8.96895
-7.58232
-8.48851
-2.07252
9.69045
19.3362
39.077
59.9011
52.6928
34.1445
19.4741
-3.36585
-23.7475
-32.1342
-31.8338
-39.4565
-32.0199
-23.7798
-13.7208
-2.98446
-3.87851
-4.26355
-3.42789
0.652544
-1.5198
-11.7704
-14.393
-11.6259
-2.05132
9.05711
16.3681
15.6924
14.5368
9.77083
-0.428002
-8.68712
-1.17706
-2.38985
-6.03279
4.5089
16.4614
12.9688
8.29051
10.3931
29.0193
31.089
2.94244
-19.1295
-7.09325
0.783086
-7.7189
-11.0631
-13.1598
-16.6674
-18.3329
-15.2679
-14.8397
-16.8826
-18.6533
-30.5541
-22.034
3.04737
20.4725
32.4106
39.7265
48.104
35.0543
5.81719
-16.0981
-22.6705
-24.1589
-18.7146
-11.2906
-2.09723
7.72661
13.2216
16.2065
19.6495
21.3781
22.4746
12.2532
-2.55356
-9.71295
-17.8263
-40.6435
-47.8295
-31.5227
-10.9379
-1.73921
5.0679
11.4887
13.9314
10.2318
3.44365
2.37588
2.7449
6.49923
9.792
20.6666
26.7622
13.5625
16.7856
10.1711
-19.0114
-26.1578
-18.8077
-20.0832
-0.7461
22.9347
23.3345
13.7167
10.1414
0.089694
-12.0432
-15.7544
-14.3413
-12.7757
-7.03826
-2.10293
-4.53047
-0.24754
-7.27092
-8.2573
4.70337
0.800824
2.24081
12.0297
2.18099
-12.7883
-16.2353
-12.4635
-17.8719
-8.46991
6.2253
4.73767
3.1844
12.3098
18.9262
7.82475
-4.61444
-0.774294
21.0312
30.4075
27.4019
30.7891
22.4237
2.44729
-10.204
-14.7108
-14.2677
-15.3923
-14.9633
-14.2606
-15.7827
-16.1344
-18.8282
-26.8354
-27.0285
-14.4102
2.83541
9.85592
7.96311
10.848
6.07879
5.48425
3.62064
12.4604
13.9224
1.31661
-3.52315
8.58778
10.7638
10.1937
22.442
28.3858
11.5522
-5.63056
-2.36227
-2.84052
12.1528
8.6082
-11.2511
-19.4521
-15.991
-15.4963
-8.74623
0.160901
-0.685632
-1.4526
-2.93571
-4.78974
-0.216701
4.25679
-2.27239
-9.99068
-6.5116
-11.2503
-21.0602
-23.6419
-26.7334
-10.9331
7.61527
27.633
47.1864
34.6477
15.1425
7.61489
6.83224
6.43503
3.79519
-1.0449
-1.35231
-10.0653
-24.5806
-19.8216
-11.3523
-0.0377988
4.3015
0.431817
-4.57169
-16.4909
-28.8382
-22.4655
-1.35471
20.9508
35.9888
19.6841
1.36563
-6.51469
-6.05715
-1.63786
11.7034
26.7975
35.3613
24.0474
8.1543
10.5133
5.96982
-6.24952
-14.6504
-6.8565
-1.01204
-11.5655
-22.5248
-19.0401
-19.0865
-8.28417
4.21915
3.15017
-2.83731
-7.62043
-13.6845
-19.2816
-15.0621
3.73414
21.2491
22.7787
12.5818
8.99861
-4.71726
-7.13749
-1.01178
-0.184628
-8.64509
-10.4352
-1.86306
6.56471
4.53024
8.69003
14.1973
9.52865
0.746375
-4.52045
-14.4275
-23.4145
-21.226
-21.3311
-6.42557
7.01755
19.4398
18.8534
16.0501
11.8402
1.98326
-1.22168
1.04
5.98071
2.55675
5.18765
8.37596
8.39586
7.85815
13.4298
15.2361
2.02284
-11.4305
-13.5275
-11.9343
-5.46811
1.40466
11.3403
20.9303
15.5994
2.94411
-9.78498
-16.8363
-18.7578
-15.3992
-20.8841
-33.3878
-25.8363
-6.00346
-14.2638
-22.595
-11.4414
-0.923644
11.0276
15.8097
21.9777
22.0235
6.43121
-9.62069
2.8996
26.315
36.542
29.7082
25.5696
12.6436
-10.3505
-22.2255
-24.1661
-24.907
-8.28927
12.3676
17.979
5.71833
1.8586
-4.35801
-6.83736
-9.89654
-10.6312
-7.24376
-11.0604
-17.7019
-20.7454
-13.6589
-0.128
13.6151
28.1884
41.3712
25.5359
0.146972
-5.52986
-3.40973
-0.304311
2.42787
-4.27634
-3.76534
-2.55031
-3.38707
-2.26002
-3.97201
-8.2601
-12.2987
-5.20858
-4.16951
-3.10357
2.02742
14.4271
22.6046
14.2054
8.22652
-0.749372
-15.2513
-22.6179
-19.6987
-15.6686
-9.3839
2.994
9.66391
8.78729
6.15007
8.99662
11.9814
3.34761
2.18293
1.14391
4.3161
6.77978
-1.24601
-8.40695
-22.6405
-7.8594
10.6775
9.23779
2.67373
-6.91078
-12.1319
-17.2782
-19.4459
-15.2297
-2.79162
2.97198
4.76299
7.0651
7.09804
14.5744
16.6529
4.28732
1.02682
20.3604
25.6051
-3.55419
-19.4747
0.692215
28.9034
28.6045
18.872
14.6991
6.15203
4.90686
-6.20196
-19.9346
-22.2117
-20.6788
-16.5888
-15.8566
-14.8589
-12.8312
-11.7854
-22.789
-10.7299
4.59892
-5.81017
-17.9296
-20.4432
-13.738
-10.9386
-24.6238
-22.0121
-5.98328
12.4141
33.6849
57.7971
81.8765
71.136
43.0221
17.7892
7.28812
1.40996
2.9631
2.71907
-5.35441
-16.5522
-25.0007
-27.7017
-29.5165
-31.2584
-26.0979
-25.4546
-15.4178
-11.0552
-9.00682
-13.4248
-24.168
-16.1613
-4.14485
5.80433
7.24627
13.5565
16.955
18.1245
20.0901
15.8132
1.03051
-4.28131
3.64239
20.6892
30.3395
31.7629
17.5557
9.9921
10.473
0.640443
-13.8606
-17.4322
-7.6934
7.04471
11.0187
7.43522
-1.88412
-18.5524
-32.4277
-20.4906
-5.04281
-3.71922
-8.60187
-12.349
-15.0033
-13.3684
-21.0947
-30.2788
-26.4989
-12.4129
5.37423
22.9059
43.9423
59.9654
41.8006
15.5634
22.192
27.2163
14.2614
0.586807
-7.87974
-17.2458
-25.7263
-33.74
-30.0898
-24.3929
-11.7882
7.16543
4.61475
-2.32632
-4.37699
-10.3371
-16.7863
-22.1697
-6.69671
4.64757
1.93177
2.30751
21.0718
27.9143
16.4016
8.79367
10.7391
4.96998
2.5542
4.13543
-4.81376
-8.74337
-10.64
-5.25673
2.23779
7.39239
7.34805
15.2142
23.6396
17.0066
1.42032
-4.49496
-6.04354
-7.01985
-1.81649
1.44216
-5.00337
-6.06614
-5.08918
-3.61712
3.80726
9.76941
15.084
3.14859
-22.029
-34.6976
-34.7089
-39.0655
-27.7446
-3.17178
9.97655
13.8443
12.0444
8.98326
7.69411
8.45821
14.5852
14.826
15.1107
14.4768
14.7856
7.41291
-0.60213
-0.390991
4.44857
0.578482
-7.24189
-13.08
-13.8754
-7.08174
-1.32694
5.8261
17.4823
19.8165
11.531
0.653817
-10.4856
-20.227
-22.5703
-19.6715
-14.9415
-7.53133
-5.25766
0.043912
10.3111
20.7197
18.9807
7.47959
-4.96093
-12.3074
-9.98665
-16.7948
-23.3843
-21.8473
-13.961
-2.99589
6.1453
15.1369
20.9452
24.9597
24.9096
20.343
13.7173
10.1058
1.29226
-3.92374
-2.31901
-0.353479
-5.62991
-4.75425
-4.70889
-7.63913
-2.51785
10.1003
20.2876
18.2332
4.7165
7.19636
2.92803
-4.81958
-10.3232
-13.1313
-14.7177
-15.3047
-11.8265
-11.4964
-10.7516
-7.24594
-7.7746
-5.17179
5.93249
3.1887
-10.2442
-11.8884
-9.5393
-3.75633
-2.51494
-9.20948
-2.68892
2.49666
-2.47759
-1.58319
3.23322
11.2039
16.6535
29.7827
36.374
35.4636
37.4781
34.4442
19.7437
5.31558
-8.14659
-7.89718
-9.17053
-22.8138
-32.2957
-37.3909
-39.7977
-25.2726
-12.4344
-4.68719
9.02487
20.8827
30.589
3.72053
-10.7485
-14.3383
-19.3229
-9.25549
-11.7497
-21.5136
-21.4154
-19.4297
-14.4585
0.538791
18.0728
23.8753
23.0077
16.8102
13.0813
13.6132
10.3406
6.31562
3.64547
9.37647
10.4791
12.4293
17.1623
7.79059
5.85797
17.8983
24.4181
10.2762
-2.18472
-7.89311
-9.56738
-9.25742
-12.5324
-18.7602
-28.0883
-28.9052
-26.2372
-22.8406
-15.7122
-1.50382
12.4784
22.9009
21.1487
16.9496
7.98244
1.22994
1.25103
-6.48593
-9.88229
-7.6552
-6.66447
-6.50565
-5.22147
-1.58698
3.40478
2.43847
0.00543034
-5.68679
-12.3112
-17.3826
-21.7413
-22.6786
-11.2423
-0.291204
16.2487
33.7678
34.2922
28.9442
15.7348
7.80467
5.46265
2.86154
-0.593048
4.57484
13.4727
15.9994
13.1483
4.30362
1.74036
0.191996
-10.4289
-10.0629
1.70629
3.93688
-2.85536
-10.3559
-22.7115
-30.8403
-24.8039
-23.3969
-31.4875
-45.9149
-58.3148
-54.9513
-8.90658
53.8739
108.819
130.599
105.843
60.5599
25.1062
3.8178
-15.0325
-34.3589
-44.4804
-44.3306
-39.5417
-28.4619
-20.2536
-20.0693
-12.8673
-1.36873
2.46173
-1.5403
-21.1111
-45.5547
-68.8495
-71.3286
-50.9476
-22.6095
-1.83832
7.88686
22.8289
40.302
48.4094
58.5046
64.0356
56.7703
38.5929
27.8887
24.2465
23.6904
24.1799
28.3469
18.8889
-6.62675
-23.3038
-23.1502
-24.753
-28.9251
-13.1509
-1.36156
-1.98376
-4.33003
-0.340856
2.6741
-4.1952
-9.06144
-9.80786
-8.54041
-3.53118
-4.51271
-2.8861
-3.71157
-11.8246
-14.4069
-11.4074
-12.9543
-14.0564
0.837194
11.5709
27.7467
28.3411
-11.0925
-44.4011
-41.7778
-28.0892
-10.0736
4.92755
16.1805
18.4439
17.7492
15.0316
11.056
14.5956
15.4732
8.69935
2.91018
1.38751
-10.2626
-21.2971
-12.2654
-7.45963
13.0857
28.8537
23.0858
16.2164
8.90694
3.30805
-1.66457
-8.36549
-8.40456
-8.85474
-13.5737
-16.6534
-7.70366
7.12176
15.8884
19.1175
32.9724
32.3213
1.34191
-12.8457
-6.75192
-7.94751
-14.727
-16.5635
-13.268
-14.8504
-15.4035
-14.31
-12.8952
-9.61589
-1.95101
0.833994
-8.77069
-16.1271
-20.5396
-15.1557
-8.30677
-9.75701
-3.42805
9.42039
18.4557
33.2804
46.7276
36.0306
13.7422
-1.90258
0.934786
-3.70156
-3.20343
3.96515
16.7103
19.1508
10.3138
5.0169
-0.119335
-0.789251
3.96068
-1.12374
-11.6615
-13.694
-26.1883
-43.0402
-30.3772
-10.8537
-3.39561
7.8523
2.92302
9.57219
14.4771
6.38605
-1.72176
-0.324274
-2.46412
-8.42015
-5.02794
1.98733
5.2647
12.3522
17.362
9.92974
13.3727
18.0068
9.91826
1.92466
3.42827
5.3814
3.34419
-0.477125
-10.1827
-14.1759
-22.1954
-24.8892
-17.9663
-10.6482
-7.5166
-15.453
-25.2055
-22.2463
-3.43289
20.7511
34.6252
43.7805
53.772
47.7336
26.8976
1.32969
-30.7457
-42.9025
-39.0948
-31.9523
-23.603
-13.9586
-8.81951
-6.08194
-4.20829
-2.13013
12.26
26.537
17.6235
9.22562
12.256
13.6383
3.1216
-16.3042
-32.9437
-40.6683
-1.61184
20.4798
33.0221
29.2027
20.2266
18.0181
17.0343
12.6873
11.1366
14.6754
8.96475
-0.228409
-6.32607
-14.8879
-20.4086
-26.7057
-36.2056
-30.6412
-6.99518
14.1951
11.8973
5.43765
-1.79705
-1.73371
-6.59598
-16.8212
-17.5811
-7.74907
-2.00667
3.14528
5.95313
10.2696
14.4443
16.5306
21.0504
15.3079
15.2012
16.2585
6.43407
2.13517
-6.43498
-18.9286
-31.4916
-40.62
-32.6801
-16.8577
-3.96123
-1.09575
6.3936
12.4047
-8.29637
-40.4474
-53.2973
-26.6516
24.9356
60.3985
79.2226
97.4302
92.8849
67.7766
41.34
5.42594
-16.774
-21.9398
-29.2954
-35.925
-43.1277
-50.8352
-49.0893
-40.006
-27.1396
-12.3643
-0.42042
-2.53401
-30.1579
-62.1282
-102.551
-115.702
-80.9864
-0.192791
81.1335
145.014
174.292
139.02
89.6474
51.1929
14.5874
-6.46997
-15.9255
-8.90792
-1.22865
3.00691
-6.09841
-30.1334
-50.2361
-52.2836
-40.2167
-32.3145
-39.7059
-70.3724
-92.7735
-91.9127
-85.3398
-43.48
16.5465
44.9991
68.4634
89.2324
85.1293
69.8828
62.3935
56.8186
50.7852
41.1235
31.7122
25.166
22.2572
17.5595
14.121
2.47932
-23.0589
-43.1606
-48.3872
-42.311
-42.7406
-34.98
-29.3902
-28.6764
-25.3418
-23.5472
-20.2511
-11.904
-2.23234
6.94267
10.2865
6.22063
-1.72437
-7.6223
-13.3167
-6.93823
-1.79544
7.16459
17.2784
15.1888
9.92386
10.9956
2.28897
-2.57154
-6.14318
-6.91367
0.0362775
10.0931
11.7446
5.18653
2.54356
13.2886
20.753
20.5055
22.314
17.8342
10.0935
-5.15956
-33.4187
-48.7143
-41.7774
-29.0946
-11.4798
8.45014
21.3026
17.0839
19.6245
25.5597
27.4754
23.923
18.3777
11.6782
11.0265
8.58904
0.0922243
-7.88396
-14.191
-16.4825
-8.53076
0.860402
-0.864122
-6.65513
-0.0905798
-2.89833
-9.34084
-9.60069
-7.31999
-6.73073
-13.8065
-22.9965
-28.752
-25.0864
-24.9433
-13.8531
-1.72231
0.617757
-1.19691
2.57917
10.7056
17.9322
13.4127
15.1808
17.685
17.153
14.5249
6.49252
3.49522
4.83979
14.6696
22.0609
27.9834
27.399
13.2742
-12.3991
-46.5361
-54.4287
-41.4729
-8.58471
42.9198
55.8829
41.8953
17.814
-8.4009
-29.4737
-38.259
-22.5321
-0.303742
-11.0759
-18.5742
-15.1075
-15.8527
-12.6777
-2.88229
2.59761
2.42528
-0.664046
-10.3486
-26.9403
-20.6852
42.2353
96.9836
93.9018
51.7189
2.0059
-14.5909
-26.021
-34.7978
-26.3573
-23.9728
-15.8313
-4.28166
-4.2474
-4.52987
0.718463
6.83681
5.71909
4.67317
5.30003
-20.8219
-65.3969
-91.1469
-76.6413
-33.9006
4.93741
19.242
25.2803
27.8219
33.4951
35.0287
28.6306
29.4501
27.507
26.9388
32.0317
40.3215
34.3704
24.7134
13.761
1.64255
-19.5501
-39.6414
-44.4047
-34.2574
-12.1177
14.2457
30.2008
14.2871
15.5553
19.0347
11.314
-7.6107
-11.585
2.83069
-0.89354
-14.8874
-10.2958
-3.39341
-11.7415
-23.958
-29.6615
-28.0045
-20.5182
-15.9807
-15.9922
-17.2364
-14.9565
-4.58429
-4.06738
-5.95778
-4.30654
2.16618
8.24513
-0.172314
11.7609
32.3952
36.9233
30.1979
18.6481
14.283
17.3207
9.45004
-2.00297
-1.2368
0.269316
2.15679
4.96116
4.05877
0.690592
4.02321
10.7266
18.3082
14.3729
5.2932
-1.84851
-4.03823
-8.54266
-11.8543
-12.4988
-18.6282
-23.8388
-18.9759
-12.4838
-4.41963
-2.32475
-8.40597
-13.7672
-13.2968
-11.3009
-9.1182
-5.21411
-1.14991
1.99555
3.53849
0.665643
4.86364
11.0555
16.4964
11.1959
-3.43347
-6.97388
-3.64094
0.0348768
4.55198
8.51926
7.74634
2.19522
4.4259
10.045
6.88719
5.38329
18.0906
16.4521
9.29775
7.80124
9.25465
2.6738
-4.0071
-9.52636
-8.17504
-14.5469
-14.9614
-3.94323
-2.32124
-8.68759
-15.0139
-8.55646
-6.1681
-8.21582
-2.40116
2.60053
0.210107
6.93543
13.5465
17.1099
10.9329
8.35568
8.2528
6.44862
-16.0364
-28.7224
-6.11586
4.32429
2.70036
7.80945
5.58166
-9.60401
-20.1413
-16.9583
-6.32625
1.31598
-1.66568
-4.96467
2.40943
-0.705754
-7.30574
-8.36874
-8.83338
-0.591989
19.5032
31.4105
15.6707
2.81628
4.11196
6.56096
8.75765
15.4703
20.5473
18.312
8.71922
-2.82891
-9.25786
-10.2093
-11.4926
-14.4898
-9.3737
-5.65632
-3.07949
-0.601617
-1.62195
-12.251
-22.7989
-29.1705
-29.652
-15.2949
4.12532
29.7845
40.6363
34.9262
20.7234
6.48549
-5.31164
-10.6326
-6.34019
4.11607
11.4347
12.8219
13.3027
-13.9213
-32.4854
-22.6487
-13.1207
-17.3477
-16.4347
-11.1814
-8.14032
-9.91753
-9.75964
-4.919
3.6549
14.209
26.1762
30.0053
23.888
13.8147
3.27951
-5.28193
1.93462
24.0798
31.7071
23.192
17.297
16.5867
8.56024
-5.60857
-9.94951
-13.1859
-16.2684
-17.3601
-16.1633
-15.0739
-15.6802
-16.47
-18.0403
-12.5563
-6.70901
-9.09616
-19.1795
-18.8844
-5.80366
3.61981
0.231042
0.809444
10.5573
16.7703
11.9745
5.79746
3.15002
7.91162
9.09676
4.50133
-0.412997
-1.13528
0.181515
1.14824
3.45223
8.11129
12.3476
19.1927
17.3776
8.11386
-2.35621
-10.5339
-18.2459
-25.0347
-26.5065
-20.8622
-13.915
-6.39862
4.37228
14.1807
12.0372
11.7952
10.312
8.8438
12.3114
5.69123
1.70239
2.14658
0.592471
-3.83882
-7.43281
-9.36932
-6.7393
-3.62472
-3.61148
1.71989
12.6971
14.3983
12.1449
9.74048
5.65892
4.72999
0.996265
-7.66985
-10.0602
-12.9596
-16.7419
-19.112
-12.8899
0.405078
6.96869
5.32846
3.19567
2.48645
-0.505319
-4.81347
-12.1213
-14.3175
-13.6442
-9.32419
0.532862
5.33396
12.1803
15.8178
12.9159
9.84812
5.175
-0.294057
4.68028
14.634
23.8931
27.0045
13.344
-0.965869
-5.04054
-1.22793
3.48028
1.88422
-2.23889
-4.55002
-3.88878
-5.38773
-6.60098
-7.53807
-8.21201
-6.19117
-0.857309
1.4208
-4.2371
-10.7369
-17.3249
-19.3514
-16.4312
-8.63486
-3.71762
-5.87769
-11.7255
-9.74021
-4.99761
-1.90015
7.31181
21.6277
28.5025
28.9632
18.3689
2.56517
-6.76019
-11.9531
-10.7107
-11.7036
-13.2028
-7.47695
-3.74956
0.0999415
3.81425
0.67305
-0.281056
6.0246
18.3722
22.4037
16.3885
7.19396
-3.60257
-12.3149
-5.124
5.70501
5.15975
-0.526069
-1.11983
-2.36788
-1.51577
-4.21292
-4.17971
-0.671473
4.11107
5.31777
3.19811
1.40777
-4.97109
-9.07633
-8.89486
-4.98737
-3.70312
-2.58198
0.833014
3.92468
0.865508
2.06182
6.00016
4.12072
-3.18054
-7.07646
0.574643
9.71039
6.11713
-4.96153
-10.4935
-11.0818
-3.35136
-3.59329
-6.6375
-4.75578
6.05545
12.3024
8.50084
7.16654
6.68911
6.75721
3.86022
-0.866396
-4.06533
-4.38761
-6.00877
-7.52974
-6.37707
-1.01289
2.74984
-0.519115
-4.98552
-0.939746
-1.25684
1.27615
2.284
-4.32104
0.793361
13.3913
20.2786
19.4957
8.58837
2.14897
-2.58376
-5.88709
-9.63971
-12.5811
-10.6299
-3.83753
6.58645
8.91261
-1.72757
-7.26743
-4.11662
-2.69936
4.01622
5.63205
-2.83324
-11.747
-13.775
-13.4239
-9.75894
-8.1022
-2.08453
7.3158
14.2594
14.9528
12.966
5.95827
-4.80967
-3.48548
5.01867
7.93079
6.8678
7.24227
0.319298
-2.06354
1.17667
3.03284
-1.08837
-4.85659
-3.23247
1.88845
1.63676
-4.65356
-12.0939
-15.659
-17.9238
-16.5759
-8.67372
-3.33836
2.45831
7.39336
8.96706
8.16028
2.51612
2.17321
5.38588
11.5534
18.4002
13.6965
5.56684
-6.8297
-8.99385
-9.85298
-12.1564
-7.00994
4.46963
12.8837
17.8083
16.6854
9.82686
1.93178
-0.482603
-5.64725
-4.95288
-2.83579
-6.4348
-8.68377
-10.6536
-10.6054
-10.7673
-6.88975
-3.76982
1.13705
6.10856
1.79289
2.17092
3.19202
2.10917
-0.317128
6.31497
9.53116
4.47754
-0.0910965
1.65773
3.3983
6.61528
-1.69707
-12.2622
-7.2488
-6.00226
-4.03255
-1.67321
-3.26777
-4.91369
-7.257
-9.84379
-11.5131
-8.26574
-1.85103
4.685
16.5969
26.3302
24.8229
14.9137
5.62232
-1.09719
-2.42354
-3.33822
-5.54314
-6.80527
-7.31629
-3.9798
-1.53076
-3.89878
-1.13356
-0.0137413
2.38737
9.54759
11.178
6.47279
-3.03682
-6.15885
-4.797
1.1195
-0.122366
-2.79992
-1.35814
-3.79482
-5.37478
0.27862
-0.228985
-2.36301
-2.98311
-4.16795
-6.43721
-1.88679
0.406085
0.236158
-3.19062
-10.1659
-9.17356
-9.37404
-6.98997
-2.13224
6.564
7.45327
7.14038
10.9132
14.6525
10.685
9.91977
10.4397
6.79597
-3.5334
-14.3756
-19.0474
-15.0758
-8.72989
-2.74557
5.92959
9.29427
12.1194
13.5061
12.9282
14.236
10.8775
4.51859
1.40025
-5.92937
-9.04807
-7.48382
-2.8609
1.87763
5.54201
8.19146
5.00777
-0.296916
-8.33921
-11.1288
-14.2598
-12.4261
-9.76176
-9.08607
-8.06879
-7.63046
-3.44949
5.45083
13.6362
8.48783
2.88774
0.586992
-2.63678
-8.69223
-8.0095
-3.62197
-1.07986
0.100735
9.29473
10.9417
4.93555
-4.18295
-8.22305
-6.91391
3.65801
16.4481
15.0926
5.91871
-3.03208
-1.45388
-1.11838
-0.809842
0.280572
2.63244
1.56891
3.99197
4.46129
1.92057
-6.57102
-11.915
-6.57439
0.695233
6.33274
6.39141
2.67411
0.728078
-0.747766
7.96863
6.51725
-0.0509812
-3.91753
-7.36074
-8.62942
-12.3924
-15.0343
-8.47791
-0.216676
1.32515
-2.51731
-1.50515
-0.560617
4.38066
5.12214
2.17796
6.75384
10.2882
14.4571
4.79193
-4.53993
-0.789606
0.00599143
-4.48774
-4.02764
-1.90264
1.20805
-2.57872
-2.5379
-1.5634
-2.46355
-5.34774
-1.97733
3.73368
4.9044
5.39035
-1.18022
-9.57203
-12.0325
-5.38331
10.2308
18.5118
11.449
0.237107
-1.60862
2.90447
4.80473
-0.915981
-5.63843
-8.54369
-8.35842
-5.24395
-3.59467
-7.06866
-1.42475
5.05943
5.13482
5.80307
1.88785
1.6875
2.33101
-3.04827
-2.27563
4.19786
-5.55759
-12.3903
-9.38703
-4.01219
-3.05614
3.10769
10.7153
20.3668
30.6108
26.4732
9.52359
1.32989
1.06723
-0.477856
-3.63478
-5.23114
-10.5832
-13.1525
-13.6317
-9.33979
-7.79902
-6.50585
-6.23172
-4.15976
-2.62224
4.19521
9.16415
1.90139
-13.0631
-16.5952
-11.3335
-7.78666
-10.4148
-9.52647
-2.15745
1.77547
4.83437
3.85969
7.61841
8.55777
11.6088
14.1776
15.3559
16.2403
11.0352
6.09467
-0.861156
-3.82415
-3.10364
-3.2239
1.83411
7.54684
9.99515
9.19933
6.19475
1.82971
-0.764997
-5.3098
-8.40803
-11.1258
-10.0899
-8.19208
-5.79022
-4.80201
-2.33935
-3.1186
-2.72163
0.900419
4.79763
6.1393
2.37358
0.31394
-4.57171
-9.36777
-16.9907
-18.524
-10.0277
-1.81519
6.54687
10.3736
14.9585
26.9955
31.5888
15.161
-1.31229
-12.7111
-23.1969
-31.4216
-30.8364
-24.1542
-14.421
-0.660739
14.9666
21.7988
24.6553
26.1441
21.5336
13.7958
5.97592
-2.28484
-5.4206
-6.55271
-11.9537
-15.6868
-15.4991
-10.9481
-11.0199
-0.180824
12.3649
17.828
17.2824
11.8188
-1.56753
-2.23767
6.42541
9.26425
2.24239
-1.14425
2.17171
0.722621
-6.28442
-16.5172
-21.6004
-16.2332
-6.55913
-0.276931
6.63097
10.214
11.2837
13.7881
14.5245
2.48319
0.613648
-4.9978
-8.64203
-8.24218
-3.4875
-0.195101
0.277716
4.54594
4.49626
-6.63141
-8.06337
-4.52214
-5.20419
-6.97858
-7.67284
-5.0829
-2.04665
-0.503375
4.86715
5.89568
3.93673
10.7021
15.423
14.2778
7.54367
3.15149
-1.07979
-7.39495
-10.5747
-8.94522
-5.78521
-9.92308
-13.6775
-7.84153
-1.62376
-0.409295
3.94981
4.40278
2.21059
6.55636
10.0445
8.58907
1.42301
-5.01796
-5.62633
-4.70821
-1.96771
2.65606
6.59828
4.89654
-2.11895
2.48426
8.80243
11.7101
9.6139
9.94036
9.31013
8.79608
-0.688475
-9.04536
-3.8432
-0.555063
-3.67425
-9.23073
-11.9302
-10.85
-5.61872
0.445275
0.136591
-6.85342
-15.3499
-19.2876
-14.8756
-5.04182
4.58314
4.4761
-5.37159
-6.3136
1.26948
8.36347
9.75533
14.5604
20.4239
14.23
5.18927
1.31352
-0.522644
-2.51515
-6.09879
0.142736
9.26352
11.4834
7.23336
6.21539
1.63075
-1.81025
-1.01785
-5.63387
-9.45471
-9.99796
-10.7051
-13.0284
-10.4622
-6.34331
0.243748
8.06813
7.19089
2.97548
-2.39542
0.807545
12.7779
11.771
7.79962
2.03253
-3.77852
-9.23297
-13.2226
-15.8792
-11.6329
-5.40028
1.82241
13.3311
21.9735
19.0103
19.7713
14.6231
-4.88797
-15.5788
-13.093
-10.8835
-14.6354
-16.2919
-18.7587
-10.8322
-4.5363
-3.7369
4.02614
12.6711
19.6505
22.4919
14.8818
5.57144
-1.06773
-3.87548
-5.56297
-7.17391
-1.23211
-4.50104
-7.94294
-5.49848
-9.8422
-6.90883
4.83973
10.2693
20.8723
32.4504
19.1899
5.55911
-3.4508
-8.00377
-7.63745
-9.69951
-9.11431
-8.38253
-4.28375
3.44957
-0.801061
-1.34289
-1.83137
-5.51428
-5.34307
-3.39638
-3.63171
-6.90827
-16.0214
-17.6917
-7.60786
1.59228
8.00746
12.9429
9.15683
7.91078
7.56985
7.80219
4.26435
1.67326
10.4706
12.3289
-1.26908
-11.2405
-15.6351
-14.2816
-13.1446
-9.65368
-2.26831
3.20611
19.3003
35.5913
32.7393
14.5928
3.58496
-4.48853
-10.101
-11.2276
-10.8709
-7.85737
-5.67397
-5.7872
-4.94338
-4.30494
-4.635
-5.55847
-8.40869
-8.21127
-10.8196
-9.31683
-6.70829
-12.423
-13.3876
-4.44806
4.07588
11.8007
14.3759
18.9965
14.7723
8.09615
6.69102
8.84178
13.9735
13.305
11.9632
7.69449
4.10782
-2.12488
-4.84265
-5.85641
-8.10146
-9.3521
-8.17519
-3.77612
3.32021
4.37533
2.92032
3.92213
3.17648
-5.26436
-14.1939
-12.1781
-9.44512
-3.07375
2.88947
0.0172796
-6.92377
-11.9946
-8.86542
-9.36485
-8.88656
-4.42343
0.846189
3.08295
3.16973
2.64571
3.39395
3.31649
4.33254
14.1672
20.1818
19.0422
14.6924
5.90749
2.82528
1.24595
-1.71126
-1.32585
-3.64634
-5.97993
-3.24842
-2.20484
-1.53312
-0.338428
-1.33167
-2.90634
-3.94225
-2.90192
-0.532566
-8.8571
-14.7294
-15.2102
-11.936
-2.1733
3.17161
1.1567
11.5214
24.4999
28.4123
24.9871
7.6935
-14.5641
-17.4099
-7.0347
5.80922
9.62255
2.18441
-6.60411
-14.0731
-13.567
-10.9496
-7.82479
-1.23223
-2.52713
-5.69929
-4.1516
-6.04031
-15.7403
-20.8928
-17.5848
-6.21101
9.10536
15.4539
13.7289
11.5736
17.3775
23.1083
20.917
18.3255
15.4791
11.6864
11.4638
11.8718
6.00557
1.13093
-2.83865
-13.3305
-21.7303
-20.7268
-19.9183
-18.3326
-8.84636
-3.60719
-2.31056
1.20033
-1.38331
1.95114
1.66253
3.87039
5.94269
3.66862
-0.566914
-2.56997
-6.20052
-9.81211
-7.37958
-1.81811
5.50653
6.16957
2.32176
1.4226
5.80866
10.1337
5.90726
-2.97347
-6.20317
-3.77972
4.73752
12.6567
13.8592
4.68135
-4.34749
-11.05
-12.4339
-10.9071
-8.26255
-3.33273
7.74136
15.6231
8.518
4.05641
3.23151
4.845
8.74351
5.66778
2.15658
-3.09562
-11.6204
-17.6281
-10.0239
-0.292863
-1.18679
-4.19179
-5.11128
0.357924
6.47154
6.04937
1.25487
1.18657
4.25675
7.54989
-0.710401
-7.98086
-7.54471
-1.94752
-2.22988
-2.30859
1.855
-0.408765
-3.53626
-1.29424
0.317412
1.41184
6.98337
4.52155
-2.35062
-5.17372
-9.97127
-10.7921
-2.2824
3.77655
5.36047
7.10284
2.2696
-3.37541
-1.00155
4.95035
7.16724
6.70846
2.81727
4.21198
9.8184
10.4437
5.16889
-2.12484
-2.95641
-5.95429
-12.6179
-11.4137
-4.95823
-3.53434
-1.4368
1.81032
7.23997
-1.7799
-12.4832
-6.38187
6.50382
13.2554
17.0254
19.2457
22.5694
20.4921
11.4772
-1.731
-14.4881
-19.5443
-19.8566
-20.945
-22.3338
-22.8462
-14.3927
-10.1653
-10.5428
-2.41856
11.7231
13.4106
10.7022
6.80993
7.23784
2.31325
-8.31257
-13.8126
-11.3328
-2.75635
7.76282
10.7224
10.856
9.8558
8.92253
7.22139
6.70216
4.50776
6.20014
10.3211
12.4422
10.5334
5.95486
3.89238
-1.32479
-4.25542
-7.92592
-5.29641
-5.15464
-10.7429
-13.1981
-12.5039
-10.4794
-7.61376
-6.75098
0.947776
9.44774
8.89721
8.81553
11.4251
6.58338
-1.34632
-3.48903
-6.52529
-7.47449
-4.4735
-3.89743
-4.12627
-4.02574
-3.67561
-0.697248
-0.224335
0.193523
1.37212
7.05982
11.2568
11.6558
7.76811
2.01443
-3.01576
-3.9721
3.57325
1.56707
-7.51519
-13.3403
-12.4468
-12.748
-8.81798
-5.49791
0.533874
9.63708
11.988
9.61093
3.35147
-1.03753
-6.33751
-9.40068
-11.5072
-8.65031
-1.75865
2.52937
4.00582
8.40934
15.2548
18.2895
16.8222
14.7593
5.77067
1.65146
-2.26491
-11.5142
-12.2288
-3.05175
9.69239
9.22122
-7.45467
-10.1543
-4.12706
-8.15428
-9.58423
-7.48629
-8.82013
-2.48167
5.32998
8.69842
9.64787
2.32349
-1.0871
0.779972
1.13824
1.2739
-3.6558
-6.72019
-6.65969
-2.83096
-0.784928
-1.6706
0.469446
6.94368
6.05381
3.53933
6.60537
5.79424
1.58687
-3.81667
-3.93576
3.57829
8.31871
5.93958
4.62241
5.67298
4.08585
-0.846225
-10.1584
-15.207
-10.4611
-8.39544
-11.443
-6.17989
1.0771
3.49149
0.879736
-0.0126005
0.307427
3.87047
2.81694
-5.33633
-4.58858
-1.99175
0.0712701
2.48027
0.883638
-0.82052
-2.46371
2.60446
7.73591
6.00882
2.23727
2.23212
4.72491
10.3213
11.833
10.4267
11.9638
7.89953
7.61439
10.5807
-0.109218
-13.5449
-14.8331
-17.6604
-14.689
-3.86603
0.0901154
-4.86894
-6.44271
-2.35361
-1.2674
-7.13698
-8.22953
-5.99972
-3.27231
-3.60967
-2.65503
-3.30659
-6.56707
-3.93209
0.892175
8.52548
7.71487
6.19593
3.46075
-3.17887
-1.3387
5.24947
3.9541
3.19498
9.36293
15.6101
14.0506
9.72604
8.6432
11.3327
15.4303
11.8859
3.33961
-3.99026
-7.61538
-12.611
-16.5111
-16.8885
-13.9705
-16.2917
-16.9329
-12.1947
-7.32913
-3.42539
0.457157
1.65282
-1.45097
-3.91609
0.790499
8.36556
6.72345
0.65426
2.65142
8.26259
8.53395
8.44479
11.3281
11.8405
13.9068
12.6724
5.93235
2.40829
-2.88052
-5.7521
-10.0786
-10.1467
-4.86598
-4.49669
-9.84515
-11.2452
-5.75929
2.37873
1.95762
-0.883839
0.565605
3.9614
1.06276
-4.21791
-5.81669
-6.44211
-7.9497
-0.89446
8.98863
9.46023
9.28094
6.97648
1.71454
2.14426
3.04903
3.36437
-0.849243
-6.18121
-3.71741
-2.72379
-5.20141
-1.63196
0.038323
0.339043
-1.10839
-1.16892
0.525569
2.46299
2.78876
-0.449161
1.49318
3.48356
-4.44234
-7.82349
-7.08223
-6.02684
3.39001
11.2308
12.5441
15.8538
12.8003
3.9506
-3.35535
-4.27134
-1.68065
-4.27305
-10.9533
-14.9617
-14.3757
-13.0986
-12.1422
-10.5268
0.511652
16.3303
17.8985
13.8301
4.53031
1.27894
-0.198499
-3.66454
-3.30873
-3.66618
-1.99388
0.129566
-2.47135
-4.75967
-5.0128
-4.65571
-3.04332
-0.652125
2.1334
3.37789
9.22283
12.8055
10.4814
7.55551
6.79935
6.65721
6.05061
1.84373
-1.26345
-6.71509
-6.81759
-1.68127
-3.17548
-2.4479
-0.27911
-3.00893
-3.1001
0.219521
3.9566
6.87566
5.73099
1.88927
-1.092
-4.13956
-7.02424
-16.1042
-14.7385
-7.20262
-4.94858
-0.591178
-4.88327
-7.26041
-2.41984
4.51418
5.04558
-1.18437
-1.69492
3.30466
5.94056
11.7048
15.8427
9.53933
4.76911
7.8075
9.25097
8.6348
3.33166
1.7203
-0.637184
-1.73434
-5.20248
-9.19884
-15.6901
-21.6867
-17.0102
-6.19728
0.733672
5.46583
5.95612
5.18712
6.04346
4.62034
-3.15961
-8.11984
-5.91888
3.41626
2.2045
-2.69388
0.0902526
4.55983
7.3937
7.27441
6.77301
7.62478
3.54386
2.11199
-4.83742
-12.5411
-8.73745
-3.15521
-5.68906
-4.43522
2.571
4.79229
0.394329
-2.41291
0.126376
6.07252
8.97161
13.6679
11.8032
4.76551
6.09808
6.31816
3.25693
-8.37876
-13.521
-7.40051
-7.1852
-13.3179
-15.0259
-8.66056
2.75322
3.73524
-0.678173
3.0353
10.2744
11.9772
0.811618
-11.6943
-11.9646
-4.78568
-2.84602
-5.29611
-7.18809
3.73096
15.9485
12.6381
4.00371
-2.75783
-2.10423
-4.69226
-5.96328
-1.32084
3.7239
5.43513
7.2329
13.8173
15.713
7.7019
2.50069
-2.17276
-8.64983
-8.52132
-8.84481
-11.834
-12.2345
-7.51873
2.82239
11.3436
8.23566
9.75782
10.9181
10.8479
9.85594
2.49617
-7.86882
-12.1967
-10.523
-4.07676
-5.4508
-7.82954
-13.1155
-13.365
-10.1272
-6.3053
0.185202
2.35314
2.32974
8.20006
19.2088
18.1101
3.9831
-2.44956
2.37741
7.84212
5.96922
-4.80869
-7.74687
-5.22485
-4.90232
-0.315053
4.3735
4.71399
4.54283
4.81278
1.2291
-3.89931
-8.07881
-9.67221
-10.1834
-7.40836
-2.55347
-0.669825
-1.68071
0.370137
0.262059
0.369902
2.26026
6.84665
7.99839
-3.05577
-6.81133
-2.13807
2.98562
2.36255
6.92316
14.5984
10.6889
-4.038
-7.05134
-3.65275
2.19568
5.20529
6.08865
3.8126
1.98505
5.43923
4.78645
1.38289
0.410995
-2.17086
-3.21847
-8.8859
-12.3193
-10.6959
-13.0715
-8.8744
3.59145
11.7744
5.88902
4.83676
4.5793
1.56097
-0.675462
-0.619595
-0.675808
-4.06849
-4.54347
-7.09151
-4.27156
0.349598
4.24673
6.56777
4.37604
-1.53367
-4.63685
-11.3482
-15.8569
-7.04632
-2.08953
1.66089
3.56686
7.38418
11.3778
10.2642
6.56517
7.04455
6.13956
3.50198
4.73969
1.90317
3.8508
3.91781
-4.6638
-5.38153
-3.23793
-5.02409
-5.2028
-5.89728
-2.76779
0.280925
1.4465
0.454932
-3.54713
-6.0069
-5.60048
-4.07621
-1.8622
-3.38252
-0.723118
4.57088
3.91617
6.66711
8.2015
4.68701
6.15706
6.71908
3.3153
7.24121
11.6427
13.5158
-2.87245
-16.5143
-18.3793
-13.7872
-2.63882
-0.873352
-1.38306
-0.102582
-2.60853
-5.00737
-6.32363
-8.40982
-6.71655
-4.99158
-3.29354
1.59352
2.59404
0.132479
-4.45196
-10.9085
2.32072
11.513
14.1098
13.6948
10.3929
11.8333
17.0623
14.5449
7.71197
1.61782
-1.19058
-1.65322
-5.43713
-8.72806
-13.8833
-15.7774
-11.1819
-8.18081
0.16639
9.09885
7.17559
4.61644
7.46598
7.95348
7.57444
7.377
2.33215
-3.21876
-10.3883
-13.2246
-16.9864
-14.4684
-6.99601
-3.16384
-2.77733
-2.22449
0.886277
-0.198963
-4.80393
-6.50287
-2.81681
4.27175
10.7214
14.6418
15.7121
5.72345
-6.95498
-8.31784
-1.98527
3.38328
6.93615
10.6375
16.5652
20.1917
15.3442
0.928193
-10.8259
-11.8482
-12.1223
-6.90983
-6.49776
-5.18909
-6.59889
-5.60229
-3.84072
-0.0191857
4.93148
3.75074
4.24131
3.32521
1.49575
-3.29489
-7.28636
-10.4381
-14.3767
-8.672
-9.87849
-8.16181
-2.88012
0.417213
10.376
16.7415
18.5679
13.0415
1.24054
-7.46661
-2.88833
4.56143
5.25856
2.1927
-2.38379
-6.02205
-7.93522
-6.87328
-1.38148
6.7368
12.7824
9.62453
2.91176
-0.871015
0.804439
1.10051
-1.18631
4.74804
13.2833
14.7251
9.57768
-3.81819
-7.16978
-6.04405
-7.70156
-6.99041
-7.97693
-10.7998
-8.06251
-5.00297
-5.149
-0.849528
2.06583
0.596658
2.82703
3.27694
1.67005
-2.85072
-1.65812
-1.61966
5.00584
11.4743
3.45757
-4.75372
-4.3831
-3.18944
-5.58139
-9.34741
-11.2602
-14.9778
-13.8061
-6.86311
0.310618
4.77311
4.70216
4.88372
6.03666
8.56585
7.73349
7.94528
9.61361
12.0854
16.4794
22.5565
21.0129
9.40167
-0.942617
-6.55505
-7.83165
-3.66708
-2.67872
-3.06496
-1.90353
-0.62045
-2.63124
-8.35147
-10.4292
-8.25987
-5.80323
-1.65009
3.36588
2.06586
-7.47015
-10.4143
-15.2359
-21.6937
-16.4036
-6.73635
-2.84284
2.73062
7.45171
7.20111
6.07927
6.06146
2.67837
5.43339
8.81484
9.89823
5.23708
-3.79971
-9.42142
-7.42494
-2.03525
-0.400707
6.0017
14.3293
15.9658
11.2901
8.32892
4.17446
0.260065
-1.62975
-6.13212
-4.70641
3.05075
4.70282
-0.313462
0.328942
1.41507
0.251012
-2.35721
-4.12798
-2.76408
-3.47259
-7.9485
-7.24961
-5.5447
-4.86678
-4.87406
-2.02837
5.0071
8.6383
10.5202
8.58078
4.14138
-0.91145
-3.61126
-2.9261
2.42725
4.80277
0.910085
0.410072
-2.71763
-4.94436
-6.40605
-11.306
-14.0186
-14.9873
-13.7847
-11.0804
-8.24419
-7.02797
-0.339151
5.53786
11.3188
12.5399
13.8467
15.0447
13.5451
10.2475
10.7801
10.475
5.45746
3.2744
-1.00764
-3.1626
-3.75839
-0.00262607
-0.134645
-2.04811
-2.58007
-5.41915
-7.13735
-6.3225
-5.46211
-2.95483
4.59012
8.44013
2.98183
-2.64947
-8.02723
-10.3888
-5.61463
0.390486
1.12262
-0.0749514
0.787643
-3.56251
-8.62311
-3.14741
7.40114
8.36899
2.83785
1.47379
-0.301053
-0.598255
0.1162
-2.61726
1.52987
3.45937
2.13424
1.97594
-1.48963
-3.65883
-2.34623
1.22474
4.43533
6.35318
9.68431
9.5803
-0.236673
-2.03709
-0.0167112
-4.57125
-2.58248
2.01232
0.67727
-4.53928
-7.90362
-6.50171
-4.41552
-3.60351
-2.02855
-3.28935
-2.24551
1.10796
7.41642
9.52423
1.28151
-6.8121
-6.89305
-5.65442
-7.64138
-6.67825
-1.2924
2.64691
1.29302
1.40784
6.58188
12.3116
13.0635
11.9841
8.83775
7.69697
2.1737
-2.68927
-5.16989
-5.0675
-8.12244
-13.0306
-8.15289
-3.5315
-0.157615
-0.269509
1.39331
3.31044
5.25251
3.78315
1.73667
2.68315
0.640254
2.43814
2.57216
-1.703
-2.92481
-5.28375
-6.57976
-7.84931
-4.05772
-0.361796
1.41521
2.615
4.97251
7.09976
6.43454
3.08199
-0.244834
-1.71555
0.598309
1.1935
2.22171
2.63019
1.75241
4.94317
4.87255
-5.58164
-18.1754
-25.5426
-22.2226
-16.6946
-8.24822
0.896485
9.14633
12.1652
12.2652
21.7701
23.7198
17.0662
7.41194
2.82744
-0.579428
0.262898
2.22529
0.687993
0.152355
3.55397
0.327855
-5.50594
-7.79343
-8.35318
-8.49676
-14.8288
-16.6065
-11.8395
-9.43987
-11.1216
-9.58554
1.44928
9.15481
11.666
17.8367
21.8459
11.7526
-1.47233
-6.95842
-8.52164
-7.30259
1.46857
5.73024
6.67845
5.30873
2.43863
2.80813
2.83398
1.78221
2.50309
5.95733
6.05165
0.570477
-9.11623
-17.6679
-17.4445
-9.62092
-3.67753
-2.58546
1.77076
8.0235
12.6401
10.8815
5.7174
1.00988
-1.47903
-2.32933
-2.83949
-6.33754
-5.84233
-1.04077
7.96421
9.33812
8.72652
6.74925
-2.61042
-8.12677
-6.6035
-2.89659
-2.03686
-8.0132
-9.93915
-7.33147
-6.69973
-8.1719
-6.78626
-2.69118
5.44428
15.7346
17.7226
7.39734
-3.99589
-2.28434
4.80183
4.37294
1.38224
-3.13496
-5.09133
-8.4376
-4.2609
3.07204
6.31469
7.40167
10.1925
8.96031
9.94346
8.16399
0.492248
-9.00941
-10.0978
-7.08238
-8.82419
-7.84531
-0.975863
5.3068
5.85971
1.69568
-1.28384
-0.0177865
-4.17141
-9.19152
-6.23553
-2.99854
-4.64394
-3.67495
0.648011
2.85863
9.22462
12.1756
4.41127
-2.68514
-1.5215
2.63094
2.77503
-2.23107
-1.35637
6.65003
8.22916
-0.357879
-7.83081
-7.50427
-3.58171
-0.750635
-1.26765
1.74213
3.63094
5.43859
-0.314158
-4.20904
-4.95715
0.555682
2.53755
1.2052
0.187227
-3.00841
-0.900148
2.16363
-0.877333
0.376452
3.58909
2.15802
-5.55854
-11.2142
-11.7801
-6.36814
-5.41197
-4.15405
2.17871
1.70417
4.89948
8.68702
12.5775
18.648
17.4763
10.5922
5.13577
1.72819
0.676957
1.22747
0.321453
-6.42597
-12.5307
-12.0307
-9.53364
-9.87949
-10.3888
-9.2568
-6.20502
-2.00577
1.091
1.63357
1.26137
3.57443
1.80359
-1.75649
-3.80292
1.04916
2.85251
5.77095
10.0314
15.6596
16.8205
9.07803
-1.73997
-4.13009
-4.00525
-8.72426
-9.78072
-10.706
-7.31806
-2.02492
1.77733
4.33996
4.25477
3.19883
2.35668
4.14006
8.33857
9.72442
4.16345
3.25667
0.564241
-0.723853
-0.195615
-5.85609
-8.72214
-10.3074
-10.8664
-4.91158
-3.93433
-4.6654
-3.17887
-1.90712
3.24731
8.19546
4.47376
0.897328
-5.62211
-7.10714
-6.7104
-9.09626
-4.11291
3.06983
7.18127
10.5836
14.8616
15.2602
10.4804
7.36057
7.91874
4.27889
0.465333
-8.14628
-11.2025
-16.0047
-15.0163
-10.9305
-5.76209
-0.957759
2.50613
3.22097
1.23299
-0.791821
-0.243692
-0.448225
0.510624
7.09031
12.8693
14.3865
10.4041
3.73628
-1.89152
-4.83666
-4.96689
3.34131
10.1716
13.0359
9.68281
-1.78697
-8.97653
-12.0041
-11.999
-13.1626
-14.1204
-10.6907
-5.28431
-4.56603
-5.33268
-3.71547
-1.37982
-1.12832
1.01716
4.30399
8.94672
11.6968
12.1157
10.0492
6.37854
5.8967
4.24762
-2.20008
-10.6111
-12.3734
-9.49927
-7.71929
-5.89184
-3.27009
0.574602
-0.707281
4.49718
11.2236
15.195
16.1467
11.6292
8.54667
3.26276
-4.01678
-7.25789
-10.0149
-8.13008
-4.85295
-0.826381
-0.636839
-4.64651
-8.71515
-4.33429
-1.91166
2.33837
7.52116
8.04109
-1.98638
-11.0405
-9.80426
-4.15682
2.48189
3.63957
1.05721
1.8632
4.0525
2.91931
3.70887
6.51824
3.91416
6.81305
6.60177
-5.52139
-13.3452
-16.0731
-10.2043
-2.96981
7.20239
13.7447
16.536
18.1498
13.8223
4.86473
-0.961765
-6.80397
-8.17932
-7.26868
-8.93615
-9.71001
-6.50834
-8.97631
-10.0938
-4.44233
-1.12566
2.07906
0.105683
-1.9134
1.90647
3.65754
1.45571
-5.68445
-8.25338
-3.44958
5.19209
10.1084
12.1687
17.0055
16.7198
6.37131
-2.74097
-6.36532
-6.06867
-7.22221
-5.95269
-8.81724
-6.83509
-3.3226
4.28526
10.0298
10.8277
5.74437
1.09529
0.276411
1.23068
4.09886
2.29999
-3.34188
-6.27632
-3.10472
-0.951785
0.38342
-3.81956
-8.15604
-8.16476
-6.85752
-4.69685
-3.6903
-3.47394
-4.5699
-2.33456
1.20037
10.2831
9.36132
6.67114
5.37709
5.05598
5.3634
1.12881
-2.60906
0.766532
1.30973
2.36563
1.22292
-1.32761
-0.5699
2.33927
2.38874
2.94971
3.77927
-5.10136
-4.35118
-1.29388
-0.975081
-0.869988
-4.18015
-10.343
-7.32488
3.3059
1.98565
-3.14066
-6.36629
-6.43146
-6.77322
-5.57477
-6.62523
-5.76307
-2.78963
-0.991063
1.58718
13.5193
22.6821
23.5437
17.0083
8.26871
2.61626
-2.29266
-4.76279
-8.6947
-4.31776
-1.19133
1.7196
0.197999
0.705159
0.0649975
-2.12732
-2.76075
-4.75265
-9.94005
-11.1364
-8.69078
-4.71274
0.08404
4.31924
11.1537
18.3858
22.8245
15.1306
0.516713
-3.93899
-3.79662
-7.94526
-13.0172
-13.4007
-11.3591
-6.93041
-9.29701
-5.34806
2.60788
7.00405
7.07126
4.20035
2.78796
4.04555
2.88583
0.163079
-5.88087
-12.0741
-9.71195
-7.4271
-6.89413
-5.85152
-0.382176
5.27063
4.96036
5.58207
6.76321
11.4707
12.4362
9.93985
11.7446
3.95668
-2.42212
-2.55469
-9.93461
-14.2531
-11.2478
-4.27547
7.38834
14.0403
15.1906
10.8446
6.27799
0.152387
-4.19715
-7.0754
-4.67319
-5.41424
-6.53803
-4.53817
-7.89904
-4.76192
3.35687
2.0107
-0.671069
1.64548
3.04837
-1.16834
-6.40237
-10.2959
-10.5114
-4.08665
3.13718
3.0834
4.70842
1.61384
2.10315
1.68006
-0.139974
-0.3122
3.90298
6.67148
6.62376
6.28732
4.09799
6.4899
8.45606
9.11688
4.6947
2.82006
3.52659
-0.679605
-7.91455
-9.32742
-3.46074
-1.27507
-3.32187
-5.60157
-5.41596
-6.8355
-8.37274
-9.01259
-8.12551
-7.02282
-1.69945
0.411112
-2.18715
0.438959
2.3104
-4.59948
-6.25093
-5.03765
-5.18838
-2.08249
5.49473
8.21463
10.7579
12.146
14.2309
14.9121
7.97067
3.67153
5.44671
7.83274
6.31343
1.40174
-0.596988
-1.36732
-2.10307
-7.67443
-7.09752
0.0196108
-1.2213
-7.14097
-12.494
-9.69558
-5.6545
-5.8926
-8.9117
-5.34869
-0.0206103
2.89653
2.38422
1.24967
3.8575
7.14107
6.53838
0.892868
-0.40952
2.90181
2.52648
-4.37682
-3.72468
6.84657
6.97818
0.911199
-4.00998
-0.480759
6.0048
4.2033
-0.592137
-3.81368
-0.861744
3.56634
5.3965
3.69587
2.15837
5.69031
10.6755
3.9611
-9.35964
-13.9433
-13.9586
-13.2788
-9.62805
-5.78231
-1.99616
-0.0949381
-2.00374
-2.21728
-2.07037
-0.0259187
-2.53978
-2.1744
-0.689953
2.29206
6.08828
8.52727
9.04197
8.18396
5.59373
1.97504
-0.479205
-0.363972
-0.987829
-0.421211
0.092581
2.17277
4.33194
8.00264
9.92846
10.4785
9.15847
6.57776
2.42137
-2.57434
-7.01027
-14.8479
-18.6468
-13.6703
-9.59323
-6.29723
-2.85946
-6.85816
-3.24659
0.347297
0.451069
2.31818
4.42257
2.45104
2.78134
3.79716
4.36892
6.21364
3.84786
2.88057
7.77791
8.04147
0.234054
-3.4874
-5.86623
-7.97608
-8.07961
-7.58979
-7.48374
-5.93547
-3.46092
-1.29497
2.19225
5.52575
9.33622
10.7141
12.7554
15.8228
18.4259
13.0421
1.73256
-7.9555
-10.2058
-8.12434
-4.88284
-1.05775
-1.17949
-3.11601
-3.68409
-4.10917
-6.84229
-8.44708
-9.13767
-8.28756
-7.21066
-2.71996
0.52857
-3.77386
-7.88637
-4.9982
-0.014884
1.17905
7.95296
7.36558
6.7739
4.54939
2.17479
3.11203
4.55027
5.38847
4.10617
7.17672
7.99655
7.19673
2.03821
-2.45892
-3.77471
-3.68572
-5.91048
-5.41301
-0.646977
3.39665
2.59158
1.03152
3.13263
8.31892
9.43681
0.336428
-5.22094
-9.67673
-11.4221
-9.53809
-7.73241
-1.95023
1.23559
0.0373113
0.896784
3.88452
7.25436
8.97265
3.69217
-0.239402
-4.66345
-7.4733
-8.97445
-8.62013
-7.79334
-8.26167
-4.58251
4.94587
12.0317
8.80075
2.11127
-0.751935
-0.0554746
1.3436
-0.144635
-1.00273
-0.553532
1.56751
0.583862
0.0483869
2.30192
6.25833
8.60343
2.31449
0.448039
1.63707
0.686865
1.62542
1.29372
3.38238
6.91131
-3.5822
-9.67358
-5.85227
1.10116
7.2339
9.09792
4.64898
3.56627
-3.4179
-8.17038
-9.45692
-11.5563
-6.63477
-6.27714
-5.66451
-7.31739
-7.85578
-7.53841
-4.95703
-0.15042
8.309
14.5409
12.2679
6.83831
4.49951
3.51773
0.210184
0.458148
3.86824
5.86827
5.11656
-0.734236
-8.79635
-12.8586
-9.00124
-1.6711
1.81482
3.32954
3.41575
2.52301
10.8089
13.1653
9.67611
4.05391
1.39426
-2.42344
-5.95827
-7.4224
-7.37382
-7.09234
-10.7062
-8.44186
-2.339
0.242757
-3.7596
-11.0359
-10.1347
-2.92844
5.6172
6.33063
0.939806
-1.63068
-3.75652
1.13129
9.57741
12.4562
15.44
14.1059
5.78621
-2.62989
-0.771848
-3.61849
-2.05141
4.8112
4.10741
4.89344
6.56569
-1.14275
-9.72217
-9.30019
-7.74648
-2.22044
2.34644
-0.568502
-3.38505
-3.48712
-5.01436
-4.90516
0.408409
4.7692
7.36569
8.56088
3.77537
-1.4644
-3.40897
-7.91401
-12.1469
-14.1982
-10.4627
-3.82643
6.00339
10.7792
10.1844
8.42844
1.86899
3.12378
5.39642
3.26068
0.742837
-0.249473
-5.06293
-2.28645
-1.14581
-1.97515
-4.86364
-3.18656
1.45284
3.68197
3.32182
0.418929
-0.731789
-0.637037
1.91795
4.30019
4.74644
3.83132
1.21263
-1.5777
-2.6705
-6.6309
-8.12104
-9.43937
-9.66262
-4.15824
3.22547
-0.0429162
0.428644
4.18808
8.24565
15.4506
6.21995
-6.89015
-10.2717
-6.05955
2.18068
6.85761
7.18339
6.16713
8.34885
9.18115
1.63065
-4.52286
-6.07129
-7.68408
-9.18463
-7.18158
-5.36296
-2.91916
-1.81583
-4.09904
-2.73523
3.45318
9.99703
12.2095
8.85324
5.19126
-0.939732
-1.79934
0.0936341
0.42421
3.75925
1.49594
-3.56046
-8.5072
-8.11151
-3.308
-3.19405
-4.55074
-1.86438
1.73096
2.4303
8.4849
8.67559
2.42773
-0.393111
-3.20655
-1.7384
-0.76979
-2.6429
-4.64007
-4.9257
-3.19734
-1.02509
-2.76204
-2.8823
-2.70261
0.961571
1.82032
-2.51027
-6.72328
-5.62386
-2.62383
-0.136481
1.87758
7.53789
9.5152
8.85543
12.1338
12.8363
7.59274
5.99688
1.97219
4.71217
8.45776
6.01189
0.335269
-5.5365
-10.3377
-15.6985
-16.0897
-12.2141
-4.83374
-2.89304
-1.40591
-0.298431
0.494665
-0.601068
-3.68805
-2.96935
1.0887
-1.04377
-2.24392
-0.265972
2.90426
3.3951
1.24221
1.54959
5.10743
4.04493
5.66139
10.5493
12.3224
10.1693
0.546319
-8.56434
-5.27852
1.18416
3.61626
-0.097495
-1.97027
-3.31449
-5.02523
-11.7381
-12.2901
-11.8688
-9.08957
-4.82798
-3.05444
-1.36913
5.08315
8.57114
10.6323
11.5426
9.91303
11.5145
10.9876
4.08117
-4.23415
-4.78143
-8.25766
-6.87879
-3.93819
-0.116604
-0.848657
-1.29683
-2.33415
-4.49458
-3.14677
0.480858
2.94908
1.20543
-4.05292
-0.671585
2.54614
2.9875
4.79606
4.9145
3.85886
6.13248
3.89238
2.01064
3.72054
0.322676
-4.64781
-2.98494
0.548818
-1.44392
-2.91263
-3.11365
-6.52474
-12.6277
-11.8754
-7.32217
-2.90548
-1.26995
-1.56243
1.80719
4.95692
4.47362
3.21359
8.84714
8.85782
5.05718
1.36816
-0.392857
-0.757413
-1.79682
-3.20587
-3.11301
0.449036
2.01354
0.502894
-1.32923
5.72882
10.0498
4.02774
2.88406
0.129328
-3.53722
-2.66615
-3.71522
-5.1393
-5.87172
-3.60533
-4.35382
-5.39233
-2.42908
2.22116
0.345414
-3.30215
-2.14933
2.97034
3.04877
-1.8802
-2.46004
4.81927
7.86359
5.39047
2.62496
0.636166
-4.79386
-6.41729
-5.34629
-7.39287
-3.15197
2.59914
7.3537
6.20137
1.96641
0.020892
2.17858
5.28772
6.34602
10.0001
11.7992
6.42904
-0.17937
-1.50022
-0.858931
-0.59951
-1.4446
-2.98228
0.014206
2.55208
-4.39646
-9.04629
-11.8161
-8.99593
-5.83187
1.48392
5.37277
0.974268
-4.59445
-9.73795
-12.5585
-9.46259
-2.53193
1.65614
6.20796
9.0498
12.9621
12.346
5.39186
1.14051
-3.50428
-7.27635
-10.986
-8.61322
-4.70983
-4.87804
-0.344342
2.97486
5.27075
2.63561
2.5925
12.4308
15.8912
12.3101
8.24105
5.65621
1.71016
-2.11193
-8.06239
-10.9268
-9.0336
-6.47801
-4.41261
-1.13927
0.291069
2.8488
3.52216
1.23469
2.81846
1.9538
0.306433
-0.952447
0.574017
-0.235784
-0.924829
-2.30714
-7.31588
-8.65384
-6.57654
-3.93114
-3.48278
-2.85351
-3.73795
-3.89416
-4.31925
-4.02106
-2.38398
4.16969
11.1281
14.5853
15.3918
10.1873
5.31125
5.81289
2.46453
1.63129
2.49954
1.96252
-3.5878
-5.58209
-0.971718
-1.23832
-3.92113
-3.94149
-2.16546
-3.37625
-1.58138
1.29217
3.86941
2.78338
2.55973
0.444713
1.26875
-0.922341
0.723923
-1.72752
-5.11884
-8.07438
-8.86204
-6.45501
-6.09905
-7.07444
-8.80447
-7.57367
0.530462
2.92561
0.555016
2.52824
3.19393
5.39421
8.45559
6.95077
4.90871
3.42699
1.57842
4.49397
3.02164
4.41254
10.8494
9.53586
3.87367
0.524949
-2.72487
0.829035
0.501229
-3.22947
-3.26989
-4.92237
-9.15053
-4.1549
-0.654951
3.25645
-0.185125
-2.5987
0.733635
6.03238
4.0836
1.46619
-2.27407
-4.88992
-4.11792
-7.64558
-5.59791
-5.63919
-7.02283
-6.70299
-4.39022
-6.56051
-4.97883
-3.38548
-4.28026
-4.26244
1.325
11.1043
14.0179
8.007
5.36636
7.55619
5.42837
5.42
1.88694
0.297768
-2.34605
-3.87183
-1.25839
2.32654
1.41921
4.09723
11.4058
11.4425
5.71393
0.526199
0.897938
-1.6111
-4.2571
-1.1029
0.80276
-3.16897
-6.71771
-8.90851
-6.73544
-6.64746
-3.82643
-4.23361
-4.28257
-3.23718
-1.49886
-1.02303
-0.585907
3.89047
4.21961
0.106649
-1.80211
-1.28586
-4.88206
-5.22629
-5.77577
-0.651306
3.86945
4.42476
6.36579
8.25218
9.10879
3.4444
-0.51622
2.62458
10.2697
7.28222
-2.66391
-3.5465
-1.58656
-0.305237
-0.381746
1.89808
-0.953665
-3.78129
-3.94606
-3.12113
1.59135
0.412098
-3.80971
-7.31644
-10.0678
-8.79321
-7.2874
-9.7293
-8.0165
0.52477
6.5665
10.5351
11.9933
13.2394
12.5351
12.1085
9.34107
3.46986
-2.50853
-7.36062
-11.9267
-10.2142
-8.43188
-0.935178
3.37279
4.444
4.88907
4.03134
3.13914
3.06367
-0.577478
-7.18215
-7.94569
-6.34306
-3.21487
0.759769
3.41156
6.62141
5.86523
3.28161
2.06027
-1.46543
-3.03399
-5.63053
-8.70506
-8.56776
-3.77832
-3.49976
-7.01654
-0.523728
8.97859
5.13693
-1.66
-0.174302
2.6659
2.13892
-2.23294
4.19922
15.7594
19.2672
13.7645
6.5642
5.14153
0.241052
-6.69653
-7.99774
-8.68995
-7.25305
-5.26569
-10.3535
-12.4097
-7.32318
-3.45388
0.21007
3.51095
5.52325
4.06222
-0.464266
-5.1057
-8.66658
-9.57011
-5.2904
-1.0328
4.60246
6.70181
3.01557
3.04893
3.91576
2.81705
7.81255
6.70155
4.81013
6.56094
4.85714
3.36344
4.51499
5.67229
2.61688
-3.08999
-4.48296
-4.53019
-6.92228
-7.41678
-7.38167
-1.22995
2.08186
1.64062
-2.1042
-6.98041
-7.34775
-6.25822
-0.129242
4.08055
5.90548
7.61731
10.7173
3.84674
-1.10343
-2.82805
-5.54397
-7.89084
-6.51552
-5.14073
-2.1723
0.880239
4.61431
6.90458
3.95852
-3.13053
-3.52243
1.4187
7.14193
5.62336
2.59789
1.1851
-4.78982
-4.4108
-2.23885
1.00776
2.30864
7.10838
10.6071
6.39445
-0.30215
-9.05607
-18.5622
-18.8428
-11.1721
-1.03703
6.04307
8.97767
3.19735
-0.686418
2.66879
5.72387
5.08384
3.62143
5.75811
5.21256
3.68633
1.568
-1.64668
-2.1182
-0.724348
1.82088
0.0520638
-1.22177
0.363565
-0.340419
-3.34607
-5.22598
-1.30483
2.15515
-3.09324
-4.8084
-4.02484
-1.59388
1.7949
3.96206
2.69933
3.29052
2.60088
1.89251
-7.77958
-8.05724
-2.81303
-1.5428
1.91509
0.888215
-0.6127
-2.32289
-2.4058
5.15517
8.31388
7.46095
8.82499
8.23547
3.03963
3.22568
2.04119
-4.09819
-9.86967
-14.9659
-13.4649
-14.9019
-12.362
-7.2177
-3.03126
-0.510899
4.85507
10.9492
11.3663
5.45812
3.8461
2.7309
2.00676
1.58304
2.19861
3.45711
5.04165
4.25718
3.54328
3.70661
10.1194
11.2165
5.33241
3.26762
3.00651
0.64376
-4.63767
-14.7841
-16.0072
-11.916
-8.53977
-3.34058
1.95275
5.32484
6.34258
3.22383
-0.0365714
-1.5608
-2.6443
-4.16736
-4.22573
-3.27365
-4.94664
-9.8491
-10.7894
-9.74481
-3.26379
2.39835
3.90081
1.7192
7.84417
14.1742
14.4292
12.9639
9.52597
3.27813
-2.84802
-2.77989
-3.47555
0.279819
1.85326
-2.22956
-4.09731
-3.52978
-0.537996
3.06115
-3.80145
-5.74258
-2.60754
1.28092
-0.297536
-2.9638
-2.89474
-2.61353
-2.99771
1.12738
6.35909
7.05345
1.36443
-6.59094
-10.5974
-5.915
-0.581043
-0.0282375
-0.229193
7.25836
14.4471
16.7896
13.9857
7.80798
2.14159
-0.417603
-4.03139
-4.84584
-6.99231
-8.22009
-7.89104
-8.94095
-5.06358
3.51832
4.86477
-5.26134
-7.65375
-7.12996
-5.45002
-7.94781
-6.46001
-3.9721
-0.103512
5.28177
7.23764
10.0139
15.5436
13.4628
12.0509
17.5954
7.67491
0.24087
-5.0966
-10.3182
-10.9921
-6.89374
-8.81259
-9.65695
-7.20953
-6.74561
-6.75405
-0.48285
5.5076
7.63403
6.1838
-0.0479769
-4.16659
-3.31366
-8.14566
-6.58511
-0.797834
5.82911
13.38
14.4417
11.0026
6.32434
4.32132
1.72988
-0.302838
-2.6651
-5.0917
-4.93264
-5.48247
-5.61806
-4.61375
-1.24826
-0.595857
0.660869
-1.02972
-5.38238
-3.84105
-0.0699141
-1.57472
-4.84363
-4.94975
-1.25806
0.673397
1.32139
-1.36791
-0.367651
4.67817
4.73201
3.88355
5.733
4.3282
4.89743
8.33988
9.3273
11.798
9.27693
5.94343
3.02094
-1.94606
-7.15931
-8.09819
-5.27778
-4.19538
-7.59023
-5.54721
-4.87966
-5.95831
-8.09062
-9.9106
-7.2444
-4.14238
-0.0860412
3.54606
5.01724
1.66321
1.01833
0.587297
1.96243
1.99754
1.13016
0.531328
-2.2954
-3.95058
-0.598283
-2.26786
-2.24633
0.565366
3.43564
4.51818
5.95043
8.3022
8.60702
4.19679
2.60224
-1.93898
-1.61603
-1.33182
-1.08574
1.57118
4.01394
1.2232
-0.813354
-3.85303
-7.34392
-5.96268
-1.3786
2.61032
3.4808
2.19041
2.78635
1.30886
-2.28764
-2.97365
-0.843071
2.21407
1.59152
0.988271
-4.47362
-9.5272
-9.83075
-7.68316
-3.15062
4.35369
6.81107
6.52505
11.7292
11.1884
-0.5811
-5.20898
-1.4888
1.03161
-1.49993
-1.51457
-3.92402
-3.66505
-0.800525
2.80802
6.65976
7.10767
2.74855
-2.11797
-8.63759
-11.6999
-12.1713
-5.88634
-1.97037
-6.3756
-2.09764
4.46447
12.1155
15.8438
10.0764
7.24925
4.86393
3.69214
1.72896
-1.48017
-6.13289
-7.3335
-2.84522
-2.18169
-5.72489
-6.90261
0.970668
6.20448
4.40363
-4.45045
-8.42601
-7.19754
-8.22756
-4.90351
2.79714
8.02185
14.48
17.1596
15.3806
11.4255
4.52782
-3.13721
-6.74808
-5.76947
-6.66929
-6.2797
-5.83725
-10.2479
-14.2682
-7.04909
-0.0858408
0.563387
-1.39381
-3.30656
-4.21122
1.37519
5.22253
6.00961
-0.221076
-1.73724
4.08867
11.9629
15.7141
13.0891
11.165
4.82448
-5.74784
-7.83553
-6.54781
-7.95491
-2.85613
-3.52937
-7.16605
