-85.4242
-153.337
-124.56
-40.332
-2.43297
27.6636
68.5091
109.379
123.162
63.9805
-12.8633
-77.7959
-81.1444
-72.0136
-79.8302
-26.7128
-5.4283
-16.2987
20.12
67.7366
38.5778
-44.1241
-3.34706
57.6195
87.8019
85.9417
70.3352
4.34401
-47.8462
-41.5035
-24.8512
-14.4451
23.0761
28.7413
11.7659
11.6702
3.90801
6.13568
-31.745
-86.3629
-71.261
20.0922
51.8369
70.0408
40.7732
-12.8996
-26.3196
18.2649
73.1309
31.1301
-73.8619
-149.959
-165.699
-119.255
-23.4428
63.6385
172.504
316.222
308.205
162.684
10.6946
-54.0604
-174.126
-226.878
-162.17
-112.792
-120.792
-138.56
-109.891
-33.9249
35.7458
57.5775
27.9785
32.0937
-6.94868
-35.265
-32.9187
-88.9336
-78.0337
-1.88671
69.2019
76.7422
95.8948
130.875
131.727
118.684
120.813
175.979
218.97
187.084
89.1552
0.419588
-38.7425
-86.7023
-90.7796
-107.562
-155.774
-204.616
-191.43
-106.183
-103.223
-115.195
-10.4718
-2.57941
-65.175
-30.4632
60.7652
110.925
29.4764
-24.3378
-10.2874
78.4848
128.449
32.5834
-36.1695
-36.4646
-33.2287
-21.77
64.8921
132.844
120.146
116.369
67.9297
10.0519
22.7038
-16.0181
-98.83
-181.469
-153.765
-104.549
-108.51
-117.231
-91.4987
25.9114
139.045
128.67
116.656
89.6139
63.4043
22.59
25.8478
8.21488
-4.37226
34.4997
73.7919
75.0626
-15.9227
-56.5193
-94.9672
-107.677
-48.5989
-37.3157
-18.274
-4.89447
-62.1454
-157.299
-76.8339
86.0679
187.738
266.067
228.679
79.5209
-25.319
-111.211
-230.594
-262.594
-138.422
-3.4317
92.0163
186.28
202.942
100.71
8.0823
-33.3591
-46.1763
23.8942
0.703124
-115.111
-233.84
-298.576
-217.064
-69.056
33.9886
138.226
191.825
129.524
110.676
105.68
44.1537
-39.1871
-75.1069
-11.2344
57.2427
86.4914
73.2074
44.0639
12.3124
-16.9026
-46.6092
-28.7644
9.16168
86.4585
70.8278
-28.4253
-83.1323
-29.9182
-1.13094
-13.3765
4.14691
31.2583
-9.96203
-81.8504
-115.973
-79.4465
-44.0486
27.1181
46.4345
46.0004
2.72813
-56.519
-38.0925
-21.7884
-16.6408
15.2631
86.5928
69.6687
-9.53902
-87.5354
-94.5366
-67.6344
-6.91794
55.5612
72.5423
50.3724
78.3195
157.68
138.459
114.798
97.5377
59.2803
-23.9661
-93.6675
-195.978
-198.711
-94.3171
-1.215
-13.7418
9.58647
80.5212
35.1721
15.3183
28.1891
-50.0701
-52.3204
31.6294
-25.2392
-130.451
-138.499
-74.4171
-40.6825
9.59897
-12.9216
53.3211
64.9093
8.05815
37.4967
153.385
79.2608
-75.603
-41.9578
-16.7033
12.2212
95.6192
85.2608
26.3595
3.13306
29.5695
43.8683
27.5496
-6.78668
-40.361
-26.1689
14.1682
34.8908
-8.08673
-51.598
-62.9809
-6.91129
54.6171
81.9169
110.855
85.7565
36.778
-40.242
-135.059
-168.729
-81.6241
-37.3762
-73.9669
-57.8067
-3.77159
44.4019
41.2527
37.2993
34.4107
-5.39668
-54.9686
-60.914
-48.311
-40.8097
-31.8266
-32.6196
2.19092
24.3994
58.0173
89.4499
40.9537
39.1947
88.8094
123.078
99.8477
23.3909
-39.9177
-64.9817
-65.8543
-58.2816
-88.3907
-56.9157
30.3684
88.6654
75.0998
-13.836
-52.5876
-53.449
-52.2697
5.30626
71.4571
39.8094
51.6096
69.0746
20.8193
0.941937
-46.2479
-140.182
-117.842
-64.2391
-66.8874
-34.3463
28.9597
8.28808
-48.9242
-12.8268
74.4211
113.868
95.3456
10.1533
-56.9209
-80.2141
-29.6942
67.127
88.6481
72.7203
83.7182
105.524
98.7365
114.81
83.5272
-36.2057
-175.41
-166.615
-80.7058
-3.04499
83.7051
101.652
18.6195
-38.5955
-91.1992
-127.026
-129.711
-172.773
-161.79
-142.577
-103.778
21.072
160.426
281.682
325.64
238.497
108.361
6.53943
-46.6281
-63.1086
-110.157
-74.3279
-57.7771
-103.713
-91.2633
-63.6627
-72.0414
-21.5649
57.02
88.5904
25.0186
-71.8847
-153.145
-170.913
-83.2563
57.7862
142.874
128.961
141.413
123.929
56.5034
-21.5545
3.70823
52.8699
62.1424
62.471
37.4455
-35.1298
-43.2165
7.8643
32.8802
10.7993
-24.3447
-67.544
-46.857
-9.16453
-4.18382
3.93684
-23.2138
-32.8549
-45.5372
-62.3807
-51.8739
-51.1268
-13.2092
30.9051
54.1292
68.1043
10.8512
-66.6063
-36.1699
30.2202
82.6622
22.2769
-62.2488
-67.2116
-79.5033
-43.7554
49.1032
97.0985
83.7253
57.4389
14.7714
-10.1348
45.31
136.41
103.057
44.2342
-27.6029
-30.1468
-10.0834
-65.3599
-186.557
-266.679
-233.871
-172.428
-75.3775
41.0052
120.487
93.0315
42.1987
63.8286
101.045
131.776
84.3121
-13.6155
-35.9352
-37.9647
-18.6151
54.7886
122.434
146.709
103.422
87.9197
40.3909
17.2259
18.6695
-50.5447
-159.018
-166.549
-108.464
-65.0636
-47.5568
24.6234
79.4757
68.063
49.3758
36.3342
7.06743
-73.7561
-176.738
-168.198
-58.4088
59.3839
122.457
105.847
12.7615
-67.477
-70.659
-7.8317
51.033
37.9051
61.4735
46.2998
-34.0611
-101.028
-99.2891
-40.4086
31.209
51.9808
68.2968
75.2531
76.6071
82.4997
28.3091
-12.9732
55.6989
50.655
-34.7091
-37.4415
-6.86607
-28.7631
-71.0366
-100.042
-78.4378
-40.1886
-8.42165
-35.0741
-39.8013
-4.71789
21.3505
39.7145
39.3336
-4.73066
10.7273
15.8694
32.5346
26.2394
0.818506
-3.04207
42.0318
53.6736
31.2753
15.1012
-14.0169
3.20291
-3.74997
-28.0004
-15.5267
53.3318
78.1643
109.727
59.4859
-27.2081
-76.3609
-106.767
-113.879
-103.373
-34.4729
-5.02766
-62.3793
-74.5531
-4.56538
64.4415
99.4521
107.244
108.62
14.9548
-45.6582
-83.3806
-66.9239
-58.139
-22.6775
48.9413
70.3863
59.7883
23.1438
24.3034
-12.5197
-69.7876
-88.3402
-51.4574
22.0959
89.1628
50.6809
-40.5213
-68.4835
-20.155
-0.58562
6.82996
17.1228
-22.7969
-35.4114
-5.00182
23.7052
50.1797
20.1253
8.92156
6.88502
34.7381
67.4151
30.5114
-30.2369
-50.5515
-18.5862
64.2626
61.7739
11.0673
3.95074
-17.8609
-65.1255
-21.4058
47.6097
87.8495
163.499
133.197
23.1457
-67.4162
-67.2169
-62.6573
-118.876
-105.145
-131.495
-188.364
-169.785
-121.016
-9.9447
190.585
189.389
137.448
107.817
29.5661
-47.0023
-74.8254
-115.162
-100.719
-30.216
11.5114
29.0547
26.0445
11.9306
-14.3395
15.2464
35.2849
32.0441
84.3575
90.5769
60.9299
7.1496
-49.5783
-79.8023
-21.2615
98.5639
123.482
71.1475
-16.1155
-71.3183
-40.0154
20.1839
33.5175
5.44089
19.9444
23.2115
-20.7272
-24.7588
-48.4352
-51.609
-12.8867
70.8451
44.6995
-30.6035
-128.04
-214.31
-234.508
-197.588
-103.512
14.8916
63.131
66.4096
85.1093
194.152
261.268
198.76
136.367
114.337
47.6508
-26.3914
-57.4295
-86.2073
-127.479
-59.3312
30.3728
33.7226
-33.2599
-26.7922
10.3147
1.62059
-32.2419
-52.8065
-66.9407
-87.631
-91.8804
-66.9645
-24.3681
3.98004
73.3924
67.3637
-29.7316
-46.292
12.721
8.18274
2.50611
8.80137
-11.5224
-9.67227
38.0722
88.702
148.851
136.093
79.3566
16.5911
-17.1072
-13.8295
25.2298
60.7666
15.1156
-54.2925
-72.0602
-84.12
-122.083
-123.381
-63.2943
-7.21984
55.7984
88.8408
24.0531
-17.909
-36.1672
-70.6415
-82.9149
14.9621
135.042
152.7
23.0883
-76.6367
-42.676
1.73447
-2.79392
-1.26048
37.6532
65.1802
-6.15587
-81.6809
-95.0152
-79.1977
-60.5971
-82.3383
-92.0035
-45.5358
32.7202
104.327
105.971
83.9247
131.814
98.9977
-21.3497
-108.935
-117.649
-82.0528
0.355467
98.2443
183.231
207.087
165.757
135.963
137.174
36.6648
-92.4821
-95.122
-125.634
-235.746
-332.245
-295.871
-177.357
-67.1022
2.99461
157.314
302.283
269.636
157.028
66.3433
-34.0504
-75.6716
-61.9984
-96.0299
-105.079
9.18724
70.1227
62.5542
21.5582
-30.3431
-10.951
6.56434
-7.76176
-24.4094
-31.5937
-54.6312
-125.464
-78.0977
14.7031
-20.6917
-41.7356
-37.4757
-15.2883
-16.4638
23.5928
36.4204
118.398
165.385
128.584
141.784
127.485
68.5093
42.3457
-3.3313
-53.6229
-77.5019
-74.5347
-22.4663
-3.83823
24.659
38.7634
-6.27234
-59.4234
-58.8342
-112.768
-153.072
-166.653
-160.966
-51.5709
42.2442
74.7652
123.606
115.737
60.0006
10.6082
-26.5623
-77.4371
-86.1511
-11.548
38.978
83.1715
144.273
144.727
42.3845
-48.8685
-58.0795
-45.1241
26.1627
147.002
103.377
36.0757
16.3456
-32.0326
-105.361
-139.393
-70.6691
44.6301
-8.57841
-108.57
-86.4468
-74.2818
-59.8631
5.51915
77.1015
93.8974
102.648
70.3919
-8.12193
-67.5502
-95.2906
-78.9821
-57.3349
-61.481
-24.7553
-6.82008
1.81501
43.8972
24.6489
-58.6735
-21.9898
55.1432
95.3438
115.17
158.533
178.479
196.365
195.263
53.2078
-57.8084
-83.1269
-69.095
-107.079
-153.875
-128.304
-51.2317
-51.3615
-95.1932
-24.2489
57.5882
47.9758
11.9374
-45.2623
-85.6565
-100.17
-85.0459
-55.2296
-3.0329
21.8043
-9.02161
-8.56317
-13.1199
9.81375
60.3651
100.533
119.994
87.6796
32.0934
-0.598774
63.1888
97.6772
53.3053
10.1113
1.22817
4.16146
17.0221
-26.6535
-120.646
-105.863
-58.7973
-46.6266
-38.4817
-41.3351
1.29955
69.9438
109.415
126.068
59.2877
-56.1266
-127.703
-120.514
-63.6283
2.08512
30.3946
31.8321
41.199
53.3178
31.8027
34.6805
27.1793
60.2828
22.2608
-20.1973
-31.8644
-43.3613
-134.525
-169.049
-80.6404
83.9574
165.866
62.2164
-34.8417
-62.3071
-42.7939
-52.3995
-30.483
0.79
49.4875
72.1389
78.7761
39.4655
43.5568
-0.790184
-46.0274
-72.302
59.9227
148.428
94.0496
-119.779
-93.2095
-73.2324
-40.3774
-23.5303
-17.3543
-24.1795
-7.94219
-7.41574
77.4241
152.057
91.5223
28.9006
11.769
-47.6486
-64.263
-32.9457
-8.2281
31.7472
6.39487
-38.1148
-27.0299
-6.39869
-9.2727
-32.4671
-29.1227
12.305
11.8903
-45.0092
-78.3972
-41.1018
-13.369
-39.2363
-62.7809
-68.722
-44.6473
120.89
166.157
119.13
175.124
165.768
67.959
-18.8164
-80.5689
-82.1282
-91.9747
-68.5506
-19.9065
22.1436
-54.0659
-146.628
-89.5686
158.93
239.598
166.321
91.6012
-17.0545
-95.8552
-178.628
-234.663
-190.782
-137.848
-79.3114
34.8046
73.4081
91.5907
96.1298
78.4455
36.7834
28.9223
64.2907
80.822
-18.0768
-78.8808
-55.1425
5.90659
-44.256
-71.8025
-54.9108
-18.6931
113.278
219.862
201.482
95.2813
13.1208
-7.34168
-57.4044
-73.1517
-42.6167
-36.0621
-44.9165
-33.8428
-51.638
-47.1863
-64.5774
-78.5574
-48.7102
-11.4992
27.6348
49.941
19.3303
36.9482
121.201
82.7292
6.70517
-43.1138
-49.2004
-30.3361
-4.00591
32.156
80.4241
87.2597
-7.37323
-83.6605
-98.2649
-101.969
-103.069
-98.2005
-62.629
-43.2696
-9.24336
9.86539
40.8565
117.685
139.427
102.53
97.5218
76.5436
59.4516
42.9894
-17.3811
-86.0236
-101.386
-99.1379
-55.1468
-15.8781
22.8248
92.003
133.082
77.4491
-19.3834
-59.9577
-56.8771
-40.0686
4.64554
23.3776
-23.1475
-89.6352
-98.3943
-72.2351
-42.5919
10.7978
21.1633
35.6404
89.2905
93.969
73.982
45.5575
-9.14445
-42.7807
-71.3946
-84.5035
-60.4577
17.5334
54.6036
4.57289
-41.5026
4.86756
105.77
97.0128
51.7064
14.6385
-30.3135
11.4217
26.4152
-51.93
-108.784
-98.7501
-39.1302
54.9587
94.6074
13.939
-83.9085
-124.284
-103.182
-42.3471
21.1913
27.0221
21.7722
59.2474
57.9913
42.103
85.7682
73.4499
-6.95349
-1.06033
76.5734
43.7706
32.9204
72.0655
38.4434
-2.01702
-52.8199
-84.21
-57.7422
-36.5384
1.21071
17.2674
-27.2655
-43.912
-38.2195
-47.1446
-68.148
-80.61
-49.9838
-30.4669
-57.5565
-70.8831
-97.0654
-80.9269
-15.4214
94.7938
151.478
135.356
128.845
138.848
136.103
108.405
54.2545
7.3586
40.631
116.43
49.6582
-70.9941
-121.702
-109.7
-113.179
-81.9408
-42.906
-40.881
-33.1585
-40.6653
-31.4016
-36.5859
-83.3541
-64.3127
-31.3879
-33.3143
-15.416
-4.68922
72.659
140.924
139.065
97.747
42.6055
-3.11378
-29.89
-41.3397
-10.5446
8.13594
18.2981
21.1536
-16.3301
-78.185
-47.2612
49.5783
86.6593
67.8206
16.4157
-29.148
-136.313
-221.922
-165.905
-64.9442
57.8729
173.37
219.154
199.247
125.435
28.2569
-1.19821
-31.216
-28.6434
6.10496
-33.1976
-86.5755
-124.161
-153.631
-131.33
-45.4527
19.868
65.7145
123.022
143.41
125.328
42.5164
-13.3313
-59.1456
-81.1505
-69.839
-67.5562
-66.806
-63.2778
-67.3169
-48.533
-7.84165
51.6286
139.159
133.538
61.1438
61.8064
40.3295
-23.4949
-74.6372
-83.3545
-72.4086
-54.9791
37.1563
118.259
85.5594
38.8251
-0.802661
-16.1322
-10.1943
-27.1988
-43.564
-35.3198
-39.5219
-42.4551
-10.543
6.75232
-22.7011
-2.02683
23.0288
-9.47771
-33.2318
-76.2351
-70.6585
5.97933
0.340466
-19.5458
42.4562
121.417
218.845
272.471
150.025
40.6942
18.9962
-21.8416
-86.0831
-136.998
-119.505
-98.4558
-108.378
-116.291
-111.651
-90.6508
-60.0579
-46.3949
54.443
85.9102
-3.12068
-88.9912
-87.2165
-51.5229
-1.30537
1.08181
2.83976
79.4824
151.034
166.379
188.676
211.094
144.725
67.0045
44.6286
37.0137
26.8329
19.0809
-18.1225
-65.4878
-90.363
-80.3646
-113.545
-158.013
-151.396
-105.974
-52.2597
40.737
80.2453
55.6973
16.5139
-92.1072
-114.471
-77.011
-30.7439
27.0021
26.6449
-68.7273
-124.261
-57.9128
35.5444
106.87
142.843
109.624
92.9089
52.4909
43.3566
-26.3026
-68.7698
-73.5155
-55.4289
7.47079
91.3816
120.478
116.82
95.5012
10.6812
-31.2817
12.7308
21.1716
13.2168
15.7758
0.36381
4.75717
0.577923
-5.20142
-46.1434
-106.106
-129.358
-101.275
-80.0008
-41.9159
32.2589
103.504
56.4791
5.03141
12.574
-57.9217
-102.006
-53.0532
-23.9241
-57.6886
-26.9476
31.2888
18.365
28.2567
97.4995
43.6921
3.31399
12.0117
20.9631
30.2057
37.207
71.348
69.3699
-18.3574
-84.0897
-67.5459
-41.6254
-36.863
29.7355
43.3114
-26.1057
-40.0459
47.0244
57.56
-74.5457
-81.2478
-17.1855
5.29075
16.6674
52.5337
38.4328
3.13392
10.6557
6.17732
14.378
33.6705
28.6669
12.4614
11.7347
38.3616
64.0002
66.3373
40.0965
27.0016
32.8537
70.8377
67.3727
-8.40571
-71.4938
-125.146
-165.924
-173.991
-146.212
-84.5359
-58.1183
-44.0068
0.710693
47.6423
52.8806
2.84178
-62.7225
-84.795
-38.8622
37.7829
121.006
85.9061
46.39
57.6363
56.7456
37.6778
30.3321
6.58229
19.9144
51.2349
74.1687
91.0437
46.4878
-52.9681
-118.713
-90.0601
-18.4627
44.6697
54.5223
29.4169
28.0092
56.0035
46.529
-2.524
-84.7623
-118.876
-99.9718
-91.0772
-74.7772
-17.1832
78.3498
99.4942
42.0759
17.2586
18.8214
21.3366
73.0523
102.958
5.30809
-62.7451
-119.475
-109.529
-106.382
-116.04
-51.7822
6.76962
8.15354
-16.2462
-26.5521
67.4429
159.27
174.113
78.2698
44.7125
79.5954
51.7841
-34.5398
-103.638
-95.7967
-96.108
-94.545
-60.0268
-7.64506
50.1975
64.4357
59.7001
71.5443
68.5909
60.2447
31.1043
-56.1093
-110.019
-51.0319
-48.3687
-86.2432
-72.8861
-109.625
-110.23
-61.9469
-14.3919
61.1072
123.308
185.838
225.325
141.558
40.2378
-0.678258
-4.62909
-13.205
-78.2033
-144.286
-82.5608
9.59662
46.7488
42.924
28.8374
48.5238
33.4971
-5.67814
5.14644
1.90663
-40.8087
-48.1108
39.9176
108.693
81.7365
6.5879
-55.3516
-79.0376
-120.17
-109.07
-85.1049
-48.5067
-41.2829
-63.4416
-62.3109
-14.0651
42.392
98.1269
57.8145
30.0282
74.2077
65.846
7.83967
-26.5511
-15.8855
-36.9498
-27.6861
0.644861
30.1368
18.3593
38.5011
67.7148
37.7242
3.33582
21.1592
34.831
-16.6963
-60.9819
-36.8281
6.30581
-24.7999
-65.6426
-82.0927
-78.0941
-14.3113
31.606
39.735
52.168
32.0671
-16.7682
-24.3117
-25.6435
2.02383
63.6366
87.1884
65.2781
58.8275
51.1187
66.2101
36.0928
-17.7781
-51.4403
-113.319
-101.124
-48.6088
-26.8803
-36.5903
-29.5636
6.40282
73.2242
95.3942
84.8199
53.9876
-5.24583
-73.1822
-58.0694
-6.19178
24.4165
-37.2291
-100.639
-104.903
-87.3843
-76.8679
-13.77
40.6529
84.0777
89.1619
89.0078
91.2445
81.9572
50.1886
-1.55023
-44.6194
-55.2486
-49.753
-80.0113
-94.7702
-46.0355
39.0811
62.832
50.3192
54.8972
62.7852
75.918
69.8024
27.7277
5.62279
-28.1091
-64.1111
-85.9006
-99.506
-63.6027
-5.47842
28.7271
4.64344
-25.7254
-31.1848
-49.6027
0.06724
58.5376
24.0978
-26.0801
-12.2857
-2.30339
-37.006
-34.3898
7.17506
6.82515
13.7594
8.80386
2.8348
8.91672
3.92514
33.5878
71.2201
110.45
112.287
102.839
39.8312
-34.1004
-22.3811
-9.86222
-45.0167
-71.1074
-26.2227
9.31699
15.8033
-11.5698
-12.4344
55.7952
28.8367
-36.5007
-44.76
-41.195
-37.1057
-53.1121
-68.8654
-76.379
-60.1445
-43.2558
10.989
82.6036
77.4258
18.4349
-83.3488
-117.469
-11.1005
94.153
70.5842
17.7652
40.9613
58.3354
45.7973
1.52378
-25.1943
-13.0457
-9.15176
-23.9815
-48.4928
-60.3237
-44.4469
1.57139
59.1224
68.9081
74.3365
68.5912
9.50025
-48.8292
-54.4393
-39.6635
-4.56962
28.8332
21.245
8.72204
-0.645291
-21.1802
4.55509
-0.949969
-11.3802
4.23829
62.2905
70.1296
111.137
144.48
81.0946
-3.6111
-111.275
-124.762
-83.6979
-86.7431
-141.205
-80.8998
37.1513
37.3749
20.88
1.48999
-33.2844
-76.6094
-109.944
-58.4224
-33.808
-14.3042
3.36686
62.1664
97.0157
88.6365
97.1296
80.5285
35.4207
-13.8415
-20.2011
-21.9077
-7.97757
18.0089
33.1028
25.0286
10.7973
36.4941
51.6996
41.3128
15.7275
-21.8791
-40.5825
-74.6817
-80.4447
-14.1539
14.3838
14.2022
27.4022
34.5286
-3.98635
-78.6349
-126.302
-92.3677
-33.9908
7.97481
105.771
191.323
163.819
67.0844
-30.3217
-99.0732
-146.168
-150.259
-59.7694
25.6611
40.976
32.0452
22.0246
8.51526
2.48291
35.2743
44.2307
5.38029
-24.5369
-38.2577
-58.7702
-50.975
6.66241
25.3099
37.0908
35.9714
15.4814
-4.45566
-14.5317
-55.5946
-53.7792
2.29162
41.2349
29.3499
40.5287
44.868
46.4964
55.6341
49.1252
57.4421
45.1537
20.2374
37.9365
21.1785
31.1084
4.63555
-67.5342
-134.226
-151.329
-80.991
4.53621
26.1423
-62.4984
-82.9384
-48.6144
-49.7016
-39.4911
-17.846
13.6297
38.3077
12.7064
-13.6538
-38.5413
-11.3838
34.3299
91.0692
149.357
147.573
85.9734
23.6328
-15.1106
-65.8338
-22.9259
60.9518
95.2166
89.2981
-8.35925
-100.635
-83.2782
-48.9834
-61.5904
-57.6693
-38.4712
-21.4295
-29.5528
-21.8048
3.59843
50.6001
84.1505
101.855
34.3913
-43.4171
-54.3585
-40.1086
-39.8919
-25.8686
-2.50832
17.4635
14.2023
19.2376
22.7896
22.4795
16.9572
45.6654
34.5164
-52.5984
-84.8533
-63.2031
-28.5614
-8.42675
-45.6225
-1.50156
68.7414
44.52
-20.9756
-48.3861
-12.3554
26.2513
-29.8588
-66.8015
-12.1008
19.5825
50.2224
60.7924
50.3929
55.7106
42.9757
18.6705
14.1323
-39.9449
-62.0771
-27.5864
28.772
28.16
32.6737
27.7835
-47.7807
-34.6834
38.4988
43.8821
18.8889
-8.63718
-40.9943
-22.0147
-12.3593
10.9401
-7.23809
-18.3931
11.8585
35.8021
56.9483
22.1271
-13.7493
-21.1165
-35.8906
-90.3455
-85.465
-39.0571
68.3077
53.8781
-29.7165
-29.7684
-22.894
-28.753
-29.3659
4.87729
83.8545
119.24
53.0318
6.14571
-24.2014
-47.1911
-43.9025
-36.8642
-56.0287
-50.9427
-18.9428
-28.7404
-72.726
-0.479744
119.432
124.725
63.8624
29.2378
36.0599
41.1493
-15.1992
-59.8531
-20.8291
-1.06376
38.0573
28.4768
-18.1026
-36.4949
-33.8909
-13.9675
13.0488
27.4393
-12.6209
-33.2766
-52.5047
-74.0186
-39.5511
-22.6371
-32.0596
-58.0175
-37.2064
35.9494
122.889
131.854
84.089
80.0752
46.0055
-4.72579
-7.07993
-16.2849
-5.76618
18.7971
19.8852
28.6559
40.7912
22.887
-8.54488
-44.6693
-45.5492
-25.9773
-20.9061
-48.6291
-88.8009
-85.92
-77.5488
-68.6572
-38.9477
-5.80997
36.6611
67.7898
62.8305
16.5875
2.01689
-5.20099
-55.9276
-31.5038
20.5347
50.8662
44.0923
14.3826
-35.302
-61.3249
-70.9826
-14.5694
71.9091
72.1018
30.6824
47.2493
46.3634
67.8279
100.601
19.6172
-84.07
-98.5856
-29.2108
27.3671
62.6193
91.4884
79.1655
4.32846
-69.2248
-80.5429
-102.21
-102.507
-64.0647
-7.41677
48.9059
71.7208
43.2984
6.69773
-22.4844
5.06704
24.5186
6.11428
-0.499487
-29.0611
-60.4097
-42.9812
-41.941
-9.03854
55.377
57.1481
32.9982
29.5902
21.1918
-0.797201
-10.0603
-33.8698
-49.2662
-69.0897
-76.9266
-56.7893
-29.3063
34.3735
126.156
171.978
112.76
37.0093
33.0007
42.3387
49.6711
8.09458
-51.4397
-61.0026
-52.6976
-48.254
-48.0284
-24.2234
5.72137
-1.43792
-22.2988
-13.3095
-28.216
-68.502
-116.043
-100.75
-45.2906
-23.1919
-14.521
8.66626
18.1786
30.3111
67.8752
81.2813
88.6754
98.3285
79.5659
40.7987
16.1003
9.48666
16.8095
16.3975
-1.61477
-38.456
-72.2217
-86.5868
-57.8834
-15.7147
5.98161
2.06354
-3.1205
32.0543
68.7901
44.93
-8.349
-50.8634
-50.4737
-40.7061
-3.731
51.5348
57.9647
60.3822
72.5032
58.6373
35.0957
6.98196
-10.3827
-43.2467
-60.4937
-70.7922
-60.6508
-34.672
-21.5873
-34.8938
-27.9186
-14.9781
-28.1005
-29.7092
-31.3878
-7.35355
21.024
4.74491
7.99293
9.39957
-14.945
0.845488
31.0496
57.374
61.9371
45.5708
12.7099
-14.4434
12.1995
65.5241
36.3882
6.90311
26.2617
51.3119
60.8909
51.567
24.7411
-11.6417
-36.7129
-73.804
-95.7378
-91.6876
-74.8428
-67.9373
-71.6101
-58.611
-34.7672
-18.6775
-43.5489
-33.1872
64.9096
96.5388
50.2842
27.4611
9.33236
-11.0225
-3.63116
17.8181
33.3503
25.8256
17.9832
21.7676
35.3714
33.1756
21.9731
6.93201
32.6426
53.3515
34.6416
-0.52408
-30.6445
-4.76264
53.4203
43.985
-9.5653
-53.2717
-60.4458
-62.0644
-58.6549
-19.8764
3.38782
-6.42851
-16.404
2.81767
-10.3751
-14.0467
-31.4347
-63.1053
-28.2776
26.0582
27.7774
-13.9583
-36.9095
-27.5594
29.1389
76.0858
64.8728
20.0618
-22.3832
-15.4804
33.7733
62.1339
41.6244
13.1632
32.4472
25.6378
-32.6918
-61.8831
-62.0515
-60.3756
-35.0608
7.1377
4.83335
-7.37122
-18.7634
-49.9002
-30.5241
41.1748
51.5223
39.6066
29.6718
10.0502
-12.3898
-40.0548
-32.3601
13.3899
43.1666
53.5815
53.2871
53.5875
34.1903
-3.97612
-54.7198
-44.9695
-28.71
-37.5074
-29.4937
-2.39084
44.7065
67.4865
10.0389
-58.9453
-78.5581
-61.7805
-18.0309
28.0555
75.0552
86.4637
94.7672
81.6819
23.3916
-36.3438
-61.2892
-96.2124
-116.096
-91.9626
-58.0388
-2.8758
51.6272
34.1823
10.5505
7.13282
33.7135
57.1353
75.7054
72.9092
2.3733
-47.6823
-53.6839
-61.4095
-67.6713
-61.3718
-52.2496
-19.2611
24.5464
45.7834
74.8699
57.0367
15.2164
-6.55389
1.17238
16.6349
33.6983
34.9661
-4.03926
-1.2802
31.5299
43.6052
3.96638
-42.4009
-36.9948
2.77501
44.8644
51.1155
43.1989
2.20586
-62.4465
-86.9587
-76.0472
-49.0165
-13.3976
-3.57624
-12.3157
2.36096
8.0462
-17.1231
-13.726
-9.31439
-25.5821
-32.2633
-3.2178
29.1356
27.2359
16.4003
4.33806
28.1729
30.1703
5.07602
6.79351
19.7102
-11.4508
-1.30584
16.1565
3.82825
0.191651
1.7818
52.4506
115.006
74.4353
42.1404
41.3861
26.062
-25.343
-55.0874
-58.4888
-60.159
-53.6995
-57.4179
-76.261
-67.4883
-32.1727
6.6291
0.405982
-41.0511
-59.6712
-14.8008
33.8352
16.4706
17.4624
26.5093
23.9192
10.388
18.1824
35.5328
44.8642
64.2593
42.913
22.3545
-0.680758
-10.8955
-12.7092
-28.3439
-24.2514
14.914
16.042
-19.8098
-64.812
-66.8264
-15.8548
3.69506
14.1772
38.3031
42.788
20.5351
-21.5239
-34.7426
-23.5329
-3.06603
47.6309
65.9197
48.6976
19.9248
7.10382
-5.83196
5.61504
12.0442
5.56538
25.8498
2.77805
-54.3554
-71.4428
-47.2166
-18.7088
-2.89614
1.02958
-7.29895
27.389
40.1329
12.6239
-27.0233
-42.6749
-42.6598
-35.9398
-21.5926
-7.74532
-10.4833
-23.108
-34.7015
-19.9948
22.1894
43.2224
28.2107
10.4342
27.8601
47.8867
37.0379
7.69473
-10.1001
-8.36031
-13.2097
-8.11996
81.6976
142.405
94.614
6.10724
-40.4486
-32.2916
-9.33507
1.54496
0.269205
-34.465
-47.514
-41.7701
-75.0408
-77.7639
-34.8815
-2.41112
6.43085
-2.66486
-1.84717
17.8142
-38.6376
-78.1529
-47.666
7.60657
36.788
56.3795
37.8122
7.86725
5.72654
30.4239
34.5216
35.8383
59.4334
56.7058
37.7574
3.94079
-15.7132
-34.4406
-51.1548
-54.4923
-43.3923
-6.70585
26.8081
60.7724
62.1806
14.347
-7.11444
-4.78099
-5.56267
-14.9287
-26.9176
-25.862
-29.081
-18.4162
-18.6355
-32.4643
-25.6364
-10.9609
1.61398
7.94991
-3.33752
-17.3976
-7.7263
-3.13469
24.8124
54.9759
54.107
34.6588
7.86607
-14.8566
-21.0881
-22.3142
-23.2124
-1.60269
21.4098
10.2797
-14.7877
33.3648
80.4117
42.2586
2.42948
-15.6976
-23.0867
-26.0186
-45.2384
-77.8375
-73.4003
-34.1642
-8.17681
0.967225
25.3303
49.9983
75.4072
39.5463
-15.5618
-36.615
-30.907
-31.9461
9.40398
52.6553
54.0454
36.0174
48.3162
11.0335
-21.1478
-20.8641
-8.67464
-18.6971
-32.9761
-43.2353
-23.717
11.318
24.9982
25.8362
6.42334
-13.0735
-32.1176
-35.5246
-14.9486
9.82619
15.3727
23.9836
18.4015
9.28802
0.767369
-16.6249
-37.8698
-39.6081
-18.9154
17.2348
33.5505
23.9728
4.1284
0.729048
14.2172
10.2457
1.3549
27.2782
21.462
3.66422
8.33345
27.5538
5.18983
-15.7977
-18.1488
-29.0636
-52.9455
-37.0143
-18.9395
-28.9562
-23.2952
-8.11344
24.0109
28.5371
2.81544
-3.83559
-20.9358
-20.8141
-4.89852
-7.08382
30.3859
86.0072
120.974
99.8113
62.9546
15.7194
-7.96825
-14.581
-36.3845
-38.2206
-21.5851
-37.7248
-39.3768
-29.4191
-12.2004
21.0312
34.8267
0.98357
-41.3093
-43.0416
-71.2227
-106.498
-113.156
-63.4064
-15.3009
4.5009
55.7827
79.6299
68.5289
52.3883
31.1379
24.7867
8.20996
-20.6692
-8.36017
33.1557
52.0857
40.5027
23.6936
13.2278
3.41983
-20.0909
-20.9221
-23.6036
-1.06975
44.9621
26.6081
-29.6335
-25.743
12.381
-9.23626
-44.7371
-51.7984
-3.97055
5.60279
-19.0823
-8.52155
22.4859
45.3958
50.4892
21.752
16.1607
14.7189
24.0976
-3.44425
-40.0069
-66.1334
-45.6306
-28.4905
-51.1558
-53.5483
-19.7567
3.59215
16.132
16.571
1.54633
31.932
65.9595
65.495
28.5267
33.0053
50.6119
34.5621
2.46305
-31.0642
-36.3355
-12.4637
-10.666
-22.845
-33.6371
-36.878
-33.7923
-21.5208
-22.4876
-13.222
-5.73859
-19.3963
-33.7929
-0.89495
45.9968
41.0036
27.6293
31.3761
28.1022
11.9831
4.55494
-0.74233
8.76345
-7.65356
-30.4448
-17.4378
39.1188
83.2126
37.973
1.84494
-11.3425
-23.1096
-27.3709
-50.6928
-70.9843
-34.3669
-14.9304
-31.6687
-30.3116
-9.3259
5.61104
7.46555
11.9545
20.358
38.0979
50.8937
33.1049
-3.3447
2.36004
31.6732
59.0715
46.2197
37.95
9.18633
-19.3434
-29.5448
-37.3701
-46.1642
-54.7318
-44.2415
-4.24179
7.21048
16.8328
15.5167
29.7157
45.7318
-2.93671
-52.4365
-44.2869
-24.8563
-23.4171
-19.1413
-11.4188
-3.37746
4.45358
-3.01208
-20.0931
-29.1907
11.9982
31.0117
46.948
52.166
25.8711
10.2678
2.69654
-3.14652
-7.44101
27.9791
41.6563
8.61647
1.94683
5.0287
4.51685
3.1777
-11.7745
-11.1465
-16.4762
-30.2483
-48.5571
-25.9137
-32.7134
-40.435
-3.02151
52.3558
75.8114
48.1783
13.1704
-0.194354
7.35904
-7.66038
-32.6655
-12.7364
-23.6551
-41.1876
-41.2736
-57.117
-42.7508
2.67677
17.84
31.4365
69.0721
102.68
93.1091
44.8001
-10.3658
-47.8465
-44.7676
-43.1487
-58.6161
-32.6065
-15.4455
-28.7703
-30.2526
-3.85942
44.4178
73.7084
81.4004
66.202
38.5771
-7.39825
-56.1867
-79.7169
-79.443
-52.906
-40.2932
-34.0881
0.469135
28.963
38.4225
51.5182
33.2066
12.0543
-0.741566
-10.3968
-15.6049
12.0117
32.7319
36.6883
7.71887
14.8933
45.5223
51.8624
10.1207
-4.86078
-11.7531
-8.75702
-40.1997
-70.3016
-48.1275
-15.86
16.3005
11.1204
31.8944
36.5139
2.81231
-28.2304
-32.508
-44.5781
-15.8427
-18.7518
-45.6318
-47.9951
-54.6338
-48.4508
-13.9986
33.2885
87.6434
83.1076
36.6244
23.6794
13.3307
24.0515
29.1661
35.6911
36.7092
6.71968
-7.04142
3.91556
-3.74573
-0.515448
-18.0568
-47.4209
-24.5272
-21.9903
-20.7704
-25.2392
-19.1276
-6.18502
4.03421
-17.5825
-13.9582
20.2716
25.2569
-5.21346
-5.05318
39.2245
56.7211
53.9911
30.9599
10.2427
-2.07542
-24.4131
-46.1755
-57.7008
-33.5025
-11.2761
-24.3142
-14.0882
4.59393
10.5815
38.6889
36.1915
-0.689264
-12.4285
-49.0198
-70.0411
-48.5494
-29.8281
18.855
66.4044
53.4342
69.169
81.2586
79.6755
43.8882
-5.52299
-25.0483
-22.5472
-20.9823
-31.5026
-45.9742
-44.7204
-47.4468
-26.9875
24.9618
27.4635
-6.60702
-10.5973
-33.3959
-52.298
-40.8321
-37.2209
-29.6932
-24.5685
-14.4968
0.13988
8.89713
9.20811
34.9827
57.9985
83.0915
71.491
66.6746
49.0089
43.0628
65.2756
78.0692
65.0311
16.1181
-50.676
-68.654
-70.5963
-72.764
-59.7999
-46.9888
-42.9359
-56.0796
-59.7981
-48.3232
-30.2613
-27.3807
15.3297
69.6038
62.3906
37.1156
7.69521
-13.6673
-30.6064
-1.6111
30.0814
25.4608
14.7424
16.8715
6.08305
-4.49816
14.3343
40.8281
54.0691
37.5757
13.377
-11.3529
-29.1594
-14.969
-11.3465
-21.4995
-24.5656
-11.9662
3.78498
-21.8686
-45.5679
-42.439
-30.2651
-20.7186
7.91072
25.3895
11.3363
-16.3302
-27.4512
5.26098
16.1484
17.4664
-10.5925
-44.0289
-16.4626
19.1936
29.3612
47.8801
35.379
40.3165
47.2686
48.2015
30.768
5.9826
-14.9035
1.62894
-1.3188
2.46236
5.4787
-12.7418
-24.3477
-26.6188
-20.7543
-24.4232
-26.7077
-15.4991
-14.6784
-34.5818
-26.7421
-18.6343
-9.84903
-3.48061
-3.92753
-1.43635
10.2824
28.2047
53.029
60.0766
29.0634
-0.279256
1.06683
-18.8998
-34.5253
-15.8114
17.355
18.724
-2.14219
-14.4524
8.37716
39.1922
21.6097
9.41898
28.3787
32.2899
-2.1689
-42.1196
-50.303
-63.4058
-40.1224
-26.4141
-22.9832
-8.43987
-0.363875
-15.0011
-36.2989
-23.5815
8.81687
9.86686
5.51452
0.35586
28.5492
41.1215
12.0573
-3.73527
36.9195
40.5213
23.0149
24.2212
13.1338
0.9772
-14.406
-18.6156
5.42453
12.4244
27.1059
48.1679
70.8753
65.6353
12.0761
-58.268
-79.5103
-70.2671
-19.6108
4.90926
-9.20032
-17.0947
-25.961
-27.3813
-23.5403
-8.08293
23.1818
40.7736
21.6968
-1.1948
-5.60842
-13.7427
-40.8804
-52.5026
-32.2044
12.4463
8.41817
-7.36871
-23.3274
-22.6157
-21.1803
-18.2535
-2.81946
40.5175
51.332
53.3657
41.7211
47.5264
68.2854
51.4069
11.6987
-3.3282
-10.0093
-16.4315
-4.27691
-0.978157
-6.31128
-27.6933
-56.6179
-47.5182
-17.3999
-6.88764
8.73237
-22.2601
-32.3432
-8.80467
24.3103
37.8734
29.1126
28.6589
11.4843
-15.8504
-43.2113
-34.2367
-15.222
-6.08106
-12.9798
-6.30131
23.7829
32.3055
36.3101
44.1119
41.3327
24.7807
11.2696
-19.1091
-36.6752
-59.859
-77.507
-52.9867
-20.2368
-8.32565
4.61781
1.98205
20.2301
45.4355
57.8696
58.134
51.4444
37.6545
-4.82747
-20.4944
-22.1093
-4.35298
-1.7724
2.74384
-26.0815
-44.0949
-28.1363
-16.461
15.4265
27.6203
37.9394
48.4681
14.7758
-25.1882
-56.0415
-76.8224
-75.8977
-41.9678
11.3843
65.2976
66.7408
45.7103
17.2146
-18.6741
-28.5077
-16.0626
-14.7304
-10.1324
11.1455
29.8722
0.608259
1.6422
31.7476
53.7319
43.9621
31.2018
13.6523
-2.11024
-34.5457
-69.3142
-81.7203
-64.7599
-30.4184
-24.7441
-12.1343
5.28802
0.374356
3.02323
0.000791239
-7.32284
29.6252
36.4347
11.1092
19.0153
37.8367
51.0354
39.666
-9.70233
-27.3195
-21.656
-13.7348
-9.58909
-0.782424
34.2527
55.6878
76.8339
58.2147
-1.7806
-40.7455
-73.6305
-76.2057
-42.3652
-1.60718
-2.88316
18.554
65.8301
87.5644
60.7435
-7.92527
-45.5006
-52.4104
-54.4691
-60.1458
-71.5014
-60.8544
-59.359
-43.0827
-13.4485
16.1043
67.4021
67.4797
30.5499
19.2891
9.40649
3.4836
-32.8665
-53.3845
-28.9043
16.9735
22.7505
25.8645
29.3389
37.567
42.4763
23.3377
6.36621
26.1356
56.6406
78.7923
73.6602
35.264
6.0715
-30.0742
-50.5542
-63.9682
-71.4544
-70.784
-52.7962
-52.5827
-50.7273
-32.7585
-13.8471
-2.65604
46.0422
88.5738
100.766
66.6693
29.4227
-31.5545
-85.5281
-85.0851
-86.116
-76.7132
-39.0295
-16.2848
13.3094
36.6614
73.8086
120.557
111.055
54.8229
18.6901
11.0481
-0.182504
-34.4111
-73.4338
-79.1844
-83.0126
-65.0307
-15.119
35.1469
70.0228
25.8448
-39.7547
-51.4218
-21.8644
15.588
16.7331
37.663
146.904
162.39
70.6547
-15.5403
-58.3375
-75.728
-62.3605
12.6703
69.1336
48.6033
16.7555
-29.0575
-61.5955
-51.0423
-19.5117
-5.32696
-26.4759
-60.6802
-56.0721
-68.7125
-106.118
-75.0729
-6.194
26.6149
9.64097
11.3078
31.0882
-1.22501
-9.66697
27.9631
40.7971
54.9166
71.1418
75.8443
80.9987
61.0031
21.7461
-10.9374
-32.2471
-19.9467
-4.7042
7.44467
33.7889
55.3291
55.4353
42.3111
14.1702
-9.43364
-27.0119
-45.1521
-61.5116
-54.0846
-46.4802
-25.9024
-13.3625
-9.37172
-8.04075
-6.10147
-14.4828
-45.4379
-66.2494
-70.2629
-57.3017
-39.8122
-6.89203
13.2187
28.4866
28.0745
10.654
18.9864
35.7652
29.2013
35.1373
40.6712
55.9379
68.9594
39.9391
-13.9409
-2.53647
21.3958
-4.37249
-6.11975
-8.90136
-9.72355
-18.1302
-26.8614
-5.687
47.1287
73.9828
26.5016
-31.0483
-47.4347
-22.0246
-4.56847
-7.41591
-30.9417
-36.344
-7.04269
-5.41922
-16.5802
-18.2763
-10.9598
41.9748
58.745
6.62728
-22.04
-38.8439
-52.9121
-54.8478
-40.7482
-25.436
7.15272
-5.44319
-12.069
-16.5194
-0.19526
36.4151
57.121
48.4402
51.4469
52.7045
50.6795
7.82818
2.443
27.9958
30.6275
6.90634
-14.2233
-34.701
-19.7807
18.6686
25.241
7.44077
-32.1317
-52.4995
-41.2878
-10.2835
18.9303
25.3315
28.1314
14.198
-29.7569
-52.3756
-58.967
-41.7578
-9.43552
8.97958
19.3839
40.8063
40.1449
8.17441
-21.475
-22.2388
-0.282702
19.9044
18.6994
-5.80913
-21.3933
-32.3249
-51.427
-42.4725
-18.2572
-16.1861
-3.45332
36.9262
10.5436
-17.7894
-23.3337
-4.88097
30.9958
63.827
73.3582
92.3435
87.1108
62.8794
29.3749
9.40221
-7.05256
-33.2791
-42.1973
-37.1893
-33.6517
-27.0642
-33.4143
-56.7398
-43.7643
-13.6268
2.47883
6.58357
-7.39
-12.0323
-15.7547
-29.069
-14.1783
12.1969
34.7193
44.0436
34.6899
36.8874
26.7399
-5.91628
-18.8323
-20.113
-26.4791
-29.9047
15.6056
39.2784
11.5007
-19.4969
-30.1231
-18.9231
-11.6866
-16.4018
0.770279
38.7979
48.0217
24.8575
13.2059
0.0281699
-43.5522
-69.1803
-57.8039
-13.835
13.3217
22.6347
51.1835
61.794
35.6368
27.9723
13.257
-21.6947
-7.39169
22.4831
-1.42445
-28.657
-23.5534
1.27096
4.1457
-35.5841
-7.86881
16.5214
19.0427
-15.3672
-53.3084
-71.9902
-80.9348
-46.1816
24.1128
53.9736
91.4125
90.863
47.2055
2.51607
-10.7038
-28.1948
-43.134
-47.7344
-18.6388
2.6746
-13.5241
-16.779
-1.21433
40.6584
77.5274
92.6089
106.127
55.5874
-3.16035
-42.567
-62.3286
-51.8821
-51.8626
-49.462
-19.9774
-12.5483
-10.3934
-15.0696
-24.6833
-4.93166
-5.16743
7.49211
16.4811
-25.7879
-33.1523
-27.0924
-27.6841
1.92706
13.9541
23.2972
37.5132
39.1603
45.1328
58.9829
45.7119
15.643
12.0249
29.344
21.6436
-13.9229
-23.3425
-35.0646
-31.0539
2.94175
10.5895
-14.6278
-28.244
-26.5674
-39.1153
-36.3694
-39.6305
-26.7433
-23.2325
-23.4722
-21.8257
1.66183
27.6978
11.2403
5.91245
41.8464
61.92
43.6103
19.3603
8.05896
-0.490347
14.5562
14.8571
7.63592
3.1257
16.1561
8.04533
-16.9962
-29.5892
-17.381
24.5533
35.2447
15.153
12.3807
27.6674
26.7631
-6.40241
-23.0987
-21.1666
-19.1261
-20.3439
-34.9919
-59.0593
-46.6237
-31.5161
-18.5743
-3.62508
5.26269
11.1924
-13.0045
-33.5235
-18.936
1.20626
-11.226
-10.0797
16.5547
26.6286
20.8548
34.2037
44.554
8.70728
-14.0194
-18.2395
27.8713
66.0347
30.6973
9.62434
68.6451
117.057
98.7779
18.3292
-22.0649
-49.5975
-75.606
-92.8026
-72.2313
-42.0153
-29.0444
-35.5172
-19.9747
0.428473
-4.14513
-16.0266
-18.804
-5.35977
0.986815
-6.72363
-37.0554
-41.7865
-30.3581
16.7743
31.6455
35.3917
48.4539
54.3432
32.671
22.3561
34.7781
20.4634
-1.95058
-2.23256
12.225
-2.90757
-37.6038
-48.5652
-25.4984
10.0075
5.78973
-1.77978
20.7595
28.302
13.7295
-0.0745223
-6.79328
-3.43314
32.5442
32.9864
22.4828
20.6119
12.9306
-1.5979
-14.1413
-35.1603
-51.3123
-47.3411
-33.1402
-26.6439
-5.88139
7.6223
17.0252
13.1848
21.069
18.9454
15.0186
-7.95907
-69.044
-72.7203
-35.68
-11.0555
-0.1554
18.1547
46.713
52.2375
23.7571
24.0632
40.0696
51.3069
33.7242
-6.34079
-35.181
-44.6973
-37.9706
-18.1158
-5.3207
-3.69585
7.5689
30.1966
24.435
8.08646
-15.9925
-28.0754
-32.0007
-13.6579
-10.0808
-0.127726
16.7373
8.46933
5.98367
9.92627
-1.74791
7.95944
0.226489
-21.0609
-14.7409
-16.4026
8.72411
40.2662
31.3452
-3.37406
-12.2336
-5.65848
-1.41034
-6.30116
10.0263
19.7879
26.8464
29.7922
17.2989
6.55629
-5.71259
-21.4941
14.5444
36.1022
5.48415
-24.5987
-41.688
-50.398
-49.339
-34.9214
6.5414
13.5744
9.39404
14.2764
10.091
0.0597836
-17.3001
-21.9635
-16.0435
-11.446
-4.61668
10.699
20.8651
29.2794
52.1014
45.925
11.4625
-34.8782
-38.6074
3.69752
24.9602
33.088
4.72328
-30.7132
-52.0738
-54.9523
-28.5597
-18.3512
-15.2729
9.17318
29.9748
41.1409
23.6831
19.1248
24.1209
35.7812
25.5335
5.1887
-10.0664
5.99492
-3.90965
-43.5427
-20.9828
1.71302
7.52366
-3.25006
-36.6079
-28.733
3.88916
35.3962
61.4278
34.3122
-10.4692
-29.0506
-48.4023
-57.69
-33.9149
-4.83172
18.6814
40.9658
44.3923
25.7156
-9.1595
2.12045
10.7312
-5.94218
-29.3894
-53.9975
-44.7243
-35.9247
-37.4264
14.2738
40.1595
29.0298
15.8363
10.2023
5.85307
18.1431
21.043
-15.2649
-26.2474
15.673
29.6868
-2.89686
-2.36202
26.7627
55.7347
74.957
65.4065
30.1527
-0.763224
-46.5448
-37.0558
16.9658
38.1928
7.23253
-19.9954
-33.2077
-41.0176
-59.2091
-45.2331
-21.0348
-29.7907
-27.888
-20.422
-12.8144
-20.9708
-34.8133
-48.7686
-17.3645
18.0135
33.3585
30.9624
23.2746
-3.06056
-18.8188
-15.6879
9.01908
18.805
15.5324
-1.97148
2.45945
40.8617
73.0681
64.2775
57.6019
22.8745
-8.99057
-32.8465
-48.8355
-48.4241
-26.9505
4.95667
22.1701
23.4359
34.2018
19.2938
-3.8012
-13.7647
-33.0562
-40.7774
-46.5128
-35.481
-4.68443
33.3215
57.9789
57.8553
69.3079
65.0794
34.5397
-6.28528
-34.3309
-57.6653
-63.7939
-55.2
-43.4828
-39.0745
-45.1989
-32.2482
12.4815
39.5858
38.2785
23.5744
8.87124
-26.9895
-50.7547
-36.7591
-20.9923
10.7153
11.864
11.3622
17.1356
9.53066
-4.04537
-8.37893
0.39912
37.0164
46.3708
42.371
37.5782
28.9952
36.9441
21.5945
-7.71199
14.2913
14.1878
3.24675
-3.73326
-10.1547
-15.8174
-28.7443
-50.4328
-40.3268
-36.3329
-6.19152
15.8247
8.86853
7.46273
11.3957
-20.646
-30.3861
-35.837
-10.8487
11.722
0.99966
-3.43415
8.0888
7.44253
-14.3433
-27.4441
2.24822
12.0753
14.543
19.2341
31.5218
21.7482
6.72268
7.87327
44.1298
36.6114
-5.62369
-17.7049
-39.8555
-58.8484
-37.3375
0.30671
34.9072
57.6784
48.6241
42.1889
26.0728
2.60211
-13.7885
-25.23
-48.8548
-37.965
-5.34719
1.31853
-35.0528
-29.7737
-18.8933
-18.6785
-13.1578
-5.94045
-14.2736
-20.0139
-16.8998
-19.2864
-2.89292
11.2254
4.18861
13.7865
26.5032
39.5566
41.1573
11.0959
-16.9594
-18.8608
-20.15
-9.28759
6.68624
61.7937
134.923
126.99
66.9285
10.3758
-19.2949
-30.0285
-46.1729
-38.5674
-8.93579
-24.5151
-54.4346
-58.1995
-30.8523
0.988568
6.0128
20.5228
33.6842
26.8225
1.87141
-49.1432
-96.8025
-104.168
-98.8583
-59.2474
-23.1593
2.95646
31.5605
60.7612
82.4725
81.7803
46.8771
43.3101
45.8137
40.3965
23.9758
6.73395
-5.18657
0.216553
-20.8012
-32.6771
-33.422
-37.897
-26.3263
-5.40771
9.03783
-6.28141
-16.7115
-30.4062
-32.0594
31.0274
56.3066
21.7496
5.69363
11.0915
18.9111
14.6231
-4.93825
-27.6972
-20.7399
-9.78084
-21.2468
-5.10984
13.7543
14.3774
5.97895
22.2569
39.0546
30.3103
14.6176
-20.3843
-37.3501
-31.9948
-20.0444
-9.20497
-9.50992
-20.392
-2.35425
7.72229
25.6895
44.3059
52.0078
53.9363
17.1142
-46.6622
-48.1552
-40.4026
-23.436
-32.2491
-34.555
-15.7619
-1.08768
9.96443
49.6838
54.991
25.9908
1.86351
-25.7001
-34.856
-28.4598
-27.3843
-37.0155
-29.9678
-11.9523
12.3997
15.745
14.6387
13.8592
11.671
-7.66545
-11.766
-2.84716
13.4566
13.2085
25.5823
29.1031
1.83598
-4.19086
21.5082
29.8281
33.977
39.6938
22.0703
15.0875
7.27797
-4.80667
9.53991
15.9187
27.7733
31.5592
21.1667
0.836787
-28.2688
-64.5768
-72.8083
-45.0304
-22.5059
-18.6607
-31.4701
-35.5597
-47.9892
-51.7129
-47.2954
-17.6818
13.2082
11.1757
-4.45422
-11.6616
-1.15087
13.2951
19.6869
17.8418
17.1453
24.5864
18.9361
18.7518
31.9511
26.1146
2.93426
-7.43743
3.73536
41.6216
83.9752
87.5754
71.7226
88.9232
70.6542
8.73472
-56.6032
-102.716
-85.1478
-55.9616
-31.1703
-20.5152
-11.7035
-8.73692
-26.9799
-51.4883
-28.4482
-15.7915
-11.5295
-32.5927
-46.8389
-38.872
-28.4478
-18.3254
-19.3583
4.39194
34.2923
58.9289
43.0732
32.8581
15.4538
5.75219
48.3327
66.3741
63.1507
69.1043
38.5495
12.962
10.847
13.6593
-12.5091
-37.591
-60.1906
-77.693
-64.0215
-42.2179
-20.9391
-12.5942
-1.01471
35.6898
41.6463
20.7112
-21.8682
-49.0516
-42.6293
-39.9628
-9.38002
17.6078
34.7197
3.9831
-18.2642
-22.612
-6.33275
8.92577
29.0932
55.1818
88.0653
78.6252
31.1506
10.0133
5.14055
-1.78442
8.2312
3.42086
-4.56609
20.0282
4.07752
-32.3077
-52.1081
-37.2639
-19.6659
-29.0044
-22.861
-18.8935
-18.1299
-33.2824
-50.4447
-36.4016
-16.8047
-17.3809
-10.7087
2.19735
7.92869
5.31457
25.1326
44.6634
56.7823
41.5877
-20.4925
-24.7745
18.101
25.9018
24.3712
19.8141
15.0112
30.6216
10.4192
0.180504
20.0298
13.5569
-5.30303
-0.227956
-4.90299
-1.9305
-19.4038
-44.3861
-19.4274
-6.74198
4.34304
6.25777
-11.1833
-2.799
-12.837
-7.48387
15.9856
-4.78628
-29.1831
-45.2282
-59.1949
-57.292
-13.3757
33.9161
66.4183
100.426
95.777
64.0709
25.5659
14.0433
-14.9224
-47.9497
-56.005
-44.917
-5.97545
-6.44189
-22.4855
-24.0564
6.32215
22.526
7.66776
6.44475
-14.2602
-37.5485
-43.6406
-64.4457
-55.6056
-20.5145
-20.4737
-22.24
15.2297
48.7403
71.5305
77.9298
39.818
18.2802
17.1814
10.0494
-5.61779
2.63474
23.0002
31.1697
24.707
4.58663
-3.04375
7.87795
-0.682877
-13.5762
-13.8073
-16.1544
-1.73786
9.82392
-1.78859
-11.8201
-19.3101
-28.6068
-22.0025
-6.71042
-2.07191
-1.5528
-2.99181
0.0830798
24.7224
35.8189
6.67574
-12.4204
-41.5114
-54.7002
-47.8607
-31.7817
-29.8386
-33.8391
-42.7888
-21.3406
-5.97837
37.2167
69.949
85.8613
97.9338
76.5487
34.4273
20.8276
42.3349
51.9426
12.4771
-50.8789
-49.1501
-39.0186
-49.0184
-15.9819
6.95099
13.4203
-3.89945
-27.0196
-23.002
-33.6745
-59.7313
-43.2987
-45.7489
-54.4637
-31.981
-7.71866
2.52736
7.82456
30.801
61.5376
75.5271
56.5521
23.7713
-6.49165
-24.9211
-20.1975
12.0835
34.4911
60.0705
90.5355
52.1706
-10.5134
-34.0243
-9.39523
26.9217
17.7909
-33.5231
-66.2594
-74.3106
-68.1286
-51.5035
-29.3514
1.89278
13.5916
11.4902
25.5959
30.6682
28.3725
21.1031
-13.6616
-7.2916
13.8814
17.3412
21.6954
36.7765
16.0866
-11.7853
-28.7583
-24.9726
-20.4949
-24.6699
-12.9305
11.2135
10.9883
-4.71825
-29.6924
-22.277
0.725209
13.9026
-29.3328
-42.6312
6.05321
43.9727
31.2227
22.0589
30.3984
25.1433
19.1187
5.44337
-4.37161
-9.35826
-18.1106
-18.8967
-0.317397
25.0697
49.8872
27.4223
-0.0852918
-27.6438
-28.8507
-24.4985
-40.2236
-33.7361
-15.0439
-26.8053
-17.8562
21.6401
17.639
11.7602
0.0486029
-7.4252
3.99597
26.4564
20.38
-7.72056
-6.19144
3.60769
-6.20109
-29.9995
-11.5487
6.25045
-17.4982
-26.3989
14.5999
38.8387
22.3806
0.137365
4.0513
26.7617
38.3155
37.3184
42.3893
42.6215
34.2941
22.8574
-11.4529
-38.454
-42.3676
-28.7937
-25.51
-31.598
-6.62076
-0.0786694
-25.0346
-58.5939
-65.0857
-43.6082
-19.1412
3.55875
43.29
51.5852
53.5687
26.3404
17.9062
15.0214
6.89681
-2.65065
8.66708
15.9149
17.371
11.418
-10.6703
-22.4928
-30.6844
-26.7562
-16.4503
-23.6471
-14.9184
-6.61574
-14.5514
-21.2191
-45.9816
-66.0812
-47.6962
-19.0101
14.2232
37.8295
39.5197
40.2162
37.5649
56.32
58.3822
56.9313
63.3859
65.1685
59.0402
33.563
1.29343
-14.8619
-26.6604
-68.211
-66.948
-12.3493
-10.5609
-24.4527
-48.5838
-30.3238
-11.7091
-23.3301
-40.2747
-20.9838
13.2571
32.3655
4.87386
-12.736
-22.51
-22.1364
-16.4203
0.858727
1.96789
26.5817
41.4771
46.2294
29.7141
24.3381
45.2785
42.8391
23.7642
19.8423
0.698295
-33.1908
-56.6235
-85.0921
-82.622
-44.3367
-20.9426
-4.61741
18.3332
49.0713
76.9974
62.3326
14.8374
-7.58399
-9.41481
-9.61781
-18.4651
-24.2139
-33.0543
-25.1584
-6.388
10.3612
30.3668
38.8096
41.1564
7.93808
-20.8294
-33.2401
-39.4262
-47.2702
-18.5792
33.6323
93.8771
85.5303
32.9469
-11.0022
-37.4322
-37.2367
-8.47786
16.2729
-2.56639
-34.5708
-55.9286
-30.8674
-8.05859
1.28298
14.1375
14.5515
19.6102
5.25623
-7.279
-11.218
-54.7743
-82.2873
-39.5069
-15.0405
17.9702
42.3265
38.7584
19.0691
24.9235
49.7335
75.4425
49.745
22.8549
12.966
11.5911
25.5921
5.39449
-24.1919
-38.4672
-37.3336
-23.3271
-3.94841
40.6081
61.1686
34.484
-38.674
-84.0692
-67.5167
-19.2484
-21.3352
-55.8197
-12.9182
34.8595
32.8293
-12.2616
-46.3099
-32.0735
12.0952
36.638
56.1078
60.7463
67.7721
19.8609
-34.88
-55.3835
-25.2737
-4.81363
-36.1083
-63.6623
-48.0664
-36.0909
-41.5718
6.60805
38.5847
71.4365
103.937
107.234
56.5403
-18.4154
-70.4095
-69.8345
-10.8986
57.9421
50.1902
-28.0818
-44.5095
-26.5428
-11.9032
12.7506
41.5892
61.2372
32.1777
-14.7373
-32.9822
-26.702
-32.8879
-50.0083
-53.3358
-19.8851
2.67779
9.24851
-36.058
-48.1934
18.4969
59.1243
30.4676
30.7599
50.0966
57.643
30.264
21.0647
31.6575
6.26786
-8.97485
-16.5244
-10.2792
-12.3951
-6.06278
-3.52469
-13.5249
-32.8416
-50.4069
-72.6655
-69.9353
-22.393
7.33238
-10.9416
-23.1121
-43.208
-46.4208
-12.3557
25.0616
48.4425
50.1608
97.4608
137.127
108.529
56.5848
30.1793
24.5111
-3.26199
-24.5567
-22.2151
-27.1263
-38.9429
-34.8524
-34.9641
-33.6109
-27.1056
-28.8593
-16.2385
-40.4521
-66.9383
-62.5026
-65.7538
-70.0104
-53.5427
-50.6143
-19.5133
23.8998
65.4891
77.6519
70.6757
71.4085
53.9418
73.2758
86.7866
58.9663
41.6036
41.6871
17.0356
17.2002
35.2185
28.4321
26.3485
11.5855
-10.2024
-16.6862
-46.1408
-78.2708
-84.4139
-96.0019
-114.695
-100.133
-50.459
10.9424
31.3749
10.83
-12.0293
-17.6544
-21.8101
-41.5587
-47.9145
-11.742
10.7614
31.8351
61.1705
66.8986
87.1538
85.8079
47.4876
15.1699
6.71649
4.00104
22.3484
32.1101
20.5237
36.0076
26.5138
-2.61399
-7.18076
6.43516
-8.89714
-37.7126
-75.955
-94.6859
-69.1523
-2.17136
38.3943
35.6356
21.0339
-6.44418
-26.8655
-37.8402
-53.7699
-80.5006
-68.7548
-41.2574
-14.3224
-1.41671
4.79755
34.8788
63.3386
74.6867
53.0424
12.1039
12.3034
26.7845
3.99482
-11.1376
5.22117
61.9032
103.805
105.397
92.1463
52.6161
-4.99332
-32.8316
-43.1388
-44.2638
-59.4531
-70.4987
-45.0203
-43.1059
-42.867
-23.891
-3.28986
-9.85103
-31.5766
-31.5821
-15.2329
-16.6305
-18.9735
-37.908
-44.2685
-33.2286
-19.8772
-18.5708
34.5232
62.3086
49.9081
40.6336
16.6619
7.22355
14.6046
6.55466
9.97058
40.3623
49.7758
49.1302
26.7256
-9.813
-37.0854
-31.7106
-16.943
5.71928
41.1201
44.8613
16.2693
25.7011
44.0443
34.0419
-3.58842
-11.6528
-13.4572
-27.3445
-31.9982
-35.7929
-50.8357
-54.133
-60.4394
-58.0833
-49.6171
-33.0814
-16.7652
-16.891
-15.453
-6.27137
-8.63262
-7.68484
2.17215
-0.449894
21.6189
44.8618
50.0808
50.8683
32.859
49.0014
65.3063
63.863
82.8012
77.4642
44.9515
40.7629
7.02611
-37.9837
-62.2488
-58.609
-42.0226
-50.304
-92.2609
-68.4232
-17.2665
16.3334
49.039
75.3927
39.6938
-7.70891
-27.2849
-40.0131
-54.4593
-46.6965
-19.3763
-21.3998
-29.5692
-11.6478
1.44631
-5.76536
-18.568
-22.6144
8.27174
16.4328
-4.13072
6.593
6.51739
6.66201
15.1624
1.74582
6.50852
20.6772
9.95102
33.9358
40.9581
35.9676
41.8058
41.0948
38.163
29.5018
16.4497
-13.6049
10.5911
24.2979
24.1233
7.85793
-3.61391
-19.454
-34.7448
-42.8473
-42.9766
-21.223
-13.9389
-27.3174
-39.5668
-41.0274
-25.1023
-22.8825
-26.4519
-25.2292
-21.4409
-11.8497
-36.3433
-69.3121
-70.0147
-28.8301
31.5729
102.553
144.432
126.525
152.21
167.288
112.465
7.73977
-52.8973
-63.0373
-51.7084
-80.4594
-92.7941
-78.1079
-57.2392
-7.86691
10.055
9.87464
15.4958
-22.0479
-46.6246
-67.9769
-82.7913
-70.3399
-83.0632
-85.5699
-25.4966
33.7552
60.9803
65.7602
60.7273
72.8731
79.7717
76.5183
69.4482
53.242
44.6139
55.0591
54.1782
33.8463
1.44788
-27.2955
-33.7563
-15.8633
-4.11292
-11.9825
-24.2844
-17.4649
-4.8502
-5.57089
-28.2428
-37.0315
-24.3797
2.68502
4.08343
-6.89717
-4.21659
4.09251
-3.24644
-23.0234
-46.4286
-37.7817
-23.5535
-26.7106
-32.8333
-30.4303
-10.7592
19.3333
18.4824
-3.79375
-4.53018
1.08752
4.13691
-4.44402
-5.39604
-5.95137
2.93264
11.9204
35.1136
52.2365
55.7247
31.5587
22.9226
26.6216
20.1144
-8.46958
-36.026
-19.2629
7.3176
19.0931
38.0409
60.2084
65.4099
46.0974
24.2168
1.6355
-16.926
-39.8544
-64.9119
-69.8434
-62.2497
-56.9852
-66.2424
-62.0135
-49.3494
-66.4807
-54.371
-9.08978
40.9678
109.634
116.213
98.9353
39.9691
-23.7727
-20.3949
-13.2108
-13.6533
-16.5971
-32.3075
-37.2879
-19.7806
-15.9403
-5.73895
4.91109
10.3297
38.0259
38.5658
-14.3589
-15.3097
-37.7245
-48.9621
-38.4904
-8.07866
42.8589
74.6344
63.3868
43.344
65.7195
77.6467
69.7454
54.1803
29.0121
6.78673
-21.3031
-40.1235
-17.9963
5.45943
-10.2783
-53.6639
-61.033
-64.8225
-80.2566
-69.2353
-58.7087
-71.5228
-41.2918
1.42889
31.9097
45.6368
66.6485
59.6933
30.0298
-3.30969
37.2968
85.8731
94.292
51.7105
-3.11816
-52.9807
-103.448
-110.411
-97.7392
-88.3192
-51.504
-24.3694
-23.8268
-19.4431
-5.90517
3.32841
2.77004
-4.07147
22.3189
56.1447
37.0404
19.7061
22.6199
20.8607
6.30055
34.0177
85.529
103.315
105.694
96.7755
54.7267
25.3395
17.2824
-0.889073
-7.71838
-10.8093
-19.5194
-17.6189
-13.7582
-32.6154
-65.3482
-94.2878
-74.9958
-40.6298
-4.6767
11.2665
-2.77108
-35.0871
-77.2663
-70.4798
-17.0389
-3.44709
18.7692
41.9827
29.8441
14.3368
-27.7926
-63.4697
-66.6851
-24.5681
5.42876
41.8969
56.5138
69.2031
75.2595
72.6957
73.7652
43.0943
53.1943
43.5531
-10.94
-58.4432
-84.8847
-86.8761
-74.2571
-67.6139
-40.2984
-0.551479
24.644
26.2021
19.9518
-1.79914
8.39145
34.2961
11.6717
-1.89278
-0.350475
6.29631
-8.57216
-29.3622
-23.9199
11.9595
25.0002
31.6614
66.0787
73.0163
45.9098
63.5106
58.5375
-7.46654
-41.4728
-45.3137
-49.8169
-77.8456
-62.8965
-41.8418
1.04025
57.3539
19.0066
-24.6176
-25.5632
-46.7977
-46.3416
-37.5827
-30.8193
-22.2024
24.9297
44.8467
107.938
200.633
201.826
136.123
22.9539
-11.5354
21.3161
-37.4735
-180.54
-242.181
-154.18
-65.6447
-36.5389
-8.55122
-35.2002
-68.4367
-78.8089
-61.8989
-36.9843
-5.3307
-23.1075
-57.4863
-90.1317
-83.3277
-43.8364
-13.588
32.9173
118.593
185.298
194.911
180.98
109.409
59.5728
51.4564
77.7833
80.6693
92.3456
153.127
147.435
63.6937
-29.2497
-38.5599
-10.4902
7.6871
9.44543
7.76586
-71.7212
-157.871
-170.317
-122.887
-110.488
-114.139
-94.7901
-81.035
-85.0765
-90.9666
-90.3068
-35.4352
119.473
186.768
87.2748
-14.7527
-44.0829
29.4919
112.05
113.672
16.2892
-75.7391
-84.3558
-77.8329
-100.132
-48.7115
-9.68371
-34.9782
-20.2154
88.3847
134.535
73.218
-20.344
-36.1612
22.3812
33.5974
75.226
66.1614
-9.2447
-55.4159
-61.5969
-4.32253
63.0826
99.0118
76.6109
89.5397
112.061
76.404
30.317
-12.1872
-44.9427
-113.96
-239.608
-319.74
-233.765
-93.634
24.913
84.9537
148.343
115.942
66.7489
27.8424
11.1727
-14.942
-86.2736
-71.3802
73.327
174.866
184.385
168.861
114.105
95.9232
0.970909
-43.9501
15.0067
-34.9202
-216.242
-292.519
-330.111
-278.057
-157.317
-80.8793
-26.2039
113.27
321.968
374.414
320.748
220.083
50.9537
-28.8421
-21.3078
-43.5421
-4.9655
86.0764
197.874
234.361
164.49
-31.7424
-229.968
-340.697
-312.943
-257.052
-227.335
-254.282
-257.105
-202.125
-162.266
-132.257
-35.4704
-4.53426
-38.8932
48.2526
208.018
213.408
0.516959
-68.4184
71.0961
231.384
364.763
450.543
479.471
452.548
355.135
262.443
73.8222
-80.9379
-189.802
-211.662
-201.12
-225.942
-186.708
-146.356
-151.991
-123.394
-47.8506
-45.2874
-119.899
-160.387
-111.551
-25.8675
-13.8768
-45.0088
-78.7521
-109.677
-84.2559
-37.4809
-19.6263
35.4788
79.3218
80.7625
33.1462
-13.8819
-20.3956
14.8324
42.3637
57.287
95.338
131.973
115.495
59.8066
58.6461
89.32
71.5691
-2.43274
42.4948
107.764
55.6948
-17.2109
-15.4457
-46.6463
-65.0579
-78.3922
-63.4028
-63.615
-83.3347
-69.3158
-49.5212
-47.9513
-33.7111
-28.7392
-42.1701
-34.7165
-15.0387
75.4514
135.868
49.8288
11.737
13.6161
-64.1884
-46.7523
-11.4615
16.5064
32.0524
68.3316
135.158
115.754
43.2031
16.0615
10.754
-28.939
-83.2628
-98.4995
-71.3907
-102.172
-158.929
-151.309
-81.1531
63.7876
173.141
100.495
5.26119
41.4292
115.987
26.0308
-54.5364
-49.0486
-32.7165
-32.7415
-0.895456
53.4848
54.5702
27.8502
34.6808
26.3903
12.3833
-6.32726
-13.9332
-26.6612
-9.18235
8.56229
48.0881
2.05134
-76.8906
-62.8069
-62.2568
-28.603
13.8139
34.0229
55.8857
120.266
109.924
17.6738
-28.8813
-14.235
11.6285
-14.0493
-67.5481
-89.2359
-73.855
-16.2618
-3.46238
-22.8986
-46.0386
-47.7293
-37.8381
-6.58715
62.3576
36.5591
4.59732
-42.4532
-21.0571
24.4224
28.2843
22.8298
48.1343
71.5755
47.6668
16.205
12.5566
7.92549
-5.34273
-22.7131
-13.0168
3.53758
-11.5493
-36.0753
-55.2608
-30.05
-28.8298
-36.8398
13.534
51.4024
31.6781
8.10977
-15.7335
-13.5993
29.5096
17.8085
-10.9841
33.2007
46.2036
42.9479
21.3454
7.43649
-5.49384
-25.1393
-31.5495
-14.6665
-6.93496
9.73572
12.4125
-8.41387
-40.2748
-38.8096
-47.5803
-27.1142
-15.147
-24.1001
-19.2103
-20.6676
0.947178
41.5522
69.9543
78.9554
82.8288
63.5776
14.8825
2.50015
-1.37008
-8.40641
-13.0706
-28.9197
-12.7261
9.90505
20.5158
23.8026
-6.874
-16.6763
-26.6428
-43.3326
-59.9206
-84.7567
-91.6203
-72.2459
-49.8288
9.62739
64.7348
77.1451
39.411
3.89235
14.5555
26.6523
14.2734
-3.9126
-32.9116
-56.3511
-54.4897
-32.0917
2.94858
15.7427
39.0425
61.9568
76.2278
58.8006
51.9269
54.5231
38.2821
21.5592
-6.94448
-43.1694
-92.5883
-86.5771
-17.2472
-7.11269
-5.93625
9.68278
45.2983
41.8339
11.4072
17.8809
19.7627
1.11846
-21.9152
-25.886
-17.5641
-34.1137
-58.5593
-59.2865
-29.7706
-1.25589
32.2274
45.5003
27.038
30.0636
32.2987
22.1892
5.13348
11.4054
7.39663
-3.2917
14.0667
30.069
10.3965
-0.107182
-16.969
-28.7659
-20.7649
-17.9225
5.89129
15.1414
11.4945
13.2189
-12.7641
-39.1766
-59.8399
-65.0955
-2.09028
28.9764
33.3458
39.814
9.41231
-23.2894
-22.6225
-28.9668
-45.0243
-22.0491
-1.22509
40.5953
37.1746
8.4998
1.52487
13.5427
12.0675
4.07897
30.5975
30.0191
2.2096
-18.3337
-31.7828
-33.6828
-29.9262
-14.1983
29.0668
32.2423
26.2505
3.7341
5.89607
-14.8587
-35.5473
-9.68644
33.3926
31.099
33.588
33.9213
25.9599
14.348
-23.6191
-22.7407
26.9112
23.1796
10.8032
-7.53963
-32.8036
-37.2269
-17.4709
-20.3204
-37.913
-25.5672
-20.7983
-26.9062
-44.5116
-21.7253
13.6986
51.987
57.5646
7.12354
-1.56162
8.33582
-17.4064
1.01001
38.6844
11.4078
-15.8586
-15.1509
5.89072
24.3985
8.01702
-30.6261
-44.6691
-49.2192
-31.2076
-29.1809
-12.2933
37.2882
62.8552
81.7986
75.7287
63.3677
33.1568
1.59569
-10.2131
18.7726
-13.6911
-56.4503
-52.4012
-45.6552
-14.3726
-2.92769
6.82189
18.8204
13.4142
7.2184
-32.6713
-70.1978
-67.2998
-36.2775
-28.9379
-23.629
-15.6212
-17.4874
-22.2504
-22.5756
26.1385
77.4504
71.2774
49.6184
28.5039
25.2459
62.479
71.5849
64.0394
71.4014
44.2694
-28.284
-73.3651
-71.5466
-37.334
-4.72411
14.1052
-2.91988
-37.0725
-43.5021
-30.7576
-16.4384
13.6461
22.0034
11.9045
-6.69887
-33.0175
-2.98375
25.9514
20.2665
4.75817
-28.6159
-22.5996
5.34531
-17.5835
-49.931
-42.0019
-32.665
-17.7447
18.9504
43.2728
21.6424
-12.1749
7.77543
36.9604
22.8679
16.6172
34.6421
11.9268
-18.612
-4.94138
20.199
24.2835
11.4304
2.68579
30.628
35.2242
6.49455
-19.0683
-36.7457
-33.9486
-11.7622
-28.608
-48.9404
-20.1289
15.2717
8.64687
-6.00044
-9.48423
5.39496
-5.18049
-5.84601
-16.9234
-8.75152
14.2862
3.26316
-8.4942
26.6367
53.8576
4.31261
-48.332
-46.2383
-22.0966
-5.77264
45.236
111.71
128.693
76.276
34.1036
-8.79733
-24.2656
-13.122
-5.43382
-12.0836
-43.4273
-71.0649
-73.621
-86.5365
-127.69
-69.7095
5.5585
40.3088
58.7258
53.2946
8.30591
-33.2416
-60.5432
-37.6854
-13.4582
11.2166
34.6855
41.037
39.4636
25.973
19.9719
16.8041
23.8117
38.6371
85.1795
77.3679
28.2818
5.916
-5.56283
-0.166095
2.94097
-6.43739
-19.5343
-33.4303
-31.319
-24.2462
-43.5841
-29.2153
-20.0577
-27.8751
-25.8862
-19.7318
7.74643
19.071
4.09368
-8.6977
6.15477
24.5543
6.41444
-21.8971
-38.6799
-30.8814
-8.552
-17.8215
-22.8418
25.3285
33.9214
17.8651
24.6824
36.3455
32.2722
34.0426
3.39678
-25.7192
-38.7208
-19.4568
7.99427
26.8622
39.419
22.1622
-18.1362
-40.0905
-30.1777
-18.1992
4.34929
21.063
50.621
43.9982
5.97142
-13.9285
-29.4118
-46.4833
-59.0855
-18.4599
43.7771
48.3916
36.8071
11.5885
-25.3147
-15.2596
-8.75499
0.735571
5.05917
-4.18331
-26.7483
-36.1383
-43.1965
-32.36
12.8713
45.4488
28.8661
-4.90011
0.251033
10.6107
0.873438
-15.0766
-13.5956
13.4156
31.1557
24.2337
24.8088
22.7857
22.2166
25.6948
6.08672
-8.99346
-13.5692
-23.8704
-39.6351
-42.2435
-12.7494
11.0533
0.912276
2.26977
4.65237
-3.07775
-21.1002
-29.9579
1.57225
11.4973
3.08514
13.1958
7.17103
16.0438
11.306
-3.09302
12.9209
17.8654
-7.05944
-21.6805
0.215795
26.2587
29.5189
13.0578
2.31797
-20.3148
-26.4562
-20.2272
-18.2496
-11.7399
8.89618
10.6311
-2.8595
-19.0764
-2.46138
14.5869
13.595
2.18008
19.6157
6.83714
-13.8928
-20.5496
-9.09454
-9.89606
-14.6354
-6.87052
-3.43271
-3.0357
0.265826
35.5117
29.1359
1.75413
2.90846
6.63616
1.16819
0.510736
-9.97555
-22.1874
-18.2727
-10.2386
-20.2662
-21.0827
2.45299
17.8897
2.37899
7.25971
-3.16874
-27.9495
-7.38936
36.4597
87.8843
89.7925
42.3438
17.6649
-6.85394
-28.1316
-17.2183
-22.2433
-47.254
-36.3355
-12.548
-12.6383
-9.76898
-9.1251
8.01334
5.59593
0.0490535
9.89288
1.51785
-25.0102
-42.9739
-34.9649
-30.2505
-22.0101
10.3421
18.3402
18.5238
42.7867
39.6276
35.2551
11.3056
3.48824
-4.55832
-17.1181
-19.5127
-14.0099
-7.552
-3.23448
2.69836
0.357762
-2.42284
-18.3262
-5.86808
-0.525074
32.4279
51.2452
46.8076
32.4795
12.9816
-10.5198
-15.5916
-35.7489
-21.9954
-9.24233
5.34775
19.3481
12.2923
-7.65891
-28.3801
-34.2278
-58.0948
-11.1748
32.6834
19.2573
-12.0057
-18.7705
-3.72275
7.817
14.6247
18.5727
33.2855
71.0887
51.0731
23.5394
-0.197007
-17.5585
-26.2756
-40.8078
-34.3735
-15.8036
-19.6264
-60.8301
-52.0048
-18.1434
5.95277
5.70872
-5.81294
-4.41543
3.15105
3.78298
-5.09356
-10.6401
-12.628
-13.552
9.35518
31.2021
26.3239
31.5798
37.349
23.2567
24.4228
17.5388
17.8317
13.7522
-2.90297
-7.29081
-3.19958
-1.06586
12.6671
28.2171
16.7856
-10.4461
-12.9915
-13.5842
-33.9972
-17.9312
-2.14738
-1.43119
1.43787
-9.97846
12.3105
31.0169
26.2751
0.243972
-10.6297
3.16973
20.1837
7.8251
-25.8971
-45.4556
-22.2113
-19.1368
-20.582
-15.0006
-24.5595
-40.9289
-48.9982
-39.9559
-6.62012
5.0361
16.2863
37.1437
40.8426
35.0839
25.6215
13.3173
14.5171
17.1944
21.3765
35.0974
42.569
9.93145
-39.3094
-50.5087
-14.8883
-4.1041
10.7063
16.556
-0.397361
-15.1473
-12.6951
-9.4564
-15.612
13.3027
5.69471
-11.9117
-9.65505
-5.64886
-5.5622
-12.9153
-42.5643
-15.4168
31.6886
44.8301
39.916
36.0424
28.7278
19.3255
6.48126
15.7153
-0.299088
-21.565
-22.8361
-13.0348
-2.9557
1.75085
-8.90073
-6.22399
-18.4961
-24.3178
-19.5851
-11.2379
-2.55201
8.28373
-2.2281
-14.8329
-21.366
4.49956
15.1972
4.41387
15.904
14.4517
-14.3989
12.2744
21.9008
-7.53784
-34.1253
-42.148
-37.7395
-37.2049
-31.5474
-6.96582
40.2569
61.8071
75.9067
86.0268
70.1202
42.1707
18.9698
9.11035
-13.4749
-26.7997
-24.8606
-23.4024
-32.0597
-39.3821
-33.6728
-22.686
-6.28119
-2.78418
-8.09534
-18.0614
-51.5593
-48.376
-27.0543
-5.31915
17.0791
4.9984
-10.4452
12.204
28.5825
23.2852
20.103
3.74877
4.17597
16.5893
41.0055
37.2915
22.1394
44.2076
40.3007
22.2256
25.7923
2.42885
-47.3001
-49.9406
-39.5039
-32.1789
-28.791
-41.0699
-31.6444
-3.9973
25.125
6.70777
23.0697
27.9276
7.4676
28.5084
69.0615
68.009
32.9686
-28.5734
-36.0188
-30.4641
-29.5146
-41.3236
-42.6481
-47.2027
-41.8156
-26.5249
-13.5101
-18.1669
-12.0357
-7.08329
4.27094
19.2346
24.9867
6.17886
-2.45205
-11.8102
7.6913
33.7752
12.623
7.85358
18.3801
8.14491
9.20899
36.4696
62.854
61.9898
33.5242
15.0787
1.00155
-20.8007
-34.0451
-11.1821
2.45957
-13.0271
-28.9321
-37.3991
-17.2654
10.9505
-4.68462
-19.9446
6.1405
13.9639
-13.0308
-17.34
-0.432532
12.3848
24.8151
29.4434
47.0668
39.1299
-15.1055
-40.3942
-58.4366
-59.4853
-57.6694
-31.5495
6.93787
26.7262
48.9504
36.7351
-20.7764
-54.8462
-48.6473
-16.4043
6.85464
-0.983127
-6.90098
-7.75433
-16.4431
-0.178252
21.9906
31.9273
55.7732
58.4225
34.9327
9.94971
-6.36377
-9.29555
-21.0098
-15.6177
18.9118
37.0467
35.4637
22.9853
2.99595
-10.1982
-15.5582
-29.9756
-42.7735
2.94707
47.1452
50.3882
30.5863
11.8691
-1.87272
-27.0262
-43.3735
-31.3369
0.6494
20.1544
-14.1795
-29.9013
-21.4377
-29.0986
-41.0799
-42.6006
-54.6342
-20.1741
17.1862
3.46656
8.89941
5.54161
3.93504
19.9737
23.8156
16.7276
23.1411
15.9697
-15.3767
-26.3812
-0.0240382
22.67
21.7774
11.6412
25.3152
31.7614
49.8702
43.1607
12.6133
-12.4476
-28.9675
-6.75596
12.8999
0.066711
-17.3235
-5.5561
2.01441
0.523303
-7.78582
-21.7327
-8.23149
-15.643
-6.22548
-3.32005
-14.7273
-20.1527
-28.4414
-29.7129
-5.56889
-2.67748
-0.184278
-15.2028
-17.9011
14.9084
36.5746
30.4318
4.32186
-18.7422
-6.30782
14.3681
8.12845
13.7053
13.6504
31.7825
45.1046
46.6387
38.9738
16.2924
-6.20809
-19.0622
-41.7666
-35.0697
-31.0448
-43.542
-35.7292
-35.8216
-42.491
-22.5334
-21.7681
-25.4033
1.2129
14.5597
34.5394
21.5862
15.1907
15.9734
18.9807
28.0825
12.7433
44.8697
56.43
25.3497
14.9378
17.1366
-2.80806
-6.08971
1.90078
-19.1092
-24.5557
2.05167
-1.54658
-8.7563
-13.007
-24.7595
-40.6015
-35.8226
-44.2547
-18.1312
14.0236
12.9972
16.8101
12.8928
9.71252
11.2464
3.50556
18.622
24.1816
23.6335
22.0985
15.7018
-14.921
-37.6269
-63.9574
-52.1641
-19.3694
0.234642
29.4498
14.8773
-2.70235
-12.9438
-14.2328
7.82603
26.8841
38.4822
35.1169
-3.56649
-22.4749
-14.588
-8.81138
-12.0528
9.22829
29.9345
20.1605
21.5644
30.135
38.5783
35.4266
15.4159
-7.42247
-8.70201
-22.5041
-33.0674
-49.5864
-46.6385
-26.4847
-14.7119
-22.1896
-18.9533
-15.9387
-13.8951
-4.28895
6.58603
26.6111
12.9567
-7.60783
10.2697
20.7548
36.1402
50.283
56.5824
60.8474
38.4435
7.45417
-16.8543
-16.3893
-14.9503
-25.1838
-31.8266
-32.2207
-30.6843
-34.2877
-41.6491
-31.127
-13.1769
-4.3372
-27.3388
-32.2602
-28.57
-12.5193
-17.5965
-23.0811
-4.48436
33.2421
56.7154
58.2759
43.9652
45.0106
49.3651
36.4943
18.3797
9.17067
25.1253
33.7083
20.9821
-2.12592
-17.7114
-21.5491
-19.6937
-25.5184
-27.7958
-10.2701
9.56042
-6.37073
-30.4124
-23.0375
-17.9075
-16.9184
2.5951
2.98533
-0.432327
5.25472
-0.54167
-10.3513
-21.3094
-21.5444
1.07479
-25.3337
-13.9129
-2.34469
15.195
13.5014
12.112
25.6493
9.74224
-2.77417
-6.47568
2.53685
3.13278
-4.35327
-15.8576
-20.9743
-18.8398
8.60574
21.7834
40.8299
54.9398
59.5366
68.4218
77.3382
63.7448
14.1303
-48.4587
-43.7003
-48.0795
-66.1775
-67.3538
-49.3739
-20.2401
-13.1298
-11.241
18.9653
21.8851
-0.26229
-26.2785
-51.3745
-54.2402
-57.9449
-66.2987
-22.6846
-4.82298
8.04327
42.1885
40.0289
51.2109
49.0728
42.8125
52.7093
29.116
25.3204
32.304
22.9028
17.6665
8.00691
8.95403
22.4774
10.616
-1.24666
-8.36228
-26.5805
-9.29245
-2.92875
-15.7229
-25.7193
-33.8902
-14.8067
7.41761
-4.04587
11.745
20.0587
3.06802
-18.3484
-31.4636
-33.9234
-22.351
-1.9959
-0.730379
-3.26498
-7.31579
-26.7298
-32.0438
-23.2441
6.07039
22.7241
8.56085
9.04648
12.7112
19.8413
19.7332
2.44917
3.39731
14.7895
6.20122
19.908
27.0298
10.3203
4.81417
2.15465
11.3014
1.48703
-22.826
-24.0882
-21.1744
-21.2131
-7.53492
-4.2865
-8.94964
-11.142
27.7349
21.1074
4.84794
-2.13744
5.67456
13.8193
19.9167
2.87044
-1.61979
-3.19009
-14.1385
-19.1149
-9.86254
2.63987
-3.09255
-17.3079
0.599967
1.22851
5.82044
8.64313
-16.0627
-19.0308
-21.8473
-12.7453
25.0773
30.4977
14.6009
13.1638
6.65769
13.4561
12.2442
6.47839
38.7675
34.4168
20.2938
-5.39599
-38.8289
-44.862
-32.7771
-13.2456
-5.41312
16.1932
12.8076
-3.86555
-19.3447
-21.4846
-15.2581
-10.2582
-12.8243
-17.6897
-8.09726
-13.8597
-26.8633
-24.8063
-4.40609
11.5394
25.9585
30.1646
18.9763
12.0317
33.6037
28.4929
28.5798
24.5476
8.84007
0.132082
-8.28981
-6.97294
21.9851
11.8042
-11.6865
-11.4905
-23.229
-18.3472
-16.4542
7.11287
25.5901
7.45372
1.90721
-1.48358
-25.2767
-18.5317
2.5364
19.5267
8.88154
9.78943
14.135
16.2527
8.40483
-13.0539
-62.5617
-48.7931
-25.2081
-0.446723
4.78611
-6.58878
-14.3403
-1.08107
-6.44558
-2.54979
16.3126
39.7756
23.7231
3.42483
-5.37209
-9.97874
-2.43162
-10.0805
-26.4348
16.3496
37.7546
23.6993
6.32727
-3.22773
1.20834
-7.36965
-18.2971
-3.01497
13.2735
16.0387
6.2286
-18.7313
-14.5085
7.36202
14.2403
-15.5248
-12.995
36.2781
35.7226
7.42976
21.9358
9.92985
-24.8134
-49.49
-46.7603
-8.4512
24.2579
29.7512
25.4992
-3.9717
-41.8291
-37.6641
-38.1155
-11.8986
22.385
29.5284
18.7546
4.76062
15.5916
19.2867
7.22185
-27.6973
-39.4925
-20.1259
32.8134
74.2975
52.6799
10.35
-30.991
-44.3799
-26.5712
-0.360483
8.54592
-13.4894
-38.3086
-26.3741
-15.7915
-32.7275
-38.0266
-9.5606
3.02828
32.0641
37.3952
21.4813
-0.335212
-28.7143
-24.2717
2.01848
18.4093
45.0548
57.7659
42.8243
40.2705
19.6655
27.3146
33.4171
18.1613
8.17011
0.5014
-28.925
-30.8685
-26.4879
-2.55153
0.991689
-16.7062
-31.0489
-36.3531
-44.0338
-27.1829
-29.9411
-38.7899
-25.4806
-2.07812
13.5896
21.4415
34.0874
26.0456
5.38052
-6.0733
-26.9085
-7.53035
17.0963
13.369
17.0442
19.5939
17.0128
9.41885
-1.10491
4.23146
32.8006
21.6973
-12.0565
-21.9645
-16.0349
-22.6735
-32.1817
-21.5076
3.75748
11.838
23.4012
26.5848
40.0928
43.7657
18.2253
1.57307
-12.2713
-26.6039
-33.6698
-35.2215
-31.1108
-7.74264
-1.5297
-8.74061
-0.680925
-5.78983
-16.8218
-15.4235
-24.4359
-15.8855
8.90973
21.7319
2.00056
1.88477
14.0696
18.9293
19.3198
19.86
20.3352
15.6949
-6.86129
-2.31509
39.5895
49.5145
45.2372
32.9706
26.4053
18.0038
12.7053
-5.13758
-24.6067
-51.2214
-57.7759
-70.5944
-68.3107
-58.8513
-56.9597
-49.0987
-19.3206
-14.1022
12.2178
43.6078
49.2224
43.5509
11.6847
-2.98531
15.2097
26.3184
22.8608
26.0913
12.9755
-3.75951
-11.1984
-10.2456
-4.48627
11.5031
18.5193
33.6554
23.5731
16.7027
10.5925
-5.37366
-26.0859
-35.4249
-19.2114
6.58855
-13.5289
-31.0149
-28.2486
0.31081
18.1382
12.8756
3.90958
27.2938
50.9171
30.3254
14.7615
1.71167
1.67926
-5.28527
-25.4375
-17.8717
-26.5243
-24.0454
-23.131
-25.5981
-14.4555
-10.3407
-20.0409
-9.57298
-20.4973
-16.192
11.2279
10.6547
-2.82687
-9.26824
-15.3606
-2.67484
24.2635
34.3857
48.7765
29.6558
21.0438
17.3604
2.3561
10.1083
4.67085
-4.37024
-1.35745
-15.0067
-9.40774
1.36343
0.178184
-12.1729
-10.6874
-7.34927
9.30583
25.5265
28.7785
40.0552
11.5123
-34.5464
-28.7444
-13.9011
-16.757
-26.2123
-20.4974
-11.4115
-7.08694
-1.2403
-4.51576
-2.99088
7.39191
18.0776
16.7303
21.1978
15.2015
4.92667
-23.1092
-53.6699
-40.2788
-5.46123
-5.00665
-6.1428
4.08735
4.94825
5.25521
8.46034
31.3341
54.2168
31.1721
23.6396
16.092
-3.38996
-9.19144
-24.2458
-36.1727
-32.7349
-10.0347
-6.03857
6.54617
20.7613
27.6673
21.7072
17.9836
-0.500335
-3.99558
16.5837
14.9933
-1.42121
-0.589874
0.197689
1.66517
-18.6082
-42.1729
-17.9809
10.4817
9.68583
-17.1632
-16.2815
-12.3738
-10.678
-8.01846
6.61711
6.22674
11.324
4.16432
7.22178
11.1167
-19.857
-20.5065
-1.56478
-15.6291
-3.29225
8.76051
2.68508
1.25665
-20.6267
-4.75552
14.1111
28.8062
39.5874
29.6319
13.5981
0.930821
-17.7011
-29.2073
-6.45424
3.43929
11.4572
16.8011
-6.23583
-20.5567
-19.8471
-6.56526
0.433891
19.1323
44.2776
16.2566
-5.55896
-27.5587
-33.3975
-25.3961
-19.8972
-12.9639
21.5487
32.9168
24.6393
6.05714
18.4536
23.5869
15.1724
6.26209
-10.6779
-22.8792
-17.1405
-46.2271
-59.5664
-38.2238
-23.3463
-20.7984
-11.6724
3.0838
13.3922
21.7166
27.3
50.9674
57.8912
47.893
22.7953
21.6689
10.2441
-0.10338
5.55189
11.5982
3.48109
-0.603043
-12.4299
11.3372
18.7565
19.4615
18.6387
1.06302
-22.6193
-40.6566
-66.6347
-68.8686
-66.8811
-72.2768
-55.5041
-37.5584
-4.04617
30.5224
11.2624
-4.21889
17.4187
22.3983
22.4406
1.99108
2.74907
9.50713
5.17735
23.183
42.586
42.6554
49.9585
42.4674
17.099
13.9203
10.8813
16.1541
6.03832
-8.89731
13.8918
22.6222
-6.57669
-23.3099
-33.8453
-34.4897
-26.6534
13.4303
12.7195
-8.72598
-12.3987
13.9987
18.5912
2.4541
-27.3574
-18.5205
-5.62938
-12.8846
-15.0692
-7.1162
-4.3059
-23.0282
-46.5507
-50.975
-6.85437
35.8946
25.0105
-12.8785
-11.5133
3.8082
21.7636
23.0731
9.81018
22.7288
30.0625
24.8146
21.1037
12.7428
-1.58631
-26.3484
-23.6624
-1.07135
-4.20425
-1.39348
-8.67399
-25.4076
-23.495
-33.5558
-8.20498
8.2222
9.49458
7.91736
7.79278
-3.61196
-3.77291
-4.51602
1.01999
16.9598
15.0639
14.3919
10.4161
10.9647
34.819
53.6235
51.9048
42.6764
13.0923
-16.9585
-41.3071
-38.8634
-26.6645
-15.1223
-13.6564
-11.5816
-6.72928
-15.0011
-6.09366
-14.8443
-24.077
-14.8966
-9.41104
-4.18775
3.03792
1.35047
-8.59138
-20.8427
-5.07943
3.94855
8.75979
4.7311
13.8552
13.9561
14.4994
2.98004
-1.14408
12.1945
17.4692
13.6513
11.2627
35.1769
21.7393
-1.23436
-8.73026
-6.23404
-7.02588
-18.0954
-30.2891
-3.87679
7.41476
2.95831
-9.28467
-9.54664
-2.55788
4.75419
-1.27747
0.5196
16.3828
13.5341
16.2329
0.263915
-5.12085
-3.10815
-18.334
-27.6222
-8.49031
1.48749
16.15
5.93908
-3.91834
-1.46754
-11.3725
-24.7021
-18.8544
6.9071
9.17245
3.76143
-7.23993
5.74509
1.21238
-19.5738
-0.711271
17.2781
19.5633
9.48087
-4.99145
-5.90791
3.95498
-2.49364
20.6275
14.4818
11.9734
25.8102
33.9119
16.1478
4.94992
-17.5911
-7.00861
1.28307
-3.15811
-15.0147
-27.7261
-35.9385
-34.6561
-33.3843
-24.5672
-7.78715
-5.42703
3.60274
-0.606153
7.91985
12.954
7.13533
-6.35879
-11.758
22.1844
33.5264
6.02688
-3.98299
11.4061
25.5256
23.8407
-2.31916
18.9167
39.1797
25.3333
1.64037
-8.41117
-14.4503
-22.272
-29.0194
-27.894
-5.88871
-7.24566
-14.222
-34.9819
-23.3108
0.460034
9.60254
10.8411
28.7212
30.2268
49.0566
42.7202
35.1417
13.8046
-20.4322
-28.3655
-16.5012
-20.7035
-22.1681
-7.71193
-10.4775
-13.8709
-5.95536
-14.6468
-8.43912
-12.2254
-12.5295
-8.74978
-17.9024
-25.1131
-25.4244
-28.1929
-32.1038
3.00829
34.2182
32.938
20.5464
21.8601
32.106
20.5144
2.34058
27.4624
31.4665
27.4325
23.7762
6.50614
4.01985
4.92137
-19.0007
-10.5013
-2.95232
-9.59234
-11.3492
-15.3999
-10.8338
0.874376
-5.46603
5.97954
9.70008
-1.03959
-6.87274
-12.3044
8.24653
-6.70684
-46.7577
-50.8187
-29.4063
24.2101
50.8335
46.8051
24.6984
8.87794
3.04141
-0.733711
-18.4299
-13.1441
-1.78775
-18.9379
-30.1684
-20.1754
-3.03322
1.51198
-9.94222
-10.8035
11.0746
45.0179
47.7749
11.2547
-6.77167
-12.9392
-13.9955
-13.925
-8.91666
4.8503
8.85303
8.48019
14.122
11.8609
22.3173
2.01374
-22.8418
-14.7238
-16.8953
1.27184
17.9318
-2.71681
-21.5899
-43.6252
-36.6236
-21.0096
-17.5616
-22.2157
-22.7214
-15.2457
8.73697
25.9202
60.2376
65.8489
49.0668
38.4657
33.1489
19.9637
20.9317
22.8618
5.45623
6.33318
-5.31046
-12.3762
-20.0321
-27.5324
-20.447
-26.8597
-35.1673
-26.0165
-9.72171
-23.9131
-47.5123
-42.8274
-20.0281
5.45545
15.6379
8.40975
28.4038
22.6511
13.861
0.272171
13.7609
31.2812
17.4972
-11.4906
10.0867
25.5215
27.5062
10.3673
-7.11423
-14.7223
-31.51
-37.6049
-26.9153
12.4527
26.7135
17.4334
1.08681
1.4556
7.19317
5.459
-8.54526
-7.74541
8.61807
9.73703
-10.0707
-20.4577
-9.88736
6.69469
-8.10165
-14.222
10.4216
10.6541
1.06337
-15.2824
-11.2955
1.99626
-6.29038
-12.0268
-5.78748
15.447
19.9202
24.2282
11.6399
5.63661
1.89144
-3.40807
-12.6575
-10.8018
-2.40508
0.854708
-19.9172
-13.5843
1.54126
-5.35899
-5.20087
17.6655
15.7248
15.2301
14.7936
7.77039
8.97172
-13.077
-14.8423
-6.96126
-6.97753
1.67843
9.01765
13.3065
23.3332
12.6683
-2.25314
-6.02294
-15.9868
-26.0755
-18.2753
-20.9471
-9.02567
6.23287
-0.949076
-1.3696
12.5618
16.3108
8.02545
-2.09395
-7.05946
-2.50417
-10.638
-29.0478
-23.4892
13.4088
17.3571
15.3374
11.8277
24.6102
31.7325
20.4975
7.35729
-4.6768
1.92692
1.69777
-13.7258
-17.8095
-16.4156
-7.2693
-0.840179
-14.5811
-11.3863
4.60741
-15.1707
-20.6513
-6.28284
14.7558
39.6205
31.6869
11.9489
-0.640852
-9.32485
-5.01479
-8.62839
-17.2339
-7.27074
-0.21081
4.4683
10.4899
-6.73112
-4.8283
-2.51951
-7.41149
8.56952
0.643463
-10.46
-13.0929
-19.593
-8.49036
3.11681
9.43411
11.7821
5.55661
1.33908
4.44644
0.791119
14.0903
15.6963
-2.94745
6.11784
6.07333
-9.06385
12.4734
23.4898
7.82285
-5.93872
-19.9881
-20.143
-5.99328
-6.02484
0.0542335
-2.42559
-1.44995
5.85649
11.1527
13.8608
6.38763
-0.117118
9.10019
7.69674
13.9017
9.11797
-33.8049
-46.9325
-34.9464
-26.2943
-18.5374
1.37965
-3.65599
6.92361
18.2486
42.3031
52.5873
42.8308
3.65757
-15.1473
-15.0369
-30.8112
-34.7113
-27.7283
-14.5152
3.78804
16.1629
17.9938
3.59136
24.1624
11.0349
-10.7265
-7.3916
-3.81749
-9.24815
-14.5285
-20.8654
-25.6671
2.93687
5.48396
7.66931
16.8091
16.0364
11.8852
5.68252
12.3578
17.3077
36.9794
59.1748
54.1864
45.5817
25.6523
-12.324
-41.1841
-54.6017
-57.3717
-53.3088
-34.7803
-23.8589
-16.0579
-8.24177
13.043
17.3731
8.37786
11.4168
7.49053
-0.892051
-12.5262
-36.9093
-58.9377
-36.6756
-27.5817
-7.92391
4.64197
11.772
14.8558
30.548
39.6208
40.2093
47.0856
37.7795
26.9691
18.876
8.02832
-6.51526
-20.1343
-11.7447
1.85426
7.40688
0.631364
-19.6699
-12.4678
5.32142
5.30096
8.04488
25.4125
20.1546
6.47407
-14.512
-21.8415
-12.9678
-16.6628
-27.5789
-26.0919
-1.55596
3.31856
-0.340019
-7.81459
0.659707
9.41696
1.40955
-8.2877
12.5781
24.614
1.23419
-11.6287
-3.54221
3.30225
-3.39664
-20.3033
-13.3977
-2.3902
-4.01051
-7.36123
-14.8367
-11.3809
-16.2421
-23.7031
-23.1896
0.817883
4.75089
5.72931
-3.43599
2.56474
15.0909
4.20926
1.34028
20.3858
47.0143
62.806
70.7116
53.5077
39.7736
24.73
-1.96645
-6.27456
-24.8558
-27.1999
-22.5562
-30.6069
-30.1138
-36.8429
-35.4612
-17.9
-8.50103
6.35567
14.8713
0.545125
-16.6675
-21.5211
-16.8403
-8.40105
-11.7695
-12.8587
-11.3926
-11.4313
1.56194
11.041
8.58429
10.5756
33.3285
43.755
40.0874
30.2083
32.872
27.9
8.07672
-12.3581
-26.1689
-22.3117
-30.4774
-31.2357
-14.5471
-2.70228
1.91602
1.40827
-4.12941
-18.3456
-6.27783
5.4455
-9.13287
-9.19906
-1.13734
-0.383258
-11.8552
-18.3682
-4.65465
10.3168
12.0853
13.8747
13.8582
18.2699
13.7982
1.96532
11.2692
11.1155
5.39577
1.99096
-1.31856
-5.17444
1.48613
0.0109279
-14.1439
-7.17683
16.7239
15.9621
13.3679
5.50031
3.51609
-1.83891
-22.9952
-14.8245
-9.58596
-7.38898
-12.2048
-12.3147
-6.73572
2.33727
0.0942991
-2.18691
-1.05631
-0.969296
-0.74513
-7.76594
-6.84206
-2.24037
-10.939
-2.52172
20.076
20.3561
17.8568
3.74052
-2.55044
-0.759769
-5.11524
11.24
12.512
11.7154
12.7482
7.46499
-0.959556
-10.9622
-19.6857
-1.56843
-1.00657
-8.90795
-12.9025
-16.3877
-19.1715
-20.3201
-14.3975
1.72839
22.0236
36.3225
29.1309
19.2819
3.2285
4.42027
12.8785
-8.76561
-27.8146
-7.00008
1.54151
-5.99372
-1.67924
20.0482
18.357
3.45845
-16.8946
-26.4178
-7.52679
25.8687
23.3281
2.52187
-7.14551
-26.7088
-30.207
-24.9961
-24.7107
1.87986
11.6732
6.33657
14.9069
7.6142
-4.10689
-10.6353
-6.65438
24.5492
21.9407
26.193
23.0988
-3.66532
-23.2672
-37.5002
-42.053
-17.4757
5.53259
16.2443
15.5518
8.0358
16.0003
1.83326
5.65695
29.3389
34.3056
22.9345
11.7924
-10.8745
-15.2582
-14.4584
-23.2352
-32.7714
-6.86643
14.1129
21.3852
8.2754
-2.97196
-4.10575
4.02175
-6.73794
-7.32548
7.09339
-7.84287
-29.0871
-27.6564
-17.5146
-6.9478
-9.73439
5.81242
17.8832
17.788
14.3781
-2.54291
-5.31502
4.83296
-4.82565
-7.41307
1.48334
2.78637
2.21904
6.97733
4.33734
4.26847
2.63489
-4.02113
4.40264
19.045
18.7981
17.4735
17.8047
7.62083
8.1192
7.42628
-7.18236
5.77974
5.16205
-3.74381
-18.449
-30.2747
-36.7799
-42.3156
-42.426
-31.1977
1.04414
30.5937
34.25
12.8559
11.971
5.95206
3.39301
15.5235
7.16786
4.41424
8.78834
-2.03331
-0.246676
2.46691
-0.119038
-1.18529
1.27155
6.70817
5.5507
1.6417
-21.8379
-38.7404
-38.4484
-28.0208
-19.3912
28.5108
59.3573
60.1212
39.5046
8.87729
-9.45127
-20.847
-21.0633
-8.78768
-8.51023
-5.57849
7.12438
3.42091
-10.1978
-9.08499
-8.77936
-12.2268
-4.79632
-6.05243
-3.97414
-16.8931
-24.1238
-19.5281
-0.611191
3.85774
18.039
21.3767
32.6594
18.9057
8.80556
13.1388
17.7217
19.5759
-1.08501
-26.4641
4.7537
29.1751
9.71811
11.9383
16.0581
-1.8598
-21.1233
-31.7893
-44.8179
-27.2457
-8.96947
-9.2563
-13.6318
-13.7879
-10.9785
-10.32
-17.5248
3.33765
26.0964
36.28
19.2435
7.07336
11.9353
19.5838
13.7591
13.9041
16.2524
9.15157
22.2101
23.9652
1.5048
-7.17721
-20.8393
-32.7673
-32.7785
-20.545
-18.7409
-29.5588
-18.4666
11.5756
17.9859
8.94681
-22.9142
-32.6479
-0.618699
11.5364
6.37915
10.4164
13.7459
8.97164
-0.937495
-6.25591
9.85096
37.5109
26.7494
1.47948
-4.94234
-6.54272
3.36778
3.95155
-13.9964
4.28569
18.5501
15.1908
-11.2632
-23.6062
-13.3613
-8.21678
-5.10097
13.6404
8.02276
6.86885
0.528685
-1.54027
3.43842
-3.57502
12.0713
3.3347
-14.6066
-30.9131
-22.0081
-24.444
-11.2092
-13.5541
-4.75415
18.3358
17.5452
1.6189
-2.13559
-7.28746
3.3745
16.5544
11.7058
-5.71858
2.30428
27.5803
37.2317
49.4305
47.4258
29.1139
8.12489
-26.5388
-48.4057
-31.496
-10.8699
-28.2086
-28.7292
-16.177
-4.57236
-8.98681
-14.7306
-16.7804
-7.10432
11.4843
0.494259
-15.5872
-32.2359
-41.3547
-29.7734
-12.1408
9.43905
55.1715
69.6746
61.1578
42.2923
25.5564
12.7076
-3.39941
3.81649
4.81293
10.4953
8.18943
7.927
-4.96319
-12.417
-4.32428
-2.74886
-23.6073
-24.4879
-18.3888
-11.9968
-13.0881
-4.31699
-5.83522
-16.5156
-21.0593
-28.3884
5.58092
11.0199
9.30195
6.96061
0.241
-4.86483
-6.87427
-23.7414
-5.94636
3.70234
13.0505
9.31037
10.9368
15.1682
7.72004
8.43814
27.5543
22.4027
15.9228
21.0609
23.6106
23.2177
13.2923
-14.7737
-19.6383
-5.39974
-14.4602
-13.9234
-24.11
-29.2136
-19.7942
-15.0312
-28.238
-39.2696
-28.2139
-0.423521
4.17429
15.9231
29.1736
26.079
8.04831
-9.02142
-9.57291
1.02313
6.97658
-5.2411
-5.03063
8.42254
15.126
25.8007
27.6492
17.5781
33.5169
32.8225
19.9703
9.40597
0.883
-8.27738
-23.0071
-28.9733
-11.4192
-6.21046
-13.6287
-19.1213
-19.5963
-24.7217
-31.6058
-13.6602
-1.40405
4.69696
2.22804
-4.9574
-11.4849
-10.4948
-6.05763
42.9259
56.1325
48.3208
41.2902
9.5513
-24.5176
-31.7203
-35.0527
-10.8584
2.45549
-7.03578
-3.31257
-7.32452
-18.6177
-21.639
-19.5777
-8.35593
6.73338
10.3771
15.1064
-5.93465
-11.6989
-5.96948
-1.01102
3.18381
0.92419
24.7507
39.7966
29.7961
11.6848
10.4411
23.6702
17.732
1.67562
-11.9965
7.02783
13.8641
-2.70446
1.24481
-1.05605
-24.5631
-36.8887
-52.9654
-46.4358
-6.11118
10.1689
15.0706
29.9414
26.611
12.789
0.0868997
-13.5285
5.02976
2.15775
3.93484
-3.59568
-6.22559
-10.2867
-14.1533
-22.4269
-19.0449
5.1132
26.047
22.0942
17.1528
10.9035
-4.89994
-5.63941
-10.1455
-12.7219
-12.1192
-3.62545
-21.3855
-17.7674
-4.05236
9.05548
15.1781
2.2995
-14.2386
3.88927
10.4929
6.50531
5.48881
8.94414
-0.396196
-7.02892
-7.27651
29.4651
41.7637
33.4013
20.493
16.5895
14.6533
0.902576
-7.68712
-9.86596
-19.0597
-25.7273
-21.9796
-30.17
-26.8038
-27.175
-22.4398
1.91634
-0.54994
1.35119
2.79674
-7.56506
-5.44702
-3.22855
-7.53819
-6.01407
5.93142
15.9067
12.4387
-2.25787
-3.03006
9.67006
21.5246
18.8711
23.7366
24.1424
33.593
21.2421
16.9797
12.4675
3.82733
-12.8288
-21.4926
-29.0715
-25.4706
-4.69579
0.0887219
-5.28884
-6.46606
-13.7184
-21.1951
-20.0195
-13.8047
19.9763
20.856
15.9303
-0.841962
-11.3824
-14.5701
-18.2517
-27.5773
1.79744
32.2399
42.4521
37.388
14.8067
-17.3418
-41.4713
-43.7226
-18.6661
-6.22096
0.386347
2.72245
-6.8909
-8.24552
-4.7157
-5.40851
2.65903
20.9809
24.4505
31.5267
14.214
4.51052
-0.355958
-9.02771
-20.4143
0.752819
34.9156
33.6693
20.8843
22.2454
22.9183
2.44324
-24.3711
-20.9315
-20.3025
-5.14644
0.768074
-4.78632
-3.75094
-6.56037
-15.8108
-9.89333
-12.9613
1.93787
13.9518
6.01665
-6.60481
-21.5099
-31.9277
6.44412
14.4338
15.4495
20.6042
8.42233
-0.746154
-16.3196
-37.4997
-26.4927
1.39377
3.67223
0.178286
-18.3325
-21.8154
-10.7662
-2.0198
-6.70086
-2.75949
27.9855
31.2175
14.9151
10.2303
11.8983
15.1741
15.1296
3.79136
10.9246
26.5464
26.1966
1.12195
-1.33405
-3.29608
-0.742292
2.16817
-9.62038
-12.4613
1.50163
-6.92638
-12.5712
-11.8556
-30.5424
-34.6098
-36.5546
-22.7621
12.2884
29.0264
33.1331
30.7742
16.6747
11.0155
-0.194411
-8.69392
14.5755
5.15187
-2.66094
-9.72941
-17.4327
-10.26
-18.862
-20.1313
-5.6572
-6.85193
5.34043
23.2019
32.9203
28.9864
15.1415
-15.185
-27.5396
-11.4413
-3.45559
-0.542324
-15.879
-19.4134
-20.4078
-8.84997
-11.594
3.37911
24.3169
30.5993
18.3406
21.3034
20.9767
-0.474367
-40.3538
-26.8205
-14.2659
1.05502
4.2055
-1.77044
6.18082
14.7122
-0.675363
8.17833
27.655
18.4701
6.12805
-11.682
-16.4221
-8.77625
-6.36124
-2.63642
-4.78138
10.5584
29.132
10.8942
-7.95538
-4.76083
-3.39891
-5.78598
-11.3053
-17.665
11.0422
7.32047
-0.68759
1.1923
9.51125
12.5166
10.85
0.346184
-23.571
-21.2809
-9.69424
-15.4305
-17.52
-9.55088
-2.63721
12.1562
13.228
-7.23124
9.12456
17.067
0.0065231
-4.05139
-8.13227
-10.261
-5.95975
-1.66141
9.7426
16.1188
12.0983
-1.94248
-14.3966
-15.0838
-15.0951
-16.1343
6.85762
14.9987
11.8364
15.1561
2.08189
-1.48947
8.05025
15.0542
32.8641
43.4027
37.4355
18.8619
-8.78829
-31.7611
-32.8423
-44.3662
-31.5938
-42.3787
-21.2947
12.5238
26.491
27.7947
20.3671
13.1382
3.11323
-4.10435
3.25404
1.84541
-13.5105
-28.1112
-34.533
-26.6504
-21.7379
-22.1533
10.0555
35.8091
27.6503
30.7012
10.6022
1.58768
3.78083
3.47589
-0.94845
1.14842
17.2324
15.3453
4.73488
7.69345
-8.33887
-15.5589
-9.00918
-12.4215
-4.20957
20.218
20.2535
11.1997
-0.194561
-5.93586
-15.7018
-19.2745
-12.655
-19.9831
-8.23166
3.30364
-4.827
-9.16723
-20.412
-28.8203
-23.9231
4.45922
12.4303
15.2442
13.5628
20.3579
24.0779
20.4489
-4.31217
0.906835
30.647
29.6899
11.359
-1.99639
-8.7659
-15.5828
-17.8225
-9.40696
12.1543
14.8684
11.2431
-13.6322
-21.6209
-15.2609
-26.5682
-52.7779
-20.6938
-3.02985
7.25946
-1.067
-10.577
-1.34842
2.71838
21.9103
51.4718
70.1788
69.2985
44.2261
11.5531
6.71387
-6.37558
-14.3919
-11.1691
-30.0552
-32.9325
-15.8033
-38.5985
-38.9282
-25.6187
-21.8198
-12.1626
3.35314
0.571187
-14.1862
-21.9506
-21.8859
-14.7338
4.22809
13.5821
5.31587
20.1563
24.8714
25.6743
26.9291
25.7744
30.2428
25.6866
11.9237
-1.50689
6.51379
11.8935
-6.18389
-15.879
-3.79027
-1.64117
-14.4312
-20.7676
-18.9974
10.226
28.0265
12.3585
-1.06978
-9.73956
-10.5725
-22.4033
-27.5908
-9.04537
2.9787
0.0843547
-7.65855
-18.0669
-11.4742
-2.83948
-5.57874
9.65927
11.374
7.17879
-1.53182
-8.57618
7.24982
4.6278
-0.326473
-2.40794
9.02688
18.0781
6.88881
-8.94635
0.145047
22.8171
31.6939
21.5789
-0.737776
2.03459
13.9336
-7.35532
-12.6537
-11.8061
-1.15131
-9.14869
-29.826
-28.0313
-10.349
4.63958
7.8809
3.85722
-4.77119
-18.3164
-34.922
-13.841
7.48738
12.9299
19.6342
11.1306
1.96201
-8.68309
-23.6082
-10.0062
16.9623
25.7355
48.5954
61.8648
50.2493
35.3974
5.0926
-7.60355
-8.62866
-0.221505
8.11393
-3.88885
-32.83
-46.5666
-39.2216
-33.5526
-29.9396
-27.6978
-4.25424
18.8028
-3.2518
-17.1831
-26.2967
-33.0097
-31.6644
-32.0492
-25.0403
-3.43779
17.6934
20.0243
25.1603
21.1443
19.3867
21.6325
18.9687
36.7894
33.4193
42.8476
42.7246
26.9124
16.0901
9.09065
2.49216
-1.06688
-10.6051
-8.00612
-6.47893
-7.41592
-0.155546
-12.4498
-23.8938
-4.53842
-20.5967
-30.5301
-24.9309
-14.8724
5.79092
8.48924
-0.200649
6.10617
0.722659
8.28092
9.20538
-12.3888
-21.4059
-9.07056
-0.364247
7.82876
19.1779
8.08378
-5.89958
-17.6168
-10.623
10.103
20.6219
-0.974035
-18.9145
-5.38909
-6.81522
-19.6712
-8.13504
-6.29527
-2.78348
-2.40113
-8.14477
-8.51255
5.4514
1.96977
-6.33548
-6.60441
-5.46593
-3.34604
17.3464
22.9086
17.9219
32.2447
27.2784
17.7421
19.499
8.91066
2.92385
-7.01141
3.93353
16.5986
2.5064
-12.2458
-6.85896
-4.70932
-13.8239
-15.0887
-8.50024
6.21237
-7.30729
6.15728
28.4995
32.2201
38.495
22.8343
3.07416
-23.1879
-15.3091
-12.9202
-24.9319
-38.3006
-24.5485
-23.6514
-27.1258
-42.8709
-26.2578
5.37453
6.64265
-15.6578
-18.5991
-13.9638
-11.7333
-25.7481
-12.6548
-2.52367
7.58886
17.9321
15.515
20.256
27.7779
25.1256
38.5975
55.1717
47.8677
40.2511
26.8479
19.1542
19.6082
2.36992
5.34363
-1.40627
-21.6358
-24.1826
-26.9283
-27.8575
-16.7469
-20.272
-25.8459
-6.1348
5.52535
9.39045
0.379517
-14.2086
-10.2714
-7.23637
-17.9971
-25.6845
-10.2125
11.644
11.817
5.63127
3.73935
9.70836
16.3849
11.5568
-20.3003
-10.0259
16.309
5.02729
-0.426789
5.69305
-2.94878
-21.6595
-34.2743
-19.6927
16.3482
37.3669
29.6387
13.641
3.64865
-9.90837
-8.58431
-18.5842
-12.4822
-3.27479
16.4366
19.7394
6.04367
2.25123
4.45388
-0.958827
5.22094
1.537
-0.345072
-4.1827
-18.0313
-26.9138
-30.8805
-28.5941
7.3629
45.4895
46.4017
41.6973
16.8784
-4.42208
-3.26464
-10.0914
-19.3067
4.86897
-0.104372
2.73075
-4.97294
-4.50684
-8.41598
-14.1305
-22.219
-11.618
-7.1033
-9.30786
-21.4644
-25.399
-10.305
-1.31424
10.4575
34.7294
39.4329
35.41
24.7316
0.293103
-7.30041
-15.4008
-11.793
16.5979
21.182
15.9546
2.72738
-10.1562
-15.4265
-23.365
-29.1469
-19.0278
-14.3103
-7.64479
-7.36357
-6.3644
3.2958
7.51087
11.8871
1.34012
-8.66089
1.20642
17.1688
12.4008
16.0859
23.4121
16.1858
6.11368
3.69172
-3.33049
1.71807
-10.0386
-11.7801
-9.93161
-10.6392
-8.02849
-4.94328
-4.14354
-5.69255
9.29855
22.8543
27.0587
0.053844
-19.1101
-16.199
-20.6871
-19.0394
12.8645
13.8333
16.0711
4.19118
-14.741
-15.0178
-11.7068
-9.37315
5.31249
4.41928
13.5938
18.1829
17.6516
20.9375
6.78266
-5.11117
-3.30958
-8.01079
-10.1757
-13.7168
-35.8002
-35.8903
-19.3839
-0.837325
22.8408
21.3629
12.0686
19.3023
23.8806
39.2596
36.0312
11.3074
-23.8576
-22.8044
-11.4406
-15.9109
-26.4574
-28.7552
-20.2849
-10.7146
-12.3284
4.9618
32.9184
30.8717
15.268
13.5329
14.4879
-5.81483
-48.7452
-62.0047
-47.6087
-20.9792
-1.51303
13.6876
37.3049
49.2979
41.8381
37.0945
27.6355
25.1879
37.1121
28.9257
6.73898
-6.37347
-28.9776
-41.631
-47.4042
-27.4923
1.10609
-0.627667
-5.32005
-10.0228
-2.93887
-9.65507
-28.3156
-31.4662
-6.66895
5.88137
16.0072
14.8114
1.98992
-1.42157
-4.01961
-5.02707
-13.806
9.67554
22.9183
25.9072
21.6935
18.4978
3.79091
1.8979
-1.98012
11.019
16.3668
6.32827
-7.6902
-11.2017
-12.3322
-19.0745
-18.3777
6.95244
-0.313791
-13.3151
-6.35216
-1.98643
5.29353
4.22475
-4.80927
7.58434
13.8147
12.984
13.1011
8.8205
6.68154
9.28047
-12.1715
3.19375
4.49316
-6.1795
-17.6065
-27.8836
-26.7437
-25.2049
-25.7267
-6.13249
19.1698
23.6989
15.5775
6.78457
2.95436
0.207
1.62379
-6.523
-4.95356
0.588791
11.6956
-6.1054
-10.9523
-10.8417
-7.32646
-4.12641
5.25552
3.46156
11.4816
12.4054
-1.32228
-4.3164
9.05738
25.0787
33.4878
19.6934
3.2316
12.9041
0.861603
-6.97595
-14.7714
-32.5722
-41.7931
-30.5103
-0.320443
34.8506
40.641
32.692
10.0933
-12.7883
-21.2896
-23.6204
-10.1041
-13.7556
-21.1535
-17.3415
-5.33446
-5.70027
5.38046
-9.27132
-2.47656
27.1973
30.0442
24.4135
3.50748
-24.6417
-29.5124
-14.242
-0.261431
-11.6532
-2.35819
25.8915
23.9929
17.4769
13.0661
12.6799
10.8069
-7.54233
7.59563
23.5823
12.7842
-9.59224
-5.58296
5.13082
0.773031
-15.026
-13.6963
-6.68607
-8.55642
-1.49107
-1.17901
-4.58175
-9.41084
-18.0878
-13.1345
-7.47536
-5.71847
-1.71725
-5.42256
7.25378
4.6942
-24.1844
-8.9623
11.0939
2.03198
-0.526485
1.44535
-5.09193
-14.35
-12.4284
-3.84577
1.37577
26.1107
38.4439
26.775
22.5165
20.0171
17.8564
15.0712
4.54398
-10.5494
22.9037
15.3196
-12.7638
-17.5872
-16.3303
-21.6336
-21.0422
-11.5288
-12.1114
3.55213
-3.64396
-17.4214
-16.6149
-7.64124
-2.69956
3.36435
-2.45641
3.80482
-5.9603
-6.11803
-11.2142
-7.72337
-0.264367
-2.82764
8.57134
14.6482
11.8242
15.4334
25.4452
18.4919
8.69797
-14.6798
-7.96577
2.09963
3.1335
7.85489
25.2686
31.8505
39.4817
33.8879
3.98117
-5.25693
-16.5291
-24.3253
-30.0208
-37.051
-25.5115
-25.0213
-37.4468
-54.1106
-27.1897
-6.14271
0.799846
13.4824
16.9039
14.6878
4.72062
-13.833
-4.11067
9.23178
12.7064
7.7208
11.2889
28.4462
29.708
18.4602
18.2275
20.2962
38.2704
33.5194
15.2405
6.05035
-6.43463
-21.9901
-33.6112
-42.4865
-25.0108
-1.53901
-6.58394
-20.4649
-21.2376
-27.7446
-30.0646
-38.9543
-25.1593
27.6276
35.9697
29.476
19.0449
22.0435
14.0572
19.5662
22.947
6.55044
6.51704
25.4594
8.26119
-3.45906
-1.83547
-6.15631
-3.55405
-7.1373
-18.6797
2.85612
4.18297
-29.3159
-41.2317
-38.5122
-32.4216
-11.1171
2.78542
28.8613
24.4803
22.7849
16.2939
2.82131
-2.22099
-13.5463
-18.4215
4.32322
8.91176
14.9414
23.8864
11.1646
1.04774
-5.08111
-8.13619
17.2149
5.04214
-5.28683
-5.54981
-14.5704
-12.4218
-11.0364
-13.4171
-2.52978
1.03232
-7.84125
1.76651
-5.48133
0.24444
6.9257
7.26146
2.50065
3.62632
30.6177
51.6529
43.2819
35.8619
22.6484
-7.73634
-36.2399
-59.8462
-44.8191
-15.3111
-13.8372
-8.9869
-0.495891
-0.72425
-4.28718
-8.98817
-14.0649
-10.7773
11.8532
3.42252
-22.7036
-32.6189
-36.5044
-25.9627
-7.80829
5.46145
29.3954
38.3785
38.2489
31.0044
21.7301
17.2635
19.426
10.2129
21.6705
28.8351
29.1562
30.323
6.36461
-2.74559
-12.8854
-27.9469
-22.3347
-19.5226
-3.96634
19.0619
1.32393
-7.41658
-12.8822
-24.7527
-39.9807
-20.2809
-9.43722
-0.210797
-8.1487
-14.6981
-11.6151
-10.3586
-24.9687
-2.45641
14.0358
18.066
13.4413
7.35651
-0.157131
-6.47955
-14.7827
-0.0514427
6.27889
15.5855
25.3799
11.0373
3.49959
2.58994
-5.27982
5.62097
-1.08112
-0.286497
8.72727
7.89168
9.46861
0.234883
-15.6127
-0.457874
6.6377
11.129
28.1925
31.8935
23.718
5.45849
-7.85782
-3.98829
-5.28049
-2.60993
-13.0216
-30.6225
-27.2152
-22.9091
-19.7445
-38.6001
-33.0537
-9.67829
-8.42699
-19.4045
-22.0888
-4.94095
20.3796
42.119
45.9591
47.9283
62.849
42.493
22.4059
11.6865
9.34129
1.94628
-8.45314
-25.1157
-17.0328
-10.0685
-22.2349
-29.9283
-29.8816
-35.081
-32.56
-36.2061
-25.4454
-16.9378
-13.5236
-9.44073
-9.07693
6.10387
16.374
5.56363
19.8173
35.917
26.7206
32.9414
27.5971
26.9396
30.8696
22.6597
10.7622
1.93877
16.878
2.43641
-11.9577
-21.2858
-22.4454
-18.7653
-7.89255
-5.93411
20.1854
38.5079
16.6647
-13.5885
-9.12032
2.68841
2.23141
-8.89091
-14.1568
4.45018
0.955331
-2.41093
-18.5724
-22.5441
-38.4041
-58.429
-45.1973
-27.3909
-11.4586
13.8136
3.69131
-2.3652
2.9396
4.11728
1.71892
7.78276
16.6797
12.9823
13.3554
6.5947
23.2781
32.3535
28.2302
17.0172
22.0747
32.5693
9.83484
0.586297
-7.29498
-12.1078
-1.44935
-2.40069
-6.13348
32.5999
74.7996
75.952
58.7474
47.709
17.2064
-37.7546
-77.6989
-98.1623
-89.8532
-69.6434
-54.5323
-40.9088
-26.3532
-24.0949
-38.0762
-53.4302
-20.8508
31.2651
64.3974
48.9227
10.7385
-21.382
-45.5362
-50.1352
-11.5042
16.1694
30.7423
44.5475
44.498
51.296
48.0142
41.9724
57.0044
51.9969
34.3134
17.1193
-11.1304
-31.0837
-44.0847
-55.4236
-22.1003
-9.14866
-11.337
-11.1403
-6.83024
2.45222
6.28107
-4.41815
10.1998
37.3933
26.847
20.1501
10.5125
8.35371
4.64063
0.825417
-14.3304
-5.85005
-7.50212
-23.9705
-52.391
-52.3094
-32.8465
-16.1255
-18.449
-5.36573
19.6862
24.8929
4.97271
-11.6467
-9.37626
-1.08086
3.41361
-3.04264
3.28338
28.3508
24.1344
5.42357
3.52781
12.1222
9.93579
5.53575
-0.914237
-3.41237
-6.35239
-8.52433
-9.14903
1.99517
3.13427
-4.0972
-2.51635
16.2952
7.73291
8.36601
7.67392
-11.8682
-24.6654
-19.7044
-7.94502
1.98204
19.8717
28.7395
39.7952
59.4322
92.7972
93.163
72.2534
24.6522
-51.196
-79.6618
-75.9762
-74.3408
-36.9862
-28.618
-53.7959
-74.0236
-39.3077
-4.15091
20.9759
6.68913
-53.3423
-78.3209
-75.1882
-75.6176
-41.6626
18.5122
25.5294
34.3084
55.1049
64.4178
70.0719
53.7645
51.3141
65.2721
68.401
69.2987
50.9318
19.6146
-5.52624
-21.747
0.0864857
17.2072
24.141
21.8966
-10.3009
-47.4043
-55.7939
-44.1946
-11.595
-7.04819
-10.0526
-8.08388
-16.7944
-23.8164
-20.9552
-15.6331
-14.6113
1.54593
1.44286
-4.59523
-3.55486
-5.17885
0.55178
5.10742
-8.57525
-26.1021
2.48725
33.8573
36.2697
27.1152
-1.6356
-13.0586
-25.1911
-30.3018
-8.94598
25.4962
18.1247
-2.88739
-7.95973
-5.29613
-10.6579
-16.8423
-19.7579
-14.4046
-17.5931
-6.47965
-2.74875
-12.2304
-15.8497
-2.87248
17.1906
43.9188
38.0255
38.2839
35.0031
20.3293
16.7858
7.66851
9.20252
10.2767
19.8242
26.0279
13.0072
-8.09699
-21.8431
-28.0933
-27.9848
-30.8237
-20.5478
-10.2136
0.383449
-4.22287
2.57833
5.08354
3.69656
-19.8228
-12.37
9.61168
10.4122
7.57532
-9.00039
-7.49736
-2.97754
-12.2196
-5.45687
0.157794
-11.6593
-14.6371
-22.0046
-16.9226
-6.13529
-5.18066
8.04242
40.8303
47.5587
29.6227
7.59372
-4.406
1.6657
8.74853
3.72794
-12.3439
-9.37351
-8.53795
-21.3518
-21.0447
-10.2023
-0.269627
1.93205
-6.03124
-10.3786
16.6402
21.1116
2.80307
-0.94733
5.26195
11.9725
12.796
16.0785
3.522
13.0037
14.4012
5.29001
9.26907
15.066
-0.497422
-8.94294
-2.30373
9.83965
-0.557564
4.83211
-1.74811
-7.77404
-15.5004
-33.5939
-21.3112
4.02374
-11.764
-20.3975
-9.69641
-1.41807
3.09958
-15.5965
-22.3135
-4.11043
-7.94761
-5.71586
-7.65845
-9.69918
3.14429
-2.62941
-10.5546
14.1983
2.78427
6.41254
12.493
24.673
34.2755
24.9857
4.33787
-17.6903
-10.5243
7.56399
15.4103
14.1931
27.3029
32.5612
21.352
-6.85926
-2.16869
2.05393
-11.5161
-24.6101
-13.5586
6.40423
21.9599
8.88386
-12.7631
-15.035
-11.5413
-21.5207
-24.1946
-13.5041
-7.55556
-25.484
-48.1599
-57.4411
-36.2806
-6.4128
14.4661
32.9295
37.0276
19.6681
8.62747
14.7331
15.4887
4.40499
13.0849
17.9888
25.6673
26.3573
11.5349
14.9687
19.5897
7.38253
5.86248
9.00988
9.22371
10.5955
-3.0109
-11.9048
-12.1793
-4.22332
-9.27948
-20.2186
-24.4806
-18.9773
-20.2569
-21.7463
-5.97699
12.9834
-1.51346
-32.4536
-49.2499
-31.4615
-1.25324
10.9099
18.4339
23.9431
20.2815
29.3958
29.093
17.4223
11.8396
1.58325
1.89539
-12.0228
-21.3887
-7.37582
-9.63136
-24.1146
-13.7757
5.23267
23.0862
15.2154
15.0936
36.3414
44.8635
34.9949
51.51
39.1464
-0.260148
-55.3007
-55.7306
-16.9778
-14.1114
-26.2974
-25.5432
-33.1923
-30.2006
-12.7315
15.0075
10.1723
-1.43228
-2.92073
-5.71181
-21.3762
-52.578
-84.3178
-83.4246
-37.1877
10.68
46.9188
53.345
48.231
40.4101
39.2377
39.8982
61.069
63.9025
45.6722
32.9409
34.9567
18.5473
-8.52701
-4.30928
44.0459
34.9831
0.0593543
-53.3057
-75.3092
-62.3212
-46.0396
-37.2682
-30.5279
-33.498
-16.3589
-7.17009
-8.66709
-0.757757
-7.44083
-6.98729
3.19342
4.54546
17.0877
11.716
-28.1334
-39.1585
-17.6585
11.3117
22.208
24.374
52.2953
47.0795
27.9428
22.5658
13.4417
11.2463
3.88751
1.64789
8.61275
-2.51907
-18.4934
-16.9897
-9.55847
-1.872
-13.2845
-2.33315
14.6462
-2.3042
-20.3754
-25.661
-31.6896
-14.716
-16.0021
-3.90187
15.5982
18.299
19.3181
17.384
13.4747
8.38885
-7.83876
-7.54859
11.9353
-4.46957
-23.2931
-19.4914
-3.95996
14.3662
12.8912
11.2904
8.80398
19.6824
17.3785
-1.06305
-10.3289
-0.602242
8.88811
9.35536
-1.22206
-24.2194
-6.53358
10.2113
-14.0092
-19.8096
-25.0704
-32.6962
-19.9114
-4.76114
-7.68096
15.2029
23.5458
10.1046
10.7085
22.1935
23.7073
9.32031
-11.5565
-1.88666
-1.86039
13.7847
29.734
35.6283
32.4846
27.268
-0.524825
-18.8311
-27.9728
-42.531
-47.2509
-47.2241
-29.7947
-20.3991
-24.0938
-13.1766
-11.8227
3.64739
25.947
29.2049
21.8472
-2.84924
-47.2415
-54.9666
-61.7245
-65.1351
-22.9587
52.1771
118.962
128.621
109.281
81.5934
58.3682
22.696
-2.9911
-22.9648
-17.4225
-17.2722
-34.5811
-50.0081
-25.3567
-18.707
-19.4793
-19.3257
7.65856
15.5986
14.2593
-12.1128
-38.7449
-24.4206
-12.1286
-23.1007
-21.7497
4.22629
30.2383
18.4804
-15.3793
-11.9057
3.24451
-2.55739
-19.4604
-7.41821
12.6042
9.66143
-1.91346
11.7241
20.7985
-0.831234
-31.7242
-42.0682
-18.1134
6.1393
0.502863
-14.82
6.18754
1.11351
-8.69276
-3.7378
9.21496
37.287
48.9303
28.1492
12.1965
18.3369
28.0386
23.7479
11.006
0.65735
-7.49611
-16.1074
-22.7582
-13.6605
13.5853
27.3764
15.5646
3.59419
-3.73627
-21.4201
-29.2559
-10.2659
-3.13868
-1.92345
-1.47576
-13.8274
-24.8538
-21.8713
-17.7355
-9.67548
6.29508
5.27326
6.85348
-3.02663
-17.4152
-12.5069
-20.2187
6.80088
46.2439
40.5215
26.8093
-1.36611
-27.5894
-25.3329
-29.3381
-23.1189
38.6975
74.5661
84.5615
49.85
0.143284
-13.2517
-26.9193
-52.0198
-41.9935
-21.1715
-22.0905
-32.3671
-32.4539
-18.9402
-16.6222
-16.8214
-13.5853
1.71129
55.1362
45.3051
-22.6553
-57.0431
-52.4941
-22.6027
7.06538
18.4571
25.099
63.1574
49.1197
21.3575
27.7053
61.049
67.3098
32.517
0.00386723
13.4072
3.27212
-12.2394
-22.2021
-18.7932
-27.8636
-43.7117
-38.2998
0.765985
7.48562
4.38209
3.01474
-5.34249
-9.66741
-18.3425
-27.6164
-29.9684
-24.0584
-1.3921
13.07
3.11458
9.35104
3.87776
-17.2206
-8.05578
23.2097
25.4176
-3.48021
-22.6573
-28.2351
-32.3051
-23.3762
-19.1564
8.01133
22.6434
25.4524
21.7098
19.4386
25.5242
22.7416
18.9623
25.2182
25.3026
26.7513
18.9616
-8.5688
-27.903
-32.2216
-28.4955
-20.2579
-2.85752
18.74
20.3827
3.55588
2.37318
-12.8476
-29.8401
-12.4338
-17.1967
0.449813
22.9242
27.4182
22.6864
6.19123
-21.2505
-45.9311
-8.09415
29.8569
12.1886
-8.85728
-13.621
-22.6424
-27.2081
-41.3286
-29.5249
26.8336
41.3944
11.4163
0.14892
-0.360247
-1.796
0.374442
3.21132
13.6667
39.8722
46.8436
34.4621
17.0093
-4.53607
-13.5901
-18.5971
-13.9648
-24.3535
-19.4366
2.02189
-7.70085
-16.2974
-22.6528
-20.3916
3.96771
23.5315
19.7195
11.0422
-4.49346
-14.5981
-7.26902
-23.0006
-4.73638
19.5598
23.3438
17.9486
9.9019
16.0127
16.3213
-7.81388
-27.0731
-10.6598
-17.978
-3.76985
-3.84424
-15.0162
-11.5159
-0.80429
7.53084
8.00511
34.1749
28.1887
17.2526
6.81214
-2.72679
-9.44424
-13.8162
-10.5556
0.0873625
3.52153
-23.4063
-26.2298
4.51833
14.0135
9.45779
-14.8521
-22.091
-1.8163
-7.73029
-11.8527
-27.4504
-23.3195
-20.7551
-0.38553
10.2306
18.5752
25.6194
25.4955
25.3471
29.101
39.0743
34.2806
18.0225
6.3971
9.09328
0.614841
-11.5742
-40.9336
-47.7532
-48.5625
-49.8145
-29.6256
16.909
51.8389
69.9164
57.9291
29.4502
7.82259
-13.7185
-29.7157
-34.2993
-11.9949
4.0064
1.67358
-11.1318
0.969011
14.1537
0.143889
-23.7756
-24.0523
0.578009
6.75055
-16.9602
-33.6325
-35.302
-26.5602
-14.4396
3.4229
24.8312
34.0463
41.6728
16.4393
-13.6831
-26.2545
-28.5518
-21.9565
2.61583
16.4234
25.3792
14.8781
8.33103
14.5899
-4.56841
-12.439
17.2097
9.45863
-5.61654
12.9902
22.5563
17.9738
5.7424
1.37353
22.8826
25.7637
23.1463
8.622
-5.70952
-6.79781
-11.2661
-13.6074
15.8409
21.1252
5.6431
-19.5631
-44.6842
-29.5215
-25.0456
-31.0737
-45.1159
-44.4675
-10.846
20.6892
2.19862
-14.9394
-15.2292
-4.9162
2.11739
-0.766282
-3.45767
26.0792
22.8344
-1.33221
-10.8923
-5.88674
-6.06938
-7.93337
2.40737
25.1797
31.81
40.1342
33.2712
12.4062
3.85241
12.1666
13.125
38.3751
30.5177
23.6588
21.7078
13.8974
-0.807501
-8.67523
-30.3098
-37.5703
-9.29913
-3.24535
-14.873
-30.1473
-25.4859
-24.0136
-30.3103
-39.5181
-30.1697
3.44706
11.1078
7.47375
13.6559
3.0478
-1.74652
-20.2775
-36.7837
-27.6925
-4.2865
13.4119
21.2687
25.2452
23.8011
16.2543
9.93279
18.6556
20.3957
25.3851
31.1974
10.806
1.07382
-20.5711
-24.9717
-0.295626
0.543209
-2.31889
-13.1683
-17.1227
-3.04124
-3.11197
-15.828
7.23507
24.8646
18.7939
17.5707
4.80435
-0.212684
0.220787
4.22252
-10.1201
-7.96973
-18.6005
-9.1896
-8.18611
-7.0706
-14.0532
-11.1742
-1.80758
5.60471
3.05905
-10.0396
-11.2759
10.2697
27.6043
30.2179
26.6982
16.635
-7.10321
-7.40874
12.8242
-0.392547
-17.9401
-27.3542
-24.0288
-11.4315
-17.0291
-8.93765
-3.57681
7.83981
20.075
12.3489
-13.9759
-32.1144
-33.5691
-8.00072
4.68467
10.4629
21.0447
27.5072
24.9218
9.77338
-9.57378
7.95665
13.7861
11.3514
24.6909
29.5173
19.9379
2.79924
-3.67532
5.48914
5.60572
-10.2146
-28.2806
-38.3614
-24.2627
4.39376
13.9389
5.93853
-9.23018
-24.8942
-10.333
-1.79472
7.0975
8.25343
4.10926
4.81298
0.484507
-19.994
-18.7632
-19.3227
-28.2089
-18.1497
3.26036
-9.90372
8.74472
11.4732
4.21046
9.54536
12.2939
29.4095
37.6586
18.7885
-17.9062
-6.06004
29.2353
22.1656
10.8009
6.96707
-5.58006
-27.2075
-46.7885
-37.2824
14.1432
25.6479
12.9089
10.8427
6.12182
-8.29151
-28.1877
-33.1076
3.54377
4.33719
4.04315
-7.57437
-15.2977
-5.09424
-3.10769
-0.937249
10.2459
35.6515
41.7206
28.4851
-7.61436
0.515013
-3.25462
-18.7819
-13.2713
4.36042
11.7619
19.9324
9.14271
8.33945
17.3891
2.03982
-14.7791
-12.6759
-18.4547
-9.42157
-2.48318
-3.91867
9.56273
-12.0529
-44.1648
-44.1557
-32.1793
-14.3264
-0.865611
2.36093
14.121
11.1821
17.3805
18.5715
24.4038
25.4426
9.97768
-1.69534
3.78464
-0.909782
-4.7281
4.55778
-4.1697
-15.3227
-6.03472
13.8835
14.2145
12.7941
0.396205
-9.5593
8.10632
13.5852
3.94748
-3.77253
-8.90229
-7.85048
-16.5735
-30.3056
-7.89709
7.85237
10.7778
4.90584
16.3653
25.4456
15.8261
-2.51996
-5.93569
20.4046
23.8776
17.3716
-1.28278
-6.50275
-13.8912
-24.6567
-29.4995
-18.471
-6.43276
6.35817
-5.71436
-13.1461
-9.58007
-20.8785
-12.6224
1.71539
-24.0481
-38.74
-24.3611
-21.4611
-9.80097
-7.55126
-12.3462
15.4182
12.5082
24.472
41.4139
33.428
28.7443
23.119
9.73823
3.42464
15.2742
23.6727
2.13254
-9.42389
12.5903
33.4179
24.1006
-0.842851
11.8676
37.2614
29.1263
7.83046
-4.72836
-10.751
-12.8851
-26.174
-34.5111
-15.9835
-19.861
-35.046
-44.3156
-25.8748
-6.27111
-3.39926
1.2474
14.9434
7.57168
5.35391
5.85007
-4.98221
-1.41285
-16.2112
-2.99066
11.7604
14.2691
9.1733
13.1331
5.61866
3.93812
0.486156
-15.3715
-33.4713
-27.1598
-16.18
-5.071
2.23932
9.84846
14.6895
6.69257
-8.54509
-7.94455
15.5067
23.2182
16.5382
11.1933
7.81177
0.996826
-10.9406
-6.66891
5.73641
22.7282
21.9236
12.393
7.32324
1.37157
-8.10192
-7.86622
-20.7341
-14.4376
-8.73747
-10.2619
-15.6012
-18.9272
-12.3699
-2.78521
-2.34494
12.4341
9.64213
5.07319
11.0191
12.0945
12.2222
4.27467
-2.04851
15.974
11.3886
-2.34978
-7.4342
-12.9155
-6.79309
8.34755
10.505
2.9702
-5.68068
3.45724
-3.11314
-9.921
-12.3046
-15.5752
-14.201
-11.324
-14.0411
5.13059
32.7505
19.1182
22.8046
27.8022
29.0256
13.5094
-16.4083
-9.87332
-8.01672
-14.2702
-9.13177
-12.2004
-13.9396
-28.461
-36.4712
-27.9028
11.816
17.4692
14.6636
6.31161
0.478805
-8.18625
-12.3846
-7.5002
-1.67754
-2.07284
26.1145
11.7975
-7.94161
-3.83306
4.52823
6.20767
13.101
-3.16608
20.0807
39.4443
15.5
-0.813954
-0.425594
-1.20883
-6.00677
-13.1524
-26.2184
-26.6896
-0.575724
24.455
28.2097
16.5037
2.43198
-5.02991
-14.1379
-20.4125
-11.2002
11.0789
-2.70615
-11.055
-11.0927
-5.50729
-3.01313
-11.6791
-14.8763
0.599275
6.32761
10.0718
4.03658
-4.06007
-9.69829
-9.97464
6.50209
32.2445
24.7415
22.3105
18.3199
6.84135
-0.0082593
-9.09156
-23.9428
-7.25384
-4.04513
-1.02348
1.67339
-7.47054
-8.3664
-18.3427
-24.6048
-5.75323
-0.686854
13.6776
20.1733
6.99497
10.063
12.2442
0.53353
-18.0639
-2.39004
19.6149
15.7091
2.00017
7.07373
3.84277
-8.85484
-16.3993
-20.7403
-4.56765
16.1021
3.22388
-1.83663
-4.6367
-8.17894
-14.3818
-12.8724
-12.742
3.71369
23.4484
7.2117
-9.1494
-13.0527
-17.2739
-19.6452
-23.7043
-10.4367
6.32314
19.458
23.5316
17.9045
19.9368
16.1915
10.3499
9.93055
15.5096
-2.33763
-12.6118
-9.75819
-8.06591
-10.454
-14.5008
-12.7362
-4.64255
17.0045
9.46485
4.12869
-3.50197
-3.97451
6.10611
2.95227
-10.4549
6.16501
12.3071
15.8872
5.98184
12.1507
17.0907
15.8381
7.11332
-3.6861
4.38365
8.9108
-5.65682
-18.1516
-7.98028
-10.2763
-22.3167
-26.8743
-12.0898
-10.5721
-0.761106
-3.17674
2.77347
1.66042
-2.4581
-1.75966
9.46809
-5.71495
-17.8757
-7.50651
-4.74274
1.82631
-0.0787293
-7.46902
13.878
22.7297
24.1715
22.8499
9.79151
0.263519
-3.88106
-22.9302
-4.82081
5.90381
6.08344
7.33473
4.25306
11.4871
12.7734
7.4361
-3.70077
-5.7608
-2.45513
-6.41208
-11.671
-11.6857
-13.032
-10.1933
-12.8337
-17.2174
-26.4114
4.44454
11.0381
-9.60623
-6.97937
3.72212
6.07209
13.308
5.31028
-4.99042
14.9056
2.13944
-2.17882
4.33749
7.03175
6.15654
1.29482
-5.90761
-1.09133
1.65501
13.4597
14.128
8.86149
16.2219
-0.445322
-8.39855
0.614686
5.64248
12.529
7.03351
-16.2337
-14.6626
-31.6412
-31.0773
0.161802
2.53259
7.56901
12.3878
7.69544
11.6043
15.1879
-1.38286
-27.0481
-12.0375
7.17546
14.0476
14.6079
9.9941
3.77036
-5.62174
-16.4932
1.84164
14.7706
12.5407
-7.91795
-8.1602
-7.11776
-13.3992
-7.73399
7.21873
9.39411
2.84466
-0.152054
-8.75975
-4.98723
-15.2041
-37.2167
-8.24038
18.6696
22.7919
22.7424
16.4788
16.9462
2.9459
-15.7592
-24.8714
1.73644
11.2518
9.50469
2.73242
-5.3578
-8.88413
6.41741
7.10772
-8.57057
10.7842
17.8561
-0.186882
-12.615
-10.6478
-5.68461
-5.54001
-5.31618
-15.6263
-8.50587
4.12759
-0.79737
-8.92431
-12.0543
-9.90999
-14.0746
-3.25753
24.2551
18.5415
20.3191
14.578
9.79097
0.146078
-12.1295
-15.4911
4.55732
0.533619
0.323277
9.19294
6.33376
3.95188
-12.6867
-12.3648
-1.48567
-12.8085
7.61725
13.5603
-4.48895
-5.49809
-10.5484
4.16188
15.5694
19.855
23.0426
16.1172
-11.1298
-12.5788
-17.0824
-15.8664
16.1269
24.0044
13.4787
6.73103
-6.1429
-19.8197
-29.7696
-21.6958
-23.9939
-13.2607
11.3069
5.10563
5.7221
3.46715
-1.38253
-1.09476
-7.98407
-16.6762
-7.08101
19.8858
32.0971
18.7819
3.04544
-1.90398
-2.60722
13.4516
20.7656
6.10491
12.7578
4.48122
-13.2826
-21.4741
-13.65
-9.43953
-13.5476
-16.2968
9.91308
12.8637
13.9099
2.89446
-26.9068
-26.3052
-21.5939
-24.8475
-7.6547
25.4374
30.1363
25.2175
11.5769
13.3111
14.4551
0.32103
-22.2826
-8.93058
1.47294
9.24425
-5.70246
1.12652
5.69066
5.96176
-4.85415
-14.1677
9.23219
11.2342
5.29571
-2.34031
-0.82184
3.42561
-10.4026
-7.56791
2.15528
4.40068
10.4579
4.69987
-2.9003
-2.26197
-11.6803
-15.6876
-18.1609
-17.6681
-8.54123
5.03446
3.56314
10.1191
-1.3005
-14.1327
4.06141
5.8519
10.4635
10.8903
10.8845
17.044
3.93705
5.73104
31.9639
20.2981
18.2129
19.175
4.74933
-11.7715
-19.639
-26.8637
-28.14
-4.78691
4.1117
3.57438
-4.90357
2.2768
12.0282
0.704008
-16.6343
-27.7998
-3.75564
0.59978
-11.7109
-10.5855
-12.7422
-13.573
-10.8946
-19.8072
-20.9837
5.3162
2.55675
-3.83066
3.36884
6.95278
4.64503
-1.41318
7.62661
25.326
20.5856
17.4007
7.99874
8.8841
5.89881
-7.66754
-0.413354
16.9933
4.02127
5.0749
6.38087
1.18744
-3.93993
-17.647
8.82419
26.8314
15.7975
9.63993
1.29442
-5.58022
-2.87517
-2.14175
-16.6607
-15.8309
-7.9977
-4.93082
-2.76033
-11.9228
-1.84954
8.15792
-1.35551
-14.2811
11.4353
13.0013
-9.06968
-26.6427
-21.9367
-8.21761
-6.41416
-0.335712
13.9495
17.203
21.7619
13.6773
4.10549
7.16677
-9.36733
-16.6132
7.39495
-0.782642
-6.19896
-7.74938
-11.4546
-5.64643
-23.9993
-25.2221
19.5543
29.9799
20.7434
15.9892
5.4228
3.85398
7.52328
1.32211
-18.4193
1.54911
16.4771
13.0866
1.67285
0.294172
2.3922
6.62419
-1.13236
-13.9522
-6.39741
19.1614
1.0417
-4.25068
-6.38139
-13.5978
-14.6838
-13.1525
-16.4085
0.332246
17.0792
0.80179
-8.6965
-8.9321
-17.5992
-14.0394
-11.4065
-1.27591
11.6147
14.8539
10.5513
3.88337
-5.58238
-10.5339
-11.2403
3.28515
6.6349
8.83719
13.3549
10.0639
8.24409
0.934038
-6.30294
4.97852
4.17527
4.32473
9.96112
5.75276
1.73118
2.96014
-3.03806
9.39054
10.3549
10.8606
10.0918
-4.65376
-12.2676
-12.1409
-10.883
-14.6011
-5.7925
3.48483
-3.05949
-19.7064
-23.0966
-11.5374
2.00897
0.521906
-10.8564
3.84406
8.86135
1.36033
-0.108419
4.1936
11.2415
18.7851
8.90633
3.49533
3.8249
16.8984
11.3688
3.48936
5.91907
3.55927
-3.52983
-17.3977
-15.1969
-4.77978
-2.58213
0.544162
-6.5291
-18.2617
-14.2474
-11.2991
-2.60651
11.037
13.9887
7.09193
7.08748
-4.69598
0.137261
-6.29662
-18.1254
0.0122928
30.4416
24.4572
9.10079
3.08437
4.44329
-4.93197
-15.1233
-28.3622
-10.735
10.9146
11.7574
1.86965
3.40476
1.81141
5.5633
7.68898
6.07708
11.8066
19.4931
8.22015
-9.3534
-9.5712
-8.78881
-13.8794
-25.7322
-11.7641
-0.169818
10.7399
0.827871
-7.63939
-11.2828
-18.7303
-6.85611
17.2021
13.4506
-2.14561
-15.6324
-20.1864
-2.81024
-6.96726
-7.14645
15.0197
15.4878
16.8947
16.2784
5.26415
5.94711
5.35665
-18.113
-8.6562
18.1235
17.0629
8.00656
-4.23546
2.60517
12.7081
19.3256
2.62084
-10.6503
-0.338869
18.4588
-0.0907392
-5.64882
-7.91487
-16.7971
-26.1519
-21.9793
-25.2125
-1.95093
27.7088
5.67393
0.354412
1.60084
-4.29877
-3.93862
-5.11144
-4.73522
21.988
11.3383
-4.02918
-19.087
-18.1396
-17.046
-17.3947
-7.08152
15.4851
25.9218
22.543
14.9099
-11.504
-13.5566
-8.1142
-5.28696
9.55657
9.36947
8.92057
24.5825
18.7674
9.46586
-6.56027
-25.1976
-16.4559
9.26957
11.9492
13.6973
9.68905
5.26293
8.9245
6.20336
-17.8214
-28.2843
-14.1638
6.5476
-5.63811
-8.72527
-7.12836
-5.72392
-9.38465
-10.3897
7.66865
10.2942
0.77323
-10.5153
-4.21569
-4.50893
-14.0112
-19.1066
0.463561
3.42856
6.59192
15.3876
11.7835
5.80088
1.85856
-1.28097
14.2986
17.59
11.5431
13.4423
12.2339
22.7875
10.0951
-22.2814
-10.891
4.4907
-1.36096
-10.3875
-16.8163
-9.56692
0.680148
13.0701
13.7369
8.0527
7.37942
0.195087
-13.3572
-14.7131
-10.2226
-11.857
-23.0954
-25.1417
-1.14156
14.2205
12.1477
-0.673296
-10.0303
-10.6822
-6.20905
2.28117
0.67388
6.33833
9.11277
3.20622
-1.58392
2.86403
-0.697065
-6.89097
-13.5491
6.97156
12.4324
4.18188
-2.07587
3.22086
2.81308
3.52685
8.19531
20.0424
18.6221
11.5651
11.7003
5.88616
0.480568
-4.34923
-16.6481
-6.9223
-5.15228
0.204052
6.76765
-2.68048
-5.87195
-3.85589
-12.3623
-28.0631
-11.4287
8.63885
10.0715
4.64165
3.92625
3.09627
-3.49855
-11.0392
-28.4291
-25.7291
6.73172
12.862
13.242
16.2158
18.1649
6.9284
-2.63576
-6.37834
10.3634
17.56
3.1049
-6.93501
-2.74974
-12.1981
-19.4232
-22.9167
-5.55235
5.89474
12.6507
21.4812
13.0143
6.51839
4.13434
2.96133
0.998005
6.76711
22.9511
8.91904
-9.76252
-13.1797
-17.5707
-21.3997
-21.1892
-18.133
-18.1144
12.6867
21.1434
13.2138
11.0956
-4.2468
-23.3057
-17.3219
-6.31255
-5.63573
9.40996
3.64413
-11.5303
-4.13512
-0.881094
5.98406
10.7277
1.46712
7.97223
18.8121
26.0048
13.7897
0.738878
-0.630475
1.77836
-3.26819
9.90325
22.8439
13.3799
11.484
0.732591
-3.86844
-9.00325
-19.8589
-11.6874
-1.92072
-10.4994
-1.3184
-5.3956
-18.8383
-30.1823
-45.6915
-31.587
0.821284
17.2939
28.551
20.7432
3.04874
-3.78461
-14.3207
5.31643
1.35278
16.2208
22.9919
13.1638
7.49555
8.15785
7.20668
1.90674
-1.08727
9.8738
1.58372
-19.8478
-26.4916
-10.4202
4.33669
7.45979
-12.9191
-2.65909
27.3749
12.1419
0.27291
-11.0647
-3.29755
-3.685
-6.18707
-9.07257
-12.7678
11.0883
10.8912
-2.12537
7.36078
21.3711
20.1829
0.605863
-7.97186
-2.93482
3.49789
3.04983
-7.71756
-9.95015
-4.67221
-16.7436
-14.9966
-2.41355
-10.3226
-11.6977
-10.1589
-22.9919
-18.2446
-13.3221
2.99554
34.0594
36.8393
20.3483
11.5123
1.7208
5.77615
7.3213
6.21726
-7.24608
-1.10456
14.4344
7.36901
-5.39821
-10.5181
-5.25666
-1.54816
-11.3456
-13.1056
-0.320083
0.128456
-2.76367
-3.58633
1.13899
1.09864
-11.085
-6.81078
10.6699
13.7312
18.3211
10.4338
0.361283
-4.01185
-14.8973
-6.46311
10.2688
7.71363
8.73109
7.08331
-1.2044
-0.340302
-14.6697
-12.8038
14.5066
12.8297
8.97461
-2.71098
-11.528
-14.5408
-26.4498
-21.2805
7.35209
10.5742
8.02422
5.81496
-5.04644
5.99255
9.64696
9.7032
7.27232
11.4252
-7.34297
-25.4504
-25.4518
-9.92561
1.17405
2.10229
-7.87718
-21.948
-13.9735
9.1433
0.86291
4.88564
15.217
20.0324
10.9463
-7.6975
-15.9291
16.9061
18.5826
13.9644
19.2151
18.3031
4.20754
-5.58533
-4.52575
13.4958
2.36112
5.11088
17.6649
12.9104
0.853105
-18.6323
-14.8055
-7.05802
-14.3166
-8.99707
-8.65878
-23.039
-20.0239
-25.0447
-27.5376
-0.196385
19.1938
15.615
14.0038
-1.79614
-1.53149
6.98827
10.625
-12.9604
-19.5983
7.67676
0.270438
-1.98944
4.25624
8.41245
11.6811
-1.43139
-1.74416
2.43175
1.16466
-5.27314
-8.15783
6.27848
10.0813
0.785768
5.39823
13.2301
16.8913
18.2152
4.67813
-5.71485
-4.35827
-21.364
-21.6119
10.697
15.2101
8.14261
-3.81962
-6.84377
1.20914
-2.66787
-16.6802
-16.8384
7.06061
9.49912
5.57744
2.51604
5.08872
9.56339
0.238768
-12.804
-11.0848
-10.9893
8.50435
-6.90696
-6.16964
5.32373
2.80787
-1.55183
-6.0315
-11.0683
1.89444
18.6677
5.7597
2.42432
-1.69263
-2.79389
-0.98111
-6.31174
-2.9507
-4.5958
-14.3187
-0.928332
-2.34992
-3.70945
-4.07059
-12.6577
-5.63871
14.6726
13.9021
10.4877
7.9172
1.9473
-1.00941
-6.64264
20.6418
22.2564
13.8425
9.77074
4.66921
4.85417
9.29201
0.66379
-0.65745
1.29984
-2.89975
-1.16226
-19.281
-29.7656
-13.8866
-3.39838
-12.6482
-9.05397
7.01936
14.0066
2.1473
-1.12786
0.707304
-1.527
-2.24124
-2.69965
-5.38639
14.3198
1.86788
-4.29566
-12.3792
-13.7827
-3.18675
-12.9784
-21.7211
1.18877
15.9998
15.4068
2.86725
5.20188
0.949131
1.56839
4.58141
0.00116773
11.0715
17.0911
12.7023
-3.3404
-10.5989
-9.83449
-11.0396
-10.933
0.751023
21.8577
28.9599
22.7821
25.0829
8.97591
-7.06118
-17.1316
-9.44319
-8.33703
-5.94083
-6.90322
-25.5158
-30.0272
-12.3836
-4.66423
-11.3299
2.34199
17.2671
16.4554
9.99327
-1.52736
-6.69203
-17.0275
-29.9939
-27.293
10.414
27.3827
17.8658
9.97688
1.98587
9.94317
12.4449
6.98584
19.3679
14.9348
14.955
6.36696
-9.12258
-21.653
-28.0011
-27.164
3.10779
11.0555
14.1629
18.632
6.42816
3.4146
-2.31327
-9.48649
-4.86836
4.88138
1.86834
0.308193
-10.8144
-10.3888
-12.0194
-24.6103
-1.05913
6.72997
6.75576
8.09682
5.275
3.08681
3.8842
0.0592249
-14.7596
0.886433
19.4981
14.2641
3.15496
-11.1984
-14.4802
-2.72675
-11.0627
-14.1952
10.126
12.7587
1.50681
7.01349
3.68794
-1.25764
-2.06367
-0.86356
-6.55701
6.42336
13.0069
-4.77933
-19.6733
-7.87149
9.60027
22.3208
5.59225
4.5372
1.69311
-8.71822
-20.1835
-11.8795
-6.34477
-5.39096
-8.30373
4.43287
10.4437
0.921014
6.96491
7.4402
7.38986
11.0158
-2.81514
-3.70658
-4.87514
-11.0093
-0.381976
-0.475198
2.92092
7.5923
5.41539
0.407253
-12.6975
7.28062
20.2133
5.43394
-5.69491
-0.597425
4.36313
-1.73918
-13.1857
-2.88684
13.09
10.4992
-0.310214
-6.13019
-7.41216
-10.4426
-11.1056
3.80624
-2.08468
-2.66763
1.97293
-8.17065
-7.85911
-4.61534
2.05533
8.13124
1.94611
-1.40817
3.88228
-0.1198
-3.51779
-11.9713
-6.00628
18.2204
27.6349
16.5753
3.86574
-2.65687
-6.2765
-10.9641
-6.1974
-10.9007
1.32233
4.44173
0.448181
0.125654
3.89403
1.94938
-2.88185
-15.0217
-30.3158
-21.1815
-4.32233
5.25862
13.4627
18.5231
18.5971
11.1323
5.56806
3.21152
18.6146
16.1413
1.77339
-8.21668
-15.4313
-16.153
-19.7274
-13.3879
13.1386
13.7876
15.0104
20.4886
12.7638
5.58377
-4.12144
-8.36634
-8.67269
-16.9038
-11.0053
-1.71283
-11.9626
-18.1586
-33.3473
-22.2568
7.47462
12.6235
19.7853
25.2545
16.0076
3.95688
-5.96088
-11.3293
15.3278
14.164
5.04167
-6.40128
-8.82756
-3.3992
-4.48483
-4.90509
-10.5232
-2.83119
10.0038
2.52935
-4.947
7.68183
13.2532
1.42634
-11.4531
-10.2495
27.2661
30.0452
1.1017
-10.4378
-16.1258
-21.5231
-25.3987
-18.8243
-3.08826
16.9838
19.7864
16.4802
10.8197
5.49139
-3.41053
-6.76442
-14.3231
-3.68662
11.0755
20.2118
-2.89264
-5.9991
-5.34944
-5.46941
-8.50243
8.81584
14.028
14.8052
5.09788
-15.1171
-19.7256
-22.4779
-14.6597
1.46189
2.50881
4.05822
14.8012
7.20878
0.078133
1.8691
0.495978
1.18
4.81187
5.23796
7.53405
-5.4604
-5.74268
-4.84847
-9.71967
-15.5906
8.57096
15.2273
13.7661
-0.466408
-4.35017
-6.78189
-21.9116
-16.6065
4.5639
11.2705
10.2946
11.5365
-2.23226
-4.69948
-2.70817
2.96811
7.45388
-5.51443
-12.0942
-6.55238
-9.54426
-5.68954
-12.9521
-2.5369
21.4896
27.6118
38.3521
29.9529
7.44606
0.542532
-16.7954
-27.6388
-7.16069
9.24383
9.55996
3.93888
-2.07509
-3.9029
-1.19495
-3.00366
-12.6042
2.66941
1.66344
-12.6013
-21.6479
-10.9769
-1.64114
-1.1144
-18.7085
-20.9701
10.1614
6.00631
-8.3403
-5.61457
9.19906
7.41526
5.27425
5.46491
1.46572
10.4467
11.9302
0.902633
5.91363
8.18795
1.906
-8.05412
-6.70529
2.96384
11.013
14.1218
1.38609
9.89727
9.06988
-0.463779
-11.9427
2.19901
0.637855
0.119506
0.305258
-5.60471
-4.56566
-9.55573
-15.7308
-5.86258
-1.39797
-5.69662
-2.44954
-6.59704
-3.09944
10.1997
5.44494
-6.98126
-3.259
10.1993
7.1801
-11.5631
-12.5527
4.98432
14.1335
-2.56711
1.33472
4.83185
9.43788
5.44105
0.00666186
-0.329797
-11.1211
-10.9587
9.63674
6.55285
8.25018
17.8486
14.8053
2.58254
2.92832
-2.30641
-2.77699
-13.1094
-10.5034
-5.09687
-4.67225
-5.9345
-13.0963
-18.7306
-24.4613
5.41307
11.3797
15.6686
7.84877
4.64986
0.618486
2.81554
-8.13502
-7.48732
5.8062
5.42124
3.26188
5.74848
5.41334
7.25491
-1.05923
-11.5238
-6.34534
6.52198
9.76592
-4.29277
-5.28354
-1.5514
1.83534
2.31299
-12.2514
-10.5071
-1.18683
-4.52821
6.81186
18.1868
16.4804
6.85203
-11.5837
1.2749
-7.48254
-4.72365
3.11395
-6.59152
-11.8016
-16.8492
-9.07598
19.8884
15.2828
7.27494
10.5101
7.06454
5.03594
-0.86983
-5.72467
1.88493
-0.670815
-0.0480776
-1.44228
-13.0671
-9.45135
-13.7954
-19.7797
6.339
22.7613
20.0871
14.4968
-1.78429
-9.46106
-10.8577
-4.64023
-6.76932
2.87105
17.2628
14.9897
-4.8965
-15.6376
-14.5964
-7.29388
-19.8851
-3.13066
22.3474
21.6548
-3.11614
-23.5499
-19.1999
-8.24343
-16.3351
-13.5739
17.6095
37.0761
30.0999
13.8916
9.58853
12.5803
5.43077
-7.26696
-6.49701
7.29956
5.14524
-1.84869
-10.8178
-5.78335
-7.22513
-14.4779
-7.08176
2.30342
5.04835
8.04515
-5.37623
-16.6019
-10.0189
-10.6809
-2.15585
4.63123
3.27901
12.0827
11.4937
-1.93006
2.26374
0.76351
-12.5996
-12.5071
11.3335
7.77068
0.819671
-2.23817
4.03746
9.56732
1.92881
-5.85275
8.02086
4.34949
-9.18205
-18.5594
-11.3692
-5.74536
-12.0669
-2.15684
18.7869
16.2378
13.5931
8.49642
-4.50971
-3.97291
-12.3766
-2.43359
1.16469
0.306998
-1.01123
-4.98512
-8.79261
-1.55516
3.62845
10.3654
13.5556
1.8377
7.85175
6.45332
-8.82587
-8.64661
3.51123
8.15253
9.05463
1.61389
-4.40757
-10.7111
-6.9331
-1.52839
5.44077
3.98431
-7.92287
9.92938
17.8099
15.1248
5.42616
-1.87634
-13.6683
-26.8039
-29.193
-30.5685
-6.43897
7.1044
3.73555
5.63841
13.3566
11.3113
6.08165
-5.05557
-11.2073
11.7494
17.4549
7.09629
6.22436
4.32136
-3.90473
-7.63706
-7.27068
2.38305
6.15938
9.80605
-0.827316
-8.05847
-10.0628
-6.75256
-7.40437
0.83442
3.04316
3.52484
6.87967
-0.361547
-2.77197
-6.68724
-12.9301
4.26577
8.20495
5.45701
2.47106
0.313631
0.474513
-6.81026
-10.3706
-13.5799
0.0937146
2.12595
4.44201
4.33503
6.68321
8.84382
8.23137
-4.04183
10.1915
10.892
6.5231
-3.45565
-5.09677
0.577854
5.03348
0.180098
18.7933
10.8706
-2.09569
-7.82347
-22.2098
-15.9965
-8.5894
-14.6669
-10.4483
-10.9731
0.169686
6.14998
-5.5882
-3.83096
-2.12174
-7.85201
3.95487
37.2909
34.4133
13.8567
-9.94682
-9.8575
-8.48881
-9.5585
-18.6351
-1.30147
10.5027
7.19192
2.13517
16.6194
14.4922
9.46785
0.286356
-18.4505
-16.1179
10.8172
5.80854
-21.8405
-23.4698
-9.11197
-7.78312
-6.15334
-8.4306
16.3084
27.1639
5.03574
-2.59016
7.29337
8.56632
-6.65057
-12.2403
5.35702
7.8596
10.6999
15.1251
4.68584
-1.17034
-7.69345
-13.3849
-5.82503
-11.0978
-7.35375
0.587021
-7.94725
-6.43254
-3.1526
-13.5476
3.65149
16.0938
17.1263
15.2666
4.95159
4.30721
4.38807
-4.07404
6.81533
16.7704
3.28299
-2.97599
-8.9246
-6.89797
-2.10491
0.958155
-16.9345
-15.6941
3.22193
3.29977
1.40927
-1.68712
-1.30017
1.388
-6.8162
-11.0876
2.31191
5.39654
-1.06776
-3.67273
-4.3222
3.75907
-5.72814
-10.7457
2.32244
7.83334
9.54827
6.93015
-0.901898
2.99375
-1.07265
-0.375413
-3.88564
-5.03847
2.84604
5.62584
4.79361
8.91951
5.40495
-1.38753
-16.4498
-11.4458
5.88437
11.5139
-0.0663785
-1.96438
16.5929
16.4435
-11.7975
-15.247
10.3824
8.77207
14.3407
11.1418
6.2695
-1.94136
-11.8744
-15.7324
-21.7267
-15.5455
4.18084
-1.00309
-6.92982
-2.30882
0.903877
2.97271
-17.084
-6.38375
8.67706
8.49479
-6.7739
-10.6464
-4.94743
-6.22806
-7.91222
5.02919
19.5362
14.4518
16.1346
13.12
7.06584
1.75963
-5.18021
5.21943
3.60394
-2.68336
5.46375
4.69288
10.2173
2.34018
-21.346
-13.9166
-0.83226
-1.95149
3.87246
4.93293
-1.37574
-2.39851
-14.5153
-18.4466
-0.205666
11.2478
8.39456
-1.41972
-2.99309
-2.21861
4.16983
-3.27693
-17.7978
-5.75999
9.38476
5.17615
2.1935
5.10521
6.82695
4.3328
-2.47424
-12.5129
-4.37358
26.8174
15.6713
3.02394
5.6441
1.06124
-6.42368
-12.0689
-24.2058
-9.50984
7.50971
6.17232
3.25969
-2.17426
-8.92271
-5.43322
-4.27278
12.4438
10.6186
14.432
13.4732
-1.333
-5.65716
-9.22728
-20.1651
-10.6736
-4.41252
-3.9173
4.17669
6.1871
4.79677
-2.87885
-13.4016
-2.99686
10.9294
17.2663
14.7519
3.12033
1.62981
3.69867
0.620518
-2.44252
-12.6365
6.6179
9.91983
0.66667
-8.21793
-4.81664
0.0473124
-18.9117
-28.7093
-8.69329
3.88097
8.24827
6.83105
8.1449
9.51054
-8.82453
-9.65071
15.1968
21.9917
16.9769
11.6154
-5.17128
-3.18095
-9.20907
-9.5254
5.46975
5.98639
1.66437
0.892821
-11.3622
-5.92725
-15.9493
-28.9681
1.1533
7.49902
12.2572
15.5681
2.07991
-0.536994
-2.27511
-9.01098
-9.59332
5.46744
14.4459
8.8994
2.12052
-1.80748
-6.8434
-1.63811
-7.06928
-16.7282
8.27422
21.2495
0.744485
3.30619
6.34015
-6.06794
-12.4233
-10.9837
-9.24903
15.502
10.6371
2.59898
-2.98551
-2.48132
-10.1767
-15.412
-12.013
3.56197
14.8213
19.9394
10.6966
6.26261
4.4361
-6.19389
-11.3624
3.837
3.03352
0.570841
9.38469
4.65651
-0.682285
-13.4448
-13.1086
-1.52751
-2.77079
3.86687
4.68737
-7.43463
-14.2888
-8.92108
-13.625
-1.75839
-1.60705
18.5162
18.7035
9.54534
4.46417
-1.69809
-4.09788
-12.7834
-6.22643
3.59277
5.14895
5.15132
1.63467
-1.56302
-3.51286
-15.0806
-10.1503
3.10319
18.6024
19.7872
12.8418
0.815058
0.0235981
-18.5436
-10.0853
7.74957
22.4702
13.5918
1.67743
-3.37933
-5.1792
-11.2052
-11.4295
-10.1446
13.3529
14.124
3.66505
-4.68125
-10.2588
-12.7573
-16.2183
-19.9695
4.23781
12.0429
11.6078
10.5187
-1.6328
-4.04991
-5.51632
-10.2926
-11.1692
-5.21238
-0.73822
9.83228
4.95894
6.40573
2.95006
-2.75002
-7.10352
4.47143
7.93794
7.36129
-0.821967
0.330819
-0.53514
-5.94718
-6.64516
6.50809
5.96983
4.46632
4.82813
5.55099
6.41694
-0.0824987
-6.1873
3.90079
-2.02569
-4.36009
-0.865633
-5.95366
-1.70284
-9.44627
-8.28649
8.58911
6.22991
-2.30637
-2.15447
-0.290087
1.7834
-5.12422
-5.28774
-1.71839
-0.764472
1.66696
-1.60408
-1.09669
1.09777
-0.617279
-1.54512
2.21507
12.9306
22.6006
11.1892
-0.580142
-6.95676
-4.40224
-0.122766
-8.03379
-12.8942
9.16322
3.59765
-5.352
-11.8682
-10.543
-0.727024
6.78804
3.27046
-0.045865
17.3844
9.84012
-7.41207
-7.13375
-0.863977
-0.793798
-7.30055
-12.0018
6.11377
13.7435
10.5313
1.02881
1.79409
-8.6317
-7.83403
-8.53296
-5.21942
-12.4537
-9.819
-1.50077
-0.501266
0.485798
-3.47302
-12.8646
8.31488
16.643
14.1464
15.1129
7.60291
4.65981
2.45674
-8.92825
-17.4705
10.0235
27.0449
24.3632
6.06848
1.30896
-3.97495
-12.539
-20.2232
-12.0041
1.46735
3.68453
-3.40521
-5.61692
1.30635
1.6115
-14.7696
-7.64843
9.83219
4.45966
4.57384
-3.13336
-6.56277
-3.61302
-15.3411
-8.22133
10.2564
4.85988
-3.06112
-8.04406
-2.51564
8.8798
-4.34163
0.394755
7.82242
9.9924
14.1634
11.1278
-0.688158
-2.099
-11.172
-12.4433
1.45388
2.52756
9.66628
4.80704
-6.95697
-1.30183
-3.98354
-21.8014
-13.2894
13.1524
12.2282
12.6414
21.98
16.8985
6.46459
5.29082
-6.8528
-19.7903
-0.475829
7.24217
-11.2815
-9.30777
-4.36119
-10.7805
-12.8527
-14.2403
-14.9568
11.8861
12.8637
3.81457
8.22809
-0.767054
-9.94462
-9.59405
-10.1721
8.35577
7.37362
13.8236
16.5515
2.62652
-5.20268
-10.8821
-13.8602
5.67169
0.565247
4.68418
15.4709
11.9382
8.78784
-0.517034
-5.9929
5.33521
7.48952
5.76844
4.77059
-12.0663
-14.6406
-7.45518
-12.1307
-19.4142
-9.04066
6.80325
13.8173
-1.91375
-7.28446
-4.53117
1.87409
-0.30383
-3.14292
14.1989
16.8435
-2.01909
-8.68787
1.41825
22.0409
19.6119
4.26424
19.5818
8.45293
-11.5256
-36.0724
-38.171
-24.8875
-9.33652
10.099
16.956
16.5151
17.6446
13.0738
-1.64708
-0.976943
-3.16696
-14.4539
-27.7057
-20.794
8.26384
13.4547
-0.927588
1.15584
12.4414
15.9891
5.87311
1.93947
6.42796
-0.959698
-11.7075
-10.0503
-8.31975
-3.31503
-10.2844
-29.5785
-0.915
22.8081
21.9951
10.4504
-6.76431
-4.56565
-5.85401
-6.87155
-13.2799
13.9808
21.8508
16.9645
4.57811
7.52751
9.82053
8.17145
-1.79662
9.43041
8.6526
13.6963
-1.52383
-9.72009
-4.52928
-9.53203
-16.071
-5.17096
-15.1637
-13.8506
2.34582
-6.06379
-10.6962
-20.595
-11.1652
-0.78386
-5.08759
-4.1396
1.12319
-4.10837
0.393338
-1.93291
7.71645
18.9871
15.8089
7.18611
1.97062
2.61417
7.92136
5.33033
0.0533289
-19.7293
0.397944
18.0793
5.12593
-2.14423
-9.23118
-8.32388
-0.445012
2.61259
29.995
46.287
18.6712
-13.7692
-20.3695
-9.2246
4.90473
0.464977
-8.75078
-15.6275
-13.8832
2.55689
-5.75678
-3.8792
-11.6364
-21.9622
-12.7604
-9.79205
-15.1381
2.21839
-8.00839
-4.83366
-0.195727
5.17387
16.409
12.7959
5.98983
15.4259
17.8403
15.2982
19.2904
13.3453
-0.593285
-8.37482
-12.329
-1.15817
9.57798
4.5632
10.5399
1.31267
-7.69704
-14.3219
-8.23608
-10.343
-9.53621
7.91859
8.35074
2.24196
1.11179
-1.55105
-4.25052
-19.0188
-26.0442
1.31028
10.6521
8.96765
0.802211
2.71222
4.66328
-0.0448048
-6.43597
2.83385
-0.108651
6.14607
12.3659
5.00767
2.08404
-9.15247
-8.82391
5.77719
5.23769
8.47418
8.22574
-13.1768
-21.0976
-22.6362
-23.7137
2.72708
9.0966
6.55049
6.36282
0.384604
-0.0746088
-0.887791
-7.5658
6.84233
21.286
23.2555
22.3215
12.7939
4.55257
-0.742678
-2.13379
-6.56369
-6.18442
12.8962
-0.168661
-19.9643
-20.8184
-18.6485
-11.1941
-6.31292
1.50087
13.216
25.0492
7.44156
-4.24203
-7.14083
-18.6484
-19.5045
-14.6808
-17.667
-4.27364
0.47835
13.8991
12.579
12.0656
-3.45438
-14.8701
-12.885
17.6196
24.2657
22.5934
7.97376
0.289103
0.153971
-0.661699
-5.95473
7.37004
8.51675
8.75019
14.8029
12.7783
7.81687
-3.78287
-21.5224
-9.44395
-4.34513
6.40058
11.9836
-1.04231
-7.70514
-11.3124
-14.2255
-20.477
-12.8952
-4.64265
2.75773
-3.13533
-3.59946
-1.19713
-10.8881
-20.563
2.40449
14.6494
13.9922
6.32861
4.24489
8.43515
0.974425
-11.3192
9.956
8.91013
8.50778
6.85869
1.1606
2.08805
-0.00210459
-16.2158
-15.378
-4.74372
6.0739
6.49616
-8.23187
-14.0806
-2.90776
9.95595
1.03685
12.4629
20.2988
16.9246
0.445361
2.38229
4.99656
0.49187
-10.9384
-22.9172
4.84263
8.29011
1.7853
0.4659
5.92889
4.0721
3.11945
-6.19343
-13.9226
-9.40112
-6.73568
-11.1355
-6.81084
-2.60145
-5.23092
-10.5557
-3.35806
18.2974
12.1712
13.9641
6.11909
6.99271
