22.2988
-1.67525
-11.2543
2.48472
8.8028
-1.73856
-16.3156
9.072
8.76701
-11.1661
-13.4576
-7.0316
-7.40482
-1.62071
-22.2852
-19.0749
17.9462
22.7706
11.3867
-3.63209
-4.58951
-10.7788
-3.65022
-17.447
-20.4778
15.8635
9.9105
-6.74329
4.06796
-3.43657
-16.0765
-23.8245
18.9225
24.7336
27.4493
30.1735
12.9019
-6.09291
-19.2809
-24.3517
18.9329
15.622
5.03241
9.79919
9.69969
-0.265101
-15.3741
-23.8704
1.31313
1.60409
8.12939
12.5989
-9.18375
-12.7329
-18.515
-31.7955
-9.78713
19.7297
28.5658
26.9269
7.58357
2.89652
-9.73415
-4.76336
-13.6658
-25.4274
6.73682
9.74486
-2.84786
-8.68515
0.208733
5.29
-5.58534
-10.8394
4.39776
11.8821
-0.232202
-5.85121
0.606802
-13.8615
-28.159
-9.35631
14.0799
9.65943
28.5409
28.0667
13.6959
3.92103
-7.11653
-2.74868
-6.34594
-1.10655
10.4956
1.01767
3.37681
13.4167
-1.57885
-24.9601
-34.3044
-5.6945
8.06521
0.398046
-8.80379
-5.30685
-2.49782
2.97455
-0.742822
3.55217
-5.87077
4.79683
17.5314
3.77514
-12.078
-3.73345
-7.50856
-10.8724
-12.8187
15.8125
23.7155
3.27434
-15.1647
-6.47861
3.47022
9.54433
26.4666
70.5392
64.8239
40.4193
21.0105
2.59914
-30.4563
-57.9882
-75.649
-102.201
-124.001
-66.7459
-1.45384
-4.15678
26.5701
53.8734
67.8816
37.4283
36.1964
62.4069
62.2969
29.4551
12.5205
7.8958
-6.33528
-56.2749
15.5527
60.0579
57.6716
58.707
45.801
-20.2065
-72.5448
-93.2948
-130.25
-160.789
-120.963
-37.3751
13.3744
8.91071
-10.7048
-56.0171
-96.1089
-64.6563
20.6264
90.8146
88.1533
150.147
205.349
162.83
125.979
109.612
70.1192
21.8104
6.12805
16.867
-10.6387
-49.8862
-56.0504
-40.4905
-15.5227
-14.6173
-47.9222
-69.96
-87.6802
-137.613
-226.857
-264.591
-193.166
-100.706
17.4152
133.98
188.374
202.419
175.032
65.8115
-16.3771
-84.9843
-147.601
-209.887
-185.251
-25.7339
120.256
152.764
185.109
189.569
66.9075
13.8286
14.4642
74.3944
73.9162
17.9203
-26.8185
8.27094
61.4753
82.7534
47.127
-5.94909
-13.6067
60.7198
72.3372
-20.6412
-100.819
-133.425
-129.83
-60.6995
51.2792
51.9215
-7.49805
-27.3635
-45.7004
-67.3511
-73.9039
-93.1287
-115.567
-88.7738
-21.1013
88.5664
133.768
92.9979
1.73764
-95.3254
-80.7657
-47.5802
-1.97292
100.552
192.927
163.405
48.2913
-94.9991
-182.845
-182.705
-142.862
-183.048
-181.614
-36.452
70.2801
30.3324
-4.11957
25.7351
95.9694
176.062
224.757
251.153
178.326
76.8865
15.9794
-1.28379
17.1712
61.1791
39.545
3.5751
-11.3974
25.8962
67.3469
47.6473
-12.2952
-1.71055
11.477
2.97299
-58.2812
-109.956
-153.949
-224.214
-258.586
-268.933
-223.634
-72.7486
36.9637
99.3135
158.349
211.231
158.829
89.0387
43.2024
-15.1756
-45.4838
-28.7375
-3.54744
-49.38
-34.7215
-27.727
-77.3896
-63.7778
-0.0808526
45.7571
93.7173
130.425
117.951
76.6303
-48.057
-215.101
-224.985
-174.97
-162.444
-105.417
25.4625
90.6122
119.056
143.59
163.176
178.818
191.202
172.217
156.581
148.44
56.2043
-104.896
-125.656
-61.5465
38.9116
136.199
140.523
80.2986
-7.99008
-32.3196
-66.673
-104.701
-133.434
-147.798
-186.742
-190.989
-156.588
-145.544
-181.312
-132.522
59.7587
137.711
79.0887
32.4101
20.2551
-4.01158
-24.7696
-92.8467
-27.9599
22.3129
-23.413
-16.9979
91.9462
169.613
203.276
137.108
-9.48939
-19.0622
122.114
126.005
11.849
5.63841
58.4202
51.801
-3.56789
-107.67
-184.714
-115.905
-36.7128
-15.7322
53.4212
78.8191
-1.45846
-26.2714
-71.1726
-49.3408
14.3014
3.71814
-73.5636
-103.195
-71.3517
-13.7396
-20.6604
0.452432
79.9003
147.801
165.09
111.197
54.8206
75.7037
34.9499
20.5483
29.1064
-13.3578
-48.0755
-1.85931
85.2613
65.7985
-134.4
-241.497
-182.583
-126.467
-167.748
-193.866
-129.705
-18.7199
152.841
292.567
278.505
212.179
182.828
133.386
-22.332
-184.392
-269.8
-260.806
-196.388
-111.289
10.2491
102.833
103.596
59.6967
91.3539
80.9273
-22.7
-123.587
-152.275
-115.748
-36.0692
18.1494
66.0711
150.632
246.742
257.73
270.456
171.83
10.9881
-10.9806
-63.4373
-103.354
-90.2838
-165.544
-154.99
-118.677
-85.3775
30.9872
110.973
132.168
102.727
21.6739
-84.8917
-166.897
-146.954
-48.6396
29.1095
64.361
79.1733
37.9649
55.5385
51.8232
-47.9761
-66.4267
-56.856
-85.142
-65.9865
-32.2211
-54.1932
-113.775
-153.529
-110.772
-11.2917
9.14804
20.8932
121.002
182.397
197.425
185.737
168.616
159.781
69.8933
-20.8993
-16.0458
-69.5379
-110.007
-207.064
-216.533
-63.3075
34.8941
54.1646
69.1031
91.9531
77.9064
40.3399
-21.4992
-93.0147
-75.1394
-2.35827
-12.6541
22.0829
53.4335
27.8898
4.2032
-6.19389
14.1528
137.555
218.499
96.7743
-61.019
-84.9368
-131.233
-162.537
-130.923
-128.596
-118.727
-60.961
-37.9563
32.7668
106.23
107.625
82.2318
102.845
77.694
-63.4842
-177.794
-130.02
-107.562
-18.2589
79.258
142.18
142.003
81.6374
36.6261
41.9204
-8.95145
-34.392
10.3547
16.4441
-23.3526
-83.6744
-101.748
-97.8311
-33.7415
76.5422
149.695
152.343
127.836
14.6685
-32.2925
23.3825
140.201
130.612
-2.25892
-72.8495
-152.748
-238.53
-216.577
-166.646
-101.466
4.16117
87.7308
131.997
147.954
186.933
178.406
59.6359
-168.962
-228.975
-173.648
-212.533
-230.643
-119.822
0.173855
48.119
53.2846
116.147
159.844
151.946
99.4212
7.65434
29.4933
49.5751
-10.6005
-22.2802
98.0744
223.683
307.031
228.572
78.5887
-44.5212
-146.977
-203.982
-156.489
-114.1
-15.9088
40.4976
28.2459
-44.8942
-130.111
-152.602
-169.911
-160.052
-46.4489
59.3902
45.3431
-46.9847
-55.2375
-19.3667
95.4181
162.699
118.675
37.5703
8.48327
-3.74383
15.6729
-0.664441
-35.6536
12.5073
66.3847
78.4992
58.9215
48.3064
1.39557
-66.0207
-76.2873
-52.2083
2.56053
-13.0764
-85.9208
-81.3485
-28.8824
15.7487
-1.54253
24.3939
141.817
188.356
64.8528
-83.8664
-71.2733
-99.2828
-213.764
-195.57
-42.7225
74.8064
49.2427
-6.44584
-57.1169
-0.929003
110.079
190.334
233.037
240.466
231.668
194.155
22.062
-89.8182
-143.647
-184.042
-186.473
-101.817
65.4674
63.4689
-14.269
-36.4005
-79.5733
-105.782
-25.2685
-36.1741
-71.9127
-86.2497
-23.4924
41.1663
19.4927
-90.1833
-159.243
-67.2918
26.4408
54.2678
96.655
169.136
155.449
68.5542
-41.7199
-63.1295
-7.1839
20.0824
-49.4971
-58.7372
-29.9365
-51.5471
-39.5137
10.9552
37.3795
130.015
206.845
109.113
-13.9109
-151.661
-198.715
-172.583
-78.2536
85.7159
167.653
127.37
70.9696
127.614
172.395
137.136
76.3784
45.597
-45.6371
-141.977
-189.918
-182.549
-126.081
-64.857
-40.5587
42.0081
67.2264
20.2918
-22.9246
7.78037
1.61349
-48.3238
-44.689
-41.1351
-94.5824
-52.7827
18.5244
81.2922
35.9545
14.3756
96.4556
51.4894
-22.5457
-80.0097
-116.365
-123.045
-52.8572
85.938
227.669
189.297
117.635
89.3587
72.9437
14.0903
-21.4775
-26.2928
-38.9087
-122.722
-152.306
-123.174
-134.138
-141.359
-98.6085
-17.7236
165.435
353.336
317.511
204.949
41.6175
-73.211
-184.936
-256.089
-198.325
-130.264
-60.9904
-72.1886
-95.4765
-14.9608
71.2073
40.3255
72.1382
163.709
175.469
154.014
72.1715
0.326908
-27.7987
-123.668
-158.888
-111.858
-35.7388
122.217
109.928
69.0808
109.137
162.797
148.781
54.8291
5.02497
2.83399
-143.385
-275.028
-313.984
-243.845
-104.272
-19.3019
14.5513
81.7423
114.23
111.855
128.086
89.4275
88.5852
39.5815
-54.2781
-94.1556
-102.993
-101.167
-131.422
-85.2196
40.8791
159.03
202.081
168.816
96.0732
13.0279
-69.395
-166.12
-168.637
-58.7257
-1.12961
-34.9091
-58.3843
21.8085
31.3132
69.796
101.058
147.663
211.766
182.901
101.256
-22.8883
-27.2513
-43.9275
-57.9313
-114.802
-164.103
-77.6139
-57.4852
-151.77
-93.8736
-43.59
-67.185
-45.5458
127.789
152.782
97.5064
25.002
-39.0656
-52.328
-55.7663
-48.6647
-67.1377
-36.313
79.6883
199.644
240.427
189.618
140.511
-4.52619
-139.251
-121.48
-133.966
-208.136
-278.68
-238.794
-69.4426
37.5272
128.054
183.217
194.577
188.473
112.496
69.7208
-15.8476
-41.2714
9.40586
13.4538
-5.09927
61.0702
21.2529
-100.044
-184.03
-122.232
-52.0312
-78.1641
-127.702
-204.794
-175.894
-23.4136
59.5051
128.364
241.608
221.336
150.203
95.0945
42.7692
-68.415
-178.553
-156.293
-46.7209
30.5418
80.5252
176.409
268.472
251.982
143.235
67.401
-13.694
-188.954
-199.225
-188.272
-111.154
-47.9596
-43.4224
-56.6887
-92.7393
-2.9709
111.904
121.898
95.4997
59.5496
124.956
109.645
-34.6812
-137.443
-151.307
-62.4681
-23.9585
-96.3807
-159.808
-95.2157
-64.4984
-39.6506
35.7131
70.4727
42.9654
-32.5889
-159.358
-221.673
-137.837
50.1817
273.684
330.194
313.577
271.327
130.778
-107.555
-260.572
-287.156
-165.154
-1.90968
68.4729
124.412
103.472
67.8115
121.986
103.366
29.9712
-26.6819
-4.09964
43.5237
-56.5128
-199.266
-253.801
-160.835
44.6194
234.993
153.351
119.745
200.749
102.987
-112.799
-249.227
-258.694
-155.712
-67.1369
24.8407
206.188
285.381
126.763
-80.1272
-168.477
-236.339
-237.008
-68.4558
64.101
147.659
233.868
188.044
-59.3929
-202.976
-120.604
-23.3615
32.2169
81.681
89.0874
64.0794
69.9605
48.9029
0.9747
-17.8465
-53.5857
-3.31755
64.2388
-5.21695
-19.5638
-19.928
-74.5415
-114.749
-155.751
-167.213
-137.962
-23.308
-18.4711
-71.8192
-3.64834
113.831
146.023
190.375
205.267
186.654
218.039
114.824
-28.5206
-130.731
-175.359
-108.976
17.3112
220.14
349.764
309.915
181.205
14.8511
-136.698
-283.912
-383.764
-403.907
-352.764
-255.346
-155.498
-47.3328
61.1326
148.984
138.392
162.506
145.921
65.5564
2.08625
-48.4755
-8.39986
22.7478
-43.0238
-136.812
-46.9606
155.981
236.662
271.426
246.663
69.0205
-69.4325
-175.208
-275.004
-272.608
-33.6411
107.3
-8.69572
-42.5986
-18.4269
24.3767
47.4158
44.948
106.147
144.621
158.576
30.6758
-117.884
-135.344
-99.3363
-79.0338
-15.1591
83.606
154.582
124.521
-45.4805
-89.5671
-4.01593
56.2278
39.7064
9.35073
-43.2413
-58.1718
-104.698
-246.06
-362.023
-220.448
-28.4763
85.1961
177.659
217.275
137.776
25.5678
-2.58493
32.091
94.8561
84.3679
101.854
35.6661
-53.783
-84.0839
-106.659
-63.7899
-9.6348
121.421
306.671
253.392
201.532
106.204
-72.91
-84.1872
-41.5738
-28.7575
-83.3281
-144.775
-164.474
-206.292
-223.576
-127.812
-45.8091
-47.0219
3.08039
44.3524
25.5555
-39.3923
13.1969
-1.17472
-78.5478
-142.254
-74.6208
90.2271
220.058
171.637
114.993
130.752
53.1924
19.2015
-18.0587
-108.021
51.7871
153.532
71.7907
15.2029
-13.1436
62.292
39.7779
10.0681
-8.176
29.5108
28.0883
-114.843
-194.529
-107.331
19.2823
109.995
159.414
105.708
-40.4901
-109.213
-124.642
-128.101
-185.284
-219.259
-166.823
-143.461
-202.239
-63.4192
49.073
57.9473
96.1334
147.107
147.994
117.97
-5.56453
-22.3663
-20.3613
2.73791
188.899
273.093
278.743
368.995
367.885
224.229
62.485
-14.2005
-30.1233
-110.465
-163.26
-116.319
-148.55
-168.888
-202.075
-287.047
-291.377
-282.767
-242.537
-169.387
-47.0493
42.3305
12.0125
-72.009
-3.37331
85.5959
157.821
215.146
206.143
139.916
108.193
47.6392
-49.8038
-154.532
-136.938
12.0643
166.595
159.608
109.619
150.8
17.848
-40.8825
-25.0479
-82.0637
-107.478
-22.089
53.4851
114.824
105.485
38.9053
-39.1995
-93.7682
-52.7109
57.0391
76.0206
48.8921
6.0447
16.3553
35.7017
-128.406
-245.114
-192.077
-98.849
-62.2398
-35.6286
27.1626
176.093
170.861
43.2043
-32.5637
16.9215
42.0153
-52.3018
-137.326
-115.798
17.9294
127.234
154.428
112.534
95.6477
26.1797
-93.0617
-217.698
-359.154
-385.549
-123.764
109.099
138.634
122.48
85.3231
-38.8508
-80.1944
62.121
232.685
359.848
291.389
61.1743
-12.2633
-43.6797
-35.1836
59.808
73.4496
105.447
148.869
144.888
-48.7814
-257.049
-297.013
-240.726
-66.7018
44.5135
19.8925
-3.29723
-55.9727
-101.722
-100.823
-62.3772
-9.78138
21.3239
-19.4085
16.4689
108.381
87.3367
56.2045
-17.6733
-116.004
-197.281
-276.615
-172.459
91.4764
259.484
289.187
204.017
145.734
2.56647
-163.636
-134.227
-87.937
-30.8976
-7.46082
-35.3935
-57.7314
-41.588
3.01185
87.6349
158.789
172.093
187.96
154.812
51.3836
13.1771
-21.9748
-20.3094
1.57572
26.264
-30.8523
-89.0677
-81.0313
-63.2407
-16.9199
-32.9158
-140.665
-153.907
-67.8804
18.1713
7.31433
2.82671
40.453
58.5823
2.58188
114.568
237.279
177.748
52.8211
-91.3326
-140.803
-198.292
-322.921
-347.056
-107.981
94.8797
128.147
122.378
104.935
39.3749
0.460204
-16.4622
17.7097
52.7319
34.4037
-53.5117
-144.046
-159.008
-52.5688
39.79
86.7842
103.517
222.53
248.694
131.917
158.005
309.533
319.923
187.667
-8.91307
-157.399
-201.1
-188.469
-139.843
-111.343
-197.953
-201.032
-167.308
-220.137
-220.978
-188.463
-105.42
-27.0244
97.8257
187.388
32.8606
-80.0501
-137.455
-74.3461
59.5929
166.961
213.055
170.032
83.2016
-9.76925
-76.1479
9.98412
140.925
243.459
273.776
320.298
287.7
168.2
-6.03493
-167.153
-179.731
-159.525
-65.0062
-11.8665
-7.19133
-55.9213
-155.091
-226.034
-352.108
-426.608
-356.446
-169.139
-8.47302
27.8553
52.1636
125.099
210.692
237.717
195.596
116.176
111.703
58.7256
-24.3738
-5.28366
59.5298
98.8309
112.957
111.707
82.9325
127.345
138.804
-28.1287
-141.027
-149.639
-80.0389
-66.0326
-89.6046
-103.497
-150.125
-160.533
-53.4084
119.179
149.717
48.3032
-63.1
-136.021
-72.2661
41.594
129.137
84.1077
26.4632
23.4255
-21.6129
-86.6964
-113.755
-86.6657
-21.9579
-3.68512
79.0174
122.182
44.8368
-50.9831
-105.999
-139.958
-94.3704
17.837
104.607
201.814
300.783
295.933
212.371
160.445
106.633
-38.6451
-151.001
-187.936
-235.717
-239.603
-126.611
-37.5434
-36.7207
-120.524
-126.212
-75.9458
54.0476
154.347
86.224
-14.4262
-83.64
-94.1095
-89.9933
-171.746
-135.657
81.7324
203.413
255.618
293.118
212.499
78.5843
46.6111
-17.2637
-55.1882
-78.1201
-33.7127
-75.3189
-131.099
-97.9638
-115.491
-56.9443
111.9
163.899
102.458
7.65239
-101.068
-106.969
-97.8775
-101.4
-68.927
-8.12945
-3.0769
23.515
100.289
147.81
107.256
40.7936
-30.0821
-138.342
-121.488
-25.418
30.3152
46.5706
115.211
158.002
165.681
113.753
52.8578
72.3731
135.08
104.344
16.074
-132.502
-292.463
-308.337
-320.472
-341.453
-251.428
48.7069
189.8
74.5574
-19.0454
-0.415217
20.2941
29.0221
80.7371
110.938
64.7065
2.06358
-7.75465
0.5538
3.49354
117.103
271.095
250.732
155.884
205.268
185.553
-50.6374
-192.495
-164.379
-121.897
-91.4888
-68.9632
-30.7726
-57.9854
-62.2695
-9.8777
-36.5662
-131.975
-151.822
-124.558
-52.6687
2.52985
67.7611
121.281
73.8087
38.303
-0.295918
-129.017
-243.934
-224.279
-88.7929
89.4597
174.459
186.088
213.036
193.089
107.437
-10.8574
-75.5837
7.76504
42.3419
54.9362
42.6137
48.314
45.5414
13.92
14.5685
105.672
169.284
92.9356
14.3586
-73.5713
-149.803
-202.021
-282.587
-342.97
-309.026
-176.633
-46.5044
18.385
52.3836
75.1473
110.874
235.7
251.194
186.157
152.586
100.808
-15.4333
-139.5
-173.392
-133.122
-114.258
-12.6888
142.643
232.276
208.581
124.626
45.4409
-67.8145
-167.735
-203.148
-190.204
-145.161
-70.5377
27.9386
119.674
138.251
207.88
244.133
130.479
-14.2783
-74.4911
-108.595
-177.22
-179.996
-82.7287
23.3797
36.2303
38.089
20.7402
2.9062
-57.445
-129.592
-123.147
-97.1392
-151.801
-200.501
-124.234
49.0324
153.613
228.734
264.131
183.264
82.6303
-0.912698
0.794806
23.2436
-8.21029
-41.6649
-2.99455
38.8366
66.736
105.03
163.166
170.533
58.7104
2.69956
8.97757
28.8625
11.7557
-120.063
-219.009
-201.9
-170.894
-204.806
-244.686
-235.748
-98.8524
34.9351
55.4833
108.646
131.497
93.6215
111.062
98.2433
121.737
94.3764
45.5663
-18.901
-139.345
-301.289
-339.226
-98.1437
156.354
260.845
372.128
449.441
331.478
162.243
62.4637
-13.5835
-77.6842
-155.865
-297.31
-366.269
-277.859
-128.084
-39.7001
-36.5065
-13.8734
42.6007
88.4836
-0.178045
-61.6456
69.2837
131.083
142.789
95.6048
-15.5266
-55.2126
-164.348
-220.02
-70.6184
121.746
145.307
133.926
222.183
141.648
17.0124
10.1091
137.165
178.244
75.1922
-69.4211
-184.323
-289.045
-412.553
-376.705
-233.018
-154.973
-22.6564
117.73
122.801
109.602
186.633
169.998
82.8003
30.4039
42.7791
49.1448
35.3238
42.2046
-0.668548
-53.4684
79.4686
273.141
304.964
245.493
179.62
74.0788
-109.571
-279.496
-422.898
-467.112
-304.171
-145.728
-114.757
-50.179
18.0114
128.648
168.505
141.376
175.753
214.172
128.757
42.7515
-13.341
-25.5729
20.811
24.6345
7.69125
34.0697
139.354
116.912
-36.931
-129.826
-132.271
-156.758
-131.249
-67.3905
10.2933
54.6098
-1.64188
-63.3547
-136.51
-178.82
-109.797
-31.0939
-7.49819
33.7984
102.27
123.576
99.9522
120.728
48.1218
-52.9669
-39.6038
74.8186
150.804
78.484
-1.34158
-34.6404
-12.6059
48.9806
77.0154
12.4606
-55.2088
-113.81
-148.755
-162.892
-118.433
-4.82941
-2.28847
30.037
200.057
251.178
177.072
57.0333
-25.4087
-35.9713
-68.0911
-3.62558
53.1732
38.6209
-36.9099
-166.915
-233.144
-127.641
38.4365
146.746
134.304
140.673
185.612
64.7612
-184.091
-236.751
-199.389
-148.578
-70.3603
-0.180883
16.3075
-14.5443
-30.5682
-25.438
-34.6506
-26.1518
-2.61587
50.9967
116.23
186.822
187.43
43.6802
-49.4793
-36.5381
3.28783
74.798
122.261
160.239
95.0042
-17.8555
-103.15
-200.79
-184.726
-95.7966
18.8511
48.5896
67.7039
93.4908
62.5302
13.9299
-51.7086
-55.6615
13.0775
10.6104
61.9045
75.7551
23.0459
-56.3064
-126.852
-165.739
-137.331
-68.0156
-1.30507
86.5181
134.096
128.8
117.769
-3.49528
-180.723
-262.573
-174.778
-7.37255
92.5661
160.322
149.008
88.7433
37.3801
-72.8232
-104.437
-20.4379
99.5326
127.367
57.6044
-12.8392
-90.6455
-140.779
-129.775
-74.3338
33.2408
184.916
240.686
200.172
129.814
40.3027
-122.184
-163.112
-138.176
-27.5707
44.2202
32.1076
-2.02299
-39.7849
-47.176
-50.7327
-100.124
-47.1764
31.7653
41.1629
3.34012
-50.4838
-22.9902
11.4184
-51.3482
-50.3068
43.4204
5.78621
-114.398
-129.052
-39.4311
39.4383
126.494
159.636
135.685
64.4268
46.4679
67.9838
46.8749
-0.944731
23.6735
-26.1504
-136.979
-205.279
-120.117
-39.9359
-34.5859
7.57499
84.7584
118.643
50.5382
8.29244
17.7613
73.1946
133.902
145.786
131.236
67.6942
-30.1789
-116.211
-179.263
-110.798
48.1497
45.3762
-22.9705
-96.3223
-117.906
-66.0379
-29.2334
-42.0611
-29.5966
26.1606
50.7643
66.5872
-7.35692
-33.4655
-12.7078
-32.9026
-65.6792
-74.729
-38.0855
-16.9069
-55.9608
23.9277
66.2078
27.4438
54.6988
124.747
148.609
121.118
123.828
64.5877
-81.762
-162.047
-135.712
-77.3188
20.6096
102.637
259.442
373.067
300.515
121.178
-51.769
-193.428
-293.718
-307.625
-375.202
-380.701
-110.403
111.238
129.108
84.4339
58.3822
8.51257
-45.8253
-61.6311
-66.4124
-25.2444
-28.2469
-64.0075
-58.0532
25.9297
154.264
225.549
192.359
164.541
110.552
43.2333
-58.5294
-102.964
-91.7831
-20.7286
55.6401
28.2311
-14.5665
4.54061
5.62603
-42.1679
-85.7022
19.8476
146.783
170.928
77.0606
-22.533
-40.5328
10.0598
65.2221
70.1377
18.3477
-74.9499
-224.78
-277.948
-193.524
-20.4677
114.342
86.1478
50.9022
54.3694
39.6328
-49.526
-142.255
-188.71
-189.173
-138.467
-92.9989
-91.0791
-15.8574
30.6198
105.905
215.644
259.247
231.396
177.236
134.516
75.6638
-28.4786
-51.6442
-32.2214
-100.601
-90.9939
-98.7365
-113.449
-14.9982
105.437
126.823
148.432
241.776
174.038
4.88108
-108.063
-98.4048
-61.9589
-79.9727
-125.367
-78.4051
8.76428
23.1108
24.4439
57.4544
-39.712
-156.036
-193.355
-217.402
-320.581
-271.14
5.91852
171.002
226.539
210.75
130.779
86.5851
74.1914
42.4735
-6.8781
14.4458
66.7239
59.0825
96.4124
90.2939
111.899
176.399
143.671
14.0828
-93.1823
-174.386
-282.628
-390.133
-319.085
-236.161
-146.673
10.1047
59.4093
100.217
189.612
258.891
235.977
172.628
156.842
199.313
139.802
-7.26926
-53.4274
-66.9115
-70.6155
-81.9714
-6.7156
129.38
234.772
137.709
44.1894
-21.6092
-205.577
-339.555
-266.21
-165.306
-104.285
-102.246
-145.246
-232.115
-239.315
-74.7723
97.6946
221.803
240.858
157.792
33.0265
-30.8509
-157.369
-165.025
-106.834
-40.603
183.484
290.167
260.147
226.431
141.657
121.717
64.2803
-78.849
-85.9183
-43.8827
-145.42
-184.853
32.3903
155.957
76.6445
-9.37303
24.6967
100.296
113.683
30.5808
-52.4686
-8.52261
41.0334
21.1402
-98.925
-207.406
-230.487
-146.176
-161.003
-188.065
-54.9861
57.8524
105.001
192.953
174.613
103.287
-31.4404
-72.2872
45.5625
105.344
82.5999
6.40575
-160.261
-400.604
-371.877
-192.663
-155.086
17.8516
436.113
669.903
566.631
356.678
106.141
-17.3983
-87.3848
-166.96
-192.4
-192.15
-207.887
-149.414
-0.136569
91.4628
56.3621
-51.6974
-98.4053
-130.826
-135.987
-140.308
-162.116
-170.598
-85.5301
6.94796
-23.4864
29.2632
122.075
213.11
280.322
282.928
183.01
44.9279
-73.5727
-136.778
-109.988
81.9453
162.846
149.382
141.882
8.44833
-272.554
-469.592
-484.265
-232.882
171.381
388.887
377.29
209.332
144.472
97.1542
-93.1892
-263.336
-301.974
-208.979
-77.2791
-64.3722
16.3477
184.604
365.746
430.096
359.992
232.507
157.275
12.6808
-127.41
-267.624
-330.646
-334.51
-362.471
-335.795
-206.353
-105.363
34.3193
137.968
177.646
214.301
102.256
-64.0378
-135.31
-209.329
-188.729
41.543
210.017
158.062
17.1778
-13.0795
6.49511
1.92156
21.8092
113.112
107.57
83.7196
47.8172
1.78387
16.437
87.6017
269.47
302.263
128.969
41.7736
-43.8118
-175.292
-294.571
-379.774
-318.069
-74.1747
69.0243
205.058
224.111
201.391
239.435
226.75
71.8906
-78.3588
-206.146
-333.349
-399.937
-370.665
-238.773
-51.2241
105.165
153.73
204.861
221.212
203.536
63.9493
-26.1216
-69.2217
-91.6844
-144.753
-164.617
-163.681
-39.6428
56.3188
84.1411
92.2178
64.9549
53.964
51.0121
47.6549
44.0081
55.6717
85.4014
136.855
122.472
-8.54431
-79.2126
-56.5565
-5.49036
58.7494
93.6295
72.3663
32.2199
-16.837
-57.4221
-156.482
-213.653
-76.0977
68.7162
100.881
132.642
79.308
18.3789
-35.9581
-96.2654
-131.648
-136.64
-71.0662
-78.7692
-134.861
-143.28
83.5098
151.767
1.4179
-101.957
-134.615
-28.6085
31.3694
100.244
197.913
169.278
97.1259
14.5492
1.99161
20.521
-51.7451
-100.27
-40.9055
115.492
104.552
-3.23802
-29.1119
9.57227
65.8308
139.416
152.508
113.246
113.01
-2.8886
-78.6787
-85.2092
-49.0061
-54.3539
-103.244
-154.625
-198.464
-193.01
-147.797
-56.4536
44.1168
178.538
264.422
246.73
224.309
158.851
138.955
-6.0693
-339.952
-474.159
-482.068
-430.799
-403.182
-456.855
-271.797
131.55
476.068
560.933
407.53
197.175
134.87
148.165
57.3596
51.202
98.2019
65.0629
-1.90118
-37.3661
-61.5654
-27.2703
76.6563
119.332
160.712
292.563
329.101
197.079
76.3858
12.6635
-82.7312
-199.116
-257.683
-235.98
-249.862
-284.179
-330.363
-377.301
-283.939
-81.7118
105.362
244.762
265.245
249.841
215.281
129.185
37.5111
-63.1844
-115.049
-61.8099
-134.982
-225.405
-210.319
-295.367
-376.838
-200.633
85.3247
209.313
248.544
177.782
119.873
14.2064
-53.3049
32.237
243.059
421.164
424.269
305.576
165.277
44.677
-22.5601
-90.3377
-167.012
-48.0258
123.419
73.4287
2.07584
33.0158
-22.5889
-65.8417
-58.2629
-36.2635
-30.0647
-165.705
-369.215
-482.406
-491.016
-433.428
-325.695
-147.217
160.525
454.43
503.752
363.149
136.656
-64.2224
-158.742
-54.2083
109.97
185.256
199.295
106.437
-16.7008
-24.8362
17.2852
-34.0739
-2.24115
68.9995
88.639
15.4828
-95.545
-50.3441
32.5861
74.5463
111.858
60.9232
-28.3945
-220.103
-327.542
-316.447
-204.073
-51.5272
42.9544
86.2746
151.992
201.374
140.636
24.0844
38.3673
16.1473
-25.0147
-99.623
-79.115
-57.8621
-23.7956
38.213
16.8292
27.8057
29.362
47.2915
62.469
77.6826
102.775
149.113
162.886
141.128
63.8014
-2.46549
-84.5009
-200.923
-280.946
-258.573
-182.072
-75.2652
22.063
156.692
272.198
236.517
128.147
44.7122
-24.8361
-133.058
-173.666
-221.756
-236.571
-136.536
-45.0569
22.486
-23.924
59.6088
226.583
258.971
201.738
104.715
-6.31168
-134.442
-178.394
-84.6302
48.2001
76.6221
8.59898
-55.7814
-90.3797
-166.661
-268.457
-250.223
-103.465
34.4112
114.662
133.935
157.302
180.227
138.238
84.9984
80.9728
106.958
149.617
168.383
167.698
83.1093
74.2794
149.654
118.682
71.9331
-37.5157
-136.511
-247.983
-351.934
-286.015
-176.057
-51.4513
35.354
8.72766
-53.4923
-180.733
-268.2
-252.694
-154.129
-61.0561
17.8478
99.1321
144.031
170.246
189.637
223.328
252.253
282.401
249.543
193.352
84.9121
-68.8861
-198.958
-231.956
-208.063
-86.7336
7.50296
-5.63787
-31.5046
-81.9351
-103.236
-112.684
-85.6716
29.242
94.9755
144.409
139.616
31.8298
-62.0585
-108.406
-89.0449
-91.6152
-8.16785
76.9085
98.4651
69.17
62.0745
6.92172
17.8997
107.147
152.972
77.4866
-2.97829
-64.7077
-28.137
-23.8889
-125.457
-135.095
8.67717
56.0259
38.9297
33.4724
-12.4079
5.00966
37.1843
17.9487
-52.5374
-89.5465
-138.003
-205.399
-277.716
-210.747
-61.3445
-29.5524
-60.9389
-33.3497
62.8812
229.857
276.196
288.077
331.319
313.38
214.836
94.6002
21.8764
42.6883
59.1175
-24.1151
-145.95
-192.09
-92.4377
-24.9368
20.7602
55.8082
79.8267
113.407
34.6711
-171.847
-303.431
-252.362
-165.233
-157.189
-219.841
-214.365
-211.681
-178.73
-115.949
27.9245
137.135
134.286
96.5259
82.5849
-20.8201
-122.639
-28.4765
132.302
228.033
251.845
195.25
59.6768
-89.932
-49.1211
83.0545
192.953
298.371
344.324
274.564
222.544
92.6362
-31.7755
-101.098
-261.48
-338.661
-139.551
-60.5598
-53.3613
-39.6374
-97.4867
-170.209
-222.516
-190.871
-194.279
-93.3569
58.6127
161.317
183.673
66.5848
-71.0279
-52.106
5.13174
56.6357
191.317
295.443
168.599
-46.7601
-228.056
-251.058
-157.037
-12.5606
95.3792
124.167
147.267
114.129
-21.4463
-169.201
-218.057
-98.22
4.86285
84.6782
171.148
207.919
254.864
189.923
18.4908
-94.3487
-194.892
-273.04
-379.826
-429.638
-215.871
83.7075
218.898
172.775
109.879
108.611
115.194
140.534
159.405
126.621
91.4423
26.648
-122.673
-152.286
-53.4771
40.0881
91.219
126.352
192.294
213.158
184.224
116.221
-24.0257
-154.183
-282.625
-355.937
-436.739
-471.496
-335.542
-58.7732
128.753
149.847
135.642
102.292
102.777
105.699
89.1058
95.1911
135.808
109.363
8.12249
-9.22829
59.8325
107.278
133.112
85.3854
-19.7941
-91.3387
-96.2546
-133.401
-159.28
-102.921
17.7405
79.6496
10.6284
5.66722
90.1649
166.911
166.897
96.2852
13.9274
-148.138
-289.196
-298.198
-238.283
-79.4865
85.4021
201.865
247.083
165.025
70.6328
91.669
48.5926
-39.1039
-76.5716
-106.337
-119.372
-135.032
-106.262
32.8033
98.4011
57.1655
42.4718
54.2019
114.942
121.013
83.4436
8.5117
-88.4904
-260.435
-426.085
-360.481
-90.4292
118.631
172.15
212.392
200.662
166.696
33.1508
-142.102
-114.89
33.3923
223.349
301.567
167.335
-18.9678
-68.2927
-31.1764
-62.0872
-66.6936
-6.65319
-7.07892
-122.107
-204.082
-138.096
-143.89
-198.21
-171.776
110.88
338.388
274.813
146.676
68.9925
35.7158
63.8861
75.8104
64.7129
35.744
-50.3937
-66.2132
-104.142
-196.199
-198.678
-109.595
-97.265
-100.795
-63.0387
-27.1554
66.9227
197.59
253.979
164.788
52.3348
32.1913
-23.5356
-89.5677
-63.8147
-63.0091
-34.3238
-10.6604
94.7326
183.383
113.299
4.51489
-55.6769
-143.938
-106.391
-5.50263
-59.8306
-164.637
-205.262
-152.253
-101.607
-131.264
-111.423
10.911
121.576
203.953
242.309
216.293
208.724
158.443
39.9896
-20.4592
69.2945
249.335
261.125
93.948
-99.8394
-223.718
-289.408
-263.673
-232.239
-166.964
-4.35485
121.497
86.7135
-46.905
-105.195
-24.6292
67.7102
111.008
114.004
129.861
102.376
70.4733
18.933
-44.4217
-80.4771
-12.3917
34.1137
15.4959
-49.7094
-99.9676
-146.215
-202.059
-170.124
-38.6413
32.9703
46.2657
25.452
15.8964
61.8402
46.025
-18.2677
-28.8386
-49.0653
-19.1538
-7.14304
-9.12774
99.9791
109.893
41.0148
39.7395
43.3634
19.5707
-84.6786
-148.568
-69.9864
-8.44355
35.7429
114.504
177.116
207.371
235.33
237.531
268.347
163.454
-8.2998
-165.313
-239.837
-158.676
-63.8893
-75.2865
-45.4422
-42.2413
-59.4129
-46.4468
-38.6213
2.05618
-90.011
-210.217
-157.148
-92.8274
-86.2823
-160.186
-281.384
-295.547
-196.186
-32.5266
141.834
346.219
477.186
423.55
239.074
97.2703
-10.4122
-64.0697
-24.067
114.205
202.792
134.113
-16.7339
-177.025
-256.412
-255.423
-252.809
-123.087
142.969
316.272
291.916
163.602
17.5369
-25.4462
-59.2112
-183.249
-152.627
-19.9101
4.3049
-129.415
-181.699
-85.1631
-128.222
-105.993
12.4803
119.997
251.865
263.223
136.861
19.4908
-89.6174
-258.282
-355.027
-286.132
-194.288
-28.8427
209.414
362.394
389.252
329.124
238.338
132.419
113.142
86.1488
-8.29587
-55.6271
-83.3684
-151.632
-146.296
-129.85
-88.3604
-55.2186
-50.7195
14.6136
90.6903
106.923
25.6454
-115.909
-220.218
-262.941
-309.62
-288.015
-185.364
-87.1164
71.0041
167.609
240.011
273.908
145.132
43.4052
-47.8928
-73.6487
20.1166
4.79111
48.5689
191.556
233.414
96.5161
-25.0708
-23.3884
19.5254
-2.05883
9.74378
32.19
1.1209
-45.834
-101.804
-97.5047
-44.4775
-36.3046
-25.5837
45.1168
210.436
239.569
78.5444
-13.7676
-77.5698
-51.9698
-83.4342
-207.605
-193.17
-49.9943
-8.51462
-78.8933
-102.696
-43.2538
31.6238
85.8216
112.46
28.4845
-55.4193
-108.935
-222.649
-243.93
-74.2824
47.9745
29.8873
77.2971
143.969
204.639
232.487
204.045
166.113
183.271
123.403
57.2348
18.0297
-11.0383
-11.4096
7.85411
25.4264
35.2057
-21.1541
-53.8261
-11.5943
-80.8717
-97.3979
-119.005
-113.465
-70.007
-50.2671
-75.1232
-111.333
-142.216
-132.194
-89.5493
-63.7518
-159.421
-227.909
-106.841
-39.6584
-102.232
-88.1882
25.6139
144.541
235.279
244.788
205.546
164.498
70.0156
33.801
63.9425
178.454
338.877
368.343
241.014
52.4886
-23.8451
-106.759
-292.968
-340.842
-92.0649
130.82
135.757
-51.019
-148.683
-86.9021
-57.9015
-55.5733
-16.2131
-4.51029
-45.5386
-104.959
-133.732
-100.035
-89.6652
-45.6706
-7.6526
38.1023
94.9599
149.267
117.337
107.414
100.412
67.1103
31.5558
-15.9561
-43.2168
-148.959
-251.836
-193.292
-146.826
-130.327
-88.5597
-43.7309
-7.04533
32.2419
111.81
201.278
275.709
267.307
174.464
60.0306
-41.718
-103.875
-130.901
-129.341
-75.1187
126.466
369.931
294.681
127.664
-56.2098
-223.302
-298.634
-349.142
-321.624
-73.0525
76.8375
63.8762
8.36504
88.1767
138.281
94.2995
32.2507
37.8084
109.779
116.854
76.7946
55.2718
67.2033
46.8122
11.2351
-53.8172
-80.3836
3.94404
80.528
26.1678
-52.9106
-93.569
-133.365
-240.203
-237.814
-97.2745
9.70853
72.12
66.1737
35.8821
-9.71391
-161.156
-240.591
-144.849
15.6862
114.019
122.594
93.9281
54.1055
41.0706
76.8281
165.251
179.934
103.212
-28.7101
-91.7038
-68.175
-39.366
-24.8116
-18.7561
-7.07055
156.272
151.938
17.8442
1.47822
98.6589
233.263
206.605
34.6445
-116.199
-160.545
-114.811
-38.39
20.1137
43.6886
-12.0711
-109.229
-213.359
-304.232
-263.069
-152.353
-51.504
43.6065
104.328
55.3215
-80.9384
-206.92
-108.728
84.0534
159.285
159.613
119.739
99.0197
64.8729
21.1732
85.6651
136.726
159.85
231.722
220.067
117.155
-127.032
-285.144
-236.842
-209.125
-264.57
-283.096
-176.992
31.6834
161.787
242.679
312.572
263.875
139.612
26.3378
-55.7009
-58.4458
-51.9976
-81.182
-59.0691
8.42314
83.7371
150.514
120.271
110.144
166.63
154.326
52.7308
21.8814
-76.6785
-187.22
-268.469
-307.891
-336.022
-371.025
-409.347
-291.994
-15.1396
106.328
47.122
12.0665
30.1977
85.5024
126.96
192.087
303.736
353.977
225.309
43.5142
-22.9416
-111.05
-251.934
-195.702
28.3602
245.514
338.023
344.653
236.021
116.454
49.5926
-32.7834
-116.526
-153.892
-198.901
-194.367
-170.574
-145.727
-119.881
-153.636
-163.23
-95.8929
57.7498
140.556
74.5514
6.25726
64.0803
46.7558
-58.1204
-66.3412
31.7868
107.877
107.398
77.1867
66.0072
35.7992
7.52466
-34.9602
-2.42279
39.5632
47.2026
16.2799
-53.327
-113.786
-93.3157
-2.42718
99.3633
22.3889
-72.6744
-174.016
-182.718
-98.2049
-19.6358
89.5679
195.417
232.939
195.43
102.956
20.3506
-69.6064
-126.581
-150.595
-101.872
-59.2401
-65.289
-106.012
-157.244
-121.762
-52.3374
80.1439
147.187
151.668
189.928
192.168
187.509
125.522
-62.4747
-175.24
-108.73
5.96912
45.7973
14.0358
18.0188
95.8653
123.97
43.3096
12.2216
81.7695
54.554
-100.669
-227.2
-304.648
-360.113
-365.041
-230.748
-56.4466
79.8023
246.482
236.95
154.896
103.076
114.862
157.669
149.467
106.586
102.744
-73.3374
-110.959
-103.847
-98.4697
-28.5422
45.0614
182.961
293.747
147.526
-50.276
-140.927
-178.188
-164.949
-90.0411
-1.89149
58.3827
45.909
-42.453
-63.7248
-96.5025
-124.333
-206.445
-175.681
-126.342
-130.832
-68.1585
44.5022
79.0471
116.423
228.746
270.578
193.164
75.7475
13.6645
-21.6039
18.8882
39.364
22.8434
2.10106
41.805
175.095
215.377
151.599
136.805
130.24
18.5308
-196.088
-290.838
-280.798
-269.078
-213.384
-165.358
-70.2246
17.4851
53.9105
1.38914
-73.3938
62.8498
88.2609
111.965
38.3889
-84.0833
-194.63
-134.223
45.6873
147.604
168.975
159.47
83.9277
37.9135
-111.499
-307.891
-305
-131.722
115.32
208.461
226.209
211.481
186.738
214.963
229.093
116.58
21.8631
-34.3924
-83.6779
-112.71
-110.388
-75.3613
-11.5002
38.747
72.038
100.779
67.9439
-113.335
-272.103
-248.894
-223.313
-175.61
-147.335
-156.049
-125.235
-45.7834
-5.04948
-0.267094
23.2648
57.3443
55.5783
81.561
134.824
198.957
217.667
165.886
129.627
134.35
93.096
58.0452
69.4746
31.9685
18.3792
-25.4112
-84.2036
-72.9933
-93.0942
-117.55
-167.039
-154.521
-52.9266
93.0275
162.247
175.453
148.972
-10.5727
-119.007
-66.6731
-37.5923
12.6368
-66.0465
-92.9739
-110.006
-110.352
-53.7611
-8.03769
35.0607
85.7276
103.312
87.9531
28.8518
-54.2874
-84.9385
-115.563
-145.682
-66.1632
-55.0525
-79.6927
-22.8012
49.3786
65.0831
19.9649
1.0256
93.2244
157.607
169.751
145.896
56.8143
4.53517
30.5573
67.5393
85.1168
114.696
35.7708
-70.1779
-42.7079
-39.0905
-155.166
-208.681
-194.344
-105.601
14.9353
133.474
118.939
22.3227
-30.79
-21.9598
21.1874
69.5644
47.5705
-30.9355
-106.804
-70.816
17.5386
34.6633
-49.1951
-96.5941
-28.5356
13.6778
-91.2572
-102.157
47.5777
171.374
166.828
109.318
56.0395
63.9401
20.8811
-95.2645
-143.478
-85.965
-3.42095
31.0651
86.6519
174.087
170.418
70.497
64.5986
49.0157
81.8709
94.8254
-97.6693
-256.912
-259.809
-203.085
-140.558
-236.911
-224.401
-10.8171
60.7635
35.5919
12.1514
16.1015
71.7257
105.759
94.1456
130.699
98.2057
-6.599
-45.014
-22.4343
-36.2433
-17.4545
62.9585
117.738
113.59
178.106
204.383
80.925
-8.83048
-19.2863
-59.6817
-125.421
-180.24
-213.211
-189.5
-95.3058
21.1778
198.141
269.62
158.047
24.929
-77.7564
-163.005
-154.955
-97.951
-6.247
84.899
86.8299
113.399
110.449
57.6276
2.86377
-73.6083
-41.7744
32.5548
28.8251
-48.2772
-159.322
-233.32
-232.799
-125.176
88.1586
200.381
112.708
24.034
-38.5614
-141.411
-118.783
-63.4375
41.1811
148.27
167.661
193.973
109.925
26.1944
-71.0449
-119.162
-86.4875
-10.3191
73.8102
97.7913
48.4228
-11.9688
39.2424
-23.2853
-155.782
-65.6975
41.7662
85.1487
71.0236
31.1547
-4.0402
-42.8909
-22.6613
24.333
51.6436
45.6724
24.794
28.4404
66.5588
106.51
6.94205
-91.3985
-96.5258
-33.825
13.0004
-2.16331
-45.5727
-86.8898
-144.022
-119.646
-99.5089
-68.7101
-19.8335
-6.56841
48.4839
97.4533
151.663
158.239
126.477
67.6201
-7.89078
-115.928
-264.067
-208.697
-51.3961
-77.1496
-26.4258
93.6935
152.329
130.181
48.2004
-40.9708
-84.786
-145.396
-225.811
-185.654
5.99033
148.06
198.426
195.568
136.577
88.7423
28.7489
-71.5663
-25.2096
161.034
141.736
81.1268
61.3877
41.7165
79.9169
137.802
188.139
279.647
306.59
126.381
-216.568
-468.215
-525.843
-456.68
-302.39
-129.78
96.6483
262.279
163.501
15.1801
-81.8503
-143.691
-158.245
-152.067
-122.882
-60.9877
-60.3464
5.65455
61.6111
111.357
126.391
135.455
139.15
98.1298
4.81622
-47.127
-3.25763
32.4165
62.6828
7.87753
-29.8756
15.8178
49.6648
68.2498
58.6581
41.0478
49.8535
27.8835
-39.6092
-61.0853
-10.9745
55.0744
73.9677
97.0713
126.238
92.6445
-2.09038
-60.8833
-19.2811
7.95834
-56.5031
-94.5977
-113.914
-168.62
-203.054
-259.378
-215.159
-64.8529
82.0988
142.892
122.003
66.0593
11.185
-28.0012
-70.1745
-88.8451
-27.6857
56.329
55.4139
90.049
184.813
166.174
65.3975
-86.641
-100.885
60.7708
129.694
49.0206
53.7397
88.3385
27.1418
-35.6147
-86.3641
-82.9431
-55.3799
-35.993
-79.3577
-147.249
-81.4879
-10.1261
14.96
21.5442
54.5249
139.369
169.037
108.9
22.7975
-82.8096
-151.733
-104.214
39.8411
147.283
150.451
145.445
153.447
105.971
2.85958
-84.7523
-172.597
-170.807
-136.963
-129.568
-137.722
-219.111
-281.853
-247.34
-198.444
-132.738
32.3247
128.679
140.212
143.849
199.361
182.77
118.969
163.409
191.931
152.746
52.6145
-52.0119
-35.9371
22.1765
71.7067
190.836
227.844
128.129
13.2274
-9.64272
-78.7782
-193.786
-210.955
-140.953
-107.862
-122.775
-132.711
-76.4477
25.8635
110.554
127.473
97.924
-78.2696
-226.121
-238.622
-127.967
39.3328
189.59
299.655
204.686
35.4469
-6.4709
-100.616
-209.807
-210.257
-127.518
-19.5458
35.9339
3.13086
-43.6942
10.645
28.7213
87.6545
91.256
41.7649
27.6414
22.3944
30.6996
90.6218
173.914
212.195
121.577
44.3382
-23.8191
-97.2193
-86.531
-46.1982
-66.8628
-79.1318
-66.5779
-58.2537
-145.055
-150.575
9.84116
178.37
229.24
187.662
146.675
71.3029
-98.9899
-244.491
-247.456
-151.815
-48.4101
58.9429
62.1435
10.031
-47.9
-69.6842
-129.006
-103.896
88.6788
170.302
107.197
66.0235
52.9908
-4.5533
-119.86
-176.334
-138.714
-72.9401
-25.1597
7.34294
57.2884
109.846
158.582
225.903
240.833
230.171
182.307
57.8649
-108.903
-198.124
-185.531
-159.354
-214.38
-137.907
12.6651
43.0962
-12.6844
-63.3249
-44.636
60.3691
126.916
152.939
139.342
77.8448
30.8717
-4.66504
17.6793
44.1668
54.0195
9.05267
-3.80969
-34.7221
-52.0263
-99.8093
-208.307
-234.513
-111.781
29.8861
166.888
205.126
102.51
-45.0423
-122.312
-162.46
-142.998
-118.897
-52.9031
35.0276
100.956
103.409
60.3539
54.6756
15.9812
-47.9695
-67.0421
-55.956
46.1373
100.152
94.4067
99.1663
64.1588
94.9377
109.593
60.1479
39.841
30.6806
10.2313
-33.1318
-80.0442
-58.2365
-17.949
-36.5405
-59.6069
-66.752
-125.275
-169.28
-187.193
-135.173
-83.448
-65.2151
16.1443
39.9802
45.3035
64.1002
78.282
122.457
108.823
44.6684
21.762
61.2022
71.545
37.7047
79.9722
140.197
208.96
255.921
234.798
149.305
-9.75413
-170.785
-252.837
-245.432
-165.162
-100.046
-73.8974
-105.144
-86.229
-67.1487
-81.2981
-54.7962
-27.7037
-1.62114
-61.7808
-192.816
-184.638
-103.641
-50.6105
17.294
113.25
168.376
197.641
130.725
48.1495
58.986
-19.0732
-61.2197
26.7683
57.1162
68.1447
79.939
49.3823
49.402
142.879
324.09
360.894
189.011
30.6314
-30.4594
-86.1778
-155.159
-264.661
-220.373
-146.914
-128.774
-71.0612
19.5559
1.19572
-56.0363
-69.8772
-66.502
-52.1744
-52.2336
-34.4543
-30.8489
-62.6409
-41.0508
-45.952
-40.631
6.03846
48.145
97.4937
67.2154
29.5911
55.5157
94.8889
87.8459
20.3402
46.4883
52.1797
-69.9551
-101.578
-61.0828
-10.4595
34.9189
136.574
251.031
268.329
140.727
-77.5486
-213.148
-229.819
-246.986
-157.805
-24.9854
36.5752
-36.5922
-106.213
-75.7673
30.8503
141.449
170.054
214.454
190.573
59.9148
-64.8237
-112.882
-127.265
-111.632
-57.3271
35.2944
102.431
140.989
147.071
80.8423
9.78362
-7.2807
-41.3851
-37.2747
-78.9227
-125.93
-119.615
-126.273
-113.194
-90.0786
-71.4816
-43.2351
-29.3422
12.1666
52.4826
-44.5042
-84.0797
-20.683
27.0193
90.8007
222.059
320.633
335.641
260.226
170.243
127.484
45.476
-100.065
-209.926
-98.6155
-50.8311
-109.618
-129.066
-131.817
-141.251
-158.474
-139.433
-77.568
-58.1532
-58.6631
-94.6014
-118.196
-85.1052
-82.2016
-61.7253
-21.6599
7.62239
80.6231
119.273
25.2942
19.0424
60.5369
101.008
156.642
179.606
232.864
304.429
312.598
186.346
59.9669
-28.4236
-43.7604
6.66054
23.623
-57.7727
-157.136
-183.049
-186.729
-93.4059
-20.8983
5.34596
32.3099
35.5034
-32.5508
-52.3257
-5.89355
-18.0775
-84.9102
-80.5747
-117.57
-148.662
-122.045
-74.7535
-125.264
-187.439
-81.0068
4.72825
41.5073
76.9816
51.2666
0.382964
-34.1693
31.6167
129.261
88.7505
86.6519
172.753
151.061
78.3664
80.2792
154.003
180.643
82.0916
24.721
101.575
106.721
73.9564
38.177
-38.9688
-78.5956
-116.725
-84.8792
-75.9504
-179.719
-144.341
-47.0215
-74.3779
-111.537
-147.129
-205.129
-194.223
-165.664
-100.945
42.1595
203.229
353.39
442.537
336.605
146.229
-33.4905
-129.532
-195.701
-230.733
-157.845
-111.133
-145.034
-80.602
36.2891
77.8192
83.2719
94.8764
39.8515
-24.425
-41.5118
-15.8417
-5.4929
-73.5139
-32.7423
59.5864
90.3494
124.125
120.963
109.602
75.4428
16.9636
-13.4578
-58.3787
-16.7269
13.0271
-4.78238
24.3101
137.919
108.313
-15.0888
-91.2783
-120.947
-121.087
-114.606
-134.29
-92.3565
-27.5775
-31.3411
1.48575
104.851
215.211
172.147
41.2375
-0.812123
-22.8367
-88.0684
-191.223
-192.448
-108.624
-48.3669
16.6257
-49.0052
-96.405
-33.7301
61.3284
195.409
187.333
158.031
143.793
60.1382
0.279125
-30.2684
-56.3702
-121.549
-119.527
-10.7055
75.9506
16.1147
22.3788
121.837
122.571
58.8618
-45.1717
-116.219
-91.4532
-94.393
-47.132
12.9821
-18.5345
-30.5356
-32.5669
-2.20694
38.9047
1.90403
0.977646
89.448
110.342
44.8263
17.7097
30.6829
-45.9016
-109.255
-1.48622
85.1977
70.7787
65.9618
-4.67334
-72.3624
-130.109
-192.12
-161.721
-85.8286
-43.9763
22.9132
161.014
215.851
205.189
195.564
103.05
-81.4917
-222.17
-215.393
-157.351
-152.408
-110.752
-69.8284
-28.6743
13.046
75.5933
139.597
135.191
57.7145
15.3598
61.1022
51.2298
23.3938
-31.0776
-49.7251
31.4009
106.708
174.152
186.536
117.36
27.2492
-57.7468
-72.6016
-36.275
-29.3766
0.696512
0.753264
-25.9974
-39.5954
-56.5812
-75.3489
-77.3926
-118.3
-141.638
-149.033
-125.289
-96.6415
-35.3283
41.1518
6.1631
-24.6571
58.3066
42.6962
-20.4383
-41.35
46.1892
129.343
95.0242
125.314
190.942
196.925
166.06
68.6783
15.6228
22.7675
-24.8067
-38.1905
-33.6919
-70.6528
-59.1474
-39.5556
-90.8091
-109.544
-50.0262
14.8573
-49.9409
-93.8044
-17.4024
-12.5234
-45.6547
-73.8246
-108.449
-108.23
-117.169
-66.7265
25.0411
136.231
179.914
226.089
181.175
107.223
88.6902
-14.1987
-114.519
-76.2062
-25.0122
-26.272
-29.5477
22.5673
124.353
108.043
31.8996
64.733
65.2669
-16.1126
-124.985
-184.102
-194.401
-262.214
-192.054
13.7972
102.063
158.917
130.592
68.4549
-2.11964
-63.9621
-46.1107
29.0319
93.3445
108.136
106.915
97.4453
8.73432
-104.467
-199.937
-279.195
-159.091
53.3613
145.547
141.071
106.626
108.302
130.597
53.1059
-36.6671
20.5698
90.1208
38.5027
-90.2173
-191.382
-267.149
-276.565
-149.831
34.9096
273.518
379.902
276.699
168.71
48.8873
-61.3327
-117.212
-123.75
-70.9785
-24.9514
5.52268
4.71631
-33.401
-92.2005
-152.25
-159.988
-100.875
-60.4493
-22.9314
-14.6179
-31.6166
-35.2918
-10.501
67.9796
154.128
142.625
67.4969
32.6896
61.0245
84.2685
70.9581
39.2489
-10.4356
-37.93
-1.35778
10.1923
-8.87327
14.8845
27.0689
-18.5166
-21.3002
38.0951
1.67103
-89.0286
-140.119
-149.067
-106.094
-22.9524
19.9951
35.1104
67.3433
109.335
119.269
63.0402
-31.7481
-6.43463
107.837
162.948
101.873
79.6643
25.8353
-42.1193
-120.896
-234.662
-228.98
-108.096
1.90438
20.1887
4.70369
17.5092
1.73168
-72.8279
-79.1109
-54.2695
-27.618
27.5373
14.9315
-45.1432
-73.6378
-31.9012
-4.22382
-9.30668
46.9796
144.598
203.087
184.668
38.9308
-42.2406
-38.1846
-27.0692
1.37428
41.2297
156.84
220.39
155.992
115.855
91.4688
49.3527
6.16038
-95.1735
-192.635
-198.631
-123.34
-138.336
-163.406
-109.947
24.268
65.6229
-24.9182
-47.1829
34.923
30.879
-72.1209
-118.789
-61.9292
-58.2462
-87.8958
-96.0826
-22.2677
60.3749
141.062
144.309
88.334
48.1676
29.7961
80.8171
108.108
83.5419
102.797
8.70849
-154.247
-261.77
-311.146
-178.85
1.70111
177.195
337.907
334.873
214.608
117.514
19.5798
-24.2137
-66.0404
-89.813
-45.7628
-79.1911
-83.3195
-51.6802
-37.9472
37.427
128.204
161.845
100.668
-62.5398
-152.62
-249.387
-340.988
-315.308
-181.871
-63.3103
24.9028
120.218
198.168
244.478
198.935
68.338
-72.7435
-126.343
-111.457
-72.8737
12.4981
125.374
156.377
163.221
122.882
39.593
-31.5165
-10.7095
33.2178
55.8881
59.8978
41.5584
0.761895
-48.5846
-110.956
-127.571
-109.333
-113.116
-56.9704
-30.0821
-68.9297
-94.531
-40.2004
68.5124
154.765
133.801
119.287
68.2136
54.9864
18.2763
-12.4394
-57.6551
-94.6187
-53.6992
12.3769
52.5107
29.9107
-53.7321
-158.445
-186.004
-75.5998
75.5509
132.007
119.266
124.821
105.269
57.0627
-16.7322
-120.835
-75.2541
-24.5817
-60.878
-53.5383
-40.8084
-39.5866
-34.2605
-5.73969
41.4889
53.085
94.5627
70.1758
11.9124
-4.92654
12.6153
-53.4478
-103.624
-73.8674
-30.4389
-8.02701
-47.3148
-19.3541
106.621
130.846
137.873
206.147
281.324
154.675
-8.54857
-68.6392
-139.376
-198.913
-170.017
-108.205
-96.1908
-121.439
-76.6805
-23.3612
6.46367
35.9626
36.2723
-1.82161
20.2841
10.8231
-54.9395
-117.527
-141.871
-16.2098
88.3546
97.5667
95.2237
85.5901
116.052
123.908
108.696
107.523
82.94
-30.7866
-141.919
-120.065
-23.2546
8.90291
-5.78715
47.1654
107.856
48.881
-51.4993
-56.9657
3.84316
33.7267
10.4847
-28.9692
-92.9739
-145.796
-159.773
-145.679
-114.113
-47.3063
98.1104
192.231
192.607
160.048
14.9049
-178.214
-232.913
-242.219
-227.468
-37.0979
224.589
363.945
366.239
288.888
117.674
-60.6971
-115.644
-94.074
-64.0268
-24.2149
-18.766
-77.3492
-201.259
-272.687
-197.051
-37.0743
82.2025
196.646
292.71
266.148
158.218
21.8904
-41.8987
-77.7586
-85.0221
-50.2774
-58.8991
-85.7136
-83.1704
-88.3574
-68.2598
-55.6551
21.0666
88.206
113.868
120.801
47.7001
-17.4059
-74.652
-146.978
-213.763
-142.666
-36.7771
37.9775
80.7053
72.0779
52.2999
116.69
96.7626
29.4252
3.96927
37.383
46.3743
83.0168
138.257
119.503
81.6726
21.9752
-79.1913
-146.548
-175.585
-207.829
-214.041
-128.905
13.677
105.584
69.9501
-12.0115
17.7227
172.951
167.976
51.2072
-16.3784
-63.2085
-136.863
-168.732
-157.058
-60.1857
46.3792
103.558
136.671
91.1484
73.0464
54.2216
-3.48263
60.2223
141.418
206.613
173.502
-7.93426
-98.2288
-63.7782
-40.5268
-67.8378
-121.94
-173.386
-163.885
-167.818
-118.661
-33.7432
32.5045
114.673
203.874
171.348
32.2984
-126.765
-175.485
-204.142
-136.677
-41.613
51.7374
57.9455
54.5311
79.0248
97.2851
130.024
104.102
42.4269
15.1968
-101.738
-133.031
2.72817
104.074
133.686
163.168
114.205
32.163
-46.7756
-79.3161
-34.4022
-30.4383
-75.1163
-88.4754
-46.866
-37.8832
-16.6346
24.6121
65.7299
55.4326
51.8312
38.5089
23.1821
-79.3468
-170.892
-177.809
-81.5887
8.59601
-16.9639
-35.2363
-7.0401
-6.55288
0.210657
3.60929
9.65747
75.9925
126.434
133.655
107.373
48.9824
5.94129
-47.1033
-134.105
-127.746
-16.9079
109.364
207.701
199.523
146.118
7.4472
-114.256
-56.3598
31.9435
17.6774
-55.4038
-82.0296
-71.524
-34.9497
-35.4493
-46.583
24.2862
29.0534
-87.5532
-118.649
-80.1367
-82.7432
-133.022
-139.615
-37.8147
59.2942
38.4159
-49.8941
-73.9384
8.49467
98.9623
112.713
121.247
133.193
94.3426
90.3992
74.1752
58.3614
80.0179
48.608
-6.87809
-34.1733
-58.7962
-49.5426
-50.6685
-27.2967
18.3979
31.7707
95.8636
141.402
135.235
77.3068
-6.70155
-109.622
-165.869
-205.203
-248.076
-255.165
-159.108
-74.85
-7.77118
47.2925
73.6988
79.9037
80.894
96.7189
108.597
133.493
111.423
41.453
-3.3011
-36.6163
-67.2936
-32.5435
50.3443
58.413
94.7882
121.529
72.9056
-13.8314
-92.8268
-124.403
-123.195
-85.4649
-58.6152
0.565555
53.8632
20.2834
-55.2913
-75.2239
-65.9737
-1.34982
41.4892
35.0562
7.46705
13.2675
-1.52656
11.802
18.5106
56.2071
70.1119
41.4397
21.7872
-12.0477
-22.1182
-42.5149
-68.1619
20.7537
95.2693
94.2863
13.7077
-63.5456
-69.606
-68.9909
-77.2932
-66.678
2.98455
41.5083
39.4705
-8.45505
-28.2609
3.225
26.9316
11.9909
0.804797
43.477
77.3718
15.3493
-43.0705
-55.0454
-33.2328
-15.284
-0.852851
74.8583
146.004
170.836
117.681
83.3464
69.2737
17.2565
-52.3537
-158.589
-188.479
-171.691
-163.611
-157.265
-121.739
-79.3006
-21.8234
13.1081
79.1501
105.047
91.3513
41.0121
-1.32078
-10.176
2.42617
6.6248
31.1828
47.2356
62.0664
92.6852
105.868
114.702
111.712
46.9294
3.27534
-5.04735
-40.9425
-52.0333
-68.5619
-77.5115
-70.586
-60.4211
-40.992
-5.74264
8.43128
-3.03924
-39.0221
-31.6237
6.06967
24.7716
6.59253
-9.74985
16.2215
6.556
-0.992958
-13.1882
-20.2607
-20.0436
-31.9435
-42.698
-13.2496
-21.5489
-15.0114
-6.93715
-16.9378
0.289849
17.5575
29.6768
68.4953
83.0004
64.2791
36.3614
-12.532
-43.6413
-57.3198
-39.2672
-0.866796
0.570858
23.8835
55.2454
52.0243
43.5158
35.7249
11.4256
-12.6923
4.03463
1.08331
16.1311
-4.52945
0.429105
5.69993
9.05413
-5.59208
-52.5788
-84.3277
-82.0753
-70.5453
-31.7475
4.29688
35.446
36.6613
33.1303
5.21564
10.9659
46.0316
52.3128
83.4472
63.9271
36.5725
-24.092
-118.545
-165.814
-130.03
-89.8917
-38.7585
15.2981
42.631
46.1854
33.4648
24.4545
20.8589
43.0672
70.1732
44.4506
17.4963
4.35347
-52.6462
-45.0201
-43.403
-15.2738
69.7237
121.397
131.118
168.262
123.472
6.94523
-62.1812
-105.772
-125.74
-122.998
-127.291
-93.4
-21.6047
18.861
21.1105
12.3375
-13.0665
-37.1676
-46.2624
-48.3975
-39.5288
-11.9921
5.28785
21.3186
43.6747
74.3498
68.984
64.8003
75.0717
90.4499
99.3101
47.6865
-18.6129
-61.9233
-109.664
-155.702
-126.253
-97.0952
-64.1493
-2.30778
57.9512
95.1212
99.2737
91.1029
104.757
102.659
69.7196
19.2808
12.3009
5.03943
-23.3969
-29.8563
-43.2478
-42.2685
-33.2206
-18.42
-4.77858
-9.98488
-3.77468
-9.20478
-4.12116
-15.2805
-23.465
-24.9686
-51.1748
-61.6023
-39.9782
-27.4229
-54.888
-67.5583
-36.2668
-50.6788
-82.5633
-65.1966
1.0057
88.4864
205.368
226.866
204.59
209.991
127.142
-18.6737
-145.091
-241.501
-237.395
-165.553
-64.8046
24.1794
50.7061
38.6243
65.0879
81.6642
85.9352
83.5143
63.8425
16.2055
-69.2826
-78.5917
-70.2737
-94.2386
-65.5477
11.6925
67.4059
122.741
130.097
82.7293
19.9289
16.629
9.60002
-13.5958
-53.4964
-69.0759
-59.7046
-37.1983
-54.4713
-42.8734
-15.7212
-56.501
-91.2695
-85.5388
-88.2653
-69.4054
-31.642
24.2174
110.725
125.031
96.9148
58.8553
42.346
48.3166
41.6098
46.1606
58.352
89.0226
71.2936
22.5603
-26.129
-20.2671
-0.516689
-7.23083
-3.52826
38.5225
35.1705
-1.17536
-47.6376
-66.743
-79.1617
-105.463
-37.4343
-24.9564
-84.3863
-76.2823
-61.4445
-87.3734
-76.7605
-64.5338
-70.0115
-22.4211
66.14
88.0094
112.62
127.832
125.15
101.636
71.4672
53.6672
36.553
21.3844
-17.9486
-41.4924
-69.1408
-100.563
-80.3261
-51.6216
-39.0361
41.5568
109.81
128.736
58.6768
-8.81405
-23.8469
-42.9085
-44.426
-46.1228
-66.2709
-3.88186
68.7177
61.3238
-17.356
-99.2445
-58.9742
-25.9393
-46.8897
-44.0592
40.1555
85.6608
93.712
54.3545
14.0248
22.7671
28.2777
-30.226
-30.3696
4.43729
-43.4305
-98.9269
-155.169
-161.292
-94.6334
1.77177
72.9724
109.508
93.8875
34.9925
-3.39785
-14.0934
-7.84478
61.7363
91.186
43.2736
-2.78424
10.0686
-26.0119
-21.1145
5.28267
23.9478
134.055
168.027
151.774
115.554
5.10195
-37.9716
-10.6466
-4.55008
1.39169
-24.534
-58.7745
-101.145
-112.27
-103.678
-90.0147
-96.9073
-87.7724
-53.9786
28.0024
49.3544
-4.02609
-19.6696
-81.6235
-105.272
63.0659
140.877
176.884
128.28
-44.8758
-144.455
-200.664
-232.54
-245.734
-166.604
-56.9362
189.509
284.319
248.228
181.019
54.4243
-71.3839
-107.229
-18.7091
175.019
341.092
307.265
105.48
-89.6504
-256.202
-433.789
-453.861
-239.914
60.612
363.699
446.659
242.88
123.432
140.698
181.078
188.246
64.613
-138.662
-212.718
-261.852
-468.314
-438.899
-157.738
6.1612
24.6693
0.768201
54.8638
-33.6591
-71.4066
-98.1465
-16.7489
62.6847
129.98
35.7629
-218.632
-329.501
-85.5909
333.934
454.913
401.316
373.838
262.063
50.778
10.3108
106.862
194.132
206.31
128.592
-46.7334
-139.346
-150.37
-190.846
-275.288
-337.12
-297.696
-275.229
-284.505
-256.384
-190.509
-113.08
6.98487
136.154
276.559
319.131
334.862
343.014
92.2625
-194.245
-351.081
-478.901
-535.906
-250.757
83.7619
249.016
387.037
462.256
507.971
358.258
143.693
-39.0167
-98.3424
-31.2889
-63.9082
-67.5365
-17.0594
-13.8267
4.95642
104.413
228.067
246.714
193.307
-127.279
-380.68
-290.096
-73.9271
70.3549
-11.4146
-133.496
-159.669
-143.765
-199.393
-252.638
-191.042
-90.1872
-75.4008
-68.8397
26.725
63.9975
11.9701
42.9505
151.874
256.857
255.343
193.403
77.3655
-32.8519
-87.058
-74.5121
-53.559
4.83249
23.3163
49.8798
-11.5648
-176.455
-211.273
-57.3799
80.1804
157.031
182.701
198.3
193.236
216.352
235.21
94.3693
-92.0193
-64.8892
-13.9651
15.7553
65.5727
51.102
-45.4049
-199.581
-202.557
-81.441
-18.1091
-61.9086
-76.1256
-84.0762
-138.281
-239.237
-324.599
-238.75
-107.352
-17.081
92.1653
109.803
81.2759
74.2356
68.7318
-4.89329
-58.346
11.2082
113.725
161.825
94.6277
12.4192
70.0387
155.554
218.018
233.327
250.171
255.682
121.041
-115.393
-302.206
-399.686
-324.072
-325.56
-188.62
159.258
302.977
221.862
51.5917
15.9259
166.572
187.825
79.0024
19.2453
-12.7653
-90.6712
-184.851
-261.463
-224.908
-84.1718
156.867
180.476
111.79
2.92296
-192.06
-248.57
-55.5118
32.4876
103.547
140.089
110.209
83.5491
65.6199
54.7322
-7.75416
-89.3793
-223.735
-303.795
-105.932
118.51
42.8677
-53.3256
-186.673
-223.534
-66.779
108.742
125.27
5.76797
-120.426
-66.1711
13.636
129.495
120.314
67.9615
105.941
236.236
312.783
290.744
102.473
-13.3787
33.0687
88.5637
94.8794
231.651
287.437
-40.4396
-340.645
-332.872
-256.332
-215.531
-109.062
-3.28748
-29.6521
-95.6756
-20.8357
5.24198
-37.9667
-67.149
43.5165
95.4766
-20.5827
-187.933
-344.562
-250.152
-154.546
-91.7716
75.4828
268.266
603.698
712.775
325.443
-116.182
-296.128
-170.088
-79.7808
-136.843
-147.03
-89.9221
-54.5067
-122.538
-204.972
4.74743
321.653
311.228
51.7189
33.2641
82.2574
0.888172
-253.623
-418.346
-207.375
101.132
252.951
157.659
38.2511
49.7012
150.458
203.481
56.3999
23.0593
116.895
94.7908
-32.7915
-162.229
-115.622
-73.2591
-76.8483
-129.126
-122.258
-73.0573
-97.737
-152.831
34.5684
179.641
64.0539
-103.091
-89.8199
39.5157
64.7626
66.875
100.343
106.923
133.471
92.9373
39.6009
1.00377
-56.5651
-51.0552
-25.7111
98.5561
106.778
-104.253
-319.944
-349.566
-155.878
50.7995
104.329
2.12323
-79.5531
-111.27
-42.8371
0.526341
28.1156
46.9033
29.2924
93.1685
119.53
185.478
229.853
33.3311
-208.495
-102.689
103.132
245.062
211.895
119.557
56.9643
-147.408
-49.5616
73.7
33.8432
118.268
235.476
348.306
267.171
-109.912
-386.77
-449.718
-478.261
-494.839
-267.487
-86.4654
-56.9
-51.6448
44.87
192.035
209.841
200.206
80.9242
-3.93002
-33.4007
-102.056
-161.225
-194.037
-124.46
67.4863
242.175
359.283
398.57
398.281
327.387
106.421
-228.798
-453.475
-473.56
-406.281
-201.7
288.04
537.05
372.298
25.0241
-128.466
-281.165
-317.084
-360.965
-189.614
94.0122
157.396
60.2491
84.1781
179.427
110.032
128.854
253.134
288.226
180.756
-122.752
-452.041
-551.383
-201.248
217.189
257.223
128.947
39.3396
112.154
121.791
162.626
75.5864
-114.065
-193.772
-277.151
-264.985
-64.6098
27.8399
-35.028
44.6671
159.317
100.261
50.9232
16.4655
-59.107
-137.203
-99.8921
-53.2951
52.5956
91.4134
-36.6246
-68.8979
33.0703
102.766
135.227
262.169
363.376
234.595
-46.3811
-293.47
-409.774
-435.047
-342.329
-250.599
-95.9409
118.254
420.915
502.386
286.353
114.522
4.75741
-48.0236
-85.4823
-97.6404
-72.7896
-94.5787
-243.228
-280.434
-112.932
58.2414
213.517
417.857
495.746
304.835
155.509
-51.5436
-321.634
-434.952
-396.786
-241.572
-74.1783
-51.2978
-10.3459
-33.8346
-6.7396
125.323
119.888
59.2684
57.6959
91.9727
95.9118
85.2252
9.32609
-74.2319
-133.289
-10.3798
153.421
194.131
79.3377
-132.43
-234.378
-146.297
-101.634
-41.9856
116.641
287.099
324.252
170.482
7.10503
-60.4379
-14.8289
-39.7618
-124.717
-92.5047
26.0074
101.02
50.6876
8.36306
29.1694
-16.7743
-112.589
-97.8175
-70.2004
-102.32
-177.179
-250.665
-261.753
-153.132
52.765
150.419
153.483
187.108
283.326
234.173
-30.5452
-240.663
-293.895
-138.881
173.198
239.171
54.5175
-148.543
-191.355
-49.5883
6.79739
92.7405
203.815
208.015
125.28
19.0453
-8.21993
-139.52
-306.986
-215.228
-149.76
-108.454
67.2375
224.854
178.654
151.119
317.832
368.13
314.936
210.358
89.7539
-116.099
-229.978
-90.6197
16.8221
-28.5928
-160.209
-206.296
-208.448
-215.774
-73.6094
78.6961
170.964
140.701
-59.6122
-273.755
-427.635
-485.705
-473.681
-433.306
-164.915
95.4573
296.837
288.205
320.107
339.29
198.178
180.156
180.498
137.183
130.266
108.7
30.5573
-56.8965
-4.21929
124.519
197.503
304.426
272.515
138.438
-52.0847
-136.243
-185.504
-192.069
-286.304
-249.884
-149.907
-134.504
-4.02542
92.7525
174.794
56.6443
-136.531
-110.246
-72.5846
-18.6213
-56.6706
-95.1673
-22.995
21.4288
-49.3589
-94.7278
-36.1295
41.1304
119.249
216.642
229.216
87.1284
-186.459
-274.214
-248.378
-196.131
-179.094
-245.014
-182.273
-37.228
146.408
379.627
435.273
260.866
151.452
84.6617
127.396
204.193
264.356
228.85
236.475
105.766
-101.361
-213.966
-221.193
-225.972
-181.772
-118.913
-78.7745
-89.3571
-85.1605
-114.068
-42.3697
62.6918
97.8851
78.5627
-110.391
-263.184
-288.634
-228.405
-152.713
-8.593
141.553
177.047
105.259
170.968
263.395
346.185
381.822
244.189
-39.9983
-262.7
-359.246
-297.727
-152.12
-91.4782
-12.0185
121.714
62.7627
-35.4165
-129.384
-95.8368
87.5829
180.773
165.881
206.809
173.672
56.672
-41.6986
-109.906
-93.4621
-44.7835
10.246
38.8621
-54.3776
-16.8929
39.9597
-76.3262
-211.848
-274.785
-209.599
-68.6211
46.2453
203.348
338.075
298.245
197.769
42.7495
-13.6865
62.5451
68.8208
-9.53299
-155.887
-171.662
-95.1258
-122.987
-97.7615
28.013
15.8061
-138.242
-317.849
-365.668
-188.807
-95.9034
3.57309
103.437
179.958
147.967
108.799
195.891
281.991
325.662
272.102
159.798
27.8533
-94.6303
-118.527
-85.9981
46.1449
122.179
193.901
146.87
13.0824
-77.631
-217.895
-290.386
-270.352
-195.336
-170.991
-158.428
103.971
276.265
243.264
58.961
-63.2169
-34.7458
-28.4202
-63.2434
-42.0505
-14.0154
0.536145
31.2447
23.9372
-28.0589
-95.7235
-200.572
-241.007
-208.501
-108.659
-2.41186
48.0615
72.2371
120.566
247.498
210.622
59.0674
-33.8278
-70.6989
-50.0024
61.3948
196.456
210.775
108.681
-24.556
-159.322
-95.974
57.6922
168.255
219.647
157.067
36.5287
7.61284
75.3271
50.2294
33.3776
6.75508
-59.59
-121.335
-147.908
-129.887
-17.4066
86.0993
-99.8406
-346.266
-352.797
-131.931
119.733
135.147
-29.1293
-206.827
-369.723
-369.534
-208.245
29.6586
126.999
241.069
273.777
222.528
171.995
176.344
44.448
-109.518
-71.4233
205.565
415.271
315.464
67.0667
-0.129117
57.2118
161.11
174.163
57.7768
-104.29
-254.506
-303.424
-196.581
-131.106
-131.591
-144.029
-205.767
-223.677
-66.4691
142.654
164.084
53.17
-60.7463
-93.6981
-78.6579
-64.3487
44.8772
61.003
43.329
4.23247
4.21682
116.972
114.174
12.6961
-8.41956
90.0014
230.133
251.014
122.931
-18.2625
-127.509
-123.707
-48.9637
-42.4538
-8.11516
80.8712
87.997
78.4273
51.7455
-84.0798
-167.669
-97.4342
-37.966
71.1161
88.0757
129.84
131.096
-20.9534
-133.427
-128.445
-79.104
-57.6234
-108.807
-157.024
-156.535
-143.529
-164.926
-167.887
-191.699
-42.193
152.132
309.444
330.523
173.953
42.4489
-148.293
-229.546
-135.973
-119.782
-132.65
-0.0245979
267.323
502.892
457.009
321.695
230.496
45.6803
-101.678
-80.6417
3.95813
-53.7552
-214.036
-301.365
-179.843
-95.4325
-0.418198
71.8987
45.5174
38.6714
60.3106
-62.6807
-122.024
-149.028
-102.648
-130.234
-188.602
-137.123
55.029
147.409
142.976
119.987
108.167
57.271
-33.9207
-37.2664
-14.9744
-10.25
23.4835
85.7334
69.38
178.266
175.245
46.5639
-117.394
-181.065
-153.811
-88.5731
5.90714
73.8808
83.4259
96.027
126.146
137.096
41.043
4.8926
-0.0508923
-71.5425
-25.8692
27.8907
2.29311
-77.2999
-202.137
-234.314
-199.307
-179.691
-129.944
-104.382
-62.6764
63.9617
205.565
204.864
38.7392
-73.6379
-67.182
51.4364
96.7094
137.883
128.712
42.4275
-40.2138
-71.5398
-44.006
18.9971
90.9758
209.395
238.517
174.877
19.1897
-154.922
-205.257
-129.382
-52.5374
-26.0919
30.5525
85.4353
140.564
46.6098
-11.4976
-55.2642
-22.8559
11.643
-19.4507
-130.654
-190.137
-178.941
-116.658
-70.5774
-60.2914
13.5518
64.785
119.461
164.834
172.156
189.006
73.2228
-184.638
-282.692
-198.919
-75.1828
12.6518
40.9746
75.9459
135.574
175.063
180.141
119.683
72.9962
80.0684
-39.9942
-226.395
-336.563
-340.56
-264.129
-132.395
11.432
215.842
301.924
251.093
214.145
220.564
182.583
85.5735
14.8168
32.4657
26.411
-13.6274
76.8652
87.4543
-85.1863
-269.141
-332.962
-231.183
-67.939
-28.6642
-92.9304
-112.696
-93.9997
-94.7896
-32.3828
49.9508
101.077
80.3329
41.2299
-10.9713
-65.7968
-62.5922
-16.8699
83.2904
239.078
279.929
200.301
122.975
48.4655
-15.1747
-106.838
-155.208
-85.7267
6.98017
-9.19528
1.8985
-2.29381
-73.5705
-97.1215
-58.0598
32.1334
76.9786
8.21483
-62.5172
-10.4123
78.6508
135.427
136.557
82.9898
-3.66517
-23.8365
-52.3822
-45.3384
-60.5925
-111.443
-167.293
-127.77
-12.3185
16.7914
-0.411469
133.88
210.118
52.6175
-163.708
-251.602
-219.391
-152.985
-150.509
-117.28
-16.0585
234.856
370.619
259.327
107.03
66.8651
65.8274
45.4459
18.7414
17.0043
31.7282
-70.4029
-190.352
-161.279
-95.5024
-61.6076
40.972
138.539
148.054
197.54
167.63
74.6071
24.5657
92.2811
107.291
50.6595
-50.1791
-231.266
-312.483
-286.344
-133.519
-30.6355
-26.7818
-15.3438
30.0328
52.5627
73.6245
29.0103
-36.2807
-84.7257
-38.1327
20.2478
1.96396
-89.718
-145.993
-79.0095
34.117
112.925
142.891
208.519
258.711
223.975
158.231
100.565
85.0137
-27.4963
-177.252
-187.052
-172.042
-199.043
-193.665
-207.908
-186.769
-85.3188
37.2874
117.323
175.582
173.701
111.914
15.0088
-66.5183
-109.139
-56.0203
19.7627
72.4152
132.031
178.488
163.664
145.107
113.268
72.5949
-2.5023
-105.891
-217.764
-247.513
-129.876
-72.33
-35.7748
86.8481
118.803
28.6679
-58.9384
-45.8111
81.2403
183.988
189.804
133.037
0.91185
-17.5193
-17.2717
-141.927
-300.181
-288.985
-277.594
-233.36
-136.013
-26.6866
93.3946
155.661
175.51
160.743
128.576
118.676
63.0285
-57.4845
-131.351
-133.967
-63.1721
31.5995
140.449
214.158
214.145
175.585
253.438
255.463
46.0878
-77.8267
-107.505
-192.134
-270.098
-215.997
-12.177
86.608
58.5987
59.9266
50.6352
-18.8227
-35.8979
-67.5572
-51.9138
-9.62341
-8.67952
-76.2115
-141.302
-167.72
-134.308
-158.24
-63.8991
157.854
213.518
71.1235
-121.077
-204.968
-107.503
-46.8526
-57.816
10.0318
35.0715
60.4378
68.9121
164.236
291.602
306.873
262.889
179.189
102.025
25.5802
-58.3938
-154.228
-138.387
-122.635
-165.92
-168.659
-44.9908
-49.4489
-51.1496
9.9802
42.1656
20.9661
-12.4821
-48.5074
122.963
255.896
168.998
160.836
84.0529
-5.22999
-85.3011
-157.943
-122.171
-63.9248
-21.8698
15.6801
-83.0344
-137.58
-91.3379
23.8306
97.3724
95.2396
-4.53546
-85.556
-199.754
-267.598
-268.574
-255.1
-53.2307
205.948
373.084
255.184
8.68813
-156.677
-208.683
-88.4881
-13.5304
48.3648
80.5992
104.727
193.294
239.552
297.009
242.457
122.85
85.3923
72.125
-14.9639
-88.8812
-120.496
-204.578
-177.355
-74.8967
69.9684
172.752
91.6709
1.62793
8.89319
35.9683
-36.3311
-128.677
-128.263
-198.361
-194.463
-149.007
-124.837
-80.9445
-11.1501
78.3209
80.1606
11.6862
3.66807
34.1241
69.4004
36.7049
48.8016
73.345
64.9301
-18.411
-111.058
-167.118
-205.142
-168.835
-77.8409
28.6051
182.123
294.206
319.757
288.534
170.169
98.4872
95.6278
94.3803
40.0429
-17.6298
-131.345
-206.829
-139.811
-48.2713
-39.1141
-61.6349
-61.0886
-36.7402
-77.9024
-129.338
-101.735
-118.687
-79.1024
-93.3237
-130.022
-111.86
3.37987
86.6051
107.895
131.83
125.091
159.633
154.708
191.193
205.654
108.877
-19.4002
-108.397
-275.918
-323.836
-220.312
36.5588
229.006
209.625
127.968
128.086
66.4162
37.7824
59.3352
50.9598
33.8676
-19.5932
-69.6133
-116.412
-60.371
-2.05461
-41.6488
-156.871
-170.418
-140.236
-117.614
-106.938
-82.6341
-94.7569
-44.4119
-3.08839
16.9775
71.6654
192.242
216.402
163.494
80.9925
34.8017
-51.4857
-121.85
-107.565
-74.38
-20.9706
73.8853
137.666
113.7
101.325
52.5516
44.1635
-13.1522
-124.692
-96.2125
-53.8938
-22.5343
104.207
168.056
109.479
22.6719
-14.1474
-19.5266
31.3933
92.4006
129.095
107.503
34.1027
-78.0604
-204.679
-233.714
-134.779
21.1003
53.6815
31.6719
-107.341
-334.283
-522.658
-448.561
-249.183
-30.9117
109.725
190.605
242.211
267.404
323.271
375.877
325.5
208.78
-20.7661
-148.483
-164.159
-149.5
-78.4468
-38.1081
97.953
170.88
210.439
229.14
162.091
11.1248
-145.048
-225.475
-178.702
-93.8819
-66.0345
4.13627
57.9073
104.091
164.104
146.303
36.2866
-70.1082
-124.767
-140.887
-167.845
-164.893
-163.842
-172.593
-111.557
-71.2995
51.3189
197.158
167.46
75.3955
-8.84181
-98.7285
-171.914
-166.57
-30.9671
63.3706
166.486
159.288
4.57348
-181.262
-290.247
-128.708
47.5417
96.0704
221.862
293.429
265.933
122.414
-5.35901
-33.7559
28.8739
36.8516
51.6101
74.2913
56.7775
9.66806
-46.3217
-74.3499
-0.0163643
74.6773
163.568
135.445
50.0548
-31.4296
-136.429
-163.317
-151.103
-97.2547
-65.1115
-94.0389
-88.5786
-57.5318
-88.5489
-126.39
-85.3275
-82.4709
-77.4446
-49.199
44.8092
138.209
116.7
88.666
72.9925
10.5635
-130.426
-200.951
-155.381
-111.313
-19.9123
141.097
224.935
165.764
45.9075
-17.9393
-82.5027
26.3809
148.383
226.294
226.53
160.906
83.4909
-25.5386
-50.8611
17.9816
94.9019
93.6597
4.18638
-90.6969
-163.284
-177.127
-168.607
-120.904
-19.9093
11.4983
53.1669
7.10994
-137.816
-137.554
-87.6493
-25.0088
14.7295
-9.77732
-37.7143
-67.2908
-78.1597
-43.1358
74.7465
182.077
239.242
166.175
37.4629
4.37462
44.2783
7.38761
-67.843
-113.581
-103.255
-81.5079
-60.9521
-19.0217
71.4999
193.061
266.469
186.661
106.905
97.1321
-15.9582
-165.662
-246.048
-224.508
-140.522
-59.1877
26.3171
106.527
115.223
57.6115
-4.35442
-55.5957
-92.8491
-128.352
-116.151
-112.749
-46.6324
98.4026
123.765
37.6022
-49.8094
-114.028
-149.468
-143.253
-52.6968
57.2815
85.8642
54.897
3.33415
-15.8747
38.7875
134.328
201.294
221.549
202.014
113.95
45.1895
8.59575
1.16182
-15.1932
-22.6981
4.65984
50.7418
66.4898
52.8199
50.6203
47.1841
-16.4737
-83.9089
-71.8683
-110.37
-154.288
-74.0839
-44.9497
-175.559
-217.721
-181.087
-235.55
-366.236
-215.253
29.5383
107.923
52.4402
33.2258
147.506
288.981
380.617
400.282
375.763
289.97
178.328
-93.1065
-387.384
-472.277
-250.456
-57.6414
-20.6632
63.9225
215.213
180.896
88.9183
165.85
205.909
149.065
-49.559
-308.059
-440.242
-372.958
-223.897
-79.2608
45.2042
135.228
117.454
21.7927
-24.9693
10.705
-51.8336
-6.22064
139.792
186.583
290.218
325.594
279.373
81.9579
-158.273
-287.788
-325.292
-279.63
-52.8424
48.8205
-105.268
-238.549
-206.211
-37.5552
58.4495
108.914
203.685
154.935
47.7762
-44.3583
-119.292
-138.471
-45.2651
98.7876
316.018
429.519
309.835
106.67
-151.818
-250.335
-80.943
44.3336
74.5999
84.5352
-10.4338
-140.877
-246.604
-316.698
-323.376
-154.013
69.5389
195.657
194.604
199.805
128.177
27.7001
83.039
132.564
38.3885
16.3838
16.5183
35.8749
-12.1181
-44.987
-1.17664
21.2447
-13.2845
-45.3975
-48.5124
-128.301
-301.377
-308.593
-35.0721
95.9148
-81.6901
-232.231
-255.852
-284.713
-181.651
-7.20876
184.276
289.501
353.543
360.999
357.16
307.428
231.864
177.718
101.946
50.393
-35.7326
-168.21
-292.873
-235.944
-71.4853
86.8012
126.418
159.947
126.904
19.1722
-92.095
-66.1965
26.5943
9.64674
-90.4428
-211.496
-269.732
-264.158
-229.87
-83.6625
165.341
198.96
48.8097
-97.8159
-89.1388
-7.80711
-30.7612
-108.201
-158.759
-239.615
-212.309
-158.06
-58.7
98.3591
163.985
193.444
275.269
289.655
271.825
138.736
60.436
144.752
174.126
128.451
120.953
98.8906
59.1753
126.775
162.007
53.1505
-145.075
-234.728
-243.519
-259.295
-169.291
-37.1499
8.65714
-2.11549
61.7206
195.709
107.3
-133.8
-340.582
-481.922
-487.63
-377.178
-175.612
1.77709
119.217
224.284
315.864
385.833
386.955
327.821
287.593
177.552
20.5195
-58.0534
-151.987
-302.354
-341.433
-169.862
-12.7371
45.8869
62.7297
73.1451
65.868
43.5176
94.613
126.891
87.1397
-13.615
-85.0287
-128.599
-181.758
-143.451
-38.9247
12.9126
-18.4539
-50.6819
-21.2691
-35.5257
12.3396
240.63
340.983
286.614
299.861
240.182
45.0701
-111.373
-232.747
-267.121
-339.244
-428.624
-415.11
-246.323
-46.9278
74.5978
129.165
150.659
94.1426
9.32126
32.1116
79.506
88.5596
83.3356
58.7283
68.2152
2.32924
2.38957
99.5222
136.917
155.58
232.698
208.747
109.663
13.6659
15.7783
17.1204
-60.3598
-119.376
-140.697
-149.581
-164.296
-167.048
-175.186
-211.978
-227.018
-89.9601
32.1316
69.6486
71.0644
56.2159
67.9916
99.6665
14.6507
-39.8005
29.5833
132.845
123.019
53.0733
15.6456
-57.482
-141.116
-142.824
-95.1178
-58.9944
86.9875
215.582
299.976
269.619
107.762
38.8213
-14.336
-162.392
-286.517
-323.485
-331.725
-224.397
-79.8394
89.6046
180.567
253.253
265.778
162.01
140.335
124.502
53.6272
11.9532
-76.5365
-97.1826
2.65043
-11.5518
-23.3588
91.1845
113.488
38.2837
-56.1076
-140.855
-231.717
-294.695
-198.106
-118.825
-45.9299
29.3563
64.806
54.9377
-6.66728
-9.52616
34.6136
117.027
236.912
350.279
281.1
47.3849
-69.6026
-96.3561
-143.3
-229.17
-107.771
17.4082
-19.6921
-56.2559
-44.8043
-9.06686
-19.691
0.099463
67.5019
16.5783
-48.7816
-104.461
-162.252
-178.722
-189.342
-119.971
90.3321
226.699
254.044
285.314
302.01
288.34
153.236
3.85941
-89.6568
-93.2019
-86.0035
-97.0231
-99.3675
-33.189
-18.5383
-69.3318
-118.427
-158.311
-105.827
39.198
36.4826
-1.7909
81.5798
128.229
106.426
94.9719
162.817
140.48
47.4265
-76.1662
-225.893
-268.567
-232.811
-274.975
-265.211
-141.497
-24.8741
57.5091
111.127
136.089
147.08
170.918
200.687
252.262
123.757
-31.8648
-128.581
-169.158
-116.977
18.3551
202.041
265.935
140.146
48.1271
-8.89179
-84.912
-94.911
-66.3258
-87.7865
-129.216
-83.2473
16.1725
32.9227
-47.5112
-68.0241
-33.7134
-16.1648
-1.71103
-4.82674
75.3312
71.4628
29.2966
36.6885
21.6036
-3.62984
3.49069
16.9197
11.4564
11.5404
14.3103
38.8692
1.68118
-102.95
-121.879
-84.8597
-50.5799
-53.2687
-55.3682
-26.1454
-58.3033
-11.898
40.1439
22.3857
5.86412
91.7686
154.999
121.294
55.2803
41.6792
83.0407
80.0881
51.9294
-12.2222
-98.8006
-163.975
-182.583
-103.864
40.4763
159.542
137.104
44.4137
-3.10632
21.5491
53.2212
26.588
4.05285
-3.12616
-3.88359
6.84774
-78.5303
-160.811
-171.774
-118.495
-48.4586
36.9631
100.921
167.013
160.439
74.3311
3.63697
-82.7018
-118.784
-120.698
-91.4481
-45.7936
-82.2289
-91.8553
-29.857
-18.2816
32.8436
106.232
123.869
122.013
72.1354
24.7376
42.1906
-23.4895
-78.9624
-151.19
-193.564
-155.282
-71.4981
5.59741
94.9419
167.633
222.772
265.205
256.854
176.316
28.3238
-82.271
-52.0654
-17.2271
-31.4375
-48.045
-65.0643
-34.4766
3.88806
59.4235
58.481
29.0231
31.6597
45.8957
15.5852
-75.6431
-176.941
-244.761
-272.776
-227.093
-169.195
-123.169
-69.4794
-8.20415
91.4829
192.168
220.662
155.339
58.3646
-17.9735
13.4623
67.3049
-0.0137112
-63.6823
-102.315
-112.689
-62.4801
6.88034
180.274
316.004
263.768
131.539
6.20629
-53.8612
-94.2455
-151.886
-196.699
-109.462
-36.052
47.5052
79.9602
61.0224
95.0501
153.163
121.846
12.1671
-32.9454
-99.1446
-263.556
-263.035
-74.7222
35.5974
91.7144
91.2101
15.6337
-42.3906
-82.2145
-100.117
3.91237
98.5818
102
55.9445
1.49281
-68.1298
-78.366
-24.8458
32.1336
85.2008
81.9082
33.3345
22.7124
72.0924
38.5079
37.0987
85.3293
90.8688
34.8444
-19.1795
-89.7822
-142.798
-134.075
-83.0145
-115.722
-172.587
-111.474
-35.784
-16.6544
35.8421
63.1619
37.4851
32.788
39.8901
10.2455
32.4163
73.7502
64.4188
182.307
288.649
254.884
79.5157
-100.844
-172.26
-146.759
-116.148
-136.324
-61.5258
90.1626
163.485
138.542
102.274
-15.4227
-150.67
-192.591
-240.949
-235.562
-131.522
-59.3284
18.0435
154.491
168.022
91.9765
-28.0675
-37.2522
16.9481
73.169
102.187
70.4874
-15.6887
-64.8114
-74.1815
-31.3589
-16.5535
-5.59856
25.9171
47.7986
68.0997
88.816
9.86038
-38.3289
36.0434
82.5094
99.3547
61.8312
51.0028
61.2452
12.2814
-77.47
-183.43
-164.066
-77.6094
-72.1616
-74.702
-14.8312
21.7864
32.3441
9.19128
10.7536
57.1983
-37.1191
-58.8716
76.5002
169.399
93.7243
-21.6696
-79.403
-116.547
-200.334
-172.681
-107.708
-11.0569
74.0424
64.9986
77.6794
151.79
164.762
143.13
41.57
-51.6385
-26.9156
-19.7189
-53.0601
-95.3224
-18.4343
75.996
100.475
105.393
151.536
128.602
73.7179
-2.31102
-34.0645
56.9721
18.3098
-64.8186
-104.423
-81.8715
-36.9914
-94.3291
-169.861
-219.667
-295.573
-251.76
-108.287
43.9398
147.539
156.73
104.825
68.8255
50.2723
51.6477
81.4559
106.55
95.9263
72.0404
65.5087
4.23263
-156.634
-224.661
-134.102
22.4363
143.602
138.665
57.202
-23.9605
-51.4175
-1.76727
87.9449
113.868
80.0066
1.20334
-36.5725
-51.8237
-41.8365
-86.4243
-115.717
-109.167
-53.7284
1.92365
91.027
243.427
268.817
215.49
96.3985
-53.571
-146.842
-185.844
-149.945
-63.8262
-8.94894
-33.0802
-86.8975
-112.354
-40.5254
1.29779
14.8205
-18.343
-94.1258
-119.96
-157.87
-233.276
-99.6879
64.7099
160.06
184.648
115.437
36.5601
31.3519
91.8772
200.795
153.213
-6.49208
-66.5971
-91.8906
-48.3198
11.9189
134.126
262.69
287.203
250.559
158.391
69.17
-23.427
-80.253
-112.955
-76.6707
-56.333
-107.607
-184.206
-190.992
-78.7111
24.4311
0.206982
-127.957
-244.564
-223.443
-158.285
-154.641
-78.8754
-20.123
21.6814
29.3885
32.0414
60.6941
141.458
65.7638
-155.173
-288.207
-140.07
-31.0434
56.6171
186.784
392.435
475.916
453.632
312.933
115.842
-57.8583
-253.888
-369.85
-269.749
-74.071
55.1568
73.6372
-13.5138
-40.4507
133.074
263.923
192.58
4.84841
-162.301
-276.341
-373.415
-285.931
-95.7086
42.6257
136.861
249.654
395.2
358.36
196.065
29.5858
-43.3152
-72.2682
-81.4323
-7.27035
65.8584
32.2793
-82.395
-178.318
-210.579
-148.88
-66.7316
-13.3434
-27.3944
-54.33
-46.9761
-79.7568
-108.78
-68.0502
-88.0499
-174.034
-200.482
-181.918
-0.345102
169.495
258.747
240.552
142.223
86.4586
25.3348
2.82115
27.9554
61.0794
103.543
159.328
108.126
6.72086
2.95744
4.65984
-124.964
-232.537
-183.745
-54.4199
25.4193
113.703
122.86
133.296
106.087
73.3419
-3.38367
-59.7986
-97.9841
-69.5453
23.9323
4.34605
-82.8598
-87.3518
-127.182
-167.326
-46.9527
85.9137
137.379
166.31
138.753
74.1762
-33.6748
-77.6451
-8.03458
67.4705
114.518
67.5468
-114.038
-222.007
-230.781
-128.619
6.18895
111.864
127.029
111.857
63.511
153.072
156.846
28.3485
-128.309
-282.334
-258.624
-173.065
-81.1859
32.0209
170.207
306.103
352.721
86.7335
-107.021
-214.443
-275.545
-293.961
-214.933
-44.5888
134.899
176.205
146.287
144.172
172.746
154.132
65.6498
35.1849
55.4475
92.8574
36.3062
-106.71
-178.468
-125.985
-156.403
-177.619
-107.415
89.583
170.242
133.593
70.7036
6.78314
71.764
106.759
23.8816
-18.3664
-29.3218
-58.7052
-87.5929
-112.932
-70.64
8.80912
88.2635
159.444
136.745
41.8624
-42.631
-116.412
-83.0277
-39.5159
-40.8299
-105.974
-247.847
-303.245
-229.591
-50.4213
145.248
205.752
114.847
51.5143
107.503
122.025
31.2981
-35.7399
-57.8556
-83.9367
-110.109
-79.657
6.30558
159.964
162.713
61.2871
23.9191
192.244
276.396
61.8346
-70.1858
-92.8023
-86.2535
-112.339
-164.973
-131.013
2.86058
87.1593
102.327
214.979
274.234
242.782
114.697
-56.3083
-72.923
-71.3004
-120.375
-210.138
-176.308
-42.3923
-96.6055
-152.815
-84.8196
-0.576612
58.9954
48.1478
61.7218
130.146
177.363
160.138
93.7957
-7.88024
-163.675
-276.078
-265.571
-176.713
-134.48
-146.716
-128.487
-22.7885
25.7223
19.4784
-25.7497
-8.47349
67.8691
134.595
203.933
198.339
88.8483
0.672879
56.4784
101.458
72.8129
-6.01701
-100.925
-86.2034
27.4796
76.5033
33.1453
63.0176
116.4
148.41
188.92
145.047
39.7143
-24.7144
-142.931
-202.201
-154.317
-108.108
-57.8823
-115.51
-72.2928
65.2737
122.557
70.3009
-11.4327
-40.7174
-46.8782
-114.47
-108.424
-47.1133
-42.1939
-36.3112
16.7945
4.97161
-8.39694
36.2296
75.7013
87.5382
129.372
287.013
290.581
94.0347
-2.49546
-44.7222
-89.0351
-99.8351
-57.8731
18.2578
73.4039
-19.6823
-183.774
-324.83
-481.572
-464.287
-328.933
-219.831
-59.092
1.5777
-19.4616
21.8962
137.346
231.904
298.298
333.61
487.528
552.012
380.358
155.393
-1.03405
-102.353
-99.7996
-98.8678
-55.4169
-2.65703
24.8594
76.4723
125.905
107.178
18.3001
-83.8909
-163.143
-258.902
-238.823
-173.143
-258.79
-299.808
-181.136
-30.522
24.6514
34.1469
104.084
204.377
250.964
267.482
252.513
156.483
-10.268
-102.061
-94.4606
-148.061
-215.236
-160.77
-163.814
-216.623
-104.711
-9.8906
-34.876
-54.1503
31.178
179.246
182.327
58.1137
-84.4461
-194.954
-237.634
-221.047
-143.211
-35.7581
85.7326
198.408
283.367
377.098
397.934
431.989
372.833
244.696
191.308
66.4275
-94.5584
-194.337
-219.291
-127.285
-34.6417
-12.2167
-40.8856
-43.2406
-59.1505
-106.803
-195.037
-219.467
-206.538
-146.02
-48.3841
-22.4168
-42.3247
-67.427
-84.7493
-55.7617
-33.0071
-38.9696
-36.9308
-33.1226
-5.68972
93.2986
109.242
103.436
80.5286
57.8943
37.4396
94.6823
298.095
291.346
114.021
-73.7898
-257.983
-324.179
-288.703
-204.886
-133.038
-27.3413
61.4257
106.348
129.426
149.708
174.912
173.657
164.986
188.929
198.759
88.174
-112.922
-188.752
-164.502
-32.4069
117.509
186.208
184.883
146.533
58.1426
-72.8894
-195.441
-257.819
-237.779
-158.415
-51.6423
-17.1341
-6.75126
-2.48963
-33.6141
-82.8148
-123.104
-139.944
-167.349
-146.176
-43.4729
9.06908
22.8587
28.2537
64.7212
69.7606
100.793
261.808
382.246
271.644
92.7647
-29.7541
-28.6195
-10.5115
-64.8034
-162.696
-212.024
-85.4781
-0.0928456
20.7314
88.5542
88.8482
-14.481
-115.656
-203.093
-132.066
39.604
179.167
250.496
282.123
220.074
45.3329
-139.37
-265.935
-258.128
-63.0579
93.0315
117.848
139.989
77.7029
-102.116
-158.803
-138.538
-70.5042
68.0283
155.211
132.002
-63.9601
-232.341
-262.1
-179.942
-20.2704
93.2055
183.756
256.903
213.082
156.847
146.687
96.1905
3.76342
-116.853
-152.538
-132.572
-113.522
-105.327
-85.3535
-55.7048
24.6485
74.7105
15.1324
-40.3633
-116.226
-141.091
-53.2773
-32.4981
-94.7046
-92.0973
-112.31
-143.442
-145.516
-67.5299
22.5457
113.899
174.825
231.277
338.588
357.963
286.274
160.245
92.6995
93.4595
106.7
57.559
-64.4149
-101.464
-51.5585
-40.8314
-56.9997
10.3252
142.268
133.349
-22.7095
-147.341
-231.96
-248.125
-193.231
-107.913
-95.1928
-100.757
-100.23
-76.8916
-26.0854
21.345
35.7324
20.5202
-35.4996
-129.372
-168.588
-192.523
-155.42
-33.3224
120.563
221.026
235.87
179.866
69.3313
-34.0628
-57.0572
12.3964
92.6624
39.9119
11.2207
33.1448
84.0479
183.944
266.253
233.92
150.484
-1.59877
-125.654
-176.843
-101.722
36.9548
105.756
68.6465
-21.2154
-137.431
-223.861
-231.166
-167.239
-94.4834
-35.1108
15.2742
95.6697
136.426
92.4844
59.4706
49.1613
79.4187
74.4043
37.2687
22.1848
-19.3154
-41.6049
-92.8501
-139.174
-73.8534
-34.1351
-80.6644
-45.5584
-8.52944
-40.9913
-150.684
-146.773
-112.545
-93.3173
-47.3913
-6.95154
96.3805
220.039
266.394
193.623
105.125
26.4851
-30.1889
-53.6949
-27.0496
79.6927
198.882
138.399
73.4507
43.0784
10.0743
-90.7156
-224.076
-226.239
-117.96
-24.4821
54.271
72.9465
25.3871
-49.5817
-96.824
-53.2293
41.243
96.4273
72.2633
20.7129
-41.08
14.4993
84.9802
88.3547
94.9716
25.6887
31.439
22.6335
-56.1264
-59.5686
-83.3844
-126.1
-88.8426
-40.8544
5.82232
-1.98716
-6.3968
-19.6347
-56.5018
-63.0091
34.9213
57.2399
-18.2853
-72.3329
-85.1116
-95.6833
-59.0558
-39.9048
-48.4626
-91.295
-33.1114
173.39
238.494
213.491
91.0085
20.9277
64.3189
70.6469
51.2975
70.2626
-10.3642
-106.517
-90.2634
12.7019
75.3135
93.3394
67.4112
99.6231
102.966
56.3381
-61.4131
-199.327
-230.434
-172.91
-57.08
66.1708
94.5864
50.7078
140.476
221.606
154.273
-14.1813
-223.269
-413.677
-407.472
-259.25
-152.454
-62.0551
45.3216
94.5003
127.652
95.2198
71.4056
97.8646
136.04
100.396
102.098
144.152
90.1296
-43.1292
-92.2535
-61.9238
88.4347
238.244
293.7
237.716
57.3135
-171.799
-289.799
-256.656
-187.628
-142.572
-39.3165
-6.33276
-35.1662
-87.4408
-72.0062
-19.8673
24.3983
82.6644
98.747
82.6242
0.641974
-191.682
-348.031
-291.883
27.4616
356.05
484.739
430.145
298.374
147.045
-29.6706
-128.211
-54.4117
30.7402
21.1006
-45.1001
-104.826
-126.613
-177.359
-201.342
-130.225
52.9181
153.303
92.1588
-50.6715
-111.251
-101.82
-52.9414
72.552
189.057
161.618
-47.8945
-314.521
-454.504
-453.362
-284.038
-97.8244
-30.5094
50.8259
216.811
322.452
397.263
412.259
312.422
160.404
1.50431
-47.5947
-28.4047
-19.5562
-63.8236
-60.2705
56.0644
126.101
126.21
80.108
13.3491
-33.2112
-45.5305
-39.9926
-56.413
-83.8452
-142.598
-75.5807
108.847
142.375
43.3039
-39.7204
-133.75
-253.643
-200.94
-82.4467
25.6745
169.614
349.677
379.362
165.648
-201.702
-493.5
-565.923
-505.165
-316.85
-56.5266
34.0012
-30.4846
49.3203
169.114
208.578
177.988
162.224
149.977
23.3628
-81.3924
-87.986
-132.884
-104.96
47.8527
207.445
430.46
534.781
455.342
371.357
241.259
130.084
5.60921
-79.2215
-66.538
-109.333
-125.234
-154.779
-219.703
-186.37
-193.352
-240.412
-220.711
-209.365
-180.74
-87.9716
-56.3708
-43.2741
-13.4557
-53.2571
-133.767
-155.721
-86.6662
-5.90733
119.712
89.7093
61.4055
37.6328
-38.5752
-34.7173
62.966
145.09
101.579
1.25877
-35.4722
27.0072
87.288
104.411
161.361
192.808
196.497
170.086
131.973
16.212
-100.223
-96.5533
-19.9471
76.632
87.3017
89.6785
90.9916
52.7923
47.7089
52.6151
34.2521
-18.1474
-127.132
-191.414
-198.842
-226.365
-210.981
-205.668
-159.292
-89.6381
-69.2532
-52.8302
-45.1215
-62.6216
-29.6582
15.852
45.8888
19.6938
33.8627
52.9174
51.9461
53.9765
84.7144
133.865
135.01
110.544
117.925
115.727
60.6046
-54.5829
-114.791
-52.1094
-27.0697
-13.7723
70.1275
151.041
179.435
166.947
57.8202
-95.6926
-240.859
-280.633
-245.574
-92.3748
91.4275
106.233
-34.8027
-162.552
-234.332
-152.775
-40.4105
165.252
337.431
326.221
248.186
115.459
-56.9879
-183.481
-186.784
-85.1999
100.846
164.827
160.82
64.6188
-59.88
-112.67
-131.625
-131.645
13.2952
157.227
161.838
58.8259
-67.6079
-91.9922
-204.672
-285.846
-190.864
-37.6169
74.2188
75.1206
84.9279
110.107
81.1081
-4.75856
-51.1532
39.0206
108.018
87.4732
42.1166
-93.1989
-195.074
-187.468
-153.134
-52.7495
105.536
127.736
35.1069
35.0306
78.5151
99.5981
54.7553
63.1268
33.2664
21.1719
-6.2846
-38.1404
-20.8569
62.4465
80.2189
88.3868
132.821
45.4911
-92.0245
-235.781
-275.715
-202.613
-117.524
-59.6862
83.9921
212.448
246.001
172.321
100.643
48.5661
-16.3161
-83.2431
-34.2069
88.1794
158.472
120.299
-49.3995
-226.519
-319.921
-328.002
-238.535
-123.566
31.7792
165.073
154.25
140.183
99.3902
-87.8573
-159.964
-120.791
-60.1758
26.3756
78.3257
116.693
109.464
36.5917
21.6435
116.365
203.801
216.351
207.368
212.034
176.013
-20.603
-310.432
-442.779
-339.448
-100.251
48.5965
112.006
107.099
82.2281
20.4087
-28.098
-82.5036
-0.541773
129.372
143.053
116.27
31.1845
-100.961
-218.007
-236.873
-221.623
-72.6349
54.6363
43.1985
-62.5108
-137.095
-197.102
-183.698
-121.924
47.2247
218.595
351.586
317.56
119.925
-81.9231
-230.556
-254.734
-90.1257
44.8116
87.8793
214.457
299.054
289.329
184.893
133.361
164.658
137.224
74.8992
7.61593
-83.0501
-195.71
-273.201
-226.73
-75.4852
13.8955
65.8836
196.598
222.603
157.009
-28.465
-267.673
-374.874
-316.17
-230.764
-173.56
-111.918
-68.852
-89.7764
-132.887
-77.1185
-6.01112
16.7919
69.3259
90.2494
163.742
257.791
264.852
171.695
66.2698
-27.2078
-20.0161
36.8287
94.3096
114.347
99.0351
-29.519
-71.7973
34.614
99.0026
90.3443
-17.9661
-107.529
-158.708
-215.857
-174.551
-91.6951
-34.5119
6.49776
60.3971
143.623
143.757
103.759
11.788
44.2938
133.467
179.996
202.405
143.255
62.8749
-117.406
-190.014
-240.799
-298.388
-282.859
-167.641
-31.12
59.0682
116.411
180.017
181.896
134.441
-85.2939
-286.944
-380.707
-335.535
-201.743
-100.144
-42.9137
4.25496
70.2052
66.3415
53.1914
157.399
271.319
244.117
196.578
169.86
93.8607
89.5843
178.315
198.589
180.791
156.555
122.123
68.469
-66.7698
-140.968
-65.6897
3.04814
-9.38411
-56.0339
-142.248
-167.147
-96.5712
-86.5194
-122.789
-76.7637
-135.998
-269.591
-313.127
-291.254
-154.349
57.8803
205.644
248.491
157.545
51.6402
-55.2584
-122.719
-164.883
-62.598
183.333
241.364
130.617
14.8823
-75.5456
-195.592
-121.854
26.1732
81.4578
98.9751
171.383
199.54
103.608
87.0622
187.347
247.247
179.543
106.855
138.529
77.6261
-69.2905
-123.947
-78.3168
-12.105
-25.9034
-147.205
-242.022
-306.004
-315.499
-186.979
-124.179
-135.738
-75.6202
-119.2
-146.909
-64.3323
25.4868
56.8781
80.9693
110.012
145.855
187.308
218.917
118.051
34.9771
83.0892
85.1326
38.57
12.049
37.1303
79.0927
39.116
-29.6715
-41.3805
-28.031
-95.031
-98.7958
57.2089
80.6804
-17.3081
-43.009
-11.3479
-87.9127
-81.6605
18.3447
108.18
86.7191
71.7112
40.0228
74.6246
196.824
166.097
-46.231
-245.292
-338.85
-258.234
-76.989
-63.1692
-69.6716
15.8765
4.73715
-27.4756
18.5152
34.5611
17.343
3.61826
28.3523
90.9521
135.85
36.1864
-134.022
-146.616
4.99834
196.076
319.043
326.674
91.802
-178.863
-312.209
-266.596
-122.987
-106.556
-58.9008
40.6984
99.941
176.106
176.627
141.681
46.6035
41.8791
151.761
174.439
41.2055
-158.723
-312.73
-382.459
-313.501
-89.4181
37.0507
97.0611
171.36
159.531
28.7748
-53.8462
-63.5385
-7.90478
91.1668
140.445
176.838
103.77
-102.936
-168.51
-59.568
30.2049
64.5714
4.67817
29.392
116.735
171.446
138.987
62.1925
62.6982
63.917
62.8924
53.6687
-74.0582
-164.844
-283.206
-384.382
-405.182
-297.629
-171.592
-76.9538
40.8949
198.764
249.746
231.227
108.074
70.8944
39.0008
-45.502
-139.595
-181.379
-157.003
-65.6217
-25.0081
19.1138
137.391
234.054
276.021
215.697
179.19
193.614
161.75
58.6783
-6.96364
-84.6774
-104.013
-92.5744
-78.8986
-44.6637
-74.6916
-69.3218
-24.0337
-21.1111
-2.49865
-58.793
-125.117
-121.963
-81.55
-8.3782
64.1641
83.098
115.095
147.899
74.2237
-91.7107
-161.868
-47.5332
4.82493
-34.7822
-58.5568
-11.8419
32.4652
45.2087
11.3123
47.1704
14.194
-33.2707
-68.3365
-116
-112.504
-52.8844
13.2086
59.1364
127.62
208.331
196.575
61.1536
-14.8087
-19.481
-12.3102
-35.3082
-159.194
-226.915
-154.777
-58.8007
1.9535
73.9812
81.6612
46.3676
-16.3118
-93.7475
-64.9574
-4.84315
37.5438
96.4189
153.012
129.164
75.985
81.9493
127.018
132.912
137.993
111.412
3.76924
-125.344
-122.855
-64.9104
-26.5554
-32.3136
-30.3729
-17.7424
-54.3992
-60.1407
27.9508
-2.14801
-155.716
-261.474
-261.301
-212.831
-120.205
3.02805
179.217
194.015
117.95
101.378
151.74
101.162
34.762
38.4466
8.23057
-45.207
-51.6406
-61.8783
-83.2705
-62.6648
30.078
77.5073
34.096
11.8987
14.9718
-19.2658
-76.7805
-65.4727
33.1896
93.0108
99.653
58.2663
-17.8478
30.6588
65.725
4.95865
-64.4737
-102.179
-95.1694
-43.3531
1.1453
36.3819
90.7259
94.0603
72.2227
50.6649
39.9159
74.9043
42.6473
-95.7417
-156.724
-127.73
-83.7846
-115.233
39.4722
295.754
352.033
92.2388
-120.236
-96.1771
-71.5899
-80.5646
-74.1912
-145.727
-203.143
-204.259
-196.238
-127.759
-60.3335
-28.7847
-55.0326
-10.2085
128.691
237.657
197.527
80.6435
-26.4399
123.418
197.369
176.24
128.435
74.5504
18.4447
-5.7517
-48.9666
-170.452
-192.295
-115.53
31.1282
140.536
257.834
333.965
225.481
-45.407
-249.089
-323.379
-294.722
-231.377
-111.177
-70.7118
-54.9426
2.0033
109.91
155.28
183.584
231.553
225.581
118.374
-74.3685
-182.624
-208.602
-272.087
-263.732
-148.668
-41.005
50.6837
197.662
281.029
214.258
53.3205
-70.8138
-94.3184
-117.941
-106.49
-79.5875
-10.6382
45.5036
-47.6759
-63.1782
69.4451
110.806
137.872
155.986
128.238
84.5127
61.5078
0.0602636
-70.2027
-68.0337
-14.9266
28.7261
5.825
-34.0088
-2.48911
69.5031
103.552
-0.233227
-53.9948
-67.5946
-66.3309
-61.4373
-49.2043
-21.171
12.3927
-64.4869
-158.152
-146.422
-73.7946
-49.3446
-29.3543
34.1989
103.909
153.878
152.954
73.7628
-40.0581
-73.9328
2.0179
22.2272
38.1433
-10.5048
-56.5341
-68.0459
-20.9747
18.2881
34.2846
16.4302
27.6855
13.3591
-51.4289
-75.8651
-29.5661
58.7876
64.7118
20.6522
-3.40121
7.87114
29.6883
48.7721
44.8537
28.7515
-5.32109
-5.13888
34.1387
143.096
190.657
73.3942
-130.74
-288.398
-301.755
-216.572
-114.988
6.93618
146.311
174.909
141.378
86.3172
79.2925
121.945
65.7402
-3.64017
0.772379
-43.289
-158.277
-269.583
-299.805
-207.045
-56.685
104.587
198.804
224.804
189.085
87.0109
14.2978
41.5079
64.5915
80.4089
130.392
152.976
79.2649
-5.12384
-83.477
-146.031
-104.318
-40.9808
-61.8432
-81.6636
-103.122
-120.324
-96.7682
-58.1948
3.15162
3.20557
-50.524
-89.5912
-108.974
-47.6064
-40.1268
-46.2825
46.5338
163.451
188.446
208.113
117.793
40.6634
50.2967
25.2209
10.9783
40.5568
27.6103
10.4583
-17.6382
-43.1095
-69.9229
-46.5361
31.08
64.4286
31.2504
-24.9503
-112.458
-174.477
-206.047
-198.078
-127.385
-36.8411
3.09918
66.7624
172.213
198.977
214.322
169.671
100.391
159.343
159.69
23.106
-141.844
-253.184
-325.635
-261.371
-68.7728
104.77
156.043
199.045
181.632
108.857
67.2489
43.3455
-85.3837
-193.692
-170.801
-90.9171
-90.8569
-138.244
-172.14
-105.13
-57.2379
-14.4537
98.6488
157.974
173.533
164.347
147.885
139.542
63.3512
40.8777
88.5709
115.38
136.791
150.948
70.3678
-62.7542
-94.3509
-121.409
-121.205
-82.735
-11.166
4.16915
-117.222
-308.227
-345.075
-274.956
-125.851
-65.2737
-9.40511
38.6937
58.3333
4.74788
9.89062
55.0271
70.103
37.179
37.369
32.7999
63.0472
89.9641
142.775
189.015
234.752
235.409
146.886
71.7459
-0.386429
-58.1092
-48.5863
-66.6352
-75.5389
-47.2532
-37.4796
-34.8578
-34.6404
-17.999
-33.132
-78.9609
-38.1827
-0.891084
-11.6286
-38.1527
-52.8685
-21.6931
15.3474
-34.3352
-20.017
6.78251
18.9192
8.12701
-15.6847
14.6671
31.6939
20.5384
13.1588
-10.1567
-14.0041
-41.2879
-74.7755
-107.999
-84.9345
-28.2924
49.9627
40.3126
-30.6607
-58.3675
-31.9763
23.5426
37.0528
30.6585
-0.832898
-18.2297
66.6367
149.404
182.025
173.681
121.625
80.982
-7.47919
-106.023
-137.47
-42.1568
6.04435
60.4456
61.8413
67.9657
30.3653
-55.6846
-98.1614
-86.3338
-87.5428
-105.744
-117.802
-76.7168
-29.1034
8.74396
1.82749
35.0098
71.385
104.621
101.004
27.3502
-28.159
-45.8754
-62.2812
-60.7819
-48.5769
-15.7013
1.3065
9.19195
10.5147
19.6211
29.1666
7.2191
-15.532
-16.7841
-9.96173
-0.480576
18.4202
31.7179
-4.61973
-55.2593
-30.8791
25.125
59.37
78.1966
74.3725
56.7466
20.766
-21.2943
-2.60765
-1.82774
-39.9906
-54.0501
-49.1207
-23.2971
19.9061
13.8679
21.034
46.1618
77.9915
81.3742
38.7217
14.9928
32.8112
3.25254
-45.6
-96.6807
-111.106
-101.861
-66.0511
-7.7603
34.1435
-3.04784
-1.53983
42.8066
31.7378
-7.62075
-24.092
-17.5571
-38.3941
-66.8026
-50.5046
-16.3831
-6.56572
1.3393
17.4066
41.1638
74.046
82.674
60.125
38.1829
-15.7346
-2.54406
-4.26349
-32.914
-26.8184
3.06574
11.7934
13.1438
40.4002
94.2449
53.8336
-22.0021
-75.7363
-56.9635
-7.84498
14.3141
10.4314
12.1703
-16.885
-68.588
-85.0389
-46.891
3.58762
4.44429
-24.4779
20.2883
49.9911
57.6494
54.6108
28.7024
6.09801
6.62977
11.0116
26.5139
-20.3821
-0.477811
-2.70431
-17.1143
-28.8448
-23.9845
-0.0649599
-9.06215
-15.683
3.47611
4.27142
-16.2284
-19.2839
-9.55393
-1.6302
-21.4882
-1.258
10.9655
14.5794
-8.25458
-12.06
-19.9545
-7.01102
9.30519
55.3675
64.0366
44.2938
19.5555
-16.1219
-35.5215
-14.0469
-23.7575
-28.9547
-13.4467
-4.60169
-2.32957
-3.71949
-2.50685
-4.48477
-10.0231
-13.3787
-16.5423
26.5071
28.8828
7.10092
4.86533
15.7708
26.4622
10.8287
-26.3212
4.74408
41.6749
19.4315
-6.70711
-12.5421
9.4506
11.7418
-12.4184
-39.5334
-30.6922
31.1383
21.2417
-6.59463
0.299619
-1.9756
15.887
15.6658
-8.17419
4.38521
6.02207
-7.97815
-29.8534
-33.3481
-29.0318
-31.7956
-36.372
0.900139
9.03711
31.5076
19.446
-16.5975
-8.21796
-11.4916
1.48569
18.7802
4.28712
4.64435
18.9428
8.85091
8.40875
-8.47787
-29.4366
17.8506
41.3565
39.8698
26.4002
3.11561
10.6099
17.5803
-11.5311
-47.2766
-40.7664
6.82174
15.0152
-11.8383
-21.8887
-6.07586
7.22798
-8.97144
-4.54404
1.1335
-5.77756
-45.8666
-83.0588
-54.8305
-5.50117
1.06898
14.7945
75.6758
105.643
98.4535
80.8683
50.2338
5.81928
-32.8782
-52.1085
-105.785
-77.8086
5.00995
30.9289
40.7438
43.7677
37.6049
49.0076
31.7177
19.705
-48.7129
-102.741
-124.24
-78.4818
-32.6098
-17.7919
-33.3164
-5.64661
26.356
59.9444
114.104
113.996
58.0656
29.1872
1.86903
11.4685
33.3929
12.7573
-45.7665
-92.9287
-73.3987
-57.5031
-54.3816
-44.8163
-30.3389
47.1859
25.177
-89.5759
-116.794
-57.611
-14.1633
9.06218
13.4516
58.205
77.7918
79.7661
57.1624
55.1909
87.9274
91.235
95.1898
119.674
83.3269
33.1787
-12.9103
-81.2973
-74.9365
-39.2506
-21.2933
-53.0229
-50.2851
-43.2877
-23.0694
-31.9752
-39.1369
-66.4633
-56.8303
-15.3992
-29.5325
-52.5412
-46.8509
-40.688
-32.4902
-20.5674
-8.99939
10.0508
64.836
105.336
94.7039
63.0987
24.7978
5.51946
11.5285
9.43063
19.1324
63.6498
24.336
-39.1673
-34.5126
-36.7592
-84.7848
-82.8179
16.6929
30.3469
7.84676
-9.53378
28.3425
97.9832
131.348
100.609
30.6617
-47.4788
-45.1047
-76.3633
-72.0257
-41.2998
24.9205
48.3099
50.2241
38.038
51.0773
0.365448
-108.496
-130.085
-57.7597
-19.2603
-24.3215
-33.3491
-15.5596
41.1764
60.3946
43.1675
-13.0712
-18.1624
-36.8629
-99.8163
-106.553
-44.234
46.776
80.7462
72.4646
94.0489
124.472
170.885
142.722
79.2158
14.0651
-32.9647
-122.921
-195.841
-231.782
-242.242
-233.806
-104.274
89.8785
178.094
153.148
88.5281
26.3469
34.9358
63.8065
58.2119
56.5252
26.0897
-3.01213
-3.26952
-16.9489
-23.0772
-4.84992
8.87904
88.8207
127.832
100.047
12.2323
-85.0011
-130.445
-131.093
-113.95
-85.9504
9.44311
76.7249
107.384
103.491
68.5868
70.8692
61.1023
37.4968
-86.5867
-174.56
-110.896
-23.7822
29.4769
41.0103
11.3825
-35.787
-68.5795
-54.9401
-32.8555
-39.7221
-47.1053
-46.5582
-73.7255
-80.9508
-53.1655
-74.9374
-78.4201
-57.8709
58.2433
126.128
69.6705
-22.1028
-71.4328
-40.2384
90.6768
145.538
129.974
106.112
146.961
197.865
198.424
190.639
194.769
113.22
14.311
-9.75763
-19.6953
-51.0362
-93.1796
-89.8747
-36.7491
-6.27603
-3.89767
-21.6897
-105.171
-151.655
-157.517
-167.665
-206.644
-228.954
-205.044
-143.524
-94.5076
-39.4626
13.5956
28.0502
26.7495
35.7106
84.579
137.094
113.736
75.8594
78.5428
87.2686
54.0806
-1.08957
26.6105
97.8483
118.593
132.028
67.6348
-18.2086
-50.8447
-74.2473
-85.4145
-71.5665
-38.909
-10.1365
12.7261
47.2853
57.7087
45.222
40.7231
50.4063
111.645
128.801
93.0105
13.3782
-107.165
-180.655
-150.036
-145.653
-189.723
-115.616
26.9874
74.6894
90.7934
102.137
94.0993
20.6572
-24.1622
-34.7059
-23.1606
-49.7064
-81.5694
-74.2609
-45.542
4.26329
63.4168
123.825
72.5878
16.6226
47.4098
40.5503
-21.5159
-85.2707
-152.773
-107.855
-15.2495
45.5664
72.1655
70.5717
61.2475
59.9734
33.4708
82.9462
142.389
116.077
89.4706
19.2659
-53.1573
-133.788
-270.255
-323.024
-287.959
-132.901
58.5149
99.4986
57.6797
56.2692
54.761
104.509
151.946
159.463
89.7239
-4.91701
-50.5649
-49.7169
-11.0543
3.90483
41.2659
85.0966
163.955
142.133
82.6397
35.1153
-33.9095
-77.8919
-94.8033
-105.233
-97.8662
-105.47
-102.273
-87.2719
-71.2177
-63.8596
-63.802
-36.969
-28.649
-41.7392
-25.2644
21.7177
29.8
27.8004
33.1038
63.2901
80.0689
63.5242
45.0409
44.1216
46.5013
25.2931
-34.932
-46.8213
-6.58409
31.6386
44.6694
11.211
-12.7944
-5.20049
-9.63149
-2.10332
61.0844
107.848
99.7865
39.2997
-11.9352
-22.84
-10.2866
26.7698
7.19176
-27.9026
-43.3408
-68.2204
-95.7826
-134.137
-137.837
-88.5128
-76.3579
-20.3836
33.8375
64.617
84.844
96.2205
78.2676
63.3723
41.9718
43.3381
41.4071
-9.53108
-43.3685
-35.6645
-60.1354
-112.987
-98.8351
-2.55667
78.7621
103.607
114.583
95.9005
61.0501
0.689639
-95.0168
-139.81
-135.371
-194.413
-167.859
10.2442
77.3961
52.201
60.7957
67.4061
63.7585
100.471
99.8044
60.4709
25.1392
18.9525
36.4261
2.88734
-25.8788
-7.09371
34.7728
75.0781
96.331
113.157
67.6413
-53.2822
-96.7016
-63.2817
-58.1297
-47.4368
-31.1407
-42.3058
-68.4474
-91.8958
-126.111
-214.099
-212.97
-60.8908
29.409
61.5078
74.6686
60.1964
29.6516
8.302
20.712
22.2369
-12.0864
-18.7968
23.0818
57.1787
86.1467
98.7467
112.042
127.379
90.6576
86.8931
65.2955
3.91756
-46.8391
-47.1547
-40.615
-45.2806
-34.0551
-17.7261
-15.3441
-69.7184
-74.7204
-17.429
19.0491
27.7405
51.3755
53.5864
31.0558
4.51763
-38.6939
-120.273
-151.963
-121.905
-80.1386
-39.7797
22.8835
62.9713
64.7537
69.9196
73.2881
3.73666
-70.742
-77.0165
-27.7607
-0.582897
1.37618
42.8924
67.1259
69.7477
80.1936
123.137
164.377
105.759
54.3173
27.3515
-10.6873
-49.013
-91.5287
-99.3888
-124.703
-120.815
-40.5377
-8.05136
-40.4011
-73.5388
-82.4192
-69.7378
-48.5014
-40.2792
31.9334
109.491
107.469
67.3717
54.6088
62.0945
65.7742
26.1454
9.71107
-14.0475
-37.0461
-8.06085
-12.3857
-65.4727
-25.5525
20.9232
41.7196
35.5896
45.0524
30.4103
15.8192
1.13851
1.07687
-28.5426
-63.5957
-91.4433
-99.7754
-46.4273
-17.7917
-21.059
49.5726
56.902
64.4802
67.1742
25.1003
-14.1431
-39.1325
-7.86825
43.4071
48.0679
20.9609
-2.96544
-49.4151
-103.481
-133.866
-147.027
-129.39
-48.6374
42.782
82.4322
57.805
79.8738
105.909
101.237
78.1588
68.1946
106.21
105.923
56.322
4.1517
-43.3879
-58.5617
-68.8782
-54.4934
40.2023
140.269
139.118
26.8193
-50.8917
-70.3739
-89.5785
-84.8922
-73.1116
-7.17727
-5.7735
-80.9801
-128.436
-146.887
-152.605
-104.866
-47.168
4.35922
56.9262
81.3782
17.441
-67.7054
-63.6288
11.8498
49.5361
82.4522
166.849
188.453
119.784
54.8275
31.0908
-4.80047
-31.0242
-1.62956
28.6053
78.3823
85.0291
35.5689
-16.7772
-25.3795
-39.4186
-52.8124
-56.526
-63.8679
-74.3968
-46.6946
-65.9592
-67.4145
-47.3663
-56.2496
-4.93323
101.308
101.184
53.9562
40.7579
-10.5087
-52.8079
-65.6419
-135.005
-118.908
7.21993
105.695
107.821
89.7807
88.9714
47.5496
6.58468
3.4908
32.2231
7.33943
-56.7148
-46.1233
-4.15897
-17.4342
-15.1409
-33.5502
-30.8676
-21.4111
-11.1235
-34.274
-31.3817
37.1196
84.3154
56.5477
45.4377
22.0384
1.48207
-14.3404
-29.2366
-17.1111
-14.6172
-37.3929
-52.4257
15.7656
21.4783
-1.89231
-39.0531
-45.1766
6.8621
42.887
-14.3222
-96.3604
-53.4172
14.2364
15.715
37.4976
61.4197
38.3144
-0.200706
-13.028
-25.737
-36.4726
-21.171
-17.7926
42.9675
95.3888
69.6755
93.3893
141.981
80.3741
-12.3543
-55.5642
-128.089
-203.197
-177.362
-5.32164
65.6009
60.1923
65.9081
60.2129
46.7886
49.8652
50.1948
-4.06101
-29.2835
-39.1661
-34.7274
-36.3382
-50.6122
-81.0006
-72.1872
-13.5285
27.4545
77.5873
76.1938
-3.26292
-45.57
-29.8877
-6.51609
1.81662
6.16676
22.27
14.0237
-9.17694
-58.7007
-60.8694
-19.365
-6.63294
1.82637
93.5113
166.385
120.41
72.2628
45.4116
17.5817
-35.5826
-65.4239
-72.5889
-35.1943
-29.9029
-23.3219
-35.7704
-45.9912
-47.2095
-59.1093
-70.3187
-7.90516
31.1768
28.4257
37.8367
38.1866
37.1129
38.1445
17.3561
1.97334
0.919182
-19.9349
-41.891
-43.2584
3.81507
9.97975
-31.9189
-28.5876
43.289
43.3359
18.913
7.36434
-16.138
-1.07766
41.1719
37.3106
66.3183
67.4422
35.4134
-21.9643
-97.4211
-145.152
-189.813
-216.534
-55.4751
69.3328
75.3264
50.4672
36.6795
49.8354
77.4418
96.9459
129.537
105.744
96.4378
99.7396
53.1232
36.7727
39.4054
9.81764
10.0173
14.9065
13.1291
-13.0644
-125.134
-227.845
-233.795
-191.128
-158.86
-82.7473
-2.62545
50.0377
49.0824
60.4536
68.4002
85.4011
55.3646
-11.7881
-28.2255
-6.28016
-9.80352
-19.2633
35.1069
61.4308
22.9386
30.9297
69.9652
94.8034
71.8957
14.7175
38.4734
37.4307
26.8004
29.6152
-34.3411
-150.872
-206.633
-221.674
-263.072
-278.652
-91.4189
119.021
169.548
183.756
173.399
156.821
171.143
162.188
136.135
117.063
17.8164
-75.0534
-79.0983
-68.22
-82.8227
-82.7467
-46.2269
-13.5736
54.4621
137.938
92.9372
9.17855
-24.3948
-23.3012
-66.9827
-95.7613
-75.4744
-78.0003
-104.79
-85.6346
-56.7759
-30.9031
-36.847
-28.8718
32.3345
80.1243
73.0155
88.8917
66.9945
52.6362
-23.1433
-100.555
-121.889
-153.224
-95.5915
91.2521
122.472
70.986
57.8685
34.8776
40.0402
42.1471
39.3402
-21.5241
-99.0177
-25.1318
70.0524
118.194
82.0529
49.3199
60.4205
59.3832
1.52712
-62.1318
-62.4659
-34.1507
9.12215
39.801
38.4441
3.92062
2.30739
-27.3045
-78.5589
-100.525
-84.5926
-83.8137
-74.5609
-53.091
-40.6656
-4.42236
-45.845
-58.2896
34.872
111.55
92.4898
14.3489
-55.7519
-43.6831
33.412
92.4541
84.4822
26.0579
-13.4735
-9.23327
-12.747
2.59178
16.4561
26.7119
25.5432
35.3906
38.5689
5.72891
-29.5354
-41.9667
-15.2689
37.4979
65.5602
55.1938
17.7023
-59.4122
-147.038
-107.676
-19.6743
39.0108
54.5835
28.6098
47.3689
21.6696
15.9104
12.9776
-32.1395
-116.154
-122.707
-72.1554
-79.1246
-126.393
-42.0018
59.2114
85.8572
94.1879
77.8237
33.3595
34.8962
62.7112
96.8491
84.1311
53.3778
40.628
18.2085
-14.3937
2.94675
22.8907
2.97601
-15.4736
12.2374
41.7057
-11.6677
-59.8003
-35.8247
-9.32381
29.311
5.41838
-70.2426
-127.834
-145.147
-109.735
-60.9337
-47.3325
-10.1711
-0.228678
8.28505
20.3266
7.86752
20.8143
76.7911
83.9518
69.8303
32.9662
-3.86484
-8.0779
14.6859
8.99641
13.2371
34.3343
42.185
33.8221
-6.34062
-11.2745
-22.5981
-62.6112
-85.2336
-30.4793
53.839
48.4638
12.7247
17.6936
12.5779
-0.676419
6.77203
16.8398
12.336
53.7524
55.6857
20.8586
-16.9471
-46.1741
-41.4712
-59.1201
-68.0847
-34.2754
-19.5565
-6.06686
19.6927
20.8394
-33.7896
-71.1854
-61.4538
-15.4711
-7.5875
25.2246
92.0591
85.2623
61.0631
38.5696
-2.0912
-49.0106
-70.6188
-87.2764
-102.056
-36.9822
100.434
126.478
56.2106
33.5894
43.8641
84.8008
105.259
69.8185
4.38082
-27.3423
-75.3922
-146.328
-147.768
-71.4947
-19.5262
9.91758
27.3802
67.4154
111.251
100.045
47.1069
-6.28966
-61.5955
-62.0733
-47.6536
-48.3979
-16.413
-22.4976
4.56343
21.7333
-5.68067
-29.1782
-63.025
-99.4314
-88.638
-55.215
-2.49323
36.3047
88.5836
118.234
73.8009
48.4394
52.5282
25.763
-24.9664
-20.521
-53.7224
-31.0951
-5.90648
9.68986
42.3537
48.0855
31.0551
14.3661
45.315
54.1689
16.2062
-8.33469
-44.4718
-65.386
-70.3095
-74.3537
-36.154
10.9296
33.143
20.0138
28.9207
15.794
-10.4902
-46.2358
-51.354
23.4399
68.1922
78.1327
74.2033
53.2588
39.7081
1.26699
-37.6165
-66.0272
-100.766
-126.17
-169.658
-175.261
-58.2048
57.1039
88.6639
74.2297
50.0956
35.4922
28.0247
27.3215
47.3813
34.8236
-12.7254
-4.48628
12.7372
32.3674
60.3044
68.6843
63.7537
101.913
153.952
109.276
15.7405
-28.9704
-61.3069
-62.7989
-72.029
-95.3125
-103.087
-110.806
-109.052
-73.335
-58.285
-9.27897
19.3904
29.3604
9.76574
-41.3267
-53.4144
-29.2377
-42.4453
26.8975
72.5029
36.9721
37.6491
14.0617
10.9019
31.3469
44.0109
34.0826
24.203
0.131104
-7.35722
-39.1435
-52.8993
-23.0853
34.1183
65.7489
83.5802
70.8422
61.6136
22.0888
-22.3236
-59.7519
-80.7783
-62.8309
-27.7364
0.466875
10.8904
11.2004
19.3733
18.242
23.0766
15.8681
10.7335
23.4962
7.95184
15.2181
10.8966
-8.38259
-11.9371
-24.3696
-26.2979
-7.90709
-26.1062
-2.8802
21.9503
5.2486
-21.8154
-27.8168
-33.9087
-22.2768
-21.4307
-4.77888
-2.25868
-6.806
-14.8578
-28.6391
-24.6599
17.2836
36.0871
44.5984
53.5639
27.5786
9.94281
-13.3464
-30.6616
-27.9611
-70.6045
-37.2842
13.0544
26.6349
75.9455
69.46
11.8217
-33.0632
11.1724
39.2077
31.4893
-12.8919
-26.5798
-2.47004
-13.4916
-44.6672
-4.51406
29.2027
27.6887
23.7829
34.6161
22.4057
4.3426
-10.0691
-8.90777
24.5539
33.0243
-0.55132
-65.8218
-102.741
-120.927
-126.123
-108.168
-49.5986
65.5431
98.9277
75.9565
51.5323
29.0063
-8.11576
-36.9488
-29.4802
-6.12671
2.01549
0.447113
28.547
85.9258
91.6304
46.3632
86.3359
89.182
53.2365
27.4245
7.13026
-24.7939
-36.3378
-65.3135
-66.1678
-12.7736
-0.123423
18.7386
-2.99987
-34.1855
-47.5045
-65.7596
-98.7352
-67.6486
-14.0841
11.2238
-6.7655
-4.17444
13.6875
40.5358
22.4283
18.6467
24.5177
23.2013
-3.40125
-69.5935
-171.201
-230.48
-147.166
19.9919
116.724
135.382
136.002
115.556
101.201
102.517
105.227
106.173
52.6981
10.688
-3.34039
-52.685
-72.3846
-74.7401
-71.4312
-12.6499
79.3671
177.132
147.686
-6.0251
-98.3236
-109.1
-123.026
-129.177
-87.1997
-61.6854
-71.0805
-51.0716
0.813181
23.4111
25.009
28.7554
30.2984
18.6955
1.45323
-7.77571
49.4356
35.9332
14.316
36.7222
22.2633
-7.84363
7.45194
-16.611
-61.9498
-69.0861
-41.5533
-16.7338
6.58943
11.189
20.2023
28.2729
45.6868
92.4019
133.721
109.765
43.6905
3.03108
-6.91317
-55.4778
-105.989
-103.265
-79.1912
-62.2042
-41.5021
-15.1599
10.2074
12.1072
5.59875
25.7692
45.1501
29.0104
14.5311
-2.09416
-16.6029
17.8901
41.8912
52.9655
12.663
-3.94127
21.5603
27.5401
-7.89933
-36.0399
3.87979
36.6916
28.8453
0.615651
-26.4581
-54.2033
-77.8322
-66.4462
-10.7292
13.9414
20.3574
-14.5005
-33.6915
-31.1398
-21.3174
-7.03831
10.2518
21.101
46.456
86.0553
91.9462
35.8817
-51.7055
-45.8455
-34.131
-47.5725
-83.8609
-59.7065
-37.0734
-0.965258
29.7237
58.8237
100.961
132.829
73.1429
9.48534
-30.9209
-73.5281
-124.969
-155.976
-178.212
-140.958
4.32887
144.062
192.015
183.445
171.481
89.7032
-12.1403
-56.4291
-55.9733
-35.1769
-36.2014
-26.9499
4.25635
43.1462
58.1819
41.1538
89.0957
90.6852
60.3616
41.7783
2.97895
-62.6753
-115.738
-130.27
-101.877
-93.3519
-76.7012
-70.6048
-64.7951
-63.8409
-57.3802
-29.8975
28.2238
54.8814
58.6412
64.5535
51.5435
23.9952
-50.7567
-39.0717
15.1627
-4.44541
3.27527
25.5463
33.9824
50.4634
48.904
22.8626
42.4147
61.3737
49.6589
-17.2686
-55.4182
-25.8833
2.14201
18.3699
28.8007
60.5395
115.294
98.398
-0.399196
-67.7127
-87.436
-107.971
-158.812
-178.835
-133.122
-41.2311
32.8682
48.7652
74.4989
89.2197
74.6882
30.4868
15.6694
22.0921
40.4689
55.5274
53.8941
39.128
28.3919
-6.24694
-24.4766
2.09308
63.9987
37.1178
-0.318378
-24.6461
-69.701
-85.3106
-96.8915
-78.2258
-22.8597
3.02804
15.8028
27.9011
4.29164
-0.824452
14.0448
-24.1185
-72.109
-37.2922
-38.1251
-60.5903
-30.9349
61.3252
82.9862
64.6984
13.1975
-9.85384
3.96418
18.6361
25.5099
9.46323
1.17338
-25.0574
-64.5714
-32.2962
-3.68347
27.3519
46.4985
12.1743
30.0954
88.0045
100.438
92.3793
45.0495
9.16188
0.064914
-3.03915
-21.7004
-47.9066
-56.0322
-28.4453
-10.5511
-4.35449
-32.5226
-100.372
-113.676
-104.386
-73.1831
12.1559
57.1853
47.7256
13.7571
25.1974
74.1922
71.1028
41.1464
19.347
22.1298
31.0842
4.09764
-12.5689
-21.2778
-19.134
4.882
-6.30455
-45.9273
-44.5082
18.7589
32.5241
30.1232
16.0095
-5.1912
-43.65
-41.0702
-37.1316
-34.6801
-2.87585
-3.26231
2.76022
-0.363198
-14.2183
-13.7641
-13.4232
8.2236
53.2978
59.3261
33.6312
-12.6315
-39.3507
-37.1535
-36.7179
-15.0892
11.3169
21.2663
47.2721
41.1873
35.0356
50.9792
14.089
33.149
40.5819
17.3491
-11.2033
-44.7711
-45.8292
-20.8071
-2.75599
3.75875
20.0379
43.1778
11.0367
23.8972
55.7787
18.5342
-65.1401
-125.083
-214.277
-233.114
-125.994
-79.2608
-32.284
11.7034
55.2974
113.758
159.877
175.875
183.421
152.43
81.7913
21.1095
31.7817
-0.102933
-67.4606
-87.6906
-24.9207
28.8135
48.2756
44.7686
23.1922
-23.316
-73.7024
-103.478
-80.2255
-54.4125
-63.2284
-76.8956
-81.6511
-58.2005
-22.5621
-0.303541
7.74314
44.2947
67.9432
68.0415
44.6736
55.8442
87.2574
83.747
30.3689
-9.08518
-11.4924
0.302545
-16.8328
-25.1705
-42.5046
-64.4436
-54.9233
-36.0384
-28.9282
-22.4726
31.5326
9.95014
-25.5059
-26.8624
-14.0954
-8.83243
5.16414
32.3261
91.6674
114.131
133.358
143.151
116.15
30.0879
-68.3363
-101.571
-105.049
-179.225
-218.515
-142.17
-25.8755
25.9668
-35.3142
-43.4814
31.3309
88.079
93.6099
63.2876
24.5117
15.9328
-12.0141
4.59929
-2.33896
22.1121
59.2878
85.0174
82.0515
102.711
114.814
79.3594
-10.0502
-40.1296
40.6043
51.457
-9.30707
-45.6152
-56.7777
-58.5101
-84.6769
-118.481
-99.7798
-112.722
-104.249
-84.4616
-55.1895
-38.0228
-26.2671
-15.1876
11.3975
33.6939
14.1356
-13.1673
-13.3611
23.6249
45.5336
47.719
24.2254
31.6433
24.8286
38.3189
40.6523
38.4798
47.9325
48.7164
52.3139
75.9164
71.5284
89.7406
91.6
31.7401
-45.5
-69.7103
-72.2356
-65.4734
-34.6246
-33.6048
-71.1008
-97.887
-72.6308
-49.6092
-29.057
11.7326
47.9153
95.5707
94.8879
59.6626
29.2553
12.6438
8.51705
-6.79849
-44.9642
-56.4815
-74.429
-78.6181
-66.1926
-25.7558
55.5393
103.014
81.7306
72.4639
18.9145
-15.2614
-22.9163
-49.0469
-50.3965
-54.3714
-32.4762
-13.2301
-46.5923
-43.0535
13.8275
36.5027
50.2646
28.3221
16.4636
22.5813
5.03267
1.37946
16.1868
38.1365
37.0133
-10.7376
-61.1483
-68.0299
-51.4483
-14.9284
9.08224
8.56486
27.6674
59.279
80.4505
79.6161
101.016
116.967
63.4891
-45.8097
-95.4518
-91.0667
-99.3848
-158.996
-205.266
-106.593
4.19618
37.8617
46.5146
60.6356
60.8607
33.5184
30.2056
26.6359
27.0696
14.4878
15.1964
23.8164
32.9168
32.5324
28.8534
42.5361
28.1596
42.2193
80.3898
35.0973
-14.3952
-39.9601
-42.1283
-36.5761
-42.4149
-46.2798
-53.2134
-54.8678
-55.7659
-58.9228
-89.7974
-68.6245
-24.8808
23.3172
54.2648
30.6813
28.4854
47.0857
55.2193
17.1447
37.1333
38.7522
30.9993
13.1586
1.84416
2.07425
-1.50037
-38.4084
-27.9633
-39.4714
-51.466
-48.6822
-13.7296
19.4137
22.2649
39.7667
113.795
116.216
92.6639
75.2903
30.5217
30.2731
13.4876
-67.4692
-82.8983
-92.4354
-64.2273
-6.58364
-13.0305
-35.6198
-49.3665
-92.7269
-89.4743
-68.4953
-72.292
-120.968
-108.72
-35.1025
42.6967
85.7194
82.1062
68.5308
76.6389
86.0308
75.579
59.4453
36.9022
30.8727
40.0884
72.4245
92.1842
85.978
46.5335
21.9835
30.5338
51.9093
-1.84552
-65.7782
-78.3379
-90.6173
-83.4662
-76.3867
-78.2873
-60.1959
-70.2904
-43.2614
26.7349
44.8291
34.2288
31.0387
36.7975
27.4143
-37.4188
-68.6918
-44.0851
-48.7384
-51.7231
-13.7318
-6.95226
-15.4848
-15.4489
-12.6915
6.66475
13.9354
25.8198
49.7723
20.4217
-25.4363
-19.4496
38.1219
86.2349
113.799
98.9498
81.2878
62.9585
56.9526
27.8939
-17.5395
-44.9439
-33.9629
-22.5163
-31.8784
-40.5301
-17.7862
-5.76777
-17.239
-41.969
-40.2652
-11.8561
-28.6452
-48.1672
-49.1393
-48.7231
-60.0321
-46.8597
-59.3457
-77.688
-4.09474
58.5623
64.0097
47.0207
39.6242
24.221
6.84973
1.58183
26.8476
47.0681
62.355
50.9091
36.6944
17.9765
-20.6644
-36.5082
17.157
38.4692
50.4212
72.0483
38.4917
0.889378
-17.5943
-49.1128
-18.5073
-2.32163
-22.9792
-25.9845
-0.626467
28.8436
11.4999
-50.8137
-93.927
-81.6615
-31.8533
11.4915
15.0662
-1.64
10.8547
25.5968
0.709923
-7.37265
11.8046
10.2753
-15.6407
-28.2786
-11.4527
11.7911
-12.8314
-34.1666
-9.20665
9.21554
18.019
-1.44584
-22.9216
-21.2727
-24.4783
-0.224984
28.6353
30.8539
31.3508
19.0619
3.84063
27.634
21.8488
31.6723
31.4273
13.6187
1.42934
-19.3453
-39.4904
-39.6757
-22.1488
-18.2131
-6.24854
36.5107
27.4405
10.3557
1.19012
-0.489762
10.275
13.056
11.8664
25.9483
15.6085
13.9774
11.5516
-2.83042
-15.3279
-5.3198
-10.36
9.19491
31.4996
22.874
-5.26168
-27.5237
-16.5938
-20.9343
-37.5195
-49.5322
-41.8644
-32.6698
-22.7575
-7.06157
10.7783
1.1344
4.85686
9.09429
21.5401
0.177925
2.58243
10.0658
3.2742
7.00117
8.49237
-10.4064
18.816
19.3396
15.2699
12.3617
-9.2742
-19.8983
-24.7959
-47.3761
-32.536
18.0279
31.97
32.6876
15.3598
8.24175
4.25031
-3.13157
-14.7022
23.2226
65.4031
57.4194
-8.44136
-44.9907
-3.08761
29.6127
0.781158
22.5071
32.1904
12.4884
-21.6514
-53.3698
-57.448
-61.2185
-72.2196
-29.6044
0.599962
-1.34115
22.0366
43.5383
47.4339
37.3685
-2.86744
32.3988
15.0369
-10.304
-1.76822
-21.8344
-34.2221
-25.7579
-30.6608
-30.0038
-3.36797
45.4768
68.9531
15.5658
-14.7478
-4.82365
-4.61843
-35.3435
-46.8767
-20.0088
37.4542
28.1467
14.764
23.0781
30.4357
11.1341
-15.0112
-27.6326
8.9268
-5.77451
-17.725
-32.6514
-23.85
16.7313
46.41
42.1014
22.43
18.0445
-35.6416
-58.9182
-45.3162
-37.8296
-36.1652
-55.2458
-22.7222
70.1422
103.798
100.015
69.9233
48.9066
17.644
-17.8932
-9.93059
8.49433
-29.4889
-56.7903
-47.9488
-21.811
19.2055
-6.11689
-1.37082
29.5785
17.7708
-2.38585
-34.2217
-83.8338
-88.4348
-76.7205
-50.922
-19.2979
13.685
41.4416
49.0759
28.6841
38.1268
35.599
5.45727
-33.7932
-10.9943
12.6652
14.1575
8.91896
20.7451
54.4929
69.2733
42.1785
73.4026
58.3733
25.1458
-7.02299
-25.947
-34.806
-55.0368
-44.5156
-16.3813
7.0458
19.9913
6.92352
-5.66118
-32.6917
-88.6655
-127.861
-144.181
-151.933
-94.9341
3.41829
57.2487
92.5544
98.9388
95.6949
66.8774
75.4862
67.9491
37.3901
16.8125
12.1967
11.8467
6.0661
-17.7423
24.7584
48.0626
45.2103
62.176
76.7204
38.1237
-27.4252
-63.5384
-53.8217
-56.4173
-48.8182
-55.8875
-85.81
-106.391
-127.566
-113.236
-51.455
8.41182
82.9287
99.9696
93.3181
90.2319
67.8026
26.8322
5.23817
8.42515
-1.59856
-39.4127
-57.9671
-53.9116
-60.7199
-20.7474
17.0632
41.9945
72.8044
53.5991
21.4571
-6.85288
-6.31734
-13.5254
-54.7231
-48.5833
19.2826
30.7777
13.5726
4.35913
-3.88144
-18.2635
-12.0031
17.5023
44.9692
30.6078
1.27303
-11.7383
-20.3442
-35.9425
-66.3454
-80.4446
-121.229
-125.465
-30.4214
82.7595
98.4176
85.1124
61.8262
41.9778
45.0184
65.2522
73.115
55.3156
44.7206
52.1919
35.5736
-20.9539
-41.7085
3.64249
12.4106
-26.0325
-36.3014
-11.5219
3.95115
-42.6043
-89.7479
-66.7475
-36.3761
-10.1005
8.58701
-20.6523
-27.5465
-5.01494
-1.79111
5.55719
-1.14507
41.1994
53.6228
17.154
1.69537
7.68587
-5.16351
-13.4149
-32.6899
-52.1155
-9.59344
47.0878
56.185
14.6056
-39.4488
-26.2723
-4.87385
-38.0658
-48.0403
-21.0865
-20.7909
-37.1829
-58.3255
-47.2053
-19.636
-3.70597
32.2827
88.2751
93.1202
93.1833
71.4378
37.6455
41.7376
41.863
54.4418
79.6815
10.5932
-15.1645
-33.3438
-60.7263
-43.1939
-21.9445
-32.9543
-49.0589
-38.6419
3.72408
-9.65042
-32.3057
-6.41764
-5.29858
-31.3029
-35.9074
-20.7496
-11.9427
-22.4434
-43.2285
-16.8564
10.1252
-1.67939
-25.3396
33.0947
119.497
133.296
112.331
83.2803
69.4819
35.7884
-22.562
-79.7792
-112.563
-110.716
-82.6564
-35.0095
3.3703
16.0118
18.7749
9.75982
23.6007
20.5818
21.04
8.08612
-31.0193
-36.6773
-42.2594
-41.3567
-6.43418
40.0556
58.3806
12.2851
-18.3684
-23.5747
-30.0574
-16.2897
24.1446
32.2956
14.9538
19.1849
31.6577
59.9877
42.7014
12.0564
-14.289
-15.6666
1.34341
6.57554
-14.4527
-35.2698
-41.3479
-7.565
31.8636
11.0455
-22.5886
-50.2415
-64.4282
-47.0001
-38.58
-42.8281
-36.0164
9.9741
-0.772421
-45.9936
-56.8822
35.5983
125.664
115.346
82.0898
83.1959
68.8882
49.5058
22.5793
14.0612
7.47058
-23.7473
-64.4423
-71.7508
-44.4602
-43.7154
-43.2357
-47.5154
-33.0696
5.4759
64.1479
76.5114
57.4434
41.8051
16.7787
-39.2577
-69.7247
-64.4155
-51.4511
-51.7383
-42.4136
-19.5194
14.4711
26.7449
4.89231
15.6123
11.3906
-9.86452
23.5133
44.5141
50.7389
6.3686
-10.1505
-1.27024
7.66138
38.8548
28.713
-23.2423
-25.3128
-3.6412
10.451
10.3488
25.1815
24.301
-1.91301
12.9362
28.7145
25.0287
31.163
5.53771
-47.121
-78.2631
-114.577
-68.7077
-6.36026
5.16628
19.6782
52.2806
51.2128
53.4908
36.9835
47.0036
19.7176
-30.1266
-38.6514
-62.969
-90.0919
-53.8139
-17.9692
15.5045
35.4074
41.4991
24.6363
-21.3193
-80.2748
-107.537
-90.5909
-36.227
23.7766
92.7207
120.238
98.8126
49.5109
28.4663
5.30431
-45.5929
-61.5744
-25.8399
-12.3526
3.5877
25.0863
57.7518
74.941
38.5079
7.50776
-14.7577
-9.33236
9.30611
9.31037
-12.2074
-22.1735
-35.1169
-34.2887
-25.7207
28.453
92.1604
72.5028
16.6738
0.425961
-4.09177
-47.1361
-107.942
-87.7903
-29.8468
6.57279
45.8889
47.5393
9.72434
-30.0506
-56.1539
-32.7017
-23.9781
-19.6709
-2.0465
-0.261126
1.54236
13.9061
-9.9603
-23.6373
-0.0122104
30.7149
33.0448
29.1766
41.6386
42.6529
43.7943
7.03219
-2.9523
22.6333
-0.141305
-23.5343
-27.7682
-26.1416
-11.5598
-3.89393
8.48717
10.8935
3.94604
0.127538
-29.1375
-40.626
-20.4524
-21.0942
18.5044
49.6169
39.2577
26.911
-4.17641
-49.8464
-110.091
-159.77
-98.29
-26.9122
7.00469
27.0933
67.7491
114.304
116.206
53.9868
31.0041
64.7661
87.1275
89.1168
57.0073
15.8623
19.1445
24.5036
-27.4538
-30.2325
30.9238
4.60643
-57.345
-62.158
-47.9212
-48.6323
-63.9089
-85.8835
-76.0308
-15.6574
-18.3829
-55.4304
-56.9905
-56.3099
-69.9138
-58.7801
-36.0804
12.1964
67.2628
46.3646
47.0734
101.114
104.158
64.9788
33.1709
16.2128
23.1543
20.8959
32.0503
29.9107
35.0711
22.3614
-16.411
-39.0394
-31.3128
-27.3596
-20.3021
-9.06831
-6.34916
5.22309
16.1524
27.4032
21.5395
-7.03032
-9.77121
5.6574
0.236365
4.83973
-8.79886
-32.1149
-34.1132
-87.6779
-108.654
-65.7064
-42.6952
-19.2584
-6.51119
-10.4447
19.9087
88.307
93.8865
68.8662
31.9017
24.1827
3.59111
-33.2696
-68.5478
-52.6092
-48.7767
-20.9178
13.3092
53.709
74.9336
48.8806
30.1954
33.6982
50.6567
50.5723
41.934
-3.29303
-18.683
-5.03376
6.60884
-4.39387
0.331402
11.8328
6.4833
-36.8652
-43.0263
-28.7034
-25.9984
-16.3849
14.4098
17.1726
-0.75836
-17.5388
-60.9856
-83.0821
-67.6844
-63.6213
-76.5528
-71.4769
-32.7547
8.44367
56.1841
69.1123
63.3899
73.8177
84.877
63.2137
50.8471
34.4249
7.87008
-12.4351
-26.4254
-18.8338
1.94415
9.73234
13.9726
-0.0812055
4.7178
8.6109
7.43923
10.181
-11.7346
-21.7302
2.24075
-1.7474
-22.5201
-29.3651
-36.1059
-34.7416
-31.8735
-27.9132
-1.18702
-9.90676
-14.6091
9.13613
22.557
24.0454
12.4499
-0.655008
13.0329
5.26128
-5.71075
-4.17071
-4.12548
-0.114421
1.42387
-20.7842
-34.324
11.3313
47.7742
35.4518
4.24894
4.87608
4.59869
8.60757
-14.2193
-10.0871
37.1196
54.2171
30.952
13
10.16
3.52782
-24.9032
-34.9097
-46.4815
-24.5692
13.521
13.3199
-4.33468
-0.658832
-9.9673
-32.167
-30.2812
9.7999
22.1012
19.845
19.2924
20.5441
34.1347
33.5248
19.0673
13.1905
-21.9047
-57.0153
-70.7593
-67.2462
-49.479
-33.5249
-23.5376
-12.1708
1.22097
28.2591
35.6057
8.77355
-12.9896
-23.2798
-42.9421
-14.0873
7.13624
22.8352
15.0493
12.5373
34.1223
69.3979
93.9269
74.7413
17.258
11.996
19.6395
46.5692
71.0811
61.5033
19.3501
-52.8009
-91.9869
-89.856
-130.744
-152.606
-83.2657
23.5673
72.6053
63.233
71.4108
106.497
91.0739
71.5268
26.8812
-39.3967
-57.8119
-77.9879
-80.4243
-75.2313
-82.6719
-49.2305
-17.1778
-18.0634
-0.601576
-12.7262
-69.6651
-55.0036
-4.3954
40.2478
40.4322
18.2197
20.8958
24.4744
30.8426
-0.596216
-17.5119
-12.7712
11.2591
38.5291
81.5741
98.3928
104.112
98.7901
78.246
101.147
103.987
23.6415
-38.1227
-66.4661
-65.6251
-71.2573
-70.7067
-67.3308
-42.3208
-23.0547
-23.4513
-21.3197
-30.6102
-43.472
-57.5862
-59.7583
-11.7208
14.6077
56.5596
42.9848
-2.95774
-51.1873
-87.648
-73.1994
-50.3628
-35.0636
-13.852
11.0924
21.5688
58.5117
76.1814
86.7866
75.9244
60.706
70.8292
76.1847
55.3074
32.4186
-1.37002
-41.2302
-44.8814
-27.2282
-33.9422
-52.1917
-45.6026
-29.9148
-6.49994
3.47572
-0.247738
14.8781
-4.23908
-28.5993
-41.6179
-32.8478
-26.9563
-35.3113
-40.0038
-12.9619
10.0638
33.0888
43.0867
45.1684
44.0132
29.8711
7.77831
-1.91947
22.5833
27.3294
29.8207
27.1254
21.703
-1.74294
1.78385
0.109951
-8.25884
-20.5592
-49.2798
-74.5083
-47.0682
-0.587811
15.6793
29.4786
69.1004
78.762
68.8009
51.4585
8.52795
-19.5696
-38.4641
-55.5853
-81.5368
-97.2686
-93.829
-81.9473
-74.2354
-16.0075
33.2854
66.0563
66.5911
29.705
19.8755
37.572
39.5827
28.2898
30.674
33.5971
15.1797
5.59154
27.6859
19.4015
1.7869
12.4257
15.6968
5.45202
6.2719
-4.5475
1.13125
-17.8064
-23.3658
-40.8218
-64.8678
-88.875
-96.7653
-67.3148
-28.9365
-35.6573
-42.9765
-41.5381
-28.9118
-1.81615
30.2029
46.3461
72.7938
66.5106
65.4017
37.2289
19.569
44.2364
47.9029
44.356
57.9169
87.2213
70.5083
19.4468
-17.2796
-52.7585
-74.2623
-23.4136
1.47564
18.0048
43.9868
26.8011
-17.5801
-41.3546
-52.9694
-60.3323
-56.6457
-53.5847
-52.343
21.4862
40.8814
21.6699
10.4358
-0.584244
-4.24621
-2.75871
5.33387
10.7223
-14.6958
-43.3972
-37.0164
-8.98976
-5.75092
-12.5915
-5.9599
15.0477
32.8115
36.4672
44.9233
30.388
11.8192
-44.2737
-52.0763
4.20673
10.6284
21.7364
22.0412
-4.623
-9.15898
-8.38989
-10.5891
-14.523
14.2317
34.2654
33.0757
17.5498
-17.311
-35.7878
-46.7998
-73.7759
-80.4491
-35.7052
9.03371
21.634
35.6775
45.558
59.1276
54.3123
37.9905
47.3971
19.09
17.8819
18.2828
17.89
15.959
16.988
9.07356
39.577
32.0583
2.54343
-9.75051
-23.7769
-53.5544
-70.4335
-44.5691
1.02644
-2.79946
-23.8393
-35.2987
-94.9006
-124.88
-107.675
-75.4559
30.7981
82.4516
87.4682
63.8211
32.7934
36.9881
43.723
7.34073
-41.5943
-36.6516
-22.7244
-23.0183
-43.0795
2.14756
39.1232
53.3758
71.6592
103.994
88.9324
69.4198
17.3201
-24.0684
-58.9069
-47.6507
-32.246
-35.2715
-42.7988
-25.6036
16.1238
28.1385
28.3278
39.9372
39.2471
10.4132
-20.0195
-57.6912
-3.58058
34.6987
22.0941
-21.4256
-62.2965
-60.8528
-46.3918
-54.0141
-39.4954
-26.2943
-6.36498
7.1219
-0.823539
-11.0067
-21.0229
-42.2388
-29.9073
-2.95596
20.802
58.8908
49.9337
45.0461
58.4258
62.3207
40.4235
25.2778
61.0621
54.4979
4.94758
-14.7275
-11.6189
-4.97437
-21.7551
-28.5053
3.00069
-6.59641
-22.5762
-29.4415
-20.6501
-10.0357
-24.1344
-31.5891
-7.79193
-32.361
-26.0896
-5.96689
-15.3399
-5.22103
-3.87577
-10.8002
6.75144
29.716
36.7033
33.9974
29.6626
30.0024
20.943
10.9051
-13.1384
-31.0311
-5.1118
-7.94547
-28.8652
-9.6669
16.3435
23.0833
8.22041
27.9853
48.8939
36.9648
17.4263
-0.463106
-4.79727
-4.79866
-32.991
-60.0356
-58.0685
-77.271
-61.3819
2.7021
2.6439
-11.4956
-17.6118
-23.4672
-13.7829
31.9814
61.1859
77.9263
54.5406
34.8801
9.68298
-29.1203
-25.3367
-10.3746
-10.0438
9.17964
19.298
43.7719
57.1039
39.6244
43.9503
43.2754
-10.9564
-53.4012
-61.3475
-96.0223
-142.298
-127.721
-28.3617
33.3754
34.2037
40.8043
53.0655
55.7398
47.3927
40.0463
23.7221
16.1225
13.8378
23.2413
-18.3462
-32.3921
1.56636
28.5522
11.3657
-18.7836
22.7743
14.5224
-27.3757
-44.7992
-33.906
-8.69318
-4.05976
-12.5876
5.02591
11.945
16.9043
6.21172
-13.4844
-32.9423
-31.9812
-33.5375
-39.629
-21.0468
-44.9001
-55.0311
-4.20568
37.6541
25.0439
21.7943
10.2556
24.9847
25.9923
47.8868
47.7199
30.0995
20.5367
10.2695
-8.86464
13.9007
32.8073
23.1814
21.8753
31.67
35.6594
42.4817
19.274
-3.17757
-23.0215
-18.6298
-1.65489
-5.26907
-17.5807
-45.5186
-48.3977
-52.898
-44.7895
-0.753483
-2.54444
-50.2471
-58.9972
-17.9189
-1.58024
-21.4515
-42.7093
-19.8574
-25.9361
-34.2227
-6.29781
43.3664
58.4663
20.7082
4.78973
31.429
23.365
35.0471
42.6068
26.2533
40.5347
50.321
33.2191
39.7851
42.5239
44.5367
57.6741
43.2794
9.27106
-46.5526
-71.5909
-76.6132
-69.9803
-45.7735
-57.6312
-84.9834
-67.191
-49.263
-44.1404
-13.9388
-11.1373
-18.3466
-5.32894
0.974264
23.8084
44.7708
48.2806
25.8406
40.5143
74.6665
73.393
34.1863
18.4541
5.31251
2.00558
-1.11879
-11.2902
12.086
42.3004
9.46998
10.0411
13.877
-3.41391
-19.8733
-24.879
-21.0127
-15.4735
-5.03741
-18.9548
-15.4662
-3.80054
-11.1097
-45.2201
-35.0925
-24.4286
-13.0483
-3.40424
-2.80101
-15.5257
-31.2321
-33.7219
17.9935
65.7431
74.7224
69.806
31.7161
15.2818
25.5505
10.2329
-15.6001
-26.3509
-20.5284
5.03248
-5.32066
-3.04293
-5.59539
0.204775
-23.136
-42.2263
-16.9841
-6.96016
-28.8704
-38.5836
-30.2426
-23.9869
-43.7265
-40.7114
14.4353
30.6296
30.3527
16.5516
4.38958
12.9268
15.9296
26.4442
42.7888
38.0255
50.2454
57.0879
41.4713
21.2889
-18.8564
-28.0592
-22.4552
-40.6855
-21.9348
13.8605
-3.42756
-1.92289
23.4003
20.3062
13.7708
20.6787
20.3389
-8.73259
-22.48
-25.8854
-35.9376
-42.2088
-42.0026
-42.0705
-28.0953
10.916
0.418648
3.35746
12.6162
7.47469
-12.6665
-13.6316
-31.8018
-37.916
-5.84604
-10.6231
-8.41779
12.3596
20.5434
32.8313
15.9053
2.60632
12.2218
29.9416
45.2344
40.4897
72.9909
98.2358
78.64
53.3309
-12.3157
-33.8289
-23.6952
-13.5265
-24.446
-40.5196
-51.4813
-24.6
-28.8128
-56.5777
-45.6409
-15.8288
-20.1114
-36.8649
-40.9526
-22.0995
-47.6706
-60.7203
-46.0213
-51.58
-5.17551
35.6186
35.7644
17.754
36.2003
53.1754
79.2627
101.91
104.579
89.6865
56.7499
30.4775
18.9135
48.5762
32.2339
-15.7998
-72.9929
-111.037
-96.4408
-51.117
-22.9371
12.5971
31.8741
37.1734
-9.95811
-24.5214
-17.1528
-10.2474
-27.7065
-20.0944
14.4804
23.0623
7.8736
-20.6351
-34.0242
-57.4401
-47.2009
-48.2187
-60.2573
-22.7601
22.0131
18.1847
4.29335
23.8798
72.6269
84.187
59.8637
60.8919
65.1791
34.8893
-38.0621
-106.792
-100.591
-48.9487
-1.68432
84.6419
134.557
153.511
158.275
102.026
56.5706
13.8492
-19.9433
-80.1497
-107.33
-115.15
-111.366
-134.48
-151.029
-145.457
-104.684
-51.0478
-4.69503
-8.29503
11.6979
10.3892
15.5622
4.46461
-5.9139
-7.47713
-8.42356
-40.334
-20.8005
22.4867
43.1313
68.6249
88.1686
130.65
153.049
144.055
160.122
158.674
123.808
90.4911
30.6884
9.44665
9.82306
-11.053
-44.3134
-68.3086
-125.297
-142.072
-116.309
-110.5
-109.47
-64.4094
-46.297
-41.2168
-23.5841
13.7374
33.1513
8.15412
-40.7897
-38.5588
-28.1436
-81.9826
-91.1495
-43.7717
7.82176
52.6053
76.7707
86.8953
119.126
117.468
78.5623
-24.9366
-74.117
-117.681
-139.033
-124.202
-62.1407
15.9712
95.0865
113.051
116.215
133.017
107.874
88.9885
