-163.648
-87.614
157.18
404.87
325.639
221.321
166.192
123.66
-13.6025
-99.4329
-56.2268
-9.75199
-42.6762
-79.8669
-147.4
-124.648
-100.347
-71.7858
-44.953
-41.8557
17.3839
73.374
-59.74
-228.194
-194.551
-108.295
-79.4067
-44.6118
20.4716
66.815
26.688
-15.9725
79.2654
139.31
167.306
175.23
167.266
146.355
126.768
135.118
100.699
63.3938
19.988
-40.7497
-41.4838
-44.6853
-68.8974
-98.7955
-53.3639
-33.1114
-61.0585
-61.9074
-29.6468
-29.5254
-21.3266
-44.118
-91.5377
-129.61
-83.7141
0.424538
92.539
145.903
124.029
59.7305
19.6262
-1.31703
-46.6713
-154.925
-247.204
-222.998
-152.589
-136.729
-48.1121
21.3855
11.2855
3.98032
36.2628
161.664
281.535
452.648
391.338
186.523
181.335
166.293
29.496
-112
-179.633
-134.982
-100.239
-155.521
-251.627
-259.287
-158.237
-60.9045
89.5591
230.103
225.13
119.187
23.3548
-174.357
-344.536
-332.698
-267.768
-183.791
-123.117
-40.2099
98.9346
220.86
263.635
282.782
294.418
310.286
298.446
196.864
34.2597
-135.756
-220.142
-231.796
-244.901
-266.065
-153.61
-41.1738
-60.9892
-39.5234
89.4692
167.995
154.575
136.794
150.44
148.593
127.029
65.5036
-83.1955
-195.243
-200.158
-109.904
-39.5026
-16.6429
-41.394
-69.7504
-81.7085
-134.194
-143.709
-53.1515
184.768
325
189.768
64.3204
28.7103
36.9352
149.313
341.261
244.489
7.30825
-52.724
-6.71537
-33.9644
-183.671
-308.173
-298.2
-223.282
-98.3847
-14.2645
-45.699
-34.1132
22.0785
3.97182
-93.3511
-112.266
-53.7797
-59.3426
-174.876
-144.687
2.73515
8.11311
-4.928
73.315
161.738
234.299
199.723
180.463
211.407
198.794
178.414
57.9497
-71.5482
65.0991
324.579
303.606
108.9
-36.4862
-155.785
-240.637
-224.056
-205.801
-232.015
-239.67
-158.412
-59.3846
43.2715
99.9202
91.3695
-34.2318
-190.338
-257.3
-149.842
-27.8344
-68.0796
76.8914
220.727
197.402
4.2078
-74.9925
94.8516
348.145
423.534
189.332
4.38013
-103.021
-138.478
-140.139
-99.5618
-41.8192
-57.7417
-98.5077
-70.0959
105.074
156.184
-32.5299
-152.568
-187.933
-115.023
-32.3991
-23.2281
-69.7073
-116.043
-10.433
82.3099
80.2665
37.721
42.6603
46.9534
38.1266
91.9827
107.65
93.6535
-6.84651
-106.264
-88.4063
7.19029
32.6456
54.4997
142.361
111.576
20.7394
-11.5667
37.0879
68.3665
80.4418
76.4278
-0.982009
-76.1498
-117.823
-93.0691
-50.4273
-110.955
-176.785
-151.613
-62.0826
-47.3554
4.5125
58.3889
48.6975
46.0328
136.098
266.442
156.07
-2.89647
-64.3643
-67.3193
-53.6189
-34.3163
-9.91684
-3.29951
-27.798
-59.9102
-95.4556
-69.9009
-61.8222
-55.5284
-0.491978
12.6398
-29.035
-38.0659
-79.7836
-196.021
-164.877
20.4885
177.937
237.253
211.19
145.574
105.671
29.9159
-27.62
0.995904
156.897
383.776
272.891
23.0889
-167.826
-318.023
-279.278
-125.013
-105.146
-122.194
-77.7001
-51.4889
-87.5406
-196.947
-153.789
-95.0293
40.1728
230.079
427.369
490.561
252.435
-43.7307
-154.077
-67.4956
-50.0507
9.3651
29.8018
-32.1725
-69.9945
-71.8614
-35.4166
-38.4934
-69.1483
-127.182
-175.911
-84.1334
96.9672
224.163
6.15135
-170.028
-179.264
-200.822
-122.86
-38.5192
96.054
229.87
224.233
175.92
127.049
69.2802
13.5349
-22.0133
0.658262
58.909
72.0772
43.0327
-60.1468
-156.057
-136.276
-205.316
-230.261
-139.782
-20.0076
70.5815
94.987
86.4044
56.816
29.6104
26.9331
54.6297
157.65
166.842
110.845
249.025
478.509
336.144
-5.72676
-211.411
-208.818
-137.741
-85.4828
-81.5953
-48.022
-45.0877
-84.8963
-162.636
-211.606
-296.419
-333.747
-239.624
-186.578
-104.353
15.5053
31.7063
-82.1255
-23.4381
90.1698
105.015
132.164
107.423
73.1018
101.456
248.557
263.011
152.092
43.6242
29.075
113.668
229.366
283.773
342.677
133.948
-116.623
-170.024
-150.084
-99.1159
-37.0158
-19.8298
-122.939
-248.468
-276.488
-248.026
-262.588
-248.759
-181.961
-32.4626
110.325
185.323
180.796
121.674
96.1424
151.937
185.396
92.6572
-125.516
-263.02
-287.718
-159.728
72.4273
203.144
213.47
165.148
97.5824
114.572
344.066
265.784
60.909
-73.4337
-150.586
-193.809
-230.907
-161.231
-70.2619
-35.695
26.2666
84.302
66.716
-21.9844
-82.182
-35.8045
6.15192
-4.14307
-56.7699
-119.134
-188.745
-168.168
-77.4758
38.7456
40.5695
12.6329
45.2144
81.6887
57.6782
27.3541
-18.2823
-69.1813
47.758
262.345
407.192
278.46
3.47994
-89.0035
-96.9695
-77.041
-102.256
7.89801
71.9906
-21.0275
-93.6475
-101.814
-96.8754
-66.5057
29.9501
98.7113
67.0892
27.9162
-38.65
-176.979
-280.292
-245.298
-88.8497
10.655
38.4882
79.7465
140.089
343.897
434.206
219.284
-6.10036
-149.369
-265.51
-262.054
-268.505
-274.75
-140.032
79.0789
203.173
145.527
34.9592
23.4534
88.4625
136.928
173.578
157.857
101.203
-12.7113
-112.705
-50.2638
52.9774
84.0434
41.373
12.1437
3.97263
-16.8909
17.8064
24.8335
-7.10648
-24.0633
-31.7352
21.0427
10.6541
-99.4888
-187.765
-168.092
-173.664
-239.979
-269.442
-236.547
-185.488
29.9478
361.126
488.087
375.186
207.99
91.0011
-9.73258
-86.8701
-93.9493
-115.356
-173.477
-191.375
-169.904
-76.2901
57.8701
106.713
105.674
149.997
174.11
48.8679
-154.372
-82.0152
212.362
328.123
203.827
34.9905
-90.6162
-144.849
-179.099
-115.885
6.51213
47.7253
16.2201
-64.4494
-173.169
-178.909
-185.238
-136.868
-0.766398
195.985
241.363
1.74215
-300.516
-284.829
-69.6893
57.5133
101.789
100.73
131.974
137.945
117.696
47.0653
44.2462
55.4967
-49.8034
-44.3634
94.4787
319.939
365.745
264.562
171.3
44.7591
-119.847
-247.692
-251.826
-195.484
-129.837
-83.4587
-54.8776
-46.2548
-16.189
65.3632
36.5727
8.25818
8.67988
-44.7319
-128.821
-300.539
-327.952
-198.421
-98.7927
-104.917
-138.841
-69.013
91.2235
168.473
164.504
127.225
41.929
8.6095
78.5512
339.102
546.816
312.578
108.813
-7.43148
-73.0245
-90.7134
-51.3286
20.3812
121.608
134.305
135.45
96.9444
-78.7598
-172.315
-201.217
-308.987
-321.572
-223.523
-212.115
-293.162
-274.517
-63.136
118.988
174.232
177.345
168.233
163.609
35.5556
-90.6976
-41.9169
19.7369
56.8097
130.467
148.714
155.59
216.881
237.663
152.926
39.26
-84.7399
-165.865
-113.587
-57.6215
-41.7206
-22.3977
-55.9204
-100.208
-78.0177
-106.288
-172.055
-151.894
-84.2152
-7.87201
52.5837
29.107
94.055
249.898
429.917
420.842
85.2018
-202.12
-316.303
-314.741
-227.331
-102.828
-58.5474
-125.347
-74.5761
-3.36205
19.3475
55.0015
97.6868
123.866
143.123
200.385
166.726
24.2798
-140.256
-219.878
-192.878
-167.538
-103.324
131.538
457.769
368.451
216.399
73.4332
-105.164
-151.254
-123.273
-140.048
-144.626
-129.935
-119.451
-91.8216
-58.5567
-33.6035
-38.9365
18.0709
157.94
217.341
172.847
38.5664
-102.458
-88.9166
-49.3275
35.7008
120.011
102.832
12.5485
-75.1907
-66.2166
-20.7083
-142.126
-195.237
-117.826
-37.2291
36.0463
136.494
275.501
357.384
323.664
33.4964
-212.171
-231.743
-236.642
-232.92
-118.966
124.221
292.656
189.349
33.2359
-29.4637
48.2613
135.538
80.2196
-90.3981
-220.504
-308.161
-303.314
-175.933
-43.6193
62.1657
25.0384
1.28726
38.8129
113.889
108.953
18.5441
-52.0241
-59.4258
-70.9358
-102.374
-90.0631
-158.422
-196.824
-70.265
147.93
517.996
577.6
346.333
270.19
343.675
324.329
77.7956
-132.077
-183.329
-192.049
-252.747
-296.316
-225.932
-208.375
-192.214
-109.678
-31.4193
21.3211
32.3429
-52.2714
-199.608
-204.607
-94.6693
-47.8986
-95.9253
-147.241
-32.5059
76.2482
101.54
89.8807
33.0307
84.6626
347.058
606.625
443.984
181.419
74.389
48.8327
-16.4983
-196.018
-347.713
-259.943
-115.201
-166.944
-210.237
-89.96
82.6889
117.174
64.0123
61.517
82.6562
40.8093
-97.7873
-169.616
18.7071
118.505
109.694
77.201
29.5034
33.9393
25.886
0.694373
-7.54807
23.6488
57.5235
-10.0154
-89.5128
-82.4542
-56.0615
-45.0654
-59.4248
-95.8438
-102.237
-167.291
-185.766
-98.4589
-12.0062
-20.0217
-70.1955
14.1361
130.036
349.589
402.204
324.144
380.799
327.522
81.2671
-208.998
-257.792
-202.425
-170.626
-138.378
-99.6848
-72.4271
-60.6059
-38.2175
-16.5172
2.59804
37.4601
24.7258
-81.9958
-324.654
-461.755
-380.313
-247.854
55.7895
323.182
373.846
306.442
209.201
163.791
152.999
121.535
74.058
10.9289
8.92795
17.3664
32.7551
73.39
62.9813
21.7456
-32.9673
-36.0952
-15.2983
-75.5298
-195.312
-204.555
-57.2581
42.558
89.3903
110.266
82.1647
32.2113
-9.99142
-57.5348
-130.626
-152.32
-98.064
-75.8331
-100.103
-74.4839
-11.5659
51.3095
72.4534
-16.6707
-90.764
-13.696
130.125
156.672
174.165
220.705
107.979
0.625292
-10.8533
67.3925
103.318
59.4996
-13.4357
-81.8121
-122.927
-161.36
-161.844
-152.989
-133.189
-76.8502
30.3515
128.584
-35.2026
-130.074
-43.7295
96.2971
257.649
220.187
26.4252
-90.516
-90.3374
-72.7395
-70.2077
-46.2687
7.96635
38.1287
-22.5168
-45.6741
-37.8621
-46.2195
-127.101
-240.877
-68.3731
170.5
308.469
169.18
-37.7022
-45.0875
59.2721
82.5275
66.8628
57.6024
90.2532
134.877
62.6405
35.6186
114.936
139.617
67.6953
-35.6243
-116.778
-177.541
-193.71
-235.809
-301.331
-275.447
-180.569
-74.1609
71.7411
184.76
187.636
160.653
133.168
128.149
142.282
78.1063
-38.9618
-128.952
-136.307
-74.8561
-13.2859
-11.6694
13.7563
81.9427
83.0753
88.5962
158.733
163.993
-0.687568
-144.291
-194.459
-236.561
-198.544
-66.2765
198.554
393.776
221.837
61.6142
-39.8303
-116.108
-98.3378
-60.1526
-19.4998
-27.1422
-58.2403
-18.6103
10.119
-69.1707
-214.856
-335.789
-270.526
-39.6453
244.35
180.178
-11.6446
-116.74
-46.7863
45.4602
134.48
174.979
132.133
32.3849
-63.9229
-71.9845
-50.9994
3.33809
78.2919
174.859
328.172
448.068
379.962
47.8841
-274.225
-296.72
-220.842
-202.786
-136.445
-85.2432
-33.6728
6.9689
-16.9699
-25.1126
15.5385
30.5022
-15.2451
-69.7968
-82.0621
-60.5511
15.351
90.8464
88.0442
103.648
121.527
5.75049
-114.249
-44.9669
180.523
276.254
107.339
14.9312
-36.683
-60.4057
-104.736
-189.632
-183.053
-186.44
-197.187
-171.263
-138.89
-146.852
-105.246
13.8221
67.2306
139.682
155.168
214.19
280.749
373.761
269.006
30.3586
1.16683
86.8173
43.3025
-31.1704
-93.1457
-100.092
-114.4
-148.4
-105.892
-38.1281
-68.6457
-100.168
-101.017
-39.7475
26.7331
-30.8847
-127.933
-154.102
-50.7716
37.4637
44.7986
-40.5663
-11.0048
73.241
160.547
182.938
120.228
38.2493
42.229
104.482
57.0816
97.4364
101.317
58.4118
23.8703
34.9284
-86.5459
-243.268
-159.625
-40.8809
-22.7398
8.18907
78.1836
29.4947
-66.8908
-38.3175
162.421
206.532
-96.5931
-260.207
-130.104
74.0199
122.863
-46.0093
-176.638
-254.955
-222.74
-142.21
-85.3049
-18.0106
122.765
213.261
197.126
158.691
70.8721
-47.9318
-102.574
10.75
179.841
267.907
283.644
99.2528
-77.1845
-21.3888
46.6072
-13.6752
-110.06
-120.145
-93.4525
-70.341
-75.9581
-67.1969
-51.389
19.8926
122.56
117.758
-9.15557
-173.482
-244.892
-274.001
-237.227
-41.6039
67.7886
133.942
238.222
351.443
286.875
120.336
66.6625
-59.4158
-112.881
-111.489
-107.215
-127.466
-126.68
-41.5232
142.118
313.239
193.229
22.2955
-59.5796
-134.738
-153.318
-164.635
-238.501
-286.942
-170.854
107.052
166.909
118.381
-0.738333
-83.971
4.07823
80.858
87.7461
65.131
-41.3006
-146.455
15.2059
148.54
176.054
139.063
104.461
44.2144
-0.337974
-40.6802
-27.2765
-42.4459
51.8926
176.721
160.54
120.107
70.4585
33.1239
-53.1559
-164.972
-210.716
-194.328
-119.951
-72.0581
-29.6465
-6.43944
-21.9475
-7.41304
22.1685
0.948601
-101.709
-126.352
-118.386
-97.8544
-25.1369
51.2903
87.6954
183.648
203.328
101.697
21.2309
-14.9433
-24.1475
-29.335
-73.7216
-145.65
-114.194
-36.8394
8.74683
-19.3066
6.99877
94.1393
396.012
438.246
95.5919
-117.885
-180.596
-219.351
-251.933
-209.383
-100.551
103.643
349.547
262.124
77.7183
-18.381
-43.9523
-28.1571
-59.2424
-2.58917
72.8035
-36.667
-227.877
-219.726
-47.405
-8.01262
-59.4369
-45.8451
-13.7602
9.33161
-36.0814
-139.986
-180.93
-38.3822
141.358
208.913
224.728
232.89
238.547
185.523
42.9012
93.8706
156.774
91.3666
-4.33807
-37.9581
-79.7797
-150.415
-128.943
-82.8026
-71.0177
-96.4783
-196.011
-210.645
-162.915
-112.039
-94.6905
-90.7839
-30.571
-11.9793
83.4598
16.4413
-203.983
-246.835
-91.0605
145.258
453.154
499.581
281.982
257.576
383.917
318.382
37.1445
-152.169
-282.427
-338.11
-367.667
-274.828
-160.514
-67.1374
-14.9378
-42.8955
-70.4241
26.5305
100.745
88.4836
-24.2788
-1.32722
167.875
196.482
49.8372
-25.8433
19.2822
74.8897
77.8078
-31.9476
-28.431
0.635252
-61.2984
-29.308
6.24939
-14.4699
7.88971
62.2922
106.244
84.7828
10.4699
-76.6562
-52.9433
-61.9571
-206.047
-234.254
-129.315
-56.2078
13.8147
190.915
326.334
255.534
139.517
45.0935
35.6439
72.1059
78.7
8.39939
-123.061
-175.383
-217.991
-217.289
-195.971
-187.629
-159.886
-84.3727
-49.3886
-107.276
-107.738
-15.4856
188.821
368.88
326.988
139.988
-66.7009
-126.716
-66.198
199.484
331.998
131.303
28.699
-5.85623
-135.947
-198.117
-172.949
-165.761
-70.0485
69.4112
130.774
64.2703
-88.5155
-155.262
-68.5433
39.6763
125.818
159.079
81.9834
-96.1651
-171.991
-104.859
-29.8505
-51.0059
-59.0959
-38.4288
-9.89092
116.338
280.991
416.221
377.87
182.253
-8.83416
-85.6772
-31.6545
21.7312
-35.4986
-127.906
-158.186
-145.973
-35.2628
-34.9591
-178.353
-262.639
-168.805
-60.4973
-12.477
-83.266
-169.01
-122.135
251.301
481.315
388.551
182.245
-152.767
-275.436
-203.661
-120.457
-68.1826
-43.2354
-4.10853
60.1254
-15.9135
5.01386
56.6497
37.0171
43.6392
54.8331
27.1986
-30.3952
-174.115
-180.062
-85.6634
-95.8688
-26.986
38.6389
80.1415
92.9659
108.394
141.191
149.969
192.583
278.82
249.193
126.547
75.6585
69.7995
71.1545
3.42624
-167.028
-347.756
-349.288
-232.924
-116.282
-37.7203
-17.6706
-9.852
-3.12361
-16.9684
-43.3369
-41.5634
-35.303
21.402
154.663
250.2
291.364
252.886
149.262
34.9712
-141.929
-214.751
-150.268
39.9914
151.976
27.7483
-94.6598
-105.673
-120.427
-198.004
-275.089
-196.19
-76.274
-0.260013
-73.0444
-194.425
-154.808
29.6521
344.055
371.83
250.835
163.882
27.917
-161.669
-221.81
-68.4647
60.5222
48.1262
18.8911
30.0914
32.3208
-19.0098
-2.07689
28.3776
39.6931
109.141
108.423
63.4206
-60.9866
-49.5813
111.433
164.179
91.8616
-45.4124
-44.1156
-10.9311
-27.3278
-41.4398
-13.8643
64.0692
125.727
103.555
31.4482
-52.0796
-89.8009
-125.34
-220.978
-328.604
-398.872
-285.459
-84.4821
-70.9774
-84.0531
-64.5027
-90.1158
-61.8325
128.392
425.576
514.481
462.682
387.062
227.765
97.4125
21.9316
-7.20244
34.228
8.9861
-33.6137
-73.9929
-178.875
-232.628
-143.035
47.7067
216.226
117.979
-91.8969
-311.933
-491.601
-467.573
-293.291
21.6472
123.283
0.0454501
-18.1774
21.4258
22.2651
54.686
66.1427
66.9364
153.501
176.566
118.854
13.5548
-18.7392
35.0403
167.876
245.711
213.861
140.919
37.2898
-117.561
-225.879
-258.842
-244.886
-152.035
-45.4309
41.3101
100.245
117.547
83.1929
67.4511
109.463
137.375
53.3576
-57.9953
-150.782
-78.14
-5.47815
48.7203
54.1033
-24.4529
66.5203
218.206
193.865
-0.251329
-74.3335
-102.765
-172.775
-173.502
-200.262
-213.335
-97.9804
175.632
357.201
216.604
95.3555
-15.3508
-86.0953
-162.877
-226.274
-275.81
-255.183
-148.507
7.78898
114.911
138.704
140.618
137.565
86.4011
22.197
-13.2429
-1.7929
-197.173
-365.069
-126.144
269.57
510.206
378.705
102.641
-76.8699
-97.8513
-35.8102
-1.43304
-10.6172
16.202
3.82055
7.56481
7.71504
-11.9029
15.2357
28.2195
-64.1232
-143.676
-166.184
-119.408
-143.5
-210.278
-74.8609
70.0227
95.9392
73.2128
42.9225
38.01
91.0469
120.017
100.114
64.5387
65.9977
89.0239
123.336
124.301
64.2363
45.6903
15.2655
-20.8177
-38.1953
-90.2278
-124.106
-52.4665
18.1195
7.23036
-19.1805
-37.2224
-99.9002
-138.748
-239.859
-305.501
-186.489
33.3967
276.357
210.477
46.0887
27.0162
24.9648
11.3804
-37.618
-82.2264
-74.6082
-35.2067
-75.3924
-107.207
-38.0383
29.3583
81.6392
103.907
203.779
238.174
152.311
10.1568
-148.361
-59.3133
146.913
361.285
344.785
104.664
-29.8049
-84.9874
-144.211
-185.458
-181.736
-190.483
-253.036
-268.002
-144.519
36.8468
68.851
38.9763
12.8805
-26.9574
-69.7733
-58.0532
-98.9938
-241.433
-209.062
-25.0028
90.1058
105.439
96.4159
126.243
218.721
290.202
275.814
249.557
155.422
-9.55088
-47.3471
86.0963
328.941
244.188
-55.868
-208.705
-244.608
-263.379
-192.727
-104.894
-63.5618
-27.6717
26.923
5.32907
-32.2986
-58.4501
-61.8284
-56.6938
13.004
76.2922
34.3914
-58.0338
-178.56
-136.438
36.2176
178.616
230.933
107.941
-49.004
-108.115
-112.198
-133.123
-143.159
-148.024
-123.968
-5.72007
197.569
439.225
290.311
97.3625
65.1223
-10.5884
-90.1703
-43.5422
44.3221
-37.4321
-87.2655
-38.7005
-0.974657
-42.3328
-126.938
-127.899
-93.2624
-6.08859
38.0754
-4.04854
-15.1014
28.1282
0.212598
-84.5722
-104.677
-58.957
-0.106335
65.6968
80.3161
38.3434
-55.007
-58.4104
82.2824
339.752
410.368
240.165
123.031
57.859
28.8185
13.4665
-123.037
-350.641
-326.61
-175.779
-41.7977
54.8188
35.0999
-34.2016
-56.7879
31.9448
90.9626
66.9185
-13.1496
-113.168
-106.643
14.511
89.9465
95.9646
-15.6111
-168.118
-146.697
-93.612
-58.6078
-39.6068
-28.6084
17.6967
15.3817
-27.111
9.72087
75.258
192.167
243.136
146.379
44.3701
93.4241
282.269
144.903
-177.152
-269.337
-191.73
-42.9557
126.87
229.409
75.3802
-39.0401
-30.0851
-59.5983
-61.2665
-21.2344
-48.2836
-244.581
-331.145
-271.142
-198.17
-190.991
-141.923
68.3607
269.113
275.389
214.497
147.26
26.0778
8.84843
142.788
183.391
102.319
63.6228
75.3386
18.7044
-26.3565
23.167
-4.19648
-55.1233
-75.8746
-56.0592
-83.6663
-143.815
-92.6074
55.5028
181.536
120.924
-69.3958
-167.94
-83.6456
-23.5255
-32.9171
-33.8586
-3.51701
3.36211
4.81046
-28.4444
-53.019
-29.7504
20.9822
24.7129
-42.3282
44.8931
165.369
310.44
350.684
96.7456
-65.5981
-56.2386
-35.9977
-155.198
-316.343
-417.764
-345.571
-94.0918
233.297
141.694
-25.6418
-32.4195
57.1931
32.0664
-49.9281
-68.4501
-85.9376
-141.366
-134.522
-16.4867
94.5444
120.241
109.096
139.008
264.614
359.203
332.088
177.151
8.06404
127.068
238.67
36.2606
-213.162
-250.926
-188.766
-52.3292
9.06459
-58.0905
-84.8573
-28.0022
-39.1096
-87.3713
-114.4
-96.2711
-86.1033
-68.1878
-79.9763
-114.17
-147.814
-68.206
38.5073
122.195
34.3758
-56.8117
-62.1264
-126.615
-31.6081
249.886
307.127
350.295
190.017
-22.959
-85.3439
-59.3423
-28.0647
-43.3255
-84.2918
-30.6541
-5.38626
-92.8154
-152.68
-142.569
-71.3262
5.07187
86.7864
145.157
192.233
158.756
35.7345
-149.248
-121.046
-48.8237
-25.6812
46.0204
96.2333
76.7955
17.2986
-59.5529
-123.03
-67.2839
-21.5774
83.3595
198.424
205.217
131.17
55.6627
-19.2277
-156.023
-195.42
-146.486
-107.657
-97.5477
-40.2489
-25.7254
-49.2223
2.76683
151.633
161.05
65.9881
39.0486
71.036
104.454
84.284
64.7145
5.18666
-97.0844
-197.131
-218.567
-133.194
-94.4386
-117.663
-93.8397
-48.1474
63.7663
215.714
170.181
-25.549
115.777
288.834
285.992
93.4866
-64.0362
-98.3771
-84.8155
-51.2851
-61.9505
-114.983
-178.24
-214.382
-189.249
-140.371
-70.0498
-60.8184
-87.8634
-114.12
27.2964
252.111
245.711
118.447
-45.9581
-11.8498
71.0214
123.652
134.869
104.595
79.6494
55.9158
26.6432
-2.31277
40.8649
168.825
243.943
274.306
227.729
75.6474
-59.3127
-223.641
-396.053
-426.476
-365.519
-278.236
-220.713
-172.396
-98.867
-17.6654
42.1243
130.565
236.788
222.547
89.1404
32.0434
83.1224
99.5979
81.4506
19.541
-42.449
-32.499
48.6323
225.421
234.024
127.137
94.7991
25.5966
-98.7446
-194.475
-266.365
-342.044
-374.396
-310.656
-87.0294
225.912
457.874
315.797
56.0554
-33.4967
-42.2387
-67.3568
-154.311
-270.713
-171.742
42.3431
166.867
124.065
32.1923
-10.6957
46.478
127.247
129.542
127.386
117.234
21.3604
-169.882
-261.871
-214.521
-124.484
-5.58663
62.4887
119.935
178.162
232.724
188.938
77.561
71.8625
18.5386
0.0953558
-22.0155
-80.388
-56.8426
37.874
124.392
64.7785
-97.415
-130.343
-63.8104
-32.1808
-43.7662
-133.869
-283.48
-301.831
-131.144
137.899
165.605
19.1314
1.00726
-3.81679
-53.1417
-84.2721
-74.274
-50.4985
-81.9394
-23.0383
32.5208
29.4912
61.312
118.337
147.971
214.534
245.242
165.792
63.163
-30.2521
-56.8346
-27.1246
30.1016
44.5057
71.381
139.129
83.9234
-53.9423
-96.051
29.0292
143.419
56.5905
-67.4376
-149.564
-178.241
-148.859
-102.167
-47.9386
-44.9545
-157.63
-201.832
-135.561
-85.9984
-97.8963
-108.843
-91.8658
-25.9478
87.881
110.333
-8.18393
-61.4837
67.6883
128.157
116.475
137.775
282.537
387.234
190.29
-21.2043
-118.825
-96.1205
-34.9132
9.8596
99.3991
222.679
271.179
235.598
97.2545
-12.4888
-127.921
-265.649
-354.118
-396.886
-370.908
-321.483
-275.538
-197.907
33.5083
254.213
349.441
225.358
135.378
77.7536
-10.7071
-22.5411
-42.7409
-84.7345
-70.832
-61.4495
-40.2467
13.3747
110.639
193.404
262.28
264.001
94.585
-129.239
-196.379
-145.36
109.45
309.747
118.027
0.960505
-33.2724
-128.639
-203.291
-117.691
-41.0612
-69.733
-61.7809
-51.5488
-56.3782
15.208
58.7521
11.8411
-56.5121
-122.903
-172.904
-130.541
-59.8772
118.151
234.926
119.042
58.7913
36.5551
48.1271
8.47628
-28.5497
-9.83119
-8.13363
25.4564
71.4173
14.3896
-111.801
-204.109
-134.048
49.9074
90.5561
-23.6132
-221.762
-277.528
-83.7515
137.779
292.962
388.076
345.285
210.606
128.321
83.9856
15.2626
-28.3485
-68.1879
-72.6735
-65.3955
-54.678
-22.6838
31.8807
114.503
104.745
-45.5755
-272.717
-283.458
-156.41
-186.919
-239.729
-242.39
-198.631
-87.1665
86.3755
372.456
399.324
190.133
53.4415
3.41438
37.0042
-28.8488
-136.98
-177.991
-99.2126
129.494
111.272
-41.6234
-42.3204
-24.4506
-48.8988
4.19513
155.413
109.044
-47.9979
-192.431
-151.172
32.9004
119.977
154.109
187.21
184.986
107.173
27.7757
-47.3049
-243.531
-238.49
-92.9927
-50.0958
9.5938
36.7329
6.84377
-19.8865
61.9016
90.3815
-13.7593
-59.065
9.20531
67.1442
69.9627
44.3231
48.3035
68.027
43.2815
-32.0162
-52.8401
18.8866
37.2249
20.0327
14.2117
-50.881
-61.3063
41.5429
123.814
95.3549
-48.5019
-113.89
-81.4286
-67.0433
-39.1263
-25.8343
-52.4108
-87.1882
-149.844
-187.468
-102.374
35.5915
175.472
72.3432
-201.105
-344.293
-206.501
-81.5364
145.788
465.444
425.587
204.472
-17.1348
-33.0884
12.4519
24.1338
1.72281
20.8349
86.5656
149.806
37.9084
-150.525
-193.293
-93.2736
112.498
368.911
390.66
87.197
-233.61
-450.367
-395.538
-245.143
-72.0593
7.99551
39.1497
30.7886
57.8183
91.7282
122.573
88.1314
75.3738
122.913
52.2645
3.95589
41.1062
18.836
-114.559
-181.333
-178.547
-126.534
-42.2881
36.5354
78.0541
45.9181
4.0712
3.37023
46.4986
86.3955
90.7571
40.2514
-33.3309
-37.4105
-0.402149
47.7112
48.3228
46.9962
64.3703
8.37658
-83.3415
-163.1
-211.428
-248.67
-248.635
-151.22
87.3372
375.116
413.595
284.545
310.084
357.415
119.111
-87.734
-188.644
-299.811
-370.418
-357.832
-292.693
-110.13
-2.61228
53.3703
149.718
212.022
263.28
226.745
64.4034
-173.72
-295.764
-287.145
-225.497
-155.597
-50.2846
35.3232
144.256
197.493
147.082
78.9795
90.3685
183.622
300.405
281.787
191.283
195.444
172.922
11.2338
-143.085
-205.554
-205.148
-183.816
-241.046
-247.363
-115.542
-20.0156
-19.842
21.4604
88.9856
71.8347
-59.9815
-215.243
-264.286
-135.976
89.7924
65.4382
-102.038
-54.3124
7.21266
59.7131
128.114
190.673
161.705
58.6675
34.929
44.0991
0.885381
-9.11147
2.15524
13.0459
57.2223
140.716
119.06
24.4416
-93.4993
-90.7433
-36.5457
-41.8823
-62.543
-72.0017
-59.7214
-29.9205
27.95
172.501
450.663
435.579
171.648
6.46142
-48.203
-59.648
-100.618
-199.345
-401.06
-522.699
-421.737
-215.445
-37.3822
98.2325
247.168
270.605
141.711
6.64575
-79.9015
-194.841
-303.303
-263.943
-106.434
30.6519
83.0458
102.667
166.761
371.458
581.487
466.206
249.469
51.5583
-96.9272
-219.173
-234.93
-160.945
-114.926
-146.002
-147.01
-82.6979
-68.0154
-67.874
-0.830191
-13.2634
7.35085
105.91
134.348
96.1705
55.3051
53.1306
24.1438
-31.7312
-48.7374
-10.7097
-58.3625
-135.899
-84.4571
38.1279
85.0414
55.1498
-84.7371
-70.3344
40.8355
122.649
90.6693
12.8041
85.4557
222.725
371.875
199.458
-34.6406
-95.3593
-57.046
-111.221
-238.669
-326.964
-332.239
-273.571
-213.698
-119.719
11.9487
104.388
135.049
141.498
161.578
163.88
64.8736
-109.605
-278.99
-146.962
33.6258
107.07
113.804
145.248
164.893
145.669
115.33
111.169
62.4724
-31.4195
-102.862
-76.6366
-66.5217
-88.5279
-54.7656
-8.42024
97.2929
128.111
128.831
60.1105
27.9579
2.11071
-32.0744
-48.4521
-77.9238
-31.4397
11.2812
-31.4921
-87.6171
-122.414
-138.282
-181.054
-204.002
-95.3804
14.2252
58.1826
16.3486
-87.884
-156.569
-41.263
24.4383
53.3123
158.769
254.674
285.842
251.059
198.704
119.136
71.0318
49.3386
48.3176
36.6835
-0.767835
-117.109
-216.841
-163.113
-38.9264
195.375
118.254
-46.7113
-104.623
-109.099
-132.589
-200.631
-225.555
-191.384
-57.1169
104.959
290.945
309.876
180.369
80.1861
-16.2623
-47.9806
-10.8552
-21.8666
-170.41
-400.711
-438.287
-216.551
-16.8739
26.3499
-5.9798
45.4358
118.529
121.835
53.4949
-10.849
-50.7588
98.7439
178.463
23.6605
29.5385
124.153
166.662
149.41
158.449
249.207
302.365
148.074
-71.732
14.2215
117.252
109.283
78.536
-36.2198
-196.882
-236.734
-241.339
-259.936
-182.961
-54.2084
-42.5468
-133.871
-173.543
-172.447
-213.746
-246.001
-147.821
-17.8803
130.61
152.645
134.107
92.4034
50.6744
71.9559
117.301
117.222
67.4516
-2.77358
4.56167
11.8211
7.24813
138.822
323.916
387.414
183.021
-76.8364
-172.538
-177.184
-156.524
-173.141
-204.078
-199.318
-102.454
162.376
431.268
281.619
88.0007
63.2095
52.7212
13.9875
-40.075
-64.3757
-129.301
-322.595
-287.275
-206.683
-173.607
-106.593
-29.9043
34.2264
115.347
170.156
136.709
-44.8992
-196.408
-107.555
-33.6922
-40.7713
-6.71152
50.6082
112.441
194.847
71.469
-95.7145
-104.147
-9.27617
117.752
201.988
188.138
204.727
246.175
177.779
59.2423
-24.0118
-24.8782
75.4104
127.028
-41.4123
-158.238
-98.748
-62.4602
-183.417
-216.682
-94.1555
-13.8637
-23.9712
-118.052
-171.44
-88.5254
14.5448
64.8864
-64.6751
-163.971
-127.586
-1.0646
212.821
200.53
45.9523
-21.6377
-50.4258
-68.1683
-124.859
-130.011
-77.9393
-8.01394
98.3966
215.401
234.297
207.799
89.9313
-86.9287
-102.665
-21.5388
17.9454
-50.4171
-175.956
-152.128
64.1048
177.362
181.79
167.571
157.579
138.187
109.948
34.7688
-94.4771
-107.511
54.4466
-15.1786
-205.398
-229.064
-70.1242
60.3988
-0.0638388
-89.2686
-126.816
-89.8395
-2.36324
80.6405
105.03
30.9021
-4.81796
74.6155
109.941
75.9296
26.5038
-88.3932
-221.079
-195.535
-107.085
-89.8955
-129.266
-121.658
53.5545
271.229
293.364
190.658
171.38
128.203
-49.3359
-187.369
-198.404
-194.437
-131.765
-53.1553
-17.2239
33.2944
68.2781
57.7499
13.2634
-27.2395
-30.255
-40.2738
20.5272
197.324
295.895
142.837
8.63806
-41.8472
52.4786
123.202
90.0777
14.1941
-0.113675
21.4027
21.5908
-3.62989
-57.6196
-70.1701
-64.7749
-64.7555
-40.3894
-42.967
-132.613
-353.625
-476.311
-284.226
-87.8882
-23.9305
-61.1088
71.3093
253.669
437.467
465.416
244.683
95.5887
-6.25986
-178.852
-308.737
-112.219
156.286
321.442
266.72
163.78
9.08499
-117.721
-134.155
-155.319
-169.976
-112.098
-68.3891
-122.068
-214.129
-243.238
-116.999
22.7434
130.199
221.72
276.537
140.6
-29.9249
-112.018
-50.7367
-66.299
-81.5755
17.7575
144.695
129.151
47.3302
47.8075
48.7875
68.3617
24.9916
-48.8665
-46.6556
-71.9865
-147.774
-92.0045
22.5173
181.835
419.756
297.188
32.6485
-107.989
-145.397
-192.553
-219.123
-161.015
-113.485
-97.9599
-63.0795
-73.2057
-145.335
-180.095
-65.1786
226.261
626.629
555.022
231.038
-61.5667
-326.133
-364.508
-228.376
-106.148
-94.6903
-76.8507
-60.8033
-3.81552
43.6381
29.4108
45.2049
59.4433
79.6191
68.5284
10.7887
-115.102
-246.25
-180.977
-50.8533
82.4367
191.232
284.638
312.494
281.88
251.873
159.019
48.0983
-151.912
-160.323
-74.8509
-29.1688
21.28
-34.903
-121.032
-128.744
-113.966
-201.889
-112.763
162.1
185.237
-8.78509
-140.907
-161.177
-186.798
-244.537
-186.366
116.89
534.9
406.208
97.0977
-69.486
-120.462
-59.4307
8.98828
49.2181
53.7065
4.12634
-78.5239
-161.147
-171.194
-212.479
-271.694
-263.94
-113.184
154.084
305.845
116.135
-26.6397
64.0625
119.046
111.016
83.745
88.1579
140.543
171.492
113.779
20.0579
-36.5337
-73.672
-52.6325
22.4076
138.904
193.472
136.991
-13.398
-97.166
-112.166
-242.299
-262.075
-151.302
-47.5951
11.7723
45.1374
97.8938
90.0349
9.69948
-76.4168
-113.034
-148.549
-199.37
-114.178
-4.65257
67.159
129.479
120.366
53.7253
40.0644
48.4853
55.2885
301.715
517.299
369.36
0.731224
-203.256
-324.501
-382.487
-315.2
-221.029
-94.3453
80.2825
97.3439
42.0169
-20.7104
25.2022
150.982
181.184
52.8936
-65.6265
-114.239
-244.566
-423.051
-405.581
-223.945
-46.4528
122.298
151.154
198.035
263.639
220.929
158.888
173.459
215.705
220.631
116.159
21.1132
-1.60858
-10.0368
-20.807
39.2765
45.8404
38.5269
55.2317
90.9107
57.4203
-6.28982
1.54547
-19.1508
-84.887
-142.04
-126.383
-101.028
-178.098
-182.674
-161.885
-154.491
-133.989
-72.219
-37.528
20.7203
35.5524
3.37321
-24.3669
17.5478
-1.12366
-86.3634
-63.3909
31.0769
206.459
297.566
118.134
-50.5224
-16.3916
18.6035
-41.1266
-64.2106
-59.9514
-48.5122
10.0227
180.372
370.58
231.693
64.0707
7.91938
7.92663
22.0433
57.1379
28.0018
-123.51
-215.739
-256.334
-240.961
-162.927
-89.9909
10.068
113.759
215.754
230.908
94.7537
-146.654
-340.556
-338.414
-196.414
-62.1939
7.07683
88.7266
172.386
312.277
296.49
151.286
35.6053
52.6151
91.0279
83.1898
17.1978
-94.3532
-156.847
-147.375
-123.791
-104.402
-115.079
-24.9256
64.9532
104.481
117.005
70.6624
-74.5331
-150.876
-95.2942
-19.8061
84.0291
73.9327
70.5382
70.4824
90.0339
78.9999
23.8988
-19.0168
-20.8939
-23.8614
-99.1013
-98.6409
63.0949
204.667
74.7954
-54.5328
-46.1315
-119.374
-190.072
-142.926
2.09668
65.2379
28.6116
15.8502
25.4192
37.6523
54.6716
80.6799
58.9014
-1.22402
-7.28031
-21.0802
-155.77
-326.87
-235.213
-18.7816
136.1
296.5
174.023
-7.09483
-14.9129
125.92
258.613
219.356
21.9987
-169.051
-252.132
-191.751
4.1917
51.0189
-17.0931
-52.0393
-96.5528
-75.255
-25.4976
-29.8065
-57.2084
-157.152
-73.9259
69.7595
61.5622
-4.15329
-81.5906
-46.6511
77.1597
146.773
157.074
151.505
141.994
192.194
233.27
137.912
24.0762
-29.3093
-52.277
-55.1362
-122.681
-229.129
-176.818
-2.05792
207.144
279.714
55.8764
-112.005
-146.58
-113.007
-68.1772
-52.6222
-96.4449
-111.063
-83.243
-106.578
-69.3328
39.2086
4.56066
-43.1212
-8.61388
19.9339
38.6608
90.332
1.78456
-212.679
-210.598
-154.61
-57.1968
47.1402
151.297
214.577
237.981
382.669
424.537
309.282
175.447
-6.65642
-97.2901
-123.553
-133.431
-145.898
-251.568
-317.005
-236.472
-44.0069
70.0245
131.455
206.773
293.752
185.321
-91.4353
-233.853
-341.477
-364.24
-202.004
-82.5135
-31.5004
66.8137
105.377
94.7042
123.294
189.334
120.527
-0.291998
-38.6564
-2.17714
-11.1159
-69.1232
-152.971
-222.758
-141.16
-2.35978
57.6957
110.502
162.03
126.908
88.6496
138.379
291.508
392.031
221.731
131.888
67.8793
-0.525031
-41.2564
-75.2065
-95.2125
-125.757
-125.871
-85.6614
-131.929
-219.938
-197.308
-132.886
-120.456
-54.3457
43.7748
64.4527
-53.9071
-180.117
-111.011
-41.6324
-69.7001
-73.4632
-85.1077
-76.4383
-93.6172
-43.9419
86.4572
385.464
562.114
324.35
58.1701
-37.6296
49.0498
-37.7292
-106.237
4.03611
41.7366
-28.0658
-86.5945
-90.8927
-27.1556
14.343
34.9653
98.7669
231.196
180.909
-67.98
-317.226
-345.394
-159.058
-77.049
-90.9663
-68.9951
59.5173
147.756
92.4357
44.0133
124.587
201.718
95.3499
84.8153
11.3788
-146.097
-239.173
-267.715
-180.686
-53.2032
53.0367
118.673
156.485
182.886
156.991
68.0726
36.0389
-21.7905
-98.7868
-95.6424
-29.6491
-23.7025
-20.3796
-29.439
-9.9917
33.0314
50.4302
88.4263
81.4761
40.2132
-34.7788
-62.0316
-21.9261
-17.774
-58.1515
-77.8593
-32.1619
17.7316
7.56291
-4.44952
-74.7936
-74.3914
-2.55229
7.9813
14.634
60.7164
109.326
141.815
318.598
304.881
61.1723
-177.537
-360.868
-335.583
-83.1269
106.893
-12.9986
-101.39
-121.547
-152.66
-163.174
-84.2425
-19.0687
-45.7461
-87.7678
-72.4253
69.449
314.322
491.814
406.249
221.126
120.645
123.185
80.9144
-37.8193
-185.457
-206.489
-134.909
-47.0545
-25.6354
-40.0472
-74.8465
-85.5033
-47.8587
15.7411
37.6713
-35.233
-151.769
-305.88
-290.65
-181.392
-13.7433
137.064
141.627
93.538
69.3884
50.2621
9.50689
0.433712
75.3568
133.395
154.44
280.589
352.977
283.978
88.2511
-5.23117
-115.012
-300.914
-301.741
-186.94
-153.67
-116.015
-55.6301
23.9454
63.8323
97.9975
154.798
166.271
112.708
84.1959
34.0179
-90.026
-151.332
-97.4785
-105.243
-240.927
-372.851
-358.47
-142.272
280.301
495.877
298.406
71.2031
-103.169
-65.6153
48.3813
9.85304
-69.8611
-35.8421
-7.03072
-39.6427
-62.4667
-60.3185
-3.44039
258.671
362.984
168.222
-25.5177
-112.465
-227.346
-244.891
-54.9854
182.342
308.242
129.06
-52.9718
-76.6429
-56.6327
-71.3737
-76.0632
-38.9893
4.17976
16.7303
-10.067
-53.1925
-44.5109
12.3031
1.13903
-83.9725
-152.638
-161.412
-134.775
-68.5482
92.5445
222.11
235.239
169.064
93.7469
12.228
-33.3486
-69.8764
-116.321
-83.8837
-65.5399
-88.1132
-120.925
-59.3373
131.293
328.797
434.966
266.747
34.2044
-93.2818
-228.083
-250.794
-125.459
-31.8479
-4.28695
15.0588
-72.835
-92.158
-16.5205
-28.35
-107.958
-63.4368
86.0462
324.717
288.379
9.22029
-124.485
-71.2884
42.152
50.886
-34.9161
-167.504
-270.987
-299.794
-258.924
-153.021
104.607
306.19
335.628
248.548
103.802
-3.29144
-5.94657
-61.3348
-74.4369
21.1626
-39.8934
-120.25
-62.8979
-22.1637
4.41371
77.0938
142.687
146.868
120.896
67.2231
-7.11831
-76.7852
-96.8772
-69.0067
6.59704
8.6513
-63.8552
-165.443
-227.998
-190.891
-27.6156
301.998
248.361
67.5397
-32.7903
-23.9572
21.2636
47.6609
67.5787
60.072
4.80286
-28.342
43.5521
103.579
40.679
-23.9486
-52.2442
-38.0739
-31.5554
-87.6286
-222.067
-347.802
-259.355
-140.881
-85.0631
-9.64033
105.698
262.815
464.614
337.082
143.363
86.2927
1.29799
-130.62
-124.646
-39.4814
-82.2581
-147.345
-127.32
-59.7899
-7.5693
-20.8715
13.1395
48.8033
115.689
226.813
143.87
-63.4567
-259.238
-237.8
-104.535
-46.2063
48.9284
271.716
337.252
217.74
59.8318
14.5509
-1.4589
-16.0642
-82.0592
-170.379
-120.759
-46.1236
27.6044
36.1211
40.2197
22.659
-34.6985
-38.938
-31.8936
14.9412
-170.379
-292.365
-269.798
-114.93
33.7752
94.7906
102.127
103.765
132.751
235.961
159.881
8.75434
-57.2147
-96.987
-85.8355
-66.8725
-81.6355
-46.1255
-65.3388
-148.369
-67.182
-10.6476
62.2831
87.5429
158.267
193.391
156.329
117.262
67.7865
-37.4839
-54.6575
41.3295
171.865
339.203
228.469
27.8677
-73.7631
-112.039
-96.4041
-80.718
-38.103
-58.7745
-125.954
-215.124
-180.453
-130.363
-126.078
-144.193
-139.72
-106.113
-85.9282
-107.539
-94.7195
-51.1556
46.1931
71.3983
128.583
216.789
278.739
216.131
114.604
95.5572
101.645
110.107
99.7859
110.831
72.9782
-0.0832474
-17.3004
-69.1658
-94.1553
-106.633
-213.075
-360.738
-302.445
3.63139
153.498
55.8057
-22.0748
-32.5203
-39.3935
-50.2624
-40.4111
-24.9359
13.4012
-14.4012
35.9402
122.91
194.573
231.337
313.325
288.617
124.071
1.09362
-57.5369
-153.687
-204.263
-135.948
-104.596
-81.2452
-65.0089
-67.9854
-41.458
-84.7836
-178.48
-143.152
-50.5387
-0.863323
24.7378
96.4463
146.468
216.245
310.209
278.708
48.1282
-120.732
-188.165
-167.014
-103.354
-68.5309
-30.1062
-8.60731
6.87844
39.3758
19.6287
-51.7495
-104.379
-101.913
-62.7761
25.9089
47.2865
16.5986
-56.5333
-157.486
-75.5917
173.557
376.764
213.714
-9.09544
-100.848
-99.5574
-51.0878
-20.3274
122.581
263.998
185.126
22.4547
-53.9551
-103.846
-147.014
-154.213
-110.564
-80.6582
-12.9702
132.027
149.315
15.5725
27.8104
61.0205
78.4848
28.0146
-85.3487
-103.183
-126.624
-154.656
-80.7449
26.8338
88.6229
87.56
2.3751
-86.9477
-120.433
-104.611
-63.3429
-31.5392
-67.9562
-105.033
-13.3494
121.984
184.921
222.974
153.88
72.1115
55.8289
15.0908
-1.22944
-5.27338
-56.4606
-109.319
-117.491
-70.7747
-4.54316
42.8439
89.8964
106.104
76.1897
38.7937
-10.625
-33.9556
-52.9805
-85.5582
-51.026
-40.537
-89.6318
-224.253
-283.679
-119.365
343.956
595.821
282.261
82.206
10.2701
44.9036
80.6212
-42.9582
-191.384
-206.214
-146.9
-128.284
-112.51
-82.4041
-48.8436
-130.473
-248.891
-131.439
51.39
129.088
54.5512
63.6918
333.407
360.404
165.723
28.5666
-69.3447
-137.795
-131.522
-99.3712
-75.6953
-39.7166
3.40766
47.004
104.995
190.92
273.682
248.727
117.8
1.52236
-168.341
-307.545
-301.126
-252.218
-145.105
-82.2877
-84.7349
-38.1479
6.09028
33.9844
101.486
163.592
226.818
116.116
-10.4487
-57.0684
-74.804
-61.7669
5.7542
8.99878
-23.4044
-16.8233
17.1565
122.65
295.002
138.582
-162.814
-236.086
-166.511
-72.6149
-32.2672
-46.8628
-57.3834
-21.4126
-11.8436
16.6192
125.332
362.151
536.546
284.077
-52.4412
-213.137
-223.317
-178.554
-191.909
-119.323
77.7254
102.049
-24.5663
-108.108
-65.5072
-48.8743
-68.1589
-7.56404
42.074
78.5009
15.8716
-147.21
-248.877
-118.242
37.5666
156.158
191.638
20.4515
-114.292
-60.11
17.5296
33.2957
63.0995
130.2
101.869
74.6708
66.4717
48.8097
24.6573
-31.1649
-49.7277
-68.1209
-114.124
-81.6529
-21.967
-15.4305
-6.12739
54.3429
71.2333
59.1347
42.7172
68.9652
109.071
90.3677
48.2696
26.08
-56.193
-140.415
-156.019
-55.2871
-7.99202
28.4627
-72.2008
-249.847
-274.407
-109.808
120.9
293.002
312.63
189.484
142.299
55.926
-87.6763
-166.786
-234.307
-212.107
-151.019
-53.468
44.0669
77.3563
83.3135
22.8879
20.8238
120.549
129.868
-1.75239
-144.551
-203.696
-158.322
-104.245
-92.2765
69.1569
386.612
573.564
380.493
148.143
81.441
19.5057
-120.133
-241.859
-198.855
-118.687
-103.89
-75.8304
-56.6174
-77.6562
-95.8831
-70.3683
42.7742
135.72
88.2121
-5.72785
-104.292
-222.572
-175.736
-120.758
-120.563
-73.9468
31.8004
109.157
116.513
86.805
74.696
55.9485
42.7101
15.0587
-5.68502
5.00887
-29.9949
5.97618
87.0608
132.922
114.726
72.0935
48.7417
47.3972
-34.3539
-103.887
6.34776
203.004
370.251
217.532
9.35706
-21.6597
42.2708
-20.0911
-194.921
-268.564
-259.527
-211.422
-157.648
-101.538
-112.736
-161.348
-107.109
-38.9614
30.644
65.8512
12.0449
-85.1529
-213.803
-175.137
-73.6686
32.623
126.035
198.076
227.466
202.398
157.72
105.9
122.119
175.189
89.7149
-68.6556
-52.8556
29.302
106.047
110.505
80.9742
-2.85673
-108.791
-45.8438
79.9596
102.424
37.1813
25.5294
136.955
177.179
91.1301
-13.7786
-116.253
-322.983
-415.056
-283.264
-135.193
-107.056
-161.28
-227.09
-240.456
-186.292
-58.3241
109.346
101.663
166.051
346.172
337.379
89.9258
-46.69
-53.0104
-30.3607
-0.0518638
137.231
268.284
189.667
31.0975
-60.9178
-16.0042
73.8831
123.506
112.477
13.1385
-135.138
-114.953
-148.962
-305.694
-335.15
-238.486
-181.754
-160.664
-177.475
-106.99
6.54343
95.7962
228.539
401.074
469.743
408.341
303.387
197.103
44.9408
-4.90285
-13.3117
-27.4811
-70.1953
-122.624
-117.294
-5.61306
60.8699
22.7396
-99.5881
-216.799
-253.216
-156.641
105.064
99.2558
-68.9131
-83.5829
-116.151
-125.034
-65.9587
-92.8755
-115.667
-38.447
5.57394
-34.5995
-129.268
-123.805
-70.095
6.13303
166.51
332.761
269.779
43.2311
-133.527
-118.532
165.566
380.37
291.684
154.257
76.4691
27.6738
-16.4752
-48.4803
-77.7293
-111.199
-59.9352
-56.519
-115.176
-103.826
-29.6004
-34.8088
-22.223
21.8881
-28.6943
-79.3911
-149.192
-204.816
-80.0281
32.9616
75.4088
71.8913
47.3988
21.7031
60.4522
99.2843
49.2959
-1.52364
-11.2834
37.2112
-16.7814
-44.0337
104.469
197.293
70.8337
-74.3696
-157.114
-219.587
-99.6181
-9.34115
23.0029
46.4966
64.7943
87.0043
53.4414
-19.6253
-85.6274
-96.3088
33.3713
251.319
335.865
113.616
-113.124
-192.394
-138.579
-59.005
-65.6923
-70.9706
-37.6973
61.0549
23.6486
-78.5562
-83.7469
-108.134
-95.4133
20.5045
143.132
146.391
55.8316
-86.9351
-91.4231
-5.98558
-8.7168
-23.2333
-38.5986
-50.5904
-48.3199
61.8724
201.57
242.042
214.408
93.2096
23.3638
-23.795
-88.8157
-28.9233
277.583
249.676
-15.4611
-170.787
-206.368
-188.911
-171.934
-163.321
-94.3242
-23.8603
17.198
0.0531792
-80.8264
-217.842
-214.297
-82.7114
1.17904
99.8367
207.388
212.328
1.11514
-62.9496
-2.22719
44.9405
143.585
208.022
116.67
35.7678
56.3343
55.2422
-48.1238
-162.191
-179.454
-13.8717
208.367
145.665
20.7847
2.43174
-58.2992
-133.307
-190.069
-162.658
-90.9852
-62.8653
-60.7211
-13.2386
72.4096
111.615
119.994
157.09
175.466
154.269
71.5954
-43.4609
-113.884
-35.1533
33.545
18.9534
-9.69932
-47.636
-36.9148
-1.69196
45.8222
33.4853
-40.4162
-49.3027
47.0603
33.7996
-129.598
-185.852
-135.593
-97.2905
-90.533
-91.2547
-58.4086
24.8225
5.03772
-122.584
-127.287
-55.7109
36.9676
175.579
248.528
289.425
286.285
197.878
145.531
323.053
206.805
-41.1455
-154.086
-186.485
-197.326
-209.101
-205.505
-134.956
-80.4471
-29.674
1.75269
-48.6028
-180.761
-273.323
-291.143
-208.716
55.857
273.342
161.747
7.11829
98.4743
204.642
203.294
208.204
195.818
152.342
34.9137
-24.3802
58.3356
156.18
196.715
186.311
148.708
86.9319
-17.9109
-214.01
-461.523
-473.063
-345.3
-326.838
-269.355
-187.014
-40.7454
62.1915
139.636
151.38
127.708
136.846
137.122
119.231
78.2078
59.8193
85.8541
133.46
140.715
125.114
51.6566
-68.5491
-57.7133
-29.4465
55.1574
59.4169
-39.7914
-93.0084
16.3739
74.076
-23.0418
-89.8714
-112.245
-84.1388
-84.0694
-119.223
-164.045
-166.179
-145.58
-97.4523
-39.4244
23.068
97.0561
194.835
322.192
358.329
184.89
-100.773
-329.765
-386.366
-242.997
47.0716
309.46
228.527
85.6623
62.5827
83.4733
50.7872
23.1581
23.9875
27.8483
-10.1744
-68.8763
-120.904
-199.395
-193.435
-28.7838
155.55
229.971
191.989
64.4163
-88.4764
-190.853
-103.968
-57.3551
-97.9535
-41.3864
52.244
85.9559
-16.8082
-19.2786
174.317
376.999
202.437
-42.7906
-111.448
-79.6904
-66.0101
-126.176
-125.621
-53.6266
-73.7669
-170.548
-164.724
-86.2287
-40.1249
-19.5488
30.5107
86.4662
122.782
114.383
13.9733
-90.6905
-68.2377
-32.8079
-32.0834
63.527
102.564
62.5069
96.0437
165.181
157.675
85.2343
34.5432
20.6754
44.0619
30.5959
-32.3627
-72.0623
-54.2635
-80.702
-135.256
-200.813
-93.3028
64.6518
82.4999
35.4978
66.3346
33.8539
-74.9467
-101.414
-82.795
-55.0043
-30.4742
-26.4148
-27.6942
66.6977
201.271
366.346
300.712
90.2665
-51.7796
-123.792
-133.411
-145.842
-135.597
-144.263
-157.368
-100.334
-27.9037
7.27178
4.87921
7.92053
7.93779
21.5241
33.4542
-20.2583
-62.5439
-133.012
-90.7763
13.4332
75.8148
100.391
111.581
83.9162
6.34922
-23.5144
13.2699
71.7401
116.003
106.332
102.944
118.554
135.733
101.753
55.1285
-32.047
-113.884
-184.767
-190.407
-96.2148
-70.5982
-73.7726
-39.0017
15.9154
22.7441
-81.3348
-69.1165
26.9534
147.349
315.944
227.47
37.4955
-92.7312
-91.2428
16.241
-16.9361
-170.324
-247.559
-217.478
-151.115
-134.382
-127.512
-5.4566
177.838
385.1
339.283
151.267
-48.1979
-183.625
-229.696
-178.004
-63.7364
23.6571
41.1536
10.1016
14.1367
50.3671
108.795
205.304
188.054
136.197
121.258
0.0549617
-107.777
-121.733
-41.3477
-22.241
-17.3823
-44.359
-151.776
-167.666
-147.146
-130.101
-120.059
-98.5149
2.32136
140.156
265.369
383.754
398.072
302.885
160.013
3.22517
-154.332
-291.934
-285.666
-230.156
-204.879
-145.842
-61.0994
22.1472
71.3568
108.221
140.27
143.112
95.728
17.8243
-97.7866
-224.779
-251.568
-182.496
-106.933
-27.3686
18.6121
63.2512
129.352
168.131
170.48
112.956
153.035
19.3189
-88.7823
-62.1023
5.80312
148.214
358.473
200.047
-11.332
-75.9723
-63.1192
-45.0928
-62.3317
-193.193
-255.455
-217.211
-145.372
-14.4736
132.998
237.093
137.323
-33.4635
-49.5909
-21.8251
-64.4305
-150.704
-247.887
-147.348
11.3508
16.9531
-54.2194
-48.7734
14.6658
123.592
178.563
174.211
150.651
124.477
66.2354
-24.9103
-126.293
-106.26
-16.3544
41.9573
78.5394
94.4771
34.5085
18.0671
47.7499
56.807
72.9871
67.6199
62.9601
73.7613
34.4685
-51.8501
-111.741
-134.994
-153.602
-227.265
-270.743
-171.585
52.9078
287.621
325.978
102.029
-62.9762
-74.286
-43.2963
-31.5701
-21.0064
-12.6071
-37.9629
-58.6169
-51.5156
-34.9215
-15.1732
-27.8356
-22.5982
-25.0602
1.30211
3.70236
-30.2722
-91.5874
-83.8235
20.1685
101.786
126.865
99.6567
49.3208
19.137
-18.622
-36.7466
-18.2075
-12.8794
-8.2772
78.173
159.243
174.841
144.377
91.1891
43.2144
-52.7429
-152.384
-177.794
-122.327
-47.4466
87.3557
70.7683
-7.85511
-45.302
-78.7876
-65.307
59.056
221.071
132.385
-51.9368
-117.491
-135.773
-152.265
-114.725
-6.72553
105.543
108.266
96.5642
133.072
105.911
-35.6113
-149.573
-271.179
-239.491
-63.303
140.638
138.595
-65.9226
-172.914
-102.158
-21.7403
18.8674
45.2474
78.3735
92.3147
88.8209
95.4363
54.6818
-52.8967
-128.23
-109.196
-1.32198
182.765
247.934
170.741
39.7831
-34.2202
-23.841
80.4648
66.0586
14.4124
47.7874
66.4327
45.4787
-24.0894
-95.6745
-141.599
-100.574
-107.311
-88.4108
70.9772
122.938
45.0499
-56.17
-134.43
-198.841
-219.004
-153.536
-20.7319
63.2007
54.3353
12.6097
13.7965
28.8994
28.6277
14.0366
-9.06585
-67.0792
-33.6974
23.0597
-7.66413
-19.2335
-4.59509
91.3907
150.136
143.475
140.01
187.587
306.146
320.54
131.905
-115.447
-195.706
-249.947
-208.36
-127.872
-25.7545
41.0861
-27.1781
-85.5027
-142.708
-151.165
-43.7592
62.605
103.176
69.6649
-17.2911
-87.6375
-166.985
-189.483
-71.3705
85.606
141.433
141.006
26.3369
-68.1974
-56.0865
47.3232
99.518
107.148
114.883
127.027
101.923
11.8977
-5.70503
55.2875
98.8117
59.9876
-45.0231
-107.393
-93.5633
-92.9866
-81.0951
-17.0091
-16.0372
17.9732
54.4465
16.253
51.2733
42.4714
-31.3819
-37.7154
-21.4237
-31.0848
-94.8413
-162.965
-145.956
-90.0494
-70.4843
-47.8285
65.8396
192.598
64.0558
-110.793
-103.577
-17.8073
42.582
30.7449
15.6394
28.8069
-39.5805
-123.875
-58.6796
26.0401
107.126
184.201
228.813
272.547
257.64
102.812
-153.584
-274.294
-165.214
19.3792
149.298
154.929
93.9742
41.3133
-16.1862
-85.6922
-75.9802
4.13439
-9.72906
-95.253
-104.198
-73.1748
-12.168
-48.5102
-76.8711
-14.3191
37.1388
26.1979
21.4735
-17.4002
-69.111
-96.1742
-91.248
-10.6651
10.9212
-8.10114
63.9269
123.038
150.894
132.883
39.4118
-61.3041
-189.47
-230.013
-216.699
-162.337
-57.1682
17.2573
44.7477
68.6867
79.6156
49.0985
6.7569
-16.8081
79.3714
250.462
311.858
216.33
46.6596
-80.5524
-126.068
-85.675
13.2094
169.846
69.499
-65.7663
2.48928
17.242
-44.9153
-98.6981
-62.9151
15.0678
18.001
-4.22485
-44.3647
-95.2995
-123.404
-135.192
-122.801
-45.8376
77.9259
268.56
409.484
193.177
35.6694
21.2477
-54.3031
-44.1985
-3.92762
-41.2114
-47.0943
-99.476
-214.964
-335.916
-316.382
-253.308
-193.925
-115.092
-78.2301
60.9953
213.987
82.1592
-110.234
-99.9403
68.9535
179.418
177.861
130.305
71.6913
58.2317
55.1939
138.327
285.741
302.012
183.384
102.377
52.8685
44.6148
119.843
69.7579
-49.4822
-47.4723
-84.2335
-178.643
-233.51
-247.282
-197.626
-97.6463
18.7927
29.2677
-34.1818
-96.8595
-103.639
16.268
101.075
94.3664
130.852
144.512
51.8564
-67.9489
-120.335
-117.959
-120.814
-109.659
-61.9812
-3.79909
-13.1056
15.9572
102.227
96.3977
94.223
109.4
71.4272
-20.5622
-27.5345
-52.3869
-131.244
-177.125
-117.438
10.7025
54.844
18.0195
31.7062
87.8898
58.9179
9.84822
-15.1658
-27.218
24.3402
159.778
176.399
80.4019
-28.913
-73.9357
-46.6825
22.3641
68.0797
45.7445
1.04784
-32.1966
-14.8009
-57.8428
-143.742
-72.9115
27.3493
100.626
154.502
18.5043
-105.004
-76.9994
-84.8243
-92.5049
-56.4029
-30.46
-19.9284
-1.27934
-4.38143
32.2575
62.6991
25.4807
-53.7139
-46.7572
46.9903
81.331
88.0585
54.9044
25.4208
44.8957
11.2629
7.89284
14.9417
5.41366
4.07147
-8.20218
-19.6787
-20.8713
-67.2919
-53.9063
-10.1377
5.43984
23.2236
48.4661
23.5827
-2.35083
-4.55583
-36.5658
-120.421
-127.238
-75.5324
-66.5613
-4.29782
35.8693
9.72919
-14.7058
-0.221135
32.1282
84.8702
165.268
71.6903
-55.5935
-103.71
-51.076
-40.2406
-76.1868
-34.0844
-0.105385
69.0005
203.283
233.839
211.1
180.229
223.322
324.545
329.111
194.53
-43.0596
-217.378
-375.317
-425.301
-370.532
-299.979
-276.684
-192.744
-70.4702
-81.4441
-103.606
-114.293
-153.636
-156.343
-96.6362
-79.1969
-68.2641
17.486
128.051
267.627
483.241
521.154
441.003
432.313
365.181
206.895
38.8446
-110.649
-223.52
-164.247
-121.582
-148.595
-196.745
-200.065
-189.152
-164.038
-147.772
-186.98
-245.092
-242.085
-216.549
-114.872
-8.08456
79.879
153.155
276.791
355.949
384.16
328.9
112.867
2.41988
75.166
75.9296
64.551
57.1926
32.5414
-5.2001
-92.0973
-76.1512
-41.5049
-109.259
-192.182
-188.867
-165.307
-125.19
-139.159
-129.022
-58.9358
142.038
356.921
350.847
275.905
181.831
26.8666
-57.5226
-105.941
-147.362
-190.507
-283.042
-328.634
-267.206
-176.032
-29.0754
119.421
173.283
184.147
129.372
31.8761
-75.7399
-153.097
-152.5
-126.203
-1.40845
132.562
168.038
179.58
170.827
149.535
135.609
84.7365
71.282
152.205
95.133
2.57879
-15.9035
-77.988
-112.662
-81.4138
-67.4435
-53.3118
9.2097
8.30644
-30.958
-72.8158
-73.3411
-27.9086
-27.271
-63.7034
-63.2884
-72.1413
-104.748
-149.327
-216.399
-200.713
-116.596
26.3863
163.965
287.62
330.237
253.397
192.966
117.121
6.17496
-19.3428
-14.9805
-36.7861
-63.9198
6.19061
118.394
140.135
98.8113
68.3263
50.8566
-24.6886
-107.515
-182.224
-289.793
-368.717
-395.338
-265.392
-82.6443
5.67791
61.9292
103.908
50.9876
39.5178
67.958
112.092
129.921
208.359
237.479
150.953
90.4376
52.7094
-51.2412
-129.56
-81.2517
-7.39806
27.4033
-23.3645
-73.0273
-19.4676
30.2336
96.0099
110.385
53.5592
50.2814
1.48948
-52.6834
-94.5184
-107.728
-90.4696
-58.2211
36.2855
104.743
91.0552
27.6144
3.26826
0.607429
46.655
106.945
90.9916
-5.12327
-71.2721
-41.2128
-7.73999
-10.2629
-4.98512
-89.7578
-212.302
-278.019
-243.995
-166.446
-72.9994
79.9084
185.711
213.882
109.539
-33.0865
-110.152
-178.408
-189.863
-118.414
-22.5978
52.2667
81.6417
73.0396
74.7119
145.817
233.37
265.141
222.293
130.683
-18.9319
-106.263
-102.601
-64.767
27.351
78.5029
42.9377
33.8539
142.09
211.636
148.572
76.2514
121.117
120.361
-119.697
-290.621
-323.801
-305.903
-333.723
-250.509
-68.8086
61.575
65.1685
104.537
158.783
189.684
146.811
43.1467
-2.76305
27.5584
-68.3893
-183.224
-281.59
-329.441
-196.59
-84.5601
-33.9652
23.0967
67.3339
18.6346
-0.312571
23.533
121.235
216.56
155.24
54.6372
72.8346
95.9949
32.2833
-37.1623
41.3254
120.916
137.364
93.3143
116.228
224.411
245.749
164.686
79.8834
48.8659
-40.1753
-185.477
-263.56
-333.636
-381.032
-294.013
-151.673
-45.4651
19.9036
94.7866
86.6274
40.2922
12.9003
94.5122
182.418
93.6335
-87.5728
-112.536
-23.675
3.32527
8.63216
8.08182
23.196
11.6907
63.8696
80.3183
19.7995
-7.60055
-23.5052
-29.8494
-6.43488
-83.0411
-134.244
-126.635
-106.151
-63.4804
-3.09955
13.311
46.9048
64.3976
54.2801
43.338
51.1503
99.2567
126.376
60.1258
97.8041
135.314
71.1676
-31.2536
-144.453
-154.64
-110.761
-140.494
-220.196
-190.659
-33.7337
82.0129
161.902
268.149
264.077
192.873
101.861
-20.424
-79.1236
-3.21993
-21.4113
-78.2679
-96.4091
-45.3595
-54.8432
-60.3905
-14.361
55.0226
117.93
110.286
-3.63398
-65.3493
-75.7881
-139.877
-176.593
-75.4151
28.623
42.9913
52.0052
54.1036
63.3258
72.134
41.155
-8.19633
-8.70287
14.3727
4.17264
-16.212
-6.93286
24.7559
64.1717
32.1608
-80.0259
-91.8657
-49.3476
-86.387
-134.14
-74.6494
14.051
39.9281
85.8313
128.531
136.852
50.4697
-9.8907
-0.947038
-53.3924
-87.5084
-68.2073
-73.5484
-46.9501
-12.5172
29.2656
65.0272
84.3001
81.7798
74.8726
65.6591
-71.5783
-155.876
-250.511
-181.459
-22.404
28.6836
157.344
185.691
104.168
38.006
-17.2157
19.3442
74.6012
103.942
167.952
231.519
209.448
80.695
-83.5017
-123.629
-89.5238
-85.4034
-24.5212
-42.5098
-128.198
-168.738
-257.09
-288.867
-178.169
-88.1326
-18.1588
5.98311
28.6266
152.628
256.181
176.136
72.2977
46.7999
-2.81363
-45.7264
-56.5903
-28.6104
-4.8114
-56.9898
-106.081
-28.2114
50.5096
104.996
138.369
130.855
94.7171
72.7956
43.0528
-36.2237
-102.523
-134.06
-101.903
-63.6514
46.9536
110.229
127.278
81.1643
-9.76338
-38.3436
-27.5347
-19.6778
-37.9282
-55.8944
-43.6146
-8.4343
-2.66361
-21.7635
-33.2247
-50.8648
-122.477
-170.545
-147.736
-56.5068
37.7388
37.4877
31.5155
102.98
171.144
136.965
97.0496
120.405
146.685
145.019
111.236
136.164
144.87
15.7111
-76.1191
-105.378
-130.767
-121.175
-135.64
-138.309
-185.921
-200.298
-175.331
-178.071
-161.491
-53.1034
32.0458
99.7739
97.3735
56.2066
32.5568
27.0531
56.9457
38.1918
-13.386
1.74247
94.8853
230.284
292.936
235.535
117.751
4.38545
-89.3877
-202.073
-250.21
-228.329
-107.085
-35.7019
9.06933
146.033
288.953
249.828
137.175
108.655
122.85
74.2013
-52.654
-156.7
-126.373
-31.5812
-5.29003
-81.2764
-85.5857
-24.397
-14.165
-79.4718
-183.172
-308.585
-406.136
-466.408
-447.993
-301.244
-96.0308
166.494
398.2
519.957
581.108
540.02
362.42
182.21
101.395
65.4261
-65.8123
-184.288
-121.597
64.922
219.994
389.375
409.27
155.246
-45.4138
-196.158
-294.663
-289.569
-380.798
-557.283
-709.033
-627.316
-425.699
-257.229
-107.743
139.219
418.37
505.554
447.205
295.121
166.654
87.9263
55.7759
109.407
127.812
104.253
127.593
105.233
65.8401
46.1523
29.5012
-47.5233
-154.947
-173.676
-70.6336
59.9721
68.5661
4.38332
-23.6924
-69.2687
-155.097
-258.723
-239.071
-112.883
-9.9616
54.1457
43.2961
26.3893
60.4074
88.3606
127.91
78.7254
-23.7134
-55.3006
-72.2725
-139.735
-114.426
46.4834
149.451
157.367
132.2
117.419
133.995
164.295
204.33
198.145
97.4752
-157.351
-335.516
-301.345
-205.769
-109.734
-43.1003
-34.971
-40.6536
-67.7882
-39.8739
12.8114
41.1972
13.9263
33.8186
132.69
196.92
197.327
62.9407
-44.8112
-16.8528
31.883
-66.5904
-191.987
-251.625
-153.103
79.2788
175.815
115.7
47.2156
-51.4548
-123.57
-134.035
-18.37
10.2063
-64.1614
-97.162
-176.979
-104.837
26.0217
15.7723
10.5339
171.757
305.306
418.732
513.103
387.739
148.14
1.66012
-106.953
-206.209
-262.582
-276.293
-276.865
-245.45
-152.052
-28.6083
92.6013
128.034
156.909
98.2456
-14.3014
-122.188
-148.288
-133.47
-171.214
-142.12
-40.4443
24.5544
12.9751
40.2996
99.9202
118.773
107.716
137.912
107.737
20.4623
-8.09961
-67.5456
-170.982
-196.946
-125.48
-84.5988
-32.1785
75.8415
103.636
57.0063
133.365
174.944
178.857
248.235
309.781
178.254
24.2131
-112.079
-217.696
-318.49
-310.24
-251.953
-196.997
-90.4191
88.0658
255.369
351.346
271.809
127.921
62.4548
-70.6898
-174.091
-124.32
-68.7661
-65.5117
-87.8673
-68.0679
-16.834
34.2763
110.347
185.024
306.227
207.202
-34.271
-183.29
-192.538
-109.405
-33.9202
-55.6024
-127.296
-184.411
-202.26
-197.639
-196.112
-144.204
-26.9561
43.0578
52.0998
41.3328
63.975
92.7493
-2.93471
16.8878
118.422
149.092
166.544
114.297
-5.37917
-149.832
-174.446
-23.7309
178.432
376.424
519.457
352.205
228.946
205.641
99.43
72.8231
69.9522
-147.021
-289.415
-237.084
-72.0495
26.7746
-40.8037
-167.983
-296.736
-392.86
-357.972
-290.807
-284.768
-295.997
-387.723
-332.372
-163.424
33.7608
222.702
176.54
130.762
263.627
303.484
308.293
298.261
162.853
96.0826
108.152
192.507
320.625
316.939
256.363
208.176
111.858
62.1947
58.4345
-45.674
-182.001
-272.62
-304.426
-288.344
-242.81
-242.563
-236.412
-149.759
28.7094
140.983
192.828
163.664
23.8662
-65.1905
-169.097
-202.364
-170.936
-140.945
-52.8377
11.1943
-81.6599
-81.8449
112.183
249.743
366.227
587.379
426.788
73.0469
-139.926
-239.398
-320
-325.98
-182.305
-66.5987
-3.16828
16.6752
-30.4873
-104.994
-76.8702
-71.8999
3.91301
97.0792
53.4348
-68.8509
-89.5946
-109.668
-36.9196
75.0335
94.8973
51.0833
3.60006
74.5973
187.935
217.433
231.744
200.579
172.869
181.057
178.987
142.992
13.9588
-83.9107
-117.266
-110.947
-146.841
-197.27
-139.576
-51.9453
17.533
8.88241
-27.9376
10.9566
52.5043
-2.23437
-122.815
-178.509
-90.7771
-87.1653
-243.586
-211.441
4.82883
82.8941
109.245
73.5022
-147.794
-302.517
-221.574
-95.9005
-8.20615
108.963
137.755
22.1926
-33.9788
50.1666
207.926
366.006
341.147
168.218
138.933
160.239
223.801
153.464
21.2413
-22.895
-1.87724
23.0809
-79.8172
-195.141
-193.667
-116.655
-46.6947
1.95062
15.8559
6.11867
-12.5934
-67.3291
-150.488
-139.418
-175.499
-333.939
-356.926
-121.028
-3.71885
4.12937
68.9129
101.427
97.8973
76.043
45.7037
64.7799
170.936
247.327
274.431
195.497
26.5025
-122.683
-178.125
-78.9035
45.0382
102.174
18.1848
-15.0548
83.1538
172.119
301.553
284.537
93.2077
-54.9066
-101.438
-145.771
-204.013
-158.969
-101.832
-117.316
-157.457
-133.68
-110.317
-160.46
-151.35
-22.0113
57.9704
18.9956
-59.8939
-88.6019
-103.882
-103.926
-37.8319
30.5852
106.299
191.511
166.372
13.7151
-69.4848
10.7213
132.052
186.613
172.384
151.96
53.2409
-37.133
-49.0557
-38.6447
55.6132
234.273
183.993
99.4043
91.62
-27.3072
-151.738
-151.201
-101.75
-12.5887
86.5257
67.4242
22.9346
-16.664
-24.6928
-51.425
-200.7
-315.516
-256.558
-56.6826
77.9529
62.1253
20.1169
-62.0734
-85.265
-15.5077
-22.674
-89.2143
-70.1639
-61.4073
-146.527
-45.5993
131.183
136.111
61.5294
28.3813
82.1532
171.244
121.183
0.43504
-75.5194
-199.268
-244.72
-156.063
-5.62486
152.535
292.036
407.474
369.973
213.685
130.718
40.8615
-47.8052
-68.0811
-49.5734
-26.8319
48.493
108.32
117.549
68.1053
-41.3252
-127.795
-153.13
-152.649
-159.588
-150.58
-111.887
-137.66
-151.556
-106.569
-89.6639
-117.845
-176.408
-175.532
-119.465
-20.6039
81.5915
150.02
128.073
-9.53979
-68.0231
-47.0613
63.8796
167.278
206.769
221.085
198.202
105.615
36.9295
-11.8277
-42.5541
-89.2173
-110.986
-46.9433
63.2745
204.936
224.652
72.6539
-37.1369
4.04399
48.1427
41.7188
42.1744
21.1493
-121.95
-250.121
-281.754
-181.303
8.69585
149.924
333.337
389.135
234.565
63.9638
-132.971
-298.616
-373.103
-368.896
-335
-265.993
-233.475
-229.833
-188.455
-87.1553
64.73
245.959
314.145
203.844
97.3831
83.2265
8.03661
-35.6687
54.4957
170.984
241.964
249.55
247.663
279.992
319.143
249.642
151.206
103.051
30.1487
-72.1101
-139.657
-239.166
-321.518
-306.958
-292.103
-280.847
-219.171
-69.7726
76.954
114.124
59.6147
-80.6773
-66.1236
-8.37602
12.6026
21.6379
-39.9382
-32.3811
-32.7269
0.474832
96.5056
74.2344
-10.3519
-34.5663
-29.6967
-6.19783
59.4294
31.1058
-142.921
-195.084
-80.952
77.2905
137.11
159.474
129.153
78.6923
68.0989
76.075
29.2198
-35.8985
-37.763
23.3105
106.706
171.813
147.263
94.9646
-60.8856
-157.298
-131.96
-116.895
-98.2133
-24.5598
-1.25358
-17.0525
-42.2661
-44.8832
27.6504
34.4247
22.0086
-1.76895
-55.2611
-72.4583
-41.737
-69.5838
-88.2623
-85.6925
-82.8832
-63.6047
15.25
91.4802
165.629
177.135
220.834
341.818
200.117
57.0869
65.0093
74.8287
55.5927
56.3595
53.7807
-17.2803
-85.9474
-138.89
-169.386
-243.409
-336.106
-324.375
-143.413
64.0279
-7.65824
-133.968
-190.26
-235.331
-98.8268
14.9559
16.285
35.3553
47.4106
-2.02806
-57.5941
5.75514
136.741
161.206
110.063
171.413
204.905
173.98
119.734
44.4319
118.741
195.595
166.407
95.485
23.8807
7.23278
17.9928
-28.4929
-86.6577
-65.3718
-3.81968
25.6113
-29.1921
-53.5237
-51.0832
-169.633
-225.473
-71.1855
8.84224
-45.7698
-30.389
68.3371
150.366
0.120116
-89.7501
-90.6995
-104.366
-97.0671
-88.5021
-85.3422
-23.9277
59.7026
30.1304
5.35353
62.9964
107.846
135.665
131.361
62.4067
10.4887
-18.8421
-72.0439
-69.5485
17.6868
-50.8408
-97.5618
-86.0064
-73.9674
-28.1906
30.1811
0.948745
-18.4884
-25.755
-68.9168
-132.417
-88.969
-21.6584
20.3476
262.605
430.05
306.865
127.658
-3.62763
-84.2859
-58.7696
-56.9533
-57.7023
20.9679
58.2288
27.3499
-2.50115
-47.9437
-33.8169
-30.6525
-26.7873
33.6143
80.8141
16.5845
-186.688
-349.162
-300.008
-193.736
-153.851
13.1531
313.277
338.078
97.1565
-2.50132
121.496
196.211
149.262
38.392
-60.4186
-133.27
-179.255
-168.008
-39.7014
7.78858
-50.4978
-14.2613
42.0132
53.9485
8.315
-11.555
-49.5715
-15.9871
67.4346
8.55362
-75.2142
-73.2274
10.9389
93.9449
99.2833
126.098
107.366
37.3527
-88.0535
-197.671
-185.392
-118.869
-37.2392
51.4544
81.9424
82.7354
112.996
162.601
265.509
198.446
47.5556
-9.92931
-41.8499
-57.2001
-40.8503
-41.9756
-26.0861
-97.0716
-162.108
-128.989
7.46084
100.246
64.9248
-1.90527
5.74713
-19.3437
-119.338
-252.212
-298.576
-169.219
-59.978
75.4929
173.899
134.222
65.5103
-48.6707
-135.469
-131.854
-43.1696
104.635
179.978
152.223
148.821
135.507
143.155
127.187
75.7888
138.717
128.748
-9.66633
-73.3467
-170.328
-256.952
-203.629
-103.822
-23.4248
37.564
85.5915
89.4458
106.137
62.4525
-73.9602
-101.405
-66.0676
-47.8024
-40.8619
-1.56358
0.52922
-34.4753
-59.7839
-96.0249
-112.639
-126.222
-120.076
52.7697
336.183
497.302
470.548
255.138
19.0999
-138.085
-148.208
-175.783
-178.776
-171.439
-221.8
-290.158
-231.542
-111.228
103.315
317.485
276.36
156.277
109.047
-26.4392
-146.755
-197.672
-222.045
-199.173
-145.249
-61.9276
16.2158
27.5422
24.9353
49.4021
98.5663
119.885
89.7134
93.6884
113.941
76.1197
101.939
172.635
208.552
182.115
112.472
47.3979
58.0278
114.95
48.2353
-82.0791
-140.362
-101.584
-70.5672
-105.386
-150.433
-139.044
-140.595
-198.711
-211.784
-198.024
-159.812
-122.504
-48.4528
46.1813
95.5451
170.848
216.798
166.968
95.3112
47.2372
-23.2393
-68.0397
-92.297
-13.1851
113.618
162.093
155.662
70.9327
-16.3932
-83.6258
-110.654
-89.6373
-103.377
-116.487
-95.4817
-48.0809
-24.6816
7.80948
68.9587
150.683
187.63
67.7601
2.33402
-56.9997
-136.602
-163.083
-187.75
-92.7934
74.4224
154.849
221.204
198.933
125.69
86.5756
71.0369
31.4539
29.3189
36.2633
15.6016
-30.7114
-51.2322
-35.2071
-16.2664
2.45
2.38993
53.9769
67.3591
-30.5014
-156.346
-197.225
-193.07
-125.103
-46.5327
-23.409
-71.8497
-96.4213
-78.9113
-16.4801
53.5342
50.5583
16.9892
68.1127
117.373
66.8405
3.27019
-38.7317
-19.1945
74.6405
125.002
120.243
98.5094
58.638
13.5188
-14.5399
-31.1335
-96.0524
-207.92
-218.222
-167.335
-65.9194
105.151
218.149
220.92
190.855
151.488
93.1749
18.4347
-122.476
-204.709
-112.225
-21.0746
46.3936
130.097
6.79978
-118.541
-77.3025
-16.1576
8.76395
84.5861
67.1507
-51.0652
-129.806
-124.028
-108.633
-51.7358
-6.96125
27.1425
129.452
158.776
64.6135
24.2517
6.53358
-84.8347
-65.3563
34.5653
-58.4511
-133.938
-134.632
-116.831
40.6692
164.449
78.9553
28.0416
116.733
162.962
86.1151
-21.1956
-74.1332
-69.8134
-65.4352
-59.9081
11.8708
58.7216
217.759
319.607
233.754
142.791
59.0494
-18.9168
-85.3088
-147.873
-184.517
-247.07
-295.942
-234.101
-133.256
-42.6904
24.347
14.316
9.15774
-60.8623
-132.998
-26.7989
7.51763
-24.2161
98.4986
215.421
213.496
95.0903
-38.5489
-60.8674
14.1219
25.0693
-14.7786
-58.7762
-73.5916
-30.5698
25.8064
106.231
142.164
145.108
95.3314
-7.64222
-91.3984
-103.351
-80.6332
-92.7235
-52.1429
36.1419
71.245
104.118
250.082
256.742
136.89
71.1132
-8.57233
-87.1797
-134.564
-148.524
-190.722
-226.529
-174.136
-100.859
-45.9999
-39.8386
-49.673
-2.01256
51.7629
24.4005
-12.7883
-57.9035
-96.535
-4.08774
88.5282
2.82576
8.15771
98.491
178.779
175.864
190.67
219.66
205.35
176.657
78.7797
-82.939
-129.054
-113.495
-141.426
-169.638
-201.667
-222.11
-215.442
-115.85
13.5007
49.3311
83.3054
101.188
89.4336
52.3793
-5.21601
-37.622
-105.467
-198.923
-135.164
53.4954
181.884
227.37
259.629
250.404
158.959
61.9271
36.6782
12.8134
-45.0313
-39.4615
-63.9208
-125.446
-157.273
-134.46
-74.1683
-46.9363
-52.9217
-85.9521
-168.433
-197.144
-172.523
-161.968
-82.1267
115.067
295.882
311.19
129.887
20.0908
52.9595
22.5319
-38.4099
-25.6394
0.613998
-0.805985
4.8561
41.0539
136.646
209.943
185.245
149.009
35.6853
-63.6896
-111.444
-149.811
-79.8406
50.8603
34.3292
-38.0995
-109.641
-103.581
-71.69
-44.5708
-35.9496
-2.42949
-19.7714
-74.6406
-45.961
-50.384
-123.4
-158.775
-72.2986
24.604
66.94
49.6432
1.81238
40.6064
123.951
116.657
86.2517
110.349
125.104
113.708
107.444
73.7476
-51.9748
-165.515
-198.109
-135.684
36.9068
141.038
161.61
136.054
30.3218
-81.7764
-181.598
-239.486
-161.888
-81.6852
-60.3288
-40.454
-28.775
0.0702325
59.2074
73.3637
93.8714
169.783
159.816
114.888
83.6336
61.0289
38.4128
31.3778
-20.83
-90.0903
-87.4714
-74.9972
-22.0246
47.2475
40.0325
-32.0008
-40.519
-62.3344
-114.071
-95.0815
-73.5033
-32.9694
-10.5904
5.00669
-2.77179
-58.099
-105.839
-76.6882
29.626
138.174
72.3596
14.2219
33.5015
27.1115
85.5687
142.102
92.2919
81.787
25.5663
-34.9903
-14.458
2.45121
23.8931
25.4464
11.6681
-2.73131
1.9784
-60.2373
-124.376
-113.831
-68.8604
-27.7401
-11.1107
-14.9548
-18.9332
-34.7433
2.5306
35.3385
47.409
66.6407
55.4769
21.9103
6.38951
-50.8602
-42.0769
19.4515
45.1475
73.5585
71.1561
37.9525
71.6082
34.2977
-80.1655
-137.051
-116.713
-20.8731
54.0287
-14.2373
-22.4154
16.6333
77.9678
41.8647
-45.7892
-63.1491
-41.9218
-43.3415
-31.6248
-7.51892
-28.7877
-77.7694
-40.1491
18.1351
43.2526
48.5854
73.6056
82.7183
51.4885
26.8088
37.2044
47.9209
22.6313
-1.62773
-39.243
-63.5399
-60.6456
-53.23
-33.0352
-4.48959
40.9456
58.5435
33.1834
14.0103
18.7983
-6.65325
-38.367
-34.4184
-55.6648
-80.4327
-66.8981
-8.48597
91.7929
131.334
99.1624
124.085
70.088
23.3674
-26.5357
-78.6363
-106.393
-58.3249
-25.2714
-34.3541
-36.3949
-40.677
-52.3598
-6.56095
60.8334
37.5101
-0.941854
-4.56986
-25.5283
-54.8214
-29.3668
-19.351
-2.0391
-8.582
-23.8673
-6.13448
35.9137
46.4495
33.4518
-36.9792
-17.5459
86.8482
110.004
88.1758
104.772
149.84
112.5
2.72763
-89.0471
-80.1643
-56.6617
-77.7149
-93.9994
-100.542
-22.7417
43.5739
-5.9953
-82.2303
-94.0186
1.46875
101.961
84.3602
-35.1019
-104.366
-151.259
-127.54
-68.5167
-59.9101
-11.9916
114.973
205.084
236.558
150.911
20.0528
-40.6197
-89.6199
-69.1122
-4.70357
44.0976
34.9974
12.9288
-18.9485
-16.8516
-14.9988
-28.8152
7.61669
30.2496
19.9759
5.40132
-25.0521
-49.2698
-56.7865
20.4029
153.832
174.595
103.617
51.7172
1.2515
-61.6796
-85.4509
-117.1
-127.56
-106.829
-57.6753
-85.27
-101.886
-61.8634
31.9444
153.88
127.374
11.7318
-43.3682
-67.3324
-90.4587
-90.2983
-6.00762
88.3916
115.266
146.08
129.911
49.7694
5.08103
12.7919
-31.8206
-20.1684
16.0101
3.95742
-57.5397
-137.066
-126.184
-30.27
39.778
64.2475
18.0035
-13.7367
-36.1029
-80.6453
-62.9312
17.7819
48.0066
80.7974
80.0192
52.2695
38.1101
40.1002
27.8678
16.4438
13.4096
-33.0066
-64.3749
-53.0809
-65.9208
-45.3245
19.4759
45.0125
13.8959
11.4065
19.0712
36.1118
13.1179
-40.101
-30.6113
4.75622
14.2627
41.7235
24.3546
-9.75902
0.210457
8.64505
-10.7179
-12.2413
15.3854
51.4969
70.0548
11.4082
-21.7144
-38.9808
-71.3402
-121.818
-98.605
-56.3601
-23.997
5.74104
4.1686
12.1283
22.6837
17.9058
7.26408
-0.849448
-22.97
-45.3585
-53.7469
-68.7946
-37.573
36.9069
73.4078
125.195
177.317
93.6321
74.2445
86.8155
91.3048
72.8945
6.95049
-12.514
-16.2924
-29.9322
-1.16179
-44.1658
-59.5042
-91.9237
-145.338
-141.367
-80.3824
14.5415
8.46194
-8.18397
48.4611
11.2354
-27.4221
-16.9856
-35.5297
-36.733
20.5938
22.6132
-5.86422
-3.72261
-39.9363
-57.3064
-48.1511
7.23712
78.6204
114.875
149.125
126.491
108.803
78.2248
-24.2481
-30.1616
-30.9189
-42.7997
-30.1284
-59.7377
-67.0904
-74.1852
-64.5763
-30.8616
7.26234
61.3937
61.8932
62.8681
69.2524
81.441
23.2976
-54.6672
-71.2365
-97.6533
-142.099
-108.077
-47.5076
-49.2988
-50.3052
34.7462
90.8294
137.372
112.404
-14.1171
-19.7407
-0.641777
28.0207
27.5638
10.7931
-55.0292
-87.6646
-59.4631
-40.1112
-9.46856
60.4236
81.4753
52.6094
38.4905
44.5953
31.5938
9.6857
-29.11
-11.2003
73.571
65.4444
48.3996
42.289
38.4321
11.3239
-14.3566
-9.83203
-28.0741
-68.4728
-110.907
-147.978
-149.429
-27.9273
43.1585
0.822594
-31.032
-40.4867
5.99439
44.404
67.4069
47.2212
7.39887
2.70893
-14.1803
-12.6638
18.2976
17.837
13.5197
51.7064
30.4921
-17.7522
-13.0709
-50.0521
-11.6363
37.9331
-4.79096
19.4695
22.1684
-10.2399
-23.0839
-17.0004
-32.8181
-11.3217
-38.0137
-57.175
-6.713
26.6827
48.125
54.2392
57.5447
95.0471
101.545
48.5445
-15.1099
-38.59
-27.9474
-41.6716
-56.6383
-44.1711
-31.0577
-19.7532
28.9406
34.7162
22.6588
13.9449
2.11856
-1.32842
-54.5245
-66.0812
10.0769
27.0923
-16.98
-49.0201
-29.8121
-5.18061
-11.874
-33.1332
-64.0258
-62.0205
-54.7198
-38.8213
-2.97592
-15.4154
43.1782
148.503
211.14
93.703
17.3204
52.097
84.7367
19.2464
-57.1144
-102.887
-73.2367
78.7151
251.935
310.2
74.8408
-152.799
-167.487
-121.734
-101.622
-62.5654
-62.849
-105.274
-140.485
-80.2386
-45.2619
-56.6204
-84.4576
-44.745
34.7347
77.6539
26.1819
-75.8895
-167.586
-207.324
-55.2324
126.115
147.64
155.313
186.66
126.911
111.467
119.99
76.08
42.6562
44.0294
33.7439
15.937
73.1024
116.986
70.49
5.02714
-63.6124
-99.6737
-118.628
-93.3043
-87.7233
-61.6499
-23.2272
-45.8548
-7.85727
-9.44367
-55.2198
-78.9547
-82.5998
-51.5155
-11.8266
74.5256
104.351
22.8723
4.49715
-22.9429
-48.7503
-48.538
-9.3292
69.8364
120.302
95.2756
-8.60283
-53.1051
-32.0231
-38.5588
-49.6972
-25.2282
11.8506
12.4954
4.29759
-35.3591
-70.2355
-32.133
2.751
35.0295
54.3987
53.8231
14.3612
6.95659
18.103
10.6057
-6.41827
7.29616
43.8462
91.3054
51.6757
-21.8611
-29.9645
12.7099
49.5831
7.95413
-15.7368
-3.11805
-24.3313
-19.3007
-20.7206
-38.4994
-36.4188
-26.712
-40.0968
-20.3574
31.7762
25.2101
0.987833
-21.2294
-15.2391
23.1442
35.5836
30.4681
-3.42921
-11.9213
-40.4395
-42.6391
-6.43553
-6.46708
-13.4103
-12.1362
-21.6534
-6.516
3.78779
2.09422
5.62655
5.09088
-2.1732
2.13408
17.1859
51.4104
62.3909
2.03399
-17.9571
-28.4306
-12.0808
5.69997
32.2509
20.2688
-2.08693
3.5305
28.1821
15.5389
23.579
-1.88094
-34.2003
-66.357
-94.2084
-59.5117
20.0697
96.6477
110.134
32.5336
-3.98981
-1.90392
-36.3105
-82.7875
-88.8089
-30.8571
15.7305
37.0541
39.9677
18.7372
14.4817
27.407
38.4874
63.6184
53.5023
-14.2302
-37.6696
-81.3209
-82.8247
-26.9523
-6.36448
3.38577
23.2644
46.8313
45.6895
31.0455
26.815
7.47406
-12.6725
-22.2555
-17.5561
-18.2493
-34.6244
-36.483
-15.2162
25.9336
-8.17653
-50.1647
-82.8678
-60.8727
-14.6754
37.6132
115.755
160.405
65.2094
-22.9657
-56.6838
-59.7548
-79.2903
-58.0977
-24.4666
18.0515
99.6348
90.3218
42.3974
12.2389
21.7836
16.1108
6.98393
30.2566
6.3557
-65.5496
-88.5245
-65.3799
-36.9645
-46.5054
-57.4294
-31.3069
50.8224
75.7714
0.153977
-15.9658
-24.7081
-6.48588
24.5928
28.689
22.5641
40.9066
83.8658
60.6499
4.111
17.0032
-8.14825
-43.1718
-23.5131
-1.20524
31.1957
15.7178
-15.3515
-13.9831
-1.67736
0.747464
-28.9334
-39.5802
-50.4725
-36.7801
-0.757562
16.0439
4.18227
-16.2332
-9.88673
-25.9986
-26.4067
-2.18762
31.2623
62.0098
49.3689
14.7779
-5.43501
-27.82
14.4462
23.501
-5.02668
-3.70732
19.033
18.4984
-5.03394
-44.8322
-70.562
-21.07
24.1455
16.148
-10.5551
-66.6668
-97.3929
-95.3087
-55.8795
24.5309
142.645
224.331
106.741
12.4021
9.55034
14.5933
-13.1669
-7.9465
20.5023
10.9348
-17.0039
-26.8119
-36.0499
-26.9799
-18.3889
-2.41312
27.2176
30.3131
35.6127
9.8223
-74.3896
-137.778
-81.827
-30.8907
-11.5071
-19.8916
4.62288
24.2562
-9.65499
-23.0146
2.94334
9.47105
18.207
57.2081
68.6381
53.1528
29.3097
19.9528
-8.71141
-10.8162
-4.00501
23.0181
35.4622
28.1081
15.9135
-20.1457
-13.4108
28.7633
22.9932
-13.7948
-41.955
-68.8522
-45.368
-32.7345
-4.1962
72.3244
17.0329
10.3372
30.5765
2.69272
-19.6425
-49.8222
-26.6439
-36.1302
-55.0387
-27.1343
-18.5182
-52.4337
-31.195
24.9795
47.7372
51.43
26.3708
34.2118
19.9884
10.6259
89.8907
49.3974
-10.7594
-41.802
-48.7461
-55.1465
-28.4945
10.575
24.3778
56.2178
71.478
8.0266
-20.6831
-18.6152
-11.5886
-3.28525
0.434336
6.53651
14.5577
2.78009
-44.3501
-49.6853
-24.02
2.08636
4.79445
10.4964
36.5185
18.627
-15.292
-26.6136
-44.8084
-21.9814
-7.35283
-30.8246
3.73963
46.2213
40.3641
34.2253
22.3087
-29.6002
10.4513
21.7797
-6.50403
-3.83842
8.66923
17.0528
-4.1169
-3.63033
-6.70915
-0.516104
1.64111
8.2757
8.39316
-8.18094
-72.3135
-86.7482
-46.8527
-3.05401
86.3698
68.4836
18.1223
52.8241
32.1581
5.82835
-16.9938
-41.661
-51.0029
-51.5939
-26.3009
1.00023
-18.5598
-27.8744
18.6694
87.1257
116.195
73.806
17.6906
3.08081
-44.3055
-75.9716
-60.3421
-64.3485
-41.4732
-25.4387
-22.8618
18.1875
56.8813
50.353
20.2904
-0.0129631
5.43196
21.1054
-0.0106873
-8.38055
11.9107
-0.702257
-40.132
-74.1743
-92.8408
-7.84977
100.129
135.86
112.799
100.866
50.4606
-18.0392
-67.3454
-76.6987
-84.4767
-86.8422
-8.89933
31.9394
-42.0914
-99.4148
-84.813
13.4347
182.339
183.759
50.0253
-22.0925
-97.5085
-105.164
-50.0852
-13.4447
-6.7682
8.192
17.0852
16.3775
13.2993
5.48886
-24.5833
-49.3835
-10.7132
34.4513
34.3407
2.23288
-60.5332
-60.0161
-7.84293
5.41451
19.7476
16.7139
8.82038
8.84149
40.2751
63.4587
74.3234
43.072
44.9637
51.2441
39.9591
20.5161
1.4622
1.65819
12.0262
-9.30347
-29.2723
-60.059
-63.9327
-83.5111
-90.477
-48.7229
12.6185
3.88515
-8.50858
-11.0183
-8.28247
10.9496
-0.0715318
-1.91416
-51.3002
-62.5992
36.8455
75.4139
45.1975
28.7447
-58.459
-46.3358
36.501
121.77
160.67
66.9626
3.69355
20.0177
-9.13216
-59.4498
-68.1059
-33.3551
-11.7199
-8.3355
4.70669
-3.6916
-43.0082
-51.9767
-39.7818
-14.7712
5.07389
-9.99384
-30.1039
-43.0308
-45.0409
-19.6099
-3.35829
-3.88035
-17.8077
-10.9141
15.3715
34.1753
56.477
44.2819
34.9423
54.8252
85.9785
91.7731
34.6496
-0.714646
0.140064
1.27788
-3.30577
-24.5533
-31.7943
-14.407
-37.1865
-52.3901
-9.80409
3.31464
-21.209
-24.2062
-1.07442
36.3503
78.1448
35.4574
-46.4429
-71.4305
-40.0946
-22.7231
-4.96022
-11.6773
-21.0945
-17.6365
-18.6936
12.6056
19.3518
5.14233
8.90006
10.483
12.9224
-15.2959
-17.9019
11.5909
42.5827
44.5489
4.68697
-27.886
-11.6911
-16.1699
-12.7545
-1.71428
-28.6722
-33.2298
-14.8967
48.7241
129.964
78.8375
36.8125
22.7215
5.80263
0.966597
-42.1576
-80.0539
-75.5835
-2.63297
22.3365
-19.0566
-12.9174
18.8593
27.1683
58.2427
35.8759
1.01042
-5.79525
-78.3947
-119.435
-62.4592
-12.6605
4.07398
8.38662
22.1165
43.5804
48.1262
7.30268
-26.0875
-12.1942
3.86253
-8.21686
-18.5706
-22.8376
-12.7412
40.7206
32.896
20.4513
25.169
-0.788531
0.193282
2.73482
-0.388747
1.0846
3.8899
36.7473
39.0688
2.61163
-27.2209
-16.2983
14.6311
0.458742
-29.0067
-20.0646
-20.2457
4.67633
51.2097
30.4025
-17.8818
-36.4122
-18.1918
2.24878
36.7027
27.3777
-18.1109
-32.463
-30.6585
-17.9817
-25.6549
-73.9028
-57.3199
-8.68389
51.0354
137.678
87.1546
0.840181
-16.5611
-19.5312
5.36321
7.97656
-15.1227
-26.0445
-36.9558
-17.5008
26.7904
-5.16812
-66.2247
-66.3192
-46.4304
-2.59648
12.1076
48.1247
83.5164
60.964
16.3092
-11.7869
-22.8928
-15.254
-7.71207
13.2513
33.5779
-5.18353
-11.4081
13.5031
30.53
77.6854
80.0249
54.0817
67.4902
41.0433
-6.73774
-43.0288
-78.2269
-123.898
-105.053
-51.8438
-35.8693
-23.3788
-20.3207
-27.6146
-28.8169
-5.17932
-2.27815
-9.16901
-0.744577
-20.0717
14.6318
34.1512
9.52781
20.7627
32.2436
20.1416
3.63319
-30.2143
-21.7149
35.1103
76.2417
84.1695
72.8975
24.4545
1.40548
22.7426
5.89955
-28.9149
-73.3427
-93.0749
-29.919
73.226
50.5946
20.2878
18.3908
-5.49886
-27.0468
-41.4422
-18.8768
-9.74751
-10.9135
-35.114
-79.358
-37.177
10.4472
3.98833
13.3835
17.1952
39.8169
60.1879
47.1007
9.72572
-9.73216
-6.19132
-12.8423
-51.0698
-46.2807
-3.78594
18.7465
23.1756
31.4244
0.646549
-19.0742
-17.7809
-3.23706
19.2498
20.9754
25.7383
29.5509
32.2171
-21.0279
-70.4522
-42.6545
-21.9785
-3.071
30.6526
41.6835
41.469
24.4501
-21.6766
-46.5759
-24.3964
14.0386
1.99134
-20.0651
-8.04779
12.0957
44.4385
29.441
-19.647
-29.4295
-52.9958
-51.1585
-30.4339
-28.3232
34.2021
96.0608
23.8963
47.2476
89.8747
5.57918
-24.1589
-7.41135
-21.1761
6.92156
47.1024
13.1545
-53.5058
-55.7684
-38.2907
-32.9866
-25.262
2.55839
11.788
10.4152
-10.2477
-51.3216
-31.1226
-49.4392
-72.9733
-21.0636
20.9835
20.3343
34.5434
29.0498
14.7675
30.6313
47.4647
70.1003
68.5282
29.1772
15.875
13.2452
14.4612
18.7907
14.8914
24.3099
35.1536
7.48259
-0.225185
-5.7407
-44.6525
-53.3425
-36.9794
-32.5278
-59.7715
-70.0503
-66.195
-59.135
-23.7289
6.55773
29.1178
29.4627
32.7968
45.8725
1.45268
-26.1674
14.0802
35.6875
11.4374
16.881
47.3322
44.7763
21.6411
-18.8512
-44.5655
-39.7189
-25.1373
-22.7453
-21.0719
-0.195784
19.9386
6.35145
-29.6545
-24.16
76.5832
50.1542
-22.9375
-12.1097
22.1736
53.3877
71.1335
41.4193
10.9313
2.86494
-20.9275
-38.9525
-28.949
-75.0373
-137.036
-136.024
-100.092
15.7117
121.085
106.729
35.6588
31.4795
30.2601
-22.9917
-42.0147
-35.8461
-46.3971
-31.8516
0.485384
22.3388
52.0875
71.8264
57.0216
62.972
86.7307
75.1876
52.3872
-12.1295
-66.9385
-57.5636
-59.5692
-53.9463
-32.6193
-6.04677
-12.7341
-44.3139
-59.0866
-22.8668
36.2637
127.854
93.0314
26.0385
-15.1778
-21.9129
-20.6929
-22.3385
-40.372
-51.5814
-55.5152
-38.3993
-18.6223
-6.28726
33.8744
31.0376
17.4938
17.1487
8.35268
-3.12144
-49.8818
-146.09
-104.62
-8.19554
49.607
104.752
140.061
105.02
69.4142
43.2539
14.0088
-5.03584
-3.90661
-20.5024
-40.4361
-15.3932
10.3025
9.34103
-22.5218
-64.6675
-67.2624
-49.3597
-29.1357
-6.73751
-9.49492
-25.411
-36.5422
-6.65762
38.1997
58.1546
53.3513
50.7612
6.99458
11.9863
22.0953
4.58755
-1.69043
0.713537
25.8471
42.2348
28.508
10.7932
-10.2687
-20.8157
-30.1472
-46.0725
-40.5825
-46.1836
-42.9399
-19.7731
-18.8823
-52.2452
-42.9493
-24.1441
66.2226
159.716
69.418
20.2363
60.9142
36.6868
6.29631
15.1792
8.59016
-11.355
-32.4475
-38.1467
-54.2562
-60.4158
-43.6207
-8.20335
-4.19577
-25.3985
-21.837
-45.8704
-105.896
-145.108
-67.0496
-5.64616
26.4238
123.5
152.491
79.4061
55.9043
35.5206
40.2963
44.0744
39.2375
66.9633
77.2611
23.9587
-12.3503
-34.2947
-29.6662
14.4719
40.2128
78.4811
67.9324
-73.1849
-169.537
-185.544
-149.721
-77.1919
-50.2302
-43.3637
-2.47707
51.3085
89.6094
50.1082
-1.45266
-7.89485
-31.0618
-15.3907
-0.724103
31.2437
103.567
48.8941
-3.15594
58.4182
94.1431
75.3033
51.6261
-2.89085
-31.3702
-31.6393
-60.3282
-95.9511
-122.609
-90.0255
-51.1054
-24.606
46.1247
90.9667
71.0134
34.7731
-28.2203
-33.7849
-2.90581
-0.250091
-15.6846
-29.7563
-49.0518
-32.5635
23.4085
103.675
117.557
68.2992
35.0383
27.243
-0.134826
0.252937
34.4864
32.3628
-19.5392
-41.7164
-78.403
-93.3301
-35.8267
11.8329
0.0221904
-18.0076
0.26716
16.2418
7.4931
-24.58
-17.7332
22.888
31.814
13.0825
17.7865
-15.4316
-36.6142
-20.4266
5.0748
-8.1383
-51.9296
-103.87
-136.61
-98.5494
22.7883
149.487
108.323
84.5772
92.0991
32.7492
0.922109
-13.8501
-21.1304
-5.66359
-17.6063
2.06767
90.4782
90.9708
32.08
-14.8426
-23.9037
-12.0172
0.790034
15.708
-19.7697
-76.7217
-41.8407
-44.0616
-75.4241
-57.496
-39.2163
-19.0325
8.7203
-1.02553
10.684
19.6238
-40.8189
-27.3023
11.2784
35.5787
42.9532
53.0346
65.5542
70.2477
19.0891
-46.5941
-37.4469
-17.9237
-19.494
23.1145
48.2019
50.6677
71.7459
58.3436
20.6207
-22.2259
-38.7966
-42.349
-31.8804
-43.5803
-82.0591
-71.633
-38.5022
-15.6568
13.778
31.8227
50.7358
79.2583
49.709
-18.6905
-62.8005
-91.5216
-78.022
-25.1336
15.0326
38.4657
31.9349
13.0523
48.3194
69.7353
104.502
92.0252
55.3906
23.1731
15.16
-18.1645
-71.9832
-90.7369
-73.7421
-44.1234
-17.4681
17.8664
16.5715
-10.0178
-57.4253
-98.9061
-101.142
-54.1575
51.7488
81.3547
-39.3478
-55.351
13.0163
100.618
103.379
65.852
33.5685
14.7054
33.5692
22.1763
0.0954744
11.3916
7.29396
-13.4699
-2.38029
10.3667
-0.440528
-39.3956
-110.698
-118.994
-55.2673
10.4518
52.1135
5.41615
-31.0112
-8.17788
19.3614
22.9256
10.2029
6.2101
18.9147
14.9163
-9.79716
-12.3167
4.34821
26.2339
25.5759
25.2968
41.4331
40.2185
73.6926
58.1182
7.0466
-38.4765
-51.1048
-44.7902
0.136439
22.1551
-3.73016
-15.0263
-2.78728
-4.2641
3.9537
1.67961
-3.44374
2.05151
-2.96458
-7.37218
-20.9042
-49.34
-23.5256
-26.7178
-41.4647
-19.3705
-6.60334
-65.2136
-87.8574
-46.742
39.6491
142.376
126.017
-3.00457
-24.9848
5.51432
14.3203
-14.8169
-30.4984
-13.9099
-15.0781
39.0962
89.6802
67.8468
20.6359
-28.4586
-51.8541
-15.4787
7.06804
0.127191
-27.6592
-61.6321
-52.9863
-0.537777
15.7926
24.1099
32.9475
56.8375
24.3142
-47.1696
-50.7284
-29.6234
11.7393
111.23
74.1099
8.95579
15.6254
13.169
-1.12535
-7.80259
0.760452
-37.4906
-73.2596
-30.3233
-8.50287
-29.8245
-30.1382
-25.1691
17.4985
48.1618
27.7026
11.8062
-31.1675
-99.7999
-70.1572
-18.7571
13.1141
74.0242
71.5482
30.5806
16.1372
-29.627
-49.8325
-26.0028
7.12934
48.4328
90.5683
31.9348
-71.5694
-32.1598
2.2406
8.27425
65.1577
35.8725
15.216
18.57
-22.0894
-20.815
-20.9716
-34.1876
-32.9804
-7.30647
12.681
18.5297
-0.255296
17.959
-41.6987
-69.9273
15.7175
46.7868
33.4729
13.2116
-42.3331
-50.59
-32.123
-17.9477
-9.76879
5.47568
22.0398
17.1078
-10.87
-35.1197
-14.1804
64.2769
99.7066
33.2905
-37.4105
3.16581
88.2813
81.0152
86.212
37.3304
-59.6197
-54.0032
-49.5416
-46.6784
-14.6004
-12.4118
-18.0041
-14.4799
-9.95722
-0.143511
-9.52067
-46.5566
-84.6175
-90.0525
-37.5415
-3.23622
-14.9011
-1.49864
-39.0034
-34.0872
19.6304
56.774
76.1702
87.7633
35.7033
-15.6533
-3.51547
45.3226
92.3258
103.371
48.09
3.08481
-17.6753
-11.9789
-9.45308
10.3414
-19.3974
-57.3358
-26.1537
5.94352
-3.49922
-23.7265
-38.3019
-39.7707
-6.01958
17.2381
7.39063
-34.5623
-50.078
-26.1928
-8.35687
-35.5463
-62.0638
-20.5667
18.9874
22.8907
32.9426
36.5018
29.5982
31.5066
47.9353
32.6475
17.3597
15.9498
-4.83897
-26.5821
-5.76449
32.3072
57.1287
26.16
5.42489
-12.2083
-40.516
-72.241
-49.825
21.4742
83.8834
63.0678
25.1121
-20.5216
-57.7029
-57.9574
-42.1766
-44.1512
0.4682
11.2637
-44.4661
-88.3247
-78.2691
-52.5942
50.9826
144.919
129.119
107.164
88.122
-9.36428
-84.3803
-75.4386
-57.9421
-32.961
-7.57062
10.8517
19.3202
-7.2571
-18.6812
9.44148
38.387
29.0204
-31.6067
-48.8136
-53.5529
-49.1999
21.7946
41.9866
30.8943
28.049
12.7405
12.8836
0.377462
-12.3915
8.23926
21.1915
15.8127
11.5035
6.45016
-10.2634
-36.8646
7.01291
63.9613
55.2821
16.8363
-38.3742
-27.5575
-1.04809
16.2296
35.8641
32.6036
-18.691
-33.3769
-11.1575
-19.6269
-21.7918
-28.4821
-28.5998
-9.44602
-0.654566
16.1707
-2.04287
-57.9294
-57.355
-52.9966
-36.0997
-34.3761
-47.3421
-38.5185
25.5584
22.8001
107.104
199.225
146.345
94.5341
33.6025
-21.8037
-30.0257
-42.9543
-50.6507
-47.5601
-33.1175
-29.7936
-51.8468
-46.5706
-34.4811
-7.71158
19.8861
48.6012
36.6899
-0.18241
-52.1553
-98.2062
-65.5485
-21.1001
22.1477
30.7981
23.0878
28.5661
25.2106
28.3095
21.4797
34.4679
66.1078
66.0064
49.1029
15.904
-10.7558
-39.5413
-61.9673
-34.2312
-35.8177
-39.4089
1.91614
35.4317
28.6999
-6.27035
-16.1659
-27.3835
-22.2213
12.4822
38.4525
26.4604
21.5511
13.3041
25.2373
36.5252
4.6756
-15.6483
-39.2118
-39.5305
-11.8524
-43.1238
-53.3881
-47.756
-28.2062
20.874
33.3548
44.1237
50.2937
19.1524
-22.7767
-32.3303
-22.721
14.7401
-5.98693
-68.9506
-19.9695
10.904
82.4173
97.4851
23.4531
4.73895
4.36844
-13.2318
-34.6003
-18.5286
13.4081
-4.19184
-14.478
-21.5937
-21.9026
-15.0329
-2.86988
-7.49569
-8.23065
12.5345
0.527396
-30.8747
-72.079
-39.0101
64.6701
80.2352
43.7215
33.279
16.9246
-4.10913
-0.797082
33.1813
47.5732
10.845
-16.134
-28.3307
-37.0949
-39.5037
-36.4205
12.8382
42.2698
-7.37393
-37.1117
-18.7816
-20.8668
-27.2475
-11.3491
-5.97003
-1.30543
-0.607346
-5.79056
13.2952
36.671
37.5045
30.3447
18.8951
-5.45048
-13.1383
12.0635
32.1527
13.0042
34.8957
22.8076
-8.94799
-32.2057
-28.5578
-21.7443
-25.3635
6.90523
13.6036
-24.2147
-45.8473
-64.751
-44.9925
-9.29665
21.8432
60.9286
90.9545
66.6183
-22.3075
-55.422
-27.6378
-13.8942
-29.828
-60.967
-40.1277
5.4311
71.9489
124.017
57.7277
23.2478
11.0693
-8.50091
-17.8867
-35.3265
-37.2075
-28.3469
-37.1642
-25.0619
15.1082
42.7501
26.4994
0.601322
12.3292
-11.332
-8.84229
14.2089
-25.7244
-97.5085
-47.2217
-0.831899
18.8877
39.1068
49.9578
42.0898
23.5603
6.25312
-7.57868
-6.75372
4.62777
-16.0915
-11.0535
-1.34597
10.043
26.6319
6.22624
-18.0057
-30.8833
-33.5103
-20.7054
12.3586
-2.01222
-13.5472
2.16213
18.7101
10.9823
-9.21334
-54.27
-48.0588
-17.4307
3.27314
19.4045
68.132
104.794
118.841
22.0979
-36.4375
-39.4946
16.8549
103.244
-7.32352
-55.2012
-26.1568
-9.65875
-27.8756
-32.0034
-14.8787
21.0747
3.39641
-30.1918
-12.491
-22.1036
-62.2016
-68.9601
-32.1062
25.2297
32.0342
-1.96704
-35.6101
-33.0677
-1.34719
3.01477
13.4448
24.7962
35.1145
38.1684
34.3056
31.5507
43.3348
26.9668
-17.9595
0.214395
13.5074
-26.3999
-68.8133
-46.816
-34.333
-5.79656
-7.43507
-21.573
39.5402
55.2371
23.8075
16.6979
27.7466
43.4316
24.1165
2.07678
-6.57103
5.66985
26.8548
-0.676416
-5.92413
-8.27503
-45.274
-43.1144
-19.6064
32.2585
91.2491
22.3202
-28.9333
-20.9672
-37.6481
-44.1481
-17.0386
-11.6019
-33.9198
-26.5157
-11.8069
3.68774
-14.7312
-78.8695
-117.238
-79.43
18.1437
165.692
195.604
79.3239
17.6994
-14.4168
-32.1213
-26.6423
-16.4898
-2.11494
2.74684
-11.2979
23.4328
20.503
-17.2884
-17.0161
-1.08802
26.6957
44.8644
27.3271
22.7473
-19.6924
-56.0031
-39.8411
-48.2358
-23.105
18.8637
9.66845
-9.41054
-37.8483
-58.1325
-38.5293
10.8621
41.0517
34.2619
16.9474
25.4652
59.4438
48.1753
20.9609
6.67864
-37.3578
-45.9204
-19.3642
-23.9979
-1.56837
26.8745
9.98077
4.69839
0.0969675
-5.3958
-5.38046
-27.7641
-3.01919
26.2739
46.7361
42.4902
-5.24453
-3.83734
-2.46536
-20.8185
-27.3492
1.52032
12.9143
-89.356
-110.742
-67.799
35.4857
187.705
150.018
36.8181
-6.43484
-76.3153
-92.8541
-8.47758
16.1899
-10.3976
-0.80772
6.95368
-1.75509
-19.2441
-24.9995
-35.4235
-31.6593
32.2006
46.1138
23.9098
0.915224
-90.5017
-52.8031
47.7337
51.2096
59.6497
39.3785
-21.083
-34.949
-37.034
-48.775
-24.9583
12.3098
49.6062
76.8548
42.852
6.58596
22.4316
32.5602
-5.34056
-30.4108
-55.7746
-60.5441
-38.5789
2.56766
19.6067
13.6691
-0.751932
-22.3283
-3.03043
30.0646
12.9016
-1.63475
-11.8443
3.61399
62.0824
67.4325
-0.233532
-38.0197
0.585804
-2.22365
-27.5647
-4.10534
-25.5385
-99.7868
-78.8049
-44.8224
28.7652
101.072
60.2972
76.1135
100.22
26.2534
-28.6559
-68.0778
-83.6032
-61.1918
-17.7123
-9.30603
-6.71371
11.5295
6.34976
-27.9666
-25.359
27.2368
52.4999
82.8759
53.6776
-38.2661
-35.3061
-21.3067
-47.9975
4.7742
62.2033
46.7836
12.0072
-7.46892
-12.2381
8.64966
5.19745
-20.8515
-3.04211
21.6039
26.9822
46.6508
7.20787
-57.8143
-96.1799
-71.1906
-22.9794
-20.0809
-8.96275
16.0354
1.2975
-20.9462
-29.3879
-23.6882
1.97954
6.78161
7.25433
42.4168
30.4841
67.7673
94.1559
53.7455
63.9816
87.9154
22.3208
-32.9571
-27.1659
-17.7459
-38.3372
-91.2896
-116.891
-77.6768
-22.4451
77.7061
122.464
84.8668
17.7246
-59.3639
-45.5951
-54.3362
-64.0565
-62.6915
-74.7045
-64.797
-10.0842
16.5441
24.4392
34.8179
30.5429
44.4004
51.2365
33.0388
25.2247
-12.0683
-6.92162
39.293
34.543
35.8663
30.2241
-18.3363
-31.0845
-13.2566
24.6853
12.1729
-10.4295
-8.08556
-24.3476
-26.5043
3.90532
14.0303
23.7406
29.0631
12.8843
-19.1994
-47.5014
-48.3002
1.45359
5.79406
-20.4268
34.3808
28.3857
19.5688
0.255889
-21.6041
-21.6082
-42.0028
-71.0769
-62.6762
-26.8343
48.1576
85.395
42.2731
8.45587
12.2933
7.39714
-21.8354
-7.30371
0.415916
1.4814
-15.8255
-2.50814
14.0673
11.2585
4.61535
-5.82426
13.7436
26.6348
20.9747
12.9153
6.88779
26.9661
13.0898
-73.2751
-89.2614
-82.7685
-86.2937
-75.0543
-21.2906
89.5486
181.819
105.974
33.1561
15.6382
-0.849813
-18.9198
-16.3979
-3.50761
4.02489
-3.99105
-43.0752
-96.7689
-73.5613
0.0263155
44.6272
56.2013
122.153
96.7114
32.3959
-20.6385
-79.0677
-44.6304
-10.6489
-21.5278
-33.7036
-23.6902
-8.33416
7.22185
-14.0354
-41.1896
-35.0951
-4.47071
-2.60754
7.00869
14.6617
26.1801
10.8253
31.5516
33.142
0.424083
-35.097
-20.9656
5.94194
6.99629
18.4938
28.7458
20.9772
23.5634
32.6676
31.3564
22.0633
11.0517
3.49236
4.29214
-15.6474
-22.8113
-18.4811
-40.166
-49.7917
-41.4412
-32.7569
-32.2867
-47.626
-45.1395
-25.5882
-14.3592
40.6387
133.308
111.968
34.7655
1.65943
-40.8501
-13.1952
-7.42247
-17.3646
-0.296515
-24.2749
-37.1412
-7.20613
3.71207
-6.8814
12.2125
22.861
27.0452
30.5253
34.685
9.34288
-53.73
-68.1477
-33.1974
-23.5997
-5.94809
3.81844
14.2808
19.5952
-3.43375
-6.24871
18.5525
61.6941
45.2898
13.5813
3.75985
-2.34897
-7.24111
-25.668
-37.8709
-48.9233
-17.2835
65.4268
107.014
89.9401
44.6899
34.4657
5.33329
-41.2865
-39.3087
-37.5824
-62.0749
-91.458
-70.1407
-28.9254
-33.9447
-34.8326
-17.0582
14.6835
34.9097
30.4773
-2.50977
-21.3201
-30.8833
-61.895
-32.7804
12.9023
64.3223
93.8831
71.2642
14.0075
-19.5041
-22.6475
39.7259
146.345
94.0943
17.6841
6.46116
-3.29435
-12.4094
-47.5102
-65.6214
-64.331
-47.3207
-17.3322
-10.6937
-19.9579
-6.4335
-42.1923
-51.8263
-8.72145
29.3503
37.8077
-3.62449
-63.3247
-23.1097
26.6667
37.8994
16.8117
-0.866123
11.8378
12.9087
0.397493
6.60628
27.3163
45.5617
41.8744
8.77303
-2.74763
7.33767
20.4496
27.9886
9.81917
-15.5035
-48.8365
-47.5238
-45.7349
-34.4113
-8.19724
9.21587
18.7942
12.6188
6.04426
3.65381
-3.17392
-5.96925
-17.2745
-16.24
2.07087
2.98504
10.2115
22.75
-0.494185
-10.984
-26.0857
-15.3195
8.87881
0.466293
3.55212
32.87
36.7463
11.7229
0.768931
-5.85447
11.257
17.6761
6.60582
-1.62211
7.22506
-2.59961
-50.3609
-84.052
-60.6568
23.4658
77.2659
63.6252
43.7866
25.5874
11.0014
-11.0212
-25.9712
-21.2462
-26.4503
-26.3338
-17.5963
-33.7303
-18.6039
-1.40473
-10.8008
-16.7775
10.2772
41.2479
60.3154
-4.48692
-67.9314
-77.7245
-109.226
-122.778
-66.011
1.31482
84.7322
133.166
122.546
104.261
114.715
163.099
168.59
81.5917
7.77346
5.77571
54.575
30.4432
-102.57
-202.079
-228.389
-177.341
-84.8356
-21.3246
18.2447
65.3657
114.004
191.409
282.967
200.092
9.18321
-127.872
-208.399
-250.599
-295.467
-377.739
-427.509
-323.755
-86.8444
75.8363
146.344
230.58
320.69
331.853
289.041
118.649
-78.5978
-186.649
-229.241
-159.77
-51.0602
-19.351
19.3144
117.629
228.526
268.278
256.184
244.222
189.401
137.112
103.026
10.9273
-37.0381
-28.3437
-88.0593
-117.53
-126.156
-125.468
-157.941
-149.854
-64.4805
33.8473
110.475
111.219
17.0008
-31.2487
-64.6378
-138.791
-210.777
-222.086
-149.637
2.26159
104.561
148.719
157.61
169.754
151.637
-6.82843
-148.447
-157.844
-122.304
-107.882
-100.134
-74.3204
-38.9316
2.79289
21.8673
1.92008
25.2692
86.6519
165.744
154.973
-9.92223
-129.698
-158.426
-117.506
-44.6203
90.5022
196.058
169.448
142.632
90.9908
6.5904
-11.9399
38.2618
106.976
172.031
186.451
139.893
78.567
-15.1837
-76.8938
-34.9928
-57.633
-142.295
-214.077
-233.859
-206.353
-190.013
-144.717
-93.1776
-59.407
-20.1247
13.4246
21.6247
29.6834
2.92003
5.54074
47.3981
41.641
-4.47327
-95.4044
-135.836
-72.4595
76.6545
173.693
161.196
140.073
164.254
156.319
100.19
75.9057
54.8961
38.4527
51.7151
53.0809
62.0626
36.3755
-15.4888
-11.5627
-15.9165
-23.321
-52.8874
-60.1927
-79.0081
-97.4411
-92.7154
-129.453
-157.914
-155.795
-85.6381
39.2188
66.7121
25.5848
-8.94495
-57.926
-55.6959
3.13466
31.6078
13.5158
1.55266
7.6602
14.1144
-17.0655
-69.3383
-54.0093
-4.53622
17.544
87.8779
145.45
73.2252
1.16779
9.8197
42.332
57.4299
112.628
128.926
118.821
120.051
71.2489
15.8502
5.6278
18.3804
-15.2934
-38.8372
-59.9271
-18.3686
26.9463
-54.3724
-124.998
-135.999
-144.103
-138.968
-91.6588
-50.366
-38.0983
-48.8069
-61.3772
-43.5392
-19.0932
-18.3419
-24.0311
-12.7703
28.2307
79.155
75.9705
32.519
37.6011
81.0922
78.3568
59.1959
63.3733
60.318
38.284
16.0997
5.65323
-5.39646
-21.0597
-25.6298
-15.8359
-4.35515
-26.7474
-30.089
-8.06011
6.67811
20.4681
2.38706
-29.2645
21.2302
67.5301
48.7565
11.8636
-14.5397
-28.1824
-36.4029
-68.8224
-75.6015
-50.388
-32.7659
19.0022
60.7577
32.3757
33.9417
51.8121
57.7424
31.9751
13.3253
21.6001
-2.79541
12.0669
13.5307
-5.70262
-17.204
-30.1851
-21.1951
-6.27171
-31.6682
-50.3265
-69.5206
-134.657
-132.918
7.42585
55.7658
-10.3068
-51.0288
-42.3394
-21.1721
-25.2891
-30.0216
-27.8177
3.0524
40.7264
50.325
90.2774
113.143
92.2656
102.541
84.8128
49.709
42.365
2.15211
-52.5887
-79.7084
-29.8046
7.23785
38.1943
75.0345
104.613
87.3323
61.0829
50.183
42.9602
11.8457
-76.8994
-112.419
-88.4269
-77.2823
-71.7147
-33.0803
-54.7185
-51.9394
-49.8693
-74.1466
-68.121
-42.5179
-31.1851
-9.30175
-8.4977
-13.3953
12.768
35.1667
29.036
22.9863
33.6481
26.8694
-14.0363
-1.39365
35.6176
31.6539
47.0122
56.8114
65.9435
95.5418
87.0919
32.6291
-33.1015
-71.8522
-73.4067
-55.3073
-61.5961
-62.8364
-52.7585
-58.9564
-42.3755
-7.12418
34.4476
55.4235
36.5551
38.6777
71.5388
61.8568
18.262
-4.5058
-8.68594
-1.81177
26.6606
49.4957
32.3913
-1.5901
7.48392
13.4645
5.35001
24.0915
0.427394
-29.7249
-5.89386
-25.2581
-56.579
-82.9169
-114.268
-115.851
-36.9519
63.1725
83.3419
59.812
21.2812
-17.6122
-60.6528
-44.4466
-37.5455
-26.272
-18.1847
-5.10477
61.2413
101.342
53.773
2.69332
-32.7833
-36.5476
27.8978
93.4953
99.4569
68.5644
45.4494
22.7582
-3.45812
-10.9259
-5.53516
-44.2877
-84.4793
-84.9882
-95.1586
-77.7311
-67.6747
-51.1148
-33.1921
-2.02712
35.3373
42.505
59.9169
67.9804
16.6148
-32.7723
-26.7812
-9.29805
-7.13306
-14.3213
-11.5414
19.1337
46.8161
26.4151
46.9791
77.6844
107.682
84.6138
68.5095
44.2961
7.50614
-44.5736
-71.5517
-80.5253
-82.9603
-89.2847
-96.2964
-52.7496
16.4605
7.72464
13.756
27.5575
21.0084
31.3901
18.7016
14.9858
30.4138
3.49337
-38.5313
-59.0743
-59.4271
-55.5623
-60.0041
25.5822
127.246
122.061
82.6487
67.9414
66.7112
37.9519
-2.88977
-22.4173
-24.8894
-35.4117
-56.2135
-78.9543
-104.259
-63.5834
-3.07879
33.3749
43.0874
52.7926
13.2744
-56.6537
-113.389
-91.5139
-29.2913
-3.36476
14.873
53.7818
33.4983
13.2861
0.108775
-25.3996
-14.749
8.11648
-17.758
-30.9017
-13.1078
52.1729
125.068
168.927
197.462
146.994
41.6509
-41.1081
-124.74
-149.016
-105.902
-43.5709
12.3789
14.6785
-1.11021
3.01454
3.72302
6.9063
-0.836733
16.3862
27.6961
-25.5407
-88.8786
-123.247
-132.689
-100.108
-26.7755
6.62059
61.2487
90.3455
80.4468
62.636
43.5253
12.2212
15.5204
34.1966
46.9599
17.0388
10.1969
2.69829
-17.8971
-34.3883
-54.2026
-90.8569
-89.1063
-21.1041
18.4363
12.8368
8.57531
38.1688
76.7942
65.3922
46.2092
74.9066
80.777
75.2168
42.0532
1.06087
-23.9944
-54.8186
-70.1403
-43.5741
-0.38926
33.0327
-11.1201
-100.897
-108.557
-89.6037
-68.9017
-77.9131
-95.5838
-67.1611
-9.0745
14.8253
29.2974
32.5365
80.3153
121.652
107.122
68.6237
71.6046
71.2493
64.0014
80.5795
70.3757
-15.6974
-56.3138
-40.1628
-22.9995
-19.2844
-1.91056
29.8372
14.0535
-43.2745
-70.5879
-50.4656
-42.9961
-53.9537
-63.8595
-62.1423
-34.3186
-19.9248
-37.1758
-36.4571
-2.18112
50.784
37.4783
35.3802
26.8138
20.0597
-10.4457
-39.9785
-31.4852
25.8116
69.427
70.493
41.0078
46.5895
47.0204
-20.8928
-98.0422
-107.112
-58.7587
-19.5558
27.6649
66.5111
74.8373
81.3442
39.0628
6.62478
6.36195
13.5545
21.8102
24.2762
19.1679
2.53942
-53.4858
-104.109
-107.968
-12.6726
57.0266
35.4525
3.15082
-1.64505
-3.3358
7.76129
2.10132
-11.1325
22.9024
44.4078
28.0477
-17.6778
-47.3406
-40.4377
-37.0801
-42.5317
-69.4546
-97.7265
-10.7771
104.329
124.869
132.401
102.759
41.1547
-26.8737
-96.4244
-117.844
-68.2479
-42.5222
-55.1596
-63.4574
-21.2071
20.4925
22.4314
18.1295
22.1653
52.6448
64.1859
18.6818
-14.6898
-25.4636
-32.4868
-15.0155
30.914
66.5859
88.5889
78.1592
27.3497
-10.6994
-21.5231
-39.558
-52.0214
-32.6809
-14.3706
4.64411
-3.2361
9.03266
64.0358
63.4664
6.57813
-9.27244
8.06739
30.717
-11.8232
-78.7713
-88.636
-76.3433
-78.0231
-62.1062
-63.4442
38.6981
47.2188
37.4942
31.5468
30.7714
43.0987
48.374
38.4541
-4.93077
-34.3547
-12.3583
-28.4066
-44.8422
-38.046
4.56556
30.8244
54.9591
106.75
152.381
173.355
164.357
86.1815
-48.0486
-132.763
-166.19
-197.381
-200.02
-143.575
-95.0555
-81.7424
-77.17
-63.956
-19.7081
71.4441
169.006
184.375
125.582
79.7747
48.1515
-23.8423
-99.2038
-78.1874
23.4722
77.5752
47.845
-8.4459
36.2641
109.954
42.2502
-65.9653
-44.5324
33.5513
19.9884
-66.2324
-66.7945
23.6322
25.0252
-38.9215
-57.1852
-78.5276
-101.541
-90.6666
-39.9162
-13.4818
10.9034
62.6868
75.2491
-8.89923
19.4911
172.373
255.097
225.783
158.409
87.9266
-117.553
-347.894
-315.681
-186.597
-104.919
-21.4573
49.2799
101.129
96.4565
114.963
72.5692
-60.495
-147.065
-109.443
7.02462
82.181
57.6164
14.3698
-22.2782
-20.9293
35.2703
73.6267
55.515
10.329
-63.1368
-66.176
-27.2501
-26.1919
-11.7343
-1.29181
62.2552
211.376
292.038
204.426
23.0866
-109.32
-159.413
-162.764
-95.3215
-22.7538
25.8425
64.0435
61.225
35.4911
-12.5278
-81.4297
-99.0127
-63.5286
-17.413
3.52994
-6.7792
-34.8094
-88.9468
-111.435
-92.5161
-143.454
-185.686
-128.659
3.72117
165.242
219.942
183.1
124.749
22.2797
-48.4544
-6.57372
60.4585
42.4875
25.1034
59.6521
57.5746
33.2129
31.9672
41.7766
58.6944
129.231
116.294
10.6505
-134.91
-217.033
-175.894
-91.5161
-47.4485
-4.85998
27.5962
2.10943
-57.0365
-42.0971
-1.19688
16.9739
40.0462
72.8432
93.1774
102.356
71.6338
-3.15283
-66.7181
-51.4341
-2.24908
-33.2182
-94.1434
-92.8668
-59.2535
20.4326
95.4685
116.237
116.568
68.8033
-36.3642
-125.567
-122.466
-110.981
-121.417
-100.586
-53.5143
43.8275
166.734
217.741
194.758
132.982
74.2112
-19.6036
-69.6461
-78.027
-75.6202
-42.0298
-20.5707
14.3872
48.5706
5.32296
-55.052
-85.9193
-74.137
-64.3032
-32.1668
-24.4253
-49.4366
-73.7297
-104.196
-103.92
-38.7904
21.1807
66.7756
124.205
189.246
211.47
215.209
173.609
71.893
16.57
7.46195
-11.473
-44.9511
-59.0075
-43.5563
-60.7698
-73.0944
-61.4188
-31.7422
-25.3212
-34.7237
-10.6599
12.9092
-29.2128
-82.0651
-108.727
-141.49
-146.443
-109.986
-55.2827
-32.7445
-20.1736
24.6952
82.7119
112.873
121.997
125.612
166.939
168.3
91.8352
-13.6252
-99.0283
-87.3963
58.1321
131.276
120.237
122.063
120.476
2.79531
-88.0002
-92.7757
-87.7067
-98.8291
-75.3976
-30.034
-34.8861
-84.9545
-146.66
-165.327
-110.305
-32.3302
45.8366
54.5491
17.864
-2.60185
-38.4926
-89.9927
-105.173
-29.5534
37.8767
112.793
214.294
258.646
231.588
101.313
-2.22888
-13.0119
19.7889
18.7736
-26.277
-40.6745
-16.5028
-37.6209
-76.0101
-95.2575
-50.9235
-14.8852
-9.44286
-3.47208
10.6119
-39.4699
-97.7866
-117.901
-89.8654
-4.56917
116.898
142.945
82.3288
52.8863
27.6512
-28.5495
-54.2945
-24.2731
-0.471771
22.562
23.8339
-1.92774
-20.4086
-36.8134
-14.6087
16.4989
47.3352
37.2703
11.6871
0.084277
-84.7677
-167.454
-193.888
-153.343
6.61335
174.141
284.314
285.919
221.748
98.7263
-65.7379
-181.032
-251.781
-242.397
-179.902
-83.5905
3.92162
87.5974
138.461
134.755
102.134
85.0024
78.5582
92.792
61.8781
2.18291
-80.4488
-189.762
-275.803
-260.26
-174.118
-34.0758
166.279
282.11
285.764
288.153
223.464
115.338
26.284
-52.4066
-103.711
-158.383
-174.153
-125.137
-91.5509
-95.8305
-63.9182
45.2576
79.4475
68.2258
59.5086
-34.0574
-148.603
-187.064
-154.522
-108.797
-45.4431
32.8446
49.2671
24.2148
54.0528
156.746
225.306
161.453
79.937
-18.6556
-115.746
-140.3
-98.3268
-18.7246
39.5471
70.7561
78.2339
104.764
123.487
95.5766
25.2365
-43.1583
-74.7403
-65.4897
-82.2699
-100.032
-83.888
-7.13568
69.2959
109.12
109.713
88.8827
44.4466
-12.6227
-28.0787
15.3515
44.2831
22.7651
-51.0086
-140.855
-185.793
-182.701
-142.261
-70.916
2.5372
47.6212
65.8772
16.6213
-53.1925
-68.7986
-50.6083
-17.725
44.5186
98.6353
114.815
100.729
74.0705
22.2897
3.48165
23.3599
64.3264
124.381
127.808
60.333
-27.0635
-138.461
-130.492
8.80813
110.68
163.017
166.103
62.7475
-47.8531
-91.7939
-98.796
-103.943
-102.869
-90.5649
-128.092
-141.585
-92.9988
-109.769
-102.646
-65.9406
-35.5111
16.3698
58.2525
88.2519
113.749
96.4399
69.9311
76.9301
93.045
104.537
90.9747
104.853
104.939
47.4565
-2.09544
-25.5337
-48.9437
-64.1938
-94.795
-90.6708
-9.25724
34.3331
-28.7729
-155.524
-232.974
-192.396
-103.447
-45.5689
10.6981
21.8085
5.62408
-11.8502
15.4936
112.018
130.434
78.6253
29.5006
34.2422
126.697
231.625
269.43
283.123
208.743
92.9718
-27.2019
-134.915
-169.873
-154.957
-158.379
-143.487
-120.538
-92.9001
-90.2006
-112.586
-102.824
-72.1955
10.2541
104.885
86.6397
-35.5893
-108.756
-93.0166
-69.5554
-55.5035
-6.24884
54.707
73.7576
70.7353
72.4734
80.9757
118.245
158.381
154.172
97.3447
84.0239
64.5066
-17.4578
-113.919
-145.527
-81.2085
-25.9689
-49.5495
-60.1503
-38.9809
-2.62318
28.4742
19.5589
-0.127346
-2.12073
-24.8805
-59.8548
-79.0459
-76.0412
-43.0618
9.88025
43.4285
34.7823
40.8522
34.0592
2.61032
-0.782557
0.915059
10.0293
-6.70689
-66.3893
-108.613
-88.9801
-17.8657
-21.8502
-59.6031
-44.8202
63.4703
162.506
248.867
352.886
366.936
237.803
49.3571
-71.2789
-109.738
-116.004
-100.006
-120.433
-178.725
-131.719
-29.0025
-16.4379
-50.0318
-48.313
-22.922
-33.8851
-95.0743
-149.157
-174.214
-237.956
-243.627
-153.958
-11.9875
101.084
172.914
211.945
252.39
300.146
323.846
211.552
80.1001
21.6885
-10.9625
-7.47564
48.1399
70.5299
-27.8777
-84.7766
-106.06
-149.914
-181.404
-148.335
-77.3529
-11.1487
2.889
-38.2784
-123.83
-169.549
-136.937
-78.9455
-36.0908
14.2764
55.3627
161.09
260.587
228.625
185.325
141.422
112.506
60.8256
-65.4976
-156.52
-186.187
-161.933
-154.236
-153.433
-35.8879
135.303
238.235
333.85
340.646
161.61
-54.0033
-223.197
-310.172
-247.329
-140.701
-21.9808
37.0945
-16.8856
-57.632
16.3887
96.7923
112.783
150.05
170.876
85.6548
-58.3634
-140.783
-179.296
-233.754
-203.701
-33.4634
125.101
97.7213
8.843
-14.1002
-45.3038
-25.6541
64.5095
117.183
74.6145
65.4457
-12.8096
-74.0417
-51.6957
-20.3419
3.02805
-7.25671
-40.7591
2.61908
66.7853
32.577
-8.81794
24.4879
105.276
157.851
111.077
-2.34639
-77.1997
-73.8232
-42.5836
-45.1134
-25.5999
-12.073
-39.2272
-19.6319
27.5468
80.8773
42.8255
-40.1934
-68.4721
-101.244
-123.482
-106.831
-114.092
-125.029
-78.4424
-7.72388
160.73
408.712
461.464
310.173
226.481
180.159
13.4965
-149.262
-249.604
-200.229
-102.963
-81.5671
-101.125
-86.6214
-125.794
-141.068
-139.227
-133.958
-90.4826
-56.0741
-56.9507
-76.4404
-97.9621
-84.8071
-80.8644
-64.9506
29.2449
99.8087
127.132
63.1119
-15.1712
24.2842
200.344
282.841
256.69
246.09
257.586
248.989
166.46
45.4795
-70.6715
-174.585
-205.725
-176.208
-106.257
-52.3818
9.62074
79.3394
89.3157
-44.9353
-130.336
-163.111
-172.298
-79.0111
24.9846
39.5606
70.8802
132.775
106.284
66.481
59.5528
0.752864
-56.5092
-95.0656
-162.25
-211.24
-218.85
-185.128
-115.324
-5.08371
93.6669
106.298
61.0765
37.1309
18.2344
12.9927
-16.1189
-72.7279
-59.905
4.8889
17.2896
16.3167
72.8627
219.367
255.013
186.554
164.232
125.266
61.7768
38.2459
33.1876
2.56909
-54.1458
-76.4444
-52.9535
-37.9277
-56.4424
-91.0628
-86.4104
-52.9861
-49.6159
-42.5604
-66.7383
-156.226
-200.647
-190.107
-121.474
-20.4703
49.7126
112.861
136.564
151.269
136.001
82.8253
46.3526
57.2333
107.437
114.401
42.1048
-29.9406
-38.4564
-51.3487
-50.5906
-11.1618
57.9761
74.9498
46.322
-35.9482
-129.892
-210.91
-264.311
-210.502
-72.9631
30.8641
122.032
121.569
90.3748
47.4793
5.79189
-8.70953
-33.373
-33.449
-9.37449
27.053
70.1583
109.648
86.3041
38.2706
34.4708
73.0982
100.939
100.919
49.5036
-21.2799
-81.7913
-118.964
-139.096
-119.482
-49.2539
7.36272
40.6679
58.4573
54.4928
-18.8703
-81.4583
-79.23
-38.2352
12.446
8.37809
-3.33038
32.1069
6.7115
-42.0716
-65.3853
-95.7396
-71.6172
-33.1841
12.8519
108.501
162.714
197.77
190.154
156.239
67.1465
-79.9467
-145.776
-101.776
-30.8546
73.9925
129.539
85.4469
-6.8389
-66.8574
-86.6582
-130.21
-151.679
-169.834
-165.309
-162.479
-157.791
-102.412
9.73386
105.594
189.804
221.365
149.853
43.3818
-12.1397
-58.598
-88.1493
-22.9279
71.407
75.082
83.7735
110.144
100.025
71.9125
42.6964
4.30356
-11.0499
-21.6142
-44.6492
-91.463
-107.272
-56.58
20.0828
39.6171
4.01484
-31.0254
-38.7757
-1.46624
87.1201
120.221
65.0468
2.05429
-31.3477
-71.4258
-101.562
-76.7629
-28.6522
-22.5516
-49.5302
-116.792
-170.477
-105.712
29.1943
160.647
196.326
259.972
272.407
110.483
-67.0286
-135.704
-165.077
-155.472
-143.017
-100.548
-67.6399
-62.078
-31.9479
37.5856
46.4461
105.573
163.521
136.609
21.1701
-100.378
-129.342
-138.6
-133.694
-58.7892
10.5866
59.8662
102.246
135.138
146.477
137.583
122.842
101.629
22.6348
-52.6384
-51.8682
-36.9868
-26.5587
-5.80511
-38.3248
-82.8274
-61.7124
-24.7232
-5.44305
17.1782
20.0361
48.5328
117.946
75.3015
-24.5026
-60.5317
-30.2765
17.7977
71.1127
103.358
98.85
62.5069
-18.0853
-128.973
-176.406
-196.185
-211.995
-216.744
-184.209
-119.012
-29.1819
20.5883
57.1188
106.959
171.804
183.5
118.632
20.778
-41.4796
-82.1636
-74.0757
-41.3911
16.7726
56.4934
74.6598
108.735
121.932
112.944
153.288
106.698
-31.7478
-134.362
-193.424
-170.901
-30.426
149.785
251.615
160.491
58.6237
-3.87418
-29.1212
-21.5119
-19.5733
-3.73059
17.6305
-3.22367
-114.804
-225.192
-263.299
-157.383
0.684207
100.314
92.8056
34.9725
-28.4602
-90.5046
-98.726
-79.4429
-83.0218
-62.3006
-38.9444
-1.57906
64.3545
118.045
148.122
141.672
151.132
163.723
104.442
19.7177
-70.3337
-91.6762
-46.5047
-25.6986
-31.2386
-8.8557
16.8807
123.013
205.479
144.331
69.1418
-46.6346
-146.174
-186.927
-195.284
-177.635
-149.706
-119.475
-53.3911
42.8288
157.789
235.21
247.422
192.96
54.9977
-96.2462
-177.675
-177.655
-149.816
-121.959
-93.1504
-37.6942
19.4343
57.7878
69.5167
36.2769
-12.6872
-10.8191
45.414
69.5826
47.5764
-40.7803
-91.3755
-68.6714
16.0016
82.7656
115.732
92.2766
14.9312
-45.3181
-89.1267
-81.677
-33.2494
39.8198
159.573
322.795
374.594
245.227
148.679
62.7636
-67.3357
-186.14
-257.227
-265.215
-219.985
-130.095
-127.098
-198.326
-221.414
-93.1671
109.093
194.546
179.895
98.1429
-31.2257
-161.797
-186.403
-125.806
-88.568
-91.8414
-58.6939
37.5307
91.4936
120.969
102.341
41.8121
17.6213
62.5896
146.452
204.227
187.21
145.266
96.2719
67.5747
25.671
-33.4669
-35.0737
21.286
10.9885
-27.1293
-84.7205
-91.6705
-50.1198
2.47885
-10.5167
-38.7537
-0.9987
47.8826
36.7866
-24.708
-117.548
-200.145
-247.142
-225.447
-154.955
-72.0437
-31.678
12.7568
82.7173
111.134
139.766
127.558
134.661
123.054
53.9507
-38.0004
-69.6043
-58.382
-39.9862
33.0751
123.886
197.791
222.3
161.454
46.8907
-67.4985
-98.4167
-50.9214
-27.553
-40.5435
-38.4884
-105.615
-163.267
-113.448
-18.0252
50.4374
22.7563
-1.276
-11.5692
-83.7802
-132.345
-111.95
-98.89
-56.2139
45.8433
90.32
96.4582
36.9824
0.352943
34.5028
95.5636
156.978
160.485
95.3373
54.6567
30.6163
41.5827
46.8445
36.7163
-12.9896
-74.6712
-94.404
-94.2386
-99.8594
-93.6246
-38.4294
-12.6412
-2.29232
-40.4224
-62.3893
-44.7433
-27.5374
-68.5209
-104.966
-102.389
-97.3748
-87.4735
-46.8949
21.3526
76.2561
81.9269
108.908
159.288
145.995
159.551
240.348
275.573
208.891
125.525
75.6613
-29.0395
-116.609
-122.357
-113.58
-113.985
-105.253
-78.2335
-65.7021
-67.4033
-52.0216
-103.508
-141.658
-67.8521
24.1371
21.0444
-43.6524
-95.8814
-133.972
-184.244
-142.978
-20.6113
114.332
191.476
211.001
171.523
112.801
50.6795
5.35402
-8.81985
-20.8695
17.572
27.4729
-21.6568
-22.7561
-34.8744
-54.8895
-53.1031
-2.13902
43.3459
43.6712
38.0934
40.9012
30.0194
-14.837
-49.9821
-67.0446
-48.373
22.734
80.868
120.338
148.761
141.4
39.1556
-76.2776
-103.859
-74.6621
-24.6002
60.6864
94.7864
19.0251
-80.594
-155.897
-171.601
-83.3066
43.9752
86.7665
36.399
-64.9799
-110.981
-70.5921
-13.795
-32.7078
-108.59
-117.782
-0.0109731
116.746
118.642
33.4025
-56.3815
-79.1939
-40.4106
33.4305
83.4914
95.3428
92.669
101.917
93.2897
77.4702
53.9405
18.9131
-56.0673
-95.3987
-50.661
-25.0255
-73.9006
-87.8438
-38.4874
66.6299
226.229
316.286
258.572
140.425
0.996964
-93.6926
-167.847
-192.524
-186.387
-139.286
-33.4869
37.907
-1.79067
-46.1161
-39.0311
36.327
-20.1999
-161.654
-191.052
-156.2
-116.024
-65.4391
68.0994
170.687
141.465
58.0943
20.4032
32.6648
78.9273
100.307
16.5374
-102.609
-111.155
-39.5851
23.351
21.8859
60.0712
131.696
157.237
147.584
86.9122
14.8564
-53.9801
-127.464
-98.1077
-40.6012
-21.5701
-20.228
-24.0576
-48.8283
-63.4983
-61.7597
32.183
174.039
278.646
306.186
279.514
154.485
-34.8616
-221.937
-314.465
-318.14
-282.167
-224.797
-182.689
-130.523
-63.8229
19.8167
77.0219
81.7547
84.4058
117.773
127.159
66.1128
-45.6664
-76.6975
-29.156
68.9434
154.128
143.412
122.277
117.371
40.1073
-17.2556
-16.964
-2.82985
-34.3875
-79.5587
-79.8245
-21.8879
12.4666
1.83935
-24.275
-50.7491
-42.7749
-66.7116
-82.0626
-79.3756
-58.3687
-3.82494
46.9556
59.1709
48.698
28.4227
45.2223
35.5863
19.3524
70.637
65.139
68.96
156.432
231.397
229.076
126.632
-13.076
-91.713
-185.757
-254.548
-270.308
-240.478
-190.948
-151.075
-86.1472
-15.074
73.1057
130.024
121.692
62.2733
16.2852
-49.7029
-123.478
-176.168
-213.018
-142.632
32.2616
114.158
139.992
149.067
166.012
173.856
147.027
90.4126
37.2886
35.2658
36.0769
48.9864
88.2254
81.2595
71.6724
73.9737
15.3969
-46.1971
-63.4431
-86.6155
-92.2816
-61.7857
0.0920606
31.3805
-16.4715
-53.6904
-73.0916
-59.4111
-22.6191
-2.92124
-19.6202
-37.4147
-52.1551
-101.102
-89.7576
-51.2809
-43.1885
-64.3291
-67.8005
-71.5633
-78.4924
-76.3112
-53.3009
-9.64443
90.4327
257.347
378.902
325.816
228.965
137.251
19.0639
-81.2281
-122.985
-112.678
-70.1905
-45.3749
-15.7993
-7.04278
25.4978
59.95
6.2547
-52.4433
-79.5733
-116.183
-140.498
-212.771
-248.597
-187.134
-115.998
-61.9577
-4.57702
51.1589
108.93
124.862
104.864
74.0273
49.1354
64.8177
92.4314
119.223
144.633
106.892
62.9608
80.8205
107.763
101.306
42.6181
-5.29163
-61.1755
-121.041
-133.303
-84.4311
-7.18147
120.732
262.507
237.267
120.487
63.7033
-12.6996
-117.456
-173.741
-180.29
-168.65
-169.945
-188.459
-194.673
-175.261
-114.855
-30.7039
-0.0705791
0.596068
7.65608
-5.72471
-31.5063
-88.6008
-92.4378
-47.1191
-20.0032
-3.54682
47.823
98.9818
148.961
161.635
126.567
71.0589
14.9828
40.5747
154.724
243.603
309.703
348.879
311.4
149.535
-48.4591
-241.189
-284.757
-229.45
-165.113
-92.1674
-41.339
-40.211
-50.1201
-59.2078
-73.3974
-34.9596
-1.2947
-23.6258
-124.133
-226.875
-244.303
-162.431
-99.547
1.02673
102.866
169.377
213.734
230.145
181.184
86.3513
0.587299
-18.2304
-11.5596
-1.32508
6.5445
14.7121
43.6202
64.5028
37.3001
3.04834
-37.1501
-105.509
-154.86
-145.557
-43.4992
201.598
213.076
164.436
47.9965
-26.8346
-78.213
-92.3487
-95.722
-135.933
-197.045
-197.157
-119.772
-20.5559
78.4268
191.058
292.077
265.709
156.447
43.1822
-80.8386
-149.874
-132.008
-106.237
-58.0653
-3.2735
11.7022
39.9521
79.8247
48.3435
17.4171
37.5534
14.921
-63.5453
-141.14
-191.711
-165.598
-36.3521
64.9294
58.4621
61.1985
73.6564
40.7576
15.4484
18.8118
41.8062
65.5345
37.9807
26.7002
32.4532
27.6684
26.5
19.3626
-14.3904
-49.8224
-43.8123
-35.5887
-3.31226
63.3211
96.6178
41.0754
-17.516
-28.732
-26.3788
-46.0685
-30.7816
3.70498
-4.37848
-37.8937
-32.126
-28.93
-47.8505
-68.4894
-50.8426
22.6496
100.786
93.8493
42.9893
-4.91424
-47.8374
-95.8058
-135.967
-171.28
-119.593
5.90925
85.52
119.318
141.761
120.767
59.8665
-8.68122
-43.6075
-3.77913
64.5772
56.4963
-40.7809
-105.262
-89.0778
-34.9195
37.3969
98.2488
135.451
139.573
110.395
50.863
-39.5989
-100.748
-89.7354
-52.8351
-10.5226
36.7683
56.2131
10.4094
-28.8409
-52.9999
-89.761
-97.6684
-88.3712
-62.5753
-23.5926
21.9823
18.3879
-24.2823
-11.6125
9.56906
16.356
-3.19335
-30.7129
-14.8818
54.3783
112.896
112.399
93.7974
35.7921
-35.3237
-60.6561
-24.0806
14.8322
-21.5677
-112.153
-135.824
-54.3023
53.5003
80.2882
102.322
154.113
170.564
132.379
80.9871
-54.3904
-74.5607
-2.5643
-13.5694
-66.2352
-66.3023
-45.72
-46.7904
-80.757
-74.3681
-45.0763
-41.2419
-46.9313
-48.406
-72.6412
-114.687
-128.093
-100.697
-52.4335
-16.1799
61.7459
74.272
62.6726
76.4205
87.944
57.6815
43.7573
69.2231
131.173
176.641
191.346
191.974
171.623
96.8853
17.2109
-39.2846
-116.92
-177.097
-202.006
-177.645
-57.9394
9.46566
6.59044
-3.87383
-20.4239
0.895636
32.9138
-26.6316
-87.7416
-102.11
-91.7798
-79.5423
-66.0438
-23.2947
17.0241
53.2413
56.4561
9.47917
26.002
42.8984
-7.32272
-42.5248
-50.2902
-33.7915
29.3209
90.0718
99.9804
96.7781
108.829
139.19
130.472
82.8377
38.3492
45.5152
17.3821
-72.1147
-110.85
-101.3
-83.293
-61.1285
-43.7847
-40.3059
-39.515
-49.2842
-46.3324
-44.5205
-57.0651
-54.1796
-58.6118
-63.7458
-17.7224
-0.581134
-12.4852
-26.2887
-5.71597
43.3031
78.7074
121.183
136.322
105.209
84.4624
71.2387
52.6144
40.8348
-6.09381
-67.015
-80.75
1.1801
78.6561
55.2805
0.730005
-22.3372
-53.1696
-75.5179
-61.7535
-31.7561
-19.5916
-24.8553
-24.082
-19.1602
-18.1641
-12.3433
-10.902
13.7602
28.5671
12.8119
15.1498
-7.4565
-54.9585
-64.9529
-54.4627
-32.9043
10.5549
19.381
18.4465
15.1402
21.8949
46.2828
55.2881
71.867
73.9272
58.2294
25.4636
7.60142
0.629878
18.3669
13.6162
-10.948
-34.955
-39.779
-50.8992
-49.6749
-59.5468
-65.1084
-72.6099
-61.5037
-29.9472
25.0231
24.3058
11.8
24.1011
50.4303
85.7463
93.1552
77.4981
45.1698
19.6603
-10.5695
-46.949
-30.1673
3.95605
-4.88429
-16.5158
0.97495
5.64405
16.0343
2.41971
-37.0378
-55.079
-57.3329
-59.1047
-68.1124
-74.2297
-49.5871
-16.095
45.1185
81.5232
72.4535
51.1363
11.2348
9.58164
48.1277
15.133
-29.2512
-48.7876
-72.1526
-38.0034
2.4729
-6.72912
12.9466
70.1821
131.157
129.314
87.1049
20.6831
-65.3117
-95.6673
-85.5744
-112.204
-92.1316
-33.2737
5.60744
45.107
78.978
86.7885
75.2468
63.9622
52.9618
28.4233
-6.40029
-62.2867
-117.67
-119.374
-109.575
-66.5038
-0.108099
41.009
65.7384
94.6798
122.225
121.591
71.7726
-1.02549
-62.6427
-54.6357
-24.9741
-44.7205
-74.6303
-77.0451
-73.454
-63.8374
-37.1753
4.44245
26.5276
35.7375
48.6555
25.3704
-14.9673
-32.0861
-73.1132
-82.671
-20.0568
56.7969
97.1793
110.893
126.384
123.923
66.9829
48.5258
20.3918
-15.2099
-34.0227
-37.9416
-48.7099
-76.9916
-95.0513
-106.906
-92.6193
-41.4517
-22.405
-25.6466
-9.71242
-12.7905
-33.7582
3.71034
87.6661
111.842
89.0072
55.2585
42.8915
32.1326
0.803924
-14.5351
21.7981
63.875
43.6668
10.5461
2.52812
-17.817
-45.8981
-86.8957
-134.086
-78.5267
41.7526
51.1172
-1.28781
4.00389
69.3674
59.0097
9.78742
4.56815
-1.34432
-31.9025
-52.2696
-36.4498
-16.8672
-20.383
-31.5452
-24.7861
-1.39666
7.96764
1.66742
0.872898
-1.87946
-42.4112
-109.992
-142.117
-104.799
17.4994
165.921
240.434
205.346
137.038
92.9929
36.7798
-15.5054
-27.6954
-13.2483
12.9866
3.43541
-32.0642
-62.9911
-116.365
-144.615
-135.312
-94.7994
-49.1237
-56.2512
-36.2656
-29.2013
-60.0958
-53.1582
-21.5478
-10.9004
20.6596
96.1629
202.205
197.237
118.039
78.405
69.418
103.607
107.079
42.2883
7.36441
-24.5802
-60.7721
-60.5661
-70.1797
-96.7955
-94.8943
-73.4814
-63.5781
-38.6331
-20.4473
-17.5187
-46.7794
-36.4143
5.77047
34.6903
53.5693
18.509
37.795
47.6993
27.5042
11.1666
-26.1561
-39.7946
-21.7874
-40.7752
-37.9303
0.859337
43.2328
64.6143
58.749
29.7444
-6.56071
-24.184
-22.3693
-16.5382
-36.8284
-0.285137
30.181
29.1393
47.7445
60.6911
33.4022
15.7803
-1.87406
-17.721
-38.6779
-67.2062
-83.7998
-62.1814
-31.4801
-29.0169
-16.6424
-4.75914
4.54882
14.8817
24.4046
13.0958
9.01656
2.67492
-3.89364
-0.288187
27.8999
44.401
40.3458
24.2008
6.56254
24.9011
44.5937
38.2426
8.87291
-25.9434
-54.6913
-44.5416
9.95763
80.6183
94.8215
46.8108
-43.3591
-78.1495
-64.3759
-68.4825
-75.5565
-59.8762
-62.1475
-25.8577
24.3314
43.7888
25.7999
19.8095
46.5816
88.2408
37.7303
-35.3486
-85.0789
-91.7276
-57.0291
63.9481
222.014
244.427
98.7492
-5.35723
-24.808
-54.4604
-74.9607
-97.468
-108.652
-91.2319
-53.5559
-45.974
-17.7088
-8.28273
8.53131
41.428
37.7772
-13.9068
-43.5468
-73.3538
-143.109
-156.982
-87.1598
-12.3171
40.3965
99.5824
153.979
191.798
170.753
117.088
65.3807
38.0674
-1.05488
12.2675
50.4424
44.2262
27.8746
8.61878
-24.7248
-69.4605
-86.7828
-57.3177
-13.7765
-8.5402
-19.4125
-40.2886
-85.8617
-114.158
-101.307
-59.3626
-15.6248
15.3729
43.2859
57.3631
37.3171
42.1205
57.9833
76.4928
86.7904
42.8702
-2.16723
-29.6864
-47.7484
-56.4409
-66.1076
-62.2411
-29.5091
1.87249
9.18342
12.2235
12.177
5.12845
-4.50136
-35.5534
-16.5316
1.37189
-15.1706
-28.8948
-32.994
-16.9653
14.1837
42.0376
86.9418
121.785
120.652
80.7503
26.61
6.05646
-6.54377
-40.9021
-60.4562
-57.9418
-28.284
-5.9508
-16.8569
-27.9036
-60.1876
-77.1541
-7.9411
89.0566
92.4235
52.0471
7.46784
-18.4629
-30.2744
-39.1141
-36.1814
-33.5022
-26.8269
-22.5904
-10.2524
-8.69342
-17.5611
-14.66
-10.4524
-47.9072
-69.4239
-65.1962
-63.7721
-26.0106
47.8968
81.4884
128.112
172.237
158.357
80.1472
9.85385
-28.873
-15.4578
4.89269
-14.0265
-25.2571
-39.5416
-48.2011
-35.9309
3.59965
64.3939
80.2084
30.8462
-28.1673
-62.8593
-64.0948
-54.8013
-64.8208
-53.1087
-18.2611
10.3665
29.7177
10.4398
-1.57589
4.27161
-3.67699
-13.7315
-17.8867
-7.06451
17.2184
12.9169
-1.23503
-21.8162
-53.3046
-46.3017
-20.1671
-35.6993
-13.894
17.7953
51.6317
92.6409
96.0123
70.1271
49.5104
26.7491
4.54681
-9.4534
-4.8629
18.3012
21.1161
14.8274
41.803
48.7414
25.0066
-13.9668
-50.099
-65.5158
-108.224
-156.64
-140.886
-60.9944
-39.9569
-36.9091
-9.62502
56.8375
137.559
164.558
154.433
92.0221
6.07481
-48.6549
-63.3602
-55.7896
-52.2572
-58.5953
-48.5985
-32.834
-40.0164
-55.0775
-39.5867
-9.97779
47.7985
94.3154
130.548
170.487
95.5078
-42.3103
-119.157
-110.488
-65.7885
-21.419
-13.318
7.83088
20.8227
0.526454
3.47651
9.50514
30.2317
80.4315
100.713
63.014
15.4203
-1.72556
-18.0433
-61.3265
-54.1574
-20.0393
-23.9128
-30.6653
-20.7482
-32.8603
-57.791
-54.0909
-25.3567
8.71505
25.4287
58.7753
73.7288
39.8231
7.85014
-29.8677
-38.5976
-15.7384
-17.2198
-29.7445
-29.7684
-26.8705
0.940199
23.2573
66.5084
110.672
97.8874
63.4679
30.8924
-0.414721
-73.9184
-97.7566
-78.9689
-20.976
42.4486
56.9475
24.3856
3.08848
2.77047
-39.9742
-74.5429
-44.6095
-32.0347
-24.1945
-25.4822
-8.83967
9.845
-2.31281
-36.5818
-73.2061
-14.5099
48.7006
48.6426
12.7347
-26.7871
-30.7689
1.79921
16.7926
21.6044
62.5511
105.796
111.129
94.063
51.736
-7.69483
-53.5835
-65.1877
-44.6257
-8.54737
36.406
45.7063
33.4886
47.3171
40.3568
8.07066
-15.6237
-31.3516
-47.2427
-72.6282
-90.0281
-79.1488
-75.6394
-48.89
-29.1341
-14.9708
-4.39215
26.1202
62.1443
84.4349
84.093
42.7158
-40.8763
-91.4838
-29.6911
34.7217
22.2733
-1.5551
-59.9794
-131.483
-120.304
-44.6618
37.8564
115.555
201.49
204.306
111.572
19.6625
-35.1785
-69.9006
-69.8327
-38.8083
-4.41841
7.14321
-26.7303
-42.8505
-30.3217
-36.8277
-28.3678
-11.0496
-43.4784
-61.6734
-51.5059
-38.055
-23.6134
28.4844
107.19
104.865
39.8289
11.1613
16.631
28.8639
16.8536
21.1469
20.325
6.97461
1.53339
-3.25597
17.9585
86.7412
132.228
65.8553
-19.3199
-78.2499
-143.306
-172.227
-148.638
-100.973
-43.4709
-7.86851
34.7892
82.5789
108.994
111.349
77.8762
-13.8948
-87.1808
-110.998
-63.5349
-2.04546
22.5646
71.5649
158.465
166.676
80.5412
-29.489
-74.9562
-56.1723
-28.1396
-35.6096
-65.2377
-76.2689
-75.2594
-92.5905
-60.6355
15.77
67.9632
92.9422
65.7134
13.118
-10.6885
-23.5129
-77.7689
-95.9008
-40.6145
27.0622
50.4869
67.992
69.3948
47.2579
12.1445
-60.4535
-76.1564
-30.254
18.1981
63.6042
103.67
133.563
108.783
30.234
-22.4032
-54.4309
-55.7253
-63.0749
-63.7738
-30.9787
10.0112
30.8976
57.1801
97.0844
106.701
72.4511
20.9389
-16.4063
-54.3546
-106.455
-139.561
-139.816
-120.395
-87.3182
-75.0321
-80.7078
-46.549
37.0426
96.7596
81.5399
32.4082
-11.8205
-53.8155
-54.3312
-15.1322
20.6243
72.2802
83.5344
76.4584
65.2905
51.6581
40.9552
47.2488
51.8139
38.1442
14.4415
-49.7378
-124.228
-144.386
-49.1833
38.1104
58.8945
79.3681
65.0809
18.2295
33.2672
35.1779
15.615
0.717258
-2.09218
8.11265
0.840793
-8.77261
-15.3229
-18.6148
-14.6132
-14.993
-19.8949
-7.86367
-23.7162
-13.7835
12.7035
35.2731
38.7132
17.3248
-28.5034
-70.4726
-101.857
-106.305
-99.0199
-92.4897
-69.6733
-30.997
32.577
93.1485
95.9112
74.8913
55.1915
29.0838
-2.26808
-53.0077
-81.1109
-97.3004
-113.357
-54.5195
43.0146
99.6855
136.433
153.411
188.463
170.593
86.1235
0.959841
-55.8267
-83.3538
-89.164
-45.2988
-36.1703
-6.48002
41.5087
66.3693
71.1284
35.3311
-23.2476
-47.6152
-96.4407
-147.22
-159.065
-131.52
-90.578
-53.021
-8.027
36.1096
53.981
51.395
68.5988
84.4448
99.4542
71.4224
16.7824
-7.3561
-4.70582
2.58692
21.453
12.3633
7.95956
15.8285
26.2939
19.5934
-12.2184
-8.1221
-1.61495
-22.5447
-38.2712
-45.2023
-18.5806
23.1029
45.024
22.6107
-15.8995
-33.2403
-18.0358
-4.87438
2.01432
-4.73702
-1.36819
12.5802
17.8562
8.67035
-14.581
-30.9659
-14.6022
-10.0264
-2.10563
-5.51672
-28.4608
-42.3178
-40.7162
-25.2786
-33.151
-68.7221
-76.5236
17.0616
102.086
92.9416
65.9371
66.6509
85.263
33.1227
1.33908
-3.5233
-16.303
-5.73028
-1.51297
-11.634
-20.0122
-41.2698
-83.3114
-97.4742
-56.2291
-3.80883
10.4611
-12.1172
0.394775
38.8907
68.4066
49.6509
20.8531
34.4231
31.0423
26.9749
33.9208
46.6498
48.9412
47.7423
26.661
5.56659
17.4227
37.0877
33.2724
35.5975
49.4686
22.1173
-45.315
-82.8807
-115.748
-120.667
-121.36
-111.776
-73.045
-40.4037
-17.5652
-20.4084
-20.2942
-15.4612
-6.68933
3.56304
29.8081
38.8597
-4.2359
-8.11602
-8.24621
-5.61534
15.25
43.7401
66.3498
58.747
25.4506
31.7286
31.1387
28.2721
27.1505
24.6191
9.6962
24.107
41.4103
37.128
29.7984
-14.5156
-16.9743
-18.3013
-26.8936
-33.927
-65.3722
-81.1945
-73.513
-24.7207
80.4452
169.352
166.956
109.8
-1.67221
-64.1126
-39.0686
-16.8403
-9.39169
-40.9376
-98.736
-116.639
-101.897
-90.8346
-37.2596
32.6284
33.6984
27.8648
49.4698
24.7853
-21.971
-48.4123
-62.4585
-67.5688
3.63917
63.3239
45.0844
10.9732
-6.21836
4.61216
52.2489
75.3348
61.2869
47.4079
-5.04345
-65.1362
-61.5125
-24.9662
12.6625
42.0451
30.3163
3.16443
-8.06327
1.07652
15.8534
23.5282
32.3144
40.9901
20.096
14.0609
-7.19597
-9.52857
9.02642
18.9179
20.514
0.687835
13.4076
16.5336
-27.2046
-48.712
-55.432
-62.9667
-39.1264
-43.7861
-29.2535
-20.5788
-35.7479
-45.907
-32.8712
-9.75035
13.1004
25.3592
40.3036
43.617
47.6729
36.1238
29.3384
37.3432
41.3064
35.4175
0.140269
-85.1735
-106.344
-63.0144
-53.1827
-72.268
-67.0404
-41.1378
-0.915359
26.1489
46.858
80.6463
87.0899
84.9783
73.4586
68.1079
58.5026
47.8004
64.3306
24.6857
3.67372
7.63387
-5.72219
-20.0983
-22.8317
-15.9965
-8.16008
-19.0218
-51.437
-51.8021
-37.0299
-35.7555
-55.5623
-65.6975
11.7432
72.3016
46.1823
-2.12858
-49.1243
-42.9419
-32.4232
-31.6516
-27.3357
-5.15626
-12.367
4.73771
20.6652
33.8879
50.7814
31.1347
2.86107
19.5783
31.5634
13.2476
-47.0609
-82.1682
-63.3084
-49.9374
-32.3995
1.0662
39.8816
78.7863
60.8882
44.2336
45.4566
40.1851
25.6772
5.6871
-0.469051
-16.6675
-56.3947
-64.7758
-27.5704
-1.30045
-12.4918
-28.181
0.927984
55.6151
43.4842
19.1314
-2.9884
-15.6676
-3.1786
3.26988
2.00037
-10.0514
-17.0038
14.3
40.4158
56.9996
80.3636
69.295
45.9123
56.8746
46.8863
9.06933
-54.205
-123.712
-113.842
-76.2913
-65.4343
-50.5385
-55.5453
-77.0968
-48.8583
-40.9903
-28.7611
-11.5574
-6.54103
0.906362
19.4943
22.3411
8.84477
-8.00788
-15.9494
-4.03762
43.4539
70.6946
75.0082
82.9207
52.1881
9.57795
1.73377
63.2605
129.028
126.254
93.1937
59.8809
-8.12741
-61.6704
-62.785
-55.5884
-53.6889
-55.1889
-48.7768
-25.0034
-28.6276
-32.1745
-31.1833
-37.6489
-14.1325
23.855
64.7531
43.2055
-31.2212
-67.415
-53.3409
-50.3522
-37.3818
-19.0668
-23.439
-30.1288
-13.9303
-13.4842
-37.9957
-55.8801
-41.4557
13.7091
61.6131
56.489
68.3504
92.0039
47.1234
9.75949
-0.658075
24.7229
41.9783
53.2274
82.984
84.0893
54.6492
28.9891
2.15248
-29.7001
-26.9342
-15.969
4.58419
-38.5616
-127.768
-152.123
-122.413
-83.6836
-12.8923
33.3642
26.7546
34.2318
27.5927
0.423742
1.38104
17.8143
36.9157
54.7137
53.788
46.5531
48.2276
28.3498
-20.427
-37.1206
-7.50599
9.4346
9.37185
-16.028
-30.5126
-40.702
-43.8283
-62.1071
-49.6171
-29.2151
-16.7582
9.44085
20.3091
21.0369
38.5542
66.7132
57.2395
49.7841
50.2409
32.6191
15.1507
-26.629
-93.2445
-90.6879
-19.4952
30.2061
23.8578
8.1479
1.81516
-9.32408
-11.4671
-7.39734
-5.10159
-22.0359
-33.364
-34.2211
-39.1388
-58.28
-36.1208
11.7531
55.0013
