-180.259
-157.116
36.6324
76.9567
108.406
26.7474
-6.8352
33.8347
64.8372
-37.8921
-53.0537
129.417
217.849
142.359
-31.4648
-63.0366
-39.2296
-49.3093
-213.255
-79.1791
165.417
104.355
5.09555
13.7977
16.8226
-0.778458
-58.116
-203.243
-47.6354
145.213
77.6194
-5.60955
-22.2714
-66.9729
-151.559
-234.105
16.6578
70.2689
134.808
59.4955
-34.4438
-63.5497
-233.942
-334.555
33.5777
97.2883
65.6785
178.056
120.955
73.0112
-21.7127
-105.329
185.436
171.943
116.96
120.887
-14.3915
-40.41
-10.6429
-121.938
-253.079
-9.25371
61.6715
145.538
-53.2566
-76.3066
6.67842
46.4269
-166.603
-162.495
232.15
266.721
70.2646
6.78957
-25.5237
2.54771
-138.382
-159.079
95.4023
116.282
129.43
-66.9617
-110.111
-81.186
-233.164
-297.312
-51.504
111.586
159.684
158.115
12.2982
58.7813
25.1213
-41.9442
-199.999
-16.7823
255.824
221.052
45.7064
28.9844
10.8532
-80.728
-173.229
17.4949
117.657
106.081
-7.05805
-55.0611
26.0526
36.6446
-102.843
-220.073
24.4956
136.765
198.335
57.2726
-102.71
-62.1626
-109.874
-188.067
-241.734
7.07405
111.876
30.9662
-8.64945
12.9205
2.86106
-86.2749
-96.6985
158.243
190.647
236.997
60.8647
12.3603
56.5069
-92.4573
-170.651
44.3747
8.82342
-4.61635
-0.935887
-139.597
-120.797
-304.16
-200.653
192.793
185.895
158.856
140.161
-5.90072
7.56006
-35.2777
-62.0027
84.9528
77.2068
93.577
48.2123
-53.8537
-41.6509
-8.61603
-160.494
-231.989
19.2496
107.04
99.2387
-61.4044
-69.8958
-36.3
-58.8287
-167.242
-121.989
220.623
265.45
95.7601
57.6864
39.001
-14.9042
-87.1208
-207.847
-195.567
161.643
110.244
-18.9039
42.8465
33.3139
-33.0393
-68.9929
-134.766
122.054
187.275
177.299
68.2984
-20.3786
-33.5386
-137.392
-162.58
61.7431
66.1995
124.204
119.276
-4.20823
-63.4397
-192.432
-86.4547
39.3597
-1.26419
39.2198
94.0825
0.825225
14.7212
19.7154
-171.892
-146.296
126.303
214.549
192.231
11.1255
-32.7839
1.11583
14.2118
-147.68
-146.35
15.9895
-9.82181
-60.5496
-58.9631
-23.863
-24.8227
-175.997
1.69213
80.3022
196.716
188.128
8.73862
-25.1475
-105.225
-214.313
-28.098
-30.5824
-28.4834
20.0901
-26.7664
-96.3136
-167.443
-191.058
62.7067
166.662
168.169
181.046
81.0478
77.3229
32.8829
-108.719
57.1785
103.461
94.041
67.6794
-36.7018
-14.0832
-25.08
-32.4059
-154.996
-190.299
82.7336
113.854
-3.46617
-50.5823
-27.1703
25.6112
4.63383
-126.965
-35.5465
123.827
116.632
63.3279
54.7536
30.2543
-51.8099
-37.7709
-110.581
-282.233
23.1304
128.839
39.2974
48.7698
-8.9988
-13.9345
-16.7036
-96.8256
-14.4219
119.746
177.751
164.39
-35.8026
-78.2532
-66.3533
-164.637
-36.606
16.4095
53.5492
131.999
-27.6213
-109.398
-219.769
-239.099
-1.86241
76.4511
106.489
142.657
81.711
57.3532
59.3203
-7.43322
-231.455
-55.1898
186.027
199.188
69.5269
38.4468
42.7345
53.4926
-129.362
-276.787
27.1028
61.1685
-56.0157
-65.2241
-29.1106
6.65293
-160.745
-134.673
157.775
195.049
229.171
74.4115
-41.0728
8.54244
-136.321
-229.011
30.908
158.036
134.421
120.987
-15.6373
7.75957
-36.9983
-89.0373
-232.556
-70.2131
210.985
178.843
65.081
69.1556
93.5084
30.0362
-187.972
-97.201
110.693
241.844
85.2295
-1.20213
9.77869
-20.1388
-120.625
-107.824
-236.204
-257.067
66.9348
72.1194
-57.6917
-51.7798
-73.1086
-43.8153
-41.9546
-118.535
96.3185
68.9235
3.0151
-8.50384
-54.0143
-86.1677
-172.703
-304.677
9.37521
184.578
170.221
169.006
79.9664
-41.1872
-130.679
-217.442
96.0179
138.213
133.369
152.927
138.208
105.395
-5.19672
-126.303
67.58
55.1472
59.8357
133.748
-59.8456
-133.355
-184.151
-244.53
-143.015
-9.00007
156.387
198.882
32.9607
38.0657
58.4814
44.8603
-168.021
-154.324
124.894
173.785
9.34076
-41.192
-39.3195
-8.10044
-114.3
-247.135
-51.7428
154.55
77.333
1.04127
-55.7785
18.8186
-16.3867
38.5993
-40.9383
-126.115
178.378
281.869
73.8576
67.6211
-19.9365
-45.0325
-99.2886
-268.273
-193.011
158.51
135.256
94.7599
28.3485
-35.7789
-49.0987
-117.031
-56.0013
109.649
160.686
198.657
87.5924
-32.4269
-79.6809
-90.4762
-231.496
-123.591
117.354
201.418
92.4896
-41.6996
-24.8063
-7.00993
-28.9158
-121.363
-47.4768
162.227
99.2778
-0.0853498
24.4884
46.4448
-15.236
-132.792
-139.585
34.1275
111.845
44.6716
-84.9675
-40.9248
-61.6732
-242.88
-80.8083
62.856
73.0096
99.2575
54.6894
42.931
-31.4229
-117.142
137.095
129.604
49.2678
55.6093
1.17735
-83.0566
-124.098
-144.243
1.31447
0.74995
11.534
76.4844
10.414
-39.19
-84.928
-217.42
-196.558
137.48
358.503
343.067
159.403
49.37
15.0772
-2.94357
-123.507
-247.636
-91.8821
181.37
-9.96085
-77.4488
-98.506
-44.1744
-50.5016
-71.1131
-81.3623
128.812
160.486
-29.5534
-99.5258
-50.0617
-59.2472
-23.1213
-117.949
11.5266
67.5776
126.275
109.457
-47.9795
-82.9793
-141.204
-134.009
80.7793
99.8439
87.9687
187.043
161.279
74.7167
-86.705
-158.187
97.889
100.405
86.4307
109.623
10.5215
1.5671
-47.4891
-187.752
-142.709
31.1848
41.1703
16.0017
-96.5222
-99.4581
-54.6255
-62.014
-252.472
-26.6727
259.115
229.337
107.827
59.2819
32.378
16.2329
-157.7
-100.572
12.8028
45.2572
-37.4296
-156.202
-113.956
-77.1897
-175.384
-35.6858
62.3195
100.822
239.471
97.9999
-11.9968
-27.8301
-240.792
-92.8387
180.054
169.91
122.478
11.4692
-74.5345
-49.6976
-134.979
-299.168
-379.535
-45.3945
71.1706
74.7015
48.4594
87.489
145.304
107.644
-50.357
-155.988
303.103
318.707
105.943
41.1773
87.7796
63.7201
30.3335
-86.5787
-22.5339
238.006
261.503
75.162
63.5008
42.225
41.1404
-26.49
0.935821
63.9638
39.4156
130.047
-7.28627
-98.3414
-161.841
-315.043
-228.303
-39.8828
-74.1274
-2.94111
-59.045
-179.088
-254.581
-397.328
-100.886
-89.6405
-93.3355
36.3529
48.4173
-7.15688
-45.8196
9.20047
205.069
161.144
107.898
186.646
145.359
7.72675
1.52234
-87.3149
-117.04
-11.4377
203.883
150.606
-33.6218
-48.2888
-36.0779
6.60111
-71.8958
-258.878
121.883
318.659
108.641
50.6315
31.6818
41.9571
-29.0511
-292.396
-268.199
203.491
224.275
51.0294
-64.6639
-45.3578
-102.779
-70.587
-66.7065
-128.655
100.297
203.277
55.9231
-23.1998
-41.1403
-3.8742
-57.8875
-218.535
-87.2428
211.325
186.979
17.0697
-44.108
-93.1483
-137.566
-256.462
-152.338
129.473
136.434
194.966
141.554
111.419
14.5798
-26.0018
-139.774
-101.305
114.491
191.423
111.522
12.884
17.9457
-34.2472
-143.146
-272.008
62.9703
166.035
51.3286
-88.1076
-103.099
-62.0021
-132.478
-175.245
95.2758
105.414
162.847
147.362
46.4344
83.9305
-49.0365
-192.871
60.0352
49.7107
93.6616
110.549
-96.6643
-90.0116
-251.625
-334.193
105.034
198.925
197.5
194.819
-28.0076
-78.7338
-95.1341
-81.1711
95.5923
95.3928
118.559
133.515
-35.463
-77.8193
-20.5203
-87.3837
-205.964
-86.2589
158.253
151.609
-63.1014
-65.2785
-37.9794
-7.22086
-47.0748
-115.521
-120.963
0.21074
222.587
179.877
94.9156
70.3785
4.46471
-24.6665
-161.272
-179.244
124.182
27.2091
-43.2296
-18.6306
-73.3907
-86.3548
-170.294
-152.661
82.2379
158.375
226.489
182.782
-56.5173
-59.5863
-130.796
-166.708
44.0851
67.6648
128.658
190.071
-7.51066
-101.446
-198.813
-232.709
-18.6294
29.0677
114.721
164.776
-1.76328
17.2126
76.7946
57.0222
-249.771
-122.239
212.386
248.298
61.4622
31.3584
47.5391
57.8471
-161.472
-227.278
76.1615
119.144
-55.0335
-75.9641
-10.9588
-6.26193
-222.315
-51.6202
109.18
106.317
173.352
107.388
-21.9048
-46.4194
-224.594
-53.8203
42.6389
38.2748
8.35892
18.7235
-103.229
-167.587
-276.983
-10.3718
99.1615
126.854
157.898
108.121
80.3511
119.773
150.625
-12.7569
-47.07
46.099
29.1733
-54.6919
-55.1482
-65.8643
-52.9583
-22.3768
-166.268
-206.115
19.3506
51.3431
4.45475
6.0511
34.1974
29.9375
6.69469
-56.2073
71.2139
181.314
78.8851
16.2399
21.393
-34.1632
-84.7898
-145.401
16.7816
-24.1739
-27.7703
96.0313
55.3477
-69.0059
-127.95
-123.775
62.0416
44.961
47.1015
130.199
63.4785
24.8102
-105.511
-196.267
163.745
163.296
135.394
134.699
-28.592
-66.9407
-156.371
-235.404
15.2077
53.9668
85.9304
60.0708
-19.4644
-6.3437
8.89463
32.6228
-131.558
-93.5595
228.356
252.658
-8.13158
-54.7088
-23.2215
-10.3271
-175.557
-303.945
102.178
208.424
11.9125
-76.014
-63.4877
-46.4154
-137.168
-168.713
-43.8827
171.981
292.346
208.606
39.0377
33.9516
-69.0456
-89.9686
-140.835
-142.062
100.675
159.918
-40.3101
-16.8202
-60.4423
-96.5843
-161.391
-58.6393
104.848
85.4945
-4.37703
-40.7348
-0.406095
-21.6543
-221.778
-102.784
137.337
196.383
215.387
188.511
47.9773
30.2986
-68.0792
-122.964
-269.342
4.04161
185.393
108.872
19.6342
52.9911
30.638
-51.4558
-205.365
59.5783
146.978
70.9617
-98.3387
-119.257
-55.534
-131.688
-228.125
38.8385
23.0833
56.7248
116.712
-47.0443
-35.5394
-115.748
-181.431
71.1896
86.1017
112.741
228.823
104.023
87.0688
-84.6
-233.462
84.0524
104.571
130.046
141.399
-64.2726
-107.234
-104.483
-175.929
-245.87
138.933
210.3
167.216
37.8807
5.83039
48.5837
117.481
-52.2355
-100.528
111.956
143.163
-100.677
-124.824
-93.4221
-69.698
-101.922
-116.358
-304.736
-38.6521
227.198
-4.61541
0.413483
43.8079
24.0944
41.0673
-117.919
-110.295
235.686
272.375
141.066
77.1791
-51.9844
-43.1823
-64.4957
-105.753
9.54734
-17.4881
110.55
59.3263
-93.9249
-158.676
-187.728
-116.983
-14.2245
45.6722
152.171
154.507
6.98229
-7.43019
-173.78
-222.794
58.6237
190.172
186.883
139.061
-14.0784
-30.9397
10.6834
-29.0922
-199.521
-146.662
116.383
75.0228
-14.3406
-16.4219
56.21
71.5193
-67.9534
-28.5403
143.992
131.033
-46.5693
-111.735
-52.2318
-44.5259
-274.613
-196.461
125.34
129.539
139.024
85.1214
-16.3624
-28.6827
-182.124
-80.3641
178.292
191.55
165.549
93.2468
50.9157
33.861
-214.656
-203.345
54.4045
62.7865
63.9716
-1.53626
-120.443
-89.3896
-62.5954
-209.518
-68.4557
133.7
157.955
107.557
6.54953
38.1276
43.0115
11.4501
-88.2272
-136.489
91.0981
110.966
-12.9129
3.07666
45.7832
-20.9264
-99.0393
-183.101
-196.525
170.935
108.876
-12.3996
1.22608
-5.4973
-30.9413
-133.797
-119.672
175.778
204.397
184.168
76.5066
4.05605
-59.2923
-132.599
-99.1667
15.4101
-43.6955
38.657
103.572
-19.4561
-72.8043
-188.384
-144.685
93.3661
79.548
175.852
196.81
-2.63498
-13.0931
-77.4013
-297.743
-133.051
149.803
170.784
124.929
6.27352
-37.5471
-13.0131
-16.2788
-174.815
93.7444
156.38
132.933
1.05974
5.9304
64.5622
23.9559
-185.008
-5.16221
79.2539
106.171
-14.9063
-186.159
-168.932
-216.997
-353.452
-169.818
25.2194
274.399
235.902
16.4276
2.12722
43.0206
31.332
-47.4066
22.3856
152.27
129.125
5.32125
26.2526
70.0937
22.0772
-139.846
-79.8854
64.988
68.9132
-8.84892
-83.8715
-151.706
-47.6741
-96.5184
-174.601
-50.1669
71.2794
138.626
108.448
88.7646
113.381
64.6426
15.2882
-151.473
48.667
139.657
78.3649
2.03843
-11.9136
-72.4757
-114.088
-230.988
6.2202
59.3808
109.411
47.215
-33.1245
-0.270694
-66.3535
-143.795
119.214
102.458
51.4444
125.616
-31.1642
-59.9089
-108.937
-145.508
28.8046
-23.534
-24.1064
47.5983
-46.358
-45.0957
-85.3247
-96.7467
50.6078
61.5465
169.138
199.146
49.1434
-9.27103
-105.817
-310.536
-90.2328
87.4192
237.102
169.155
30.2529
-24.164
-28.5562
-14.7118
-211.472
-162.922
209.65
165.565
1.41554
19.8401
55.5929
34.7828
-34.1886
-50.723
-63.6302
235.544
109.421
-15.5217
-104.15
-111.791
-162.232
-209.001
-245.375
-62.3022
180.892
144.672
-6.1182
-17.8209
-26.5037
-17.5947
-81.2888
103.679
101.5
81.8707
158.966
95.1453
-53.5768
-147.033
-175.386
50.1214
23.6188
56.1115
87.86
15.201
-16.4252
-54.5246
-211.561
-93.2934
-4.78099
211.922
270.119
154.875
70.4386
12.7155
49.5118
-90.4244
-111.828
59.4866
29.2621
-88.0092
-106.798
-96.5068
-88.0738
-210.498
-73.5309
53.4956
96.9684
37.2873
-20.6142
-100.354
-82.5771
-174.79
45.8994
126.226
112.115
136.474
74.5502
0.177998
-0.218715
-151.219
-12.976
45.6965
16.4037
78.0612
8.11175
21.4299
54.1028
-134.565
-140.852
122.802
184.594
215.933
81.1775
-12.8235
-30.5916
-27.4617
-257.822
-222.273
69.8134
257.376
79.7959
-33.346
-36.7184
3.15957
-47.5498
-201.574
-62.1316
149.279
112.435
-105.446
-61.2105
19.7221
26.7402
-63.4596
-168.883
104.735
212.677
116.036
-67.6494
-157.649
-147.333
-225.5
-234.023
50.5279
110.594
131.882
79.5074
66.6694
74.0697
-48.7798
-72.1131
172.121
138.697
102.613
111.055
-31.0968
26.9453
-18.343
-98.532
-23.1972
-57.0866
18.3685
65.3187
-35.1509
-56.6483
-7.50429
-171.467
-178.25
-111.035
226.645
256.94
102.28
29.24
62.9464
61.2572
-130.23
-9.92476
96.4164
55.9723
-58.2916
-99.9812
-91.7413
-81.209
-220.207
-136.433
30.3242
100.445
92.0852
72.1077
-83.0125
-86.6296
-237.236
-128.043
65.2638
196.8
201.614
86.8062
-11.2268
-10.1414
-48.277
-61.5038
-159.512
29.0893
84.7708
35.6803
54.4547
120.151
85.5229
-33.9581
-141.671
176.082
237.311
169.151
31.4417
-58.7081
-50.1157
-89.6476
-201.476
-194.564
2.62303
75.6445
82.7454
-45.8055
-47.3178
-52.778
-78.0683
-175.488
6.6408
160.199
129.551
-16.2781
24.3638
-3.77888
-67.7545
-155.037
20.7521
58.5279
124.84
123.351
-26.2132
-75.3949
-160.115
-233.197
12.5177
108.995
64.22
140.851
57.3874
6.04246
-63.111
-175.061
155.782
167.631
116.784
116.157
14.9023
-13.4106
-73.0605
-159.975
-35.5844
-45.0305
22.1684
41.2447
-58.9917
-84.1615
-58.7115
-96.1259
-137.041
-0.155741
248.221
238.994
63.4468
45.5635
25.5553
16.4458
-179.337
-250.613
4.17512
191.39
46.0048
-1.11152
10.3199
2.70853
-52.2971
-112.974
-194.697
33.0013
136.273
7.95328
-68.9419
-18.7901
-20.0124
6.10265
-101.309
73.2812
217.609
174.238
52.0773
-5.98011
-63.4633
-128.759
-203.094
-51.8381
-45.8885
20.9482
111.81
103.575
30.7423
-81.5016
-147.674
85.8847
82.5183
88.3175
132.603
30.4846
16.5578
-61.232
-274.909
-207.461
56.0969
261.003
196.393
37.2529
-7.84198
5.38511
14.8001
-153.791
-6.35943
94.8216
89.3662
-22.697
-28.8818
-23.6917
-52.0235
-182.169
-1.59857
82.2164
141.265
71.103
-108.288
-204.656
-244.547
-249.572
-48.4792
88.4682
105.899
144.894
24.2837
27.8303
26.44
-98.1401
96.6418
132.831
160.536
131.405
-6.64329
-15.9107
-34.3032
-236.91
-41.4655
100.137
128.398
79.1579
-16.0063
-73.6529
-58.8971
-64.9861
-269.244
-63.0395
192.672
226.226
88.376
73.691
105.31
88.8197
-43.6583
-243.19
46.8683
249.76
31.8567
-106.935
-100.453
-111.349
-138.123
-202.945
-292.215
73.0718
199.213
52.217
-61.1668
-45.649
-32.935
-51.0293
-38.1037
87.3791
121.831
152.211
36.4426
42.6067
-7.07013
-116.013
-200.206
-2.1708
9.88896
44.355
134.6
34.149
73.2208
-58.1446
-205.965
32.4002
152.763
159.68
144.026
59.2432
21.3319
63.1874
-90.0218
-152.298
-20.0653
94.5903
126.522
-10.8424
-66.2853
-54.3772
-12.8336
-148.465
-167.131
68.369
63.422
-34.9246
-50.245
2.48627
-4.85605
-117.771
-96.1408
94.5246
96.0833
111.265
5.53603
-52.4667
-49.3139
-232.061
-227.117
-37.5104
152.637
184.882
155.998
26.7342
62.2839
30.2079
-31.2096
-105.535
87.2522
131.61
104.25
25.0517
18.8472
14.805
-137.147
-372.003
-32.9284
132.604
108.287
33.3656
-34.0238
-2.07932
34.4238
-23.2845
-143.102
-100.409
81.3327
264.396
144.096
79.5373
36.6043
-31.3297
-47.0992
-228.491
-101.344
258.151
52.9032
-61.3679
-93.6159
-120.803
-108.526
-168.595
-139.351
67.1237
144.758
127.406
46.1584
18.5895
9.60497
-86.0464
-71.0146
49.2215
29.1818
136.348
102.426
-38.0174
-125.968
-220.509
-113.268
80.1552
58.7331
116.46
122.012
-42.2739
-1.19262
-157.224
-109.242
126.408
164.342
182.848
129.425
27.8883
35.8123
69.0778
-55.0694
-346.082
-289.64
138.873
179.708
17.153
10.8371
30.4341
42.0279
-73.6595
-131.594
64.9442
110.205
75.3681
9.06083
30.2015
-16.2598
-82.8147
-100.905
-109.366
-137.791
172.644
117.973
-90.8215
-152.475
-133.872
-96.942
-132.434
-228.865
110.841
215.344
173.145
115.555
29.3597
24.9195
-96.2833
-165.852
107.616
136.894
135.396
176.904
65.8466
24.4407
-89.0872
-286.063
-225.942
86.678
145.512
205.987
52.3226
32.9854
18.226
5.51799
-53.3665
-146.304
94.3039
132.81
-51.7726
-101.184
-55.9827
-0.100564
-147.179
-264.63
38.9984
194.67
120.505
-92.3094
-86.9512
20.8121
-81.9084
-171.385
81.5926
92.335
77.631
132.894
80.8723
82.4563
-58.1668
-162.53
68.7189
92.8121
125.988
134.215
-96.2725
-114.687
-240.454
-359.21
67.6785
138.418
104.525
140.292
24.0527
9.64196
27.1202
-81.5834
-71.7078
174.557
160.463
151.21
-22.1248
-57.123
-40.8336
-37.0265
-212.197
-278.353
46.2394
100.055
-73.8029
-65.2086
-35.4276
8.62181
-17.2441
-180.704
-133.987
262.42
342.357
133.707
52.7189
26.2719
-23.7053
-20.8179
-103.616
33.4689
22.2992
44.2519
-37.6236
-8.59918
-93.6493
-103.289
-168.155
-5.5532
25.7939
157.808
183.23
67.6564
-45.3173
-238.852
-304.496
61.2271
157.764
133.938
143.907
47.2802
9.41334
-26.2541
-178.806
-42.279
97.2478
78.9979
108.783
25.7046
-40.2578
-7.21217
-60.5553
-117.034
68.7718
112.962
172.451
-30.8843
-131.055
-123.487
-197.187
-265.668
47.2139
90.4428
104.235
50.3086
-54.5798
-15.6722
-110.112
-168.766
133.007
165.938
175.726
158.322
1.02241
-12.6713
-171.394
-268.325
33.5456
177.697
204.711
158.507
-60.5584
-67.9217
-20.7661
-148.307
-235.989
62.9098
189.327
148.955
-47.6515
-28.6627
44.6768
38.118
-110.56
-26.1773
168.972
122.064
-54.8046
-82.3265
-19.6181
-16.6972
-123.126
-221.239
-206.216
65.299
73.8167
-78.2165
-23.936
11.2409
-35.3106
-113.189
-14.0038
229.011
233.326
110.163
87.8052
82.6432
-18.3855
-121.273
-60.4575
42.295
-28.1193
15.2621
48.2689
-4.04254
31.3113
-113.344
-112.352
68.8803
53.703
108.207
106.781
11.7394
3.76839
-77.302
-96.1465
31.9239
1.24934
20.9435
-21.2036
-93.6189
-96.0375
-119.481
-207.435
65.6454
94.644
118.624
123.814
18.9043
9.57574
61.9101
1.27431
-191.159
85.8573
134.871
112.683
2.65746
-54.5984
-58.1181
-116.685
-297.855
-300.211
142.408
276.167
35.4554
2.81834
30.8698
25.5566
10.4601
-21.6462
-116.646
121.557
220.374
68.1786
40.2235
11.4247
-50.6293
-124.902
-146.185
65.3295
136.319
99.9058
-127.395
-135.947
-141.7
-169.323
-168.243
62.3708
124.918
90.4118
155.307
88.527
100.021
7.83887
-202.276
-13.2518
117.112
115.977
130.822
35.8567
39.8019
29.6487
-101.514
-197.398
-64.7802
5.53783
13.4939
-93.3484
-145.869
-78.5024
-117.612
-199.47
81.6511
245.136
301.843
131.359
-8.46444
0.126533
-62.8311
-145.303
86.3088
69.3352
4.03133
29.7334
-36.8865
-27.51
-55.2823
-148.027
7.867
42.7625
114.534
153.136
28.7971
-60.2087
-87.8499
-166.898
-26.5642
92.0351
83.4575
78.9938
-56.9761
-79.7114
-140.055
-159.223
-7.18472
44.5934
110.187
153.109
37.4946
26.5553
62.0863
-91.302
-169.876
120.262
197.476
144.316
-3.3798
-97.0922
-57.7382
-26.6357
-177.515
-286.778
38.3889
148.881
17.7712
-9.70029
-7.89558
36.2693
-91.8494
-188.574
72.2927
190.335
206.014
0.779579
19.693
70.5444
-63.5783
-187.836
94.7261
100.648
87.6214
92.9914
-97.0817
-127.124
-287.66
-312.77
94.4296
133.95
135.032
147.048
51.8586
81.8743
46.5768
-147.892
9.89202
95.0385
92.9559
103.873
-37.3725
-39.9113
-11.0071
-3.0775
-177.837
-80.7248
12.3006
76.1612
-83.2068
-76.8746
-39.9683
-67.9084
-170.861
47.4445
175.878
186.879
62.8504
-36.0246
-39.8209
-67.092
-212.949
82.4928
116.3
96.1187
34.8006
-46.2306
7.90716
-8.9744
-217.225
-35.9933
131.493
125.628
102.474
25.1631
15.9754
50.0386
-62.7818
-182.584
12.891
174.78
153.201
-21.5582
-76.6978
-76.8235
-81.4538
-213.054
-161.237
93.2096
127.935
31.1661
-49.2891
-17.0473
14.9278
-30.4317
-119.979
22.4234
121.663
167.839
69.9718
-32.4983
-9.73685
-120.429
-246.658
11.2185
117.643
128.718
73.8264
-17.9892
-7.64133
-39.2086
-124.066
-6.19271
92.43
59.5159
110.4
56.2605
37.1164
11.8936
-113.894
5.73442
68.0503
59.8583
115.587
-52.7295
-147.127
-208.932
-206.737
-65.6674
13.5257
42.4917
71.9151
34.0653
27.9385
44.8326
-40.9725
7.38091
179.533
119.828
110.079
11.6089
-21.6149
-19.8993
6.58588
-197.12
-333.98
80.4002
199.23
74.6439
26.2107
-6.26156
-17.9103
-73.6264
-234.526
-191.319
268.242
320.138
98.8154
44.0922
29.7635
-60.8549
-77.096
-89.6741
-144.926
64.8728
93.6785
-86.3614
-130.633
-132.071
-105.401
-119.462
-117.748
49.0123
153.411
171.149
35.8522
-3.57254
11.248
-136.175
-134.522
120.195
160.105
129.246
142.039
67.7056
39.8565
-44.6265
-187.266
-77.3614
111.12
139.963
125.607
34.9347
47.2553
41.0727
-35.5573
-124.809
-136.846
117.194
114.14
-56.1282
-98.2124
-62.3101
-53.9534
-285.264
-197.282
82.2474
116.068
35.5628
-45.9671
-27.068
22.7283
-98.6165
-100.013
154.976
148.045
141.528
118.252
50.8248
29.5688
-173.749
-135.608
34.1942
42.3285
121.477
67.2081
-130.192
-128.665
-214.886
-110.67
68.281
63.33
111.368
164.742
61.143
39.4458
-35.2362
-124.694
153.951
124.199
70.2396
-1.22856
-79.9957
-44.7301
-4.94235
-107.56
-272.372
2.47298
120.95
5.30197
-57.3183
7.16375
20.7951
-11.008
-125.543
-148.017
-7.64417
290.437
71.8208
56.2491
67.0615
27.2787
-46.3701
-178.331
107.069
148.695
87.7873
-39.9596
-26.8234
-33.2361
-100.222
-200.058
18.3316
68.2518
48.8638
87.8241
94.6935
1.40735
-173.12
-217.094
67.092
108.169
81.8942
139.078
-10.0275
-38.9488
-63.3096
-221.327
-214.089
46.5797
100.208
158.021
39.1621
-3.15465
10.6951
49.585
52.5168
-62.9375
105.575
153.696
0.573628
-28.8942
0.608873
64.8747
-163.381
-236.943
50.3502
130.823
102.478
-61.0838
-51.7547
-1.03342
-100.659
-191.254
60.3453
103.124
102.096
111.095
13.4192
2.46662
-107.689
-276.91
-166.434
74.9375
120.039
137.655
-53.6794
-72.0111
97.6356
-16.4539
-78.619
96.7258
80.5152
43.2577
95.9791
37.134
-90.192
-74.0389
-65.646
-203.562
-173.773
138.726
187.007
76.9704
-12.898
8.72023
67.2408
92.2123
-91.1059
-0.91095
220.723
5.54208
-37.3618
-34.5107
-21.645
-42.0512
-270.729
-353.669
-13.8515
273.677
229.502
20.2124
62.5683
6.48925
-36.5779
-22.2882
-130.478
-22.5685
149.15
142.36
93.4657
-11.4267
-43.3692
-15.5428
-121.868
-125.433
119.312
124.398
-29.0433
-57.0314
-73.6187
-130.799
-214.374
-295.276
29.9701
179.914
240.813
201.704
101.003
39.9126
13.5625
-144.853
-231.48
-65.4146
161.058
157.564
45.6361
52.6279
-22.0887
-28.0455
-62.7648
-144.146
136.514
175.765
-20.6878
-88.1791
-17.5975
-3.95241
-93.577
-167.192
90.8736
99.79
107.1
11.5798
-38.8098
-51.6516
-199.876
-121.994
-1.88248
22.192
18.3148
71.9585
23.763
39.665
-68.6414
-151.714
106.911
129.547
131.415
173.783
13.7464
28.361
42.0692
-52.2837
-45.87
13.5614
37.3345
-10.3112
-126.226
-130.011
-66.8943
-129.164
-196.384
7.5853
154.889
208.328
93.9039
76.5865
92.4946
46.2154
-46.4122
-163.797
-123.344
21.3915
38.4948
-18.5463
-10.2225
-36.3592
-68.7864
-55.4157
-130.997
53.5392
147.098
51.4829
0.475199
33.0305
18.5425
-25.6588
-120.047
-19.6783
158.523
206.251
121.559
4.36336
-76.6602
-112.505
-258.799
-69.8611
15.9246
34.9071
92.0628
54.4421
18.5236
-21.4747
-119.397
-181.718
25.1268
158.907
223.766
151.955
-22.2867
-54.5039
-64.8723
-186.877
-86.7154
77.4105
177.647
14.5702
-57.3927
-25.358
19.3779
-76.5098
-145.871
21.8608
50.2851
128.253
35.7719
21.4269
50.8149
-89.6684
-131.263
103.121
86.9142
124.467
54.7682
-53.9512
-70.4989
-276.313
-235.421
54.8127
60.6821
88.6872
150.254
60.9869
13.5547
-31.7184
-176.881
-41.6698
136.567
148.289
71.6671
-33.4505
-34.8185
18.4721
-0.735227
-116.02
-99.3746
72.5706
36.9341
-91.6878
-78.2657
-41.4293
-3.96891
-103.764
-168.438
-67.7278
122.052
337.156
222.419
191.423
103.051
9.60421
-13.0833
-113.043
-50.9796
10.7601
-6.18324
-41.9473
-93.5302
-137.884
-137.665
-185.805
10.2468
95.3593
147.069
130.502
70.9015
-97.4352
-178.222
-247.963
48.7301
106.03
79.594
120.143
48.3927
-32.733
-40.4124
-170.501
8.72653
49.6428
61.7081
118.677
10.0741
-6.0807
58.3431
-32.1526
-125.932
11.9568
189.999
205.65
24.7311
-53.1826
-51.6252
-10.0769
-86.6005
-269.725
-111.812
239.591
80.334
-47.9678
-14.9793
30.3489
8.10098
-101.89
-48.712
153.357
151.578
-6.71372
-30.7644
11.6959
-84.8332
-236.167
-156.253
28.1906
84.3592
151.34
41.3774
-117.713
-125.435
-60.9756
-108.571
-178.48
59.5525
242.525
156.017
92.7847
146.304
70.6042
-22.4777
-161.894
-20.9149
220.421
127.066
26.986
0.169434
28.4925
-31.1493
-161.866
-318.207
-211.483
127.411
184.723
22.5678
-29.1438
-33.1823
-11.4699
22.8619
-58.3176
47.1204
201.191
75.8956
-15.9988
-45.558
-71.4809
-109.981
-199.235
-57.8958
81.694
127.481
57.9935
-56.5132
-6.37164
-36.5652
-139.98
2.90987
90.3003
79.9226
107.367
68.4648
55.0124
-55.38
-253.069
51.6515
109.743
119.047
142.418
6.75958
-106.405
-125.678
-315.238
-2.93499
132.584
135.955
143.102
17.3001
-51.3285
-19.258
-44.4817
-83.8827
142.164
126.282
155.645
-48.4896
-113.421
-62.88
-79.4783
-196.281
-174.131
36.0863
216.81
-1.64244
-50.876
-53.2382
-21.3033
-21.3397
-110.905
-214.133
207.571
318.111
126.329
50.418
57.6086
-12.2934
-45.8833
-136.136
49.4512
107.763
1.59047
-89.1631
-74.3316
-112.006
-177.245
-229.848
79.7959
89.1274
150.389
212.693
48.115
-3.69366
-142.778
-94.9599
92.2099
46.2407
24.7101
97.319
54.173
25.1273
-37.8738
-244.912
-81.4779
105.14
106.05
126.021
-23.1849
-50.2303
-11.0417
27.3369
-161.933
0.954741
112.941
85.8788
22.6742
-22.5242
-30.7715
-121.454
-290.492
74.2719
144.067
158.822
79.1982
-59.7405
-39.6479
-17.5315
-184.68
-31.6046
15.177
51.8206
127.974
41.7797
28.849
-5.77926
-203.616
-79.7396
69.1855
132.622
174.025
-66.9072
-150.381
-120.093
-259.746
-142.344
126.294
163.667
189.659
75.2775
60.195
44.784
-11.0538
-127.727
89.0968
103.813
155.937
61.7845
-53.4843
-23.5058
-0.759683
-137.87
-187.315
-205.615
43.6655
36.3887
-71.2481
-30.0971
0.165771
-10.4102
-36.6381
-178.82
-39.8343
327.086
203.141
143.061
119.161
34.9381
-17.6146
-98.7971
28.7216
127.584
57.0685
49.7307
-69.9881
-135.863
-176.332
-231.096
-41.169
4.60179
2.95129
125.74
135.73
-29.0487
-128.972
-129.364
48.6144
19.579
8.71904
89.7973
45.9154
-29.7671
-56.2794
-131.915
-39.261
37.6087
31.2109
90.4328
25.7561
-4.81817
12.2103
-24.2242
-23.4859
132.776
146.606
86.3584
-7.1267
-32.8298
-36.9355
-113.518
-64.5413
14.821
52.1175
110.8
-9.47538
-51.1531
-62.8315
-157.782
-171.909
50.4934
105.885
180.441
162.011
-9.93665
-17.8145
3.25658
-94.9803
-202.076
-41.4536
170.872
88.593
-28.6916
-62.9378
-72.7229
-91.9472
-281.061
-3.34757
235.65
196.13
10.5343
-45.1711
22.1475
46.1533
35.3345
-44.8046
-212.968
101.472
257.046
91.6751
6.23282
-15.082
-90.3187
-78.5866
-57.3104
-167.699
24.5117
14.1391
-7.29551
-5.2505
-65.1187
-54.0778
-37.5843
-108.609
-9.53091
258.808
309.939
88.3088
12.4951
-62.8651
-96.8676
-196.766
-48.6486
36.9301
35.2134
70.7113
53.0913
-40.0226
-53.1515
-140.681
-6.60467
63.4515
81.9239
151.559
101.872
1.89921
-89.4455
-255.923
12.6615
127.805
79.4102
95.0551
-10.9188
-71.2179
-78.8615
-46.3192
-115.219
-175.314
75.2543
166.994
54.4949
1.23832
8.73748
54.4829
64.3631
-158.096
-134.701
153.176
81.9217
-32.824
2.34291
29.75
-29.1919
-36.4258
-110.501
-222.618
-5.03537
194.029
26.4256
23.4386
8.53065
14.3675
33.5782
-62.1484
65.1743
184.703
209.113
49.2909
-80.8647
-127.91
-202.265
-247.705
33.769
27.6938
40.1622
96.5795
32.6926
-76.458
-205.684
-244.409
-146.35
187.431
211.901
251.032
136.432
139.476
162.32
59.1427
-188.981
-181.941
167.224
234.962
10.982
-53.93
-78.8763
-94.8642
-121.295
-233.777
-41.2612
110.653
61.7727
-130.462
-89.1041
-26.3011
-47.5789
-105.031
46.5598
79.4174
142.42
105.352
-57.2021
-21.6025
-126.233
-201.408
32.7491
93.9835
82.9659
116.223
60.1189
65.1358
-67.0645
-182.101
98.4884
118.007
86.3983
117.49
42.0501
-14.3334
-102.633
-185.457
-146.12
142.166
171.202
138.594
-57.4523
-103.118
-85.042
-50.3606
-220.218
80.4093
224.144
139.048
-41.1688
-40.51
-24.5373
23.5462
-12.3504
-182.653
-5.06723
148.874
81.01
-64.8758
-119.199
-66.5984
-101.475
-88.6848
-173.867
-26.7589
147.796
10.3491
-22.3989
-20.4946
-22.1593
-18.3044
-8.13571
207.482
188.134
210.456
156.2
47.308
-27.9648
-162.534
-129.392
42.0003
-15.9261
-20.4031
21.7045
-0.288989
3.28797
-140.43
-159.787
53.1056
84.437
106.513
111.181
20.5832
6.68112
29.8503
-0.860545
-155.379
-264.635
144.306
171.81
32.7725
-28.3323
-47.4186
-46.8123
-92.374
-172.369
48.6688
135.901
40.1543
-11.7073
5.75192
52.6903
-22.8917
-87.7611
51.0857
56.8401
100.427
143.497
-66.6927
-118.417
-192.695
-306.711
-48.9106
68.5851
46.5555
91.187
52.7866
51.8498
-0.261692
-12.0185
-75.0817
32.3812
172.99
207.915
107.36
59.9164
59.9689
50.9382
-155.169
-266.997
-22.9528
121.136
-22.8574
-71.1361
-16.2145
14.2477
-38.9419
-37.2632
-128.598
-194.161
98.6783
121.29
70.2265
99.3284
10.2526
-0.166586
-16.3317
-102.897
109.453
153.094
-1.26013
-3.55734
-69.3965
-69.2619
-85.9099
-157.671
-10.5344
24.3053
64.5013
107.719
22.8978
0.844086
-91.441
-138.155
69.9617
127.235
109.663
133.045
-1.73748
1.63384
-82.0802
-152.609
-34.0688
-27.0129
-5.43237
80.0102
-0.451413
-16.5195
7.35775
-26.9709
-125.364
2.03607
177.068
184.42
6.31316
-46.6638
-22.5053
4.21638
-40.9941
-212.554
-175.718
201.382
67.1541
-19.2144
-2.78478
26.4043
-8.95827
-112.696
-224.997
62.6766
212.882
120.893
69.2141
76.4362
-16.9989
-0.11382
-67.6183
-138.389
111.664
200.251
125.821
-102.589
-165.427
-151.201
-233.899
-294.728
74.284
185.915
194.528
61.5782
41.4903
33.0375
-47.3599
-83.6527
131.926
71.2291
63.2158
78.7591
-76.9897
-12.4434
-20.7739
-148.004
-213.764
-9.05426
91.9935
154.493
-50.4801
-26.7676
50.0049
-67.5449
-130.959
-25.8506
179.394
184.751
23.3695
-14.6244
7.49349
10.9565
-188.504
52.4904
91.9746
59.2776
18.3783
-90.9235
-51.3225
-59.1813
-187.423
-4.21332
63.1303
55.1687
86.1326
56.3171
-14.1732
-59.849
-212.082
64.1584
119.723
85.1341
108.717
8.65773
-48.3822
-108.746
-148.678
6.65313
20.206
51.846
53.9873
-5.66447
-1.41737
25.5432
-28.1181
-212.556
118.6
251.308
216.938
6.34644
-62.0149
-48.1884
-17.0432
-139.565
-247.86
-128.896
137.387
16.2704
25.1384
57.0049
47.0628
0.574413
-47.7076
-185.084
73.2436
199.478
19.287
31.5122
47.5403
-12.8918
-52.6339
-144.243
111.12
111.961
88.3783
12.4655
-106.777
-180.457
-305.81
-203.681
78.7566
170.004
126.218
145.406
67.931
75.7314
-72.1666
-145.658
87.5777
74.6028
75.8145
84.0901
-62.5331
-56.134
-6.64853
-131.535
-355.322
-14.9141
246.524
199.501
20.3663
-42.112
10.8323
55.5616
-178.556
-121.738
247.804
248.488
80.6218
15.9992
0.192735
5.39905
-193.883
-151.326
83.2732
99.5669
115.404
-115.999
-142.424
-89.2621
-228.169
-182.306
32.6078
28.1268
98.1613
115.625
-23.7776
31.2072
-127.479
-104.63
25.6208
161.178
196.68
165.873
2.56502
10.1917
20.7883
-125.063
-213.072
23.0107
94.9851
35.2727
-48.2003
-6.33038
82.9371
66.8527
-51.5631
-171.44
7.22284
166.824
83.5653
-9.12533
-1.85437
4.51363
-17.9994
-41.1189
-130.631
26.3324
83.4172
-29.8684
-35.388
-28.9335
-67.7211
-148.259
-86.1527
116.787
96.2576
192.769
167.752
17.9042
-27.1233
-178.945
-75.0772
25.7102
-15.1808
2.45796
35.0609
-68.3539
-70.783
-243.455
-145.906
196.124
174.372
189.614
147.043
34.7938
10.1756
-65.7369
-4.93593
52.3512
15.7794
10.138
-47.437
-46.7748
-45.5071
-60.8075
-188.562
-131.033
27.7471
109.905
55.8741
-78.4475
-59.5252
-13.4628
-56.4666
-174.984
13.0153
302.7
193.875
52.801
41.5611
48.5207
-8.40655
-114.073
-104.27
50.33
109.115
-25.3978
-84.8881
1.37714
4.53927
-61.7489
-123.039
-52.0212
107.98
142.455
90.0315
43.5026
21.3534
-54.439
-169.76
-199.906
101.958
112.893
75.4435
-25.1029
5.35997
-25.8478
-153.864
-145.144
72.8427
69.0558
102.641
56.2038
-1.82692
45.461
33.8059
-64.8021
-101.109
41.8306
145.366
141.431
-28.8985
-19.2209
-24.1389
-66.1482
-182.783
-216.197
79.828
118.877
26.7261
0.597598
-15.7977
-27.7737
-180.182
-103.918
161.564
181.692
199.818
88.1498
28.5249
19.9953
-160.749
-160.339
55.7204
23.3381
74.6182
42.197
-95.7397
-83.1348
-246.259
-288.709
121.62
140.755
195.14
162.806
-8.92002
21.4673
-49.9219
-160.48
33.5477
156.679
111.727
74.247
-48.001
-53.8439
-22.3117
-43.7127
-215.389
-60.7557
106.006
129.904
-45.8691
-24.8208
20.032
7.53613
-155.823
-184.339
-29.8758
166.033
242.074
105.093
71.5463
47.0945
-7.82128
-45.3657
-185.422
-236.516
110.531
77.155
46.619
53.7864
-37.2785
-45.7206
-117.403
-150.571
126.017
183.958
168.693
33.2173
-118.598
-94.5563
-159.884
-89.9353
40.3256
17.8313
85.9565
92.7582
-66.4534
-100.298
-226.33
-35.7129
96.279
71.7919
106.683
155.312
52.9578
87.0859
96.5432
-60.4103
-186.409
12.2341
125.408
98.3524
-0.0330156
-19.0349
10.3067
-16.7652
-213.492
-56.963
81.254
21.5694
-49.5993
-19.0785
4.71487
-88.4952
-220.274
104.984
170.495
164.492
122.13
-24.4503
-62.1407
-60.4766
-206.928
-90.1412
67.9724
42.35
58.1257
-23.1928
9.21084
-45.5304
-295.53
-126.686
187.526
255.781
250.296
89.5807
22.5669
3.07697
-38.4099
-188.035
-157.183
95.9245
174.13
69.0581
-33.737
-74.5147
-92.972
-110.226
-185.079
-294.363
171.288
213.78
29.0483
71.0187
102.424
26.0613
28.6237
24.5297
-59.884
146.63
100.751
-57.3701
-54.6822
-74.571
-106.93
-167.576
-249.965
13.8921
166.82
198.269
74.3144
-44.6441
-111.567
-132.939
-146.728
149.504
132.897
117.821
142.965
29.7074
2.52718
-88.9583
-136.829
23.8939
0.566303
24.2828
86.5768
-79.0092
-69.3874
-37.8204
-245.413
-239.479
115.258
287.366
265.259
85.4269
71.566
36.1951
-3.53414
-204.506
-143.537
111.926
159.848
40.6977
7.53866
14.7306
-8.28128
-201.816
-125.421
68.8549
133.649
106.949
-132.559
-155.687
-89.2117
-295.383
-194.139
53.3387
236.281
286.271
211.353
28.5584
7.16938
-56.5443
-81.2077
-196.838
23.5069
91.0837
42.1594
21.2467
76.401
65.3931
-56.5075
-155.187
48.1202
155.968
118.605
-6.03657
-118.191
-51.7554
-106.184
-236.825
-233.322
-147.642
193.584
191.552
42.1833
21.0529
17.2127
-2.65918
-65.272
-102.74
98.5928
150.905
71.0072
102.646
71.853
57.0931
-40.4709
-134.526
45.1101
70.3388
99.0157
41.524
-146.091
-107.118
-212.743
-235.637
-50.6235
48.713
94.336
130.114
6.83906
30.3618
-70.3305
-54.0506
161.227
114.683
99.081
117.287
10.5521
-30.0054
-101.337
-62.2451
-61.8339
-32.0497
-2.29068
28.8559
-8.18683
-35.9742
-70.2045
-216.058
-110.891
186.026
223.247
229.561
132.221
67.1272
21.9775
37.4127
-202.936
-262.312
118.717
179.349
-0.811712
-33.0187
-40.5152
-28.51
-63.8014
-106.755
-119.489
58.5316
53.0797
-90.9581
-52.2049
-23.5332
-35.8053
-17.9024
-118.709
14.1273
130.908
134.795
-22.6181
-100.943
-64.4518
-146.577
-217.816
93.6072
80.6424
81.5022
187.402
155.257
39.4417
-123.345
-108.511
117.652
104.56
110.932
146.081
53.2669
38.0562
-5.80936
-199.928
-27.4062
42.9881
65.7557
79.9824
-82.9353
-64.0932
-41.7688
-3.65279
-97.8753
-129.883
74.339
115.418
3.4821
7.18731
23.8268
34.6442
-77.8341
-113.78
105.887
117.702
-11.5222
-91.0555
-95.9603
-61.6139
-212.554
-294.31
31.9085
86.8007
126.045
93.6393
12.5507
27.4505
-83.2703
-53.5185
120.698
85.461
91.1448
65.1009
-24.1597
33.1448
-123.496
-143.922
34.9855
47.0495
39.229
117.997
-32.9984
-16.9791
57.1665
-23.6179
-127.105
60.6142
128.761
107.877
34.6605
30.4357
23.9001
46.9079
-66.6414
-141.103
-152.754
149.434
97.4761
21.0547
-12.4368
14.1015
-47.0124
-69.3386
-136.59
-31.7735
66.1217
-26.0585
36.2474
46.1549
-9.25395
-12.411
-126.59
23.2348
76.3617
90.4667
104.626
-94.3871
-145.41
-205.324
-204.423
17.4383
7.66416
19.1156
101.18
108.567
55.2627
-59.8531
-18.0644
114.388
86.6327
66.7668
114.895
25.5544
6.74536
19.6019
-61.7887
-254.186
-58.236
136.273
118.122
-13.6782
-51.9461
-16.151
46.3849
-38.3958
-218.815
-18.7733
197.702
122.599
112.532
89.0783
58.1208
-19.8061
-138.808
-49.0116
107.398
79.288
-81.3578
-173.537
-135.514
-134.595
-208.72
-195.701
84.4145
127.587
174.307
112.275
-29.6407
-17.1313
9.47613
-90.0271
-20.7102
129.147
130.403
68.3451
35.2286
24.7676
-37.1362
-197.654
-310.811
-21.0983
225.874
187.975
28.3105
33.3356
67.4315
25.1029
-37.9415
-109.707
-59.454
215.372
162.681
20.3077
-14.7994
-47.3594
-36.0036
-52.3399
-234.308
-117.407
150.366
-7.18274
-66.5593
-27.7095
-39.9195
-27.0349
-116.272
22.9143
93.1313
131.1
117.247
20.6693
-26.3345
-64.1165
-155.687
-22.9951
69.683
33.0617
99.323
65.0539
-34.5261
-144.9
-264.029
-41.3224
113.029
119.157
170.638
76.3692
9.56848
46.7772
-98.4368
-107.045
130.107
114.907
124.229
15.1211
-47.0821
-25.7829
-11.4253
-65.5155
-281.284
-207.665
182.977
77.94
-14.8166
26.5842
74.492
38.2014
-27.7147
-121.222
-70.3242
143.432
78.7939
14.2129
19.6803
5.90916
-22.3852
-25.006
-56.7535
-175.625
-8.95413
143.147
19.3564
-41.3139
-90.0357
-85.3129
-79.5991
-168.236
47.3969
206.976
250.705
86.0977
-54.0506
-35.5994
-53.6197
-167.744
66.7501
73.2892
57.6937
90.7475
80.714
-26.6231
-158.312
-302.267
-59.975
145.692
170.127
173.085
76.9367
83.4192
114.571
48.0643
-93.7357
-93.3529
56.0581
84.8126
-51.1164
-74.9198
-77.6781
-49.4979
-179.322
-232.525
52.9042
164.219
39.4619
-89.6113
-107.36
-56.2784
-183.974
70.3288
161.787
117.482
83.4841
45.6267
-22.1392
-53.1132
-205.667
37.3976
91.678
39.8636
48.5729
33.0316
-52.5695
-56.5071
-161.949
-30.606
88.0905
102.988
154.022
37.8268
36.0617
4.19551
-122.446
86.8801
126.418
108.874
117.863
-26.9574
-69.9911
-61.7865
-80.0826
-271.839
-113.504
122.729
121.5
11.0365
-37.1639
-9.59648
16.9176
-13.8067
-101.822
-245.202
-22.5675
181.063
172.539
144.347
124.015
24.1926
-39.3672
-108.076
-200.407
17.1825
39.5176
-48.6816
10.9251
-21.816
-44.4233
-47.8602
-128.441
26.5814
100.857
190.997
128.576
-110.885
-160.856
-169.129
-193.322
30.6088
52.2006
72.1937
130.293
96.5799
-26.1487
-173.081
-53.4976
112.54
99.9723
87.78
152.695
74.2966
95.7551
131.656
-24.6421
-133.33
-3.42985
28.8582
74.4766
-44.4635
-52.2891
-41.7288
-125.51
-57.8136
-0.900741
54.9423
23.5793
-36.399
-53.4883
-74.0355
-87.6682
40.3346
69.7731
80.918
129.043
56.3904
-84.5223
-151.245
-248.873
-168.7
54.0003
28.3493
95.9713
34.7203
-44.9426
6.59045
-2.96498
-135.622
-144.65
164.832
212.759
68.1052
96.9195
103.19
87.4829
-19.3412
-153.853
82.361
192.238
86.1173
-64.9441
-63.0425
-54.5933
-104.063
-206.167
-223.373
58.8319
97.7892
116.075
-24.2392
8.27633
15.0306
-39.1322
3.76471
86.525
85.4266
94.7424
-9.5952
12.0031
-34.3006
-179.002
-16.336
20.8715
-14.9265
14.8486
74.0082
-93.1836
-96.158
-91.613
4.97577
38.4651
16.1997
65.0917
64.7745
3.4933
-155.663
-213.466
133.071
165.314
92.7741
91.4729
-9.93287
-38.473
-84.9252
-78.431
124.341
58.8017
63.1211
57.6346
-60.6438
-33.9242
-11.7014
-85.2118
-136.306
81.6108
241.391
231.989
-46.5301
-80.0074
-33.4704
-49.1435
-180.056
-269.452
-63.8149
131.614
43.3354
24.488
39.8772
53.1437
12.3433
-20.333
-184.859
199.067
270.173
78.0918
33.886
25.1421
-121.458
-141.686
-211.764
-73.9114
26.9574
39.5049
-25.7744
-56.8665
-45.557
-136.808
-231.299
94.7294
127.953
114.336
212.473
90.7588
78.5798
27.6414
-153.841
-186.693
109.092
220.547
191.422
78.6639
24.2396
-3.04576
-102.173
-176.969
-236.067
37.4863
154.942
-20.6245
-89.5362
-50.5769
27.0945
-30.4813
-42.0072
42.6654
96.7128
135.083
-85.4034
-145.388
-81.3372
-197.565
-128.496
30.6092
18.4281
20.3961
87.2319
-5.74653
29.5282
-127.862
-50.5258
138.075
144.77
155.449
161.246
65.0402
76.1846
-80.0679
-112.063
149.609
162.096
128.797
26.6451
-83.5723
-88.1741
-193.902
-191.578
25.9607
126.251
127.109
52.3462
-37.6607
-41.467
-53.6367
-65.4787
-169.004
-39.3142
103.829
45.1917
-137.165
-105.293
-30.7087
-58.6099
-306.594
-210.17
100.054
299.111
101.777
40.0709
49.571
26.4628
-23.4991
-123.732
105.056
153.336
158.829
104.014
101.364
1.27097
-173.01
-205.619
58.0723
51.3837
141.291
69.0666
-46.0052
-117.599
-216.033
-152.969
36.9751
21.7309
16.8801
119.606
35.2222
58.2354
13.7446
-144.763
-43.9426
115.839
143.908
149.045
1.83208
12.8846
59.7738
-10.2274
-103.951
-226.42
1.34092
51.9895
-39.3466
-51.0288
-33.8348
0.959045
-86.9031
-169.275
134.087
185.24
120.092
-12.0013
-43.9649
-14.2813
-154.241
-131.771
33.6616
-0.336093
21.2446
106.152
-13.6466
-42.4178
-164.968
-108.089
104.914
120.499
122.02
191.541
63.7609
52.8968
34.3575
-56.2364
-183.793
-64.479
205.59
166.293
8.54327
-6.97432
-25.7109
-23.3762
-140.172
-255.229
129.776
131.828
-21.9756
-24.0928
-19.6612
16.6468
5.53489
-74.1231
-193.004
53.7981
132.196
113.612
-13.4323
-64.2727
-101.529
-174.735
-196.395
39.6877
114.812
205.335
54.7875
-0.698395
-104.428
-189.556
-56.9579
163.831
120.499
92.4909
123.859
-35.1355
-51.886
-133.253
-71.0558
30.353
17.4259
27.0394
2.73671
-85.0001
-75.6179
-159.72
-139.264
103.512
120.947
188.892
129.75
50.8039
66.9264
30.5152
-24.9794
95.7069
139.088
92.6711
-9.13137
-77.0812
-63.9674
-62.7178
-98.5138
-237.634
19.6598
138.378
51.683
-90.0565
-71.1115
8.43697
6.49634
-175.29
-112.918
187.379
210.212
10.0723
-33.0154
-12.6903
-46.0618
-67.858
-169.772
-184.904
110.046
178.271
45.0217
55.0733
59.0937
-20.7936
-101.532
-71.6011
75.6219
123.74
78.9733
-45.8717
-4.45126
-7.58456
-64.6456
-51.4886
101.821
62.8604
63.4351
51.312
-93.8949
-77.948
-131.429
-191.587
-219.704
-21.9773
163.853
146.918
77.4718
140.966
116.463
16.8207
-67.1554
-98.9772
58.4874
89.1159
13.8104
-24.6213
-17.1887
-10.6485
-168.287
-116.229
59.2486
70.336
75.1979
-18.014
-49.6864
-45.304
-162.015
27.2921
93.2484
70.624
104.196
74.2992
0.146692
-91.4647
-217.522
27.6423
40.7754
35.4602
42.4751
34.1208
-4.56949
-20.1275
-156.161
112.493
173.267
118.952
115.267
57.9357
30.6737
-3.08658
-81.7012
15.9474
-0.85723
11.3973
31.2379
-117.026
-126.383
-141.392
-195.706
-327.433
-80.0974
164.895
238.272
39.2002
-75.8622
-47.812
13.0607
27.5058
-42.9748
-56.4648
156.346
93.1206
20.8561
51.511
66.7613
13.1387
-83.8527
-247.714
61.5224
287.087
73.9743
-4.57261
75.876
-18.6383
-116.689
-176.528
70.9166
59.5003
101.193
106.98
-6.33038
-42.5085
-108.881
-120.994
36.9064
-1.82465
30.9036
106.379
-30.4249
-33.7006
-98.6363
-249.49
-155.364
70.3872
105.507
191.128
43.9967
25.1047
60.757
39.3597
-112.042
-26.9781
70.7831
89.407
36.2377
40.2471
29.3799
-40.0554
-271.985
-77.8795
-3.48729
64.9044
55.9363
-99.0353
-69.6044
-46.7298
-60.1616
79.993
64.9491
81.778
145.096
83.2201
24.4311
-75.3575
-205.336
-52.5415
55.72
109.129
145.433
-14.3193
-43.8939
-17.2774
-168.624
-279.73
86.0472
189.868
162.688
120.532
103.491
91.0265
-18.9098
-215.371
-29.4373
86.0341
106.437
32.6367
-33.5974
-53.8404
-33.8146
-155.45
-285.008
-64.9669
70.8971
85.3037
-83.0459
-79.2842
-45.2744
-98.0031
-170.631
103.935
160.844
224.861
67.571
47.4621
71.4652
-112.252
-82.1969
50.6484
16.3156
-2.34593
65.7608
-0.855654
51.9121
45.7518
28.1
55.0432
-0.720209
-15.8883
88.3378
-2.24734
-35.7611
-142.424
-99.0084
8.86944
9.11508
32.2579
10.9544
-30.5456
-49.9919
-187.735
-80.5399
120.056
153.83
168.677
41.2918
-24.6054
-11.8328
10.8772
-59.3454
-120.478
67.5205
154.248
54.0887
-60.2693
-32.0612
5.33036
-97.3272
-233.772
-143.056
98.4566
114.26
-53.8687
-66.4319
-75.982
-83.7752
-78.3984
-83.2624
101.381
244.088
220.756
77.6988
73.9199
76.7681
44.7659
4.95579
-20.5976
-113.366
-82.6353
-35.5141
-30.8242
-25.08
-219.509
-215.551
132.691
142.083
104.639
119.23
53.1717
75.8686
-55.8099
-224.378
82.9694
74.993
25.0807
36.6733
70.1584
122.753
83.1915
-22.643
-178.174
-21.1224
19.0832
2.29188
-139.676
-123.204
-79.6788
-108.363
-175.79
45.3131
198.673
232.882
60.5193
7.46216
-7.82711
-99.0193
-163.199
36.7308
37.2435
33.6265
54.1606
-52.9497
-2.80384
19.9521
-48.927
53.6326
-60.5478
-71.3437
49.2068
25.6307
42.0816
-88.3326
-163.832
143.731
181.444
118.09
28.8224
-145.777
-105.482
-82.9316
-162.623
-123.499
119.136
155.539
52.0701
-4.41196
88.3506
198.85
151.752
47.0691
-90.6757
-31.4232
143.045
-39.2782
-85.1616
-34.372
-23.5396
-52.2129
-86.3174
-228.966
-208.548
-109.232
-48.2485
5.24901
151.001
193.735
197.232
123.073
-38.2557
74.3734
171.401
161.362
-22.8934
-168.751
-186.47
-159.658
-147.736
-35.9194
18.9817
120.559
191.141
106.081
-34.1186
-148.947
-190.329
-90.5179
-30.3414
8.97422
126.613
83.1796
66.0121
41.5849
-146.411
-243.281
-86.0027
51.063
174.756
103.382
31.6138
-0.13944
-70.0777
-121.161
-162.643
189.132
200.508
80.1415
89.6202
112.372
80.3038
-56.3825
-248.007
-16.5797
71.4555
148.387
123.597
25.7608
-59.4484
-166.484
-172.353
38.5004
144.859
135.255
116.303
-50.0457
-123.508
-299.419
-341.533
-2.66076
58.5201
79.9658
193.836
100.185
47.2921
43.1984
-16.7319
-117.341
-51.7218
115.052
77.2789
-125.179
-184.386
-145.403
-96.904
-118.416
-150.461
-140.178
156.265
50.7825
36.9732
82.7555
227.033
210.757
191.542
40.3633
4.80505
174.861
108.801
-35.4364
-87.0353
-123.76
-39.6825
-7.60156
111.808
56.3296
68.4412
115.812
-45.256
-96.5516
-109.379
-158.782
-51.2159
-47.231
-60.7451
37.7836
-25.8105
-130.282
-19.2604
-51.4974
50.2808
35.3891
17.8079
17.4151
-36.0613
-52.5812
-20.0849
-44.0487
-0.764421
8.00391
60.2422
130.404
60.1949
-0.717066
-91.5165
-207.052
-80.1938
208.995
146.559
67.5167
110.843
96.4954
-12.5135
-25.0486
-137.294
-126.588
5.48485
43.4938
71.6221
117.712
130.178
147.618
-48.7815
-75.482
84.6273
104.176
26.0782
-132.246
-139.012
-76.2671
-197.686
-429.238
-293.169
-144.37
-6.37157
118.66
82.2122
46.4412
24.0544
-0.825814
40.7416
256.162
336.861
339.725
215.142
149.533
45.7988
-71.016
-32.34
-13.5692
-123.818
-82.2688
-132.129
-220.953
-268.087
-421.848
-304.369
180.817
182.095
6.10218
7.52462
47.2732
157.267
123.245
20.8174
202.449
75.3875
-15.5316
-42.2368
-81.2764
-81.2924
-59.4835
-125.909
103.581
238.198
287.808
297.265
38.4449
-162.08
-240.725
-164.615
35.3481
42.732
-22.7273
-86.7679
-92.1486
30.6789
27.5872
14.8411
113.778
74.1112
39.3829
-0.17817
-156.528
-138.072
-198.399
-251.028
70.9125
117.11
179.183
154.29
-35.8875
-62.6592
-21.7121
-143.721
-77.1959
25.6852
31.9314
30.4437
-11.3045
-7.62704
-45.5461
-51.0968
-145.093
-43.3104
205.031
243.275
104.759
121.756
87.5929
81.9237
20.5035
-20.6401
-62.0285
159.632
66.7017
-135.128
-147.769
-77.5635
-44.3267
-92.2453
-233.706
5.11051
125.362
37.31
6.01227
19.3278
-125.514
-172.809
-148.17
45.7974
87.1042
122.415
110.691
113.305
115.439
94.9312
-95.2357
-26.5609
37.2207
10.0817
108.361
-60.6453
-113.357
-124.455
-215.487
-192.986
65.3652
140.083
214.961
96.681
48.3013
2.58607
-7.52679
-150.766
-180.548
31.8349
129.872
44.2253
-39.4384
22.6085
100.863
-37.0031
-56.7389
98.5355
136.871
136.965
-44.7174
-85.1962
-81.6158
-205.86
-104.571
46.6698
93.9516
81.3466
23.2886
-68.0938
-39.0644
-193.31
-50.9459
109.846
143.814
123.538
28.2536
-36.9474
35.67
44.9143
-141.654
-244.071
55.0578
246.363
116.738
55.6377
62.1925
42.4851
-7.09772
-231.898
-288.886
94.0669
92.0318
-15.1689
-60.6417
-49.4198
-42.3682
-69.1553
-11.6794
-116.957
-0.473634
137.298
30.669
-5.16907
-11.8369
-22.9128
4.09362
-34.894
86.6524
158.277
175.394
52.5094
-24.9155
-42.5827
-101.5
-119.709
50.4312
73.6502
36.147
45.1276
0.00371741
-10.6303
-116.747
-133.53
41.0723
77.9357
64.2093
67.7201
-19.3071
7.90407
-13.1046
-162.755
-85.3237
53.4153
36.917
10.8806
-42.7565
-28.5604
-28.5647
-45.8648
-95.1199
97.879
100.614
114.503
41.837
71.6593
77.416
76.6523
-60.549
-16.7963
45.0664
83.4991
-3.8972
-138.704
-83.4341
-115.124
-297.283
-214.691
39.2174
186.166
215.356
55.7543
53.5278
53.7561
-2.82094
-127.11
-137.428
106.183
135.351
40.823
-8.04824
-45.4633
-57.0664
-135.172
-213.094
80.6528
135.935
76.9232
-12.5537
-9.58751
9.16261
-92.5244
-148.763
-53.1165
132.498
195.604
200.209
54.5986
24.143
29.5265
-20.2973
-106.958
-84.5962
112.334
204.683
-26.7306
-60.8072
-100.611
-142.695
-141.773
-204.978
10.6653
71.9028
21.1074
-28.4783
48.6311
115.949
55.72
-88.4663
8.58111
134.358
158.374
93.7825
-82.1036
-128.656
-211.685
-250.802
-106.704
46.0564
70.7473
169.84
75.156
34.8781
37.2585
-61.2689
31.9893
92.5883
55.0743
96.9622
24.1923
-43.8709
-22.6182
-154.475
-115.085
115.929
97.459
71.5688
9.10234
-31.4758
20.3279
20.7394
-248.336
-62.4881
104.067
126.435
61.7635
-9.18133
-11.2798
49.7055
57.708
35.0112
-131.987
-9.81821
208.888
68.0732
-77.1277
-169.165
-200.031
-179.347
-203.33
-125.621
173.574
90.8643
-13.7339
-32.9589
10.3986
46.257
-67.3178
-124.704
100.126
43.5163
115.547
116.941
-20.9729
-58.9788
-37.23
54.3896
153.772
99.0854
110.161
124.194
62.2812
-12.6824
-103.915
-65.7045
37.8608
46.5209
119.803
62.139
-165.504
-173.348
-188.167
-237.036
-154.961
112.502
152.752
123.752
35.6781
48.2276
30.2704
-124.629
-102.811
50.8366
67.536
95.933
56.8989
54.8951
70.5916
-48.0629
-17.4609
17.5358
61.9124
71.49
-66.7173
-263.996
-299.982
-320.076
-133.704
60.6283
107.511
225.766
222.565
164.015
104.531
-91.3562
-94.7786
170.46
155.681
130.305
6.85229
-42.9708
-29.0815
33.6805
-54.2208
-284.751
-30.392
23.2607
-75.0231
-135.421
-122.356
-60.9023
-7.16875
-147.726
-73.4634
196.339
256.402
114.027
94.7925
100.08
60.1256
31.1825
-93.3989
-66.6331
122.478
140.545
9.64394
-20.6595
-101.255
-142.669
-206.542
-91.9762
23.1253
50.3925
28.5485
-0.291127
10.5325
-67.1864
-66.0956
18.2364
69.3795
79.2209
139.508
99.4851
-30.9417
-36.0406
-162.78
-24.1464
46.7491
34.2369
121.744
48.1099
-67.4037
-54.4945
-111.557
-58.0899
16.2969
31.2629
82.205
66.704
32.6705
38.7137
-10.9543
-132.91
-127.755
77.785
110.115
2.12946
-64.366
-75.6811
-59.5312
-108.815
-160.805
52.9397
112.387
106.221
38.899
44.2517
106.313
-16.5291
-170.473
60.1943
144.23
195.12
162.713
51.7072
11.3996
-58.8484
-192.538
-321.91
-106.383
68.0886
117.947
19.5193
22.6253
-35.2207
-113.408
-120.913
18.0721
90.655
118.639
-25.3248
-38.6011
-9.41214
-95.6846
-245.955
-59.9252
-10.3153
68.1023
167.788
78.3328
28.1065
43.8103
-133.634
-109.728
128.584
168.077
210.17
132.12
85.5843
80.0608
-18.6414
-85.0858
63.905
92.2938
70.9733
-45.0491
-103.349
-132.907
-134.956
-266.992
-104.648
-29.9495
26.8355
32.0343
-55.5665
-28.3134
-74.4968
-221.346
0.470028
165.067
120.119
121.347
12.0474
0.94483
-10.8976
-69.6059
70.9308
46.6942
42.1322
109.431
43.1771
50.1474
58.442
-65.6577
-112.078
65.1104
135.343
172.752
39.8973
-89.117
-111.45
-89.2157
-220.925
-220.61
4.0665
124.026
-5.59686
-22.1008
11.0954
33.6604
-4.69005
1.38067
-62.8253
-38.5531
147.151
87.1761
113.212
133.522
65.1261
-16.2393
-47.2697
-117.673
92.0857
122.444
-35.0299
-149.18
-199.265
-135.877
-140.185
-188.009
26.3939
77.8719
125.77
159.266
7.72294
-41.9244
-54.4054
-82.3807
174.055
166.529
109.741
99.5332
18.072
21.3435
-5.20805
-157.761
-206.274
-6.18169
82.3963
126.343
-17.5053
-25.8509
-19.2095
6.86738
-61.9637
-256.027
-1.66995
223.469
63.05
8.94658
40.3685
19.4513
-20.5258
-112.982
-164.247
132.314
136.28
-41.2259
-68.4896
-30.181
-40.9677
-85.0075
-71.7242
115.028
114.084
192.981
80.1368
-33.1962
-76.6983
-117.767
-140.648
51.9058
48.8679
77.7998
74.1046
-60.2703
-79.3011
-204.121
-271.382
75.1649
96.2995
115.133
92.9382
-54.5197
-55.1265
23.0733
20.6279
-27.2025
157.632
242.894
220.176
83.447
26.2523
25.9201
-9.72013
-110.129
-242.622
-255.749
101.426
23.8737
-60.1798
-39.9838
-15.8462
-33.7548
-8.88826
-64.743
-55.9804
124.685
26.2965
-33.9372
-29.5538
-73.5293
-62.1754
-115.244
-111.22
132.445
197.028
193.155
39.6367
-71.0669
-96.691
-133.376
0.727679
92.4652
78.5647
135.828
134.558
58.9708
-53.7273
-129.802
31.556
9.11963
-11.1839
45.4836
51.406
-83.4416
-73.5818
-145.36
-185.768
84.4611
95.7836
102.231
46.282
-33.3544
-7.58697
63.9015
-4.913
-6.10605
95.71
83.3224
-5.94522
-36.4025
-45.2294
-30.72
-75.7274
-185.522
-3.59701
110.523
46.5173
-106.292
-96.3142
-43.8593
-45.9685
-178.395
-26.8393
180.593
166.831
141.736
36.9733
16.0812
-11.4482
-29.3403
-123.491
27.4562
131.886
90.7501
-11.1999
-26.3859
-49.6181
-166.127
-256.795
-11.3862
174.828
214.714
82.8069
-30.1067
36.9337
48.6241
6.74936
-131.905
-93.421
119.228
134.676
44.4278
-4.05827
-23.4193
-70.2663
-76.5066
-145.348
-125.477
122.977
11.5868
-32.061
12.444
-14.5384
-41.5295
-112.085
-46.1888
230.911
246.538
137.288
-33.0859
-61.0683
-67.2161
-137.163
-71.9213
73.2089
9.55967
16.48
-1.2243
-21.1767
-17.563
-186.846
-98.2502
60.2091
42.6087
117.574
96.7402
-37.9042
-41.1719
-126.131
18.4468
70.7742
45.6264
94.1959
58.2478
-53.408
-74.1569
-128.75
31.2396
47.9397
16.0035
71.1272
46.3222
-38.6666
-15.2324
-84.1782
-140.978
26.4908
227.25
212.844
35.5379
1.31457
-22.9841
-13.0221
-50.3175
-229.044
-248.055
67.7445
5.78285
-5.01166
42.7614
109.92
106.545
-30.1097
-57.2766
201.131
243.115
36.6345
-125.241
-131.33
-109.153
-172.431
-92.1983
79.2488
0.465122
-3.23934
0.900035
-84.6187
-83.2832
-213.512
-111.013
88.9087
99.0802
102.549
149.709
99.5244
110.231
76.7063
-0.274575
-77.6637
94.9785
147.294
79.7731
-2.87636
-14.664
-18.6261
-38.4226
-134.311
-165.307
68.791
1.21667
-79.3794
-64.1933
-34.6529
-25.687
-151.481
-179.754
130.439
234.964
223.512
36.6576
-18.0256
-35.8673
-111.883
-210.303
41.7665
67.836
51.4787
49.1583
-22.3806
-25.1027
-58.3056
-92.0194
75.1901
74.5381
124.822
213.764
24.7503
-54.5313
-147.656
-73.2828
-53.1581
63.7892
31.5854
70.718
-36.7469
-52.8173
-89.8975
-59.5793
-95.1583
-31.979
47.5945
41.3504
-43.0895
-41.5899
-23.315
40.3804
-6.18587
-97.7004
-40.1772
109.368
205.526
105.886
113.934
86.9148
-16.4131
-53.0164
-186.989
-102.458
207.849
115.013
26.2852
26.3307
-29.9826
-34.5114
-99.6427
-64.0462
0.858498
59.02
101.873
-66.6299
-110.981
-119.663
-202.655
-73.5537
46.4797
13.919
83.422
50.2615
-58.4179
-126.645
-199.925
-17.061
24.1014
182.253
256.094
217.427
112.745
128.067
110.127
-107.008
-191.813
49.1617
116.619
44.3615
-107.12
-129.719
-84.5956
-139.461
-208.963
58.2289
131.579
24.532
-34.4078
-98.0506
-35.8761
-52.5888
-130.764
21.5845
179.888
203.536
162.209
-19.8071
4.21553
2.20924
-75.8336
-58.623
131.505
102.868
27.3754
-108.34
-42.2329
-8.1104
-1.55637
-141.941
-90.2318
117.824
150.594
86.1421
-28.3489
-57.8333
-71.7694
-209.424
-257.423
-120.506
181.803
176.383
11.6792
-0.534074
34.972
22.2731
2.66019
-141.827
-84.008
238.662
208.607
104.697
126.99
11.9909
-96.8422
-101.053
-159.515
-16.6154
90.5999
34.2664
-74.6876
-89.6336
-125.199
-121.392
-118.241
66.5726
109.75
166.141
115.513
-22.0125
-16.7309
-85.4852
-11.5832
116.822
71.6857
37.2926
65.7054
0.472774
-20.286
-117.79
-65.1258
17.729
-7.15555
0.652075
-11.925
-94.3146
-77.6353
-159.367
-69.0586
-36.4492
184.687
197.752
107.504
43.9283
44.1859
45.6931
2.58602
-161.442
-32.0168
207.24
98.7349
-28.9181
-99.965
-106.948
-32.5461
-84.7422
-152.767
59.0451
125.857
31.3263
-67.7754
-45.5808
-38.3055
-23.9265
36.1448
-28.3553
9.76305
183.114
101.901
-4.1651
-81.7422
-101.374
-78.7459
-151.129
-96.4063
89.3806
167.296
139.466
25.5946
6.7025
-33.5146
-80.2175
-61.5061
71.9176
23.0112
67.0041
53.6291
10.5973
58.9258
-1.20668
-204.054
-121.028
82.7769
36.8272
23.0956
-19.0746
41.7982
51.1927
-47.3357
-215.962
24.3423
198.379
192.45
72.797
23.0033
12.7022
-14.2226
-178.704
-86.0272
-26.5382
25.9926
-25.1852
-150.15
-52.3326
-40.4038
-170.013
7.60635
48.1593
88.547
197.513
64.64
-5.86777
-129.044
-80.8879
140.215
119.452
85.725
104.321
-20.6411
-75.7193
-128.412
-118.06
-46.6528
0.109506
57.7636
77.8015
-10.67
34.2523
23.6819
-157.169
-121.156
110.246
262.012
189.05
27.3813
6.62013
0.727205
-21.2586
-218.259
-347.085
-5.83455
120.903
11.0165
22.2603
21.0766
17.2567
-42.053
-139.051
-264.344
168.114
231.728
57.8751
85.795
70.9463
-0.61484
-25.4854
-128.515
-24.6918
127.217
184.55
35.7689
-61.7261
-115.291
-150.896
-281.24
-189.817
81.1018
125.89
208.236
132.536
35.3524
-13.9639
-79.5983
-38.6793
44.799
44.886
112.286
50.3401
12.5976
38.0049
-42.6817
-257.196
-201.607
79.2892
167.837
96.9039
-87.9248
-56.2703
43.6901
-5.25118
-198.289
-111.827
174.21
164.846
46.2549
11.4182
22.1792
6.07568
-61.2669
-53.5431
90.5637
111.535
40.8529
-112.928
-86.2513
-8.23352
-139.22
-58.8026
100.657
48.8882
92.7698
41.7193
-20.7348
-50.8171
-254.524
-149.136
45.722
155.388
155.367
141.494
-3.47792
11.6967
-31.6721
-112.709
-164.643
-17.9037
46.3878
17.1575
-34.9886
-29.3362
24.5796
30.4184
25.7728
-11.7792
70.862
261.193
164.611
30.1653
9.94227
-32.0324
-93.1663
-97.3687
-204.76
-113.784
40.7416
-10.812
-9.30916
13.6554
-6.11367
-81.5402
-141.972
68.1033
54.485
132.393
187.753
-13.5846
-56.3742
-184.675
-153.773
77.981
63.4964
54.5118
59.1911
1.25281
-4.09139
-120.876
-74.8893
109.908
80.8514
93.4648
129.82
52.0843
48.8544
-34.0396
27.1599
14.3585
-41.4869
-5.60951
-11.4535
-105.979
-80.6501
-81.836
-136.685
-39.8593
78.7466
115.614
74.3968
-35.5879
-56.8294
-44.9467
-44.8478
-137.861
-60.5181
152.07
138.169
18.1882
3.98451
21.0866
24.3069
-86.5725
-106.537
104.292
150.206
17.7154
-65.3976
-7.07319
-12.4989
-93.3982
-153.349
-93.8464
92.8983
111.173
108.351
67.1607
48.1782
-0.133922
-113.1
-106.001
88.3469
111.979
78.2671
-43.5997
-43.982
-91.2868
-157.945
-156.842
0.0543986
46.0808
103.309
120.415
78.6378
62.5275
62.3618
-39.5322
-180.375
-35.6454
212.803
147.212
17.4018
11.8918
-0.560922
-57.8334
-129.586
-125.526
24.356
66.5375
-0.525091
3.40816
1.20956
-53.9767
-174.811
-8.75372
36.7772
86.2388
168.752
40.5715
-58.6075
-114.675
-220.01
-17.5283
32.0997
-11.0871
9.28523
-17.3989
-77.5112
-147.899
-241.209
51.7833
203.096
174.134
215.16
150.891
97.7641
39.1024
40.4656
136.731
49.6829
51.9161
51.525
-59.0491
-79.1455
-107.575
-112.209
-259.911
-156.894
65.3523
103.503
-14.3345
-41.5498
-14.5123
-18.2001
-133.286
-139.402
87.0249
244.465
91.9661
46.4531
19.9797
-8.6691
-18.9812
-65.2813
-221.827
56.1513
158.226
47.3529
11.8942
53.244
-15.6802
-60.5455
-135.038
9.96043
77.2306
80.5349
45.2697
3.28168
-45.5047
-65.2135
-131.525
53.8742
94.3916
66.9465
127.595
-22.4745
-51.9176
-151.457
-207.732
70.3781
33.1698
34.6371
65.6069
-27.4165
-17.3192
23.4183
-122.992
-150.239
113.821
141.377
148.198
0.874367
-43.0998
5.23735
22.9441
-140.185
-223.68
44.3769
136.752
12.3021
24.7545
54.8046
82.0202
-23.1406
-54.5244
142.705
184.646
167.042
-31.8407
-72.7902
-39.955
-156.651
-124.498
-10.7234
-3.23419
19.4686
53.88
-91.0381
-142.288
-290.765
-169.721
-28.6885
128.686
141.795
147.71
46.2667
90.8824
111.737
-2.11856
-143.724
58.888
140.342
93.1931
18.8924
16.6387
23.8623
15.3644
-86.584
-198.825
25.2927
107.16
23.7235
-61.9383
-36.34
-2.54214
-58.4913
-64.1179
-109.612
40.8597
107.967
8.39378
-26.9726
-31.8065
-25.5136
-136.79
0.176388
59.653
30.7727
117.743
61.633
-29.5279
-53.1201
-144.809
14.9306
41.4216
51.5583
115.109
145.631
30.2404
-20.2572
-178.485
-13.4661
103.411
60.8163
97.7837
-3.22287
-56.7872
-115.838
-209.828
-71.337
35.9053
43.5381
75.4942
-5.4162
6.13836
17.3032
51.0474
-17.7751
-104.653
91.7004
148.445
54.3613
-49.8239
-46.1003
-9.6489
-34.4922
-121.169
56.1174
145.269
31.771
-75.1397
-47.1382
-32.7737
-166.867
-203.821
16.5313
182.084
207.909
162.713
43.9702
25.2906
-59.7798
-127.011
-177.161
-11.4248
-36.3093
0.697628
-50.6621
27.3265
59.0541
-64.8159
-193.187
111.269
212.165
193.982
47.1297
-27.1976
7.07614
-19.2521
-204.947
-14.1282
89.7704
75.4288
113.166
8.34281
-30.7252
-87.894
-170.007
-227.06
-163.129
74.2785
172.636
34.6903
10.7926
69.2569
60.8617
-53.1392
-4.50446
168.166
189.125
62.0577
-58.2376
-64.9108
-48.1882
-135.812
-5.61291
33.6708
12.0645
30.2863
-7.23429
-90.9161
-54.8928
-131.954
-10.6378
25.5136
7.46349
63.0333
92.6507
34.6608
-32.5546
-129.112
-15.2161
48.9743
88.7257
106.544
-4.8572
-48.3359
-84.2708
-121.994
92.2222
96.7564
83.8527
56.1754
-24.176
-33.2045
-22.5503
2.27361
-49.1716
-9.05909
107.432
108.114
-39.5288
-97.6683
-90.2244
-54.4341
-111.779
-253.445
-67.9475
16.7465
95.1865
70.9446
92.1294
114.702
52.7153
16.3466
-33.3802
-86.0624
57.6154
218.858
142.318
97.9328
24.5646
-12.4681
-70.4328
-190.52
-19.01
87.7023
7.38554
17.9601
-142.039
-141.656
-122.36
-212.236
8.13388
49.0951
79.6082
160.308
132.632
-15.4474
-70.962
-135.8
-22.8523
96.3096
98.7441
120.466
14.7498
27.3722
-43.0762
-84.1106
-249.983
-26.9414
65.8462
93.3665
-26.1447
-14.516
32.482
18.2706
-72.563
110.273
150.338
191.127
82.0845
-19.4525
-6.79749
-73.3142
-102.242
-9.80977
-63.6385
-60.0543
-12.3565
-112.07
-83.1823
-72.6023
-15.4415
70.98
82.8021
114.596
156.738
0.205987
-24.1757
-146.614
-167.929
-21.2606
110.666
141.953
61.4714
-32.566
-72.3475
-65.6013
-100.403
-158.148
41.5456
95.3924
27.6822
-0.902139
41.7217
74.1086
57.0813
-131.73
-225.94
113.887
262.537
105.127
32.1387
64.5108
14.9896
-33.1433
-132.658
-133.419
114.605
88.0263
-40.5099
-27.8031
-54.7432
-73.3467
-189.079
-35.7705
103.711
119.936
170.446
84.9149
-6.59877
-115.957
-257.148
-53.5341
-14.6712
-28.1548
53.6519
84.8604
8.00122
-89.3909
-230.132
109.827
139.635
103.719
152.873
71.5372
51.4775
55.017
-86.4593
-99.4857
27.5905
21.7093
61.249
-33.6471
-60.8927
-35.2541
0.517051
-110.243
-276.337
78.6929
170.909
58.9791
45.4651
38.3862
56.0913
5.42149
-95.8262
43.2231
165.712
68.826
-78.9335
-84.2621
-51.0197
-146.488
-264.927
-18.453
70.4605
83.5034
124.609
15.1952
13.9732
-67.0098
-71.3363
-119.974
-29.8933
113.778
174.702
123.104
95.9649
30.4884
-50.1866
-179.612
-29.1375
91.8995
141.626
-13.0994
-108.069
-83.8118
-55.3333
-171.442
-64.8783
85.0921
41.7412
47.6662
40.0379
-9.01169
37.5686
47.5029
-37.2918
-75.7863
111.414
199.467
93.4881
29.8205
26.4976
-64.1521
-164.415
-250.43
45.2563
102.665
54.0882
-42.8448
-45.5506
-19.2711
-86.9836
-81.6549
128.554
104.248
129.328
81.7629
-66.5974
-70.6788
-154.215
-124.995
52.7485
19.89
12.8298
69.0326
-35.8412
-27.1792
-148.827
-198.838
62.5086
164.216
178.154
135.508
38.0434
33.9472
62.5336
-52.7487
-238.196
-91.9207
186.72
203.803
51.2827
-13.2791
-43.8156
-24.2859
-50.9627
-21.5736
-68.4604
-63.9517
-161.305
4.16146
52.5901
43.3093
21.1668
12.1016
15.4778
74.9162
57.901
-47.0151
-87.6144
-33.1977
-70.4956
-65.5168
-51.691
-42.1148
-58.3314
-112.866
110.352
191.11
112.572
-35.2115
-6.38973
17.5222
-40.9453
-137.062
120.364
145.52
158.554
109.135
-5.84402
-61.8053
-92.5178
-143.802
46.099
53.6278
-13.0671
22.7999
-7.77266
-19.4428
-18.5116
-86.666
-168.041
-214.882
105.6
285.661
112.971
84.3055
103.61
60.4226
-89.2179
-143.016
53.3821
39.3791
-93.8619
-101.543
-78.249
-26.2229
-60.1392
-102.874
31.6814
52.8179
111.826
122.079
-8.66959
-21.7738
-136.723
-209.845
72.0144
110.826
66.1795
62.1733
-21.0722
-9.61198
-96.4656
-140.395
37.6205
88.3754
97.9258
125.229
57.1659
6.13657
-18.1857
-41.867
-15.1867
91.5405
114.213
120.027
-58.2867
-125.659
-77.3444
-129.201
-249.159
-58.7842
172.472
126.1
-18.2741
-25.9918
-18.72
0.694583
-87.2385
-52.5948
77.4817
127.652
63.327
21.8082
29.7122
27.2788
-87.4367
-173.479
69.1724
118.13
141.755
51.9297
-92.7788
-72.4663
-172.375
-217.285
55.7379
71.5217
67.9889
48.8996
-9.05525
18.6153
-87.0674
-112.471
134.434
111.847
95.6441
105.944
-34.1678
-5.86607
-113.719
-88.2707
-14.1609
-21.5706
-0.973052
59.8513
-59.224
-50.0849
-90.3276
-221.216
71.9518
213.123
210.752
200.245
78.8434
34.1339
6.92679
-13.7212
-176.497
-49.4059
93.9304
23.4565
-106.91
-104.959
-90.176
-99.7333
-199.108
43.0635
115.97
163.752
-23.2876
-73.8671
-2.0088
-66.908
-220.517
-124.418
111.892
211.312
197.09
119.669
106.931
58.7845
-32.5103
-136.805
-48.7271
72.4004
66.0162
-67.9099
-59.9148
0.853037
-61.3822
-199.43
63.11
150.086
164.042
103.427
-48.0309
-100.799
-65.8829
-132.658
-153.305
-111.241
52.5375
116.949
36.0407
-18.3543
5.70872
-26.3721
-11.8781
-115.581
127.482
238.258
88.841
78.4631
100.978
59.7254
-66.1378
-210.642
11.9825
28.1023
17.1516
-34.2529
-127.126
-117.544
-138.15
-151.048
19.6383
84.6881
107.409
147.083
-38.1582
8.61444
-42.8466
-141.335
110.084
118.287
86.3508
125.282
-32.0738
-39.0494
-59.4842
-156.511
5.62653
6.04538
17.0845
40.0981
-17.991
-55.2243
-56.9477
-176.344
-203.319
103.321
290.526
306.628
141.679
89.7997
64.9594
65.4235
-91.1259
-172.917
-188.783
58.6669
27.7318
-43.3137
-70.2311
-19.0854
-25.2215
-73.0351
-127.032
41.2864
149.966
-19.2791
-98.2783
-11.8292
-53.961
-51.2165
-120.238
-43.8322
90.8266
113.196
163.059
39.9503
-112.448
-88.4741
-131.371
12.0186
32.1654
42.3734
125.939
172.989
68.9913
-39.7702
-110.219
63.1786
50.3954
30.7368
73.5439
38.6654
-37.1685
-2.27128
-81.197
-72.8331
-16.9615
77.6922
89.4618
-0.402704
-32.3979
-56.3377
-54.2735
-148.886
-110.518
149.524
115.141
64.6769
55.8823
30.7477
13.8797
-84.8147
-98.9807
46.7156
61.4436
-7.67941
-83.4245
-123.106
-101.849
-225.732
-78.1859
80.789
107.922
167.258
98.5849
-29.6721
-21.0976
-149.417
-68.9252
89.8633
59.9999
105.976
68.977
-19.8221
14.4617
-116.397
-102.29
18.1426
17.2698
61.3302
12.9721
-36.7416
-19.3487
-38.8997
-83.7965
6.64508
108.95
197.229
185.787
92.4371
68.7254
61.9209
-31.0529
-66.1635
58.0612
50.4267
-33.8016
-159.627
-148.268
-82.8212
-112.258
-232.305
4.87854
102.59
99.686
-28.7052
-73.0918
-29.5172
-75.0523
-233.361
-27.7911
174.945
174.919
168.419
134.712
155.736
46.487
-173.257
20.3082
32.568
18.4391
64.0522
-20.6027
-16.8937
-71.3147
-144.22
11.2767
26.4667
44.1014
96.8722
-37.6784
-136.448
-170.648
-299.445
-76.548
62.8409
100.013
115.164
-20.6777
-17.9573
36.3667
44.7799
-105.377
18.3151
114.158
134.034
57.8529
64.1315
86.8608
106.109
-19.4884
-7.47915
82.2363
106.164
-37.8961
-98.5367
-104.923
-100.212
-251.698
-172.359
42.4413
104.307
142.944
67.0993
37.6399
34.0688
-16.8299
-43.6979
-136.58
131.791
171.292
77.2848
12.1843
8.51377
-57.1221
-116.326
-199.321
-53.0584
0.343467
-6.53719
-74.2206
-56.6328
9.02327
15.2649
-89.4041
-148.552
52.2103
232.758
265.094
104.854
64.7667
27.4232
-20.7812
-92.7199
-130.376
61.3434
72.3453
-12.2247
-26.1311
-69.5143
-106.419
-181.501
-106.766
78.6664
113.386
128.811
9.47614
-49.2448
5.9022
-176.707
-95.645
81.6823
93.4884
119.395
105.644
10.0395
34.822
-89.7934
-49.0211
67.846
45.4371
107.578
89.7249
-3.14966
14.8139
-68.684
-86.7453
31.8514
45.8204
92.3382
6.47344
-111.758
-107.873
-177.235
-267.521
-111.605
-33.134
185.953
126.038
13.8674
-6.8399
19.3086
11.2835
-132.384
-158.528
132.55
205.026
94.0259
89.9878
121.585
88.1535
27.3822
-8.15471
-57.4051
27.145
35.8641
-31.4391
-124.634
-132.017
-134.683
-92.1639
-190.353
-53.5997
137.683
154.728
63.3612
16.9732
5.83156
-24.3915
-71.6741
81.412
49.1299
37.109
97.788
99.3558
-42.2421
-132.016
-178.936
16.8303
-10.4281
8.3057
107.877
50.9272
3.14006
-20.048
-203.097
-174.854
113.786
194.402
204.994
67.887
13.5035
-26.6543
-26.1485
-116.005
44.8992
121.357
56.4762
-85.133
-98.5785
-60.2589
-53.1483
-163.148
36.6493
78.0623
116.868
69.7086
-92.7034
-85.0237
-83.0603
-173.249
1.50745
109.948
101.314
150.803
14.3117
-19.6125
-70.2902
-182.186
-15.3036
-16.713
26.0555
79.9368
-12.0616
10.4927
-26.7422
-133.71
55.4885
182.311
200.236
179.607
55.5244
-18.4083
-16.7989
-31.1854
-160.519
-154.645
40.7721
18.2952
-80.2805
-68.4109
-17.4747
28.665
-54.721
-186.697
71.0694
241.01
82.7673
45.0593
74.8643
62.9508
-14.9971
-55.3034
-125.627
-106.103
65.0071
44.8995
-54.3224
-64.883
-87.8585
-74.4619
-130.841
-37.116
42.5642
121.565
50.6704
47.4024
-11.2812
-45.8175
-83.6188
150.531
112.391
87.9325
92.9966
61.083
-7.90224
-74.4037
-47.2298
52.2893
-1.89113
-21.2257
22.2756
-24.3743
-65.9751
-133.753
-163.805
-115.652
138.433
182.823
190.246
33.0883
-35.5498
-48.899
-36.5489
-108.841
-93.3257
79.9687
10.4777
-61.2708
-57.6392
-39.4349
-13.0946
-132.105
-14.3241
227.8
152.912
111.239
-51.8593
-32.1227
8.73676
-148.743
-147.969
-60.1738
188.312
227.095
127.668
23.8156
-41.6532
-96.8158
-115.655
-227.357
-12.473
146.889
71.1816
33.3512
30.1912
50.8354
-9.12103
-107.502
-70.9818
85.4132
115.128
91.0662
-38.3093
-17.2637
-42.6626
-83.2726
-103.91
-199.684
-62.7215
104.436
31.4952
0.672367
2.39574
-7.68906
-16.6559
-155.401
-87.123
173.526
206.685
138.596
65.0875
7.58414
-43.8875
-106.527
-58.3415
118.994
101.625
109.076
-12.8528
-40.225
-45.9729
-131.353
-28.3254
6.10858
10.5718
76.2781
36.7412
-20.1412
-27.7702
-65.6267
35.9328
24.4046
-44.8063
8.94152
24.3108
-79.3103
-178.249
-236.906
-29.5633
134.909
88.9832
106.9
44.6656
20.0478
34.9811
48.1162
-145.952
-142.889
167.106
253.306
95.6704
27.9988
-8.50439
5.69824
-16.8306
-253.338
-226.07
58.5334
179.371
78.4473
46.1409
36.6209
22.0549
-9.14014
-44.6036
-81.244
-9.71169
124.373
-26.9618
-70.5763
-73.5248
-45.4343
-51.178
-121.914
-96.5591
128.306
140.285
-4.37735
-195.114
-206.903
-143.441
-247.013
-74.9394
171.317
185.277
211.564
251.17
159.029
101.334
-6.45999
-157.847
11.2926
215.733
217.557
128.957
58.715
67.9683
3.74635
-157.181
-271.83
-115.548
82.9776
-1.67606
-110.537
-99.7584
-47.6729
-67.3618
-226.063
-67.1236
180.44
207.988
79.929
-71.6711
-85.1834
-77.8628
-153.57
-5.04326
70.5395
24.6009
45.0258
-9.42863
-4.02249
-16.0904
-103.23
20.7647
104.457
133.261
198.559
95.5014
1.07394
-13.2318
-131.631
-97.0642
69.6815
75.7511
74.1138
-47.5303
-113.807
-130.849
-206.012
-135.455
90.9078
69.8854
61.3507
-12.1319
-30.1249
54.8002
95.6246
-52.038
-34.5995
147.495
172.715
76.5865
-28.0408
-20.6125
11.2009
-2.56588
-132.401
-127.093
-37.6727
75.4565
26.0445
10.8733
40.5599
26.0429
4.77535
-87.4664
-97.2163
160.679
95.1582
-0.411026
-17.8308
-49.8252
-88.3742
-161.63
-90.4468
39.7313
63.6078
26.1899
20.3656
-61.2661
-117.428
-148.708
-49.852
134.111
132.923
132.501
127.567
30.8169
15.9087
2.41301
-61.5645
61.6123
81.5144
84.502
49.915
-35.0044
-24.7382
-56.1875
-63.3461
-192.2
-87.1991
91.6458
42.3722
-45.0095
-73.5088
-8.96573
5.83543
-94.1745
-10.4504
101.531
118.401
32.4234
-7.48421
28.286
7.46332
-128.944
-2.92934
49.1228
39.2787
80.7342
0.42847
-54.7133
-65.5343
-243.898
-33.2584
140.25
148.086
149.244
89.9657
-11.5089
-3.29893
-41.8341
-158.59
-127.833
63.8606
131.335
11.1902
-48.4888
-45.8284
-35.7615
-34.1693
-157.953
-82.6088
187.417
94.4118
23.5927
47.7525
65.4805
52.7399
10.2208
-29.209
-125.13
47.0296
58.2654
-29.0947
-31.1416
-51.1436
-62.6825
-128.537
-163.235
86.7743
139.443
124.091
37.3537
-41.1113
-43.4772
-95.0191
51.6408
110.865
65.6223
48.6113
51.8232
-24.4343
-58.9069
-186.998
3.48963
23.5078
-17.5345
-5.86893
32.0695
-63.6379
-72.7555
-92.3134
-2.44433
78.8721
68.8833
91.3263
44.3275
28.0158
27.2414
-58.0133
-7.57454
105.584
85.9679
114.692
-2.7335
-51.035
-74.4838
-38.6362
-72.2779
-137.282
75.804
125.303
39.6424
-68.1492
-87.0837
-32.7749
-52.0452
-112.109
-146.386
200.648
182.299
25.6695
14.338
11.3306
-48.1222
-48.0257
-138.482
-216.211
89.3547
148.685
57.9917
51.4674
-23.0299
-18.7114
-23.2174
-99.9838
101.579
163.156
165.453
-9.57534
-33.7631
-77.4518
-116.148
-148.99
28.5442
40.9127
49.1296
74.0608
-55.2855
-81.2325
-130.671
-291.806
-120.35
182.964
207.652
233.119
139.004
117.8
102.982
-17.813
-115.866
-132.214
80.8029
133.552
-13.1263
-84.2514
-108.22
-81.3952
-174.453
-69.0857
51.3391
154.203
67.8866
-102.747
-84.4878
-33.9457
-122.252
50.5142
96.1601
56.0498
79.3175
49.6527
-40.7079
-109.926
-177.684
58.401
82.4225
71.7134
63.35
13.3554
-37.6049
-75.8451
-131.877
45.7072
133.928
130.757
158.911
79.0986
51.6274
-0.261683
-143.658
-122.462
80.441
100.968
45.1068
-101.066
-99.1749
-90.3857
-74.4775
-103.235
-202.279
68.7254
167.793
-28.9649
-81.0182
-23.7037
23.944
5.76489
9.46361
-136.448
35.7655
240.623
51.7269
55.4008
50.3276
14.022
5.57761
-114.43
-124.732
53.9416
136.976
78.9677
41.8385
-39.8467
-55.2051
-100.939
-149.314
90.4644
109.591
153.512
116.793
-37.6647
-102.273
-121.051
-94.9947
-31.0328
-32.1319
8.67794
20.0921
-30.5272
-23.4664
-101.405
-117.432
28.2192
80.4692
126.308
171.396
59.9903
51.6839
52.4723
-36.7418
-123.716
24.9036
52.1985
40.5442
-48.1406
-67.1339
-58.4555
-139.17
-149.072
48.4121
83.9342
95.2972
0.20809
-27.4777
-5.81415
-66.7979
33.8481
92.7139
117.687
138.747
94.2567
-58.8841
-89.9163
-219.862
-75.1982
134.373
85.5307
72.6363
26.6817
-75.4256
-45.5585
-21.6594
-158.985
-206.759
40.8111
153.293
42.7109
22.9123
4.27145
25.9206
17.3297
-145.607
-145.116
30.7253
174.135
37.4888
20.6703
47.0252
25.8257
-16.9229
0.631578
-73.3443
34.5015
116.738
19.063
23.8356
-13.9243
-5.77113
-3.51519
-96.7671
-28.2654
80.1168
109.541
99.8511
-89.6363
-147.133
-187.075
-338.537
-88.2226
157.628
133.389
132.375
63.5432
30.2099
7.75303
-51.7406
48.6954
124.026
87.906
77.8378
21.3543
-13.8099
-18.7293
-172.101
-107.266
35.9075
42.3223
111.125
-9.09479
-117.79
-78.8267
-71.5123
-143.033
-37.639
110.757
162.537
94.8685
52.3841
42.7563
43.7517
-26.2325
-147.081
39.0979
145.737
-13.4501
-140.417
-139.718
-58.6698
-109.9
-210.647
13.1972
140.416
135.567
57.6747
10.82
57.7778
49.5652
-50.6974
-130.333
104.533
187.921
161.194
45.1322
52.6834
-26.6796
-144.985
-134.631
2.50398
15.3244
34.1315
-58.0463
-42.421
22.2375
-142.627
-281.354
51.6171
181.921
153.806
165.225
13.9845
-48.4809
-19.0347
-76.2653
-115.193
-160.549
4.6014
139.545
42.4028
3.07152
25.9442
-9.33143
-30.3904
-94.2141
99.0659
154.272
-13.6816
-73.0322
-3.52561
47.8129
-86.328
-150.302
86.6471
74.1481
95.7234
113.333
38.0537
-43.3086
-201.647
-298.381
30.7161
125.374
100.308
143.257
70.9239
53.9001
-83.2436
-121.335
37.1564
33.7885
36.7926
-45.4562
-42.6609
-73.6907
-36.5479
-164.111
-119.24
100.734
124.024
204.951
173.854
-8.03207
-20.9647
-6.24439
-163.423
-196.131
-89.2329
167.464
117.898
6.18823
-29.7042
-40.3576
-22.5916
-96.1582
-9.5907
126.02
48.0669
-32.0257
11.7622
95.9762
83.4398
-69.3437
-18.9009
99.2407
76.9662
74.4449
-14.3115
-114.962
-134.797
-262.59
-79.9186
48.0685
43.9355
74.2435
32.8127
-3.38002
-23.1176
-154.429
-105.516
67.8282
93.9578
77.751
43.6629
-9.41101
52.4172
74.6431
-1.66956
-150.131
-100.102
127.129
88.9565
57.8101
68.7526
63.9851
23.9761
-20.9425
-71.1187
1.26323
120.333
38.2319
-37.6125
-39.8907
-46.7496
-73.123
-68.7147
-175.78
-45.2763
91.0928
58.0102
-20.9426
-48.5224
-61.7426
-38.6882
-97.7745
16.7398
106.588
140.132
141.158
66.2824
28.257
-26.3958
-184.804
-96.3953
88.6867
70.2822
103.041
15.9295
-28.9856
-50.9732
-159.575
-72.0375
27.7323
8.39495
55.4215
-16.6818
-47.4535
4.73709
-74.6983
-147.036
100.57
223.306
270.517
178.964
-6.50253
-34.0167
0.505214
-75.4504
-238.502
-201.764
42.3244
-0.990131
-40.2723
-9.53927
38.2437
14.1201
-106.173
-77.0872
155.598
193.72
45.2893
-15.152
12.1603
-50.0808
-157.844
-211.883
-24.9817
126.408
153.087
93.0642
-46.0806
-56.5128
-28.254
-7.57784
-77.1755
26.7409
188.848
129.018
30.2165
26.4441
-14.5389
-41.8107
-112.675
-177.02
-8.74047
179.789
79.5062
-21.3436
0.60273
-39.9857
-88.3673
-161.018
-216.916
64.482
154.02
67.4297
12.2487
50.8085
63.2773
114.191
10.2413
-104.676
125.522
113.609
-1.04882
-59.4958
-60.9973
-103.288
-198.663
-200.11
55.3739
115.325
121.261
-24.2933
3.97571
-3.14928
-104.295
-110.53
124.912
111.289
113.852
108.15
-6.44062
24.2313
-111.748
-123.989
86.6172
34.1002
77.0649
53.6762
-118.207
-98.0988
-156.314
-150.677
60.8393
75.7819
86.5343
119.304
-22.3291
-22.8252
35.7728
-6.56473
-80.7083
116.574
153.854
95.6032
-67.5302
-76.7675
-22.4612
-0.223204
-128.945
-247.794
85.2638
118.875
20.2603
-15.838
-3.8069
16.6954
-31.2093
-11.1829
-76.0002
-131.29
175.318
97.4134
36.1827
32.8905
-15.9591
-20.9466
-78.6772
-143.528
39.4794
137.372
46.4808
3.40796
-19.817
-19.2221
-107.081
-55.5679
43.5656
89.5092
150.301
231.364
42.9574
-91.4889
-222.539
-63.0768
73.6635
46.4005
29.537
10.5198
-108.478
-79.2485
-162.293
-267.733
5.28332
95.325
151.125
127.301
56.7497
49.7206
60.5379
29.7951
-130.584
23.1635
120.651
38.8148
-51.538
-64.7991
-48.288
-144.012
-266.352
83.4613
179.815
150.574
-3.20681
-30.9951
25.4831
5.34668
-85.7644
72.8627
76.206
96.8924
79.6121
6.36399
-0.163025
-121.955
-160.113
-33.6715
-12.6755
45.4239
67.8589
-83.9508
-105.625
-190.144
-267.807
-43.0181
215.339
243.213
249.562
151.093
110.212
73.3193
-0.177318
-102.58
-61.2522
37.5393
12.7845
-44.8034
-46.982
-44.5652
-42.2939
-106.132
-132.428
-100.794
83.3258
54.7447
-76.4757
-65.4579
-25.9074
-29.0919
23.1
12.5374
-1.53072
107.159
60.6411
27.5882
55.2106
15.8003
-26.6717
-129.429
-1.11032
53.504
88.6919
186.362
99.1873
-18.3034
-101.18
-164.828
-20.2193
-7.09941
5.03628
62.2293
62.0422
1.90959
-86.2163
-215.25
-25.3312
178.313
133.624
143.217
52.4425
-51.8175
-25.1727
-99.8716
-172.117
13.7235
16.7602
55.2562
13.2697
27.9364
60.3364
50.5021
-101.575
-72.7622
49.0608
125.051
16.0752
-127.779
-128.928
-136.794
-268.211
-49.3061
80.3319
146.83
139.99
12.7942
0.42584
21.328
-116.518
-116.003
181.72
192.796
176.493
58.3054
20.3853
14.3396
-35.6538
-152.381
-112.405
84.8922
100.311
-45.5668
-64.8814
0.929114
-2.41208
-200.092
-211.829
57.0414
239.127
189.276
14.3808
28.2674
64.6106
0.326058
-73.9847
16.6597
3.82718
10.8679
-20.9581
-117.41
-77.7422
-146.856
-259.097
-0.632804
77.1771
132.176
136.572
-3.35183
-27.1993
-16.8499
-165.305
5.94889
149.181
142.003
136.861
60.4573
30.6411
23.5647
-74.3343
-8.96395
5.85826
-43.456
20.4859
-90.117
-101.984
-44.1238
-79.4114
-26.8921
44.3293
46.4987
75.6783
6.16385
-25.1298
-41.8277
-159.147
-121.626
105.882
110.194
126.444
50.7357
7.16782
-4.95145
-1.04247
-134.385
-71.2414
137.309
187.643
47.1264
-11.256
34.4212
75.0661
37.1913
-76.3467
-235.047
28.6862
151.854
-44.7688
-64.582
-44.983
-58.8564
-65.9573
-61.8576
-94.8981
-39.5497
68.3044
-11.5811
24.6549
25.6533
35.6649
49.2061
-31.5591
-20.3267
152.031
202.436
94.1066
-56.0025
-115.584
-94.8067
-124.783
-103.221
1.95264
-2.92947
57.2523
84.7349
-7.40334
-54.0954
-175.585
-213.549
66.3266
179.912
241.242
172.271
52.1614
60.1543
26.6319
-44.206
-132.738
-64.905
55.0199
79.8967
-33.462
-60.1418
-42.5409
-6.10565
9.52768
-24.91
-9.57249
87.713
-79.1156
-104.61
-28.6773
0.0400439
3.68341
-53.6563
-51.1784
89.3666
100.893
63.3365
-4.24049
-52.438
-76.9351
-160.974
-140.014
84.6369
95.5672
82.0282
99.8153
28.8544
3.45989
-21.8392
-61.6028
78.9046
27.9588
74.4917
50.9314
-81.9348
-38.6449
-18.4716
-104.6
-69.9367
-24.9732
25.0992
68.7501
-4.47181
-46.3028
-38.8293
-71.204
-31.8576
94.7759
222.699
206.138
105.747
76.4694
9.85011
-25.5349
-79.5702
-129.144
-111.37
117.312
25.2395
-71.7311
-74.009
-98.3176
-126.057
-148.406
-86.9502
137.384
98.3284
4.00339
-46.8473
7.53724
-5.28147
-90.4502
-64.1123
123.584
47.7072
43.2497
36.5759
-57.8716
-60.593
-103.462
-39.5857
95.0848
77.6316
75.4062
89.4816
41.858
37.4616
-35.2854
-196.755
54.8334
146.464
174.395
139.525
-2.32358
-30.3188
-46.8007
-142.503
-44.7729
63.9893
55.868
-8.93134
-114.768
-104.12
-43.5628
-30.8108
-90.4105
22.6222
33.576
120.077
49.6779
20.0183
28.9254
-63.0311
-166.062
66.7799
118.673
133.107
-19.8471
-117.824
-133.766
-165.638
-252.797
-213.096
122.764
200.545
193.273
111.336
111.395
122.735
22.3357
-109.603
3.70739
129.394
126.084
-22.824
-45.4225
-19.0373
-62.1018
-144.222
-205.229
-135.637
159.66
164.214
-13.3185
-43.6592
-37.3716
-48.3819
-6.9326
-76.667
-22.6886
196.195
103.898
23.2425
25.4017
-29.5014
-22.4447
-86.2396
-72.5138
64.3611
74.1082
60.8167
-31.9716
-13.2911
-98.592
-144.086
-10.4534
71.7411
49.5157
114.687
93.437
22.5324
-42.9261
-188.45
-144.771
78.8189
78.5882
114.823
91.3105
-4.74255
0.569758
-102.503
-86.0008
-26.9779
-13.3313
82.7954
64.6812
-10.9351
-30.2241
-64.4275
-200.501
44.1328
181.258
203.216
147.836
-28.68
-59.9987
-49.4935
-149.468
-306.53
-125.975
48.7365
6.72151
32.1314
48.524
48.6785
32.8752
-122.403
-87.7742
230.303
294.937
101.149
35.5844
70.5352
55.1803
-65.1686
-140.57
-252.079
-56.2468
171.463
62.6288
-11.7771
-42.208
6.15674
-0.664335
-145.025
-68.7115
58.0415
67.0861
-34.3448
43.82
49.3526
-42.3928
-66.2788
-2.95651
-31.6172
-1.9046
98.2816
54.6331
-23.7189
-67.8163
-177.959
-131.797
-48.5516
-13.8268
106.7
87.5655
91.1937
99.341
-62.9094
-73.93
123.2
173.731
150.594
56.5259
-6.79548
-3.33986
-12.1328
-108.59
4.53088
-24.3764
-8.872
-62.7749
-109.294
-85.9261
-86.1889
-76.9409
83.1871
45.7784
91.0774
102.968
-17.5339
3.50268
-90.7318
-108.951
55.2291
70.5051
42.2253
66.3294
-38.3904
-44.914
-101.201
-103.807
16.0627
-3.98047
18.0459
3.79146
-43.4412
-25.9395
37.143
5.62444
-41.0937
148.652
162.776
88.7746
-2.44828
-34.9589
6.50241
14.455
-158.095
-221.553
73.3671
101.3
-14.3289
-9.95936
5.59374
8.01295
-6.65289
-78.9867
-131.354
188.209
200.805
42.5177
55.9005
1.81776
-67.7785
-76.7543
-103.821
44.0031
107.541
58.585
-103.526
-116.948
-101.415
-60.2074
-91.2512
2.18072
103.329
116.805
159.938
31.0945
-19.1368
-65.1601
-109.048
83.0704
60.3939
17.2185
67.3767
7.75183
-33.2225
4.62104
-118.943
-300.387
-32.2574
38.7509
97.8927
86.7764
19.1817
46.2839
73.155
-47.673
-33.5652
108.91
137.564
15.6044
8.10882
4.43688
-28.4897
-139.11
-135.925
45.8699
27.0029
61.5299
-98.7987
-126.574
-34.733
-58.8592
-41.3798
34.9876
63.1557
71.7449
76.8646
11.8632
-26.4025
-255.505
-144.47
-25.5986
269.306
248.627
155.948
24.0038
-4.40909
24.7675
-73.0893
-154.969
73.1203
92.6051
-20.6927
-61.7167
-14.0703
21.0795
34.8207
-28.1329
-191.028
51.6181
119.198
28.2082
-95.9547
-33.6837
-8.49652
-51.1541
-73.0092
-190.755
-13.1197
176.356
50.3282
61.4016
45.1041
1.49402
-43.6466
-170.58
-58.4499
220.197
314.496
210.557
59.2942
-33.0468
-164.386
-206.192
-175.246
-60.5641
-35.627
48.2654
-61.0949
-41.089
-43.5022
-85.4869
-14.004
85.5508
96.6033
176.312
133.725
10.5034
55.8654
-76.3808
15.7868
32.5911
-14.4549
-5.54948
-10.6234
-65.5027
-37.8227
-59.5053
-178.297
-79.3397
8.10383
45.6924
45.8439
15.1045
19.5948
65.9571
35.607
-74.3059
133.556
176.404
38.2737
-6.37138
-25.2028
-12.5363
-146.185
-264.807
-152.348
9.47466
264.171
163.49
40.2074
35.8174
11.7571
-34.6623
-99.343
-52.1786
132.125
121.543
28.9357
-16.5061
-82.3651
-70.615
-145.366
-35.9942
137.069
138.847
33.4145
-46.5412
-144.204
-184.35
-309.418
-22.639
92.9666
37.8239
69.0917
119.637
55.7785
51.6577
18.6841
-84.5241
-127.601
134.369
182.796
120.446
77.8584
27.5421
-55.2819
-73.3969
-203.448
-79.8978
100.061
14.8876
-25.2387
3.30669
32.5089
15.9857
-118.978
-64.5364
163.729
187.567
170.136
-34.309
-56.4336
-72.1883
-169.565
-134.272
62.4417
8.48538
26.8424
28.3137
30.446
1.5991
-130.122
-19.8065
57.1533
53.5462
101.353
116.639
-33.7341
-98.6545
-163.869
-34.5281
37.7199
17.3204
38.4126
29.1736
-77.4321
-44.8003
-63.1199
-193.55
-155.207
116.162
155.126
84.0063
79.0491
96.7027
94.0985
76.5854
-57.3047
-48.4219
168.695
16.3372
-22.5275
-14.3413
11.5592
12.2712
-144.426
-294.515
-89.6286
181.088
149.845
-13.908
24.4916
11.1971
-82.309
-189.972
57.9546
119.294
122.578
116.981
9.30576
-60.1509
-133.658
-172.348
62.4254
40.3762
17.3543
70.8901
-13.8328
-78.2411
-210.064
-228.072
-114.858
129.553
174.156
252.278
126.341
90.2367
96.6737
65.6562
-183.209
-70.3495
142.808
142.726
6.68493
-53.2162
-67.4022
-27.0719
-119.429
-255.051
90.5439
81.029
56.9655
-93.2763
-116.532
-61.7931
-143.257
-125.311
72.328
203.691
223.152
59.854
-76.5339
-42.9585
-45.7128
-120.214
-21.2718
50.0555
43.5073
104.397
12.9481
-32.2091
-36.0477
-161.921
-30.7725
103.625
125.684
138.337
60.3885
14.6519
74.6457
17.7024
-131.711
-237.57
-41.4215
174.792
87.3148
-12.3065
-26.3451
27.415
-12.0372
-161.59
-6.4642
122.2
42.101
-9.90789
15.5782
42.6793
4.22129
-146.565
-15.4643
88.6044
72.6287
106.785
-14.1143
-85.3885
-158.548
-294.009
-154.724
76.0013
57.9701
102.037
40.3524
24.5754
-14.4094
-129.785
19.3181
58.4208
76.9802
158.506
65.0137
5.6532
5.34153
-77.3011
8.14703
0.0798014
21.6461
80.9503
5.0489
-110.453
-122.539
-219.006
-111.46
55.2178
161.534
194.499
117.121
93.467
65.4551
56.8813
-70.1983
-124.069
31.7731
106.436
0.544816
-54.9816
-51.1356
-26.5004
-111.88
-212.815
39.8195
176.964
94.8929
-34.0772
-97.7476
-42.9798
-109.958
-94.483
-11.981
159.905
180.069
117.699
-9.74763
8.68044
-30.5551
-54.1575
-122.627
-93.27
8.27468
34.7092
-42.1883
-4.72529
-17.4427
-10.3273
-150.212
-92.1135
157.054
167.259
110.313
18.7551
8.53497
-27.7655
-174.372
-85.8046
84.3263
106.434
115.098
62.7324
13.2959
-6.76397
-63.1438
-62.1605
-145.784
-89.894
154.05
133.603
29.5624
48.354
40.3494
-5.01378
-108.349
-0.592241
132.235
64.0372
-65.8067
-103.239
-85.0473
-155.206
-310.264
-97.2512
156.551
164.148
184.891
67.2158
-35.3028
-20.5738
-121.928
21.0652
93.9617
56.9074
78.2844
38.6047
15.8895
-13.9032
-158.281
-12.7743
35.0485
34.8998
34.3269
-63.1049
-137.567
-154.139
-150.96
-49.3485
171.567
170.309
151.359
98.6287
61.0224
39.3796
32.566
-112.028
-188.212
89.3789
152.445
42.8891
-11.1042
-50.8546
-28.5581
-59.2867
-192.324
-201.497
102.564
178.964
-14.2318
-36.685
13.0268
25.1277
36.5261
-58.0017
-91.7076
117.101
129.644
-8.29711
-21.4174
-36.9856
-46.4082
-142.159
-68.597
72.0462
66.784
133.964
44.9268
-49.0156
-90.9324
-170.683
-49.5871
97.7008
92.4762
141.229
127.025
40.5164
18.6221
-222.704
-201.372
-54.638
85.2094
131.847
101.021
-16.1527
12.5535
32.766
-77.4972
-120.967
47.7813
97.8413
53.467
-12.2834
26.1661
59.4251
-33.4328
-65.4877
44.939
73.8156
68.6614
-37.9023
-135.736
-120.226
-230.879
-243.575
15.0808
54.5737
61.335
75.799
-20.9901
8.87188
-45.9884
10.0238
115.216
119.248
141.327
106.824
18.8196
37.649
-20.0518
-105.38
28.8405
67.0279
70.045
8.77485
-117.729
-81.3251
-23.8756
-150.102
-267.743
-1.05237
289.344
197.878
82.4324
52.2595
75.3119
52.3848
-60.725
-143.998
45.2892
50.148
-89.8824
-96.5988
-59.988
-60.911
-121.384
-162.782
-20.1418
115.516
140.824
26.3549
-71.2485
-70.8197
-124.419
-122.083
47.5014
138.834
121.594
135.96
47.8522
68.9252
-21.1898
-114.983
31.4876
10.145
17.0931
36.5909
-43.986
40.3075
76.8886
-42.046
1.17811
1.0413
60.9187
118.825
24.5749
-46.2292
-99.1776
-115.81
-61.4725
15.9042
23.5861
55.961
-46.2925
-54.2834
-45.1071
-34.5046
-179.961
-88.0239
131.706
135.245
52.3962
31.1693
41.4799
66.0808
-30.8533
-100.319
109.115
128.523
39.4635
-14.6062
-55.0319
-68.8036
-216.881
-285.697
-102.329
195.927
254.973
149.886
-1.87883
-23.3251
-60.9417
-19.1439
-39.5716
37.3016
129.713
94.9536
-0.276888
-32.7371
-37.5257
-39.7112
-127.905
-30.1168
53.3281
73.3428
-16.0456
-127.613
-36.9357
6.70989
-107.741
-185.357
-82.4894
179.806
258.627
187.916
115.269
67.7531
-12.1368
-104.509
-218.2
21.0484
77.5823
22.9002
-10.3983
-28.154
-80.7788
-156.718
-105.763
27.4063
57.4486
125.109
96.7028
-21.5441
-19.7464
-196.625
-42.9958
154.918
109.921
118.179
140.776
-17.4515
-28.1745
-174.931
-161.69
7.49474
16.7795
47.8583
53.5749
6.52394
26.8097
-25.4792
-131.545
2.8681
51.4117
165.789
59.1334
-58.7178
-36.6219
-111.021
-200.792
-125.289
135.769
196.016
121.313
13.5593
-16.4945
8.78932
-2.63654
-158.568
-139.213
151.008
184.155
35.1857
38.4319
81.9712
18.9841
-49.2668
-171.15
-230.786
92.0054
148.75
-18.0959
-27.7493
-58.4701
-93.494
-82.7048
-171.104
-62.987
103.705
103.958
-17.0794
12.683
-14.0479
-33.9914
-4.45648
125.707
53.4226
91.3298
164.396
73.7112
-49.9296
-148.999
-124.706
3.22965
-16.0049
3.65864
93.6976
35.6577
12.1826
-35.0374
-186.152
-36.221
127.127
160.798
154.478
38.1909
4.13993
21.8999
43.2797
-119.251
-54.4799
51.7017
-3.01705
-108.471
-99.9042
-77.2512
-28.9213
-124.608
15.7413
78.2465
85.2071
54.8983
-29.7561
-4.64126
-38.5724
-98.7209
43.7592
106.969
83.16
78.0998
-13.612
-64.1576
-86.0991
-200.353
-10.5537
9.94997
12.7689
41.9973
-9.56769
15.0111
-5.95325
-207.499
-86.1978
173.101
216.948
191.274
83.5038
50.3845
35.8888
24.4637
-120.018
-244.329
-46.7383
182.443
15.1402
-27.0531
-23.9217
-10.2605
-35.2967
-96.4794
-139.496
56.2844
186.894
61.9756
95.8321
87.1176
-15.5191
-72.2111
-126.099
-216.185
103.038
162.844
43.1511
-64.8505
-108.812
-112.215
-131.522
-171.243
70.0401
140.828
193.821
122.396
-63.3961
-74.7607
-101.659
27.7094
76.4934
48.3849
67.6006
134.476
-14.6829
-49.305
-174.071
-43.5522
-3.95124
-21.6009
13.7466
65.7533
-60.9829
-43.5339
-50.7214
-113.304
-30.6333
146.377
178.905
124.047
62.4396
57.6078
56.0203
7.12127
-166.676
-73.5463
189.415
19.1387
-64.3223
-96.5657
-66.7091
-16.5332
-152.574
-148.919
153.598
176.918
63.67
-45.7591
-5.87428
-15.208
-91.7379
-181.299
-77.2962
132.569
177.472
120.524
-12.2515
-69.5593
-80.6488
-64.5331
-180.096
-53.7362
156.88
159.373
14.5757
6.83508
-17.7564
-28.1979
-55.239
-25.0313
91.3979
125.744
72.8357
-29.7604
-35.5647
-40.8255
-101.422
-252.115
-114.07
67.3821
136.946
85.0477
5.60387
39.3864
-1.53627
-144.984
-21.5189
180.72
206.58
150.853
57.697
56.6673
19.2309
-144.107
-150.652
74.3072
16.4791
20.9955
-108.24
-178.862
-65.0719
-124.883
-89.759
80.6205
44.106
137.106
67.8246
-46.0729
-28.6687
-94.4324
-22.894
96.5976
74.8675
70.0622
58.2737
-67.2927
-89.6024
-128.349
-6.40107
-11.109
-3.36007
56.3822
26.6292
-11.9936
11.379
24.7414
-169.439
-322.276
94.5668
329.255
229.471
121.261
62.2413
44.8053
-44.7211
-204.075
-91.4112
109.407
170.003
51.1315
27.0026
28.6948
-33.7809
-80.2988
-129.111
-114.251
132.998
152.491
-19.8314
-87.8315
-109.287
-132.732
-154.179
-143.09
62.3932
153.751
82.198
21.1445
-141.808
-139.1
-165.361
-166.038
18.5068
98.6416
137.203
174.208
135.646
135.567
5.85158
-74.6572
89.7737
85.4217
104.511
66.047
-0.00817312
17.4889
-36.5096
-233.293
-318.259
-72.7006
190.349
183.341
61.6246
4.55188
-14.9456
-46.4913
-104.941
-166.123
1.39045
239.604
107.203
52.9787
28.4098
20.6919
-62.1341
-177.089
28.137
112.512
64.3707
-72.033
-166.679
-93.2186
-103.495
-132.847
30.5575
70.3129
75.4126
164.332
104.653
6.09144
-89.3432
-228.955
46.9088
111.559
100.828
159.725
19.1512
4.93755
-73.7532
-316.338
-163.72
101.774
66.6646
78.0408
38.3106
44.3376
57.2563
72.6463
-34.3275
-168.403
137.314
188.947
17.5566
-35.5037
-34.8564
-30.1912
-117.685
-170.339
-168.133
48.9797
129.088
1.79428
-9.00803
7.15952
-11.1407
0.345355
-53.848
-87.3929
153.626
195.418
62.8221
69.2247
-14.057
-41.6062
-99.4305
-41.6314
30.1978
69.7961
86.4107
16.4895
-144.404
-186.473
-276.611
-125.442
119.283
87.7342
109.593
164.073
74.8135
80.982
-64.1816
-146.151
101.046
105.346
87.9384
47.3978
-24.4431
-13.7821
-23.1689
-122.769
-185.429
12.0811
108.247
53.2589
-67.498
-31.2778
-5.21183
-124.582
-88.9539
150.417
141.895
135.013
-24.0866
-72.7689
-52.4983
-99.0124
-91.5644
71.2623
44.3419
54.8665
18.2238
-53.3572
3.65583
-103.776
-311.3
4.88307
192.893
243.104
185.079
38.3877
34.1407
49.5018
-148.01
-191.282
29.0451
132.357
88.8767
-38.1561
-52.6298
-31.7351
-93.7087
-189.049
-5.22266
86.8917
157.965
-2.91178
-87.6736
-11.2359
18.4371
-31.5512
-132.736
-53.9747
201.323
185.091
41.453
-20.0063
-9.74536
-29.1198
-153.332
-106.497
15.4117
45.669
-23.2264
8.86621
48.195
-24.7415
-125.914
-55.5619
67.1608
86.8027
155.906
111.951
-15.2277
-19.1541
-172.426
-70.4784
84.5322
36.715
81.0056
16.6547
-17.3932
-33.1035
-168.375
1.26354
86.5353
41.0148
39.9053
17.4916
-41.5253
-2.54545
-64.8146
-53.7372
125.049
102.008
114.892
42.9084
-68.475
-84.4004
-52.3625
-116.582
-294.55
-67.7279
161.928
96.2138
48.6962
11.8966
27.759
39.9353
-50.9754
-61.5085
89.5645
136.372
-26.6083
-55.1762
-49.9735
-36.0966
-46.3906
-52.9303
-158.028
79.1891
172.151
60.6949
12.3484
-22.8206
-12.512
-41.812
-172.735
97.0866
159.748
164.939
161.968
54.3648
-53.0736
-86.466
-135.66
-81.9426
40.7142
23.187
64.9373
-84.7953
-83.4496
-69.12
-159.917
-162.601
-57.6365
132.6
183.058
64.9175
45.5774
52.0996
46.4383
10.5846
-125.627
-62.7697
169.945
95.6575
-5.33533
-44.3107
-40.8903
-84.2686
-128.458
-50.171
77.4197
41.5026
12.9683
-57.857
17.9064
-55.9747
-145.896
121.198
141.416
104.265
110.399
79.5307
-34.3457
-91.6621
-119.284
21.5861
20.6752
-26.6257
11.7941
-25.0289
-38.4367
-97.1069
-168.285
80.5165
122.102
85.8386
125.036
21.6215
34.3832
-48.062
-138.579
89.7548
61.3836
45.2897
11.7846
-59.9812
-57.6532
-51.4779
-104.796
-226.937
-23.7322
124.827
123.869
-35.425
-26.923
3.27222
58.2722
5.11241
-92.9978
0.629707
135.251
101.521
23.9325
11.5885
11.4777
-9.21248
-39.0282
-240.841
-116.408
182.457
77.7033
35.8913
63.642
-24.5334
-52.7449
-104.918
4.13808
106.721
125.819
60.9451
2.4419
-80.8828
-91.6535
-163.711
-3.8209
23.8083
11.2853
91.9245
75.3372
-34.9203
-93.3729
-132.426
-55.3725
5.72963
36.943
104.875
79.5928
21.8403
68.3878
87.0139
-17.6955
-92.5157
40.7977
112.885
58.6633
2.33553
-2.22379
-18.6938
-144.048
-107.661
0.639692
11.1927
-6.57113
-60.7821
-52.8954
-21.649
-70.4226
55.6915
105.454
108.582
108.946
53.4465
-38.7216
-106.826
-222.332
9.38688
52.8009
29.7378
38.7462
-32.1258
-68.9749
-14.1299
16.0476
-104.34
-73.1845
121.276
149.328
44.918
52.8171
48.0452
54.2843
-16.2909
-284.404
-122.043
135.709
174.398
84.6184
37.4947
15.6531
-36.3505
-19.2696
-49.4286
-142.241
116.205
107.221
-2.66527
-0.673393
-17.4712
-26.1114
-74.3653
-158.448
33.1578
172.276
124.996
-27.3769
-204.049
-151.548
-155.821
-162.77
-64.2492
54.9823
75.0339
144.142
79.0161
46.5114
-61.1737
-136.336
116.513
156.405
179.77
183.501
69.5353
24.0741
-59.7834
-96.6762
-6.32289
-8.44752
-6.79846
3.69668
-71.329
-117.278
-189.825
-176.787
78.3763
90.4586
93.5623
139.577
20.8065
15.906
28.1843
-22.6191
-83.5153
168.314
152.288
84.8265
-72.2854
-99.2654
-88.7307
-214.081
-305.197
-7.78569
133.854
140.626
-29.5547
-53.4809
-24.5257
20.1354
-239.319
-117.952
235.765
260.624
190.26
26.7815
4.7863
-10.7059
-92.702
-184.509
-0.528035
83.6966
106.117
-60.1443
-43.9726
24.431
-93.1571
-178.596
67.0803
103.473
168.017
116.925
-41.5497
-22.1167
-102.422
-221.182
-95.0213
155.258
144.742
121.711
-3.03401
12.3047
28.3577
-34.7872
-146.439
-1.44525
89.7751
103.55
-36.3937
-13.3739
41.6045
15.1783
-172.524
-20.2517
111.342
87.6458
28.1472
-81.9787
-73.0474
-98.352
-165.296
-14.4399
-0.505704
-29.5414
52.9133
-6.48357
-42.9538
-78.493
-86.6713
80.6617
126.12
149.532
145.049
52.5687
7.26783
-99.3402
-109.483
34.2554
51.5524
88.4149
45.4435
-85.9198
-69.6826
-109.886
-170.298
-37.2726
154.537
156.764
83.6539
48.3931
77.6524
50.9866
27.3905
-156.238
-28.8826
136.787
76.2898
-92.5663
-85.6373
-52.1515
-39.5209
-75.6055
-151.855
-101.039
83.4596
37.0455
-61.6131
14.1803
12.8078
-20.2487
-13.2554
-102.996
32.7287
282.095
153.351
80.9
31.0075
-29.6423
-47.8062
-126.016
-79.9795
5.67897
23.2893
34.271
29.2373
-39.4458
-75.669
-105.306
8.50428
66.9818
48.5287
128.989
114.073
-1.94406
-71.1139
-236.405
-203.579
125.627
112.187
103.203
60.208
-28.5178
-17.8415
-7.66147
-91.4441
-75.0438
37.0345
64.2754
5.89125
-29.9306
14.6355
80.4064
-28.1337
3.2596
44.9856
116.638
103.882
-85.1961
-91.073
-168.184
-230.169
-35.4798
25.2331
36.1222
97.0697
52.9985
-31.5848
-99.8642
-140.561
164.157
187.927
153.1
150.402
59.4226
2.93052
32.3288
1.50326
-187.634
-114.663
142.027
114.213
-86.8407
-139.433
-119.857
-53.3885
-63.9435
-234.685
-60.9972
117.873
123.254
85.3842
100.49
120.555
77.166
44.9705
-12.5042
-120.734
51.7792
11.2936
-78.0564
-56.6465
-110.153
-95.0122
-136.295
-186.783
110.786
213.332
170.621
42.3949
-106.383
-78.9829
-136.037
-151.4
155.544
175.094
177.863
166.242
27.6827
31.7457
-72.2731
-172.641
22.7035
-16.3219
-26.021
43.3463
-49.1458
12.2482
-27.8491
-24.2313
13.3442
4.93338
94.492
130.969
-49.2626
-128.669
-235.296
19.1074
63.5176
55.4293
61.4446
98.8044
-53.4476
-48.5308
-59.6996
-121.991
-1.97672
65.4187
93.0403
37.8487
-83.9575
-45.0272
9.08786
-44.3726
-13.0275
-39.6155
260.434
126.039
22.3865
7.4941
-14.4754
11.613
-88.8686
-221.734
-89.3299
181.826
46.0654
13.1876
18.0891
-2.97475
-39.2158
-103.39
-36.8324
148.736
41.4913
34.5767
-49.9026
-106.073
-84.3336
-150.927
-23.5345
53.8862
12.8682
46.595
1.20971
-23.6757
-49.3277
-156.516
-113.015
-60.4724
96.7995
312.553
263.199
207.342
156.296
110.234
34.1529
-164.572
-176.695
76.9096
19.6512
-42.2106
-65.5584
-32.9015
-35.944
-170.128
-156.59
97.6588
76.615
19.0396
-73.2797
-90.9182
-30.8668
-151.075
-130.165
140.454
135.672
163.914
122.102
-0.63511
-44.6866
-146.684
-141.699
25.1558
5.1061
50.4485
9.64491
-41.0364
18.7639
-62.2574
-53.371
75.764
98.3879
182.585
160.59
-23.4883
-71.9836
-139.268
-108.449
-6.86154
53.8834
79.905
47.8611
-49.7878
-54.8027
-25.1432
-25.4772
-120.581
-26.068
184.903
121.562
14.8934
20.6105
67.8871
56.7417
-30.7385
-129.115
-117.406
77.8874
14.3045
-2.34828
-1.44619
-29.7777
-104.147
-238.682
-115.468
104.902
167.215
103.612
16.5613
0.0981806
-25.4311
-130.203
-104.496
154.289
123.096
143.039
169.254
1.4537
-23.9368
-129.965
-127.811
22.2473
-55.5926
9.06304
2.8108
-74.7703
-39.2648
-135.99
-235.857
75.3738
149.75
208.391
183.507
26.3952
-11.5864
-0.486561
26.9823
-118.675
-113.221
70.0804
28.2721
-58.1788
-38.659
4.79485
11.6263
-111.681
-53.3456
112.939
149.555
-20.3636
-51.6442
12.5797
45.62
-105.322
-78.6189
70.2335
114.172
114.735
54.3745
-34.2926
-24.238
-192.984
-283.274
46.6322
115.309
84.8659
52.5818
56.6251
68.6198
-20.7158
-24.8504
-79.5542
1.00181
137.901
82.1234
-35.5079
-40.6236
-26.5973
-26.712
-89.9465
-259.014
-146.167
224.425
125.336
6.15569
26.4057
27.0304
19.2365
-6.06455
-170.275
22.2654
127.448
120.285
80.21
42.8734
-6.25288
-78.9671
-188.345
-1.18732
61.4251
114.142
93.9048
-69.968
-182.338
-246.131
-177.615
49.7048
120.082
101.955
141.241
20.1708
8.79867
-52.8937
-109.417
83.5847
82.2408
88.8732
108.632
3.5488
-8.38194
-59.5797
-151.216
-25.3091
47.5147
34.3009
50.0321
-51.0411
-57.4268
-6.4405
-6.92889
-140.296
-185.145
85.585
298.178
151.862
77.3593
53.0143
24.6538
-59.6449
-247.32
-64.0486
226.075
3.97282
-110.258
-24.6806
-9.67846
-67.8843
-183.647
-238.235
42.3359
158.456
203.125
130.546
29.9691
-35.0121
-58.885
-59.1402
-150.054
-51.9097
230.846
179.359
9.1294
-45.0972
-95.896
-84.9752
-198.599
-168.334
147.474
224.317
70.2018
20.4542
47.2498
32.3063
-15.5069
-123.707
-77.3908
133.139
148.043
43.5461
-6.9926
-16.8628
-58.6097
-80.2262
-166.46
-209.726
113.068
99.311
-0.447075
30.0823
-0.852034
7.63711
-41.4197
-13.4958
101.599
171.953
92.3634
-45.3325
-9.57009
-18.9727
-107.598
-213.165
13.7804
14.3256
8.48012
55.0298
3.34828
-3.56171
-98.4862
-144.74
28.4248
62.4252
102.435
96.6574
33.0961
18.0692
-79.7122
-183.269
81.3978
111.986
108.787
149.307
-3.6237
-39.909
-91.5049
-232.574
-167.751
107.382
133.856
161.815
26.1067
-0.505978
29.9858
7.27553
-60.1793
-109.485
84.0953
203.559
8.9034
-76.7763
-35.0724
-1.67312
-82.9551
-183.453
-283.179
15.5582
156.711
-0.732878
3.21156
22.2201
-21.0146
-36.5617
-110.582
91.4987
168.594
210.166
121.737
22.275
-35.3004
-70.9958
-149.786
-3.06188
-37.0257
-24.0031
60.4649
9.56546
-70.3768
-223.548
-226.134
73.668
139.258
127.903
201.42
79.5813
41.1982
34.2933
-145.78
-124.207
94.0727
64.7585
106.914
38.795
-17.2575
-32.3456
11.9227
-90.1122
-224.488
70.5622
124.642
-6.5746
-70.8526
-43.5194
-8.81704
-105.145
-75.2342
124.009
189.83
102.342
-59.7162
-46.959
-21.1513
-126.894
-133.772
42.6139
27.6277
40.2628
67.7625
-50.5072
-4.91577
-78.253
-151.126
32.8156
65.8814
105.368
127.103
48.1595
34.0996
-65.102
-160.309
-66.7618
169.979
182.959
120.514
-8.85843
-44.1011
-54.2211
-35.2449
-170.901
-67.4338
81.4976
66.9887
-30.6716
2.24674
37.537
59.5692
21.0396
-127.424
-34.3155
133.966
95.6499
-35.4237
-59.0316
-81.0463
-102.471
-109.092
-142.035
10.7782
87.492
34.6669
-57.9476
-12.2646
-28.1134
-84.3203
-6.25173
147.559
143.56
200.979
192.013
50.4501
-13.5031
-180.922
-66.6372
28.4536
-27.7717
-29.2392
-7.04266
-54.5407
-74.8299
-234.193
-47.2482
182.67
102.947
115.958
68.1785
-5.39252
12.1413
-39.8851
-83.2467
75.1142
41.2695
46.0327
5.54287
-49.6093
-60.9509
-63.2059
-139.569
-162.147
105.256
169.365
59.2888
-45.1821
-25.5074
-13.9806
-115.359
-53.534
124.154
137.47
101.423
-11.7654
-18.9673
4.11642
-83.9525
-144.315
-59.6289
33.5648
71.6387
66.8083
-34.5203
17.9754
-16.6323
-79.9414
-150.278
49.7827
199.005
126.29
15.4838
58.3375
65.5521
-55.7099
-214.483
-171.844
115.391
135.892
56.378
-48.4569
-44.0218
-34.5308
-103.6
-245.792
44.5032
178.975
176.997
86.1711
45.6713
35.8901
22.2876
14.8372
-104.184
-43.5998
83.9861
83.25
-37.164
-85.0514
-124.316
-142.181
-172.88
-45.4804
74.3373
169.614
1.3244
-68.9411
-37.0271
-73.3385
-67.9665
137.718
102.894
75.9015
98.5198
31.981
12.8293
-37.3621
-128.427
47.3402
35.0726
-8.04419
38.7996
-17.7119
-65.8805
-109.789
-196.881
70.7143
142.519
120.001
118.424
32.8055
31.792
29.6899
-63.9322
-22.8217
24.6757
38.0149
46.9124
-67.3721
-74.8519
-77.9788
-44.8026
-133.646
-126.41
171.473
185.663
-14.2637
-51.0249
-20.5132
8.11099
-6.40391
-83.7555
-149.169
143.144
116.222
24.4361
18.2898
13.0519
-25.6771
-71.8374
-166.759
-0.297434
57.1628
77.1981
27.2298
10.3422
-60.2115
-82.3286
-67.5926
72.5906
38.8622
105.062
174.834
58.3168
-8.11474
-173.292
-225.082
113.014
101.649
84.3886
84.7842
-45.0323
-52.2965
-36.7395
-153.602
-64.3518
66.4472
52.1078
57.5337
20.6371
46.6558
67.5935
53.8022
-148.423
-41.0923
109.099
110.851
-82.0119
-101.985
-76.6668
-76.0795
-236.592
-97.1857
99.3809
107.948
75.7823
-26.823
-9.54129
-10.4451
-77.0245
86.1425
129.415
147.91
153.248
36.3748
-7.18017
-40.059
-187.582
6.54815
19.9435
2.53218
39.0764
-15.1961
-100.313
-143.467
-144.125
-135.541
47.2414
241.203
195.114
81.1757
64.054
44.9434
28.4814
-113.665
-121.588
139.119
103.916
-42.1884
-61.7424
-55.8503
-51.023
-88.5083
-110.314
-108.779
7.88346
86.9198
18.5819
-57.9289
-3.9162
-0.133769
30.4523
-5.62227
-121.161
149.681
147.004
24.0901
37.6248
-10.97
-21.088
-121.483
-81.2074
60.6718
34.7366
108.2
70.94
10.6738
-30.2285
-168.869
-14.8008
36.4594
38.6086
81.8781
136.834
6.38651
-86.7931
-331.398
-30.2665
114.381
63.2339
96.6757
43.1738
-64.376
-26.7815
-38.3517
-124.012
37.9984
80.2006
100.557
40.6146
12.25
17.9697
35.9983
31.3071
-114.235
61.2468
146.565
-16.053
-114.774
-113.32
-73.8225
-117.02
-295.569
25.7472
127.423
130.253
35.9881
-6.9641
15.6721
-68.8248
-186.765
115.499
170.835
125.547
112.267
39.4107
68.1946
7.9135
-39.5054
-134.734
-27.0922
35.9321
82.0192
-81.0575
-57.4907
-4.60565
-113.444
-345.74
-125.992
230.245
293.237
108.23
55.4054
46.0959
16.9151
-37.7679
-136.76
-134.694
89.8297
163.501
40.1107
-25.1018
-2.48458
-77.1496
-83.193
-185.323
9.10213
192.754
75.3267
-66.8203
-38.0174
-50.3557
-39.1106
-150.413
107.335
107.296
124.118
67.6457
-94.2191
-109.638
-189.704
-219.586
57.0978
51.7219
74.1577
154.087
88.2277
114.897
-15.6742
-62.9919
84.8954
53.9911
59.7504
119.155
-19.9087
-35.0446
-124.901
-201.592
37.2246
68.3292
81.808
81.9575
-59.743
-76.8058
-103.109
-191.824
-20.2733
76.4727
81.6697
60.8957
4.91973
9.81471
29.5454
47.8502
-152.597
4.0683
175.534
165.799
-19.2629
-55.5271
-70.0955
-64.7657
-157.859
-326.392
-111.407
299.878
128.901
15.155
14.4179
27.7101
25.6611
-104.127
-112.316
216.571
246.269
68.7819
-10.8411
2.51231
-51.3857
-126.783
-181.394
11.2232
-12.6935
93.4233
41.1662
-78.4673
-69.8966
-113.812
-219.844
-22.32
182.405
249.549
220.542
38.6101
28.7499
-9.10374
-50.2122
-119.977
-236.937
55.6922
181.769
22.6519
-17.8092
25.8136
13.8289
-48.4827
-154.698
-50.4135
177.2
33.656
-72.3768
3.97921
37.7213
-5.09358
-107.577
-13.9429
45.3111
94.6789
118.826
-29.8176
-63.6166
-128.55
-215.597
-98.6782
29.2366
20.8463
83.0062
82.4045
41.9519
9.9201
-123.81
-3.11691
129.298
87.1689
102.202
0.904344
-41.7117
12.4114
-52.9642
-256.948
-103.974
157.165
178.037
102.356
44.7035
32.4877
41.1517
-20.5097
-151.123
-177.006
156.324
193.916
109.725
52.3672
10.14
-17.2352
-43.7279
-140.473
-94.9476
131.122
13.8119
-176.438
-137.503
-148.956
-142.211
-111.886
-175.995
118.162
212.901
192.667
19.8694
-32.2551
-26.4999
-68.7507
-103.669
85.7691
119.906
125.98
143.845
57.0829
8.45005
-90.2084
-177.702
-21.478
22.9161
20.1024
117.283
-16.5749
-16.5619
18.0122
-98.9314
-71.8672
118.512
163.047
139.73
-26.4683
-82.1722
-52.9274
-92.708
-247.024
0.97809
111.095
107.708
23.2095
-14.6688
-11.6801
11.0395
-144.78
-152.954
117.708
140.614
112.701
10.1657
20.156
41.3297
-80.349
-141.961
69.9014
80.1231
133.422
-21.7584
-123.893
-113.987
-307.479
-292.648
-6.06459
203.722
225.307
202.637
23.9019
25.791
39.8673
4.49601
-63.2639
-8.27531
85.8034
63.7236
-50.3932
-6.07161
27.4415
-71.085
-160.175
-265.388
-34.5623
229.522
93.3527
-13.2638
16.8813
7.95618
-33.7771
0.275648
-42.1646
-69.5752
175.715
133.55
70.5037
58.1008
0.450936
14.9148
-99.2447
-109.961
30.451
99.0301
31.2874
-93.1048
-131.618
-123.373
-201.805
-15.4161
96.652
81.3344
121.993
136.834
35.3184
-108.172
-270.442
5.53888
182.107
101.191
119.199
54.019
-49.8865
-31.5166
-139.182
-15.2048
14.5108
-17.2643
64.7681
-1.04987
-69.7374
-27.7022
-93.0699
-195.569
92.6305
284.21
259.957
62.8027
-75.2428
-41.5421
4.14541
-62.7903
-271.871
-114.608
129.017
7.31856
-43.8811
-23.2734
23.6839
-12.8365
-158.715
-168.404
210.153
306.732
92.8027
21.1428
81.121
-5.15087
-80.5952
-75.7854
-146.239
13.0064
124.008
31.6114
-65.7959
-88.8782
-75.8055
-127.77
-148.398
94.434
143.35
165.117
39.6745
84.9852
9.43682
-122.324
-7.2031
29.188
-20.4017
16.4156
78.066
-21.3347
-31.4028
-131.284
-223.139
48.9693
70.9498
104.902
142.259
-6.85537
12.535
19.5179
-165.17
-34.3634
161.394
141.035
59.2814
-12.2605
-35.8041
-50.2426
-129.226
16.7275
67.1361
37.8653
31.2377
-143.051
-137.751
-105.963
-100.067
31.1314
58.608
83.482
119.953
70.3085
-48.7865
-64.1986
-144.522
24.6899
95.3967
53.7143
100.192
-28.5241
-28.8661
-19.4012
-109.929
-31.8748
27.3017
54.4988
97.4493
-44.3697
-48.5012
-3.53951
-86.1586
-68.9856
101.508
196.046
189.176
39.3436
-59.5477
-54.2895
-1.77844
-192.158
-222.2
-15.267
137.407
30.2643
34.1931
-0.223755
21.9992
-12.6736
-84.5335
-218.265
43.1524
278.293
181.806
111.498
57.9559
-18.4118
-48.0757
-64.9808
-140.504
55.9263
74.3786
-65.1042
-98.1162
-118.646
-110.675
-94.718
-169.849
55.6738
105.321
176.038
121.154
1.51221
-68.7852
-131.371
-54.773
68.5737
45.0602
56.3842
106.113
32.9875
5.6533
-51.542
-182.493
-254.738
77.9735
129.995
192.526
49.3728
48.9242
104.75
103.823
17.6981
-165.658
3.84763
101.977
3.42324
-5.38766
-3.79147
30.5988
-10.4509
-116.35
-141.21
41.4646
117.73
-68.7869
-81.7659
-30.0289
-82.7188
-141.336
-133.668
82.8814
99.4677
141.938
92.5839
21.1918
-1.8034
-136.389
-187.905
19.0442
116.43
95.4945
36.3738
-38.1636
-57.5209
-72.6715
-142.938
-179.633
-2.25122
278.133
253.111
100.285
77.6961
86.2234
48.8017
-27.2059
-108.541
-43.9317
112.308
26.4254
-70.356
-62.6065
-77.6179
-113.658
-78.1319
-160.588
-17.9568
177.588
54.3129
-64.8932
-35.3584
-40.5192
15.1912
-21.0629
-16.4099
93.756
103.295
82.7828
13.5013
-26.0684
-35.8364
-118.712
-99.5758
107.082
45.2273
61.9834
55.2533
27.9371
-21.4236
-139.317
-51.8784
23.5452
32.9979
104.584
100.333
-4.79254
-50.5016
-170.914
-92.1379
61.1795
71.166
81.6484
44.6045
-105.357
-78.6069
-27.4614
-113.992
33.3923
91.1668
71.9104
58.3602
15.55
34.1691
67.7013
-40.9064
-132.527
113.878
170.487
73.608
-42.5694
-80.0303
-66.3212
-222.999
-231.686
-53.6529
93.5486
168.659
48.5755
-11.3915
6.86756
14.8197
-15.6945
-118.666
33.8977
162.279
141.083
13.9328
24.0187
-32.9745
-101.476
-177.427
30.2461
110.596
58.5616
-31.4899
-83.8037
-64.5783
-157.502
-294.925
-119.302
191.251
224.726
258.525
188.848
121.686
45.4766
-87.9499
-123.158
49.6497
57.3116
73.0518
-59.3867
-45.963
-62.5724
-113.263
-208.695
-44.6444
91.2135
182.657
104.212
-92.2599
-96.3252
-79.0197
-171.142
-128.863
122.996
123.834
105.939
-26.0859
-25.5399
13.704
-108.242
-5.65717
59.7145
20.7128
54.9695
19.5707
19.9003
25.9114
-107.652
-80.7413
27.5672
86.7874
151.368
146.462
-6.83368
-55.8536
-224.545
-198.443
98.5404
213.588
168.309
74.8465
-30.8257
-55.4221
-20.9296
-110.819
-244.341
65.3919
150.662
42.3184
5.76326
25.7188
5.83502
4.597
-61.8147
-189.004
85.3918
192.838
59.899
-45.7469
-47.9715
-86.2165
-112.771
-103.682
-168.477
-6.77304
138.989
20.729
13.2169
-18.8326
-29.8368
-45.3471
-52.5563
116.541
92.0171
163.08
123.052
-44.9242
-132.076
-167.805
-97.0601
48.3393
20.1848
4.74624
72.2959
38.5678
23.3885
-117.289
-169.111
11.179
190.255
207.275
232.024
150.684
97.9361
95.8653
24.5272
-140.393
-205.41
36.5729
46.7666
-94.5742
-116.793
-104.075
-65.7681
-76.0727
-138.729
60.9903
98.2741
-45.1061
-131.196
-68.9409
25.9419
-21.0533
-103.715
93.1549
117.047
112.373
79.1444
-31.1866
-51.7722
-136.52
-158.67
22.8276
50.9582
48.4258
104.568
63.3001
65.4501
-66.4855
-132.638
30.7215
138.088
115.459
130.822
33.9233
13.293
28.9878
-24.7368
-176.702
-60.7782
121.286
78.5345
-59.7055
-63.8905
-49.1434
-11.802
-64.5628
-175.894
-139.775
223.565
172.043
68.9764
44.4035
56.8474
-24.1516
-58.5478
-134.462
-119.574
106.715
15.4094
-72.7926
-58.9123
-105.556
-89.8546
-148.628
-143.273
149.068
227.851
216.57
13.839
-36.7144
-19.9489
-62.0282
58.246
93.328
61.391
72.8375
70.1607
-20.7628
-57.725
-171.914
-72.6894
9.51333
16.3792
75.37
85.558
-40.1118
12.3284
-13.5241
-251.328
-163.425
144.54
207.151
151.416
68.9445
58.917
50.6019
-16.2221
-236.944
-142.846
107.009
74.1397
-17.4243
-40.1969
6.54786
18.1373
-84.3919
-153.741
55.9763
157.838
78.9323
-72.7781
-16.3997
-14.3242
-91.721
-283.274
-40.1494
136.323
191.793
108.657
2.91462
-65.531
-81.4455
-143.921
-255.805
35.5699
132.988
162.795
59.6833
58.6658
47.75
-26.5286
-67.8441
93.0723
103.506
186.841
23.7457
-64.9334
-8.33238
-46.3805
-250.847
-207.589
-68.1181
118.276
200.851
54.9176
8.02834
30.7742
-0.595271
-17.0891
-110.66
-14.528
171.713
51.3629
-3.21177
45.6747
-16.4266
-52.1973
-98.059
-39.3091
99.4754
19.9124
-89.2412
-131.359
-41.8964
-84.7424
-161.571
-80.8531
55.6369
66.9894
141.689
114.937
69.6575
15.2238
-117.816
-14.6562
161.871
94.8702
109.91
27.479
-17.8682
-44.6305
-181.111
-109.655
74.5476
21.2389
54.5483
60.514
-32.6212
-28.1383
-5.29834
-133.248
-71.6761
98.9036
139.504
70.2485
-58.6013
-53.7268
2.69214
3.26849
-177.042
-259.224
-41.7702
156.274
108.252
66.0054
57.583
54.6598
-1.9593
-85.8038
39.4031
178.023
114.549
-8.67313
-12.9762
-30.1003
-90.4789
-163.765
0.189101
38.3054
88.6315
106.392
-3.25569
-173.718
-259.884
-243.114
31.7804
140.376
105.161
103.869
48.626
74.0646
55.5526
-70.6456
67.2485
68.0839
7.20562
37.0747
-22.633
-30.3949
5.22416
-4.48378
-178.426
-106.523
40.5213
79.4699
-14.5556
-57.163
-37.8403
35.733
-29.1822
-216.092
79.5362
282.216
164.777
102.237
51.5202
45.5623
-27.0946
-115.88
-16.453
2.81834
29.3209
-86.7022
-107.728
-100.123
-177.604
-225.33
25.9522
67.0533
110.541
201.082
60.252
-1.73771
-70.1155
-90.4803
13.783
41.7768
7.16575
44.87
1.5329
9.02133
-3.20529
-130.516
-113.045
111.734
118.405
141.771
11.255
-16.8818
-1.9002
61.2072
-35.8797
-83.0679
106.504
95.5686
44.7944
-10.2119
-23.0177
-2.82493
-53.482
-193.486
-186.735
45.3015
92.4105
6.99809
3.57861
21.4885
-12.169
-4.47633
-76.5823
-148.411
44.4821
237.097
103.716
51.388
-4.54563
-15.3386
-19.8615
-122.668
-24.773
115.001
98.9761
-53.3002
-118.203
-127.27
-104.084
-119.542
-30.5173
34.7242
101.934
167.145
86.8946
-7.44475
-78.9975
-153.007
64.5943
59.8126
56.2068
111.131
-1.7354
-33.9237
-10.9274
-131.268
-239.531
-100.667
159.045
193.606
99.1338
50.496
71.7766
81.3271
-9.6693
-92.4837
97.1755
141.94
-5.31397
-41.9289
-44.8686
-44.6214
-178.335
-38.0797
11.5312
8.9339
72.8001
13.8109
-105.466
-66.3886
-175.157
-141.391
111.257
133.799
137.001
92.5797
-5.99302
5.97044
-158.22
-173.39
51.7984
155.541
151.037
1.68787
-65.7838
-45.4364
-29.6044
-199.502
-188.433
128.513
167.068
108.807
1.19881
3.84414
33.1779
66.7042
-134.677
-109.739
174.542
150.982
1.84045
-23.2736
-21.2711
-52.6834
-77.0732
-196.639
-34.154
142.133
90.1136
-47.6523
-9.78148
-12.3298
-145.112
-185.972
133.204
156.826
200.521
153.626
-9.05801
-19.8812
-105.15
-142.421
34.4322
6.93539
-31.7181
30.9727
-21.0003
-7.95291
-153.106
-297.564
92.4351
161.795
163.109
170.834
20.1958
32.128
0.217067
-33.6689
41.9686
14.715
-2.04307
-10.0629
-81.1718
-69.2725
-70.9221
-164.159
-134.806
79.144
162.809
185
-18.6157
-70.6668
-39.1913
27.4249
-109.776
-248.974
72.7264
213.659
66.1893
58.7125
49.766
37.5084
4.67693
-124.743
-185.238
93.5642
83.711
-6.55295
36.577
47.1325
-31.1877
-119.421
-140.759
122.443
132.294
200.243
71.5311
-50.9485
-78.8676
-174.582
-130.952
24.1233
17.3419
63.0452
74.1697
-14.9623
-98.1944
-295.436
-120.255
102.799
64.7087
87.4207
128.215
-5.25549
28.0213
80.2591
-62.8092
-124.712
95.1954
146.96
92.9227
29.0038
23.4265
31.4271
-38.1206
-201.207
-14.8245
110.122
23.7199
-63.5309
-65.3961
-38.3695
-82.4602
-165.482
76.6381
136.638
166.823
129.798
-25.0289
-29.7007
-110.251
-119.521
14.0241
-11.5591
-9.97916
26.8114
-63.1862
-26.5213
-114.839
-130.376
67.1415
85.1626
117.467
128.634
26.0991
50.8091
10.5165
-181.586
-106.117
146.87
150.768
100.76
18.7549
7.66974
0.21279
-42.0612
-161.753
-34.4986
34.6905
30.3021
-61.4476
-69.6269
-35.791
11.1118
-77.4876
-213.242
-53.281
281.773
266.065
51.5932
19.8255
-5.26447
-59.4912
-102.372
-265.561
-56.461
125.036
54.6054
51.4937
35.0926
-13.85
-6.14442
-45.1821
-24.3206
107.147
183.094
134.105
18.4984
-93.6624
-149.313
-186.369
-103.564
15.51
36.8986
109.993
-4.20905
-87.2704
-102.755
-142.296
-33.2419
85.0954
93.9365
105.457
106.703
63.5243
112.148
93.0028
-23.1143
-180.824
18.9086
118.14
60.7104
-26.1723
-32.4175
11.4634
-37.509
-233.106
-117.095
126.548
76.4115
15.2342
10.8301
19.083
-39.2106
-181.863
-39.6301
202.021
164.059
158.825
0.456389
-50.9172
-70.0259
-152.539
-159.912
-21.6867
38.4296
62.8403
23.0724
-57.9095
-69.3241
-60.0274
-17.3857
-101.872
-41.8793
211.367
134.972
26.534
39.7067
4.54856
-41.8534
-125.921
-210.7
49.9013
203.766
116.949
11.5787
23.6468
-11.1266
-42.1843
-123.954
-194.888
71.5401
156.791
151.544
60.6796
68.1713
19.2375
-30.9907
-121.2
36.2208
76.3856
102.096
-15.0132
-112.946
-135.656
-216.802
-228.727
-96.3306
112.519
150.258
158.776
-19.5206
0.259222
-0.240188
-93.2723
132.568
103.295
99.4218
122.449
4.14131
-14.0772
-48.6043
-204.14
8.58185
17.9308
12.6966
37.9211
-27.0676
-108.648
-150.333
-151.721
-149.263
145.914
192.786
184.215
79.912
37.7895
28.7641
50.9979
-89.8516
-177.089
112.038
210.542
-0.5518
-68.3226
-100.437
-64.46
-67.3947
-268.487
-130.315
254.726
200.843
-1.42053
18.8237
64.9587
15.4719
15.4174
-56.3869
-176.716
41.185
191.01
28.9955
-6.73005
-74.4936
-68.2033
-101.457
-251.92
1.29566
158.079
155.503
14.7894
-11.5932
-74.32
-108.472
-172.667
86.6006
97.891
123.885
159.541
33.2534
-22.5985
-52.36
-125.293
-206.589
6.44397
180.051
211.403
34.2062
31.82
32.1897
-42.7034
-94.1605
-201.108
47.76
162.391
5.25004
17.3337
60.3107
69.9388
-15.7588
-166.016
45.64
119.572
89.4776
-52.1288
-133.914
-73.4715
-157.503
-179.344
-43.4456
14.7066
46.8234
98.4996
-14.5681
-1.43617
-56.7731
-134.804
140.58
149.722
112.115
145.249
-24.2769
-33.0631
-48.3276
-131.05
-4.30996
12.3626
-1.29821
35.1172
-16.0165
-45.3248
-95.3545
-143.697
-14.3365
160.148
222.709
242.557
67.4636
25.9408
10.263
2.66177
-165.805
-146.375
-10.196
75.9078
-47.2346
-59.232
-64.6142
-19.0781
-32.9739
-71.4069
-70.0735
142.691
53.2012
-25.8012
-44.4471
12.1042
-21.2121
-103.859
-87.504
89.2137
99.7587
88.8575
48.9964
-12.9082
-77.2999
-201.427
-65.2081
57.681
42.8468
74.1724
150.896
73.1097
-7.71346
-126.164
31.8361
91.8916
62.5986
91.8103
76.4835
-34.3848
-43.405
-163.353
-95.3388
81.1701
47.9204
60.2856
-41.1399
-56.5997
-35.4918
-21.3314
-87.6136
-87.4581
82.5216
113.426
18.6764
30.5204
17.6195
5.17158
-126.238
-94.9479
81.804
131.36
62.61
-93.3604
-83.0196
-77.026
-206.648
-31.3868
122.349
92.0385
121.628
73.2143
-65.4515
-47.6139
-227.39
-158.96
218.726
209.608
205.497
106.164
-3.10622
20.7929
-5.62668
-133.378
-207.755
-1.18291
57.7907
-43.6672
-117.033
-84.4557
-3.04684
19.3467
-69.9858
-138.349
66.6934
333.491
105.348
32.1658
40.3649
5.52318
-29.792
-58.1357
-202.016
-11.3827
215.347
67.2609
12.1709
-63.3855
-65.7455
-58.7323
-133.583
33.4297
109.101
189.269
125.375
-43.7806
-95.0307
-132.455
-183.412
30.6125
10.6767
55.7017
139.036
8.04529
-133.407
-230.974
-96.9711
20.4425
8.42275
22.9324
108.866
26.4753
-11.8533
-30.4115
115.901
107.269
53.1623
74.6081
123.94
8.08449
-22.0956
-101.804
-126.283
-21.7032
92.1343
93.145
21.4022
-27.5996
-50.9038
-46.3355
-56.6577
-171.278
54.0004
160.373
98.7285
54.7336
14.9075
-15.0048
-59.3113
-190.821
-120.86
87.1074
130.695
10.3948
-110.333
-98.7878
-79.8765
-71.2196
-114.097
-138.46
161.697
200.014
68.3052
56.5368
10.7396
-5.06274
-55.2829
-126.325
154.265
198.726
76.6631
13.9956
42.7645
-21.6767
-118.741
-177.444
-25.1306
-2.06736
47.7875
98.083
5.96289
18.1883
-34.907
-52.798
-238.246
-72.652
249.127
282.871
99.9826
15.2659
-13.7284
-37.3434
-50.8847
-121.087
-57.243
41.5586
-64.1909
-121.055
-68.1708
-8.63647
-29.9126
-118.792
4.58051
86.932
185.952
111.273
-26.2447
21.9967
-50.9062
-148.838
-4.65269
12.604
54.3935
72.7547
15.8518
-35.4441
-175.721
-94.7274
88.5419
60.054
34.0224
96.7734
-3.94596
-12.8214
-75.7077
34.931
145.312
110.256
84.0895
104.667
-23.0515
-39.8708
-83.6784
-167.457
-146.419
77.2233
101.85
42.9477
-35.6192
-25.8107
-12.3401
-100.883
-324.336
-76.4127
310.438
188.369
31.5735
44.0858
17.1131
30.5917
-11.8333
-143.479
-68.8645
93.1386
39.4782
-114.749
-103.294
-90.7536
-88.8903
-170.893
-20.3861
136.26
221.724
89.5399
-9.2407
1.40497
-73.2086
-80.0246
64.7591
79.7405
59.0249
115.791
112.685
36.2859
-91.8086
-143.539
-2.94752
2.17313
14.6741
67.0588
-17.0292
-11.1082
34.8091
-125.182
-226.666
-20.5353
228.256
209.614
59.7075
47.5632
16.375
12.5107
-54.0093
-241.801
-82.0291
89.897
-32.2465
-48.4152
-35.0519
8.02844
-21.6394
-95.9993
47.8048
149.511
169.835
61.4321
-44.8165
-19.4585
-94.1164
-221.776
-6.81616
26.9361
20.163
93.6111
45.3266
-102.526
-197.895
-252.989
-140.012
152.603
177.338
184.204
90.9379
72.5723
67.9802
44.5608
-13.1388
-55.6504
83.9744
141.042
-0.448702
-27.0214
-17.7735
11.4554
-28.903
-210.84
-145.808
61.9336
118.46
-39.5702
-46.1311
4.05758
-5.83546
-5.2592
-115.173
-195.985
155.801
229.49
96.8693
107.036
17.2537
-27.572
-93.396
-32.1113
68.446
52.6412
15.2895
-54.7203
-100.117
-117.378
-166.932
-120.825
34.4726
22.3769
114.182
155.902
-2.78543
-23.6679
-174.843
-129.929
78.9704
96.0795
129.833
70.3592
-10.417
25.4947
-85.3492
-222.478
64.3429
119.492
122.922
93.991
-15.8256
-17.4136
37.7186
57.3615
-162.21
-66.439
172.484
135.93
-16.8439
-40.6748
-19.4299
-6.25704
-150.348
-273.79
-11.1151
198.336
-14.5929
-56.054
-2.28163
20.1428
-37.779
-194.087
-68.0695
191.309
219.681
145.401
24.2205
13.0278
-45.2297
-46.0133
-53.0903
-171.242
-3.57974
154.455
36.9367
-47.1959
-101.782
-101.393
-70.0705
-177.739
-31.6317
219.973
177.457
62.9041
86.7088
66.5652
8.86257
-111.944
-274.369
-73.2779
192.129
260.089
112.645
21.8889
-45.29
-92.303
-96.1741
-167.467
-60.7017
166.517
73.8438
23.9712
36.5055
-26.4613
-17.2526
-91.8876
-8.83066
96.446
120.851
-0.991132
-105.701
-57.8039
-138.619
-186.263
27.7903
20.4876
12.3078
70.175
26.7017
3.24809
-93.4578
-137.255
110.369
88.3952
99.9056
122.444
26.6961
27.7545
-42.5387
-150.664
53.7656
92.2011
75.6671
69.4101
-82.8668
-96.0876
-148.988
-155.983
79.9102
83.3735
113.248
99.9753
-42.3845
-43.4767
14.7742
-75.7202
-233.558
53.9422
283.957
202.591
7.11446
8.97213
7.99377
-13.0346
-122.055
-227.218
-159.779
78.3664
45.6398
17.9399
22.1597
9.66682
-32.8036
-48.1767
-172.998
67.1536
363.231
145.224
23.4605
-15.4502
-112.669
-112.853
-159.39
-78.3318
8.95149
44.2452
61.1575
-1.79031
-94.2687
-77.3033
-173.022
51.509
92.0954
83.8037
174.337
147.311
34.3661
-57.9587
-246.135
-183.852
108.935
133.574
127.293
72.8954
-9.06379
-3.77856
7.00293
-46.2637
-133.547
29.977
131.174
18.5413
-16.5245
12.9506
74.3593
24.3094
-99.5299
33.893
129.794
97.9285
-116.719
-135.144
-82.0295
-176.656
-190.02
9.86878
30.6617
52.3918
68.1797
14.919
39.8029
-94.8152
-43.867
83.8032
98.0266
123.219
123.737
-11.5917
9.49253
-102.633
-167.444
-94.0968
55.9731
141.943
42.3897
-35.1736
-34.9706
-8.84316
10.928
-160.893
-238.248
15.4316
245.004
189.17
159.997
120.508
86.1343
-1.5038
-27.0728
-91.3279
-69.8501
35.4471
-47.2512
-77.4743
-69.5462
-119.488
-85.5403
-76.3361
-204.241
42.654
229.472
97.5112
-79.0767
-87.4068
-15.0201
-53.1621
-152.867
79.8089
213.4
224.463
126.181
18.2062
-16.176
-51.5841
-175.662
-50.8422
-25.6542
1.23516
81.4585
48.6793
41.916
1.13742
-137.239
3.87396
46.2932
98.2945
177.021
0.991525
-60.2591
-10.6785
-85.5257
-197.862
-181.172
132.427
187.047
36.5496
-29.9342
-36.8823
3.03864
-92.4239
-108.801
91.833
99.5655
32.2698
24.2812
62.5667
87.0226
-104.906
-117.875
60.1872
71.2436
79.0926
49.26
-129.166
-125.813
-320.543
-186.562
55.0282
130.78
169.629
148.382
13.0809
7.00084
-30.2227
-41.4971
-88.261
108.652
121.524
72.0712
-26.987
-22.084
0.410926
-46.8508
-162.506
12.9991
106.739
40.501
-58.2038
-52.6637
10.117
4.95714
-189.529
-150.086
-30.256
229.787
254.073
112.96
72.9006
42.3739
-8.9394
-92.9684
-46.7848
63.8077
34.155
-73.5483
-97.0025
-125.027
-123.961
-182.506
-59.9764
54.4293
116.766
133.177
77.0154
-10.5898
-6.55105
-134.226
56.253
109.069
38.3091
55.1182
62.589
32.6066
-12.6006
-180.92
-9.4614
56.7001
24.429
36.9745
-22.1529
-32.9045
-17.8843
-93.4253
16.2065
11.941
81.3666
158.855
15.9209
-63.3837
-102.236
-263.5
-111.948
7.54703
217.35
189.15
54.1784
-18.1383
-20.419
11.1012
-50.4619
-265.175
1.08652
146.407
65.4114
14.6336
59.6859
85.175
34.8583
26.617
-31.7892
93.9931
53.5666
-53.9922
-158.399
-118.326
-146.124
-168.011
-254.086
-102.585
121.103
209.086
78.1308
44.3085
30.5906
13.0711
-54.7904
17.6462
108.715
78.3476
119.447
107.441
2.7888
-22.3796
-172.454
-26.7897
32.5525
20.6069
93.1486
40.2692
-55.6211
7.45428
-138.663
-242.293
-97.6591
139.563
259.176
199.45
60.7782
14.7872
16.7747
-20.7709
-196.525
37.8855
80.4083
-9.14919
-84.7677
-101.709
-49.2379
-89.0038
-180.4
25.1065
83.8274
115.567
63.5873
-59.3027
-76.6952
-149.384
-154.209
60.0621
160.694
117.757
158.977
11.6096
-17.8952
-83.6408
-149.893
-12.7205
13.1022
47.2019
87.6144
8.24465
32.8343
-51.4257
-260.26
-15.9284
221.938
241.244
185.299
22.4314
-56.398
-27.504
-68.2202
-259.978
-134.132
108.978
116.866
9.15
-21.0905
-2.58636
13.7319
-67.2275
-189.294
173.254
282.421
73.2569
-57.0532
-22.6887
-24.4866
-73.0574
-197.352
-128.421
113.159
127.05
22.5135
-103.865
-111.099
-201.618
-291.075
-33.6694
166.42
188.177
218.314
58.7535
78.0312
14.6308
-120.278
20.9443
157.383
86.4904
104.876
55.6953
-22.1115
5.06709
-138.914
-91.3553
-65.5507
-25.2137
77.8736
-32.5585
-117.165
-52.6144
-133.112
-206.762
10.5859
169.75
251.147
160.231
52.8891
21.6878
37.1368
-18.1594
-148.865
-104.949
113.598
14.1305
-46.9461
-48.0858
0.876331
-8.90603
-139.535
-46.5979
113.817
92.6618
33.6272
-57.7933
-37.2413
-27.2075
-142.886
-114.169
13.1873
125.562
153.844
133.763
27.7993
-43.2219
-58.4432
-115.076
-183.293
60.0283
93.4749
59.4881
68.0188
64.6079
25.1719
-89.8417
-97.8322
64.6561
138.863
94.5592
27.1542
-37.0267
-42.612
-42.8932
-174.825
-263.851
-72.4396
158.822
169.059
13.9085
8.9453
13.6638
22.804
-119.256
-213.195
161.116
222.461
135.89
111.029
62.5033
-3.48622
-135.85
-206.781
54.0379
82.085
101.937
-17.2834
-121.181
-88.3037
-186.129
-192.684
5.60105
34.8542
107.095
134.088
-30.0591
-9.63146
-91.0524
-61.2735
73.9167
69.5034
83.76
124.415
-10.2534
-26.1919
-86.7289
