-40.2241
-35.7959
165.232
165.063
-5.2662
-89.3575
-8.60579
39.9523
100.59
240.635
309.305
233.698
38.5467
-63.7366
-158.765
-219.934
-262.083
-203.609
-14.0664
144.834
103.242
88.2952
-1.73587
-17.7657
-11.9915
19.391
-20.8834
-67.8371
-135.306
-158.778
-136.167
-46.2573
63.8241
198.872
175.734
60.5062
119.314
115.45
15.2256
-78.5676
14.6407
-7.99906
-85.1515
-60.8989
-7.77028
57.1518
33.8972
32.2149
6.28816
-31.8465
-101.638
-193.007
-126.508
-103.218
-71.5872
145.571
207.119
50.2998
78.4194
87.7343
32.6194
59.3691
130.988
21.0797
-119.013
-147.924
-113.753
0.297391
133.337
73.6048
-46.0781
-87.6383
-85.3283
-83.4724
-35.6292
-42.2572
-17.3678
75.3253
20.7269
1.20632
-41.7814
-89.0475
-86.3183
49.1581
263.382
318.547
210.259
-89.1818
-199.358
-117.98
-50.477
17.7274
32.9189
-26.8163
-58.2157
-38.9372
-33.3405
-5.90861
15.6305
39.1252
89.8629
65.8132
-27.498
-59.6653
-77.2144
-85.7515
-46.2178
55.0709
84.577
48.2614
16.547
-92.6522
-150.261
-118.784
33.1362
209.792
219.553
114.975
34.5292
-80.6642
-127.119
-90.4703
-39.295
-42.5733
-104.352
-67.2106
0.655342
70.9456
114.284
112.423
102.544
146.632
126.23
47.4397
-77.2998
-246.367
-220.222
-100.758
-47.4709
0.477204
35.4148
44.613
1.56125
-66.9233
-53.4844
-80.4119
-125.913
-26.1768
210.135
265.512
226.718
255.569
158.093
25.1839
-50.8259
-100.417
-117.38
-86.411
-110.716
-149.971
-140.895
-85.2192
-39.6622
80.7203
286.732
225.031
14.7634
-85.5904
-247.91
-357.677
-270.751
-109.815
-14.6467
238.476
302.468
38.422
-29.2096
22.2528
27.2744
16.4546
78.1502
-14.6384
-52.4213
-42.5168
-87.5241
60.6546
186.514
130.6
51.6256
51.5832
43.1748
-12.3798
-42.8121
-159.637
-173.562
-71.801
-34.2726
96.4004
174.825
92.9499
-10.4651
4.00734
6.15551
33.2606
78.9379
56.5663
-61.7544
-15.018
-10.7734
3.14904
-12.6875
-84.144
-67.6321
-70.7087
-104.91
-30.3711
-0.533004
-61.8873
-87.2924
1.7755
33.3902
16.4386
-20.3601
-31.0239
-17.5032
-12.9127
178.276
129.342
-32.4608
-19.7619
-41.6487
-121.491
-41.9966
178.16
117.599
10.1646
-55.6413
-136.413
-219.191
-121.461
75.1751
330.538
546.658
287.542
-135.432
-215.599
-182.603
-136.293
-31.6722
-20.3564
-5.6705
44.5901
2.31262
-120.995
-109.941
-13.2981
33.9954
37.8796
89.0572
94.3119
34.3948
-43.4289
-132.843
-116.341
-59.5727
-38.5804
6.67519
40.8303
44.0265
55.5531
63.3795
43.3158
17.066
-14.2025
42.2399
69.0938
55.9917
-33.1772
-68.3954
2.76121
13.67
-65.3322
-138.273
-58.5877
78.2196
117.33
70.8593
15.4643
20.299
-4.66736
-35.6814
-11.4091
-5.69017
-40.4297
-23.7169
15.751
49.7581
55.4903
57.8259
10.6599
-49.5458
-112.69
-144.371
-82.5567
4.85611
72.8034
81.344
3.47946
19.0852
-36.4068
-62.7667
87.5211
75.9043
-151.075
-189.956
-40.7285
50.9669
155.429
127.625
14.1977
6.73385
115.109
85.4814
-115.691
-144.065
-116.445
-62.0762
162.294
299.104
104.525
14.8287
15.8151
-116.636
-96.2133
-28.5509
-50.3143
-27.9233
-5.97339
-5.31758
-15.6388
-8.06725
-46.9843
-91.992
3.72128
24.6571
-11.3978
-37.2792
-106.602
-191.294
-48.1588
51.3607
-16.7848
39.1358
139.796
140.554
77.0488
28.9491
30.7182
94.7432
137.439
-33.7862
-181.312
-35.4267
101.799
117.626
28.5766
-13.1906
-14.3189
-42.1822
11.2533
39.3232
-3.13309
5.50447
22.1106
-19.394
-30.052
-22.6813
-21.6972
-77.2098
-60.2126
-27.4312
20.4745
34.3909
20.3728
-71.969
-136.611
-130.252
-79.9557
-69.6941
-49.2238
17.3945
30.6869
43.5767
44.6945
17.4036
-8.18596
-29.0583
-33.5241
115.759
338.449
248.89
19.5571
-38.8473
93.0383
204.377
192.644
49.6037
-136.753
-249.713
-209.515
-127.218
-19.6245
104.524
117.375
-19.2928
-23.3354
-55.5732
-84.7262
-121.71
-221.876
-108.711
22.7434
-16.6592
-60.9505
-101.746
-91.679
-4.91717
41.2763
66.5109
64.5498
22.3534
-52.8127
-66.0772
-36.3978
103.892
156.659
141.941
111.673
86.9014
46.3412
44.8353
59.2707
49.4301
-19.6615
-47.0266
3.57618
66.0473
138.332
148.424
30.1365
-9.19434
33.175
13.9812
-21.8396
-44.6678
-101.507
-102.679
-75.1884
-103.469
-170.54
-139.61
-66.3509
-63.6603
-64.2851
-45.222
-33.319
-6.89173
-9.73573
51.6503
140.266
114.746
38.5154
-5.68484
-18.3113
-6.46131
-58.9085
-94.7595
-113.908
-84.4825
-8.10791
122.796
216.508
228.976
87.673
-53.0995
-29.9663
-12.3917
-42.7935
-77.5523
-7.07661
41.7831
-5.47052
-23.858
-4.47781
16.8782
67.481
108.515
97.2232
137.409
130.485
5.62927
3.20802
-31.345
-61.5243
-27.9611
-73.3159
-101.11
-55.3065
-63.5378
-97.0744
-120.987
-139.295
-122.16
-31.6294
60.8218
102.658
118.856
80.1553
-6.32286
-52.1537
-43.0964
-31.9522
-40.1956
-83.2381
-176.882
-158.678
1.37606
64.1244
105.314
110.275
93.4789
124.77
125.688
87.467
54.3284
10.7353
3.63965
31.0158
31.9684
12.4855
24.4994
-24.3732
-47.7605
29.1817
99.1311
22.7554
-68.2165
-83.6016
-50.4194
16.5437
183.076
189.028
27.9317
-66.6418
-130.331
-175.2
-77.03
111.377
117.492
-106.232
-204.573
-306.33
-266.763
-88.4052
34.1266
137.861
123.742
53.3137
-12.02
-11.6006
-54.4534
0.482265
73.1959
-35.7247
-35.3581
70.9159
8.06717
-70.9888
-66.8342
43.8969
99.377
183.381
265.862
191.481
89.201
31.0667
12.8796
31.8699
28.979
-25.5623
-93.1843
-108.454
-106.032
-13.8027
8.27188
-29.4114
-57.8877
-100.113
-163.572
-127.274
-64.9123
30.2857
161.606
355.543
238.081
-7.94049
-56.5155
-69.9515
-109.434
-116.57
-118.061
-119.719
-154.68
-217.209
-106.098
18.4417
97.6992
62.1723
51.8378
110.189
68.7348
92.8353
16.4562
-176.63
-65.5293
147.122
110.161
-42.3992
-61.8164
-58.4096
-49.9394
80.3298
287.867
479.179
475.395
145.106
-93.6961
-126.602
-103.203
-115.38
-104.395
-164.831
-195.436
-160.544
-141.115
-170.541
-165.606
-86.9043
35.1416
116.173
51.3617
-90.3863
-105.368
-74.7335
-111.882
-41.2081
2.85249
57.0046
105.43
130.188
206.243
72.7372
6.88153
160.854
160.478
-27.1691
-100.551
21.8184
56.8275
38.2948
60.7926
62.8719
17.1037
-32.6383
-62.2038
4.65316
12.9334
-9.61097
-9.7311
-17.8642
-30.847
6.88335
-36.0325
-142.004
-135.286
-6.39321
69.2326
47.7284
-13.0043
-73.0696
-64.639
-5.6916
-0.800822
49.4559
18.662
-12.8399
26.6831
30.824
28.8607
-108.637
-236.933
-139.987
-35.7502
28.1687
279.14
259.679
36.568
97.302
150.536
195.654
-8.41103
-249.746
-190.32
-137.005
-1.92995
143.93
161.656
22.1714
-78.8147
-127.681
-240.598
-122.629
-41.7302
-71.711
-189.891
-39.9822
190.657
140.983
88.9672
61.8714
149.863
209.034
126.877
44.4816
-17.0374
-96.6852
-145.977
-76.1675
0.548965
111.246
285.522
255.174
88.9274
-110.259
-197.519
-140.68
-188.955
-224.461
39.7431
132.186
39.6128
41.4538
-137.605
-224.786
-192.842
0.473354
165.888
128.022
24.8023
35.4081
22.096
-91.3383
-64.3639
17.4122
35.7523
-8.29472
-64.8277
-36.5213
-97.5302
-152.756
-5.73609
62.1341
73.6225
88.9592
118.45
83.7166
-26.386
-71.6261
13.9537
69.4354
87.8632
66.7675
58.545
65.4591
73.2657
60.89
82.5416
42.1808
-62.7803
-132.004
-182.76
-131.752
35.3991
172.669
199.069
116.363
-200.56
-248.781
-82.1551
-36.217
-47.1199
-13.9602
-14.5892
-0.752818
17.0339
26.478
71.2404
67.5955
6.93826
1.86831
41.4312
34.3809
16.806
9.44513
-41.4009
-38.5583
101.265
88.2946
-27.245
-112.271
-184.651
-93.2219
-16.8787
10.5242
6.06599
4.39405
45.5423
86.1807
-14.6485
-30.9244
6.33836
1.8078
-43.2684
-42.6881
83.3392
-91.0519
-56.1325
25.9377
-10.2921
70.6516
158.737
84.833
41.7329
44.3435
0.0854733
-12.2701
-10.7546
-20.5016
11.9112
10.5809
-7.59829
-75.0364
-111.688
-109.931
-100.531
115.013
298.21
226.285
-34.1297
-99.8885
-96.5543
-196.931
-137.302
-5.61783
130.694
11.5419
3.16281
15.1846
12.9712
9.46609
-11.0875
22.8484
63.7619
21.2907
-98.7096
-153.408
-163.95
-57.2843
97.6267
72.6695
73.5463
118.818
64.1957
-9.09564
-36.2433
27.2713
43.2445
-16.2548
-34.8097
-34.4578
-35.1336
2.20306
55.1341
28.1518
-126.428
-71.9333
-26.2936
-7.88704
49.3447
68.12
75.1339
79.8284
48.5694
7.976
13.3872
71.7299
-58.5824
-135.297
-42.3099
-5.93742
36.1773
82.3959
117.078
34.7395
-66.0346
-131.485
-137.273
-55.3638
76.943
272.128
235.803
78.15
-72.8884
-145.216
-234.72
-245.82
-104.955
-19.4593
-63.2781
-42.8465
-11.3951
-3.65752
-0.49776
25.7855
109.895
107.347
52.274
31.5206
3.76588
-88.0187
-56.6468
19.4366
38.055
18.7245
-9.13199
-26.7885
37.2895
131.162
140.03
204.041
346.249
172.621
-44.5875
-83.755
-38.437
-120.235
-205.831
-176.204
-141.536
-144.673
-99.0192
12.1367
60.249
-13.8013
21.7232
62.5187
27.0386
-38.4185
-84.2653
-97.9063
-211.533
-213.647
-78.9115
134.558
283.406
192.584
85.3375
78.6616
120.016
71.4275
1.31662
-32.2485
-48.1425
-43.5856
-49.0443
-36.7672
-13.1453
25.6417
-52.1386
-158.032
-50.1201
146.509
240.95
200.67
134.343
53.5737
32.8648
8.78468
-102.116
-156.382
-86.9051
-70.3412
-12.136
93.6956
89.7417
-85.9195
-100.704
-138.183
-97.6225
5.2965
-20.0617
-8.28208
-50.7797
-208.656
-277.245
-148.931
-20.0702
47.7792
123.865
205.776
208.373
62.757
-37.1192
-18.9125
33.8713
151.126
156.714
266.706
343.921
152.248
-101.026
-331.518
-398.462
-246.359
-160.027
40.8896
282.345
165.274
31.8624
-30.0073
-28.7136
9.01466
-39.2256
-67.0925
1.69128
118.19
235.19
75.3914
-156.549
-118.815
-20.6407
70.7728
94.854
31.634
-6.2146
-49.4454
-168.407
-125.033
-67.6234
-17.8704
-3.97426
-66.1865
-75.795
3.96697
-2.92272
-57.1137
-172.986
-102.227
95.956
110.531
39.6962
82.0782
140.384
142.58
42.5542
-24.8367
-46.4197
-30.8313
-3.42414
25.3027
41.5078
126.368
141.957
-24.6322
-139.468
-100.544
24.3585
88.1827
58.3777
108.717
-61.9065
-95.099
-47.1059
-46.5576
-19.3834
-11.1868
14.9125
13.574
32.2417
2.33184
-76.8723
-73.1279
-21.1603
33.6844
32.0307
-133.033
-298.959
-210.759
-94.0047
62.4836
429.617
546.531
293.275
23.3161
-20.0012
-25.752
-83.7945
-87.7556
-107.264
-106.694
-93.7383
-104.541
-84.8052
-121.182
-115.655
70.2639
212.261
156.044
302.22
39.1983
-375.641
-451.848
-170.822
9.49906
59.3475
63.0763
82.9794
95.6548
68.699
37.9053
34.9096
34.9468
71.0872
114.579
121.737
58.3162
-31.5192
-70.2799
-163.495
-101.339
83.9919
81.8627
37.6242
78.7737
74.6819
67.7164
6.31044
-81.9957
-89.1178
-98.2956
-116.539
-52.2608
-44.4046
-160.681
-49.69
117.994
83.4955
27.003
-40.6684
-22.1149
42.343
45.7185
7.11679
26.2664
15.5857
-37.1911
-8.19804
40.8875
62.4233
74.3793
90.816
97.7722
70.9338
101.675
20.0207
-75.4264
-92.8875
-52.743
-53.2907
-104.306
-67.4701
-45.0237
-55.3024
-115.652
-87.8365
-9.62373
19.8661
54.1901
28.8552
10.1663
2.81907
-10.3038
40.6573
86.7399
19.1116
-14.7787
-6.76812
-46.3438
-61.6058
-16.6867
-49.3476
-55.1388
52.6078
185.591
304.293
159.452
-95.9746
-178.097
-197.05
-166.259
-93.8805
27.0016
216.522
289.539
170.265
31.8245
-78.4296
-169.025
-209.361
-118.186
-47.8707
78.0104
148.291
176.72
-43.88
-50.439
112.326
87.5764
32.5058
14.9248
2.64268
-33.3631
-114.683
-85.6586
-39.1645
32.4999
18.863
-139.11
-223.795
-126.006
-67.6645
-87.5053
-136.759
-220.577
-217.8
-73.5519
86.0561
209.082
244.254
223.819
185.868
125.243
59.937
45.9444
138.562
127.12
123.596
221.545
238.432
126.146
64.0076
0.53921
-71.8607
-101.614
-69.0685
-98.3331
-136.455
-141.539
-100.742
-106.609
-151.576
-184.433
-97.2392
-30.3833
-98.5496
-114.317
-46.6205
19.8711
58.5388
49.026
58.4134
35.4053
-63.336
-116.598
-120.335
1.80324
135.024
117.05
103.31
95.8726
44.3175
14.5451
-90.2532
-146.098
-64.0663
-10.5561
96.8128
248.172
165.196
49.3161
-31.7607
-94.9035
-19.7574
53.9057
151.642
222.789
125.277
-36.3908
-115.488
-188.623
-173.498
-78.8937
-32.2684
-18.6662
17.119
44.0445
0.976911
-34.5734
27.9733
115.691
-9.98443
-73.0913
-16.5764
29.5696
-29.8792
-158.903
-190.908
-75.4653
37.7823
147.995
200.004
104.781
-57.9655
-90.0449
-50.3012
-21.1051
167.537
284.973
52.9987
-78.4358
-70.5195
-0.145325
-51.9447
-93.3888
-38.1688
-45.8993
-14.7596
51.7818
12.3523
-65.9003
-100.065
-57.0083
18.917
15.5311
-82.1021
-202.85
-250.298
-152.967
174.169
376.332
404.632
152.268
-2.93291
-59.207
-65.2649
-27.2745
-47.8905
-40.5847
3.92367
38.5038
35.3806
24.1557
40.6213
26.7225
90.247
112.243
6.9484
-81.2561
-237.739
-370.82
-257.319
105.99
263.48
172.416
47.6096
-3.19489
41.7198
29.6021
-39.6154
-105.477
11.3291
65.9564
40.0567
80.9235
6.2066
-73.9829
-60.0338
-209.902
-180.967
-56.9014
0.885182
-3.57808
-13.8273
20.4295
61.0277
40.2
10.7223
110.493
150.533
126.748
69.9536
43.1434
71.0154
47.137
30.5687
43.1266
-25.0405
-70.0365
-45.0019
-122.456
-126.1
-83.5076
-54.6057
-6.80698
-11.3707
-27.4973
-46.7251
-71.1966
67.1262
257.289
182.239
28.4926
-57.2768
-71.6228
-42.7555
-1.38336
-29.4465
-19.3632
61.2656
72.1884
26.3361
-43.3305
-72.8042
-51.1354
-10.3316
-8.31597
-24.0738
-43.9769
-107.456
-150.93
-99.452
8.07795
71.1901
50.5951
30.8586
17.7754
42.6169
-52.6636
-127.409
-89.4353
16.4841
173.335
333.391
380.806
183.83
18.4993
-37.4309
-115.77
-144.688
-124.902
-64.1527
-70.9992
-84.3931
-36.1984
-8.53713
43.7434
-37.3277
-36.0818
66.6939
56.999
10.9001
-56.6415
-142.708
-161.004
-69.5741
-8.05941
16.0583
67.7084
166.703
221.165
26.1626
1.98431
-92.2223
-64.7746
79.1673
74.6416
25.5908
78.6521
99.2755
-1.90051
-76.737
-168.819
-255.462
-222.348
-121.054
13.113
146.98
238.581
172.061
53.7552
112.026
102.005
82.0776
-6.07205
-104.033
-64.5914
-74.5482
-83.6471
-55.1037
35.4265
97.4788
218.138
180.488
5.4098
-95.4285
-193.882
-189.371
-204.178
-252.953
-235.854
-90.5867
-2.75969
59.6334
21.9172
32.7917
71.3834
185.335
185.981
43.7657
-87.6112
-7.53071
12.6534
7.27978
69.4103
137.044
167.125
97.1419
44.9091
50.5649
49.755
-30.9853
-60.2234
-25.2899
-42.8564
-125.892
-129.641
-41.0122
34.458
224.182
312.786
89.0138
-79.9062
-86.275
-68.5559
-59.3682
-48.1063
-107.049
-143.874
-112.845
-67.9648
-96.9576
-107.989
-40.0941
16.9509
17.4976
8.18192
-29.8316
-42.4708
-89.0478
-79.1701
-55.8143
-28.1822
58.3362
199.741
260.551
211.379
100.295
-7.39339
38.4826
40.5208
13.6601
6.59635
-22.0847
-35.5175
-1.85204
3.01763
33.1619
129.226
48.8755
-98.7362
-61.6688
-60.3613
-31.2005
-52.9486
-90.5538
-92.3974
4.68003
128.773
20.375
56.7917
82.2962
-117.293
-183.119
-104.48
-43.9164
-52.6212
8.73737
20.7285
-13.9629
98.9964
131.049
73.5742
-41.2361
-109.048
-85.643
6.78494
70.0155
48.1484
16.4187
-54.9952
-22.0887
89.8847
130.049
142.48
115.665
63.3356
-0.930727
-75.8147
-66.1232
-36.3018
-29.9331
-29.6974
-39.9798
-50.6885
-21.5135
16.1396
-41.0704
-75.1054
-6.10543
14.5442
15.4441
33.1918
6.06379
-0.341777
18.8406
-49.1667
-94.6362
-65.1245
-41.6457
-37.102
-61.3294
-51.903
-18.3987
22.0586
64.6465
42.8292
34.8735
41.4574
31.0296
54.7197
123.773
134.469
91.4765
-0.850059
-65.5817
-31.5102
-38.0911
-6.60481
248.112
343.398
97.3455
-63.7378
-82.1215
-149.391
-184.567
-218.626
-248.194
-122.434
-62.5888
-69.3781
-103.029
-73.0063
20.4262
131.526
213.087
78.1508
34.8058
33.7772
-114.642
-203.011
-75.0248
-120.291
-164.862
-91.7039
18.9683
281.025
658.858
608.077
287.222
7.37017
-115.41
-94.4367
-49.028
-67.8554
-168.148
-97.4869
-72.9175
-167.604
-219.469
-175.838
-58.5473
92.7159
156.746
170.408
86.1731
-57.1193
-258.881
-334.567
-190.579
-45.5845
36.9189
66.1245
108.401
139.804
64.8035
60.4856
111.317
78.148
11.7985
-5.58527
54.037
56.2457
55.4965
66.9797
34.6185
-35.102
-106.365
-104.024
-49.6015
6.22372
30.0006
15.9828
-64.0716
-106.599
-34.0402
4.80518
-14.6547
87.6377
200.19
154.107
24.3774
10.8364
9.93461
-35.0149
-52.5076
-78.1188
-111.921
-100.075
-97.7937
-56.3232
-26.7648
26.7641
50.3124
3.95342
13.6033
46.0228
22.6902
-9.4822
-50.2617
1.76335
23.3901
43.69
59.0688
40.366
3.09795
-25.432
-15.1278
9.88873
63.4231
47.9533
-4.75784
-155.631
-166.807
-8.59195
37.1188
143.559
172.405
63.1093
-37.9693
-73.0929
-67.2691
-92.7895
-61.7141
-1.71761
27.3059
43.5135
21.3085
5.82091
25.1513
14.8473
-83.9838
-35.6484
-0.572791
-47.443
60.2249
253.728
161.988
22.6473
-4.44927
-20.5482
-26.712
-8.72138
-36.3017
-68.6939
-39.0044
-63.5217
-157.226
-188.592
-253.978
-271.077
98.52
620.071
757.637
226.31
-124.006
-303.32
-318.624
-187.969
-152.237
-158.672
-97.5159
30.2277
60.3542
26.5804
-17.3972
-23.3974
30.9607
88.5732
144.986
158.431
88.9531
-50.8246
-211.807
-55.0561
38.6245
-17.8145
28.7637
80.4672
46.8752
46.4332
93.0237
91.2942
33.8338
28.1956
34.9949
-55.2647
-93.9731
-78.1432
2.08267
162.398
164.46
-4.99592
-105.943
-20.4649
1.64117
-69.8769
-109.077
-103.159
-114.995
-79.8892
-59.9736
-37.0096
-18.7827
-65.7775
-98.6421
-25.1463
59.4713
132.023
219.623
56.2413
-101.051
-158.541
-115.945
0.71611
71.4049
93.6138
94.6426
93.133
127.718
41.9682
-35.5678
-69.7983
5.87793
117.233
122.698
112.519
70.2569
-11.8956
-95.9723
-90.596
-98.0965
-102.434
-42.4539
9.49815
-21.5645
12.5366
-108.104
-113.498
-0.0380355
69.5692
24.3061
-2.47308
77.0372
98.4488
16.181
-35.4026
-37.7398
-34.6021
-25.2899
65.273
109.797
-6.57202
-63.5644
-56.551
-42.0274
-93.2485
13.2841
7.51077
-2.47468
138.036
114.937
25.0203
-37.046
-135.973
-115.814
-43.6066
-11.8847
33.504
54.7484
239.33
165.637
3.17353
-54.0588
-58.5622
-68.9743
-65.0862
-42.5073
-10.264
-4.59984
-42.2779
21.1972
0.918211
-108.113
-88.8804
-80.1395
-3.89361
71.8463
86.5195
-5.43663
-110.156
-81.8579
-32.8434
-73.8101
-87.1277
31.6557
126.504
306.386
425.504
133.281
-67.8728
-81.8672
-53.9537
-71.4444
-32.7419
114.491
117.911
29.0915
-40.927
-68.6291
-123.209
-118.789
-48.4306
-51.7563
-34.1972
-9.31061
55.649
6.41345
-132.93
-57.1309
1.74648
26.9128
51.5542
66.5675
56.5568
21.0697
-8.93557
-27.6457
-34.194
-20.5466
-52.085
-59.0258
-20.8654
67.177
70.5697
24.2022
-85.1587
-147.169
-89.1777
49.9996
107.692
167.943
107.279
-101.061
-74.605
20.6331
34.7345
51.6191
31.3477
15.1102
-21.216
-25.2087
-0.701033
57.5369
40.1977
-5.51819
-2.78217
-1.46783
-71.41
-104.656
-67.2536
-72.7101
-37.1092
99.8839
195.421
192.894
90.9513
47.5142
1.92082
-60.4318
-149.308
-196.933
-155.427
-128.546
18.6047
218.503
183.714
5.62031
-32.2955
-11.0277
-31.6647
-43.6075
-5.44888
31.8242
-27.1765
-158.56
-228.084
-187.162
-36.7869
138.385
411.139
289.356
21.2623
-50.8742
-80.7036
-127.228
15.7347
272.331
151.852
-47.8136
-85.0215
-56.1439
-109.696
-138.093
-186.055
-136.376
-12.2012
44.6084
-12.4978
-36.2657
-114.968
28.0825
182.423
177.36
74.1627
-14.9118
-65.9128
-82.828
12.1089
93.8995
100.687
77.5448
64.6714
78.4366
8.75768
-104.095
21.6741
46.6931
3.35001
-13.5746
-80.4204
-75.3641
-28.7691
3.52133
29.8613
29.8547
-58.1871
-122.949
-78.1742
21.027
24.3848
-32.3373
-23.9466
3.8674
95.1127
129.856
26.6107
93.1784
136.317
-25.3936
-37.4155
-16.658
-77.4569
-77.2584
-80.8455
-109.809
-84.4113
-80.8262
-47.1716
-17.1419
5.61303
36.0856
61.4801
43.1824
27.7434
95.0283
45.9474
-121.871
-143.225
-27.6922
8.85627
28.1766
147.372
116.364
21.5564
-7.01837
-32.8379
47.9346
134.602
107.587
-36.7899
-74.5114
-21.1937
29.0494
17.4281
16.5212
42.1309
22.0807
-96.7866
-88.0148
-78.2496
-65.4019
-3.46304
90.5238
63.6762
95.4131
111.02
-82.8199
-144.613
-126.568
-64.5062
-1.02336
12.9112
8.41774
-32.5597
-33.7025
-20.957
11.0984
66.2196
42.9801
-16.5526
-74.2399
-105.124
-54.0047
58.8755
65.0684
177.35
146.955
-61.7213
-98.7276
17.6175
114.302
73.3144
42.1655
-11.0912
-23.488
3.60033
21.6495
49.3585
60.773
1.98815
-119.606
-222.265
-221.647
-197.774
-145.888
-104.888
59.6981
260.938
372.438
272.245
49.9256
-27.1482
-43.3752
-32.5554
-10.8228
-37.9187
-84.9969
-58.5484
-44.7793
-13.047
78.5054
102.221
41.6447
25.445
-10.3096
-29.9543
-12.238
-64.649
-133.885
-111.784
-53.016
-24.4718
-28.1631
-8.65844
-18.7934
-14.2432
14.7769
24.8541
34.7137
73.058
94.8278
90.4367
100.837
94.2694
27.0023
-88.1719
-164.484
-88.02
-35.5477
-45.2678
-14.525
25.9341
52.2449
68.7672
69.8796
71.5336
80.173
38.3283
-45.4981
-61.1198
-51.969
-34.7065
9.13273
6.57522
-25.977
117.939
219.004
46.5321
-96.9788
-126.687
-42.8292
-26.399
-46.0237
-70.1825
-90.4247
-42.414
14.074
-10.694
3.52968
-1.24219
29.0206
-25.587
-120.722
-115.761
-2.56977
-19.299
108.212
240.54
19.8519
0.726033
-38.8282
-68.7118
-37.4053
87.7157
139.412
123.95
12.2871
-168.751
-299.086
-239.606
-82.261
172.869
468.442
300.936
32.3763
-145.661
-187.441
-126.235
34.9535
81.6819
46.9632
61.0034
58.726
-11.1467
-51.4291
-70.7661
-30.3637
66.2029
167.298
131.289
34.3688
-59.1619
-212.016
-114.083
14.8178
0.884481
-75.5313
-102.466
-44.1651
-39.3324
-30.859
7.57389
21.9251
-3.60097
-13.9477
-26.3705
-18.6522
47.1462
90.8675
71.5855
47.7666
13.0867
-98.5304
-72.3034
-3.46313
38.0851
-14.0135
-44.1556
-50.7639
-52.1478
31.4162
73.1317
132.855
179.379
115.6
-9.60818
-21.7441
2.22811
21.635
2.17692
-29.0357
-49.6864
-52.7473
-15.0259
-6.37648
-5.42646
-12.1512
-56.1745
-63.8964
-17.9077
-80.9093
-150.557
-62.1957
132.943
200.609
247.706
166.679
-38.4764
-114.88
-129.365
-129.359
-109.743
-80.6801
-26.8661
28.9045
-0.099427
-24.83
13.9313
77.8211
83.6741
73.5568
53.677
-5.35699
-130.756
-149.314
-76.3123
10.5334
88.9295
86.7948
72.203
49.7216
58.9377
38.4045
7.17661
-42.3556
-158.551
-69.7251
122.014
115.377
58.5638
6.5087
13.8255
-28.9474
-76.0929
-55.6902
-66.2572
-54.6036
1.78372
29.7473
51.5127
64.1174
30.1336
17.609
19.1573
26.491
71.9929
21.8098
-74.5146
-44.8258
-8.76302
-0.146701
-7.17647
-20.1274
-80.173
-63.5239
-43.6922
-56.0704
-19.2285
4.22159
72.8096
65.3896
23.6674
-16.3845
-39.5756
-4.02412
55.3878
14.6981
-12.6373
10.7466
14.9222
42.6378
48.8062
-14.0588
-33.9682
-67.0283
-40.1189
-52.1673
-33.4247
12.316
-62.3327
-60.8058
-1.4899
91.0761
58.9592
-26.7364
51.0508
77.3722
49.2374
58.8769
42.781
2.83584
-0.763448
-2.85124
-7.93179
-10.6125
-26.1973
40.5173
73.3249
22.8313
53.5716
27.2963
-29.1684
-82.533
-67.1279
-49.7678
-71.8972
-115.128
-117.324
-54.3295
-19.1036
-21.4308
2.3259
24.1508
39.2084
60.0762
43.9747
-7.37408
23.2408
68.0367
52.857
29.3357
21.1189
17.7296
35.5607
65.242
57.8929
32.3038
-9.10319
-63.3824
-70.9954
-83.2965
11.2027
24.6054
13.9267
-42.4644
-98.4735
-133.544
-102.328
-20.6455
-5.66448
98.8414
233.635
104.857
25.7963
12.3283
-7.38623
10.7644
-10.8547
-76.341
-83.0818
-39.8382
-82.4019
-33.4099
30.5392
46.3792
62.3421
72.0162
83.6501
47.7992
-76.5986
-69.527
-136.404
-63.5247
29.0081
73.939
-1.86935
24.7186
175.553
108.4
59.3397
-2.12544
-93.3972
-91.2164
-86.7063
-79.4632
-84.0842
14.5757
62.2503
53.7296
118.883
10.0785
-67.4232
-8.51933
-28.9795
-58.3324
-6.40775
-3.1528
-82.2205
-34.9084
-14.6155
-4.3907
-67.4423
-101.117
-125.916
-32.5684
265.464
421.881
276.514
102.735
67.6628
6.3179
-82.1035
-238.103
-179.461
-73.3803
-30.8933
-22.6368
-25.3034
-38.1466
-21.5484
29.2915
91.3096
93.2317
76.2172
36.3166
-91.8095
-213.616
-245.079
-203.334
-77.715
8.59579
66.8142
190.56
152.967
71.3233
18.9484
-7.39703
-8.86567
39.9498
64.2362
95.481
117.994
97.9711
39.3684
14.6074
-57.3607
-106.134
-64.6712
-20.8427
-47.497
-16.2478
-6.28808
-39.6809
-48.1072
-64.2761
-32.6044
51.2618
133.173
61.4432
-26.1434
-17.3895
59.1022
87.1406
43.5894
-51.895
-64.6545
-64.387
-45.2491
-7.12409
-35.4754
-53.8031
6.30579
45.4029
12.9788
-26.7747
-45.8322
-105.001
-99.7026
-76.1801
-26.5259
-44.5953
2.54722
64.2547
67.0232
154.906
207.091
160.391
17.6539
-73.2999
-74.5429
-83.9761
-141.643
-86.1927
14.1247
72.6958
101.74
87.3207
21.3554
63.7952
78.8559
69.917
13.0364
-21.8335
10.7498
-5.49523
-90.8895
-220.38
-131.823
33.7168
72.4966
85.8824
76.7203
13.2799
-67.7664
-75.7533
-40.5399
6.83639
100.044
172.109
29.8132
21.0756
-82.1489
-188.177
-131.232
-94.8203
-61.3072
22.621
71.9025
59.4346
-16.5874
-109.462
-45.0751
-5.20693
54.3912
58.619
173.076
128.74
-69.3017
-23.6225
228.897
143.364
-19.5175
-79.9987
-130.85
-123
-69.1215
23.1179
71.1846
42.1105
-23.824
1.79509
-1.48031
-23.031
-80.5494
-110.405
-153.283
-88.9559
-27.4199
-48.7011
-73.3067
-27.4608
66.2262
117.092
93.1591
136.324
116.874
75.7329
40.1668
8.64209
59.2605
87.401
71.8924
67.5779
54.753
56.7976
-10.4579
-67.5631
-52.8223
-53.8508
-70.8204
18.0912
58.0663
-29.9785
-18.1385
-60.5872
-110.084
-102.458
-60.6362
20.495
-8.11952
-50.8244
-19.8337
18.4301
80.9857
-8.94794
-163.622
-216.378
-66.2886
-17.5773
-30.0485
-47.6255
4.24156
88.7689
135.441
128.657
36.9435
-3.60142
-35.8563
-55.1588
79.6614
165.277
142.131
161.168
117.586
21.7452
37.989
23.6451
-5.71046
-41.794
-99.5767
-123.495
-116.805
-95.8477
-66.8004
-31.2137
139.746
184.006
21.2016
-60.5403
-80.3324
-64.4309
-76.7304
-105.604
-119.931
-16.5098
101.069
194.596
134.882
64.7297
14.2815
-21.7465
-36.8922
-29.6782
-32.4068
-38.9836
-88.2741
-99.3679
-15.7927
12.242
-29.5343
-40.5744
-31.666
-52.0993
-36.3414
28.2753
36.408
60.1517
13.2949
-36.7525
-102.421
-128.393
-84.1594
55.6232
178.234
402.027
355.118
155.724
26.6926
-134.344
-138.415
-43.4024
-39.288
-52.58
-53.5149
-60.5622
-87.9843
-85.7801
-60.8624
-37.3844
17.4627
92.8927
187.107
185.073
86.4092
-223.02
-325.904
-198.1
-41.4468
71.121
94.5703
79.4246
52.8719
6.17497
-31.3825
4.30079
169.712
38.3341
-116.168
-30.5413
34.3193
25.4738
-20.6673
-113.83
-189.783
-135.163
-14.5173
110.181
260.017
236.406
45.5197
-27.985
-1.40121
19.056
-3.65282
-52.9107
-94.3354
58.0197
178.206
145.36
143.488
18.0624
-106.292
-168.499
-75.7943
9.2522
-244.502
-252.14
-159.478
-141.571
-27.1107
24.937
40.4141
60.7468
139.939
152.021
62.1038
3.43919
-64.0795
-65.6569
32.1148
125.241
143.984
12.9718
-145.048
-103.347
95.7024
150.352
121.334
81.478
76.9455
3.20388
-23.2268
-23.0423
-66.3738
-45.8192
-27.8982
-12.7937
-26.6712
-67.8462
-99.6429
-77.5357
-59.4783
38.4902
188.867
119.045
-98.0718
-113.166
-93.1199
-30.6039
-44.6645
-47.164
-22.5403
-32.5007
-64.4114
-46.1571
-48.073
10.0086
191.047
266.499
148.943
35.6274
2.96553
26.7687
-20.5671
-66.501
48.5233
-1.47212
-72.5621
-50.6791
6.76403
51.4835
29.7336
27.6075
25.2818
29.9676
9.24226
-35.4938
-108.753
-151.52
-112.968
-29.9446
-18.5536
-10.4437
-1.56886
1.67767
94.0987
54.9379
-55.8351
-39.4445
-60.5959
-108.022
-58.6936
37.9503
146.842
313.895
287.873
20.7327
-68.8339
-61.8914
-60.1825
-52.7565
-22.1119
12.3191
2.81037
-6.92586
-40.733
-156.718
-37.3006
23.4782
69.7381
98.7291
29.4721
-79.0905
-100.282
-113.395
-74.4588
-7.54328
-54.982
-66.3998
39.8292
29.8457
-68.3192
-102.288
-7.01067
62.5605
203.417
309.542
156.529
51.5533
15.6871
-29.2959
0.913523
24.4115
49.7196
4.64653
-40.6295
-35.7449
-30.3506
-55.9285
-83.9101
-64.6695
74.9469
212.456
9.05071
-110.083
-123.288
-175.288
-148.118
-115.27
-73.9907
2.85553
18.6924
28.0316
8.74735
-44.5677
-33.3512
52.4361
68.8011
62.8509
27.3994
20.9999
8.20608
-6.33017
53.3339
49.7663
26.0517
45.7753
105.886
120.464
22.7853
-76.8093
-46.8102
-25.9833
-40.179
-27.5466
-8.26637
7.73655
-6.46471
-15.355
-1.26402
37.0207
47.0388
17.588
15.741
-104.896
-243.905
-96.2324
-1.96905
48.5122
450.713
533.969
109.4
-142.93
-228.8
-236.095
-189.781
-133.797
-63.2807
-34.3604
-54.2096
-81.8745
-108.9
-104.93
75.5905
363.464
310.045
63.7278
-87.928
-83.9401
-212.62
-160.229
104.609
103.284
50.5626
4.13188
-18.8586
15.3674
95.1818
99.1068
110.113
71.0428
-58.4199
-172.659
-219.286
-230.053
-113.104
39.3173
76.6688
51.7797
-40.9214
-85.8371
-32.3074
93.6959
142.764
114.516
92.9153
82.9571
40.7437
27.5271
16.2291
21.4118
40.2368
40.3941
-7.44271
-21.4581
105.434
36.3188
-29.6902
-25.8066
-86.6475
-102.993
-86.3746
-31.9605
-6.25433
2.7689
10.6297
-35.1587
-27.0356
25.6076
-32.7891
-45.2985
9.78773
53.2445
31.8853
-78.0739
-119.466
-80.5673
-143.325
-181.1
-47.1231
18.8169
52.6542
124.941
196.337
106.228
-3.12792
-11.2819
20.9498
97.569
126.37
152.331
164.47
79.4599
-2.0677
-22.5081
-68.8113
-88.2997
-90.6579
-71.1165
-114.493
-100.675
126.556
295.922
81.3297
-83.2355
-111.445
-114.146
-63.0459
-27.1386
-122.631
-137.013
-113.284
-129.106
-87.3982
2.37176
70.5862
116.581
273.892
275.344
209.835
62.8559
-172.219
-315.192
-218.839
-71.8945
5.47332
43.1653
17.6068
-66.3515
-10.9507
30.3824
49.0879
110.903
119.219
82.3474
57.8882
47.647
-30.437
-48.175
-69.9571
-31.2927
-7.61239
-64.6709
-48.8722
36.1241
103.644
174.834
184.537
31.9062
-39.2466
-49.1047
-54.07
-11.9765
-57.9967
-88.45
-24.4146
5.53583
6.67621
20.236
11.5554
-57.2798
-197.309
-97.6345
40.2664
37.9456
14.8108
-49.3202
-138.622
-106.354
36.8852
176.295
148.832
75.3778
44.752
27.8953
-45.0685
-33.7205
79.8042
99.237
32.6932
85.7288
14.2203
-149.018
-78.7615
9.99651
-31.8197
-94.8876
-96.3673
-32.2859
-34.3802
-79.2028
-19.1063
38.7955
56.3187
39.8222
12.1323
17.9263
-19.6751
-21.4935
53.9537
-7.05558
23.012
83.1469
41.3673
46.6908
67.1451
37.8518
-1.04825
13.1617
-1.21302
-115.388
-81.4364
-31.9834
-68.9049
41.1709
236.1
62.7512
-78.5472
37.0074
57.1241
-63.2493
2.57807
32.9787
2.35049
-40.2202
-55.2314
-18.8111
-43.4522
-69.3863
-35.2859
-17.8052
-77.6421
-99.6303
-85.1557
-72.5993
-66.2181
129.808
367.786
95.0785
-230.16
-67.6438
25.5542
-4.41756
-140.443
-86.6247
33.9622
157.021
242.612
181.675
23.0814
-75.6999
-66.6888
-31.7267
23.3815
-16.2907
-40.578
-17.7075
-132.041
-100.875
13.8438
46.3468
58.5008
58.3868
107.609
67.3469
23.3132
-12.5571
-74.9799
-91.0106
-21.3938
55.2896
63.6132
19.6231
15.9879
15.5637
-62.8852
-94.8425
-53.1068
46.8839
147.9
46.8988
-17.0274
-27.7251
-1.3955
21.6843
46.5302
-49.5064
-131.535
-108.297
-53.9616
-17.0051
-22.3399
3.50481
46.0563
37.1446
-10.6164
-41.913
-78.6253
-64.464
-117.018
-42.2063
24.311
36.2888
47.0831
32.6208
59.3597
158.065
171.607
51.1865
36.4785
59.2751
20.1616
-15.5284
-25.4517
-37.0824
-29.3279
-21.2485
-119.432
-135.922
-47.6812
-3.3548
100.455
189.21
117.973
48.9699
-93.8404
-142.25
178.234
278.477
-86.0053
-123.497
-45.4265
-46.1761
-42.0375
-46.1456
-25.0504
49.0987
39.0899
-81.4421
-23.3981
-10.0179
-99.0423
-145.39
-84.9322
-62.5119
-44.1564
-30.7608
-118.954
-86.7744
89.8219
99.6458
78.111
99.5344
119.046
99.3317
35.2807
-15.2758
4.47106
45.2959
18.0744
1.82074
24.8972
15.3635
3.34925
4.26273
14.4703
-5.02999
-87.9442
-63.4948
44.4646
51.4983
48.4091
52.2189
51.7235
49.4957
8.99208
-35.0724
-21.4699
20.6971
47.0408
36.9374
-61.7653
-101.1
-145.897
-94.1087
-9.13751
-0.415812
-32.38
3.91324
25.4118
38.7821
-2.54865
-11.5458
-39.1345
-88.4126
-64.155
-59.5567
-21.9852
36.3475
39.4298
20.0977
56.4465
79.1104
107.833
59.6195
6.84845
-4.04915
-28.7824
-12.7786
5.77768
7.68293
88.8899
92.9446
28.2182
16.9256
-15.4814
-25.6445
-26.0067
-74.4135
-114.506
-18.351
62.1581
-3.13684
-11.2266
18.5109
-7.80417
-39.5541
-2.44621
29.9931
12.9226
-36.9856
-57.9891
-41.6309
11.1585
36.6432
21.6542
-73.3417
-150.465
-21.7951
37.7443
40.7987
40.133
44.9835
47.2133
12.9721
-3.44204
20.0576
8.13464
-27.4538
7.77581
27.5136
22.4428
-62.6165
-65.2264
-25.2264
45.8033
206.126
312.028
32.0399
-102.413
-107.176
-133.133
-76.7482
-0.390621
10.9398
-3.09783
-16.0088
-90.8891
-170.501
-152.882
-32.6829
117.673
205.197
367.804
206.368
-52.2553
-113.374
-139.613
-50.2384
-15.7606
-27.3282
-19.7145
-12.7788
-48.3008
-62.962
-54.1329
-44.4368
-7.42321
113.286
237.092
89.55
-115.89
-130.6
-189.392
-126.167
-0.906954
6.09717
16.4719
57.0309
52.7884
30.9332
38.5819
43.9456
68.3665
75.6492
74.5043
31.2471
-63.7553
-207.939
-64.7673
132.26
50.5003
-42.3406
-78.3741
-5.08863
64.6037
64.9731
43.121
84.1751
40.5234
-106.138
-148.086
-129.525
-131.116
-60.757
199.777
355.91
227.356
99.8313
-85.2739
-183.943
-172.652
-148.792
-113.634
-12.6493
-3.7991
-11.8267
-5.06688
-3.4063
56.9293
124.4
162.821
128.336
33.294
-9.96728
-146.653
-166.878
-26.1988
1.54159
-36.2285
-14.5124
36.6182
70.3722
22.9495
-16.9437
10.401
-37.638
-85.1697
-68.2249
-45.5058
32.3302
228.255
260.866
65.4126
-35.1757
-92.2591
-148.007
-121.535
-57.3818
-67.2013
-23.8554
86.6755
11.5205
-5.44932
4.43308
6.28348
47.5416
46.7784
12.0026
16.2479
-1.28095
-121.137
-148.718
-9.00116
39.2276
-23.191
-38.2747
-8.16042
98.5232
157.369
93.7613
-55.4008
9.52526
45.5061
62.8139
82.3506
22.2195
18.6378
10.1967
-6.08799
-16.0764
-109.396
-96.4697
-20.2745
16.6126
65.5995
66.6957
-56.1976
-101.706
-19.4334
-14.6863
32.8888
42.8175
2.1695
-99.834
-159.529
-83.9247
45.92
108.725
71.528
-54.8829
-81.198
-55.5872
-1.34573
-4.75757
-6.95799
14.87
70.9454
42.21
-25.8635
-44.4643
-1.50493
181.867
209.865
-14.2972
-106.43
-26.4651
93.832
238.234
190.77
58.3786
-12.0069
-39.3908
-80.5472
-98.6002
-101.285
-138.71
-77.6487
-24.595
-59.3047
-48.6576
-30.1806
-121.671
-126.942
8.25259
64.4352
28.9749
-50.662
-170.402
-162.376
-91.8119
-1.69866
94.5456
260.226
241.965
62.3086
48.9803
54.7036
96.0032
120.033
-5.46101
-52.0488
-46.0907
-30.5321
45.2775
87.3882
51.3334
-36.6786
-122.548
-88.8812
31.0243
29.0498
-39.5611
-161.783
-174.344
-46.3153
32.257
187.045
215.667
79.1979
101.035
59.4165
-6.19245
-64.2206
-98.5413
-107.763
-113.634
-111.962
-66.1115
-4.59292
45.6132
36.6604
-37.4524
-60.9198
-6.15891
59.8294
97.7045
136.56
127.589
72.3392
-39.5149
-108.356
-282.135
-312.516
-18.4043
62.2123
74.5013
81.7816
83.1778
75.9761
59.7456
44.6566
51.3672
55.4389
38.2552
18.2571
-49.886
-56.4657
-32.6435
-72.2481
-27.7377
53.0789
194.954
268.085
121.976
-19.3078
-120.852
-138.238
-177.586
-133.936
-102.064
-72.6949
-128.606
-101.099
203.963
359.573
60.1863
-114.858
-160.883
-65.3977
-1.95784
21.518
56.7739
66.2104
-23.4397
-41.7855
-37.2402
-50.8414
-23.7558
-8.53729
29.0112
41.3874
102.887
124.667
-43.9569
-148.77
-26.9604
-16.3132
-25.4465
12.7148
64.4414
98.6282
31.7181
-51.975
-38.2715
56.0618
98.9105
76.1911
53.8136
36.6037
25.1019
22.6348
33.2855
-12.1592
-95.4663
-128.765
-36.8307
-29.56
-94.461
-63.8496
-19.2254
32.8844
76.6227
-40.3867
-116.302
-54.608
-9.95306
-20.0787
1.17603
7.01912
4.77099
-20.5563
7.60071
85.9946
68.2661
51.6807
74.9022
53.2051
58.0176
-25.6082
-203.428
-165.79
-36.2295
65.9864
223.097
198.6
75.9601
68.8374
32.2546
-40.8594
-90.2849
-53.3465
45.5364
65.4157
-120.234
-115.143
-56.0126
-64.6364
-78.9615
-40.8364
92.9944
46.3224
-71.3955
-39.0208
-65.888
-76.8136
-44.6542
-36.7075
21.2282
84.3378
144.762
183.823
62.7477
-85.1491
-10.7382
-9.21261
-4.00883
12.3228
19.4187
42.589
53.3883
13.1511
1.67945
6.7082
-19.3728
-20.393
-2.15135
39.0939
42.0077
15.4705
-26.8257
-157.638
-248.927
-198.34
-122.458
-62.6599
163.801
338.91
189.507
117.627
47.0317
-10.5835
-7.82899
-19.8291
-21.3052
-24.637
-4.45921
-41.0033
-111.139
-140.414
-126.424
48.7676
119.93
42.9659
7.40263
0.786784
-94.6589
-154.235
-41.9828
-16.9723
20.5185
68.0567
73.2034
88.5225
77.2
24.6278
-79.1557
-44.1045
37.5152
56.5977
60.1694
10.2891
51.9298
114.672
84.454
11.3845
-78.4988
-126.88
-75.1004
-32.0022
-12.6925
-16.0657
-17.0595
4.14015
16.7142
22.6166
62.6743
45.677
25.6063
26.4913
-11.2809
-91.9935
-55.1596
24.5232
71.1142
22.7032
-86.971
-120.487
-12.0947
3.66645
-4.89457
-7.81874
-21.3911
-15.6724
-6.2613
34.5033
63.9536
33.7408
8.70914
-40.729
-98.0316
-138.932
-83.4531
24.5652
136.234
299.406
149.559
-145.757
-144.325
-58.4996
-6.27808
74.2297
117.307
34.6759
-23.0884
-22.9574
-18.4199
-8.67306
-11.5362
15.8089
63.8148
91.7541
28.6388
-47.3924
-51.0613
-129.229
-55.2034
36.7184
31.5953
53.297
-16.7109
-120.389
-140.187
-126.152
-74.6141
35.3445
181.228
144.626
61.2185
31.4464
31.6669
45.8396
17.3813
-0.332677
-78.3855
-112.731
-29.2088
82.0415
40.0234
-16.0172
7.95282
12.5866
21.0542
43.5579
0.935824
-48.9614
-86.3214
-47.822
9.75707
4.52105
18.9856
28.3734
30.293
-4.962
-18.641
-18.581
13.6139
58.5079
-18.7863
-101.396
-68.0438
-13.6777
28.5653
105.586
73.5656
38.9176
-11.1463
-2.16996
-14.8852
-32.1926
-83.0558
-5.48679
65.3975
94.9621
51.0672
-49.2406
-146.146
-205.72
-73.3519
38.7872
70.624
74.2955
20.1433
0.221223
24.8311
11.3034
3.41319
-10.792
-28.9549
20.2588
59.7089
68.5091
78.6529
34.527
-20.4162
11.5962
90.3073
135.494
66.0705
-25.4443
-100.624
-51.0634
-80.5234
-178.995
-119.956
-31.4676
-38.0374
-33.6519
5.86187
20.6189
38.2956
-2.98638
-46.5034
-67.0323
-1.71617
10.713
-16.0203
19.6886
111.043
213.29
136.727
2.76857
4.63567
57.485
35.8638
-36.0516
-41.2925
-18.776
6.10099
13.6298
-53.9661
-93.5473
-80.3011
-83.5339
-94.4026
-43.5626
15.3889
38.447
-21.9919
-46.5755
66.564
20.6275
-3.50336
59.5349
1.58886
-25.4414
8.46979
20.436
25.1107
6.55363
55.3144
62.1538
19.7553
-10.4726
-54.2717
-62.2642
-29.0519
13.4568
77.3552
133.696
153.37
111.737
12.8634
-118.186
-129.41
24.7685
102.649
-22.2928
-160.103
-127.672
-31.157
75.9837
98.67
-9.01372
-57.98
-72.5405
-66.0154
-57.5976
-87.1346
-127.857
-136.346
-43.9822
58.8931
62.5019
49.3422
-24.8732
-48.8743
-4.59408
116.94
213.774
141.212
-16.0862
-41.7352
50.0221
121.537
134.045
94.6853
51.7316
7.65455
-56.712
-98.4533
-74.5606
-32.5305
28.8166
79.973
-11.1052
-117.75
-44.4174
-13.9967
-85.8725
-70.5198
-42.4081
-51.2975
-25.048
13.4019
17.5111
31.0604
52.2805
-7.99199
-39.4452
-39.5602
-27.3927
-8.32535
-5.2863
56.3979
77.77
55.6864
22.7809
20.4751
2.59899
-9.86664
-12.9879
-21.8431
4.56361
32.3206
-8.79226
-30.2613
-38.6851
-9.82428
-1.9363
3.77136
34.5863
53.7772
49.6864
15.22
1.6979
-10.1666
-80.541
-124.395
-19.4912
7.45704
-16.7456
-4.70724
-1.00537
5.17089
41.2085
26.8548
-13.7578
-19.3209
-9.12635
69.8103
138.387
74.632
-15.9049
-80.9351
-110.378
78.3718
283.028
94.4421
-255.982
-171.02
-24.6876
-9.80683
-21.2836
-14.3014
17.7228
43.0471
20.3464
7.74118
3.39232
-36.0285
-78.8681
-59.3927
31.8839
87.4549
44.0685
-152.526
-287.166
-140.185
117.032
257.675
428.199
264.052
29.6327
-6.28571
-59.8128
-92.925
-73.1447
-68.8233
-60.8329
-70.155
-82.6146
-81.0839
-63.9878
-50.1256
10.9437
46.5055
41.295
73.4334
99.2341
-26.1007
-225.967
-162.245
-22.7479
-9.3796
10.8565
27.174
48.0069
62.177
78.0247
45.3453
11.5507
15.0598
30.0815
22.2606
34.6858
61.1781
72.0029
60.4695
35.0179
-27.8624
-68.3172
-23.0999
23.337
29.0011
38.6354
-6.45045
-51.7379
-63.8028
-73.7812
-60.7981
-34.5134
10.6654
29.5755
-1.44382
-7.4173
11.0669
47.8278
65.4475
21.2909
-61.4344
-62.9659
-44.1403
-37.8949
-4.18595
14.7301
-10.1204
2.05792
19.3736
64.1812
57.8389
-51.178
-124.929
-88.679
-59.8263
-41.1675
14.9243
60.6316
91.3185
119.247
126.353
31.6366
7.85986
91.437
107.316
-80.5745
-183.611
-49.2328
79.159
70.6827
-64.9314
-49.2895
16.6102
10.4048
23.3471
15.3038
-17.0238
-47.914
-59.2493
-55.5911
-59.6886
-42.8772
-43.8053
-74.7913
-58.6031
0.049548
67.133
52.8065
20.0252
18.6486
95.3704
131.226
124.323
40.2025
9.14898
2.14902
-13.017
-34.3095
-36.1358
-41.8287
-16.8372
6.66262
-13.2407
-49.3017
-70.6187
6.28985
68.584
18.704
-31.8788
-37.0566
-13.0229
-3.60198
-12.6292
0.207315
1.50537
4.0225
-2.61334
2.25566
-14.8962
-3.85543
-0.794256
0.0670921
5.97425
17.3006
15.0852
41.4259
17.044
-83.7601
-41.4849
-14.7856
22.0625
52.5999
32.5486
63.072
31.7771
18.1328
43.8189
-62.2288
-154.958
-145.993
-75.1542
117.169
187.2
-4.7084
-64.1841
-75.2272
-42.0379
50.7517
200.656
307.248
119.378
-26.1695
-104.2
-150.526
-117.943
-98.5438
-122.693
-1.96141
161.882
93.8009
-10.1533
-135.49
-149.38
-27.4112
6.99634
33.9789
54.9061
39.0592
-76.4388
-162.959
-81.2703
-9.44315
39.3164
70.341
80.6857
79.3707
78.8178
48.0406
-5.34192
23.5099
33.2781
-5.64936
-5.14166
42.8142
72.4043
-9.87775
-157.33
-98.4811
-39.0254
-31.5112
34.318
92.1674
85.6655
-12.9044
-17.0861
7.6929
11.7555
6.55421
-0.477729
6.38469
30.137
24.9839
31.6546
53.5864
2.95353
22.1188
88.6385
29.7681
-157.44
-257.155
-85.4636
20.899
54.0421
79.9871
16.4249
-21.251
-25.2853
-6.48059
-2.18159
-26.5638
-23.3877
-29.594
-43.8124
-35.1054
-25.9913
28.8395
103.974
109.567
116.591
83.9515
-43.9833
-142.127
-178.023
-154.846
-90.7888
-18.1389
51.121
107.847
89.9459
31.0962
26.12
75.9863
105.61
69.2619
-18.2614
-43.6167
-31.3662
-51.7341
-20.2864
128.699
129.982
61.899
34.532
24.9247
11.004
-8.50145
-45.355
-98.6286
-90.3071
-32.7709
-21.0512
-62.536
-96.3823
-68.3777
-14.268
4.99389
12.0942
17.1381
13.066
-56.4299
-63.3487
-21.0146
19.0896
51.8861
53.7776
41.9834
46.04
2.13533
-20.2948
0.131986
-20.6983
-26.6416
-13.0271
29.2553
111.437
71.2981
26.755
25.0928
-2.04072
-35.4879
-41.4145
-30.8006
-15.3374
-32.6005
-31.116
-3.91379
2.02851
16.3065
75.101
71.0566
22.3664
-4.2489
-20.2377
-46.0002
-70.6032
-33.573
5.69106
8.8272
1.52421
4.8675
22.3949
-9.04867
-6.56397
55.9304
71.5106
28.1163
-16.1964
-15.0253
-45.6311
-76.379
-65.5152
-35.261
-13.2792
0.331049
-12.8325
-16.6937
6.50252
32.4012
13.3937
1.56557
-6.3055
15.1918
-3.92598
19.7758
76.088
63.4527
17.4388
-0.718596
15.4732
52.5064
66.2826
10.0085
-66.6938
-69.2917
-58.6367
-77.7593
-83.8562
-76.0855
-12.3533
100.303
190.313
133.142
56.3344
1.73343
-71.5192
-192.08
-153.838
-56.7286
-117.788
-162.448
-93.0361
-46.4538
84.7433
449.649
444.131
163.428
79.7361
-7.16451
-40.3884
-74.9631
-134.071
-144.557
-104.713
-103.342
-83.6435
22.7417
78.7164
17.7712
-12.8769
26.7908
26.4315
-4.91404
-78.5866
-259.184
-221.501
-38.0672
15.1237
51.8737
54.032
23.1025
15.4654
61.5155
99.3482
119.745
73.3905
71.5447
42.6233
31.4621
83.1573
93.5346
58.5572
70.0352
88.0726
-58.9253
-125.106
-53.3583
-40.1753
-27.502
-24.0706
-48.1758
-61.888
-14.3689
-8.21721
-63.4483
-51.9331
-23.231
-10.8198
-5.0313
12.3744
12.6783
18.6387
15.6156
-7.9961
-33.1254
-21.4681
10.8919
11.6921
6.88643
11.6959
-10.0926
-17.0717
1.12844
34.1631
64.9466
52.5948
11.05
-86.5749
-110.187
2.77035
1.24309
-4.52226
80.3947
56.4983
21.6285
-1.36923
-41.9203
-43.0873
-16.762
-9.52111
9.173
28.5797
53.5725
49.279
18.8297
0.467704
-6.2705
34.3356
39.903
-18.5867
-11.4899
-13.3872
-78.225
-60.2996
-39.3319
35.711
141.71
144.525
-6.86331
-128.167
-118.813
-89.8789
29.3199
63.7388
-26.2541
-3.01888
11.7338
-3.03671
3.48587
1.71143
-11.1973
-9.38643
-4.33109
5.878
-9.71881
-36.5049
-45.8528
-33.5818
51.4104
111.348
71.596
48.1846
-30.2124
-81.292
-133.144
-83.1741
28.9195
74.7678
78.8008
14.1753
7.41203
8.55226
7.4833
9.85589
15.9233
-27.4718
-31.4545
32.9358
43.0261
1.28197
9.24668
6.44682
-33.6159
-32.8611
63.8109
54.4552
34.9878
3.12526
-22.8528
-37.4652
-75.9979
-19.7342
30.0981
23.2475
16.3959
-8.16408
-30.7069
-71.4862
-49.4454
2.82479
34.3692
33.534
2.76925
-41.9083
-16.7745
-15.1413
-51.1212
-47.3582
-30.7637
40.1998
93.6814
19.6672
-4.88017
29.6335
20.2948
0.991
-3.30252
14.1447
69.3355
81.9237
-25.9372
-69.9007
-72.0849
-35.942
14.7626
11.4739
0.948019
46.6713
55.5747
-6.76233
-6.46713
4.5159
6.33962
41.0197
51.7259
22.4323
-10.7111
-26.3963
-84.8444
-80.9435
-25.37
-17.8735
-28.0108
-1.65893
25.3307
40.2485
28.7346
-13.75
-17.7447
-7.95548
-1.77723
8.15962
-7.82818
-26.9223
-45.8052
-11.5175
7.19325
-6.85142
2.38818
7.02216
27.0871
52.7358
36.0302
17.2165
24.1719
14.1813
3.20036
8.52313
3.04329
19.2134
8.58093
-12.8184
-23.6598
-47.853
-37.4206
-3.48432
5.62862
0.865358
15.7264
-5.55798
-7.89071
-12.0755
2.4655
18.75
14.6165
19.0625
25.504
-32.6436
-69.4649
-50.8233
-16.3844
51.0567
117.048
87.1719
38.6696
-41.5905
-63.3983
-65.6772
-46.9664
-10.1956
6.16988
10.329
25.6118
11.2238
8.90819
-2.442
-18.2613
11.4151
31.04
24.5008
-9.88349
-85.8682
-113.849
-41.8387
41.1912
109.722
84.2609
2.87966
-13.501
-36.8836
-65.5911
-53.0261
-18.9996
48.6052
91.5162
43.5669
-11.5831
10.3932
34.8897
-8.5295
-7.06182
12.7909
-4.66427
-38.5046
-57.1517
-42.8178
5.99326
55.0595
47.7133
45.3121
50.0259
44.0091
11.1864
-32.7122
-86.7548
-67.6093
-45.3265
-47.3008
-63.2508
-33.8733
-0.294156
21.8221
27.4904
38.8582
48.1651
75.5668
11.4984
-14.0228
-19.4972
-16.0139
-7.46293
-9.87269
-14.4231
-5.2704
25.5598
53.1809
53.6372
20.8328
4.4716
18.7657
5.82496
-20.4713
-18.813
7.95762
-40.9588
-65.0693
-6.17316
-38.5091
-47.6017
18.5283
37.4058
20.0906
8.19391
-2.66097
-16.9981
-4.03173
19.8099
12.5115
19.1202
11.5603
6.36406
8.71065
-9.46113
-31.9241
-4.16492
-19.7729
-14.95
27.7813
25.9085
-4.93559
-8.19639
6.35636
29.334
-9.88814
-31.6635
-34.4795
-21.7559
14.5779
21.8009
12.2926
6.03343
25.1368
-7.20618
-42.3139
-22.0094
12.0657
13.907
-8.36289
-47.6198
-67.5107
-17.9447
49.6659
92.0457
146.875
74.742
-18.4505
-29.9374
-17.1625
-7.7642
-3.67984
-27.1061
-33.7552
-26.1473
-28.9412
-35.8197
-34.8974
-16.2958
25.3002
34.5108
35.1848
11.8947
-30.8729
-63.2422
-62.4291
-8.00242
34.7418
13.7534
15.2742
12.8549
6.28608
15.3234
14.513
26.699
36.7756
-0.363828
3.59368
4.42861
16.9519
33.0339
31.385
39.7474
-2.46892
-53.7197
-66.5759
-46.0373
-22.9846
-1.16692
4.59053
6.60757
31.253
17.7314
-12.3406
-19.6151
-35.5783
-16.0326
-12.2864
-7.73856
7.76553
40.9779
38.6831
-6.99417
-7.60613
2.29901
6.31757
14.2665
12.777
19.6623
25.7815
-10.0502
-47.0184
-33.9023
-10.8603
-2.16697
0.527143
9.66823
8.57645
16.9915
-6.47745
-18.6288
-13.3474
-7.28681
-6.72924
-3.26691
-2.9346
8.39971
-5.52454
-10.0096
-13.5206
6.02326
8.66328
2.30384
13.2266
38.1508
8.51042
-5.0409
5.26625
1.3893
9.52236
11.1833
5.88329
18.2535
24.292
1.01742
-14.2355
-32.0813
-23.3621
-16.1049
-10.9704
3.12586
27.1675
25.0707
7.11593
-5.65325
7.07033
4.85828
-15.3916
-23.424
1.01596
-5.09623
-11.5501
-4.68327
-3.22477
13.3286
15.099
10.0398
25.1261
-3.06136
-24.8278
-16.2914
-21.47
-14.0725
-10.899
-22.065
-7.59793
-21.7705
-25.3288
-7.45855
-4.06893
5.89578
14.7407
9.99581
15.2632
12.1159
-2.9984
9.2346
15.2146
27.1853
31.5913
24.7322
26.9285
27.4335
-1.21883
-1.80107
-0.0110305
18.6971
23.604
3.24283
-10.7248
0.851322
17.993
-33.4776
-57.8121
-50.7048
-39.0571
-32.9728
-24.9788
0.339254
22.5696
38.7408
9.5802
-14.5132
8.8604
6.80668
0.969296
1.14713
-2.83948
2.11344
-17.4904
-59.3725
-56.5895
-12.2815
24.4216
47.1081
56.2771
54.6472
17.7706
4.51058
6.95645
2.49973
9.19809
17.9042
24.7672
44.4025
4.76756
-38.4748
-32.1794
-33.0878
-13.2147
19.3034
15.5498
21.9843
10.0742
-30.5767
-36.187
-30.1048
-7.43326
-10.2007
-38.6261
-50.9934
-11.4506
0.721928
-29.6998
-32.3663
0.298237
50.4359
60.5662
60.1302
72.6282
62.9653
-2.19617
-3.11779
-5.32829
-22.1598
-37.7513
-34.9517
-9.22832
-4.09448
-21.1334
-26.3878
-26.5016
2.35001
20.9216
-5.38834
-1.08417
5.41348
-40.0895
-55.7468
-48.3758
-20.7413
34.4325
39.8269
50.6983
79.7038
97.1208
29.039
-12.762
-14.7749
2.55539
16.904
13.4737
-2.5675
19.6535
27.3368
4.1293
-13.0217
3.49431
8.58441
-5.87699
-23.5431
-26.6514
-24.6646
-40.5264
-61.2997
-72.9627
-70.7022
-70.1203
-39.8416
10.365
38.8807
-6.15175
-57.9284
-46.6242
-8.15427
45.4241
79.3873
77.2709
80.1536
63.5898
62.4047
71.0288
47.4834
2.73999
-6.88165
0.097767
42.8673
36.0929
12.635
-11.7435
-42.6165
-60.1723
-82.0876
-85.363
-46.007
-60.3728
-91.1175
-36.1597
12.3867
27.4965
36.4208
18.4424
3.22786
10.4701
2.83393
29.9054
50.4539
45.416
14.3499
-6.87832
-11.9835
41.4006
91.6348
31.3475
0.527203
28.7119
60.5787
44.9019
-4.42731
3.50529
-5.8594
-41.818
-100.403
-96.2407
-71.9304
-97.2364
-93.6085
-96.2343
-74.2021
1.1667
7.09658
-16.27
16.1537
79.6876
99.0834
121.496
122.392
91.621
30.3381
-43.6002
-107.921
-98.8837
-43.1964
-4.44227
35.3924
62.6043
63.7277
49.3611
33.3372
10.3862
26.5646
42.1718
44.5327
52.9252
11.9732
-101.128
-157.314
-128.423
-82.0485
-34.4179
25.2655
60.514
88.2617
75.1123
43.9218
-7.49565
-30.7628
45.5241
46.5298
21.3574
-10.1453
-88.7766
-161.327
-140.69
-91.5593
-24.8688
7.24281
-10.0275
35.0656
73.865
65.6197
37.6291
29.1046
16.0063
21.881
43.1862
51.9107
16.2383
33.9431
50.691
53.8689
81.5713
116.524
107.245
78.5758
33.7603
-19.6159
-46.9855
-157.304
-178.621
-97.3318
-25.7198
-54.7788
-71.1485
-62.0107
-62.9139
-133.545
-171.478
-145.28
-52.0847
37.3483
91.7624
136.985
47.5829
10.4039
48.0698
0.0341589
-7.91167
103.039
118.206
74.3778
90.6636
136.268
100.262
14.5671
-5.9959
23.7118
-27.964
-24.4035
1.04548
18.8711
-48.1731
-152.538
-79.7896
57.8743
106.265
113.209
42.8813
-52.1404
-94.5346
-82.302
-74.7513
-42.5436
-8.74139
15.8369
15.3994
20.9988
77.3386
100.305
59.4459
-44.0341
-78.0457
-43.628
-83.962
-328.387
-413.814
-229.296
-50.7116
130.692
197.508
176.157
120.101
60.1713
51.8469
5.61188
63.7357
93.4929
83.1118
95.8771
95.5851
93.1734
95.1952
12.6359
-17.6379
62.2012
131.2
111.343
-7.6706
-104.707
-110.323
-113.744
-100.982
-45.852
13.75
-10.1759
-100.53
-68.7785
-0.560554
-180.11
-400.747
-273.064
-14.4833
117.123
173.307
199.181
174.984
112.87
58.8449
-42.2586
-41.4003
-49.8143
-66.6075
-49.6788
35.7273
147.319
105.819
46.6671
56.6816
92.8571
130.263
92.2807
-9.12976
-29.8183
-7.71071
-54.9939
-99.5644
-63.8213
41.4165
81.2783
24.4433
-24.2355
-79.9426
-118.404
-115.213
-121.182
-30.7279
-16.1888
-158.99
-161.855
-13.5428
48.4968
51.5022
75.2473
61.9602
36.8075
-2.91822
4.23646
61.0559
45.8147
67.3754
98.5585
74.6619
76.1978
22.9028
12.9159
68.0755
72.6388
21.2277
40.6704
-28.3645
-128.285
-123.284
-150.718
-191.943
-67.599
122.994
75.4037
-31.9983
-52.9568
-119.787
-158.756
15.7425
70.0806
67.5833
25.4529
0.413016
73.3935
163.313
166.172
169.1
133.677
89.1728
57.5627
-18.9471
-95.4116
-123.318
-96.0237
-88.6631
-77.3738
-88.991
-40.2349
-15.3101
-27.3254
-31.9555
-11.5294
-50.6726
-81.644
-41.6218
44.4003
54.9872
-26.4431
-62.4407
9.81527
56.6065
2.38487
-46.967
41.9683
80.0465
47.057
66.4784
92.1428
49.4178
-36.5513
-99.0692
-38.3842
-126.012
-164.505
-3.93691
119.287
142.969
157.418
139.906
118.177
160.01
119.194
1.80711
-112.971
-144.715
-145.202
-83.0807
-97.7448
-156.981
-73.5792
14.4618
59.1638
119.895
113.852
40.7255
-83.4447
-123.769
-63.1225
-79.7274
-130.464
-107.273
-24.6264
39.7928
7.175
34.6585
129.776
173.291
138.441
63.1757
28.9114
55.6608
76.7312
80.5039
6.40995
-76.7218
-58.1663
-52.7537
-47.1677
-0.754223
-10.171
-31.6923
12.0666
-6.49392
0.69314
20.3846
23.2165
2.0986
0.503041
-18.3222
-87.3777
-82.8709
-96.7702
-97.5706
-15.2939
38.1481
60.6399
54.1659
-9.9072
-66.5003
15.8362
49.1218
-38.3542
-45.2328
-18.7553
-1.65914
6.63273
-8.50049
16.6282
57.19
25.1576
-5.10774
11.1294
62.2067
68.3524
46.1389
28.1298
-44.1006
-32.4286
2.8131
-9.6889
-29.4077
36.5374
82.4294
81.1851
52.8167
17.4531
-8.35259
-9.09323
25.594
78.8414
32.5136
-26.2523
-52.8763
-68.4487
-134.058
-158.489
-44.1943
-3.5538
12.4572
6.09121
-2.54465
2.59841
26.3906
18.4678
-2.03821
20.9992
38.7538
12.3699
-14.1039
15.8006
-13.4712
-70.3979
-78.7096
-86.0732
-24.6247
-18.0267
-39.8872
8.51979
84.44
78.6924
63.3175
62.49
59.524
38.5385
9.83019
-17.4054
-11.6256
4.41297
-17.041
-15.4602
-8.3213
30.6828
42.4609
57.825
52.8385
29.1826
46.4391
6.0547
-43.4507
-64.7088
-40.1532
-64.7974
-165.886
-195.87
-72.9378
-38.8409
-26.3436
5.71954
46.5441
109.252
162.281
152.905
124.222
118.534
66.2234
6.68367
-43.553
-56.5271
-68.9026
-64.1944
-79.023
-51.5046
-11.0466
19.1923
-41.889
-7.7937
-5.46881
-22.7652
5.28569
-19.8801
-86.8405
-95.8136
-45.9431
-29.6944
10.9097
54.665
66.4874
64.9061
26.3699
27.5927
28.9667
37.5411
72.1443
86.2215
52.37
20.9018
-0.723531
-17.7929
-50.2927
-46.6223
-28.588
2.12343
0.911128
-12.5521
-1.43364
26.9424
10.0636
-11.5346
-20.1845
-21.1889
7.56335
4.41757
-10.0551
3.97134
16.4137
-17.2384
-5.9161
-8.6213
4.82422
-8.63668
-37.4942
-81.8299
-39.9569
8.87297
-19.9281
-45.3058
-0.237589
35.9348
51.4542
60.8713
48.8571
44.9833
-19.6979
-65.1217
-66.5605
-24.1711
-8.06744
20.6701
54.272
82.0644
62.7747
26.7031
-16.8857
-34.8864
-29.5755
-50.4828
-79.7585
-66.3592
-26.4071
20.0379
42.5178
40.0337
71.4352
96.7527
87.8745
56.0169
23.374
12.3483
-23.8278
-85.8338
-77.2969
-43.8299
-33.1217
-22.4986
13.6749
49.7482
68.3375
24.5261
5.30774
-16.0518
-45.6146
-62.9735
-43.7244
-32.8214
-32.7966
-55.2262
-25.3989
-53.7749
-62.2379
0.870437
37.6104
65.7493
79.4547
38.0789
26.889
29.8113
18.8886
16.4448
10.7003
-1.85876
11.2286
34.7424
23.4116
-40.8161
-43.6767
-31.2721
-11.6801
9.11797
9.76129
24.6248
44.5482
58.03
27.4917
-29.895
-54.0168
-24.7058
-30.8785
-60.045
-49.126
-19.9298
28.7812
43.9725
53.522
77.8688
31.5283
-11.0964
-17.5089
-8.30347
19.696
19.8503
-40.3921
-63.3158
-49.6721
-26.843
-7.27461
30.9953
31.7256
21.8517
-1.16994
9.30736
7.05058
-24.0217
-34.5918
-30.562
-17.6186
-31.2066
-20.4879
8.4151
7.61328
-3.10572
-11.4808
-10.2393
13.0062
15.959
-18.4828
-12.5523
29.8772
83.1552
115.176
87.6463
63.8794
48.3906
44.5585
4.93061
-18.7274
-8.28692
-33.078
-62.5525
-86.4185
-120.789
-93.7854
-44.8452
-78.6627
-23.5472
34.5303
61.3406
73.3756
49.7804
-1.32104
-2.1999
-18.5291
-106.768
-89.4746
-23.3997
-9.48706
-7.27132
24.7924
68.954
55.1299
24.4758
63.6149
67.1352
80.4742
53.1382
36.6884
18.3496
-15.8454
-54.329
-61.8711
-57.69
-41.4532
9.03542
5.6126
-1.70183
0.297519
16.528
21.4777
12.6998
27.846
65.8401
49.1055
2.19886
-8.92784
-29.8634
-42.0131
-31.8086
-46.3686
-41.9089
-60.6703
-103.812
-86.108
-18.4222
30.3886
36.5075
42.2145
29.9233
-5.13314
-27.6804
-0.966211
37.387
66.1673
50.3859
45.5608
14.5296
5.43979
0.0573751
-7.42346
-5.16971
58.9327
62.5205
41.3328
23.3214
-0.728498
-1.29916
-16.5339
5.11273
16.2832
-1.74449
-52.9085
-82.6243
-100.514
-124.138
-124.577
-43.991
24.7151
71.3059
62.2318
6.48253
-35.9617
18.396
54.5417
46.529
6.85875
8.18504
-0.0295412
-10.774
-22.3912
-12.4025
-13.7951
20.7535
57.3487
77.0537
76.2935
37.6294
11.7036
-10.0028
-29.9933
3.16086
4.18634
-18.0087
-42.7788
-64.1563
-85.5206
-54.235
-15.5182
-10.0257
2.53298
23.1382
31.3592
8.59171
-20.3155
0.974037
20.9301
13.3267
-1.58611
-11.3751
13.2084
7.65602
1.9689
12.0914
-17.7267
8.73614
51.3792
55.1866
70.796
54.2999
54.4843
63.5571
34.8528
-16.0322
-34.4752
-52.1099
-93.9589
-102.139
-71.9562
-46.1645
-7.42639
-2.43525
4.29568
8.48415
43.3037
20.8892
-7.37348
-27.8917
-20.5084
-11.1577
-55.6387
-73.8697
-43.3933
-4.78589
-1.37169
0.607948
49.8145
87.9191
85.4248
57.8857
34.5646
45.4383
53.5023
32.5707
12.0727
1.92851
-14.6892
-64.7517
-100.012
-98.7491
-68.3579
-30.4961
-6.04163
1.56832
34.3039
68.4581
67.4531
59.7311
32.8557
25.6466
-4.98832
-104.765
-120.997
-6.93321
57.8333
64.0483
67.1199
77.1395
57.8256
5.77216
-13.5313
-14.7177
-9.4838
-9.3275
-5.26102
-5.45328
-9.35837
-20.4227
-31.4129
-67.6022
-59.8467
18.7397
7.94578
-43.7938
-62.8473
-50.2283
-33.1692
-20.3981
0.415613
13.9644
13.6752
9.92293
18.0212
24.4934
17.9623
23.5456
50.6082
26.264
7.43167
18.7381
27.2349
37.1921
37.3861
-5.16785
-24.5157
-35.9948
-24.096
-9.4352
-8.46891
-2.72541
19.7433
7.70839
14.2077
55.3553
11.2167
-28.2802
-25.2723
-13.5683
10.6121
26.7639
15.8925
13.6539
22.0267
5.67043
-25.4228
-19.3475
-9.22842
-34.5821
-49.0674
-12.5941
17.2269
45.4667
36.1878
-12.512
-21.4896
-21.2823
-44.2139
-21.1874
-16.9986
-18.936
-7.51245
-16.3795
-29.8475
-33.788
2.68187
42.5965
32.237
30.4898
60.499
38.284
-7.80809
-47.2294
-36.8859
2.99186
13.4995
-16.6837
-31.8771
-39.0711
-6.63021
11.1182
10.6223
41.2646
67.5818
55.3874
0.756194
-63.1578
-91.9385
-49.8133
26.7364
90.2204
114.199
110.251
92.7159
85.9471
67.9296
24.8138
-5.83479
-28.9435
-70.1119
-82.865
-90.9636
-95.7192
-68.7515
-66.7889
-47.6484
-26.8892
-13.4834
-22.0031
-50.0603
-52.9535
-22.8647
-27.8876
-23.7485
-44.3916
-27.4142
34.4005
64.9929
75.8241
82.9986
58.2026
22.3175
0.826192
-12.8996
31.8309
61.049
67.8468
66.9056
51.3195
44.4343
26.1732
-38.827
-61.271
-49.4898
-38.1982
-26.8799
-3.02859
12.9551
11.9363
9.31316
-6.57838
4.79071
11.456
-20.6762
-36.5042
-3.50526
30.5143
31.7467
31.9605
-16.1911
-48.563
-32.1535
-7.77141
-3.27699
-3.34745
0.878127
-8.6704
-48.7748
-54.8831
-56.2729
-54.734
-9.19188
22.9567
32.6516
38.8602
13.5665
3.14419
9.85776
7.9581
8.60594
8.45324
25.7169
29.6529
-9.19409
-4.5932
0.965637
3.57034
18.7321
22.394
33.4987
55.0968
-3.03476
-6.13382
25.1444
21.5635
6.16958
-12.1734
-1.12078
-8.82276
-32.622
-55.6491
-72.2202
-60.0219
-26.487
-18.961
1.18698
30.9719
43.8813
44.4272
-26.4529
-48.748
-12.3609
11.9859
2.26239
10.5064
46.4823
55.8688
20.4087
-11.0013
0.709227
9.35767
12.878
11.0004
13.6857
0.318195
5.6212
-4.008
-21.3541
-21.3932
6.54654
9.63407
10.5491
-6.49207
9.65969
2.68759
-20.1299
-20.1124
-16.1969
-9.83621
-9.54004
-9.16068
7.62994
21.1467
1.24143
-11.1265
-30.6781
-46.184
-43.7477
-25.8571
2.27813
28.1594
39.3126
29.0779
-23.501
-28.0771
-15.6276
-18.5491
-3.54165
11.96
17.0083
44.912
40.2643
29.4599
24.0002
16.5419
-4.97183
-16.4965
-5.0107
-2.56275
-34.0076
-20.452
9.33545
27.5879
41.6883
33.0168
19.2311
3.53023
-3.557
7.74821
2.70878
-16.2454
-21.1615
-14.6738
5.58949
-7.97194
-10.5335
-1.48853
-0.00918519
-7.78195
11.4395
8.10595
12.6982
-14.604
-40.9412
-26.3201
-25.1509
-24.6508
-9.72841
0.893908
4.73548
9.52017
13.7601
16.4587
-28.669
-69.0555
-47.6184
-9.57355
15.2654
19.9316
27.1353
28.1011
21.4414
6.75928
19.4973
16.1196
12.7476
9.52472
11.4518
27.2183
33.8446
7.56725
3.39782
1.91156
30.8096
45.1551
19.0815
-9.64976
-36.718
-33.0124
-6.419
-6.27865
-24.5872
-10.6262
4.38244
13.3367
-17.5573
-28.0472
-25.7311
-31.1703
-41.1769
-37.7296
-17.0334
-18.6035
4.4999
49.1346
23.343
15.8163
30.6316
33.8617
16.6681
-9.90517
-15.6655
4.34418
-16.9119
-30.6869
-2.43274
17.7852
18.1958
4.44949
0.0799941
24.2692
24.122
-12.0076
-21.5702
-15.9339
5.30611
10.2516
7.21758
14.5044
18.2771
-6.80989
-12.7658
-12.8677
-2.44793
-10.9698
3.60977
12.2084
-21.3609
-12.1579
-4.33646
-13.3883
-17.4666
8.30476
20.4488
41.3697
18.3288
-16.3555
-9.95858
-17.3443
-11.2634
14.9179
14.3512
0.792222
24.3092
33.2634
-9.9633
-20.6783
-7.30307
-25.2165
-26.7282
-5.58523
-5.73561
9.38269
7.53071
-27.5807
3.31466
23.1454
12.1466
2.4464
-2.52618
1.69865
1.15851
1.55216
-18.6827
-17.7499
3.08884
-0.0495437
7.18379
10.2173
14.2748
26.807
8.87585
-2.17144
-8.74965
-1.27201
-1.23506
1.1863
5.83288
23.8382
6.94077
-10.9959
-9.66505
-11.8649
-16.2046
-20.7624
-11.1419
0.0556429
-19.4064
-17.8857
5.83842
6.10185
10.2934
3.72068
1.81612
13.7536
14.4686
-3.86437
-4.29986
-10.6997
1.46775
12.9864
10.1918
5.31235
21.3415
28.0554
-7.19716
-15.8974
6.78837
4.78285
-16.0476
-25.9493
-0.823481
10.1198
-12.0114
-11.4181
-13.5929
9.57032
13.7879
-7.22411
-4.4709
2.54412
-26.4135
-35.6331
-32.4328
-7.79191
34.5834
30.3682
19.6837
34.6168
53.9611
3.57277
-18.2884
-16.3842
-10.9057
-12.2939
-9.90996
-1.81998
-1.03263
-10.8521
-4.16182
9.06297
39.6058
50.0342
46.7844
35.8215
6.98155
-21.4835
-96.7731
-104.708
-67.2734
1.83736
7.72859
-22.305
9.14027
79.5153
89.1401
39.0385
19.7319
24.3815
-5.3623
-43.908
-62.7244
-39.8103
-11.4708
-30.1728
-2.84735
32.2239
76.5098
61.4701
13.0555
-7.35378
-16.001
-44.7688
-48.075
-69.7565
-64.178
-41.8612
-35.4977
-5.48
34.4763
43.2736
37.0573
22.6644
-11.8651
-15.8167
-5.47282
10.6056
39.2783
19.6062
8.89053
6.43705
22.6956
65.7358
69.492
45.4462
50.4897
63.451
21.4472
-35.2446
-46.5976
-31.7262
-18.9965
-16.6409
-8.27775
5.9438
-40.6545
-52.7577
-53.8415
-28.3734
-24.9994
-28.1982
-34.5175
-14.4626
0.821173
-5.13256
-29.6402
-20.5655
6.46599
25.8268
3.64826
0.979649
26.2364
26.7333
2.41051
-1.75724
11.1006
3.44325
3.04866
7.55069
39.5
38.4545
7.87606
4.40202
-7.7669
-15.0921
-9.61924
-5.67085
20.7398
10.4986
-1.53838
6.40863
8.33506
14.217
25.4914
22.2676
36.2954
38.5208
48.6561
35.9617
-4.62905
-31.1542
-35.9363
-51.093
-73.5347
-60.5417
-52.0855
-71.2535
-62.922
-43.5714
-19.2823
6.22642
25.3076
42.0945
54.4356
28.4188
30.5865
23.4468
7.97097
7.48276
7.18116
24.94
44.427
24.2904
15.5464
-7.25776
-9.40318
-0.0775934
0.742945
34.9579
48.8962
1.45197
-35.8165
-48.2469
-43.0374
-29.382
-31.9772
-38.4464
-20.6467
-18.6272
-35.1985
-15.4116
3.87068
26.548
33.595
33.6662
27.2354
41.1747
36.4587
-12.5044
-22.4491
-2.3502
2.21706
-5.49787
-15.1427
-15.5385
14.8659
-3.98845
-9.51294
-3.26996
17.7995
13.8166
3.91163
4.53481
7.19227
15.8649
28.661
-7.46217
-14.2651
1.41442
-4.06319
-1.24311
-0.44131
5.46672
-7.70865
-10.6888
-21.3187
-12.5468
-0.298208
11.8517
17.3466
29.325
7.05309
-37.518
-32.632
-25.8867
-21.3804
-2.13821
-2.82143
13.5188
22.1206
-6.14074
-4.8572
-12.4841
-5.02996
3.90458
-7.95353
-0.974013
14.0717
44.0595
6.68371
-16.089
-5.52072
17.6548
6.00439
-6.91705
-10.8247
15.2768
-0.79891
-47.1778
-32.0418
17.6763
36.5716
30.2203
28.4501
35.3174
12.9164
-8.10664
-4.00742
-11.197
-1.73121
-11.9927
-15.9034
19.0325
12.1461
-4.33137
2.40312
-8.54045
-19.107
-9.04927
-1.36021
2.61524
-3.52632
10.0981
-4.07951
-39.1237
-34.9402
-6.25232
-8.69957
-19.3817
-3.66707
6.66408
38.0373
33.8198
-1.42891
-19.1767
-16.6361
-11.2023
8.17158
22.5021
9.55746
6.14124
21.4824
-12.2184
-38.7894
-24.3233
-19.1263
2.62154
22.6154
23.717
34.861
26.4219
-2.89039
-0.972786
10.1888
11.1961
-6.96946
-12.2286
8.65529
15.3363
-1.88335
-13.5339
-40.2323
-28.4224
10.1449
28.9189
49.4081
21.9886
-21.1131
-26.9077
-31.7875
-23.2624
-6.97879
-7.70907
21.1588
32.65
11.9934
12.7494
-1.78942
-1.12067
2.26611
-3.4085
2.37742
25.1633
-1.99265
-39.4836
-36.3072
-21.481
-3.74301
-0.653954
3.11535
-1.07037
0.347339
-11.7135
-40.8337
-31.7577
-4.85008
27.4396
46.4219
46.8541
39.4495
40.0304
-7.49709
-43.2042
-13.7749
12.371
3.55457
2.17318
-13.7844
-27.7202
-14.7171
-10.582
-23.1082
-9.80227
2.03131
2.37724
15.4856
8.4372
12.871
8.28007
-4.50963
-3.10899
10.1556
17.3677
26.5005
46.7292
62.0514
22.803
11.4674
7.00463
-13.1608
-30.258
-24.4947
-14.3724
24.1566
19.3019
-29.8801
-50.6252
-54.8587
-45.792
-31.3468
-27.0219
-16.3957
10.1754
32.5898
-10.5997
-25.227
-4.14395
2.75647
3.09112
13.7691
36.3223
34.9167
10.8762
6.68479
11.8565
20.3982
8.44463
3.92885
20.9237
26.4844
-19.418
-18.2129
-21.5092
-35.5956
-14.8844
-14.6195
8.87655
21.0015
3.4179
-1.01955
-3.74814
0.588167
6.91165
1.05538
11.9409
17.6823
-10.7041
-15.0464
-11.9584
-4.01439
19.7571
25.4735
29.1996
34.3641
12.0899
-41.878
-41.4203
-27.2988
-1.50306
-2.20168
-9.86525
-6.08796
15.7327
26.8417
-17.4319
-27.0815
4.29383
0.584037
-8.2851
-10.9635
3.00224
10.0277
10.297
-9.51505
-23.3852
-26.4827
-8.07642
16.2564
29.8581
34.4377
52.0471
75.9659
48.048
1.60971
4.42572
5.43322
-5.59824
-28.9146
-41.6704
-45.5252
-91.0458
-80.7294
-55.2428
-24.8348
20.2732
61.6299
60.723
35.3737
9.78605
5.99341
-8.38903
-32.9122
-37.8609
-6.26925
15.106
46.2003
83.0739
13.0653
-47.0808
-27.1217
16.5512
12.7163
-13.6376
-23.0138
-7.2475
26.7686
-6.95669
-25.6431
0.541864
2.72453
18.1573
39.6572
15.3562
-29.062
-43.0333
-24.889
-5.87829
59.0838
67.6237
37.4827
41.0729
35.4581
-20.3925
-39.1837
-35.9803
-35.2709
-25.4428
-20.6221
-14.4169
-7.59559
-20.3388
-88.3802
-82.8997
-54.9901
-24.7677
-1.09046
-4.30205
8.46764
69.5335
80.9561
42.5737
40.9487
64.4463
56.9907
28.1212
-6.08264
-12.2782
16.1289
6.02684
-21.0077
-21.5699
5.45432
40.0657
45.3234
41.6754
26.9801
2.2407
-40.8383
-58.9297
-59.6917
-32.967
-27.784
-22.3983
-35.8277
-76.1399
-113.173
-61.4223
-0.526572
48.0817
89.2778
121.508
151.324
72.7658
2.26495
-14.4581
-32.6628
-42.3734
-24.3364
-19.8478
-24.5548
-37.3698
-39.7946
-34.8185
-20.0226
23.4252
65.0869
54.2594
0.564496
-48.9105
-53.6957
-63.0553
-62.8695
-20.6447
20.2496
28.2517
33.3241
42.4864
19.2605
10.9502
13.8862
28.1424
26.8092
30.4912
36.2176
59.7602
52.329
17.7078
1.19762
-8.05496
-20.1118
-48.732
-75.6589
-47.7965
-10.9897
-42.2972
-58.6757
-43.9765
10.4855
36.5451
39.3645
34.4216
37.4272
70.5236
37.7147
-19.3007
-28.3396
-17.7516
-18.3381
-13.1609
-12.5583
3.80636
8.35622
-20.6336
-28.3447
1.67101
7.5568
-3.87101
1.67641
9.18338
30.4938
-11.6103
-32.7949
-43.3378
-26.9862
-8.19529
-1.90775
-1.00174
11.0246
32.11
44.6192
-10.9032
-19.1338
-1.6996
8.09982
14.6117
11.9049
10.5026
16.5153
2.47676
-44.4307
-2.97085
11.5051
2.95157
15.5118
29.7955
44.8918
36.3337
-9.80077
-30.6686
-35.6348
-6.59336
5.74112
18.3416
34.2185
26.4628
-6.6046
-10.3793
-11.5369
-28.8023
-33.4836
-23.5436
4.64204
0.698328
-30.1151
-43.1611
-30.1245
-9.24171
9.95589
18.6286
28.6183
51.7078
26.9743
6.83439
-15.5694
-16.7321
-1.92238
-13.3104
-23.3519
-10.4395
13.777
-6.69614
-24.5305
-17.2071
8.21943
28.5631
22.826
10.5428
6.8562
14.7962
0.484406
-43.2309
-18.5122
5.50046
19.3519
27.0657
32.4494
36.4907
30.0857
-18.2388
-32.5472
-25.5186
-37.1798
-31.6779
-11.5554
15.519
23.3788
43.0753
57.6266
33.0595
5.71705
-6.35056
-11.5862
6.84518
-8.41194
-50.8419
-41.399
-31.9882
-20.4975
-1.65067
1.34156
26.2317
31.2728
14.3571
18.8453
10.9982
-1.43228
-25.9505
-46.1765
-49.66
-30.7519
10.3068
-11.6023
-15.957
-15.4989
10.365
22.9326
24.9175
29.3775
55.4009
29.229
-4.1615
-0.237499
4.59728
-1.75132
-11.8856
-14.8426
-5.38142
-16.7748
-15.078
-11.168
-9.1858
6.99158
-1.07554
8.721
27.2922
4.62414
3.23769
0.580395
-6.83623
9.21891
29.1958
33.9433
48.3377
8.22089
-38.851
-43.2533
-34.9858
-12.0244
-11.6613
-27.0885
-27.3367
1.55114
12.1192
-24.5122
-19.0066
-3.54068
-9.25913
-7.35376
10.2522
26.5796
44.9505
59.1154
-19.0021
-17.1584
23.266
32.7731
27.3495
26.7702
23.4785
34.6536
19.2956
-11.3781
-16.8616
11.12
16.1522
-3.64253
-27.3819
-22.7647
-50.0771
-58.2399
-65.772
-72.7007
-29.2116
-10.1095
1.49497
15.6023
-8.72819
0.990436
17.338
11.7135
13.8392
27.482
23.2899
16.332
-5.1678
-1.44308
-27.6131
-59.4954
-22.41
27.5178
63.941
80.4636
53.5184
49.5041
45.0702
25.5188
12.3498
-5.73306
-30.0839
-33.2587
-3.19129
-5.18659
-34.1517
-31.6992
-27.8677
-13.3822
14.6987
19.7055
21.8877
-1.02687
-62.9014
-75.3142
-28.1005
-10.0228
-0.118971
0.508254
18.6373
34.1119
19.6724
-15.5264
-19.7226
-11.7889
3.86098
14.6991
23.2063
14.7846
33.8849
50.2438
2.93564
-3.8391
12.7177
7.70987
2.42707
-11.7482
-25.1827
-43.629
-59.8183
-46.0449
-20.1192
12.4837
13.1654
14.5509
31.7675
33.7442
11.3398
13.2242
13.9287
12.062
19.9222
10.7337
8.61697
2.26322
25.2551
10.5794
-28.3857
-18.8589
7.76086
-0.104184
-21.4977
-26.7417
-9.29057
-12.0539
-30.4584
-7.26668
29.972
32.3414
-19.1156
-32.003
-3.44774
-17.6185
-35.5029
-20.124
-6.2043
19.0317
42.7619
38.3858
42.2141
9.30351
-5.26616
-0.149072
-14.9067
-4.31674
5.36347
-17.2363
-16.5081
-22.1875
-11.9909
5.80324
6.29242
15.6055
21.9349
13.4678
16.7926
23.5269
1.69667
-23.9354
-29.9008
-17.2668
8.71948
10.0537
4.60131
6.35858
25.7963
11.4763
-11.4749
-4.3827
15.735
4.73175
-14.1298
-14.1015
-1.41844
9.88822
-17.2696
-38.0033
-26.7341
-7.70706
-9.1213
-5.18558
7.84716
25.2586
33.6863
-7.91427
-27.0716
-30.6538
-29.0712
-18.968
-2.79746
14.8504
32.3125
18.15
18.822
7.99741
-0.850606
6.90249
17.0245
30.4067
22.0177
-0.522489
3.20324
-1.98221
-10.3306
4.28574
7.90817
37.3406
8.30041
-12.2517
-8.67235
-6.37733
-6.71738
7.53067
8.43714
-2.9889
2.53947
-16.985
-36.3657
-37.0334
-47.7688
-40.4679
-35.9483
-14.4488
17.181
16.7657
11.3
15.8501
29.9726
12.656
4.81958
20.9187
33.8289
-3.79703
-23.6846
-25.4025
-13.8701
1.81743
16.0338
21.743
50.6435
26.6406
18.4769
5.6826
-18.4513
-10.1477
-11.7429
-13.2388
31.1948
19.0434
8.13571
-57.6768
-64.0452
-18.5047
1.7423
11.2118
9.5661
18.5087
37.0444
-33.3595
-47.2654
-4.3316
12.5745
9.36889
4.34511
6.57003
0.383387
-6.10508
-13.9493
-16.3503
-5.01905
17.2597
10.2194
13.4284
13.3774
2.90551
-4.06017
-0.0465498
-20.7879
23.458
32.9091
26.4852
11.2976
4.17107
10.1322
10.4252
-26.6662
-42.0569
-36.8146
1.70342
15.8504
29.8756
26.3475
3.76553
-33.4022
-28.7235
-27.2747
-26.2141
-13.8256
-2.70011
5.30436
15.6121
7.93719
10.7719
1.59071
-3.57569
18.7855
17.9303
17.0347
39.6833
11.7557
-31.8819
-19.3367
-0.245434
5.65318
-21.3331
-23.4584
-7.89321
11.1865
-10.3032
-27.1488
-27.3483
-2.32051
9.42027
9.91081
24.0596
38.08
13.2972
-1.57696
-8.89783
1.58688
17.5343
-10.5505
-13.0447
6.65717
-0.151037
-5.40535
-10.8761
5.16684
43.4498
52.1258
35.1801
-0.546323
-18.8375
-17.7566
-42.9373
-40.4554
-25.9413
-28.613
-16.2
-5.7988
11.6589
14.6928
-12.5563
-2.61524
13.5561
19.7132
17.0427
12.619
25.1594
29.2129
10.7746
-3.64134
-47.1123
-55.3988
-41.7283
-32.7015
-25.3804
-8.76432
23.7557
16.5548
12.694
16.9888
30.4508
21.2263
29.1762
41.3128
51.865
12.1011
-9.81965
-21.7037
-8.88475
3.27797
23.9542
29.1535
16.0687
-11.8356
1.94676
0.882374
-28.8657
-27.5292
-22.5692
-21.9157
-1.19409
-9.25916
-9.01098
-22.785
-42.4042
-36.5784
-30.1785
-12.9012
11.5042
-7.42953
6.50188
5.54628
11.9047
30.044
30.2084
26.3518
32.9286
43.3214
-2.70774
-9.94313
-15.3188
-7.58872
-7.89853
-11.8554
-14.6325
8.15171
22.7776
-24.6296
-45.6576
-23.7333
-10.2761
4.98604
22.1273
24.6125
18.6523
-1.65188
-37.5197
-20.7465
28.591
41.6168
41.5702
47.9905
60.3351
49.9873
-29.1665
-53.4959
-58.1996
-38.5142
-19.8782
-3.79073
7.97288
-1.09303
-11.2049
8.09323
8.9579
8.8405
22.6787
11.266
20.3601
17.8364
-36.523
-40.0927
-41.1495
-28.7126
9.30004
2.30568
-2.37923
15.212
8.87675
1.64561
-22.0407
-12.5466
2.24593
-0.756326
-9.65809
3.49346
25.6088
-3.36975
-8.97403
-0.183622
25.014
3.87758
-23.1006
-12.0489
35.1793
33.065
15.9359
-2.06733
-3.17507
0.53038
9.6443
24.9557
37.4826
-6.8373
-6.21481
-1.00778
-20.8627
-14.3998
-3.80165
-8.25887
10.2211
-5.4578
-8.59624
-1.51327
0.486669
6.28836
0.300508
-4.21358
15.3882
3.9427
-34.0433
-48.686
-42.3873
-0.968247
10.6515
1.64428
-2.54952
11.4708
-16.3686
-22.8056
-11.8986
13.286
20.2216
3.04005
-4.59488
2.86453
28.0908
26.6428
-1.62751
8.75262
34.3618
30.6757
13.1731
9.48283
20.8198
11.848
-15.9395
-12.803
-0.653991
-3.72407
-10.2251
-7.14056
16.0095
1.09033
-53.7888
-46.5229
-29.8025
3.82615
20.4514
19.6527
33.2579
13.6895
-7.27412
-8.22174
-19.4055
-22.6805
-7.24757
-6.38859
7.62139
-15.4323
-27.2819
-24.9552
-32.6692
-18.4996
24.2601
36.7128
45.92
38.1825
16.1045
-5.2654
-7.62522
0.439005
5.95696
5.30496
2.17651
8.18542
13.2939
-15.28
-23.549
-14.3206
-5.32724
15.2356
32.2888
44.0219
46.9994
10.0652
-23.5057
-37.8988
-31.8327
-15.5771
-21.2122
-10.713
5.86146
-15.4199
-22.8864
-11.5052
-5.31568
-2.08365
-6.68307
5.1067
22.1617
30.8836
25.1115
-4.82969
0.852106
9.47743
7.19003
5.8714
5.21588
22.928
26.2259
-8.28553
-34.7528
-38.4384
-35.4071
-28.6228
-14.6202
5.08456
30.5942
49.9661
-9.81241
-19.6735
-10.1993
1.8492
5.05545
13.5683
13.548
9.3713
-18.6015
-31.9272
-26.2205
-7.14452
14.0083
36.7576
45.7947
41.493
12.7188
10.132
-7.63104
-23.7534
-10.6877
-21.4033
-15.303
-5.6351
-17.8361
-14.3052
-13.4597
-13.5151
5.549
11.6314
15.9557
14.6394
-16.5702
-8.43649
-7.9987
-10.9932
1.16995
3.9058
23.8524
28.5211
18.4169
17.729
4.42203
-1.00061
-9.01132
-19.8216
-5.55722
-13.8244
-14.4287
-11.4052
-3.60819
-3.69122
8.16822
-0.566801
-16.7219
-18.6781
14.4224
22.1645
-14.5448
-7.37879
18.0239
8.14196
-0.980852
3.2505
14.4643
40.9311
33.9177
11.2864
13.831
6.69628
-0.834291
-4.13048
-5.24925
2.46986
24.4643
-23.2305
-35.8459
-30.6087
-24.2253
-32.0044
-19.9105
-1.71851
-5.89218
-34.4142
-18.2713
-5.86142
-3.96181
7.2365
8.41795
13.4592
20.6992
11.6904
8.70423
-0.72254
-15.4254
9.89114
17.7733
15.8885
22.2061
39.9425
28.7358
-15.9718
-12.316
10.3213
5.69443
-11.1548
-18.6903
0.163808
14.1496
-10.4038
-18.1948
-10.9377
5.13778
11.323
10.424
23.5248
4.08991
-18.7084
-11.993
-21.8917
-15.9531
0.270436
0.271388
15.5751
5.68627
-31.8274
-31.2394
-23.007
-18.1494
-2.59837
6.91874
40.3684
36.746
-3.02695
-13.712
-13.2016
-14.1141
-8.42347
-5.11565
5.46008
25.9161
29.4456
9.84357
-14.1861
-14.2112
11.6733
22.08
21.3527
15.5314
21.2342
16.9098
-15.2068
-13.1127
1.90043
7.3729
6.04612
1.81465
17.0672
22.9071
-31.9995
-35.5406
-18.2964
-8.59912
-9.39718
-18.7093
-18.2713
-6.32902
-3.74937
-6.7098
0.769742
-1.58435
3.56725
10.1132
19.5508
28.5266
11.9048
-36.3186
-42.6636
-39.1325
-2.78448
3.40146
3.8305
20.8222
21.5285
16.9227
14.6739
0.980709
4.20704
3.78149
-7.22868
2.41012
-3.38368
-20.6728
-18.2146
-16.4549
-5.30064
26.1807
23.3334
18.873
37.9664
54.0808
40.6068
-14.9424
-14.9539
-2.41504
-0.312663
-8.61631
-18.4156
-8.0955
-23.3707
-38.2431
-19.7901
-7.9113
-3.54288
-0.333998
7.62414
28.7906
6.57913
-7.26012
-21.9411
-32.8072
-21.3931
1.06995
17.2516
33.8285
37.1192
0.864326
-6.39263
-5.26632
-2.67592
-4.15524
-5.7715
-0.802334
14.769
-12.6708
-31.8102
-18.6414
1.50546
9.53466
13.836
12.031
26.5932
11.7487
-7.14141
-12.7852
-15.6764
-4.17756
-1.73379
-1.36355
20.4762
20.793
-20.3329
-12.8318
-1.0658
19.3388
32.6209
17.1947
3.87115
18.022
-18.3487
-29.6313
-27.3625
-10.2953
-11.3054
-12.7631
-10.2272
12.8613
1.57271
-4.13392
8.1632
16.1129
36.0448
28.1169
19.8427
9.21257
-22.0187
-33.8414
-23.5903
-26.0465
-3.95756
-7.68961
-11.9777
26.1816
5.93243
1.08401
-2.18226
-6.61113
7.29668
11.2611
18.8718
25.0005
-8.00377
-26.57
-25.1673
-12.8034
6.18657
4.68138
3.47325
14.7596
46.5815
27.6419
-24.1478
-64.9789
-31.7591
-9.83003
6.56086
1.06703
6.67092
27.4398
13.5346
-30.8275
-12.415
-2.21179
-0.518288
-1.29299
5.36218
17.3492
40.9861
32.2033
-21.5348
-12.6823
2.28665
4.85148
9.55841
12.856
16.5142
27.3588
-14.2673
-27.7272
-25.4714
-4.55266
6.26785
4.7165
1.4989
-3.47174
-5.20553
-4.65009
-17.2696
-27.932
-15.1648
-5.41931
24.6113
22.8121
6.28887
-5.1649
-14.1046
-12.5212
17.2962
18.1913
22.4752
19.5726
6.99072
-8.87704
-30.779
-24.8863
-17.8028
-11.8554
-11.007
1.19629
16.9387
1.28697
2.46049
10.6809
19.7353
13.9289
-9.67489
-19.8864
-1.59911
-8.72224
-1.21482
3.34536
12.1731
19.9317
20.6155
31.8714
27.1322
-3.72263
-14.1226
-26.4985
-23.7232
-8.42323
-7.73641
7.70795
1.73003
-23.8667
-9.30403
-3.12401
-1.25249
-3.97981
-20.9721
-7.83839
19.7126
-2.95424
-19.2098
-18.5493
-14.6308
-2.9028
6.8408
10.5759
33.7123
55.8276
35.4436
-8.96357
-7.73112
6.72261
8.59347
7.59323
4.6601
1.37632
1.28853
-22.0034
-37.0774
-6.26607
18.0978
18.5194
16.6818
14.9272
11.5486
7.97848
-19.2728
-26.9963
-21.048
-2.15195
2.12945
2.08445
2.38807
12.6526
-21.0065
-15.5272
-20.1304
-7.32932
-4.90477
-2.14751
3.95112
-2.81789
-11.9715
4.0981
5.73765
5.80197
6.41794
-0.832501
6.7464
9.80313
-27.9459
-20.042
-3.26851
2.90727
22.8675
19.5777
9.04281
9.79883
4.89709
-2.6786
-26.2121
-33.3492
3.00768
29.3049
36.4185
27.5767
19.0506
25.7838
-6.95804
-18.1925
0.398472
3.35078
-5.17855
-17.5427
-11.9825
-1.30093
-15.6434
-14.6165
-5.76152
-0.373858
5.62873
13.242
14.7989
24.3246
-7.37105
-13.0635
-30.3805
-41.0476
-20.1595
-1.43493
7.35958
3.24631
-5.92823
-2.30295
-8.28043
-15.2627
7.89625
6.39462
4.89303
14.1062
16.7434
27.7917
20.6887
-12.8891
-0.646695
3.80309
20.7113
13.6652
9.76698
12.1943
30.79
17.06
-6.90551
-10.8742
2.82741
6.93646
-7.14811
-13.6922
3.19602
-9.54163
-18.3298
-27.0994
-31.0402
-28.839
-21.6434
-20.3676
-2.52376
2.42367
-13.7492
-12.6072
-9.64554
1.0085
16.1654
9.62763
18.4185
8.2
-2.6195
13.842
17.1579
20.3814
28.0902
27.4652
32.5196
4.83652
-13.5878
-16.4494
-20.909
-20.2914
-9.65313
-12.5281
1.18314
15.2685
-3.23672
3.45648
8.51681
3.11705
3.30055
-5.08945
-13.7281
6.67888
18.9519
-11.8549
-24.422
-4.27156
-1.11773
-1.30489
4.47233
18.7165
57.1159
27.882
-15.4221
-43.2398
-27.6637
-14.1779
-19.9691
-27.4511
-27.18
-23.1372
11.1437
4.59628
4.76104
26.5361
18.7163
9.52787
7.3075
9.01545
28.6767
7.40846
-11.2594
2.453
8.26859
17.3587
22.1819
23.6474
28.2571
-3.9753
-22.0059
-17.0848
-29.7528
-27.0152
-22.1625
-8.69877
6.44489
33.9263
4.75505
-8.11877
-16.6271
-20.7546
-34.5941
-23.5347
-5.35625
11.5941
27.4104
-4.41795
-29.9734
1.14221
25.6127
21.0884
6.38164
16.8046
32.5598
-11.4158
-35.1556
-27.3034
7.85358
14.0408
-2.8025
4.48894
25.7357
13.9274
4.41515
-0.556911
-11.1675
-1.92356
5.27748
13.8786
21.9258
4.41526
-5.39856
-11.0827
-19.3033
1.63847
-2.60982
-14.3727
14.5943
13.2202
-14.1006
-12.7979
-13.6431
1.37936
3.15374
0.867016
-1.5368
13.2809
19.7407
-15.8491
-10.1465
5.62085
7.44956
5.52239
-2.10659
1.64071
6.16383
2.68524
-22.2619
-21.4001
-16.2968
-11.8169
-10.3703
-4.39664
1.01486
29.3945
4.13875
-23.4089
-28.4833
-4.13031
-3.26226
7.29485
26.8918
45.3759
25.699
4.51221
-0.0549701
0.197405
6.07937
4.66652
12.3039
24.5403
-1.97191
-14.2704
-12.1687
-22.5783
-1.32986
11.8925
17.1798
32.1778
-3.10756
-24.7777
-35.0385
-36.7987
-18.6291
-6.95724
-23.1264
-26.3948
3.05297
-7.12797
1.13374
2.43276
17.0065
23.0902
19.73
8.53923
9.12346
19.9032
8.07671
-7.50046
13.0128
29.2135
22.4934
-3.35065
-10.1026
10.2003
24.2528
-4.53077
-21.6711
-12.7116
-16.2609
-22.918
-9.8434
13.1518
-7.78999
-30.4898
-6.97996
-4.72786
-2.84887
2.78009
10.54
30.5727
36.8509
-5.9128
-30.4452
-26.3662
-18.7915
-2.68071
-1.45446
6.95202
11.407
18.5807
-1.59497
-23.991
-8.70217
-1.02978
-2.96247
-5.40345
1.83814
25.6879
51.5453
-7.36547
-57.7127
-26.8759
-10.6105
-20.4473
-14.9858
7.85054
21.2311
42.0486
33.5637
9.13216
17.1928
15.2314
18.8328
23.2897
12.3081
17.7115
8.99887
-29.0945
-44.1673
-20.6092
2.83132
12.4199
24.2885
39.1294
19.5398
7.40878
-7.29784
-29.3465
-29.4336
-30.2288
-25.5401
-12.4324
-33.6408
-27.9386
-28.1072
-27.8326
-12.3157
9.26319
14.7329
42.5278
31.7149
4.6344
-28.3063
-26.077
3.75964
10.1179
2.85931
-1.55269
14.224
39.1024
19.2138
-8.95378
9.01439
15.691
24.9062
14.6115
0.81545
0.214657
-2.20636
-32.6254
-37.0753
-37.5244
-21.8987
-6.95297
12.4091
30.1655
47.1474
22.1843
0.0745473
-8.95149
5.23795
18.4208
14.421
6.43111
10.071
20.2744
-10.902
-33.3458
-35.2726
-21.5306
0.296199
19.5773
31.6816
22.445
-15.3285
-32.9053
-38.9522
-17.8717
-7.66873
-9.36238
3.25522
31.1158
25.4935
-46.3327
-42.2348
-25.0147
4.17978
16.6679
6.55385
13.8562
23.2454
40.6145
19.447
-22.1066
-7.50252
-5.33122
-8.25549
2.01603
12.2604
23.3799
7.26112
-17.8701
-10.5428
23.7259
11.5445
-7.22631
-2.21804
18.3067
0.364474
-11.0641
-14.0964
-14.5085
3.28062
5.09968
0.205252
19.7012
-18.5972
-30.7819
-29.4493
-33.6266
-18.042
11.5459
33.8567
69.2599
36.3324
11.1081
4.73661
-12.4144
-8.65739
-5.05044
-6.65309
-0.167869
-6.68187
4.70843
6.83512
-7.21165
6.43405
8.19328
9.17175
32.2986
-0.97286
-38.7212
-49.8588
-44.6402
-24.4181
-12.4041
-5.66123
0.501539
10.829
26.4965
38.017
9.85419
7.57992
-1.03864
-10.0608
-18.6924
-7.58428
2.16905
12.0365
-35.0232
-15.4953
4.04373
2.7822
4.91604
9.99923
26.4766
30.5422
13.6161
1.63595
-1.40913
0.0642579
8.52728
8.78932
23.8876
32.1779
-7.32531
-4.32352
-3.42457
-9.71862
-1.60563
3.30678
-4.9089
-0.955325
13.25
-14.113
-42.8707
-30.4382
-7.46722
2.34416
-9.49183
-20.2224
-14.6743
1.4966
-5.64952
-21.2595
-16.8195
-13.8105
7.8144
13.5362
11.5266
21.5982
21.8118
-5.90227
-11.1952
16.8569
30.9546
33.0068
30.7254
25.4377
0.293319
-38.9621
-29.3453
-24.2969
-14.2496
-3.01381
15.6872
36.4247
32.4238
-6.02508
-11.0885
-4.14835
0.560797
1.82606
-5.84787
22.6504
37.2969
-2.62431
-36.3907
-40.8203
-29.2151
1.53025
4.70006
5.59059
5.67359
6.79181
-6.22482
-9.01657
-14.5476
-2.66416
1.3181
-4.29469
-6.10132
21.7285
29.8143
-30.6727
-50.3037
-29.634
-10.0883
-2.99739
1.97229
10.9807
18.821
42.4269
40.4543
3.31954
16.9197
10.2528
2.66257
7.95679
7.53409
11.4024
11.225
-23.5896
-30.1387
-12.3397
-3.85537
1.99073
11.3951
23.2787
12.1799
-3.85687
-9.93053
-20.3645
-11.6863
13.3164
20.5387
12.8167
-33.8821
-31.5155
-20.0597
-22.702
-18.86
-4.23743
-16.7499
4.23914
20.1001
-23.2456
-20.5984
-13.3788
13.7463
38.4925
35.3543
18.5053
31.0104
30.1979
-2.52706
-7.08588
5.80543
4.9513
3.91528
1.13558
10.3893
16.3391
-4.94268
-11.1846
-21.6572
-4.76624
0.717767
4.75176
4.22969
0.63803
-39.8942
-39.3109
-37.9988
-25.3426
-0.791216
12.2293
37.0983
36.1894
39.1158
22.8714
-16.7336
-25.1991
-23.628
-25.0725
-17.604
15.0785
43.6075
52.5265
9.03152
-12.8452
-2.55259
-11.4926
-20.3634
-17.0546
-22.0361
-28.7711
-9.06388
8.33257
-20.1912
-9.5403
13.5857
19.0082
35.0343
39.7055
27.225
16.1196
-21.2681
-50.7834
-12.3979
8.4766
15.4908
12.7085
8.36748
30.9234
44.374
-6.6211
-36.0887
-36.0555
-35.707
-40.6011
-23.8508
8.91857
27.3879
12.9406
19.842
23.2283
25.4966
18.4882
-0.963075
-5.46397
-13.5938
-42.3126
-39.339
-33.0794
-21.466
11.1466
22.1734
29.4167
46.5249
61.3937
8.02395
-18.137
-18.7103
-17.6033
-41.4416
-44.1393
-28.9506
-0.0966691
-8.80343
-14.0874
16.8783
46.2726
48.7604
31.9861
25.2211
27.7671
30.3678
-2.55563
-30.9749
-33.1863
-20.036
-30.8176
-34.5788
-7.03184
23.3587
27.4202
16.7335
-15.4818
-15.8091
-24.1393
-42.7742
-39.7794
-25.4589
2.30384
25.0797
7.06636
-13.2706
2.23107
31.6973
39.8471
51.7865
47.145
46.0597
10.2857
-4.82871
-6.06327
-7.77895
-5.61874
6.31834
14.9195
46.6715
44.8341
2.31521
-63.9214
-70.3496
-41.7798
-26.5281
-17.6652
-8.59819
-3.99166
12.0657
6.87659
-15.4573
-16.6606
-18.2694
-28.857
-30.6097
-28.5145
-5.7342
17.262
-18.2265
-14.2659
-2.83855
11.3399
1.18041
18.0025
42.708
60.2314
38.799
25.1564
26.3548
35.5085
28.6656
14.5951
20.0894
42.0963
-2.62869
-18.0394
-19.45
-28.5336
-24.0593
-32.7592
-24.9963
12.9668
-13.1268
-13.2365
-19.636
-25.6053
-4.60672
0.401526
-18.6153
-12.2806
-2.41492
-23.4237
-22.6314
-26.7276
5.62816
21.0529
15.9618
21.1271
8.19021
1.13504
5.81758
-7.28622
9.49902
8.35926
2.67088
3.30339
20.3467
37.2963
-0.226806
-13.6959
-12.6325
14.4642
17.889
6.00232
11.5417
36.3715
-4.56767
-26.3157
-5.17422
20.3345
13.4681
-11.4107
-7.49426
17.7985
-8.13123
-42.0237
-46.125
-58.331
-31.4198
-19.859
-1.07552
33.6411
21.88
14.0696
19.1036
6.95059
15.1026
19.8284
23.4493
24.2733
36.0149
4.16816
-12.3325
-24.8677
-14.2291
-1.00225
-6.50216
-21.6493
-0.490786
12.4695
-25.0349
-34.8126
-24.4091
-14.0681
-10.8047
-6.61627
14.3449
23.0413
33.4787
-11.3193
-19.7548
8.98075
15.7154
9.72134
18.42
30.4927
23.3896
-17.4542
-20.1129
-28.8549
-7.40286
-4.67747
-3.93117
26.5042
37.0276
11.285
-10.9681
-19.6273
-24.254
-2.04685
3.99382
15.993
6.58413
1.40955
0.174257
-21.2204
-21.8702
11.0966
21.8336
7.11925
-3.27095
1.31638
34.3241
10.4132
-51.6189
-37.5898
-6.96564
1.00826
4.01418
13.2976
-0.851185
9.48257
13.356
-16.7983
-17.7749
3.33927
6.80061
17.8317
24.0861
32.2706
16.4534
-14.5095
-35.5574
-30.4528
10.7414
12.054
7.84026
18.9013
-12.971
-25.6242
-29.3797
-28.3626
-15.8214
-2.76861
4.96496
33.9622
23.6226
-2.62917
-26.3461
-28.6792
-2.48518
19.8879
20.2273
27.7767
1.90739
10.1002
10.182
-11.5409
-10.4004
-1.36338
10.7452
23.2317
39.8764
8.10959
-22.963
-26.1518
-16.9127
0.954465
7.9117
5.45815
16.4193
22.4017
-28.5617
-39.7401
1.06514
6.96275
7.95307
7.17212
14.1643
22.4849
9.72896
-21.2644
-36.1839
-19.6016
-0.902865
-10.5357
-7.32122
3.49403
25.1896
27.2497
-8.60562
-21.6763
-13.6861
-14.9178
-6.57561
-4.55842
15.2085
0.553588
-5.88201
-8.00166
-3.76054
5.31975
8.8697
29.678
35.1273
-2.10833
-12.3544
-12.0539
-18.5304
-15.8968
-2.3269
-13.3051
9.16387
36.9181
4.12825
-36.7187
-44.1147
-21.0292
1.52958
12.5685
24.9924
32.5053
48.2839
22.4905
12.0855
16.5471
10.0571
-0.985515
-13.5776
-6.75042
20.7433
-15.8497
-15.1817
-24.7525
-2.82491
26.4367
24.2033
25.378
23.5781
-3.20873
-27.0396
-61.9356
-91.736
-84.5021
-52.3369
22.6389
67.4118
18.5949
-2.20416
2.75815
33.5634
63.8813
35.1431
19.2079
10.9889
-25.1549
-23.5712
-20.4686
-18.8453
-13.2607
-5.27612
17.7276
36.0775
48.2297
-3.68774
-36.2203
-51.0687
-16.8914
-0.242124
-5.27378
-18.6399
16.5139
17.1697
-1.2176
-22.1056
4.20227
4.77081
-0.414208
0.727707
9.29947
23.8576
61.6958
37.0472
-11.6516
0.21701
-12.8582
-22.0646
-13.2796
-13.3929
-3.01374
-14.8566
-44.7032
-14.9062
0.631751
15.5108
19.9351
20.2414
31.5015
12.3569
-4.71665
-3.80822
-17.9034
-9.9544
13.0515
20.022
31.1916
9.06843
-30.6704
-21.4725
-19.304
-12.0233
3.99653
1.11307
-10.9238
6.06426
2.89127
-31.479
-32.7648
-17.3635
-7.96801
-20.1837
-29.4591
-8.12135
40.5595
46.1731
2.86903
1.58826
34.9292
33.4689
20.1054
13.3783
26.0653
41.6569
13.744
-9.70974
-9.92741
-10.9679
-23.07
-10.627
14.1395
29.8651
-9.8757
-21.9927
-33.6009
-43.9055
-37.666
-20.5019
14.4516
34.4494
-5.19176
-25.6679
-22.8864
-27.4295
-5.28495
7.20784
8.40241
36.2562
56.9855
15.7217
-28.4165
-31.4487
-0.12443
3.96521
1.08214
6.81253
15.4322
19.6059
-18.7619
-31.4434
5.88042
21.0643
13.8674
8.44769
9.38777
23.3984
17.2736
-3.66365
-17.6274
-4.7288
13.8251
10.3478
17.6009
32.1623
10.3573
-45.8517
-50.0938
-29.7102
4.36321
10.2531
-3.90446
-9.27397
-41.0205
-39.8228
-9.06877
3.6283
14.1297
15.0948
12.8356
44.4053
22.71
1.83614
-1.68381
-13.8209
-7.96828
19.3438
32.1159
43.0881
7.70793
-41.7138
-33.4086
-29.3899
-12.7503
-5.79696
-4.86272
-8.75848
8.94427
27.6032
-16.5158
-30.1239
-10.0511
1.09143
0.713308
-4.01294
3.42763
26.6669
20.4121
-19.9097
1.4318
22.4976
19.0292
16.4347
11.1842
20.7112
21.3231
-11.9943
-40.43
-38.2122
-12.9766
-6.54493
4.16441
6.41723
7.75604
18.9558
8.11413
13.4066
7.76574
-8.95722
-6.64741
13.1172
25.1649
22.0942
-10.6565
-26.7791
-37.159
-29.7224
-15.5561
-15.6236
-4.61483
18.8441
27.7552
-13.7783
-12.6946
-15.0094
1.92392
5.31594
2.72967
7.75876
21.5803
14.1083
-3.09015
1.28622
25.4506
17.7938
9.67538
13.8973
19.3862
4.76297
-40.3647
-56.1377
-39.5042
1.23896
2.41694
-6.49522
10.3425
35.8466
0.758761
3.44371
0.884558
-3.38026
-6.03515
-9.84606
24.2498
28.1779
-22.7382
-16.1867
-11.6496
-1.30024
25.3317
15.2098
8.05413
5.68973
-21.1471
-23.251
-28.1557
-40.0838
-4.98244
8.69291
21.8983
28.9159
-6.37428
-28.3452
-15.311
-6.55776
20.9257
22.2928
22.3629
35.2781
54.0076
17.8383
-14.4176
-8.49512
2.0908
-1.27337
-5.58745
-9.44453
-7.00725
-6.22939
-25.3571
-35.1242
-4.3085
14.067
8.19107
7.6861
22.9524
26.3219
2.53829
-38.6906
-44.5701
-29.4555
-17.3933
-12.8559
-4.49665
16.5646
20.1729
20.7782
19.1991
0.618438
-9.33071
-6.28915
4.4549
24.5148
-10.2566
-31.0899
-19.0203
-15.0021
-1.74667
13.6148
20.3621
47.7418
50.8394
8.5897
-10.6752
-11.7298
-16.8471
-20.1478
-13.7163
-3.55183
17.4587
36.0494
10.7385
-19.4598
-6.80276
-1.47669
-7.09144
-13.0668
-10.6502
2.98958
-22.4871
-30.5832
-15.7179
13.6492
31.1434
23.0717
21.9751
24.5882
0.724167
-16.4378
-26.307
-25.5976
-2.17875
7.9694
11.0291
18.8792
-0.114468
-3.95916
-2.3494
-15.1513
-11.319
-1.45647
6.10141
23.8395
20.9188
-26.7586
-25.9267
-22.0149
-2.23431
9.76059
9.22683
3.59501
17.7598
22.0355
0.507373
-18.0753
-3.99936
-1.68137
-8.13631
-7.70805
4.69316
22.6178
8.63025
-11.9143
-6.0499
11.3601
6.69738
-2.6318
-3.03702
5.80573
15.2906
-13.0719
-21.4886
-20.0009
-5.31621
3.40799
6.78305
18.5804
35.0877
2.797
-5.30134
-23.6835
-24.716
-9.85069
0.0575001
16.6571
25.9221
0.94435
1.25027
0.395071
-14.2491
-6.84393
0.134376
7.19844
9.72848
-12.2216
-11.446
-13.448
-17.8692
7.54954
16.9063
14.0368
25.9473
23.0576
-22.347
-20.3877
-21.9522
-17.4218
-13.8599
0.392661
5.38066
27.5315
28.4885
-3.71796
5.26871
21.4738
6.99436
-7.48862
-11.2248
5.55647
25.8869
-13.3325
-30.0602
-26.4473
-1.96975
-2.67211
-15.9827
-2.42681
29.821
5.32278
-5.66217
-24.8538
-26.0419
-5.95357
1.81489
14.7861
17.2586
21.4486
41.0434
19.538
-24.0587
-8.42638
-3.25942
-0.474612
-0.272774
-5.88834
16.8424
26.6582
-26.0239
-20.4915
-9.85609
1.12923
1.03232
5.79404
2.83018
24.2555
23.6228
-9.01026
-38.8
-20.4464
-3.68633
-5.33745
-16.6395
-6.56983
14.7149
3.66475
-18.4273
-7.1259
10.2731
12.6217
11.2522
14.765
25.2735
11.005
-12.4246
-30.5816
-27.5046
-4.5344
-2.35377
9.56191
36.9425
32.6097
25.1196
23.1172
22.2163
25.9444
14.2771
-3.84177
1.75376
-18.9493
-55.7854
-76.1609
-81.2488
-51.4981
-5.68425
13.7624
20.9132
3.00719
-2.65458
19.0519
12.6316
9.88264
12.9896
3.42166
0.728869
28.1153
43.3986
10.1482
-28.9007
-10.3398
16.9305
30.1856
29.7534
15.8911
5.22457
16.0385
5.18997
-7.25883
-25.7009
-31.3067
-31.8785
-19.0366
-8.54374
-3.47674
7.47867
-15.9327
-27.9572
-10.1728
13.385
17.1822
21.3397
25.3122
31.9649
6.24628
-13.3572
-33.274
-26.5825
-8.09618
7.35367
15.6736
41.4416
6.66745
-29.5583
-24.2423
-23.2361
-9.45773
-1.0076
9.10572
33.5045
22.3565
-7.85041
-11.2336
-20.1169
-9.07856
-8.2351
-7.61321
-0.559011
29.9469
64.9254
3.02625
-34.6182
-17.5561
-2.55459
-5.35724
-5.91251
1.64937
18.2106
19.167
-6.80593
-0.868291
14.5084
8.13191
-0.168851
1.36052
15.0089
9.59051
1.49456
-5.48057
-21.0593
-8.60615
-12.516
-0.884916
22.782
-8.45514
-44.0287
-59.4847
-45.3773
-21.8585
-5.55757
9.92801
36.9462
32.1641
5.49674
17.3623
12.4107
2.22199
-0.187039
3.58196
26.7237
17.0292
-21.383
-8.56557
-5.61939
11.0314
29.1453
34.608
17.9481
14.3664
7.316
-22.1069
-27.7056
-14.4536
5.69837
5.42741
-1.96807
-10.3872
-4.20956
3.95732
-5.89543
-0.169191
14.7231
-0.465572
-6.1866
-8.48865
-18.1201
-18.0214
-45.5827
-44.5438
-9.44233
18.4945
16.9461
12.0988
21.626
30.9966
-5.44355
5.05877
4.49852
-4.2352
-16.1793
-4.87624
19.6113
23.4323
0.0110264
-0.0780037
12.9186
17.3657
26.2832
14.514
-7.99652
-10.9189
-14.4461
-36.0251
-28.8159
-33.6775
-10.0762
-1.55564
2.14152
-1.66906
11.0288
28.9561
-14.6298
-4.86811
10.4776
11.3692
15.5626
14.2273
19.7881
32.6762
10.9789
0.959074
-7.23358
5.90276
0.481526
-17.0061
-4.60926
-19.6227
-57.5152
-45.7605
-47.002
-43.3256
-1.905
13.9818
40.4026
53.1435
5.00693
-13.6829
1.6322
4.37911
17.366
19.1121
25.3814
38.1546
54.9471
45.124
-4.25433
-9.14734
5.26969
-3.58807
-16.8269
-23.1112
5.1202
7.09398
-52.73
-65.4772
-20.2756
-3.66868
-5.48437
-13.6797
-12.4145
1.72522
19.4746
-18.746
-31.23
-16.5084
10.6906
16.7057
24.4813
31.97
39.381
8.42894
-6.99638
-24.9187
0.0918309
15.3881
23.9445
34.6144
22.046
-5.41231
-2.69097
-12.7148
-28.8928
-21.8248
-31.3909
-13.6328
8.25491
0.443545
27.2199
26.961
7.67478
16.0281
7.81814
12.6617
-2.00631
-44.2669
-39.0575
-32.463
-22.6436
-10.2734
-9.92229
7.01268
21.6647
10.0708
-2.79961
-11.5621
-11.1847
-3.78929
-5.15932
2.51336
18.2087
38.1555
20.2305
3.38974
18.5211
37.5124
31.4397
13.676
5.41869
25.9425
20.7927
-30.7491
-43.6398
-21.5326
-10.045
-7.132
-1.93107
7.70684
17.9525
-13.8533
-31.5821
-37.7721
-22.5369
-13.4004
-3.06536
5.01246
10.2431
7.47333
-14.3578
-11.4483
3.79049
19.7431
8.9143
10.2678
25.2871
15.6085
-18.189
-18.4266
-32.8697
-26.187
-8.8756
4.74454
27.2968
13.3897
9.47796
21.3967
14.3845
10.6115
19.7565
4.11248
-9.95315
13.076
20.0431
-11.2436
-16.1747
-11.3011
4.7576
1.07403
-4.93899
12.3774
4.01774
-10.3565
-13.8922
-8.26341
-10.7096
-13.4007
-2.10447
19.4363
-15.7425
-25.9339
-20.2504
-14.7744
-6.3602
21.5246
25.3809
33.2183
10.3136
-0.676428
0.230734
-7.32312
-16.7055
-5.351
15.878
30.7862
8.46159
-5.4926
-12.9604
-19.622
5.0215
8.09914
9.60924
14.7864
-6.6203
-11.6914
-12.8292
-16.0755
5.72149
12.5694
13.0045
12.2895
25.4203
18.9505
-23.2024
-31.6173
-19.2591
-12.4842
-14.6566
-14.3647
5.62895
25.1957
34.8741
0.341426
-32.8914
-27.8035
-32.3804
-33.0168
-26.5905
-2.52931
25.3152
48.065
45.2415
45.6305
46.9434
19.0004
2.52486
-6.9841
-14.5213
-12.0487
-31.5816
-46.3518
-48.4896
-31.0651
4.27741
20.7563
29.2151
47.0894
35.4463
0.506364
-23.2764
-37.1377
-37.5044
-36.7002
-25.8507
15.7462
22.0693
-10.2973
3.13617
0.548606
19.3394
25.772
36.4569
57.1779
62.3898
47.4153
-35.9937
-66.429
-55.1006
-36.6628
-14.361
18.2074
41.5381
16.9188
-11.281
-4.91115
12.6682
28.3093
12.8447
3.61585
8.83302
6.06819
-24.7949
-37.1729
-30.4866
-19.4688
16.7267
19.0958
28.8102
40.0772
-5.83761
-54.2785
-54.4186
-30.1296
-9.63579
-13.2682
-8.11105
-0.587091
12.9799
18.2214
-16.7922
-15.8207
-9.54263
-12.2311
-4.22867
4.78277
40.0421
54.3702
15.1018
-16.6527
-3.69624
4.80287
-3.27311
1.84619
11.3561
16.5866
32.3843
4.99059
-5.40627
-2.98185
17.624
17.8525
15.7457
5.51762
3.48956
-23.2265
-28.6411
-35.6549
-11.196
-0.710841
6.33508
22.8248
25.5842
-19.5579
-34.8401
-37.9782
-33.3301
2.617
7.36123
16.3061
40.4329
5.91329
11.2016
8.29035
-2.41823
6.03388
3.79481
5.14016
14.4343
-5.98541
-7.33556
-15.4552
-21.7478
8.01164
17.3764
20.5709
28.2338
-17.372
-30.1675
-29.0701
-29.1792
-4.55056
-4.95044
-3.16089
2.46784
27.4304
34.0911
-8.85349
-31.4381
-18.3767
-2.64894
5.73932
0.526635
8.64065
33.2184
20.4213
-36.1962
-0.596938
7.64908
-2.89434
-15.4541
-11.2846
-9.18598
12.7166
-2.62248
-27.0415
-21.4245
12.2161
32.1384
33.2835
19.9776
15.6939
9.39804
-2.82089
-21.46
-30.7797
-6.11811
1.31654
-1.54628
11.799
10.5302
-1.27458
2.70869
3.88111
18.5852
10.2043
0.767262
16.4999
41.3013
21.2273
22.9074
41.14
-4.64207
-16.7738
-31.007
-38.2429
-20.554
24.1183
16.7322
-5.48268
-14.9919
-16.2235
-45.2692
-71.0934
-77.0732
-83.4966
-133.104
-136.073
-93.3928
0.899198
70.8779
89.8148
140.88
174.922
152.59
108.47
44.4061
-11.3422
-21.2869
6.50722
49.3541
81.8448
67.8295
65.4057
-21.3293
-95.1403
-118.418
-131.103
-46.0523
-29.153
-59.3239
-5.85133
32.2214
-8.74067
-46.6147
-44.552
-9.92546
-4.6441
-30.5533
-45.0573
-45.6732
-37.3043
-14.0313
-3.21766
48.6219
107.143
156.693
138.8
51.5258
21.0295
1.43444
-56.2935
-84.7898
-75.067
-32.5814
12.9736
-0.338502
7.59569
80.5249
64.9428
10.4269
-16.1185
-29.6518
-35.941
17.0785
23.604
18.0855
37.305
-6.96707
-60.5554
-70.0298
-66.1549
-53.9305
-51.9623
-26.272
-11.4141
10.9893
19.877
4.45983
8.17981
21.9899
4.83918
14.7289
19.1112
14.5766
37.7982
56.5503
60.089
62.5617
57.0737
18.3324
-37.9046
-42.4602
-21.0539
-7.30428
-6.07489
-3.49669
0.581016
-22.4277
-52.9182
-59.9578
-44.7537
-24.302
-38.1334
-48.2349
-4.94984
19.8734
21.807
31.972
55.7771
50.8599
47.1544
5.76496
-66.29
-130.772
-131.93
-38.2202
57.7264
121.878
164.031
174.543
178.999
157.948
59.3249
-7.97701
-57.7991
-83.7362
-99.1185
-124.74
-138.433
-121.114
-80.8812
-57.4823
-18.5199
29.3659
41.6337
4.65442
-43.974
-69.9086
-59.6395
-42.4147
-36.615
-47.2337
3.53104
48.9442
64.1267
66.9273
70.7742
77.9423
87.9999
72.6021
44.7643
41.871
58.6553
52.6533
29.693
8.75892
-4.01635
-44.9529
-55.3176
-45.9879
-16.5333
18.7717
14.6762
7.22578
-2.98255
-36.5107
-53.8768
-44.3467
-48.2261
-48.1881
-66.3682
-50.8827
50.1558
75.7288
52.9386
22.6346
-7.6863
-9.12905
-19.7621
-21.0026
-31.243
-62.8669
-24.5588
-3.05022
7.65501
30.1004
40.8213
42.7868
59.7023
32.7953
23.0142
13.604
-30.2095
-34.3784
-11.6436
5.59907
8.2331
29.4402
-8.78318
-36.7833
-47.765
-31.6457
-15.3648
-12.0866
-2.83754
42.5123
30.3775
-12.9466
-30.0896
-12.1148
7.02674
15.93
2.68149
16.3455
79.5916
65.9192
-1.92866
-32.2163
-25.5747
-28.0558
-23.1918
-3.7762
4.53899
-24.4734
-89.3316
-92.3708
-13.2257
68.5164
87.6072
106.387
118.02
114.162
58.38
-5.4228
-76.3849
-81.08
-52.2784
-45.9443
-35.0999
-0.50761
-1.31305
-54.2286
-70.3351
-34.2247
14.267
16.4435
1.42869
-17.5189
-5.05259
-11.5341
-35.7675
-37.2626
-18.2153
6.23277
12.4132
17.5026
46.8277
30.5953
26.5297
1.31627
-16.7217
17.8909
53.4644
68.2711
93.0679
55.2408
15.9497
-6.55119
-30.3764
-23.2403
-15.4385
-18.2604
-1.79936
-10.3303
-16.1826
-17.3714
-22.6452
-11.4046
-2.89149
-0.0162785
16.0162
3.7091
-12.893
-13.2943
-16.6924
-10.3463
-7.65222
-21.3906
-18.1059
-8.4456
-20.3698
-4.10486
-0.235488
-1.56475
-9.48442
-26.0624
-58.5008
-25.4363
32.3165
16.196
-35.8576
-24.0662
45.3142
123.902
87.649
40.2031
27.9577
42.0976
13.7417
1.94094
5.05746
-24.6707
-53.0604
-58.0045
-44.1565
-8.54983
1.8084
-4.50017
-17.3851
5.48497
22.9254
30.5603
19.4945
-35.3249
-51.0604
-15.698
-4.71925
-17.9445
-18.5126
-15.3096
5.89315
11.6425
18.1348
43.3864
44.9374
37.6035
49.7947
32.1471
19.9036
3.62446
-3.82988
-23.7754
-64.5417
-63.9015
-40.1476
-70.7284
-94.9372
-54.566
30.8922
54.3409
83.6627
89.96
90.441
78.103
63.0154
47.2344
23.2858
-24.5412
-28.1065
-50.0809
-63.9078
-53.9153
-56.9252
-59.0308
-32.2134
-27.5721
-2.66454
-11.494
-38.8264
-35.569
-46.8673
-30.7398
0.563926
-7.19026
-17.3776
-15.1558
-6.1218
22.6386
23.5681
31.2218
47.7023
54.9268
44.6236
19.8016
69.24
135.097
98.8917
59.8123
23.9536
13.3755
17.558
25.241
-44.8084
-73.07
-73.7637
-79.2778
-83.8506
-68.9336
-60.2092
7.99592
58.3985
18.2276
5.84613
-9.32917
-27.7713
14.2149
31.6427
35.4342
-5.48659
-19.7017
14.2749
-15.799
-27.7422
1.10317
-2.67362
-0.161391
-27.8852
-39.4611
-23.6897
-32.8916
-11.2764
138.993
250.843
143.483
-13.7694
-75.2342
-62.1101
-70.0222
-68.1719
-75.8163
-88.7441
-66.1265
-61.5072
-56.3421
-25.2666
-10.3807
45.2555
87.5576
74.4632
59.8857
36.6438
-62.1531
-151.386
-83.6407
-6.23633
16.6324
34.4558
41.9969
68.1637
82.6305
41.3159
30.5056
57.6215
58.8504
46.3462
34.0342
48.3751
43.1281
-12.0484
-21.1455
-33.2555
-40.7772
-47.0224
-21.5674
4.67704
1.08113
16.083
-8.32174
-43.5856
-35.4449
-30.5439
-36.085
-22.6801
-17.7541
-7.22952
-32.754
-33.0473
-21.1158
10.6599
11.9863
1.89415
4.46654
34.9072
40.9266
4.70353
-5.9584
-12.7355
-12.2926
-11.0225
-19.7619
-5.02516
67.7411
69.5525
10.39
-44.0966
-27.2044
-25.6562
-25.2156
-18.7692
-12.6081
29.0384
40.893
-10.5575
-6.92442
-1.84259
-62.9633
-112.276
-77.744
45.4965
138.185
122.885
70.0128
64.2871
72.617
72.7794
38.2096
13.2364
-30.1755
-57.7604
-52.366
-61.8018
-58.0954
-44.6719
-28.5881
10.472
10.825
35.0355
36.5328
-14.2727
-96.6245
-105.056
-80.8185
-21.7669
8.85553
39.8704
60.8018
56.96
27.4842
29.9455
15.7426
2.63944
-3.21938
-20.1862
-27.8043
-15.4216
20.2438
30.6481
26.5956
5.60738
13.7781
32.5381
-40.2488
-71.1462
-50.4043
-32.8803
-8.49433
6.8135
28.9972
44.3877
49.066
4.32416
-10.9378
-5.50996
-6.99759
-12.9225
12.1539
32.5302
27.8233
-18.8136
-29.0624
-31.3341
-5.84828
32.4892
64.4567
39.0256
-7.03991
-4.34665
13.4776
0.90438
-17.3081
-16.8255
-14.4547
20.0948
6.74456
-23.072
-19.3948
-22.9162
-22.6932
0.571036
3.40623
-4.31625
7.55524
-6.70944
-61.0832
-50.8849
-14.2086
-11.0104
-8.10075
1.93171
9.62026
50.3594
18.7934
-18.1912
-3.99889
38.5647
51.36
45.5866
48.6634
57.0087
-14.6061
-53.259
-61.4239
-55.6418
-16.8186
8.24565
26.604
50.5605
37.9595
15.3586
18.3727
-21.5229
-40.0033
-37.8708
-17.7817
16.389
4.59014
-54.2347
-72.4433
-53.6516
3.79347
49.9425
88.5892
90.5588
81.9357
75.0597
29.0829
-8.55959
33.45
-6.81732
-90.4474
-93.4224
-55.7344
-34.5971
-32.9185
-84.0214
-80.6215
-13.4915
17.7678
31.2934
54.8523
48.1444
22.1953
15.1332
-19.7992
-31.706
-34.5642
-33.312
-42.0898
-23.0661
12.774
47.7871
47.9517
62.1621
72.9681
81.0779
69.8838
55.7088
35.8093
15.3779
-16.6367
-34.7782
-61.173
-103.255
-104.206
-77.7017
-18.4367
25.6302
10.9445
16.8005
18.7409
-1.73806
29.4899
54.5931
53.999
74.2122
66.3296
17.5532
-1.78753
-26.5611
-45.1588
-56.6032
-50.7863
-45.7551
-12.6906
-7.87594
-37.638
-63.7484
-50.1383
-18.642
10.7557
23.8359
15.3229
9.24917
-21.7394
-77.6852
-58.6268
-10.6047
12.3119
31.0299
60.3888
79.1373
68.7159
35.8026
15.0678
6.93917
29.7227
37.1398
34.3628
35.2721
15.3883
15.3634
13.6574
-12.9356
-13.6103
6.2798
10.6926
14.9224
11.9803
2.57646
-20.4968
-26.7103
-10.6251
-15.8544
-16.1767
-22.1805
-44.5733
-62.3119
-63.1388
-68.4803
-39.1911
-41.3684
-66.373
-30.8776
37.3379
81.2454
60.7775
46.5011
27.9688
-27.4806
-53.9293
-54.79
-66.5539
-32.7202
29.7774
109.784
82.2116
62.5447
46.4981
28.637
29.2407
32.8667
48.5715
30.8714
-18.0798
-37.3543
-37.8834
-34.6401
-26.4151
1.91488
32.8023
56.5852
36.8709
5.36514
-63.9728
-116.135
-75.9533
-52.9285
44.9895
135.623
110.085
52.732
24.6005
-49.5634
-69.4527
-62.1214
-48.9644
-38.1413
-48.8655
-39.4052
-20.0291
-35.0553
-29.245
5.89788
18.4049
6.02268
51.3384
39.6419
-0.554192
-42.4248
-62.7527
-28.4869
10.9305
46.4243
65.3717
85.5288
63.7622
19.8498
20.0989
22.5974
7.42453
-26.0205
-44.8777
-32.9235
-17.2948
-35.1669
-44.5344
-14.6113
-39.4074
-47.2515
0.421037
50.3122
55.7751
99.472
106.308
46.4699
30.4415
22.198
-3.50787
-5.05996
-31.3464
-46.2108
-35.1463
-42.4327
-26.1288
-4.80593
-8.44558
2.54531
10.2591
-1.97938
-16.979
-38.4942
-57.8094
-83.7593
-85.6431
-62.4333
-33.1302
-3.62837
4.78072
18.3693
41.1308
63.5189
75.7285
75.0047
89.6693
67.2568
-6.71356
-43.3706
-25.5978
7.90114
34.1708
36.5295
46.1461
34.2446
-7.91675
-25.1539
-36.0217
-26.2484
-15.4515
-18.4641
16.1284
39.9143
7.27157
-11.2349
-46.0763
-41.9494
-0.429436
9.45542
-7.36034
-40.8595
-47.9389
-48.8236
-57.3309
-40.4558
-5.68794
24.2654
40.8763
37.5343
47.0143
51.8678
8.88553
-2.06653
26.9804
30.0029
28.3047
11.8848
-1.19625
-7.18629
-7.25355
-4.18162
-20.4437
-21.4914
5.74967
11.6657
-10.989
-43.8205
-37.7517
-5.85715
-17.4745
18.737
46.8295
5.35158
-10.4907
-9.80588
1.10688
-2.26419
-5.10958
6.50076
-23.6307
-19.0407
19.9817
43.4107
43.2047
-4.90689
-16.5579
0.182325
29.8423
-0.143861
-1.0575
-19.3046
-24.9575
-46.9738
-58.5102
-60.1852
-39.1144
-2.17671
34.9632
57.4758
77.4238
101.164
59.0053
6.13718
-17.1648
-13.5232
-5.18854
-11.4153
-42.407
-41.1023
-13.1701
-37.7206
-36.576
12.9424
37.6015
44.6839
32.7303
28.1624
34.244
18.1304
-26.6455
-40.1894
-34.2606
-20.4009
-24.8441
-14.0676
9.53764
9.10492
-20.4275
-15.8749
-8.35545
-16.3769
-24.27
-7.66257
17.7969
55.6047
71.887
77.9283
57.3167
-3.13134
-50.4373
-89.75
-69.1618
-30.6676
-24.8567
-29.5024
-11.1356
18.2872
32.7289
7.52201
-13.105
22.1984
35.2494
32.41
45.8536
49.3187
13.6611
-29.6204
-47.2935
-21.1483
21.2377
20.1471
0.599705
-13.7107
-11.3053
4.58887
-6.69478
-19.0022
-1.6961
12.1952
-13.8994
-17.5269
-9.09113
2.02213
-5.37938
-21.316
1.51676
-20.6328
-22.1579
-7.17764
10.6128
26.6689
31.4075
27.2733
31.9757
11.8094
13.7905
10.6675
-12.0949
-3.99241
1.29402
-14.4404
2.6116
5.26935
-1.89872
-43.7249
-65.6407
-26.6648
-8.9329
5.08412
36.9706
40.9402
15.9769
4.22803
-5.34904
1.86408
-5.50732
-7.37928
-1.31992
13.7377
52.4891
46.9915
33.9886
14.8348
-22.093
-43.1199
-64.1834
-40.2048
-12.7439
11.3186
4.57848
3.02315
77.6089
21.2379
-39.8045
-41.8672
-62.1499
-45.4322
2.60774
48.0778
48.6137
-1.57518
-40.709
-41.0872
2.68454
67.3798
117.705
58.8118
-8.40472
-41.016
-51.5331
-51.21
-81.6501
-46.7291
2.98879
7.22002
-4.39848
1.20632
-8.93737
-23.0503
-22.3031
17.142
64.3127
91.9796
42.1909
-8.18694
-32.0253
-19.2762
-4.01629
1.40055
1.57302
23.5548
30.7449
12.6994
20.5022
25.2441
37.1923
29.1507
12.8861
1.76589
-10.2437
-31.901
-40.4945
-50.2038
-27.8645
-8.26493
-3.11457
24.731
8.56958
3.19831
7.73054
-2.75708
-20.9704
-5.50741
2.84085
13.2055
-19.1389
-28.783
-40.4407
-56.4462
-35.4871
2.56926
21.0825
42.4411
3.66592
-17.1751
-28.6401
-46.7023
-34.078
-32.431
-34.5157
-8.30267
50.03
76.8571
93.5847
121.444
145.005
110.748
91.3564
72.3428
1.70626
-74.644
-124.332
-166.204
-113.338
-62.7449
-19.6529
28.111
26.7693
16.2604
28.7214
4.82461
-45.9163
-53.8391
-60.8699
-66.3215
-43.6399
-26.0393
-28.0779
-64.6811
-46.9708
28.4387
91.8058
114.059
79.8543
61.9386
64.5588
52.4578
51.3014
63.5805
48.346
24.2336
-10.3045
-19.4641
-9.50663
-34.0332
-63.4951
-56.4278
-34.9012
4.08912
17.8779
15.4477
-3.52481
5.19013
-16.4708
-24.2718
-28.7367
-46.8212
-62.6639
-46.1022
-2.06528
26.5431
4.5652
19.6894
24.1768
13.8027
19.4111
10.6915
10.8682
34.0103
5.41234
-10.9932
-16.532
-23.3312
8.00638
11.2783
-0.348557
21.2777
19.4241
0.249105
-22.7358
-47.4419
-31.3506
-23.1086
-33.4331
-26.5602
17.7391
36.761
41.6063
53.559
64.1776
40.0631
20.1011
4.76068
54.549
13.4319
-67.0484
-84.9484
-55.3436
-38.8143
-2.34508
32.8765
16.6306
7.81467
4.43153
7.27664
-1.49399
4.58154
-10.9114
-30.7317
-16.8436
-8.18035
-36.0982
-45.466
-44.7192
-15.6147
22.5984
38.2663
60.5636
74.0094
17.3104
-40.9976
-11.4648
9.50947
16.8743
24.3835
25.6065
20.7156
-2.81508
-17.684
-11.0382
-2.66296
-3.45632
-8.65869
-3.35303
9.44242
15.7116
67.6709
38.4331
-22.181
-10.8036
46.1376
45.2633
-16.5779
-66.1266
-68.8423
-66.6603
-64.9382
-44.3396
-36.5687
-21.1532
14.1279
40.7787
12.4085
-2.68152
5.98378
16.8707
-20.4889
-5.7657
15.0697
14.1202
13.3665
6.21441
-0.657506
19.2633
18.928
9.90985
4.61059
7.82408
11.5626
35.7308
38.2154
-5.23296
7.55216
1.37339
-8.93259
-8.24681
-19.8426
-4.47921
25.4127
8.16406
-28.0575
-23.8298
-2.56947
0.119796
-1.5862
-0.405043
13.2125
-3.42231
-14.6593
-24.7544
-34.0703
-10.9835
11.1024
21.2585
46.3282
16.5199
-41.5544
-58.944
-85.9939
-63.9527
-0.209736
54.7378
105.72
123.103
112.746
72.1664
14.956
-10.8124
-46.7364
-61.6251
-63.6446
-48.3906
-12.4916
-3.43066
-43.0165
-16.6832
0.57692
-8.07725
-27.6547
-54.6506
-45.2156
-55.7435
-62.003
-39.8822
5.95456
33.005
26.1862
45.3773
84.549
49.1268
28.8326
40.9602
49.9614
37.9811
-0.565676
-6.21139
27.5758
22.3902
39.5063
65.0957
40.213
12.2201
-19.588
-44.5748
-31.3994
-42.4916
-58.1925
-30.6983
24.8044
32.329
5.46015
-6.83292
-38.8699
-45.0614
1.73713
-35.0883
-67.0543
-40.1709
-5.65165
0.0297527
0.894927
32.0017
36.989
-3.73944
-52.6702
-47.1746
0.375103
8.52794
-8.40393
7.35195
21.8794
20.7144
28.6784
10.2336
3.10615
36.6387
46.7149
40.1778
28.3768
22.5385
20.8107
-12.5712
-33.0436
-18.9284
-20.1065
-13.3068
-2.35856
-5.66187
-14.1312
-14.7875
-8.44898
0.586252
-11.9987
-18.4802
-30.9167
-38.0712
-13.9523
50.8599
86.8902
96.7083
77.0274
55.3809
43.0085
-1.27227
-55.1788
-72.625
-55.2651
-57.1066
-65.5069
-59.2868
-28.5532
-23.9832
-31.9721
-14.8367
21.4135
59.028
40.0846
-6.60559
-16.4817
-25.5161
-23.3508
-34.8069
-44.4194
19.2881
60.8314
58.4952
59.347
56.9407
43.096
35.205
19.2102
27.9908
48.3126
19.0349
-13.9487
-22.8539
-24.9075
-30.3539
-45.7383
-48.5291
-53.8511
-42.1636
-56.2714
-55.1575
-19.802
52.6699
82.0672
28.8953
-3.46102
2.97941
24.2111
19.4696
-27.7265
-32.2445
-21.6657
-12.9322
0.686071
4.48687
11.3064
45.7549
34.0397
-3.8623
45.2201
40.9816
6.02011
-48.1073
-93.267
-52.1458
-21.8445
-29.001
-23.6134
-25.4364
10.8012
48.8834
59.3628
63.44
57.6141
15.7176
2.90373
-33.8554
-43.1723
-12.8856
-2.92357
8.41549
9.28722
25.9122
47.6687
17.188
-1.44222
21.5904
32.297
52.5281
25.0432
-31.1775
-16.3609
-22.1143
-32.9902
-33.3815
-64.946
-94.3958
-96.1519
-72.8229
-60.5107
-23.0377
37.3263
55.1139
49.6655
69.6182
71.287
53.6249
14.008
-35.371
-24.9884
0.263165
-3.69897
-8.84347
-1.28415
33.8824
53.1199
37.2519
7.66878
16.4231
25.4742
12.6542
-17.361
-42.9863
-46.6432
-19.6049
-25.9367
-40.0061
-26.9871
-10.3806
3.60983
20.7016
19.8808
27.4577
6.48647
-7.71863
-7.46637
1.65466
-1.03047
-10.5603
11.9687
31.4833
27.9186
26.1128
18.8234
9.78073
0.826682
-1.8557
-11.6637
-10.8708
-3.85578
-38.8573
-38.1301
-56.6128
-50.329
-26.6816
-9.81937
28.5496
110.466
96.1779
17.9542
-30.3309
-37.4684
-31.1747
-43.0233
-42.1699
14.79
52.3657
30.188
41.2017
33.2723
39.8445
29.1451
17.9012
10.0116
-27.9891
-58.2195
-60.5821
-65.8443
-34.6599
0.322457
1.35245
-0.695132
-25.0321
-49.3665
-52.9226
-64.7388
-56.9733
-24.5964
-1.95769
37.4826
51.2512
41.1326
50.6897
61.8749
69.7898
71.2769
69.4817
59.3324
66.5788
45.1422
-26.3465
-85.7375
-43.778
5.32271
1.26875
-3.73147
5.59222
58.8083
101.361
9.09345
-56.3649
-65.2814
-66.6306
-55.9152
-37.4884
-10.7822
25.4819
-5.44913
-106.082
-98.186
-35.6565
11.4991
23.3937
72.1513
56.1489
29.4449
4.42082
-44.0447
-82.6335
-41.3009
6.15324
17.9994
22.4759
33.9078
14.7741
-0.69926
-24.9212
-15.6169
28.6814
26.401
33.0933
51.6413
32.4455
-1.9439
-22.2236
2.6243
20.0085
9.93226
-17.0658
-11.8766
12.0473
19.0686
2.79073
-1.08904
8.40247
3.23958
-15.4977
-15.8825
8.30999
27.6414
0.625679
-9.89106
-16.8868
-32.4238
-6.73423
-7.41969
-11.7035
8.08439
-13.7355
-25.0417
-12.1004
-4.93795
6.14622
-1.28606
-13.1909
-8.40918
-13.1121
-0.8275
13.8862
16.9812
30.8166
35.1971
39.2536
40.8685
25.6931
-0.784093
-17.666
-27.83
-18.0222
-8.49967
-11.1677
-16.0138
-3.9488
12.9034
12.1563
2.87093
5.56308
-3.61437
-20.9406
-48.1662
-51.3139
-27.1912
-18.0063
-68.9108
-52.2985
-33.6631
-27.4769
-1.81006
50.1031
88.2353
114.209
108.391
65.4264
44.7862
34.1813
5.26794
-13.7464
-21.6961
-7.01599
-21.4922
-35.6084
-60.6128
-72.878
-4.31358
71.3126
59.7485
54.7979
13.2332
-13.565
-32.9136
-56.5155
-49.2444
-16.6364
-11.5578
-6.2873
-10.977
0.92929
-2.99455
-17.9989
-0.92361
19.3052
20.6137
5.80839
-14.7601
-67.9297
-54.8024
-37.8489
0.557227
23.979
-0.0531924
8.78446
31.6291
-12.0661
-12.2279
-1.96253
0.847482
13.3102
24.8829
28.5004
49.2936
38.2488
37.4441
44.0306
33.5306
32.4073
30.7392
26.8409
11.5823
-27.6263
-38.5756
-60.0038
-67.8733
-25.7313
-8.27252
12.9149
34.3017
35.3857
41.3106
17.8448
-8.43478
-10.4745
-18.2959
-40.8379
-52.7243
-35.9843
-23.8295
-31.6279
-7.06417
33.4843
72.0477
31.1715
-10.511
-15.7739
-24.1137
-34.621
-52.1581
-58.9441
-65.7628
-63.3729
-40.4704
-7.30233
8.01108
45.6987
54.9189
45.9663
31.793
50.0038
67.0998
49.255
6.47547
24.0345
47.8158
38.733
5.54038
2.35994
9.47805
-1.63583
-1.40653
12.8075
10.7459
-5.47974
-12.2222
4.89566
39.0959
66.5301
24.985
-34.9551
-63.2738
-92.8893
-94.7586
-60.2179
-49.6916
-36.6509
-24.8863
-24.2558
1.01247
0.352316
-14.9929
-7.09684
-9.35835
-9.06658
-14.2318
-15.9129
16.9413
42.9778
50.3787
54.4072
35.1872
38.2111
44.9759
15.1044
-24.3216
-9.4685
11.2867
10.9055
28.211
29.0204
35.6612
25.8318
24.1398
18.7007
1.05238
-6.6032
-21.0677
-70.9182
-71.32
-34.9922
-30.9325
-34.492
-23.0152
-2.85009
33.3079
17.2013
-8.3078
-5.72306
-13.8965
-2.4503
0.179196
23.7427
57.1395
41.471
36.2107
24.8213
-15.4816
-38.9547
-39.674
-55.0934
-39.7016
-35.4266
-19.7097
0.415422
13.3038
29.5076
33.6671
31.7751
35.5446
51.5438
16.3045
-10.171
-25.0013
-20.3521
-7.7756
-13.5104
-13.8244
-3.86029
44.9925
69.748
14.2719
0.935182
-0.715959
-7.60773
-19.1946
-21.6595
-1.45949
-1.76772
-50.014
-67.1667
-39.1348
-34.672
-33.5985
45.4684
91.9891
19.3473
-7.3865
1.47207
3.26765
-3.03548
17.5237
48.8025
58.6976
6.6874
-45.0043
-39.8593
-37.7193
-27.6357
-5.33543
-4.82247
17.1107
28.1188
-8.23854
-36.2169
-53.2662
-15.7901
4.38619
6.08438
-5.42213
-4.4724
12.1654
-22.2107
-18.7392
22.1962
72.3279
67.7577
28.9886
17.8219
45.1569
27.4347
-25.154
-21.5904
5.37182
-4.4934
-13.7909
-0.848676
3.99771
20.1901
-15.2563
-27.2845
-24.4262
-16.5803
-23.7601
4.56351
28.5564
25.0346
-0.0897228
-21.7275
-58.3
-48.18
-10.479
-8.10075
7.43621
12.7768
-3.76044
2.97693
-0.497603
-26.0039
-16.1486
-12.5531
-8.2746
1.23963
-31.9699
-1.38473
38.0339
64.3091
59.3242
52.1759
62.3928
76.4534
50.6823
13.3732
-0.124322
-40.3098
-48.1999
-43.613
-31.5734
-2.10794
23.9709
31.986
14.0475
-34.1305
-26.5941
-43.5262
-72.1285
-83.2866
-50.4307
-11.9336
-20.9132
-38.633
-14.9215
11.458
-16.6796
-41.4944
-13.8617
41.5281
65.2224
95.3197
96.1039
46.4177
33.6594
46.0131
39.6178
16.6807
-6.23988
-8.96811
-27.4742
-44.5595
-24.2299
-11.958
-2.50735
3.63368
17.7211
50.6967
11.2569
-22.6577
-35.9539
-65.4625
-63.413
-35.8913
-22.2141
5.27
45.1055
18.504
-9.95781
-14.0776
5.76086
12.5348
10.928
8.67806
2.01499
19.7655
25.5629
0.794556
15.9835
6.0703
-4.49385
-19.7034
-16.4976
4.59996
7.66487
-17.8584
-22.299
-4.89033
6.42865
0.698708
9.2864
21.8983
7.65276
-30.1602
-22.2623
-13.612
6.5511
37.1518
40.6467
47.5662
46.1089
23.2214
-31.5218
-59.7609
-55.0825
-34.898
-33.9504
-12.935
-31.9733
-5.16417
37.5121
38.8319
40.8136
57.4736
48.0856
17.4282
-7.70699
-25.1396
-53.3397
-57.1567
-48.9464
-47.523
-21.7149
2.61433
2.44198
20.3023
31.8089
16.9458
34.3427
22.9086
1.81784
-8.859
-10.2053
-8.41434
6.05309
30.4634
26.2536
32.4157
39.907
16.4288
-9.23747
-25.7478
-29.2539
-27.769
-49.7846
-48.1099
-39.3281
-5.60079
61.466
72.5767
25.5706
24.2338
-23.5442
-27.2394
-20.7349
-20.7465
-11.8642
-8.119
17.3516
27.8019
0.445309
5.14063
10.4309
18.9504
32.983
31.536
17.1127
0.464274
-22.4052
-56.8315
-68.6103
-50.9656
-7.89398
14.3829
27.8493
40.1056
19.4523
22.9117
-6.96374
-17.9369
-2.45118
-3.7877
-12.9579
-29.1102
-20.0835
5.31341
2.44181
-35.3764
-29.2663
-11.1381
18.8977
12.4425
23.6848
34.4344
-0.941723
-24.7498
-6.46118
-6.08289
8.56612
11.3741
21.5846
46.5473
40.2202
22.9244
17.1643
7.0296
6.75743
21.1121
6.51437
24.838
46.4745
4.79403
-44.7447
-51.2572
-46.3556
-46.9259
-40.1664
-45.7901
-50.7637
-34.1411
-51.9947
-56.0556
3.76633
60.8196
113.673
122.81
54.7703
11.0003
-22.9561
-58.6988
-82.3057
-38.5391
23.9877
51.6334
53.0896
39.8443
38.5077
48.0683
15.6491
-46.1593
-32.7659
-26.2857
-36.1018
-45.2945
-57.226
-60.7744
-44.9224
-10.1917
1.62738
9.77591
24.7821
21.268
29.2271
11.5199
-16.4602
-6.04865
-4.06559
-6.88352
19.2507
45.7924
52.6629
70.0881
45.5359
17.0394
-18.9944
-38.0765
-8.49644
-3.03763
31.6978
61.3758
34.6319
2.64157
-41.5607
-87.5935
-50.5064
-14.7439
-3.25371
-4.5612
12.6448
44.2231
48.6938
-29.2673
-41.9283
-36.9484
-32.5064
-34.1554
-16.6121
18.4718
4.13929
-27.4908
-9.61069
2.69086
13.797
31.5031
28.6007
31.5385
17.5295
-22.5212
-26.593
-27.4417
-20.9433
9.01278
22.464
31.272
36.197
28.1399
2.73139
-10.6314
-12.6178
-8.45496
-7.75311
-5.26783
3.17759
32.153
14.739
-37.4959
-44.0332
-25.9045
-16.7556
-4.20394
7.44345
25.8889
27.1101
24.7434
19.9383
6.29686
-4.2726
-15.3765
-16.2309
-10.9002
-2.51905
3.30397
10.2934
24.8719
4.19536
-17.4757
-9.74818
4.07144
3.89003
-4.01182
-11.6337
-0.546708
20.6565
-1.07363
-26.3461
-15.4451
7.54959
-7.79762
-34.5632
-39.1787
-23.4912
9.0541
8.32632
9.16431
49.3347
10.7948
12.0116
53.4175
63.0302
58.4807
67.9046
63.3287
-10.5165
-72.8365
-70.8697
-62.4954
-45.069
-27.3067
-20.05
-21.7317
-11.9459
12.3013
-6.04323
-65.3795
-56.2723
10.5918
31.6968
13.4825
2.85643
-9.33391
-42.0302
-87.4816
-59.3415
14.2305
67.7734
120.538
94.3366
72.8442
84.6565
92.6895
31.5781
-50.0298
-41.0852
-14.633
-12.4554
-2.08864
-16.3768
-36.3304
-36.5329
-11.0913
-0.337023
8.07945
14.2961
20.117
1.41545
-22.7113
-15.3427
-16.7812
-18.1897
1.02013
3.3187
-27.8762
-17.9863
-4.90288
-10.8875
-10.3269
-11.8774
-13.8024
-16.5282
-17.8057
-20.2855
-2.77539
30.2919
47.7738
32.2149
1.12785
-15.4629
-19.5663
-14.0852
-21.176
-11.4735
-2.46547
3.15935
22.5483
30.1756
36.6454
23.7247
9.97004
31.5489
0.766874
-8.26525
3.52147
10.4244
20.0595
20.9144
3.41544
8.99689
24.5549
11.2183
-37.0032
-28.4648
-1.28815
-5.09602
-17.8829
-23.5026
-17.317
1.33915
-10.4596
-22.1359
-10.7899
1.37441
2.69243
-4.13052
-14.2704
-26.6626
-23.2057
-38.5595
-42.233
-12.9823
29.1994
49.4366
67.3343
56.7479
43.7459
34.486
28.7982
41.0513
24.0608
-17.338
-29.9025
-61.5022
-73.9703
-65.0046
-49.968
-19.9775
2.78313
-2.69716
-10.211
-15.1687
-7.28289
6.36872
25.4951
61.6288
78.616
38.7418
12.1903
-37.3727
-25.3745
-3.95174
6.92568
26.3657
36.1843
28.0521
13.114
17.2783
15.7331
-1.14807
2.12779
-4.34435
-17.771
-39.8154
-51.2582
-60.257
-64.1296
8.00507
55.138
9.58877
-5.89329
-20.7162
-27.4425
-6.87975
12.6918
15.6136
13.7048
12.7004
31.0468
37.2008
15.765
0.0146282
-4.45733
2.1266
3.35784
-5.64712
-17.6233
-32.3361
-45.2398
-24.7372
-24.6808
-2.90548
10.8098
13.3612
9.89417
7.50355
17.386
11.8584
-18.3295
6.5216
23.9834
18.1113
9.18463
-1.27702
-4.73851
20.3832
21.9684
-31.5726
-40.6447
-6.95771
21.3085
24.4309
24.2932
20.1533
24.8448
40.5819
2.71232
-35.0816
-35.9382
-12.7283
-1.02089
-10.7985
-19.5145
-16.2273
3.11834
22.9111
-0.0748517
-42.7548
-51.43
-4.65792
22.2718
31.6821
29.4056
20.8847
18.3519
-3.87517
-44.3277
-51.5682
-48.8619
-27.0253
-14.7667
2.78151
25.2522
34.7644
30.7528
18.6119
5.79856
27.6047
0.6959
-20.205
0.307427
8.75653
9.40425
52.8943
76.8219
43.9172
10.7274
-24.0006
-19.9248
-22.0365
-19.8847
-14.9503
-18.2183
-20.9417
-9.14035
-28.3698
-47.2494
-44.7337
-12.2461
-0.0802722
-2.98284
-2.59969
1.65625
-4.78866
-11.3163
4.70983
20.0801
30.6778
18.4642
17.8437
18.3388
18.5996
7.9384
-4.48343
-3.38052
-16.161
-43.7565
-33.3814
6.82958
49.6607
51.1692
40.9877
56.7726
49.9754
-0.472925
-50.7597
-27.2492
20.3764
0.823761
-11.7066
-28.5418
-60.0626
-32.0024
-7.43332
-25.8577
-20.1067
25.2199
43.2357
18.7286
-10.6645
-21.7889
-7.63682
-22.3712
-68.2552
-55.4739
-17.7868
8.22781
13.4457
40.3937
50.4911
59.815
83.9012
69.9002
27.5478
-24.7667
-61.506
-41.8614
-15.0033
-15.9561
-23.8195
-15.189
-13.1242
0.887293
5.6626
-13.1665
-9.65496
11.8864
19.5239
40.9515
36.4195
15.4006
-4.80459
-19.0981
-14.5493
-14.7818
-15.6246
11.8624
14.7488
5.02525
14.3939
40.6285
54.0149
21.5797
-34.6751
-42.6453
-24.2253
-25.1733
-31.4507
-40.647
-34.5554
-4.50276
2.94189
-10.8353
-23.0453
4.33957
25.3608
21.0744
18.0351
12.6404
0.230215
-22.568
-23.6917
-15.7887
10.862
2.57929
10.7723
13.0629
-7.54126
-43.5908
-57.8259
-33.2091
32.4305
93.3343
142.469
113.419
76.4347
58.6258
32.0374
-4.88131
-32.6387
-32.086
-57.5419
-104.114
-80.2907
-42.3691
-33.8902
-26.5267
-13.6292
16.1275
51.016
9.98371
-56.2319
-68.4538
-61.3103
-28.9116
-7.52378
-6.87431
14.3929
51.3188
25.8576
-5.34788
-6.42206
19.3202
33.4858
42.9448
41.0481
30.6096
35.322
69.9306
26.1725
-7.68479
-0.1725
-11.3658
-18.7797
-8.4366
-2.42964
-4.63112
-4.83984
-13.5234
-5.21591
-38.357
-56.7287
-35.908
9.16977
56.8676
39.1726
18.7076
8.11047
12.7937
69.6064
54.0355
-28.8873
-72.9505
-91.9435
-84.198
-57.6566
-49.1609
-52.7455
-35.863
24.1915
35.6832
23.7542
36.0876
22.8064
-0.244063
9.29389
23.6139
33.5672
12.0312
-30.7708
0.977627
46.1252
46.4115
36.8629
27.602
30.2974
38.0417
20.5343
-16.1887
-20.0853
12.0633
27.6228
5.52338
-13.479
-25.959
-13.6241
-13.2913
-38.0944
-65.5861
-59.999
-36.3518
-10.0331
1.00195
7.71866
18.4515
22.0805
-19.3881
-6.4665
7.65454
-7.72726
-8.21925
-4.37099
15.2583
31.0085
-12.5282
-29.8032
-16.7875
-2.19008
8.53684
11.1072
16.2163
38.116
19.7577
14.7942
11.611
3.19659
12.2044
10.9146
15.8004
18.6185
-4.78755
-9.8987
-15.5223
-30.0131
-14.1779
-3.53484
2.18287
19.7374
34.089
3.47558
-28.2667
-25.0926
-15.0111
-24.5192
-27.4906
-35.4641
-8.3941
52.6458
75.731
17.6206
7.71799
1.06889
-29.1441
-48.4311
-28.6364
5.56174
55.312
40.8219
18.4051
27.0309
26.9363
2.79559
-7.37098
7.88219
28.3181
2.42301
-18.5401
-56.8845
-90.1218
-90.236
-78.9748
-36.4916
18.7577
-2.64373
-2.58924
-0.353739
-17.8935
-5.58659
1.52279
10.5747
45.7068
36.1729
25.0806
26.6127
16.7439
21.0706
13.2552
7.59659
15.9635
48.5506
59.7286
49.7317
51.9277
71.3786
26.1148
-5.87955
-18.1646
-14.9513
-5.76418
-24.3229
-68.306
-63.1823
-36.7171
-27.7042
-31.5384
-22.2571
0.209314
-1.82349
-25.754
-21.745
-15.5299
-21.1524
-32.4608
-13.0663
20.8107
21.275
-16.9642
-39.9844
-42.8388
-37.3347
-4.13834
19.4666
47.427
84.4246
95.9442
43.3497
4.93038
26.4834
39.0277
25.6491
10.2768
-21.1103
-30.8793
-18.1077
-40.8203
-50.3266
-39.4266
-10.399
12.6513
29.3729
29.1793
26.4808
32.6651
-15.49
-59.1298
-31.2451
-19.2634
-32.3121
1.12901
38.1455
70.842
71.0914
13.2147
-7.22227
11.6128
9.5363
9.01688
2.87814
-1.0177
-16.3173
-24.3266
-17.8856
-24.1937
-15.6075
-9.81619
-16.8252
-26.912
-56.9724
-59.5952
-46.5175
-45.3867
-28.1311
-0.864023
6.20747
52.5336
58.124
49.7596
57.6156
45.1684
48.2118
49.5519
21.4901
-3.38147
-31.9319
-42.9651
-23.3752
1.65073
17.2496
16.4409
-4.38232
-26.5997
-15.5086
8.18109
-14.3685
-23.7335
-7.21763
-1.38471
-3.82963
7.17917
-1.34542
-1.91189
38.7803
24.0698
-16.1947
-22.6599
0.484957
14.9314
19.2701
18.8708
-10.9561
-16.8122
-12.7609
-16.1621
-9.50401
-22.611
-25.0059
-7.65441
3.88137
-42.2178
-30.3402
-18.6494
-23.898
-3.88178
34.2817
70.5104
86.3373
22.4539
-4.11527
-8.20095
6.2719
15.8086
20.4999
41.8762
30.1866
-16.9537
-19.3553
-20.2874
-29.8627
3.75757
44.342
44.135
-22.0035
-56.749
-98.1785
-83.5252
-29.3053
51.3777
77.2849
66.927
61.8984
72.4117
30.7135
-39.3967
-47.0814
-27.9588
-33.6899
-39.9037
-42.5122
-28.3698
-63.3148
-63.7147
-29.0851
-6.45743
22.4098
20.0726
-0.497278
7.37748
7.62291
8.52866
12.2983
14.4712
13.7881
21.0146
50.0878
90.6844
27.9412
-26.4187
-17.6986
13.0042
28.5226
22.0747
10.1608
-15.3841
-27.9152
-21.8336
-31.3481
-15.3202
15.9916
-18.9011
-20.4316
-22.3287
7.67305
46.3531
19.4408
-9.61332
17.299
29.8206
12.1028
-23.9505
-37.1313
-28.2639
8.80506
33.6517
16.6656
15.1678
5.95365
-16.0744
-37.8094
-21.7957
-9.25649
14.9221
-26.6236
-56.8463
-24.9054
-12.927
6.38123
23.6427
22.8071
26.1567
11.5009
-1.22469
-5.29815
8.95108
49.9392
37.9912
13.2587
4.28326
-34.5123
-55.3646
-83.7197
-93.3344
-20.4742
52.3579
80.2497
101.17
74.5239
66.2248
33.3332
-28.0896
-50.6336
-43.9141
-46.4107
-33.3345
0.95067
11.254
3.2
-23.1319
-5.11178
15.2143
14.4372
-15.1574
-26.8579
-15.0773
-51.1037
-67.2517
-14.6643
38.1274
40.1612
17.8204
37.7074
50.7249
5.72895
-0.00152791
3.63655
2.64093
14.0998
25.6499
28.9473
35.2347
13.3843
-8.05054
-31.1322
-55.2983
-41.5357
-45.514
-40.2766
-12.5601
-18.8144
3.51778
5.151
-6.25452
10.4101
16.1316
18.2197
15.2187
17.9213
39.6438
14.4137
13.2715
32.2023
27.1062
21.5793
16.6973
11.528
2.23548
2.09868
-20.6085
-51.1117
-32.3047
-15.1118
-10.6107
-1.73545
-6.84552
-12.7505
-5.66989
-0.154305
-44.1791
-28.2646
-18.0789
-4.81986
7.2869
12.9568
19.6382
26.45
-43.148
-72.3009
-65.4778
1.41852
34.8314
80.4014
151.827
104.167
16.0909
-2.1198
-17.6162
-33.5323
-32.203
-43.7547
-45.6937
-45.6441
-30.8292
13.5629
35.5921
63.105
110.768
118.894
64.8128
-14.906
-71.6285
-120.466
-141.336
-102.819
-57.3674
-41.4731
-13.9988
4.99462
31.9186
18.2224
25.6552
35.9768
42.4719
22.8896
-3.95981
-17.534
-6.51635
-18.0533
-9.37344
28.6974
47.8618
44.7349
20.1121
52.7649
68.8054
40.3323
12.9934
-18.5945
-7.72025
11.0967
1.15842
-17.6333
-32.9439
-36.6471
-58.2906
-59.8991
-39.4487
1.23559
28.3268
6.07357
1.29226
16.5896
-18.6902
-33.0289
-19.9975
-2.44044
4.01251
10.0102
1.40544
21.9957
19.7602
17.8264
2.20253
-9.32325
3.89999
3.35117
-0.649176
-13.2175
-5.287
17.4656
-13.5109
-17.791
-9.58007
-6.53043
2.76232
10.7323
4.2002
-34.4238
-72.0512
-46.3973
12.8961
63.9032
94.3069
87.9481
86.9904
72.5999
2.97041
-56.7367
-73.8842
-52.1246
-19.3527
-11.4028
18.7465
15.0639
-16.781
-17.112
-23.2612
2.36139
32.7818
17.6589
-12.3181
-38.7955
-55.2576
-44.7856
-47.6542
-48.1564
-11.4728
12.7638
27.1968
65.9031
37.0854
-4.89494
-13.7038
-2.95751
24.2966
25.588
25.6751
35.3875
52.2467
44.6089
0.342628
-4.36097
3.67046
-13.0661
-23.972
-23.6378
-9.984
1.10462
-5.76682
-49.4359
3.05531
41.1225
26.0141
12.9318
12.4766
3.15399
6.37276
-11.7681
-32.3486
-38.3588
-19.334
-17.3615
-13.686
29.3409
46.6173
-48.5911
-62.1263
-40.3208
-27.8335
-8.18693
7.77256
26.8026
16.3274
8.83334
11.1247
8.31921
3.90741
15.0347
13.6819
18.7104
20.1888
5.99695
-25.1159
-42.4563
-39.36
10.9698
29.1346
28.6258
20.4164
29.4863
1.10685
-15.3251
-9.57974
-0.775992
4.62269
2.4852
-5.36389
-19.7288
-32.4454
4.36312
41.611
57.6992
59.0154
30.3053
31.249
44.1723
-21.0958
-41.214
-33.0493
-9.67836
-23.3807
-43.6523
-30.8187
-24.3004
-41.8125
-28.9971
-11.2426
9.60766
17.2754
-4.832
-15.9152
-8.1843
-12.7887
-25.1542
-31.0186
-9.81096
39.6745
71.9702
61.6876
50.1608
37.3019
-33.0828
-61.9888
-44.6327
-19.2315
-20.082
-25.0788
-2.86796
29.6194
41.4209
30.2602
0.233406
9.3534
10.4459
-6.18213
-9.82045
11.0218
11.6787
22.4343
3.14541
23.7951
66.2378
44.8306
15.2803
5.61472
6.36771
26.0608
11.0553
-42.6662
-54.0952
-48.575
-31.0164
-16.9985
1.18251
5.39981
-39.2215
-84.6916
-88.8085
-78.239
-54.5648
-32.0562
3.37304
55.9244
47.7219
40.1655
36.5937
19.4031
14.5842
33.7857
32.477
41.0568
16.2144
2.41566
0.106674
-3.36802
18.7534
42.4896
28.7147
16.6843
25.1563
2.40217
-6.3401
-8.49559
2.83046
-0.544981
-2.97113
-4.67937
8.82932
-9.35816
-31.1933
-47.3749
-35.5985
-20.3995
-24.9618
-14.4541
9.61617
-4.58162
-13.9344
-21.788
-26.3082
-3.58753
8.97875
0.91297
-1.56036
16.2342
6.33061
-25.4608
-25.4725
-4.04324
7.57156
49.4737
32.6618
-11.7717
-17.7703
-26.1554
19.3563
74.9197
109.409
87.6025
