20.8547
-14.0884
-52.2394
-68.5194
-80.9075
-78.6248
-30.1037
30.965
71.8846
83.232
68.6363
24.8937
-39.786
-59.3279
-34.8593
3.78834
41.2596
25.478
15.841
31.9796
20.7161
-7.47106
-30.4341
-33.5648
-34.4654
-22.1216
-2.36579
11.3196
30.6297
36.7117
18.6031
-4.84626
-6.6926
-2.17849
-4.33833
-3.45533
-1.41978
-13.4493
-9.51271
-0.849787
-12.4446
-15.4809
-18.2122
8.96463
11.8336
-29.4895
-31.2546
10.0335
35.7019
31.9423
25.7148
17.2053
-6.3155
-13.0147
-101.832
-69.9174
38.5257
18.6215
5.84555
48.4129
71.7275
23.0522
-7.83024
-12.6268
-11.0946
-2.10861
-2.59807
-56.6744
-104.158
-67.4363
-12.2291
69.1505
190.078
200.034
126.434
28.4244
-48.2452
-55.9069
-60.149
-83.5708
-70.4113
-34.898
-73.0356
-91.9384
-81.3771
-33.9991
12.4203
38.957
57.7122
49.317
21.4106
-14.5759
-82.0432
-101.782
3.85674
75.41
81.7239
165.215
104.971
-101.878
-145.969
-54.8527
19.8238
47.7324
44.051
64.1388
81.9417
78.4355
53.7101
19.1222
-4.64924
-41.8753
-55.3259
-44.442
-38.2032
-53.9998
-98.5836
-100.772
-48.4346
47.9679
63.657
28.2504
31.0672
18.9438
12.1915
15.8749
4.10574
20.2845
7.34404
17.3633
17.369
-49.0456
-99.6048
-65.404
-9.00201
23.6619
39.1501
0.355324
2.1967
51.4071
62.5487
33.2633
16.9809
10.208
-16.0501
-49.4503
-23.9172
20.6359
51.1692
8.77834
-105.692
-65.8339
22.5654
11.8582
14.1233
10.9202
16.4493
15.8929
4.66475
12.2962
8.22248
-18.9714
-38.471
-24.3653
0.0114475
-5.37845
-2.42037
31.257
-13.2612
-55.4598
23.7482
80.6867
56.5356
43.1054
42.1598
35.2897
-24.4368
-79.5607
-41.877
-13.8729
-16.86
20.2028
37.3156
7.07261
-16.9866
-45.1078
-68.1014
-44.8694
33.3461
45.0399
-19.6483
-100.702
-92.7872
-32.6208
-6.34744
8.97824
55.3158
78.2703
57.5827
43.0517
54.4681
57.5389
31.5384
8.76191
-18.6993
8.05219
49.4889
-20.7185
-65.2275
-28.9463
27.1874
57.6213
66.8424
37.8568
12.5694
-29.3129
-59.921
-52.9886
-84.0099
-83.0375
-47.929
-9.0482
12.0394
-2.13799
7.68542
-21.8171
-52.5366
-36.7203
-11.7285
34.3321
106.025
98.8778
35.6649
-8.11306
-24.698
-22.7506
-1.05886
14.4639
23.9633
18.0389
-10.1816
-47.3076
-18.2661
36.0006
49.4675
47.5478
9.77424
-23.5044
-22.1785
-28.7834
-41.6873
-29.0877
-15.5776
-2.17948
-1.90787
4.33442
4.35207
-4.68283
14.3453
27.0854
19.9296
13.6865
2.60776
-24.0828
-4.62151
28.0331
19.0067
-63.0669
-183.959
-106.028
-17.9883
15.2322
109.475
170.717
150.127
73.5082
12.7438
-18.313
-38.1906
-19.7804
-20.2258
-46.1629
-20.1978
7.78176
-19.4472
-22.8262
-19.742
12.8905
94.0015
70.0443
21.8735
-24.1584
-84.5395
-70.0842
-63.3311
-103.243
-56.5665
9.43254
44.9646
20.1556
-12.3163
2.13467
-2.79405
1.83906
15.8908
24.6784
39.8947
54.0844
65.4687
6.00844
-22.6483
21.7766
8.20454
-33.4159
-6.77033
52.2405
42.913
18.4651
21.9891
9.36037
-9.32829
-29.2715
-60.073
-61.4665
-30.5022
-18.0865
-16.2156
-8.2871
7.33427
12.3554
2.57141
-8.29555
-8.5028
-39.0413
-49.9367
-0.895692
2.6104
-41.4805
-47.0957
-0.106506
58.6719
106.536
90.2791
76.5474
66.358
7.98116
-10.3792
31.6887
28.5279
-34.2779
-164.462
-151.257
-2.20412
-7.09874
-7.95293
29.9907
60.1803
63.2707
45.1806
22.734
1.04081
-24.5361
-21.5384
-19.9599
-16.8317
5.2113
7.39365
-6.29686
-5.97494
26.5452
83.911
31.0461
-87.2713
-62.2983
31.6601
30.6602
-1.1363
28.5125
27.5346
-23.4412
-61.9135
-109.556
-103.889
-69.5181
-28.9489
64.9702
143.18
109.423
44.84
13.2267
25.8159
32.4867
8.33532
-8.03911
-68.8163
-82.1845
-39.6609
-10.45
-40.8076
-39.9764
8.88205
49.891
62.3216
46.2981
20.1297
-18.659
-66.5162
-91.5252
-39.3721
15.5516
36.1659
29.9799
12.7058
28.2742
26.1875
24.5417
10.8754
-10.8181
12.5766
42.3695
45.6094
23.2095
6.12564
2.51367
7.1771
-8.39164
-35.6476
-56.5017
-66.4657
-32.122
2.06376
8.68121
6.26706
-7.75
15.5423
62.8916
16.6514
-25.4735
-14.6783
6.27926
8.12045
14.1631
14.3113
-6.76586
-23.4856
-27.9254
-29.4113
19.5391
56.3598
19.4534
-35.831
-44.0984
-10.4097
4.27134
-23.2251
-55.6347
-14.5147
7.83923
2.40803
-6.44226
-12.8044
3.47422
10.9969
12.2036
14.0014
11.9549
19.6847
21.9022
12.0149
12.5845
28.1602
37.013
16.8544
35.6137
33.872
-17.6538
-38.5976
-27.8096
-10.2754
-26.8501
-62.4314
9.60277
63.7732
22.9364
-29.8078
-47.7424
49.5837
130.537
39.2823
-63.3322
-160.863
-102.305
-16.9504
-27.4937
-28.2693
-35.2009
26.4378
149.307
152.228
72.2407
30.4247
-30.1842
-56.885
-38.5433
3.15269
16.0477
-61.4103
-123.459
-82.9795
-4.62713
108.778
89.8072
28.0846
15.8309
29.7791
54.2732
12.7193
-97.2872
-130.098
-69.2162
0.192977
16.2723
7.19653
15.4212
19.0805
12.8463
-5.33928
-19.6186
-1.60862
18.0676
41.6
52.8568
73.5789
72.5507
5.8614
-21.2938
-30.9332
-39.553
-31.1844
-6.9342
-1.37352
-11.8918
-14.4247
-15.4625
-14.5075
-4.82656
-7.04248
-25.9437
-25.142
-2.05635
55.6715
79.3276
33.2647
4.59903
-21.3648
-26.6254
-17.5955
-34.5974
-52.0737
-30.7812
-11.668
-8.9389
-7.35816
8.17948
13.2643
16.7442
18.0485
28.3381
49.477
46.7344
15.6373
-21.0917
-40.3246
-25.1572
3.18054
9.91185
9.10316
14.6779
31.3646
31.2629
10.7193
-7.58275
-10.1723
-10.2714
-27.4411
-33.4856
-18.4358
-4.846
15.1042
25.6517
0.485691
-28.1148
-23.5156
-6.70891
9.05872
11.6429
-2.96415
5.3916
17.8497
1.08797
-10.4186
-51.0706
-33.8613
17.8188
29.4921
10.3169
-17.6301
-14.3863
29.1459
49.1933
63.3554
73.7787
59.1532
-37.9104
-201.442
-172.031
-56.2038
-23.4388
33.0803
100.08
100.568
86.189
40.9234
-13.4072
-13.9449
5.93896
16.041
14.7367
-10.5679
-36.3362
-45.8312
-46.7946
-44.0696
-0.312955
72.9258
50.4203
6.81056
48.1271
44.187
-27.5924
-39.4588
-2.26836
8.06431
-11.6819
-12.6213
5.59981
-66.6638
-109.187
-31.1917
23.6694
19.5472
-0.818422
-18.3853
0.709648
61.0224
80.8613
53.9082
2.77591
-32.6994
-32.4105
-21.948
-11.7202
-6.26496
9.61184
15.0426
-10.5924
38.655
78.8218
36.2787
-10.8421
-19.6558
-10.4826
-29.0658
-75.368
-48.4654
-5.1396
-2.51921
-19.7607
-33.4152
-25.5233
-7.57402
20.1702
61.5784
100.043
82.7228
46.611
29.2045
-1.09463
-77.3175
-60.4162
-27.0376
-18.0759
-2.96083
27.5412
31.8332
9.13299
-3.29089
-10.5584
-16.3439
-12.5263
1.58591
-20.8204
-57.8065
-73.9304
-63.8863
-26.6596
11.13
38.771
56.069
39.725
11.5615
-7.21512
14.2007
52.7841
58.3274
32.0679
-3.37921
-44.3339
-40.3259
-12.8466
-2.38145
16.5237
25.8487
10.855
9.08014
8.77764
6.1093
12.5563
9.01185
-19.8495
-28.5307
-17.3184
-9.77754
-11.6233
-8.90696
3.27095
16.8647
34.4695
25.5768
9.14894
-12.1962
-31.3338
-43.4925
-41.7384
-27.2242
5.71747
22.7096
-15.3952
-10.0843
14.119
3.5908
-0.00848196
-1.17837
-26.7177
-20.8958
35.039
66.6964
36.4205
27.7381
40.2591
20.0307
-13.599
-25.4139
-23.4427
-18.8058
-38.6821
-46.3892
-16.5623
24.2749
59.0613
65.0922
41.2335
-6.31099
-35.6294
-93.1618
-41.89
-51.6526
-106.674
-58.4463
-20.6283
13.9107
41.6941
58.9673
62.9165
60.6086
52.2328
45.6776
46.9158
28.382
0.0355436
-0.461412
-4.476
-21.2102
8.61764
39.6715
-15.6892
-10.7813
48.6236
27.4328
-15.4052
-50.3522
-42.4439
-33.181
-41.3541
-42.3721
-40.6834
-36.1443
-28.0353
-23.491
-1.75826
41.5574
42.3723
54.531
33.8836
7.12055
-31.0568
-31.7279
12.4635
33.0356
32.2305
12.0716
-5.94593
-19.7439
-23.1923
-15.2758
-0.174603
-2.46012
-23.4908
-48.9256
-54.0189
-57.7839
-24.7539
48.1473
75.7928
80.0146
74.3077
60.1257
30.0732
-9.75691
-28.2617
-27.1479
-26.7449
-12.7873
46.0984
43.4262
-17.6086
-53.1643
-56.0637
-14.5771
-0.734106
-6.98055
-4.92543
-16.1894
-10.1586
11.1909
-9.27002
-32.4929
-5.17979
3.54939
6.72726
45.1746
73.3216
27.7715
-19.3138
-20.2361
12.2236
30.4522
36.1334
12.3521
-4.40892
-8.94517
-8.32312
-25.5267
-37.8555
-29.5741
-11.9648
7.55299
4.17934
-30.5846
-55.2296
-23.774
-26.9001
-15.8434
-22.7587
-17.2478
-9.26697
9.84866
59.6914
109.309
113.995
27.9752
-18.5827
0.0857891
19.3174
35.0286
22.5469
-24.5164
-71.9305
-35.2808
25.0413
10.54
-74.2066
-150.797
-50.1922
23.7632
33.5733
44.7535
30.548
1.7821
-13.6027
20.221
27.4159
18.6828
34.0358
21.7408
-0.211719
-7.63714
-12.2242
41.7467
36.2452
-57.8004
-44.4615
45.5632
37.7255
14.6538
7.19828
-5.84303
-20.1746
-42.5222
-52.9905
-32.4503
-10.2621
-16.848
-34.663
-24.2244
-6.8034
22.4476
59.2331
24.8282
-10.8934
11.1914
36.0127
44.4699
3.58264
-29.2642
-19.3719
-7.62267
-10.8295
-18.8023
-19.4837
-2.84586
11.2627
9.67376
3.39442
-8.87636
-12.0182
4.30156
13.7718
-8.92652
-6.61517
9.83953
21.5622
20.2637
16.755
45.3138
56.2938
20.0907
-10.3777
-17.1422
-19.8783
-13.9589
-18.9242
-22.5622
-21.6823
-19.3376
-16.8443
-13.4651
-1.44025
-1.54038
-9.68314
-11.1453
9.17908
21.4465
2.93181
-35.726
-40.9606
-18.3376
19.9726
58.0308
22.0857
-14.4854
-1.68491
8.93607
11.6683
12.1602
7.77552
10.1538
11.0848
7.62789
11.1809
10.8986
-9.99062
-22.0064
-19.8528
-15.5978
-12.5369
4.3301
3.17942
-17.2521
5.60202
30.4929
23.907
4.73942
-42.8551
-50.5192
-1.30915
-4.625
-10.7945
16.7493
77.9449
82.7779
44.9936
9.35737
-23.5704
-40.2647
-44.0248
-31.2881
0.000181685
2.4586
-18.5547
-24.35
-18.637
-3.01892
25.5812
24.0867
3.26726
8.39921
11.6259
-8.77113
-63.9464
-91.7323
-84.847
-25.1466
58.9195
93.9514
63.2536
29.4528
-2.84857
-12.4767
1.06416
6.33347
4.0973
6.78108
19.0534
22.9051
5.20716
-0.478314
1.35984
-7.44815
-13.7697
8.98539
33.2372
22.3691
-16.315
-22.8364
-6.57574
-7.98901
-5.54401
-11.2784
-7.34021
0.377122
-2.95792
-5.2734
-12.4472
-12.5165
-27.3336
-26.3129
6.64253
78.3194
33.5068
-33.261
-19.5821
-0.39547
-17.9277
-37.4229
-24.0204
4.1389
0.366008
10.7086
15.0645
5.28681
12.8264
17.4711
53.2246
74.3383
53.5243
-5.00333
-145.345
-165.268
-22.4131
45.3853
56.1852
36.9421
25.5915
22.48
19.9807
12.1681
5.27979
-3.8843
-7.44545
-7.82732
-5.20693
10.6949
7.39556
-9.37576
-5.4385
17.7675
57.8613
26.1605
-16.524
6.41241
-5.2641
-47.4435
-61.2388
-32.7741
-17.7144
-22.1784
-17.1256
-13.2297
-2.04033
10.9121
5.40987
-1.41566
-12.7057
-13.0341
-3.4235
10.6619
48.8455
44.0004
17.834
18.9838
13.6097
10.6373
-20.0278
-51.5278
-29.7523
-14.4221
-0.116939
48.5447
61.1348
69.6246
26.0944
-25.9197
-40.157
-35.4162
-22.9883
-6.88383
11.5026
30.9447
-5.09434
-31.7073
-1.16469
13.2547
26.4996
14.2067
-8.75691
-23.4718
-27.5304
-41.1731
-37.9662
-40.5496
-4.01713
8.1867
26.2624
77.1254
46.4301
-4.35813
-6.53532
-39.8262
-72.6269
-50.175
-37.5851
-8.29453
19.8266
31.4642
31.2362
48.2496
72.8782
64.5385
24.4471
3.05503
9.25696
40.6307
2.30564
-145.368
-127.664
3.32951
26.0164
13.3561
37.4718
36.1215
20.8837
20.8534
20.9638
1.37036
-10.568
-20.6888
-28.0071
2.29558
49.9651
35.5502
-4.94103
-42.2957
-39.8158
18.6827
40.3941
8.92846
0.222989
-4.2761
0.798023
4.49536
2.84402
-18.6885
-68.3298
-77.5356
-48.0056
-17.8056
-14.9873
-38.5388
-45.9144
-26.8644
3.227
31.5518
27.4315
47.5929
58.7155
26.8354
30.2252
33.0289
15.4529
-17.9341
-35.8853
18.2945
55.7466
65.3779
43.9052
23.0819
4.56776
-12.9886
-22.2464
-14.6855
-18.394
-21.9415
-6.26764
0.807345
0.835515
-7.15128
-21.5895
-23.7678
-15.0348
8.66845
13.815
-12.6213
-2.02328
12.9662
4.5005
-6.86888
-2.28837
2.0009
-18.699
-38.268
-30.2377
-30.1907
-12.3305
5.79839
2.56602
-8.93036
-14.452
-12.1886
1.82549
17.9511
49.8989
19.0239
27.3314
65.8987
51.452
15.2357
-34.9783
-64.1542
-36.9872
31.161
73.8657
62.8335
37.3618
1.04109
-50.1098
-74.9399
-39.3346
-18.5174
-16.8984
-28.8489
-48.0129
-9.14191
40.7191
21.8171
-13.2504
-4.49538
16.6229
19.2259
4.30348
-17.279
-29.5242
-17.3669
-10.7623
2.47962
29.9469
44.5476
23.2138
2.80165
2.23305
10.8135
6.89634
-1.89278
-23.9678
-23.9165
15.5433
28.0242
18.2582
2.29927
-30.6774
-41.6417
-9.98179
21.2171
13.2557
-20.3629
-1.83568
63.3129
61.0023
34.608
11.4569
-0.902769
-7.01417
-20.8572
-35.6243
-47.4047
-41.426
-32.6676
-20.7191
0.121101
28.8397
18.328
-7.16933
-14.0356
-1.41414
8.71363
-16.9752
-54.109
-42.1655
17.605
65.3654
59.1871
29.2719
7.24289
-19.6353
-27.4886
-25.2182
-12.8687
2.27324
18.3232
27.3049
16.1126
-3.03366
20.269
29.3715
11.0385
-17.9963
-53.8327
-34.3824
-15.7951
-21.6574
-13.8348
-2.94806
5.28761
16.9613
24.3842
19.3725
18.5119
21.9667
1.7905
-4.29328
6.76573
6.44237
7.47491
1.92491
-1.97708
19.1228
6.38494
-22.4436
-17.5698
-13.2943
-3.88103
44.2762
60.1088
26.7599
1.65409
-6.6873
-22.1493
-29.8574
-17.0635
-15.026
-27.5573
-51.2563
-83.7443
-28.7414
19.2873
30.9689
42.8059
42.253
14.3842
-21.0457
-37.0589
-35.549
-46.6204
-73.8891
-49.9308
-8.33928
24.6371
50.5712
69.9119
39.1279
30.5609
77.9457
127.954
49.8011
-3.93325
-21.7497
-10.3708
-13.7494
-27.5362
-12.1523
16.7954
-17.4581
-36.0626
-7.75835
2.65117
-3.67487
-10.1627
-21.2152
-33.6624
-6.84003
-14.2937
-56.2227
-72.2692
-17.2025
63.9705
85.9195
41.0799
-71.8179
-164.313
-62.1312
5.51173
38.6451
115.084
115.127
43.0286
7.92445
9.39383
8.0928
0.040429
15.7133
33.7735
18.4858
-11.7293
-30.3633
-44.0059
-40.0947
-17.9193
42.0634
92.0267
26.0741
-30.7495
-49.9897
-71.2148
-39.6541
18.8218
10.561
-26.1929
-27.1467
-18.6602
-46.6741
-32.3114
30.9028
37.5884
28.006
9.65425
1.277
14.7821
35.3743
27.2775
-20.0272
-19.2808
-8.46407
-16.0275
-9.08355
9.62675
1.47829
-2.80106
1.53099
-1.71685
33.4835
44.461
20.2981
-1.43255
-13.6542
-15.4222
-4.30326
-7.32416
-1.5688
22.7177
45.3495
26.6785
-17.7664
-51.9876
-64.6117
-67.2531
6.84656
88.9549
61.1265
11.9451
-15.0185
-4.19502
-12.9822
-36.6521
-23.5797
-7.91541
-24.0968
-26.7891
-9.47934
12.8159
10.8362
4.19138
18.5209
8.24151
-15.3675
-10.3013
-5.12217
-22.1493
-9.40513
9.42513
14.7719
0.944791
-3.50917
16.5905
19.8489
19.7247
25.3811
31.8823
38.2642
38.9209
10.8719
-28.137
-39.9813
-27.8212
-26.3723
-16.4466
-5.4604
-19.7135
0.896837
38.5156
30.085
10.0394
-5.96842
-6.01609
1.31725
31.0037
13.0065
-19.4331
-20.9734
-12.3295
10.7644
6.79637
-46.8529
-65.3502
-7.33141
14.7928
-2.34971
-19.2023
-19.0963
-12.4
0.865897
-2.67794
0.855497
4.04567
-7.02467
-25.9309
-2.85556
32.9527
56.8341
61.886
36.4759
23.114
46.9709
57.7563
23.5173
-11.8909
-43.3962
-27.6218
-17.9558
-52.878
-42.2643
-18.828
-7.78185
17.2246
28.5775
11.1052
-29.4554
-27.1021
-28.7498
-38.4168
-27.9771
-8.60681
13.1734
23.7181
28.4343
60.6108
57.9622
8.154
-1.4406
29.3719
4.05721
-20.3871
-21.3742
-24.506
-23.8041
-22.0511
0.0467202
-4.06452
-29.4018
-31.9147
-13.0649
14.0693
45.7455
62.5882
29.6284
-13.4399
-25.3342
-17.982
-12.0179
4.16369
22.8217
18.087
-7.79581
-28.1168
9.80938
-18.7952
-53.8146
-36.5639
-11.3753
2.96919
19.0226
62.8451
78.65
15.4112
-13.3525
-22.9702
-7.64284
9.49176
-6.80597
-27.9632
-19.7808
-3.02462
16.7816
27.4417
10.7119
22.4033
42.2692
42.2564
25.3247
-10.2597
-42.1513
-69.3064
-99.2348
-68.7419
-9.15492
11.4864
7.31718
6.49175
24.2799
31.9768
20.8295
-8.00138
-21.3802
5.1491
17.3952
22.5146
24.8554
17.6641
5.25655
-2.54171
-1.05329
-0.00617782
5.56558
9.65654
-0.650437
-10.1114
4.50089
29.2556
14.8565
-14.2503
-16.1427
-5.41878
-4.92006
-37.3602
-33.8938
6.58767
34.8211
4.68061
-20.0227
-27.9553
-37.0367
-33.7334
1.59396
94.3877
95.5899
21.8864
-18.9014
-36.7241
-33.7956
-3.12338
4.09189
0.891825
-23.7516
-35.6264
-14.2877
-26.724
-30.4071
-5.69359
16.8855
29.1952
36.1522
23.3442
2.92062
-34.3364
-24.641
14.3045
18.7703
2.33267
-14.7201
-21.1469
-14.156
1.50096
48.9105
75.7445
41.6944
18.6892
11.6461
12.2603
10.4204
15.0584
17.7871
7.39733
-17.769
-46.2468
-44.6511
-40.7983
-56.6175
-35.1267
-6.1885
2.27938
7.19787
15.9354
24.1013
9.14924
-14.6038
-9.94653
-2.90115
0.427899
5.97889
6.09414
-16.2196
-27.417
-18.8234
-16.9826
6.55447
65.8924
85.2281
48.2639
9.18685
-16.7122
-30.4891
-31.0454
-23.3645
1.71941
1.67902
-9.40066
-29.5064
-35.3331
-29.3411
-11.5
27.115
62.247
51.5476
17.1195
-22.1064
-52.9015
-44.6923
-23.705
-8.35954
17.8848
48.8107
33.2031
4.49134
-12.3825
-10.404
-1.61517
6.28214
9.78395
19.8581
61.2437
29.7455
-48.5624
-39.2896
4.3255
-34.83
-61.0392
-17.6932
17.9871
32.3277
23.9807
-3.19102
-23.1722
12.8884
44.7163
41.1551
27.7781
-1.34121
-21.1772
-13.8637
8.68376
16.1654
4.80257
-14.3968
-46.5019
-19.5386
11.7182
13.544
10.2144
-3.7929
-28.0981
-47.7138
-33.1961
-43.0883
-57.5855
30.7688
105.116
61.8014
23.1993
30.7773
-14.0814
-19.9355
26.7822
19.5926
3.68464
-8.95062
-17.7797
-41.3763
-48.5266
-33.2836
-16.8734
0.253471
17.6183
23.3189
25.6185
-10.5932
-39.8561
2.98728
25.8376
-44.5869
-83.2855
-66.6386
-31.4861
7.64212
36.435
78.4159
94.1791
60.6144
24.4497
9.06514
15.7597
62.6925
64.3337
22.0573
-6.26319
-32.54
-34.423
-16.5054
-16.6914
-3.57003
3.65361
-1.77958
-12.0992
-20.9195
-27.2684
-35.4857
-41.7279
-19.0103
4.56139
5.95735
4.6975
-17.051
-13.3749
-1.03962
4.88459
-10.1688
-26.6932
-11.8802
1.79015
2.45465
4.25366
-1.43613
-1.06442
0.132802
-0.573511
22.8695
72.1989
81.2181
53.9968
28.3653
17.3457
-25.1008
-79.1353
-88.7313
-92.723
-33.1904
48.869
40.0207
8.47725
40.4966
65.9726
46.5713
-0.26646
-20.0234
-0.813938
1.44762
-15.9487
-4.45697
-28.3337
-101.786
-120.325
-36.4356
41.3645
70.7826
75.4279
31.7175
-17.1619
-10.7345
8.549
4.9285
-5.56878
10.2791
32.7991
31.1391
7.50763
-14.6488
-31.8725
-33.0467
-1.15698
50.7371
60.011
18.5842
5.39115
9.26727
10.2315
-19.5343
-50.657
-50.9849
-25.5201
12.4213
49.6105
25.5645
-11.8697
-27.2417
-28.4095
-35.352
-48.685
-51.9562
-25.8194
15.252
28.5237
10.0456
-14.5394
-22.6719
-1.11769
63.4029
76.0937
40.6465
10.9744
-19.6028
-54.4064
-48.5646
-18.053
12.4575
55.67
67.4568
-4.98241
-53.7888
-50.6788
19.0597
91.8818
70.8123
44.2573
47.9308
-8.159
-95.6314
-97.3925
-66.5293
-43.1056
-27.3631
-8.47069
32.6788
42.5902
24.2557
9.33625
17.9861
25.3257
-8.04112
-5.12505
7.11415
-11.1772
4.49861
-5.56845
-39.4239
-23.7937
17.4884
54.3503
109.157
89.0867
20.4381
-25.8972
-38.0426
-35.4478
-27.9207
-42.7456
-54.9087
-28.2184
7.34911
7.32997
-18.0801
-30.0772
-37.838
-16.6504
15.3025
31.1026
21.0617
-11.397
-30.4834
-9.79062
8.45927
-1.38236
-2.30226
14.2786
22.6309
14.2327
0.0382079
4.13872
20.1585
33.9813
19.0865
-12.5053
-9.86357
7.31778
6.09761
10.5991
6.28503
-11.8515
-26.5323
-5.13166
25.0991
-6.19701
-49.49
-15.1937
51.586
97.7996
31.0901
-43.2279
-47.43
-52.4862
-50.8469
18.4024
71.0128
33.5554
-37.301
-73.3864
-41.8138
42.1424
125.945
60.4861
-59.1187
-52.5377
-2.78591
1.54922
-37.7161
-74.6527
-20.5692
37.8482
31.5323
25.5431
11.7984
-25.0931
-39.7477
-8.12547
24.6582
38.8323
23.1021
-14.1669
-50.2299
-20.7546
27.8384
36.1082
28.9759
14.2584
3.45954
-8.16904
-8.13784
6.23299
25.9054
15.7973
-0.605611
-9.58873
10.6334
29.2926
-28.8238
-40.3463
0.564366
-7.03721
-52.1309
-56.0709
-18.0125
18.8512
39.4146
44.2662
8.62492
-32.1978
-30.3641
-4.06324
5.09558
10.411
15.2215
2.15415
-24.4289
-20.559
28.0215
51.6795
22.5659
-9.01088
-13.2318
0.310923
2.78062
-9.64833
-22.9679
-45.6266
-7.38404
51.9373
58.2986
21.9977
-8.77626
20.793
43.5652
9.36064
-43.6153
-64.6325
11.6977
5.88378
-49.4215
-46.4598
-12.6635
26.5907
46.3957
26.3308
-5.35388
-26.4137
-46.1961
-31.6569
2.65413
18.5984
28.5378
-16.9386
-40.7574
-14.8074
60.7589
91.4852
-17.214
-38.7062
28.9111
33.8186
11.0633
-18.1722
-31.7916
-15.1386
10.9368
35.8223
51.4944
26.9331
-17.4275
-28.0204
-30.8
-27.1831
-20.1645
-12.8127
-30.0859
-30.5773
22.8375
51.4659
26.2762
10.6929
-9.85751
-67.4368
-49.9914
25.7009
96.8301
25.7983
-49.102
-65.1369
-51.8469
-9.62083
7.7153
15.5476
17.3115
12.3942
2.47758
7.8431
20.5748
11.9774
4.34717
11.7061
58.6852
91.0306
-3.4471
-39.3156
-44.2442
-10.0018
-11.3776
-13.4657
19.2767
-14.3623
-48.3444
-28.6005
16.111
29.6123
16.3499
3.11131
5.3804
7.97798
7.27986
18.2169
-17.0141
-29.2296
0.16233
-17.25
-46.626
-28.6676
3.61102
0.958906
0.557449
41.7037
83.1056
57.7198
-12.6589
-31.7723
-32.4691
-38.5791
-16.5949
12.2263
10.2202
-5.73319
-4.61441
16.814
38.021
7.63246
-21.8096
-19.2253
-2.68938
2.51095
-5.90741
-10.5774
-19.7148
-24.5489
-8.85452
-5.68116
-3.61525
-3.15966
-11.8891
-15.4171
-12.6172
0.925327
38.7828
74.6693
59.0651
21.9307
-2.9038
-0.850633
0.171621
-0.416319
6.89596
26.24
12.1073
-70.0889
-70.275
-25.9049
7.17959
25.7132
33.1828
4.79473
-17.9714
-23.9898
-32.9669
-34.0788
-9.16747
18.5574
23.4484
17.5759
7.24875
13.3452
37.2384
18.9376
-50.931
-15.6443
24.7124
15.9149
-0.696278
1.39399
11.7026
28.3496
34.8439
-9.40784
-54.4127
-28.1111
-8.83436
11.1365
-20.3802
-38.3045
12.2227
29.9656
-18.714
-28.3828
11.6399
58.4718
78.6497
73.4151
19.0968
-13.3049
-33.1447
-52.988
-58.9826
-41.8911
-17.5399
-27.294
-20.5434
-16.0891
3.04922
26.692
10.8608
1.52851
-7.75737
-10.6089
13.1647
14.7387
-10.0695
-18.9185
13.811
39.4369
11.9104
-34.6341
-31.0013
15.081
43.1774
44.1446
26.643
-9.60908
-20.8887
4.91728
12.1117
7.98148
7.91562
6.39142
3.09557
5.29765
-7.8281
-22.9532
-26.8665
-34.2851
-13.9084
65.4157
64.9857
-5.39474
-36.2831
-30.5089
36.2375
54.954
27.7557
-9.01212
-35.1498
-51.5334
-29.0199
-54.464
-58.3773
-55.3653
-49.8657
-9.91519
59.6045
61.6015
35.2329
16.7168
14.2963
23.4695
17.5694
1.8692
-23.4539
-18.2928
6.99663
10.5846
5.9529
5.89553
-5.02626
5.30161
24.9983
31.517
17.1435
-3.87667
-38.6047
-47.3298
-29.6525
-18.9279
5.43843
42.2224
47.8928
10.0654
-21.7782
3.94723
19.8011
-7.19584
-30.7804
-28.3289
-17.4448
2.59675
12.7713
24.6164
27.6478
-1.72714
-42.6502
-35.279
4.89319
23.5356
19.9602
8.19413
-5.07979
-21.7365
-41.0315
-41.7255
38.1214
47.1219
-0.122543
-9.98092
15.5686
46.635
77.3807
39.193
-39.587
-49.5672
19.8671
45.3321
10.0886
-30.0483
-38.9133
-42.4694
-54.204
-52.2598
-27.8349
-12.5732
-27.064
32.8717
89.3876
47.9575
-30.3189
-40.5967
-11.9518
-8.04463
3.72991
4.50286
-14.3289
-15.4745
-4.58822
19.43
30.1685
33.6348
39.1379
46.1496
38.6342
24.0088
-10.1892
-38.1012
-35.3307
-9.62274
10.1797
-7.96435
-33.8663
-19.7883
4.6581
8.2996
-4.66261
-0.0818966
0.376439
-18.2663
-17.2845
-14.5722
8.02543
39.1159
9.93066
16.6401
35.2428
-9.0929
-32.0914
-57.9531
-46.8846
-9.07234
11.6269
29.3672
58.4976
41.4918
1.84663
-30.8072
-23.0456
-1.74579
29.6738
11.7311
-5.40756
-16.0024
-23.8992
-39.9115
-35.4852
15.2328
11.0572
-13.1208
9.82451
10.4292
2.61082
6.8378
-2.41495
2.85331
14.2061
28.8058
29.7384
26.1696
6.54886
10.8636
-16.6075
-35.6448
5.45036
33.3167
19.3031
-7.20886
-7.70431
1.01011
11.9846
7.29904
-26.3948
-38.7428
0.902851
21.2025
-0.61233
-6.67835
3.03887
-5.97359
-51.3428
-51.5343
-3.25358
24.5103
21.1757
-6.06775
-19.6887
3.73287
38.0793
67.4229
41.2278
-3.52727
-50.4831
-80.8669
-75.6049
-29.9738
24.4425
43.5912
-11.2032
-25.9139
23.9897
41.8032
46.6219
29.073
-0.852492
-7.74028
4.46616
5.71784
11.779
3.40892
-32.8495
-25.5479
6.41925
26.6189
10.5573
-6.68855
-8.08135
-13.4621
5.87647
28.1504
18.8974
-28.0686
-70.0189
-36.0299
4.25298
15.1734
17.1987
4.91342
-10.4113
0.262192
7.20275
8.74878
24.518
30.6251
17.4296
6.76008
1.64197
-4.38508
7.32999
9.62772
2.13702
22.8207
26.4412
13.2964
10.8529
-4.07273
-31.315
-19.9793
-31.7337
-48.1188
-45.7866
-25.0621
-1.34922
53.8859
42.1222
-17.1154
-53.481
-42.4975
-28.8733
-14.8832
-7.05768
14.2558
34.9981
31.7944
32.2273
-3.52446
-54.5052
-36.8245
17.653
44.9569
46.4202
60.435
74.0778
23.1333
-6.63266
-16.3555
-14.5113
-23.8049
2.63611
16.8317
-29.6346
-47.2581
-22.187
-4.4001
-7.25805
-9.7564
-5.25312
-30.5984
-29.8761
-2.59374
17.8542
19.2939
13.5761
1.73952
0.460055
7.12208
4.73651
-12.5175
-22.1307
-34.8079
-6.77145
20.5939
14.6612
2.3779
3.81438
40.419
64.3564
58.2318
56.4479
2.46309
-49.5003
-43.4597
-51.116
-38.4612
-7.07151
33.2252
29.2921
9.77865
-31.2137
-57.555
-15.6972
7.85501
7.8967
14.2758
17.8428
15.0951
17.9851
0.624568
-34.0285
-19.7866
14.8446
-7.80187
-27.0808
-31.2241
-16.5719
37.5931
79.273
68.5615
36.9354
21.5883
6.3666
-6.32431
-33.7097
-51.0032
-51.1569
-15.037
11.2118
-19.0297
-31.7759
0.831707
12.6039
-0.128838
-10.4071
-10.1437
-1.1487
-12.9917
-29.6586
-34.319
-62.9782
-17.8709
51.7152
50.4611
49.1358
70.3563
67.1554
13.8854
-32.7624
-31.8238
-4.73969
17.6551
18.2093
-1.69782
-8.68488
-13.1147
-21.1904
-22.8624
-41.1934
-14.4259
26.942
24.6231
0.531751
4.28286
5.09035
7.93148
1.27651
-36.5788
-66.3724
16.935
44.5007
41.0446
53.555
45.2572
19.9561
8.37484
-4.0939
-34.3625
-31.107
-12.0754
20.3757
13.7842
-18.554
-22.6426
-17.3253
-38.6209
-43.3483
9.30058
42.878
0.0773973
-30.4792
-44.1679
-32.3209
-16.1582
-7.74598
-15.4966
-29.2196
2.43652
61.5644
55.6685
44.0048
28.919
10.6592
7.67828
13.3547
7.1733
-1.69513
-2.01008
7.45701
3.15963
3.78197
6.75306
-7.76691
-15.0382
-4.70029
-5.32506
4.75208
1.65663
-27.1946
-29.5502
-44.8925
-15.3063
35.9329
-3.11438
-39.3553
-39.2449
2.57086
60.5632
51.7608
4.36599
-8.61914
11.9942
10.3237
7.70833
1.29432
7.42235
5.92944
-15.2976
-24.5424
-4.63179
24.4828
16.8703
-17.3092
-14.6569
-25.0761
3.99726
16.6907
-13.4635
0.876385
4.75881
10.3746
10.1757
1.1349
-5.07555
-7.34146
-5.96601
-8.73287
-13.189
6.92648
11.8868
12.0656
4.0572
-19.5346
-14.3054
30.3013
45.0051
22.9792
-1.92482
-11.6901
-28.6565
-55.6626
-53.7327
-18.3267
7.93874
44.3891
46.6307
7.64224
-11.4991
2.64857
20.9003
-10.0406
-38.2324
-14.343
24.0678
46.6768
21.8596
-8.67357
-15.7337
-17.2201
0.727324
-7.89308
-3.40379
4.6556
1.48236
6.51812
8.47685
4.91599
-4.59855
-32.1373
-41.1083
-2.52817
21.2418
11.463
-15.206
-40.6693
-13.5678
27.3848
-14.9671
-3.83311
70.0268
97.9992
59.3775
13.4177
-20.8319
-69.5049
-66.2501
-21.5934
5.53099
5.349
-2.43119
4.01507
12.148
6.91421
12.6325
8.02496
-6.51385
-3.86276
-2.1653
-36.2951
-28.9864
-0.0191229
5.64624
-10.2937
0.489135
21.0572
25.4685
8.03953
4.0411
0.225743
-22.8131
-15.3822
-14.9258
-1.0448
34.7977
99.8448
38.2008
-69.148
-67.4052
-17.9156
-3.27913
-10.285
-13.1964
-7.34793
2.42502
18.2879
18.3143
19.9101
16.5872
10.0668
5.82217
8.19633
11.4751
-15.161
-37.071
-38.6444
-12.38
12.1095
40.3178
49.3098
33.9147
-2.76253
-9.69017
-4.50359
-2.20098
-10.153
0.0899659
-10.0712
-24.1514
-40.5924
-30.3118
-16.5076
-18.2062
-12.7913
6.14763
-12.798
-6.63356
24.1385
39.8307
27.8925
7.09914
20.0436
12.8585
5.68068
-0.271748
-8.2991
-21.214
-13.5383
-2.31083
27.7376
72.264
35.679
-1.51728
-7.43874
-6.8614
-19.9579
-8.5872
19.9912
7.39303
-63.7651
-96.2923
-66.7989
-37.2824
-1.89751
67.076
65.4344
7.42572
-15.0979
-2.62633
-0.236306
-14.4638
24.9503
75.3652
55.8506
15.8276
-11.0136
-18.3727
-19.5473
-23.7633
-14.8924
3.03642
29.0679
24.2953
-29.486
-89.4308
-68.9866
-12.8651
13.8323
9.40705
15.5365
37.2065
15.3622
8.27064
8.95569
8.1881
3.18146
13.6013
26.988
20.0498
-9.95981
-23.1802
-8.71551
-35.4303
-81.0379
-40.9732
9.10923
34.132
55.3678
35.6174
18.9494
14.224
8.6565
20.7518
24.8783
18.3019
8.08076
-7.30888
-29.2448
-24.5872
4.97819
-26.7142
-8.04572
-12.478
-27.0218
-7.17237
6.63542
-0.00345398
8.735
12.4021
0.120379
0.0284963
13.7638
15.31
-4.55351
-9.64827
-10.238
-12.6149
-2.87755
2.08903
6.8107
17.5378
-6.10463
-35.5813
-61.8771
-52.0221
-6.81133
57.5717
86.1667
54.1811
16.0894
-5.03974
-16.7921
-26.3443
-22.2052
-14.7498
-6.24939
4.91866
2.44061
1.63709
8.52598
22.4843
42.5225
26.6152
-10.8377
-26.7593
-11.6553
-25.7494
-41.0566
-7.72117
2.91924
6.7463
-13.0076
4.32842
19.1308
-3.10132
-26.5012
-30.997
-17.4294
11.5818
24.5198
20.0789
6.67922
19.1544
37.3237
32.5382
6.78712
-9.33303
-7.36
-5.67019
6.35589
5.65727
8.69793
-17.0734
-23.5588
16.0153
63.9981
44.6026
8.06833
-5.08119
3.00216
-19.4887
-77.1657
-77.3466
-72.9089
-25.9032
28.7577
5.70976
-8.85623
-15.0959
-8.6868
-7.18022
-10.5289
15.9113
26.1867
13.4877
25.4233
62.6351
60.7853
28.4633
-6.04065
-11.2449
5.87779
4.8563
9.6779
-7.35033
-41.1053
-36.2367
-18.752
-13.4196
-3.35072
10.0803
17.4739
-0.981254
-18.3338
-35.3305
-34.3847
-36.7359
-53.004
-35.3583
66.1646
80.3847
43.9828
32.9968
38.561
21.831
4.17555
-3.25134
-7.48791
-6.04328
-6.60518
-4.36549
5.31336
-1.14455
-1.64002
7.55465
-10.9372
-14.8105
12.5965
10.8074
-25.117
-22.5637
-10.7157
-13.7568
3.78062
7.75895
-49.0099
-65.4955
15.8177
38.6857
-1.10165
-8.21393
49.4156
68.5898
31.0072
-5.53866
-27.6459
-20.5964
3.92537
18.067
-18.2027
-44.8034
-41.7018
-11.3215
7.67308
12.1463
31.0818
42.7054
5.1304
-4.93039
11.3316
8.88495
-22.2762
-29.6129
-4.07004
21.3725
26.1859
-9.37875
-25.4445
-33.8383
-81.1794
-64.2369
-0.882053
55.1921
53.5501
50.7606
82.9107
77.664
25.1397
-5.22078
-14.0564
-19.4068
-35.0829
-38.4739
-30.7638
-21.6491
-20.9953
2.70819
-0.569269
-10.1692
-9.407
22.7703
23.0476
-3.83213
-20.1329
-23.2968
-27.1035
-17.7914
-11.5721
-16.6317
-0.933078
15.4287
18.0832
14.6255
12.968
13.3738
8.5335
9.45066
32.0452
46.989
54.6795
29.6378
-2.04207
-54.1396
-78.6053
-49.8689
-4.26144
39.1301
35.5565
26.7612
18.07
8.99749
-2.32336
-16.9035
-9.79246
-8.24048
-19.4345
-26.0343
-26.512
12.415
37.4645
17.9111
-15.5776
-31.6366
-11.9835
-4.7978
-14.4851
-24.8674
-9.53129
18.7985
10.6126
-22.2344
-21.0535
1.29144
5.34319
14.1058
24.5665
19.8291
1.06278
-29.0971
-24.6722
23.1412
77.0718
59.2303
23.6122
7.55491
-24.774
-52.681
-35.4976
-7.88148
33.9598
44.7883
-16.7024
-36.6561
-5.38947
-4.81413
-22.2313
-18.519
14.6839
47.343
30.6575
-16.4663
-42.4097
-8.21997
21.4539
14.2248
5.59599
-5.93912
-27.6316
-38.1809
-35.4328
-16.3505
19.909
13.773
-10.4804
-10.0449
12.6337
30.6653
31.1811
0.180483
0.7608
19.8741
35.2526
-13.5218
-46.3342
-94.6203
-53.865
11.4538
23.6986
16.8661
14.8475
21.8258
35.05
47.2706
42.9932
37.4364
26.1441
-1.57394
-22.1997
-32.5947
-18.9832
-6.45644
-12.5589
11.8315
12.4189
23.9128
26.1902
29.2506
-0.323411
-18.0134
-24.9826
-29.9631
-36.3903
-36.5956
-15.2398
40.4353
44.0782
-25.0835
-56.5614
-40.1164
-20.2255
-23.5926
-33.017
-20.247
3.46964
23.2366
7.19431
-17.7692
-10.9476
-19.1094
-31.5573
50.6035
128.221
99.8099
45.0627
-38.8235
-51.6383
-6.1323
23.9457
18.7903
0.940641
-8.75785
-4.2111
16.0636
22.5081
24.8169
20.6949
13.1198
0.261832
-37.4284
-42.5313
-55.5287
-62.7502
-33.338
-23.5389
7.08831
41.4678
31.8004
0.531604
-18.6416
-17.7654
-0.160066
16.8919
2.19684
-35.9477
-16.7708
4.45491
-1.20232
14.8452
55.6839
72.4804
32.4499
-7.25733
-16.4631
-12.8399
-15.5173
-22.1121
6.80737
23.1971
9.59977
-1.98508
-1.71624
3.14572
-8.88386
-15.0325
-17.5924
-8.49685
69.0311
72.3571
-3.96065
-53.4385
-60.3323
-50.2344
-29.8883
-13.5502
-15.4683
-34.1465
-32.2669
-20.5562
10.2778
52.7186
66.3927
30.1893
24.8781
40.2753
29.7887
3.27712
-42.8938
-36.0726
12.3982
31.5507
14.1869
-2.05402
-15.7218
-22.6352
-15.4782
-0.930542
37.1892
40.1083
-8.70624
-78.2297
-116.523
-73.4932
18.3625
57.6937
45.3102
17.7515
-19.8824
-7.7647
40.0862
43.128
28.8755
22.5503
22.5211
16.6791
-0.185164
-7.86185
-21.9762
-24.6559
-8.77689
6.25613
13.168
6.75372
-12.2942
-3.3914
5.59573
-9.67416
-17.2283
-7.62816
-14.9168
-7.58041
-3.97254
-7.12355
-8.79971
-6.85817
4.78217
10.6924
-7.24401
-12.9159
-0.14659
-6.07668
-23.9985
-10.179
54.2116
63.723
32.3143
8.82406
-10.4635
-22.4218
-24.5137
-19.7267
-17.8564
-9.73851
-2.78218
-1.89748
-3.44393
-5.64398
-4.80317
-1.92193
4.63121
17.2867
34.7164
22.1218
-32.6884
-39.2308
-16.149
44.1178
36.8524
-33.9654
-42.7565
8.62943
26.6039
22.6375
23.7297
16.5032
13.0257
-2.55133
15.5956
41.0027
-22.1452
-58.5114
-9.02361
13.744
-1.62369
-12.8539
-10.7404
-23.4662
-17.3307
22.3337
41.6378
25.4093
11.612
-4.72603
-19.2799
-22.6317
-16.5292
-5.22352
-13.9905
-28.1108
5.10998
25.2741
2.62579
-12.02
-19.4914
-12.5661
-16.7703
-31.2081
-19.4129
-8.62775
7.47717
58.756
69.3919
33.8045
7.77772
-20.9186
-42.8838
13.9969
49.4689
21.5105
1.03705
3.93239
-15.4101
-30.2919
-24.7219
-17.9424
-9.01141
-6.47766
-5.84876
8.2247
8.27391
-22.2816
-31.0827
-11.4958
4.67464
28.1664
38.5354
5.77049
-21.833
-10.5926
16.1158
26.8407
17.8809
15.0095
17.8733
38.8908
36.0272
-23.7071
-35.7847
-6.97627
3.16665
-16.1514
-26.0215
-19.0017
-8.39102
0.730078
1.73903
-6.81712
-1.56399
6.84554
5.33768
-3.54355
2.01816
5.39225
-9.27749
-26.7987
-20.4039
14.7424
28.342
19.1652
12.3806
-5.55298
-39.5314
-56.4159
-55.4638
3.5076
19.0731
30.7844
43.8927
35.5667
30.3635
19.16
8.57861
6.32776
3.96605
-13.0789
-26.5069
-12.8233
-9.61623
-20.0457
-36.2768
-29.7286
0.824273
36.4797
69.7391
57.1114
15.8728
-27.2875
-54.9425
-41.5423
-6.22516
7.22829
3.59327
-3.86148
-28.8431
-48.14
9.00056
70.1298
44.6337
23.9273
23.0141
38.373
28.9455
-1.59587
-59.014
-91.9139
-51.0123
-19.4529
-14.6895
-5.04942
-7.36061
2.22903
19.1834
23.5532
30.553
40.2793
12.5428
-14.8054
-7.39511
1.53636
4.38218
-1.92695
7.30801
18.0888
31.5084
26.7868
17.3738
1.15939
-12.9126
-24.6199
-13.4623
-5.67771
-11.2324
-22.8067
-35.0401
-17.2793
-12.3497
-1.46549
46.1806
59.4192
3.53208
-63.0585
-1.49689
21.5249
7.45142
-5.20431
-2.21597
-3.68855
2.58502
-2.73826
-22.7773
-22.5997
-10.4145
0.93391
15.914
10.218
-8.13394
-24.6878
-35.5008
-31.6776
2.36964
30.7678
6.91255
18.3346
45.8914
20.9036
-20.49
-24.2936
5.55632
14.2893
16.484
11.6273
7.20051
14.7133
13.2575
-4.7999
-9.07109
-2.19682
11.6698
57.7571
55.7625
33.5967
-7.49248
-60.2503
-63.1746
-15.9704
1.31017
0.786712
-10.784
-6.89076
-6.79691
-10.8419
-13.2386
-11.8439
-25.0571
-20.017
-20.9111
-23.8585
-1.62771
26.2339
35.5162
30.774
5.3453
10.974
6.6453
-1.64338
49.1618
46.7148
24.8605
-21.0382
-101.139
-34.1264
-51.0376
-62.7294
7.07245
44.3022
49.8488
36.0396
-8.81317
-73.0189
-56.4474
2.77893
37.7558
37.8319
3.01343
1.88742
11.886
18.8251
8.49718
19.1265
59.2248
24.5313
49.7384
89.9158
31.4202
-9.47076
-17.347
-32.9395
-45.2006
-43.6041
9.80499
5.20533
-35.4024
-22.1266
-0.640321
-27.3313
-39.3494
-23.4133
-23.9734
-17.3305
13.4242
-0.563259
-9.96904
-34.3866
-25.3106
-6.48747
3.88271
19.435
29.2027
18.8186
-21.557
-24.4328
3.00063
-2.48487
-3.32416
20.3084
18.6639
34.4849
50.0924
42.9713
28.1656
7.30169
7.29749
-5.03316
-5.2085
-7.8915
-12.8683
-10.8301
-8.27622
1.84027
-0.0139103
-0.77299
-13.8328
-32.5303
-10.2939
27.2531
25.8672
2.49972
-14.4826
-57.0463
-58.802
-15.6347
-4.68712
11.1454
7.98473
11.1462
13.3881
18.0829
22.3769
15.3742
10.9842
15.8792
24.0699
30.4628
-7.45133
-51.2063
-53.2362
31.015
73.2739
49.1931
66.0657
27.7171
-67.3313
-61.4642
-3.06123
9.04414
35.1067
28.449
-8.06581
-32.8102
-52.0633
-53.8542
-41.8862
-26.9106
-10.6642
-1.84619
-12.3674
-53.7264
-63.5325
-18.4603
-16.1445
-9.52665
46.274
49.4438
27.7051
12.6778
2.25111
7.04858
14.3673
24.5014
30.031
31.1443
33.9311
34.9517
39.3404
36.3687
21.8089
-13.6609
-28.9408
-5.16614
-3.4359
-6.73522
17.8226
11.8223
-5.34174
-3.5956
-18.8036
-66.2872
-86.8728
-43.4835
-3.12545
9.87516
2.17479
3.24493
1.94883
7.35253
38.8886
74.9207
68.6096
42.8782
-1.10709
-74.118
-81.3198
-30.5721
-13.5819
-11.8594
-1.52262
22.0915
37.382
9.95973
-8.33891
-7.10125
7.11601
3.7129
-12.8722
-36.2588
-15.8693
30.0727
-11.2918
-23.9882
27.4947
64.3796
46.2491
-2.86274
-21.3561
-22.2356
-22.6029
-15.9083
-3.17939
-0.268505
-4.07057
-3.89932
1.396
8.94942
18.2764
24.7769
-16.9237
-65.9024
-34.4679
-0.950909
-4.8323
9.98173
25.6706
30.994
25.5967
-22.6833
-65.2262
-23.1506
2.67279
20.1769
28.4971
37.3518
57.1629
91.5298
78.7675
45.3182
-9.25116
-87.5335
-62.6163
6.99466
7.97151
-24.7019
-42.4796
-47.2813
-39.5121
-26.8049
9.83963
24.9551
22.9655
8.72323
-3.04795
-13.216
-26.4512
-36.5702
-9.36375
12.5338
22.1154
12.9663
3.28778
12.6475
9.53572
8.05841
5.26998
-13.7418
-7.94247
46.7304
34.6279
-9.20975
16.7901
45.0336
29.3149
2.97049
-15.8253
-30.8024
-31.4979
-26.5193
-21.9809
-6.4453
-4.12142
-31.1138
-31.5877
2.21907
21.6237
12.1059
25.4698
74.2236
50.5999
-10.3901
-89.9193
-85.4784
-37.777
-10.4703
-0.779394
-0.093959
5.23164
9.25693
17.0502
25.1482
16.4627
1.95973
3.29368
11.0136
7.74836
14.475
6.9283
-21.105
-11.8466
16.0598
43.891
32.8337
14.2574
13.7374
7.16286
-3.13606
-12.8427
-10.0643
4.1436
4.57375
-14.0775
-24.5994
-20.7223
-12.262
-2.02453
-1.04496
-8.74346
-26.5627
-10.6033
10.607
15.9392
-1.18406
-6.04431
-4.00957
-3.18464
-15.4182
-21.5505
-11.6006
-3.67884
22.0499
24.4076
43.526
15.9427
-52.5311
-73.2623
-6.39924
32.2337
58.392
65.1668
47.4668
25.5985
1.25926
-15.1014
-27.5068
-33.8792
-20.9117
-10.4399
-8.75726
-10.5266
-14.4024
0.266337
-9.5504
-8.02931
29.5788
45.3378
14.1591
-15.4257
-46.8696
-41.2821
-18.3932
-2.39588
-0.919256
-4.25593
2.55211
16.5239
24.4936
21.2659
17.9781
14.7194
3.40444
-1.16843
-5.85943
-2.13351
11.8625
30.8786
46.0342
41.7229
-77.6824
-138.256
-42.9079
32.2578
19.6457
-0.940635
-19.765
-5.81978
56.8961
53.0169
18.4999
2.33586
1.82416
24.7781
15.9626
5.96156
25.8877
-8.43176
-63.6311
-93.6684
-107.549
-41.9505
39.3757
56.4323
65.9601
57.1407
17.4478
-16.7637
-19.7321
39.2375
39.8903
-16.6303
-29.194
-15.5705
-18.7265
-5.78238
-8.19196
-4.28028
-2.07846
10.2943
82.4203
88.6758
4.19036
-43.269
-49.7552
-55.1485
-28.8777
-30.307
-39.229
25.2828
19.3504
-33.2373
-21.0424
5.15665
-0.146808
-1.55523
-10.0068
-3.70302
9.66881
48.0926
91.4246
57.8261
-58.8108
-146.98
-59.2396
21.4624
20.4685
49.1178
34.1547
-26.2505
-7.54598
57.0367
53.7955
23.1312
24.0963
32.7685
9.79654
-36.1917
-33.1504
-19.4699
-8.42536
11.6286
33.8335
59.8158
15.9273
-12.349
0.117466
-5.2556
-25.4914
-56.6735
-43.8181
-16.8431
-15.5301
-30.4584
-34.6036
-26.1093
-10.3037
19.2917
16.1002
-6.35088
-9.90702
-11.9474
-6.16139
16.8255
17.0954
20.9138
29.9952
19.7637
9.42649
-2.01905
7.76647
14.6885
-3.70028
-18.9731
-13.0898
-6.43059
1.21094
18.0081
15.2239
-5.42987
-6.42668
0.889972
10.0133
13.9709
-1.38013
-6.57265
1.90408
12.3938
14.4705
-2.37588
-14.4311
-6.11187
5.48669
8.68079
2.72406
-6.54199
-6.78311
0.666911
-0.315204
-2.78411
-2.00129
-0.736244
-1.68911
0.83504
-5.11696
-4.88342
1.92754
2.04864
-3.95326
-5.47071
-6.31964
-7.44026
-2.0845
2.36412
4.2758
0.262092
-5.81232
-8.74422
-8.50473
-10.1677
-7.17857
-14.2534
-14.3729
2.5448
2.01458
3.80714
21.7361
33.6275
46.2043
28.6866
8.31041
-2.17018
-8.68358
-12.926
-14.4994
-14.1039
-4.1672
-6.44072
-21.5497
-25.2995
-12.0529
10.158
17.286
11.3519
11.7063
6.34318
-6.61601
-9.06643
-20.6041
-11.9803
-0.151671
17.1679
19.7915
13.1339
3.88275
-2.45935
-0.731818
2.18249
17.9193
27.1631
16.5633
3.04455
0.609042
-4.9564
-8.99845
-11.7444
-19.1115
-24.0688
-22.8517
-13.3425
-14.3067
-13.0746
-7.06364
1.83599
5.58535
7.2886
9.94154
14.6359
13.7639
9.95775
3.54827
-0.134951
-0.952474
0.197043
-0.68266
3.67537
0.604577
-4.77565
-3.96991
-3.95922
1.26902
3.10478
0.0959165
1.39864
6.29498
5.06084
-1.85282
-3.12226
-2.97984
-1.88449
-1.02579
1.261
4.34247
5.27159
-0.234706
-6.4155
-3.62936
-1.55103
0.75206
2.236
1.4291
2.39827
1.20124
-3.00793
-0.775032
3.15918
-1.84537
-5.94388
-8.31596
-3.60614
6.36953
13.4574
4.19069
-8.88575
-9.72746
-3.1067
5.64277
4.60388
-1.28895
4.65937
13.9927
8.54562
-3.21401
-6.99468
-5.99591
-4.28807
-3.00491
0.38113
-3.21475
-9.57424
-11.5777
-11.2667
-2.79956
2.44298
5.20754
2.86121
-0.294569
-0.503348
5.36611
1.01263
-4.96415
1.47314
4.35037
6.29024
7.44769
3.88269
4.72135
3.51021
-4.72462
-5.64544
-3.21739
4.58507
17.0719
20.3219
19.4877
10.0935
-4.51752
-10.2489
-10.4711
-4.50766
-2.95397
-2.80257
8.64397
27.5994
20.7095
4.98777
-6.74365
-10.189
-11.1437
-16.0591
-24.8502
-35.4977
-33.3789
-24.2538
-19.8008
-17.7257
-13.905
-2.45966
6.8985
-2.84357
-8.26133
-2.96114
-9.51439
-16.0214
-4.7084
12.1942
39.1061
57.7015
46.3398
32.5632
34.1308
38.1908
35.9714
38.3426
51.3849
39.9793
23.974
-5.05092
-27.9859
-32.307
-38.5549
-42.2621
-43.0122
-38.2387
-36.3909
-37.1881
-41.8768
-44.4474
-27.9301
-19.8845
-24.2933
-19.2994
-17.8991
-17.9024
-12.8498
-1.23691
6.01297
20.6171
26.9397
32.9878
38.3336
33.6994
37.2232
39.1964
43.8218
31.6347
17.7478
10.7934
12.8582
40.231
69.2627
24.269
-9.54038
-25.6603
-44.4103
-47.9744
-39.2754
-27.6135
-17.8121
-8.13511
12.2998
19.6942
2.22891
-14.4259
-19.6226
-19.1891
-16.5389
-18.1755
-21.6025
-38.0566
-52.0033
-19.6649
1.6929
7.93651
12.7286
24.3983
32.4459
30.8474
32.5197
31.9497
23.9629
20.3201
18.7973
5.53915
-7.43391
-9.58603
-11.7055
-6.26739
-5.91756
-8.14343
-9.45488
-15.7301
-23.1638
-14.39
-0.153791
5.40625
7.25475
9.73013
-1.47841
-25.1452
-45.5879
-34.4322
-9.94984
13.0324
34.3449
31.7652
39.3454
65.967
63.8607
60.1437
5.23857
-41.2402
-42.2067
-30.5066
-22.3586
-4.72369
-3.11492
-14.7408
-12.324
9.96422
19.4726
12.3261
5.8184
-16.2733
-29.3054
-32.8323
-33.6414
-70.662
-49.6761
-47.2279
-44.5391
-6.26745
30.6279
51.9356
59.5997
44.2668
32.2743
40.2007
57.3281
52.9197
22.5721
-17.6381
-17.7105
-6.46876
-16.145
-24.352
-31.7044
-30.4296
-28.9479
-17.3684
17.5136
35.3982
3.85292
-8.83311
25.3839
76.2086
68.9351
13.0263
-52.3211
-64.7874
-38.3372
-2.87915
15.1152
21.0144
50.9211
34.0581
-13.2251
-27.9615
-46.0555
-60.02
-42.9575
-15.761
10.0776
21.8919
12.0384
-7.61809
-7.99757
-16.6509
-5.62107
-2.50714
-6.43216
-12.2477
-19.6139
-19.974
-34.1679
-6.51558
21.2948
38.4085
50.3635
49.6287
39.3175
27.8795
28.4251
4.83624
-28.4966
-57.8316
-59.3233
-16.375
11.1859
33.2457
54.91
55.7368
60.9333
73.0476
57.2904
21.7324
28.7458
28.9407
29.824
-19.1658
-42.8718
-54.6777
-66.5778
-74.1821
-81.2662
-87.8235
-90.5122
-86.4573
-73.3313
-60.8192
-39.0627
-20.9906
3.67241
83.5857
70.7176
52.8138
43.0273
-27.8572
-61.11
-7.78798
13.5382
14.7404
35.9936
100.131
113.805
67.6853
53.5125
62.6767
47.0495
21.9498
-20.4101
-43.7967
-44.6749
-73.4952
-60.6208
-34.2156
-30.3931
4.11266
16.0471
27.591
104.826
132.676
17.7988
-74.9377
-91.0909
-66.0202
-51.3384
-38.3975
-17.3274
-16.4959
-2.9065
15.1177
8.76001
-23.2444
-20.2758
9.2764
22
32.3832
30.5373
16.3661
-29.7048
-38.335
18.8386
42.6365
91.3334
75.2303
-8.14515
-27.4028
-27.9102
-9.22272
-3.41432
-6.58414
-1.66666
37.6446
58.6157
23.0272
12.1026
-19.4947
-39.9952
-52.4363
-71.4633
-71.1288
-40.2468
-48.5938
-110.647
-115.386
-47.9243
20.6818
62.9138
58.5075
61.4041
77.6175
16.3038
-11.1542
100.906
129.877
26.3875
-17.8029
-57.1467
-85.4298
-85.8897
-61.3193
-1.45289
40.7167
12.7389
43.48
148.626
228.524
214.406
82.7658
-21.016
-78.6349
-73.8303
-108.269
-178.262
-165.839
-113.571
-67.3573
-20.1507
10.294
16.2493
12.8449
20.5624
58.7847
64.7071
74.3719
37.9803
-79.3161
-146.097
-69.322
-12.1487
10.6378
63.8191
102.46
68.6531
20.8854
17.2897
24.4152
18.4236
12.8713
-19.1108
-42.8786
-69.1325
-48.2907
22.5949
29.1371
-28.1635
-26.9496
8.52297
33.5354
25.2968
21.3888
0.879844
-21.2048
5.40226
48.8404
103.589
121.512
99.6148
37.7243
-25.3737
-65.7293
-106.844
-182.694
-144.902
-5.75823
102.338
-24.3506
-89.3743
107.769
177.198
43.0887
-61.798
-114.882
-107.208
-51.3597
-66.885
-107.078
-118.488
-71.2756
-3.47259
30.8498
38.349
96.8909
287.178
227.79
104.5
218.905
132.241
-81.7043
-126.563
-34.8788
-15.5836
-118.443
-106.842
-28.8573
-13.5121
-4.11652
-15.6616
-29.7692
-35.5462
-27.8362
0.785996
16.1752
-106.486
-137.763
-116.434
-121.52
-16.1563
20.2043
42.7368
58.6693
64.9225
116.277
72.0715
65.3546
37.9062
-35.276
31.7517
23.6706
-77.2634
-29.7071
62.6244
109.942
209.102
222.915
17.9168
-143.064
-177.092
-83.1832
-22.9059
33.3059
78.8175
75.2148
77.5388
-102.391
-243.06
-233.34
-94.4329
189.455
165.254
305.777
371.395
46.6938
-234.924
-304.475
-196.054
-130.45
-56.5242
-4.94706
-36.7196
-74.2679
-21.1803
27.98
-25.7792
10.7572
128.808
160.496
7.38655
-138.309
1.42473
-18.7213
-62.1863
-94.1231
-98.2791
-72.0281
34.0596
122.942
88.7427
-8.57527
-21.4965
10.7458
-99.3751
-57.11
103.46
270.837
268.526
186.327
78.2016
7.80338
49.0872
-27.0744
-29.7907
191.909
95.7452
75.149
-120.188
-188.898
-79.7614
-98.0009
-105.602
-16.9653
89.1553
-22.8012
-168.506
-265.102
-250.662
-208.472
-151.051
-3.19545
235.827
183.375
-57.7935
-187.471
-149.658
-148.828
-24.0922
48.6706
58.7323
150.524
178.389
98.8955
65.1401
98.8434
35.2461
-76.8904
-30.5609
191.45
459.45
245.281
6.31917
46.3796
29.0313
36.7746
133.431
128.952
81.0661
23.1037
-113.072
-335.714
-419.312
-366.926
-228.599
47.3204
197.884
144.483
56.9802
-37.664
-167.601
-159.726
-204.524
-233.214
-178.621
9.79067
127.222
-74.1534
-111.563
-74.3009
43.3806
520.732
646.926
229.218
160.221
10.4214
-58.3924
51.1666
71.0113
-15.9818
-92.9772
-91.1655
-97.0105
-95.686
-38.5758
-99.6419
-176.935
-85.8003
-68.8038
-93.4901
-58.648
-182.405
-200.605
-5.04115
47.5286
73.4268
16.1129
39.5182
148.705
153.802
141.336
161.878
21.5417
-97.9688
-1.78197
99.7874
-14.4203
81.9069
455.166
484.946
124.703
-274.066
-428.402
-452.878
-345.074
-58.5874
68.1549
209.826
180.258
124.372
27.2626
-0.141681
44.8671
44.0488
-27.8298
-93.5332
-64.7588
-79.8521
-188.78
-195.115
-111.526
-116.747
-48.1991
196.326
79.2885
-160.467
-178.722
143.54
477.771
150.405
-29.9023
-66.3815
-38.5522
-13.4297
-11.9792
15.3546
102.948
-83.3692
-263.256
-151.021
70.0282
211.237
290.388
237.61
124.384
74.739
81.0306
-239.182
-574.455
-288.443
-19.8629
67.0356
19.8193
16.1304
74.3823
4.94515
-133.495
-71.9275
34.9043
121.054
157.88
179.661
153.591
113.203
84.4168
34.9587
-29.6886
-244.721
-220.397
93.2354
14.1589
77.5658
470.985
299.447
27.4536
-64.0119
-59.7548
-20.7092
-96.0306
-235.937
-236.315
-171.562
-132.469
-142.975
-129.195
-152.026
-174.32
-109.893
119.606
299.396
199.154
43.0596
-151.149
-72.2578
22.6453
-36.0805
-24.7247
-25.7151
-154.289
-84.6517
40.2117
34.9446
72.4934
272.268
356.569
218.807
160.473
155.624
1.56786
-186.049
-97.2664
-58.015
-148.574
-124.489
-89.0877
5.39336
41.8283
73.73
180.767
211.148
179.295
67.0748
-32.9176
-138.99
-192.683
-125.252
-86.761
-56.3931
-124.41
-191.445
-127.123
-67.2056
-25.5086
21.4513
41.2786
66.998
113.455
82.7151
36.2671
-52.1465
-88.0859
56.848
70.3364
181.861
150.214
196.961
101.026
-31.0317
-71.087
-140.885
-176.162
-198.778
-213.177
-207.903
-122.633
285.978
431.428
137.735
115.065
129.56
49.0831
-55.11
-91.6252
-178.199
-167.306
-150.511
-69.238
-6.68303
15.936
-7.43214
16.1342
34.3489
33.8009
68.7517
82.996
-102.502
-183.914
26.163
65.2051
33.2166
29.2653
37.57
58.1804
40.3791
-28.2672
-186.504
-76.1134
34.7161
29.3697
64.4665
102.672
108.782
107.794
118.369
81.8612
-36.7252
-79.9104
11.9179
27.6028
7.51864
-11.6921
-15.3336
-13.3493
-47.8137
-43.7633
-3.52986
-25.1152
-39.9104
-22.9365
-23.3499
-34.4018
-81.8175
-103.286
-40.7974
59.3141
46.3165
-48.8304
-53.4596
-38.6353
-0.7713
2.83281
2.27979
2.37963
-18.1801
-8.45225
59.4027
54.4209
14.0087
18.6675
53.7963
120.48
93.6317
29.0816
12.5699
-50.263
-111.059
-67.0467
6.13678
44.2825
20.4231
0.687743
-23.2296
-53.9414
-100.636
-92.1026
137.105
164.721
90.9574
54.7708
-15.0347
-69.3296
-32.6904
25.618
9.49381
-24.32
-48.8849
-30.3188
10.262
7.30365
-50.6677
-58.7852
-0.90266
31.1643
36.4147
79.4645
-44.236
-108.396
-96.1431
-75.3915
7.53643
77.6946
113.151
23.6605
-56.1793
-89.7543
-44.7088
36.4213
80.7561
40.9138
19.9149
27.3612
24.5149
60.4967
95.0417
107.63
77.6687
22.0786
-27.8809
-44.8323
-112.854
-234.29
-257.707
-175.491
-84.4736
36.9781
119.587
98.6007
59.1939
88.8875
116.423
90.1366
52.6451
20.2354
12.6391
-10.7582
-48.8737
-23.0284
23.5069
22.6971
34.2442
66.7985
57.5746
65.3752
20.452
-62.0058
-120.679
-110.837
-41.3479
-35.8422
-62.4167
-94.2775
-86.0144
66.731
126.003
68.5395
-25.9964
-23.1313
-16.6094
-36.4691
-35.5733
-14.8521
-4.07748
21.5452
84.7058
137.192
114.456
-8.52008
-121.918
-132.699
-114.208
-1.34649
92.1995
3.07986
20.808
53.7434
44.5191
-34.979
-129.807
-116.732
-2.21187
60.954
85.5685
79.102
39.5348
-9.23803
-20.1474
24.4025
46.5579
60.9866
77.7899
32.3729
-20.9569
-57.3561
-103.474
-90.3359
-28.8837
54.5562
143.631
134.109
37.118
-24.3026
-71.1938
-101.762
-101.681
-93.4927
-115.567
-57.4627
15.8258
52.1433
47.3702
20.9747
43.7869
28.2592
7.59434
27.2247
20.8287
4.69732
-4.68566
-17.9139
-27.8085
-4.41476
23.4009
53.0421
44.0509
16.0562
21.8889
11.2794
-2.42474
24.2317
38.2348
-8.09106
-66.396
-107.314
-187.078
-269.728
-120.634
161.486
175.418
108.272
49.4362
51.789
85.391
107.606
66.055
27.3049
12.9239
-6.61071
-29.2585
-62.2471
-58.0343
-25.6898
-23.8682
-9.71379
21.5632
62.8242
10.4085
-106.938
-84.6443
-34.6084
-2.44903
-11.1165
-41.3899
-38.8531
-10.9751
9.34211
16.8348
3.85562
-19.4083
-15.9492
6.14871
27.9057
29.9976
46.4712
74.4405
105.274
57.6736
-29.0331
-34.0992
-14.464
2.48753
6.71902
2.11066
-26.9241
-42.4558
-25.6597
1.18384
-5.34786
-6.70819
-6.10838
-4.17959
29.5646
73.1285
63.5334
19.3877
11.0899
-20.3449
-62.6816
-78.1556
-56.224
-35.6298
-29.977
23.5888
42.6705
40.5272
34.6717
-45.3819
-64.1218
-41.9406
-37.5906
-20.5177
8.2918
56.9966
143.214
127.838
13.7124
-33.4441
-46.7138
-34.6438
-26.6414
-3.72372
20.3241
4.23149
-7.44409
-3.17808
-12.246
43.8819
72.5236
28.9634
-9.65915
-49.9318
-135.767
-217.671
-180.575
-82.9088
13.1049
40.9247
62.3529
87.7345
105.508
101.733
79.8965
55.0119
42.3246
33.3272
3.4035
-15.7639
-24.0097
-3.07672
18.8179
46.3038
80.2255
103.279
44.0087
1.67122
-14.7149
-18.6198
-23.8511
-37.8357
-41.1729
-68.0858
-75.9652
-69.3728
-90.6226
-81.0308
-54.9207
-40.1784
-29.4351
1.17503
24.428
28.19
43.1144
24.3004
-32.1935
-24.1367
23.435
59.9514
48.869
30.1447
-0.827039
-24.0573
-37.9562
-29.686
16.818
30.2998
36.2899
38.3217
44.6709
29.4893
-19.6942
30.0825
111.303
128.989
99.6127
-10.0249
-57.7699
-100.211
-79.5059
-47.7761
-4.74259
-5.12671
-40.1587
-60.7006
-64.1389
-54.6501
-64.4314
-54.0064
-8.21803
9.43989
34.232
19.6168
-14.6313
-46.4724
-49.6806
7.75832
35.1457
69.2482
73.4301
56.9537
28.212
44.3668
96.3946
71.0988
25.482
26.8605
46.8501
55.3866
12.6796
-45.4308
-87.9171
-145.322
-154.899
-155.26
-117.11
36.7524
127.202
96.1832
97.3636
73.4469
92.4651
76.0069
-2.94204
-34.5687
-34.1923
-32.8005
1.95234
-9.52773
-71.4957
-60.6554
-28.529
-6.92391
-11.6124
11.4491
43.2472
11.5479
-25.4602
-35.741
-77.0768
-67.2736
-69.946
-83.332
-71.1436
-81.0618
-13.5517
79.6081
66.0872
40.0831
55.4912
85.8405
135.115
138.204
96.2042
57.0421
26.5967
-15.2182
-30.1327
-15.4689
-13.8657
-10.4577
-29.7569
-19.5653
17.0137
64.5078
43.7846
-34.6128
-58.1907
-19.797
1.13118
-27.7598
-37.2924
-49.4578
-124.291
-142.891
-84.1188
-41.2177
-25.7797
57.3013
121.931
83.6573
31.7697
23.699
36.1897
42.5407
11.4222
-15.0217
-16.1616
-5.96659
17.704
29.1107
4.44905
-6.0004
33.6746
59.8152
30.6621
2.91823
-12.4733
-48.8683
-69.7068
-50.6212
-36.7965
-30.3199
-46.0129
-53.0117
-7.5727
-32.7564
-10.7607
69.2091
75.3566
42.863
17.4193
16.1269
38.2243
33.3793
-8.96718
-18.8727
3.36906
-3.40693
-23.3486
-0.836943
19.1294
16.3793
20.5529
25.5994
-4.44199
-7.81719
-34.8353
-56.8705
-45.186
-30.1845
-21.8058
-3.44988
-7.26758
-0.178245
70.0939
77.893
49.5089
34.3084
-2.49356
-51.3841
-74.658
-65.7522
-67.2481
-39.0528
3.45945
128.766
155.822
50.0168
5.62236
27.6361
26.844
-4.93449
-18.7066
-37.5559
-117.966
-155.842
-120.101
-17.7886
89.1607
95.5084
73.755
65.9172
61.5658
47.0019
-3.29505
-70.192
-100.165
-84.1176
-49.1836
-15.6862
1.87213
1.24442
-8.10808
21.5447
49.8965
63.8177
39.8373
-20.4046
-54.2759
-27.9907
-4.66677
15.301
43.9367
41.1189
27.0138
1.98729
-0.19158
7.24937
0.957769
-21.4504
-26.8955
11.3321
18.9903
-3.32926
-19.6949
-12.1385
-6.9897
-11.0513
-22.5143
-2.06762
17.9695
24.1
26.1116
26.6694
38.2245
20.1101
-13.5641
-27.6673
-30.9383
-14.3384
5.54767
-41.4327
-28.4349
19.0071
23.3903
17.4059
8.82541
16.1027
9.64916
7.40138
-0.986067
-21.9435
-35.1123
-40.3656
-29.897
-23.2341
-11.9562
17.3281
57.4604
74.0781
35.0209
12.4578
3.77695
-20.5054
-28.235
-25.0936
-26.1719
-42.8533
-49.7428
-48.4216
-22.4926
2.93857
13.4416
30.4621
38.3386
11.6432
-10.2955
-4.68367
-16.0699
-45.9992
-33.6757
38.2091
83.7864
70.0079
47.2545
34.2807
47.1051
53.8191
50.6139
12.7291
-14.2655
-30.702
-39.7788
-47.2656
-56.2032
-37.4165
-16.6181
-17.7329
-19.372
-24.3724
-4.98119
3.3571
-4.36442
-5.91441
8.23435
13.9367
-12.5529
-38.2676
-45.9788
4.91478
46.7432
51.0003
19.805
-10.3052
-35.2309
-40.1159
-29.3362
-4.41817
14.5818
34.1153
24.0032
18.3273
26.4719
37.4052
28.8104
0.178576
11.4145
14.9055
-1.82205
-12.2018
-18.4474
19.3731
52.9246
52.4517
53.314
36.492
10.9517
-22.307
-41.4608
-41.6848
-44.6105
-60.3377
-13.0266
-11.5923
-102.772
-112.736
-85.8105
-41.7645
18.7077
54.4554
32.825
-12.7089
-13.912
4.11809
16.784
35.6886
36.9883
24.6677
8.04287
-4.65093
18.8472
50.1905
32.2028
1.88582
52.6104
75.31
67.474
46.5244
8.7059
-8.77448
-14.9437
-21.3745
-34.0631
-42.6159
-68.0269
-65.8446
-21.268
-5.80649
5.65796
7.16228
6.77801
-12.0312
-43.4413
-37.6233
-9.489
3.2932
-7.15518
-20.8484
4.40397
40.1588
106.488
100.808
28.7501
-7.33624
-4.9674
-0.857141
-13.0632
-19.8301
-20.0134
-15.7067
-23.3009
-43.9006
-57.6417
-27.9324
17.6497
36.524
28.8015
27.2967
1.23496
-41.1766
-73.4921
-62.9466
-26.399
-21.0517
0.201499
16.9573
19.8623
38.6245
55.942
74.0901
48.6526
29.7012
17.6469
31.1704
27.1001
16.1769
6.87452
4.79454
3.42384
-7.32553
-40.0136
-63.7941
-41.3433
-6.39329
-10.2057
-9.33729
16.6721
10.2748
-26.3822
-54.5544
-47.1031
-21.7108
34.6339
49.8326
13.4471
-24.8741
-22.6662
-22.7793
-31.543
-41.1055
-29.7666
-12.219
4.49993
30.3148
67.7711
61.1915
36.7094
21.1893
24.7088
22.5311
25.4786
24.0696
-5.68604
-18.1575
5.42906
19.6022
30.4651
15.2589
-1.8685
6.01737
-1.9293
-11.8516
-16.7658
-31.8777
-43.6786
-44.0846
-54.5186
-47.6909
-35.1131
-15.0981
4.7001
8.43836
12.6703
2.23716
2.33281
4.58122
-3.27529
25.9779
47.7318
6.46184
-47.2361
-20.5099
35.4334
38.4961
12.4114
18.2735
15.5166
29.099
14.0914
8.6018
34.9784
33.222
-3.00549
-23.2274
-27.3279
-26.8167
-15.7679
-11.384
-5.13856
23.9801
56.4365
24.8723
-47.6032
-90.1869
-102.951
-102.36
-98.5313
-83.6783
-15.0304
84.6144
93.6601
68.1699
48.6407
28.3248
18.4266
32.3356
28.3663
20.7169
37.0688
46.029
44.203
49.5824
31.1803
27.9318
28.8919
22.3943
15.0476
-9.05189
-24.1534
-69.0421
-97.0818
-94.342
-89.3728
-79.2738
-46.9665
-37.3812
-10.4915
20.6986
34.7676
40.4477
8.93689
-15.9472
1.27729
21.0386
23.1954
17.4618
36.951
40.732
21.2696
-7.69843
-10.8971
4.98901
11.3216
1.82679
-7.00908
8.05786
7.00519
-16.197
-29.6921
-23.3742
11.4506
31.9681
28.358
9.50038
18.3177
8.92296
-1.49664
-9.51267
-38.2206
-50.8422
-40.922
-8.09753
32.2922
44.7417
65.1978
45.0783
2.89354
1.65092
0.733195
-19.5705
-27.7345
-23.8641
-9.62863
6.56671
7.44714
-1.20582
3.89658
3.88553
-16.7404
-26.0207
-45.7401
-33.2542
-22.6792
-13.0091
-10.9247
22.0291
43.1265
20.4116
-8.13373
-13.3609
-5.85751
-6.58994
4.4725
21.8743
8.79551
6.40523
3.91203
6.395
21.7901
19.3397
31.1134
19.5117
5.12978
0.330367
-13.3404
-45.8551
-55.8629
-52.2403
-34.4153
-16.0819
20.4051
36.3853
23.6015
24.9821
27.3808
27.6569
23.8351
23.85
25.3794
17.7757
3.55385
-10.1887
-8.0398
-3.61182
-8.59382
0.0625238
14.7314
11.061
-11.2853
-32.3962
-54.4137
-54.0225
-37.4959
-41.9614
-31.1728
-10.5915
-9.10486
-0.669454
32.3619
36.2541
24.3648
18.9092
13.0851
15.4809
14.1285
14.3564
16.3364
15.9658
13.1031
19.2482
37.3409
37.405
16.9256
-20.2366
-37.5121
-49.1988
-55.2581
-36.3597
-25.4086
1.81843
36.5346
32.1406
5.81232
1.58722
-3.9974
-11.7409
-12.1789
-9.256
-6.64431
-14.127
-22.8183
-16.8516
10.9191
37.5299
39.378
32.4779
32.9756
14.4068
-14.2027
-45.1567
-50.0671
-36.1022
3.73223
21.545
3.02507
-4.23069
-8.35803
-10.8535
-17.6847
-18.6109
10.779
33.1668
35.3843
63.7597
94.1687
48.9309
7.123
-7.88762
-13.9546
-7.97836
-28.6873
-58.374
-80.332
-80.4467
-30.264
13.7817
18.2419
27.7833
26.0345
16.685
8.4497
-21.4375
-40.8133
-62.2089
-59.36
-17.9407
54.1323
89.48
69.7346
32.7959
24.8378
26.6584
24.0037
22.3591
13.0688
-13.1601
-18.7978
-20.9153
-10.6761
-5.09049
-31.5454
-38.2858
-43.4402
-35.4484
-42.5746
-27.9209
-23.0721
-21.5236
-22.8093
1.33102
23.0299
30.2393
28.8444
21.6752
16.7398
28.2315
40.7846
41.5312
41.3907
46.8456
34.8553
7.58038
-9.51693
-8.15812
-15.8369
-14.3134
-32.0162
-56.2995
-47.9136
-9.77222
46.6527
68.845
29.5193
3.65074
-4.38522
-16.4095
-35.1685
-52.9186
-57.8702
-49.4414
-41.1844
-23.38
-3.34237
10.5027
20.9883
35.017
32.3522
20.9859
42.7688
40.8452
-10.5254
-22.9325
17.6789
9.25966
-6.05632
-2.10707
7.07705
16.641
15.8989
8.995
-2.50431
-12.2781
-4.72334
5.72394
-31.6111
-47.5662
-16.075
6.78898
10.1741
-11.1185
-13.113
-0.376191
-3.09341
-8.52934
-27.5649
-31.3249
-29.2491
-17.381
14.3694
46.7205
62.4387
68.0834
38.3878
11.2086
30.555
26.3102
-0.177764
-8.85907
-8.40507
-13.33
-34.5399
-56.0418
-53.9132
-12.902
20.5061
-4.81979
-3.9316
13.5889
34.4472
29.8141
5.80065
0.528778
-0.125634
-10.7497
2.91279
13.0543
0.484006
-19.1044
-37.0996
-32.2041
-9.66633
6.14482
10.7318
8.30082
6.1928
9.28685
11.4947
12.0592
-1.66979
-21.5916
-33.5902
-33.5529
9.8853
27.1924
2.96815
-15.5392
-11.7722
1.0065
-3.0227
-6.48983
10.3236
27.2948
31.6851
27.1842
26.623
30.1194
19.4953
-4.95864
-23.2097
-18.0825
1.57073
5.11439
-26.0347
-33.2421
0.677439
5.13578
-2.19354
4.3178
-0.000450974
6.68381
12.0369
10.331
39.8186
22.5475
-15.2123
-31.5201
-60.0526
-87.919
-79.3805
-48.0627
-9.59305
34.6698
19.4491
1.46798
9.83099
41.7685
61.0257
49.8003
43.9307
35.1306
18.9324
11.712
-4.71029
-1.74196
6.57052
1.48991
1.62082
5.1409
-8.17762
-17.9843
-22.2923
-4.58158
24.2068
22.3896
0.0662469
-1.92599
-10.7165
-19.3809
-33.0301
-40.7516
-15.1758
-14.6415
-41.2982
-24.4417
-21.063
-9.50714
5.27288
20.4741
38.9693
57.3976
52.9483
-3.60561
-7.20382
19.8153
25.3226
-12.6505
-43.6455
-42.4072
-39.034
-32.4847
-21.4818
-10.4242
1.75848
-7.23144
5.4865
14.7564
36.6085
59.5059
40.4028
-11.4714
-11.5938
13.0539
25.5971
-17.4356
-48.0816
-34.6726
14.0585
20.3074
27.9384
43.1399
24.5276
8.02853
17.5456
28.082
22.0141
18.8861
-1.92206
-41.4267
-39.2207
-14.0415
-16.7313
-23.0321
-34.4525
-13.213
-1.67489
5.12769
-1.4926
1.32983
14.3213
-1.9557
-22.8064
-24.7953
-10.6251
20.8517
25.795
24.7949
13.9787
7.7873
-13.79
-22.1212
-12.7819
-20.732
-28.0872
-1.69058
14.535
-11.3987
-38.3273
-44.2585
-8.47025
14.6309
-10.5501
-19.5717
-15.3531
-8.04276
15.7561
24.5562
43.1456
63.5703
73.6923
69.2255
40.8928
25.843
15.4213
6.08717
16.6922
19.2537
24.175
33.2753
-7.26384
-33.5144
-27.2716
-29.1096
-72.8366
-86.5237
-55.8629
-35.5519
-16.6037
-6.95602
-5.65815
2.32037
8.54791
13.9984
15.2403
12.6876
6.87085
8.99997
4.79634
-11.547
-11.1661
-9.35873
-0.0883573
0.535404
7.62829
-1.0385
-19.6065
-14.0134
-1.50419
9.16945
4.8682
5.57225
3.85833
-10.7593
1.37426
15.0881
18.3058
43.5994
28.6142
0.594855
-9.03527
-12.2691
1.30073
21.1057
27.3054
16.467
12.756
3.26726
-7.91301
-12.9712
-7.05014
-10.5047
-11.7784
0.778097
-1.96105
-6.56833
-20.2648
-51.2375
-40.7365
-7.0159
22.165
34.0866
19.6352
31.6373
25.9488
2.07889
-19.3744
-24.6739
-14.6224
-16.0942
-9.50769
-14.2061
-11.296
-7.46542
-3.1693
0.413753
10.6766
32.8444
31.0965
22.2684
5.83429
-5.70809
-8.33712
-27.6581
-16.66
1.72689
8.35947
18.9264
13.3376
17.6307
25.6177
17.3621
-13.6089
-19.3221
-2.84793
-19.1733
-42.2963
-40.3966
-30.5901
-14.2232
-13.9404
3.53987
15.8975
0.337906
15.388
31.8445
26.7666
27.8893
34.4877
31.7861
35.0173
35.9437
17.7731
-0.772203
-15.2222
-13.7681
-15.6771
-14.773
-18.5468
-26.7526
-32.3373
-38.8684
-33.0827
-19.198
-16.951
-13.451
-1.02964
-2.16935
-14.6413
-15.7328
-31.0061
-28.2931
-3.64304
8.90666
30.6116
47.9275
44.6118
36.4588
28.6215
21.2898
17.8655
0.797579
-3.06441
-1.13443
-24.0242
-29.9597
-10.9135
9.8001
36.7836
81.4398
86.19
31.4704
9.62129
5.11459
-15.4932
-35.7414
-40.4397
-45.7007
-49.0926
-48.2439
-37.7434
-23.6367
-11.9045
8.22597
25.2796
17.7949
7.36433
0.467979
-16.7008
-43.5571
-39.6917
-3.82648
10.3575
12.4507
10.4011
-1.6471
5.77832
8.56942
16.2406
7.0053
-12.0951
-16.8204
-0.0600796
37.3411
49.1316
53.3528
69.7708
38.7929
-14.0079
-41.242
-42.128
-3.92275
8.08428
2.58476
-8.58554
-15.4636
-18.1556
-17.7834
-31.5987
-21.1
-7.14962
-3.14299
-8.41716
-34.9455
-21.3936
-2.19098
-6.47379
-1.51548
22.4224
47.5686
32.4188
6.6756
0.774946
1.93945
-2.06002
-17.3701
-45.598
-18.2045
21.0211
33.6977
52.1435
52.4524
32.8836
-0.613026
-25.7949
-22.4624
-20.6093
-2.57937
18.5484
-2.20735
-18.5278
-12.778
13.0989
1.65076
-14.3657
11.7559
64.9663
74.317
15.6479
-26.885
-40.3689
-33.4321
-34.368
-29.6618
-24.5655
-20.1774
-26.9951
-28.3759
-26.6117
-7.92089
14.4396
-3.03775
-29.5222
-25.7379
-0.929562
10.2951
-0.456277
-8.72565
28.608
56.2629
47.5969
35.3652
30.2505
25.0609
14.2216
6.69421
14.813
0.0268157
-21.7751
-21.4364
-25.0079
-8.74445
-1.46822
9.96992
16.0113
12.2099
8.49221
-3.20294
-16.2187
-16.1378
3.36321
-0.589298
-9.32043
-5.12561
-6.44511
-19.4773
-41.7758
-39.9159
2.74578
45.4005
31.9656
-3.51373
-19.5554
-8.41091
-9.16158
-12.7845
-9.78895
-4.90123
17.3437
36.5785
45.7905
62.8773
59.0967
6.02882
-22.7637
-26.9433
-28.2033
-24.8266
-15.9781
-31.6985
-30.7169
-17.6163
3.68954
20.929
22.7809
21.4257
19.4614
-0.106667
-19.5769
-40.8771
-68.244
-83.454
-59.4732
-11.1364
8.15271
26.5519
45.5717
64.3723
48.7719
16.6489
11.3873
18.5798
26.9586
21.5214
18.4823
18.7017
13.5546
5.01403
4.46144
9.98825
8.46167
6.2784
0.40526
-3.55628
-8.4963
-21.9463
-18.073
-10.9929
4.32826
2.0355
-14.3636
-2.33704
-16.2506
-29.3313
-21.2421
-11.6636
-7.33199
7.97126
0.160657
-23.3628
-28.731
-23.0498
-10.9653
4.75218
12.1124
19.1047
20.3992
-1.08051
-37.9462
-24.4244
13.0668
23.2952
29.2811
12.2874
-4.3006
-0.728607
2.20685
-10.1364
0.893946
17.026
24.8191
26.3876
13.7154
11.8356
15.5174
7.01458
-4.25201
-0.323254
0.383331
-13.3783
-9.71086
-7.67823
-18.2465
-11.92
5.34019
18.9394
20.092
25.7486
23.1825
19.135
7.59826
-12.4191
-33.5316
-54.6473
-71.5762
-75.9055
-44.8044
17.3216
30.8224
30.5052
26.5354
0.636921
13.2272
48.1174
47.1171
5.57435
-17.1432
-24.9534
-27.8644
-22.2029
-8.54734
2.31646
9.82796
20.2902
38.4322
44.7163
23.5503
-3.3592
-17.7218
-38.227
-36.7617
-9.8705
2.94382
-5.87027
-12.9642
-16.7106
-6.40799
0.436121
1.30986
7.96923
2.52263
-0.0178872
4.4653
-0.536632
13.7942
26.1258
28.7997
-4.73538
-40.6277
-22.4343
-9.16755
-1.5469
-0.565158
0.0605999
20.0332
69.4345
89.8449
70.1122
14.4513
-16.1398
-24.8347
-29.747
-34.147
-32.0323
-32.8753
-24.8177
-22.6101
-19.3843
-3.30345
2.38154
1.5753
-7.59887
-22.5159
-26.244
7.32395
2.36098
-31.1862
-25.0305
-8.07247
-12.6014
-7.29449
5.19394
-9.27753
5.09838
32.9353
45.7636
37.6989
32.3043
36.1422
17.0404
4.95195
10.4842
22.3901
22.8767
-11.4319
-36.4929
-33.1506
-20.6571
1.37322
16.0975
19.9859
18.6774
23.5967
23.131
21.3018
-1.15818
-23.7665
-39.2167
-37.2456
-32.5216
-15.4201
-11.4509
-2.51465
-5.50382
-22.7165
-40.7552
-43.9525
-31.7429
-14.5943
17.2231
34.7278
42.2284
54.5696
40.4005
14.0784
8.97703
8.46354
10.9623
22.548
25.3652
17.8376
15.1216
19.6655
19.5308
-11.7118
-24.1539
-16.6651
-12.6586
-12.0222
-19.3616
-38.7981
-50.9151
-41.4947
-20.4409
-15.635
-4.64901
6.57485
0.921991
-18.8243
-0.790916
26.6317
-3.60401
-31.8596
-45.2411
-25.369
30.3944
91.6926
60.7362
30.2675
26.312
20.4607
11.9049
3.59983
4.0851
-0.288727
-19.0812
-24.1281
-13.8211
-3.64288
5.00507
-1.83875
12.4466
20.1865
8.19625
10.6537
3.67214
-19.8382
1.10643
1.30056
-31.1547
-39.8193
-27.7081
-18.6256
-19.3083
-5.0434
15.8995
17.836
19.9374
12.0819
-1.98874
-12.7484
-6.63079
-14.0698
-3.80754
20.9137
28.252
3.75469
-11.0272
10.2534
27.9995
35.5014
21.5198
8.59191
-3.75504
-19.8549
-21.0033
-14.4464
-18.5962
-3.37301
0.125119
-10.1341
-10.8797
1.3633
9.21832
-20.6982
-36.1558
-29.2707
-25.6237
-6.14794
6.42675
12.8112
19.5284
16.9661
27.8838
25.6764
-4.89657
-9.10616
-1.11482
3.10014
10.2426
21.2627
30.7342
27.7062
23.6392
18.9002
3.19261
-7.4916
-15.7954
-36.6108
-28.2843
-25.3691
-34.2106
-4.34425
48.6194
33.2299
-3.31677
-18.1776
-19.9862
-11.2154
-10.5645
-12.8284
-10.2505
-1.2525
3.31574
6.2677
9.55275
1.36198
-4.15726
-18.1081
-31.7206
-12.9414
10.0438
11.4928
-3.97778
3.80773
32.3089
20.3442
11.4351
11.5759
5.40628
-7.06099
1.60998
15.6307
14.2395
13.9705
12.6964
3.35427
17.7249
47.5864
50.312
0.0141984
-26.2077
-48.5128
-85.2618
-68.2744
-34.82
-23.2339
-11.21
-4.41018
-3.87039
5.62136
4.17385
-6.87516
5.07407
36.5017
38.6823
15.2715
-1.75195
3.73225
20.5788
40.4995
43.7283
31.1704
3.69458
-29.6165
-52.2763
-45.6204
-43.9892
-20.9531
10.1792
29.1768
19.0994
13.0165
5.80226
-9.90964
-18.7702
-11.7326
3.11117
-2.26933
-6.85338
-3.1848
-0.721774
17.9592
44.5003
46.492
45.4881
54.3721
49.9783
11.2033
-17.2219
-37.7716
-40.1751
-39.9242
-41.7682
-60.9339
-77.7087
-45.4894
-18.1853
-13.6184
-12.0392
-12.3496
19.7677
21.6102
13.7191
47.1596
44.488
23.3509
19.6681
45.6479
53.4456
20.4326
-11.7615
-19.2995
-21.2665
-15.1929
-6.51346
-5.60449
-9.09196
-9.52224
-11.0944
-7.537
-12.9749
-20.6844
-22.7072
-23.867
-20.0609
0.0857299
17.6551
19.2555
19.8117
-2.50982
11.1904
25.0971
28.2858
33.7053
37.5295
24.2034
6.58108
-6.37606
-21.135
-21.3619
-28.9157
-30.0641
-20.9418
-5.40003
19.1811
24.3925
-0.97245
-23.8798
-36.9875
-3.27076
13.0038
15.7212
7.48454
-1.87274
-2.39513
-10.0415
-16.1493
-7.6482
6.85238
24.3853
16.5211
13.3257
5.15997
-40.9394
-43.7564
-26.1806
-3.23576
3.95244
10.8242
49.6469
63.6515
20.559
-14.7517
-8.2779
-0.469394
0.366214
-9.23295
-4.71799
-5.76298
-12.8604
-14.4666
-16.2794
-8.99956
11.3011
7.89547
6.00495
22.3331
25.0856
11.874
-12.8838
-34.7034
-31.6986
-3.12386
-9.07728
-29.3828
-24.224
5.96584
19.0862
15.0107
5.38121
8.16513
19.8199
10.3948
11.9481
16.5447
12.1347
13.3258
2.54206
-19.6488
-42.1654
-36.1939
-7.23684
-0.621428
1.35824
19.7431
37.9663
80.7417
113.614
54.3859
10.4673
-1.94984
-19.691
-37.4127
-59.5603
-66.5743
-67.5172
-58.1525
-43.6957
-19.0527
-5.32128
-2.89761
6.60993
9.62432
8.101
13.4306
9.86612
-39.408
-81.326
-43.117
6.51155
28.0508
36.7871
38.7288
46.4308
55.5577
52.4206
22.1531
4.94772
8.90824
16.8294
30.8012
30.4845
19.5481
9.33926
-12.1458
-29.1619
-33.8116
-29.7295
-2.77292
1.77072
-2.42933
3.29055
6.19683
-2.8518
-19.3169
-44.4598
-45.7066
-33.8608
-23.5449
-10.5894
-7.16517
12.6648
34.7714
53.4902
34.8985
13.5805
2.28287
-11.4579
-20.1663
-19.9217
-22.5436
-29.1544
-11.6195
20.1979
54.4817
76.3783
44.7486
2.73822
-42.79
-36.0762
-37.1889
-42.341
-31.5532
-17.8969
1.07202
-1.24545
11.0384
24.8821
30.5659
26.972
18.8538
8.08339
-3.84489
-20.6624
-50.9232
-52.689
-21.838
6.98644
44.0755
40.7715
32.5301
28.6255
48.021
39.6638
17.8814
14.4357
-6.98034
-29.2426
-35.8128
-41.0861
-53.8455
-35.2689
-17.9288
5.00316
17.9532
20.8687
27.3727
39.7094
45.8237
19.2437
-16.2127
-53.6289
-58.5775
-31.3472
-7.00882
5.77696
16.5637
45.6138
29.9333
-7.45003
-4.65356
-7.09987
-8.76898
-13.0278
-21.9109
-34.762
-29.5546
-19.7213
-33.3257
-18.8905
12.7249
35.8107
17.278
3.15966
13.3217
46.3007
39.0064
3.44108
4.33667
19.6266
23.7809
17.5995
17.8104
14.7294
1.31607
-9.22235
-10.6392
1.47369
-5.99251
-24.3978
-30.818
-20.4787
-7.65601
-10.2661
2.38487
-13.1672
-4.78663
3.53239
-8.32465
-2.59403
1.45711
1.68481
-7.99194
-2.35232
8.26618
14.1295
-6.49529
-32.7693
-6.99113
18.4363
24.7602
30.8373
27.9549
14.1522
-3.73922
-22.4013
-35.3368
-31.1187
-7.32565
4.40622
-7.33292
-11.8301
3.59868
3.57951
12.8697
21.9835
21.2695
9.00082
7.69934
14.5295
12.3363
0.889899
-2.15138
0.585411
-6.0937
-5.53943
-2.63345
-2.42896
-8.11842
-16.5069
-12.9815
-14.7016
-11.5192
-12.5103
-6.30022
11.7324
51.921
81.0375
34.9611
-2.29707
-5.2721
-26.0756
-42.6029
-44.3363
-37.4143
-35.4794
-26.8897
-17.4222
2.8307
28.1962
16.0108
5.62568
-14.3305
-5.77624
19.6769
10.5861
-6.28161
-13.2911
7.2607
4.86232
-7.7568
-5.86475
2.40699
4.64726
39.4647
82.8649
58.375
37.0555
13.1146
5.06875
12.0482
0.630577
-14.2768
-41.9876
-61.5369
-39.7177
-58.3777
-73.7785
-20.1292
24.8883
14.6424
29.3826
27.7925
21.7521
-4.17335
-13.0954
-1.04429
-10.8648
-14.9347
-18.0353
2.73411
21.7712
20.3497
13.4152
18.6564
7.04121
10.9892
14.3357
-15.7058
-24.3426
-2.49026
6.46455
6.20745
-0.223589
-11.1784
-14.571
1.27772
9.33964
12.4473
4.61036
0.546452
-8.92195
-13.978
-12.3989
-29.24
-21.1108
7.41268
15.859
15.2064
3.54818
-8.17105
-0.325762
15.1804
13.4871
3.62309
-13.5166
-13.8845
1.96906
23.5442
27.8011
20.0363
11.1156
7.59175
0.450175
-6.23437
-17.8823
-14.0232
16.3272
41.8283
31.0917
9.65172
-12.8117
-32.0556
-28.1578
-27.6919
-30.9816
-26.5355
-25.9797
-18.8428
-23.0923
-28.6996
7.06123
45.2585
70.1013
89.6396
90.5927
40.7598
-33.6395
-63.2162
-73.717
-76.025
-46.8367
-17.7184
-4.99822
6.69742
8.8084
5.2021
11.8984
6.21135
8.95411
17.1008
13.5334
1.49383
-13.7781
-31.7223
-41.0262
-12.5799
0.210647
-7.93326
2.49046
37.7481
40.5711
43.392
69.3825
73.4985
57.2551
24.6774
-3.1461
-25.3189
-39.787
-35.7487
-25.9701
-22.6416
-9.81993
-6.96513
5.40397
1.20065
-2.40217
-7.85288
-3.56284
-11.8427
-47.4869
-68.5209
-67.3053
-49.9267
-11.7763
20.0475
26.8353
36.0089
43.5495
50.0655
44.5232
27.7051
-3.11482
-23.323
-21.1173
-13.7336
6.55702
24.333
44.0197
59.2826
55.4211
28.7548
-6.84033
-29.8567
-37.1897
-31.7731
-27.8193
-11.0507
0.170221
-2.85229
-26.6065
-33.0934
-22.5233
-15.7718
-1.24126
19.2057
12.7773
-7.14826
-23.3007
-22.6495
-13.8979
-15.6513
-6.96384
13.1428
10.1615
25.4355
78.6604
72.365
-4.77014
-40.1201
-33.6884
-13.4612
-3.9922
-6.32648
-31.8072
-39.7836
-20.5394
-11.9022
24.3882
62.7875
91.5279
72.1036
20.4023
-9.7598
-6.53639
1.53958
-40.8006
-56.6352
-11.7923
8.64642
-5.69305
-29.1976
-22.8178
-0.845712
16.2493
-18.4428
-37.1059
-37.8731
-24.6888
-13.3907
-16.1099
12.223
37.3966
47.2272
55.6891
30.4609
-0.32621
-0.217229
5.76374
1.3496
9.85826
17.3582
13.7527
5.28449
-5.15167
16.3991
40.5506
25.3284
-12.1738
-45.8049
-54.0339
-35.4719
5.71125
12.7542
-8.4059
-23.2931
-22.2802
-24.4417
-9.60352
1.83572
-2.75962
-5.44739
-9.06537
2.54204
17.0391
6.32615
6.41807
31.6217
28.4522
15.3374
1.19104
-13.589
-25.3098
-23.441
-19.7874
-7.65024
-3.59698
-3.48329
12.8368
19.2596
8.76852
0.692554
4.54452
0.57186
-22.2122
-14.2487
3.2238
15.3239
18.0951
12.7289
19.3364
30.0803
16.5312
-0.246362
-9.97393
-18.4153
-9.83108
8.79148
9.98015
-0.613525
10.9773
24.2401
7.34368
-11.5323
-7.63882
13.6235
16.3718
-33.5564
-35.1995
-0.2705
15.9553
8.73961
-9.65823
-23.6886
-22.3384
-18.0183
-16.7533
-28.0691
-34.5519
-29.7385
-9.24595
0.13639
10.5852
12.1033
23.8804
26.1125
3.7453
12.9546
13.9824
2.89791
4.05045
23.8832
31.8732
18.1644
-3.56109
-1.48392
4.88159
16.0881
18.2254
18.0833
13.7871
3.55997
-6.80042
-6.8164
-21.9898
-35.564
-33.0956
-23.1245
-21.6677
-11.1017
-18.697
-27.9252
-9.63838
15.3315
17.802
1.78124
-1.83421
-0.976568
9.39115
31.9301
22.5663
34.8261
41.6521
19.5868
5.60011
-11.1921
-18.1381
-13.0903
-1.12717
-9.82516
-14.541
-11.3173
-15.1775
-10.3389
0.880653
8.28437
18.3184
33.3834
30.9557
-5.29303
-34.8379
-52.9057
-51.9798
-19.2651
0.902453
-4.84587
-2.91359
17.1402
25.8617
15.7053
10.6621
3.56463
20.8305
26.1272
16.3706
3.58629
-11.2739
-19.1621
-33.1916
-31.381
-10.7074
-2.33413
-0.176557
5.09144
-0.960523
-5.9545
7.30071
8.18453
17.8853
28.6457
31.8684
32.8712
12.4605
-0.646848
9.85323
10.793
12.5059
6.29513
-13.8973
-27.3879
-33.7682
-38.8603
-40.0307
-46.3472
-28.3548
5.77539
68.0718
108.735
41.7567
-8.16165
-24.7893
-31.9338
-26.3911
-12.5754
-12.0027
-16.1198
-26.2344
-37.8425
-20.8098
-3.52553
-2.58649
2.1853
14.1505
30.0919
31.1546
16.3149
-22.9629
-46.4221
-15.0034
29.1072
55.8404
47.6743
18.863
8.97932
3.25202
3.04745
-5.76448
-21.3634
-27.2843
-18.0156
10.7137
19.4801
24.025
21.1738
12.5552
27.4188
31.3855
10.3692
-39.1803
-61.1014
-84.0149
-76.091
-55.6494
-48.0422
-22.8471
13.596
46.2699
61.0575
56.8927
52.2211
36.5132
34.5668
29.3686
15.5323
15.4114
6.28532
-12.4617
-18.4457
6.55554
-3.38256
-12.3311
-20.0214
-20.5728
-6.43026
-25.8253
-36.7617
-29.6629
-3.41915
25.784
21.4463
7.11808
11.4585
10.7039
-0.850388
-24.591
-39.2497
-44.9767
-43.9975
-30.0391
-8.8145
17.7009
32.1373
33.3618
28.7767
40.8321
35.9713
19.0581
-3.33426
-14.0657
-7.2722
0.202517
-12.7468
-13.8849
-4.51738
11.2989
20.5309
10.7571
4.36094
-0.24383
-15.6139
-14.209
-2.42806
4.92652
19.4351
22.9314
21.9306
18.6009
5.57162
-5.84722
-18.7448
-21.1019
-18.6129
-31.7033
-30.4285
-1.47231
3.29651
-8.35282
-3.18088
9.64152
17.7052
17.8741
12.6305
8.90004
-4.28235
-13.9263
-30.291
-36.7842
-39.2322
-31.1184
-12.0823
20.5449
78.8295
68.3095
6.40503
3.92583
28.8785
17.209
3.75237
-0.326192
-14.2699
-29.7457
-38.5222
-31.3745
-25.241
-5.25535
12.151
19.3248
32.1528
57.465
38.401
-17.5121
-45.3561
-23.8564
15.4246
-3.00718
-27.6762
-21.2613
-28.6539
-25.7474
-5.31468
-0.531483
0.115528
11.0777
16.75
19.2661
28.3754
37.8202
26.1816
6.7272
9.33067
13.2822
-12.4648
-18.7579
-7.50937
-12.1979
-18.1511
-17.9116
-6.08477
-7.64667
-13.0601
-14.864
-5.03346
8.72068
19.2714
41.565
29.1211
-5.91499
-12.947
-33.4458
-27.8902
-10.8204
-4.19752
8.98039
21.5554
14.8194
11.044
11.8345
18.7702
13.6783
-4.13517
-8.88798
-7.86874
-12.8279
-3.41994
-18.4898
-32.4367
-25.7124
-11.949
-0.768359
10.4781
20.1923
8.55472
-0.281442
10.4693
-3.20586
-17.5377
-10.0104
-3.79495
-17.5402
-10.051
16.951
29.0362
27.7848
19.1705
10.142
34.7871
76.7193
55.0149
1.58021
-25.643
-36.0341
-33.5446
-29.7848
-43.1835
-30.9349
-19.2877
-13.5172
-4.55805
14.9862
35.3324
30.97
24.0362
18.8626
1.11379
-9.25857
-23.8342
-47.477
-48.3648
-23.0432
-6.14876
-5.64151
-9.45695
-9.25045
-11.139
-9.24565
-3.98448
-2.40833
1.62171
20.1651
39.772
52.8761
59.6149
57.1305
20.4291
-16.5365
-16.1644
-10.462
-12.9565
-9.25925
-18.7674
-28.1735
-27.7186
0.717468
25.5804
7.93257
31.5765
44.2103
14.8543
0.842054
-10.3013
-22.0752
-34.2168
-41.5165
-35.0204
-35.7833
-36.9312
-24.0381
-11.3236
13.6977
41.2174
78.9928
62.6545
18.9764
4.56724
16.1907
-6.36518
-24.1315
-15.3995
-9.89268
-11.7276
-13.3649
-26.0951
-37.8451
-22.574
14.0142
8.54187
-17.2688
-13.996
5.33317
19.4485
7.05898
12.0709
20.1304
12.4387
10.1739
10.7815
13.1821
20.5947
12.7418
4.07432
1.88008
4.08526
7.37577
15.1551
7.30123
3.28972
5.26032
-4.53038
-19.1175
-34.2504
-36.3192
-21.9536
-16.1639
-15.5061
-11.6439
-18.0193
-24.0993
-17.1151
10.5594
28.1937
10.9217
1.65719
1.60543
7.71914
28.1319
28.823
12.8559
14.4512
15.2691
10.4768
0.507952
-1.70418
-9.24041
-20.6144
-23.8843
-18.9193
-3.73656
7.53061
0.735376
-11.9382
-8.02755
-1.40166
11.5381
10.6478
-3.54581
0.457334
11.4312
21.3658
8.58563
-1.44959
-6.57402
-18.6688
-23.8791
-16.6278
15.7483
29.2295
13.5423
8.69428
5.57544
-3.60003
-3.97416
-1.71426
10.3115
1.04353
-20.2092
-33.2533
-51.1539
-46.2253
-22.7127
10.3117
50.0188
70.9136
70.885
37.577
4.28329
-1.68311
2.71241
-11.6558
-19.6205
-13.7387
-11.1901
-6.07915
-15.0791
-17.3069
-7.42366
-3.93341
8.15287
18.5835
9.93906
-7.70263
-35.0759
-54.6786
-48.6384
-24.656
3.48669
19.6033
9.46975
11.0556
-0.0808895
-9.12133
-5.44014
7.41178
40.2531
38.3547
27.0497
34.4788
40.569
24.6256
-3.58697
-15.353
-8.00719
-4.70835
-5.95357
0.465543
-14.5798
-24.9283
-10.1054
-4.70135
-3.44163
1.52007
10.2352
1.21041
-17.4488
-7.75641
2.29508
-4.39933
-23.4176
-7.62455
5.11699
9.27622
21.2612
-0.0123868
-28.2061
-25.5254
-7.9454
2.21272
2.72172
7.3952
18.5957
18.6157
16.7659
11.2083
-3.08769
0.571859
2.0678
-1.26152
2.20009
-7.20066
-9.01341
-2.32705
-3.44532
7.47478
14.2284
5.41583
-21.4148
-31.4406
-10.6115
9.14063
9.73204
-0.0833719
-8.02655
-19.8448
-15.35
1.51536
10.889
17.0808
36.1581
47.6349
42.3168
12.7191
-23.1586
-17.5571
2.34193
8.39937
13.7147
0.0781858
-15.5792
-30.7022
-26.3534
-23.8209
-14.3197
5.85686
0.803486
-10.9393
-10.7929
-6.72218
-14.0963
-24.399
-23.5178
-17.4464
-0.748397
14.7043
20.9603
43.4402
45.6126
37.8593
20.4169
5.60559
-2.50921
-0.768275
4.94579
-1.82382
-8.33906
-22.3995
-29.0113
-18.5985
-4.70647
19.6381
22.3085
15.0841
-0.044399
-21.1302
-31.6332
-41.512
-43.4601
-30.6267
-14.1576
2.25851
42.1507
76.9221
80.1993
77.9656
23.3793
-3.29808
-5.68944
-12.2114
-15.3531
-29.8799
-25.6027
-10.567
-8.87653
-12.8902
-22.0148
-39.5239
-54.6613
-74.1325
-42.3626
-9.87631
0.0109419
2.51786
20.4671
45.073
55.1592
43.1543
38.945
35.8301
27.6486
12.2996
-1.25692
-11.1446
-4.84264
12.6658
19.253
16.3208
18.4731
31.8119
13.8686
-13.3684
-32.0039
-37.8532
-58.2494
-74.3653
-23.1826
15.9027
10.8918
3.70232
6.11352
-5.67053
-8.14184
0.726238
5.17374
12.0879
15.2283
12.2796
14.342
15.4058
3.35679
-4.46535
-18.7525
-19.978
-23.6933
-31.0719
-30.3444
-17.4407
8.66913
14.1702
-0.154694
-4.6664
9.98972
48.7001
33.7108
14.688
29.1688
50.9198
67.5212
48.8283
22.0083
-8.83122
-28.2193
-51.7138
-64.7194
-44.1783
-38.2047
-34.6798
-29.4647
-21.5651
-11.3521
-2.55434
-6.60327
-19.6445
-9.86543
15.4651
13.5978
0.243545
-10.852
-0.795183
12.1961
18.1486
10.0006
19.9083
51.72
60.6305
58.9587
38.419
20.1245
6.6912
4.54303
11.5357
1.93201
-19.0604
-39.734
-56.2109
-52.9603
-46.1864
-43.6601
-36.4048
-17.1463
9.89596
77.1
125.375
92.4718
12.4882
-28.7036
-36.4505
-32.6796
-29.4687
-36.4623
-40.588
-37.3482
-35.6417
-16.8069
-6.3629
-11.0469
-21.2789
-11.4662
4.71228
15.1715
15.4061
-6.73024
-27.5288
-22.1337
-0.984451
9.03923
8.62258
29.8919
35.5565
28.6471
23.4425
23.6551
20.7884
32.2367
35.9204
37.9802
53.1707
41.3673
21.6996
-0.620972
-4.65293
-23.2817
-51.2037
-62.8358
-35.5309
-14.8158
-2.17507
6.71379
16.5235
9.00381
-7.25649
-20.9573
-25.4357
-19.2408
-12.73
-22.6511
-29.6408
-8.68313
-0.543709
2.66333
-3.31397
-18.222
-23.2425
-9.68533
12.2675
36.7578
39.1137
13.2553
-2.07707
4.48639
7.24628
5.62978
-2.08778
-20.6826
-15.7664
28.315
59.5637
12.0814
-17.9968
5.53614
17.5097
6.17595
1.99809
0.351934
-13.413
-24.5008
-24.763
-15.1587
-6.81105
-5.47348
23.8107
28.856
24.5476
24.6704
8.72865
-10.4873
-28.1783
-17.4308
-5.45705
-21.963
-35.8118
-27.9457
-23.0038
-13.5626
0.0740873
7.54149
13.6945
4.66021
19.5626
46.0773
55.4425
44.9974
2.86279
-8.80478
-1.87651
-24.6567
-31.3368
-11.1438
-1.19647
8.63861
7.89702
2.52524
5.79103
11.2598
1.40254
-13.1843
-10.338
-13.9635
-28.1017
-35.8784
-36.9878
-16.9316
16.9465
38.2055
43.7289
17.6881
-3.37532
0.633742
1.48434
-12.8952
-11.9187
0.135244
4.93228
-13.3895
-16.4419
-13.8759
-4.32501
13.42
15.019
-6.56411
-22.5418
-1.72939
16.1992
8.94785
62.0524
31.5216
-4.05942
-17.069
1.39439
-3.63912
4.57447
7.1559
12.2678
24.3171
18.7593
13.0424
4.95466
-21.4531
-58.2784
-74.7958
-45.9577
-29.9743
-15.1102
-0.113981
4.30203
14.4912
28.6469
39.4751
38.9603
20.0216
4.54762
3.74271
2.1051
-8.17253
-11.2544
-8.44918
3.87541
35.5898
51.778
36.552
6.7233
-7.41101
-15.1264
-25.3866
-28.4002
-31.1253
-30.8291
-20.9729
-19.0899
-17.58
-25.2297
-30.9087
-10.1333
-11.2677
-16.1378
-7.46061
-3.20982
9.38124
46.3371
69.9502
54.926
31.0294
4.93647
-5.51394
-1.59758
10.8106
24.7054
40.0974
28.1931
-13.6767
-14.0642
-24.317
-30.5726
-28.6864
-33.5498
-25.2146
-16.5849
-27.7478
-16.043
2.14784
-5.84807
1.1481
16.9033
13.7331
7.06763
9.89752
9.02479
-7.3616
-10.9182
1.75457
3.2304
13.4838
4.36928
0.0649582
16.3929
35.5082
19.0732
5.95584
-4.19237
-16.6068
-10.0445
1.45607
17.9338
36.5078
11.7144
-9.51637
-15.5826
-34.7543
-41.6014
-19.9016
4.08478
21.5154
22.6919
10.3293
3.50452
-18.0206
-32.3342
-30.8879
-36.726
-29.5704
-4.94447
19.25
20.3175
7.44994
19.571
23.7809
22.297
33.2735
51.5754
38.057
5.4824
-2.73741
-13.0416
-13.4388
-8.80697
-12.5372
-14.2103
-17.6073
-25.9147
-26.1736
-21.6743
-12.4837
-3.08785
3.44324
2.74843
7.07566
-2.70354
-12.2358
-21.6888
-24.5627
-19.3569
-13.7721
-3.19991
19.9269
28.6507
29.5208
34.7161
42.2154
41.466
21.868
4.62874
-11.6564
-17.2433
-19.3282
-14.7382
-11.6047
-3.84302
0.820802
8.0102
16.3501
6.82592
-0.192717
-12.4648
-11.0563
0.258172
-11.9421
10.8377
61.0621
51.5756
-3.26056
-53.0368
-41.2525
-6.90071
7.67234
-18.8704
-68.5208
-83.3271
-17.787
56.4955
79.26
50.978
-13.1719
-57.047
-65.398
-49.8093
-19.6049
-0.0929962
12.8089
57.2167
82.6833
85.1397
39.6085
-30.4339
-26.4583
28.3546
45.5351
35.3256
-6.71069
-54.2444
-69.4125
-56.6509
-24.8356
31.7315
56.0589
27.5383
2.92601
-11.0598
-34.9848
-67.8257
-77.8437
-37.8924
16.8599
47.7526
27.8532
23.3827
35.0347
18.8892
-16.5045
-6.82877
13.5422
20.0613
31.4736
34.5423
25.8354
19.3698
3.97199
-18.1367
-28.5501
-18.9269
-2.19022
-3.84507
-27.4452
-34.5939
-30.0739
-32.514
-7.32504
18.4288
22.4038
-5.66664
-11.6062
-2.31674
2.69726
-9.315
-26.8894
-12.5114
24.8328
43.1241
17.0678
11.1706
44.2823
51.1153
22.4318
15.7448
-14.4272
-59.0891
-53.016
-40.0729
-14.8898
-8.31068
-7.90741
5.59594
13.0844
16.0213
18.0859
8.70177
0.391791
-11.5653
-2.23825
16.617
4.59016
-18.2856
-14.1317
-7.61599
14.0169
29.5603
28.4085
26.5843
9.50057
-5.34599
-18.5706
-8.54305
9.02336
4.2784
-0.399265
0.127772
-5.74365
-12.2269
-33.3226
-47.0451
-24.4048
13.887
35.6046
21.792
23.3804
37.365
6.15724
-32.8447
-54.7391
-48.7282
-28.1826
-8.78103
8.7585
37.8056
47.1139
24.3822
12.5794
1.35002
-1.46303
3.1361
-6.42897
-19.0632
-22.179
-13.6761
-10.0875
-14.7834
-2.50769
14.6369
33.0362
29.6426
22.3298
31.4465
15.5502
-1.46997
-11.6668
-1.1243
2.93255
-7.45054
18.0999
10.2586
-19.4613
-42.9928
-32.8614
-16.2239
-12.508
-13.4466
-3.43269
14.0954
37.8558
41.0953
0.733692
-89.7876
-95.4336
-34.4177
2.19
16.2289
21.6668
25.8486
14.9324
36.2243
42.2809
6.49775
-0.224332
9.58474
15.0257
19.5458
22.1863
12.6019
-5.45855
-15.7618
6.77919
39.8735
35.0878
-0.677529
-13.2562
-17.7337
-36.0462
-43.4032
-46.7607
-51.7636
-16.3018
19.5406
10.8157
-1.77587
1.86382
-4.2954
-17.3224
-5.34149
3.04696
15.0761
31.9632
38.5552
38.3996
34.264
15.1996
-10.3066
-13.1448
-3.09307
10.8081
0.964775
-4.52995
31.5565
55.9922
1.21896
-45.7999
-50.1197
-49.8789
-25.0373
-24.3764
-27.4164
-29.2208
23.2207
30.7734
-6.13175
-8.20353
-3.18176
-1.04489
3.9722
13.0354
11.899
5.60205
-2.1254
-36.3863
-34.3978
23.7495
43.6439
16.9098
-50.6983
-48.5642
-8.65107
0.178998
-5.62378
-7.59757
-5.91148
29.2702
84.378
47.4556
9.19841
3.4339
57.1789
105.841
79.3688
27.4504
-5.04431
-39.0021
-47.1541
-19.4316
9.209
20.9151
3.95501
-17.3414
-48.3583
-66.4978
-61.4357
-44.9134
-46.7912
-32.6963
-11.8572
-4.87066
-33.5881
-85.5534
-86.8875
-42.9654
10.0704
27.5848
43.1734
55.5187
59.7449
35.1082
19.5827
59.1913
91.7788
58.1545
-1.57748
-41.4563
-30.9984
6.023
27.3188
17.7926
6.13547
-8.72978
-42.6968
-37.9335
-1.66611
20.6574
11.7221
-2.04575
20.2063
40.3655
41.1681
20.479
-17.528
-14.8168
20.5783
14.8461
-18.9353
-20.2302
-16.8787
-13.0412
-18.069
-34.3095
-30.6431
-23.5316
-25.0086
-18.8484
1.96462
13.2639
-12.765
-28.4059
-7.31006
0.292324
5.82481
25.9533
38.0339
4.54356
-31.0599
-35.3336
-22.2207
-3.01241
0.370617
7.77222
36.1646
53.6542
48.5097
35.5863
18.0032
13.7603
25.8531
12.6949
-49.248
-76.5591
-39.3162
-6.01706
7.10781
18.1726
20.5031
18.3404
9.90356
-7.98142
-24.4422
-7.71133
12.1635
18.8956
26.0761
5.93471
-17.3261
-12.5185
-18.6283
-15.9784
15.3033
21.0947
-20.8284
-31.3147
-14.2406
11.2472
18.6067
23.8905
0.32925
-24.6324
-16.1068
-28.9375
-35.3276
-17.1101
12.4502
43.5622
42.4152
14.6488
2.63642
5.11753
10.516
7.62707
-0.672233
-5.53018
23.2434
23.4038
-8.77861
-36.7545
-9.29622
11.7594
0.170301
-7.14554
-2.14194
-8.84207
-13.062
-24.2419
-39.9598
-29.6085
2.61985
13.1258
-5.42078
-15.1032
12.1049
39.2578
11.3411
-1.7429
14.693
25.9812
18.2425
13.6869
12.2362
18.5385
-1.58364
-13.5595
-33.9568
-61.6637
-36.4737
-6.70454
12.0943
68.8608
84.7505
52.1301
27.973
7.40757
-32.4656
-58.8239
-43.9105
-11.9473
0.0305629
-5.34304
-9.6626
3.37573
32.8075
22.0294
-4.44664
-7.88146
-0.639945
9.12502
-4.65529
-57.7235
-84.9891
-48.5773
-15.7012
-13.1718
3.4646
14.6345
18.1701
10.6313
-6.24709
11.0346
62.1917
37.5568
-5.22632
-3.44544
23.0505
33.1436
21.6203
5.22837
6.9726
4.27671
7.70445
3.4668
-8.93875
-13.7233
0.813944
24.7968
27.1823
7.40931
5.82582
-0.00018793
-8.37023
-1.60601
0.0374432
-41.9045
-87.8983
-79.1336
-59.9248
-27.0943
-5.7397
13.2961
31.2072
37.2812
28.3365
26.9272
25.5534
15.9524
12.7952
15.6635
6.72835
-8.74287
-43.0184
-41.5785
-20.9756
7.22067
30.521
51.329
66.3124
47.3548
12.2864
-11.8625
-7.60042
5.50295
-0.121785
-11.4043
-20.8223
-28.2975
-25.6678
-9.78092
-8.87409
-37.5275
-47.8341
-21.1984
-2.45339
10.736
11.1952
17.7952
42.6451
31.23
-2.22103
-8.22172
-28.1409
-37.054
-35.2936
-35.9886
-14.2396
53.0979
93.9298
37.9146
-9.14255
-3.11549
-17.5963
-15.2893
-9.16108
4.92579
37.2633
41.861
11.0212
-11.3835
-1.4003
0.108914
17.8706
22.2821
18.0982
8.23389
-8.20288
-32.0717
-45.3164
-43.8062
-31.4274
-19.6949
-17.1276
-4.34351
25.9166
33.8768
9.08301
-13.1693
-10.9955
-5.66063
-14.0064
-30.7948
-35.5303
-30.7775
-9.07178
22.7078
33.7871
17.1323
-3.94136
14.2778
29.6991
46.9791
64.854
34.1249
-6.92553
-26.1207
-17.139
-14.3433
-30.437
-21.1273
-4.29795
4.27464
34.5228
49.2501
31.8799
6.98766
-19.0064
-18.6998
-13.0507
-4.14994
-2.64038
-13.5154
-18.0044
-7.23679
32.6138
31.0546
-17.8631
-66.5505
-51.1008
-21.2631
-3.13076
11.0102
-2.12314
-34.1565
-55.1907
-27.0549
9.50487
32.2508
11.5631
10.6075
34.2785
42.4502
42.7615
35.0575
9.99347
8.3339
14.1197
25.9878
17.2391
-10.5805
-19.1056
-16.5851
-10.0408
6.15659
31.743
33.9016
33.8487
15.6357
-16.1976
-39.5556
-45.7759
-39.083
-34.5631
-11.9467
-10.4646
-38.5715
-45.9156
-41.8232
-16.9157
45.7804
49.3891
26.1416
-16.1304
-49.4443
-21.9971
28.9063
26.7548
17.8267
39.1307
35.6759
23.8396
24.1093
13.434
-6.44172
-31.1641
-51.6022
-79.7065
-43.5304
12.3537
32.9155
76.6038
71.1335
39.2341
24.0518
5.20668
-45.1776
-62.4533
-30.8143
14.4894
33.2554
14.1141
4.26902
3.6192
-3.17271
0.237324
38.7362
78.1881
30.1759
-33.4002
-83.5681
-107.163
-75.6475
-40.6384
-16.5661
-3.54024
12.8435
22.2451
-2.25483
-5.23692
25.1878
39.0731
37.5444
42.7195
14.9783
-23.2419
-42.9688
-11.2263
34.1203
29.9068
29.4531
35.3614
15.4371
8.78318
30.8371
57.2146
35.262
-25.2363
-53.6338
-59.36
-56.5832
-51.1844
-50.5189
-37.9404
-2.38394
9.56023
9.89574
16.3205
30.378
-7.89397
-78.4726
-91.1188
-38.2458
37.3952
81.6227
40.3953
-2.29094
5.82975
30.9764
29.7814
19.9198
23.5656
23.5715
16.8983
18.3071
36.2683
56.4341
35.4646
-2.96279
-4.14496
6.40668
-6.26261
-22.2327
-36.0568
-52.2766
-45.049
-26.4344
24.0549
49.895
35.1911
11.1988
-9.48095
-26.664
-50.9076
-80.4087
-100.295
-114.926
-90.6308
-52.4753
-4.4149
68.6859
146.958
159.03
91.6062
44.9892
19.6856
9.96385
-15.0254
-47.7174
-45.5863
-30.669
0.218046
14.4823
23.1848
43.7494
32.1639
32.2287
19.3017
-18.8436
-31.3197
-39.6211
-65.5766
-39.9432
26.0602
31.2959
-23.2944
-45.5297
-29.7538
-13.8891
-8.6125
8.16518
6.22283
-0.715196
-6.40129
-23.8388
-7.74778
11.0146
27.9037
34.9703
39.7104
40.6733
19.9666
-23.8154
-50.6175
-45.2217
-0.378045
35.291
63.1529
59.0638
24.4822
2.55366
-15.3543
-19.5945
-21.706
-22.1339
-14.7385
8.09815
15.1951
26.7106
27.1166
3.49845
-11.8669
-24.0021
-27.3728
-26.9697
-11.6563
-12.6131
-41.3847
-69.3631
-56.0767
-23.7843
16.1477
35.7654
46.9543
52.3368
45.7961
27.3065
9.16239
-14.208
-21.5119
1.28752
0.245084
-9.25252
-0.842029
13.2634
19.5565
18.4562
9.07675
4.47686
5.73379
-3.95691
-21.9524
-26.2288
-20.0836
-9.6745
-2.71118
17.0543
74.9573
77.2329
16.3403
-48.6916
-94.0844
-76.2895
-43.0487
-28.9891
-2.18014
21.7159
32.26
49.3609
63.6599
49.3717
20.6046
-5.58998
-21.0816
-28.3501
-23.7852
-37.5784
-59.9694
-35.5612
26.1312
50.6287
56.5861
38.754
-12.8904
-39.6289
-28.2037
34.2341
57.8325
-12.5207
-56.0284
-59.7005
-30.4148
-3.61388
0.324656
13.3213
28.1985
19.5279
5.39127
11.3351
12.2381
11.2651
-2.41099
-40.7906
-38.9784
-9.35735
22.3311
12.4503
-22.0859
14.2428
40.6967
25.9556
3.2949
-8.53429
-4.16925
7.4738
15.82
32.7289
38.4702
36.8676
-1.71478
-29.8928
-22.2612
-7.48019
9.48909
27.5107
-2.53735
-53.76
-51.8066
-28.0645
-29.4601
-28.4868
-12.6846
5.60066
27.6379
43.2373
22.216
-8.1593
-32.1619
-37.0718
-12.311
6.29256
-8.12992
-9.23227
25.6613
23.3959
15.1555
15.6078
16.0004
15.393
8.32318
12.013
13.5431
11.7723
9.41983
-11.2375
-21.5009
-22.417
-25.8634
-29.7515
-30.1651
-10.009
42.267
62.5185
2.54597
-28.7188
-17.441
-4.52009
-5.96172
-2.93361
7.81933
27.0669
47.269
19.9143
-20.4197
-43.0333
-35.7584
-12.0149
-0.728151
5.6615
23.0517
39.9602
38.8251
9.08884
-15.8814
7.23945
37.1369
35.8263
-4.50259
-40.5571
-73.6723
-71.1671
-41.2704
-13.4409
-5.73235
11.8588
56.0841
74.0087
26.9886
-24.6228
-30.1471
-22.3625
-19.0872
3.175
23.5957
3.77614
-21.1991
-24.9892
-6.86501
7.64973
35.944
46.0446
6.29638
-20.9324
-28.1475
-25.4305
-31.552
-26.5547
4.56508
35.6179
43.1987
8.24144
-40.6186
-32.4393
-17.4993
7.72842
28.4175
16.0437
15.0052
27.2095
60.3123
72.0895
42.1791
15.3671
3.51565
-14.0861
-36.8452
-32.0209
-30.1813
-22.1105
-1.30622
24.162
45.1443
-21.0531
-104.272
-85.0255
-47.865
-5.59989
31.7765
32.3199
21.9638
-18.796
-41.9278
4.0258
38.4115
71.6245
70.3753
17.1115
-20.2537
-47.806
-77.318
-72.978
-48.9881
9.08424
87.8195
71.048
25.4965
-3.05808
-16.8197
-7.47247
-10.1838
5.46557
30.6885
39.2268
25.1781
-9.77548
-39.2423
-44.1169
-6.65482
24.8566
36.3395
32.639
37.5351
35.2418
14.0694
-11.1938
-31.0571
-28.7679
3.7798
7.7867
-13.3141
-40.7799
-43.5391
-53.0183
-43.0948
-30.2997
-19.3717
-7.70532
-1.03923
6.05185
-7.37988
-23.6692
-12.7782
16.5594
59.5656
70.2068
53.2269
33.2246
10.5849
12.0105
11.297
-2.33857
1.5705
15.2292
15.5749
0.327021
-2.36635
3.42322
-0.291175
2.88934
-10.855
-53.7415
-61.5108
-19.6337
25.8656
56.8001
10.3111
-57.1429
-55.4935
-24.6235
-1.32651
4.07713
-12.5536
-39.3763
-30.9053
44.9246
91.1376
16.9086
-39.8743
-34.5687
3.90459
53.0619
69.9131
60.3571
31.6697
-1.7257
-1.11207
4.89246
-17.8449
-52.4965
-68.0328
-33.4298
-7.35778
4.92396
3.14181
-34.0061
-50.4133
0.716293
39.7661
48.4453
36.8121
34.9532
22.2869
-14.9303
-40.7403
-43.1281
1.5919
51.1689
40.8478
3.19132
8.41433
9.91326
-3.53549
-17.9477
-24.6462
-38.6761
-39.2631
-16.6686
-9.29424
-19.7545
1.21178
23.8549
15.8354
9.8502
17.7861
6.6176
-3.54383
-0.108317
4.83077
6.34954
12.7947
22.0067
15.1511
11.7613
7.50304
0.389957
-4.95327
1.82556
-6.66187
-20.6806
-34.0918
-36.1937
-19.7276
-7.26832
-10.4162
-10.5735
-5.33143
3.27002
22.5661
44.3556
22.844
-5.08428
2.8883
6.49285
-7.77613
-19.913
-14.9964
11.7115
34.0197
18.2595
12.2741
8.98004
-2.20135
-8.14021
-4.45914
-9.28124
-7.16152
-2.95972
-4.15447
-3.9462
15.1565
24.2704
-15.679
-36.6907
-22.2574
-9.43695
-5.75537
-12.4008
-1.70509
16.6388
14.3249
16.2626
31.3943
36.1368
25.9987
11.238
-2.54761
-14.8499
-35.9274
-44.1225
-51.0397
-47.2639
-17.4164
19.9337
32.8786
36.6955
30.6608
16.5804
7.69123
8.45905
0.0161554
-7.51579
-1.68293
-8.54323
-31.5207
-25.162
-10.0657
-3.05916
3.06931
6.60013
17.1297
26.6371
22.4141
9.13264
-6.97438
-12.473
-10.4682
6.27624
35.791
23.4797
1.83121
6.2881
-0.820139
2.72721
-7.33525
-30.7092
-36.7743
-24.1296
-9.43593
5.76731
0.719149
-5.25079
4.09754
8.33551
4.75855
-3.01505
-8.98248
-13.2892
-31.5964
-26.7664
-16.3654
-20.6687
-25.2617
-29.4499
9.68528
70.322
110.754
71.4839
34.102
37.5674
-2.53914
-85.4741
-49.8454
-20.3907
14.6738
37.2572
25.304
3.1238
-18.8058
-21.1054
-11.6759
-8.01375
-8.36797
3.37646
8.52542
-20.4925
-35.1582
-2.31854
9.51344
-14.6563
1.72082
40.8017
36.7137
21.7959
30.6056
52.7246
18.1529
-22.8264
-53.1343
-47.126
-25.1463
-12.5189
3.77508
2.66618
-2.64683
-10.4096
-26.5732
-29.9425
-17.7836
-20.3513
-16.8333
22.5402
30.1287
24.862
3.05346
-20.2085
-20.7203
12.9354
45.117
34.7793
22.6387
15.597
6.54578
3.18545
-0.304172
-4.49927
-12.9674
-14.6832
-5.97935
0.170635
-0.676029
15.8996
6.97375
6.85428
-7.06035
-22.7151
3.24513
7.89107
4.49725
9.77804
9.78177
2.07722
-11.1414
-23.0569
-38.0815
-25.3607
-0.473436
4.84331
9.01296
21.8869
34.6676
25.0646
-1.51008
-45.8748
-91.5615
-83.8633
9.41447
44.4186
12.8401
-10.4905
3.50913
13.7826
17.6274
19.326
22.658
25.9164
18.1376
19.7007
28.0488
40.1474
40.561
24.6224
19.7445
13.304
16.6164
9.62695
-25.2095
-48.5603
-40.4757
-15.828
-22.4732
-36.3605
-23.7545
-4.76532
-11.2817
-26.1326
-38.0387
-33.0333
-33.9158
-32.6116
-27.1339
-5.8407
22.3496
38.5917
45.6401
41.7533
13.4207
6.45443
21.4842
23.9458
2.20421
-20.4026
-23.1979
-18.9355
-7.59987
10.2854
24.8343
45.8666
59.7303
27.4588
-0.284047
-8.61121
-25.4961
-17.4669
1.0334
-3.26852
-4.52903
8.56145
-7.26139
-50.271
-46.2349
10.4673
6.36284
-30.6419
6.1041
85.5138
123.122
83.7558
-0.258328
-32.9207
-43.0743
-63.4877
-67.8015
-44.3148
-28.7764
-23.3669
-24.0236
-29.2649
-13.2735
22.5354
47.9245
30.9639
10.3235
5.60833
-7.01066
-37.0762
-41.431
-23.1097
-29.7611
-11.481
1.22206
28.2767
35.3022
46.303
45.8873
32.6705
11.5249
2.67461
9.07531
16.9798
7.27638
-9.53615
-0.587502
15.1277
17.8723
-7.96388
-35.6624
-42.1849
2.84989
17.3033
20.1193
16.4549
3.64555
-10.4284
-8.90256
1.31381
3.56317
2.74523
8.03132
12.8511
-2.68903
-10.434
-3.49538
9.48443
5.94035
-22.3621
-52.1675
-56.2107
-44.8396
-16.1925
9.25953
17.8901
30.9951
30.5248
15.9212
-2.391
-9.74743
-5.17876
-1.06965
-4.84975
-8.69023
-12.2344
-15.2269
-28.1042
-36.6655
-8.79445
1.74284
10.7651
30.4559
37.0711
24.5392
7.2565
4.21545
11.6716
25.5823
32.1132
18.3737
-11.408
-5.83438
9.90265
24.782
25.6763
19.3985
19.9491
6.82094
-13.905
-21.211
-33.7125
-7.05753
19.4893
51.3939
41.0818
-4.47583
-30.7159
-35.7777
-41.7414
-46.8588
-34.4493
-67.2152
-83.3618
-50.7897
-2.03915
16.161
-10.8107
-20.2354
26.9788
42.7188
32.1969
16.9392
5.97767
-11.1815
3.0735
41.4791
72.8589
47.2438
23.288
19.7048
10.9517
27.7358
36.5018
7.16924
-28.6833
-23.2157
4.61616
21.7789
-6.24301
-20.1858
-25.4352
-30.1549
-38.1271
-46.6808
-59.6156
-65.9865
-60.4629
-19.0423
0.676263
8.90492
15.5562
24.8242
34.3548
31.8648
24.632
10.5037
20.4119
24.3733
38.6611
80.6556
101.034
45.2703
3.88775
-8.32732
-6.95601
2.46331
-17.8013
-45.1208
-43.3471
-35.1347
-22.1492
-23.8427
-38.3316
-38.1168
-21.3091
-13.1177
-14.3274
-14.2346
-26.1839
-29.6216
-14.6226
25.7723
16.7389
14.4833
5.41481
9.54701
2.6106
3.47786
19.3121
24.4214
15.3871
9.66178
-3.337
-5.60883
-7.86165
4.82776
9.51989
15.8884
30.2057
48.6659
39.7381
-1.90882
-16.2223
-17.065
-25.1141
-31.568
-11.8344
11.9256
30.2201
25.4921
-18.1699
-8.98683
33.1914
33.9519
9.19201
-21.3511
-34.9454
-41.8881
-41.2187
-53.1586
-68.2078
-41.3337
-1.70783
16.263
37.4129
31.3784
18.0565
7.98801
-7.44355
2.39456
36.625
33.2596
7.28427
8.66093
28.9098
35.7134
34.446
46.3183
19.2155
-14.4185
-5.37795
5.31931
-12.2753
-43.5173
-61.2015
-25.8774
-12.0137
-36.9119
-42.498
-21.4603
-0.965169
-5.74691
-9.82208
-3.24166
-7.03273
-14.0971
0.147399
4.09281
2.61705
0.141595
7.03879
18.9539
32.5653
60.9298
78.0868
31.3853
-12.7189
-11.4339
-5.25748
-19.0585
-24.7577
-16.3589
-7.95846
8.94812
26.2868
22.1841
33.2311
35.3886
7.46753
-27.4261
-29.5182
-28.2377
-35.2242
-25.8032
21.0577
19.5021
-17.6353
-35.9997
-3.70164
13.7879
7.13625
-8.70204
-18.9773
-28.0022
-34.5578
-27.3079
-27.363
-22.1806
1.94297
38.8663
45.8438
44.385
57.4885
46.3644
-7.49621
-18.6225
11.7756
28.5993
-10.6429
-35.7081
-30.711
4.01262
4.87857
-11.18
-21.8894
-28.9828
-30.5057
3.89295
28.218
17.182
21.5519
25.9554
51.1095
35.0063
-19.2893
-28.5429
-3.76754
18.42
18.5178
12.6768
-5.88747
-13.8091
-2.67086
6.53601
17.0162
23.3831
14.0867
-26.4775
-76.9998
-65.1051
-44.5501
-32.2214
-42.1731
-36.5433
-1.7452
18.5548
19.7069
15.32
4.22784
-11.3832
3.81475
4.35473
8.22253
6.74917
-0.58994
36.8752
90.9598
76.091
53.174
33.2195
10.4462
0.934271
-12.3115
-31.2839
-29.0396
-22.4488
-14.8994
-3.86438
4.68698
8.49911
-6.71897
3.07036
3.50014
-22.8223
-25.1753
-21.874
-48.3271
-50.9093
-29.6578
-21.3445
-28.4581
-30.3818
-12.8674
23.2317
43.2346
64.0626
68.1692
23.6524
-4.88679
-21.7418
-14.8666
-5.53853
7.35535
43.8043
51.6604
37.0993
22.066
6.61393
-3.36928
-0.97223
-11.7762
-37.1931
-72.1157
-70.6092
-37.019
-18.9463
10.7115
38.0165
29.9432
21.4718
22.912
16.8087
-2.22825
-13.9676
-17.5445
-19.3908
-14.0803
1.51121
-2.31759
-5.72127
33.8864
59.3769
50.5165
33.5911
27.5366
18.1839
-15.8689
-42.9631
-40.5995
-17.7018
-10.2446
-33.0857
-30.3463
-17.8627
1.27538
4.85576
7.60916
12.0251
16.3493
-1.02132
-32.5507
-36.9685
-39.0549
-10.5369
-4.10867
-4.5314
-4.47911
5.79545
47.5495
50.9836
25.0503
3.06065
5.4763
12.521
0.0654678
-10.7137
-4.10413
-14.0456
-39.1442
-41.3847
-12.3743
31.6835
59.0983
39.7924
46.5938
33.2229
-14.2578
-29.1439
-24.4557
-17.473
3.77126
26.5831
12.8437
-3.28265
-6.11786
-13.7876
-21.6641
-0.470734
12.5978
19.2966
4.81603
-8.23997
4.16545
3.27676
-34.2217
-31.4554
-2.64237
10.6815
-6.83502
-2.92854
-0.498837
-27.7677
-49.9959
-35.1974
-15.1151
-5.64942
-11.8804
-9.20533
17.3584
36.8839
43.7445
28.3953
25.9794
31.3296
24.9475
11.7683
1.31635
-1.79403
-3.90949
-8.48449
-10.2788
3.82886
26.7593
14.6931
1.14991
-0.334478
-8.43229
-10.608
-9.47867
-37.1888
-60.0252
-32.7942
-20.1721
-3.9898
18.5233
19.2499
21.6393
27.2937
17.4294
8.33803
15.7764
44.2157
51.7995
19.2424
-21.8854
-35.8187
-24.0134
-17.7134
-7.21795
16.8476
12.3368
-14.3236
-17.2489
-19.591
-22.8981
-15.0446
-14.8299
-25.2981
-19.1394
2.78224
1.18485
-15.1165
-14.7008
6.78945
36.8717
16.6628
-5.64364
-2.54864
14.8734
34.1132
40.0286
15.1581
-8.36561
-18.8401
-24.7147
-12.2642
-8.69214
-22.5886
-20.0877
-10.6998
-2.07537
-8.29742
12.0304
53.6033
36.9321
18.1709
25.9931
30.3914
19.7128
6.81075
9.45205
30.2844
19.14
-35.6855
-70.2167
-70.5868
-39.4849
-5.40169
-2.44144
5.76787
60.1692
72.8326
22.8213
-31.7139
-37.4595
-14.9998
-19.164
-34.124
-38.7262
-27.6457
-12.2749
2.68251
16.4526
40.7176
49.7349
28.8699
17.7511
25.894
-1.23559
-20.7865
-29.8442
-3.38754
21.3696
-14.7122
-36.6876
-38.6129
-27.5591
-9.94369
3.70212
4.88162
0.145097
-8.99468
2.48998
21.2994
22.4526
19.7951
11.373
1.20741
10.9309
-1.07109
-30.0169
-44.4729
-43.0601
-6.27187
37.9941
70.3209
61.9289
40.3382
26.4831
25.7363
17.1652
-22.4036
-73.4637
-51.6868
-12.5991
11.9623
25.1899
30.6257
39.2193
37.5661
5.95992
-33.1162
-40.2348
-26.1903
-33.0627
-27.8968
-34.4191
-30.0742
-11.9762
-14.2957
-5.41596
24.3251
58.5701
43.4128
-3.20647
-31.8897
-22.8898
-11.2073
0.00190959
4.50088
-3.91923
-6.46962
-13.0205
-17.5875
-21.9755
-15.1082
45.5276
88.844
70.6755
37.4341
33.448
17.8337
-8.03499
-27.7001
-21.4581
-17.0446
-28.7524
-40.4841
-47.1168
-40.5881
-26.1846
-8.02205
5.07387
25.3964
50.7033
25.1065
-14.1865
-38.7699
-30.4535
-15.9839
-12.0272
3.60676
18.7139
35.682
39.5095
14.4663
-16.0722
-41.6566
-43.1799
3.6387
48.6911
47.7445
36.2698
23.1138
7.83313
22.2004
24.972
23.6592
-0.146897
-26.0799
-50.8367
-52.4874
-29.2836
-13.6281
-2.24697
21.0937
25.4476
8.50756
13.4631
-5.80868
-24.464
-23.3953
-20.5053
-10.7026
-9.87316
-7.622
-8.5539
-13.0692
-2.39515
20.2306
28.8577
20.889
18.5477
14.2462
16.1372
13.7257
-12.7451
-28.1733
13.0867
15.9086
-8.81606
0.333225
-2.02502
-7.81653
-4.05505
-2.31329
-16.7056
-25.288
-15.3714
-11.5741
-9.51778
-2.9223
3.89658
-4.24076
-6.22993
-0.631054
13.8051
29.0676
17.6052
46.0802
102.22
89.1023
35.5937
-26.3337
-61.3091
-57.8021
-49.7453
-51.8915
-20.3298
39.151
8.65073
-48.9099
-58.436
-34.894
-9.27925
-6.62803
21.4816
44.2373
24.1309
-11.1618
-44.4125
-51.7532
-16.4058
9.43982
29.7891
27.9016
18.5266
18.5502
5.96823
-6.85864
31.661
52.7387
38.4205
23.9705
15.8337
20.397
17.3905
-9.45097
-27.6124
-19.9253
-20.7156
-15.561
-4.24679
1.46757
-20.622
-58.0462
-40.0058
1.91751
2.42462
-23.837
-25.2099
2.57976
21.9553
18.0662
29.0353
57.1605
52.0366
48.3214
19.223
-22.7063
-32.8698
-21.037
-9.87971
-0.659673
4.20145
20.4604
16.9432
-6.24564
-22.3069
-34.9297
-39.3254
-17.2696
12.1501
18.3864
5.36641
-27.8653
-32.241
-0.541258
25.4359
9.85381
-18.6095
-38.1751
-33.1014
-14.893
5.3768
15.1503
7.46925
-0.730926
4.37098
15.5855
21.9302
14.7109
4.55477
1.24845
-2.97369
-0.948377
5.96909
17.3233
26.7176
23.4008
21.4335
22.7472
18.6013
13.3345
8.30464
-11.0697
-25.6846
-40.9468
-35.7935
-25.2628
-20.5902
-15.8505
13.2672
52.6002
29.7209
-20.3185
-27.1757
-19.3201
-16.689
-2.85836
8.62444
10.4281
9.69128
10.5121
24.4809
42.0321
40.0864
34.6983
15.5785
-28.8215
-43.0236
-32.6794
-47.2343
-61.576
-41.7159
0.844899
13.4301
7.65322
8.77483
17.6563
19.6112
14.2527
5.08683
3.73367
-4.58939
-6.36508
15.1646
18.9069
-17.3207
-24.6698
21.3422
52.4655
37.8089
-31.2093
-51.0288
-42.1435
-43.7271
-46.8797
-11.253
60.3469
99.5225
76.31
49.9314
36.5228
5.28307
-24.5703
-48.2459
-64.3659
-50.3001
15.172
44.4703
13.1611
-19.1255
-9.92152
5.95651
0.698501
-14.2655
-14.2651
-16.4585
-36.1791
-61.1253
-50.7197
-36.5458
-37.5037
-18.6688
18.9705
48.7796
62.2419
79.8799
52.0781
-9.49969
0.194323
31.4298
4.59152
-55.981
-34.3355
27.1033
66.0567
73.1553
15.5313
-23.7774
-20.529
1.1562
-1.41812
-17.5784
-29.4274
-16.2416
-1.81412
-2.99114
-1.42621
1.0364
-9.96287
-20.188
-2.16946
28.6189
19.1928
-6.79819
-20.1103
-32.1555
-21.9399
-5.52851
5.0498
18.3916
16.2669
7.11386
-9.46236
-28.2197
-23.335
-8.51919
-7.51101
-13.2054
-4.8888
21.2995
46.9921
60.5794
55.7745
32.0129
-3.99861
-77.7354
-75.8472
-33.7306
-12.9018
-15.5766
-12.3279
16.0401
33.9689
36.2423
35.0314
23.1457
12.0586
11.0669
-2.84023
-30.9936
-29.0736
-10.2855
1.49498
8.67717
3.30547
13.5592
13.0539
10.1991
19.7326
1.63359
-9.27819
1.64878
19.0273
10.8406
-37.6437
-48.4099
-8.52876
12.8264
5.69712
2.03587
2.5216
-0.82231
-12.219
-38.7645
-42.373
-18.678
-5.03074
22.3811
51.38
21.2832
-8.04068
-1.44778
17.2437
5.95839
8.84904
10.3171
-11.3708
-16.8124
-17.4755
17.0649
60.4789
49.4208
19.4928
12.9496
17.3066
12.0875
-20.5933
-54.727
-65.2646
-35.2805
-0.36074
10.3227
-24.4585
-29.9819
-17.0514
7.50813
11.2926
5.83939
-1.35821
-22.2757
-22.2205
0.999626
-6.66081
-44.876
-14.8766
27.8447
40.2932
23.3969
-4.73513
13.7669
32.713
8.10565
-5.60678
13.3677
35.6856
33.2439
16.65
16.0135
18.5339
13.8235
-11.0734
-21.6847
-8.11763
31.3054
36.978
34.1241
12.334
-30.6928
-49.0919
-47.1808
-31.5626
-14.9528
-1.10544
-9.58585
-24.1829
-31.138
-18.4407
-3.91123
-3.71822
-34.2353
-20.1055
25.5179
43.3638
34.744
3.89601
-23.4895
-18.0625
0.879083
-4.18003
-10.1339
-8.01711
-2.17583
8.29634
8.12045
16.358
14.9003
14.3425
10.2538
12.9898
24.0841
12.1028
-10.5032
-10.1088
-2.50834
4.53032
14.7882
46.8036
49.2407
6.07623
-41.1655
-34.8172
-28.0509
-19.6098
-2.29124
20.6553
31.8282
23.5482
-7.19294
-49.3001
-55.9559
-4.69374
2.7606
-6.38169
-1.45104
-4.57535
-9.5456
-14.5124
-14.1157
12.0117
29.8877
12.3637
0.865903
-7.51118
-8.30185
-11.2426
-4.69678
0.480658
5.27039
33.1547
41.758
-0.0725184
-21.4174
-3.1168
41.255
57.3836
6.66917
-74.0045
-53.8803
8.02026
37.4364
3.0677
-30.8177
-27.7113
-8.9155
2.90589
3.62336
-7.17976
1.2311
13.7577
33.035
24.3159
11.9963
2.02654
-14.7599
-18.5979
4.51776
22.8451
12.137
-10.8182
-19.1928
3.20359
13.6087
2.99549
-7.1174
-17.8563
-15.9658
-4.8543
-4.59583
-0.936276
0.682211
3.28116
9.6029
3.2306
-8.77358
-4.11646
8.10155
11.4492
-0.400227
-23.2541
-31.3969
-20.8018
-7.18424
7.67587
22.3943
11.4537
13.4304
15.6261
16.0743
24.1694
7.25201
-10.6398
-33.693
-35.6081
-34.4538
-43.2551
-29.155
6.14095
28.0496
72.9591
67.7704
12.703
-12.6183
8.85349
6.98474
6.75214
-0.618794
-10.6666
-10.376
-13.7674
-11.1389
-13.5638
-2.77105
3.92044
5.79488
11.6388
19.6514
25.9719
7.67381
-30.849
-24.6868
3.66496
15.5638
4.18038
-13.065
-28.1393
-25.9066
-8.00144
18.4594
23.4978
-5.81971
-35.7013
-13.9873
28.5877
50.3029
26.1442
-31.3362
-18.1784
2.94922
-7.08106
-20.8464
-15.6533
-0.478607
-4.08038
-2.76381
6.68458
7.85889
3.40619
-7.78295
-12.8701
9.40522
30.4777
23.8819
3.98741
-3.138
2.78427
16.1642
-3.20919
-13.7764
-19.3461
-27.6115
-12.4355
23.2107
7.21687
-12.8118
-14.5542
-13.6649
-3.59596
-13.2843
-12.5102
13.2839
31.1911
36.7828
40.067
30.6669
24.5653
11.008
-17.4069
-24.4502
-21.565
-4.77342
-2.63106
-12.0164
-3.9283
-5.92634
-12.0335
-15.5065
-24.2251
-30.7777
-5.00399
67.6512
70.0786
-5.1806
-49.0364
-45.9773
-46.5887
-25.5301
5.61491
27.6404
40.3922
17.3099
15.7806
17.1536
16.9661
28.6541
28.4742
18.4923
12.1943
5.30743
-29.4037
-74.5558
-60.3998
-12.8918
6.59099
-4.46374
-5.71406
2.97589
3.86084
-3.77598
3.03947
6.80567
-11.3088
-28.8434
-29.91
-11.4791
20.5619
17.9232
9.42448
4.89542
3.31777
-5.95281
-0.0616013
25.4037
25.4131
30.3415
42.9034
52.0542
40.7615
24.3421
22.4025
26.6708
20.5831
5.22458
-17.9806
-48.2122
-58.1052
-25.7334
-8.78494
-43.9918
-90.172
-67.3923
-25.6936
-20.2966
-15.5069
-6.31442
0.481167
24.9334
39.9
42.4641
20.823
1.45608
5.26105
11.1893
16.4642
22.491
20.3055
10.9944
3.95978
20.8684
37.7555
5.06022
-25.2096
-20.7849
-10.5561
-14.1989
-16.9662
-20.4877
-10.2578
-8.57372
-15.8709
-11.4015
-9.87099
-18.4374
-19.1126
-6.11683
3.03355
9.0906
10.2534
30.0978
51.1342
35.3393
16.1458
16.165
4.33875
-10.6077
-7.04332
-16.6467
-23.6824
-12.8745
20.6523
48.2311
22.354
-28.7144
-31.9201
-21.5954
7.848
24.408
-3.15007
-22.4235
0.29122
13.5935
8.23036
-3.59891
-12.4514
7.42693
8.3646
7.95876
0.0564378
-19.7154
-44.3694
-30.3751
-8.41962
19.1617
19.2248
2.45133
-13.8699
-32.8073
-16.0874
23.4766
47.836
31.595
-6.00641
-61.9229
-31.3119
-2.68538
-1.60608
-9.88934
-4.15396
5.75433
10.4889
-0.779248
10.7254
30.9213
31.755
30.0266
21.5749
19.612
43.1272
25.4144
-21.3348
-39.4559
-17.5149
14.3009
15.4262
4.03431
0.44765
2.22066
6.5504
0.761137
-14.7388
-30.7711
-33.7055
-29.9454
-18.4792
-8.99337
-7.87733
-10.6951
-11.7654
-4.13661
-9.08347
0.0582509
18.0415
35.7639
21.7296
5.23041
-2.11072
-2.87161
-13.8653
-15.3483
1.15837
4.12444
-17.6262
-28.9812
4.30165
35.823
36.1715
21.1808
6.55163
4.45419
11.5979
2.29434
-19.8564
-20.4502
-10.5768
-6.51502
5.71821
-1.08822
-22.5673
-24.5059
-1.66066
22.4104
52.1418
61.3021
26.2854
-20.6774
-31.698
-25.2208
-35.0711
-32.8566
-12.6804
6.05983
34.0539
66.1642
32.3274
-23.1664
-29.028
-6.1719
0.917738
-5.41941
-12.9274
-15.7543
-15.1658
-12.217
-12.6704
-5.44684
0.785648
17.4054
37.3138
12.9706
-2.67993
-7.45937
-8.72704
-26.2757
-44.3483
-17.9841
13.634
2.62095
10.4669
20.5393
17.4544
11.4053
-2.83147
-6.88426
-6.26934
-15.5626
-9.48443
1.66462
18.7762
47.6296
55.1679
72.865
50.6708
5.26972
6.70648
-15.6206
-65.4036
-67.8607
-43.0699
-12.0119
14.7904
18.9606
10.8755
-2.53708
-7.24546
-11.5567
-16.0898
-20.3815
-47.7523
-73.6622
-67.7459
-53.4273
-19.9825
25.2102
47.5704
57.1526
57.277
45.0107
27.4191
23.5363
6.01273
4.96664
10.0298
14.6803
16.188
17.8074
7.80207
-3.69463
-5.67242
0.449725
9.89724
0.432135
-19.4429
-20.3933
-6.92382
12.0503
23.5587
18.52
9.91837
-8.0033
-26.1016
-34.0428
-31.2233
-26.9047
-32.2593
-22.2249
-8.9022
31.1664
82.1864
48.4578
-40.7912
-78.6214
-44.9125
-24.8901
-2.75489
15.388
31.2903
42.0386
34.4893
10.0715
-7.7906
-11.1199
-9.36907
-6.71388
2.96669
8.53607
1.16229
-24.9675
-38.8549
-7.45616
31.8031
53.9976
53.2049
45.6837
18.2368
-11.9732
-32.2878
-52.6825
-48.5965
-16.6642
-0.716665
-20.8773
-19.5343
3.58112
16.0751
5.92887
9.9034
0.948359
-23.3619
-0.633916
69.961
80.0771
22.5058
-27.7422
-15.8963
8.05748
3.35186
7.53118
1.73972
-12.8424
-17.6152
-9.75002
-14.3342
-21.1218
-26.3494
-31.6326
-17.5839
2.08024
21.7967
28.7164
-12.71
-37.0646
-35.1237
-9.75637
1.17724
-1.3969
-3.73989
4.1184
16.6808
17.6431
11.5607
15.8267
30.7108
22.1295
26.8703
51.3841
32.3921
5.73083
-21.1864
-35.8432
-28.1056
-13.0957
1.80973
15.6673
20.4529
21.9574
25.8486
21.0119
7.96927
-14.7626
-19.6289
-13.0387
-16.3516
15.6226
19.8906
-58.4488
-121.933
-69.3419
-18.1031
-7.52383
-4.14171
4.15003
3.82105
-7.05466
-11.0437
-5.91188
9.21477
17.0276
8.03455
1.53389
29.8477
71.2411
98.6215
63.5656
13.112
20.7326
41.8113
10.5123
-14.6957
-9.76384
-14.4891
-22.0702
-10.5947
-12.4668
-45.9389
-50.6919
-38.104
-32.4303
-16.7639
-5.89088
-8.6123
-4.59961
-3.62112
-6.27788
-6.99998
9.23189
32.4389
28.4091
12.0175
11.2089
23.1947
23.9818
12.1599
8.89089
14.6808
3.12468
-16.8696
-34.5893
-28.2021
-19.0105
-14.0902
-8.93376
-2.22122
-17.6998
-6.806
3.09942
5.21083
7.71443
17.643
12.1929
-5.66614
0.428986
16.3956
19.857
20.3353
21.8941
18.1678
21.5898
14.6459
19.8323
24.3702
-0.656495
-42.2316
-51.9392
-50.8741
-30.8966
-11.591
-13.4374
-16.8775
7.56627
31.8547
28.9642
1.40813
-8.19118
-3.52825
-1.87499
-0.678367
3.41334
5.06986
4.96159
-4.51369
-9.79282
-4.51427
11.5822
3.5802
-23.2424
-45.9977
8.42771
20.1776
-1.43287
-7.92759
-14.4486
-31.8274
-2.78448
81.5186
76.689
16.2916
-16.216
-12.4812
-2.72651
-4.26559
-5.8614
-12.2529
-12.3618
13.0329
36.546
28.4368
-20.874
-34.7828
-15.8231
41.8757
61.7632
53.0216
13.0121
-53.6482
-60.8612
-31.702
-16.6934
-15.222
-23.5714
-41.8246
-47.2059
-29.3794
-1.01093
6.54887
33.2559
57.7538
35.5523
7.88176
-11.1209
-39.3648
-45.5086
-21.4408
-3.83766
-0.516599
16.0251
33.7433
44.3873
39.5414
31.7371
34.4403
33.0559
24.6437
7.74147
-10.6156
-28.7676
-35.674
-36.8653
-23.3013
-12.0257
-16.7665
-0.720125
24.8956
22.415
6.90667
-16.3629
-27.699
-8.11835
-6.6616
-0.977132
17.7896
17.0103
17.816
19.4681
11.6039
5.11851
6.40689
4.52895
10.3635
-0.397154
-35.4504
-91.5485
-87.1807
-7.0007
37.0835
17.3851
8.61455
11.736
17.6287
15.0934
12.7252
4.00796
-5.13432
-4.9444
15.3756
13.4249
0.751094
-2.75439
1.72445
7.14328
2.99461
20.4544
20.8199
-11.6247
-25.4302
-3.73006
5.16081
-15.4905
-13.5772
-8.89043
-18.8908
-13.3803
1.42853
-0.5211
-0.406708
23.9606
26.0408
21.1148
14.9305
34.2773
49.4965
35.2438
14.1428
-22.6341
-38.8703
-34.4622
-24.541
-23.6734
-25.47
-19.7669
-13.3623
-13.315
-18.1984
-14.459
-12.408
-19.6233
-7.03584
4.18876
8.11922
-5.28825
3.37016
19.6884
24.476
30.9342
26.4619
22.9675
12.8267
-11.8046
-10.9665
3.60345
-0.560242
0.215299
-1.47766
7.55049
-0.578295
3.24083
27.7973
-0.915064
-21.66
-20.9307
-5.7826
57.2154
106.78
60.9014
2.74577
-32.3086
-27.6033
-15.4005
-20.1913
-24.5133
-42.8343
-83.7231
-57.2458
-32.8289
-20.0096
-13.8762
-18.112
3.07079
20.3106
12.5372
6.53769
-23.1654
-56.6861
-16.6016
45.7311
53.4
18.975
26.3798
41.4421
24.466
31.9592
61.5517
52.0573
33.8096
13.8063
-12.0132
-13.1401
15.3042
22.2288
-4.68054
-32.9093
-55.1771
-89.6551
-84.5116
-51.8121
-13.804
30.396
19.4263
6.59484
18.629
16.9675
-1.15355
-2.92963
13.6861
42.219
47.1614
11.2058
-14.7296
-13.4948
-0.699386
-11.2319
-14.5247
10.975
20.4598
-14.9645
-24.0843
-23.9076
-8.38462
2.573
17.1275
37.9102
35.9004
-1.06465
-30.4274
-46.1232
-35.8581
-7.84598
-14.588
-10.4298
0.849332
-5.02028
5.90288
15.8925
5.77879
4.13729
18.855
36.8797
46.6997
16.5911
-13.8676
-34.3784
-16.5095
7.95291
11.5211
7.38058
8.09013
-1.97136
-2.24898
-7.42059
-2.4238
11.4751
6.64067
12.4084
7.5979
-32.6066
-60.9418
-14.6221
0.257461
-20.5847
-40.8296
-27.1774
32.1329
75.4509
49.3162
19.0154
16.2595
7.38062
-15.7089
-4.26481
-1.55798
-12.1961
-15.4609
-24.92
-23.8277
1.56144
23.5664
7.4716
1.25146
16.6784
24.9947
21.2985
7.18581
-17.1443
-19.7043
1.49399
16.7201
4.8009
-27.7735
-57.1449
-49.4188
-29.2983
-29.6552
-26.1685
1.99468
44.0664
70.4243
46.5995
32.959
36.4886
40.2951
6.95017
-29.543
-41.1508
-22.92
-12.7466
-36.231
-16.6835
33.6857
32.571
15.7518
12.2464
10.3539
15.2437
-6.0238
-41.7198
-38.7544
-22.1771
-23.5151
-25.8723
2.49676
74.0163
68.7693
21.1473
-6.99884
-26.0993
-34.533
-36.7083
-24.4955
-8.98125
-7.66126
-2.72582
1.09679
-0.930884
5.56195
18.9389
24.502
23.513
26.1966
12.1629
-10.5973
-25.4177
-28.1048
-61.4742
-75.0763
-29.0877
7.4865
31.4498
35.5621
39.8775
42.1731
56.5561
73.5481
50.5928
19.1642
-3.9118
-22.4727
-22.0711
-11.424
14.356
13.2854
-18.0304
-38.06
-22.9613
-3.26499
-15.2431
-24.6243
-30.7011
-42.9362
-28.7658
-1.73807
3.62348
9.7334
5.30394
-13.2104
4.28376
21.797
9.51028
9.12388
1.13085
-8.95671
-13.9866
-4.57519
22.0865
31.4638
13.8147
1.22076
-3.13594
2.3741
1.84439
-6.76692
-8.73056
-8.51427
3.01124
36.0053
31.9417
2.37033
-5.63528
-14.2653
-21.0417
-13.7606
-17.062
-16.4491
9.72282
21.8058
17.0414
11.0104
-5.37593
0.969817
3.25229
-4.70457
-16.5041
-22.6452
-2.41535
7.18284
-2.38228
-6.12037
-6.49916
-1.28826
4.89022
7.21503
10.8587
-13.49
-34.4059
-8.15723
11.2054
25.5139
41.0768
48.8111
35.7332
9.29047
-17.166
-58.1918
-52.84
-39.381
-25.9367
-5.76201
-5.95218
-9.78732
-0.971362
13.3377
25.4589
43.3632
52.2394
37.8053
31.2892
21.9998
0.605888
-25.1139
-40.5156
-55.129
-40.9316
16.3615
31.6748
-4.21556
-18.8415
39.7031
84.9677
58.2083
22.1694
-17.2409
-44.1364
-32.1861
-23.5252
-41.9677
-54.9633
-54.9244
-41.6743
-37.2248
-24.6722
-0.702231
14.7673
21.1313
5.45334
8.78694
26.2167
4.46928
-14.1894
10.5753
18.6117
23.9047
26.9085
10.8985
8.49867
14.4641
14.9243
23.8282
47.3895
60.0377
42.0429
11.706
-6.35565
-15.1615
-18.8686
-4.21447
-4.4511
-30.157
-37.5804
-27.2385
-21.8859
-46.9871
-101.824
-51.3524
-1.21934
12.9669
32.5001
46.0097
35.5713
34.8975
31.5242
28.7549
19.7784
5.40763
-6.02171
-9.05651
-16.8913
-41.1956
-50.9409
-54.8464
-41.8873
3.91905
44.2545
40.564
29.5525
27.2131
10.1899
-11.5249
-16.9333
-3.64922
8.22577
22.4359
28.1447
13.7216
-1.89706
-3.45948
-0.460697
0.463777
-3.3479
-1.09677
1.76299
-6.62152
18.8613
40.5987
23.8025
-25.1907
-48.313
-26.2974
-26.8604
-40.5859
-30.0456
-8.64786
6.48652
-7.18349
-5.60169
10.2082
12.4216
10.2835
8.60541
13.8333
13.4517
14.9837
20.0306
-6.51679
-12.3745
9.8883
14.2925
-17.2523
-29.7843
-24.5258
-12.4233
-0.469242
4.15149
20.7464
35.9702
38.4368
18.0724
5.67178
-8.86824
-14.8846
-13.9252
-19.7025
-1.6952
-4.065
-15.7268
-2.4995
12.6247
23.068
37.7074
61.2285
61.6915
-2.77057
-76.2455
-56.679
-13.5414
-14.4903
-6.27987
8.35865
16.4705
7.32553
-5.47166
-11.7132
-24.547
-22.8166
-16.2105
-12.3449
-3.89805
2.22716
-5.80722
-36.5422
-31.1272
42.3939
68.1791
18.4188
-16.5889
-12.4729
-6.92676
-0.694494
14.612
14.4977
39.9274
48.5988
11.6883
-28.0623
-5.79353
18.0076
14.2017
-7.09022
-20.7139
-27.4285
-37.9007
-42.5679
-17.4204
8.19741
10.4378
1.00087
-3.34756
7.45029
25.9819
30.3413
8.42774
-2.73179
7.04399
15.3767
-6.48396
-25.8086
-27.3314
-19.1284
-3.1675
-5.03593
-10.4236
-10.3462
-8.95446
-4.20327
2.57436
53.5504
100.118
70.6097
15.3608
-20.2713
-32.3465
-33.5002
-43.4175
-32.9296
-2.7471
25.5851
19.6547
22.109
7.73546
-4.80333
-9.62853
-20.4091
-34.3456
-39.4518
-24.9825
-38.1608
-49.7865
-30.6042
-0.760536
33.5837
35.934
36.214
43.0292
49.3737
31.7678
8.04455
-0.380647
-3.82247
-6.17276
-32.0991
-66.9244
-27.3816
22.7037
42.2145
25.9466
10.3567
12.4424
1.57297
-19.7032
-11.3171
9.02898
18.0169
18.7149
7.14817
-2.14528
-8.53447
-3.57125
-5.23779
-10.3804
7.844
23.2403
1.28104
-12.3807
-8.98307
-5.83143
-25.8737
-35.413
9.4384
7.61025
-35.0261
-24.3052
14.9526
28.192
3.47911
-11.4871
-1.76829
-4.75668
-15.134
4.65428
25.3111
35.2605
22.4834
-1.53797
-11.9371
-6.81041
-2.23375
0.066733
-18.8806
-7.36684
13.9699
11.8243
-6.72817
-3.96325
6.32285
2.1443
0.822403
9.63548
9.04651
-12.5362
-9.09765
-1.3919
-2.7497
3.02139
-8.06839
-11.6592
14.5494
-13.8013
-29.2229
-10.319
-2.28628
-9.28534
15.887
5.30603
-10.4545
18.7902
15.6423
7.35312
5.92428
3.41379
3.59636
18.6
17.0772
15.1133
21.0008
7.06321
-2.14633
16.8296
18.0887
-4.15879
-6.4054
42.3183
34.1374
8.60403
-7.47315
-39.1501
-43.0984
-41.9554
-40.4923
-35.3646
-33.5722
-33.0267
-22.4492
-7.27577
-11.9264
-12.1838
-5.2484
-4.448
-0.313794
9.95287
31.0044
11.2207
-19.8157
2.62083
43.7887
29.2507
-11.0196
-0.442015
30.3146
25.0224
25.2686
15.1229
-0.601157
10.3347
21.9088
6.86189
-11.9809
-5.97596
7.23267
21.0422
30.0792
17.9241
-3.7092
-23.8023
-43.9233
-55.1395
-37.264
-21.2548
-7.31518
3.632
2.91717
24.6795
43.5209
13.9896
-22.3312
-22.3437
-9.42661
8.09756
9.56708
3.44657
-9.81098
-21.1798
-10.7986
11.065
22.7967
27.6817
35.6292
18.6878
-16.383
-17.9545
-21.4892
-29.2142
-8.81468
11.9526
31.5505
25.1955
0.105501
-9.78536
-3.1708
-12.9188
-58.1497
-63.27
-19.5959
-5.55569
-4.66972
9.55488
14.6265
22.2183
26.8146
27.3307
32.259
28.1472
30.2911
14.1697
8.79768
8.36228
-1.93081
-2.66587
-16.6052
-26.9377
-17.7107
-1.64225
12.2399
35.0812
34.3642
16.8497
-6.0563
-27.8686
-36.8103
-37.1921
-10.3747
-18.501
-70.4473
-61.1798
-6.30099
28.2573
42.0409
27.7794
10.2561
14.4674
27.0705
12.4248
-18.7155
-21.1696
-4.18726
0.229525
-13.7692
-5.54289
6.42781
-1.10084
-37.4024
-20.0227
34.665
41.1372
10.7311
-11.3416
-20.6269
-13.2557
-4.89519
31.4319
92.0157
83.375
26.8465
-13.3873
-21.428
-8.25124
21.4627
6.18246
-21.0901
-15.37
-5.96461
-22.4807
-37.1438
-23.2878
-20.554
-12.2043
-9.54149
-11.5827
-12.4549
-19.7295
-33.0723
-24.0063
-5.24425
8.28163
5.22466
7.66764
22.5954
34.1514
25.3575
9.92276
1.59082
3.41138
-4.46144
-5.99988
2.55068
2.58128
-0.620581
4.85529
21.4429
24.6179
-1.13109
-51.0303
-66.0905
-39.2906
-12.0486
4.151
-3.47085
13.6419
64.0662
92.2102
71.9989
37.4041
12.2006
3.64399
7.40543
29.5705
38.5525
19.776
-41.0912
-74.5322
-56.111
-21.9305
-4.62692
-16.0098
-20.4046
-35.2569
-41.1864
-42.1052
-46.6115
-22.6022
23.197
14.3839
-15.5843
-6.94105
1.701
-8.08314
4.10194
12.2511
5.76967
-0.198941
0.36385
28.1803
50.2009
44.592
32.8634
25.7151
20.2259
7.84762
-4.34241
-22.1547
-13.8637
7.29347
25.8021
21.5493
-15.7535
-61.9924
-77.2995
-7.56567
48.3584
64.2443
48.6777
24.1534
2.31107
-2.57739
-1.63597
-2.6501
-8.22322
-9.96104
-18.0044
-23.9434
-39.3872
-29.7024
-18.3665
-17.1101
-9.43707
14.3557
14.6318
-18.0032
-11.5604
9.18323
-0.267905
1.81663
24.5144
20.9613
-2.45208
-19.6234
-24.8493
-4.43014
6.53763
-32.7444
-78.9988
-20.1525
74.1872
105.686
84.3743
41.6188
-13.8971
-34.3436
-29.0983
-31.3569
-32.5135
-28.5118
-3.12301
29.236
19.0901
-8.23856
14.3735
17.2796
10.0038
34.6677
41.9965
0.208154
-40.6802
-51.9816
-36.7613
-2.1092
11.4796
-10.3003
2.96864
19.1289
27.0577
36.1133
5.85265
-30.7963
-27.5408
3.08932
14.0516
12.7197
23.5517
17.8943
-0.215114
-22.26
-45.3981
-51.1401
-38.8153
-23.8848
1.85863
15.2482
6.43224
-12.5315
-13.23
-4.82097
1.87939
4.62428
10.3069
16.7526
3.64097
0.403804
9.71298
13.7048
35.8707
38.2775
21.3662
13.7036
15.817
18.4314
28.3602
20.2024
-2.16929
-23.6754
-39.0475
-47.4739
-36.5235
-24.5116
-1.74739
3.90652
10.8455
-2.27917
-38.5047
-26.2731
28.2989
47.831
44.0545
39.3184
27.3584
-19.1209
-66.7615
-51.2587
-49.7743
-21.3786
20.0892
22.6376
16.1116
58.5285
69.1645
28.0003
-13.4955
-12.5501
-20.9055
-41.331
-64.1087
-53.8439
-15.234
6.51862
37.7058
77.011
70.4668
27.5015
1.08721
-17.6065
-12.7651
6.65749
-8.81258
-48.15
-58.0988
-26.1789
-7.35863
-9.79558
0.807697
11.2857
7.08378
-4.20388
-20.2412
-27.6075
-42.3201
-37.7124
-9.51095
12.4115
46.7405
54.2434
42.2423
24.2657
15.5374
6.89608
7.80283
18.2237
21.1182
22.7187
31.3069
38.8062
24.3211
-1.71774
-24.9027
-28.2878
-10.7876
0.747864
9.12868
8.19289
0.95831
-1.13719
-20.1649
-43.4702
-53.9893
-54.9317
-35.947
-58.4419
-57.6317
8.15765
37.1797
27.4397
16.0404
22.9725
38.2799
17.9438
-5.35716
-9.49403
8.47591
26.1128
32.4251
24.8268
10.6846
10.108
19.2978
12.1718
-14.4925
-18.9527
4.81071
22.1004
-14.3963
-47.6009
-30.4638
-9.23424
-15.9356
-21.9051
-19.4701
-17.9341
-18.5361
-18.6821
-15.8428
-4.45407
21.0074
32.9239
27.5324
23.0386
18.4718
47.4823
86.8305
52.3033
21.6941
18.2035
-1.5529
-35.0793
-48.5522
-61.3951
-94.5983
-61.7947
5.23263
17.3483
9.175
-0.598645
-10.7739
8.93309
30.9291
27.5346
20.2981
10.7983
-10.3087
-26.3023
-33.5782
-32.6609
-4.00926
16.0756
23.3901
26.4851
23.938
-24.8115
-21.8541
11.4622
13.8509
16.6249
16.0949
10.0091
14.3972
13.9251
17.4541
23.2446
-10.0462
-47.623
-34.7237
-15.6993
-22.2341
7.04752
38.6872
31.2245
13.4381
25.6696
19.3168
21.174
16.7039
1.54919
-2.7348
-18.3588
-35.5933
-33.0176
-33.5346
-48.0888
-52.7382
-43.5277
-10.5906
10.9021
11.1489
-0.341057
-9.8696
8.7743
26.2209
22.0291
-10.297
-33.8639
-13.8557
-3.44736
-8.12834
4.53669
22.2992
29.1874
26.6143
38.973
42.2661
38.178
27.4908
16.9214
17.5304
4.12988
-12.9462
-7.68029
15.3865
19.268
4.18047
-8.83016
-11.4937
-11.9934
-33.8552
-57.7361
-45.9322
-27.8989
-6.63006
-13.0423
-26.7294
-14.7523
39.0183
76.9402
41.7261
7.84716
-11.6635
-11.3336
-1.83472
-12.9578
-28.0414
-24.1839
0.400209
25.805
29.5372
21.6168
17.6629
2.54569
-16.6611
-7.90419
-7.98894
-50.6374
-83.42
-48.0923
-1.8451
6.40707
2.75503
9.43469
19.3215
35.5406
31.0652
-14.0228
-25.1784
-20.9222
28.6594
82.2575
48.8231
2.43381
6.64118
18.8988
20.8689
31.1565
21.5345
-14.8532
-23.4618
-15.3624
-8.83648
-15.1849
-22.2874
-17.8802
2.99506
13.8667
-7.23963
-12.3695
-17.8934
-28.1017
-16.8981
2.27603
14.1029
13.648
-5.67525
-9.36285
-11.3065
-15.946
12.3288
19.835
3.90941
-4.60133
-5.14735
-2.75726
-1.79789
6.33155
2.3556
1.16879
5.98997
3.03587
-1.6658
-21.0865
-31.7531
-20.9405
-1.19785
15.1366
23.194
14.4729
-10.6615
-29.5018
-21.4542
-0.679186
32.2162
53.7495
46.3627
26.347
24.2556
23.3852
12.5283
-9.3534
-22.4927
-7.64647
-8.56647
-15.8309
-7.19703
3.32363
-0.329489
-3.44049
-10.9088
-10.968
-4.41013
-12.6305
-34.9874
-69.955
-66.4403
-28.7656
0.211266
19.2163
42.5651
55.6423
64.7392
51.3408
16.8659
-31.244
-42.712
-12.3965
-0.958268
1.29007
23.3929
15.5123
-17.6659
-26.2656
-2.22823
15.9344
54.2083
82.5846
43.9099
-16.1758
-54.8425
-59.2945
-48.4153
-8.88289
8.92856
11.8875
15.2716
-9.15906
-5.6201
-10.5818
-31.4157
-19.6172
-12.7746
-20.9516
17.9072
51.2354
24.5191
-12.105
-15.3615
-5.85464
-22.6596
-52.4324
-41.9534
-22.052
17.0145
54.904
53.3442
35.8573
20.0471
14.373
14.0646
18.8609
36.3706
37.2345
-0.326703
-21.9843
-34.8313
-43.214
-37.1636
-24.0423
0.501614
22.9426
4.03321
26.4926
72.3882
60.1635
17.6114
3.83037
-3.94701
-13.0403
-25.715
-35.7955
-38.4216
-40.5803
-42.0154
-40.1169
-30.9006
-25.2856
-31.152
-18.6778
-1.08178
22.1676
41.0804
23.8188
-19.0107
-14.7291
11.0384
-8.47829
-62.462
-38.2477
1.02953
21.054
42.4698
57.5256
56.4198
76.8733
73.062
27.4327
6.36405
19.1837
18.4244
6.79478
-1.70479
-19.9201
-44.2093
-38.0949
-22.5007
-11.2531
23.3524
23.7355
-7.11037
-24.9806
-32.1256
-24.1245
-25.9717
-48.7511
-53.4228
-25.6868
9.07715
14.4861
12.2004
39.17
57.5171
43.2132
24.0382
8.32212
-10.7317
-21.7782
-12.7807
-24.3882
-32.4712
-19.4758
-11.0476
-6.07531
-19.1341
-27.6572
-18.4563
11.9816
28.499
25.5684
26.8661
10.3267
1.68537
11.9262
42.9907
48.0678
25.3211
9.72805
3.01719
-4.7852
-1.42178
-3.94937
-5.3776
-9.27
-8.83285
-14.5054
-9.95093
-8.63761
-17.6986
-27.2697
-26.5804
-22.9731
-28.0611
-42.4342
-48.6174
-38.6806
-3.5253
34.9209
53.3734
48.8533
47.7723
15.2554
-14.9986
26.8667
54.3179
41.424
31.4945
26.301
13.6877
-6.53509
-22.4275
-34.3406
-27.1478
-17.3309
-22.6233
-26.8881
-15.3199
-11.7884
-17.8208
-17.4475
-12.6752
9.53779
28.8423
5.60086
-11.068
3.90904
-3.44729
-20.264
-15.1944
2.6487
14.0069
8.82468
2.71134
11.0593
12.1179
9.80707
7.77869
6.82499
6.59196
1.08418
