-18.8533
6.09599
10.9934
11.1158
21.8233
-4.54431
-16.369
-20.0928
-37.6114
-19.6363
30.8015
20.2703
21.8874
0.303599
0.537681
2.21142
3.89133
-14.9745
-13.568
14.4064
10.8425
-13.5874
-2.92863
3.50292
11.572
-2.73302
-17.9575
-24.5259
16.9031
30.4017
-10.8894
-3.54082
1.47057
-11.7305
-13.2777
-19.0949
5.42217
18.3572
9.56685
0.670298
8.58255
0.183023
-11.2033
-22.1307
8.11182
-5.56915
8.73855
26.8373
22.4284
-9.11799
-35.4506
-21.2673
26.5125
10.1874
1.91621
6.85655
-3.44678
-5.27131
-20.0631
-30.1392
-1.90129
28.8751
20.0048
16.9716
4.00373
5.60143
1.23001
2.92584
-19.2319
-6.76198
20.6681
3.91085
-19.217
-13.1525
-5.07497
-4.29022
-21.4266
5.44943
20.7203
20.6054
6.00339
-14.1108
-7.13695
-13.5255
-24.2094
17.8049
17.8484
10.2082
17.4351
-4.40276
-12.3577
-8.84323
-34.5648
-4.38736
27.6845
21.2332
11.4047
-8.30813
-7.99633
-2.47505
-1.16408
-23.1291
-19.8316
17.3877
20.8472
-1.81048
-4.49258
-0.191253
6.86211
4.64114
-0.384232
-21.6381
6.58768
22.6694
-8.06923
-1.04863
9.4571
2.77004
2.17033
-10.6812
-17.7324
15.5753
20.4722
5.97157
5.52664
-4.36377
-4.39488
1.34029
-11.5096
2.51281
-3.21875
12.5453
3.96382
-18.7002
-22.2361
-27.3233
-23.9098
20.2515
14.3434
16.9958
13.6271
-7.51486
-4.81292
-23.8985
-0.582433
11.9695
1.79177
4.05687
15.2567
-2.69346
-7.0587
-5.30147
24.1345
4.65739
-2.93865
8.48359
15.4438
-9.70688
-3.16811
-24.8926
-10.0004
-0.150969
21.2264
25.8998
5.06152
-10.2835
-10.3265
-9.90367
-10.7591
-44.1461
6.93074
47.309
11.5298
8.81949
2.09785
-12.6145
-15.3053
-40.7094
-36.846
37.1748
27.2678
6.79191
-6.41017
0.815301
11.3893
6.29655
0.0215315
-18.8823
0.85811
32.8282
4.54517
-10.6954
-12.9454
-12.832
-6.96567
-17.1588
-7.86327
44.0907
35.9332
1.84675
-5.7573
-5.01584
-12.6163
-26.0139
-7.94085
5.52532
6.87138
10.6186
1.76764
-1.05518
-10.2887
-14.9603
-26.7749
-2.37398
24.2329
31.6744
24.0003
-8.14
-7.96377
-9.89448
-12.2145
-17.8089
3.48515
29.8856
7.17885
-4.41012
-1.30564
4.04257
1.52764
-18.3223
7.99354
11.8955
3.78637
-8.5831
-13.9686
2.06357
2.75629
-23.9658
6.39371
18.1087
9.17647
7.38356
-7.56597
-13.1393
-34.8604
-46.8876
14.8101
39.9914
18.5682
29.3555
12.5172
-0.543027
1.14954
-26.6387
-13.3335
17.611
3.51488
1.09019
-14.6446
-20.1755
-12.6821
-11.5639
-20.3539
-3.97487
37.1657
36.4185
4.28578
3.8557
6.57047
6.24812
-8.37787
-24.195
-37.9702
3.85159
46.5642
10.0886
4.72507
10.5738
9.54143
-1.00204
-1.7218
-15.4504
16.1724
8.09535
-12.1222
-3.16748
-12.8971
-24.5717
-33.3445
-38.5309
17.2743
18.6437
32.5197
25.0286
-13.5516
-13.9705
-18.2174
-21.3182
21.6138
14.7927
11.8954
20.6777
3.86615
-1.21593
-13.6726
-22.7997
-3.64856
1.32718
14.5
16.6763
-14.8538
-0.608417
8.93897
-13.064
-37.4271
2.15188
32.0148
23.076
-8.8628
-5.872
-1.80111
3.56268
-21.585
-38.3319
40.0368
40.1761
12.3829
5.1813
6.37066
12.1758
-9.6367
-16.5805
13.0312
3.7644
-1.48541
-16.8051
-22.2442
-4.27977
-28.1529
-25.0928
4.08179
3.08338
14.6973
25.7064
-11.9133
-3.53002
-32.74
-31.7932
-4.81894
50.0956
34.0759
23.8129
6.41645
8.15971
5.31445
-4.54971
-17.6286
7.27439
8.47816
-1.36541
-13.0532
-11.2675
-11.9696
-8.47953
-24.3793
-37.2754
28.0484
39.9171
20.8479
-7.9837
-3.8885
1.49485
-4.04492
-9.12916
-23.3001
17.9614
18.3003
1.02135
5.73961
5.1665
-5.47076
-18.0148
0.935759
14.3472
-3.00975
4.33467
-4.20674
0.0944058
-1.2054
-32.2536
-0.89973
9.64473
8.86527
11.9569
9.9907
-14.884
-19.8529
-40.4551
15.8761
27.5438
22.4072
22.5554
8.07285
0.193683
-5.25635
-20.1398
0.593454
20.0442
8.6702
-3.82548
-18.7125
-11.2628
0.0579191
11.5969
5.30852
-39.4284
9.26449
29.6783
-6.18082
-8.64427
-3.34603
1.90685
-3.01743
-29.8853
1.58264
44.5867
13.8408
-13.5866
-10.0423
0.0921533
-12.1508
-31.8889
-18.3745
12.5104
11.307
14.0421
-4.53604
-4.24949
-7.69108
-5.15327
-12.5996
0.0255506
26.0598
28.9901
14.4977
6.34428
-2.02633
-7.5548
-29.5507
-19.2517
32.4627
27.4289
6.74165
-9.24799
2.62904
9.41919
-15.4446
-33.5775
-8.27115
28.1008
34.2146
21.1343
-1.64825
0.72198
-7.28812
-11.0735
-22.3584
-39.3927
0.704946
19.1658
-17.2723
-4.5735
-5.62147
-9.1706
-6.72545
-13.4238
26.5731
31.2743
7.03744
-16.2152
-17.6194
-11.5798
-32.6749
-15.5222
31.8879
25.2248
19.5314
25.3103
16.9408
1.16869
-29.1595
-17.2468
16.4606
1.2089
1.65006
20.6534
11.4625
10.0838
-35.0695
-37.6846
26.84
19.1413
22.4349
14.6799
-15.5937
-16.4119
-33.3629
-35.2357
11.6925
26.0314
22.4525
4.53383
-17.7644
-7.97538
-0.23646
-0.883973
-30.7291
-14.2112
42.0455
25.383
-16.1279
-13.4858
-3.54096
1.69034
-12.0594
-35.8282
-25.2712
36.2716
23.1481
7.50091
14.7871
20.4469
8.17781
-6.34688
-26.3025
-33.7021
28.3969
20.8147
-2.64618
-1.71047
-2.52979
11.8746
-4.58202
-2.96941
20.3809
19.8238
19.5214
1.26255
-13.9704
-29.4097
-42.159
-0.566255
15.003
13.7701
10.2872
9.50962
-15.6244
-17.7315
-36.8751
13.3112
14.1641
-3.29761
8.17271
7.92116
-12.4205
5.84771
5.3671
-17.3977
11.055
3.98618
9.59026
-16.7861
-28.366
-11.9785
-11.3425
-1.52072
35.0583
25.6738
23.6261
-3.78947
-11.2389
-5.65061
-25.1424
11.1119
12.7406
13.1506
19.1436
11.9871
-16.6393
-14.3757
-13.616
17.2073
5.5598
-3.48555
9.37492
11.4301
-20.0619
-24.4133
-25.7289
-30.43
13.7779
35.4332
40.4274
7.5709
-1.14835
-1.41647
-4.21128
-25.6299
-16.2735
12.2913
14.1942
-1.07767
2.56101
-1.87314
4.1069
1.09022
-39.5658
-18.3297
38.0238
29.8275
-8.83165
-17.9306
-5.00451
-7.57394
-7.17673
-17.8187
-5.59808
9.70981
8.09212
11.5806
10.8207
-12.3827
-4.06639
-15.2312
14.5231
14.0411
21.9145
17.5346
-5.48657
-5.97232
-21.5803
-25.6934
13.4085
10.9707
2.9809
8.91402
4.89536
4.25049
-24.3413
-27.9109
13.383
11.6516
3.33312
13.1657
-3.18482
1.6297
-0.188116
-25.0731
-3.14382
28.1924
16.2473
12.8248
-12.571
-14.9942
-11.6511
-2.95908
-22.2383
9.00082
35.9194
15.5272
-6.64706
-12.2437
-10.4433
-0.492806
-31.4411
-13.9503
29.9097
30.3725
9.00961
-10.1088
-9.31523
-4.22636
-36.552
-35.1214
11.8515
44.4807
39.8497
11.197
-8.07297
-4.32478
-5.05868
-4.62596
-9.13237
-10.8643
30.239
8.04799
-20.6846
-5.28756
-8.78664
-15.6029
-26.5134
-20.4583
39.1273
30.717
0.992484
-14.1179
-2.10781
-7.05763
-39.2361
-34.1152
36.6269
40.2261
25.5196
16.4913
0.248697
-7.54324
-16.511
-9.24649
-25.8318
11.5195
21.1248
8.21777
-4.23824
-0.0699541
-7.94986
-23.2848
-17.9304
17.341
26.9191
24.2835
-9.36537
-6.78749
0.20676
-17.2371
-12.9827
25.9559
18.3915
11.1967
7.04181
-24.2813
-17.6693
-21.9904
-12.7334
30.3835
7.38626
8.68407
10.4907
-7.16036
0.933927
-18.4294
-17.9802
-0.958035
-0.0794939
10.4044
8.58658
-8.71636
-4.96483
-10.2355
-13.7383
12.0305
16.4024
24.8959
11.7261
-11.0549
-6.07085
-4.91055
-9.59855
-31.6733
-0.00527192
47.4935
12.3771
-6.25816
-0.459631
8.1718
4.18733
-14.522
-37.6595
-31.7749
30.8668
6.32003
-1.31041
0.380381
5.72978
3.34709
0.845265
-25.2368
5.84978
51.7718
16.1087
-8.10192
-8.41677
-8.25548
-9.36443
-22.6013
-3.71784
12.5411
22.6601
28.6754
-1.31331
-9.31887
-3.7634
-14.0038
1.07274
-6.32863
-6.15382
12.1478
1.26032
-21.0472
-20.002
-37.5783
-8.98899
18.4344
13.0334
18.6838
3.45673
-4.31621
6.47052
10.9351
-16.0989
2.21799
14.4695
18.5304
2.04165
-3.44015
-2.04188
-3.48598
-31.1832
9.70497
16.0677
28.288
8.30481
-13.1668
-9.69871
-10.9985
-10.4126
8.60813
5.16557
-0.00462203
1.33972
-6.95452
-9.66396
-20.6438
-7.69624
7.3811
13.8995
21.5472
16.2304
-21.1819
-17.8524
-34.787
-21.4006
22.1375
39.5908
30.1077
16.1054
-2.60839
-2.05307
-0.132492
-8.86727
-22.4525
3.38383
12.9907
0.461241
-9.7047
-6.97446
0.138505
13.7905
-5.90986
-23.6743
19.9171
21.4541
-8.55372
-19.2499
-9.73504
-1.16356
-3.54394
4.9204
-10.1586
3.38288
22.8565
-5.7321
-3.25882
-10.4289
-5.52347
-5.89275
-38.2443
-21.765
51.6881
54.3875
22.4332
-1.38302
-16.6478
-16.9737
-23.5241
-4.23418
14.7559
-1.22684
1.33666
3.83725
-4.49867
-4.79153
-20.0636
5.61336
24.2508
10.7187
22.2352
16.0465
-21.2712
-7.43356
-31.3622
-15.0145
17.4456
11.1102
13.5315
-4.59746
-14.01
1.85545
5.78172
4.7243
-20.8405
2.71815
24.0072
1.43525
-9.7565
2.91187
14.3067
1.96819
-32.7608
0.84829
18.2401
3.17666
-17.8846
-12.0872
-1.73451
-15.9131
-42.1119
11.4008
36.1903
22.0643
19.4786
1.73312
1.92712
-5.55777
-12.747
-25.7089
-8.01836
31.4813
23.993
6.71443
12.5039
2.15071
-15.8875
-43.4988
-29.6852
18.426
26.6141
-4.7432
-17.1456
-6.20163
12.3094
-15.1767
-22.4371
13.8127
9.73364
47.5495
26.427
0.635935
-1.35877
-6.98307
-8.10621
-33.0404
-14.0468
23.3087
20.5515
3.32809
0.370943
-14.9539
-8.05755
-24.2829
-13.8721
27.603
25.7067
0.553984
-2.59955
-3.14152
-7.61095
-51.0739
-25.1045
17.9269
11.537
22.3589
17.6755
11.8049
9.49675
-27.9122
-4.4923
9.01575
-0.506546
12.7829
8.48332
10.6189
-14.2054
-21.8435
-27.1718
-36.9169
-17.6429
27.2589
18.4688
40.4706
23.3277
12.8466
0.821583
-5.77971
-31.9816
-28.5124
39.6059
40.8557
0.426501
-3.19899
-1.68154
-10.7248
-24.5307
-29.0218
12.3725
29.3609
18.9814
-9.13494
-0.715885
1.27831
-33.8046
-44.5691
15.7601
12.5786
15.3662
15.2972
-20.2546
-14.9965
-30.1024
-27.3487
15.9362
25.4295
14.096
21.3451
2.80603
4.97515
-19.2291
-35.6254
18.9883
13.6468
11.8844
24.7677
-3.39358
-9.74241
-19.0417
-46.6856
10.2703
44.8062
32.5013
21.3506
1.69199
2.05513
-0.644075
-3.607
-23.6948
-21.0995
26.777
20.7388
-13.6615
-12.4564
-7.13356
-2.63562
-16.1043
-25.0542
18.7316
31.0422
-20.2608
-33.7994
-14.5338
-1.44813
-3.06617
-18.3981
-10.6949
30.7478
22.4472
22.1968
-2.22313
-0.360741
-19.4614
-34.8117
13.1852
21.8965
5.38146
14.7106
8.7213
17.3265
-0.945868
-21.2615
0.953849
7.63492
-2.22317
15.9004
16.2764
-2.67874
-3.10734
-22.1759
-11.476
11.9209
11.99
20.8924
-6.69674
-12.7358
-9.67589
-12.1143
-48.9718
-18.6831
16.2113
41.2437
29.2401
7.78862
2.54545
4.30283
4.02046
-29.4829
-24.8185
23.9191
12.2062
-17.9028
-32.0993
-7.61072
-10.2545
-31.501
9.13044
32.0376
27.5881
8.26467
-10.8182
-2.32391
-7.8052
-40.1129
-0.563216
19.0767
47.7553
32.9293
17.5505
0.982148
0.138082
-9.80242
-12.8795
-12.7453
8.36778
8.56194
-9.3559
-13.6616
6.1462
7.22471
-20.6318
-31.5572
4.823
26.2849
1.96427
-4.80532
-23.0931
-18.3244
-13.8519
-39.9125
-36.9478
27.13
49.3344
37.82
14.1004
17.112
9.84437
-6.34112
-19.2331
10.204
17.7201
10.0095
-1.73752
0.0683106
-7.19436
-11.8369
-47.812
5.73614
25.6854
27.5042
7.9258
-24.7381
-18.9759
-10.6978
-42.7912
-15.3065
44.541
35.3037
26.8922
-0.24736
-3.06119
-4.18537
-24.4956
3.4652
8.7117
1.68755
7.31357
-18.2359
-21.9793
-14.0521
-18.3149
7.28347
24.9888
8.38644
16.4494
7.64804
-21.679
-9.59425
-8.15804
-27.6913
-0.127245
13.0109
31.9531
12.5156
3.75392
-0.637851
-1.83743
-5.717
-6.19006
-3.49385
32.1804
13.8402
-3.5177
11.8953
14.5677
5.98771
-12.075
-21.3724
-24.9162
15.7591
-0.902354
-8.17783
-19.3003
-16.6254
-15.4055
-12.6456
0.0641955
21.0621
13.4536
15.7447
5.58764
-11.4429
-16.3713
-42.9769
-3.61437
39.6944
15.6764
20.8723
36.8575
6.47312
-12.1312
-33.8772
-59.3308
3.80044
38.6595
19.5475
11.2583
-4.0845
2.9858
1.64531
-11.7616
-29.8124
18.1609
39.9841
5.14072
-22.0307
-20.1774
-16.9148
-7.06954
-15.4293
-13.2008
30.338
45.3457
7.39955
-13.687
-3.34586
-1.28219
-12.2016
-18.7348
6.78207
7.90365
13.8676
-8.4444
-10.5618
-7.17203
-26.3739
-14.2823
26.1788
19.9403
20.397
17.775
3.32578
2.2775
-24.088
-10.7778
11.048
0.345041
-8.4928
-0.773964
-10.2596
-5.21347
-11.1614
-52.4984
17.0631
51.4901
33.0189
17.7734
-5.93747
-0.29387
5.74777
3.44136
-26.3581
-27.4907
28.2839
8.82348
-7.34928
-2.31038
5.92571
11.6218
-14.2245
-18.5321
15.5727
38.6686
-11.0193
-39.8537
-25.7432
-13.1088
-13.5664
-22.5786
14.0909
25.7223
25.4718
17.9449
-12.8624
-17.1265
-22.8874
-29.0732
9.99883
13.8459
17.5837
19.2623
7.08321
5.17061
-19.1963
-15.1822
34.5361
22.311
11.0543
11.6593
-14.265
-16.9425
-12.8264
-22.3005
13.8182
24.8479
14.1869
19.8204
-6.67628
-16.1384
-6.21245
-15.8041
-50.7172
-9.27835
46.1793
29.5635
-1.58672
-5.3511
-7.75362
-4.96778
-34.7739
-33.5043
36.8065
43.8874
-1.72224
-14.2297
-4.61433
3.64739
-6.68458
-27.8667
10.5859
19.3118
33.6503
9.73101
-15.3918
-15.1376
-26.4544
-40.4586
1.28717
25.2909
30.8794
22.7937
-15.287
-15.3146
-19.2578
-22.9412
-19.4777
18.9085
29.029
34.164
1.92884
-5.01278
2.09726
-13.7327
-31.4742
7.20935
16.4974
24.2719
-1.47198
-10.3504
-1.64248
-2.16443
-16.119
-6.1658
28.1095
25.5866
21.3568
-2.70353
-10.7003
-4.17162
-20.199
-28.8586
17.1254
34.409
16.505
-9.97852
-14.3313
-1.13876
-17.1006
-27.6708
11.9322
11.3317
5.12082
10.2023
-15.9707
-13.8457
-25.5479
-24.2806
15.1327
14.508
12.4637
15.2243
-7.67087
-16.7512
-23.2549
0.322628
13.8935
12.5086
18.3063
21.0322
-8.82348
-16.791
-32.3875
11.0355
23.195
13.5929
22.6425
15.5958
-9.21037
-10.7578
-35.8192
-41.1979
-14.0106
28.3799
33.1189
8.97405
-7.63847
-0.165182
-2.42181
-15.0659
-5.12881
29.8726
41.5636
7.26801
-12.302
-4.43459
-3.26983
-9.90154
-26.951
-15.3703
26.0832
34.7999
8.6281
-20.4393
-7.0204
-10.1981
-40.4729
-35.9423
22.7894
19.0594
7.30049
-5.02559
1.05472
0.236113
-21.4321
-11.3482
25.0621
10.4114
8.32367
9.77702
3.62759
7.464
-4.39167
-15.3015
1.34666
5.08414
13.8201
12.1556
-11.9398
2.86914
-0.644473
-8.79463
-19.4493
-18.6954
22.4049
19.0379
-3.26594
0.795638
-0.709025
-1.74479
-17.0803
-20.4211
31.1195
16.1256
0.0853615
-0.140619
9.34753
7.47162
-26.4088
-30.2823
16.5022
3.33594
5.73858
-1.2791
-17.3776
-7.34762
-20.4716
-33.2985
37.6042
32.1788
24.1812
26.204
-7.89002
-13.2289
-21.8417
-20.4916
14.5019
12.4388
2.87128
6.02222
-16.0705
-8.56036
-9.49087
-9.36767
16.0169
14.8718
10.7075
20.2078
-14.1982
-11.0863
-2.69921
-14.9794
-38.4806
-8.87834
29.8165
24.5617
7.32951
2.74426
5.21275
8.90772
-3.21713
-23.4546
2.9689
29.3754
3.25493
-8.89182
-6.8294
-3.55686
-15.1709
-17.0702
-26.9225
28.149
31.3406
14.2256
-1.57612
-10.6069
-18.5623
-21.885
-20.9094
21.405
11.6963
16.0307
5.64925
-3.30899
-15.6209
-26.8029
7.77319
25.6921
3.44464
3.99012
19.642
-0.687829
-1.25552
-23.7174
-27.3138
15.5631
14.7348
15.7558
12.0992
-9.23597
-5.0199
6.99205
-4.38033
-46.8883
10.4602
35.098
12.4457
5.33086
-1.65877
-4.04931
-2.39854
-34.0618
-45.6351
24.195
33.4467
-4.19277
-5.34513
5.67058
8.53737
-11.4095
-15.8091
23.1916
19.0622
24.6667
-9.52186
-15.7568
-15.1191
-30.2337
-35.0411
-7.89479
13.6029
20.923
28.8024
1.24617
-6.53963
2.65292
-0.298288
-25.8225
-9.85651
23.0275
15.9605
-4.31528
0.586474
17.8604
11.123
0.972255
-25.5085
-20.9889
39.9605
29.0201
6.56684
3.08928
0.167013
-16.1072
-15.6568
-26.8419
-22.8212
31.236
16.9989
-5.22838
1.30315
-3.65169
-5.31577
-38.1034
-36.9902
32.6367
33.8686
22.6763
-10.1388
-11.1307
-4.66292
-15.635
-5.56587
12.2134
-0.36521
-0.522199
0.267164
-4.07027
3.18347
-10.066
-1.7584
8.97763
3.45356
26.6022
10.85
-29.0776
-15.4196
-29.6499
-14.766
28.5007
16.7256
24.4269
20.7514
3.85065
7.73356
2.27762
-9.08836
-37.481
-16.3553
29.1882
16.8706
-3.13676
-2.49955
9.40012
0.207078
-21.645
-20.9949
20.0583
32.1962
-11.8643
-9.68
2.81434
3.38882
-7.31599
-41.9365
-38.5277
-3.96857
46.7508
25.5024
2.37284
7.1825
0.847485
3.79955
-6.06121
-26.2307
-18.3113
41.4169
23.7999
-7.67372
-15.3189
-13.8451
-8.73228
-21.8438
-8.52692
26.5242
32.0035
17.189
-7.08193
-8.32163
-16.1258
-43.994
-18.6143
31.8057
20.3924
18.9797
11.9235
-1.80787
5.37256
-6.67585
-39.6888
-13.2451
-9.97068
33.2619
20.9479
14.7019
11.9496
4.24085
-9.59685
-20.8648
-23.0189
37.5163
14.0481
-15.841
-8.01292
1.63048
4.49982
-28.3772
-28.881
18.5532
27.8379
12.5416
7.03503
-11.2616
-13.9876
-32.9948
-12.4008
17.0464
9.59701
5.73497
5.28306
-5.14752
-2.74451
-17.2146
-13.284
20.7272
13.7049
11.5351
11.0118
-12.1358
3.44392
-18.2249
-37.8617
-1.52967
33.0789
37.9844
21.6837
-1.35937
-2.14114
6.22992
-14.1816
-51.5422
10.3112
0.390105
33.0761
5.28558
-3.9376
6.32965
8.45067
-14.659
-17.0943
-16.9066
30.8418
5.78039
-18.8948
-12.2286
-5.42538
-5.44519
-4.24421
-13.6855
3.96917
44.2337
4.43134
-4.5923
-24.3466
-14.7059
-0.667615
-17.2103
8.29853
17.7066
13.2237
23.3407
9.70271
-6.73444
-8.44645
-13.2436
-9.89421
4.45969
3.16406
9.4597
4.01087
-6.49987
-12.3198
-3.93876
-26.5784
16.6604
18.4769
20.2025
7.71902
-4.52865
-5.20989
-6.27618
-24.6211
-39.2257
-6.82452
45.9222
24.4678
4.56111
4.86045
7.93697
1.16647
-19.0958
2.86602
10.7122
19.9864
-5.64729
-13.7029
-10.2694
-20.5497
-16.2952
22.7967
16.3211
6.70935
13.5023
-3.61673
-27.3994
-41.6561
-40.9732
9.14239
26.9349
18.6299
16.1962
-5.95549
1.84584
-4.36717
-32.5198
6.76337
37.0105
22.3184
11.9174
-8.94231
-5.1864
4.95976
12.1373
-15.0515
-34.7194
34.5616
22.1054
-5.81784
-12.0458
-0.907305
8.02054
3.40271
-14.8826
-16.5214
-8.48033
21.8778
-4.3766
-6.24321
-7.21554
-9.92281
-3.73865
-11.5735
-19.1592
27.1161
27.7712
6.76859
0.364754
-17.9547
-18.4197
-27.2084
-5.64931
19.3171
19.5424
28.4365
30.0683
-14.2926
-17.8122
-29.6845
-5.3189
26.1748
12.8817
10.493
4.81217
-19.071
0.442958
-21.7581
-12.2066
17.1685
3.88997
12.8054
8.08036
-10.3934
-0.0506265
3.5185
-9.10598
-19.3974
2.87076
17.6407
4.30911
-11.4158
-2.34742
5.53631
12.0864
-13.7739
-34.9745
16.2947
38.1793
3.71686
-6.54027
-4.88399
-3.52916
-10.5961
-32.5228
5.86968
50.1238
19.179
-8.62504
-9.6734
-5.02013
-9.89295
-25.6182
-13.0849
24.9273
24.2555
20.5202
-8.86168
-17.4938
-10.0022
2.92664
-5.03578
-39.412
21.2982
33.5845
6.05442
-16.099
-8.66199
-1.51217
-3.15216
-12.9556
10.8944
22.0977
7.67164
-20.5195
-2.88232
12.3443
0.418752
-2.72094
-22.6383
-19.63
26.3664
39.9215
-2.76375
-1.83612
-4.5724
-12.8136
-4.51738
-9.36851
-24.2164
22.3394
3.83269
3.54427
4.76865
-0.459776
0.958417
-25.9338
-39.551
21.3425
36.4379
24.7006
-3.53823
1.48325
-10.8581
-11.0434
-16.0877
19.3381
9.94738
8.77114
21.2182
-3.93905
-10.0904
-13.7419
-17.8443
8.34578
-2.51579
14.8865
20.4952
-12.4764
-11.8356
-33.6508
-36.1119
19.6605
28.1098
16.5446
14.2891
-7.85832
-8.33059
1.63917
5.67
-26.3803
9.55724
23.1201
15.0209
-7.12135
-13.5017
-11.3342
-4.34375
-29.6361
-19.0734
41.7907
39.745
-1.92974
-20.8261
-6.87933
0.355207
-5.50124
-5.78234
-22.6786
-19.9862
34.1133
12.6684
5.84946
8.3427
-1.14054
8.12439
-4.24221
-5.71416
9.99495
3.41932
-7.00121
-2.94987
-7.45301
-9.14503
-28.36
-10.4451
19.7374
13.6042
19.4932
27.9627
6.3701
-21.6913
-53.7404
-10.0765
39.7074
32.1626
28.2822
13.7807
-7.83229
-5.03833
-9.83241
-25.0366
-37.0458
-5.88554
36.5821
18.302
-6.78275
-5.39366
-1.13068
-0.129063
-24.2225
-23.3185
32.711
9.82625
-25.0585
-26.3465
-12.3038
0.568839
-14.2397
-10.4794
30.8256
22.4822
18.9928
4.94321
1.04078
0.871872
-26.1779
-3.90323
26.9931
17.395
11.497
6.70077
-7.73523
-16.2007
-30.6371
2.71093
16.781
8.83329
14.4023
18.6967
-14.2028
-12.5594
-27.9166
-35.4358
25.8734
34.2621
19.6671
2.76607
-9.74228
0.294943
1.83542
-16.2823
-36.4226
23.6299
25.3541
1.79453
-5.30881
-6.69159
-3.32274
-9.22869
-15.9697
-15.3635
3.2849
31.9273
-10.7364
-15.6586
1.72628
5.10952
-1.07563
-6.69182
-25.3752
23.7242
31.4257
-6.30446
-8.18429
-8.85487
-4.51707
-9.30938
-3.46155
17.3069
14.7429
20.3602
23.5542
-5.46533
-21.4226
-24.2447
-31.0001
18.2552
2.80756
-3.33258
11.8435
2.62891
11.2047
0.802654
-20.7586
-5.77083
24.4965
31.8136
15.777
6.2766
2.46488
-1.45301
-1.13867
-36.4026
-39.8002
18.5311
34.1322
6.13281
2.21707
3.11069
3.01006
-8.41397
-19.2722
-34.6435
22.4775
0.0096591
-21.8039
-22.8561
-15.5381
-20.1001
-33.7129
-4.01735
18.4486
36.2173
34.795
4.93082
3.7019
-15.1182
-32.0686
-0.708579
23.3335
21.241
18.8714
26.9344
6.94007
2.92476
-3.29275
-17.9133
-15.0319
41.0477
29.0831
9.02912
-7.91119
-6.18363
-6.00686
-15.8447
-19.3942
-43.6949
0.0433353
25.9146
6.20912
-2.66657
-5.39377
-8.71917
-10.537
-7.07267
-37.7824
8.13333
47.4284
-8.67803
1.00123
4.89597
3.83678
2.77744
-22.7178
-10.4501
12.4023
14.6482
6.99898
-17.4153
-14.5752
-9.95976
-17.4081
11.8185
11.3171
-0.847431
20.8252
18.6164
-1.94189
-17.8859
-35.2996
13.0025
36.6282
25.7237
22.5033
0.74014
-4.27294
3.82282
-23.1721
-3.92096
-4.86368
-4.47557
17.1971
0.101368
-10.7301
0.501182
3.65483
-33.8994
-23.2759
19.7577
26.8106
-2.18091
-16.5967
-3.12708
5.22934
-3.44578
-17.981
-19.0182
20.1756
6.81577
4.97102
5.98259
4.70911
-1.30319
-4.36294
-36.2258
-15.568
42.1609
50.4056
9.26931
20.1889
3.67541
-8.90612
-11.5106
-17.0406
-29.7658
5.97613
12.0889
-0.390291
-13.0416
-3.69459
-6.38511
-29.923
-29.6869
11.9228
29.4072
22.9737
4.11112
-17.7794
-17.2981
-38.514
-30.0466
26.4994
19.9122
23.8204
34.3057
10.7063
8.2617
7.7444
-10.2958
-25.7227
12.3691
28.8994
24.068
0.206036
5.95303
-1.67987
-14.4979
-34.7658
-18.4627
26.1849
14.0185
-19.8277
-11.9608
-6.1145
-12.5486
-33.988
-1.74972
36.4676
22.101
13.4426
-11.3844
-6.96703
-6.97622
-32.7227
1.37662
11.1423
2.38169
11.2121
7.44616
2.82045
-7.00134
-48.969
2.53493
10.1923
19.1282
32.2932
12.9118
-14.7734
-21.631
-9.10993
22.1305
16.3512
10.6397
14.215
-0.866694
-7.02621
-9.26633
-23.3822
-19.0275
13.8243
16.1266
23.1056
-2.53319
-2.5628
-3.49285
-14.7446
-33.6754
-35.8379
47.0462
41.383
-1.17821
-10.936
-12.0335
-4.76015
-2.13406
-20.7029
-7.14927
18.8379
22.7473
3.36491
2.31002
3.70008
-7.28616
-15.9749
-28.1682
12.1684
24.4406
20.3145
-15.8565
-14.6437
-12.1693
-12.1732
-21.8739
8.48035
6.41174
16.3161
5.70442
2.47447
-0.541856
-21.1593
-15.2748
5.58279
17.1172
16.7025
18.0311
12.9506
15.2394
5.8313
-15.7285
-37.3673
-28.0056
35.9099
31.4367
8.38634
1.27462
2.7444
0.810263
-6.56431
-17.0636
12.7552
6.19776
-3.83623
-12.2783
-5.17606
0.422266
-23.9138
-27.2778
8.23884
-2.02974
10.9393
9.91474
-11.0437
1.03174
-17.0741
-22.9601
10.8817
10.2125
6.95369
4.59136
-6.01687
3.92344
2.42184
-32.7081
-15.073
33.4693
51.9409
34.94
4.902
1.48401
5.35537
-2.56235
-31.7076
-33.7304
-2.61336
48.6088
17.35
1.53963
-1.39934
-5.402
-15.5636
-25.004
-33.9951
32.4067
19.6676
-11.6689
-21.4954
-9.68594
-9.44071
-2.14032
-6.89896
-6.25768
15.9562
13.47
4.38789
-15.0674
-13.1355
-8.38955
-21.5622
-0.739669
17.7736
22.0409
27.0061
4.98585
0.632562
-7.19099
-21.6613
-10.0748
17.4065
11.9845
22.4483
13.2636
-4.45736
1.02821
-12.6797
-6.3807
-6.70164
-6.46216
8.8743
3.83851
-13.6575
-8.85137
-21.2468
-14.7415
39.1624
27.0579
16.4373
9.7795
-11.0538
-2.39947
9.01293
-1.40834
-33.8742
-10.9677
27.0285
-2.64156
-9.37248
0.474606
13.3724
6.95755
-15.247
3.32542
20.8899
-0.246585
-26.2479
-24.2699
-13.3942
-18.3885
-48.9654
-1.99102
0.675347
28.3949
37.3933
22.4756
-1.05559
-1.88221
1.87377
-1.35723
-17.1732
20.9866
17.4252
4.12622
2.28571
0.00340114
-13.0442
-20.9039
-17.2909
34.6814
32.8576
-4.93887
-7.14066
-9.12706
8.80023
-12.6436
-21.3067
-6.86674
18.0172
12.2268
4.23118
-17.0062
-0.699019
-0.412324
-0.198797
-19.6274
-15.6434
32.3732
30.5129
-6.3183
0.40893
-2.66113
-0.626957
-14.098
-13.2648
24.8852
20.7829
0.865551
-23.4491
-14.7032
-6.4243
-44.6216
-36.6967
27.8764
32.0375
26.4908
12.1825
-6.33094
-1.9388
-13.5668
-12.1573
17.5349
11.8147
3.18942
6.20575
-2.858
-1.41951
-9.39334
-10.8118
11.0816
6.21749
13.9871
9.96753
-19.6908
-13.7947
-11.4215
-23.6844
13.2292
15.9837
28.3406
18.3276
-6.10611
-9.99971
-8.06791
-3.14444
-12.029
-30.2616
0.549248
24.5271
6.3409
9.33292
13.9135
10.9757
-11.5754
-16.2998
-16.894
13.9914
8.269
-0.319771
-11.0933
-4.6017
-15.5513
-11.173
-27.7688
7.44026
22.6483
25.0465
7.96521
-12.0838
-9.88504
-14.9547
-4.00191
27.583
19.2819
15.8081
18.0788
6.72738
-18.7638
-45.3886
-27.4647
20.8458
17.6217
12.7983
17.7178
-2.35034
-11.6628
-27.8258
-29.3423
-0.357089
38.1423
34.5382
16.7185
-7.95721
-13.5577
-12.541
-4.64723
-2.439
12.9913
20.6223
8.51548
-16.0597
-16.2641
-13.1741
-15.3343
-13.3851
8.4259
21.6123
14.9871
-11.0652
-27.9148
-16.1244
-37.2746
-15.844
43.3532
24.887
19.3585
9.5918
-9.79468
7.34114
-18.4481
-26.1381
16.4739
13.8676
22.0222
6.45593
-13.3614
3.70525
-6.37959
-12.6312
19.2584
15.6077
30.0054
14.4363
-18.6145
-12.9473
-9.53303
-33.0747
-58.9305
-2.59046
40.4811
18.6419
-7.62572
-6.54227
3.76981
10.5762
-12.3857
-8.71501
45.9898
26.3775
-16.3964
-11.3759
1.55842
-6.3795
-18.6884
-26.4446
-10.0498
45.9608
35.4808
3.95095
-8.63685
-5.32047
-11.1875
-17.0076
-11.6878
13.8593
15.232
7.63481
-15.3188
-3.67989
-10.5282
-25.9007
4.0202
7.50359
-1.98702
15.6009
11.6263
-9.80842
-2.25981
-28.9109
-4.58305
16.292
9.76574
13.9043
12.5318
-8.02891
-3.27682
-18.6666
-20.2164
-0.0320001
25.202
26.7101
4.76991
-4.50412
-6.35934
-5.55883
0.26584
-9.7036
18.6678
15.9368
-6.64982
-7.52419
-4.44589
1.09622
-5.14449
-17.1627
11.1222
14.5772
8.50241
6.17929
-10.7006
0.590029
-11.7159
-42.9396
-2.00514
29.7282
25.3453
15.7541
-2.55122
-1.83249
-9.71623
-13.789
-24.7551
-2.69372
12.239
5.88031
-6.94993
0.448658
-8.52964
-14.7062
-32.3583
8.22613
24.589
29.3275
7.03583
-2.51127
0.319216
3.86556
-32.346
-36.9605
32.304
44.121
24.7547
10.9441
1.59914
-3.40293
-6.82788
-4.87584
-13.3225
11.0998
9.23119
-11.7522
-21.2079
-4.28052
-6.74118
-27.6111
-20.0107
14.4027
27.6653
29.0538
-8.79645
-16.4469
-3.37671
-26.2688
-20.8289
24.5355
11.8257
10.1416
15.0159
-3.91443
-4.00223
-14.3518
4.33535
20.7393
5.04034
8.08785
-0.316525
-18.2663
-1.30598
-3.78825
-2.70524
8.86563
11.1071
20.7686
11.7223
-10.9563
-8.56939
-28.7655
-7.0048
-9.22988
16.0419
0.766708
-8.71575
-8.7719
-3.28837
0.674804
-6.41146
-32.5734
10.4832
37.2628
7.16013
-4.27675
0.744721
5.79691
4.79463
-7.55395
-18.4448
14.1009
29.3274
16.313
-1.76638
2.4038
0.679705
0.00710631
-20.3454
-23.7988
17.0405
13.6368
-1.1772
-5.51858
-8.29545
-17.958
-32.2622
0.483705
20.8716
5.47233
6.35814
4.11105
-7.45281
-7.28399
-26.9878
10.926
16.1807
5.77365
10.0449
14.7643
0.594086
9.00789
-24.4605
-22.2902
-0.422086
37.2651
32.1977
1.97635
-26.7911
-19.9254
6.29878
-0.373664
-22.8096
16.8611
21.7836
-0.187823
-9.30398
-7.58721
2.10137
-2.30939
-16.6277
4.30101
1.63835
3.0115
-3.64655
-24.17
-5.08616
-14.6389
-9.86195
31.1911
23.3869
18.4637
15.622
-8.63582
-2.3046
-13.5364
-5.45026
15.841
11.7986
7.35918
-4.48368
-8.2458
1.81993
-17.1119
-34.4298
11.0924
14.6951
11.2625
14.6929
-8.66182
-15.666
-14.4815
-23.3009
-20.061
-3.09325
38.3147
22.9046
1.48175
-2.19043
-1.95005
0.900443
-4.48563
20.1149
36.8377
25.7196
-21.4213
-29.845
-19.0845
-4.2533
-8.839
-17.8259
17.4902
21.9863
6.31346
1.8101
-20.2937
-15.8341
-28.1118
-17.8665
25.6626
27.2046
17.625
5.18838
-4.32763
3.42051
-6.42412
-6.09362
18.1693
5.26121
-4.70184
8.3498
-11.517
-7.89607
-13.294
-25.879
1.83112
8.09516
12.6862
13.3274
-6.76047
-9.12676
-5.17972
-37.2097
-12.4966
5.31322
50.0277
36.8062
10.0349
0.326227
-5.5891
-2.86649
-19.8551
-20.992
22.9348
27.7863
-10.2438
-13.9595
-9.18452
-3.8907
-21.4062
-12.8322
7.78697
19.5624
12.3115
7.4412
-19.2631
-6.43034
-16.9927
-31.6973
-3.06083
46.9568
30.1561
22.7367
-1.82555
-6.05288
-12.7622
-8.36769
-14.7501
13.0148
12.6821
4.97749
-3.93509
7.32982
3.49143
-6.9423
-25.9608
-3.59097
-2.38865
12.4071
-3.14119
-24.0073
-6.90556
-15.3177
-44.9249
-3.124
40.3917
37.9391
34.9471
10.2908
6.95538
0.816233
-1.93101
-10.4104
-26.9942
4.51355
9.69366
1.01359
0.77672
5.34319
2.15378
-15.0025
-32.0927
1.98501
40.2097
13.1608
-15.7613
-16.2357
-7.40777
-10.8379
-25.3767
2.7959
26.6062
19.689
12.1826
-5.13389
-6.63108
-12.1392
-19.0499
21.0341
17.0726
3.48445
12.8731
4.20396
-11.9081
-22.0782
-22.5766
8.87874
4.05983
-2.59475
8.74697
0.276662
-10.2344
-11.5531
-21.2456
-12.0345
40.3126
27.1755
24.1034
2.42882
0.717858
-3.12233
-1.60229
-23.5408
-30.9598
14.4441
26.7406
4.57289
8.96368
1.29173
3.99677
-0.489078
-11.1289
-21.0393
18.4637
27.804
-17.2349
-16.3533
-10.9567
-24.0352
-22.2759
-29.3212
5.81356
27.6179
25.0945
1.4521
-8.6392
-13.0665
-13.3174
-0.846362
20.9694
5.04489
0.0733103
20.6758
14.4058
-0.495723
-25.9051
-6.70602
23.084
10.5256
5.57305
12.4731
3.04735
0.443925
-8.08362
-29.7553
-18.582
13.9027
11.0786
0.343613
-9.26739
1.3238
14.0739
8.56659
-22.6924
-6.9143
14.7538
5.39252
-2.04734
6.96242
5.07038
0.883735
-24.1663
-9.91746
32.1157
13.0069
-1.65161
-15.6867
-6.27339
-2.2081
-17.454
-13.4393
8.1536
9.01189
17.1572
2.56641
-7.49524
-11.4007
-24.7386
0.763739
12.1608
13.3571
15.7429
4.76658
-16.9014
-7.45924
-29.2473
-25.309
11.2449
14.0953
14.6423
15.9724
-2.77475
3.87099
13.9204
-13.6766
-15.5062
25.3658
24.9597
-1.47571
-10.1043
-2.99447
6.81356
5.49023
-13.007
-21.2654
26.1282
36.35
-0.356233
-6.43584
-3.14587
-7.7058
-13.0887
-12.0672
-33.6899
21.0114
16.7987
-15.0877
-12.6672
-7.04409
-2.03297
-8.3305
-22.4905
5.72961
9.76009
17.774
0.876603
-9.49354
-2.52729
-12.1644
10.3107
19.2207
5.33969
5.69426
18.7258
0.0489327
-3.47024
-32.5525
1.79712
19.8867
11.1596
14.4159
16.3382
-6.56591
1.9965
-17.2191
-40.5272
10.315
16.6368
13.1796
0.0501891
-5.64389
-4.36304
-0.945136
-11.0114
-28.5135
15.6589
22.8923
0.807359
-12.4792
-9.17635
-2.30818
-10.6143
-15.3419
25.9988
28.272
22.9264
-16.7284
-20.2842
-5.95508
-8.3267
-28.9359
-21.7736
16.6839
32.6285
20.0868
-0.98757
3.79424
-8.00244
0.167939
-13.1587
-34.938
28.281
26.358
-10.0393
-0.0805227
13.1822
7.29452
-7.76849
-18.1322
22.7629
22.3736
16.3581
-7.86806
-14.9013
-17.2895
-19.5724
-24.7481
-14.1745
2.26835
32.1858
32.2057
2.26519
-2.50345
-8.97277
2.66422
-7.87112
-24.2805
3.15008
22.0991
-10.0432
-3.90319
-2.8264
-9.24189
-3.8356
-3.09952
14.1018
17.403
9.46834
-7.97263
-10.9923
1.579
-18.7102
-22.7064
16.4231
13.1217
8.61713
3.53566
2.44816
1.62277
-26.7281
-15.8879
40.0835
24.3134
13.8048
7.33713
-6.72095
4.46354
-9.1195
-7.27276
3.13245
-0.241088
-4.4346
0.0811907
-24.1831
-21.0028
-7.74379
-10.5764
-24.6533
2.23291
44.0859
28.4431
-9.20649
-7.63692
-2.84372
-2.71107
-37.4814
-20.3318
28.0429
36.0009
12.1911
5.36814
13.5024
10.5565
0.317021
-2.72928
-17.9283
-6.66886
16.6342
-6.71306
-17.1634
-4.3635
-10.3217
-7.90458
-22.8393
6.49538
33.2122
18.6933
-2.92667
-13.1972
-11.0769
-8.09394
-42.9981
2.28002
43.405
27.4162
20.7127
5.74959
-8.93113
-8.56657
-27.5277
-18.7623
17.8554
11.8021
11.0861
0.817751
3.59343
4.22722
-5.62941
-10.3879
-29.3241
-21.982
45.0096
11.648
-20.4037
-13.4786
1.11982
8.47727
-13.1737
-11.0253
35.4948
16.9316
-16.9904
-6.6237
12.2243
5.2315
-25.9066
19.6437
20.174
5.21495
11.8418
12.7136
-5.93922
-20.8862
-39.6143
6.73462
7.72863
-2.83291
4.89672
2.23501
-16.9912
-14.0638
-38.8798
-6.81016
30.176
18.0979
19.6907
-9.03261
-9.5217
-0.0703682
-9.88056
0.0318977
17.5688
17.7248
20.8487
1.91197
-1.9769
-3.75846
1.70479
-1.43872
-15.8244
4.95344
23.2918
-2.16188
-15.9873
-5.57671
5.65215
-9.45562
-20.6683
-28.4057
3.62555
19.2889
5.78526
5.50848
0.961364
-5.32587
-0.898618
-5.10688
-3.32026
25.2289
17.3585
6.81074
-0.838496
-7.71335
-12.771
-18.6491
-9.85941
18.0156
10.9904
10.4616
6.03794
-2.39186
-9.68416
-23.8466
-13.7467
13.615
13.0932
15.9681
6.91328
-11.2086
-9.65703
-12.9861
-32.2994
-1.18359
24.0244
21.4889
11.0838
-10.519
1.85984
6.68118
3.65722
-19.1208
-39.5743
27.1971
24.3763
3.77063
5.23784
1.67182
-1.77893
-13.0891
-23.0992
6.93349
20.8669
5.07705
-14.0396
-8.75031
-2.16357
-10.6103
-2.32006
20.697
11.0974
12.1263
18.4256
-10.6834
-9.22567
-35.5907
-50.7667
25.3187
34.7529
16.9023
16.9726
2.71078
2.6232
-3.56578
-13.4121
-31.4973
-17.7582
31.1368
19.3042
9.24954
-0.702015
-8.33019
0.813787
-23.5367
-41.5201
9.87503
47.8289
0.606281
-13.0184
-4.93805
2.43366
-4.20549
-1.75914
-19.5071
2.00795
24.632
24.3356
-3.63934
-5.81074
-11.024
-12.1304
-14.407
21.1615
19.1203
18.1256
-0.219245
-6.93304
-13.5961
-23.7801
2.88261
18.0912
1.71469
-0.395911
4.67359
-8.69097
-1.59115
-19.6581
-9.92051
7.19312
-0.473359
7.68983
16.0278
-0.652728
2.16261
-12.4307
-2.49645
14.1842
0.728645
8.04003
-7.26022
-15.3705
-4.99647
-7.40601
-19.7297
33.2976
35.6313
26.621
-0.215126
-12.7637
-13.2971
-14.6882
-9.92986
-23.3363
-25.7575
46.4202
22.9591
-4.12368
-6.5815
0.207411
-6.87464
-12.085
-24.5962
3.09776
41.0958
-2.46887
-9.42546
-3.73768
-7.91608
-5.27497
-9.63532
-23.9989
15.6727
36.4682
21.8731
-9.01014
-8.72929
-6.42288
-11.0239
-20.6524
15.3054
17.2009
25.5383
9.67538
-1.80465
-13.7242
-21.8205
-21.7907
7.491
2.9279
5.4818
23.1771
-3.40182
-21.8431
-21.2784
-19.3348
30.0915
13.9264
8.87299
13.9147
-6.5838
-5.20149
-2.35852
-13.3934
-18.1653
2.91048
11.2881
19.576
0.196698
1.1622
9.88577
-3.79325
-10.2778
20.3388
20.4951
2.62361
-34.3201
-24.234
-12.6603
-23.5644
-4.46353
19.5927
18.3593
17.3709
17.2883
-1.91379
-4.05872
-16.7172
13.5193
11.5273
1.15868
8.69512
4.73571
-16.4767
-27.311
-35.2253
4.48353
12.1601
8.552
30.2408
11.661
-4.09209
-4.70369
-26.9909
-32.6971
24.6823
23.1279
16.5254
-10.2935
-3.91363
2.97183
6.46142
-11.3591
-47.8555
21.7993
55.5337
4.82218
-9.18805
-5.16697
-4.06299
-6.58734
-10.5111
-33.8049
-0.509136
33.2725
11.9275
-1.61745
-3.3947
-11.8939
-14.444
-16.8296
-23.6977
-23.0997
41.4066
33.9014
13.7614
1.88413
-6.2032
-5.4933
-6.26959
-23.4312
16.7022
22.1327
16.1792
1.25549
-21.9758
-9.92245
-10.1481
-19.2561
21.9603
13.1174
16.2896
24.6755
4.77718
-13.1644
-19.6017
-25.983
-34.9705
25.3523
29.8809
20.4045
-12.6526
2.79804
5.46429
-2.23814
-37.5601
-19.3611
31.8494
28.0959
-1.6344
-3.52169
1.83857
5.12657
-21.7878
-2.47005
3.98302
7.95213
15.6531
-20.4856
-9.92209
-3.9507
-24.2293
12.1308
15.2564
0.0195498
6.16511
4.88718
-7.8235
-5.24676
-26.0666
-7.8788
22.9637
14.4053
11.8715
-7.80324
-11.4668
-5.77486
7.4688
-9.42489
-14.2144
22.9423
21.8415
-7.28198
-13.9867
-3.59308
10.2142
0.044106
-32.7796
-0.801488
16.8267
42.4274
15.0626
4.62766
1.98463
-2.69078
2.17798
-13.0664
-12.0932
1.32363
-8.04701
-18.0694
-8.9818
-6.44308
-2.65514
-15.3789
2.6529
18.7951
21.9058
6.17605
1.69415
-14.6198
-18.0756
-26.4691
-7.19085
11.4204
7.12729
13.1216
15.7047
9.20903
5.98705
-12.0338
7.03089
13.6135
8.08855
16.8066
5.73592
-4.00804
-0.823962
-36.5817
-10.8517
-1.2264
-5.37234
14.2599
7.55791
-13.8689
-12.6215
-20.731
-13.1558
5.3263
29.8768
24.8575
1.90401
-2.17669
-2.39935
0.789176
-9.46925
-33.6625
-2.48157
35.8761
11.8318
-6.62946
-5.46282
-3.49942
2.97926
-26.3175
-20.2251
44.3101
25.8062
6.8383
-3.95814
-2.08461
-6.58068
-8.46245
-19.8458
-13.8211
16.586
22.8154
9.91766
5.41279
-2.25544
-10.7263
-25.6473
-10.255
17.8987
15.0814
12.9108
-7.57723
-4.64189
-14.8335
-44.4229
-26.737
30.5201
18.8776
28.8813
22.2383
-7.49397
-6.59922
-15.5203
-35.1808
-11.4856
26.6267
30.1029
19.035
-6.07148
-0.543288
-1.9091
-18.3818
-29.0328
9.98854
30.568
18.5461
-13.7622
-9.28378
-8.27744
-12.8469
-12.5707
17.9508
5.33245
9.63322
1.18011
-15.2403
-3.97621
-16.5743
-26.1574
17.7013
23.243
10.0955
17.0882
-3.8939
0.289908
-8.42071
-14.4876
5.3748
4.48044
11.0063
8.91063
-10.2935
-0.423851
-10.9928
-6.66455
8.17971
7.80305
10.308
4.68996
-6.02767
-12.0768
-21.0674
-11.6855
5.36017
14.1572
23.3262
8.30752
-2.35237
0.365385
2.00876
-1.27744
-26.405
-21.8347
43.1953
18.3318
-11.1049
-4.92524
-1.51445
-0.165579
-5.18292
-21.4312
-15.3931
34.6011
5.95651
-9.63081
-9.75349
-11.7364
-12.2842
-19.8886
-8.67554
12.8214
23.405
25.8804
-0.248669
-0.511665
0.961285
-4.67214
-2.40099
6.64052
-2.46975
0.597333
5.04268
-13.5817
-8.73402
-21.9425
-9.41624
27.7075
23.9731
22.4625
6.01943
-9.59174
-0.748286
-11.2805
-42.1163
-1.74783
23.107
21.1914
11.1959
3.69975
4.82618
7.48264
9.27151
-21.5565
-7.52857
8.58315
1.30513
-16.2177
-15.6699
-6.27288
-5.40478
-24.0933
-1.36819
15.689
24.5117
12.4087
-16.225
-18.8291
-16.0196
-25.9548
6.27193
23.7049
16.9624
19.7288
6.46543
3.71927
-0.0452984
-22.2033
-11.7695
5.93269
6.09797
11.6731
4.90181
5.80435
4.36284
-10.8289
-25.9645
-20.299
32.4902
26.5531
3.71288
-4.48937
-6.47956
-2.53168
-12.0013
-27.2547
-4.35787
35.19
22.6518
8.68461
4.35865
8.30023
-0.550148
-7.58725
-24.3582
-9.64559
15.3663
13.6844
-12.3193
-3.82495
-7.16093
-12.4038
-22.5681
6.43716
10.6715
12.7493
2.54504
-16.846
-13.2431
-12.3986
-23.118
4.2379
29.9039
11.7961
13.7559
3.5484
-6.79569
-8.35764
-30.8251
12.0015
13.0856
7.43743
12.3035
-1.52967
-2.43883
2.07184
-30.9053
-5.69844
30.5961
14.6142
16.9514
3.4475
-11.6254
-0.592434
1.81818
-36.7725
-5.25397
40.7949
45.1143
4.66881
-9.23134
-11.0705
-3.89557
-13.2088
-45.064
-13.6611
26.1493
3.53949
-15.1575
-10.3553
-1.54758
-14.2712
-42.0145
-2.547
52.2948
48.2165
8.05281
-18.5677
-20.4643
-11.3224
-0.203394
-15.3805
-15.9413
17.0896
42.5331
18.5489
3.83103
4.33663
4.28875
4.63975
-18.4848
16.1693
25.7363
0.61911
-28.0825
-14.7197
-7.55912
-11.4623
-27.2912
-7.39637
13.0587
20.2535
19.6339
-2.63447
-5.2521
-2.74999
3.01365
-17.1932
-54.8964
-1.02342
31.2816
21.6525
12.2986
2.80926
-9.45492
-3.12712
-3.56275
-29.6506
-2.35844
33.4828
8.83777
9.07134
7.82667
-2.55158
-2.01815
-14.6427
-13.0749
20.7991
26.5332
1.52046
-3.23658
-15.4143
-4.72115
-19.4338
1.43715
20.9967
10.5224
14.0745
4.57082
-30.218
-37.7861
-46.8397
-3.67743
34.0388
18.9815
18.5735
14.7471
-5.91779
0.284849
-16.0051
-24.8821
9.49208
21.4591
20.0334
5.54028
-0.464468
2.82023
11.2282
10.9793
-17.976
-11.04
28.395
1.02948
-25.8579
-14.6287
-3.92757
-0.761181
-9.33814
-17.7683
-19.6998
31.1354
18.977
0.589613
1.24616
-7.50708
-17.8292
-24.3082
-16.176
12.7519
16.0802
13.4739
6.17551
6.78717
-0.475627
-11.6908
-22.2678
24.754
20.458
20.4625
17.4453
0.209741
-21.3396
-33.6255
-20.7394
22.1375
28.2332
16.5687
13.2555
-0.739017
-4.65925
-11.4062
-42.382
13.1783
10.1035
6.44994
10.7368
-15.9695
-10.0922
5.7506
2.68548
-32.3852
-13.6501
8.8291
11.0989
-5.20496
-8.3066
-4.78907
-1.92755
-13.5181
13.4682
26.8015
34.0728
-6.6788
-13.9367
-2.40925
2.14112
-31.713
-2.22413
16.1879
12.8824
17.2604
-0.59478
-0.297426
-0.996799
-21.8975
6.45401
19.2289
14.131
7.9342
-11.7434
-10.5141
-10.8802
-62.7921
-44.0135
37.3501
42.3454
32.5829
10.9082
-4.36089
-2.94834
1.33254
-9.90552
-21.7109
11.0945
9.41259
-1.32776
-5.98514
-3.80238
2.8264
0.548074
-10.7821
-22.4289
36.8192
42.1035
-4.73191
-10.654
-8.48297
-16.5142
-16.0155
-22.7944
-15.838
33.4239
28.3149
1.79383
-1.41606
-5.21984
-5.87816
-18.2269
-12.1258
8.42844
7.86885
23.424
9.36186
-2.39339
-13.4891
-33.1271
-5.52156
29.8098
11.5061
14.0513
8.97553
-20.521
-16.9191
-39.5144
-4.33909
32.8511
24.7107
23.432
13.5461
-5.65267
-2.8837
-7.69798
-25.3712
1.93379
-0.508556
5.14203
-2.99439
-14.8778
-2.27035
3.01404
-9.98779
-18.7438
28.2699
27.6063
0.729131
-29.6664
-26.7782
-9.02832
-8.52412
-9.63815
18.5485
30.0638
26.2629
1.69377
-4.96365
6.47594
-7.53702
-46.5152
-3.77488
41.7493
36.9524
25.581
-1.91586
0.747735
2.06299
-5.00146
-23.719
-13.7554
18.8374
12.8402
-10.4425
-15.1423
-11.1564
-22.7844
-51.2309
-24.9875
42.7612
33.9717
3.08483
-17.7227
-5.05129
-1.84922
-10.833
-22.3495
6.19283
24.4897
25.658
17.6046
2.15282
-0.942908
-2.14009
1.28026
-16.9339
1.51979
25.2506
16.5062
-15.0815
-1.01356
0.118615
-7.44631
-20.269
-2.16037
8.48249
20.7538
-3.56407
-14.7735
2.33581
-5.24258
-25.4677
15.9271
7.46815
4.65156
16.3384
8.23841
5.34959
-13.5317
-20.5506
11.1217
-6.17797
-9.24099
4.7845
-1.75133
-8.49039
-20.5748
-26.2922
26.6839
20.5237
11.9524
11.2035
-11.3096
-6.80833
-7.39787
-25.1404
-1.54597
13.8352
30.0236
16.1119
4.12715
8.01396
5.00372
-4.09888
-36.2459
2.63842
39.803
24.1641
-19.3321
-16.4726
-17.0966
-9.26961
-6.85414
-27.7224
-14.3876
34.8759
13.2707
0.425168
-7.40843
-6.4506
-2.90751
-7.62769
-21.5524
10.882
32.8846
3.04406
-8.02794
-4.20024
-11.0533
0.000361237
-17.6916
16.1268
24.0439
22.1895
17.8436
5.42636
-4.29886
-8.34025
-31.1402
-11.6985
3.71789
8.92052
13.448
-2.45964
-1.57493
-8.33002
-31.9163
7.67778
18.2243
6.1738
15.6966
-1.95695
-16.1757
-6.67978
-4.79281
-10.4953
14.2915
16.892
16.6565
-3.55025
-15.3552
-6.016
-0.286532
-29.1452
1.01177
25.2975
27.6109
6.75662
-11.1339
-8.70756
-1.82988
-16.9002
3.46507
0.401808
1.5135
5.31777
-8.14225
-6.06677
-18.2089
-26.646
13.0354
3.81708
5.05461
19.6814
2.16497
-11.9805
-21.2391
-39.5114
9.54549
61.1105
40.4284
20.7799
-2.01306
1.46757
0.147959
-0.23342
-25.2861
-10.3173
26.3315
18.5479
-11.1586
-13.5334
-12.1685
-1.79743
-8.94063
-29.6774
-8.1337
29.6511
-1.90891
-27.8401
-7.34703
1.20888
-11.7719
-1.42815
-9.62855
4.728
11.9693
5.7878
7.36215
13.1462
6.5879
-3.73147
-14.224
26.5544
17.0716
16.2052
25.0639
4.5172
-11.5245
-30.8308
-23.9284
13.223
3.57622
-4.82722
3.66376
-6.55164
-6.49495
-31.3752
-19.6053
43.7361
14.6488
7.35578
14.1502
-6.14104
-10.503
-7.17533
-17.6563
-14.489
21.3504
16.929
10.3228
-5.57375
1.12829
2.84132
-2.17884
-32.5731
-6.67958
22.4591
14.1892
-21.0287
-13.8495
-8.16042
-11.9066
-55.8456
3.21991
59.4042
42.7452
18.2968
-12.3865
-8.46183
-0.452211
-31.0273
-41.8361
33.3718
36.7942
29.4561
6.19815
0.676891
2.38882
-11.6363
-23.7502
-16.5057
13.0879
22.931
0.851227
-21.5174
-4.14474
-1.37475
-34.6025
-42.8794
34.0823
35.3623
34.8623
-2.98092
-4.52055
-1.35574
-21.3719
-44.7688
7.33232
5.16869
13.5086
20.0588
10.9751
14.8169
-0.853089
-24.4414
-7.54748
14.0695
13.6785
15.6759
-15.2775
-2.44848
-2.08059
-40.2143
-19.6298
16.8818
31.3658
32.4619
-0.995245
-5.56965
-0.395149
-22.531
-23.7366
8.02557
-2.3584
-5.03071
-1.53684
-1.48326
6.90482
-6.66594
-7.00224
10.5377
11.0462
11.523
2.06212
-7.72257
-14.5928
-28.7531
-3.36966
23.1152
15.029
20.2325
13.3886
4.55159
3.0549
-4.11253
-34.1667
-31.5814
29.5509
34.1533
4.62546
-13.1638
-7.23094
-5.41975
-11.3273
-27.6183
-19.3604
43.2423
7.15571
-12.4252
-0.900471
20.8213
21.6709
1.0408
-19.5469
-30.4901
6.72932
18.9283
-19.0931
-5.55972
-0.124833
4.48183
-7.28308
-23.4125
18.3545
33.8688
26.5724
6.77668
0.241619
-5.23573
-9.64147
-28.4962
-13.9332
18.8026
14.8944
16.9014
7.87576
-7.19411
-15.5058
-26.0267
-35.5112
2.29001
20.2111
19.5294
-4.25371
-5.96589
-5.06336
-6.5086
-15.0711
-17.0768
1.89743
28.754
14.0655
-1.33439
5.82353
10.3696
8.72744
2.18144
-21.1054
-0.0314076
32.9185
1.23563
3.58324
14.5167
4.21735
-4.12431
-22.053
-27.1168
14.4474
5.95288
-2.74936
-6.94845
-5.39006
-22.9072
-48.554
-8.2065
40.1607
26.0376
26.4991
22.551
-1.41671
-11.9052
-29.811
-11.3002
11.6038
-0.0162095
-0.425004
0.948423
-3.11308
-0.715801
-16.1915
-15.513
13.9715
14.1542
26.5363
13.3974
-14.3844
-3.53454
3.8042
-31.6799
-31.1425
24.6175
31.8186
14.1417
-10.9355
-9.07478
4.14164
0.377683
-13.6414
-27.7712
-8.19885
32.6534
-2.47956
2.19
16.7309
5.77947
-2.72925
-24.5543
-10.4068
39.9392
20.29
-8.98144
-4.39158
-3.6409
-12.8192
-19.7658
12.0948
30.9498
10.3128
14.3639
5.88581
-26.7975
-21.1093
-27.6181
-0.814927
11.3847
-10.6649
1.46169
4.55603
-1.03968
2.63436
-26.9355
-18.591
14.6392
12.459
19.4015
8.16727
-7.1712
-2.17376
1.3805
-21.5488
-18.8462
18.0617
24.6837
12.1693
2.30407
1.33804
7.16005
0.748167
-24.8354
11.2648
18.3188
17.6704
-3.72855
-8.19885
0.562186
-10.1912
-26.6556
5.74037
4.09683
12.4992
8.9945
-10.46
-7.40177
-23.7681
-32.2452
-6.09134
39.0839
25.2125
22.4854
-3.03389
-7.01101
-6.14509
-10.2321
-26.2547
-0.846012
13.8281
8.89539
-8.02938
2.47587
12.6049
7.86402
-12.2565
-33.8961
22.6258
35.2085
10.1038
-19.8275
-13.391
-1.00457
-8.28724
-30.5797
-20.3874
19.9499
28.6979
12.3779
8.86775
9.95154
-8.0969
-13.2004
-13.3388
16.0571
12.5263
20.6437
-5.79948
-14.3778
-11.2342
-32.2256
-21.9885
13.481
7.10666
15.6721
10.6768
-7.18904
0.213904
-25.7984
-27.297
35.1951
21.0063
14.448
14.903
-7.05545
-4.14059
-6.85594
-9.01406
13.0719
6.54052
6.60802
5.28726
-14.8818
-1.33043
1.17108
-13.6509
13.2628
12.282
12.2623
3.78637
-23.7079
-21.1449
-27.9447
-21.5423
8.12673
14.6416
23.9974
13.2502
-3.77586
-1.02492
1.66763
-11.368
-31.5012
20.2572
25.0482
21.7301
-8.99149
-7.80195
2.36917
2.34112
-13.4787
-26.4614
11.6306
30.625
-1.27113
-3.82215
-2.15873
-5.94681
-9.8176
-35.4475
-20.5938
53.9128
43.0274
0.108385
-5.94498
-4.18074
-16.8924
-30.1475
0.569389
12.1005
1.05906
7.50908
-5.0572
-13.1227
-5.32702
-8.62717
-23.9104
16.0343
21.5645
28.1547
18.488
-14.5999
-3.95112
-15.4254
-19.5561
-20.8113
20.101
39.0165
14.8488
0.124865
0.767339
8.3111
-0.517289
-27.8598
6.22541
-3.43464
5.74031
-10.7203
-14.5632
1.77733
-1.31953
-26.1192
21.2909
10.7862
12.0831
15.339
-13.898
-11.4015
-28.6472
-44.6401
24.8363
30.7609
19.8829
21.2014
-7.1565
-3.6469
-0.34008
-17.7811
13.4121
15.3217
12.9822
7.0208
-13.2954
-11.6032
-8.34746
-17.2576
-0.111707
3.91559
11.1589
18.3524
-18.3531
-18.1692
-16.9578
-37.0222
-35.3754
30.7273
36.6053
18.8876
-5.38732
-8.76306
-10.1606
-2.70142
-9.35101
-24.8571
23.5137
53.2521
20.1459
12.4228
17.0815
19.7352
1.10911
-11.7809
2.8693
38.9354
17.2366
-26.2459
-27.471
-11.7464
-24.856
-46.3685
-19.5242
-3.64546
6.41364
11.9193
-12.9698
-23.7547
-25.0627
-30.3404
-7.42829
29.661
17.3566
29.1681
33.2408
34.1033
31.6823
16.3457
-10.8595
-5.83554
38.2841
36.723
0.399825
-25.0218
-33.2876
-26.1385
-32.6807
-30.5511
-55.1818
-23.7911
-0.928564
-19.4047
-18.3099
-8.9246
-7.509
0.0946006
-4.87972
9.98129
58.3434
52.1126
25.0747
35.5093
31.6034
23.8483
-3.32781
-0.0958232
-13.5756
-20.9229
40.8842
70.9936
47.2483
0.092219
-57.3265
-47.4001
-30.506
-2.52087
35.9252
23.0439
-11.2228
-13.4884
-19.5806
-27.7538
-38.2652
10.1601
34.2333
-17.7006
-66.2529
-89.3729
-122.714
-129.455
-89.8997
-52.8729
35.5226
119.071
114.248
106.495
118.604
128.414
104.84
61.2548
20.368
47.1956
84.9944
-2.15633
-39.0953
-46.7388
-57.1131
-47.1956
-67.4627
-82.4921
-46.8426
-47.1537
-35.9743
-62.4705
-63.7097
-67.8893
-126.961
-146.628
-68.0032
-7.20119
15.4571
15.6258
40.2436
88.6047
79.1616
132.682
164.319
153.72
135.701
107.854
53.8437
24.404
-29.6419
-77.8362
-81.0924
-65.9538
-42.3688
15.7907
35.1282
34.3513
-11.9883
-2.52214
10.7382
-11.2665
-3.99967
-25.148
-27.0875
-28.2649
-65.4602
-91.1797
-38.3812
38.3445
93.1645
49.154
20.8127
24.008
10.1374
-80.5207
-80.545
-72.6816
-57.8644
-99.2414
-124.731
-108.287
-72.8271
-30.9549
42.5006
169.851
189.263
105.69
-18.2045
-22.925
16.3765
37.5786
90.0401
155.203
130.359
67.2036
-34.4967
-121.86
-110.888
-59.6479
-46.4404
-1.10498
-3.35583
-6.11467
-22.8591
-49.285
-18.0317
2.5051
10.5603
22.8195
67.1454
29.9265
3.36422
-16.0945
12.1363
53.0604
72.4254
71.447
54.6348
76.6743
36.6415
-53.3473
-80.959
-82.8275
-97.155
-144.327
-142.349
-28.271
34.3503
-17.347
-72.2754
-23.1637
-7.93668
-39.6604
-68.2783
-13.0691
25.4546
64.3591
77.1125
41.8667
36.3236
49.9643
36.0833
101.685
149.993
158.822
149.194
89.7436
29.2497
6.4033
-73.5806
-58.9978
-74.4508
-118.407
-80.7365
-80.4193
-89.7974
-40.7606
-33.1995
-34.728
-0.328868
-15.1841
-10.347
-47.2699
-61.8895
-55.2488
-41.6451
-32.7438
-20.5493
25.2696
60.3868
27.1158
9.15228
-26.7389
-32.6986
-7.25636
0.241811
-10.9558
70.9041
65.5736
22.6222
45.4886
93.3813
102.851
48.6574
-13.8362
36.4706
56.3724
50.1894
15.1274
-18.3866
-25.8487
-19.4622
-0.117248
72.2207
43.1579
10.7542
-4.95296
-47.05
-60.595
-66.1753
-22.4413
-3.24879
-24.5297
-5.19984
20.3093
2.36018
-5.1477
-0.392552
-29.4878
-13.0314
-27.6549
-33.3264
-22.6688
-58.7828
-34.3271
-10.785
-31.648
39.5099
127.961
71.9401
6.70792
-23.111
-45.3
-54.1606
-58.8826
-10.2911
15.3294
-2.17445
3.36339
-7.11253
1.88469
-1.18111
-14.4777
28.4369
40.5786
26.2615
26.854
-28.9838
-63.1208
-46.6501
-52.5815
-33.3617
18.9072
35.1614
68.6661
40.883
16.2227
2.46345
-9.67399
-26.3672
0.927293
75.3984
62.5419
12.2516
-18.2765
-19.7189
17.1955
-3.64587
-59.1569
9.85866
90.391
52.7561
7.69992
-2.05975
-31.0342
-70.7993
-92.6759
-72.7714
18.3654
27.0035
30.5812
14.0194
21.7177
-7.31954
-42.5873
-19.836
-21.725
-33.9584
-2.99951
10.7884
9.81531
21.922
-6.28057
79.3004
74.655
43.8977
32.3982
33.2979
1.23108
-23.9351
-45.2652
6.13109
-12.5061
-39.839
-18.7439
-4.18358
8.3529
12.1014
-0.999065
29.3157
-8.35414
-19.5402
-5.77046
-55.4252
-44.1921
-27.0648
-28.0878
-45.7644
-2.8056
28.1069
29.2892
-31.1901
-20.8537
-1.32014
18.2939
-4.9624
-11.9077
22.009
23.7662
-3.45201
11.4405
26.4748
38.8637
3.55776
-37.5819
-20.8872
14.7133
24.6811
5.3852
16.7972
21.7204
4.73025
27.2512
2.62908
28.1297
45.1513
33.8255
2.37802
-11.1881
-8.71321
-22.6491
-60.3768
-22.976
1.84337
10.1491
13.3568
19.3554
34.7889
13.5644
-30.0834
4.04006
-10.2502
-36.2622
-46.9673
-71.7402
-59.647
-31.4027
-19.1573
3.13264
59.3333
83.5544
61.4711
7.84576
-13.669
3.16241
-0.462135
-0.346428
-25.4969
-22.4169
40.2479
33.828
32.9358
26.4946
46.6783
31.4277
-42.7123
-74.4054
2.20906
27.6549
-14.7014
-27.6555
0.34123
-4.17878
-17.8458
-37.457
-4.84441
-17.8568
-20.3045
-34.1677
-19.37
-11.5371
-42.15
-53.5671
33.912
40.3368
28.8748
10.9692
-30.5082
-8.83484
-23.8531
-8.19294
58.078
40.8538
32.527
28.8079
-9.3394
-19.7325
4.71222
-12.028
-8.46672
-15.9711
-4.06107
16.8548
9.72894
24.3509
40.9477
50.1543
-15.0888
2.47082
63.3932
41.8668
-25.425
-14.3328
5.03496
18.7752
6.44565
-12.8079
-40.3298
31.4465
43.6589
7.63386
2.7914
0.0869753
-39.5138
-43.8538
-45.413
-12.9179
18.1823
-6.88145
-44.096
-60.6219
-47.1705
-30.5463
-37.877
-12.1798
-22.2506
-7.89035
30.1512
16.9394
0.598178
-6.90379
6.80008
68.0636
39.1239
4.74821
8.92311
14.7967
16.4404
-3.71577
-40.3155
-54.9803
13.3059
19.0218
21.8007
35.3826
59.1218
59.8975
49.7146
-7.56571
-71.3562
2.17401
19.5904
-15.5361
-22.952
-5.59456
16.551
-21.7104
-9.49297
23.3548
-6.63131
-12.0691
-39.1072
-17.3145
-4.24835
-42.6611
-24.4129
54.2895
51.9521
35.3696
21.4632
-20.1898
-19.6189
-45.5222
-52.7791
-8.37213
33.43
49.374
13.2337
-28.48
-23.7085
2.9218
-9.82655
-57.6749
-51.9048
29.6632
41.2898
-8.52808
-7.01995
20.5158
40.6673
19.2427
-9.04856
-23.6995
-7.71802
27.7384
1.90893
2.209
7.65066
-1.00707
6.82073
20.1894
14.2089
55.9846
61.9475
16.1923
-13.9832
-13.0878
-16.0332
-48.2315
-88.5545
-54.3299
9.84847
33.5322
53.7877
30.0426
14.1361
-12.0256
-45.7518
-14.3107
22.7054
15.9925
15.5147
-19.3025
-28.9599
-27.5766
-27.6952
-12.2577
-5.27946
-3.49255
31.4975
6.98409
-28.699
-31.7602
-58.3006
-65.5954
25.0733
49.4585
58.8801
23.8897
-9.20122
-6.15493
1.28245
32.4354
20.8839
-6.25259
-6.05022
40.9816
45.7162
36.3047
19.3822
1.59377
-1.02373
0.0437197
9.95828
24.978
-14.1462
-14.1827
0.409076
-13.8105
-26.6927
-46.6937
-30.6666
-4.509
23.4822
18.0603
24.8239
-22.1783
-37.3941
-32.6591
-26.9298
-45.9686
-8.89236
35.5598
15.7579
-3.2261
-6.53168
-11.3419
-22.4249
-34.2925
5.01354
49.0017
35.8643
22.006
1.05741
-2.04904
-9.35766
-20.5246
-31.7095
21.7615
47.8468
47.9791
22.2859
-2.02323
-1.83796
-9.84175
-18.645
-24.0134
-7.78835
49.5939
40.564
14.4631
5.4168
-16.2805
-19.6491
-26.8077
-34.2167
-16.5799
-6.10354
-9.9779
-9.19295
10.2408
22.022
26.1575
23.0898
33.9776
37.6407
45.6775
23.8244
-22.5617
-59.4211
-75.7864
-64.6715
-36.2771
-32.1439
-7.40688
10.8193
9.64811
27.4318
5.11758
3.21438
37.054
-10.553
-39.0775
-24.9924
-28.8732
-35.9979
-37.0934
-25.5185
25.1155
96.0256
114.058
81.8112
49.2897
21.4638
8.07118
-8.89031
-60.6225
-59.9895
-20.0115
6.22558
1.99808
-1.06016
-5.60298
14.476
12.8114
1.53847
-16.2774
7.65944
-9.9479
-21.4031
-19.7218
-21.4897
-25.261
-27.4514
-15.9487
39.2035
42.117
29.3317
7.4876
-2.74979
-11.1266
-5.41119
6.09751
20.6749
8.4438
4.34606
5.85908
2.77066
-4.87558
-32.1998
-33.1146
0.191165
-3.76946
-0.42755
4.31103
-9.11512
19.3393
20.6757
-17.5118
-18.2483
13.489
16.5805
11.6908
-12.1775
-19.3308
-7.40276
-22.6273
-31.9088
48.5058
31.3858
14.6366
-7.45337
-22.666
-22.3562
-26.2223
-11.9793
20.896
21.526
19.2711
-6.92864
-23.6666
3.89345
2.07392
0.409068
25.9052
18.7156
44.7464
48.4282
-16.4732
-29.8038
-42.8386
-28.4081
46.8612
36.6948
15.6615
-10.6289
-26.4733
-22.7603
-22.4264
-44.5919
22.8493
27.1655
28.1247
24.0897
-5.27671
-11.2906
-20.907
-41.9603
-63.243
-28.1184
17.3082
27.4544
14.9241
21.4616
16.4641
2.35353
-18.5675
-41.7077
-3.28458
45.1918
10.4567
-0.827825
9.13677
13.7871
8.78841
-17.887
-52.2462
2.30205
23.652
14.044
25.1455
28.736
-0.881348
3.12446
-0.156274
22.0929
9.12753
10.9657
10.167
11.6053
-28.1436
-71.3944
-70.4251
-18.2771
17.4904
30.1895
50.1712
30.8997
23.9862
28.7697
-4.94564
-1.79026
-20.8487
-26.4456
-12.765
-33.5596
-34.1143
-7.82643
-5.24372
-20.9888
-14.277
52.8057
66.4711
27.6577
-0.636505
6.75718
7.95927
-49.8215
-75.1013
-15.3342
16.6174
-11.2527
-21.5689
-9.53629
1.23427
-13.1353
-0.728158
43.4742
22.5082
22.1749
10.1485
-4.88379
-7.03577
-26.5093
-56.8418
-14.4385
48.5894
53.2897
36.4206
3.53708
6.93386
19.5189
24.1922
-0.585266
0.636464
36.9914
26.3423
-16.0257
-19.6497
-15.9324
-19.7395
-28.2085
-41.5011
-30.7316
20.9141
-4.03988
-27.7754
-2.44443
10.7344
5.94194
4.96068
-24.4523
-10.3222
45.879
29.0612
-11.0543
-9.37615
-10.0971
-2.49117
-4.48308
-19.2154
20.6943
12.6974
6.67775
3.12303
3.04257
-2.905
-1.75035
4.88859
53.8761
21.4062
6.72617
-5.89595
-12.2765
-9.15618
-40.6804
-38.2968
-12.376
-4.15127
6.5014
6.62759
-6.83454
9.9267
-22.0523
-54.0572
22.5053
14.5719
10.3795
7.26179
-30.8702
-25.1346
-9.0645
-13.1007
17.2464
10.5625
24.5182
33.2412
26.2815
33.619
32.6102
39.7033
38.3237
53.0447
50.9069
12.6556
-53.9894
-48.5175
-40.8066
-41.6532
-60.1159
-58.494
0.107377
29.2774
-8.92669
-11.9651
2.99086
11.8238
11.8476
-10.4099
-49.2605
-8.96016
-8.98961
-29.2149
-15.6044
14.1581
2.97539
-11.0332
-31.5642
44.7707
49.9181
51.0754
39.3388
23.5398
3.39762
4.44923
-14.7805
22.3523
4.6874
5.45016
19.1661
-10.1566
-32.7769
-45.1857
-20.2798
12.5485
16.6459
25.6967
40.5064
0.7254
-10.9115
-18.5364
-41.6615
-69.2354
7.812
33.706
35.8816
3.88456
1.71575
-0.88861
-4.4444
-34.4962
-0.0375411
18.8785
13.0352
2.38846
-5.10119
-2.64235
-5.13116
-25.4089
7.60989
18.466
8.01284
19.0469
-16.0543
-17.5132
-19.1975
-38.7161
-1.62372
-8.30339
1.28584
18.6786
5.7763
4.51767
-25.632
-58.159
26.2012
47.4229
42.0674
36.9967
16.6389
14.1766
-1.64937
-25.3789
-3.71969
39.4464
22.8476
11.3451
-3.52983
9.63129
7.83066
-24.3558
-75.412
-51.9865
13.4179
15.1968
-42.7504
-39.3163
-5.49154
4.07889
-10.4273
-41.5236
-15.9933
84.1817
70.4063
16.1967
19.9861
13.8347
-5.20026
-16.8921
-44.8571
-21.9426
56.4302
45.5294
13.8528
36.2983
18.7411
0.735457
-22.2261
-44.4776
-23.7452
-9.02185
-8.98758
-31.7433
-41.8683
-31.9837
-36.0387
-1.44123
55.949
48.5774
45.514
32.8973
-14.9472
-47.2106
-76.4702
-32.685
-22.6968
7.66438
37.4386
44.297
18.8351
23.943
21.1569
-36.6442
-29.9857
22.6963
31.5245
21.7797
-14.5722
-14.8032
0.176729
-3.40336
-1.12144
51.4441
50.4877
31.4628
18.4311
-12.8629
-31.4618
-59.0135
-22.6223
33.7736
25.3381
24.6073
4.30151
-26.2288
-21.5071
-59.5971
-80.886
-13.092
10.2879
9.09562
-6.78502
-19.9174
2.4613
1.39803
6.05571
-25.7466
-8.53551
68.0936
32.8552
-7.93934
-8.13498
8.19669
9.1607
-27.1394
-46.5152
0.89566
70.2289
48.8631
32.5537
30.1614
20.5875
5.80642
-0.187811
-30.2051
-39.8479
13.1086
9.57874
-9.41849
-6.46465
-12.7347
-10.8061
-30.4069
-49.8026
5.20518
30.3423
24.7868
-12.4728
-26.7568
-9.92505
-11.6986
-9.30296
10.5131
21.8483
29.1121
31.3447
20.8466
6.42619
-26.9081
-24.8296
11.4846
2.89987
4.9137
7.26839
-16.4908
-7.86815
-34.4842
-29.5468
0.422949
5.19713
22.2565
27.4834
1.44002
0.285542
-25.8411
-16.9388
43.4298
22.9099
6.76961
-0.605178
-13.1133
-2.04301
-1.27091
-26.9855
-50.5254
36.1983
35.5097
-1.57772
-20.5458
-16.2835
-8.10426
-8.35592
-37.7665
-2.77084
68.0554
45.9288
-6.84685
-7.26477
-15.1744
-11.9385
-10.3551
-19.6593
7.81379
52.2765
58.298
21.531
23.6692
15.4103
-13.3211
-54.642
-36.875
6.30152
12.1599
-2.43681
-26.4772
-23.2688
-25.6133
-23.1373
2.17571
15.7911
0.245066
15.2431
7.07717
-15.2262
-24.1751
-45.475
-35.6923
29.6053
47.5762
44.8027
24.7936
3.36235
21.4795
0.940118
-15.4962
-34.572
-23.7212
9.01811
10.9488
8.49307
14.6371
13.7591
8.14381
-18.2972
18.2826
32.3136
13.8295
-33.4387
-49.3023
-24.9129
-19.1272
-35.704
6.83792
37.0676
29.9899
46.4412
28.1698
4.82308
-18.8634
-48.4933
-8.8306
13.3128
14.9314
24.6812
7.17796
-3.78431
-0.72546
-23.6417
7.94051
2.71593
-10.4111
-14.0352
-23.247
-33.7782
-45.862
-71.6668
-25.1564
48.0816
75.4179
68.2817
27.5159
8.34317
10.3932
18.9895
-21.0087
-40.899
7.215
19.1436
-14.3416
-8.91959
0.091815
6.83243
-2.30217
-40.9946
-10.8907
55.0413
21.8765
-14.1461
-12.9669
-2.50787
-16.7132
-39.7698
-59.5645
20.8846
69.8196
45.9883
6.68054
-15.205
-24.806
-13.9957
-22.798
37.7016
21.8849
27.892
33.1112
28.1883
8.37728
-34.0962
-55.2888
-11.6032
-0.0543828
13.8244
10.2834
-39.011
-48.4235
-49.8686
-63.4213
11.8839
79.5335
56.4251
49.0026
10.4783
-6.42782
-4.57787
-18.9038
-57.6336
-24.8108
5.65096
7.30374
-7.0827
3.13615
24.2049
25.6989
-25.2845
13.8418
36.9399
28.8384
3.49913
-7.27709
15.2067
-2.12999
-57.9395
6.6184
40.2529
15.7331
9.38127
-9.06938
-13.9727
-7.02344
-25.239
-13.174
19.1898
20.4061
23.4603
-13.4863
-23.2436
-20.6549
-26.1856
-50.4333
-61.5055
2.7264
37.986
18.018
3.25617
6.78906
13.2884
-10.5407
-29.2537
24.6422
44.9683
27.4516
1.15081
4.93969
14.6078
3.78841
6.08587
-8.38963
-1.23609
8.43322
19.8909
7.14271
1.02654
-16.653
-12.2497
-35.7828
-5.96958
2.83741
10.1301
-0.455603
-6.77109
-13.0563
-16.3664
-38.5542
14.9326
33.7125
17.3335
24.1481
14.7598
-4.95676
-14.7739
-34.4068
16.0169
20.8033
6.96514
19.882
4.72167
-3.76168
2.52279
-34.8548
-14.6242
-14.3414
-32.9538
-4.75017
-14.0193
-26.2829
-15.0209
-13.9238
31.925
54.6827
44.7149
28.747
-2.68214
-16.2909
-13.7883
-6.3244
-38.4067
-3.06107
4.80551
2.84451
6.70976
36.2066
53.678
43.6253
-16.3352
-19.1421
29.4329
32.9401
-21.866
-49.0831
-38.7332
-27.4197
-35.5618
-64.0025
-52.1844
14.7367
54.4844
42.2331
37.4544
40.928
22.4059
-26.9242
-50.1865
-5.25616
8.01597
-3.13139
-16.7322
-3.20416
0.648669
-9.50473
-8.64406
28.9744
21.5584
32.6152
38.6796
17.0334
6.69344
-25.7571
-64.1693
-17.9313
10.8796
23.7255
18.4011
2.78442
2.47631
-6.43518
-21.2964
-34.9368
-27.0294
13.7235
13.2814
-8.11896
-6.1259
14.6472
22.0209
-8.72228
14.7039
26.8884
34.6609
-5.3722
-31.435
-25.1006
-23.5222
-42.1508
-6.59
25.3396
26.5369
38.0058
23.4491
0.440249
-12.0778
-47.7476
-17.0346
-7.57734
-19.3162
3.90863
-4.91592
-8.32558
10.1479
-9.42738
23.7331
33.438
28.2947
25.6074
22.0567
4.89389
-14.6046
-35.1495
-16.4711
31.334
23.4158
21.1125
-0.37087
-21.0673
-25.9294
-18.1344
-48.7906
-55.3704
28.4105
44.4318
3.37858
-5.3551
7.21622
22.5096
11.5296
-8.18967
-19.3645
32.3072
12.9174
-25.7481
-13.4031
-5.32109
-16.8709
-29.1904
-37.7173
13.4685
43.97
44.563
16.6909
18.8158
-1.8339
-31.4516
-55.944
-9.73201
-7.40851
-7.43029
4.14192
-5.85365
-5.81716
-25.1165
-6.83791
55.0006
50.943
47.7626
51.4997
15.0854
1.39875
-28.1888
-42.6496
1.50572
5.94472
-13.1579
-9.11134
-34.741
-43.9563
-28.2342
15.5898
25.4718
61.7185
44.9829
23.8297
-5.69776
-20.9898
-32.2476
-41.5158
-70.58
3.02912
24.452
12.0497
-10.7353
-7.05256
15.7303
3.16738
-28.8654
50.0137
45.5577
9.19347
-7.84849
-34.5658
-30.6695
-24.3342
-64.6906
-15.484
74.0999
61.1184
48.7504
10.2463
12.9798
-21.6098
-48.5129
-36.3846
-33.8205
31.8755
47.0716
6.91405
1.75606
-0.195573
-4.79177
-13.2723
-30.2195
-12.302
9.85887
44.8012
4.8969
23.7303
29.668
-3.00588
-8.73616
-6.74404
-23.3831
1.01265
17.6851
2.68557
9.10715
-18.8774
-19.7334
-6.42611
-26.9354
-0.72313
24.7338
8.68948
10.005
-27.9036
-32.1915
-31.517
-78.708
-35.7536
24.063
12.8744
22.024
22.8219
30.1354
26.4472
-8.16362
10.7489
37.1109
19.9666
28.6435
4.7568
0.631057
6.62654
10.7335
14.0114
-12.1898
-8.97495
20.1705
-10.5576
-30.2008
-11.6405
-29.9609
-57.5693
-38.5377
18.8421
32.7171
24.6732
20.3143
21.7847
22.7717
-9.47504
-34.005
18.5885
2.33123
-16.3373
-14.9095
-18.8475
-8.81647
-25.1248
-46.2755
29.8461
65.3262
35.9012
5.64001
-24.1322
-6.62645
-14.1958
-32.9614
-55.2498
15.0461
60.0278
61.1805
17.0827
12.4094
-4.20744
-7.32535
-32.2409
-38.8387
16.4434
9.725
-23.2358
-13.4493
6.34021
15.1713
1.34216
-17.7246
-13.6187
28.6245
33.7828
-1.85833
-24.8591
-10.0466
-8.4533
-5.07743
-23.5202
-23.2772
41.8343
38.7895
9.02642
25.3002
27.7145
13.9583
-27.8015
-51.0969
16.4679
20.9418
1.69956
-27.2586
-13.3244
-15.6913
-22.9261
-31.9313
-10.2523
2.85377
23.3082
24.3519
-2.45465
15.9504
6.86398
-4.49304
12.7745
-14.1136
7.313
32.5558
-14.9737
-11.5352
-33.8603
-14.5161
12.7108
-14.5554
-10.1257
19.3189
7.11964
5.47612
-12.718
34.4215
53.2518
31.1969
7.51549
-1.98326
-30.847
-18.3406
-1.81975
-32.6441
-38.1058
25.3813
30.9856
-1.74247
-18.7428
-6.91527
2.18893
-4.17318
-44.8681
-0.193047
51.1745
31.5236
-0.151471
-6.83008
-3.7516
6.45452
-20.1109
-37.4922
20.3752
38.8211
6.67845
-18.0087
-3.39994
-5.16203
-8.70562
-38.4392
13.6984
19.0101
26.1138
-5.42779
-27.2055
-38.4322
-44.0377
-26.3749
14.0948
29.5974
27.3144
44.9807
31.2161
-6.11234
-2.04219
0.780958
-22.7103
-24.5041
20.2955
29.4695
18.1848
1.18053
-14.4991
-10.2478
-4.34902
-48.2842
1.82695
70.5657
19.4736
-23.4642
-27.8851
-15.142
-10.4231
-33.2774
-44.1748
30.6888
80.1704
73.0741
26.5135
5.32615
-12.423
-15.3013
-36.5938
1.62617
5.98964
15.9993
15.8902
-9.90975
-25.0489
-38.5105
-52.1724
-12.4671
-9.00636
-2.06246
15.7705
-17.5066
-31.9375
-50.5539
-42.5495
14.1177
32.6641
17.9626
25.2508
10.6864
19.2008
22.8597
-19.5087
8.29977
44.3236
49.747
56.9023
15.3097
2.48347
7.09444
9.02418
-54.741
-57.4359
23.5598
20.2731
2.50234
-9.15548
-15.1532
-4.67506
-24.6836
-46.3975
25.5273
39.961
14.0495
-3.7628
-15.0542
-9.77093
-16.5792
-39.0409
-35.9019
37.4323
43.2152
19.631
-10.7542
-4.50071
-6.87081
-12.3385
-21.8723
-45.559
29.3075
27.7345
-19.1192
-9.7376
-12.3675
-12.0836
-19.5259
-43.6595
33.2135
89.834
70.7506
9.24939
6.54303
6.33985
-6.15024
-23.5718
-37.3003
2.35808
18.703
29.7404
-12.6879
-12.8786
-16.6884
-14.3939
-31.7399
-37.1345
26.4717
46.0997
2.19486
-13.5154
-15.8811
-24.583
-17.9665
-47.0866
-10.4024
38.5353
31.8887
12.9275
16.276
15.3877
-1.42927
-7.35895
13.1751
19.7328
21.3037
23.3466
10.6677
24.7664
-13.816
-65.3748
12.015
28.2274
28.5253
26.8962
-15.3702
-34.63
-53.451
-56.515
-1.93395
8.43039
-1.56524
8.9975
-6.65474
-6.06142
-8.49831
-35.5523
-25.5425
31.6122
15.1379
24.0511
-5.53168
-18.8031
-6.30998
17.7412
-10.8896
-20.4147
48.0622
31.5821
8.31763
15.4132
20.1142
17.037
-4.23747
-18.3132
-20.0449
28.3143
39.7886
-7.83433
-2.00017
10.459
-9.50243
-12.22
-29.3438
-28.6557
37.9075
21.3647
-11.3168
-11.0051
-26.2341
-32.705
-27.7836
-20.2528
23.8076
16.593
2.50678
-16.0861
-27.3763
-9.99068
-12.8483
-21.501
33.6813
25.6414
14.2102
14.2204
-5.98575
5.7673
-2.77237
-8.72858
-15.7502
-6.55103
20.3008
37.4866
15.8565
13.7001
13.9214
24.5583
8.58734
-7.87042
26.1873
23.7189
-21.934
-26.4147
-10.389
1.98481
-35.4296
-16.8673
7.70204
-6.17185
-3.11213
-2.83777
-18.2979
-30.8684
-42.0865
22.1154
28.6731
14.1813
3.6302
-5.28039
-21.455
-24.1083
-31.2316
5.12087
16.7184
22.4428
17.2298
10.6746
9.29546
11.3958
15.6011
12.6603
28.7048
25.11
9.24627
-17.9768
-7.68551
-12.2183
-16.4752
-37.3036
0.992112
19.9013
6.58267
-10.2758
-7.94987
-4.36799
5.56365
-8.70149
-52.7835
-18.8149
23.5289
18.0135
-6.07357
5.59175
28.871
21.463
2.89864
-29.2843
26.3991
25.033
-0.572734
7.43366
5.39537
-8.98865
-28.1871
-36.1055
15.6827
18.124
17.5943
19.037
3.5642
0.592611
-15.1285
-36.6185
-4.00752
5.44941
6.99434
13.708
-23.2049
-19.7342
-35.1362
-54.4765
10.9502
9.48607
5.99233
8.71653
-8.27575
-4.55535
7.09956
-11.7881
9.09924
43.7012
18.8344
16.2182
11.334
0.274548
-1.94736
12.4852
-5.4393
-16.7905
38.2934
61.9812
11.3202
-4.1674
4.71529
3.85682
-21.4843
-32.0298
4.05198
-2.18882
-39.499
-50.7699
-25.6328
3.59981
-11.997
-31.837
-2.34725
52.4671
43.569
35.7263
-12.0118
-20.3641
-20.5748
6.84817
13.3403
5.37889
28.2332
20.129
7.23802
8.19789
-16.0665
-33.4636
-37.5975
-30.7106
13.5242
25.045
4.06638
-16.8485
-14.2205
-10.6457
-27.7731
-41.8261
-27.2434
36.7826
44.5739
39.4236
19.1719
27.5481
16.6923
-2.34448
-15.0077
31.3346
47.6385
18.8099
-23.7649
-31.0465
-28.8607
-37.4493
-51.56
-1.11418
15.6976
35.0527
22.7692
-18.148
-23.9825
-38.53
-77.194
-18.6115
31.0538
38.0088
49.3055
17.5447
12.8788
34.6184
11.0795
24.0681
16.2652
-0.157294
8.8713
-1.75598
-3.61871
-4.4504
-31.4859
-5.49628
5.19112
7.38028
19.9883
-11.256
-41.1091
-22.1499
-16.6196
-31.6758
-32.2857
1.52932
10.4445
16.0403
32.0246
26.7373
13.9342
-5.63205
-32.5043
-15.7618
27.4544
-6.0557
-10.9453
-2.90268
-9.57306
-30.4126
-21.5463
-0.588527
3.48542
39.3334
33.3984
-5.93097
-11.8868
-16.3404
-19.3437
-30.7767
-50.8562
27.0815
85.2254
59.775
30.4196
6.60662
1.79659
5.00873
-0.582238
39.6973
23.5388
3.21484
4.15052
-12.7616
-15.1674
-24.8544
-33.7434
-24.1796
30.6698
13.9727
24.7881
-14.7634
-38.7725
-26.9894
-22.1389
-46.5326
-62.3525
-8.90615
58.8191
21.1555
8.59722
6.96625
-2.83661
-10.8959
-31.0479
-14.4414
16.7641
4.20831
-16.2738
5.95791
17.6791
2.79349
-13.3345
12.503
13.1745
19.829
36.4383
28.1435
10.9044
0.121364
-42.4187
-25.5458
28.3864
8.68423
18.6544
12.4907
-3.33201
-14.7884
-46.989
-4.08489
18.406
5.33443
15.883
3.81328
-4.64108
1.29396
-35.813
-45.0706
2.72087
-5.1053
25.6863
27.0134
5.99111
8.9191
0.608073
-30.1627
11.1827
44.7895
33.2034
2.57712
-3.75344
-5.75992
-14.5465
-42.7069
-45.7414
21.5574
45.5595
30.6751
-9.4272
-0.0837082
0.74885
-11.5237
-39.8377
-17.9759
16.4581
27.561
29.5288
20.1201
-0.557083
-38.0784
-88.2369
-46.6232
10.6058
19.0684
22.9737
-7.56255
7.09698
14.9808
-13.2497
-9.74027
1.73252
-9.94136
3.00581
14.4046
6.02043
13.5441
-30.9094
-44.0168
12.3211
33.7629
61.3995
35.4501
2.93534
-0.0943051
5.26115
-21.7325
-30.8431
18.477
27.5302
21.2087
8.9376
8.8813
6.23764
-7.85106
-22.1205
-15.0665
8.27043
-5.64517
-20.6146
-10.7131
8.65685
15.8745
-14.1679
5.60392
19.6743
17.4361
8.37438
-44.7555
-47.6382
-35.2823
-61.4076
-24.455
52.4054
55.9303
39.3626
14.2371
-11.0346
-6.16195
-2.70547
-13.4502
-33.6704
1.75541
6.70649
-3.26314
-13.5043
-5.18352
19.1227
25.4753
29.0752
45.8805
50.4275
13.4228
-44.1754
-47.8823
-27.3684
-12.2305
-53.7577
-38.5247
25.3051
39.7549
38.0716
-16.1555
-22.6289
-13.835
-13.2463
-21.2736
30.1546
15.7018
1.46506
-6.80559
16.4363
22.3574
0.70726
-10.9851
23.9646
16.5703
31.9084
21.1446
-19.5714
-18.7661
-22.0663
-20.3805
32.0027
29.6761
21.8135
18.7016
-18.7936
-31.007
-44.1732
-39.6649
23.1526
16.1675
6.26684
0.703417
-13.8775
-3.24212
-7.48133
-32.7148
14.8148
40.7462
33.9979
18.6777
-16.2535
-24.3943
-14.832
-20.9174
-46.6593
-35.3134
42.7536
33.49
0.694648
-6.51204
-13.2971
-5.37401
-23.1804
-41.2539
32.6028
52.5992
8.96617
-6.58158
-3.18958
1.21723
3.58212
-1.28347
-18.7808
30.0377
34.8157
30.0881
-7.03922
-2.14774
-6.32086
5.79381
-11.2564
-0.0619814
28.3827
30.3342
0.354274
-11.5092
-42.347
-46.8381
-52.7237
13.0779
8.10165
1.97129
10.966
-5.70285
0.828837
0.367667
-47.132
12.9364
41.1824
15.1337
6.70592
0.702596
-0.0453462
11.7287
-2.46198
-29.7545
-18.9084
14.3614
44.0256
-3.56972
-13.058
11.6857
28.9841
9.78193
-38.3164
-0.310139
46.8926
-13.3446
-48.9982
-28.1046
-4.11729
-3.20974
-21.7573
-4.54655
30.5502
35.9354
14.3886
-4.25626
-0.1757
-12.2387
-40.7113
5.27169
11.385
4.3656
33.9039
16.2708
-0.782499
-18.8243
-38.6821
12.0032
12.5059
10.4792
11.7055
4.30781
-19.0157
-4.80434
-21.1405
28.2595
25.8477
19.8777
19.8851
-15.4987
-15.8119
-9.80335
-36.6355
-78.4411
-33.8779
40.3815
55.9765
11.5174
15.496
8.91096
4.60656
-6.93132
-42.9024
-41.9074
15.8243
44.7339
22.0848
15.3312
25.9789
5.68338
-7.07617
-30.3041
5.6548
39.4924
5.76499
-32.5414
-33.7033
-36.7378
-29.1037
-41.5194
-22.8636
4.93569
6.89979
30.7233
26.6014
-13.9769
-7.5412
-22.3183
34.0121
44.1284
46.9954
51.8257
40.0784
19.297
-16.1955
-54.2688
-23.5296
12.869
-0.821535
4.38765
3.00457
-6.01059
6.58097
8.99232
-40.5263
-71.4015
-15.5264
29.4119
0.344589
-4.33082
-4.66471
5.30715
-13.6083
-38.9964
-4.71362
31.297
5.57778
-17.9949
4.792
22.7267
10.8491
-15.2812
21.9031
53.8414
57.7887
39.0837
7.73823
-7.32687
-16.3333
-55.7646
-61.9569
-5.16894
0.21664
11.0172
8.32104
-8.16257
-18.033
-18.6487
-46.354
-36.0678
40.0013
51.13
25.2794
-2.52449
2.8006
3.71016
-12.2776
-48.9974
-29.8518
43.5052
35.375
1.80957
12.1913
20.885
16.304
16.0824
-0.148184
-3.19019
34.5508
3.69495
-33.4183
-15.8172
-17.4903
-25.2465
-60.8439
-49.3738
33.9431
38.8054
13.6951
-14.3592
-4.91869
-1.24189
-11.3869
-4.66605
30.8822
15.418
10.9333
-3.98447
-11.8005
8.56468
-23.0121
-7.80267
25.4389
30.0384
53.3888
33.4297
-11.1452
-0.698824
-16.3498
-21.3705
17.0358
0.13281
0.470704
-6.55746
-33.5408
-29.4283
-20.9757
-3.47823
34.4594
6.60595
-4.59738
-15.4085
-18.6306
-13.1824
-16.8797
-45.8532
-0.459487
12.4666
31.4668
18.8193
-22.3725
-16.0878
-13.5058
-34.5985
-8.55741
40.8342
63.2103
54.2906
29.5727
40.5319
26.0358
5.85115
-28.3787
-53.2972
18.8909
25.2832
-24.2111
-21.1274
-10.8504
-6.17462
-13.6621
-34.3911
36.3811
40.0491
5.79637
-19.7943
-25.6353
-21.8603
-65.6118
-68.3149
19.9161
21.0054
10.4161
17.9905
-6.16636
13.0139
-1.43062
-36.4651
7.13039
68.4819
50.7483
47.9972
12.553
8.85776
-10.3086
-30.3645
-60.1365
-9.96775
29.1151
18.9283
-18.6814
-4.29503
4.64985
-17.5692
-61.427
6.00999
39.6079
44.9777
7.18491
-26.0062
-4.86773
2.98798
-40.1362
12.3502
34.491
28.2153
28.4675
-16.1737
-35.5483
-33.3418
-46.014
-6.19411
-13.8352
33.2458
74.3619
42.2021
-6.05694
-20.3413
-7.70548
2.49933
-4.29723
-7.28402
4.72897
-16.5272
-22.562
-21.1675
-35.9503
1.76639
32.0719
38.1453
30.6586
-0.330855
2.30569
-16.9473
-35.5608
-73.4924
-38.8334
23.5568
48.9124
33.7828
21.7902
13.297
5.93227
-3.53225
-39.064
-39.5912
52.1043
33.3241
2.30345
8.32147
5.89143
-7.78859
-23.9648
-30.7979
30.4713
32.5725
16.0845
5.24236
-28.1587
-51.4077
-59.4795
-44.1822
17.1237
30.0226
48.8543
50.4913
22.2208
6.64588
-24.8619
-21.5475
10.6125
9.24631
31.2495
34.4876
-15.2832
-17.1473
-17.1012
-27.1102
-40.5334
17.5644
10.9146
5.54871
-7.65428
-8.05001
-19.4185
-20.8893
-23.6509
-44.821
5.92876
25.4637
3.24815
10.9803
15.2723
14.4737
-15.8522
-13.1482
36.0034
64.5535
53.3933
2.17592
11.5269
29.4475
15.7205
-26.5742
-6.7374
-16.1813
-33.0357
-16.8269
-30.1367
-31.8475
-30.3772
-47.025
-35.9086
32.4988
54.5278
54.4807
10.7452
-21.043
-34.5351
-35.5165
-33.4991
-21.9438
12.6107
24.3508
14.3159
18.9238
19.8269
21.3469
22.217
5.29677
-7.74131
25.9447
42.6832
-2.25318
-7.07827
6.96459
-7.40328
-12.0094
-7.31591
-28.5232
11.2831
0.126878
-21.4205
-3.47913
-1.16837
3.64748
0.811826
-11.0318
14.3926
19.6381
7.67403
-1.20487
-5.85439
-15.5334
-37.6311
-27.9401
7.43236
6.20754
10.0392
13.6613
0.491053
7.98439
-19.4464
-6.20652
17.009
10.9902
4.57152
-1.74518
-14.1087
-7.5647
-30.3914
8.9112
18.4888
3.45999
2.36693
-6.51975
-22.4074
-3.38837
18.9517
5.2401
14.8894
42.6333
26.4561
6.30852
-13.6547
-7.67095
9.52498
19.9248
-20.757
-57.6413
26.6585
0.00574689
-9.89395
-0.604176
-3.61784
-7.26955
-22.4855
-30.3753
-13.0381
16.048
27.3436
-17.3671
-14.7618
-5.96769
-4.9497
-5.82565
-22.4964
-10.845
60.6876
65.9159
21.2585
0.718979
-6.56162
-6.14807
1.8443
-16.6599
6.43087
13.2531
6.24105
-5.52636
-11.5282
17.7696
26.1062
-13.7425
6.68951
20.9766
8.01054
-1.18707
-36.7201
-30.1656
-23.5431
-30.1794
-51.5019
-57.1355
18.7277
62.3424
26.5911
16.7878
7.62335
-1.40484
-13.0156
-41.8081
4.20139
55.4683
24.1333
-0.0157775
1.72662
-2.27848
-13.1121
-21.1749
14.906
33.082
22.3979
19.0783
-13.5955
-24.5023
-16.7984
-41.1418
-18.8504
34.0468
8.21942
-0.720155
-21.5103
-25.0276
-18.234
-35.0168
-11.4236
12.4116
20.1716
41.1091
8.00046
4.62632
22.0631
8.83678
-17.4964
17.8101
22.4123
38.7306
21.4885
-14.7688
-20.5089
-20.1278
-68.592
-34.1465
40.5528
76.6137
47.3103
11.8284
-8.53726
-11.8339
-19.8468
-29.5696
-42.878
-33.7362
-8.32265
0.2799
-7.7332
-13.1549
-13.9188
1.67695
19.0448
-1.97284
33.6246
44.8364
1.20982
-12.5216
-11.0931
-11.81
-18.6989
-33.98
6.81669
39.9092
30.3895
30.4044
22.6382
-7.97395
-4.48954
-17.6857
7.92917
3.81248
-1.12522
17.3465
11.701
-22.0182
-41.9526
-56.017
-66.4433
20.6349
42.9533
53.073
22.1915
-13.8067
3.03353
19.6748
3.1288
-27.9755
-29.8606
37.0249
23.5591
3.75834
-9.26657
-8.74423
-13.0583
-44.7021
-40.7533
19.6363
32.0399
-6.47653
-4.56737
12.7657
-1.61781
-36.1678
12.2107
34.3226
19.3353
8.19603
5.15411
-5.40679
-21.0784
-21.8461
3.05194
51.6043
37.3304
36.4785
18.9741
-20.1484
-24.5719
-59.3237
-36.5388
13.5978
8.47296
13.3209
-12.3367
-26.3892
-17.7348
7.27584
-1.70052
-40.8543
12.0947
12.7816
1.41495
-9.06851
-0.233248
6.25873
14.8489
-0.271583
-10.5942
33.6446
57.2929
17.9418
11.6059
16.0999
9.39165
-0.397889
-8.4076
-31.03
-23.3862
26.1055
-9.27512
-14.0111
-13.4681
-29.759
-16.8247
-19.3874
-1.74152
20.11
26.0884
1.3284
-31.7253
-31.2151
-15.457
-36.073
-0.907327
43.1245
28.7739
22.7876
21.7757
6.84144
-21.3555
-22.1334
34.7568
17.6335
9.30373
13.803
6.84689
-1.65817
9.73318
-6.44339
13.1135
18.3542
2.92794
17.8895
-11.7236
-34.8275
-29.0528
-36.8564
-12.9375
10.2833
11.0805
19.6494
-7.30811
-7.20333
-10.2596
-31.4681
-8.48218
9.91037
10.1417
0.647241
-31.8441
-30.7858
-12.062
-20.9594
-2.55822
31.315
39.6993
43.3681
27.8384
-4.59633
-9.46501
-19.2521
-47.0195
-36.4283
36.0992
58.5228
40.829
49.4457
64.8068
47.1855
-9.70795
-53.2612
-24.4537
-1.41354
-18.8293
-47.2992
-41.003
-19.816
-12.7565
-35.84
-6.22287
24.0388
24.08
22.5867
-10.2031
-3.72745
-13.1031
-50.2658
-65.5846
-13.3792
50.4696
49.9612
20.9833
25.3529
17.1934
-12.7847
-29.153
37.4575
29.9464
29.6255
11.0045
-2.41823
20.2749
9.87104
-4.90682
18.301
-14.0435
-13.5466
-7.49377
-27.5007
-39.7469
-48.2011
-36.8842
33.7042
27.2259
7.17627
17.6553
-15.1891
-19.1865
-28.8619
-16.1554
20.5953
7.23521
12.7354
3.43061
-18.4133
-7.87901
-12.2673
-54.7266
23.465
40.6174
41.877
24.8215
-6.79678
-7.68977
8.73353
12.7282
-32.7029
-20.5673
21.148
14.4764
-17.5579
-21.0347
-2.63388
22.6877
33.7134
25.2815
-3.93878
65.8403
43.1121
3.06718
-9.35778
-18.1262
-35.2658
-33.8281
-38.6596
-11.9905
33.2127
22.3065
2.25877
-11.2462
-14.5999
-14.9873
-54.0823
-56.4644
13.5495
7.28776
18.3436
2.56938
-31.6903
-26.8272
-40.0155
20.8777
24.3207
19.3671
26.9953
17.8673
10.2976
16.4319
-7.9764
-17.6239
33.9268
28.035
30.5616
3.99854
-32.9533
-8.13021
2.44389
-14.2998
-44.7829
-2.13018
34.3223
3.69214
8.66441
23.9006
38.2716
38.5745
-7.58867
5.55544
42.5426
24.8936
-21.7873
-31.7246
-29.4666
-28.8691
-57.8029
-54.3511
-8.72525
-6.3792
4.61268
0.249021
15.3357
0.693749
-34.4249
-30.0413
9.63055
3.34529
16.6695
-5.20386
-26.9879
-7.87494
-38.4875
-23.143
40.8931
45.7492
31.8375
41.2155
29.3148
24.1947
36.7825
20.8841
3.15428
40.7499
53.6456
34.879
-4.99291
-27.9151
-44.5258
-44.2042
-34.8068
-54.0146
-32.7091
38.1239
10.6265
5.79362
5.6665
-6.09193
-20.7548
-16.6984
-66.4095
-24.9961
43.6756
-3.93112
-18.9713
-26.69
-27.1445
-6.94198
-12.4827
5.36636
40.9659
54.8612
48.1377
2.45723
-7.51176
-1.97554
-30.4971
10.9655
38.3876
25.8637
28.9415
-2.10857
-24.5419
-41.2668
-39.7396
10.9007
35.4692
26.9738
33.5001
28.9141
4.70199
8.03212
8.13882
-32.3941
-47.4321
19.4401
32.7629
-14.3935
-38.3751
-22.2925
-2.44157
-8.27343
-35.6763
-46.8494
17.5377
3.99663
-6.71119
-5.79034
3.71249
2.01371
-48.6204
-49.8243
38.7465
80.8613
65.925
9.36025
10.1911
24.5988
12.6293
-21.9924
-11.4205
8.22599
-0.072845
4.52307
-29.1711
-33.7837
-38.8766
-28.1334
-21.1384
-30.7289
53.1905
36.1756
32.7564
36.7227
15.6757
-6.14569
4.75046
-32.6848
-49.0743
-18.1827
29.338
37.3659
-11.0783
-9.08845
5.21104
8.80598
10.6852
-26.322
-9.13461
60.2503
35.4464
17.7297
0.760119
1.61341
-3.7566
-39.8923
-56.4084
31.3656
37.4631
-9.10159
-51.8381
-48.9396
-43.1933
-32.2752
-5.24004
-7.43561
15.2431
39.1141
24.4667
-6.07247
-23.1299
-10.3086
-6.01074
-23.0451
10.7126
66.3375
59.0661
29.5121
21.8444
6.18746
3.25914
-9.84024
8.69699
18.4454
-2.13989
-7.37964
-24.9126
-28.1443
-10.0313
-27.757
-41.0688
-6.18898
36.5978
40.0319
10.1916
-19.6054
0.802299
1.90778
1.48543
-41.5659
-14.4571
30.0199
17.7184
6.60124
9.96705
11.2356
-0.51413
-34.8941
-34.562
-6.78067
3.30664
-15.3538
-19.994
9.66914
28.4185
15.6603
32.3976
34.8025
5.9938
9.55791
-23.6043
-40.6012
-42.1785
-68.9376
-24.4784
42.8037
32.6
42.2337
24.1633
-4.86049
-0.938942
-33.2534
-9.01899
52.2318
31.0076
9.81755
-6.02718
-17.2838
-12.4119
-10.0803
-45.411
-23.2219
34.4345
53.0333
17.9097
-13.3726
-0.855698
9.82018
11.1449
5.22349
-23.1729
-2.55644
-7.74305
0.453479
-1.75307
-5.03914
-12.8917
-23.1917
-19.5911
-6.79406
-0.0355642
6.37749
17.835
16.2898
-1.28194
-9.62482
4.2932
16.6135
-9.76412
-6.29389
33.1968
22.8911
-2.1667
-34.6453
-26.4891
-11.1683
-27.8493
8.9129
29.0993
22.8795
35.195
12.2571
-27.921
-35.203
-35.3429
15.2761
17.2176
5.27194
12.5479
0.235634
-9.64915
-1.70646
-11.7554
-45.2725
-32.3174
44.518
44.4469
14.0619
2.85675
7.55869
21.6701
2.61062
-38.9886
16.6959
37.9933
2.89262
-6.38205
-6.01699
-5.76941
-32.523
-19.8187
12.7903
10.7777
14.3069
20.3509
-5.14607
5.47339
-33.2358
-16.403
7.08022
-5.7346
-10.854
-3.91289
-17.9082
-16.2373
-44.8848
-53.9487
-21.1412
68.729
72.0855
37.496
13.8259
20.846
24.819
2.61743
-44.6291
-35.8498
23.0092
-0.507897
-15.3559
-5.41344
7.39347
13.8929
-3.10114
-28.92
-12.2217
48.9664
36.7559
-13.2505
-8.45944
-15.5888
-19.4818
-12.6603
-24.3253
-6.54282
16.7357
16.786
11.0392
12.3222
10.7581
18.7238
-4.36129
-28.6842
26.2628
33.1569
15.4777
-15.9794
-21.0759
-29.3841
-32.5613
-16.3607
11.8484
-2.78585
7.23976
-7.8049
-16.4793
-2.26054
-20.9881
13.9949
15.5207
-2.9741
5.593
27.5269
-5.25693
-11.9504
-45.6126
-17.9837
57.8599
48.7605
29.813
17.4946
-7.75207
-7.33538
-2.89083
-19.7176
-46.2333
2.00391
7.98924
-8.88041
-5.54303
2.11462
3.99695
5.15704
-24.4586
9.12985
63.8313
31.4871
-12.9736
-20.9933
-4.9211
-5.63991
-26.4407
-34.6037
-21.3053
43.9786
30.0398
-9.88762
-10.6526
-13.7728
-9.9866
-6.64587
-17.612
32.9333
40.1849
17.8261
-7.48296
-23.3159
-30.0247
-23.4574
-17.234
44.019
43.0248
45.994
16.738
-24.1362
-22.6742
-44.3775
-52.0331
-6.16929
34.1355
28.7558
33.8726
11.0913
-6.90162
-14.01
-18.2277
-45.4125
-62.9335
23.107
37.032
0.167755
2.03403
5.0959
5.47824
-17.1827
-29.9106
35.238
43.3973
16.8443
-1.89098
5.36161
17.1611
-26.0323
-23.7408
52.1196
43.5913
32.8836
4.75362
-54.5153
-49.5864
-59.7959
-55.2834
-11.3978
2.20663
13.6004
54.5676
45.3049
40.3672
4.00923
-22.4567
14.9844
7.58046
1.7037
2.06039
-33.4926
-23.5405
-20.4681
-28.531
4.89369
36.0499
25.8975
22.9415
-1.3562
-6.51404
-12.45
-15.1858
-54.6716
-20.1937
19.0928
10.8169
-7.44314
-7.44022
-3.34815
-2.44338
-7.73881
-39.5619
-2.59605
78.7181
28.7656
1.28165
1.1117
10.9763
6.41125
-15.6795
4.31836
41.2387
31.2451
4.23974
-12.87
-4.29461
-16.706
-34.8546
-12.9771
13.8524
-3.54139
22.5503
28.4023
3.00721
-9.82252
-33.8339
-0.692949
17.7781
0.655734
5.76234
-5.74995
-28.401
-33.9774
-83.8605
-58.175
40.3905
49.5885
43.2398
27.4403
5.32527
4.84719
10.5997
-11.7823
-61.1693
-54.7052
30.6359
15.184
-18.3137
-23.9556
5.07158
26.8081
-6.79517
-1.54438
108.458
99.2059
39.6885
8.02707
1.65651
-27.5705
-83.0796
-57.2942
21.4063
17.5356
14.2557
9.79016
-19.7852
-16.7549
-22.3002
4.48776
22.4801
3.88724
10.1926
9.69807
-31.3207
-45.0904
-80.2904
-80.3309
3.32646
45.2498
47.4682
26.8706
-10.2274
-2.79098
13.4868
-14.4074
-46.1049
38.7994
59.4127
32.2076
3.20867
0.12854
9.59938
12.0514
-36.9422
-49.861
17.1502
40.7969
4.38036
-4.46313
26.044
25.1005
3.8668
-5.92824
12.9229
51.1257
31.5752
-31.2378
-37.1017
-24.0403
-25.1863
-53.5072
-41.402
6.16336
17.9773
21.4245
-12.9102
-8.09543
-16.6164
-31.6882
19.4812
18.353
8.46958
28.4208
17.7835
-6.16266
-8.84672
-36.302
-3.13033
-8.35957
7.78327
24.0348
16.3012
-4.58506
-7.56321
-28.5496
-38.7206
-0.707136
58.8622
49.4024
10.5134
-6.42693
-14.1696
-12.7443
-31.314
-22.5808
45.594
39.3147
16.9985
13.0055
-8.86533
-15.1008
-35.7315
-13.7694
26.2832
28.2854
11.1039
-21.9597
-50.2897
-36.5494
-55.7392
-23.3249
9.00683
66.9735
72.5543
74.9672
31.2315
0.8497
-22.0586
-41.6923
-55.1651
17.5162
17.9261
-6.31374
-13.5808
-2.47739
-2.7013
-25.1377
-45.2371
25.1776
29.6019
3.44409
-20.2312
-48.7448
-24.3985
-42.0514
-40.437
34.702
38.7751
38.2885
42.7018
13.8812
19.3407
7.14014
-6.31004
-26.2148
-48.1114
43.0764
76.9489
24.186
12.3346
15.2616
12.9629
-16.5124
-55.6177
-30.5278
-5.69701
-29.9166
-23.8188
-5.88538
0.900194
-16.4722
-25.8133
6.12202
22.704
30.313
45.9277
0.231833
-20.5576
-27.3623
-17.6654
20.5148
15.5186
8.09264
23.9365
17.3437
2.60022
-26.4693
-27.945
19.4534
12.9851
0.324964
11.2538
-7.79879
-14.5514
-15.8477
-44.3107
-12.7926
42.9107
30.8796
23.2264
-3.26265
-5.51871
-6.16476
-4.03659
-30.3698
-28.8564
15.0059
41.7321
5.23814
6.43554
3.20127
-16.6974
-35.6985
-38.7332
-54.269
35.9517
50.2574
-6.83945
1.57701
17.1791
11.1564
7.35885
-22.5114
7.42008
37.6752
18.5887
1.15346
-15.7395
-20.4827
-26.4707
-37.5808
32.159
41.7104
20.8572
33.1219
9.2321
-28.354
-36.5784
-59.5441
-6.33231
3.71303
-1.74792
8.96819
-8.6223
-10.3846
-0.561971
-3.18926
-33.448
7.45755
73.5533
68.4274
23.8145
6.11466
18.7838
35.1498
-17.5955
-68.0524
-26.7913
15.1549
-19.5122
-26.9601
-11.5276
4.37585
10.5712
-19.5511
13.8982
32.7583
42.8722
11.0483
-18.256
-17.8151
-35.8488
-50.8976
-12.8174
-7.75888
6.90667
12.32
-3.53237
-0.659338
-23.8199
-6.30893
22.5719
8.90252
2.82422
7.08993
-12.2466
-13.2945
-14.1892
-28.6263
16.0464
48.2105
24.7869
27.6905
9.37765
9.85563
17.8331
17.0824
-30.3888
-15.9618
51.11
17.1575
-7.81887
-0.737599
-4.62952
3.99262
-16.4019
-63.7005
-13.6213
44.3525
9.69028
-16.8154
-9.16673
2.02225
-8.02156
-8.66279
-23.3389
-7.88308
51.1988
24.1771
-17.8684
-6.74338
-6.58918
-2.28884
-19.1592
-5.65688
18.2747
14.0195
-12.9357
-31.1642
-42.1677
-33.4215
-29.7112
21.3116
46.6345
25.9908
19.9469
12.445
-1.34833
4.41569
-26.1477
-14.2597
30.988
19.4555
22.1131
19.1772
-2.97084
4.29803
-2.82592
-39.4772
-15.6309
13.6471
36.4093
9.01612
-11.7737
-2.29896
12.842
5.36361
-31.461
-19.1594
17.0445
-1.01763
-32.033
-22.9355
-16.8901
-11.4676
-19.7309
14.2142
29.1531
24.5761
8.75131
14.9422
28.7471
11.4113
-34.6423
-17.473
17.1675
7.24021
4.92331
2.86934
-0.552137
2.66186
-13.6152
-36.025
-6.94898
34.2184
41.3727
16.0955
-4.04036
-3.16714
-16.9403
-50.9097
-76.9961
-29.4342
39.9454
27.7807
5.97818
4.42079
6.6381
1.40529
-4.36388
-24.7492
-1.11253
45.4791
37.9543
9.26475
1.67748
-6.09554
-26.5169
-62.8198
-12.2021
45.0621
47.2935
15.6364
-7.32854
-4.23311
0.534681
-7.77243
23.1224
24.0929
8.118
16.0392
-0.799114
-10.2539
-21.5081
-43.7225
-22.5361
-0.557027
6.68338
33.7819
1.09922
-30.9852
-26.1251
-37.5619
-17.1791
15.1089
2.60012
6.77644
-4.33218
-3.62039
-4.80341
-28.2982
19.179
45.5126
28.8437
22.7451
12.469
4.03874
7.12037
14.3309
-22.8158
-10.2657
34.6372
35.0877
14.5613
-2.48632
-18.6299
-33.0567
-49.2817
-84.8731
-11.2577
86.4471
42.3453
-0.691448
-6.84866
-10.8791
-25.4072
-32.745
-33.7354
-9.7323
27.8746
13.2137
16.8345
34.7271
22.3566
-0.590509
-22.6032
8.98166
45.5942
45.2907
2.87112
-34.7926
-43.0137
-63.4397
-80.3894
1.39181
24.6188
17.0371
21.1576
9.82441
0.296369
-2.50433
-42.2101
-26.8707
22.7885
21.8487
46.7266
46.0672
15.8441
18.3098
-4.30096
-29.9203
-52.4219
14.6876
79.1421
17.9446
-4.06944
-1.88064
-2.5226
-10.7514
-59.3673
-38.303
31.3814
1.46131
-23.5234
-7.53873
11.9277
9.54023
-14.6593
21.7187
49.4239
30.0049
20.9563
-2.87782
-21.2152
-39.5146
-65.3238
-20.5405
-0.789713
2.69759
25.3223
14.9918
-14.293
-31.3678
-70.7744
-10.947
25.6261
14.0699
14.4061
2.18266
-6.16087
13.1971
4.02438
-26.7954
30.5766
44.9098
64.439
37.5266
24.3227
15.9426
18.4556
-12.1478
-43.2489
9.9886
17.9269
-21.331
-42.8988
-32.2563
-16.9369
-15.6764
-37.6031
-58.5628
2.11963
61.1121
36.4426
18.5627
8.63508
-6.87059
-5.47599
-5.93783
-32.8541
7.83157
46.0042
11.9773
5.36976
-20.9811
-23.5624
-14.0509
-27.1632
-1.22668
20.5339
42.0634
38.0666
8.83992
-29.7191
-37.5566
-59.2321
0.697433
20.6016
14.0921
27.8544
5.06464
-18.616
-20.0103
-38.9334
14.442
37.4119
38.4053
43.1658
21.2032
8.74522
-0.795391
-20.8907
-55.5871
-53.3083
4.06834
28.3695
-10.2756
-18.9173
-5.2322
12.7221
7.81922
-15.2945
26.1508
33.4903
-7.09008
-16.5586
-9.47439
4.99861
-21.4367
-37.3294
37.5524
25.0381
25.9385
19.1811
-3.83769
-0.305318
-21.7677
-48.5461
14.6271
40.5423
22.5422
12.1518
-10.5914
13.7934
8.28821
-10.3474
-48.7346
-34.6292
48.8853
47.2315
-4.0903
-7.71459
-3.82116
-4.16278
-32.6064
-65.4749
-1.57344
38.668
-4.16738
-17.1401
-1.92108
1.74921
-18.0061
-13.5848
-27.4781
-27.9317
24.9403
17.6105
-8.20044
4.40655
-0.618935
6.66422
-8.50515
-11.4132
43.9589
65.767
30.6983
13.5966
-4.45565
-15.4501
-38.071
-10.384
27.913
23.2915
24.4627
21.0305
14.5384
18.4863
-22.4887
-27.0045
-0.272636
-1.81256
7.26113
8.02124
-13.2465
-1.27139
-35.6981
-42.2806
-2.66404
-7.42034
-0.56299
-14.151
-24.0481
-15.9606
-35.419
-47.9757
12.2339
61.5578
37.2386
16.5852
-2.86961
4.23493
8.1573
0.689418
-26.1115
3.88335
34.693
19.763
2.10408
1.68316
-0.308507
-4.03741
-30.6849
-25.7593
63.7441
53.2153
-9.82023
-22.1636
24.6489
41.5349
17.4459
-43.2117
-45.7424
16.2006
24.7494
-6.30804
-28.3093
-18.224
-26.473
-33.9696
-32.0548
7.28695
7.81296
3.64079
-25.4295
-3.71234
-0.9001
-27.932
-49.1617
3.84415
7.5022
27.0728
29.7545
1.27834
7.78562
20.8554
5.53496
3.30762
52.3916
78.2656
54.5768
15.2266
10.1838
11.8108
-2.81856
-19.2611
-38.2562
-11.826
-15.5635
-42.349
-35.1544
-6.35536
3.20788
-26.791
-10.0194
7.53305
8.11513
20.9604
-12.8754
-20.0529
-3.96638
-43.5414
-16.91
34.3326
15.2373
16.5291
24.6678
-0.0627431
7.93547
-27.3113
-25.2327
27.0797
15.472
10.0737
0.0958028
-0.87639
7.47574
-20.9895
-6.7081
9.07288
14.1734
24.7774
2.25478
-19.712
-12.8415
-31.1728
-32.2145
20.2204
29.7188
25.3073
16.6058
-5.153
1.70542
4.29986
-13.2983
-52.9164
5.09568
34.6307
3.8892
-10.3911
-6.1961
8.45033
7.83941
-5.40512
-10.6751
0.392247
27.3405
-10.5159
-12.3312
-4.62949
-4.91467
-5.55864
-16.9536
-23.2024
30.0713
45.9256
8.56545
1.71741
-4.81272
-13.141
-26.9355
-23.6878
24.3594
8.42252
6.32773
15.9791
4.14343
-4.96887
-27.1603
-15.6293
19.3871
5.65242
16.5946
22.73
-6.74688
-2.53867
-28.3913
-68.3056
-5.94523
44.7406
41.6695
36.1285
-1.2044
-10.836
-2.98446
-1.94352
-39.7758
-3.6686
13.305
11.4582
-6.16265
-3.74739
7.79703
6.66287
-27.3812
8.80233
12.6643
32.1856
-7.11548
-36.5351
-28.6645
-54.1609
-67.1329
17.7967
49.8407
42.674
42.1952
-1.44776
-0.858535
-1.03617
-46.5693
-2.31665
57.3331
39.7668
34.4096
11.9139
5.40352
9.0307
-11.9674
-30.0391
-36.6621
13.1592
14.8388
-23.1379
-37.6198
-22.1961
-7.24676
-10.6287
-36.4993
-38.6437
13.865
43.8869
27.3517
16.5872
15.1294
5.16032
7.25592
4.13534
-25.141
-11.0113
35.2956
23.9127
21.9658
-2.3401
-9.8104
-8.81496
-34.0235
-11.1675
39.8691
33.4624
19.1043
-26.7665
-50.5478
-32.4338
-41.9873
-4.52935
11.3265
10.9216
23.3213
17.9934
9.22486
1.91335
-9.69231
27.2462
17.2231
-4.00278
0.491931
-19.0027
-23.7177
-29.5296
-18.3161
19.1941
-2.55554
3.76385
16.1194
-4.30693
-7.67305
-2.65005
-27.4005
-52.1851
-3.12745
61.0627
41.8716
8.06897
10.7032
17.7675
28.8198
1.59564
-24.1177
44.3705
37.0083
-5.23036
-10.9063
-5.72744
-1.01021
-30.4049
-49.4346
0.398427
31.688
29.5917
-12.0155
-43.7758
-29.9206
-31.2243
-18.6112
-25.0999
-19.9831
47.4185
42.322
6.91844
-0.762399
-11.5152
-12.0994
-32.6822
-40.4861
16.5861
52.7684
27.486
25.524
30.852
2.90142
-16.9094
-27.4709
-25.2701
8.35108
17.455
15.2387
0.609019
1.48332
-21.6624
-31.4048
-39.488
-53.7453
37.0059
116.593
57.9294
22.253
4.73414
-2.1304
-21.0947
-70.4534
-23.7647
32.6752
8.51727
-22.1527
2.88876
30.7501
11.9347
1.45886
14.2804
75.8933
56.845
32.8609
-40.6326
-104.702
-102.203
-85.7741
-36.7542
2.62766
31.491
63.5451
18.4908
-22.9589
-51.8382
-90.4578
-17.2476
29.7188
12.8523
9.23207
6.52613
-15.7498
-4.52503
5.59349
33.9865
57.0662
54.359
46.5019
26.3792
8.12561
0.351493
-4.87401
-34.1628
-12.8829
66.1008
76.7358
14.3937
-25.0539
-23.7994
-15.0061
-17.2127
-45.297
-40.3637
-27.3333
28.0052
22.0783
9.81078
2.96458
-15.4017
-24.6745
-28.7568
-40.3174
11.129
17.9555
-0.587199
1.89779
-8.70309
-15.012
-30.1507
-11.5664
48.0157
33.6584
19.6981
27.9496
-10.1521
-23.5818
-30.1509
-43.7132
-0.296079
22.044
22.2716
42.7007
26.8039
20.9628
-0.0374263
-23.2957
1.72577
29.5164
14.6808
3.25125
-30.5571
-18.9794
-3.91451
10.0687
-24.1769
-42.4841
36.1779
40.2731
-9.15009
-30.6392
-30.3096
-16.8691
-31.3101
-33.7384
22.0763
39.548
27.647
0.00342187
0.361888
4.65437
-14.8495
5.84246
43.7775
25.9565
15.9734
14.1179
-28.8842
-23.7378
-56.0598
-56.1511
-40.8225
-28.0498
-1.15942
9.8629
-8.3101
23.9451
20.7163
46.2096
40.7533
40.8612
26.4001
13.5483
-11.4129
-7.68895
-2.19406
-8.10428
-5.67324
32.3813
36.7779
29.5693
22.9458
11.9648
6.74238
9.59896
-20.8943
-47.9343
-29.8696
-22.7458
-25.6856
-28.4513
-18.4884
-41.3494
-67.9468
-47.422
-27.3748
35.4655
28.7799
20.1537
34.3601
34.9037
28.5239
3.04768
8.08298
26.5265
5.99893
15.4425
-0.782581
-27.3662
-13.2535
-21.7965
14.8704
22.8898
19.2996
12.1168
1.24355
-18.7779
-25.5369
-57.1076
21.3118
25.84
18.2242
23.2553
0.279098
-26.0333
-28.2176
-49.0528
-43.8332
13.081
20.7874
31.0378
16.0131
24.185
28.3346
17.8916
-9.91679
-44.1834
25.0457
34.5463
-17.0087
-24.2125
-11.0328
7.62864
4.21804
-16.147
33.5943
41.7079
23.6768
-27.1674
-30.3537
-16.897
-37.1542
-35.0157
14.8413
20.5845
28.2701
30.0076
-14.1924
-10.9959
-20.4308
-18.7402
-25.9029
27.8238
33.6084
23.979
-6.92554
1.41809
3.51051
-20.7657
-20.9115
10.6889
19.7159
13.7912
-14.892
-18.4453
-0.820027
7.75818
-18.0377
3.6112
11.382
-1.27844
5.91138
-8.46198
-9.28257
-2.58189
-6.77466
-28.4917
21.3537
23.3164
24.1056
-1.42927
-6.14456
1.70914
-7.88457
-27.6064
-1.99737
43.2121
32.967
13.9084
1.46644
3.13859
-3.92453
-48.1897
-7.15886
9.7524
-4.43769
8.90955
-21.55
-15.4338
1.70436
-23.0662
15.7843
12.7997
2.44807
18.8289
1.20877
-25.7135
-34.8858
-50.1304
0.534505
24.1769
18.3853
27.5225
8.2819
3.95637
-0.795963
-23.4649
-9.90312
27.0203
13.3051
17.2412
-1.73151
-2.91665
1.30709
-0.126779
-27.2672
-45.9019
10.435
39.615
8.58305
5.47474
16.2187
10.8895
-1.63442
-1.83196
-33.7874
-7.06348
34.2431
20.3411
7.92349
2.9061
-14.8686
-13.8003
-13.2167
-23.5018
10.4117
37.2392
10.8209
7.63883
-4.44518
-8.63001
-9.69942
-28.1558
-27.4236
-4.76351
6.62552
13.825
-16.5956
-26.7337
-10.244
-16.121
5.27722
16.5536
12.9432
31.4062
28.8884
13.9673
9.56849
-8.03648
-10.4168
-27.7293
2.64472
19.5722
9.99446
-5.28419
10.0997
13.8159
-8.5545
-47.6336
-12.5573
36.312
8.55499
-1.61651
5.46367
3.93827
-12.2411
-35.426
-8.47345
-4.442
-4.44515
10.0609
1.42332
5.67952
-17.6783
-23.4936
49.0555
39.0515
16.842
18.7726
6.27985
-5.31649
-23.7321
-24.1383
17.0217
6.38104
4.28667
7.95141
-8.54234
-4.73292
-37.4117
-39.7924
6.21964
21.9223
37.4928
24.7439
-15.2501
-19.34
-27.6898
-20.1749
-47.2784
-24.2995
29.9922
21.5236
1.87091
7.8651
8.49016
17.6997
-3.16864
-37.7898
38.4677
58.5624
6.87911
-20.018
-20.3967
-6.19994
-7.62695
5.18428
-7.64269
9.85937
41.4689
9.12768
-9.97336
-5.11749
-18.0541
-14.1368
-33.4055
-20.0907
44.4463
56.2228
20.2357
2.68209
-9.70892
-6.41691
-18.9917
-7.75485
-0.111706
-3.53023
8.75495
-1.20688
-12.3089
-14.4136
-31.5078
-1.75658
-4.70211
-7.96265
10.0686
8.42235
-21.7772
-6.04285
-30.0089
-44.3233
-0.288456
53.7583
47.8315
25.6662
2.88204
3.147
8.92401
8.13677
-14.9935
-1.63756
22.9288
-2.28324
-4.35762
1.78032
12.1491
6.60539
-45.9725
10.104
26.3364
18.8604
-2.47475
-24.3508
-9.94145
-13.8448
-33.6681
-27.4647
-2.4517
42.5172
35.5724
12.9847
-8.91128
-18.2932
-17.7942
-19.5793
-42.9961
6.73185
51.3874
25.7913
14.4145
13.1008
-8.48038
-31.5225
-66.8733
-11.32
44.2369
23.3233
16.3075
-4.79565
8.53807
9.61228
4.82395
-19.1103
0.552689
20.242
58.1055
19.4809
-3.36029
-25.7
-26.5492
-19.3915
-46.3922
-14.0829
37.0098
13.0172
-4.88182
0.39065
-11.8998
-30.1148
-35.3603
6.2079
13.4538
25.0533
7.62463
-6.03899
-10.554
-22.4579
-32.5978
11.6138
38.5653
29.1926
34.3661
8.63424
7.94237
-12.8367
-36.6026
21.8568
6.31829
-2.88415
6.60049
-9.67646
-6.09859
0.72022
-36.4385
-9.63705
40.9993
21.5479
20.9508
-6.41449
-19.6436
-10.2422
-3.43762
-28.1465
-39.3906
-7.15743
57.7738
18.3209
9.65449
3.18133
6.70086
-7.0836
-35.5464
-35.78
50.0071
50.1285
-4.76074
-1.38595
-0.256089
-10.5127
-15.4004
-17.9304
-16.9624
25.5731
30.0336
10.2297
-24.583
-28.6526
-19.9374
-26.7635
-27.762
12.1598
27.7674
30.8948
2.43094
-12.6306
-14.4382
-22.676
9.60213
22.6912
9.77342
17.8318
26.1453
2.05686
-7.01806
-44.6433
-51.191
4.6086
10.2495
13.1055
13.04
0.350493
15.9883
16.7417
-31.7486
-5.22035
21.4892
58.7042
29.8933
3.56441
0.0725343
1.3502
-1.68264
-30.2744
-35.5073
21.0983
19.6108
-17.3826
-10.2773
2.94186
8.73176
-16.187
-23.9578
26.8654
30.8123
-9.22363
-31.0834
-31.8879
-23.2735
-29.956
-24.9142
2.5425
6.48704
19.0034
34.6855
25.1125
9.74929
-24.0718
-20.5029
20.1524
3.61905
2.2702
9.47565
-12.4205
4.11263
-21.7506
-11.9846
31.6102
18.019
12.7777
5.16362
-15.8329
-11.6396
-4.71613
-24.1079
-23.6657
1.60267
44.2657
30.1874
3.47174
13.2545
7.42821
7.82157
-22.0249
-45.4629
20.4505
44.3942
9.94348
-3.36804
-5.03051
-1.27231
-3.95765
-7.49694
-17.8739
24.2786
13.6376
-7.14099
-14.5617
-9.27075
-17.8366
-15.3739
-27.6396
10.8619
13.7235
19.4937
-8.41751
-29.1729
-29.7326
-24.7073
-38.0704
1.19077
42.8608
17.9247
17.8603
11.4038
0.224712
1.32559
-17.1924
4.80056
21.3549
17.5889
21.6245
2.6857
7.16694
15.4658
1.16046
-29.7573
-1.81384
11.3272
25.9174
13.3879
-8.37896
10.8139
2.89047
-3.06503
30.1784
2.24189
-23.1175
-39.3104
-34.2247
-19.1216
-25.9022
-25.3844
22.6183
25.5858
17.7718
15.372
-13.5944
-10.9784
-20.8701
-41.5421
-17.9354
3.6511
31.5192
24.8681
0.385066
6.40606
19.264
21.0246
-10.1772
-17.1945
46.3287
25.1012
-22.0498
-22.1112
-11.0549
0.255158
-13.4671
-16.7578
29.6797
37.4916
11.4309
-1.3747
-8.6445
-13.3605
-27.4161
-47.3991
-11.7296
20.4926
18.0401
24.3506
-5.71374
-11.5267
-12.9672
-33.3165
1.42952
60.0568
34.1001
25.0002
2.17283
-2.28897
-8.13546
-29.1914
-26.1862
0.188293
-9.33619
3.61368
-6.86084
-24.044
-15.0174
-31.3961
-3.78424
36.7518
35.7334
50.9082
22.4431
-19.5995
-22.9976
-28.8398
18.1466
0.885977
-28.6803
-28.4151
-8.86784
-8.62319
-3.17785
-1.06773
38.7285
29.8202
22.2877
28.2118
5.75878
-17.9065
-24.4278
-45.8535
-30.5719
22.3311
51.8948
45.6858
7.51665
9.97298
14.721
10.7347
-34.8547
3.51297
44.6669
34.0433
1.50131
-14.3019
-17.1261
-22.509
-41.3921
-65.3397
-38.4157
3.83692
-1.08191
-30.5388
-35.8325
-16.2044
-17.7514
-9.40739
30.4531
46.9858
53.1491
8.38
-20.9834
-4.57309
-30.4636
-43.4032
22.8808
31.5091
38.549
47.8932
34.9584
30.5676
-5.66738
-35.4933
12.9058
11.4421
2.04628
5.04674
-10.0845
-10.9896
-16.185
-32.7779
-10.7742
33.9745
27.0868
9.6746
-25.9944
-31.392
-51.1426
-45.3139
-19.1574
38.6624
37.739
19.5249
-9.99842
0.61544
5.46321
-2.02416
-11.503
32.2581
35.8067
21.0342
-5.19315
-21.0492
-15.7925
-23.6277
-32.1461
33.9457
34.2686
35.3762
24.3764
-7.2878
-4.18537
-14.0606
-22.094
5.19817
-15.1659
-16.9161
-27.267
-60.4236
-42.5005
-36.1932
-40.0924
20.8792
53.3769
57.984
51.4805
16.3915
15.7849
15.1946
-10.7761
-36.4116
-2.78115
28.215
25.0688
4.07288
5.92666
6.47812
6.04092
5.70073
-25.6478
-7.75214
51.6068
-8.46266
-28.3412
-11.8611
-14.5973
-32.3113
-46.3821
-40.426
28.6181
21.6603
6.01519
-8.7335
-17.7726
-16.5462
-20.6224
-13.0548
38.6754
38.7486
49.8467
39.444
0.369483
-14.5381
-31.8955
-33.2092
22.2122
8.08502
21.9302
26.4046
-8.51646
-4.57274
-18.239
-20.5977
10.9909
9.22243
12.1999
5.79043
-13.8744
-16.5432
0.551676
-35.5704
-53.9374
9.69185
43.8613
27.3612
-8.97636
0.985179
15.8379
5.94798
-24.7315
22.6539
21.7107
12.126
-9.25223
-9.33118
-0.0686117
-18.6486
-57.7041
-2.1704
10.0366
30.9181
30.7147
-6.61054
-14.0093
-11.5126
-37.5732
-32.5187
27.5025
62.1829
38.1333
4.75168
-1.77948
-3.90757
-9.49437
-25.9514
-5.97408
37.0258
32.7322
-7.9729
-15.6433
-18.7008
-22.4534
-39.3214
-51.2866
26.8895
42.4195
32.8781
-7.70682
-29.6086
-16.2271
-23.3088
-13.1574
-29.5656
-8.46399
51.9015
24.0461
8.4271
21.4847
7.76503
6.40874
-10.3433
0.524803
31.5344
25.5752
-2.39963
-6.54682
3.00474
-3.4671
-29.9886
-1.85906
-1.96469
-5.3544
11.3465
4.3512
-27.0019
-32.3853
-59.8451
12.0519
28.7913
22.2419
33.0884
25.1919
1.02835
3.44888
-27.2209
-4.32413
8.74647
-6.84491
-3.75629
-12.8771
-7.40593
11.5806
0.738857
-13.7658
20.1071
27.5734
37.1509
-0.129909
-18.1312
-14.698
-12.6248
-44.1404
-38.5353
33.3731
29.5524
3.07248
2.33191
6.51167
4.66634
-27.2282
-20.5776
13.1204
24.2382
14.5275
-14.2674
-7.31816
5.09034
-6.62439
-19.7269
-30.3012
27.8404
37.2554
14.9686
-21.4231
-3.52815
2.06974
-24.5527
-24.2139
35.0652
40.6041
19.4717
-12.5408
-20.3096
-20.2713
-32.0111
-26.9083
28.4955
25.5374
30.2311
29.6793
-10.4922
-18.941
-18.6544
-57.3002
-6.32331
27.7245
22.0314
4.76947
-16.6764
3.03396
6.45157
6.92712
12.7112
3.61174
10.4467
32.2573
-7.80269
-19.5582
-10.7689
3.05346
3.8088
3.11683
-0.167299
27.6516
-0.0961125
-25.57
-15.9086
-8.65373
-15.6396
-19.2952
-8.09471
19.7102
14.2265
12.1156
-4.85038
-11.8231
-4.25852
-16.0132
-23.4165
24.1677
16.223
23.1048
21.2824
11.1492
-2.35226
-32.7441
-17.5263
31.3057
10.2116
8.26756
1.15337
-19.5933
-8.79349
-11.0761
-29.1822
0.687406
7.56635
9.26029
3.24738
-22.2209
-15.5831
4.81169
8.57703
-18.5933
-45.6785
16.743
63.7128
14.5183
4.69345
6.16906
-0.47494
-9.64659
-10.8573
-19.6444
29.2751
48.0006
18.928
12.7396
8.9803
-5.28303
-9.32095
-30.7443
3.10851
13.6164
17.5573
-11.8722
-40.3819
-30.2702
-14.4416
-25.8846
4.21722
7.01152
8.54609
25.4074
5.50488
-32.7562
-41.3653
-44.8215
-0.143794
15.8785
19.0926
38.7772
18.95
21.2815
25.0048
7.18768
-31.2417
-21.1284
25.7386
30.252
13.3776
3.61163
5.67304
8.87444
1.9173
-25.2837
-11.8374
40.1219
11.2455
-8.55227
-9.60704
-11.9593
-22.3146
-39.6368
-19.3895
19.0282
18.806
0.0590575
-28.2066
-11.0121
-11.8739
-24.5854
-24.5619
37.2185
26.5853
20.4524
15.9189
-5.33997
-10.2287
-18.5087
-26.7233
-0.673635
19.6436
24.932
17.2466
-4.43198
7.60335
10.2484
-12.3806
-46.2164
-12.3513
49.8702
52.3722
3.91552
-0.376785
-2.76724
-4.56608
-13.1944
-24.9228
-1.88137
19.184
-0.109556
-9.97607
1.81049
-2.14271
-11.4248
-16.2385
-31.5115
10.3193
30.3208
3.27328
-17.5008
-12.2335
-11.8841
-7.36998
-11.7057
11.1098
14.5919
10.6038
0.200609
3.34088
16.1034
-2.37562
-24.9439
34.6447
19.2113
13.4054
22.4132
2.15163
8.51735
-15.2294
-52.528
9.18735
-5.08418
-4.53906
0.155629
-9.82444
-6.82788
-11.6403
-40.002
32.3474
37.9861
17.3248
21.9342
-11.7919
-8.44015
1.48053
-5.28395
-28.408
9.44392
33.9962
20.9154
-25.5609
-25.0427
-15.931
-9.71088
-10.622
-29.1764
12.9536
58.4546
-0.783709
-12.5627
-4.95458
2.87839
-10.0556
-19.5838
-22.7985
-7.51901
24.9118
33.0756
8.81261
13.3967
4.145
8.26022
7.87753
-23.2969
-22.2201
41.2328
29.2303
1.76371
-13.9048
-20.6456
-19.2413
-15.6263
-29.4117
12.4356
20.8458
19.3521
-1.04232
-25.3805
-17.139
-7.16719
-32.5007
-9.25802
41.6981
45.5453
32.1125
2.85982
-5.73875
-11.4436
-44.975
-62.7104
-8.69799
41.6226
28.0585
5.264
0.593954
4.21539
6.57615
-14.942
14.42
21.8263
28.6534
12.3802
-18.3653
-2.0017
-1.83577
-27.9737
2.05481
7.97389
16.9716
20.759
-7.92211
-31.0708
-39.8603
-30.0511
18.7018
21.6078
11.5937
14.735
-0.619707
1.23919
-7.61475
-18.9061
-4.02561
-6.08585
8.50558
11.9763
-8.59156
-4.61832
-15.5236
-29.7887
9.5529
15.9418
37.4156
19.9461
-6.18696
-13.5398
-12.7143
3.39867
-17.051
-24.4884
-4.61721
34.6854
5.83554
8.48303
13.9175
18.3
2.77811
-2.20018
1.78829
11.4575
11.1197
1.57056
-4.5785
-10.5216
-20.7934
-16.8306
-17.3916
-35.475
5.58377
23.815
21.431
-2.04014
-7.03717
2.26954
-9.70107
-29.2789
-5.09663
12.4771
13.8506
18.9442
-9.03922
-10.6726
-6.79982
-27.9895
6.72945
10.3507
14.2039
26.0366
4.69911
-5.57242
6.91398
1.88352
-25.1058
-12.561
46.0231
43.8576
20.5962
-1.56442
1.22905
4.8938
-9.95403
-33.704
-63.2643
16.657
32.059
16.3117
3.51555
0.777447
-5.74215
-20.0656
-50.7753
2.16574
17.6607
12.8112
-17.6218
-14.0545
-9.9905
-18.8133
-15.0773
20.6009
14.7611
22.3557
29.2663
-17.1761
-45.4548
-47.2157
-39.7543
27.6211
34.1703
35.4984
47.707
13.7933
9.15257
1.36518
-30.889
14.2527
15.7278
11.5649
9.51178
-4.16462
-8.3849
-6.00007
3.10296
-23.1128
13.0382
23.8246
16.8167
-18.0874
-21.9118
-15.263
-12.5684
-50.117
-15.3693
-13.6943
46.7846
14.9261
1.03205
3.24502
5.41348
-2.41551
-15.5605
-46.7702
10.3032
82.4891
24.8564
8.2714
6.91361
-12.0556
-11.2904
-25.1162
-5.16244
27.0624
12.1305
5.79059
-35.3062
-39.5509
-19.4929
-25.9727
2.75299
8.22531
7.62931
26.6619
6.76708
-19.0507
-28.2288
-18.1391
28.8077
20.4168
14.7524
21.7717
14.5906
7.26833
9.22509
-2.43756
3.68713
21.2125
9.92535
17.5873
-4.42987
-19.529
-27.3207
-51.5943
-20.4288
14.0134
8.36335
8.95904
-12.5055
-12.0991
-2.76056
-3.53343
1.29916
5.48656
-5.73291
9.4732
2.89763
-7.1582
-5.75815
-9.80431
-17.1075
36.8892
37.4209
47.7234
19.4088
-15.0569
-8.09972
-5.80232
-48.3493
-26.2797
22.1161
19.5098
15.5898
13.3479
8.9657
1.69704
-29.9289
-32.2995
3.97129
-1.6534
2.73147
-19.1625
-8.0444
4.01878
-7.73916
-34.5277
0.0457033
30.8772
32.5569
10.391
-14.8997
-3.00643
-11.1458
-20.5768
-37.419
-3.1093
47.6447
29.889
3.33463
11.7593
17.5474
-7.49287
-26.9302
40.4103
25.4554
20.0778
-0.816572
-28.3037
-18.2603
-16.388
-28.1163
5.92377
0.498527
2.59731
29.9473
7.65405
-15.346
-23.3764
-29.7223
16.2937
16.6052
6.73775
17.5879
-16.5458
-9.79227
-7.99582
-26.6801
15.0375
19.1376
14.9198
9.38716
-10.6273
-7.92842
-0.830076
-27.9667
-34.3186
26.0935
21.6674
11.7323
-2.95914
-6.79969
-2.29487
7.50623
-27.1659
-42.4907
32.3022
50.3208
11.8711
8.34778
4.55907
2.4147
-0.983746
-14.8021
-63.9412
0.0610539
66.7967
17.1575
22.7827
15.667
-2.91273
-10.8329
-26.6135
-28.491
20.8288
23.389
-20.2502
-25.6455
-22.1846
-10.4256
-30.516
-25.3851
28.2734
25.7727
28.2864
13.3557
-17.2473
-29.2737
-39.3413
-24.2643
15.0023
12.3271
12.0434
13.3185
-3.28376
5.23559
-15.7584
-24.7003
28.2426
54.38
54.0698
39.8093
-6.84892
-0.2935
11.0348
-44.6735
-10.5931
25.6644
24.9193
10.7573
-16.4821
-13.0918
-4.98175
-26.0797
-5.54981
14.4662
7.41309
8.78816
-18.7094
-31.7567
-25.9748
-47.8141
-20.9835
1.65052
2.93682
16.8657
-22.1598
-28.4632
-14.7457
-44.6811
4.75432
46.0158
30.7895
41.576
20.5659
9.78103
8.88141
-9.91136
-17.2887
26.8138
23.8563
29.5531
2.86684
-1.29356
12.2416
22.6962
0.836568
-26.5115
11.3047
28.7646
-6.25949
-25.8656
-15.0396
-5.78143
-16.9147
-31.8332
-17.8919
10.4362
20.3424
-15.4569
-9.11928
-0.35806
-8.48845
-12.5867
-32.3915
-22.7525
41.1863
22.6777
-0.744313
13.2388
5.44453
-4.14944
-10.2106
6.14196
26.5446
15.4935
1.20444
-8.64563
-28.7279
-28.0022
-48.3101
-28.6728
41.0822
32.6043
42.5331
39.278
1.83488
-2.16721
-22.8193
-0.849271
13.0104
-0.741916
3.07507
-2.91119
-13.404
-0.839675
4.24131
-13.1617
-1.08152
10.2785
17.8965
11.7686
-22.8235
-13.6218
3.03062
-12.3517
-31.6668
27.0371
23.5791
-1.65639
-23.464
-13.6753
8.48044
-9.11005
-13.6083
21.2098
6.39226
6.75275
-6.5206
-15.7306
11.1238
-6.70813
-30.2403
21.7108
34.7792
30.6468
8.53682
-24.2278
-13.6847
-5.07143
-17.8359
-51.2117
-10.0693
52.8922
27.2466
-1.29726
1.06261
12.4129
3.62682
-18.0427
20.9526
30.7653
16.1719
-10.6474
-21.0086
-12.2745
-8.44448
-27.6541
-50.9675
-3.29498
54.3892
55.0796
18.9543
-14.2782
-14.0213
-19.1476
-49.4267
-45.9804
16.8162
19.5642
-1.64679
0.11454
1.57993
-7.02069
-24.9491
0.438968
21.2728
24.5663
43.5459
17.565
-10.7331
-1.97975
-36.0141
12.4486
18.0066
10.0071
23.5905
21.0914
-10.1108
-31.4647
-65.8857
3.87422
47.9679
22.8298
20.7237
6.14265
-3.66649
-10.5035
-23.0395
-1.69787
-11.3906
-3.52023
8.21037
-28.0897
-23.6645
-13.4253
-8.81414
-26.0929
23.3675
42.9722
46.02
9.72973
-22.7987
-22.0296
-16.921
-58.8734
-35.1405
47.4726
58.4414
27.9142
10.6446
10.5445
15.247
-4.23051
-23.0598
-51.5171
1.51651
40.9638
-13.8838
-14.4924
-4.94631
-6.33411
-6.68949
-16.8703
13.7251
51.479
29.1705
-12.3758
-11.7907
-21.4677
-23.3233
-64.532
-16.1576
29.4014
34.1041
51.8664
34.3536
18.6559
-8.8893
-33.5561
9.15248
13.9397
-9.40916
-2.63085
-6.42253
-4.7424
-10.9321
-22.7097
-39.7249
-8.21882
30.0157
43.1478
10.642
-20.0882
-5.10245
6.7603
-7.11815
-20.0622
15.9275
30.6703
-0.935315
-26.3109
-19.6129
-5.69954
-22.08
2.99318
21.4299
10.4583
29.4867
-0.689562
-16.8303
6.08642
-28.9153
-2.91115
13.9465
2.32606
-3.86316
7.86574
-7.63005
-5.10971
-25.7878
0.832158
36.8666
21.1093
15.7646
0.416828
-5.94786
-9.15962
-32.0348
-14.0632
43.9534
26.6705
22.136
-17.8966
-44.632
-23.7506
4.85085
0.0256762
-24.2857
36.4709
30.5808
0.0259279
-23.8053
-12.9021
-0.677752
1.86856
-21.7796
-19.5566
29.3052
55.2999
-3.75546
-0.612421
4.5574
-8.89194
-2.82222
-23.302
-24.8851
9.26652
14.3816
-7.61312
6.02926
9.84382
1.08041
-26.1174
3.26556
26.8143
25.1799
20.5344
8.26969
-26.3446
-60.3987
-66.1338
5.03157
43.7239
18.8542
15.9466
5.69302
-5.57797
-2.07444
-26.4678
14.7578
30.0327
13.765
14.1289
-3.15023
-30.255
-30.9362
-39.0179
-57.6891
12.1409
39.3245
64.6877
41.8539
19.8678
26.5863
22.3566
-21.7655
-25.0576
5.72546
-17.1031
-28.3739
-19.6036
-9.32372
11.1722
-19.2258
-7.97706
9.95628
22.9669
44.7379
-3.68013
-16.6015
-17.2044
-53.5063
-37.3895
8.03649
9.68119
25.2796
21.2553
0.187422
16.4447
7.42833
-35.8513
-46.6662
37.0299
52.3945
19.2427
-1.02293
-9.80127
-4.60125
-28.7512
-41.2969
34.9936
42.9111
19.142
-5.62141
-3.34499
0.46716
-11.291
-32.5979
-51.3057
-22.5989
43.4091
46.502
-3.46247
-1.50507
4.7087
10.8666
-0.639831
-19.1033
26.8424
25.2032
-21.298
-24.3928
-30.0356
-31.0598
-42.5413
-6.82828
29.5869
28.8813
43.292
15.1093
-15.2796
-18.1536
-58.6669
17.5603
40.9007
20.7197
11.8589
10.1867
-34.0038
-19.3661
-38.9369
15.7832
74.7781
37.6251
20.0996
14.1055
-1.9465
-12.2901
-25.4721
3.70162
15.8999
14.2119
26.0571
-11.2431
-27.4706
-4.82382
20.2042
6.64032
-14.7509
-9.76298
-7.11024
-45.3569
-86.8642
-64.3776
-35.2446
-36.6335
-56.2197
-24.069
80.8147
71.9086
25.6936
10.4926
17.7085
13.2009
19.0769
-18.3839
-48.6525
26.989
54.7675
29.762
24.8507
17.9382
9.98777
14.8158
-2.48531
27.7719
39.3599
20.2677
-25.6211
-28.3703
-7.77643
-1.50852
-12.5663
-16.458
-41.3547
-24.4938
0.512639
-0.0321199
-6.13231
-30.1797
-17.0639
32.3582
17.7051
15.8592
27.4171
5.30856
7.81394
4.41623
-44.3806
-77.5283
-19.9929
26.7306
31.2861
15.4111
14.5734
21.2345
16.7783
-25.9566
-9.66877
22.0965
15.442
-5.90841
-3.84287
-6.71468
-14.2914
-35.0249
9.70212
13.4927
12.5253
3.4452
-30.0808
-22.0237
-26.5865
-59.4104
21.3132
21.4383
18.3749
34.4969
18.0577
22.4717
-18.4359
-63.9058
2.81427
38.8245
33.056
31.4116
-5.17328
-9.62335
-16.8047
-28.4722
17.4243
55.3491
41.0356
34.0976
-20.8642
-10.3663
-4.26328
-16.1868
-22.957
-24.0917
21.1879
19.2126
-27.35
-41.7039
-26.0424
-27.9016
-23.1103
-6.63052
1.17895
43.5539
28.4106
-7.95478
-10.3662
-6.23896
-20.7933
-9.93889
-5.58213
-39.1829
-11.4862
63.5878
49.1128
46.5675
15.036
1.97973
15.8863
-2.25589
1.01854
7.69042
18.5436
10.0737
-19.0222
-24.0011
-12.4622
-24.0513
16.773
13.0291
-11.313
-15.9431
-22.5593
-40.5173
-48.2304
-62.0765
22.623
68.7025
39.9453
42.0423
22.5885
-3.65245
-7.4474
-22.1339
-56.0263
-17.675
-2.03534
17.1267
-2.67004
-5.47479
16.3448
34.3004
-5.57059
19.0135
30.9375
39.9364
-9.42767
-35.7235
-18.6227
-25.8056
-13.4054
17.8861
2.50902
0.268627
7.72955
-15.6071
-11.3244
-28.8055
-16.1599
28.1433
27.68
31.5063
38.502
-10.2886
-9.83524
2.20774
-28.6156
-65.3976
4.43929
48.5994
22.7028
7.92399
8.74688
3.48874
-0.645309
-49.4833
-71.5462
17.6068
43.653
11.013
9.0215
3.00808
-1.24868
-11.4023
-10.0558
-14.9211
4.26556
48.8305
14.8577
-7.36371
-12.9662
-15.2181
-0.293403
-12.4166
-22.0877
19.6358
41.3655
13.7908
-21.3231
-19.9041
-16.9482
-51.3622
-16.6352
34.3487
33.9265
38.2207
20.5923
-3.3503
-18.546
-30.8978
-16.6594
-0.981315
-13.057
-3.54489
10.8157
14.3749
31.6339
-4.53024
15.8296
34.8517
18.8277
39.0426
9.09646
-45.9608
-53.5468
-62.1045
-18.0443
22.5049
4.12258
4.77422
7.41995
3.01264
12.9364
17.7913
-13.0124
-45.0986
16.5759
26.4709
-6.28833
-25.3272
-21.5675
-1.85577
10.9482
-18.4359
-12.6551
43.2378
16.0188
-0.448347
7.62547
6.17779
5.78396
-3.71775
-25.1707
10.6442
47.1451
37.3322
-11.9949
-19.1537
-22.1374
-10.5671
-19.3398
-5.03724
32.7388
28.8014
24.0157
0.785215
-8.8218
-24.2254
-49.6892
-22.7243
9.06068
7.70157
19.3946
2.15775
4.26738
9.28612
-25.7779
-18.185
2.78789
39.4783
26.8567
-0.0799836
-37.3102
-30.6004
-15.216
-26.717
-41.2632
33.228
50.2528
16.1395
-21.405
-20.3055
2.5633
0.95037
-25.8027
14.2582
38.2485
30.1535
18.932
-12.5788
4.88451
5.65489
-14.5799
9.71788
26.1286
21.3277
26.1655
-28.4234
-25.9012
-8.19167
-21.4375
7.71993
16.6645
7.34686
17.3793
-5.40191
-21.6511
-29.9294
-50.1
-12.8484
-4.06996
10.5544
28.0841
16.8504
5.00404
-15.5108
-59.939
-24.7409
59.8475
36.8631
32.384
-0.554213
-13.6332
0.495761
11.4283
-19.7296
-7.41763
42.0815
40.2118
-9.97081
-25.4467
-28.0885
-16.1023
-11.3387
-28.7287
-39.9293
29.9422
30.8207
-27.5671
-21.9021
4.22825
18.6674
22.6596
-26.4034
10.8908
53.4714
30.3498
-1.84309
0.31597
-16.4309
-9.49665
-19.8087
-5.70055
17.2906
7.87706
33.7183
25.6056
-8.92107
-13.1157
-14.736
5.94408
15.5936
-8.17468
6.09218
-20.5969
-47.4291
-46.1712
-78.9389
-54.0612
8.14485
66.8106
78.1391
38.6999
9.28904
14.4606
23.4323
18.6487
-23.7296
-5.05385
22.0844
-5.8303
-26.1795
-22.0636
-14.814
-13.9821
-23.8825
18.6604
40.2377
29.8392
-1.44727
-13.6609
-9.86864
-40.4765
-54.1758
16.5205
25.3892
-1.93129
-11.5855
-15.2703
0.916925
11.3869
-23.4625
8.62111
48.1139
25.2096
25.6736
7.99725
11.925
14.3601
-0.822595
-39.0368
-38.4561
39.6226
27.7331
-9.27425
-5.93883
0.395626
13.1845
-4.13987
-43.6754
-42.1131
38.4533
13.5959
-12.2608
-9.30963
-6.06675
-6.05261
2.46906
-33.6746
-13.7381
40.7691
28.0219
3.72505
12.4101
-5.75697
-19.3987
-40.4324
-1.06743
27.0743
27.7975
15.7057
-15.7125
-14.6399
-27.7931
-67.2922
-15.1577
40.9959
20.0974
29.8917
25.8262
6.06713
5.62778
-34.1882
-6.01408
30.6092
13.9895
26.5085
4.36087
-27.2766
-24.6668
-44.1024
-3.98259
20.2594
19.1977
36.3034
11.8989
-17.4832
-6.56932
-24.9615
-28.8483
26.3764
41.359
35.603
21.8019
-4.04351
8.59191
14.0894
-13.438
-21.9936
3.95586
-1.9016
-25.3395
-33.5401
-32.4678
-10.3537
-24.5096
-58.4302
-6.55365
31.5295
34.1454
-6.01933
-1.03921
11.6906
2.59842
-25.3259
-47.4422
-7.53402
34.5517
34.409
28.7886
43.3458
26.0127
14.4464
-7.36687
26.6174
34.9557
18.8264
-25.8425
-18.8065
-17.6858
-42.5091
-59.8611
9.31149
5.9678
-0.597078
22.1312
12.9654
-4.72192
-8.97669
-32.5066
-25.4841
0.848908
25.3344
38.6937
13.3011
3.59274
6.53232
8.65868
3.48765
-35.6392
-12.1986
29.4652
-7.75933
-3.69892
-0.953764
4.00086
-7.88426
-35.88
-24.3833
29.2089
19.0762
-1.1599
-6.4243
2.74869
1.34956
-26.5854
-9.79885
41.5043
26.5243
26.897
5.40225
-9.7779
-22.1905
-52.2112
0.579124
3.15525
-8.28849
11.7269
4.8233
-16.3238
-21.7949
-57.8849
19.8294
35.2679
16.1942
11.1689
14.9404
-0.246483
-5.85011
-33.2023
-6.89445
54.3793
52.2121
50.7691
15.1848
4.64967
1.56572
-3.78799
-44.6199
-63.7353
40.1985
63.238
-7.95623
-29.6555
-18.4796
4.99353
-0.0148617
-18.003
-36.0416
31.3356
30.2422
-21.5524
-40.8518
-48.4138
-68.5033
-55.8954
-38.1089
21.5771
52.2638
49.1279
4.58275
3.86492
-8.40183
-17.6548
4.4594
44.4541
33.9443
19.6195
36.9815
25.8955
-2.01748
-45.8888
-9.9244
48.4238
36.7796
25.4546
10.7178
-17.7499
-12.6781
-19.0172
-54.4794
-22.6232
21.1842
36.5196
20.9886
-7.79551
-13.3741
-24.3061
-37.9476
-60.3936
-7.62571
11.1711
-2.87474
-8.45938
5.10566
15.8672
12.5609
-19.5546
26.0323
37.0363
28.1061
3.78771
-24.3814
-17.2359
-38.2992
-61.782
1.65985
36.5765
44.3322
47.874
8.83897
3.42528
-11.942
-32.8715
-10.2115
16.4582
33.3694
25.2973
8.22161
11.4297
7.40133
-4.56319
-40.6465
-60.823
25.1886
38.3174
-14.5551
-42.6314
-20.2541
-5.51862
-6.53342
-26.0475
3.17721
43.4227
42.4286
19.4159
9.96288
16.5587
-1.83555
-7.97878
-30.0257
-75.7221
2.62789
59.8466
-18.6111
-15.7943
1.10471
11.6214
18.7677
-8.75567
-2.0535
28.6549
21.7456
-0.990686
-16.5191
-20.4401
-27.6546
-49.4288
-17.0698
-2.76521
17.4559
48.3982
18.0591
3.39147
-8.08834
-5.21635
24.2166
8.89027
9.54421
23.9704
0.739403
-8.58357
-31.673
-32.8401
19.2795
3.86353
0.740114
18.2307
5.74783
-1.47661
-2.29701
-22.4594
-49.957
16.9287
41.9157
26.4799
-4.50394
-1.42241
-1.97797
-4.10687
-43.0308
-8.16128
41.0528
27.8133
-13.3484
-18.1739
-11.4253
2.68534
-12.6786
-33.5257
-3.37248
52.3374
36.2436
-9.80003
-10.7842
-2.85477
-13.9647
-17.3547
-36.46
-12.2758
36.8719
15.1971
-8.29441
-2.0482
-9.00829
-7.90542
-39.7617
-16.0995
52.9957
59.4349
28.1818
7.85361
-3.9965
-29.8397
-43.5429
-48.7453
40.5927
40.0207
34.8031
23.2676
-0.932793
-5.12838
-3.89473
0.869994
-33.9718
-44.5705
54.2005
25.6693
-25.6509
-20.9765
-22.4154
-23.5741
-3.87231
-31.0473
29.2621
71.1452
3.68832
2.31351
4.17618
-0.961746
-8.00703
-20.731
15.1258
3.3857
-4.25956
1.92377
-19.0215
-10.0503
-36.3293
-30.249
24.182
-3.79706
-18.7086
5.58635
1.39267
6.26933
-24.7507
-26.8572
30.6784
43.2911
23.2536
12.7775
-15.237
9.00142
18.2809
9.52378
51.2419
28.8145
4.80554
-17.2011
-36.3976
-13.091
-7.77874
-23.7245
-50.1839
-21.1676
17.0196
10.6318
-1.42615
1.48986
6.03645
12.9793
-12.4698
-70.7983
-14.5044
57.58
9.52558
12.615
20.1095
40.5232
28.7453
22.1418
-9.37171
25.3453
22.5383
-9.40145
-25.2473
-13.7303
-23.8402
-36.9478
-35.4401
20.858
15.2279
32.2349
13.1664
-23.9575
-40.393
-58.0181
-73.1944
7.0748
31.5629
21.251
41.345
15.6428
9.12225
-7.9374
-19.4258
21.8438
15.49
9.5427
14.7753
-8.90893
-3.76331
21.9032
3.10878
-45.7608
0.606883
65.8091
49.0959
-13.3753
-39.4596
-32.0459
-21.3381
-37.5131
-31.076
18.0272
18.8623
-0.376787
-5.62148
-1.14759
5.46667
-24.465
-17.8402
18.6019
13.7248
37.0619
8.88127
0.357154
32.3893
4.25759
23.4864
48.3213
26.7226
3.85001
-34.0376
-79.3121
-69.7244
-70.1649
-59.5005
-3.2013
67.7894
59.5426
49.2307
23.1357
23.0906
25.4984
-10.0176
-43.9955
25.0894
18.6394
-17.4684
-36.6422
-25.0911
-0.143441
22.3531
4.89062
-27.4976
32.8219
52.8356
12.4644
-33.0484
-25.0119
-20.012
-14.7549
-13.6235
-24.9833
27.271
20.4323
-9.96722
0.633504
-3.75916
-8.84072
-14.7898
20.8125
34.3322
23.8516
28.8519
-12.7301
-27.1306
-36.1999
-54.7282
3.68117
14.1309
4.14398
9.73763
14.6829
-13.8581
-18.6841
-62.7158
18.2028
31.8371
15.1138
29.7534
15.988
8.55369
17.1686
19.4599
27.8308
14.1664
11.8366
16.2323
-8.82532
-15.1774
-9.43146
-26.9855
-59.5768
-13.9706
24.601
16.6655
-38.1934
-50.3242
-23.0186
2.10719
-8.41795
-16.5852
53.4177
55.5776
26.695
20.378
8.08715
-1.78033
-33.0831
-52.7495
0.659556
31.61
44.5785
6.02922
-2.42768
8.04341
2.60816
-2.52173
-19.3782
11.0064
3.06198
-15.2669
-50.6722
-30.3333
-17.1639
-21.6739
-39.8911
28.9624
49.2393
44.51
4.32717
-5.52573
11.2001
-8.56739
-42.3198
2.80215
42.8992
35.1551
30.0317
-7.56171
-8.05319
-0.100997
-13.1738
-49.1205
-52.7366
21.3344
37.8279
-0.849926
-7.68995
2.27538
-11.4821
-28.6235
12.0802
25.8088
29.4931
2.36038
-22.3687
1.13535
-1.04792
-22.6217
31.7719
26.1418
14.1469
19.7574
11.2444
-16.0531
-30.3664
-27.5627
33.1758
19.8125
0.206086
9.47122
-3.55077
-29.7811
-52.32
-27.3078
18.211
8.26323
17.4501
20.6992
-13.8413
-11.6757
-28.3642
-9.79282
27.0899
14.8651
31.8047
9.69678
-30.5711
-21.3861
-18.0397
-53.7158
-34.2937
16.8361
49.0384
30.3466
-13.9052
-5.30784
5.36505
3.67828
-13.4665
-17.6307
24.8361
71.8231
26.0623
6.91916
18.8699
8.14162
-10.5852
-20.35
-31.5583
45.3356
20.5591
-14.2418
-7.74947
-10.8864
-20.1916
-43.4896
-32.6708
24.9183
15.9504
22.6741
4.12938
-20.3232
-24.1609
-50.5554
-48.2421
28.9594
21.1906
28.2093
33.8182
11.7584
12.5651
-11.5499
-34.3173
25.503
27.7729
24.8018
16.6673
-12.5157
-11.3693
-8.81982
-25.043
-53.3647
-23.0443
19.3018
19.5041
-8.50284
4.50732
6.44025
-13.0334
-42.1299
-19.1033
32.4698
45.6994
1.21519
-12.761
1.92822
6.21524
-28.5433
-18.2809
45.9682
46.265
36.2381
10.6882
1.6028
-0.0774246
-41.6369
-19.4859
-1.06289
12.0757
24.8301
5.28659
-15.007
-3.41252
-39.8629
-12.6495
-6.69132
7.64812
15.1784
17.5752
-10.673
-10.1223
5.56371
0.906224
-24.3505
21.7124
16.6844
-15.6494
-20.7379
0.965855
6.48886
-0.787211
-6.31555
-27.4003
24.3363
36.2233
20.5341
2.80701
-1.32352
-7.57622
-14.8036
-12.3235
-37.7129
14.9232
23.8446
-15.8568
-15.9132
-1.67081
11.4248
-0.814124
-11.1673
43.3268
8.26037
4.66635
-3.09224
-18.0126
-4.79041
-23.407
-11.246
28.8991
14.7279
13.3217
25.2808
-13.5961
-8.68882
-46.6938
-31.3212
23.7793
19.2442
18.3999
19.1024
-9.5635
-0.407661
8.04191
-18.8629
3.53802
4.26587
4.34721
2.31415
-10.8204
-8.40238
-7.14501
-1.78732
-32.3708
13.2538
41.3419
31.9718
-10.1767
-18.3725
-22.8961
-19.6115
-41.3586
19.8884
45.8686
25.1448
-17.4022
-16.9697
-3.31748
-23.3106
-47.9015
11.2978
31.9002
26.0943
33.0773
9.51641
7.83196
10.947
-5.08212
-29.5535
-3.19469
35.7606
33.8055
-10.2595
-31.3759
-20.1494
-15.705
-26.5459
-13.1989
29.3938
17.5313
-19.3633
-14.1177
-2.24307
1.89924
-30.372
-53.5477
8.80969
60.4913
49.9303
32.485
14.5562
10.3566
2.38915
9.49378
-7.39701
-8.16998
8.38283
-16.9187
-37.374
-17.126
-20.7154
-29.9845
-32.3918
4.49134
27.6598
29.4299
2.75494
-22.3998
-3.12703
-6.85423
-18.2214
32.3281
21.9265
11.4367
14.5299
3.50847
2.52873
-1.51934
4.89408
22.7117
5.17414
-1.39769
6.25888
-4.92317
-7.52826
-24.6232
-32.9595
24.0765
22.8928
17.0951
19.0335
-19.0722
-24.9967
-23.6327
-43.4326
-10.4255
0.26207
6.86247
14.3747
8.05189
7.56001
2.77355
-7.02651
-58.6316
4.43695
77.0156
41.3714
-17.0681
-2.80129
5.11687
-9.70007
-33.7446
-67.8331
-35.6799
73.9643
45.7195
25.8573
24.8663
10.1712
-3.03261
-23.386
-64.1702
23.2701
74.4626
24.2095
4.83892
-1.8169
-33.9025
-41.4879
-59.7144
-9.94589
24.09
29.8051
16.0622
-12.3492
-18.4406
-16.4826
-33.6253
-0.899931
11.5795
25.2288
37.7888
-11.0406
-15.9496
-11.5721
-35.4502
-52.6349
39.838
48.2167
38.8909
14.8042
7.59194
29.9454
25.4102
-14.1223
-30.3111
2.09823
16.607
-8.82304
-18.3953
-12.6075
4.74466
-26.038
-37.7533
9.97081
11.7472
24.3442
-29.477
-21.0433
-0.89347
-41.1024
12.8004
24.6876
15.0263
10.3026
6.65117
-7.51907
-1.60661
-26.7312
15.8122
18.1857
18.0157
17.656
18.6765
-20.4117
-14.2076
-40.9613
-36.2006
39.3377
48.3819
46.4694
-0.545833
0.439882
7.16507
8.20675
-23.2731
-48.1428
11.6662
9.70072
-20.3058
-23.6758
-18.7003
-3.42732
7.98346
-12.5065
-33.2219
41.3667
64.196
0.824628
-4.1407
8.89015
-13.5294
-25.3935
-29.2764
-46.9315
19.1679
40.4224
2.42818
10.6288
2.4749
3.52101
4.88881
-38.528
0.665787
56.4742
49.9821
19.1295
-26.1816
-31.5626
-23.6669
-44.7904
-4.37337
14.1156
15.9175
22.6936
6.86855
-1.849
-14.2541
-24.9532
12.0613
8.22143
11.6317
35.8675
6.02051
-31.9027
-25.2327
-40.5084
-1.35904
29.9509
12.2095
15.8825
-13.0645
-20.171
-22.7235
-25.1407
-39.3107
21.5662
34.5839
31.8147
5.42841
4.95422
-0.295178
2.23415
-11.4371
22.2006
33.6183
34.949
-6.73215
-29.4991
-10.2723
-14.8338
-33.195
40.2429
46.5859
41.7235
37.4742
-12.9913
-42.0413
-33.5079
-32.9188
-34.9755
-25.3379
9.63065
14.2907
-15.5055
-6.64992
1.32802
-5.65328
-36.7706
-6.57854
26.7033
22.2152
-15.4412
-8.98531
10.2153
18.6806
-17.3777
-12.0704
23.8368
29.5315
40.6398
28.2021
9.60252
4.28705
-18.0347
-14.25
-32.4067
-20.5237
23.0026
-2.67033
-5.8562
1.2752
-15.3835
-16.5047
-29.9118
1.02748
35.0661
29.5752
8.48993
-9.47157
-6.1904
3.72681
-36.4511
-4.30813
34.8231
19.5453
12.9156
-7.23764
-19.5665
-13.5133
-26.5022
8.45065
24.9033
9.84937
17.9413
2.42078
-9.10146
-2.48453
-28.2651
1.3194
9.5719
3.02208
22.9076
6.70805
-22.7653
-17.4176
-21.7282
-14.8732
-5.77466
17.368
28.6878
13.2444
-6.08604
-3.88184
1.94122
-3.26787
-30.1474
-17.2653
45.0927
20.2072
7.19946
6.12018
8.90433
-8.8564
-17.8987
-18.7979
-22.2272
51.3942
37.391
4.77974
-4.77195
-13.057
-20.7206
-40.3974
-52.6279
4.96578
32.7513
19.9163
1.10227
-2.5507
-5.64564
-10.5675
-21.1891
11.7731
5.49115
-2.8761
29.5567
0.371029
0.563097
-6.62593
-30.4477
4.97815
45.7534
45.5192
30.665
-25.905
-24.887
-6.64179
-18.0385
-62.1785
-82.3574
28.8387
66.0424
22.5759
-1.817
9.28425
23.6621
9.74331
-5.07862
18.0047
42.6585
10.9226
-25.4683
-31.4798
-11.7683
-7.1191
-29.8843
9.93193
12.9128
17.1805
21.0603
-20.64
-25.4311
-44.3177
-78.3569
13.3637
55.639
14.5827
20.1199
12.9333
14.7724
0.353584
-37.8455
8.78265
42.7659
21.7608
27.299
-3.13966
-11.5509
1.81421
-25.0813
-59.76
6.68625
17.0493
39.8658
7.9835
-15.9519
-28.8948
-36.7415
-59.9731
-24.5376
26.7453
41.1004
23.1431
2.60823
2.87724
2.28687
-16.7881
-39.4486
-43.1055
70.1611
68.3283
10.6704
9.17982
24.6882
2.16129
-7.58625
-15.5208
-7.77402
32.8043
15.6601
-14.5152
-5.68493
-11.4301
-17.4849
-45.2792
-31.569
3.45386
29.2124
38.7763
-4.98688
-16.1705
-35.8414
-41.6647
21.2122
12.2684
5.78015
16.8147
13.3945
-1.16649
-3.44041
-29.9951
3.48324
13.5934
4.14733
15.715
15.9351
4.3738
-6.18115
-52.0683
-21.8432
30.4086
36.6643
39.3534
4.07725
-9.41363
-16.4707
-3.1811
-20.4264
-13.4994
23.0586
15.6301
-1.98213
-1.59422
-2.3092
3.63054
-23.142
-9.43336
17.3684
39.6077
8.90728
-29.0834
-44.0125
-26.7908
-39.6197
-30.4838
-2.10663
36.5425
35.2723
27.6592
6.31318
7.33206
1.09112
-19.3804
-16.0326
25.9549
22.261
2.90169
-6.91546
17.2214
9.24146
-23.7805
-17.3383
15.1051
13.7138
8.53297
2.7048
-11.385
-4.71041
-26.2248
-42.894
-31.2466
0.438571
59.8122
40.3712
22.4121
26.781
7.95188
-5.64924
-23.8805
2.62772
4.13978
-3.81273
-19.1991
-20.4808
-21.9362
-33.8492
-43.518
17.8498
27.853
24.8621
27.9121
4.37418
-23.9856
-37.2376
-46.6096
38.1877
32.3305
20.1135
27.1333
0.596714
3.98055
-5.61685
-14.238
17.6097
12.2053
6.70381
0.589459
-17.0018
-6.73307
-11.1736
-25.0459
4.0256
-3.83699
14.0196
15.1096
-16.376
-14.3823
-6.42818
-20.2442
-27.0909
-0.86611
28.6207
18.2255
8.74315
17.5497
16.6198
8.31209
-29.7502
-19.6861
32.5498
35.8402
4.39848
-8.24852
-14.8849
-25.1586
-33.741
-36.288
-15.5618
41.541
18.5696
4.82283
7.86043
21.8262
16.7098
-25.4046
-45.2048
15.951
46.2237
19.3719
-12.9642
-1.92918
-9.22956
-24.9412
-14.8587
51.0485
32.0145
26.7131
13.4923
-5.96153
-8.76142
-29.6608
-67.614
-16.8813
-8.92473
2.77243
13.7604
-10.7913
-10.8311
0.66101
-10.2558
-32.834
-8.3916
48.3683
52.5111
15.2404
3.23123
3.86892
7.94269
-28.4658
-24.0122
41.0087
44.7767
-5.10427
-36.122
-30.316
-14.8177
-42.6841
-18.9458
31.3021
19.0867
30.3939
17.2376
-3.35268
-7.16564
-37.0467
-23.323
35.0879
14.0125
12.2449
20.0786
-12.8753
-12.0451
-37.6387
-16.0497
41.4422
42.9757
30.4647
-5.56395
-21.4958
-0.0476738
-18.7489
-26.9541
1.93482
9.60235
20.5227
5.80721
-26.737
-17.4727
