-49.9317
76.1493
117.388
30.1726
4.0073
46.3146
65.9346
23.0173
-19.8055
-33.5535
41.7674
39.9091
28.0788
-35.5765
-38.0255
8.89557
32.5966
27.6385
25.6971
41.9509
-17.6137
-78.0986
-68.6682
-2.13545
-2.96392
20.8151
79.7007
71.8656
-36.0204
-34.5348
-6.62623
-2.06736
-33.7733
-58.8083
-58.5731
-19.8126
-20.4834
-10.4071
16.1394
51.9099
47.1237
-20.6045
-9.86571
78.6469
32.354
-43.8979
-68.8068
-17.3924
131.509
124.255
19.7685
29.8947
-10.368
34.9897
73.6172
-43.1873
-100.061
-98.1055
-36.0484
-9.53272
23.4527
12.676
-57.751
-83.8715
-12.1032
1.22494
-18.6837
-39.7105
-66.3188
-33.1505
53.568
17.4987
-40.9591
-64.479
-64.2163
12.9412
73.6443
50.5739
4.76378
0.680858
23.9521
-34.0158
-7.32569
-13.0597
-20.9657
-32.715
-38.4493
21.935
182.12
117.393
-2.40653
29.1615
99.7347
38.4027
22.5491
70.3688
94.8477
33.5792
-10.3652
-46.6451
-72.0824
-29.5346
-13.7113
-19.1738
12.1357
25.6986
27.8357
-21.4323
-123.019
-103.626
-44.1569
-27.57
-26.51
1.07573
58.4289
-32.5376
-123.996
-32.6774
12.4872
2.02042
47.4665
97.5637
52.1688
49.2871
-33.2476
-33.5914
1.46984
-9.06027
-36.148
-10.2227
13.5471
17.962
-12.1343
-6.87828
-19.9583
-4.23928
27.2746
20.5997
57.3131
123.357
-30.5157
-119.302
-53.7502
-29.5279
-12.8749
-39.7004
-42.784
30.1373
109.7
18.8906
-24.66
69.0468
127.659
47.931
-40.9899
-19.1943
1.53108
-63.9313
-67.9383
-89.0185
-34.5393
29.5604
16.6446
-7.65506
32.2756
94.2292
33.1207
-69.6259
-100.011
-33.7761
-14.8133
-74.0221
-53.5082
3.03679
61.3454
18.0467
-7.73676
19.9602
14.5647
-6.79254
50.0723
77.5864
69.3873
41.4842
9.24436
0.552027
13.7688
29.1595
7.19764
20.39
31.421
-7.36692
-34.472
-20.891
-49.5442
-51.9334
-23.2473
31.814
88.4059
60.0397
-56.3102
-74.1647
-40.2898
-30.963
-59.5499
-35.1791
54.2241
93.5157
3.97815
15.4399
9.19143
-54.2706
-5.33279
21.4978
-2.57207
56.8456
102.258
93.7097
-72.7263
-136.63
-74.1909
-68.9698
-73.0666
-39.2354
44.1857
67.7128
-28.9677
-58.9092
-43.6079
-38.6893
-11.9941
39.9833
66.9528
54.7306
-22.3288
-26.4209
-16.454
-17.9147
-1.32409
11.6873
66.4023
103.354
73.9443
14.6879
-15.9327
-2.59286
39.1579
16.0312
7.29806
9.38971
21.6623
-11.7395
-51.3912
-53.9926
2.89203
-1.39967
-15.9798
-14.3543
53.5266
2.42844
-41.4729
-40.781
-10.1383
-3.8596
-10.0896
-32.322
22.9754
112.322
59.4187
-55.1808
-81.6139
-91.9201
-156.152
-112.112
58.6013
265.781
186.63
14.1939
-48.8354
0.372384
4.40778
-21.9991
-26.0908
11.19
-12.1846
-44.2215
-57.6392
-99.7756
-54.6886
10.227
39.3588
125.81
92.9874
46.5302
-46.4729
-181.361
-134.161
-5.08907
24.4127
90.9574
72.0483
35.2886
24.636
8.19704
19.8979
29.839
7.52473
-12.9045
29.6703
47.5501
-41.5353
-52.2854
4.86282
24.356
-2.2804
-61.2221
-51.7763
41.3646
83.5999
-8.54787
-33.3296
-29.4135
-43.1456
-37.2145
16.0213
42.5892
33.0588
9.61393
-22.5206
-34.5706
17.5633
9.42
18.6982
4.54472
-0.70651
-3.79829
16.7775
-63.4105
-113.683
-59.9113
21.1219
77.554
82.4663
57.0315
68.8404
-19.9352
-43.4498
-69.0363
-83.2107
-35.9486
38.9664
73.4313
72.5103
62.1866
67.7376
14.3253
-50.6933
-57.8013
-36.1208
-8.65247
3.81767
4.62461
-58.7586
-33.0991
-61.3017
-36.5388
-2.20242
44.5834
39.2762
29.5496
41.767
-22.2656
-33.2522
-36.4899
-47.0725
-36.9329
-26.2913
-0.961757
83.2675
119.19
48.7687
-14.1037
11.3019
26.849
3.59823
-4.8983
-14.4498
-33.7982
30.755
71.7155
-0.91942
-32.8378
-26.4463
7.64945
13.0289
-33.0339
13.8246
19.0354
-44.005
-73.912
-35.2148
27.4078
31.5972
-46.8747
-6.09356
20.1681
6.39299
25.5501
22.778
-40.3013
-57.5932
13.4891
46.608
9.5638
-40.0767
23.7083
76.3577
49.0729
-2.39483
-12.0657
9.18238
-53.2845
-37.3911
38.0888
11.8332
9.13423
21.3441
-14.6507
-26.5409
15.2463
-56.9358
-69.4192
-36.7224
-2.62289
7.46434
-20.2982
-39.4441
38.515
5.39587
-14.6731
-17.2347
17.5466
66.7629
28.9673
9.70952
30.8934
5.61562
21.9622
27.2611
9.93917
16.0781
-23.108
-13.9466
67.6879
21.2381
2.37235
-16.6265
-45.0686
-17.3186
-21.5677
-39.3758
-45.2016
-32.5221
-0.699648
-28.2856
-30.5579
-8.98897
-7.03191
-7.49613
13.4661
44.0863
41.3826
-35.8216
-56.1724
52.9214
67.1164
32.2537
-22.6678
-33.3787
-20.9983
-45.1958
-55.0234
-3.49693
109.427
102.681
75.4777
83.9023
67.438
-37.8241
-84.3492
-14.7874
46.8987
20.6231
-78.3085
-91.4756
76.3756
138.791
-25.1387
-96.7125
-32.2255
52.0057
12.1438
-88.4121
-64.049
113.378
204.987
20.4786
-135.783
-93.5045
-63.1041
-47.0247
-37.1025
-11.2474
13.8473
-0.0108698
-145.003
-176.734
-50.3296
71.9309
87.0012
122.234
121.253
65.9029
-34.9096
-178.888
-200.593
-106.71
-8.43594
93.4195
161.34
111.511
86.8818
-28.537
-123.303
-150.644
-134.808
-41.6791
300.031
399.018
305.738
84.5077
3.35511
-29.504
-150.593
-169.997
-111.119
180.492
247.845
26.3289
-87.59
-119.843
-133.368
-56.0328
0.426807
40.8375
40.5293
-30.6725
-182.053
-237.151
-203.986
-140.965
-87.6316
-3.13826
110.964
136.579
104.889
-44.3605
-119.027
-63.8229
-46.4112
78.4687
221.782
274.507
121.119
79.9942
134.256
85.7653
-19.9888
-85.4223
-116.937
-101.874
-7.09493
76.7569
34.6631
-5.80112
-62.3029
-96.1489
-41.0918
22.5914
41.2134
-28.0575
-105.587
-90.6591
8.47196
10.4616
-49.928
-25.955
0.735987
-24.5811
3.0813
35.7963
79.4099
74.7219
27.003
34.2399
-23.0475
-88.4599
-88.2828
-22.442
114.219
46.1567
-75.0399
-112.258
-96.6954
28.2349
139.67
279.737
220.452
81.7083
-50.593
-63.1407
-107.479
-88.6846
-53.7553
-59.7224
-65.168
24.431
80.0147
30.4059
-54.5607
-59.3593
-58.1633
-35.4299
85.3788
112.17
1.92385
-127.335
-135.99
-48.7745
36.0292
11.6733
-6.26315
-18.612
19.52
67.5907
104.905
82.1146
61.7046
21.5969
-23.6116
-1.50604
20.693
12.728
-18.2778
-31.5962
81.2816
9.11378
-128.005
-96.3473
-47.4377
-13.4254
3.74592
1.272
-18.1782
-11.6017
10.3961
-19.9628
-29.9827
17.7417
6.16373
43.1798
94.3988
79.2652
31.671
-7.9026
-105.716
-113.679
-39.1549
5.97193
14.0126
62.9143
96.2887
105.822
18.8197
-57.7979
-84.7039
-48.4135
15.7905
61.7316
49.6436
61.2467
-52.2264
-74.1421
-92.7264
-121.025
-41.9697
110.502
94.0971
30.0492
-57.7971
-27.3115
18.2565
1.50597
22.6906
21.9345
47.2538
65.8973
21.2158
-29.5674
-94.0623
-126.942
-60.5449
59.3268
174.956
97.0522
31.4984
7.35126
3.96493
-68.7676
-72.4335
-142.775
-162.104
-33.8578
186.53
244.762
111.817
-65.0848
-86.6299
-51.7387
-4.80482
-24.6509
-23.8847
-17.4347
34.9448
9.00906
-46.2978
-100.955
-46.4105
37.0159
87.6307
123.117
23.6788
-77.9111
-185.298
-186.982
-21.0502
115.75
106.22
128.076
129.294
51.173
27.5269
-23.9475
-80.7859
-35.8197
-39.1057
-45.4434
14.6906
92.2958
14.2721
-33.635
-19.8677
-43.2998
-28.4665
-6.81008
-39.0222
23.4133
64.774
-21.998
-61.0699
-9.07043
17.1524
21.2011
-13.5545
-8.94556
29.8608
38.9963
-7.57354
-36.775
-3.26667
18.525
53.0506
76.3071
66.2745
47.9795
-42.0551
-77.607
-82.2331
-47.3886
-3.5952
31.998
17.1949
-29.5349
-86.1332
-3.79839
23.9168
54.1783
50.3606
73.4727
119.754
73.0055
-13.0495
-75.807
-96.5707
-86.5623
-40.5513
-55.5912
14.9914
135.535
42.2956
-33.5285
-29.0947
0.919125
19.8805
-18.8987
-49.4925
-107.407
-71.2309
2.26549
81.3156
12.3933
-1.38563
-10.1582
-15.7201
-32.4688
-24.2462
30.5643
45.8475
-42.3221
-41.5529
25.3537
88.6994
64.2332
30.5285
48.0648
70.4467
-35.7262
-26.3046
-69.2805
-117.743
-50.7282
43.7076
80.7737
154.2
180.606
28.8311
-40.5857
-80.8177
-87.9635
-49.188
-24.42
10.7983
18.7638
-50.885
-119.268
-136.607
-23.0233
116.134
136.149
43.4948
51.0661
29.7532
-15.4697
-88.38
-105.065
-6.52257
5.06901
-15.0346
2.32408
30.4921
14.9016
-48.497
-90.288
-57.0925
45.7262
183.221
218.581
42.3468
-132.636
-76.0111
-11.8437
-7.85963
-17.2188
-37.1793
-15.2907
37.2913
-2.65777
-6.16665
-34.9005
-21.1707
-6.75356
-0.843452
74.1568
106.582
26.122
-74.8641
-104.193
-79.8304
19.4191
16.0837
-11.3179
13.2679
68.4215
36.2928
-45.6314
-27.8015
60.4728
72.8956
36.7057
66.4009
73.8085
-5.79759
-36.369
-11.7979
-40.234
-75.0069
-49.2454
-22.0025
-1.06297
60.8443
16.6356
-40.928
-53.6662
-43.4999
-14.2934
-8.39712
-41.1336
-44.0782
60.7401
21.334
4.98948
4.23309
0.864259
71.0766
101.208
52.9327
40.6963
-58.9916
-76.3646
-73.1803
-29.8301
-42.2055
-57.8702
70.2281
148.289
32.6534
8.88258
-19.2743
-67.2394
-47.3243
-33.7024
15.9462
25.1129
-38.3218
-38.0195
-16.1713
-43.1875
-10.0117
5.82251
-7.15272
57.9658
133.829
51.86
-2.30284
-64.7129
-69.3823
-69.8087
-10.4454
113.676
157.096
111.722
-24.3432
-55.404
-55.8681
-70.6515
-48.6255
17.2797
68.0699
17.6731
-35.8855
-38.1336
-29.4684
-4.07412
-77.6446
-84.469
45.719
110.045
94.5743
-81.5188
-149.516
-58.3633
86.1994
85.9979
69.5781
20.825
-23.6857
-24.0114
2.84467
31.381
21.4257
-11.2682
-2.28663
21.6205
-23.7774
-6.1901
12.2518
5.48407
-26.687
-31.9184
-24.3436
-50.9446
6.28296
3.073
19.4196
72.919
72.097
14.9632
-40.3028
-71.7672
4.11172
81.3046
49.3263
-14.601
-17.3674
-8.55595
-35.0296
-30.8646
-26.7576
-21.9411
16.6619
10.6977
-35.263
1.42525
-20.9912
-20.7653
4.50469
-7.38487
9.05965
-9.75223
-34.398
-61.836
-52.89
19.4315
49.3637
60.3202
108.952
26.1476
-41.9949
-49.1815
-24.6862
55.4996
111.766
38.281
-22.6156
-96.4202
-36.2818
104.606
89.5178
33.5864
-10.4586
-46.2724
-44.6861
-36.7898
-28.2202
-2.42608
7.06884
5.83134
-3.37608
3.07946
-31.1037
-46.7
-65.692
12.7353
43.2595
39.6274
5.82667
-63.9102
-33.4755
39.9869
-6.46971
-26.0898
-18.1794
-37.9263
-32.0073
15.4659
88.3824
75.0484
8.65222
-2.41347
30.6109
45.7539
-5.40546
-47.6704
-19.7688
44.2424
84.5924
-8.3531
-76.4288
-61.0428
-2.83797
-4.66573
-6.31827
27.3929
53.7169
-14.3182
-99.1423
-26.5709
39.5237
47.0388
21.2311
-22.0391
-24.2423
-14.2721
27.7723
40.1328
-60.5891
-51.0019
-33.4205
-14.5687
38.3908
68.0123
108.249
59.8909
6.47425
-8.71274
-33.4146
-52.9052
-36.3163
5.1205
57.1205
-34.5395
-70.5413
-91.9439
-65.5895
42.0747
87.4208
33.0657
12.6375
-12.5673
-26.1912
-44.0673
-78.7413
26.8231
103.851
19.9305
2.14665
45.0148
40.3011
25.0643
-27.4711
2.29595
1.66159
-29.8442
2.70748
-53.1457
-65.9724
-17.7842
5.3139
14.3229
19.0167
20.4173
9.60115
-3.01219
-33.9313
-11.9413
-13.9223
-69.0994
-51.0939
18.283
75.8133
64.9874
112.501
110.06
-16.1885
-55.2291
-48.86
-44.1359
-21.7004
34.9351
45.9841
30.4725
7.7526
-41.2985
-40.0238
-12.3856
-28.4407
-51.123
-40.4395
-34.7733
80.9562
97.1671
65.7048
7.18796
-51.0595
-87.1142
-0.975432
115.34
107.105
-6.52356
-70.5671
-51.3793
-7.86318
1.74947
-5.37442
2.08152
3.17877
-0.126151
-46.204
-43.2578
-121.769
-106.52
-95.7631
-30.6153
74.4002
110.753
30.6217
26.4158
11.7175
26.0554
27.6795
16.5044
38.2406
34.5415
-39.9631
-24.3312
13.8331
39.2072
68.0309
57.5913
18.7148
-43.3692
-66.8927
0.899312
60.6778
56.9297
36.6955
-26.2739
-25.4711
-67.8379
-23.1786
10.6123
-34.4744
-53.8987
-8.89244
20.729
20.1007
-63.6259
-64.6413
-31.1765
7.93753
70.3705
95.6995
66.205
104.313
18.4173
-84.4693
-105.879
-98.6293
-18.1113
-25.1223
-44.0023
-27.5313
-13.5386
101.764
69.1927
-32.5167
-22.528
26.3346
93.7226
28.0696
-25.1217
-10.151
19.1211
-83.6398
-56.5572
-2.18294
6.60839
18.7821
27.4489
24.8985
55.6708
96.4286
69.4263
-89.7401
-90.3127
-34.3474
44.5473
54.1715
-25.0165
-7.18243
3.13823
-30.6099
-51.3443
-44.5455
-24.3555
7.79237
5.86897
65.4321
77.593
41.2774
-9.88082
-61.1156
-71.1492
-55.7991
-58.2984
19.4164
84.3221
177.551
95.3862
-15.1518
-31.4873
-22.295
-20.2916
-27.2227
-5.26631
-22.6366
-41.3148
-94.4815
-99.5628
-35.5539
62.5912
91.114
67.5055
28.0858
19.5428
-5.65204
-36.2655
-97.6631
-76.9461
-5.4743
1.52591
-34.7655
-18.0403
-0.274352
-5.66022
17.3102
30.7645
85.8545
108.243
10.3089
-79.9847
-79.6307
-3.55505
91.2792
72.7623
35.6885
17.6836
33.7321
-19.4714
-64.7059
-57.2087
-29.3091
7.39435
40.2481
64.0535
95.2782
43.7487
-113.911
-89.0275
55.6544
70.4868
-10.0545
-40.4532
-69.5565
-44.8391
74.858
56.1537
-134.785
-92.6388
75.0267
87.3571
7.01201
-36.1805
4.665
71.8599
6.44653
-23.2694
-2.73972
-9.67862
-45.0551
-78.8406
-28.009
49.2398
14.7545
-22.6818
-56.2452
-25.0425
18.1766
17.6038
-20.3302
24.7563
46.2141
32.2877
-24.1355
-83.013
-28.9011
18.16
68.898
63.6925
-30.314
-31.9504
-27.1751
-48.3416
19.4864
80.1649
81.0464
59.3701
17.8321
-48.3535
-77.4305
-48.3268
12.3655
32.2323
0.577914
-30.7063
22.9324
40.5963
14.9176
3.50366
24.2977
21.7411
6.84774
-12.9704
9.30577
24.601
-72.0587
-100.298
-49.3685
8.22641
29.0561
54.0899
54.6213
45.6982
21.6617
-102.523
-43.1602
37.0551
9.8925
-7.96289
5.23378
20.2616
31.2912
-64.1322
-63.9224
-1.15649
38.1118
43.4544
46.7358
42.3178
25.3116
-49.0456
-49.6347
-47.225
-12.4125
83.4684
10.037
-60.5912
20.0192
4.25085
-3.7506
-37.0748
-32.6297
52.4261
13.9584
-49.7546
-27.9107
37.499
85.0222
-16.9145
-59.1872
-46.3538
-13.5851
5.21485
4.53553
20.3001
3.44035
-30.8069
6.60714
16.711
10.3355
12.9182
4.89454
44.9587
63.525
-45.7358
-72.0685
-86.6298
-68.0146
10.4982
20.297
60.371
109.482
36.6073
-18.4933
-39.3525
-68.4017
-55.5822
3.58893
151.104
113.498
16.1019
-45.7531
-75.6312
-30.34
65.6083
40.9347
41.5825
19.4571
19.2131
-54.8471
-60.4033
-75.8905
-52.3649
-25.1534
0.561797
-17.9363
11.3796
39.6059
-25.5456
-5.68668
26.3406
25.9013
-2.02447
-11.3554
-1.07616
33.0557
61.052
-33.1916
-45.0921
-16.5578
-45.1759
-22.3072
26.2791
60.1816
123.304
53.9638
-5.01473
-58.2953
-95.8373
-75.7063
-30.0675
21.7846
83.3243
-0.937516
-32.4665
-35.5826
-58.4233
-1.01537
46.691
92.7534
100.609
0.0911096
-30.7932
-34.376
-38.0792
2.72634
5.26205
1.69144
82.3733
50.9248
-6.34161
-55.9837
-77.4347
-43.8976
-12.2552
-4.98983
-29.0397
-1.15205
44.0823
11.9844
-21.4927
-33.1648
-79.0387
-87.7387
-9.09672
179.215
217.504
24.4262
-139.315
-34.5901
102.939
45.4461
-35.0298
-34.9064
17.456
51.2891
-9.82313
-27.4586
-58.9503
-10.7557
15.6619
13.4902
27.3439
49.8727
-36.3556
-110.152
-115.465
-37.1784
2.3928
-20.5329
-46.6255
24.4251
46.2156
8.26914
-0.907038
12.2074
36.0607
28.6204
24.3184
16.5228
62.284
102.756
-16.3203
-42.2188
-23.7318
-41.171
-68.0364
-45.8546
21.8671
120.373
57.5363
-16.1917
-14.8814
30.6638
-1.16402
-50.7001
-30.9909
10.944
20.8395
-33.8456
-46.1936
-31.6401
52.3968
29.2514
-26.4786
-22.6277
33.8888
89.7733
25.8704
-76.4517
-62.6412
-13.5171
0.626172
62.391
14.3379
-23.1299
-18.3677
-7.69135
-12.467
-1.01369
9.91963
39.3125
-12.5932
-21.4026
-22.8289
-46.8001
-47.9435
-13.7866
31.28
44.6615
51.2917
52.6122
-18.6569
-56.0623
-32.18
-30.731
-45.6303
-14.5255
83.7925
126.979
29.3431
-27.99
18.7818
27.2536
23.2885
18.3814
74.1147
77.006
-77.0158
-135.942
-109.682
-58.5363
4.77997
-1.2697
-0.845886
51.2257
98.0646
-21.4875
-82.5129
-36.3955
-2.34822
-22.5068
5.17023
32.7498
34.6223
-41.3717
-64.4543
-36.3852
85.532
58.3847
-16.9268
-12.4536
34.3786
27.8513
37.4067
6.16014
-23.4054
20.37
-0.968575
-37.3856
-9.43114
55.589
51.7381
-15.321
-49.9584
4.00858
-3.22002
-46.6529
-49.8659
-14.2598
42.6199
1.20096
-40.1879
-18.1911
-2.52931
0.649497
10.0534
49.0827
61.7397
7.39493
-42.4803
-47.5196
-10.5627
38.2492
62.1881
55.295
57.1946
-45.8665
-65.0839
-38.2099
7.31665
22.308
36.209
22.8662
-0.67053
-66.2766
-39.3642
1.21511
-30.0366
-43.227
10.6727
104.931
71.5183
-26.6291
-40.7201
-31.1322
-88.5731
-62.2266
-14.6681
9.10418
76.7367
121.374
50.5984
-8.10931
-28.9373
-5.09578
-35.4495
-61.3455
-42.9662
18.7801
58.839
-113.553
-107.017
-30.577
7.1599
54.3728
62.1715
61.6171
52.6726
40.7808
-46.0559
-60.1767
-21.1792
14.2383
36.0167
56.0856
62.7208
79.0681
43.042
5.83379
-47.0736
-17.8375
11.2535
30.0662
47.8409
6.98039
-40.3249
-36.5022
-31.3478
-14.876
-17.9984
-25.7428
26.0749
-1.08711
-57.1384
-37.8859
-20.8608
-33.9898
-33.4403
-37.3924
-42.9173
1.0623
-9.56965
3.86537
12.9633
37.3639
87.3218
79.4738
58.2961
5.41931
10.5824
-13.8212
-97.1013
-71.5445
-15.3568
36.6032
24.2557
-12.3353
7.55645
26.212
-18.5341
-26.5915
1.139
30.557
23.104
-24.0964
-25.1884
14.5073
-26.5088
-27.0041
-72.8294
-52.2106
32.2848
87.7145
153.111
157.752
-0.451972
-43.3333
-43.1895
-47.6007
-12.8258
-0.627179
-0.19203
-10.1056
-0.944173
-13.9692
-29.4338
-22.4762
-6.57163
-3.61907
21.5615
23.8581
33.4087
20.7628
-54.2138
-101.051
-13.5662
33.0828
41.1864
19.5309
-10.1113
-3.12701
70.2417
62.5919
-48.0353
-34.641
-20.9002
-35.4076
-31.6231
-9.11278
50.6299
24.8781
-22.0978
-49.8598
-33.279
-28.7264
2.08601
10.9338
23.337
25.7586
66.0853
22.4819
-50.7522
-66.8393
13.8281
44.37
65.3765
17.7836
13.0494
20.6784
-26.1809
-14.7889
-13.4082
-7.28461
8.97661
-40.954
-56.3922
-13.9665
-13.0886
-12.8499
-28.3958
-4.20513
38.4844
104.396
77.9402
-43.251
-57.9282
-25.5986
-15.2137
-27.2874
-19.0072
-1.56871
4.62005
-22.3328
-5.72881
40.5808
69.1971
49.4276
17.896
35.0483
92.1708
34.3629
-37.1094
-80.3102
-84.2402
-21.9677
-13.2476
2.6236
21.4143
46.487
57.4234
-48.3385
-89.2746
-33.155
17.385
55.9803
53.5236
45.4548
47.5959
-70.553
-88.6138
-33.3246
-15.6851
-20.829
-9.6143
29.0218
10.6287
-100.102
-13.9014
85.5083
45.5994
31.0041
33.123
27.9949
26.2609
0.516066
-71.4635
-41.8193
-33.3854
22.6854
1.47708
-11.08
5.05483
30.2612
22.1278
-34.7965
-46.8657
29.2066
22.6401
4.54911
6.8277
52.6496
16.3884
-39.7462
-55.4787
-33.8953
16.3456
-24.5249
-35.0939
40.7901
24.6954
-9.34419
3.2401
4.4533
-5.25001
17.6344
68.7954
86.8193
-23.5577
-112.718
-35.1439
21.5022
10.6837
7.78461
-10.9308
36.9888
50.0284
-34.0361
-40.8919
-42.9185
-64.0832
-47.9304
3.93482
93.4727
137.239
82.1712
-62.8452
-47.5681
-1.28305
-18.917
-57.4521
-36.8133
36.9139
56.1569
41.5237
-66.0828
-109.09
6.34012
64.0619
35.9697
40.3767
58.4497
9.69814
-34.0748
-59.2933
-50.5249
1.9331
2.62118
-3.46379
-2.20475
-0.997774
28.68
33.5844
-32.447
-34.3555
-7.0362
36.4493
2.79236
-41.743
20.6358
22.7874
-19.5431
-11.9235
-13.0306
-16.4756
26.2395
86.9936
93.1688
33.2444
-2.78121
-59.0419
-61.9812
-58.9823
-11.7856
-22.1162
-23.3866
67.3385
101.206
-36.3441
-61.1651
-16.2444
25.0392
12.9157
-28.4077
-19.4234
-12.4545
-61.8289
-41.4111
3.35454
-11.0846
0.617592
1.32369
33.9126
23.4522
6.09515
-4.12533
-38.2155
-66.0463
57.1331
68.6748
56.0957
87.411
123.208
37.8817
-34.9557
-31.8619
-20.7011
-44.7927
-15.4731
60.6436
101.288
-77.7902
-116.287
-44.029
-3.50607
-29.1198
-27.5611
64.8196
88.8422
-28.7891
-72.3441
-70.6233
-97.0505
-88.2915
-45.2307
20.8955
103.875
112.933
24.0351
-66.6452
-71.3726
22.0701
56.5355
47.5411
4.9634
16.1733
59.9285
-6.01216
-36.297
-16.1386
-31.2494
-28.6019
24.3374
116.218
136.67
54.8702
-34.8864
-45.7574
-37.4426
-22.3941
-55.1258
-51.9207
-42.554
-21.1768
100.852
133.602
26.9654
-36.2954
-48.5473
-15.9938
37.8145
-4.14069
-57.4906
-92.6348
-87.4315
-50.909
-30.4864
-23.389
41.5766
26.4559
-5.25139
28.3826
16.7237
-3.20728
-60.7426
-63.1892
-41.2214
7.52247
58.8666
23.5036
53.3785
79.5897
55.4351
22.5408
3.70481
17.4315
25.7066
-17.7228
-29.8569
0.247462
26.3612
14.4787
-7.39591
78.9107
59.6958
-17.705
-19.5552
-38.6686
-45.8094
-9.14331
-32.1208
-27.8519
-24.2854
19.5649
-4.11418
-45.9278
-29.8724
-21.7396
9.37738
88.0496
66.2013
65.5574
21.3442
-47.7058
-86.9924
-47.8343
-27.1155
-22.2112
2.24517
74.0686
13.9665
-17.6687
-20.8726
-35.7877
-22.9778
-6.99536
-3.68957
27.76
63.5165
-17.3147
-48.8968
-28.1288
22.3617
15.0442
15.3197
31.1454
56.0772
37.692
-25.8398
-59.732
-17.4193
11.064
-13.9832
-26.4405
37.4155
40.8335
-21.015
-25.1208
-61.3032
-45.0199
-13.9967
-1.04413
30.1619
34.6583
18.4284
19.5279
14.0281
1.14208
6.20963
8.1967
34.887
-7.17477
-31.8885
32.6698
30.7178
20.2546
45.3926
46.515
40.0893
-30.1397
-69.7096
-35.292
-78.4225
-62.118
48.7144
104.887
21.4858
-6.16301
12.3746
-17.2189
-26.3262
-16.1799
-5.21584
-45.8203
-40.3226
7.25184
10.3928
9.77178
-41.5439
-39.7785
6.53351
13.4461
71.9391
12.7846
-51.6891
-34.4085
-5.1154
-3.06554
-37.1647
-12.0225
5.43602
10.9916
17.2319
25.9082
-14.2681
-55.6735
-37.609
-18.2147
40.2794
77.6389
81.6984
80.6649
41.3789
26.888
-28.3897
-79.3943
-26.6041
18.6975
38.0217
74.3861
49.7556
-42.161
-39.7914
-61.0586
-61.9989
-14.5968
35.9782
12.5308
-13.1307
27.5411
22.2256
7.62398
-28.664
-46.7037
-54.3547
-28.8593
36.1117
47.898
-22.5428
-52.4839
-54.7355
22.4729
51.2731
40.7538
61.5344
77.654
-32.6116
-27.2384
-26.6507
-36.4485
-16.3568
-29.7326
4.25687
34.963
17.1948
-19.6168
-63.3399
-30.0125
29.1205
-16.8194
-22.7018
72.1401
78.1478
62.3549
-0.942843
-47.8243
-8.64882
-20.7073
-45.5558
-36.9837
58.0736
129.13
-0.90781
-66.4962
-34.7568
-18.3254
-36.6579
-52.1854
-27.684
34.4252
74.1469
-39.582
-41.4546
6.33917
41.7266
16.5325
9.61678
25.0361
41.0858
10.4897
-75.4365
-89.3165
12.5014
46.1109
55.5067
59.1692
50.1166
-35.0107
-56.6227
-12.1256
23.0392
34.8544
-5.85248
-36.508
-3.5991
16.4927
-41.1155
-62.431
-46.2914
39.0461
76.6205
-2.19823
-14.7704
38.0643
-2.24539
-15.517
-13.9219
-0.801977
-1.24771
-26.1969
-33.0193
53.7196
67.8759
-21.6155
-75.5441
-60.1487
1.75245
14.829
16.5291
0.663865
12.4951
-25.7765
-67.7857
-35.5496
73.0109
71.5792
17.7054
26.8809
41.3368
2.56059
-14.5602
-20.9721
-20.5019
-10.4149
7.16014
44.872
80.1599
80.6962
-14.4936
-103.71
-107.45
-29.5398
64.5652
51.9737
-1.92434
-31.7813
2.17629
-15.7942
-14.8682
1.94422
-4.40492
-33.9036
-30.9669
24.651
78.9798
21.4535
-54.0508
-35.9496
-0.459807
22.3271
10.549
-15.4237
-19.6998
-4.20013
-11.5595
-0.101903
-60.0434
-9.772
9.64154
-9.86207
-39.1863
-11.5733
86.6575
70.0051
-50.3266
-34.9282
12.2663
42.515
92.722
43.7643
16.3831
51.4318
24.9577
-24.7712
-33.6829
-33.4373
-1.61869
5.08125
33.6865
45.3199
-40.42
-49.0502
-76.4743
-59.4254
-15.8303
-16.7562
15.7279
-17.3846
-19.2653
32.6016
19.6285
-7.25603
4.90184
5.54687
41.7087
26.2649
-50.5123
-36.3535
-20.9847
-6.38774
38.6936
22.602
-13.7589
-1.59618
59.2717
37.2538
62.3129
-28.6735
-42.448
-32.1986
-12.8928
-26.2178
-28.3727
42.574
-34.3955
-40.6286
18.1342
15.1568
-5.14541
-5.4119
30.6144
23.0264
-11.64
7.34563
59.1691
41.7704
-42.1826
-25.26
-7.34089
15.0548
30.7181
68.3713
7.50714
-98.0662
-57.8544
2.24737
27.6984
9.47553
22.8159
91.1942
35.2164
-79.9654
-74.9001
-21.3617
-5.7056
21.3118
12.3798
64.819
56.2897
-49.9373
-81.1224
-107.89
-71.1893
-48.586
2.05312
82.1175
63.5188
56.6719
30.729
-61.9981
-23.0467
61.3307
76.276
12.4123
-63.2706
-49.3132
-2.2699
-68.3258
-0.062174
77.4626
46.3044
-1.73181
13.0518
68.5977
53.318
-54.3341
-35.94
-7.18422
-11.6892
-29.0111
-4.59257
50.1603
19.195
-48.2991
-37.5508
-8.56428
-11.6403
17.2704
-16.093
19.8642
9.76914
-10.0262
10.7485
-15.5013
-40.2544
-40.877
-8.70274
76.8358
90.6894
-7.63564
-65.0201
-53.4527
-7.68891
23.7591
11.6975
-0.887532
7.409
62.4897
14.1516
-20.9493
-17.1154
-2.98261
-14.696
-28.0625
-25.1174
39.3191
52.9894
-52.4753
-84.0542
-1.70134
40.3714
72.2639
32.7767
25.5238
43.2175
-17.8411
-31.8895
-33.9339
-39.8457
-27.2366
-5.30966
5.17762
32.6615
9.08426
28.0115
9.33547
-16.9602
-27.7667
-26.5351
35.0784
81.2836
-25.9186
-41.4059
-7.59674
-36.9012
-8.95524
4.82766
18.0772
39.7846
-25.9685
-6.03231
10.9813
-0.416409
9.97786
-0.955201
-10.7047
29.9887
39.4018
-30.0771
-49.5337
-46.3017
-1.67013
19.5847
21.3441
37.594
46.6409
0.134466
-28.222
-36.7891
-2.80141
7.59383
5.62948
22.4262
38.1951
-41.0926
-57.5629
-58.452
-29.6447
23.9191
23.5108
40.9025
66.2784
-32.4753
-47.4068
-35.3836
-7.49175
24.4016
20.0582
3.97695
46.3702
48.7402
-1.39502
-65.3637
-65.4138
12.7304
29.3742
13.6005
16.3214
71.0324
32.2499
-84.5653
-95.9238
1.15646
47.6042
-0.0770408
-12.7151
38.0701
46.7721
8.56452
-40.5841
-44.619
-4.93965
19.7655
21.3652
28.5275
34.6139
-37.4102
-56.2123
-57.5113
8.91009
53.3361
27.6723
32.6467
32.1282
13.0044
-26.4162
-52.1905
-33.3834
-2.95416
43.1042
45.6987
69.3807
-14.9753
-57.3236
-57.9993
-35.3406
46.572
46.4718
25.6401
21.4409
10.3817
-49.5841
-46.5768
-84.7279
-53.3304
2.4434
24.426
26.449
67.097
-35.2945
-66.9906
-47.3919
22.7001
60.6484
49.0567
-2.48846
-21.8301
4.54355
0.10124
-42.4916
-22.5225
17.6736
16.4834
3.24892
34.2712
94.1745
80.6056
-20.0653
-62.8864
-8.52852
23.8738
-11.2199
-8.18617
-1.96621
0.246649
25.7195
28.8956
-49.3628
-45.1457
-32.4666
-22.0491
1.88982
5.5646
26.4882
2.68408
-57.5623
-53.7084
17.5357
23.7727
14.7552
1.79145
57.2169
82.3902
5.16744
-30.9605
-57.6233
-56.2546
-8.0971
2.97199
13.9569
54.2964
11.6401
-15.1122
-7.4257
7.25696
6.02332
-9.85715
-21.3418
-21.6416
30.5969
15.5296
-23.9194
-34.4536
10.3245
22.1205
12.6896
24.7264
56.6167
0.485132
-20.9613
-40.6622
6.00776
37.5331
28.0841
47.9834
17.1529
-45.7181
-52.198
-49.7327
-52.5136
-46.7527
-23.8299
46.845
74.3131
50.2854
19.1868
-11.5743
-26.2333
-11.1123
8.24893
46.2402
-20.4325
-91.2227
-86.0856
-69.9668
24.0839
119.061
79.6079
60.2348
40.2451
27.2428
-13.2362
-82.4784
-90.798
-51.603
-26.0728
4.50023
28.3462
-12.7289
-21.6363
-40.9597
9.49575
59.1491
59.8275
27.4154
5.83594
36.8565
1.06592
-48.3933
-30.7991
-29.7967
-25.751
12.15
34.2378
50.689
23.6021
-12.1694
-26.0562
18.9708
27.5859
-4.32007
19.6255
56.1964
6.95546
-43.3655
-63.1666
-81.2992
-13.2634
41.0523
48.2135
99.0251
51.6126
-34.1951
-47.7154
-43.7562
-24.8361
-27.9857
-42.9545
9.77666
17.6795
-29.3606
4.51287
7.68422
29.3492
25.012
9.97036
6.62327
50.3701
-14.8326
-38.999
-51.1514
-19.8455
7.5783
6.97838
21.9987
56.088
-3.38397
-3.85758
-10.7095
-23.7501
-2.36335
-25.4895
-15.3641
73.5103
58.4233
9.6604
-35.7099
-50.4033
-7.45931
-5.52767
2.46931
24.5736
17.729
-4.04548
-13.9761
-43.0458
-19.0249
12.8615
29.0926
27.9172
85.1457
30.8073
-66.13
-90.1548
-56.8909
-36.0924
-31.1101
-23.6024
33.5211
38.2537
-15.2837
-18.3474
6.8932
15.9378
-9.2757
-17.1904
15.6963
39.3414
3.67975
5.08878
-12.9541
-5.09444
53.0716
50.0802
45.347
49.9848
15.2435
-65.7139
-33.0899
8.85887
19.9898
-0.896027
-10.7843
37.9214
22.6399
-23.0863
-4.45271
-11.9042
18.4618
9.03352
-13.3737
28.026
-12.6126
-75.0673
-51.2376
-24.9394
3.98281
18.9188
-11.6389
-5.16337
-2.95224
1.2127
-9.08324
-34.7826
-30.4323
0.47808
62.6672
117.594
38.39
-65.049
-78.0107
-48.0508
16.3449
33.3897
27.3812
4.56981
38.0813
104.182
-14.666
-82.582
-50.4595
-26.0085
-0.657227
-8.93351
14.8762
93.5092
-7.64988
-131.461
-82.7072
-10.3708
0.634154
-15.0925
-6.57015
48.743
93.8752
113.168
32.3493
-27.0366
10.9539
21.475
11.1885
2.24298
6.91475
32.4638
-27.976
-70.6858
-46.9566
-28.2924
-22.1182
32.6552
62.1855
57.0011
15.4586
-49.4831
-109.217
-110.228
-33.6075
64.0697
84.253
54.1827
41.0844
-17.3622
-18.9516
-36.3161
-14.6546
-13.1457
-0.551414
13.7463
20.8255
35.5353
-1.39878
-34.4737
-34.8667
-17.2671
-18.8338
-54.0802
-13.537
89.7573
76.6347
9.0847
-16.2364
-3.5565
-14.5041
-9.36226
21.7456
31.2648
14.112
-1.90097
-37.3699
-39.1931
-18.1846
2.97945
55.5319
82.7538
1.73013
2.21831
-28.8264
-134.196
-128.677
-52.6518
62.7615
155.051
78.8243
-8.2846
-26.8863
-56.4296
-46.8497
-17.9418
68.7038
132.268
64.3567
-24.5328
-55.5377
-53.0024
6.35295
17.2623
0.757631
-25.655
-10.3064
44.1549
-62.7944
-69.1914
-24.8096
-10.4049
-11.0255
-1.87712
16.5366
60.2707
81.7227
-63.0026
-58.9602
-26.6159
-5.77129
16.8164
82.3002
49.1514
-3.88749
-59.4294
-13.0724
31.3927
37.2631
-26.4787
-11.5357
54.118
50.9891
8.34106
21.1115
-8.61574
-72.9099
-57.6753
-12.8639
97.0261
67.0031
-53.2367
-81.1097
-64.6841
-19.2854
26.3781
43.0143
-7.58029
17.0257
54.8938
-22.0512
-39.024
-29.3831
-16.2698
-19.4806
-8.68878
-13.6292
5.69993
27.7212
-65.9053
-54.5363
25.7309
60.9835
84.0133
75.5838
59.9944
18.8756
-45.8275
-71.2234
-63.3979
0.831958
3.89056
9.26765
32.922
25.3618
-27.1924
-23.7364
19.4271
9.4245
-11.7536
1.86326
42.6515
59.399
-7.54753
-58.232
-57.7232
-49.6366
-17.0139
-2.59017
-8.47044
41.1679
88.4121
102.595
-25.3305
-54.375
-52.0787
-47.4331
-27.2574
-1.85668
40.1447
48.6108
-3.71321
-53.9906
-33.9858
-6.50605
8.79901
33.7675
55.9956
76.1654
32.6467
-38.5957
-81.0851
-75.8084
16.2268
22.168
11.8734
34.5841
-10.5819
3.19248
12.8634
1.93436
-4.09648
-22.7856
6.12947
72.9932
7.65912
-34.7532
-37.7612
-44.2567
-32.7208
-1.46917
10.7735
4.63151
-18.2617
-11.5011
10.6285
-9.04503
-11.1111
1.27102
68.2233
65.5497
-36.8701
-52.0125
17.6425
28.2316
22.2731
6.31145
5.85797
12.4291
19.8692
-32.3426
-54.6171
-35.521
24.0825
19.3858
26.7074
50.3194
90.9928
43.3405
-67.8882
-94.7931
-29.6933
17.6568
10.0278
-31.3815
7.94281
51.0951
30.7642
-104.279
-101.487
-32.3774
-13.7588
5.34397
12.1764
25.8963
106.833
48.6583
-68.6315
-71.2006
-29.2525
6.52068
68.5722
49.0239
10.2965
-30.6474
-37.5569
-9.60345
4.82639
53.4103
32.3058
28.7279
60.4619
62.5617
9.94124
-23.7257
-69.4698
-63.5567
-14.9968
-5.49103
9.26574
0.38132
-28.5883
1.31029
6.47445
16.0043
8.11323
-46.8522
-27.2864
45.7849
14.0227
-2.3972
-2.65032
-0.268109
5.34617
5.36148
17.0969
80.6019
36.7441
-42.7269
-44.3098
-45.865
-24.937
-22.8233
-9.52119
30.0509
-23.348
-21.63
-20.6667
-17.6157
6.40454
8.58837
-14.5269
-3.88209
23.7585
24.1032
-13.475
-33.7689
12.9224
41.6347
35.8681
47.2338
49.3169
-32.0352
-43.5816
-52.4536
5.92359
14.771
18.5494
23.4755
65.3794
50.3445
-48.6151
-64.6319
-20.6569
4.3184
-2.93001
-41.7501
-23.6971
53.3218
83.503
14.6121
-13.2079
7.71903
-22.7593
-41.3213
-9.66796
71.4072
62.1073
-35.9053
-66.5915
-50.0243
0.588536
-10.1475
-19.3511
13.191
3.62783
-41.5413
-50.8844
-49.1922
-34.8829
-7.79355
9.13847
85.193
61.3653
7.21358
-0.0502027
-13.9429
7.96195
54.7342
79.5813
91.6667
43.8986
-43.593
-65.2357
-73.0438
-32.2512
20.5917
0.398366
-20.645
-1.59805
33.1356
7.27409
-41.8666
-34.5189
-3.62318
19.8104
0.732959
-10.3464
25.4898
-47.001
-69.1006
-28.7105
15.9387
40.9577
74.7159
67.5112
57.4154
4.7261
-28.1955
-51.4076
-42.6387
0.249972
17.4276
52.1466
70.5823
-46.0254
-76.7299
-51.7908
-23.614
10.8503
23.5835
64.9227
100.915
6.15138
-82.4684
-78.3546
-61.9317
-1.1243
17.6825
-1.75238
-11.0935
8.21913
-17.4763
-2.77413
14.2965
63.6086
31.2096
-12.9824
-20.503
-3.78139
9.28625
34.5217
-19.7079
-28.5884
4.94311
-10.5201
-10.1917
6.4425
-4.68968
24.3926
52.9158
-19.0972
-15.4253
-20.2338
-22.8704
2.41787
-2.63386
36.9401
35.6914
-3.56038
-7.67353
-46.0174
-36.6115
18.9912
21.7233
32.9869
27.7313
-34.9356
-18.1498
-23.6409
-22.1906
22.3456
32.1974
45.8234
8.49022
-36.8255
-12.4918
-24.0226
-42.9894
0.767049
23.1482
53.3809
81.5921
-3.36873
-6.53086
-30.1093
-33.7606
8.14971
-2.32847
-12.7526
7.79264
-22.6071
-62.7854
-26.4325
31.8808
43.7653
39.1475
12.0868
27.9807
-4.69156
-51.3047
-81.8122
-103.055
11.4157
75.1392
107.015
87.8836
11.597
-9.93046
-29.5317
-66.8255
-42.0311
4.08769
-3.01652
-19.7709
-1.72513
-5.68284
-21.5128
0.850726
30.1195
31.7245
20.2832
9.698
31.2736
4.88782
-84.4517
-68.9913
2.79704
34.1201
33.0241
33.0269
89.8001
50.2598
-41.5678
-75.6069
-48.8541
-17.2105
4.40839
-11.4084
-3.6973
17.6138
70.98
34.8222
-51.602
-66.868
-15.2914
-12.9097
8.93988
27.6448
39.612
23.9946
-53.2479
-29.0824
30.3128
63.4701
48.7923
2.77336
-0.0619055
49.6328
-7.23697
-54.7597
-77.9744
-38.8678
11.8135
4.87992
9.7728
53.9689
-13.5671
-52.3741
-56.1122
-30.8877
35.9781
63.2423
26.0181
41.0329
20.97
-4.24879
-28.8637
-60.2908
-12.185
13.2917
4.84761
-6.09446
20.3968
26.708
-3.89604
-66.0906
-27.3262
11.1547
37.1488
40.6534
51.4721
-55.5513
-65.7073
-77.9109
-30.4505
30.3817
16.9448
-50.8413
-25.9606
128.706
123.166
28.2908
-22.3666
-31.2444
-13.9607
-13.71
8.74844
18.3787
-14.7549
-43.1312
-27.0112
47.3233
53.3243
22.8011
16.1931
9.42521
-38.7652
-41.0291
-30.2198
-57.6612
20.5869
118.38
84.0908
38.36
-71.2514
-43.7826
0.033432
-23.1896
-29.8721
-11.8671
18.223
42.8318
-54.0395
-120.784
-62.6964
-20.0958
52.9803
59.7515
29.6771
-19.9619
-15.6364
-33.4274
-68.558
-11.988
53.285
35.8327
29.4885
27.5049
34.9026
6.20939
-96.9284
-67.6101
81.3032
152.917
78.3596
14.9944
11.0481
36.1143
-10.445
2.67379
-64.5888
-124.363
-80.5582
-44.1719
97.1449
136.186
60.2622
-25.9459
-65.2809
-32.1244
-7.29432
-16.5093
-11
1.5597
-42.4152
-42.5766
-29.5311
-31.9184
1.57169
-21.4664
-33.9141
27.1201
69.4168
12.0124
-28.198
-38.6157
-6.93204
19.9067
36.0307
24.1978
17.2172
72.5628
38.8363
-46.6553
-22.0913
-1.52153
11.8427
15.3939
12.8787
-18.9199
8.65533
27.4161
20.1079
20.1902
-9.2942
-38.6105
-37.9324
17.2282
74.8009
-2.51586
-16.2548
-42.2089
-50.6822
-24.5545
2.75095
40.5138
55.576
-21.7957
-1.43204
0.26268
-28.5675
-23.4602
-10.595
13.2256
-10.3221
-36.0802
-17.3039
-9.88542
-12.0098
22.2229
-1.6134
13.3487
4.16393
7.23408
40.2709
23.9395
-26.0412
-2.82846
17.0759
31.744
32.7469
4.70786
-18.9328
-17.6311
-14.3837
-20.5602
-20.2228
-5.61462
8.64254
46.1714
9.11395
-36.172
-34.0055
-10.7155
-20.4319
-0.719828
57.7654
109.325
72.9187
-54.6832
-90.1092
-54.7182
-49.8872
-56.3051
-21.9658
53.8958
91.0071
22.5525
-22.2555
-21.3686
10.0618
1.0079
-2.59806
10.7371
30.3397
-28.161
-62.0878
-57.3834
-39.7848
24.8611
39.0998
55.3604
113.963
28.8356
20.4335
-56.522
-47.335
-27.5286
-45.7421
-7.74421
40.0688
60.8917
119.856
28.0828
-56.5339
-57.205
-39.8993
-27.758
-39.198
-25.3019
7.2556
28.923
-47.9989
2.42912
30.8263
66.1952
24.2767
3.52604
14.4435
-7.44479
-51.3907
-17.8945
-54.7741
-0.246088
53.7674
98.6842
76.7376
-20.8523
-43.3965
-21.6279
-13.2539
-25.7064
-9.46053
-17.5365
-34.6511
-58.873
-0.935741
32.9819
-0.446693
-11.284
11.6707
-1.52676
-3.64773
-35.7367
-29.9188
-38.9095
-32.3025
18.9122
37.7827
50.0382
55.1518
35.2047
3.66093
-3.42445
-36.1648
15.9597
-0.412056
7.22676
23.7989
22.2358
15.859
7.35495
-13.5304
-17.5794
-13.298
4.51763
7.32193
43.9443
59.5647
42.527
1.94156
-63.2881
-28.5744
9.424
10.3255
-13.6886
-36.4098
2.15086
-6.6953
-60.4076
-52.8071
-37.0809
-2.74387
67.1537
28.469
2.13735
26.469
-36.3825
-39.5785
-29.4553
-21.4472
-0.448269
5.0766
2.41335
16.5365
37.5893
-3.62555
-48.5219
13.5002
34.9962
3.43053
-10.037
6.65531
53.7694
17.3617
-46.3576
-52.0121
21.7899
30.2478
4.24964
-15.2968
22.2524
58.5471
-7.50374
24.9324
4.77951
-0.215393
-3.81164
-21.7553
29.5496
55.6873
-31.755
-37.2933
-46.4517
-19.5551
9.38289
14.9093
23.945
-23.409
-33.3211
-16.5994
-12.443
-19.2447
11.3358
1.96827
65.3398
33.0509
-47.2827
-49.6806
-32.2647
1.61303
24.7463
39.9105
47.6848
52.9132
94.8042
-32.5332
-105.972
-64.6285
-29.7732
-3.64747
11.795
4.3842
51.5666
11.7297
8.5856
-43.458
-19.9628
-1.36015
8.7459
-9.53626
-16.904
-16.3767
5.85817
-11.099
-42.3245
23.7816
48.3562
43.372
30.9321
11.6165
34.5296
1.37108
-28.7131
-40.771
-82.9894
-8.09163
65.0493
83.7249
94.4426
-6.10008
-39.7354
-55.8327
-80.8691
-47.6166
-24.5961
46.6859
112.571
-0.787834
-29.6588
-1.88291
-30.3824
-18.4255
-23.4001
-36.6842
-20.8766
43.6928
62.8606
-46.1963
-91.316
-28.1995
19.2285
17.2311
7.69862
31.3067
72.0227
67.1346
-75.2333
-32.6409
-12.1214
6.41424
20.8147
24.0747
32.597
43.0069
-7.54735
-13.0244
-20.6975
5.89572
-5.19605
9.95052
52.926
84.2965
13.7935
-29.6983
-35.9951
-70.7842
-38.5915
-9.26998
4.90704
21.0958
43.104
-5.43075
-36.6578
-32.9119
-20.5694
-25.9784
-22.2451
3.04089
19.0379
13.8299
-34.6323
-52.1987
-0.279906
48.969
16.2682
-11.0663
15.995
53.7887
56.7335
-52.3046
-49.0377
-5.07598
-4.47244
17.8864
22.9994
20.2164
30.959
-1.64535
-21.0578
-6.63567
5.77603
-6.841
2.26364
31.7489
5.74182
-31.9654
-44.6336
-27.2234
17.5051
31.7644
-29.2617
-2.45789
9.3492
11.9988
13.1967
5.09315
-10.3571
8.7214
11.9712
54.1454
25.249
-36.3197
-25.7211
-36.9298
-37.1742
-18.366
8.84419
48.0351
14.0044
5.08186
-14.3489
-14.9485
-3.66475
-7.17828
11.574
38.16
45.1066
-44.2661
-60.374
-44.1404
42.753
63.1374
18.6728
8.75862
48.4779
30.9562
34.856
-89.5877
-117.928
-86.0801
-10.5552
45.335
58.1812
42.7464
5.85844
-65.0495
-40.9559
28.9004
34.0167
6.88447
-19.6291
18.1461
10.515
-31.0072
-43.217
-7.81368
4.93982
46.7037
46.0444
79.6564
46.7865
-47.4527
-16.302
-16.1722
-3.15314
2.10886
-43.8669
4.14789
-18.0971
-24.3582
1.02631
19.7609
6.61796
-15.5346
-11.9511
38.8375
62.8394
20.4369
-12.2871
-25.0193
-25.1075
-5.99479
-21.7984
-23.7756
30.2755
74.6866
-39.287
-51.2675
-9.69613
-14.1887
-39.9607
-39.5571
29.2054
36.109
-12.7304
-28.5247
-46.3269
-9.21359
58.1818
68.4345
61.5091
35.7458
-29.7943
-27.6798
-38.3823
-32.9554
14.9795
4.03307
53.3068
55.8823
41.4122
16.9357
-27.5471
-23.6246
-9.63247
-14.2841
5.72952
38.3409
-23.4739
-63.3164
-65.1276
-32.0068
4.59464
7.72832
-24.6993
-27.089
64.3789
12.9456
-21.9015
-5.74726
3.43756
-17.8785
-17.9651
19.9567
50.4776
83.5491
-22.3545
-52.3131
-22.8501
-15.8685
-2.91098
17.3523
23.9591
38.0262
36.2854
-29.2059
-7.0897
58.9358
27.0993
-0.404847
-11.0923
7.25997
13.4656
-18.3616
-25.262
-55.7768
-18.057
5.70542
23.504
71.0716
46.6788
-17.1897
-24.0882
-23.5229
-31.7821
-10.9254
-29.089
-0.0727994
-5.98307
-45.3509
-40.4829
-33.8695
-22.1143
-9.88655
-4.48978
10.0106
71.2647
61.3161
-17.0841
-43.7083
-32.9647
6.37773
16.5801
-3.12498
0.216264
50.5698
-10.8673
-32.5311
-6.43587
26.2509
29.2751
14.6191
18.4162
59.4219
41.3254
2.61703
-35.9952
-32.6687
22.2689
12.4023
-0.94485
53.5609
8.93428
-92.4635
-63.7623
-0.357294
47.0438
14.3003
-17.6275
-19.1145
37.4339
51.9969
-48.454
-66.9634
-39.0028
-16.6308
9.74907
9.34322
15.5751
18.3934
-11.5523
-42.5157
-35.894
20.1655
21.4398
49.6949
75.7995
82.6924
73.1859
6.97893
-80.7039
-79.4586
-12.7998
-3.86546
-0.474092
3.06331
40.681
28.0404
-59.1617
-74.1665
-37.1249
-27.0395
29.1716
69.062
53.3784
-1.21729
-65.2242
-44.4319
-30.1553
-6.97867
-11.8882
-0.764153
71.7891
38.0981
6.50362
-14.4043
-38.1803
-13.0774
36.5678
45.2581
86.9451
-14.3668
-41.197
-30.3339
-36.474
-48.3674
-15.6081
-10.535
-0.428163
-3.88356
2.69876
-4.00899
-10.0753
22.3447
25.1609
14.4571
10.0359
45.1043
9.2221
-36.6056
-65.4389
5.92771
17.0684
8.52898
11.8791
31.025
-9.30209
-1.70798
-46.7033
3.03758
67.821
73.5062
40.4993
-1.86639
-7.02919
27.5684
-28.1062
-62.6749
-12.8241
-0.452768
-33.4327
-15.1135
19.164
34.7858
-18.8025
-51.2925
-15.0486
-11.1082
19.3205
19.6085
-1.16079
2.9113
-29.8014
-38.1632
-21.285
-15.3831
18.9229
15.1949
23.8471
52.2752
23.9299
5.08728
9.21552
4.6151
-15.3567
-58.0559
-42.5226
19.3238
142.209
107.437
-27.7732
-71.0021
-35.8932
-9.38777
-22.0908
-31.3891
-20.4636
-1.5082
-17.5663
-33.73
-4.5774
5.63697
-13.7305
-12.2374
35.8357
98.5532
12.8372
-48.8729
-87.8439
-54.6034
-1.81666
-1.27881
27.3771
63.8196
20.2646
-5.35708
-9.16864
-7.07548
38.0847
52.4689
55.6391
88.1928
26.4766
-48.7017
-41.2825
-54.1647
-4.29522
-4.76974
-34.6484
-13.4086
-5.08872
-3.41858
-5.44352
-21.9958
-12.7109
-47.8874
-54.5081
3.6956
116.092
106.386
5.34746
-43.2662
-17.6731
10.119
-0.844965
-13.2655
10.1223
52.4895
63.5258
-38.1607
-72.7481
-46.0611
-37.8586
-30.7452
-3.31671
36.7719
88.992
37.5286
-97.1637
-89.4446
-32.3475
-20.7433
1.71084
29.229
58.2214
55.7543
-21.7659
-48.6458
-37.2092
32.839
74.4312
54.7101
56.1833
24.6771
2.33768
7.01646
-5.83321
-29.5631
-33.5595
-14.1527
46.5974
14.7108
-32.9445
-24.2217
-30.597
-42.3228
1.39719
-9.70222
-29.5786
31.0791
37.6268
-30.9197
-35.5115
-12.4342
12.224
8.55798
-13.7697
9.34313
-0.817065
-12.0412
12.7779
28.1244
26.1953
15.9497
17.0052
29.4426
-29.115
-7.79558
-9.68079
-28.4599
-8.92142
2.32548
8.14497
46.6371
15.1039
-6.52329
-12.8164
-23.1113
2.28723
-8.94649
-42.1539
-20.6188
72.895
6.25745
-43.6873
-49.611
17.8221
20.3568
2.2377
-18.6798
30.2204
113.284
12.1448
-90.2904
-43.583
-11.1721
1.61251
-1.10028
1.58163
-2.09181
19.6561
-4.38704
-54.0599
-4.5551
12.4544
10.7872
15.5251
-14.201
20.8572
54.2567
11.3909
-14.3313
3.30465
29.8921
29.4909
30.4634
71.9696
-17.8768
-47.4308
-30.5883
-38.4133
-17.8333
-12.1736
-11.0147
10.8128
8.19267
4.06556
8.11624
-21.9041
-24.3995
-14.7504
-39.9334
15.6356
46.2599
4.93002
23.5403
-12.3516
5.14605
8.05785
-1.45872
-6.41471
44.2285
-17.7827
-33.244
-37.7026
-21.1956
5.95609
2.5368
-3.06695
-12.1702
25.2396
-14.2038
-16.4881
-2.69957
13.6282
2.79193
-8.29171
-9.75481
-5.41287
68.6973
46.9288
-13.189
-1.08824
13.4358
8.12164
-0.36231
9.95325
30.3769
65.7194
-48.5293
-109.545
-45.5336
-10.5086
18.6031
22.2144
9.26649
12.9705
-7.67141
0.0929729
-34.1088
-25.247
-20.6859
16.8331
55.8592
30.9623
-27.8136
-8.08472
-5.00054
-30.2736
1.70323
0.42175
24.4348
24.4204
-17.8834
5.07648
21.8526
-1.81232
15.2106
6.70258
-22.4058
19.2057
80.599
-3.65355
-62.8572
-62.804
-18.7259
-1.0127
-0.313832
-28.0907
1.4576
42.8398
14.9003
5.312
-2.90694
-6.39524
-20.3184
-18.9009
34.4364
66.4682
3.40623
-32.5087
-78.0039
-29.2315
31.3401
72.045
79.2316
54.8143
-42.6382
-40.2663
-17.8276
-14.3567
-4.06357
-15.984
17.7397
29.7648
-39.7858
-31.6379
-24.2572
-22.5468
6.49114
8.6047
44.0168
34.5331
-37.9812
-35.7615
-30.9554
-32.6077
10.0034
15.7071
20.8846
69.3152
63.7632
-21.1571
-32.6163
-30.101
2.19546
-11.3933
-14.581
-0.715415
32.621
25.9552
-33.2407
-10.7739
11.6865
-6.53669
10.5721
10.8679
24.3402
55.3041
41.5988
-47.8862
-33.3052
-2.37412
-8.23929
1.78369
20.8772
15.2045
-76.1249
-72.0282
-5.7057
68.522
59.5178
4.14482
2.1241
34.0459
-38.6444
-36.5729
-6.63906
-19.5989
-25.8785
-26.289
-18.4595
31.2501
-25.9158
-67.1244
-31.6555
23.5756
68.7687
41.0887
-1.81353
-32.4907
-3.00029
-12.7673
-5.45259
-10.7796
18.4087
15.6071
-4.29031
-13.8014
45.5852
49.6538
17.9016
-5.61682
13.7981
31.8927
16.6817
15.1893
60.2904
10.5917
-23.3479
-58.407
-65.4611
-5.59922
11.8086
25.8467
96.885
-18.1754
-57.9986
-44.8019
-53.94
-35.3228
-33.3755
-20.3045
10.1728
47.8319
63.8716
7.69635
-9.82055
0.401807
-1.75631
18.9967
11.0885
22.026
33.1779
8.35747
-87.0978
-61.2754
22.9256
42.548
36.348
10.5811
-23.4365
-8.41248
5.70087
-21.7479
-49.6712
-47.9896
-25.4714
6.48091
25.5536
71.3976
-3.03813
-18.9645
6.86861
4.96452
0.191337
46.8535
39.5418
21.703
-96.0649
-104.023
-10.5701
68.7161
70.1916
12.6883
-16.8918
18.997
8.70903
-3.20231
-23.5963
-66.9297
-21.0467
8.08222
-4.37468
36.3165
22.2329
-20.2362
-31.3905
-21.5132
-11.9055
47.659
39.26
11.1563
23.0494
36.1461
-5.76728
-19.603
0.957279
41.4471
45.7473
5.6657
-11.7652
13.9289
13.4592
-45.4002
-52.615
-27.0727
-11.3574
-6.38225
-29.2396
-17.5381
-15.2477
-28.2003
-20.8387
-35.2849
8.01503
23.3756
-2.16729
29.1843
-4.11394
-8.8804
18.028
7.93093
-22.8961
-13.9025
-5.70294
52.9838
48.9891
39.8848
8.8858
-12.7548
10.8499
43.4008
40.2989
54.8961
20.2563
-30.5401
-40.578
-29.9467
-19.1142
-38.1105
-30.608
0.813451
2.8964
63.6058
56.1169
16.2282
-7.02211
-32.452
-26.542
-17.1453
-7.58755
-18.9301
-55.6018
-85.9784
-45.0572
32.1696
49.3062
-9.27635
6.32801
49.9069
27.3523
-33.1224
-33.9474
-31.4319
3.63294
0.225707
15.5352
56.1212
64.8268
-50.7691
-56.9536
-27.7738
-0.296549
8.04174
21.052
28.0645
45.1313
-33.7199
-25.8825
-3.83831
10.014
16.6739
12.3072
14.6724
30.2384
-32.3137
-22.6805
-24.1487
-21.2582
32.7111
37.8832
62.1759
-3.21992
-5.84957
11.4625
-8.94535
-38.4338
-4.88898
12.2176
31.055
54.4633
63.4236
-37.9532
-62.5177
-57.6107
-12.5685
-12.9428
-21.399
3.01223
111.369
20.5513
-70.0266
-36.673
-20.5787
-16.0207
8.44449
35.5673
64.8825
-7.94841
-29.9035
-44.1361
-38.1139
15.5894
-26.5192
-29.1369
81.4563
43.5086
-29.2685
-51.8454
-92.1745
-51.2007
-21.022
39.5093
74.5808
94.8476
43.6725
-62.7667
-55.1022
-15.5387
-3.57536
-0.0380186
-4.70596
36.1645
80.0436
36.027
-50.9368
-17.7511
27.3816
16.197
-9.86056
15.4848
39.8551
60.8634
30.423
-63.6633
-48.4531
-11.6909
-10.1767
8.63386
1.76837
18.1862
18.6863
-12.8545
-22.866
-15.3153
-17.6725
-12.4805
8.10392
68.5503
61.3371
-12.2484
-24.1561
-43.0931
-50.5339
-16.8402
-9.19352
23.1177
10.8407
-12.5
-6.55943
-20.6342
-23.3171
-4.99692
0.0840969
31.9438
6.73247
-5.15281
-4.10865
-37.7327
-29.962
19.8368
-6.84928
-1.87928
22.275
12.6454
-29.5382
-12.9163
-3.73914
0.805073
11.8239
41.9175
31.0944
40.8142
-5.27778
-40.6798
-20.6854
-2.4278
10.298
21.7394
14.3049
56.6765
49.8823
-54.1213
-82.8288
-52.3909
18.389
23.2947
7.54211
16.5354
45.3893
37.9303
-59.6527
-54.7142
-17.2852
0.401879
10.3871
17.8279
47.4632
20.2574
-41.597
-39.0196
-15.4049
27.4016
26.2206
31.5382
43.8492
-0.727192
-11.8313
3.37574
-13.8888
-34.4561
21.0427
30.4402
66.1946
57.8622
-28.0084
-54.6706
-65.1696
-58.0627
-12.3182
-13.0229
-3.69808
20.7232
37.1552
0.399394
-32.7343
-17.8521
1.26702
3.2201
-8.84552
-13.0751
32.3624
-3.24622
-30.9463
-24.425
19.3804
25.533
4.41342
5.62681
41.9926
29.7454
-44.5381
-38.3707
-40.7311
-0.116275
12.7171
20.0496
60.6541
-17.5512
-39.1811
-49.9942
-43.4904
-9.93956
23.3384
57.4828
65.9697
18.7999
5.15712
-1.66084
-10.0188
-12.261
27.3473
48.8253
43.3875
24.0463
-36.2316
-46.2751
-53.7377
-3.93011
5.7892
0.385252
4.00845
43.5502
24.955
-76.2862
-53.3556
-15.6926
-10.446
-7.40948
-6.74967
2.99736
53.2833
70.6548
25.2657
-4.58724
11.248
13.1055
4.55946
8.29481
1.87773
9.41469
-24.9861
-62.9603
-71.8785
-40.7302
-62.8617
-46.6763
-6.34995
74.5745
30.0036
13.0754
39.242
8.93448
-1.59469
-1.50611
14.6654
37.1591
-2.31626
1.89851
-7.51129
-16.3506
4.45444
4.48409
10.24
104.216
80.3444
-0.806483
-34.2595
-67.1173
-39.9112
-31.2955
-49.2498
-51.5311
-28.9159
18.9129
-1.20407
-17.0643
1.312
12.814
18.1579
16.5295
28.232
54.3998
7.32743
-39.8747
-1.4208
64.7067
79.2402
43.9348
31.0977
50.7909
21.7795
-47.1411
-38.4965
-44.7023
-30.7993
-14.8688
-3.48365
17.1297
29.2678
-76.3365
-74.4029
-86.9522
-65.2215
-51.6749
-21.9104
3.98453
9.42117
4.19837
-36.2573
-32.7012
-19.2234
12.5847
1.63146
-9.97622
9.20065
44.5281
32.7203
60.3766
8.59493
46.0096
37.3699
20.4554
21.0623
4.64417
8.97527
31.7306
56.9349
61.3241
50.2429
12.7835
-2.50455
6.0281
18.3045
45.9
10.4395
-30.717
-23.1866
-50.592
-30.6934
8.14174
12.8738
40.8819
4.61325
-2.98252
-12.3659
-29.7529
-54.5411
-59.5236
0.778216
3.51228
-30.7353
-11.3728
-4.04003
-26.4277
-15.6122
-23.2765
-0.166904
-42.9151
-53.0031
-31.271
-27.773
-38.7727
-16.6852
-7.97664
12.6978
90.6538
101.619
-77.0648
-115.36
-69.745
-12.0249
31.6385
64.7672
64.7893
88.1023
33.4601
-13.4814
27.0285
54.4964
63.7994
77.8619
68.2354
86.0534
31.2307
-72.1564
-124.18
-149.226
-71.9449
-23.8599
-15.1433
-2.7942
28.4332
-3.33911
-65.9416
-65.2933
7.47456
60.9048
97.7183
126.147
151.083
122.679
8.02657
-35.4317
-28.638
-9.1739
-29.1258
-19.3165
83.9157
179.055
2.36025
-73.5318
-105.789
-85.1663
-40.8112
-42.9202
-59.3432
-64.3404
-48.7695
-87.087
-137.764
-127.006
-65.8954
-26.6366
29.4854
86.7405
126.747
83.3153
-15.9172
-74.7755
-10.8992
20.7047
20.64
37.8237
125.593
115.112
0.617602
-56.7389
-96.4333
-71.2488
-54.3917
-46.8339
37.8286
77.7327
44.0204
72.5336
20.2014
-20.7217
9.15088
-7.96968
87.6163
127.433
50.6245
1.72515
-47.6541
-58.0391
-9.60316
16.1629
50.2772
-31.0442
-54.9786
-64.1229
-72.1617
-77.5595
-29.6005
2.18226
102.826
41.4008
-66.3984
-72.811
-1.69394
24.4085
44.06
58.6846
42.4746
70.0617
107.299
70.1007
-25.619
-14.6552
-5.23061
-9.8043
-30.8468
-56.5356
-63.7859
-39.9428
-102.741
-122.133
-29.5878
-8.42449
3.21372
14.3857
12.2941
25.9934
22.2975
-37.7061
-15.9207
58.3569
82.5229
54.0536
23.7649
49.482
-38.8918
-51.2472
-13.4244
-46.4622
-53.9753
51.1416
86.3126
104.649
12.6394
-60.6462
-20.8978
38.671
107.286
79.4976
-35.97
-114.207
-90.0738
60.0818
-65.186
-136.888
13.0732
76.6079
120.386
-39.6376
-277.551
-199.02
-53.3564
-186.49
83.6365
508.451
520.62
257.878
76.8892
35.8056
21.1077
-237.731
-371.929
-353.975
-166.192
-30.1039
82.862
182.472
160.143
2.83768
16.848
-14.5496
-77.4555
-71.9528
-136.593
-240.234
-301.574
-278.29
-225.094
-90.8117
12.1577
170.116
266.801
240.873
242.955
262.039
167.838
30.7844
-25.0214
106.045
271.604
255.585
172.886
183.08
122.724
-55.0071
-112.134
-60.6114
-10.351
-52.7993
-147.12
-148.602
-82.6
-29.5136
-42.4506
-29.2417
-33.0967
-142.84
-233.677
-162.504
-107.554
-122.339
-157.877
-67.2584
-85.2877
-98.4162
-23.0282
76.1157
76.0771
43.2726
40.5654
97.2878
94.8808
60.9625
119.778
134.649
124.075
215.402
138.485
128.585
57.36
-19.9539
-21.5367
-29.9091
-71.7574
-185.194
-155.87
-29.0115
14.4874
17.45
-88.6094
-114.629
-70.9366
22.6993
-35.1982
-53.6785
-60.5292
-159.74
-169.808
-78.1939
-1.1691
74.7742
195.598
192.983
54.0328
54.0509
29.6363
-56.0805
5.42294
66.5056
163.016
176.998
-74.3631
-183.91
-101.62
-126.818
-150.564
-58.5336
31.3031
75.7399
44.4413
-70.3915
-75.1236
-15.0349
96.3652
165.931
141.023
131.427
180.684
57.3352
119.365
152.925
184.362
151.009
129.647
89.91
101.914
37.512
48.4282
-72.7951
-200.314
-124.028
-76.5998
-44.9731
-38.4569
-47.8253
-131.926
-196.35
-281.685
-275.707
-291.342
-224.205
-87.1487
-57.3637
-139.261
-209.604
-179.855
-36.7021
31.1365
67.1274
124.786
213.375
142.922
57.8545
93.4251
91.7904
161.534
169.043
147.485
265.28
320.241
297.809
286.204
230.755
195.209
174.348
41.3946
-82.4833
-136.619
-251.855
-228.884
-293.919
-364.441
-350.131
-267.967
-177.285
-243.549
-396.507
-357.213
-233.761
-166.255
-45.6988
55.8773
21.5987
26.5716
60.8318
91.9568
73.8271
167.485
374.294
457.673
467.782
456.179
402.068
254.491
136.581
128.408
169.353
122.458
19.8901
-36.76
-103.932
-206.545
-141.82
-57.5726
-183.004
-190.38
-133.25
-141.497
-157.755
-146.372
-16.845
42.663
-53.2382
-63.5143
-41.1034
-24.2927
-25.2735
-115.457
-88.6974
-3.02445
-8.36375
-3.66702
-65.9321
-97.1963
-46.1457
-68.6152
54.7724
133.411
47.4768
35.1175
-9.1959
-43.9835
39.6567
16.3595
-41.5055
-73.2826
-81.5614
8.07382
-32.6491
-77.7822
-64.0008
-35.3612
22.551
120.276
267.176
318.173
230.344
152.571
107.949
7.20571
-62.7669
-46.3292
-0.991099
-12.1162
-120.607
0.996536
134.054
96.8859
71.7057
55.9802
47.493
12.5079
-98.0504
-163.445
-135.766
-131.157
-129.96
-97.5901
55.3287
10.5953
-80.6543
-216.883
-176.78
-157.333
-166.828
-136.94
-6.05745
118.246
195.57
48.7317
-2.16743
47.9164
175.915
190.698
138.459
202.215
265.691
140.686
-158.726
-195.158
-136.016
-35.5709
-26.3586
-18.6987
100.186
179.441
139.192
-9.59948
-106.331
-44.1473
-24.4089
-70.9
-53.6816
17.3817
-69.8023
-154.337
-150.555
19.1189
262.24
254.329
171.401
125.327
-120.722
-294.369
-344.653
-281.607
-193.688
-97.857
28.496
128.95
81.0725
98.7126
133.018
60.3161
45.5071
50.3513
-31.881
-159.137
-99.5583
-88.858
-98.0862
15.8269
247.184
384.486
336.487
204.536
78.6559
53.5743
-83.1683
-158.818
-154.601
-107.113
-82.9459
-47.5752
-0.199176
13.7021
-28.4233
-52.82
-94.5179
-17.0642
33.7371
-44.4181
-38.2663
98.1968
102.232
-76.0445
-176.928
-192.295
-90.1151
99.4632
244.827
174.221
122.031
-22.5427
-167.126
-198.403
-138.348
-76.3219
-101.733
-71.6254
109.526
172.747
106.637
33.054
99.4228
328.292
372.293
228.406
112.342
-42.1277
-239.525
-227.967
-229.176
-186.634
-88.5674
-39.9075
40.7797
196.841
162.154
74.576
-106.374
-201.954
-174.439
-145.364
-179.544
-162.316
-173.221
-138.369
-2.68238
119.439
189.223
225.151
185.79
126.06
75.2359
97.4626
91.8458
59.0657
69.2368
-1.90799
-53.4941
-111.382
-295.482
-221.49
-81.2566
-118.709
-1.51756
137.29
193.562
34.9544
-7.85207
0.0178484
-14.9967
39.2431
107.435
77.0294
91.7079
120.05
-10.1549
-25.4795
90.6166
104.82
141.447
119.886
118.354
29.2801
-16.077
22.344
-177.949
-160.411
-119.703
-102.279
-77.2846
-96.6155
-128.959
-112.329
-75.5436
-240.012
-193.016
13.1674
43.9822
163.302
252.917
138.087
74.5076
85.1622
-114.867
-229.406
-179.926
-105.177
-48.2389
-78.6669
-58.2125
54.4804
82.7174
81.257
162.659
310.985
318.269
139.651
29.2919
-91.0831
-130.798
-61.9863
-35.0624
-85.6706
19.9576
-21.2852
-65.3295
-33.6589
-47.1303
16.71
105.028
64.4794
68.2663
114.557
34.991
-40.5484
29.4164
-76.277
-106.536
-82.2983
-13.7689
-86.5094
-163.122
-107.132
-17.6353
-36.8417
91.1776
114.328
80.0984
71.297
52.5204
112.727
126.058
39.2732
-61.8186
-127.332
-190.19
-130.716
-35.7016
100.997
-31.1702
-99.3853
-3.06117
100.582
159.398
228.265
185.737
130.425
94.044
-68.0979
-191.708
-217.751
-151.151
-118.193
-160.183
-252.899
-257.784
-68.4026
1.88475
78.7081
335.205
541.715
423.386
145.775
12.4351
13.293
43.3132
-78.8888
-247.969
-198.43
-218.103
-258.098
-182.109
-86.7596
-17.0707
78.8709
144.226
203.701
115.246
-62.0532
-112.884
-80.1801
-5.38779
73.3017
166.271
264.002
79.884
-110.418
-105.135
-140.565
-83.8535
-64.9536
-58.7367
-28.0933
84.9881
154.652
140.855
133.234
58.0478
-111.806
-250.683
-256.089
-8.53147
315.241
460.251
335.254
144.677
-46.5271
-339.615
-389.132
-283.522
-151.749
-86.3424
15.6102
35.0922
-44.922
-28.8702
-35.1098
122.604
274.198
364.229
175.198
-128.894
-226.747
-346.685
-527.976
-357.03
-45.4932
322.932
465.536
451.062
433.01
250.116
-88.77
-227.339
-214.089
-133.38
-59.2729
-85.2521
-31.1241
27.4489
91.5569
14.9669
-10.2615
-60.0582
-91.5941
-159.62
-61.8266
132.618
209.993
64.1228
-21.7524
-2.55897
-21.5778
-72.8676
-43.9049
3.54349
85.5528
-38.9209
6.80572
-42.7619
-122.89
-38.5258
-101.728
-102.313
66.3469
215.874
136.751
30.9621
-29.7969
22.6689
21.3272
17.5114
90.4393
116.8
-36.6587
-103.287
-90.846
151.963
168.237
23.7475
-1.18705
-92.0996
-242.693
-196.428
-91.4823
-98.58
-58.9422
6.68241
92.9215
64.4315
-1.46956
-1.45353
4.23792
-37.9531
72.2595
53.7205
-57.8287
-87.3426
-98.6474
-10.401
0.155669
30.4131
37.6321
3.73294
70.5095
229.096
295.833
161.759
13.6583
23.5927
-15.7427
-138.542
-131.129
-46.3804
76.5658
-7.18793
-84.5836
-23.3361
34.2048
-32.251
-80.5761
5.14
57.0466
36.1012
144.645
70.8551
-31.4949
82.1054
183.582
179.705
-16.7952
-65.1057
-24.799
-78.5616
-254.25
-299.212
-248.049
-216.646
-173.287
-92.1289
-32.3712
-21.0654
-110.719
-70.4217
-87.874
-15.6984
134.349
136.928
158.934
145.159
61.9806
126.22
147.519
119.945
114.602
134.131
129.508
127.514
32.3227
-118.558
-54.6772
-8.31798
36.3502
-2.60606
-75.3791
-97.0956
-82.8197
-145.289
-258.618
-285.421
-35.7396
65.3781
22.6688
123.733
262.803
207.516
196.898
17.5751
-83.4112
23.2307
-17.2269
59.1264
118.818
-30.1076
-26.1147
111.214
120.134
-4.83577
-104.46
-74.3338
-161.014
-238.926
-72.5236
0.053795
-63.0086
-7.8619
-124.667
-189.119
-216.97
-222.294
-138.998
-24.7367
156.794
339.934
327.481
237.132
121.755
126.662
57.6836
-59.1017
26.1061
111.934
50.4899
-39.6171
-17.3246
113.369
98.6514
-27.7612
14.3455
64.2651
27.1295
-93.2154
-160.641
-150.923
-75.6831
-185.619
-170.596
-64.6654
-88.8034
-96.0073
-98.7029
-106.985
-38.1377
-96.255
-78.1362
-23.968
98.8199
207.806
311.671
297.212
199.338
-55.5562
-91.5959
-73.5931
-28.3127
-27.8637
15.6127
122.424
182.015
231.723
220.606
160.985
-7.2982
-145.543
-302.508
-360.367
-252.856
-157.58
-170.598
-68.8867
-39.2098
55.5098
109.877
138.222
86.9877
193.554
95.8141
-11.7375
14.8961
13.1389
5.49173
-12.2193
-129.286
-73.9088
-173.407
-170.661
-110.618
-23.971
53.4462
105.083
205.954
292.614
259.228
167.102
25.4975
-89.0989
-53.9332
-62.2481
-10.5486
46.707
37.3429
-72.61
-118.144
-26.5481
40.4258
19.3597
-29.931
-18.1095
71.9652
53.4104
-22.2613
-5.56038
-23.2852
-98.756
-305.172
-380.038
-254.071
-70.1731
46.1678
150.234
215.889
252.833
250.142
153.982
178.259
153.869
98.7058
-29.2974
-149.692
-179.012
-181.386
-217.408
-201.65
-194.759
-48.8066
80.7634
23.5636
-41.634
26.4449
-38.0182
-117.421
17.4886
235.364
238.483
281.117
274.122
166.904
1.4302
-150.205
-175.164
-102.379
-206.693
-152.162
-47.8873
20.5819
-22.3646
-23.7899
50.2259
159.736
107.673
135.742
122.021
1.90919
-108.944
-153.608
-49.8203
74.7835
175.312
126.236
93.6936
56.0504
64.7489
7.36131
-59.0318
-149.979
-77.656
43.5867
-119.398
-263.067
-244.862
-213.523
-175.99
-93.386
64.8793
166.223
219.77
107.629
3.38257
60.4296
21.7415
-53.8305
19.4646
144.707
286.447
212.317
-15.0146
-190.532
-299.509
-431.608
-343.48
-220.505
-141.786
-13.2513
81.608
216.683
328.91
314.684
270.482
247.924
243.295
216.951
109.673
74.7861
-101.721
-115.358
2.79409
-0.850706
43.9224
114.761
189.578
12.8141
-219.881
-283.832
-290.044
-296.281
-415.821
-360.731
-114.655
83.4979
-2.16754
90.5874
280.383
140.513
11.0774
23.3626
30.4449
49.825
15.4972
32.4371
62.6733
269.091
377.5
239.081
44.7364
-373.66
-677.003
-574.731
-314.979
-161.257
35.7143
103.397
118.997
133.788
90.3972
141.481
138.214
146.489
281.898
281.613
210.858
188.118
110.573
60.6503
136.668
308.857
403.652
249.035
-44.55
-259.45
-298.042
-496.108
-686.587
-526.756
-285.744
-175.676
-90.2797
7.08161
64.2269
121.129
122.321
-64.3611
-41.8181
-17.7035
28.5939
110.649
174.148
217.785
244.751
162.406
125.456
158.319
197.371
79.485
34.0994
35.8568
32.1826
-164.971
-227.872
-221.243
-215.36
-141.014
-134.851
-94.9759
-44.887
-121.981
-98.8849
-28.9913
2.97273
55.3793
135.163
173.512
183.973
48.2363
-1.03989
-32.7574
-61.808
90.4642
202.195
106.876
34.7051
140.427
185.17
38.6219
-71.6008
-23.9572
27.6597
-0.29992
-158.176
-189.209
-162.733
-221.686
-171.239
-64.368
12.7705
20.4339
10.7738
40.0844
70.4942
-15.7469
-111.032
-134.983
-95.4684
-37.086
83.915
277.807
281.565
211.856
228.127
99.5055
64.3111
96.7732
51.0799
-17.6834
-107.56
-184.958
-159.062
-152.346
-197.752
-142.887
-54.5796
-37.2113
-47.3389
43.7305
139.065
-50.5143
-201.766
-182.225
-44.3471
162.66
130.677
156.273
158.76
157.583
266.992
244.107
71.1312
-35.9
-106.236
-141.5
-182.995
-183.14
-75.2535
-51.0776
-131.902
-79.7209
-1.11977
22.5009
0.64027
-4.27072
26.2648
-26.8582
-65.0008
-22.2933
-26.792
19.6396
106.916
145.834
198.82
189.316
37.6591
71.4462
73.1689
94.1923
22.8291
5.72824
74.3434
-75.46
-235.304
-260.366
-259.099
-158.361
-110.665
-109.2
-37.0894
113.981
44.656
-33.2448
-13.4302
42.8474
131.195
86.7807
39.534
71.5806
143.311
21.2063
-202.724
-99.052
46.5519
95.5685
56.9594
43.7104
135.203
193.224
26.967
-54.8342
56.4273
133.453
57.4228
-22.618
-39.2058
-18.2354
31.9199
-18.9822
-124.339
-38.2668
-26.0463
-175.61
-232.026
-168.824
-115.903
-132.489
-101.596
-66.8427
33.6525
55.7902
43.8838
70.4737
66.9312
11.5185
49.3423
67.5809
72.1599
172.25
209.993
174.411
226.207
374.844
280.435
-32.271
-91.5023
-126.746
-219.344
-281.06
-294.453
-320.058
-239.524
-136.323
-25.7497
45.6198
53.5987
-4.98502
-42.6749
-35.7012
40.3165
-71.8259
-217.927
-189.071
-32.0224
158.07
244.842
291.773
288.449
204.063
172.295
167.135
159.707
179.013
114.275
28.8797
-57.5136
-339.11
-400.831
-376.171
-282.757
-100.536
34.8629
88.0966
74.6782
65.5437
65.2517
120.298
134.405
163.383
174.566
186.3
173.824
-0.21138
-101.477
-118.928
-142.55
-34.9544
-102.24
-226.402
-182.182
-22.3275
-54.8986
-99.5451
-22.7864
31.5486
26.6372
32.3349
25.0586
71.5725
98.2631
-79.1278
-117.621
-11.1357
97.2487
202.639
253.693
231.365
136.65
-107.756
-294.584
-299.306
-191.552
-130.807
-94.9781
48.6862
86.0026
-28.6015
21.2878
20.1356
4.77307
77.4412
-6.79371
-116.377
-203.605
-154.099
34.0236
252.978
485.11
736.912
677.743
352.91
152.823
-47.7244
-136.307
-253.349
-340.164
-313.876
-389.268
-432.769
-310.384
-305.681
-248.111
-111.012
39.8029
98.9039
43.0568
86.4699
201.854
112.517
-68.9306
-58.6552
-127.069
-153.993
-81.3278
27.3
100.287
99.7799
65.598
33.1612
22.1049
187.002
237.929
195.029
200.282
186.676
116.492
-60.6763
-229.82
-212.259
-37.2077
67.0542
241.851
483.03
490.924
267.355
118.65
-15.2616
-96.7833
-154.965
-354.525
-473.698
-413.644
-461.244
-423.001
-281.667
-189.888
-138.184
-112.265
-20.3069
38.9162
49.4206
72.9398
134.037
141.7
193.643
244.699
290.426
280.348
146.797
64.0451
182.179
157.287
97.6163
-61.6833
-168.506
-91.3768
-78.144
-187.797
-194.612
-155.414
-60.5829
45.5355
69.8384
157.671
-29.8372
-156.66
-22.2824
42.8056
97.4429
166.287
172.004
216.286
135.425
26.4014
-14.2388
-38.0476
13.6089
27.6651
-19.1217
-80.8705
-117.405
-156.27
-344.979
-372.327
-199.261
-75.669
-55.5026
-1.75018
151.405
217.423
98.2532
-27.7947
57.3332
153.388
157.35
132.025
126.094
150.293
207.92
207.064
1.19821
-38.9299
-39.0169
-94.2533
-97.5739
-171.86
-209.317
-150.723
-115.712
-149.983
-111.103
-127.801
-39.6898
55.2203
-11.4997
-82.4907
-32.5281
-142.857
-96.7116
-135.691
16.0062
129.676
199.776
224.732
320.266
206.324
138.112
60.31
24.5668
41.6292
56.3727
133.257
132.667
163.132
57.9489
-29.8856
-85.4304
-74.2193
-205.253
-188.902
-159.158
-141.753
-98.4143
-265.863
-286.619
-81.8334
61.163
117.888
143.119
188.101
192.21
-26.0523
-91.0467
-160.885
-62.4531
-1.99565
-5.52143
91.6338
221.331
210.152
294.255
214.341
-11.7727
-140.857
-264.121
-230.213
-201.443
-252.171
-228.824
-181.591
-139.932
53.7285
180.581
232.757
166.806
164.908
207.916
133.711
27.5469
-11.8177
-80.8661
-29.2136
175.604
288.341
131.767
12.5049
-61.7994
15.3024
52.2833
9.53324
-18.0684
-23.599
-116.407
-252.788
-255.241
-285.653
-296.197
-166.274
-140.386
-88.3801
97.2284
137.755
16.4606
74.5082
140.356
149.31
130.309
102.02
48.2538
116.896
69.1757
45.1643
-6.8487
-4.86955
103.04
114.521
46.0691
77.4316
-33.317
-147.646
-244.742
-131.445
-49.1093
-106.454
-16.4159
34.0457
-113.311
-152.647
-97.3434
-88.3419
-78.6281
-17.3814
157.31
291.136
308.046
261.627
178.726
22.1381
6.33925
67.7916
2.90602
-91.7447
-113.292
-13.1907
3.07444
10.3386
137.24
173.499
124.02
56.5642
12.9595
-185.758
-490.525
-481.474
-531.18
-471.963
-262.105
-8.89674
177.265
247.655
168.373
170.882
211.391
155.092
112.139
99.801
114.609
129.494
71.5699
-16.1501
29.7338
79.8333
161.525
140.961
159.986
183.769
254.585
81.088
-202.143
-289.786
-245.581
-253.549
-229.493
-218.174
-132.667
-43.6155
14.9369
-103.832
-48.8518
51.2846
65.6852
101.824
157.719
142.145
220.067
109.492
-65.8785
-67.2192
66.5702
103.26
86.6383
64.815
36.8155
-140.21
-163.658
-179.376
-136.216
-18.0036
-14.6651
-66.6436
-59.3336
-76.8867
-35.6568
-27.5963
-90.6236
6.40482
80.0478
89.8395
174.33
56.3358
61.1975
91.6229
131.507
218.893
301.815
350.819
81.8491
-286.786
-547.33
-583.123
-475.403
-293.633
-129.966
-30.2707
83.5113
202.779
146.633
105.631
113.731
243.323
317.48
223.629
67.8328
97.15
31.5267
-200.41
-91.8872
144.067
296.833
312.512
223.993
161.504
134.555
-16.6876
-267.967
-350.7
-295.882
-215.571
-178.328
-158.699
-185.993
-172.776
-39.7554
-130.331
-124.453
-55.8553
-36.3278
26.7248
151.694
228.331
155.403
-18.3996
-66.0164
-61.7573
28.9221
59.6129
62.8692
97.1325
152.498
137.277
43.9177
-53.4977
-31.1718
32.9454
-5.15546
9.42411
93.9088
225.21
150.448
-126.002
-250.813
-206.181
-206.667
-139.16
-62.0424
-21.0607
7.55342
-19.3694
-40.3093
29.5623
104.118
182.195
113.581
132.007
15.2389
-105.077
-97.6473
-59.4383
34.1606
203.406
284.982
351.979
223.134
-75.8953
-152.56
-53.5747
71.1295
94.5914
36.3885
-110.94
-325.075
-505.888
-462.28
-274.747
-119.1
-16.8241
26.9365
27.6488
70.9637
196.947
95.4721
-7.73966
58.9012
167.351
197.76
89.6466
-18.741
-42.6534
70.7902
219.825
142.214
223.354
199.773
61.8992
22.1623
-4.29397
-97.4562
-137.473
-196.055
-294.707
-134.198
-48.6702
-26.3347
40.7983
16.4201
-7.96201
-85.4609
-194.349
-248.643
-253.55
-49.0234
44.5521
60.1048
173.688
133.828
60.5432
79.6456
133.369
218.899
269.52
198.412
118.322
-92.0287
-288.797
-268.495
-250.527
-176.804
-72.2245
-33.6048
55.5885
268.164
243.111
62.8934
23.7408
71.8293
108.234
88.6993
20.0562
-43.8143
-4.00584
44.193
-85.1637
-78.4049
78.5638
98.706
95.6039
81.8426
48.5715
-13.5374
-22.708
-85.2708
-141.61
-125.81
-229.531
-173.635
-8.80414
-46.2439
-142.12
-198.562
-204.567
-161.541
3.74964
102.54
167.608
156.238
75.8698
31.0928
98.5759
111.937
48.5525
69.2416
207.776
231.51
52.1128
15.9025
-78.8919
-152.381
-131.679
-46.1504
-25.3643
-17.7897
58.9892
24.7045
51.4287
97.8169
98.7645
25.9899
-58.2118
-91.373
-108.28
-157.401
-189.321
-153.102
-33.2266
13.6649
52.3942
98.5622
127.395
147.68
94.5767
-3.95616
75.0664
195.588
118.908
-10.3327
-81.7032
-76.9942
-117.837
-189.711
-151.379
-162.448
-122.661
-13.6243
109.652
203.716
76.6497
-0.794232
-57.3548
-138.301
-99.3315
59.6162
112.637
179.15
171.527
129.122
71.6173
-3.65953
19.9015
57.585
26.464
13.0046
16.612
-177.192
-252.319
-245.86
-152.514
-42.6362
26.8995
84.7036
123.959
107.475
-25.8675
-166.278
-163.949
-101.941
-12.02
54.4646
127.101
204.151
46.8437
67.1758
43.2452
54.6882
46.8862
-37.2918
48.7029
127.004
56.9713
-10.8978
27.233
42.4884
-16.1666
-115.527
-157.435
-131.188
-90.4229
-159.33
-212.234
-170.018
-32.7923
52.7604
161.303
270.779
323.81
199.51
78.3932
35.6252
33.3309
22.4929
-41.9686
-121.669
-149.413
-28.8127
76.8843
-60.8588
-21.1142
106.53
101.56
-35.6961
-85.0002
-134.997
-165.848
-151.351
-231.167
-120.248
-15.4551
41.5057
107.047
147.436
166.711
118.067
23.9389
-75.9051
-77.101
36.2765
-22.2039
-57.2932
-21.7849
-28.529
50.8292
47.5657
47.9943
85.643
107.495
97.7908
79.0611
-152.5
-167.182
-56.4254
-92.2599
-133.6
-39.2591
31.4437
79.4587
52.5946
83.423
111.813
101.68
118.769
84.9631
42.2712
14.6291
82.4796
81.3769
-3.24357
-59.2473
-43.5363
-78.1407
-121.654
-61.5005
51.0964
60.2871
-75.7197
-274.027
-178.404
-126.696
-67.9955
-26.379
9.83904
30.5523
64.1169
8.36078
-57.4474
15.3044
102.381
141.459
201.415
109.96
47.4435
6.88464
3.76034
-16.002
58.0503
113.345
65.021
20.1686
2.04366
-60.2977
-140.579
-141.945
-125.605
-109.004
-106.279
-72.8749
-2.50876
-39.1249
-38.0628
30.9579
13.5075
-12.1505
-21.7344
-1.63828
56.7879
160.452
216.332
109.496
54.4184
56.343
40.8256
-56.8053
-76.1284
-58.7469
-126.174
-194.188
-42.0363
54.9117
-21.9144
-16.6604
37.4714
96.0557
18.5745
-47.5314
-14.0796
-7.64241
4.24394
99.8601
133.434
157.577
135.817
89.3031
67.4397
3.75265
-27.8192
3.83064
-122.305
-130.211
-163.379
-160.336
-121.556
-118.39
-81.7865
-12.1951
14.0228
39.1564
72.4456
-15.3993
-40.1189
-40.3187
48.1549
159.653
168.08
112.564
83.147
103.194
-144.738
-222.99
-74.6521
-24.1436
-23.7453
-51.539
-17.4532
82.0581
171.743
129.526
-16.8502
-5.3358
6.08364
79.4075
50.6242
-58.7349
-106.747
-24.4339
-72.6149
-29.4407
32.0466
8.52306
66.8831
83.2394
64.9153
-19.2531
-159.854
-122.273
-102.126
-53.1932
-12.9751
12.5844
87.9769
-7.95292
-72.9667
-49.7269
-26.5839
-28.2337
52.8845
15.6396
158.234
273.239
110.664
-15.2221
-84.2229
-38.6058
32.484
-7.56131
-31.7838
9.25845
99.9285
23.536
-139.993
-142.067
-163.53
-96.439
41.737
33.8428
42.4748
58.0518
-83.0509
-131.039
7.99771
71.8986
61.7343
66.2008
164.545
153.002
15.5144
-25.1495
-49.2753
12.0545
-1.11353
-59.867
-1.22859
-41.2143
-157.899
-94.9925
-1.35504
12.2614
86.8016
141.047
118.448
48.3631
108.892
-30.0425
-123.983
-133.825
-98.2958
-118.894
-128.826
-95.5678
38.7506
222.735
156.347
198.796
212.204
138.21
44.3693
-36.2591
-85.9488
-127.89
-138.45
-211.429
-215.299
-70.007
-6.99325
-4.22711
15.5256
63.2735
126.201
-17.8885
-77.4944
-100.042
-37.6261
-31.4869
-44.7988
-116.937
-122.854
-91.9001
-20.0237
13.1915
109.551
247.952
205.649
158.575
168.932
78.4689
36.1336
-2.01879
18.0067
116.847
73.9107
37.2287
103.56
-62.289
-114.156
-47.0658
6.11397
41.4272
-0.0482392
-25.8662
74.4894
-21.0287
-175.788
-159.942
-104.707
-23.6171
-87.0467
-131.854
-67.3207
77.1091
57.728
-117.221
-136.352
-19.0953
13.7697
54.5543
118.982
130.586
185.255
-21.1706
-255.158
-216.346
-78.8756
12.8157
-22.9806
-18.4638
111.823
197.828
66.3738
-64.7725
-74.0718
10.5737
55.4279
109.057
150.525
216.018
37.8005
-33.8967
-74.0217
24.9767
94.1335
129.146
128.956
65.6388
-50.4568
-30.288
-2.43196
-51.5671
-85.9707
-127.616
-124.998
-134.714
-165.754
-148.963
-104.211
-57.3882
-4.15491
-21.5755
8.52221
145.225
212.679
77.9994
18.2604
-24.6528
-13.4501
-11.6872
-34.9657
-64.1288
-1.74118
31.2438
51.3677
59.6654
46.0547
11.0086
-46.788
-57.7437
42.0019
-22.1231
-15.6229
-48.0244
-98.0904
-23.638
-22.446
33.0647
166.793
6.68019
-39.3936
30.4919
49.7473
104.703
144.802
196.483
198.559
27.6371
-38.5253
-125.504
-176.115
-120.658
-139.334
-200.282
-144.37
-101.909
-97.8517
-96.5533
-12.8554
152.642
203.658
170.507
113.971
170.195
19.0259
-94.4282
-95.763
-23.297
-7.33282
-4.66836
6.93955
106.901
188.204
62.5528
-121.819
-79.0365
-47.2208
-46.52
-71.2093
-63.4064
-39.7048
-89.0149
-245.84
-244.237
-103.954
5.15165
53.5614
170.321
226.285
184.474
49.5639
47.8397
0.787841
66.973
135.302
153.09
191.044
168.868
-47.8542
-61.2773
-92.6042
-89.3893
-5.84863
-59.6027
-83.6231
-55.6849
2.05426
-48.2639
-168.717
-97.6486
26.1765
4.86906
-49.7268
-34.4689
-15.7849
-9.6877
-137.031
-118.652
-68.5204
-77.9165
-51.9175
-20.3109
109.09
182.297
93.9982
106.479
110.352
150.74
188.038
74.9112
59.845
-34.0727
-133.626
-66.4756
34.3786
40.7233
51.8289
15.042
56.917
93.1337
-23.8085
-153.783
-123.248
-94.6848
-0.0639406
-29.9486
-94.1387
-80.0732
2.17606
-80.1872
-145.399
-92.528
20.2548
65.4864
74.8271
125.373
259.636
276.624
52.9667
-108.452
-87.7882
-40.5338
-79.5799
-74.331
-35.3154
-32.3527
-10.9028
-29.0096
-73.6751
-44.4074
-61.9781
-24.9348
26.0742
3.13099
-6.2443
-40.8471
-81.3475
-75.7774
85.8599
181.6
212.253
227.003
194.07
46.5096
-61.7164
-70.5438
-87.3653
-89.9684
-135.382
-69.9332
65.7026
31.6348
2.32457
17.1343
-14.0817
-12.709
-8.45444
-79.2331
14.0346
61.129
29.0802
-9.0382
-40.6082
1.3679
33.2725
-3.45036
36.3754
-7.93429
-63.0307
-106.669
-87.6461
-6.14817
49.0515
86.1598
97.5775
57.7014
72.9652
-49.731
-123.189
-171.324
-158.962
-62.4548
-55.706
-32.5561
79.728
87.171
-22.6307
11.5028
71.6958
101.787
101.097
82.4974
61.5044
79.725
96.0728
-39.2597
-100.317
3.63513
23.0487
5.07223
5.63479
42.8226
36.2695
-110.401
-177.06
-145.656
-57.8916
18.336
73.8567
110.749
136.119
-2.31988
-55.0098
-90.9235
-66.9553
27.7591
-3.89078
3.19617
27.4876
94.141
-8.56297
-90.946
-69.7619
75.1286
166.939
171.314
69.1755
44.6429
58.8399
-116.63
-153.589
-41.9171
9.19445
-10.4116
-100.387
-50.4625
-75.0614
-170.779
-161.065
-130.892
-19.1482
40.723
44.3042
133.343
128.368
-48.2347
-50.6747
-30.2197
125.422
295.882
221.52
174.692
33.3125
-125.845
-145.607
-143.749
-61.2739
29.2756
52.2574
67.4713
85.68
-69.9189
-92.6608
-116.257
-121.706
1.33027
46.2737
62.9664
-57.3786
-58.4531
-33.3795
-26.4023
38.5783
128.036
159.382
129.949
99.0861
166.938
-42.4516
-237.854
-210.754
-125.428
-137.141
-116.879
-68.1805
-3.69947
66.6397
29.2073
-28.6515
-18.4562
-9.71741
8.44587
36.0103
77.8413
153.031
146.649
42.8241
6.06046
72.5208
117.982
79.4179
79.5693
149.473
96.6379
-85.5041
-101.164
-46.9898
-23.1779
-42.4576
-76.1223
-83.4456
-187.382
-207.317
-192.079
-193.533
-142.196
-50.1399
-13.5196
112.53
149.271
81.7699
112.816
104.021
76.7727
96.4221
36.8291
-52.3849
-49.0835
76.4575
-13.1784
-9.2735
56.7945
12.765
-30.8375
-36.0054
118.082
308.682
153.899
24.7528
-48.6423
-61.4347
-64.7132
-41.6355
26.14
104.989
-80.9795
-134.901
-152.971
-200.454
-146.271
-132.71
-42.2294
125.22
19.0801
-85.3981
-105.383
-114.899
-20.9477
45.867
130.337
186.988
169.633
54.7194
-30.0909
-78.5599
41.3076
87.4904
78.5751
86.7579
171.938
148.823
52.8026
-77.4238
-81.499
-56.4555
-94.2013
-116.131
-91.0825
-69.9825
-7.45999
-32.2722
-96.2532
-8.446
30.5329
0.889893
-11.3012
-54.9982
-12.7258
28.8216
-69.9462
-105.808
-58.9158
10.6331
139.17
174.696
183.93
72.4392
-77.0493
-98.9449
-69.5925
21.1924
74.3802
76.5654
156.626
28.3272
45.7131
53.9865
-10.2601
-68.2566
-6.28541
36.7989
25.6956
-118.322
-110.823
-109.078
-179.823
-162.301
-27.7672
56.5629
110.798
85.2944
57.4857
-72.5065
-161.247
-115.897
-63.7813
-12.1217
30.6537
70.5783
111.501
31.5217
75.1917
157.165
162.784
132.216
92.205
134.833
146.81
-27.1147
-193.145
-178.943
-135.017
-16.8546
42.8724
101.851
60.9262
42.6759
10.6872
-199.314
-242.991
-168.84
-121.556
-45.9095
-11.9323
97.7064
117.136
-69.1349
-114.61
-17.4601
88.8745
79.0154
80.0939
97.6597
106.419
35.2954
13.9354
-11.4419
-18.2486
13.9581
-13.2916
48.9604
41.5367
46.5199
27.9376
-39.7946
-85.1719
-84.4582
-66.3534
-43.0113
-57.2773
6.83774
70.9222
-83.3872
-139.977
-8.33208
74.8566
27.0399
-22.6078
59.7465
130.548
57.6218
11.5216
-20.4068
-39.0674
-64.5007
-43.2872
101.896
147.441
130.702
162.145
127.485
41.5207
30.5972
-109.021
-181.329
-191.639
-224.75
-179.422
-105.272
-41.7546
20.1648
21.6571
79.9649
37.3016
-7.98651
-5.40108
-0.264335
19.4843
50.9901
6.4778
1.6
40.6929
64.769
5.10466
34.7005
86.5454
170.448
197.929
172.893
94.0188
62.3047
-86.2763
-202.6
-216.165
-186.706
-125.84
-89.39
-74.8388
-59.5973
32.4425
-13.953
-96.2503
-13.4688
189.77
219.008
134.533
57.7275
-7.22815
-152.437
-131.799
-104.623
-63.2906
-39.8102
71.9562
153.36
58.9035
-1.00605
41.7953
59.3352
20.8919
24.091
52.8966
-3.16713
-34.7484
-167.792
-162.774
-96.6128
-56.677
28.3678
65.3853
66.0935
106.649
123.048
70.7534
-21.2917
-25.3065
-14.365
-26.7188
-21.7793
-34.847
37.4971
-75.6341
-111.836
-71.497
40.7949
116.961
164.198
127.471
146.217
73.6826
-41.9745
-41.0115
-68.4629
-120.904
-127.079
-65.2187
15.642
-0.580422
-37.9866
-39.4895
-52.5572
21.8136
30.4143
-33.2551
48.6308
-9.86963
-104.126
-45.5449
42.1939
104.381
95.0688
52.6934
67.2532
99.411
16.2917
-47.18
-33.7381
-22.8429
17.5504
7.83952
-64.1737
-32.3332
80.6537
-54.0265
-168.435
-107.347
-45.0008
-84.0463
-97.5187
-58.6505
-8.69568
57.2539
66.6572
-72.5977
44.8722
151.084
116.399
50.5385
10.2476
46.6683
55.6523
-13.3521
14.677
97.2618
77.1073
50.338
113.352
187.77
59.2443
-104.037
-69.0849
-108.961
-135.947
-26.097
-19.7732
0.450459
-42.5109
-184.16
-156.687
-105.19
-31.0291
28.6257
-14.1627
49.2153
101.493
8.55305
-93.507
-159.964
-119.442
-10.6132
84.1901
239.179
351.696
368.06
224.84
40.2546
-64.6126
42.0867
34.7909
-158.05
-243.474
-168.751
-131.391
-258.251
-337.407
-198.164
-81.1717
11.4142
141.003
255.278
311.182
62.0387
-93.2544
-122.309
-45.5649
35.2933
83.4827
100.65
94.5648
156.722
98.3222
37.5505
-12.4107
-10.4469
22.6122
24.1326
1.71627
46.9658
-53.0884
-179.667
-192.984
-70.616
-20.143
-33.5798
-32.0591
28.6342
131.245
20.0456
-3.00024
-27.8775
-8.90605
25.9055
-5.39198
-12.5555
49.9595
111.234
49.3388
-16.0408
-15.9166
-25.204
-44.1324
0.547472
-16.5142
39.8951
45.764
-164.797
-225.695
-159.145
-86.3757
14.6316
21.3229
113.444
118.855
109.512
108.149
57.5407
79.7397
77.3438
104.535
93.2248
-64.7088
-129.562
-102.135
-64.0548
-18.3815
76.074
79.6524
105.802
-12.3616
-129.404
-75.7936
-100.755
-67.1259
103.47
209.122
158.577
109.379
-63.455
-178.488
-195.939
-141.792
-99.431
-65.1315
-32.8613
-42.7583
2.0087
-82.6944
-31.0771
18.7714
43.1848
84.9324
53.5194
54.3168
42.787
25.2199
29.1573
-148.77
-108.689
-16.2788
115.304
110.528
87.2083
174.034
160.851
90.366
75.9194
59.717
-17.7353
-48.7509
-25.5334
19.2076
-43.2953
-129.872
-103.729
-113.661
-111.857
22.5651
107.629
161.675
-21.1151
-97.7905
-64.0028
-105.246
-116.272
-64.6822
-53.1919
46.5095
229.37
101.686
-31.2524
-56.2054
5.81139
61.348
59.5573
48.5434
27.5159
13.8639
-128.887
-177.018
-134.001
-33.4965
18.523
23.5413
71.1588
106.114
-15.6057
-89.277
-117.297
20.9611
116.705
116.874
192.052
239.798
100.94
-28.7497
-99.2846
-164.586
-132.178
-95.3914
13.6784
3.86704
-82.8827
-93.0796
-110.41
-77.3238
54.1285
84.1699
58.1455
148.683
118.977
-55.1383
-25.8734
49.8057
20.5867
-62.9444
-77.2917
-20.3715
47.9337
-26.1205
-12.1177
40.166
64.5347
20.1016
-16.0941
-25.6371
-8.48341
67.8322
66.3052
-78.939
-104.424
-24.071
-71.5263
-107.382
2.38392
136.143
218.427
150.906
64.1236
29.7024
-124.796
-222.927
-180.104
-71.6054
9.12525
-47.9316
-22.8221
17.4079
11.3435
57.3518
107.873
168.031
109.5
-26.073
-58.934
-114.733
-204.154
-77.5937
68.019
170.998
193.713
128.98
105.289
42.4887
-15.9972
-5.17995
-19.2944
-14.1181
-27.5704
-89.3017
-79.1864
-84.2333
-78.9003
-61.5249
-96.3185
-56.7391
44.2436
104.336
-43.6542
-55.994
12.668
92.5098
91.6003
27.268
2.87492
18.783
-85.7531
-120.364
-108.475
-58.8713
-30.7337
-18.2252
16.092
127.297
97.3624
-30.9953
-38.4661
-13.4933
61.9405
81.762
109.24
137.58
161.889
49.1424
-38.9481
-92.6894
-46.9691
-45.4266
1.90604
77.3755
113.757
3.9717
-147.472
-181.408
-118.111
-6.25243
36.2149
21.3222
36.7128
-35.1284
-140.636
-140.733
-149.353
-62.944
25.7266
102.197
134.118
104.097
7.94132
-63.2402
-78.343
-12.7168
105.24
117.681
112.107
125.04
43.1747
-85.5875
-69.478
-15.3415
43.6535
69.9392
108.871
177.214
67.3887
-87.9897
-123.862
-116.296
-117.868
-82.1377
-37.0952
39.315
-52.162
-81.8842
-31.1755
-21.1956
10.2699
93.2257
102.509
82.5573
63.2859
58.1452
5.02194
-78.4838
-68.6907
-15.7106
-61.3086
-79.4141
-17.8525
-97.098
-69.972
-41.5914
32.0259
47.7737
6.64416
-29.6421
33.8495
156.351
99.4895
59.8858
134.959
55.2198
-76.5835
-132.179
-87.6307
21.4461
137.805
173.732
40.4828
62.817
15.1748
-82.1527
-163.549
-201.929
-129.362
30.6262
-21.8689
-87.4186
-44.9191
-49.3857
-98.1386
-76.7895
8.72224
112.159
63.6578
32.6818
54.4556
39.5389
89.1104
126.453
100.904
108.528
102.51
59.0576
73.5256
23.5842
-10.2631
-50.2545
-76.2
-76.9448
-79.2574
-128.535
-196.873
-227.107
-137.534
-53.3416
20.1885
69.035
76.8621
99.7628
14.7839
-18.2236
8.65543
42.0002
34.9495
47.8524
95.8206
167.478
111.108
20.2641
-51.3085
-21.152
51.2166
119.619
186.397
102.436
-32.8718
-104.966
-147.878
-243.625
-230.406
-106.139
50.7841
58.3772
-11.5074
38.8652
21.3733
-117.04
-124.607
-46.7142
51.0356
124.546
-8.02661
-30.1073
-42.1285
-4.57747
52.3713
55.5202
65.5807
168.096
129.28
17.31
-19.8167
-37.3592
-84.6141
-131.706
-60.3979
9.84927
136.095
137.099
-70.5319
-121.848
-101.592
-116.512
-45.9478
28.6217
43.9467
88.8329
104.251
43.6227
66.4432
57.9484
15.5642
32.2496
86.0073
79.3927
-42.0924
-66.565
-84.1192
-98.6857
-22.3351
-7.70263
131.355
197.97
76.4787
32.3826
-14.3079
-210.134
-278.41
-228.392
-118.082
-100.041
-166.398
-92.1328
17.493
19.9533
69.5033
82.6496
83.5004
180.218
73.1283
7.32376
13.2974
2.29164
15.9328
23.1347
94.1093
164.034
199.778
171.257
62.6489
47.9986
76.5179
33.0346
-52.2407
-128.925
-136.435
-100.721
-162.787
-196.734
-67.9409
88.9246
139.532
41.5384
-15.7995
-43.2544
-71.6887
-128.658
-107.774
-140.712
-95.9457
-16.8006
21.8518
66.272
162.007
49.6994
-15.5305
-56.4319
-45.2768
-31.4305
46.636
41.5796
78.4752
92.3457
131.802
115.405
92.0883
53.3784
-33.6782
-61.5934
1.76905
-50.4389
-56.0219
-100.008
-126.815
-5.60362
58.8638
60.6353
82.9104
82.446
106.098
-9.28559
-85.9619
-93.9114
-88.3926
-85.0064
-89.0782
17.1639
117.408
73.3766
39.936
43.8585
39.3329
40.4671
10.5631
56.3018
29.7151
-56.838
-68.2182
-65.9887
-90.3439
-62.4818
-63.1778
5.78768
-35.0546
-146.889
-113.989
-32.2299
19.421
118.817
96.8662
114.022
36.1571
-92.0869
-117.597
-76.8895
-27.3091
16.5188
33.4563
19.1587
82.9749
75.961
17.718
15.57
44.3836
104.784
119.572
130.633
110.428
142.237
95.0685
-96.625
-118.967
-30.5747
-9.56586
-37.3933
1.9856
35.1713
39.5143
12.3117
-170.044
-199.847
-187.587
-229.05
-180.125
-66.7574
17.8586
97.709
-4.97657
-91.7572
-54.4585
61.4502
124.3
152.064
149.662
160.564
87.8443
-2.3455
-6.22223
-8.65883
27.6048
38.1168
63.9076
206.128
232.98
55.8869
-61.379
-123.148
-125.499
-160.081
-165.552
-92.9953
-17.3203
49.9887
-88.8404
-130.997
-99.3087
-36.7002
-19.0489
1.34047
41.2039
112.557
109.806
-77.5359
-94.4445
-22.8425
-19.7162
-26.9263
61.0541
166.534
102.765
25.0799
8.98655
-18.1739
40.5724
10.4737
13.6191
151.969
35.6738
-106.901
-41.7449
5.2287
32.9105
28.4947
-61.8068
-66.875
-94.3611
-108.155
-48.1992
7.75868
85.2869
81.0678
31.8716
52.7053
73.5015
-65.9982
-91.5288
-132.665
-21.3318
93.3031
75.6944
66.8663
113.654
72.7274
-92.4298
-86.0087
6.28062
-2.83117
-31.5795
-64.0197
-85.7436
-32.1364
50.5799
5.90506
-33.4246
89.4734
114.396
65.0262
32.3694
18.2447
-4.14719
-47.0497
-156.105
-141.133
-54.8019
-16.4969
-14.7989
-5.50619
24.7551
96.3569
110.278
-33.4296
-43.3537
-33.3574
4.29314
22.1033
31.1801
94.8631
63.6227
9.79786
-1.91962
-58.336
-61.3384
-32.994
26.1273
29.9842
25.1275
36.5931
92.9454
52.3686
3.14809
49.0389
-26.3819
-85.5261
-74.0443
-45.1558
-129.421
-152.056
-56.6571
62.079
50.5485
21.284
21.1727
58.3462
68.6133
-16.904
-59.4068
-31.6922
11.9612
34.0588
80.1714
138.712
98.6415
14.1402
-11.6068
-31.7557
-30.4736
-81.8019
-85.1804
-20.7038
18.8917
32.6961
-56.7077
-154.839
-85.6022
15.5741
36.1251
27.6446
-12.7826
39.2821
59.6433
-90.4729
-32.0003
76.3325
96.2377
62.6469
35.0801
-25.3572
-33.4591
-127.488
-82.3344
-18.3976
72.2404
148.337
159.83
145.849
138.972
77.9838
-90.3161
-154.081
-138.277
-58.1032
-70.3406
-64.4579
45.0147
41.5059
-44.6925
13.2636
6.71454
-16.3217
-48.7476
-50.6866
45.7539
78.8237
-8.09872
15.0784
27.5184
32.5729
36.9605
-31.5569
-58.3993
-23.5522
-44.3433
-28.6969
-68.6843
-23.4298
78.4024
72.1323
81.0293
23.7001
-28.6322
-42.3177
-78.0575
-81.5114
-14.4035
39.3016
37.1757
2.66542
-50.3663
-73.5293
-72.1808
6.51997
60.8457
70.6783
155.067
258.836
146.413
-109.882
-174.898
-103.085
-94.9251
-62.7932
13.1847
112.653
218.896
99.9065
-86.5595
-146.456
-82.9486
-44.3372
-25.2279
-90.2704
-140.315
-78.0083
-95.7973
-132.081
23.7761
220.303
283.872
241.321
161.513
104.601
-40.5814
-147.073
-194.725
-174.195
-82.8428
-11.383
68.6304
121.071
41.572
68.2769
86.7096
50.3638
-7.60429
-48.6054
-32.9991
73.3115
59.5426
-63.3062
-57.2284
-49.4219
-9.66126
-25.4201
-71.2944
-49.7257
21.4677
121.795
3.18448
-63.6258
-18.6387
-3.97947
-8.00354
-52.7359
-58.4796
-12.1138
-77.465
-91.556
-24.8669
76.2295
68.5083
47.1585
57.7879
113.914
15.5227
-104.551
-95.1168
-102.848
-19.3676
10.5185
62.4864
154.872
133.307
47.6062
-0.706434
-36.6178
17.3934
-3.73427
-49.0902
15.0489
0.964863
-21.1071
-46.1463
-68.7647
-13.5107
58.39
49.0397
95.1166
132.707
-0.512922
-19.6557
-57.1248
-80.4443
-72.7463
-66.4052
-59.2321
-8.23117
40.2346
-6.94708
-55.165
-21.377
-17.3231
9.32264
12.5996
-6.4401
15.6734
96.3576
-55.8301
-92.5788
46.1556
51.0876
34.8282
30.5533
44.0959
69.094
6.51459
17.6032
36.8282
10.8966
-10.1932
0.988652
-21.0355
-24.5432
-111.681
-84.9097
-17.5937
-46.5181
-29.5293
-34.9506
59.6746
78.2336
-17.6064
17.4063
60.5049
22.5503
-5.11952
-31.489
-8.54618
71.1392
-47.9598
-118.445
-35.2122
10.806
68.3013
64.8448
79.2911
60.0245
116.092
38.1793
-106.484
-89.8316
-24.9591
-27.4315
-28.7025
-10.1169
46.6811
-102.739
-142.47
-131.521
-19.3847
91.3409
133.978
117.831
140.192
15.0782
-65.8069
-72.4539
-65.3957
-18.095
1.78647
-6.77388
59.4133
90.7511
84.7346
-36.2573
-30.0396
74.5216
37.3132
-3.38047
29.5278
46.1277
28.2367
1.14695
-152.95
-138.382
-84.0336
-49.2364
-49.633
-37.8762
-8.57923
38.8748
25.0226
-34.5737
-7.84292
79.7326
58.0885
41.4016
-1.41573
-23.7836
6.64106
47.4065
-86.587
-72.2614
19.3464
97.7666
132.312
144.155
124.987
73.7619
-38.0134
-174.787
-182.029
-100.394
-11.3219
24.1
28.7075
77.5381
-5.44531
-17.5209
-37.023
-81.9944
-31.0598
-39.9911
11.7209
55.6091
-51.6866
-97.2877
-55.5868
9.55313
30.7718
33.5666
79.2873
141.177
-52.2874
-64.351
-4.87904
-15.6613
-5.38268
15.1598
43.6681
61.5376
142.55
144.23
32.9787
-29.2997
-48.4095
-53.6344
-53.0439
-16.456
72.0143
165.042
80.6836
-109.957
-68.9263
-92.1516
-143.027
-134.561
-46.8722
24.7671
-5.45827
-53.3172
-88.1262
-99.7461
-32.157
33.7926
99.3394
88.0692
92.7486
113.645
24.0235
-31.6449
-23.3514
75.361
94.3932
79.5825
122.401
114.837
5.31135
-78.1505
-70.0575
-68.1118
-97.7746
-115.763
-33.4205
-47.5957
-88.8508
-130.068
-160.946
-143.927
-35.065
50.3408
146.488
246.879
236.65
152.384
71.0328
5.06133
12.879
-22.349
-48.0916
-21.6005
73.0768
-36.7973
-77.4698
-49.4377
26.0802
77.4716
62.2249
6.12936
-15.1362
-148.24
-249.209
-255.122
-178.072
-97.961
-67.9098
15.1705
144.08
28.5385
34.3562
65.1878
33.8222
124.641
143.406
143.857
179.971
92.4575
47.312
0.895128
-16.6618
53.7934
59.4108
33.0234
72.1293
101.654
-29.2484
-54.8275
-251.776
-251.547
-216.925
-154.977
-61.1083
49.5132
-79.1175
-48.7484
-45.9971
-5.65571
14.2645
57.0677
74.6994
77.3931
151.99
125.855
-19.6368
-13.1695
59.1346
29.8992
73.4178
136.692
177.698
230.629
74.59
-73.7851
-2.6842
-45.0094
-124.335
-115.76
-56.7891
-26.6178
-118.783
-141.382
-147.069
-107.377
-64.4164
-100.565
-37.6323
-19.9626
-75.6022
-15.7139
0.196148
-31.0054
2.01973
47.4797
170.085
160.539
46.1997
-3.57524
-8.67735
15.6718
73.5828
86.0132
71.6268
65.8343
-13.5884
-3.11001
-14.2626
-43.1246
-8.19727
-39.8757
-67.0566
-57.1262
13.2995
-14.3313
-16.3497
5.55812
77.9431
94.7111
66.0985
104.79
113.061
-97.1759
-118.228
-107.441
9.52308
19.9015
-4.00486
59.2853
138.501
14.7659
-21.1037
-52.5213
-39.5628
24.3051
-12.088
0.438561
38.0332
-62.3292
-231.483
-247.824
-171.544
33.3133
114.892
119.924
99.7886
159.736
66.359
-111.493
-91.0606
37.1655
74.5121
57.3553
16.7423
27.3573
6.63838
-30.5022
-182.11
-114.859
-13.7016
-28.3544
-6.19681
-2.34632
-49.9003
-0.76316
-9.28773
-21.0802
44.4469
119.621
147.511
169.616
123.083
21.3117
-124.924
-126.536
-75.6421
-40.5233
49.9794
74.1547
147.52
116.347
38.5164
45.8551
18.2544
-60.6244
-72.0958
-133.053
-86.7033
-76.5069
-87.1776
-30.3768
12.5396
48.3334
58.8049
23.5433
45.5452
-42.1893
-123.646
-95.9851
5.05402
95.5504
150.547
147.822
50.0762
-14.6898
-66.477
-158.142
-119.989
8.04111
51.4757
25.6555
-2.39187
-8.08116
26.843
-27.0451
-67.0418
-26.9392
52.796
57.1923
0.115594
-29.7772
-38.5861
-58.5429
-62.874
-68.9411
0.0223511
74.762
71.4665
56.7888
56.3235
123.701
15.5555
-28.9178
31.5897
73.7941
0.0961673
-34.3842
-13.4518
54.4821
21.5512
-60.4119
-41.3269
-8.16595
11.8412
-7.73561
17.7251
94.9627
56.4212
-42.7005
-165.894
-198.138
-108.259
-56.8868
-34.6308
25.2127
89.9264
153.995
211.558
79.8615
-45.3834
-39.8303
-99.118
-161.164
-151.241
-84.5434
57.37
49.1275
-98.7464
-20.7372
61.9312
40.1836
40.7652
73.9847
152.479
140.733
-19.6035
-96.3679
-164.047
-63.3004
113.624
178.257
271.122
308.453
128.198
30.9201
-112.59
-170.456
-103.041
-97.2075
-62.9154
-80.9797
-130.691
-149.272
-173.37
-164.716
-127.619
-81.6422
49.0759
133.176
43.0297
5.71512
-32.1982
-40.6391
29.6386
35.3219
28.6668
73.0273
172.671
198.751
218.344
21.6636
16.3188
14.3708
-22.2027
-37.8882
17.7616
44.4172
36.4531
-0.296544
-79.4161
-110.311
-127.635
-157.556
-109.471
-12.3825
76.2644
113.132
2.96034
-49.609
-41.3041
28.5861
20.6096
9.31135
31.5544
139.733
67.7753
-61.4301
-47.1605
-62.8241
-37.3937
-13.6831
-6.38924
43.4158
-38.666
-60.2234
-75.5
-91.4604
-23.5771
-9.90541
-31.2868
71.0549
155.032
155.035
76.6982
30.4976
81.7383
99.1519
-34.5125
-179.38
-268.936
-237.89
-147.643
-91.5766
103.296
162.315
135.114
100.341
95.54
133.983
154.459
33.8822
-11.7683
-54.4514
-14.615
-27.6288
-58.5548
-9.28996
33.9323
53.7078
141.735
109.151
27.3832
-19.6404
-27.6646
-38.6978
-50.2235
-97.9524
-96.0393
-103.054
-133.636
-83.9276
-80.346
-9.8952
62.4031
-108.975
-106.745
-38.6275
10.816
81.5586
143.589
127.144
75.6889
76.2235
86.205
-86.5985
-106.726
-74.4905
-47.9667
-53.3862
-40.0074
35.2806
151.748
128.787
-2.87934
-33.7153
-22.1332
-23.6653
-50.7539
-50.2475
-8.07432
47.0714
3.42342
-84.3973
-73.6695
43.5271
42.8187
63.821
86.1087
165.124
277.132
168.196
49.6045
-32.7683
-178.134
-215.566
-193.574
-149.918
-106.466
-105.772
-60.7794
-30.8883
16.0978
34.0658
51.1271
169.929
80.0548
-13.0226
27.6004
6.80274
-102.504
-74.364
-39.7988
61.8166
235.544
248.567
143.535
86.807
43.6469
15.6568
-14.8166
-62.3949
-65.1555
25.9228
-24.3328
-141.144
-107.135
-81.9537
-115.164
-143.51
-137.932
-11.8503
-15.7129
-170.022
-148.709
-48.6618
41.9192
85.4171
103.467
204.907
238.928
122.894
68.3751
36.4385
-55.5273
-142.079
-113.145
-53.0885
-22.9319
22.4252
19.4745
-59.5445
-20.368
58.6062
20.0178
32.0632
78.5355
137.88
142.973
59.7945
-82.3773
-24.9751
-1.47501
-14.3842
8.03445
29.5079
38.8114
54.4358
86.4898
-14.6781
-163.988
-110.368
-103.836
-66.3047
-50.8232
-6.53657
57.436
-13.6259
-92.4381
-66.9899
-56.3518
-42.6084
-9.2106
-21.7041
89.8206
77.1773
0.965386
34.2692
42.7307
46.9174
67.2586
103.883
201.988
78.4344
19.1229
-3.85963
-48.7657
-84.8823
-94.4429
-125.927
-81.7902
-120.872
-95.1876
-105.49
-117.675
12.0093
139.119
120.899
118.052
93.742
42.8975
-44.769
-71.8737
13.8339
39.3752
28.6492
-15.5611
-28.5381
72.538
82.582
-40.3262
-38.8644
-45.8207
-53.5091
-101.545
-127.617
-88.0911
21.2553
20.873
16.0724
111.537
93.1632
-16.7618
30.1219
88.5174
86.5669
99.359
81.1282
14.8949
-34.4679
-5.68331
6.28932
-9.39368
41.471
110.037
18.4485
-67.4642
-84.2889
-134.369
-128.22
-24.5129
157.268
247.527
101.61
-77.5404
-138.218
-167.554
-162.388
-146.413
-121.433
-80.3609
15.316
49.9348
-15.6345
-35.7139
77.4329
104.366
5.4033
-43.7046
-20.1034
-3.12494
5.3049
-128.602
-56.1706
59.1966
102.612
75.2147
25.6898
19.2364
99.0012
31.3392
6.77101
23.9171
65.1817
67.1805
45.6414
51.8322
89.4701
59.9452
27.7265
-5.48401
-86.3721
-106.859
-99.7944
-43.9248
91.772
-0.540475
1.02898
64.0668
48.3166
110.285
81.027
34.3718
36.4074
-67.0227
-109.89
-149.945
-187.875
-138.19
-99.9879
-83.256
-57.447
-2.14793
-19.4806
-57.5984
-82.7657
15.8428
79.7897
33.0165
-10.2296
51.5252
113.006
91.3679
47.8358
78.7233
101.962
102.325
47.4013
41.101
20.604
-32.832
-173.207
-194.744
-109.706
-30.7302
-2.81713
97.2419
135.525
125.156
113.873
188.185
64.1872
-10.1052
-60.6542
-130.305
-89.0883
-4.68594
-65.8971
-89.9894
-7.21417
14.1688
11.9321
-18.2702
4.28721
46.5779
-34.9367
-59.6463
-91.0218
-90.6255
-69.1035
-119.043
-104.496
10.2996
125.197
42.827
8.89055
8.70889
104.609
129.623
89.4377
83.6308
164.049
162.344
34.4089
-21.4462
-16.8796
-15.7535
-7.33651
4.37193
-8.08167
-46.6538
-94.3416
-107.815
-178.544
-150.155
-124.887
-53.2248
5.38495
7.66682
-23.474
83.8086
98.0553
43.1031
59.5708
51.1434
38.5494
-41.5811
-41.2662
-66.9905
-67.7951
-37.4005
31.0711
60.8954
125.575
205.145
192.413
37.3794
-38.2222
-62.5791
-86.0514
-108.534
-108.565
-62.6145
48.2568
84.7597
-95.276
-61.2912
-0.698665
5.26923
22.6421
80.6268
109.088
74.3465
30.8464
-84.6494
-82.6925
-26.564
19.7856
46.667
46.9952
46.2658
-34.7844
-53.0452
-59.0436
-115.667
-62.7744
-64.6459
-36.1718
23.325
-71.7314
-129.902
-70.4276
-29.3993
40.5447
178.315
150.566
118.596
22.9676
4.32204
7.10787
-45.3913
23.2724
93.8328
71.477
81.8955
0.926514
-44.4726
-94.8756
-85.9563
-6.43169
2.49386
-13.3118
-23.2401
4.22478
39.324
-7.07281
-64.7211
-45.6721
-1.63572
27.7687
29.0915
79.9926
182.051
61.2666
-138.8
-23.7952
44.8872
80.3509
52.3054
53.3259
62.3617
-16.0027
-108.556
-125.71
-117.671
-96.6127
-84.6246
-62.4207
-59.5544
-29.9907
-22.502
-84.5019
-75.3188
-11.1104
62.3726
127.349
121.355
107.665
133.822
-3.06424
-73.3076
-10.0683
86.7158
71.689
37.2284
34.8846
79.7839
-55.5817
-70.3179
-45.7973
-55.1718
-44.5169
-109.81
-68.0171
60.1594
102.638
146.559
92.7471
-14.613
53.961
49.4469
-24.4586
-42.7988
-72.6292
-121.68
-103.665
-103.381
-38.1944
-4.57711
8.43632
40.3576
27.8954
1.17991
104.585
56.2677
-53.7636
-159.132
-152.196
-59.7876
-60.0947
-25.0879
20.2621
21.6011
7.54522
60.2461
136.682
241.919
149.701
25.3179
-26.3571
-27.8429
5.14619
30.3145
-16.1147
50.2561
20.5226
-25.0919
-69.336
-112.664
-53.0431
-41.6757
-55.4498
-38.887
51.0657
21.4463
-19.9065
-83.3409
12.2371
73.797
82.1818
71.1516
155.835
152.262
-31.1886
-136.636
-74.8049
-6.2337
12.6464
-5.40187
9.35489
27.6904
52.6008
-37.7704
-84.7539
-63.3988
-75.8025
-92.1722
-13.9097
71.9426
52.3945
-121.348
-150.672
-118.991
0.603057
57.9453
82.2102
140.379
103.818
-1.59156
-24.4954
-6.2704
20.335
46.6364
-11.6879
54.5395
121.513
-2.3446
5.06505
-35.3738
-62.4599
-13.2104
-57.3614
-40.4844
72.5832
-15.929
-70.5084
-20.9232
15.9167
108.745
125.166
37.1862
-13.9462
59.7717
-26.1686
-4.82433
-51.4416
-20.9483
1.03435
7.64519
-13.7394
20.1803
-84.5329
-214.742
-234.425
-91.5853
29.743
9.914
21.5686
108.991
62.744
25.5779
-7.31773
-53.8342
26.3302
14.3495
-45.0891
45.2774
126.635
-20.2829
-10.0814
42.2639
85.6537
99.3026
32.7514
23.6434
78.4071
138.023
48.1076
-61.1778
-71.6962
-34.9948
-23.7511
-36.6645
-53.2615
-90.5227
-25.0988
-54.4264
-115.161
-21.4363
16.0068
20.0839
61.1648
98.5229
113.904
161.63
-23.2944
-126.955
-74.4057
-61.0506
-30.1446
-9.71216
9.02897
61.2507
7.05397
-2.06535
-29.6073
5.13268
25.1695
46.1052
64.2018
54.1204
-78.311
-70.3361
-88.0778
-108.111
-44.3046
-49.9202
33.7107
27.6318
-99.1263
-99.7915
-54.6599
-29.3842
81.9186
111.622
124.38
128.235
55.5693
29.1421
3.89722
-51.6706
-30.4878
-55.6016
-98.8563
-70.5994
44.1398
-4.84737
25.6737
49.164
65.3642
55.6335
38.6282
-0.401473
36.499
29.8875
-34.9348
-58.2659
-49.5921
-29.5425
-43.7152
-32.8431
97.1629
163.656
41.9458
-65.5471
-78.767
-28.6024
-77.097
-79.0046
-16.4181
27.4329
27.3522
24.8326
89.265
103.731
114.155
95.726
49.3439
86.226
72.406
-142.465
-262.874
-172.082
34.4611
17.4058
-80.6788
-25.9169
52.2715
75.3886
40.9656
0.2211
-27.5312
-40.6345
-60.8196
-30.9208
-27.2495
12.0185
25.1022
-220.934
-209.854
25.8526
135.092
69.9558
27.9781
51.3776
131.246
43.5877
-23.014
-32.7602
46.0784
78.2091
79.0468
90.1588
4.60694
-102.454
-110.19
-121.41
-89.9382
46.3235
72.0947
138.871
149.276
82.695
51.5258
33.0775
3.39186
40.4687
48.8697
69.5846
-23.6749
-187.858
-165.654
-148.559
-116.903
-23.6096
33.1841
66.7058
24.932
-61.2815
-57.7025
-78.9456
-76.3043
-44.9523
-6.56105
23.7058
66.2144
75.4449
-26.6668
-33.6915
3.04946
87.1142
120.054
102.083
83.9829
49.0666
6.30188
-57.9117
-65.0563
-135.294
-125.298
-11.6737
65.9953
56.4122
22.4097
14.1498
37.3316
-90.0327
-72.9419
-52.298
9.11193
109.317
70.7117
-23.2759
-48.3751
-102.252
-92.5776
-44.3544
14.8147
181.246
237.48
241.816
192.119
9.89154
-60.0692
-110.234
-29.9971
1.3888
-13.4231
-32.8932
-17.4861
-15.8377
-129.622
-142.426
-38.8178
27.4334
-18.0787
-66.4562
10.0599
136.197
-3.47322
-145.621
-80.9574
-40.3343
-61.955
-50.3979
26.3179
37.0433
-26.3579
-64.5193
-72.9303
-46.2821
33.6903
33.1458
54.1358
78.1781
153.735
178.556
11.6247
-70.0514
-10.0238
-24.9738
-2.93547
20.3986
16.9115
-28.7555
-38.9097
15.6118
62.3645
122.563
184.44
182.337
146.677
54.3337
29.6342
27.172
-103.829
-177.885
-133.215
-214.751
-105.143
-20.5873
-6.96246
9.96027
-23.5586
-51.6837
-67.524
-125.848
-118.714
-60.0015
-3.44318
-135.221
-80.6873
22.0094
77.0356
58.2521
105.654
177.246
230.623
132.908
52.3531
35.1898
33.2
20.6513
27.6713
30.5616
70.0549
52.2661
-5.67878
-63.2653
-100.408
-47.5815
-82.468
-103.674
-96.5638
-76.8548
-73.8655
-66.0418
19.385
96.3224
103.262
103.137
47.664
21.2224
-65.2724
-100.951
-95.6787
-60.2403
-13.7648
0.587701
-26.8412
35.039
74.7485
104.803
-25.2478
-113.861
-59.7485
-29.3303
-18.683
6.18597
-8.25598
23.2887
31.2148
21.2014
101.858
120.354
72.5201
43.3551
38.6794
42.0494
-55.9569
-108.789
-77.5856
-77.4665
-4.35394
77.7177
89.7759
70.8584
-23.5881
-29.1865
-8.55802
-46.0107
-35.3622
-46.1253
-44.7691
28.6197
12.929
12.3061
-8.50135
-39.684
15.1513
71.4708
78.1328
120.825
55.6144
15.9576
-6.10108
-37.2048
-41.2186
0.157785
54.2736
102.196
-36.8039
-86.5492
-230.698
-251.331
-173.295
-84.3619
-33.6821
-9.47334
72.6833
117.752
-1.66916
-13.8419
78.3547
152.997
115.494
45.6872
23.7761
61.0901
83.5545
-75.7282
-9.94973
43.2259
82.5986
65.4561
73.1175
117.224
202.77
58.752
-100.14
-146.7
-84.5522
-100.528
-100.074
-127.307
-76.5532
-85.941
-109.653
-113.57
-152.009
-68.4181
5.405
27.4696
154.068
42.5504
7.10152
23.033
-24.1368
-2.22997
31.0271
27.2363
115.656
160.297
44.4175
-115.826
-125.548
-32.52
45.8782
46.4892
64.3679
113.371
160.302
5.6755
-38.4658
20.8686
1.41695
-47.356
-57.6119
18.3606
113.204
76.439
-35.8103
-176.398
-166.512
-81.0739
-101.031
-51.0721
11.8043
14.8875
75.9186
67.5358
-11.451
20.3412
12.8044
72.5469
79.7114
-29.1897
-65.4142
-12.0609
-0.248954
-4.56069
37.8616
143.496
236.77
94.3116
28.151
11.5459
-44.8852
-63.838
-142.106
-153.622
-104.207
-22.3369
-44.704
-55.5618
-41.2959
-33.6889
-63.2971
-89.0673
-113.837
-57.6925
34.818
0.44719
-132.197
-1.3424
69.3871
97.8925
87.0832
75.7073
81.4848
133.792
151.638
43.0884
75.6499
82.7644
52.1577
39.4533
21.0435
25.756
-45.427
-127.358
-109.998
-57.037
37.0622
96.7212
136.112
124.761
26.0363
16.0443
-6.52887
-73.0706
-129.318
-91.9687
-51.2943
-6.6967
-67.7065
-52.7746
-56.4717
-69.5165
-53.1679
-8.89431
-43.4078
3.57908
92.0562
-51.1349
-135.827
-175.804
-92.0952
-95.9666
-96.3653
-43.4269
62.9021
105.807
90.3234
132.928
141.424
136.419
156.926
131.569
174.154
108.442
86.3556
34.1971
-71.9541
-56.0624
-42.9819
-38.2217
33.3825
30.1749
-49.2619
-158.759
-186.389
-108.219
-87.7537
-102.981
-31.5347
81.2315
146.899
55.9726
45.6516
94.9632
8.65188
-103.867
-89.6319
39.7968
81.5074
-31.5394
-77.0153
-20.9676
56.0366
87.7853
31.1488
-4.35602
22.1013
63.3615
-23.4228
-140.099
-207.816
-134.928
-118.712
-76.4221
-0.601178
91.4144
173.228
117.029
90.0378
125.168
57.2576
-54.213
-80.3003
-33.3667
41.5395
-39.719
-54.591
-55.6368
37.9927
70.9873
60.1945
94.7252
142.56
-24.5351
-80.8666
-87.0729
-85.7945
-34.0514
23.8164
97.4118
144.161
36.6204
40.0053
32.4648
37.2308
105.628
21.5711
-147.723
-205.44
-272.678
-230.479
-130.005
-79.8919
86.2167
118.673
86.306
161.652
101.996
41.1524
-56.1032
-112.193
-36.7916
-4.7126
26.8408
11.8842
50.1616
99.914
106.051
10.9031
59.0392
47.9872
9.96797
-22.591
-17.5811
-65.3832
-44.521
-78.5359
-174.054
-209.954
-120.408
30.2574
149.261
134.228
154.038
168.511
25.3763
-19.6484
-0.488452
51.9506
45.1766
9.52718
40.7335
24.1998
-70.7814
-67.1363
-34.3948
-42.1459
53.6036
60.6567
20.6196
24.8583
11.381
-149.603
-217.176
-212.478
-98.6057
-43.16
3.08187
90.2505
121.098
196.525
67.6613
-93.2657
-7.51531
28.208
-37.9306
-67.7767
17.9952
71.5924
52.5161
-26.3618
-20.6692
6.07685
-51.1495
-59.7982
19.6882
98.8806
21.1606
-10.1506
75.5784
-4.27102
-32.5783
6.49785
32.4143
26.4367
-50.4008
-80.1871
15.3015
36.2623
22.327
-23.9136
-18.3417
141.471
163.336
18.7283
0.625842
-47.3575
-23.8636
-76.6486
-175.551
-106.568
12.7414
-78.705
-96.6594
-61.1695
16.4938
75.7594
70.4459
76.7294
108.585
101.571
34.0206
-83.7258
-54.5909
26.8507
16.9619
-14.0733
16.3293
47.2026
95.5859
140.257
42.0502
10.2516
-8.28999
-68.4229
-95.8036
-70.5013
-53.7455
-27.1068
44.519
-114.309
-150.404
-121.663
-105.163
-40.5266
19.1505
42.4493
135.402
112.867
49.9881
-44.2377
-37.8539
63.2453
63.0657
94.5588
151.704
17.813
-82.4236
-127.208
-167.955
-56.7762
13.5961
88.244
236.242
284.637
67.7827
-140.52
-213.953
-174.22
-144.352
-127.43
-83.1185
-19.2346
58.1069
64.2021
96.4311
171.952
137.184
34.9903
-12.9094
70.6159
114.069
-10.0778
-99.2948
-148.326
-88.8558
-3.48167
9.70011
80.7965
-41.5811
-97.8064
-80.3109
-9.23352
36.8661
82.7796
73.6281
93.901
86.7839
-27.0417
-99.3055
-67.5966
-39.9809
21.8189
-25.0181
-87.1309
13.3686
125.919
-55.4036
-122.543
-24.3018
53.248
96.2504
113.603
93.8878
93.1486
-52.4665
-156.066
-152.122
-33.1728
38.4142
23.8915
25.4351
65.1348
81.481
56.048
-1.02597
-37.2892
-4.16184
-15.1353
-14.7603
-28.8529
20.2771
-19.1588
-94.5627
-122.289
-67.3459
-29.5808
-12.6278
60.6243
158.985
49.5394
-54.593
-50.1943
-54.965
-33.1864
-25.7419
-25.5191
95.0779
111.252
25.0471
24.5041
-0.754346
27.6936
51.5059
20.4978
63.2641
42.4849
-109.487
-147.4
-163.718
-16.3478
65.2444
32.1764
33.2391
-1.16435
-7.13275
12.0548
1.87209
7.11529
116.135
96.2749
28.5977
90.5545
13.7055
-49.7494
-49.4109
-4.72373
59.2152
50.4983
5.6155
24.1156
16.3039
-33.3803
-38.3977
-69.5768
-124.793
-126.346
-70.7124
-68.9094
-67.3588
-0.156073
-58.2135
-144.739
-86.6424
6.30142
52.3672
66.66
159.021
205.042
77.0547
-30.2729
-31.8676
20.2131
8.33559
59.0658
129.029
129.567
-11.1426
-28.9252
-5.27129
-16.0195
33.4067
32.8257
75.2322
160.656
-86.4487
-243.456
-105.198
-95.0489
-73.0407
-57.0272
-68.389
-112.134
-94.4694
-58.9277
-58.7014
-21.6525
52.7548
70.5125
75.2805
61.79
110.992
45.5103
35.734
50.4434
137.316
179.942
73.8236
35.4248
59.5657
-49.0763
-50.566
19.5507
12.5431
-15.5197
-21.6731
-43.9305
-31.314
-62.3419
-71.1831
-87.9331
-94.4052
-58.6403
-67.5461
-77.2892
2.6835
-24.1656
-50.7305
-28.3295
24.0368
77.5225
64.2556
65.7597
79.8311
70.5918
-12.0674
-37.0705
-11.1815
19.3128
2.65927
-6.79157
-23.0093
63.5832
42.8883
-85.8046
-87.3918
-7.58225
26.0134
40.4435
37.663
15.1729
64.9267
-11.4562
-104.861
-78.7621
20.2282
14.5028
3.85815
42.8829
90.1722
140.053
41.2409
-74.0129
-38.1702
-15.5716
22.1291
28.8865
-16.7108
0.4307
-17.7302
-63.0737
-62.7984
14.0015
29.8408
5.45293
-2.6327
52.0291
25.374
0.658071
-31.0854
-84.901
-48.1707
-20.0271
18.7328
110.087
9.41423
-99.4057
-75.4014
-68.3081
-33.9507
35.5138
64.1808
78.9207
80.3934
56.7661
-13.5924
-47.7182
-21.7688
-3.03202
-27.8263
-73.2838
8.07939
-43.4816
-102.327
-105.855
2.13028
100.969
87.2453
84.552
127.921
79.8495
19.7653
-46.3755
-103.07
-101.744
-49.6042
-38.2814
23.0747
-9.44797
-49.1696
30.9491
53.4541
85.6255
95.4501
57.192
14.1568
67.5986
89.8355
-60.3022
-117.843
-39.0583
-37.4661
-17.7419
10.4697
16.3179
101.383
174.115
76.5788
-97.1467
-82.3528
-86.1403
-93.3497
-45.4219
-48.3851
-72.4315
6.66158
-31.7743
-111.423
-22.3242
70.9535
126.357
89.2398
46.0247
54.9394
-14.3083
-145.827
-199.931
-170.417
-26.7773
87.904
121.705
167.261
110.429
13.4845
54.1781
59.4121
16.4922
-7.84372
-18.3001
-48.1746
-114.869
-133.198
-86.0241
-56.9851
36.2805
109.951
92.5161
138.885
123.29
23.1101
-46.5399
-105.049
-68.4205
-10.2456
-44.9739
32.3817
109.818
-6.20709
9.28523
-8.74538
-21.8367
-30.6942
-28.6272
-11.0608
36.1688
56.5664
-65.9196
-81.8721
-20.3423
6.62631
13.7374
-9.23291
24.3923
108.05
-7.22704
-176.603
-149.467
-4.97627
16.8994
-3.4183
-3.82866
60.6447
259.323
261.746
113.172
49.4323
21.0395
-165.282
-218.627
-134.395
-30.6459
-69.5918
-122.954
-146.349
-53.1113
19.4893
15.9043
94.9539
197.323
78.7786
35.5417
22.8928
-91.9688
-91.3571
-4.92382
45.1784
168
238.694
196.344
-12.5965
-102.3
-79.44
-43.0667
-49.6344
-35.1882
-22.2298
-19.208
-128.219
-137.46
-69.6032
-16.9355
3.73892
-4.64915
11.5454
17.8026
-95.5773
-102.583
17.3852
149.887
161.335
77.2083
79.4511
93.5027
31.2753
5.89582
-15.5536
-47.7194
-4.74788
-62.2463
-26.7126
40.8943
-71.4934
-86.3379
-77.8592
-57.8011
-16.0709
-29.2321
-16.5326
4.70016
-47.941
7.55585
23.1277
25.0102
66.5973
84.2633
96.5484
177.986
157.636
-3.2187
-25.6072
-60.4517
-46.3879
-82.8387
-69.2569
-39.8713
22.9295
43.3781
-50.1126
-7.53425
97.6391
48.4438
14.1499
-4.21966
-18.2786
37.5143
-94.2945
-194.284
-150.964
-48.7958
-39.8971
-14.8349
101.289
147.589
73.997
-7.57654
1.36236
26.7357
17.1537
-57.6689
-36.0644
15.2221
-43.551
-10.7114
45.2731
-4.70292
17.5704
-0.882442
47.7861
111.558
-5.64131
-53.9164
-68.3444
-102.014
-72.8524
-16.8918
21.8007
116.663
223.253
102.208
-78.7539
-83.5858
-28.1926
-38.8566
-66.4139
-83.33
16.3486
104.015
-20.1519
-43.8935
72.9197
112.924
75.4506
14.1849
4.37758
63.5382
-38.188
-131.888
-148.875
-78.2749
45.9834
23.1107
47.9983
117.383
-14.2307
-142.322
-76.843
-58.9919
-0.808635
10.4567
47.7163
74.3089
53.2019
-9.34418
4.11941
-40.4106
-2.06503
-3.96508
-87.954
-139.684
-72.3563
35.6553
16.9482
-17.1168
92.0721
172.45
131.792
89.6174
132.382
149.438
173.778
45.4575
-200.758
-182.971
-138.663
-112.015
-100.45
-89.079
4.60196
84.3062
8.64354
-4.95502
-7.32921
-64.0142
-62.9314
-19.6029
17.5412
39.2032
-4.88406
-4.9392
-58.754
-22.7481
104.553
136.942
182.989
92.5109
0.879662
-29.5617
-31.1263
41.3966
69.184
-58.5461
-21.1316
-36.1075
-111.816
-100.789
-123.357
-117.705
-70.5566
-76.3906
-10.2298
-6.10135
33.4688
55.7453
1.23227
20.0426
59.6016
74.2737
128.935
149.49
72.2142
46.6842
52.6652
28.0877
-0.164038
-38.2225
-54.9618
-59.4165
-55.8676
-103.966
-78.1414
-25.3146
30.1381
28.9439
-32.9317
-19.1795
61.3814
11.9331
-34.503
-41.4002
-8.90948
5.44818
23.1679
56.5601
101.917
153.136
67.3966
-23.9992
-26.0339
-23.0887
-71.6641
-99.6009
-56.6368
46.7034
-63.1728
-98.6362
-65.1692
-15.0883
-37.6883
-59.4785
43.6852
182.471
-8.74926
-108.726
-4.36614
44.3246
88.5136
136.038
109.852
85.0666
80.7194
91.8392
-74.4922
-267.249
-145.115
-91.7012
-113.58
-64.0383
-11.8511
21.9287
78.0359
-23.1064
17.7385
63.2198
30.1953
-12.3151
-7.62729
34.8982
101.371
41.7341
-21.662
-7.43811
104.968
127.857
97.5546
122.573
184.033
47.7774
-17.2378
-73.435
-122.477
-154.052
-149.021
-86.3185
-4.99238
-141.724
-135.608
-137.295
-181.191
-105.913
-26.7158
54.719
125.047
86.5415
78.7872
82.6151
21.6294
74.76
96.3791
23.1465
-1.81844
57.5795
44.0745
59.2245
-81.012
19.3843
25.3544
11.0827
22.447
27.8703
52.3364
93.8979
-11.7678
-75.8278
-84.0173
-67.8175
-57.168
-66.7984
-68.3885
8.67459
5.06896
-105.031
-36.5637
-63.6577
-33.6412
17.4632
52.5064
94.8018
68.4562
-30.899
-39.988
-62.1923
-34.7325
111.016
322.239
316.241
133.097
-11.6596
-68.0649
-116.529
-125.787
-66.7764
-32.6244
-7.29932
101.005
44.4995
-139.117
-157.31
-92.4398
10.4257
29.9378
-18.1635
15.1014
51.2967
-60.1979
-192.295
-164.911
-93.6177
-49.6578
1.75608
35.5924
115.989
210.995
125.388
-6.57483
45.541
109.662
7.08396
-59.6951
-16.344
-1.04066
-86.9643
-79.042
-27.1929
-9.44142
40.9881
61.6117
94.9397
145.293
41.8215
-26.535
-61.3407
-111.97
-50.7176
33.4079
74.9376
76.687
35.6562
5.9016
-7.27422
-43.7199
-10.6819
27.3325
14.5081
-16.0807
49.5227
-10.7745
-75.2318
-124.818
-73.9169
-23.2271
3.90811
29.1361
40.6647
46.9033
-14.8258
-70.4601
-37.1532
-16.5982
-18.7121
-17.6171
-18.3142
13.5332
95.1896
50.7008
-95.714
-23.2461
38.8199
6.54574
-18.7431
-4.0971
47.7336
-83.2778
-73.1512
-44.0461
20.8542
182.977
211.286
161.678
123.927
17.7308
-7.74935
-65.4037
-171.548
-147.814
-109.02
-35.7043
50.5172
7.26334
-11.7898
2.89099
-56.3891
-17.0499
-12.2913
-22.5382
47.8813
-67.7878
-99.4378
-35.4809
-4.49229
49.3228
98.3795
85.0134
27.9027
24.288
-5.64284
-85.3611
-66.7236
34.8194
132.719
177.715
183.162
236.178
50.1061
-89.8793
-206.24
-161.011
-104.62
-71.3913
-4.58828
110.495
128.658
-9.80549
-34.9591
-127.397
-150.952
-110.466
-90.9987
-100.597
-93.667
-34.3678
-121.266
-123.989
86.8006
225.361
268.858
272.098
258.429
228.088
0.437226
-147.772
-184.623
-90.6704
-70.854
-31.8034
43.8779
65.2736
63.2244
31.1679
-35.5736
-71.2766
-15.8986
-37.2258
-52.5873
-74.8984
-121.881
-31.9761
-129.67
-178.391
-59.9914
1.37798
29.3765
114.266
137.179
152.403
130.268
19.2294
-11.8727
25.3921
46.0434
13.9591
82.4769
158.194
55.3923
-64.0957
-118.251
-134.469
-42.6304
-5.16508
49.2066
80.7266
-53.4036
-94.7467
-69.3471
-25.0572
30.0273
85.2989
142.17
105.479
-19.9343
-135.274
-127.923
-111.838
-23.1536
14.6083
0.48985
2.54217
44.6216
-39.7921
-74.5793
-102.806
-18.6449
21.8911
17.7573
2.95134
22.1178
105.099
49.9555
-94.748
-0.139888
79.0014
30.5085
20.7373
68.2747
101.469
138.48
150.792
28.6002
-38.7647
-76.7112
-53.1048
2.04293
-29.9707
-24.0857
54.804
25.6796
-111.461
-170.733
-118.456
-72.6405
-70.1309
-65.7616
-14.8864
0.356207
-56.2341
-22.563
-34.1433
57.6152
137.057
106.879
124.044
97.2601
-41.0851
-32.4293
-79.5857
-62.2895
88.7862
125.282
96.8567
87.3651
113.902
-22.7858
-157.481
-126.148
-13.9141
-13.2006
-67.9423
-29.1169
56.7104
65.9071
-101.086
-91.6299
4.45644
1.17679
16.0523
77.893
76.7044
7.69786
-21.3932
-27.6403
-40.1141
27.6024
47.0654
19.7009
59.7858
67.4014
-25.2654
-146.082
-166.69
-131.775
-91.1227
-15.67
147.851
177.44
41.2083
-2.03826
-28.7364
-9.00437
39.6753
7.95591
23.4114
64.2033
-10.1962
-70.8255
-33.829
22.0306
24.7203
16.9397
26.1972
67.9954
189.368
162.55
-113.74
-202.526
-176.518
-146.187
-98.1885
-38.1292
51.8928
73.4543
71.2539
-3.42152
23.7332
35.2171
-38.1386
-74.009
4.52852
55.5679
50.4206
83.7231
-2.13365
-54.1369
39.2758
46.1786
53.4038
57.4469
12.8641
-41.0728
-161.215
-121.509
-80.5099
24.7776
113.864
153.83
140.98
92.5447
-10.8746
22.8305
13.9031
-82.7466
-92.4805
-104.347
-45.9729
-42.1594
-95.8158
-93.7728
-71.0796
-25.5855
57.0401
46.224
91.9571
149.733
14.8299
-133.827
-121.972
-71.4685
39.0014
39.4284
16.9952
32.9941
25.2808
23.3967
20.5298
73.4107
187.233
143.531
41.3201
37.4906
10.7349
-107.435
-182.83
-170.573
-99.3956
-41.6244
-47.4218
12.2325
16.2428
98.0057
-10.1651
-22.3149
-2.94353
-17.5374
-2.14593
22.5831
64.1341
120.341
101.827
3.70442
-1.73844
-26.7849
25.8014
52.1911
23.0395
70.2349
36.4145
-67.6308
-18.0777
30.9926
35.3765
-20.9616
-34.2347
-81.5752
-90.1715
-49.8013
-54.1567
-72.9395
-39.9938
-49.4286
-51.7508
-48.6784
-21.2883
57.5893
38.9345
-196.215
-131.182
31.3641
33.1638
23.372
93.1121
156.229
163.366
59.7843
-46.8699
-0.656848
41.6497
26.9822
43.6772
63.526
104.065
52.8776
11.8567
-40.4429
-25.7698
9.76578
-23.2625
22.5918
9.99274
-59.7375
22.4705
66.4302
-5.91057
-39.4588
-5.77851
-31.6388
62.8512
-14.0636
-152.164
-102.489
-54.2712
-8.08458
-14.306
-85.1216
-131.72
-16.1132
-18.2941
-65.8095
-155.255
-79.3554
-28.5813
4.50432
42.049
83.519
172.001
166.762
-38.7281
29.3409
119.302
118.567
104.757
77.3826
107.308
125.15
-48.5376
-123.918
-115.996
-39.2459
32.9864
76.048
110.077
67.1194
-13.7271
-0.589265
-54.9173
-91.7785
-55.4096
-68.6305
1.41775
-71.9049
-148.231
-141.396
-102.919
-70.9726
55.7144
105.784
146.645
200.497
85.7444
-84.1715
-157.856
-150.127
-80.0758
-59.5184
-36.6506
16.1888
66.1335
19.2662
26.8343
19.5394
49.3398
74.7683
100.076
158.024
204.146
105.479
8.61868
-99.1797
-148.111
-108.858
-78.7264
-46.2206
2.46023
66.1126
-8.49965
-78.1908
-112.635
-76.4117
-90.1939
-3.31962
50.5991
48.7272
42.2303
41.0146
-50.6599
-49.319
-21.4884
-10.891
70.2511
108.756
138.512
210.865
93.8625
24.5854
6.57467
-20.5104
-7.9268
10.5019
-4.59055
19.1125
74.8521
-37.772
-211.271
-252.053
-159.164
-38.2022
36.1992
24.0648
42.2658
71.857
-28.8671
-116.673
-60.3718
-54.7202
-21.3491
6.68182
48.2837
99.3279
69.5226
-40.411
-116.298
-52.6255
25.4689
51.9108
179.952
225.8
81.6341
15.2151
16.7616
-42.0836
-62.9384
-43.7263
-3.69463
33.7275
34.8416
-67.0114
-82.8054
-115.572
-82.3619
-28.6403
-12.488
76.5704
195.723
151.95
-63.2837
-167.239
-100.257
-44.4754
27.6609
96.1556
91.8516
-5.46034
-38.5484
-111.343
-213.976
-56.3652
106.838
195.803
154.77
106.065
99.2811
71.733
-77.1956
-131.4
-81.469
-73.3417
-62.0044
-23.4586
35.0371
17.1519
-43.2305
-11.8327
-16.6695
-3.52797
97.517
139.719
142.944
-2.86716
-69.8879
-67.566
-84.9121
-98.9641
-75.7086
-31.7288
56.192
-22.7506
-30.466
-24.2348
-65.1329
-50.1139
46.6109
89.3603
115.696
66.5387
-40.886
-89.3584
-80.8595
12.2853
56.3265
49.8334
48.1263
34.6761
-42.2979
-60.0152
-48.0384
20.9535
58.1603
60.0166
14.1104
-3.6539
54.7822
-56.4445
-54.4125
100.862
232.398
146.018
-16.8852
-73.6352
-90.0348
-89.4344
-98.2042
-71.9821
0.869023
-2.72646
-32.5176
-16.4161
4.85774
27.3593
99.5908
-26.5453
-96.2443
-53.0239
-47.9098
-63.1577
-49.596
-11.4811
43.2394
-2.37807
57.9785
52.5087
25.2603
7.95783
15.5072
25.9921
71.8598
84.7488
-13.9851
-20.771
-25.3658
12.747
-2.42735
10.6881
-20.3482
24.9336
15.0716
-94.7017
-207.78
-30.1758
88.487
78.9773
47.8139
42.2041
80.5387
148.244
-68.7568
-156.715
-77.7261
-21.7346
9.05776
69.2081
44.9715
32.6091
-48.0784
-110.024
-58.3754
30.2279
38.8814
-25.2751
-25.8665
-14.0236
-33.6298
-39.9165
-12.0114
-33.0473
79.9203
134.875
119.772
84.9439
-116.569
-115.874
-56.3478
-1.71037
118.099
121.813
74.7342
156.059
12.726
-71.4643
-104.029
-47.2548
17.495
11.3679
-22.1946
26.0701
82.9486
-37.6005
-127.323
-159.732
-71.5415
-74.5315
-57.3958
-19.2148
-27.0847
-45.1393
34.5431
31.355
26.1772
34.6598
14.8672
94.2231
150.66
62.2364
44.8513
-16.7538
-91.5598
-4.86376
47.5985
35.176
24.0762
28.1673
115.218
85.2374
-92.6279
-92.718
-101.965
-124.147
-61.1685
-60.8415
-6.21614
-17.5034
-152.469
-113.353
-47.7743
-0.677695
86.9551
175.217
230.179
269.963
202.68
31.4869
-96.5121
-145.465
-33.2508
-12.5037
-33.5966
-39.4341
62.5644
78.2822
-30.5107
-90.3616
-28.3832
16.2146
-6.88142
-67.1082
-63.733
-28.3834
-135.346
-149.602
-95.0001
18.4434
63.5642
110.618
141.359
115.797
2.87079
-63.9727
-78.2276
-84.4393
-58.002
-19.0494
60.3567
109.095
0.557607
31.7496
82.8076
7.77004
17.5218
-29.6333
27.2884
88.46
14.0071
-89.0488
-47.2443
1.41147
77.6383
85.1252
52.1397
45.1713
111.736
22.8059
-59.169
-90.2772
-45.0508
-108.36
-133.889
-127.534
-9.55007
78.2791
20.7292
-66.4393
-35.8344
25.8933
-7.50231
-49.7351
-53.0429
7.87362
84.0945
51.6861
15.6068
64.9978
67.303
13.1011
0.490571
9.81559
14.2754
-26.5505
37.4351
33.7786
29.8605
33.8436
-23.644
-19.5935
17.8687
-109.464
-95.256
-60.4081
-19.2287
-5.61508
-38.0278
10.7116
80.1886
-23.4808
-6.29063
22.658
33.81
76.2356
10.5221
-74.9503
-58.997
-50.2548
-47.1838
-26.3586
-4.46239
80.5964
53.2815
29.2713
84.7139
164.393
30.2009
-78.2398
-76.41
25.3983
54.0494
29.2327
30.4563
149.746
-8.93661
-105.276
-93.757
-48.8923
-32.523
-11.4952
34.9876
106.519
-49.0606
-153.098
-146.488
-116.829
-2.48569
99.9265
119.464
54.7497
3.71983
88.2047
-28.8082
-189.102
-128.202
-55.7675
4.86393
80.8631
127.503
138.467
-4.20517
-67.0641
10.1782
67.1981
32.3386
-8.71646
-16.1592
23.8282
-56.691
-35.6242
8.77972
-39.4142
-4.67942
18.6706
52.4217
79.1108
70.1681
-32.7413
-69.088
-69.7316
-6.03979
9.17384
69.4002
69.494
24.0196
-41.0319
-8.67285
-40.8283
-30.4016
25.0335
11.18
-37.4661
-79.003
-115.802
-61.2619
-30.3811
-24.1739
30.8425
73.9623
125.528
111.576
-28.4165
-35.1365
-21.7851
-52.0309
-15.0842
48.9149
102.015
135.484
48.9453
23.7436
-76.8783
-65.8108
-5.1617
-35.3669
-92.9255
-55.8062
-34.27
-74.7577
-46.3978
-11.0606
47.287
32.9346
-7.85187
38.51
73.6182
-56.564
-181.898
-73.2946
52.7628
67.9903
101.948
129.213
128.916
130.447
46.2744
-2.81568
11.1389
26.7337
-39.584
-70.4192
-18.979
-9.06122
-43.8124
-58.5464
-46.4127
-11.974
-43.9884
-104.831
-33.2707
22.6495
6.5379
32.4292
17.5009
-2.55526
44.6437
4.33804
-19.0776
-12.4713
-66.9624
-64.2417
-46.6641
-15.7336
12.6002
-4.97426
27.3498
129.923
155.098
46.7566
24.8956
-23.9527
-27.1616
-37.9759
-46.3733
-40.031
-2.73503
-33.6517
-46.5063
-27.3132
37.5917
123.672
99.8994
15.0831
31.9012
-25.3886
-69.5116
-51.7982
41.4154
68.427
13.1155
9.93235
58.5864
-81.4478
-43.9205
-14.3474
-58.0098
-57.4851
-77.7239
-61.7064
2.46929
-48.0993
-61.1836
47.6224
114.546
110.152
43.0184
-13.8269
23.9274
-24.0141
-114.35
-116.05
-59.2248
46.6371
19.0881
-6.58283
35.2953
127.491
98.6903
28.7515
-12.1474
16.2904
42.4094
-3.6045
-37.6217
32.598
85.0083
6.39737
-77.9072
-54.8536
-12.0096
-24.7592
-51.5108
-20.2026
20.1917
122.646
4.28673
-52.9298
7.99174
44.0117
15.8514
-11.0392
4.5936
64.5277
-89.5777
-117.917
-67.1732
-37.4518
-73.0447
-80.6411
-16.928
52.9686
-9.91521
-30.4818
46.5721
73.3495
112.633
68.7863
87.7173
122.012
1.71295
-56.5185
-74.2838
-100.176
-16.4526
3.68411
-3.49514
65.4608
98.5656
-28.1667
-35.2464
-20.7592
64.381
100.776
34.5428
-47.3007
29.0548
-78.4982
-226.907
-243.606
-153.997
-72.1059
-7.02775
32.4968
117.02
70.4373
-19.9798
-55.9003
-8.46451
117.92
116.787
100.265
203.6
117.435
-27.5794
-51.46
-47.5019
46.8748
137.881
118.432
64.683
35.5923
82.8984
-59.6132
-88.4144
-54.0139
-59.5771
-118.127
-137.339
-75.1613
-21.8231
-104.945
-147.958
-95.8207
-16.2024
47.5725
63.8875
-1.75894
11.274
26.1246
-47.7758
-19.6793
-38.5529
59.881
70.7414
30.3577
73.3602
198.82
71.7697
-23.3847
-51.1679
45.5199
40.5951
6.25336
-33.4207
-61.7267
-132.467
-60.2749
-25.1079
-4.32563
64.406
41.9001
21.7788
4.34802
-82.023
-62.8676
-41.8265
-97.9342
-32.7971
51.4396
119.144
100.54
-69.7092
-29.9823
4.5634
0.90938
85.5833
130.862
107.643
78.5358
42.5252
36.337
-27.608
-46.7673
-1.25292
-0.613204
-17.8333
20.1947
25.3085
-62.408
-78.759
-100.761
-75.4679
-59.7338
1.31541
47.0143
70.2047
-41.999
-54.9624
-171.143
-121.19
-95.6871
-38.1283
-19.4244
24.9028
116.208
162.129
3.2668
51.2117
135.576
63.9961
27.2813
52.5884
107.302
60.4555
-152.021
-191.682
-86.9493
-36.4114
64.1634
161.838
268.822
243.146
-2.84244
-76.6644
-126.382
-159.435
-108.053
-90.3095
-11.406
-25.6948
-127.055
-68.3785
-22.1391
28.6609
31.8101
-37.1078
-26.0079
6.16619
-1.8123
-92.1505
-123.745
-68.8958
115.138
132.14
118.451
164.372
130.756
-2.05662
-61.9281
-57.5313
24.927
37.2367
36.8406
123.953
179.444
48.7774
-17.0319
-123.75
-148.165
-54.0182
-76.7289
-46.3263
-36.8357
-128.07
-76.3023
-81.2172
-33.7915
19.8301
50.558
120.177
52.1407
-30.899
-34.2448
-67.1408
1.40546
112.893
124.348
165.458
196.217
90.7443
21.0813
-55.8414
-68.0644
-5.9467
-52.6889
-91.2017
-43.7138
82.6819
-58.9565
-163.268
-21.9161
57.878
-28.8587
-95.1139
-78.3149
-14.7937
97.989
122.203
-73.3993
-153.469
-115.17
-45.9667
9.76278
35.9526
54.5728
172.749
94.6093
-123.864
-67.5234
-25.381
-15.4449
4.50245
32.3987
63.6815
54.8364
15.3895
4.5175
-18.4498
67.2368
98.5271
11.6501
-39.1746
-44.5435
-31.2114
23.3442
-23.1565
-12.2102
9.46351
21.3271
97.5256
6.88488
-42.3156
-34.4127
-47.5116
-16.2789
40.1556
5.81348
-39.5211
24.428
-4.70933
38.236
-11.8017
33.7081
104.509
42.2696
-23.4748
42.3891
46.7293
-93.5551
-130.51
-71.7347
-36.5012
-36.0552
-49.5376
-40.0077
-23.5499
39.9773
24.4689
-20.78
52.7182
43.5463
4.0679
65.2042
12.6396
-161.361
-149.23
-123.6
-49.4236
41.5951
48.2222
73.1809
122.256
156.508
36.3734
63.1686
63.9727
-36.3683
-44.0239
1.85137
22.4665
23.9154
-29.348
-47.737
20.6219
131.566
90.481
0.500005
-47.1455
-76.4293
-7.11685
17.2744
-124.69
-106.351
-24.8797
-72.7998
-85.6723
-75.2276
-13.2569
61.4151
-5.76094
-8.65882
70.0157
12.3698
-31.9453
41.9223
102.273
136.009
115.358
186.928
83.5759
26.0947
18.6279
-145.635
-126.312
-83.9048
-144.958
-30.8207
0.353451
-22.4253
-8.49643
-55.7849
0.833131
73.2951
36.9035
19.0047
-6.00926
-53.7146
-55.931
-71.2857
-17.0473
38.7077
29.7112
137.135
134.64
33.5128
28.6314
-40.3254
-55.9589
5.23559
35.2195
-82.7017
-95.1659
-84.0288
-17.1994
-14.4433
-38.8192
-18.9144
39.2623
45.575
-24.1111
-59.703
12.6813
-46.7071
-63.8417
-18.4007
58.8409
102.308
114.972
-68.2809
-44.8917
68.565
85.0185
92.3587
140.578
128.52
99.5759
-11.5991
-36.7913
-19.4166
-16.5139
-16.199
4.28791
41.5052
33.0237
-88.3221
-112.655
-121.585
-115.611
-39.6935
-15.6087
66.3583
-53.117
-174.677
-166.046
-144.866
-121.772
29.747
133.237
174.584
211.564
164.192
-54.2956
-69.6348
-37.0941
15.0154
22.9426
14.7085
4.34074
74.0058
20.5981
-33.991
18.8255
92.3047
112.065
57.0749
-10.5296
22.927
-80.3796
-84.0942
-87.627
-69.7825
44.0957
28.2369
15.677
69.5565
-66.5141
-80.0449
-53.7853
-62.6577
-20.3809
38.7885
92.9315
68.5505
-141.766
-140.668
-95.5836
-121.054
-30.7241
7.4717
43.8706
99.5528
137.061
115.926
89.7325
38.327
97.1366
60.7553
-4.61268
-22.3523
43.4115
-30.811
-78.3164
-84.8784
-14.9764
35.3979
79.0475
86.9962
99.2187
102.723
-125.261
-191.8
-134.619
-38.4755
28.8371
98.5425
109.889
9.67321
-23.2157
-60.5565
-160.122
-138.498
-59.2533
-5.66933
63.4978
72.1457
29.6576
19.2843
-49.1265
-54.2703
25.9844
19.1599
-12.6271
-39.2307
29.4897
-37.8327
-90.6354
13.284
79.5651
133.231
174.106
160.842
112.605
-8.35108
-75.5315
-86.7312
-73.2843
-72.3681
-0.200229
-24.7748
-41.8666
2.08405
93.6196
-37.8479
-94.5709
-35.9928
31.4552
8.88808
13.435
44.5998
63.3678
-2.13628
-80.4662
-86.6815
-48.6866
-62.3832
-62.5192
0.0501477
41.7818
20.2813
46.9537
4.99984
-58.6917
22.8221
30.1255
102.48
178.503
91.5593
9.33756
-20.6589
-83.3
-65.2041
-24.2382
-11.2938
-22.6594
52.6672
73.5599
-79.2242
-67.2539
-36.4171
-25.6867
3.84724
6.4886
53.0461
13.675
-90.2967
-87.9264
-14.9383
27.2149
3.62375
-27.0656
-1.43938
55.2914
141.019
26.5472
-48.484
-29.2501
105.631
127.737
29.0141
9.17495
95.1107
42.6849
-104.795
-117.049
-78.5
-83.104
-45.3406
47.1407
121.625
-3.61156
-53.9972
-64.0444
-71.4155
22.7664
36.4115
14.0398
13.8562
-76.1213
-78.3773
-40.9937
-73.0106
-4.04965
82.2362
83.4599
104.082
40.0233
-37.5038
-57.5767
-110.254
-41.6073
17.4059
43.3947
105.068
79.7148
-57.2534
-53.7153
-44.5048
-30.0315
28.9829
43.5914
10.3068
2.72865
65.0071
-4.4486
-8.61494
75.1039
164.064
139.287
83.1219
100.081
94.138
-1.27641
-235.461
-257.557
-182.519
-114.745
-72.3234
-47.1981
-13.4858
73.8015
122.167
-29.9213
-40.3191
14.4591
1.3837
-58.4205
-144.955
-146.152
-50.6625
-16.0802
86.402
179.07
265.464
236.535
153.577
85.8575
83.0592
-75.5828
-112.976
-97.6208
-76.9094
-42.8722
-104.705
35.4462
150.65
-19.7095
-91.9107
-113.137
-123.516
-54.8312
-46.7062
-55.2642
-28.0982
49.2631
118.983
-1.16344
-47.3904
62.6516
111.024
51.5938
-28.0878
62.7341
116.331
-112.213
-219.445
-84.6982
20.6079
53.0918
30.6568
82.2864
63.4821
-100.214
-113.27
-46.2014
54.1673
157.806
111.43
133.707
97.9448
-22.429
-70.6884
-62.5383
-46.3225
7.16989
3.62053
115.611
129.878
-20.168
-35.9513
-44.5161
-57.3719
13.682
-19.246
-67.9193
-42.8066
-91.5223
-129.321
-111.53
-63.4153
-18.7477
-5.82862
12.2833
15.648
97.967
56.4304
-61.9949
-56.1797
20.3467
42.8031
52.1247
59.977
101.862
140.921
117.32
-41.3888
-59.4411
-45.9841
-61.89
-64.8741
-6.33603
117.223
124.263
-22.0812
-82.4951
-92.7286
-47.8185
-20.9108
16.1298
75.3739
23.4118
-52.1976
-34.7414
-59.8066
-99.6632
-63.549
-24.2195
58.3332
17.2061
-21.2421
-20.8868
-50.6999
-40.1751
56.6326
131.03
250.129
275.164
33.7119
-54.5213
-110.82
-114.646
-124.106
-115.365
-28.8355
84.6775
156.057
28.7242
-42.7911
-18.491
12.6355
-2.81132
-53.2319
-38.5019
-4.72769
-56.6897
-90.157
-74.1337
27.5506
75.2384
67.9169
120.208
43.858
-67.9967
-70.2216
-97.4955
-90.7358
41.0739
85.965
149.471
144.229
-26.017
-99.3624
-112.607
-82.4787
2.23377
53.4715
37.1594
41.0879
40.7605
-25.5714
-115.129
-73.1657
-11.7496
-2.29634
7.98694
24.7352
87.8579
88.2433
49.3926
-120.422
-25.4031
31.225
35.6207
25.8977
-18.1197
-38.7865
14.0227
-39.4802
-80.8593
-22.6961
113.805
199.882
128.568
45.5788
67.2184
-37.8574
-133.253
-142.649
-124.998
-38.9172
-12.8125
48.5143
151.827
0.24823
-86.2804
-107.878
-104.421
-24.8664
37.7429
53.0428
19.1862
-79.6174
-54.7311
-21.965
-8.56408
37.0092
49.5457
60.2309
77.5842
-6.73934
21.3162
-9.10896
-56.8398
33.5083
50.7023
17.7231
56.1129
90.1374
22.0126
-39.0716
-84.0185
-41.3102
-12.0148
-18.7203
-51.26
-32.3975
-1.41984
-105.425
-86.0928
64.7468
167.518
192.135
75.9116
76.5902
55.5405
-56.7984
-143.354
-43.0362
25.4164
15.7771
-23.4432
-8.79604
34.2133
127.23
26.9205
-140.66
-112.132
-34.0436
-130.893
-190.931
-167.147
-22.237
-42.0743
-25.246
26.0772
59.7091
71.1205
74.0899
106.821
123.18
38.6351
30.8005
54.7828
14.8096
31.0009
127.372
112.437
82.0676
155.909
130.503
-17.9102
-168.87
-72.6781
-28.3227
-76.8486
-97.2763
-119.161
-61.4873
-114.863
-182.392
-85.4312
-55.6496
-30.2259
-3.94978
39.4535
84.0775
15.2443
-13.6956
-18.8154
35.0492
74.9152
71.5033
39.8857
48.4144
46.1088
74.7741
61.2699
18.4044
62.9603
101.902
82.2558
37.0376
-57.1441
-72.4583
-100.83
-98.7211
-44.7596
1.41291
41.0199
84.7446
37.0498
37.9536
18.4303
-48.0817
-85.1595
-128.317
-124.51
-86.2466
-112.402
-126.524
-109.291
-36.8356
49.6435
50.1512
