3.69404
-20.9059
-90.3685
-81.014
0.404703
50.3334
60.1632
18.4408
-41.3305
-40.5426
-9.03499
-7.21808
-26.9195
-43.2082
5.32193
6.54181
-62.2351
-13.6272
8.1653
-18.6987
-37.7153
-26.282
-0.735052
-12.2069
-62.0864
-79.0648
-35.5301
23.9872
126.279
224.383
204.805
129.238
104.828
47.9974
-109.103
-227.725
-219.34
-138.286
-64.2577
-27.5475
-10.3102
23.2956
79.4946
79.7314
54.3709
50.715
45.8321
31.887
7.59232
-44.1993
-59.2877
-64.0225
-70.8128
-37.919
-1.50658
-13.0789
-29.5137
-0.430689
49.919
50.5823
25.9943
27.6593
48.182
81.247
79.1128
79.1082
126.287
142.742
88.9468
-3.54974
-65.6925
-56.1949
-83.5465
-143.113
-184.333
-164.49
-79.4866
0.103943
13.1577
-20.5847
-39.8447
-29.0486
0.614703
-0.525663
4.97891
16.301
44.6644
57.0466
30.7231
-24.7473
-62.3428
-85.0128
-66.0611
-6.78548
79.9534
137.43
147.165
116.047
103.649
106.037
48.5734
5.73671
-32.2485
-45.7798
-26.5031
-27.3856
-96.253
-146.605
-136.239
-92.3258
-40.2664
11.1084
46.5843
55.9274
86.1019
43.5554
-33.587
-56.7387
-46.8433
-13.4652
35.2829
67.3268
84.9323
78.9131
49.5502
12.5841
4.54813
-4.24215
-13.0337
18.7261
29.515
29.3762
64.0143
72.3866
-24.5651
-57.4112
-56.6816
-79.0809
-92.9415
-75.1146
-31.8837
-29.7439
-45.8821
-55.6306
-61.625
-43.7387
-38.3382
-21.5251
14.4288
31.5551
48.0584
61.2572
37.6208
25.0604
37.716
43.2948
32.1044
-3.6176
-32.1087
-52.8378
-49.4296
-41.0691
-18.033
22.6039
88.681
148.141
157.474
113.582
106.988
86.2217
52.2864
3.64675
-57.7848
-82.9087
-22.3509
-21.327
-64.2006
-37.8603
-18.4713
-62.1491
-91.7086
-123.285
-141.874
-98.095
-71.8427
-74.5407
-102.896
-83.4338
-48.6995
-15.8471
12.5678
33.2799
40.3588
46.161
60.5634
122.905
140.719
90.153
64.4619
95.7439
119.841
144.003
136.866
73.7938
12.5533
-43.9575
-55.3048
-39.7642
-63.5377
-52.9316
-52.5176
-37.4446
-4.44236
-0.059303
11.7736
-24.6546
-41.887
-26.2728
-13.3527
21.4278
-20.6758
-81.8513
-93.3127
-98.7719
-85.1735
-27.1392
34.2968
91.5018
141.609
121.489
71.1825
1.66366
-34.7552
-56.4561
-109.86
-118.924
-56.1044
-32.1125
-40.8248
-43.3454
-2.7003
38.2082
59.4414
68.363
34.6518
2.27796
-1.76565
-6.15313
29.6511
85.7139
71.1052
18.7992
-29.3215
-52.5914
-41.8846
-28.431
-7.98765
78.7818
86.1085
66.3187
95.2438
69.8431
2.64511
-37.7173
-28.1466
-50.3387
-78.1262
-60.0191
-52.8877
-71.0679
-45.6082
37.884
107.104
79.1378
12.03
2.09472
21.76
-19.5508
-61.2413
-68.2978
-58.6835
-22.611
12.6621
23.0477
10.3192
4.14846
-9.53543
-48.4801
-76.8617
-50.0187
15.6596
35.2865
34.2583
9.57338
8.25304
21.7706
-5.56526
-22.3349
-4.62521
5.6719
14.5126
-3.49327
-11.9894
20.0391
62.257
129.35
191.369
171.789
46.9345
-61.5824
-112.132
-112.055
-110.194
-85.2759
-70.4416
-65.968
-50.1578
12.6494
50.5042
46.9635
81.0178
157.66
90.7728
18.1814
-43.3322
-116.248
-148.076
-121.649
-51.4115
-9.84284
-13.492
-19.0515
-11.38
12.9998
22.5093
25.5472
17.4748
18.8137
38.5263
27.3838
-16.7892
-41.5754
-7.38286
11.8516
13.3981
-17.3211
-56.6947
-48.1261
0.547107
68.9373
99.2146
152.919
235.552
253.483
66.6101
-115.047
-129.317
-91.677
-62.9656
-36.8004
-7.3272
80.3079
127.626
29.57
-30.6559
-52.9623
-91.7221
-111.559
-104.595
-104.812
-95.9612
-102.074
-144.604
-133.907
-20.2149
67.9683
59.06
4.65028
-6.99998
10.8941
2.64372
-43.4203
-26.1909
48.1455
82.2987
108.398
137.469
138.822
124.698
94.4717
71.7686
33.6168
-11.1762
-37.2082
-7.33226
25.134
17.7281
-9.5475
-16.6076
-27.7677
-62.9337
-95.9859
-89.7742
-30.2237
26.1801
80.7386
119.267
132.961
74.1014
-9.80474
-61.2212
-109.571
-144.822
-135.471
-96.8323
-81.9976
-66.9253
-29.1701
7.77803
63.1286
18.3027
-32.4644
26.5759
98.5622
101.251
33.9951
-52.9818
-72.8738
14.9792
80.7744
53.6313
25.4558
-11.6539
-78.4079
-129.833
-107.923
-57.9773
-25.338
-9.12986
-29.8647
-12.1682
18.9498
27.7902
22.1183
31.7276
68.0458
121.154
113.54
43.9696
21.3356
62.2637
57.5527
23.0832
37.6595
74.5922
99.6596
101.99
56.933
37.0722
104.736
74.933
-31.215
-118.074
-164.082
-154.59
-128.242
-120.942
-100.699
-76.5081
-97.9918
-100.394
-87.4264
-51.9691
-15.4283
18.2178
63.3735
82.0033
29.0754
-53.5203
-113.289
-34.6021
87.7424
92.2107
56.5621
76.9738
98.6514
112.549
104.8
20.2248
-36.1143
-87.8123
-114.513
-57.4702
8.16238
39.4509
26.0522
30.9199
44.1536
34.0208
-5.18625
-22.0729
-13.8921
1.5815
7.03255
-33.7673
-62.505
-49.8413
-34.4293
5.05022
36.8874
63.8502
86.2083
62.5939
13.4158
-1.67948
-6.23364
6.2921
18.6593
8.68377
2.25303
9.07539
20.8351
45.4417
11.2367
-88.7622
-144.03
-149.405
-120.812
-19.7539
91.5946
169.448
145.281
100.01
36.9123
-39.4103
-35.5034
-63.9853
-34.3216
-35.3928
-52.5782
11.5314
93.7037
77.3761
10.4265
-36.4519
-34.2265
-35.2331
-83.0505
-132.296
-138.325
-132.779
-100.69
-58.4421
-9.71086
41.4646
29.8177
-13.0271
-38.3812
5.68534
33.9418
14.9067
-12.9144
1.38584
66.881
135.219
153.021
146.485
143.537
125.751
99.8116
78.9788
81.6475
73.6061
54.7943
35.7456
8.91055
-14.551
-33.7765
-34.4362
-34.2719
-38.6141
-76.7881
-103.816
-113.045
-119.81
-127.007
-143.745
-142.619
-121.94
-88.4324
-19.0311
-8.07038
-18.416
14.4607
109.292
259.927
285.22
167.654
56.4211
-2.58974
-55.1306
-147.13
-143.476
-42.6666
84.0704
105.032
94.8842
72.6917
-1.81562
-109.922
-187.161
-156.781
-110.938
-99.1916
-122.195
-181.162
-172.849
-85.7854
-1.99748
51.227
93.1403
139.357
133.476
87.7542
32.7835
40.5237
65.8713
88.8694
131.234
170.689
167.696
149.95
131.966
108.781
66.0965
-0.824817
-40.0517
-38.0461
-43.9124
-64.4863
-89.3235
-74.2471
-43.8764
-38.6396
-38.9987
8.40555
-16.9055
-63.8332
-77.8174
-88.9377
-91.1497
-60.5248
5.14971
35.2468
-26.6596
-58.3777
-47.1049
-11.5888
8.58741
14.8173
-7.45439
-24.3058
4.60037
52.3904
106.095
100.736
8.22546
-62.2953
-78.96
-43.3863
-14.8925
-24.5656
-80.7809
-112.22
-87.3478
-60.6862
-17.4014
40.399
75.6527
65.6271
113.16
144.717
37.7873
-110.652
-139.151
-121.342
9.87191
91.0137
108.775
142.985
350.625
478.98
223.221
-88.2123
-132.76
-104.733
-133.375
-115.609
-100.078
-34.2384
12.0107
-67.3667
-12.8338
55.4882
92.8969
98.9833
-9.50142
-136.231
-207.504
-172.213
-205.63
-226.291
-55.6327
142.482
177.265
119.398
117.674
94.5353
47.161
10.6404
-62.2491
-208.988
-298.412
-254.935
-178.839
-69.2549
36.383
128.078
194.386
169.119
72.0841
0.904305
55.383
127.054
159.113
164.875
117.191
-7.2811
-87.6737
-111.741
-113.826
40.9948
186.528
173.942
124.716
86.4443
20.1785
-37.3562
-61.8087
66.3888
27.6791
-106.428
-69.8344
-78.3703
-277.618
-341.024
-206.828
175.422
717.594
890.033
513.534
-36.7334
-473.626
-623.398
-476.882
-375.697
-455.167
-528.59
-387.92
-135.131
118.623
107.975
186.367
395.043
527.74
300.512
97.9685
-172.296
-494.257
-548.405
-246.018
356.495
625.594
591.536
281.431
-163.218
-245.25
94.3136
389.478
197.314
31.2999
21.5236
-149.399
-358.777
-228.54
189.791
292.698
112.817
-215.776
-532.9
-693.935
-697.317
-319.026
218.711
482.607
648.888
717.811
924.827
811.886
229.418
-62.9885
-169.046
-352.345
-386.104
-461.296
-615.875
-626.138
-488.138
-64.2255
193.579
342.848
167.181
-98.1305
36.9418
182.588
150.828
76.0184
-184.911
-308.492
-219.149
-189.91
-94.4526
57.4896
336.219
469.663
309.923
-34.0625
-256.66
-467.827
-397.667
17.37
497.381
861.698
617.896
118.899
-276.667
-623.043
-744.233
-520.499
116.716
222.166
122.327
99.7195
-87.4602
128.195
471.174
548.714
687.244
666.197
617.858
485.092
-26.8032
-550.66
-630.491
-631.358
-475.396
-311.814
-346.774
-501.218
-472.686
-372.47
-185.917
-118.139
-236.517
-598.21
-542.86
134.462
566.545
300.643
-185.539
-440.943
-100.982
446.68
1067.37
1369.19
1002.28
656.471
283.584
-307.198
-574.781
-529.6
-599.984
-791.894
-577.375
437.981
1569.77
1799.27
877.34
313.962
-87.4542
-656.7
-683.199
-431.246
-651.067
-1108.24
-1216.12
-807.959
-82.4571
395.184
497.158
406.815
298.09
311.459
20.7964
-523.423
-986.161
-1183.64
-653.157
48.9795
569.504
615.994
257.459
-279.899
-507.384
153.609
1308.42
1705.77
1112.41
836.907
585.328
840.036
691.152
-121.642
-280.505
-182.157
-786.636
-1112.49
-850.575
-782.163
-825.987
-568.287
-161.628
98.7463
131.235
-146.703
-523.984
-426.995
52.4086
187.762
-163.904
-726.858
-871.624
-457.798
-117.346
235.446
907.753
1199.21
768.503
970.398
1404.5
1420.45
1022.11
371.365
-350.118
-609.703
-759.547
-968.489
-713.903
-163.645
48.1512
-133.22
-62.4822
605.583
780.203
385.71
-281.618
-640.371
-807.078
-1336.42
-1284.51
-536.897
-51.9836
-69.6163
-124.042
-55.695
12.2886
201.464
292.209
220.459
422.716
1190.67
1748.01
1265.26
667.694
-159.717
-648.205
-826.563
-611.083
-377.965
-312.647
-446.616
-573.034
-329.78
-119.47
-24.3556
373.316
876.196
263.121
-225.342
-74.1314
-487.578
-764.121
-482.778
-403.441
-73.7817
923.473
1402.06
1263.23
1016.9
512.061
72.9481
-91.9994
-58.473
-72.5557
-112.178
-239.846
-563.077
-342.653
-425.658
-778.909
-993.511
-1337.37
-1241.88
21.3076
871.826
405.709
-35.3014
171.375
658.843
652.485
278.883
24.5856
29.1848
116.952
7.39146
-259.835
-504.858
-519.795
104.289
906.983
1085.45
944.15
681.293
59.5922
-315.327
-429.074
-590.274
-690.517
-785.138
-214.143
-43.7405
-324.68
-41.3368
648.739
821.613
775.293
559.605
-2.92202
-530.733
-1039.29
-1018.18
-439.963
-120.741
233.545
775.973
1388.55
893.366
269.062
236.291
53.287
-296.111
-412.666
-661.944
-990.108
-1021.85
-1058.1
-1062.89
-297.183
497.997
841.41
1076.33
897.208
226.593
-615.294
-1257.85
-1486.47
-438.624
698.098
853.036
31.9496
-47.8472
531.328
901.74
709.374
753.322
989.101
926.079
480.099
-77.0893
-287.994
-456.625
-513.986
198.734
688.028
467.254
-88.2222
-623.725
-601.286
-489.599
-254.49
-28.0231
-158.799
-444.617
-558.183
-558.969
-569.255
-812.146
-913.019
-268.684
263.394
538.751
773.747
867.92
531.208
97.9943
-314.68
-542.721
-744.322
-799.192
-396.562
299.848
843.441
1145.07
1250.73
753.179
51.3925
24.1919
132.716
-122.711
-426.135
-506.077
-301.195
-10.5238
162.874
44.947
135.693
356.495
85.8761
-245.514
-310.13
-377.01
-559.88
-660.909
-229.303
185.245
524.6
755.95
720.076
392.283
-249.071
-752.666
-638.038
-450.096
-356.701
-282.926
149.154
829.492
823.625
651.747
290.614
-324.199
-418.917
-439.08
-504.461
215.376
546.475
168.956
-23.9196
-343.624
-423.728
80.3613
403.847
175.252
210.524
567.255
-1.23338
-397.13
-468.437
-503.399
-236.271
383.405
783.181
485.483
-177.395
-623.631
-670.019
-307.408
116.871
-4.48886
-220.058
-549.468
-717.352
86.6836
365.118
197.361
295.785
297.554
285.312
290.417
215.752
-14.932
-312.532
-418.383
-331.319
-122.868
354.06
554.616
243.583
152.681
474.916
939.997
712.524
-175.626
-673.413
-455.048
-230.271
-134.171
114.716
-64.3521
-347.996
-465.348
-503.298
-83.5425
585.826
374.677
-577.102
-968.519
-860.559
-450.718
623.062
1349.73
1597.25
1727.94
1117.69
45.1774
-600.561
-1082.56
-1201.74
-772.767
-144.979
122.358
7.359
-449.105
-912.715
-722.18
134.923
765.018
954.384
653.652
-87.1053
-512.866
-591.887
-839.753
-586.95
-62.5621
251.998
-271.951
-940.198
-934.482
-340.671
647.618
1411.39
1887.93
1704.56
968.912
296.321
-125.312
-181.932
-65.9527
-381.611
-357.087
345.499
197.704
-290.883
-465.721
-260.295
303.172
805.481
788.299
250.886
-495.164
-1000.3
-1087.83
-1167.99
-802.299
-154.722
213.537
71.7986
77.6315
195.867
-211.291
-801.342
-771.393
-417.58
-52.2931
68.9724
118.758
422.499
662.423
858.894
1069.42
959.482
498.386
238
11.7726
-160.253
-480.53
-570.635
-288.553
222.363
567.279
673.61
70.446
-422.33
-430.77
11.3975
256.362
9.81271
-253.741
-262.468
-140.26
-48.9802
-104.892
-207.443
-104.668
-139.542
75.7802
315.923
307.254
237.434
-125.778
-877.83
-791.298
-337.97
-137.61
73.5666
73.9062
182.907
317.373
-25.5827
-536.466
-533.201
-92.6585
409.873
372.162
193.137
302.049
567.927
520.741
279.611
-8.25664
-342.442
-90.2851
417.799
504.793
144.799
263.101
406.215
-116.64
-500.612
-732.76
-618.512
-201.05
625.871
817.309
250.532
-263.233
-333.309
-11.0956
-5.33874
-509.905
-144.392
465.32
571.911
133.011
-433.561
-642.66
-871.706
-660.935
-227.141
-47.0077
-26.5157
-286.377
-631.443
-667.025
-224.397
417.674
616.739
722.087
528.749
557.736
465.588
208.063
61.0412
78.2235
65.2327
46.4085
170.605
407.579
404.78
187.308
-174.557
-49.979
58.8627
113.927
526.003
373.83
-174.903
-836.975
-1052.77
-759.793
-306.394
-400.64
-322.669
-1.16496
333.886
349.481
240.505
330.54
221.725
285.121
276.332
86.1111
-448.08
-153.226
533.827
407.952
-135.872
-602.237
-548.044
-24.8827
151.592
168.038
-163.608
-445.136
-242.461
-72.3533
10.0052
-1.86856
1.52601
-38.4398
77.3041
97.5561
216.707
8.52362
-480.63
-371.334
344.602
893.053
749.831
166.331
-322.263
-378.845
-189.327
122.623
49.8868
59.1068
391.117
333.467
404.589
796.12
531.359
-412.989
-794
-557.566
-668.008
-496.376
-306.319
292.868
588.781
313.923
48.1522
-8.72867
-20.5161
-143.08
-367.645
-431.846
-528.643
-464.282
-282.597
-218.895
-73.4162
280.551
365.331
230.885
342.292
393.546
113.163
-382.982
-391.207
154.923
245.804
-23.277
-97.1292
-110.755
-263.723
103.823
876.941
762.816
392.937
315.916
525.382
367.778
265.408
261.466
166.1
63.3013
-87.7619
-856.662
-1050.14
-672.87
-249.902
-47.8823
28.4691
13.2463
-43.7001
-505.017
-891.336
-311.964
32.1197
-26.1529
-35.8104
246.534
288.852
-67.0704
-408.778
-468.61
27.8679
537.867
326.947
-184.796
-391.688
-243.386
-103.645
272.043
1120.52
1562.5
1110.82
553.409
388.754
329.867
-221.447
-445.399
-443.402
-575.359
-827.82
-1016.05
-526.245
433.973
695.699
638.145
923.279
747.309
262.196
-234.663
-665.394
-925.586
-976.029
-785.034
-678.315
-746.944
-508.179
-254.085
-154.078
122.316
638.073
765.209
334.207
12.6339
147.429
136.513
-205.166
-199.34
62.1101
204.328
246.06
446.408
737.449
836.168
636.079
44.0428
-10.4672
166.463
393.953
91.0223
-534.133
-704.47
-727.089
-383.605
390.075
424.733
19.862
-341.925
-509.593
-341.938
93.0521
-131.955
-571.307
-432.76
-256.195
-284.666
-234.858
30.1338
308.279
631.619
756.242
553.844
379.64
-59.2872
-561.457
-804.929
-312.046
748.894
1152.07
655.521
-55.3338
-108.485
-101.44
-448.027
-617.403
-354.714
-10.843
247.021
392.47
469.981
154.393
-434.932
-540.243
-270.163
-216.469
99.5436
-48.282
-467.204
-417.349
-115.805
-50.9152
-245.109
-160.687
279.29
564.574
612.454
201.127
-118.112
-139.025
186.76
526.46
847.205
641.426
-52.9876
-364.881
-142.394
16.5129
-211.639
-363.73
-418.847
-698.171
-432.573
400.598
694.055
475.024
258.287
263.058
102.831
-131.041
-273.257
-208.569
-365.811
-784.766
-643.328
-160.04
-163.422
-74.0122
10.9073
145.347
498.057
758.903
605.654
-30.6859
-514.893
-207.769
76.3752
139.789
85.4179
41.0636
-189.181
-310.744
-39.4819
267.723
104.097
-368.164
-340.295
-52.3164
386.567
515.875
432.562
343.176
27.0754
-238.595
-417.201
-493.953
-255.713
55.3759
169.847
-148.677
-364.039
-292.042
-112.664
329.247
815.524
541.081
36.0487
-146.933
-186.049
75.2714
464.629
84.7308
344.24
781.013
509.198
120.096
-249.903
-558.805
-715.357
-772.118
-452.137
135.101
343.448
202.381
-404.342
-490.587
-212.887
-80.0449
-279.718
-584.253
-613.158
-46.0165
306.606
76.6291
95.7598
6.57438
25.8956
184.951
207.925
371.606
566.671
551.663
161.873
0.652362
311.094
488.022
473.151
31.6354
-241.022
-227.792
-260.597
-342.478
-575.922
-557.959
-198.505
410.684
805.747
462.748
224.562
426.179
107.839
-444.498
-360.12
-318.565
-588.459
-711.925
-649.07
-606.366
-188.741
246.644
393.744
695.696
1176.19
1068.16
846.717
208.265
-144.078
-228.461
-406.976
-767.813
-1069.21
-1121.59
-569.568
-96.0647
194.08
808.251
1227.67
743.31
118.959
-275.798
-390.702
-249.786
-624.671
-951.719
-928.201
-339.404
38.5302
-165.106
-37.2336
223.852
543.258
928.251
1116.46
812.237
561.838
258.721
-58.876
51.569
299.98
657.699
426.372
-139.416
-640.456
-894.888
-732.832
-369.637
-525.421
-233.444
64.211
-32.2616
-45.124
-132.312
-277.583
107.664
306.292
217.412
209.669
288.243
6.44319
-238.885
-107.948
221.128
361.496
409.814
-167.305
-924.932
-697.893
122.288
569.833
401.934
159.731
477.576
396.295
-355.762
-709.596
-664.369
-489.636
-97.5407
312.87
322.233
-19.8069
-336.091
-261.892
71.1102
149.826
-131.486
-40.4255
421.912
329.793
83.5344
42.9073
-109.596
-151.036
-159.126
-39.0526
154.715
335.558
620.424
798.862
546.345
322.898
72.1391
-184.371
-261.76
-52.5468
184.863
-166.758
-716.702
-727.355
-299.608
-173.007
-301.006
-387.98
-355.484
-91.1937
116.969
261.184
308.858
154.962
-81.0329
-146.009
-164.045
35.7265
316.622
208.87
244.39
221.879
-72.9671
-151.176
93.2292
186.097
17.2349
52.6228
286.422
253.786
108.626
-227.672
-499.588
-613.751
-646.488
-440.165
-39.3806
243.09
357.625
448.048
470.322
414.506
241.601
154.587
-10.0412
-172.954
-128.327
55.6106
255.353
165.641
-135.806
-457.315
-581.546
-237.982
-9.10663
72.8789
315.856
334.763
-47.5381
-164.048
15.9775
160.62
34.4468
-197.537
-287.081
-164.419
-108.334
-284.201
-219.524
34.5327
494.302
832.996
578.973
153.6
-92.2013
-91.7756
-140.312
-469.898
-581.934
-157.948
60.4443
10.2954
97.9921
208.402
274.679
268.311
198.477
196.489
176.417
-169.871
-724.465
-868.634
-418.12
-245.993
-57.7258
125.719
-126.074
-393.426
-17.4689
409.279
420.323
440.293
508.548
394.435
184.311
44.4721
149.912
336.204
186.801
15.5072
-70.5238
-206.227
-353.887
-494.431
-380.861
-77.7309
339.633
919.641
699.942
-223.337
-302.152
133.907
256.354
-69.333
-407.972
-454.74
-585.196
-774.183
-659.016
-181.283
156.376
205.075
232.019
214.605
150.432
95.156
-19.5995
-83.6908
-31.3492
134.251
-12.0563
-287.586
-380.635
-152.27
159.449
345.797
478.949
533.942
477.156
246.965
89.979
80.3681
-17.6524
-136.804
-79.8338
-80.3517
68.0071
197.365
57.3185
-50.2452
-82.2383
39.3349
48.8351
-112.592
-249.997
-281.238
-330.954
-333.479
-123.041
95.3277
281.593
454.385
366.678
220.273
-185.176
-565.904
-905.034
-737.919
-139.159
177.194
336.243
153.264
-99.5029
-66.2481
16.2026
232.834
658.393
777.302
231.013
-210.711
-510.935
-564.106
-114.219
410.681
542.718
402.843
294.505
-151.152
-665.063
-546.138
-277.482
-188.063
-26.6728
315.873
282.658
45.081
-76.9872
-17.2978
195.84
191.788
175.698
-63.472
-228.268
-116.645
153.317
427.071
298.822
11.9426
75.2804
50.802
-161.32
-300.534
-271.021
-227.052
-61.9443
0.781258
71.2887
170.414
98.816
34.6015
-159.036
-119.459
-24.2311
-87.2068
79.606
19.2678
-229.468
-94.7459
124.338
143.193
-47.8465
-159.643
-252.637
-272.713
-317.871
-136.236
67.5523
178.724
359.977
370.028
379.51
276.543
116.015
-95.7775
-148.138
-169.924
118.562
402.465
298.654
6.55908
-229.715
-315.333
-176.327
-114.081
29.3444
222.22
17.6164
-155.031
-128.753
-218.859
-205.163
-102.696
-131.822
-88.6617
-118.959
-168.673
-186.204
-182.211
-186.258
-153.686
200.597
905.108
939.552
737.832
680.797
439.164
166.874
-141.441
-408.729
-447.747
-413.826
-235.552
-197.313
-278.165
-307.286
-285.618
-265.959
-129.918
6.9079
169.258
123.392
42.2104
195.427
92.8069
-260.814
-468.784
-329.061
-143.006
-6.18694
250.769
348.969
224.501
110.121
142.198
60.8062
15.6862
173.086
196.19
176.625
296.437
348.588
20.2416
-233.674
-316.107
-241.078
-115.7
-43.1391
1.31162
64.0901
-80.9677
-202.834
-101.609
169.497
390.667
285.41
49.2797
46.1435
35.0324
-97.397
-300.291
-433.182
-497.088
-413.849
-286.413
-156.727
-40.6906
10.337
125.035
162.136
492.34
570.654
592.751
357.401
79.9045
-66.3308
-25.2856
-93.3857
-251.555
18.531
157.028
-240.712
-585.023
-550.62
-215.882
208.337
365.299
564.243
385.538
-108.377
-210.635
9.63594
94.9513
83.9672
-151.34
-276.917
-284.281
-193.022
-63.8461
-249.76
-58.4084
764.466
918.037
197.305
-369.083
-254.954
-90.7872
-377.39
-442.762
-24.2096
34.2711
-101.744
-316.66
-357.703
-179.707
31.4817
362.965
570.166
501.933
458.069
267.038
-74.2962
-173.9
2.5339
108.027
11.4883
-163.294
-297.283
-232.649
-136.8
-64.2636
-35.6933
48.728
158.186
225.556
229.378
217.971
59.6036
-29.1436
-115.07
-302.461
-389.084
-227.865
-20.1032
111.129
182.331
139.919
211.895
172.444
-83.1088
-198.235
-7.98195
-37.8558
-213.81
-209.753
32.3463
-57.4777
-176.683
-248.223
-290.012
-299.831
-51.1264
657.081
963.047
548.288
69.5764
-44.4411
-156.54
-143.479
-122.138
-139.125
-137.959
-25.0126
181.429
73.9506
-148.303
-323.226
-271.729
68.324
385.954
536.482
311.964
-274.112
-495.549
-278.489
-89.4945
-88.6526
-22.9165
122.222
142.1
70.5837
2.64189
-7.17516
122.777
250.818
182.054
192.138
65.2551
-218.367
-566.538
-609.626
-368.311
-317.508
-258.801
433.545
947.788
727.458
182.86
-90.2759
-90.7011
-267.326
-324.473
-169.37
-29.0313
34.2241
53.4745
72.9432
57.4031
-6.11778
79.645
300.329
329.893
242.056
-7.28362
-449.932
-597.387
-182.539
146.128
127.02
259.303
385.477
-31.7582
-198.475
49.2638
38.3169
-101.539
-179.908
13.2386
144.432
58.9701
-17.5863
78.0007
86.8896
-117.038
-543.765
-898.93
-800.114
-183.456
183.237
142.881
143.357
421.397
297.79
-224.039
-235.911
243.796
603.043
580.054
394.333
396.929
377.631
116.201
-146.995
-171.388
79.7007
291.258
124.503
-252.004
-442.002
-315.05
-229.585
-134.094
37.0346
-91.552
-220.863
-293.449
-131.14
-24.7377
-3.52007
156.535
82.8015
-286.814
-420.156
-178.234
362.209
620.766
579.084
387.626
21.0842
-319.413
-372.314
-199.032
-2.1375
162.881
168.336
-74.6265
-117.846
-81.6222
-98.649
-228.371
-278.456
-225.718
93.487
446.292
302.908
-158.271
-482.034
-394.102
107.252
627.336
663.594
408.481
119.731
-170.37
-171.898
-56.8899
-321.024
-395.648
-127.233
-92.605
-103.799
94.6672
294.826
486.919
424.089
70.2398
-171.902
-285.776
-323.759
-533.915
-65.688
580.402
316.852
236.976
266.724
41.8155
141.347
296.11
191.41
-43.5809
-378.823
-550.114
-631.852
-816.11
-835.501
-415.761
457.644
806.238
305.886
128.553
-81.8244
-446.658
-291.303
33.8802
236.616
334.033
177.663
0.905768
-143.418
-8.03087
337.415
662.996
463.114
77.2379
-71.9091
27.8087
84.6817
310.596
229.257
-12.5119
-56.0403
34.6824
3.76676
-244.265
-420.922
-368.9
-329.495
-452.837
-588.996
-467
-258.884
-24.0732
345.32
515.38
614.303
357.941
127.4
-268.203
-319.62
-91.0104
218.278
354.435
284.708
95.4106
-76.7992
-152.89
-157.487
-4.52585
149.702
51.2755
-0.00123352
-59.2778
54.765
118.779
-54.9189
-203.502
-301.632
-153.568
266.123
251.943
-179.614
-275.21
-210.638
-191.808
-98.3314
-291.976
-415.889
-53.7615
536.832
628.073
420.531
214.976
102.009
186.622
55.3732
-38.2102
-370.043
-678.254
-457.559
88.2333
473.694
298.555
182.608
215.622
118.658
194.734
331.915
281.602
167.842
111.453
-156.394
-467.76
-645.804
-524.031
-248.761
-77.6594
36.8668
381.296
563.328
31.7675
-475.75
-443.426
-348.778
-284.071
-127.994
52.1195
59.1893
62.6245
109.298
203.585
395.911
609.046
517.316
226.43
-125.408
-268.972
-334.02
-254.566
-62.4458
84.4044
71.9204
-37.5317
-83.6032
-76.5876
-212.745
-184.049
75.0282
273.976
213.351
-24.4696
-292.338
-440.772
-109.628
215.076
273.637
248.921
144.798
-71.9788
-355.871
-262.702
-53.3337
83.0614
278.65
238.996
138.98
332.077
311.12
25.4137
-91.7885
10.5061
88.715
15.8065
-214.075
-362.005
-259.727
-79.4295
65.273
3.56848
44.1428
395.401
500.154
115.459
51.9698
112.938
109.934
46.3569
-178.932
-569.698
-734.289
-682.471
-568.296
-421.284
-374.167
-128.82
284.209
492.753
778.276
905.238
426.772
-187.209
-485.502
-378.583
-286.08
-56.9658
110.838
66.9025
68.3904
20.8359
-26.6307
116.558
194.327
206.099
359.443
313.759
197.002
201.636
-71.8601
-362.877
-471.475
-473.297
-370.516
-131.006
241.436
787.414
1086.5
383.625
-140.962
334.455
323.697
-18.8583
-19.2062
-149.628
-418.164
-387.434
-258.598
-271.406
-456.237
-537.511
-392.877
-235.19
-112.58
-42.6642
-221.141
-410.049
-417.531
-162.96
88.5582
-32.1457
-27.2794
163.025
283.783
526.784
661.321
447.9
221.437
41.7252
163.182
308.209
392.79
418.582
263.474
114.092
61.9128
-191.312
-349.495
-178.559
-53.2065
-136.9
3.46349
97.4048
-24.8297
-171.059
-399.055
-521.376
-533.729
-368.014
-164.26
208.059
835.926
908.62
570.949
214.509
-97.7226
-335.581
-437.61
-467.587
-410.022
-177.97
-81.2826
-167.351
-147.691
-143.821
-136.817
16.3168
-4.40586
-113.526
124.475
387.217
148.654
-39.5498
25.7771
167.862
72.0188
-168.161
-150.376
153.97
271.601
183.023
198.201
237.576
213.545
110.221
125.145
148.717
200.956
416.805
191.594
-255.96
-543.806
-686.304
-588.139
-320.715
-94.3562
172.946
338.428
389.544
216.065
-36.6993
-137.693
-55.3146
42.1261
-34.227
61.7565
101.599
14.7293
-265.649
-418.471
-325.608
-175.876
-56.396
-12.6909
6.14121
73.7846
167.086
182.509
216.599
184.363
-79.0023
-168.662
-92.1763
-120.251
43.8342
282.982
352.499
257.003
136.305
10.0531
-316.214
-640.692
-518.616
-119.483
-11.6734
134.442
385.327
556.057
573.458
625.708
513.558
220.618
-106.792
-129.063
-16.2937
-297.545
-616.264
-614.814
-381.932
-98.2685
59.1244
139.077
48.5895
-132.98
-151.306
-187.473
-273.982
-336.198
-166.977
-4.17564
67.2844
5.09488
-9.98501
35.9065
-31.7334
-6.31872
318.633
703.844
709.415
456.2
162.753
-161.034
-346.553
-361.332
-106.181
329.528
550.517
442.302
-22.8877
-343.55
-297.604
-233.167
-184.443
-188.165
-152.711
-169.895
-175.669
-226.685
-280.524
-155.579
-112.81
115.568
552.986
811.223
467.755
-167.229
-411.6
-456.522
-401.329
-289.319
-49.9982
189.627
273.657
189.814
154.927
91.7343
-97.0847
-137.146
30.088
146.751
272.67
215.834
79.8456
-52.9375
-39.5332
-24.2466
-149.875
-238.706
-217.999
-105.893
-53.2637
12.5751
109.278
136.481
-46.8175
-104.308
-38.2685
23.9385
184.117
253.575
317.381
136.462
-1.44212
60.0847
2.34675
138.502
173.133
-107.19
-214.391
-135.526
-110.17
-182.752
-74.8736
70.7373
-18.3098
-36.9152
-114.293
-168.042
-83.093
15.1525
-133.817
-175.66
-158.279
-149.991
-91.2102
-71.519
-41.2637
119.046
182.372
49.6744
-182.15
-257.569
-200.056
-109.879
205.43
408.333
436.939
400.997
184.341
-63.4958
5.75828
276.826
391.007
181.999
-229.94
-541.229
-453.886
-123.333
354.25
702.42
702.228
554.37
250.859
-95.4618
-329.778
-480.628
-331.823
90.3439
169.904
-98.6391
-232.022
-371.255
-504.087
-548.798
-411.024
-293.307
-194.467
-9.52436
-138.098
-289.871
-72.0666
262.893
444.563
276.537
38.2498
36.2845
117.009
-107.646
-231.778
-54.9045
59.4472
184.032
252.146
347.954
479.877
478.544
332.404
132.844
1.03503
-117.844
-266.654
-299.366
-182.851
-30.2038
159.758
335.7
215.523
-20.5261
-94.7444
-101.207
-166.314
-240.962
-263.386
-175.879
23.0173
75.9426
-17.2222
-76.8024
-28.0592
95.617
160.129
44.2897
-366.705
-426.98
-206.297
-102.642
-6.24888
185.052
406.79
750.006
794.434
482.452
342.265
-59.7176
-565.581
-759.865
-601.721
-482.164
-350.43
-202.042
-167.454
-64.4945
233.609
426.752
306.213
58.1276
-113.391
-163.221
-190.138
-456.001
-540.662
-293.25
-40.0635
204.192
425.846
528.779
424.45
320.616
236.223
161.131
306.319
483.544
352.425
113.112
-7.64782
-147.035
-341.806
-206.509
81.4319
33.6751
-210.107
-286.239
-178.759
21.5845
145.703
332.841
337.913
146.16
-80.0375
-275.099
-444.626
-735.965
-792.031
-491.135
-384.871
48.5099
498.143
454.452
250.212
159.427
316.28
433.084
172.022
10.5965
-61.5227
-232.533
-310.705
-160.459
171.262
245.682
13.1926
-138.077
-103.783
-22.305
209.691
58.7474
-152.804
-65.2631
19.7606
-132.47
-200.835
-63.5497
0.392958
17.5096
67.0438
22.2129
13.0328
97.7435
-5.7018
-5.55518
306.193
602.488
633.695
154.405
-209.525
-240.053
-140.077
-300.09
-551.639
-311.837
-130.476
-186.751
-66.145
-11.5531
15.7701
284.645
560.642
513.398
253.667
-108.212
-290.315
-193.968
-192.049
-91.7861
-81.891
-121.52
-6.97354
126.365
158.311
96.5598
289.58
363.14
151.61
-87.9929
-216.776
-319.547
-439.545
-377.24
-387.786
-309.694
-196.52
62.4201
231.679
345.628
404.284
231.799
-85.2894
-283.432
-244.426
-116.963
-12.2762
223.877
288.109
192.712
185.119
279.971
180.133
58.2304
210.164
384.958
292.51
-103.238
-295.53
-245.523
-82.5725
22.0757
-21.4991
-228.29
-404.392
-390.046
-442.549
-481.808
-221.374
-71.6273
36.3576
134.784
320.748
401.192
107.421
88.681
285.701
360.447
63.8733
-44.6512
15.1015
97.1969
77.0607
-193.416
27.7736
540.598
695.326
526.869
164.85
29.5836
-148.634
-416.246
-535.884
-706.918
-684.155
-555.524
-518.304
-536.382
-181.079
353.728
423.842
62.5031
144.563
383.061
161.266
-330.072
-530.691
-450.559
-386.183
-269.799
97.9843
558.476
701.68
717.193
993.351
1118.98
842.12
366.571
27.6718
-471.493
-689.233
-437.113
-261.03
-36.1375
4.11802
-46.0059
-5.83642
-6.77784
-155.723
-372.819
-465.652
-351.381
-96.4264
-114.069
-444.796
-738.615
-557.301
85.4268
588.741
558.922
526.535
702.074
530.963
66.0918
-432.681
-683.233
-656.397
-373.869
381.323
914.513
1054.97
392.44
-369.744
-488.966
-160.883
74.7111
47.6845
-201.243
-469.654
-469.851
-87.479
576.97
602.484
156.921
126.239
456.274
642.058
265.808
-403.735
-788.213
-870.579
-552.294
-223.771
-49.2486
-129.565
-444.705
-579.312
-269.382
154.632
435.187
472.823
301.914
163.778
272.628
422.243
299.982
20.144
26.7563
136.907
217.202
75.5292
-60.579
151.17
283.194
142.817
1.13884
-146.239
-245.994
58.3369
275.813
5.74835
-461.632
-547.027
-421.735
-377.095
-349.08
-251.565
-38.7551
190.934
196.049
-14.9506
-326.331
-124.102
248.268
284.721
438.727
692.321
865.669
781.049
30.7687
-479.953
-312.92
-62.7604
-125.203
-361.379
-407.081
-166.839
4.74411
-180.838
-171.699
11.8604
228.728
-71.8102
-395.298
-261.474
-146.763
-284.654
-574.945
-736.205
-234.25
204.349
-102.607
-114.264
510.768
814.211
538.062
348.107
500.571
686.612
816.53
670.262
370.07
223.786
199.828
12.3645
-331.039
-247.985
-98.947
-452.336
-613.698
-299.45
24.8655
99.9728
-123.826
-358.512
-400.641
-442.222
-536.249
-393.737
-314.709
-270.038
-134.668
-75.1972
-35.6984
-68.4698
-95.6695
-407.359
-507.516
137.951
740.328
835.84
906.408
799.282
590.877
502.123
434.571
354.189
251.732
14.5285
-59.7925
-241.453
-595.898
-721.78
-750.177
-625.372
-30.1674
699.591
947.021
381.055
-239.928
-565.773
-753.785
-627.501
-339.722
-197.839
-54.6517
-86.6363
-268.408
-346.702
-312.843
191.589
741.308
816.316
529.601
542.671
469.404
83.0156
-245.228
-260.203
134.373
460.921
78.2694
-234.541
-489.49
-417.727
75.7692
258.966
-6.01342
-403.383
-383.142
-12.8184
351.881
391.492
331.233
166.094
-125.511
-159.185
-167.523
-177.901
-286.548
-230.399
-127.428
-217.331
12.7115
341.765
217.959
-176.657
-165.209
136.909
-64.0314
-361.156
-269.316
231.721
633.309
439.736
159.749
-70.09
-188.783
-84.2533
-73.8275
-347.275
-324.305
-161.284
-99.66
92.6293
267.281
139.153
125.272
379.324
255.724
21.878
-110.079
-235.226
-132.228
-63.9017
82.0798
273.171
358.325
342.373
306.656
99.4049
-208.031
-441.767
-574.322
-694.435
-500.771
-9.73472
428.42
511.679
393.522
419.7
444.356
92.5977
-155.175
-65.3761
-195.76
-286.458
-361.946
-700.563
-857.434
-547.828
-113.294
275.275
727.418
858.467
305.614
-20.2176
-33.6622
-12.5994
97.1415
172.474
-77.5483
-332.697
-369.922
25.8579
386.203
196.955
-42.4906
-152.066
-357.81
-291.468
360.1
665.356
497.479
259.256
779.771
1072.22
273.393
-679.823
-865.416
-862.08
-846.284
-719.678
-463.544
-307.893
-284.574
-172.971
88.2827
547.207
737.885
470.573
245.549
-42.5633
-463.303
-455.309
-510.699
-447.197
177.579
883.884
1004.13
655.942
280.187
162.609
8.62841
-207.097
-376.586
-344.503
-222.678
-206.314
-33.5373
160.873
-24.2127
3.66484
244.889
122.739
-62.6118
-198.849
-399.165
-401.748
-116.43
-110.697
-86.0317
-32.6965
127.832
557.159
677.889
591.45
410.662
246.322
238.318
300.788
11.5494
-396.277
-739.415
-825.054
-369.553
200.426
51.3041
-297.653
-674.409
-712.059
-371.581
6.29071
222.068
50.3253
-73.25
-157.626
138.738
762.002
702.916
299.985
232.578
367.339
497.694
372.464
-178.134
-760.762
-867.455
-647.538
-47.108
406.405
808.037
943.287
396.656
-240.206
-282.741
268.809
227.217
-391.31
-731.319
-570.875
-483.63
-538.74
-236.342
238.54
348.119
203.73
156.954
167.463
482.798
601.803
66.6201
-303.923
-345.021
-159.158
164.729
231.271
227.05
60.3612
-45.7283
-235.383
-424.647
-301.353
-229.107
-200.713
46.7052
389.107
508.131
298.656
-166.982
-331.84
-203.462
-107.487
2.60011
23.0162
-134.255
-412.347
-532.35
-357.345
105.581
371.991
565.315
518.412
385.033
316.263
82.5356
115.251
331.79
364.08
-33.0907
-327.536
-296.333
-247.595
-132.412
22.8581
27.167
-94.3251
-176.335
167.609
212.676
-265.213
-743.227
104.241
1051.57
764.215
82.3082
-621.523
-886.335
-796.144
-517.801
-225.148
29.9622
142.434
-139.643
-251.555
18.6417
512.27
969.862
778.668
292.752
47.591
131.614
-267.384
-862.958
-851.094
-604.556
-307.181
-94.0249
98.1143
387.81
766.152
631.506
209.885
465.418
938.679
980.092
391.009
-411.288
-939.658
-862.999
-504.567
161.893
277.101
-37.6745
49.4022
226.174
95.6444
-138.015
-140.321
-15.7573
-19.1733
-241.054
-333.392
-415.336
-497.417
-415.955
-361.586
-409.058
-135.911
5.18894
271.805
516.769
425.073
203.844
23.687
-10.3729
165.009
402.586
444.064
250.955
-66.1313
-236.309
-414.306
-275.884
74.2952
139.078
408.76
737.381
718.266
516.99
332.457
-82.1985
-474.426
-613.834
-618.722
-531.127
-591.702
-325.384
217.872
402.683
56.4964
41.6787
539.208
337.035
-494.331
-834.653
-568.429
-527.225
-462.056
-172.988
-33.6502
-174.086
-124.098
652.709
1620.26
1668.27
963.34
374.118
-224.222
-730.729
-775.336
-903.169
-921.952
-195.901
440.943
286.134
109.036
395.973
266.997
-66.9276
63.5312
294.907
238.103
-43.7459
-402.308
-564.462
-396.817
-254.462
-195.237
-6.27516
232.262
457.772
228.392
-344.06
-505.051
4.41244
189.008
120.044
162.68
53.9461
126.136
-13.8451
-396.821
-733.287
-504.007
452.307
1194.37
879.929
225.069
47.2316
194.12
711.246
770.194
-100.898
-680.631
-663.201
-468.649
-183.518
-40.5898
-44.0913
-193.178
127.022
270.997
26.1995
-641.422
-1315.64
-1176.77
-440.297
274.414
768.569
868.167
176.081
-314.459
-223.562
20.3361
200.352
206.492
191.034
226.552
255.711
-8.47227
-188.801
107.238
406.532
460.678
552.445
384.385
-63.1776
-322.667
-467.912
-400.531
72.2758
97.928
411.514
463.043
156.932
-86.0485
-342.808
-292.678
-17.7568
-53.4178
-128.125
-66.1475
-173.326
-163.42
-304.512
-619.719
-731.065
-595.192
-254.298
119.909
687.074
890.959
357.011
-143.023
-118.841
126.024
216.004
117.365
-89.0648
-101.062
-88.6574
-10.7885
243.226
355.124
-19.3302
-258.648
-399.531
276.031
1398.71
951.53
-106.466
-387.15
-193.382
-74.9906
-214.597
-396.302
-301.534
-218.604
-381.618
-373.61
-19.1136
444.215
-88.4865
-545.519
-180.915
-20.144
218.068
167.389
-191.72
-107.201
-24.3332
-107.038
-206.746
-235.59
87.6282
566.923
591.104
262.32
293.539
483.277
191.892
-298.052
-48.3196
262.547
253.85
235.788
-205.484
-550.437
-759.029
-837.287
-483.887
177.274
472.607
514.554
486.463
57.049
-439.067
-534.109
-288.717
151.738
386.513
110.109
-81.6772
-106.921
-184.135
-218.935
268.596
763.536
753.47
804.498
316.899
-254.756
-547.327
-692.424
-645.163
-436.839
-162.725
215.227
298.979
11.1786
-23.4772
126.694
38.4854
79.9796
378.223
501.147
145.716
-361.395
-650.175
-579.382
-238
-185.574
-91.0961
4.61335
-110.816
-258.337
14.2469
164
-102.722
-27.4492
630.05
932.114
792.346
398.169
-157.214
-483.761
-303.375
-92.705
27.314
3.82879
-103.362
-135.631
233.355
563.157
277.823
-75.495
-189.91
-240.063
-300.903
-541.73
-737.638
-505.597
-50.9835
368.185
582.177
402.558
-8.77988
-246.223
-136.934
-33.3716
46.455
24.5203
-194.232
-231.161
-20.7633
219.235
243.736
129.795
-10.2544
-157.6
-253.931
30.9689
512.622
588.986
264.346
133.244
85.6137
186.764
273.119
160.791
32.0416
-66.5001
-133.498
-360.412
-526.376
-213.314
121.742
243.053
149.784
-27.6596
-345.021
-620.56
-779.091
-554.346
-190.586
-109.172
-170.899
-221.94
126.386
316.459
127.495
186.28
240.197
315.85
329.256
-6.79187
-267.851
-102.129
100.552
180.328
510.285
714.534
367.682
251.338
516.918
571.041
416.44
36.4886
-428.825
-532.705
-308.883
-474.575
-593.139
-421.319
-162.714
151.466
204.703
257.634
435.051
636.614
317.952
-558.259
-767.447
-764.379
-633.127
-360.926
-291.182
-361.701
-352.43
-191.936
41.5794
343.452
445.053
345.73
254.259
105.731
102.385
27.7238
220.057
347.458
-95.2888
-325.2
-49.6342
-59.4277
-193.673
301.069
1139.74
1309.51
936.988
462.293
85.4643
-93.9329
-285.156
-456.25
-548.942
-627.137
-587.28
-558.843
-522.727
-212.92
208.098
360.574
141.209
-152.396
-267.683
-452.304
-660.968
-377.722
-118.071
47.7346
99.6542
111.133
160.443
123.046
27.8829
-76.0431
277.762
1030.78
902.094
115.528
-240.995
10.9052
290.787
399.002
325.86
30.2882
-548.386
-861.427
-525.679
-80.341
61.1801
7.41933
23.7977
155.926
209.446
163.054
-105.036
-489.893
-480.105
-190.117
206.392
551.974
554.356
289.318
2.45829
-177.454
-242.617
-230.385
-66.894
69.1229
46.2722
-83.7293
-28.8956
294.226
619.486
893.891
380.176
-253.764
-365.381
-508.029
-901.434
-1063.58
-807.14
-383.92
-76.3778
64.6946
436.805
612.765
312.447
300.59
566.026
331.417
30.6771
-156.664
-171.422
-144.887
116.722
193.336
57.0737
-43.9294
-11.2012
70.8826
-24.9409
-27.4688
46.9973
66.2223
-189.935
-371.052
-383.239
-483.627
-461.337
-155.921
6.74858
-75.992
195.779
653.221
994.347
770.134
427.963
563.547
580.419
233.768
-246.546
-568.668
-419.915
-128.12
-314.494
-336.521
-155.998
-242.286
-379.258
-176.187
38.466
195.369
-37.3119
-486.642
-705.736
-477.313
-99.5386
-165.096
-90.7319
211.959
470.698
665.475
351.885
-26.3277
-127.499
-89.337
132.612
215.01
405.998
569.991
453.617
183.266
0.0841136
37.6033
139.401
92.717
-52.406
-446.164
-818.519
-791.837
-424.611
-112.137
160.162
486.362
493.641
564.051
483.546
140.776
-392.633
-684.474
-538.859
-363.171
-287.232
-131.231
9.43941
26.3001
14.0035
245.577
496.096
472.031
100.622
-76.9913
-28.8782
-154.835
-31.6318
237.673
73.5799
-117.145
-39.2577
107.502
88.2872
47.0697
-113.622
-400.775
-513.939
-209.125
153.598
367.09
480.565
329.622
249.348
28.7828
-33.5255
50.8579
158.11
-38.9287
-255.73
-138.24
-65.2583
-53.3005
69.9497
-55.6008
-241.583
-231.502
70.1336
238.399
112.498
9.72559
-153.105
-204.249
-142.848
-148.04
-463.593
-521.026
-342.653
-334.802
-267.361
61.7764
577.797
754.459
585.968
595.636
634.554
428.046
-229.746
-811.952
-437.273
6.64317
65.4347
-52.2362
-107.155
77.6303
142.984
56.7393
42.7561
257.762
534.261
317.816
-88.9291
-205.637
-155.911
-133.3
-127.142
-3.62772
296.638
326.154
-73.7963
-199.988
-276.209
-298.834
-127.361
-89.8429
-102.642
-211.146
-178.213
-297.343
-576.03
-248.564
376.223
347.455
-180.442
-295.134
-78.648
113.481
180.841
414.754
284.998
-93.5096
-127.693
90.6098
71.2168
17.9169
264.752
578.806
525.409
170.758
-50.4536
-322.311
-339.177
79.957
313.814
199.267
64.3267
-124.925
-288.972
-282.026
-193.239
-229.713
-205.969
-98.7023
-68.1987
-179.735
13.8437
583.628
578.864
154.364
43.6334
61.4331
-232.33
-422.979
-369.015
-330.613
-116.985
-2.24703
-43.5154
81.5079
137.622
136.947
175.131
122.045
-4.05186
22.689
-97.9294
-463.139
-364.216
-64.4095
90.1218
208.208
145.734
-17.3234
23.1225
119.247
-114.827
93.798
720.601
776.524
562.185
376.978
81.7392
-273.133
-407.506
-225.187
-198.463
-573.988
-421.481
120.859
170.643
-7.0318
-141.492
-193.686
-164.356
-23.4122
-48.6611
-374.222
-494.681
-448.451
-414.542
-185.75
189.657
557.046
728.389
664.289
569.009
493.585
25.5194
-421.067
-367.412
-97.1917
138.393
151.992
118.38
139.949
262.301
256.932
-96.1516
-302.439
-279.367
-330.909
-391.335
-461.287
-409.189
-305.483
-164.221
148.738
612.136
847.404
662.018
373.379
97.7404
-84.6298
-187.605
-291.476
-279.761
-168.697
-132.026
-148.699
-56.6658
150.504
44.5925
-105.927
144.464
365.514
318.852
18.8448
-417.546
-760.571
-789.08
-451.845
-66.7485
177.987
381.035
358.455
265.684
316.484
448.418
209.57
129.753
164.497
300.169
362.517
232.126
-25.2019
-338.444
-442.806
-354.565
-254.777
-120.918
-151.646
-162.418
-86.9544
-46.2559
-124.646
-183.126
-337.08
-539.111
-439.346
-323.078
-129.812
216.044
732.706
1035.1
800.849
650.437
545.207
275.057
184.124
55.753
-311.338
-713.064
-715.701
-476.501
-108.968
252.212
274.104
182.243
236.583
300.019
191.876
-67.5689
-556.74
-826.836
-451.723
-185.236
-197.857
-138.751
-234.559
-104.808
259.218
378.72
438.122
576.338
518.752
241.195
15.2922
-207.318
-244.231
-217.131
-312.35
-272.323
35.4611
174.687
-57.2181
-106.277
143.581
292.449
329.68
242.551
-79.1085
-412.095
-489.199
-496.308
-572.657
-264.594
450.225
1001.72
961.189
783.977
808.047
435.443
-80.6771
-493.337
-698.341
-780.323
-803.98
-697.914
-409.376
-136.333
237.236
656.712
499.026
156.5
15.6117
-263.929
-531.925
-284.449
-147.485
-193.053
-275.83
-219.973
-103.544
42.124
267.426
405.57
487.652
582.697
570.724
529.345
275.461
-49.4525
-124.671
-178.675
-209.376
77.1955
348.341
149.486
-102.793
-374.623
-615.384
-507.978
-237.704
-78.1353
-14.6011
-167.947
-100.072
197.68
613.621
734.237
375.903
27.1011
-166.041
-146.388
-96.7836
-163.222
-362.269
-528.277
-371.134
-167.216
-64.9748
47.2927
124.927
105.472
129.869
239.117
10.2631
-380.846
-676.208
-593.18
-30.7829
441.186
143.375
-163.292
282.924
758.513
892.463
667.633
362.771
121.711
26.4923
93.7544
112.279
102.592
142.939
67.999
-117.556
-373.531
-519.618
-611.051
-603.771
-421.385
193.299
536.189
52.5288
-452.781
-461.97
-218.854
-135.268
-3.34071
189.64
273.666
-51.6672
-466.479
-284.321
98.2475
221.953
239.506
244.369
226.777
237.143
125.08
142.567
124.95
50.5823
-41.015
-152.701
-181.328
50.2189
178.807
98.685
-145.513
-177.104
-59.591
-71.6273
103.303
256.231
420.241
510.645
134.484
-218.463
-123.673
-53.9078
-166.973
-91.8725
-52.7092
-183.605
-312.21
-269.708
-264.005
-253.154
-103.41
-12.2656
47.6937
252.87
326.215
88.484
-167.192
-334.618
-121.183
174.542
184.604
88.3962
224.124
231.451
-129.666
-312.991
-103.299
301.946
365.481
298.976
247.043
181.236
7.19041
-242.373
-431.07
-406.609
-287.55
27.2457
227.082
167.864
-34.4662
29.455
188.749
163.936
178.123
62.9876
-166.124
-332.374
-301.779
-240.872
-210.54
25.4926
276.662
101.348
-180.124
24.9813
176.24
45.7769
-29.1994
-11.5353
34.2523
112
164.433
108.832
107.875
46.8307
-78.6866
-206.084
-202.702
-247.913
-242.111
-116.411
65.3335
87.5222
164.968
291.214
260.237
51.8703
23.7631
-2.78798
-70.7558
-173.713
-221.828
-115.037
55.7837
190.422
202.904
185.518
195.083
105.954
69.8463
-3.87153
-136.668
-83.3998
58.855
88.0968
34.2274
-92.669
-183.911
-175.129
-139.954
-240.232
-377.494
-257.326
15.1608
47.3116
-124.903
-58.3881
207.124
370.045
419.039
333.592
152.308
-132.483
-304.034
-280.856
53.9498
351.817
262.204
99.1473
-48.8884
-132.581
-160.812
-114.155
-57.3626
137.555
298.975
93.8477
-332.775
-377.143
-312.203
-202.897
-17.6752
52.5956
44.2659
-122.736
-251.139
-209.267
-24.1011
80.0447
411.802
705.634
496.443
198.235
64.2855
24.4567
34.5008
11.0804
-4.3494
-24.5788
-93.5611
-156.91
-183.91
-121.034
-106.872
-65.8161
-121.687
-176.433
-120.253
-22.9204
-69.6801
-156.4
-51.3288
90.6396
76.4048
-119.534
-231.704
-211.696
-50.389
94.6877
370.638
663.951
557.464
421.948
278.391
46.7415
-169.611
-303.489
-270.151
-119.41
-132.08
-266.666
-225.474
-136.651
-151.965
-9.04147
150.443
211.831
180.316
106.197
69.4231
-26.6004
-195.128
-226.789
-174.112
-76.9182
86.1414
220.137
268.249
129.861
-48.4179
-91.5971
54.7432
108.424
139.123
26.2737
-73.5618
-135.315
-203.721
-221.803
-331.602
-455.934
-295.631
-125.173
-93.2461
-27.4433
97.8945
273.829
249.791
236.481
298.381
191.478
-138.084
-148.778
-81.165
113.744
483.326
619.708
489.943
343.481
99.4886
-89.5543
-131.488
-159.167
-141.716
-92.5401
-129.82
-314.127
-444.703
-395.749
-226.45
-124.566
-119.3
-204.304
177.855
544.599
268.138
-75.1226
69.4977
121.099
7.65963
-66.6815
-78.049
126.721
355.902
337.946
141.089
17.7628
-224.288
-483.164
-522.827
-288.409
-31.7415
14.9474
-112.052
-315.242
-345.187
-201.42
-19.6794
199.708
151.247
177.655
322.502
243.675
12.0974
-88.2818
-109.292
-58.4222
159.663
276.144
243.113
345.898
363.331
225.856
-118.356
-328.889
-48.7435
185.455
-147.357
-396.549
-221.08
115.167
354.229
226.482
213.871
297.748
160.073
-221.199
-290.575
-161.687
-79.5663
-34.4311
179.681
358.492
97.3754
-204.185
-222.185
-31.2561
29.1636
-127.717
-268.758
-480.826
-575.375
-531.983
-548.16
-544.65
-302.322
200.943
584.736
597.661
474.945
222.589
45.6243
-15.9007
16.2167
82.091
-10.154
-168.558
-97.0628
73.7948
274.71
406.125
376.352
231.707
112.487
141.498
236.505
251.971
103.118
46.9243
-125.566
-274.581
-270.545
-269.364
-133.811
44.942
52.6989
-51.4185
-73.231
-42.7194
-51.9301
-117.081
-155.892
-79.7858
-18.7955
-27.9778
-32.5388
-97.1494
-158.473
-137.251
-25.2168
39.4303
-58.0975
-95.8701
-48.7094
-17.3641
-23.2343
124.223
305.065
278.254
298.838
325.983
229.674
69.7085
-84.384
-156.078
-198.575
-220.962
-174.781
-98.4853
-69.0811
-130.946
-135.081
-42.9671
41.021
31.7439
-30.0889
-21.3215
52.2633
69.4929
-57.4791
-185.982
-236.124
-120.81
38.5129
164.288
207.582
271.159
416.574
501.129
491.465
389.879
127.583
-70.4019
-168.599
-253.344
-369.114
-562.001
-571.172
-422.738
-242.912
-156.48
-31.4313
200.395
467.129
385.082
120.44
-51.595
-214.245
-301.333
-225.416
-58.2271
102.169
254.889
308.739
176.065
116.474
119.021
155.224
302.31
327.49
218.578
55.019
-177.401
-374.965
-373.628
-240.643
-141.024
-107.31
-133.496
-164.969
-154.073
-94.6042
-32.4259
71.4733
152.257
187.918
210.346
135.242
-46.8113
-167.37
-167.753
-115.978
-32.4123
51.233
126.217
157.24
171.401
117.43
6.67665
-62.3377
-70.9865
-39.1614
-53.8895
-50.8667
96.4417
232.59
176.086
0.655358
-120.64
-123.98
-80.3615
-38.7002
-12.972
-45.9274
-73.8821
-11.2535
-7.21737
-37.4315
8.94819
85.4198
179.67
174.634
72.8772
-32.1318
-91.0012
-167.921
-152.823
-55.0191
-0.115035
-9.04251
-6.73821
27.4821
69.171
37.5704
-15.0138
-26.7114
-35.5258
-25.2347
-7.53251
9.19207
13.5713
19.9964
9.29968
-3.99961
-8.33041
-23.4448
-15.9789
-9.26595
4.01036
29.0137
30.6909
10.824
-31.9569
-57.5833
-19.8387
-20.3695
-53.3963
-18.0612
73.9114
146.705
86.77
51.7613
94.6893
86.3772
46.9067
5.77263
25.4511
-48.2561
-64.2298
-36.3554
-11.1388
-7.3265
-5.06133
7.32149
-15.3816
-54.337
-61.3692
-64.2793
-86.6689
-119.931
-101.821
-27.7041
13.2665
-17.7014
-29.8089
-6.93535
-21.5169
10.4775
32.4398
29.172
32.158
48.0506
49.3033
48.6637
84.0875
96.6247
71.1772
32.0869
-0.0263625
8.76417
38.3793
37.15
10.9738
-11.5965
-9.97419
5.1463
-4.52948
-4.91238
-12.2487
-24.6119
-35.3962
-47.5446
-48.1213
-43.0891
-36.7881
-2.8423
27.7744
27.8707
11.4597
-22.3805
-38.6064
-52.3914
-51.0035
-25.2786
-43.4628
-58.2656
-35.8164
-8.30546
23.5261
26.0162
80.5819
146.247
121.809
59.9763
28.8521
17.3701
-31.9652
-42.0199
-31.5677
-26.7154
-33.9013
-23.117
30.1083
98.1265
88.3779
32.3341
-5.71403
-36.8533
-73.5367
-88.2869
-139.918
-189.673
-154.247
-73.5298
-14.2533
31.4844
105.336
110.219
63.3101
28.6308
35.2235
41.7934
19.9626
17.266
67.4018
106.595
82.9212
57.3306
29.0657
19.2024
11.2841
-2.45718
-23.4561
-34.0836
-36.2214
-37.3405
-53.0579
-42.1015
-15.4746
-16.7843
-56.1257
-80.3396
-81.6854
-57.2177
-11.6671
12.5985
4.04086
9.35714
38.308
54.0277
40.0075
34.5612
37.376
25.6436
11.2918
7.42741
9.07761
-15.9949
-5.75269
17.5813
1.46967
-31.7579
-41.3901
-44.1539
-24.6465
7.06512
21.2217
-25.4672
-81.6795
-70.5383
2.58506
31.69
31.9969
54.6158
128.674
263.093
291.482
165.711
21.0829
-36.9785
-3.72414
-41.1844
-141.448
-198.109
-234.75
-218.959
-155.331
-86.2668
-33.4752
-18.9136
-25.4831
-6.10983
1.84934
-43.7468
-96.9735
-144.229
-110.274
-14.0138
43.2365
111.918
200.625
201.218
176.113
190.613
210.371
186.6
88.0273
44.5333
145.075
215.24
95.2807
-75.6447
-161.128
-180.307
-222.512
-269.401
-278.562
-258.999
-230.759
-158.03
-44.741
147.941
262.169
222.11
188.002
147.164
247.639
352.02
246.779
-58.3285
-318.114
-317.809
-171.516
-26.7296
122.59
228.332
169.698
94.93
-9.16248
-117.681
-222.646
-326.178
-395.308
-371.953
-328.524
-286.053
-272.471
-275.87
-214.381
-11.0138
307.183
452.792
364.026
290.136
311.658
298.723
195.552
75.0691
128.964
160.731
50.4064
-134.923
-168.873
-45.4647
229.126
434.057
569.265
728.258
473.135
62.5959
-264.281
-316.738
-191.14
-145.018
-216.96
-364.91
-450.236
-432.666
-407.677
-495.532
-498.024
-378.856
-260.982
-173.851
-93.2105
66.3212
24.0607
-182.295
19.8094
356.516
426.079
338.747
383.19
412.164
196.803
71.8467
198.181
332.073
242.62
-154.455
-384.159
-196.861
57.7931
171.724
473.716
845.675
334.579
-291.819
-481.491
-430.698
-221.102
-10.0827
-123.632
-423.417
-633.98
-697.146
-480.627
-167.65
95.0478
929.698
668.055
660.836
594.504
359.701
66.474
-183.127
-189.732
-340.177
-407.395
-73.432
199.039
327.225
38.7911
-361.067
-635.89
-867.835
-788.021
-363.066
21.5556
419.686
566.788
178.907
-278.308
-427.923
-143.206
322.846
713.827
1053.7
934.094
271.035
-203.564
-167.327
36.9753
111.701
16.4088
-143.528
-254.184
-144.763
54.3536
81.7895
-78.1181
-142.725
-136.61
-66.7438
114.766
221.494
-64.3317
-368.076
-402.342
-517.073
-566.803
-241.861
70.6153
294.821
636.107
608.724
417.681
252.707
149.809
-22.8778
-112.36
-150.253
66.2966
297.808
342.718
128.725
-260.833
-600.268
-697.086
-687.071
-535.69
-460.68
-293.157
-65.5624
-93.0218
-63.6927
112.845
372.588
795.941
952.249
472.133
95.2514
75.3051
192.197
-30.999
-434.702
-526.523
-202.3
197.365
571.481
724.677
363.878
-0.0322189
-224.662
-377.243
-269.098
-102.795
-95.6442
-518.42
-737.08
-466.832
-167.042
154.285
382.608
310.158
297.923
307.329
257.206
135.073
-196.54
-424.711
-264.893
-137.642
69.0778
317.059
190.189
-168.058
-115.817
198.604
545.41
1039.81
820.132
180.215
-41.6135
10.5797
-171.925
-456.059
-600.704
-632.251
-560.977
-539.181
-559.666
-375.354
-292.08
-108.45
212.124
344.886
274.5
92.2246
-242.807
-459.687
-310.965
-105.688
-146.869
-15.4704
411.885
638.466
428.299
173.25
249.084
362.763
534.348
1005.96
1139.38
380.986
-216.002
-390.083
-478.026
-333.245
125.216
73.307
-165.138
-198.378
-292.378
-528.852
-546.27
-325.507
-271.948
-175.081
78.1633
249.186
187.804
-16.9988
-154.893
-107.709
-135.225
-211.108
-320.528
-367.168
-413.478
-298.041
267.348
610.737
546.404
460.697
238.875
112.625
240.792
342.963
117.245
-104.823
-119.751
-191.014
-182.966
-77.2217
-181.035
-95.5854
272.024
428.191
70.1767
-210.073
-395.639
-476.322
-278.102
-163.619
97.7924
361.027
444.691
285.862
79.4592
-16.5134
-26.3537
-131.549
-68.1745
107.966
69.6053
-51.8598
-319.336
-398.393
-181.966
17.748
460.745
771.321
683.666
430.726
9.25092
-338.838
-415.101
-373.986
-297.325
-147.643
-82.7781
-232.226
-411.02
-290.153
188.398
327.602
56.6632
-81.1705
52.1745
72.5514
-186.347
-305.342
-190.218
43.7026
27.1316
66.3763
207.245
148.631
282.461
277.683
80.086
3.51127
-65.1744
-153.066
-71.4016
205.138
627.286
795.146
506.637
56.3707
-125.498
-258.613
-453.594
-429.15
-432.958
-649.823
-584.953
-84.5232
246.701
246.716
40.7693
-84.5722
-154.766
-145.547
-175.51
-231.8
-305.197
-307.71
-160.552
82.7245
25.9691
-84.582
-11.2715
203.397
488.535
726.309
920.576
994.608
512.129
326.314
395.873
287.018
113.771
-93.2357
-248.656
-286.235
-372.932
-529.408
-577.43
-491.032
-403.025
-457.839
-510.08
-518.67
-195.906
148.948
8.87455
-56.7653
266.371
372.76
227.004
189.771
29.3642
-38.7219
287.639
531.432
297.361
55.2214
27.9061
-2.17767
-167.236
-184.667
-149.648
-129.066
-213.111
-398.873
-433.08
-517.664
-303.883
346.516
808.747
525.47
319.769
329.696
158.276
-102.471
-75.9117
-91.9554
-238.411
-285.911
-150.345
50.9165
214.369
244.364
258.304
313.051
334.696
189.259
-131.457
-506.574
-581.305
-304.928
-83.3107
-37.959
-102.599
-223.892
-182.936
-10.1648
168.159
311.017
210.931
135.1
226.091
293.992
687.152
671.655
-13.0079
-187.675
-282.312
-488.619
-628.201
-703.379
-672.255
-508.614
-385.502
-121.672
362.423
791.677
853.702
514.684
267.899
75.331
-224.133
-486.944
-708.89
-419.25
158.149
240.272
8.94694
-53.5875
262.297
517.86
409.507
138.302
-41.8128
-51.8378
-71.0276
-258.728
-456.534
-365.591
-33.4642
370.309
830.158
934.742
432.256
-161.322
-449.571
-513.528
-410.013
-359.422
-373.905
-326.511
-250.23
-33.8505
237.586
256.119
198.902
383.195
412.413
255.496
31.963
-242.015
-493.868
-516.946
-232.624
35.6876
220.1
313.457
368.902
265.272
85.2572
84.293
132.939
-40.5544
-192.801
-233.635
-265.509
-386.964
-247.929
49.7286
32.4788
-91.2981
0.352757
176.881
102.988
107.993
59.2307
-69.9035
-38.0119
113.382
173.169
111.325
111.841
60.6104
-56.7404
-136.103
-153.132
-167.16
-149.121
-40.9558
128.234
131.445
-15.3077
-73.6212
-75.9438
-113.455
-152.853
-205.697
-171.381
87.2468
421.573
455.727
201.208
176.276
283.028
472.976
313.472
-50.6216
-265.484
-180.779
-55.5068
48.5939
71.3173
-154.65
-289.756
-232.468
-17.5214
104.02
18.9059
-234.087
-530.651
-553.332
-310.871
-92.8233
-64.2656
-57.1847
92.225
133.538
73.819
33.9867
48.7094
100.753
143.184
267.348
194.02
40.0112
70.538
149.862
132.404
99.6232
-15.4688
-73.4489
124.678
162.28
113.692
5.63232
-111.754
-59.0994
111.044
120.634
205.853
313.494
130.69
8.30282
-18.032
-96.1489
-245.449
-309.832
-270.883
-479.615
-609.393
-400.715
-269.166
-149.529
334.438
595.002
597.064
707.829
450.398
27.7325
-167.308
-390.315
-418.481
-314.505
-269.486
-201.452
-136.019
-26.8462
55.3994
195.271
179.013
4.84892
6.12315
76.9852
4.06084
93.9973
18.4333
-237.527
-276.882
-115.455
-44.5403
-52.0773
87.2037
281.877
307.583
244.82
224.947
149.926
104.538
69.3672
64.5055
214.786
308.973
244.148
66.6878
-279.5
-371.852
-256.799
-140.768
7.63878
41.2646
69.8707
52.3342
-118.908
-100.395
-37.1141
78.781
46.6691
-104.784
-99.6208
-68.4315
-193.021
-245.609
-241.762
-423.75
-436.701
-163.263
26.0835
77.086
-20.8367
-7.41825
117.808
276.84
354.643
342.642
205.659
125.817
26.2659
30.8367
194.872
288.264
111.643
-5.35707
-21.6195
-31.9199
-22.9475
-58.9376
-42.4093
163.125
203.959
138.595
37.6207
-279.039
-496.318
-494.474
-420.406
-436.357
-259.072
-0.69914
203.914
371.971
499.401
471.367
315.899
267.204
197.181
211.605
61.1181
-178.565
-199.734
-207.726
-139.999
-207.412
-377.89
-344.534
-249.774
-58.2827
368.222
516.624
242.712
57.8495
-111.408
-331.497
-266.979
-113.625
-23.2263
33.7796
74.6584
-26.3132
-145.524
-279.26
-293.969
67.406
363.354
494.973
624.21
348.491
-144.908
-152.995
45.0674
-8.28378
-55.3782
-86.2474
-191.277
-238.949
-197.879
-58.738
6.05185
-65.9185
32.5407
89.5911
29.1815
-61.6427
-29.2331
-9.47163
4.12729
35.7512
-23.9264
-110.832
-74.5688
27.5938
154.157
207.954
171.63
66.4731
17.8856
-146.819
-201.744
37.0241
197.274
362.838
297.187
90.4417
4.04392
-81.3603
-146.674
-166.823
-238.701
-350.189
-177.117
103.256
141.915
299.185
328.642
24.1768
-137.075
-89.2319
11.0708
7.28463
-112.485
-374.683
-407.789
-262.491
-148.032
-87.4753
-206.544
-132.55
230.311
360.663
162.453
65.7236
179.671
189.704
78.0447
75.6001
209.971
141.241
-70.9715
-114.236
-20.1985
236.076
253.184
-9.0136
-147.002
-152.665
-19.1095
125.14
58.0051
-33.7566
-150.805
-224.058
-160.655
-231.788
-266.027
-205.006
-309.174
-193.698
146.232
454.469
616.125
502.037
191.222
75.0295
-21.8445
-146.397
-176.153
-199.282
-67.3617
161.486
156.564
19.3361
-89.9538
-59.7986
52.5538
107.376
142.907
72.0378
-72.7216
-284.25
-390.174
-193.288
155.07
268.356
10.8754
-52.2049
80.398
117.759
-70.9728
-210.224
-151.933
-224.953
-169.153
-53.2425
-33.7153
-34.1219
-77.3225
-79.9432
19.9948
152.003
168.095
-25.5203
-212.832
-323.075
-132.647
100.026
170.623
478.247
884.028
618.129
121.461
-68.7927
-232.314
-303.462
-273.882
-109.416
184.897
232.739
52.5139
-106.527
-209.055
-151.007
-58.0973
21.4152
82.541
124.222
93.5454
-206.369
-486.344
-478.402
-367.365
-209.203
98.3352
288.259
499.534
590.444
401.437
112.154
-114.168
-249.365
-125.086
208.071
399.293
278.625
137.827
-58.3233
-306.984
-487.384
-591.934
-482.148
-173.871
67.5398
75.1271
3.03753
-4.56285
83.0719
95.2268
18.3892
41.5712
186.931
214.603
-45.0682
-216.318
-217.967
-195.903
-227.568
-174.653
19.8703
203.932
400.25
523.477
524.241
249.039
2.80703
-35.8803
39.0425
44.584
68.8635
27.1241
-143.981
-335
-421.15
-449.126
-285.134
47.8392
400.343
591.123
619.727
285.052
102.947
93.4781
-97.5565
-277.553
-331.314
-512.676
-729.446
-601.711
-217.325
169.797
390.6
293.049
203.942
234.792
198.062
28.0468
-171.299
-234.224
-304.834
-277.098
-214.819
-173.607
-46.5427
182.182
386.635
343.184
179.164
26.5466
20.9602
69.5723
109.973
122.783
-34.68
-7.16213
158.94
149.181
148.884
71.8382
-9.89679
136.148
137.396
27.447
-69.6008
-64.6513
-69.7231
-38.7462
-143.479
-269.239
-423.679
-491.099
-342.879
-89.1951
35.4113
114.586
319.636
425.161
345.111
236.778
86.6086
-55.16
-126.744
-182.233
-232.004
-267.289
-231.322
4.47807
263.097
386.343
346.494
83.353
-167.467
-267.428
-297.775
-380.237
-354.198
-262.397
-110.26
124.662
267.389
343.114
317.419
248.926
189.557
151.609
111.912
67.6224
25.5928
-138.367
-266.898
-195.143
-93.3591
-17.972
192.82
336.072
202.139
80.4312
93.5406
124.204
-67.8237
-217.17
-193.485
-198.5
-248.653
-241.319
-186.806
-65.095
146.642
337.813
287.544
145.059
35.3561
-23.2576
118.948
174.784
167.701
9.55054
-305.892
-433.133
-340.563
-249.288
-143.778
-32.4633
90.0752
106.605
-14.3641
3.94535
28.3617
-139.676
-145.446
-40.4069
-21.6714
23.1732
79.6447
183.391
168.19
154.549
177.726
150.857
143.435
-62.2693
-122.065
-62.8022
10.4943
143.105
315.38
247.434
29.7084
-44.4613
-151.431
-279.938
-302.448
-208.172
-24.8995
132.032
89.1223
93.9042
103.227
34.9048
69.762
103.428
-46.4251
-113.789
-24.1565
23.9477
26.2671
-118.325
-210.392
-188.199
-44.091
81.9092
175.036
189.181
-35.3495
-346.368
-430.418
-248.193
-10.4021
60.6195
176.935
232.678
227.569
296.557
276.81
157.76
5.61167
-106.985
-33.711
140.724
149.675
25.0857
-64.4441
-85.6971
-91.6864
-214.037
-327.078
-306.673
-161.873
157.62
364.783
178.4
-36.0559
-110.135
-59.1164
-67.9421
-146.464
-105.985
-48.191
47.4578
107.415
111.39
170.096
89.6468
-131.277
-133.586
-2.92172
-10.5711
-107.131
-268.718
-443.652
-107.921
271.409
397.92
537.905
466.545
192.322
-59.3928
-129.036
-102.503
70.1506
220.531
88.9506
-15.9292
-131.032
-165.094
-48.2974
54.611
69.0777
39.8679
-70.4144
-181.879
-246
-347.879
-548.074
-407.121
-81.7517
229.521
95.9073
-92.1849
-68.2132
165.996
593.092
771.865
522.893
221.469
42.9984
-130.692
-298.009
-374.411
-394.259
-365.677
-340.391
-375.434
-377.116
-82.5748
214.964
247.513
283.966
308.441
289.543
309.461
136.154
-57.9594
9.58369
108.18
157.374
160.106
96.6779
-40.5714
-24.9542
52.036
104.531
56.8527
9.7317
-217.499
-377.632
-335.821
-91.9859
-21.4182
-102.354
-189.198
-231.166
20.2023
287.822
148.967
-55.2628
-166.244
-163.298
-83.8806
55.5168
176.156
202.926
213.043
239.99
197.734
159.261
89.0649
-8.696
-19.4121
-72.9645
-334.215
-539.244
-617.613
-562.112
-347.149
-133.714
136.833
375.337
604.822
847.185
754.759
600.683
651.459
390.953
1.38707
-263.966
-172.881
-101.617
-231.383
-245.43
-263.145
-313.722
-415.559
-380.777
-300.286
-379.099
-377.15
-362.268
-400.683
-335.045
-263.303
-346.846
-201.713
161.697
423.501
561.814
433.104
254.153
405.448
595.638
704.764
509.967
274.256
176.141
193.321
184.184
66.6583
-45.424
-113.306
-239.907
-300.424
-278.183
-453.756
-589.271
-498.947
-353.74
-239.207
23.0839
377.269
348.965
136.308
237.798
269.179
173.708
110.792
64.1321
4.2032
-42.4759
-91.3535
-258.207
-292.929
-210.776
-196.297
-237.465
-274.92
-215.862
-22.0985
247.484
243.916
229.489
374.576
351.085
234.432
35.8195
-70.63
-62.9442
-86.3674
-118.699
-25.1524
47.6215
14.1413
-69.4115
-103.824
103.056
400.172
501.576
256.811
-224.468
-559.845
-653.653
-581.28
-349.018
-188.22
-63.4276
40.5548
90.3
121.259
162.829
174.756
118.077
78.4973
168.548
349.642
626.18
533.088
198.358
-63.6275
-176.704
-236.571
-233.845
-188.19
-103.446
-99.4909
-50.2476
36.8482
27.2596
-138.696
-134.489
-43.188
143.021
384.207
225.513
-7.97253
-249.908
-361.353
-239.899
-18.2212
-17.1156
-168.454
-238.008
-252.222
-217.247
-67.8094
-2.19878
40.9161
222.575
376.889
433.719
460.381
310.553
27.1407
-61.7695
-90.4912
-138.943
-176.206
-216.28
-183.822
-112.577
-49.1755
-28.6971
-1.72772
2.00274
11.4839
57.8112
73.2753
61.1139
110.97
119.824
-31.4672
-257.415
-282.285
56.0661
264.548
180.5
294.921
499.099
305.892
262.079
179.698
-127.052
-264.97
-298.412
-269.92
-170.221
-0.815064
33.2556
-34.6321
-28.3624
-67.9943
-135.534
-201.929
-291.321
-374.999
-342.739
-297.462
-281.716
-174.995
-56.133
107.249
237.102
284.922
287.581
257.635
339.416
298.763
172.128
133.731
-33.0322
-231.948
-206.745
-38.5989
127.282
290.09
293.815
170.979
82.6746
76.6334
6.39898
-9.58874
94.3743
27.9471
-43.2375
-91.2775
-190.854
-239.835
-37.498
14.0966
-48.9729
43.3688
88.1945
86.8368
-89.92
-310.693
-302.17
-224.882
-382.26
-332.426
-190.299
-21.2738
254.582
452.923
338.294
325.317
190.619
-14.8826
-192.419
-183.5
-9.49332
92.1863
126.352
196.431
235.315
99.5026
-27.6163
-129.581
-143.948
-78.5941
-115.647
-230.754
-284.195
-229.523
-73.9851
18.2586
44.0461
72.1953
91.8175
140.882
43.2497
-88.7617
-29.4181
75.8038
123.83
186.31
67.911
-97.6877
-5.81709
150.64
363.493
434.949
190.097
-16.012
-73.5428
-52.1792
56.0671
123.606
166.999
51.4738
-138.538
-325.036
-370.636
-394.626
-292.965
-156.769
-89.8311
-25.1188
11.4842
-65.9096
-185.795
-194.805
-99.6816
-52.5387
-23.7928
-54.7696
-61.1698
-75.6238
-126.488
-5.43736
207.919
397.45
484.019
402.584
204.977
221.709
336.579
295.145
102.1
-77.4108
-191.633
-234.573
-260.979
-225.588
-157.015
-23.8325
-8.53197
54.6501
207.2
326.106
357.397
311.028
-13.4182
-140.857
-61.8851
-245.788
-399.191
-311.804
-117.303
-18.1978
-106.453
-169.505
-132.125
-81.3788
-43.7731
-37.1871
55.7167
10.6294
-200.018
-336.649
-319.884
-222.409
-64.8863
-15.3585
-0.46446
111.533
229.892
282.976
291.957
319.195
357.314
303.917
266.598
231.22
172.86
48.9832
-33.0916
0.949355
53.3681
23.1965
-59.1223
-128.547
-135.471
-204.935
-267.851
-291.862
-225.714
81.7906
407.501
547.492
519.986
333.772
97.4082
-177.977
-326.049
-482.725
-507.97
-266.661
-40.8424
111.52
37.7673
-276.961
-457.404
-345.447
-79.4773
263.487
302.158
51.2978
-97.434
-107.24
11.5764
111.684
157.367
184.167
101.587
156.375
217.941
2.4893
-179
-206.629
-127.526
-22.8223
33.9103
36.2719
-10.8574
-84.3743
-84.991
65.1257
94.4892
-81.2762
-223.162
-171.328
-22.9141
129.734
198.319
167.927
108.51
110.493
105.246
69.5453
95.3581
205.447
278.049
263.109
185.847
95.2207
49.7717
-66.6864
-197.134
-202.064
-160.457
-128.912
-88.3517
-44.0584
-20.5161
-61.4389
-99.2718
-128.868
-241.656
-318.373
-311.301
-208.542
42.4728
341.3
538.791
535.334
300.768
-25.0296
-209.216
-319.647
-234.608
-24.7539
-70.6068
-145.347
-39.1699
-49.8194
-123.161
-68.3776
11.0917
97.2332
99.3945
91.4204
30.1137
-84.9366
-173.738
-235.295
-106.042
65.0498
104.619
122.306
4.6366
-178.931
-62.2752
111.645
192.351
402.245
523.516
302.124
230.344
130.674
6.5269
-19.8355
-37.0594
-112.763
-250.058
-216.616
-170.676
-98.6988
46.9511
110.982
24.825
-97.6354
-168.289
-121.338
-126.371
-188.412
-224.971
-228.828
-249.283
-123.575
124.059
133.207
43.7188
153.922
281.588
95.0834
20.863
-39.8962
-161.482
-146.084
9.29558
265.516
383.139
350.776
385.003
282.544
76.4921
51.5768
39.1736
-65.5597
-161.704
-163.847
-113.221
-127.463
-143.504
-89.6715
-118.896
-128.315
-148.472
-97.5951
-86.8427
-159.121
-204.036
-274.179
-368.758
-343.534
-188.396
15.7259
220.873
346.838
424.051
541.922
503.195
138.39
-109.812
-113.694
-1.96943
102.063
75.9487
-1.6313
0.637332
50.8261
58.1043
114.758
30.5128
-155.853
-84.9346
-18.2141
31.5383
79.3248
41.8084
-135.69
-238.496
-161.782
-151.214
-69.9321
51.4007
-69.7949
-213.544
-92.0079
24.7912
153.933
360.377
190.246
-79.3977
-151.186
-237.267
-153.212
-47.9138
12.4583
63.7571
225.45
280.614
170.169
140.228
-5.28005
-151.766
-60.1054
68.7133
-13.4883
-102.913
-242.17
-363.822
-245.041
102.821
471.253
558.677
204.861
-119.463
-184.254
-171.307
-255.54
-289.371
-116.942
55.7354
64.0213
-61.5756
-151.665
-91.6704
6.03879
122.249
213.458
182.925
188.717
198.953
168.256
93.6317
44.1205
8.13124
-30.8076
-106.82
-125.383
-58.0224
-45.1433
-104.201
28.35
129.576
128.885
95.8364
35.7437
-4.90255
-155.18
-296.128
-272.8
-211.184
-189.767
-74.6955
159.212
176.551
51.5435
65.5429
170.835
131.466
6.23371
-63.0001
-107.984
-111.812
-31.4765
106.727
231.504
217.619
128.388
17.8972
-102.572
-229.583
-258.938
-191.557
23.3109
245.176
262.325
41.2092
-143.769
-108.264
24.4677
9.29395
52.3781
101.664
57.1972
48.0046
59.042
-28.0058
-63.8499
-17.3319
-37.3106
-38.1536
-0.766548
-48.9761
-143.493
-187.477
-145.325
20.5248
29.7217
-131.277
-222.679
-147.983
-75.1094
78.77
195.136
126.298
0.795878
87.4808
232.878
239.237
293.617
208.453
157.942
203.899
155.629
-35.7492
-244.479
-287.697
-278.083
-158.482
-27.6086
37.3051
120.686
86.7204
-29.0123
-3.33444
73.8361
-13.8662
-229.569
-274.39
-253.451
-168.298
-67.0267
-25.0277
54.5887
171.27
143.412
74.0534
43.0889
26.418
14.5498
14.0033
-91.5372
-79.0151
32.5742
31.6525
-68.5977
-51.5277
117.524
187.84
162.139
170.014
13.9379
-83.2467
0.195034
136.502
248.332
239.023
168.523
33.739
-114.142
-185.151
-162.805
-122.939
-82.3138
-150.318
-183.356
-169.287
-102.213
-35.891
-25.3147
-8.95636
-32.8259
-69.2898
-148.578
-245.744
-198.509
-60.8408
87.8414
236.013
266.229
235.528
277.239
238.393
135.856
134.115
186.034
155.925
24.0771
-22.5991
-51.5895
-194.37
-248.503
-230.351
-188.867
-131.405
-40.5858
43.399
47.0416
23.5644
141.651
169.857
-3.77452
-203.755
-351.5
-322.392
-281.358
-132.652
191.781
326.063
285.539
258.15
219.726
110.987
43.7713
43.8693
112.699
131.976
88.6965
42.0917
-37.2261
-156.315
-219.232
-154.458
7.70796
30.7419
-61.1758
-144.332
-217.779
-227.754
-152.886
-61.5303
0.731555
47.3614
7.16275
-49.6232
-139.959
-189.778
-51.4698
125.234
174.765
239.295
255.212
200.126
150.445
111.293
113.382
95.2915
53.3916
4.20035
-47.7943
-32.9133
62.3015
128.298
77.8972
75.3881
161.762
223.218
101.719
-152.639
-369.514
-326.661
-215.101
-117.349
-65.3052
-108.664
-113.29
-83.6269
-108.212
-40.7311
-11.2532
6.80819
-5.78816
-39.3859
-40.2288
-87.9822
-165.339
-236.946
-231.581
-33.9896
236.043
240.63
129.771
102.04
128.659
246.29
302.763
228.6
117.665
-83.5477
-97.3235
-2.68497
36.4928
-51.4133
-84.1633
9.02268
119.635
427.932
810.154
437.285
-97.7024
-225.63
-149.694
-147.589
-263.171
-321.278
-348.667
-363.051
-341.63
-236.373
-124.119
-106.203
-107.057
-51.4296
20.3091
11.9866
-77.3059
-281.401
-445.622
-243.567
16.3616
115.838
168.601
214.516
284.989
312.176
329.977
341.643
314.343
285.018
248.239
222.196
168.589
75.3897
-22.2512
-68.0806
-69.1885
-104.099
-50.4618
101.025
66.7466
-58.3634
-152.113
-127.822
-56.1937
4.80704
-23.2063
-233.842
-338.21
-361.875
-265.386
47.6087
414.476
413.613
206.908
12.178
-175.772
-279.297
-300.053
-206.531
42.107
222.955
172.444
-0.120662
-41.5131
-119.973
-173.097
-20.0946
225.592
337.697
132.222
-155.411
-355.19
-311.239
-153.304
-58.5474
-11.0249
-59.4687
-161.232
-180.804
-161.829
-121.963
3.01913
122.218
150.854
188.092
261.478
330.84
262.074
198.639
228.724
187.659
75.8063
72.5162
106.648
127.293
141.133
132.429
53.7516
-12.9495
-54.1783
-98.9602
-117.866
-90.3108
-71.8188
-22.2029
-22.3395
-106.582
-126.918
-75.9683
-25.5242
-94.7144
-135.15
-141.682
-113.723
-71.9886
-108.937
-113.478
-96.019
-60.874
26.0791
11.415
-31.5134
-46.8115
-1.31685
-22.3965
-96.5706
-90.0723
-73.9904
4.85402
170.732
287.634
152.831
-4.0508
-96.0454
-110.213
-59.8416
51.5579
142.617
115.613
24.9383
55.9693
120.103
54.5017
-48.7489
-77.791
-5.03987
109.832
189.179
153.459
179.15
230.178
183.261
81.1086
-14.2327
77.536
221.396
153.962
-58.6028
-203.874
-215.294
-243.725
-269.847
-204.71
-215.595
-248.068
-243.706
-253.953
-287.391
-263.751
-240.928
-186.415
-97.183
26.7911
125.249
74.0423
15.8518
-6.44588
-6.3566
102.835
240.471
361.27
459.482
452.527
345.755
297.371
286.762
193.244
109.606
37.9802
-57.1899
-116.549
-145.601
-75.4047
22.9355
-22.0856
-44.2837
-79.5398
-74.7246
-97.3898
-152.999
-114.478
-41.3629
-50.2919
-108.338
-124.665
-125.297
-47.701
-36.9401
-55.652
5.5006
-27.7693
-31.8366
9.33325
-108.921
-194.292
-152.694
-29.3408
39.9931
90.196
81.6356
-75.1988
-174.595
-70.1294
103.263
161.846
145.098
119.229
135.559
76.0443
-56.7586
-149.332
-70.7343
-5.53987
57.5457
122.386
133.748
86.6544
72.3957
55.069
5.35766
-21.1938
22.5528
99.4949
125.85
11.2425
-21.3013
19.1379
20.3563
-13.1775
-58.0645
-73.1496
-93.9702
-54.669
31.4508
108.607
119.161
75.3226
-12.6587
-86.3242
-47.4896
55.686
61.3599
-105.974
-208.413
-120.987
-57.9585
-102.929
-158.205
-130.634
-104.758
-29.1741
8.30323
-17.635
10.9741
21.287
-30.8366
5.0566
121.253
136.822
56.6533
65.3025
84.862
8.72559
-18.5124
-43.0034
-100.315
-30.3864
130.892
267.612
232.772
219.414
217.558
135.648
-31.0356
-221.001
-309.441
-273.533
-143.648
57.9723
57.4072
-23.5632
-63.0195
-75.1093
-47.1885
61.5067
134.19
70.2834
-48.4904
-90.6601
-102.111
-140.478
-142.479
-145.699
-24.8278
87.4888
109.916
166.771
223.842
71.735
-44.8649
-28.0381
28.6596
119.506
142.266
114.535
62.8025
-16.26
-128.216
-73.0151
76.4677
63.7778
21.4863
40.0344
-33.2984
-43.2563
-26.6859
-127.413
-328.405
-371.91
-229.605
-167.936
-98.4045
76.9138
190.692
130.394
94.5025
169.763
279.685
228.958
97.9497
22.1106
-9.24112
-10.7007
98.3168
176.649
112.779
-30.7748
-122.967
-123.924
-138.487
-171.744
-223.894
-210.909
-147.051
-68.3006
-5.01459
11.6818
34.0785
16.479
26.6118
34.2805
-12.3479
-69.6863
-118.952
-162.365
-62.6131
136.217
356.855
554.317
628.883
504.683
248.94
-29.5529
-194.382
-138.571
-92.5388
-42.1219
-85.449
-144.432
-269.176
-333.51
-251.693
-155.125
-134.505
-98.5808
-31.0384
-48.3629
-72.3865
-156.465
-243.397
-196.974
-104.94
-3.12738
79.1433
86.2175
144.853
186.311
176.925
114.639
162.612
273.466
251.52
146.322
79.2896
41.9812
-29.9724
-5.3041
55.0438
45.7028
50.3096
93.3781
92.9029
12.4982
-54.5848
-124.903
-217.63
-242.894
-135.032
16.4041
124.163
140.994
80.1699
12.1871
11.8696
-9.10591
-58.2872
-126.249
-208.991
-209.936
-189.795
-158.537
-80.3987
-68.0958
-51.3547
38.2677
77.8013
74.721
53.8425
66.4131
61.0661
15.3708
8.70406
7.4378
24.756
62.3959
179.449
261.487
170.116
167.537
247.93
105.166
-112.321
-127.053
-64.8583
-44.2312
-34.6687
-173.507
-302.467
-288.69
-220.824
-95.6223
93.4874
149.463
42.111
-35.1
-100.709
-149.257
-83.0627
18.8795
13.6146
53.5463
178.983
249.494
295.14
238.25
180.801
138.004
70.3287
-65.2463
-137.743
-132.701
-166.969
-132.699
-55.6687
-2.0241
-31.0463
-97.5426
-66.4729
-34.6715
-45.655
-37.4301
1.45467
73.9201
105.73
125.62
42.2816
1.21306
96.8919
89.777
122.306
223.6
272.275
239.261
134.966
-53.7273
-210.384
-230.462
-245.338
-374.361
-381.686
-249.133
-186.515
-204.571
-300.123
-372.14
-304.263
-126.968
9.65415
194.907
358.773
333.778
140.426
50.1269
116.933
223.456
378.627
440.239
286.194
158.373
85.6488
69.5428
74.0698
59.1692
64.7363
57.9839
27.6501
-3.51275
-50.2765
-70.5255
-210.704
-354.654
-301.907
-178.994
-64.8623
-18.07
-85.0851
-151.937
-82.5823
-31.4146
21.1462
102.314
93.8809
15.8952
5.04258
32.2645
-11.7366
-56.9367
-46.46
-66.7902
1.27487
174.627
185.464
-6.23573
-50.4462
-47.0904
44.4353
190.946
270.116
155.053
24.1173
-125.967
-237.801
-234.612
-248.735
-228.998
-60.2783
62.2077
-23.7992
-33.7539
27.7367
104.429
119.727
165.065
68.0453
47.603
66.0499
-50.4093
-59.5404
72.4231
59.2735
-0.349918
26.2787
43.1079
78.8552
76.8499
-5.60934
-76.1379
-79.1144
-73.9429
-47.6502
-60.842
-46.7708
-19.1181
16.0195
112.565
121.361
68.495
-12.9499
-102.566
-76.1552
-51.1435
-78.0323
-56.3286
-17.8241
-20.9379
21.3344
47.8196
44.6762
79.6373
8.20147
-92.8609
-82.4057
35.8265
82.6432
-29.3651
-4.69478
18.11
-28.7673
18.3285
66.1573
73.4019
35.4373
51.0599
82.1083
29.2828
-41.3208
-47.283
-17.7429
25.4152
69.6594
-25.1757
-102.092
-30.9493
-1.88875
-59.0705
-191.643
-159.599
-71.6271
37.3343
173.637
230.893
172.915
76.3061
-20.2768
-0.591476
73.814
49.3314
-23.7962
-102.733
-184.025
-198.386
-138.8
-161.519
-166.761
-102.928
-57.1684
-15.6636
39.7313
67.5508
125.74
119.057
72.2597
80.5914
100.214
63.4821
32.011
79.3431
126.607
57.2139
-50.8354
-1.94678
42.214
61.2539
122.144
178.116
66.4307
-79.6607
-172.977
-166.174
-189.086
-59.9745
191.144
178.692
69.0849
68.2106
90.753
28.4122
-66.7343
-148.995
-209.259
-246.34
-242.531
-201.572
-86.8964
69.7251
177.938
147.908
80.5469
11.6221
-28.7087
-98.5458
-151.663
-116.221
-40.8001
63.6401
131.625
133.524
107.579
77.8961
51.1559
-8.18183
-2.10786
18.6293
13.428
54.035
103.347
130.759
65.588
-12.1068
-60.6795
-143.598
-155.774
-78.0745
-11.7458
20.0854
36.5957
30.1611
-1.98428
6.29652
86.5922
140.43
113.221
33.4829
-135.416
-226.384
-157.595
-55.72
5.92428
94.0182
76.7313
46.0778
15.4182
11.8258
27.1406
-42.5027
-145.218
-163.502
-84.6395
-31.7452
9.95525
58.0268
54.8155
17.4244
55.1629
74.1364
59.3513
70.7758
131.022
47.5024
-47.7239
-3.22339
26.1577
-58.6801
-96.2537
-44.55
-15.4727
33.5665
156.978
175.487
66.7432
41.8008
58.9251
23.8325
-70.4463
-208.504
-274.099
-223.157
-100.102
141.587
232.885
49.1182
-56.0362
-6.31319
-28.8089
-61.8455
-12.8105
-10.8638
-103.089
-130.459
-59.4774
-59.0125
-32.1495
74.7881
174.881
155.967
84.0099
-28.2708
-128.143
-170.636
-128.203
2.86288
107.403
13.2955
-89.367
-25.3092
126.655
325.962
508.185
530.225
300.792
24.7484
-145.838
-252.127
-271.612
-208.404
-204.695
-137.492
-9.37442
-58.6539
-243.772
-296.722
-158.683
73.1598
147.606
119.747
116.142
68.5149
-45.8636
-160.245
-96.2003
36.2157
162.414
221.443
197.62
120.109
83.2501
69.1562
-20.3261
-125.091
-86.5914
-61.5941
-120.304
-169.781
-184.965
-151.117
-111.479
-131.333
-108.123
21.9433
124.62
107.339
107.125
196.095
148.965
15.6398
8.02124
-25.5307
-68.1671
23.6444
168.892
226.591
178.852
103.139
49.2379
15.8244
-87.1642
-140.613
-164.165
-161.911
-134.057
-61.2932
-29.6164
-31.8728
7.43698
106.24
129.875
110.711
55.9634
-30.1687
-45.1106
1.59485
36.473
79.6
118.126
-6.71743
-118.359
-224.803
-325.836
-291.747
-195.808
-8.12982
270.018
340.045
137.259
118.858
243.804
408.419
403.341
172.39
-118.11
-248.523
-285.654
-317.811
-193.152
-48.2737
-130.702
-148.604
-73.9504
-92.7735
-138.348
-185.309
-258.607
-174.151
117.197
201.027
18.7243
-166.403
-214.85
-116.161
57.2293
186.52
226.968
304.132
278.996
183.056
214.581
222.091
180.321
234.888
232.858
117.49
-54.4801
-170.968
-217.83
-226.312
-198.252
-161.784
-67.0092
18.5908
63.8646
38.822
64.3989
69.1341
7.51422
-73.4449
-98.113
-45.5896
26.646
0.163315
-11.3578
39.9712
78.7895
107.585
58.9984
-60.0366
-153.785
-179.7
-126.52
-105.531
-133.375
-131.227
-115.349
-130.932
-91.6068
-55.3871
-6.25641
66.0793
115.004
152.148
228.058
194.5
98.621
-1.50231
48.8873
138.819
106.254
171.959
198.593
75.6585
3.56418
-68.9213
-130.405
-121.236
-117.176
-180.533
-170.836
-108.528
-95.8392
-19.0156
142.409
158.706
95.6563
41.6968
-115.822
-170.658
-60.0599
-60.3931
-134.748
-116.911
-97.1602
-41.9684
94.4417
138.806
150.117
264.214
222.054
102.032
79.6514
73.0841
-155.092
-269.627
-212.628
-106.104
30.0779
87.5251
115.269
94.5174
51.8532
52.3563
91.6835
97.1948
25.0262
-9.01449
-28.7251
-39.2732
14.1602
-8.59794
-90.5758
-149.921
-40.0218
77.0654
12.0803
-133.467
-201.609
-98.7997
104.032
230.896
219.739
116.316
-10.4845
-67.4488
-122.955
-146.227
-63.0773
-28.143
-110.539
-124.526
-68.1124
-56.6255
-101.192
-95.8927
12.7661
97.1278
84.4766
-28.1903
-109.938
-120.542
-11.4721
125.262
253.252
263.628
152.359
105.6
108.834
111.58
187.046
193.4
186.485
111.221
-89.497
-233.584
-262.555
-230.917
-78.5751
68.1655
78.692
24.7199
-45.5831
-105.883
-171.386
-161.517
-104.107
-49.6485
-48.2716
-100.565
-70.0283
21.0439
3.93136
-16.9585
52.7779
148.887
268.5
391.601
301.9
111.794
-84.6721
-327.343
-384.77
-197.219
14.1718
98.1966
48.8978
-19.5104
-116.53
-191.158
-263.186
-227.721
-118.993
12.7606
146.297
210.761
108.102
28.3985
105.497
129.019
116.281
154.577
149.878
45.5343
-73.9902
-70.5648
-6.10182
59.1063
223.023
381.588
341.987
173.772
86.8179
-81.5458
-195.651
-90.1459
-54.8465
-205.036
-206.197
-144.452
-230.848
-220.307
-82.272
19.8455
54.623
-13.6367
-102.046
-125.64
-194.896
-257.381
-185.758
-47.0087
-41.1554
57.1409
218.239
126.571
38.3899
78.2289
33.2926
-6.32269
28.321
59.8015
44.6691
40.291
158.432
192.972
123.416
80.2873
102.564
158.747
185.176
181.826
187.181
172.274
57.0823
-52.6772
-132.62
-220.761
-237.457
-114.4
39.6571
-37.7417
-160.819
-260.683
-391.546
-330.867
-119.199
201.195
368.253
99.0936
-110.403
-130.486
-119.947
-126.874
-163.251
-91.1772
4.04191
18.5429
11.4239
45.4994
115.623
201.595
173.946
136.605
181.611
233.159
259.394
44.5344
-208.436
-213.817
-144.597
-54.2316
67.8074
133.313
136.337
65.3617
57.4569
91.3503
70.7418
-6.9687
-129.482
-180.292
-166.679
-92.7052
0.288665
-19.961
-44.0103
-45.8684
-13.6815
74.3471
57.9124
-28.3258
-69.6693
-126.062
-124.143
62.0454
266.509
228.137
44.1156
-148.164
-149.87
-32.4127
60.8792
42.7084
-18.7008
-56.7362
-29.8427
-28.9096
-79.3199
37.4601
221.967
203.01
30.0718
-16.1626
42.7351
-99.5321
-285.297
-300.765
-199.355
-74.5035
-6.32173
96.9195
162.646
216.126
302.962
357.499
139.166
-97.4724
-240.266
-357.155
-334.778
-249.28
-133.03
1.89324
26.0979
27.5728
32.0586
131.52
199.963
253.561
230.835
187.132
173.089
85.0745
-126.685
-192.805
-36.4387
42.8523
99.5744
154.611
134.946
77.5567
14.743
-91.5597
-113.736
-95.9807
-120.116
-55.7412
-22.0645
-98.3703
-104.589
-145.495
-204.173
-161.569
-57.7026
-66.6621
-115.891
-106.729
-60.4253
17.6249
46.9597
112.318
176.683
225.478
121.383
-6.84039
-84.7983
-100.581
11.9804
170.383
173.478
123.943
122.345
130.517
159.806
219.338
227.786
198.488
63.6635
-99.0541
-225.108
-287.437
-311.414
-370.66
-332.559
-179.574
94.8342
139.144
-11.8529
-125.538
-90.0706
-18.5761
72.0021
99.0747
-13.8453
-125.905
-114.685
-81.1485
1.33847
211.209
351.735
295.876
211.696
167.706
135.381
58.4304
-67.8516
-111.078
-143.035
-168.656
-98.3152
-33.9791
-9.3604
119.431
154.89
-50.9215
-162.551
-102.056
-66.3557
-125.628
-86.6476
-46.7708
-109.483
-142.384
-58.8778
141.704
298.123
263.658
171.561
123.791
140.808
83.3792
-118.915
-308.706
-342.007
-180.601
-20.6512
44.4669
107.412
137.249
98.0438
63.5308
142.281
161.215
90.2606
-51.7498
-221.321
-218.208
-94.6032
-59.4599
-81.6618
-65.6304
-42.4505
-131.322
-146.657
-24.8558
35.8617
90.5278
169.976
121.91
-10.3609
-37.3913
-43.5056
-24.893
20.1013
37.5075
9.32271
62.1259
255.801
302.99
194.957
117.614
110.06
101.651
21.737
-18.1763
22.0699
-27.168
-150.349
-221.229
-219.614
-147.984
-58.6142
-15.0267
-20.2081
-46.8795
-63.8516
-83.4409
-157.526
-150.856
-94.347
-39.0475
19.9038
154.399
197.47
71.9005
-7.466
-27.2039
-42.3728
-12.2542
58.592
140.286
117.692
49.8235
-19.8348
-71.4568
-49.3021
-19.0155
-63.3834
-70.822
-56.5995
-81.2825
-73.9443
28.535
129.123
131.479
103.281
156.134
271.351
245.411
22.847
-160.382
-172.663
-151.66
-120.224
-65.85
-23.6733
21.7237
37.6014
56.9287
41.682
19.4273
-6.38279
-97.4752
-117.038
-68.8936
-122.592
-215.116
-272.614
-233.648
-27.7044
166.993
281.493
338.399
283.158
192.922
163.468
125.074
62.2938
-1.34085
-81.446
-136.116
-127.148
-112.308
-97.0218
17.8098
23.2845
-59.3634
-56.3143
99.4451
195.924
99.7914
-32.2239
-205.866
-267.432
-189.626
-102.345
-59.0061
-12.7028
18.3014
5.44678
28.0831
101.501
64.7557
32.5625
41.2529
102.526
181.93
189.363
-35.1819
-210.427
-202.172
-191.344
-101.056
86.4328
135.35
89.6651
42.0904
48.2848
45.521
66.0369
153.264
197.273
123.079
24.2294
-55.0829
-66.4597
-74.903
-100.92
-78.4577
-99.7563
-117.137
-40.9743
95.3764
123.597
56.5338
-35.2255
-101.564
-113.422
-66.9985
-29.0678
-74.002
-168.115
-207.486
-165.951
-39.6124
54.3662
96.4117
252.658
363.144
331.368
201.73
86.7769
-10.4697
-85.9227
-149.037
-132.883
-73.0694
-51.9893
-18.5402
8.85219
-66.7656
-151.795
-86.2915
2.61628
55.0413
179.858
300.239
214.876
-24.4489
-194.528
-184.008
-121.157
-151.408
-159.699
-77.1926
-28.4347
-61.9
-135.77
-68.8307
60.0063
154.888
301.831
455.527
360.338
144.752
-28.7275
-201.737
-371.993
-299.979
-139.052
-80.537
-80.8597
-51.7246
-2.50561
84.1958
126.285
160.485
215.454
101.959
-3.95566
9.53151
-33.1859
-121.871
-80.3862
-4.83953
-3.5769
-72.1973
-99.9314
-49.6318
39.3551
102.57
80.2399
53.1889
66.7238
69.126
33.1384
46.1204
32.4252
-13.2805
-21.9817
4.29092
91.1123
68.1435
13.5075
-33.8665
-128.1
-118.663
-66.164
-36.0943
-99.3904
-123.797
-77.3278
-32.4507
5.61407
29.4497
-18.2062
-66.9063
-36.6223
11.3515
-12.6091
-14.8849
-107.468
-104.607
50.13
179.428
154.332
22.9625
-38.606
28.2367
111.822
116.445
150.574
199.312
19.5873
-168.127
-139.926
-58.4529
-41.6841
156.505
342.429
236.946
56.1182
-64.7471
-153.469
-197.197
-156.336
-59.9162
23.5993
-18.9341
-69.2551
-72.1858
-79.6153
-70.2079
-61.0485
-48.0213
-65.4139
-56.4182
66.4727
72.5897
-65.9594
-106.095
8.57375
178.364
196.532
26.2283
-106.323
-117.914
-129.58
-113.191
1.17724
146.872
148.208
24.6145
112.872
187.22
135.092
81.6628
52.7723
-51.6141
-94.173
-124.114
-177.953
-194.719
-87.7937
89.0208
258.117
250.164
90.899
-22.0149
-107.553
-189.146
-170.925
-65.6338
18.9044
78.4664
113.764
114.227
41.5114
-69.2266
-120.269
-62.1332
52.4196
47.4898
-37.0862
-81.7298
-160.736
-115.041
121.192
245.659
208.342
50.0494
-12.8316
-8.28261
-26.9807
-64.0081
-63.1965
-93.9699
-135.774
-112.615
-36.0825
25.027
27.857
-1.85679
-56.9074
-102.668
-22.42
69.3214
76.0756
97.2197
84.3577
66.235
37.9461
33.7862
-3.26725
21.7562
114.874
98.7161
40.094
-41.9402
-99.0977
-83.1798
-84.3208
-28.3836
144.608
213.558
82.9264
-94.8674
-205.75
-190.925
-92.6853
-28.4314
11.8537
69.4953
88.8132
34.9777
18.7745
-44.9829
-127.852
-84.9343
-8.37913
30.3957
46.3129
-14.6588
-90.084
-198.016
-207.903
-58.4432
55.5265
118.25
113.792
151.652
246.16
242.436
187.107
282.063
367.252
241.188
37.7551
-100.947
-177.971
-187.985
-168.245
-187.128
-187.083
-185.562
-218.654
-204.975
-130.021
-140.291
-104.957
22.4351
17.9165
-79.6623
-133.243
-175.436
-199.65
-76.6514
56.3734
29.7243
9.2573
75.7953
160.383
278.866
365.93
405.303
366.598
268.892
223.867
233.349
185.504
72.5873
-64.808
-144.8
-159.095
-207.341
-237.366
-187.494
-88.9497
26.3078
67.289
-2.63708
-94.9999
-146.254
-214.136
-222.76
-132.516
-83.0537
-112.026
-113.542
-88.1163
-145.627
-125.737
48.8243
194.709
324.252
295.371
132.144
36.5864
26.1852
35.4216
14.4403
12.0899
18.9146
74.4717
96.2515
50.0094
-4.88385
-22.2186
-65.6798
-79.3446
-33.4444
15.0846
-8.93423
-114.831
-239.873
-194.716
42.6003
85.8417
-49.8484
-26.9541
74.4045
158.345
357.207
490.517
408.311
141.528
-118.033
-264.735
-298.606
-264.761
-261.294
-300.032
-278.779
-176.555
-150.034
-173.133
-126.293
41.6946
275.923
378.613
249.932
100.113
-81.0072
-255.922
-241.867
-20.541
162.189
187.65
117.916
60.409
90.357
165.49
194.537
213.963
247.539
128.624
31.7942
51.3533
66.2219
49.7647
32.8236
-46.3596
-169.64
-275.388
-329.234
-307.722
-210.622
-172.132
-120.57
51.8224
193.938
135.723
84.7063
52.4614
9.00301
35.7752
125.172
158.843
26.1028
-141.741
-223.457
-247.481
-208.326
-62.477
-2.61689
17.7171
14.6805
53.5757
61.4655
-51.5574
-86.2297
-3.49283
45.6512
104.387
195.436
184.99
12.4385
-98.778
-33.0824
-7.59692
4.40545
64.7221
70.5663
-25.9686
3.44837
51.2595
36.9444
86.3634
190.674
155.971
-19.4969
-104.629
-90.1355
-63.5451
-63.6701
29.8021
96.0571
35.4223
-27.1628
-61.7532
17.007
39.4219
-57.5812
-94.6417
-112.488
-122.111
-132.013
-73.4247
17.966
99.2732
314.86
415.861
242.85
1.24993
-133.311
-219.324
-247.426
-221.234
-171.971
-110.747
-95.0756
-92.6746
-31.3903
-6.90874
-6.50912
-35.6763
-29.8249
-53.4545
-69.8763
25.8354
42.7083
80.4192
171.024
170.137
77.1308
18.0786
46.6395
195.147
265.692
193.596
139.503
93.667
43.6439
-30.4743
-2.75599
84.7831
120.459
0.216747
-162.205
-261.758
-355.603
-380.029
-325.171
-216.656
-78.9236
-15.9723
-25.8271
-40.4143
-30.2741
51.1454
84.4135
91.524
103.373
126.213
157.544
185.036
216.713
235.231
173.289
74.7976
-18.1816
-85.4319
-87.6412
-68.8098
-107.002
-114.753
-148.242
-239.604
-271.866
-227.602
-21.9521
298.327
455.508
384.551
155.726
109.85
149.93
65.9842
104.486
179.809
181.291
-50.7453
-218.347
-256.395
-303.141
-303.469
-224.278
-134.75
-61.8132
57.9057
-44.1313
-264.922
-310.213
-237.059
-118.31
-68.2015
-35.524
51.4317
21.6805
-1.64651
-14.2889
12.1563
66.9965
134.334
191.595
275.246
416.854
416.975
337.615
203.481
105.58
13.935
-32.3763
33.3724
105.117
-6.27032
-142.476
-139.92
-82.0796
-70.0763
-83.5172
-49.9519
8.70423
66.8095
31.7563
-85.0225
-215.087
-222.77
-188.536
-185.901
-76.4829
120.611
113.769
-30.9327
-89.0469
-80.1567
-82.7684
-150.772
-214.061
-153.004
-14.5528
134.679
233.741
283.507
245.53
178.278
118.056
77.5553
141.737
203.233
110.978
-91.3506
-198.779
-239.049
-235.264
-227.518
-205.138
-153.831
-48.2671
44.2145
173.525
283.757
173.064
-43.1041
-67.3236
-3.24258
38.9362
23.61
-52.8336
-60.1767
-44.9517
-77.1888
-28.0225
38.368
80.8869
133.693
135.15
159.993
94.6341
-78.1286
-169.771
-132.574
-32.939
82.6421
177.163
131.013
9.24429
-48.5187
-56.5511
-69.0415
-9.04917
52.8821
-20.6018
-66.9554
-51.1025
-19.023
14.5332
73.6449
95.5041
22.4881
-108.628
-133.133
-39.2819
-97.5647
-206.134
-175.514
-59.9008
39.6141
69.8377
108.018
95.3797
35.2463
59.7716
81.6021
-2.33252
7.02463
63.1904
55.8825
69.1401
152.548
102.173
-57.1312
-169.248
-174.702
-124.586
-29.8368
2.42387
11.4992
21.69
-61.1326
-130.646
-87.7323
-46.8135
-5.88596
84.2132
122.6
165.792
202.528
169.821
98.034
39.7302
-32.5426
-107.849
-99.7406
-53.082
-11.9538
13.0993
35.4545
13.401
-22.3568
-71.4288
-135.542
-88.6536
68.2482
161.413
96.3554
90.7644
14.8651
-102.524
-97.4476
-60.2821
-77.1484
-89.9738
-3.90388
65.8952
31.7879
9.56328
-35.2501
-152.338
-161.916
-92.9339
42.9121
162.326
191.925
126.579
85.2079
-24.8028
-95.8607
-76.1589
-92.9323
-61.9194
-6.96798
-29.1198
-59.9825
-62.162
-39.453
46.3149
175.044
289.522
291.116
207.639
123.097
-18.5451
-169.884
-202.823
-177.96
-146.743
2.05995
79.275
53.4407
-5.61892
-50.4754
-49.2646
-35.9066
-29.758
-35.9306
-48.811
-64.9162
-31.7825
-63.0857
-83.2388
-86.4754
-24.2549
35.6433
125.275
196.406
162.763
39.8435
-24.8708
4.86475
40.0404
16.6756
26.6213
68.4221
117.49
79.8325
21.8433
-83.9855
-168.821
-155.595
-112.669
-81.9931
-73.7665
-34.617
-3.06439
9.36476
19.7792
104.878
154.393
115.469
70.5654
55.6729
-0.0959267
-69.9098
-114.845
-73.4371
-35.3847
-18.8478
-26.5028
-66.6702
-44.5506
4.2081
62.7724
68.2309
2.4022
-47.1148
-16.916
-37.3538
-47.3734
-88.4714
-70.0497
26.784
75.0359
58.9329
49.6786
46.1427
-66.1966
-106.867
52.3285
238.766
321.945
329.224
178.938
40.757
-84.6988
-152.75
-175.046
-195.433
-98.5349
-25.409
-129.375
-170.697
-124.704
-68.9296
37.0149
235.55
211.164
40.598
-109.193
-181.815
-164.356
-148.628
-111.623
-87.7247
-4.46186
97.9516
157.222
245.037
255.517
219.955
165.512
43.2474
-33.8413
-97.2341
-154.339
-200.975
-149.685
-39.3603
27.7093
4.41292
-9.02461
33.2003
91.5932
66.5195
-83.2912
-165.637
-184.212
-176.275
-195.175
-83.5157
100.152
190.025
241.625
302.772
231.87
103.393
50.6629
6.2179
-19.561
2.91171
-33.947
-68.7607
-75.9972
-73.7706
-10.2635
14.0745
-44.9336
-90.1462
-40.2348
-74.3043
-67.6744
-19.906
-12.8276
-26.5622
-21.9468
-56.5018
-5.79439
49.7203
27.979
45.0596
103.801
143.354
93.8454
-0.382631
-34.4314
-30.9529
39.8936
78.0545
70.0563
42.5174
-1.73458
18.912
-34.0033
-108.832
-178.122
-183.319
-41.2332
83.359
100.439
84.0134
-9.90166
-127.396
-110.144
-18.0481
41.5309
77.0333
29.1991
-34.5811
-107.885
-90.541
-48.9933
-71.7274
-37.0857
-0.152292
33.7991
88.9095
88.8566
85.022
97.9595
69.1391
-2.47439
-24.5327
35.3596
67.4059
46.5014
89.1642
151.021
210.511
91.273
-84.2069
-161.678
-114.172
-82.1325
-108.501
-88.9598
-68.8703
-101.421
-80.4601
-47.3556
-71.4383
-43.2199
7.1257
36.4985
58.0927
1.84673
-81.2751
-83.9412
-81.7103
-12.5531
98.8418
154.098
62.2252
-3.72968
80.9032
141.593
110.442
147.351
127.221
54.5139
71.5139
54.0807
27.1103
4.69803
-38.173
-44.7087
-69.0997
-133.004
-214.292
-232.718
-201.4
-172.329
-100.942
54.7487
255.699
338.314
284.405
42.6665
-121.665
-91.8992
-52.5639
29.2662
44.042
-78.6672
-152.423
-107.78
-81.7493
-77.1962
-67.7161
-39.3334
-15.9569
-9.26692
-17.8524
3.5306
7.05398
-29.8435
-77.6741
53.2128
178.827
96.7981
10.1402
16.62
83.9479
127.431
127.688
113.649
63.9047
28.0122
62.8098
96.0564
42.7141
14.4316
36.81
5.96214
-75.9327
-90.0868
-57.046
-51.6551
-87.7256
-90.7058
-106.828
-126.677
-145.956
-115.906
-51.4251
-0.17286
29.42
28.7997
2.35118
11.1493
58.4524
89.7262
80.815
55.7521
-38.4378
-96.4114
-64.5186
-133.264
-153.173
9.11983
149.668
176.963
240.142
172.83
58.2132
118.711
132.493
59.0977
63.693
49.6394
-30.6402
-33.4451
1.4299
-41.6805
-145.521
-204.909
-203.474
-135.712
-88.2962
-104.888
-108.283
-144.101
-165.199
-81.2851
34.0001
100.99
185.011
163.707
53.7914
-34.9326
-113.217
-130.258
-60.8101
54.5304
207.731
289.352
204.174
117.819
96.3323
13.2067
-115.749
-89.175
-59.6866
-20.7445
9.89191
-92.7276
-116.05
-6.60205
40.7942
45.2365
111.04
129.363
48.4959
-56.2631
-112.834
-50.5037
57.1734
83.2138
50.8293
74.867
134.926
143.581
53.0808
-78.9769
-148.525
-167.968
-172.166
-158.231
-163.755
-143.019
-46.1157
24.8756
64.2817
36.5455
-26.1214
-109.325
-129.644
-111.177
-98.6041
-27.4827
78.0076
111.422
158.75
235.087
223.064
160.281
172.479
196.405
100.769
0.645144
-45.0742
-85.9486
-116.568
-108.388
-115.867
-132.522
-142.632
-91.924
-23.5412
0.333312
9.49334
114.382
94.3342
-4.2746
10.2257
30.4646
-4.96802
-4.21418
27.1079
11.2485
-4.96731
-52.2255
-101.25
-92.0099
-65.7788
-8.84557
87.9715
137.684
104.493
125.876
123.995
29.6822
4.20369
34.0409
-48.612
-119.988
-175.296
-237.12
-211.744
-104.403
-37.1646
16.8449
82.4604
68.0372
87.4537
181.522
182.519
100.459
26.2008
-62.9262
-110.165
-159.102
-162.281
-146.371
-63.4647
54.7183
96.5628
114.636
197.452
195.061
43.1602
-54.5799
20.8954
107.111
75.7121
15.382
46.1947
62.4964
55.0779
29.1209
-34.2329
-2.68547
-15.5808
-33.0201
-39.4317
-54.4609
-129.655
-213.241
-227.819
-109.689
2.91225
4.38191
-121.996
-101.541
47.4201
103.42
145.567
222.09
225.91
36.3576
-112.053
-191.061
-214.909
-160.363
-96.4104
-76.5305
-25.0964
56.0805
98.7856
111.892
114.451
150.731
196.276
106.454
-4.22918
-80.1987
-165.985
-182.944
-110.599
-9.21921
98.8406
153.31
86.773
72.214
81.2047
27.1103
-31.5402
-50.1239
-8.65825
-26.8997
73.951
181.747
118.438
81.1433
108.266
43.9253
-52.706
-130.43
-207.905
-172.009
-95.1716
-61.396
-9.86025
-10.1196
41.6936
87.7704
42.2557
-38.9567
-153.255
-128.541
-56.6653
-44.7208
48.6284
95.3112
30.5762
-57.0734
-83.6903
-36.1764
152.759
187.706
66.6449
-67.1175
-61.6209
-63.6405
-154.839
-136.679
-37.4021
-2.47369
68.477
158.603
159.207
115.31
-11.8093
-106.999
-94.8251
-8.63866
-3.30231
-60.1158
-109.15
-68.8063
5.65535
126.098
224.672
265.664
153.416
50.1845
44.5899
88.2387
54.8044
-21.2722
-58.2725
-70.8782
-66.2057
-33.7814
-40.4426
-39.1904
-27.7927
-80.55
-139.572
-131.925
-98.1324
-115.173
-107.639
-44.0137
54.2976
72.9513
111.242
171.643
112.664
29.2423
-7.52108
-63.1224
-66.076
-52.0421
-83.4463
-68.1042
-17.0525
93.1528
133.913
58.7271
24.8937
-38.2331
-118.181
-177.13
-121.312
-68.1261
-61.6479
12.09
251.014
391.196
250.467
202.876
166.177
41.8503
-67.6229
-162.621
-182.292
-162.467
-130.39
-60.2762
-18.6719
-39.3996
-66.5688
-49.2535
-16.0493
33.1463
8.86363
-39.1509
-85.6555
-124.94
-111.658
-120.164
-101.316
-15.2407
69.1115
128.922
151.659
203.692
171.783
102.72
31.3055
48.2965
94.899
72.5453
32.729
11.1227
23.1219
18.7869
-27.5461
-35.2717
-29.8135
-17.5457
13.0782
-12.4551
-40.4306
-55.0963
-58.0931
-93.6269
-119.365
-85.4468
-11.6449
44.157
73.4825
99.0235
94.2513
73.5999
67.3803
9.18148
-104.733
-163.833
-163.556
-218.768
-233.744
-142.971
-24.4079
57.5919
132.837
207.069
227.988
121.449
19.9448
-39.2659
-50.7185
-35.7237
-16.7728
-42.676
-58.7971
-19.4314
36.7476
-27.6782
-6.3323
93.0229
151.718
125.428
90.5397
111.714
128.64
28.6007
-70.8355
-51.4708
-0.604686
8.18032
-47.8392
-97.6113
-98.6868
-62.56
-50.0845
-64.43
-68.3142
-53.828
-34.0874
-27.262
-55.2613
-31.4685
15.9104
67.853
55.4809
8.09036
-22.0272
-40.8868
-47.3193
-29.829
-19.1138
8.00036
59.9729
69.4293
103.444
159.898
197.056
160.207
54.5363
-69.722
-183.463
-226.186
-183.693
-74.2095
60.581
136.376
184.988
187.213
105.341
23.8103
35.321
49.4836
32.7286
3.93864
6.03032
0.298238
-139.662
-243.502
-252.195
-239.168
-145.297
-44.7113
-26.2816
-4.5317
-75.5
-153.809
-121.053
-12.5314
61.8362
117.752
123.107
93.0947
115.333
106.694
21.1639
-74.1301
-57.201
65.9583
168.549
209.809
249.274
265.838
166.643
-6.63028
-79.8408
-92.1412
-106.786
-90.5007
-56.6407
-22.7977
-12.3634
-6.86465
-35.3464
-42.1253
-76.2951
-83.6263
-39.4128
-27.09
-21.1054
39.1622
38.355
-4.24898
-22.2334
-28.281
-39.688
-52.8245
-113.162
-113.607
-20.0558
53.7644
116.02
162.536
89.8994
-0.262927
-18.8966
-75.9292
-115.946
-43.1953
73.5072
86.6861
46.5742
-48.0555
-86.0759
-59.5877
-41.0384
20.4585
130.255
186.725
97.3119
-46.0679
-183.35
-199.502
-164.111
-96.759
-0.739899
205.668
365.745
240.381
49.2254
-36.276
-56.5326
-26.0953
5.99126
-42.2411
-81.9548
-66.4363
-44.8847
-53.0246
-15.5581
14.0938
-11.6111
-48.7855
-36.1573
-1.45742
56.3917
-64.5622
-308.502
-277.486
-32.5971
110.544
219.648
351.574
369.312
185.291
70.3242
26.5275
-55.7913
-89.878
-107.227
-66.8531
26.826
52.488
45.2387
13.4278
-47.8287
-59.4478
-50.9692
-81.7246
-203.922
-239.797
-209.887
-215.362
-204.45
-70.2369
64.3957
110.837
119.739
84.6562
9.23479
42.6681
96.7476
104.44
99.0222
159.763
112.72
52.4239
123.857
126.486
89.3789
131.731
104.659
5.80542
-38.6869
-66.258
-112.455
-90.0034
-39.1387
16.8729
116.419
123.948
22.6554
-113.434
-171.326
-168.345
-136.961
-102.388
-67.9507
-51.5803
-38.045
-31.7878
-50.0106
-44.4944
-24.6386
32.443
16.771
-5.48616
16.0346
9.09751
-14.584
-29.6246
0.0506624
63.5627
93.0551
64.8226
57.5109
35.679
-6.87078
-17.1239
4.794
23.1249
32.0866
37.3116
58.2237
-27.2534
-105.262
-67.9892
-2.19665
109.539
264.336
191.796
55.652
-7.18753
-54.1819
-89.9292
-78.7162
-34.8907
-25.0741
-18.0849
-19.1434
-11.6153
-15.2184
-27.6487
-51.5937
-16.0924
55.9463
31.3024
-14.0925
-7.61203
-153.924
-222.563
-142.703
-10.994
26.3985
-2.17975
11.43
-3.08308
48.095
111.843
116.352
23.2009
-40.2002
-52.4149
-52.0701
-14.2421
72.5409
86.4276
-6.78443
-89.3108
-10.1057
136.887
157.927
186.364
185.312
127.082
7.04107
-54.7309
-67.9911
-69.9302
-75.3713
-96.3251
-61.2553
-13.6543
-13.0137
-36.3844
-118.973
-156.522
-138.397
-129.651
-75.0603
-3.16325
46.625
-79.026
-14.6935
114.559
150.102
176.338
164.874
87.7779
27.4596
7.97202
-12.6107
-35.8534
-72.2168
-55.7015
-51.9029
5.65635
214.457
234.72
40.4287
-15.6637
-11.4334
-52.3669
-131.214
-146.212
-89.7781
-46.6541
-62.9208
-53.5231
-49.998
-8.50136
28.0675
41.7724
69.321
54.0522
-7.11655
-81.8228
-161.706
-136.516
-11.4618
85.1776
175.08
170.308
1.15384
-48.7873
-1.06341
3.45249
-8.81016
-15.8228
53.9213
52.4494
4.89543
36.5439
134.908
157.655
137.765
121.18
74.6702
28.9093
-55.7846
-204.293
-288.315
-266.509
-159.716
-97.2821
-94.3713
-60.1494
13.865
35.5618
11.2329
58.3372
133.443
149.708
132.81
62.025
24.5974
-8.09954
-58.4267
-95.6573
-94.9237
-84.46
-81.2573
-34.9397
18.8584
31.0365
43.2508
-2.55642
-58.5634
-30.6121
5.44484
96.2254
306.852
364.415
125.686
7.14109
-70.7434
-141.636
-138.01
-36.7472
63.6638
-4.28881
-83.8515
-43.159
-5.54577
3.90173
-11.8519
11.2755
40.6579
43.3119
48.6997
117.789
-10.501
-205.926
-210.226
-148.24
-57.0954
18.0091
-0.722971
-65.9356
-102.605
-54.9025
2.56409
23.9638
54.3431
69.8198
72.4223
88.7375
90.5363
84.3599
45.6944
-78.5961
-175.436
-155.744
-64.7844
1.73229
74.1477
114.564
127.964
75.146
12.1107
31.1226
69.8991
116.374
150.158
121.405
50.008
-43.4768
-85.2819
-61.0436
-62.6592
-25.5958
132.782
180.197
20.004
-149.645
-140.98
-60.6476
-12.5433
-45.3842
-5.03568
34.7863
-14.4567
-110.178
-176.19
-156.513
-65.0847
26.4657
33.8203
-71.0118
-137.91
-196.015
-227.158
-314.379
-194.356
145.712
574.394
661.145
197.174
-60.4072
-25.0158
98.1043
186.104
135.783
146.187
-15.6795
-417.608
-697.654
-405.427
212.102
434.516
312.896
80.9664
95.6527
294.725
264.261
-110.548
-350.867
-113.421
103.737
50.1757
-96.8304
-150.924
-119.103
-149.561
-93.5091
99.7809
262.835
136.161
-140.714
-215.869
-135.591
-62.7058
0.411458
-26.0147
-101.036
-156.921
-128.855
-53.411
-44.1602
-43.6028
-17.7615
18.3001
179.274
369.825
457.615
371.538
269.951
154.613
3.88288
-54.5346
-86.2682
-90.7336
-70.0231
-88.4614
-72.7808
-34.4034
-22.65
-9.18666
-61.8571
-93.8891
-86.8808
-213.017
-392.918
-606.177
-673.461
-226.701
349.073
401.174
617.061
829.933
633.033
302.551
94.4178
-122.603
-489.844
-681.512
-498.156
-188.558
170.049
173.472
-81.3603
-77.3601
65.2964
201.146
591.591
505.733
-30.0852
-187.104
-487.301
-733.583
-776.196
-789.476
-767.489
-358.145
656.754
1545.79
1762.63
1274.84
581.953
88.4125
-365.676
-525.714
-308.769
70.0308
117.149
-311.304
-542.989
-463.844
-346.887
-241.531
-77.8008
-66.9925
-233.983
-146.033
-373.083
-929.728
-1215.5
-897.091
-36.8918
929.122
1360.58
1173.54
742.312
551.535
419.311
649.917
273.395
-448.841
-603.382
-477.559
-177.583
93.3799
453.475
695.135
767.767
539.658
390.785
219.866
-148.945
-584.657
-681.236
-988.431
-1415.18
-1252.63
-805.266
-349.112
537.705
879.128
534.277
228.135
70.2548
147.358
216.776
-137.764
-636.403
-683.621
-336.812
200.364
462.612
268.808
159.503
663.697
1013.11
560.004
117.083
59.1622
-102.296
-163.248
-236.037
-539.22
-487.816
117.628
484.514
519.866
395.227
286.263
-7.01921
-398.131
-744.097
-712.848
-425.357
-236.648
-190.415
-353.391
-737.997
-550.785
110.671
595.275
818.608
1047.28
990.917
350.185
-37.5974
-75.2356
-251.16
-358.822
-311.346
-208.644
-231.566
-306.956
-201.671
-27.2662
192.556
452.789
1016.07
624.612
-361.273
-623.844
-159.323
237.571
-12.5492
-561.128
-924.022
-877.079
125.643
1172.05
1153.73
82.1905
-409.3
-90.4126
26.0398
-125.763
25.9427
309.252
168.131
-346.268
-677.433
-753.195
-475.42
134.017
703.334
824.428
598.658
289.128
-131.138
-409.41
-497.475
-136.118
134.565
-82.1747
-387.765
-365.794
-91.1152
238.543
191.617
72.9389
26.4403
210.593
270.778
78.5484
-61.1988
139.583
509.046
200.836
-300.261
-499.31
52.0297
605.46
205.991
-279.981
-404.127
-181.111
-183.751
-224.854
-89.5918
99.8782
497.925
620.27
99.5532
-638.817
-940.767
-758.801
-178.721
603.252
325.095
-210.713
-20.8743
280.089
373.048
596.345
760.897
803.157
424.208
10.1757
-478.356
-581.498
-602.331
-818.306
-967.049
-674.871
-103.146
301.132
415.009
567.269
992.367
785.582
-179.904
-716.016
-761.965
-719.683
-337.584
73.7643
397.98
284.603
-134.083
-264.169
-148.477
225.971
1124.85
1668.87
841.234
-219.266
-976.09
-1073.48
-323.364
289.718
78.2227
-210.992
-60.366
73.6261
-71.3041
-451.722
-420.759
-69.2273
507.058
774.792
906.772
755.793
-139.271
-1060.8
-1027.94
-458.222
-5.76211
215.34
70.2099
-562.79
-389.334
305.59
499.576
298.459
141.931
320.161
572.585
73.3034
-548.967
-791.671
-604.76
132.498
615.112
759.855
580.179
297.647
-76.1088
-657.565
-1051.61
-383.332
-129.692
-660.241
-754.105
-392.077
351.567
1139.25
1033.27
1048.59
609.698
33.6816
4.16802
-331.177
-504.091
17.6944
525.145
471.053
423.677
276.28
-112.397
-370.024
-446.625
-304.936
-130.825
-144.404
-444.159
-896.116
-928.951
-793.571
-350.846
150.047
356.069
291.526
244.762
-117.772
-440.221
-380.964
-121.361
165.67
852.951
631.561
200.479
106.899
365.449
434.939
484.424
286.783
-60.3607
216.19
671.996
731.401
420.574
42.0818
-368.45
-688.042
-670.478
-678.935
-567.123
-478.376
11.0589
555.84
328.864
129.179
554.501
603.173
169.295
232.146
204.564
-519.604
-1006.04
-986.179
-871.927
-498.338
286.463
699.273
651.615
268.91
-435.812
-957.595
-1260.95
-1082.46
-253.65
168.917
-273.61
-434.289
196.617
784.432
1115.56
1180.05
1085.75
857.54
784.438
552.949
-42.2599
-308.853
-252.587
-330.604
-243.909
117.963
217.365
8.33512
-158.668
23.401
328.9
141.037
-341.974
-489.755
-508.804
-548.403
-586.838
-525.828
-309.673
56.3448
117.34
62.6367
379.327
577.139
436.556
223.832
132.927
412.271
823.413
432.593
-410.05
-704.787
-458.784
-374.602
-407.448
-308.223
-178.738
-122.216
-119.034
-14.7772
153.941
38.2313
-354.835
-510.826
-370.882
2.10195
332.317
375.754
66.8537
83.601
260.808
294
599.523
895.093
815.12
366.243
16.9475
-109.784
-2.36358
9.65349
-407.112
-829.41
-1240.57
-1302.28
-715.615
-92.3126
429.89
1128.56
1519.99
819.593
-105.148
-179.541
-165.416
-329.982
-476.803
-525.385
-441.555
-173.834
-109.581
-24.1435
613.501
1111.1
919.969
582.006
440.985
111.028
-454.416
-874.215
-1013.54
-795.513
-457.29
-475.139
-523.683
-275.107
133.635
307.474
252.255
152.399
100.787
-229.357
-413.333
347.802
1365.84
1416.62
816.031
333.996
-35.8169
-554.004
-822.141
-578.552
-123.794
195.381
337.72
89.0518
81.7621
299.598
235.729
-14.4866
-354.179
-559.36
-604.223
-706.25
-608.789
182.08
697.18
327.309
-165.999
-375.739
-444.48
-133.406
264.035
303.871
163.233
76.1624
-150.244
-112.277
369.943
593.251
141.475
-71.2703
-32.5516
-239.113
-467.367
-639.241
-335.805
507.441
1219.83
989.735
400.385
148.711
-72.4625
-201.018
-401.93
-582.792
-576.351
-551.318
-602.258
-327.133
594.856
1382.83
1163.55
528.818
4.01986
-374.91
-486.555
-650.251
-1133.13
-1136.03
-582.67
-206.558
-26.458
223.895
527.557
521.246
282.071
218.958
637.33
550.031
108.399
-303.857
-60.9919
550.68
902.325
356.024
-510.105
-776.288
-747.082
-601.376
-324.466
190.001
438.736
297.238
95.9594
-49.1293
16.7133
84.7267
-185.488
-227.359
-126.547
-204.422
-373.132
-442.813
-143.226
403.174
668.741
604.826
599.935
424.752
34.0178
-271.524
-217.053
-31.2382
-111.098
-168.084
-51.0199
47.2626
-95.0406
-246.012
-220.01
-175.674
-185.735
-262.298
-245.224
0.427305
-41.0516
-65.2333
315.702
669.248
873.305
454.987
68.166
-231.96
-450.033
-381.08
-97.3549
231.94
433.86
330.984
183.373
119.051
-248.357
-733.538
-1089.59
-939.88
-193.734
343.904
137.933
-231.219
-136.076
242.993
453.075
548.285
438.712
201.338
-65.1818
-367.88
-608.607
-607.83
-244.698
254.821
576.632
794.237
1077.67
927.601
231.561
-226.118
-93.9303
135.714
-157.039
-507.176
-657.207
-530.13
-272.506
-111.187
-29.0609
1.10849
-86.7697
-103.232
-128.842
-169.029
96.2358
380.284
281.4
10.8038
-111.403
-97.5855
-154.784
-241.137
-397.059
-148.283
32.8745
202.86
462.158
537.584
373.115
234.162
165.347
83.8076
-65.8688
-260.367
-358.069
-291.101
-105.89
34.5405
11.9776
-16.5291
40.3062
226.733
685.535
797.661
372.407
-314.356
-681.475
-702.66
-591.534
-389.897
-214.256
-180.082
60.7409
295.712
459.243
304.242
-34.2331
-272.415
-189.851
-20.5547
-215.951
-332.007
-447.466
-595.608
-178.929
268.638
510.899
815.984
1011.18
676.303
302.729
220.269
-23.1229
-380.888
-500.057
-404.408
-389.938
-520.282
-513.094
-57.5445
640.989
869.634
815.387
446.85
2.33552
-520.113
-514.386
-179.891
-248.851
-307.655
-324.916
-337.516
-237.798
171.937
460.119
609.83
361.7
295.45
269.254
15.6479
-187.206
-141.819
-86.1105
-107.716
-266.348
-239.977
-215.261
-411.857
-339.182
-34.9187
222.96
252.669
139.092
20.471
-114.353
-244.524
-138.24
137.404
387.652
186.927
-62.7117
-170.91
-292.323
-316.588
-166.228
137.777
313.032
317.72
355.747
368.466
275.685
222.202
121.033
-141.548
-184.176
187.737
269.789
-146.972
-352.263
-460.946
-483.514
65.7336
408.677
483.009
532.703
513.743
203.548
-284.541
-333.528
-131.233
-188.188
-316.438
-411.243
-579.432
-695.648
-678.382
-333.877
-147.969
-117.892
72.3418
176.727
-259.246
-374.136
-91.0583
152.742
433.093
552.591
834.305
1047.01
702.694
202.869
-71.9878
-32.5114
185.029
222.982
94.1124
38.7449
189.697
211.314
189.109
9.01655
-405.715
-527.248
-334.131
-167.16
-222.565
-387.791
-565.512
-789.551
-603.162
-54.2202
351.784
447.273
382.608
385.856
362.745
270.922
193.999
205.101
192.047
129.799
91.6895
-64.8921
-259.642
-375.442
-329.25
-197.024
-313.116
-490.717
-488.054
-316.9
-18.1451
168.229
228.434
513.207
625.628
391.969
446.354
185.024
-128.969
-69.873
221.73
98.144
-300.243
-563.821
-493.814
-327.771
-157.59
53.61
238.791
426.008
355.488
178.647
6.76707
-308.603
-528.931
-484.729
-428.431
-94.9374
315.492
495.629
263.717
118.202
370.95
776.07
990.043
550.901
-16.0695
-322.547
-438.19
-514.208
-457.079
-368.232
-310.337
-363.38
-440.71
-376.135
-251.064
121.241
354.389
143.346
268.716
409.214
56.5704
-358.28
-512.465
-114.734
487.195
777.034
715.415
357.279
-66.3794
-347.773
-408.271
-334.533
-191.538
133.587
567.11
562.182
18.1716
-297.027
-447.15
-502.458
-345.306
-231.755
-124.608
96.8282
197.874
-57.4073
-201.639
-153.056
48.6337
25.426
204.339
692.046
566.347
-104.014
-357.001
-415.332
-277.392
-28.9429
89.3674
6.25158
-35.6672
67.3736
127.155
254.757
305.693
216.626
72.3524
43.2383
64.2036
368.359
404.032
-102.776
-488.155
-361.096
-444.437
-571.067
-387.389
-73.0477
49.0986
198.037
239.971
173.774
57.4072
-230.457
-211.411
161.34
402.231
498.622
433.909
174.068
-179.877
-446.559
-342
-190.958
-78.2014
79.3341
267.531
294.711
34.1581
-154.687
24.0055
181.804
-143.041
-438.822
-555.894
-411.274
45.8043
409.528
264.123
2.63461
-31.231
31.179
126.801
351.859
279.616
-100.111
-396.164
-519.803
-233.163
373.577
469.289
196.361
47.9371
42.7903
236.512
264.209
-8.93179
-271.964
-116.433
79.2088
-76.5486
-12.948
238.128
215.485
42.4201
-119.563
-320.613
-185.18
13.3835
-306.551
-600.57
-407.324
180.858
376.694
120.745
-16.5487
-16.8383
-198.069
-376.142
-255.718
176.847
289.644
179.046
213.847
229.279
365.48
386.093
136.654
-7.25604
-23.9684
-89.7905
-126.664
-238.319
-244.885
-127.766
-149.276
-254.639
32.9951
209.888
328.909
220.559
77.6586
-4.07194
-210.57
-300.18
-84.329
155.5
199.868
27.2735
-139.519
-9.23139
329.367
378.414
185.745
-166.57
-493.385
-594.327
-437.351
-158.826
-180.798
56.844
335.777
394.698
361.804
271.204
79.6476
141.532
401.893
521.988
75.0951
-256.443
-482.373
-520.838
-117.362
29.099
-98.2889
217.59
201.85
-21.7657
67.5571
156.159
-217.62
-637.515
-760.231
-703.52
-354.007
279.821
557.989
225.583
192.928
314.387
347.438
245.131
-8.80353
-177.747
-230.546
-356.451
-188.471
59.6483
71.2964
-57.2506
8.3564
161.246
353.615
551.846
550.151
212.507
-203.01
-223.377
65.2663
91.588
-26.928
-40.3786
-33.7596
30.4797
155.987
137.839
-188.719
-441.913
-296.603
-23.6771
2.70726
-242.15
-105.076
479.892
565.38
174.052
-93.3343
-258.733
-349.151
-208.561
-109.413
-258.062
-374.146
-294.799
-167.605
-182.833
-36.8054
158.567
111.912
-89.0022
85.8955
271.425
92.4935
-179.125
-125.083
20.8669
107.559
137.77
336.927
346.506
135.45
125.422
248.151
281.348
83.9268
-127.324
-183.461
-133.936
-110.906
78.2569
427.263
799.592
930.525
323.864
-365.019
-538.922
-621.236
-641.626
-657.503
-611.38
-218.433
419.928
517.709
183.911
11.4324
59.6533
59.8999
19.0912
-118.891
-466.463
-728.795
-670.095
-543.038
-156.899
50.884
55.0645
129.195
239.801
181.81
258.991
284.82
120.922
153.562
175.826
233.129
304.746
460.069
569.549
335.688
136.274
161.664
244.875
151.915
-114.308
-300.462
-473.116
-532.22
-48.8512
169.227
66.8838
80.5724
37.1741
0.797679
-44.8093
-156.832
-200.073
-177.396
-169.227
-157.975
-178.62
-292.93
-339.148
-231.289
-31.1227
151.634
223.966
322.035
183.047
24.2793
-89.5384
-397.885
-572.691
-420.268
-87.1643
230.183
288.458
120.272
-61.5495
82.0261
438.233
602.922
442.429
145.658
59.7671
133.791
116.518
7.31156
-72.5208
12.0308
64.7207
50.2959
74.4539
145.274
287.33
205.153
-4.95903
-209.58
-383.807
-454.304
-280.134
-122.045
-254.106
-502.924
-666.662
-525.718
-180.058
274.305
774.253
891.904
457.505
88.217
128.276
56.6535
-61.9924
96.7295
13.413
-215.751
-337.654
-266.991
-346.358
-494.784
-322.859
80.7516
444.074
681.788
737.912
378.598
-207.857
-446.948
-270.765
-174.97
-365.905
-584.796
-595.935
-273.11
305.396
616.928
542.352
287.485
158.478
180.686
101.609
127.318
117.96
-191.123
-436.38
-314.854
-61.8328
46.4172
8.94586
183.082
381.334
372.759
161.034
-84.3354
-190.109
-123.984
235.912
448.861
315.362
-77.055
-324.987
-300.787
-168.551
-200.358
-297.259
-339.343
-443.089
-442.757
-14.0601
608.88
874.827
525.877
235.565
-51.9663
-369.357
-475.085
-317.826
-87.622
137.292
206.234
139.126
150.881
108.465
-76.2302
-114.343
-196.235
-430.379
-438.22
-386.503
-437.477
-122.399
518.718
660.495
290.477
0.300778
194.869
243.899
79.2376
-186.847
-328.988
-261.66
-239.426
-153.102
73.5064
206.24
277.625
403.06
515.978
603.462
412.675
-124.16
-502.871
-428.105
-71.0726
119.386
16.701
-86.5685
-111.456
-248.37
-157.983
124.092
203.917
153.656
127.829
171.551
92.1118
-52.5116
-130.307
-61.8759
-144.416
-314.123
-295.443
-129.041
-29.6653
67.2227
100.326
-3.30994
-80.3778
43.7022
99.2867
60.8752
-92.0429
-147.538
-109.722
-401.145
-395.13
-108.526
-30.2866
81.6221
173.954
349.589
412.303
355.416
307.972
208.584
22.7837
-114.496
-90.9108
49.4233
94.7746
-55.9079
-174.714
-301.026
-280.722
-55.611
157.583
325.36
419.442
294.146
-58.5004
-515.568
-496.768
-209.75
-60.7816
71.6519
230.885
283.567
229.53
118.163
64.2933
68.4511
41.5366
21.8474
108.786
135.774
-40.4698
-302.726
-424.099
-585.216
-460.746
-73.2808
244.613
193.403
83.7774
78.9554
103.046
43.0711
-44.7229
-80.4166
-122.301
-166.755
-145.461
2.39105
242.804
636.599
683.119
276.014
-39.4327
71.0978
405.552
250.106
-286.635
-361.268
-205.51
-239.061
-448.99
-458.619
-326.581
-185.787
-17.7254
218.715
167.627
-54.7635
-14.8951
154.159
54.7452
-9.26129
-124.51
-281.597
-334.729
-67.1849
175.337
62.7829
-48.7097
121.214
288.671
349.851
342.078
260.985
90.0332
-133.174
-131.235
73.6705
36.0863
-221.29
-98.52
256.461
445.945
262.09
-100.014
-138.902
302.359
478.077
-3.17736
-426.258
-440.906
-247.558
-113.383
-181.626
-223.251
-25.0154
388.894
291.636
-154.757
-430.674
-345.513
-138.515
-81.8405
-139.41
-212.467
-223.766
-267.527
-29.3652
260.035
281.532
156.81
62.7527
50.601
26.1281
46.7068
-36.0911
-184.067
-89.7598
238.768
736.082
834.39
219.003
-49.672
-2.89548
199.73
202.047
-190.257
-525.046
-396.014
-165.961
-51.0854
-0.371529
0.978254
39.3722
110.077
123.214
47.725
39.6501
-181.609
-532.035
-616.397
-366.981
-107.615
114.903
257.737
150.144
11.757
39.158
202.298
197.81
174.577
161.178
103.4
63.013
100.696
190.31
157.739
28.8137
-38.3512
-120.581
-134.357
-72.323
-84.9821
-164.813
-303.431
-174.48
32.9811
121.19
155.436
258.132
201.105
-129.299
-155.522
565.321
778.083
-32.9217
-573.701
-723.287
-714.906
-383.857
375.359
823.597
537.64
256.965
78.1671
-227.619
-426.001
-453.278
-573.613
-518.287
-82.1712
265.213
184.732
-289.854
-517.956
-125.056
185.095
438.768
625.436
366.839
-162.935
-318.158
-54.4912
140.975
275.535
384.438
273.027
142.201
224.128
215.154
-128.469
-341.977
-213.788
-68.7328
83.6444
386.201
543.254
217.968
-192.509
-373.46
-425.361
-360.647
-325.855
-518.672
-603.965
-102.525
782.855
1104.49
930.799
534.631
93.3033
-83.7084
-318.213
-551.966
-651.895
-611.009
-532.283
-358.851
-192.178
-133.989
-211.157
-222.485
-8.59611
288.095
482.636
131.896
-345.294
-278.694
2.8887
232.073
332.652
292.118
389.507
463.811
357.865
121.095
-10.1295
29.347
39.1511
-78.8754
-101.936
-5.02956
-23.8776
69.8869
478.234
714.802
406.506
-202.908
-590.178
-572.777
-419.484
-325.352
-248.919
-181.481
-20.8058
-10.3458
-47.2825
29.1078
131.963
307.772
287.542
182.074
105.527
35.4811
-220.751
-309.11
-158.744
0.140272
75.3342
-166.894
-376.075
-288.127
-185.625
-135.059
32.8282
-52.9218
-185.85
-192.503
46.9823
466.745
641.561
366.671
336.736
228.386
-135.304
-342.163
-269.572
-72.7659
98.7976
224.971
228.831
229.96
210.876
50.2739
-44.1525
249.221
367.5
119.731
-177.49
-501.214
-566.476
-258.752
-57.3345
17.674
61.5144
2.93526
-93.2594
-75.4697
-116.924
-230.846
-117.677
172.56
286.954
166.338
4.98487
78.8544
218.25
156.307
-8.69405
-157.786
-248.239
-178.604
-65.7627
11.334
-85.4971
-169.543
-85.5491
-161.645
-449.502
-536.664
-284.315
215.835
1045.28
1552.96
1099.07
340.856
-231.348
-335.943
-257.298
-262.146
-304.71
-343.451
-412.467
-422.4
-279.653
-94.9439
-29.2435
-12.0832
111.676
248.199
343.598
219.247
-433.705
-836.968
-466.702
92.774
382.997
487.117
526.71
485.004
262.207
4.07384
-212.587
-260.772
-177.911
-239.311
-193.334
184.092
630.382
595.294
158.388
-284.358
-472.689
-550.498
-525.822
-465.057
-293.292
1.76248
500.545
1115.39
1092.94
384.608
-8.1896
-74.7388
-184.699
-142.3
53.6698
-216.02
-636.541
-588.506
-462.928
-329.086
-165.914
-9.73353
130.029
282.07
276.518
228.872
-47.0425
-541.733
-491.507
-24.0862
170.11
172.724
244.38
410.686
454.288
396.784
144.144
93.5556
8.14695
-245.68
-445.38
-396.278
-323.363
-294.236
-109.634
111.137
137.711
58.1037
138.162
332.663
385.454
300.02
228.287
38.3932
-276.658
-383.746
-133.668
66.8852
318.324
501.75
627.87
431.906
-84.8158
-417.985
-335.393
-39.8543
-230.537
-460.73
-438.26
-357.496
-214.866
-105.101
-99.7331
-57.7459
34.6177
29.1956
-52.9535
23.9867
190.864
200.325
196.171
419.317
468.626
228.603
-4.19647
-190.926
-267.112
-270.365
-354.189
-276.97
-114.556
-39.9068
22.9127
76.5746
-36.9251
-108.489
-48.2736
30.7175
239.097
427.53
296.249
-62.2078
-92.4372
156.503
422.429
198.564
-29.8375
-130.228
-228.092
-185.932
6.02272
212.671
329.137
177.622
-34.5108
-96.7989
19.8527
-131.169
-531.867
-720.911
-592.841
-232.894
156.675
379.102
262.324
183.313
378.063
397.02
189.969
-134.978
-332.538
-155.231
-73.7757
-52.5107
73.0736
223.681
195.116
-31.7878
-97.1845
-21.734
-25.3729
-297.56
-407.306
-293.96
-299.196
-78.0504
479.402
742.247
550.697
428.157
248.55
-174.88
-498.766
-477.643
-191.885
255.018
427.77
329.023
132.587
-125.478
-321.329
-326.629
-358.302
-448.445
-342.01
-276.415
-369.064
-304.383
69.2616
369.21
383.678
342.824
366.792
287.067
101.336
-142.999
-192.427
44.6296
302.221
422.635
336.958
259.288
140.317
51.8419
110.508
-36.9718
-231.285
-175.736
-148.436
-213.739
-237.43
-239.377
-236.473
-244.227
-174.154
-188.135
-300.208
-159.101
288.727
748.92
811.803
461.492
114.324
-257.717
-546.251
-472.172
-362.608
-312.555
-188.275
-6.6637
210.265
239.817
177.847
168.621
108.152
71.2273
-38.8542
-232.773
-521.228
-517.61
-190.9
82.8777
397.288
529.48
391.946
134.556
66.539
57.4392
47.6986
59.7595
-28.4048
-96.7543
-35.8661
-26.3603
-34.3191
109.254
472.544
447.383
95.7844
-240.916
-287.994
-131.784
-30.7084
75.1991
47.6037
-34.5424
-81.9225
-226.171
-407.14
-417.597
-92.5755
143.139
84.7872
104.744
29.5831
-142.621
-151.775
-133.566
32.8443
244.984
291.218
320.541
-45.3309
-185.69
-146.791
-183.183
-255.948
-157.439
26.8674
110.775
210.181
453.374
362.856
-54.7942
-241.54
-158.023
40.1886
329.577
445.503
186.567
-267.512
-473.36
-257.447
-95.6206
-67.4273
-85.3061
-56.8327
52.7217
192.703
139.398
-102.316
-304.726
-154.605
174.845
312.714
178.045
-81.9852
-190.44
-275.163
-387.649
-306.339
-84.1694
224.005
434.951
521.535
541.961
420.373
208.188
42.3722
-47.985
-99.0154
-109.916
-62.9996
-183.869
-333.562
-286.644
-176.64
65.9675
273.903
198.328
30.7135
-151.448
-314.523
-293.082
24.3135
249.09
-3.97072
-307.786
-344.503
-117.293
251.236
329.65
157.642
58.6939
-5.44212
2.5199
-29.431
-186.097
-297.603
-257.57
-114.301
-102.557
-115.679
-81.6972
-143.544
-156.308
14.3732
136.536
105.985
108.878
383.605
573.914
523.699
697.591
685.48
340.07
-21.3797
-139.801
-154.235
-238.758
-167.047
30.5805
45.2825
-161.219
-377.518
-405.687
-278.07
-135.469
41.4309
132.156
-255.361
-552.946
-414.791
-246.285
-107.41
-100.835
-44.1144
-8.66096
-0.0995698
17.8548
31.1107
108.824
296.354
427.61
506.111
494.198
314.413
149.826
-16.1927
-152.531
-236.772
-233.673
-117.878
45.2215
172.686
157.424
-47.2492
-173.155
-62.0247
117.734
75.9989
-210.952
-323.174
-243.279
-243.273
-221.561
1.49452
216.793
497.587
648.522
511.147
203.874
-45.9557
-299.203
-362.297
-234.462
-114.236
-107.247
-209.681
-211.202
-231.81
-107.534
46.8903
107.881
53.2557
-69.3118
9.7861
206.077
221.675
-69.2659
-309.288
-223.253
-65.4022
-9.9162
1.44246
41.9989
122.476
212.507
264.329
274.938
324.655
380.629
341.57
66.2161
-212.284
-255.463
-137.754
-91.1444
-380.076
-530.099
-373.872
-179.475
46.2257
230.428
373.057
355.427
239.2
207.077
178.801
-48.5114
-198.095
-241.139
-286.332
-211.175
-54.0229
74.8508
84.0218
211.406
425.58
252.664
-33.9793
-45.4414
-14.2964
-89.3514
-328.811
-341.135
-107.478
22.148
-56.447
-96.0027
-157.587
-150.941
13.9921
150.814
114.865
-15.7437
-115.854
-269.661
-377.454
-239.242
-53.4047
82.74
356.148
614.196
537.658
208.937
-111.764
-233.663
-89.4602
285.605
441.476
361.888
279.019
163.684
84.9619
-35.3538
-230.238
-381.442
-382.258
-329.286
-217.043
-65.1682
21.4744
-101.781
-205.158
-76.4588
83.4759
97.6866
10.0664
-173.177
-166.122
-40.1638
-10.4463
60.6891
149.064
247.313
238.024
54.7109
-40.6746
16.9779
64.9832
-6.38987
-193.483
-361.695
-314.191
-120.686
225.326
569.568
546.948
308.042
115.39
-41.347
-86.0641
-1.77787
52.3728
-102.349
-207.284
-167.546
-170.908
-107.778
130.105
330.841
197.296
-36.543
-93.2785
-190.674
-451.454
-717.753
-659.651
-354.798
-24.4854
134.947
76.6395
-13.9385
46.6009
252.751
385.854
466.108
506.964
385.445
117.222
-67.0362
-55.1865
-100.887
15.3727
234.278
241.132
169.352
158.065
120.575
45.0851
-61.0646
-139.61
-246.674
-287.917
-240.96
-290.114
-271.534
-142.449
20.5652
-6.6168
-94.0491
64.755
411.262
346.561
11.65
-122.426
-80.9508
-92.9256
-217.484
-320.074
-220.133
-130.014
-90.6971
-84.8479
-86.5246
39.6006
112.579
177.085
274.218
252.921
-23.0406
-280.818
-320.596
-122.26
142.881
322.561
327.423
240.243
266.111
398.531
346.866
170.226
52.6066
-2.26976
-20.8153
-9.7463
-57.9382
-129.014
-230.14
-248.217
-257.381
-328.536
-264.302
-10.7836
132.395
79.3077
-65.0662
-129.209
-139.722
-202.4
-218.086
-105.54
2.48503
63.5878
115.67
199.574
274.415
203.476
123.309
-27.4376
-42.4015
0.857945
-78.1668
-182.304
-72.9993
203.223
264.688
146.127
63.2701
-68.7655
-46.0896
-38.3419
-124.901
-148.686
-117.366
2.69874
-20.7201
-48.1235
100.335
117.474
74.5833
168.456
248.84
115.424
-142.496
-315.109
-238.082
-154.525
-92.618
-21.2062
75.223
112.41
123.349
172.308
82.9428
-219.222
-238.182
8.05898
-4.10207
-196.252
-212.628
-106.367
-21.7527
129.488
315.767
354.704
346.7
298.596
100.187
8.1792
-31.2824
34.2945
62.0848
15.4405
48.0106
2.16301
-145.006
-365.973
-525.616
-373.133
-109.163
93.4535
178.228
206.492
266.38
278.469
75.9872
-97.4695
-109.554
-80.5493
-121.065
-131.018
-21.9139
184.113
361.615
200.456
-90.668
-252.08
-288.288
-224.489
-262.862
-406.171
-334.872
-172.522
-139.66
-189.769
-188.136
-29.4673
157.489
205.381
315.525
419.489
325.015
231.433
183.856
233.306
353.177
343.053
368.102
458.062
377.082
109.134
-71.6867
-146.156
-166.369
-123.737
-64.9857
-74.9219
-125.581
-181.441
-275.932
-412.451
-503.596
-622.77
-598.685
-300.94
-88.1753
115.565
253.712
287.498
284.641
143.111
68.3909
70.3658
0.558741
-71.5573
61.7615
145.252
60.3829
-22.9653
-87.4058
-86.1013
46.3363
169.418
133.673
13.9146
66.9335
201.723
186.493
74.7611
60.0549
120.669
-12.87
-247.896
-382.91
-348.412
-197.101
4.60247
121.212
96.3512
-42.8738
-13.0012
117.27
151.943
119.66
122.255
129.732
38.4483
-81.4386
-93.1185
-109.714
-136.664
-81.9898
59.3745
107.902
90.7012
-13.1614
-181.088
-250.554
-73.248
179.572
319.284
488.128
417.485
89.2994
-183.586
-338.62
-373.704
-260.315
-150.378
-81.1181
-9.12103
72.5705
134.653
112.611
109.291
91.5663
110.991
74.4562
-43.5831
-89.1851
-225.981
-480.804
-567.148
-314.579
13.7267
253.152
302.66
252.577
130.461
111.889
94.278
-60.8002
-92.7993
128.292
254.981
171.773
193.452
258.229
173.865
85.9586
66.9766
1.75143
0.626129
11.3842
-89.722
-242.491
-373.668
-297.538
-51.7778
42.7174
80.6342
71.143
-60.6404
-249.635
-417.041
-410.648
-207.699
68.167
176.88
108.675
178.029
429.855
411.052
76.1909
-16.0335
-103.225
-193.813
-185.477
-16.3551
131.047
26.8776
26.9387
35.0664
95.977
189.843
163.436
-8.13456
-188.881
-224.971
-259.403
-317.679
-261.2
-47.7033
74.9677
73.9067
284.268
628.3
862.319
670.437
265.449
8.70424
-218.384
-325.879
-413.904
-487.415
-437.176
-278.439
-18.7356
128.573
103.26
-68.1537
-348.339
-378.366
-98.7491
119.093
163.892
78.2294
-176.476
-309.498
-291.264
-22.7235
208.717
274.193
263.452
248.372
235.435
97.4202
-66.765
-18.5784
185.349
267.23
150.275
53.8526
-2.25769
-42.9281
-33.1496
-107.918
-231.946
-326.902
-266.483
-22.5021
154.03
62.1302
-3.8093
52.327
158.179
192.131
190.01
278.203
277.201
259.843
247.861
80.6829
-69.0374
-154.018
-299.563
-453.375
-413.012
-267.466
-137.497
-218.466
-223.965
-78.9104
-82.5755
-134.142
-148.248
-33.5096
105.195
103.203
98.8968
150.269
174.408
238.326
288.81
303.771
259.033
241.206
253.981
111.561
-138.093
-331
-384.389
-257.109
-45.8954
26.1253
-136.414
-335.919
-420.398
-326.872
-123.166
119.926
320.628
269.614
343.149
557.793
393.822
-8.59931
-190.261
-68.5087
56.9098
0.701372
-45.784
53.5659
162.213
221.157
157.769
58.3305
6.13793
-154.857
-355.45
-414.724
-308.647
-182.517
-137.647
-236.553
-287.195
-184.611
-51.294
116.389
283.851
420.899
367.711
273.344
99.8774
-134.882
-86.8965
15.5624
14.6245
-62.57
42.5207
260.265
212.162
-58.3546
-336.35
-420.402
-199.28
88.7414
267.055
305.927
253.504
224.586
117.935
-58.7939
-313.395
-423.622
-362.191
-207.794
-27.9648
290.88
297.175
-45.2262
-226.34
-91.6227
103.725
261.061
366.328
216.61
43.3025
95.4519
14.0631
-287.116
-406.753
-385.051
-250.355
-40.2267
133.956
152.395
50.2864
-39.3133
-24.6299
-68.3315
-97.5362
-83.1148
-52.5602
-7.44288
-13.7078
77.3802
65.7915
-152.175
-198.156
59.9289
348.361
389.967
442.919
605.034
708.423
461.02
-9.84516
-324.119
