40.0064
46.3015
71.7876
47.4231
-62.8882
-109.538
-81.4112
-60.0739
-44.8525
-4.80751
0.443399
4.37736
79.1024
96.9552
62.8621
55.4372
53.5359
9.25844
20.2197
37.6317
24.3625
-14.5274
-33.7494
-47.4838
-64.5691
-42.3658
55.4638
94.9138
69.2679
-11.039
-120.259
-220.531
-229.997
-83.4079
63.1675
88.3409
102.37
96.783
29.6476
-40.93
-58.3351
11.9076
51.9859
25.8472
56.6807
75.722
33.6704
-28.7425
-17.3296
29.5476
73.0979
75.8961
42.4747
8.5746
-40.0751
-97.763
-105.753
-85.096
-42.766
-5.48649
-4.06688
-20.8391
-32.1293
-51.7876
-27.9335
26.973
23.0752
14.4696
8.15671
6.25082
32.7376
42.805
-1.40954
27.1888
40.2507
86.7072
97.8589
42.3091
13.9563
-52.6811
-138.641
-172.196
-78.3786
21.5551
13.886
35.4283
67.5072
28.1938
7.30752
28.5406
6.8903
6.15796
61.7707
27.6198
-8.09241
-58.068
-72.3134
-22.9324
74.0301
160.811
122.943
38.4281
-72.2902
-135.913
-148.493
-161.046
-123.295
-14.9802
35.8022
64.5202
117.956
150.941
67.4512
-34.1968
-67.0021
-56.2785
-28.2249
12.2832
5.40203
-18.731
42.0192
65.3393
-1.10601
7.44999
24.4993
15.6843
-0.998293
-12.938
-7.86371
4.95474
-50.6021
-56.3881
-18.4359
18.6361
-5.30677
-40.5465
-61.9385
-42.8104
-4.82299
45.9028
31.4437
5.34808
10.7336
31.0079
28.708
22.7615
48.061
67.6852
31.9269
-30.5878
0.945846
-26.1149
-40.5306
-14.3139
6.37191
29.3287
43.9027
29.5214
-40.259
-80.2187
-38.4301
-8.2213
8.34825
67.7526
81.9624
31.8081
-32.2563
-83.3972
-60.0653
5.28596
-44.3127
-79.6079
-73.8854
-43.7885
72.0926
118.934
80.8544
37.7905
-13.5263
-71.8871
-114.321
-82.0847
33.6768
16.403
-16.5336
-18.3662
-34.9754
6.18302
82.4944
113.195
115.652
56.6265
-7.41811
18.2232
-17.3877
-61.2276
-36.3017
-27.2695
20.6168
49.5564
88.9223
116.439
90.8137
59.8777
18.4737
-15.4647
-31.8413
-117.926
-150.395
-60.8343
20.5979
8.75535
-30.3422
-73.5318
-71.2972
-58.8129
-63.4674
11.9036
95.7434
52.6805
-25.2224
-69.7537
-89.4526
-83.2097
-60.0878
-23.2502
19.9783
85.1844
53.5074
-11.5272
-32.3477
18.8431
123.734
109.166
4.60178
-41.4122
-5.13257
-5.18642
-13.7859
41.2207
68.7322
56.103
57.9102
68.7156
78.4817
42.9296
31.1743
91.0337
87.6924
-16.4691
-105.449
-141.403
-218.009
-249.887
-83.1031
116.344
108.592
42.5189
-38.9407
-113.719
-104.88
-26.913
44.3548
62.3718
54.847
50.855
21.3896
-12.668
-31.1369
-40.1741
-6.03317
76.8676
162.749
154.899
59.3236
-5.98536
-54.4674
-79.4133
-84.1421
-1.89787
80.737
36.8653
-20.3225
-12.5426
-49.3454
-98.5115
-99.0117
-101.369
-51.7116
15.2537
67.4463
72.582
17.7958
-26.1757
-38.679
-17.6352
11.575
77.8077
147.575
54.9394
-35.1756
-26.2893
-3.32053
-11.6355
-23.8891
-19.0702
-44.6817
-53.4835
-81.0822
-53.437
24.4547
-7.9431
11.6953
36.1973
14.0596
-41.804
13.6254
56.4051
35.472
63.8174
12.5462
-13.4691
-22.5081
-21.078
5.40689
59.9531
106.408
127.314
71.6341
-2.04302
-11.3871
119.671
78.4308
-4.85271
-49.1251
-144.512
-261.251
-300.395
-189.1
28.3879
151.772
77.9509
0.239708
-45.6438
-38.3715
17.3389
46.2846
32.495
55.4531
64.3448
31.0281
-17.8718
-26.5278
51.1664
69.239
73.6494
85.1706
62.3641
-1.2683
-90.639
-61.9539
-26.2812
-23.1834
-20.6368
23.0987
7.99356
-31.5876
-55.379
-42.2572
-0.985615
0.11087
-82.7125
-62.0253
8.07239
3.01736
-13.3136
7.35457
31.8141
3.24328
-4.88078
-13.4131
27.5083
57.0255
39.1681
15.1345
17.8175
53.5083
36.6777
-1.30248
-26.4822
-39.7089
-0.570312
43.2089
37.1631
41.2432
58.7507
85.953
69.7046
1.13292
-41.8486
-47.8126
-66.9199
-71.977
-106.887
-71.3537
-14.2965
-38.6214
-54.8566
-20.9273
-18.3356
3.45958
38.3627
13.469
-70.061
-43.837
27.3637
60.2705
-9.00508
-26.6417
15.2452
69.6409
79.5081
49.5684
86.0582
125.394
150.786
58.6312
-7.89733
-29.6712
-80.6642
-195.573
-252.069
-132.675
6.83278
52.2244
79.9325
66.6359
18.2528
9.86275
32.66
30.46
41.698
35.5069
-9.97346
-78.6895
-138.304
-67.7757
8.04152
-0.607014
51.8771
129.983
161.238
95.9582
12.914
-36.1361
-130.277
-165.075
-56.466
26.9796
36.806
9.80399
35.84
42.2193
7.01995
9.13208
36.6622
49.645
25.5309
16.2974
0.173785
-40.0337
-49.4436
-69.2597
-81.9903
-65.684
-15.8214
65.6413
108.623
84.0192
23.407
-40.4671
-80.1764
-37.8474
41.9995
27.963
-82.2117
-111.647
-50.2434
8.66289
0.189052
20.1292
-13.3204
13.8719
69.9135
46.4706
52.0641
49.3097
-52.2422
-78.8596
-53.2139
-23.2629
-0.208502
-21.4326
-3.56465
39.3652
80.5605
25.2296
25.7086
46.8377
44.1198
53.0847
72.8711
54.6891
50.1704
-32.0192
-60.2329
-61.799
-16.5816
-5.06904
-15.144
1.88241
8.83769
-18.4442
-6.34613
-16.1629
-15.4174
32.3396
3.56681
-35.2803
67.0662
36.7554
-84.4484
-150.991
-143.09
-80.8443
-77.8008
-31.139
71.435
80.314
48.6244
21.8816
-8.07709
48.4069
84.3089
52.2093
29.5272
-17.4946
-13.1223
17.1432
-36.1344
-45.0426
2.67166
67.124
87.5144
119.786
71.1785
5.36199
-55.7056
-57.2234
-72.5277
-97.9935
-35.6579
32.4806
36.2267
20.2026
-48.9716
-104.703
-67.9328
-5.57602
30.8151
73.5469
108.257
48.0444
-63.8042
-89.835
-53.0833
-5.77077
-7.35836
22.3794
95.4415
123.411
27.975
-51.6451
-105.532
-128.233
-73.7857
62.7158
79.9417
57.7077
-14.2891
-24.1218
3.38992
11.598
22.6963
31.5917
67.5792
53.4636
-4.21016
4.94276
-17.1901
-39.1012
96.6144
169.446
76.7218
-23.2922
-71.3108
-158.861
-286.456
-289.154
-147.312
-51.4353
-2.1005
50.2227
148.491
148.629
118.362
97.5333
95.0333
29.0895
-34.3355
-27.3139
-57.6458
-51.6548
14.5303
60.2425
74.3023
101.71
114.175
53.663
64.4884
66.6996
-8.76287
-27.7348
-80.5819
-60.8498
-51.7307
-74.5203
-59.5522
-50.24
-16.4221
-2.66213
-90.4853
-173.554
-145.535
-43.1982
61.0518
96.8349
103.732
92.6831
12.5845
-53.7822
-23.0735
4.47456
11.893
9.50274
48.8717
47.1042
24.2389
-8.956
-10.937
-23.7342
-19.8559
-57.9581
-68.0079
-7.49667
20.4486
5.32249
55.5867
69.1432
31.6198
37.3324
54.0447
55.351
75.1914
36.8635
-78.1561
-126.241
-45.7818
1.25958
-9.58253
0.563259
7.72003
62.9583
63.7463
13.7866
-14.7564
24.204
-8.90362
5.91659
31.1398
-15.3935
-39.8357
-77.9999
-114.973
-62.2142
23.7944
42.2743
41.232
45.6915
-34.9847
-43.7369
-31.4395
-52.9544
6.0488
61.0633
53.1739
24.7084
19.2317
-53.1774
-66.383
-50.1893
-14.1634
14.2112
12.0035
-3.90191
35.0336
40.0729
-22.0954
-8.94645
47.1162
17.7034
22.0926
85.2632
61.2657
-16.5225
-48.4086
-74.293
-5.01372
45.7366
-4.31389
-33.4099
-21.1491
19.6714
37.5857
-10.1612
-21.8202
-28.9449
-27.4612
5.19781
22.2493
35.8244
48.3785
37.8201
25.24
10.2
5.72793
24.7453
-22.086
-35.4597
-41.0261
-40.7873
-69.8743
-35.3077
69.9166
107.204
11.1096
5.12848
-40.9863
-165.302
-184.755
-124.223
-31.046
10.7157
55.7516
94.1886
93.4122
73.3251
20.781
-10.9416
19.8976
29.9642
58.8385
79.1884
16.8558
-7.78729
13.8308
-7.09156
-28.884
-16.2228
16.2203
59.5987
57.1759
15.6909
-42.8851
-50.9542
-4.99184
33.1695
44.5711
28.7817
3.6643
54.5064
-10.3321
-93.5143
-136.529
-136.016
-108.745
-75.8851
22.1573
111.607
55.8346
-5.34821
-7.41417
-13.9537
-13.9159
-16.6698
-42.1081
-25.9195
8.30882
38.5619
14.2821
-24.3588
-12.6671
2.65198
52.1669
72.0404
43.4963
13.6143
32.8101
46.4933
56.884
54.1271
26.7718
-6.56731
-7.56492
-37.6137
-70.203
-37.458
-7.92287
-26.4329
-31.4956
-18.0581
10.2597
0.918679
-17.3908
-13.4212
5.2624
42.3282
17.9569
-14.9047
4.27271
26.6446
41.329
25.9271
-28.3724
-40.4781
-50.3575
-72.4092
-50.7671
5.59638
84.7891
68.2543
50.5144
57.1415
26.8223
20.036
32.3368
34.1349
13.7042
-14.8019
-45.2995
-83.1389
-114.749
-100.171
-63.1157
-53.6844
-67.6026
-38.3717
51.6659
89.7227
28.9741
-19.5543
-15.7886
17.9112
37.5583
26.0154
18.8131
9.18588
-19.3813
-0.558732
42.1875
61.1645
40.6377
14.3952
22.6217
59.6023
81.023
27.965
-52.0645
-56.5328
-27.9992
-1.18568
12.9299
-20.0133
22.3423
43.3307
-45.5213
-70.202
42.1067
37.3367
-14.4547
-40.3797
-46.3725
-92.2417
-112.854
-45.8267
42.3019
43.1753
26.4452
12.7909
35.4649
52.0819
35.4668
4.83794
-24.2496
14.1835
55.0112
10.3145
-58.4156
-55.1077
-3.61093
23.6949
-1.29314
49.0255
53.6579
16.4904
2.61156
-5.59014
-31.5564
-91.1691
-105.031
-32.0032
22.7518
45.4336
-1.4929
-56.6182
-11.1678
51.2049
29.9758
8.117
4.35382
-3.42457
16.0736
72.8031
64.4618
32.3689
-13.8101
-41.0821
-40.6894
-3.6477
13.8395
-13.1191
-33.5867
-20.4153
15.3089
-15.4764
-19.0766
-0.083978
17.2761
26.6257
18.4285
7.08849
26.1384
36.2371
35.3235
5.5759
-16.2992
-20.8757
-15.1724
3.60529
-13.4359
-52.3616
-18.9438
13.3245
-19.3522
-10.6224
8.88678
-7.34923
-40.5685
-16.5367
23.8534
58.535
14.9462
-91.1511
-70.6068
-8.0319
49.3289
73.1431
34.2176
29.9932
34.204
49.1696
27.4606
-9.42334
-76.0989
-85.1851
-13.0632
31.9544
-8.64013
-15.4442
-19.5771
-32.9032
-12.838
32.4233
78.3122
83.5478
-2.14644
-39.3322
-30.1601
-1.91364
39.6786
6.38033
-63.3219
-69.9208
29.3172
69.2765
-23.0835
-55.5029
8.35457
0.831783
-21.0745
-4.451
5.83493
21.0315
-20.3522
-6.81364
24.5736
35.4948
41.6194
-4.31906
-7.72195
27.2475
37.1525
41.6343
26.3082
-17.0391
-34.6298
-35.3916
-9.17992
-27.8549
-48.9286
-32.3471
-24.1217
-24.2082
-18.1596
-0.0468416
-4.36201
-8.53891
7.37155
28.3181
18.4885
18.8951
47.1975
56.826
62.7317
47.2757
18.1148
-24.2784
-45.7666
-32.9216
-8.44646
-17.7551
-26.0198
-45.9416
-34.4621
-64.5241
-21.8441
21.9198
45.5679
23.0033
-15.1635
-6.45719
-1.26996
0.491304
-17.2229
-13.1184
18.484
48.3515
38.1062
50.4809
57.1293
47.6152
47.0661
3.88889
-16.1221
-47.9922
-34.8634
10.8401
14.7646
-35.6984
-82.2377
-123.401
-127.973
-92.0701
-30.5883
26.5218
86.8846
76.5203
51.8972
25.5681
36.3789
45.7083
20.4978
33.3216
52.4351
69.1746
11.6595
0.388918
31.9395
34.1291
31.716
27.5963
1.78543
-50.9165
-95.1029
-73.0779
-46.2419
-60.0355
-62.8316
-64.1431
-93.1874
-48.2356
17.5437
57.9349
78.5262
51.4558
32.3784
13.9055
-25.0993
-10.5904
25.6977
9.5527
33.7362
51.1509
12.7581
-18.859
-61.7723
-6.1655
26.6999
35.6031
18.7172
17.3828
9.17296
12.2888
-19.0212
-61.3622
-38.528
-17.506
-16.8164
-5.87591
6.384
-1.66669
-16.9581
0.807212
42.7582
8.89891
29.4889
80.7066
71.6753
17.5603
-2.17464
-54.1584
-87.2383
-87.0198
-56.5947
21.8815
37.4788
32.8083
38.3581
14.9604
11.9902
12.8908
0.666773
-40.7755
-43.2437
1.13588
2.89236
-34.4557
-19.2751
25.2063
38.0542
-12.0592
-32.2459
-4.82635
15.9012
-5.95264
8.96485
8.21012
-4.5956
6.46562
-8.10519
32.2716
66.4364
13.7843
-20.02
-10.4372
4.63313
-23.3537
-47.8578
-2.8157
60.4031
53.6939
32.209
8.45589
-15.4437
-51.7431
-50.3809
2.454
42.0928
-1.75051
-41.29
-51.4792
-41.8786
-3.02665
13.7295
12.1941
-8.82451
23.9073
24.086
-4.93568
-13.9601
2.45984
28.2501
39.6551
40.4285
59.005
50.1692
-55.1903
-101.889
-88.656
-69.0942
-32.075
-9.91588
-10.2923
76.5432
146.026
80.8811
2.99653
-32.813
-52.8149
-54.0991
-22.8223
12.0263
4.53315
-10.2873
-4.45734
-22.7179
-26.2547
-5.624
56.8182
47.2457
-0.228808
16.5825
59.4781
-0.99432
-67.7159
-33.4641
14.6997
42.0248
67.2582
14.6541
3.14397
9.00975
-36.099
-67.9934
-43.6792
-9.26313
16.7097
25.4812
26.9178
36.9997
20.8357
-54.4381
-59.4491
-44.6511
-42.5307
9.32683
-10.2084
-0.0107289
27.7542
31.8159
9.00632
-22.1315
7.01614
48.3023
-23.6444
-43.7992
-20.4631
-28.187
12.7405
64.6539
66.2503
63.9094
-2.64717
-40.8369
-13.359
-20.5259
-32.1936
-19.7388
-22.0253
9.47813
32.874
36.9029
34.8293
17.0996
13.5617
-18.8099
-15.1751
4.12183
-25.3835
-56.7628
-46.1374
-26.5876
5.27141
27.8121
41.7244
24.2217
41.4
60.6402
-5.36421
-23.5741
-20.9111
4.57812
28.0581
1.91722
-7.53217
9.41367
12.5177
7.66201
-28.4399
-56.7823
-55.7167
-29.8125
-18.9603
-15.375
-19.1391
-10.2136
-48.7417
-44.1198
6.54658
-15.633
-38.9254
0.205579
73.6889
97.2083
67.3467
52.3257
42.0331
11.5405
1.25122
9.92724
44.4339
33.9639
19.9733
-13.6826
-8.51127
-2.33473
4.84725
-14.8329
-7.88854
35.0579
25.3965
-36.9705
-85.4179
-85.8416
-51.1773
-43.0955
5.07605
27.0878
21.1126
-46.5149
-71.3311
-36.0514
4.74433
47.505
29.0043
23.7795
3.93734
-40.6595
-16.897
-5.20419
11.7301
29.4566
24.411
54.1822
52.6345
39.7248
-9.6251
-43.3081
-47.742
35.7169
88.8888
85.1446
47.8869
-21.231
-49.9928
-50.572
-11.6208
17.7465
14.9928
-3.45645
-11.6534
-1.88455
-38.7717
-72.2989
-31.5475
22.8572
23.9556
21.9262
34.8697
28.0666
-9.69602
-85.2402
-55.642
22.1152
32.1624
-26.6172
-47.3018
-36.0115
-36.4511
-41.8528
-62.0075
-54.9682
-10.8757
65.9812
116.173
121.771
76.8273
30.6743
8.41088
21.3104
7.61722
9.60487
-1.09076
-33.4862
-36.4482
-2.24668
-18.1196
-16.4305
2.66292
36.1624
38.4408
24.312
-7.46328
-57.9657
-92.8385
-84.1636
-67.5445
-46.8743
0.161918
14.5767
56.9711
75.79
51.0783
50.8135
25.6475
0.794375
44.6122
49.3641
49.3678
0.832185
-34.6251
-59.7657
-49.9288
-3.2128
-3.47199
-30.0996
-33.2038
5.91883
18.3929
-39.2251
-67.7116
-26.2653
13.6855
-11.9478
-16.6064
47.0678
105.365
76.4009
5.23467
-34.1044
-37.2774
-38.7353
-3.55622
4.86213
3.88211
37.4846
29.6535
-21.8409
-31.2477
21.6589
12.1383
-4.99636
-3.24239
37.0894
27.5844
-13.9519
-53.7116
-51.0083
-32.8531
15.9354
46.8229
61.0053
13.687
-32.5559
-25.148
-49.2238
-56.4259
-13.9145
32.2258
54.7852
-13.6421
-41.8781
-23.2381
-15.9478
13.7106
35.1162
21.6963
40.4778
46.5541
46.6628
11.3698
-11.1241
-15.476
-18.8241
-26.8927
-27.6106
3.74533
35.6503
-17.6442
-38.4726
3.10421
-8.64522
-26.5128
-16.8944
10.5764
4.07087
-27.087
-20.1923
-20.8199
-22.9085
38.079
39.0385
41.334
55.4968
9.30978
-17.8998
9.37051
53.1335
75.2499
3.34917
4.6711
35.7356
-30.0246
-76.7964
-78.0532
-52.4302
-2.79034
1.77189
-2.76092
2.4696
-13.8888
-0.210905
26.8954
6.33708
-16.9544
-16.781
0.782855
-35.6379
-58.8449
-10.8565
0.0576506
-25.7274
23.1109
74.379
78.6025
53.8997
13.5178
9.1909
0.472414
5.65817
39.2579
23.1608
-22.0039
-35.4133
-7.03374
4.92361
-21.8413
-54.61
-60.3225
-52.0632
-6.82709
12.1182
-1.55451
-3.36272
15.1695
16.6256
22.0399
21.4463
3.69027
5.8196
55.2877
63.312
-8.72165
-47.8587
-36.1491
-9.82678
9.12039
-12.3943
-36.5289
-14.0527
24.2937
48.5615
53.3602
27.2943
-42.4125
-63.8217
-42.2407
-57.5125
-6.89347
37.1675
-16.7473
-27.0008
8.26051
43.0338
66.8262
46.1996
31.2076
47.5634
53.1129
33.4573
-20.0699
-42.9325
-42.8754
-60.757
-31.0766
7.38187
-4.70037
0.940416
13.0901
-25.1877
-48.7266
-11.6071
13.0527
13.0722
-30.3322
-19.6558
-46.0779
-44.492
-3.5114
33.4807
47.3422
41.3543
17.3567
-4.15067
-7.05978
-16.8874
-16.6378
-32.3435
-9.1889
24.6584
35.6181
52.4567
37.488
12.619
44.6501
49.3109
44.7921
24.2093
10.2531
21.7824
15.769
-16.5151
-27.5478
-5.71595
-23.8808
-66.6505
-19.0362
13.9679
-26.2622
-61.978
-46.2897
-73.735
-41.0555
-3.50924
-2.55803
-42.259
-8.97247
19.5556
15.3046
-15.4165
-15.8813
17.9421
15.2989
13.0173
27.444
2.18198
-23.3355
-33.2307
-2.32496
12.324
7.10349
54.344
99.7262
26.8356
10.2188
44.2997
23.1182
5.45651
-2.28284
0.32597
72.4426
135.81
98.3253
-0.847842
-13.4519
-19.1824
-47.003
-30.5113
-58.9876
-61.4659
-37.1833
-78.8867
-91.9809
-71.4548
-68.4456
-47.3198
-24.8055
6.4834
68.6092
33.4349
-57.1263
-92.5685
-66.139
41.3227
54.6043
57.1214
56.0826
67.0962
18.0697
-46.6697
10.8069
70.916
71.321
54.2378
50.6115
57.3319
9.56867
-56.1206
-68.8384
-52.3433
-49.7019
-53.6061
-25.258
0.981431
5.43218
-6.52072
31.0432
32.891
56.3027
78.2538
32.7023
-3.00803
-35.6676
-18.3144
-18.4589
-79.9145
-44.6494
-12.1378
-32.3485
-15.0693
49.1008
74.7838
81.5945
61.6567
0.12364
-1.24546
-0.105188
-5.6347
-5.52676
-11.5303
-6.54937
-50.9234
-67.0713
-48.222
-16.6914
-19.3818
-1.26342
30.4036
7.64955
-42.5937
-49.6391
-71.8961
-63.0156
-21.8924
40.8777
94.3205
69.7996
23.0191
44.2325
59.2669
27.145
6.23213
8.71584
29.7689
32.1728
13.5109
-21.4536
-67.4106
-87.904
-2.96071
-9.04546
4.7061
21.7863
-0.972456
-16.1581
-54.5695
-44.3279
-4.37464
-5.81532
12.7377
-2.28731
-10.8599
21.4916
52.0184
39.0555
34.4094
45.1263
41.3527
57.1727
42.8809
15.5261
-11.6949
-25.7106
-74.0189
-71.406
-40.2467
-8.07999
-0.0764189
6.01602
12.0256
-6.17259
2.32204
29.6447
2.22446
-55.045
-13.8784
37.2775
76.8314
48.3632
-34.6542
-86.4915
-90.7693
-72.1571
-28.2353
22.7216
64.426
51.9928
9.64382
-17.3395
-31.3887
-42.1572
-31.689
-17.1831
-31.6571
36.252
86.8013
34.672
4.59984
38.4677
81.4669
88.7979
58.0871
12.4063
-24.2441
-28.8222
-18.1715
-22.5002
-25.0192
-5.66089
20.4632
41.0094
21.8168
-31.0818
2.315
47.6309
-22.4867
-75.2149
-88.8748
-101.946
-72.1957
-91.0931
-53.856
5.89917
27.9958
30.0708
8.79319
-10.2909
11.8748
0.579063
-50.0744
5.7914
52.4565
31.0323
38.9827
16.8491
5.46011
21.6077
73.7612
75.8778
65.9991
67.7978
47.2741
24.9534
17.2145
-4.27237
-14.0827
-4.93185
-32.8132
-25.5257
-1.74964
-17.5868
-18.7963
-3.63805
0.958419
4.62341
14.6067
-21.8719
-46.9424
-45.4309
-84.7918
-108.238
-65.6737
-25.3359
-5.87708
-27.5016
-1.31039
11.1415
25.1358
10.6488
-5.50466
-15.0231
4.42012
29.7934
38.6476
5.57961
-8.32784
42.1943
85.6648
115.35
69.4109
73.3603
48.3891
14.2054
-0.546574
2.49043
-27.8957
-14.9039
-4.09969
-51.0555
-63.042
-39.174
-26.1857
-59.4754
-90.825
-75.7179
-38.9488
8.68046
-26.7547
-27.585
32.5739
73.0848
62.3752
30.8759
3.66146
-14.0594
-1.32501
6.45879
28.4011
53.2856
52.016
21.5518
14.9849
47.4077
33.8997
-35.0031
-21.9965
-15.5914
-24.5602
-55.3115
-52.5206
8.72301
35.5416
-6.63824
-43.0892
-29.8309
-19.979
-43.8413
-58.8518
-44.4238
18.5331
75.4942
27.232
12.206
-12.4101
16.2533
40.1439
19.0789
30.4977
73.1848
65.6309
13.9058
-13.5512
8.72629
-6.01635
20.7503
23.3884
-15.0054
-45.6507
-55.885
-61.3115
-98.6501
-82.2577
-46.7372
-6.79543
16.585
24.9882
-4.94667
8.55744
10.997
1.04104
-12.3503
1.59983
40.3168
91.2075
63.0694
-9.02824
-29.8347
8.75288
30.5269
17.4585
25.1273
28.7561
11.2443
18.9789
64.0197
48.0018
4.88556
-24.3494
-37.5457
-44.7732
-57.1133
-81.4862
-83.1428
-48.4917
-12.6476
60.2274
104.537
75.5761
26.7545
0.967039
1.83761
12.9355
-10.0622
-24.9537
-62.7766
-94.2578
-65.7411
-53.2084
-56.512
-14.9185
15.8169
19.4234
34.9
54.6757
18.5866
-10.0446
0.0858198
9.34164
-0.522852
32.2585
35.664
0.289604
-23.527
-19.9444
-11.1808
15.3244
38.8453
30.8816
7.96182
9.95631
12.8426
-1.09014
1.60732
7.85112
2.93981
7.2052
-3.15718
-37.2675
41.7543
87.9048
35.8562
20.9115
25.6234
1.98423
-20.418
-15.2562
-2.69588
10.609
5.3796
-37.3465
-62.9933
-60.5578
-36.7256
-35.8212
-43.447
-35.5169
-53.3219
-50.7331
8.19964
6.28627
41.5612
24.8597
-40.9972
-16.6479
43.6043
61.6651
45.1715
-2.56802
8.68484
11.1331
11.5829
10.6022
-32.1323
-24.5903
34.1316
52.7766
43.9532
40.689
-23.5024
-56.3067
-27.3533
28.8443
45.5055
13.1695
-21.3273
-63.1018
-69.8552
-0.878393
12.9925
7.9943
-0.30489
6.07765
28.3332
22.8092
21.8058
4.91953
-18.2622
-32.6044
-29.2779
15.2269
-2.27771
-23.1916
12.287
38.9182
11.9725
-3.32888
15.4125
32.6426
31.1606
4.77817
9.09158
17.9202
32.2303
14.649
-4.5127
-26.8567
-21.2383
-28.3004
-45.6625
-70.1041
-97.1617
-97.3129
-17.4698
29.2194
40.9659
-16.3911
-14.6802
32.1964
41.5573
32.456
29.4116
46.7354
35.3794
5.38251
-15.572
-4.56299
10.7529
-8.83298
-16.8716
49.5295
115.163
61.7043
-2.96704
-61.3015
-67.2601
-6.501
8.30955
-10.1707
-9.63565
-19.3014
-25.2439
-40.3984
-87.3292
-70.9097
-29.0241
-10.8477
-6.94074
63.2976
93.6888
39.458
5.50299
35.33
30.3813
24.375
27.6156
41.4324
9.60311
-66.2495
-69.829
-1.68432
32.3615
55.9439
43.6298
38.7697
-11.833
-51.3425
-87.1658
-45.8085
3.8467
-64.9298
-69.7342
-0.835147
32.8684
49.7772
11.6471
-0.378318
14.7476
15.0708
5.41529
7.65017
11.0769
-51.9105
-108.147
-59.0771
20.8623
51.7783
78.7986
94.4205
84.4026
75.189
-3.76284
-40.9628
-38.787
-4.5848
18.5439
-0.845151
-46.5573
-69.034
-83.0516
-26.2077
18.1595
53.755
84.923
23.1594
-32.3051
9.11315
20.0821
-42.3401
-66.9257
-74.0034
-54.4555
-20.342
18.3144
24.0538
17.2231
3.23881
44.2006
86.2189
70.1254
3.55931
-5.93804
41.126
24.557
-6.65857
-0.78348
-18.8007
-4.9893
4.62431
-17.8343
10.8457
4.67781
-29.3056
-30.5199
-35.7574
-5.55133
23.5021
12.1862
-25.4216
-66.5415
-37.4927
19.6143
-14.4294
-29.3175
8.94761
36.9025
11.0862
8.99259
37.465
15.6447
4.84875
38.7453
56.6503
47.5645
5.10771
-50.4853
-100.363
-95.1702
-39.8096
49.0616
50.6125
-39.9034
-64.8403
-10.4974
-2.94731
-16.3039
-4.14477
4.78959
19.244
30.6955
-3.9743
23.5526
59.6216
38.2811
7.54631
-8.76059
10.9592
15.8029
7.86827
18.794
12.8599
28.5905
74.6034
48.2288
0.129944
-27.6848
-44.2122
-39.6888
-56.291
-33.285
43.4122
23.2895
-47.2009
-47.6789
-33.7957
-25.6488
-2.0302
27.9797
27.4892
23.6399
31.4643
-20.629
-40.62
-18.0696
-18.2545
-21.9725
9.93588
65.1137
57.5012
-18.8435
-34.7928
-18.2362
11.704
-11.8287
-8.98817
42.3074
30.042
-9.34251
-35.6761
-57.904
-68.1598
-13.7069
-5.94246
-4.3229
-1.8719
4.3553
19.2937
6.38495
-16.0377
34.375
27.8904
27.0376
24.1193
24.7578
21.0265
7.12708
25.6408
25.1757
51.8573
47.1153
22.104
-21.6254
-41.5168
-38.322
-18.9117
0.358198
28.0361
29.0604
13.5797
15.6182
-51.0175
-91.1003
-65.4065
-57.4257
-22.9084
9.36003
11.1297
9.57811
16.4889
-4.13726
-13.1518
0.976718
0.282734
27.3481
58.7519
71.8168
39.4124
-60.7393
-62.913
-44.103
-10.5118
-27.8406
-21.3852
25.2127
43.2122
17.8817
28.8473
47.5559
28.2216
25.3267
21.8785
41.6942
43.4799
-41.5751
-78.4539
-51.8109
-53.5617
-18.2047
-5.12138
-27.2268
-0.936962
33.9043
4.24654
-37.9224
-56.8422
-43.8721
-10.0481
32.4359
1.94776
-22.8674
0.402947
-6.0521
-0.696664
65.3567
70.92
50.8657
32.6121
9.942
10.1721
27.9887
-0.168935
-8.21379
8.28394
15.4893
26.4856
35.7636
34.7707
-1.13197
-17.3096
-22.5748
-46.2823
-54.3685
-25.0582
11.1192
49.4287
12.8187
5.17129
-5.69233
-17.2404
-8.8796
3.21152
-18.1814
-48.1982
-44.1834
-19.0767
-30.3406
-58.3193
-42.0989
-34.607
-13.4397
-16.1079
-36.6534
-16.748
19.3444
55.7833
23.7592
28.1146
65.2916
55.4394
43.9029
60.2208
45.4213
43.0892
29.214
-17.076
-23.2029
-24.9424
-22.7012
-6.40318
8.42397
72.6042
53.0944
-30.4189
-58.0978
-80.7547
-38.4796
-16.589
-25.048
-24.4162
-36.3284
-36.7376
-14.4194
-1.04395
18.675
9.47173
5.26306
53.6325
18.5007
-11.3468
-6.27428
-17.3476
11.5
25.0673
19.2806
36.7522
78.0967
11.2852
-16.5316
-10.8284
-19.8508
-13.5028
13.357
-2.64715
1.13987
15.3632
-33.8944
-69.0026
-43.7632
-17.9213
10.1351
12.5567
27.0775
45.2789
32.5953
5.59462
-43.9717
-21.8339
14.1765
-4.98385
-9.82981
-16.1661
-14.7763
79.1218
62.3597
9.1752
20.6687
26.1073
25.2353
2.76979
-14.0176
-29.2268
-66.7657
-47.7805
-32.8306
-11.4829
-25.4968
-51.3369
-53.5797
22.5412
43.0721
51.1102
36.0671
-17.3293
-37.2296
-12.0263
28.6779
32.0338
-38.8835
-33.6357
-22.576
-5.65515
11.7644
-2.61626
18.3293
37.7193
8.08304
-13.9748
-18.8138
-5.14161
17.6458
28.6546
32.5724
17.4187
26.3101
8.00362
-1.20653
-30.7005
-12.0093
36.0432
82.3368
71.5826
58.761
11.3102
-36.0313
-78.5223
-72.1427
-20.0826
5.32357
-30.3428
-31.5803
-25.9127
-21.5228
-49.9041
-36.6657
6.23815
36.8025
59.4105
64.2184
-8.1191
-53.7337
-43.1403
-19.9069
16.9952
51.5791
52.6495
52.1188
-36.3948
-38.8863
1.65014
-29.6859
-51.965
-0.261244
27.2737
2.5106
26.1055
17.368
-1.05126
-10.8648
-2.81115
4.41462
-10.6133
-28.7948
-41.132
-20.6699
15.664
47.1385
94.2541
73.7721
-0.0268959
-28.8112
-40.3139
-44.1917
11.4425
-1.38943
-17.3716
-4.9272
-8.58104
-8.77463
-5.75571
-6.44039
28.8711
8.97722
22.0634
1.41457
-48.5633
-30.4505
24.7623
29.9945
21.7831
16.3811
36.6978
17.8354
-35.0855
-15.6971
-31.7274
-56.2105
-59.0069
-20.5585
29.2613
20.4821
-11.3569
24.4003
44.7985
28.0438
34.7228
51.3807
32.3612
-42.9849
-47.1295
-8.1698
-7.4164
-41.8982
-59.774
-36.3881
-16.8589
-20.5072
10.677
21.4626
30.1369
57.897
80.6685
79.2498
26.8568
-22.9823
-27.8688
-36.6354
-36.5772
-5.09227
2.89915
15.0928
31.6008
3.11854
-21.7631
8.0442
2.88811
-42.4282
-31.3338
-2.7444
-8.37842
-9.45104
-73.4305
-48.9368
-2.54179
-3.15907
-13.6995
-34.0389
-41.2552
22.4039
59.0004
38.1956
22.7345
59.8642
93.3206
57.8225
43.457
71.3964
61.3903
33.4517
-13.2662
-61.445
-17.4648
-10.4235
-24.42
-40.8823
-52.0346
-25.998
-18.3567
-60.0937
-89.997
-99.5997
-51.7815
-3.33756
0.986388
14.9592
-4.67977
-16.7047
-2.20568
7.18314
33.0834
30.6894
10.3294
47.0828
52.3531
58.0296
68.0997
27.7033
4.18929
17.8329
30.6895
39.4561
-15.0147
-16.6948
21.8244
19.1139
13.348
44.034
35.3357
-14.9898
-40.9306
-34.1419
-35.248
-70.7612
-66.8849
-61.8462
-86.8759
-61.8717
11.7458
-3.63593
43.5989
81.9188
21.5
-64.2344
-60.4411
-23.6424
11.8758
-19.3354
-44.5532
14.6686
40.7081
55.8791
54.3637
19.4624
36.2758
64.9927
66.6642
58.6389
26.9972
44.9768
3.79117
-23.7423
21.6258
42.1419
-15.2693
-56.5054
-45.7108
-20.3208
-25.9563
-51.7888
-16.4768
-7.10679
-38.4561
-27.7504
-39.3065
-49.9475
-53.9769
-83.8528
-84.9959
-55.4701
-45.0812
0.677017
40.4233
57.2734
69.8427
49.8661
59.058
132.456
112.403
72.9597
14.3365
4.42918
29.1047
42.2675
25.2531
9.28093
26.6005
9.09849
-6.26712
-11.2318
-32.7379
-54.032
-59.7005
-56.7187
-47.0078
-55.1686
-35.9645
-63.9553
-55.778
-43.1227
-22.1449
21.277
53.9693
5.2935
-2.21258
33.7677
30.9327
-1.0172
-33.1191
40.6751
122.062
72.6078
3.01725
-37.3003
-47.9852
-2.833
-32.7227
-51.6675
1.95062
0.111757
-38.4996
-71.8492
-68.7172
-46.5209
-16.5754
37.3514
61.2732
103.347
94.5414
50.9009
15.0062
47.6143
54.7903
38.3536
14.9896
-6.84873
-14.9342
2.95893
-40.6602
-50.4416
-3.31186
-14.3706
-31.6046
-23.1079
-16.6559
-18.41
-11.5272
-17.2123
10.8353
-10.7158
-45.8844
-61.3859
-34.5221
21.639
63.445
41.9893
32.5069
8.49356
12.9747
38.4643
37.6207
44.2275
24.7352
-17.7315
-36.8621
-83.9175
-93.7293
-56.9725
-21.2419
6.05808
39.9016
18.5693
-25.9997
-33.9803
-51.0126
-27.5896
0.418121
18.4165
28.6027
29.5797
19.35
11.2393
21.3856
48.6704
49.4038
47.5581
20.0762
2.39773
11.0973
4.04933
-8.20316
-11.6843
16.2528
44.3918
67.1893
41.9071
-2.82633
-50.4467
-75.4726
-69.4837
-14.17
7.70846
-27.6143
-17.7965
21.5725
21.6135
27.082
-4.43452
-52.0579
-87.403
-50.4132
1.82992
12.8152
48.6312
53.4724
-45.4363
-42.7254
40.9069
79.7812
52.2925
3.13282
-16.6036
13.9615
43.2638
-10.5222
-34.5993
-22.4694
-2.38363
11.899
16.3632
-26.1683
-40.8252
-15.3039
-42.0703
-72.2254
-6.63219
9.30634
-12.9146
-16.5207
4.13304
26.6211
16.9432
-4.62188
-26.0905
-16.4585
2.89079
8.79548
24.176
47.2348
50.7848
0.778968
-22.9198
15.8738
62.7058
51.036
32.5505
52.8169
72.5995
0.334529
-47.9836
-75.403
-75.2341
-47.185
-31.3753
-11.4099
-24.1099
-20.8066
10.2847
25.2207
27.4664
38.8676
10.4458
-29.7209
-40.6467
-89.8093
-71.5698
3.31052
10.8826
22.1708
42.508
75.4998
94.6948
70.9147
36.5674
18.2215
48.1733
61.3532
39.8427
-3.09484
-52.0385
-51.0567
1.28458
27.1886
-39.1747
-74.4782
-103.534
-139.702
-110.273
-10.3487
42.2129
44.9696
-0.577106
-0.241561
-8.47313
-34.7883
-22.1295
-14.2194
-7.27232
37.1474
52.939
51.62
41.112
22.4366
35.2739
80.2459
115.335
103.874
-5.74994
-115.95
-120.003
-92.2229
-60.6065
-37.7158
-5.40251
48.3818
38.4595
17.4938
1.00156
-51.4278
-45.6554
-37.7776
-40.0116
-10.0294
20.9564
30.2213
42.2807
38.0746
76.1283
105.877
80.8355
55.279
51.6609
13.3526
-10.81
-21.6659
-22.9772
-28.4441
-44.419
-20.464
11.4487
-57.2159
-82.043
-50.2215
-35.3752
-21.8855
-15.6777
-18.6369
-4.47229
-14.807
-32.4516
-12.6995
57.8128
64.225
24.6368
12.2514
-0.0909745
-17.32
14.0368
18.5277
6.33573
49.0324
50.0638
8.14602
-34.5395
-9.53198
-34.8613
-106.527
-70.6089
5.08739
27.4234
1.24892
-48.1438
-44.9056
7.52352
2.13863
0.349301
38.7434
57.2058
36.393
30.5279
42.961
59.1299
50.1722
1.77593
-27.4263
20.1974
72.4768
26.7656
-35.0883
-30.1461
-14.3583
-46.1754
-15.9691
-0.98819
-2.85002
-14.2007
-20.4691
-7.32316
5.70101
-23.0556
-0.119296
14.9552
-40.7632
-23.8816
41.2693
54.1082
36.546
13.3768
1.63324
9.56641
-8.42469
-21.3398
-61.7861
-62.8755
-7.83441
5.25133
-36.5734
-71.9939
-34.9841
-3.14309
-13.3536
14.5905
54.7312
47.0561
-23.274
25.2612
64.8396
27.7284
3.72571
-19.8399
-16.9662
2.66727
17.524
5.28597
-3.8425
20.7269
31.7316
11.5217
-16.8777
0.145167
-15.7109
-16.4338
-14.254
9.4179
22.9688
-24.3091
-50.948
-16.029
-12.3537
-18.9531
-2.38325
34.3549
47.6919
24.6675
-20.4662
-20.9657
37.847
36.6481
-1.46128
-2.97285
8.56017
-6.31346
-16.5728
-17.2739
39.1544
75.0207
-3.65475
-28.7796
-26.2805
-18.4438
13.7706
45.3217
51.9606
28.019
11.0003
-53.5901
-58.943
-35.5628
-29.409
-43.8996
-24.3733
-28.127
-29.7618
-49.1862
-34.6929
-10.4068
34.5496
41.2747
61.0352
88.5882
74.8016
-37.2607
-73.5485
-14.8942
11.9728
11.8001
-10.5355
-13.4786
-4.83766
11.019
3.66901
-21.1278
-14.9751
0.116855
7.17802
27.9999
18.1035
-59.0701
-72.8029
-46.8469
-35.6101
7.15522
14.4318
-3.15889
27.6371
86.9734
53.2379
46.636
50.0188
31.6948
23.4732
45.9312
47.7794
53.2511
7.18193
-121.882
-94.7646
-5.4954
27.2744
13.5534
20.99
84.217
50.0286
-8.23336
-58.5225
-53.4794
-48.3331
-48.8629
-44.6506
-64.1511
-47.0913
-12.8926
0.50729
35.9791
73.8497
72.7874
32.198
-1.44134
-5.53056
-18.2749
-58.7331
-104.836
-90.5168
-50.7611
4.75015
37.9476
58.0829
53.1905
2.22213
-39.4096
-35.058
-26.9052
4.82248
25.8483
8.9649
10.4053
54.1812
82.222
73.7365
36.8123
8.28128
27.0284
48.8557
32.5172
7.75499
-3.28014
-25.7969
-37.3097
-12.0198
22.28
-13.3319
-70.3781
-55.174
-59.3527
-87.9408
-29.8557
-8.84238
-3.8977
8.10903
32.2387
73.3282
45.85
29.6004
37.9271
6.26158
-42.7629
-51.7689
-47.0151
-12.5973
21.5742
52.4577
31.4569
-15.662
2.09358
13.7422
-0.753379
1.71238
-2.66927
-13.7733
-53.0212
-54.2119
-42.5594
-6.35569
16.2938
25.9945
41.8338
35.9988
1.98718
43.5967
83.6012
70.3271
65.0223
31.2514
-24.6299
-40.2383
-20.5282
-47.8873
-38.4812
6.43579
30.3744
-13.7487
-42.4425
-44.9208
-31.945
-38.6691
-71.6589
-49.2692
-36.6768
-62.844
-61.1093
-30.4539
55.484
90.9089
51.5266
20.0389
-23.0124
15.7622
29.828
-7.04108
7.09421
25.7686
58.3961
26.8419
6.61325
32.7192
39.6179
61.5158
114.301
51.8892
-20.9948
-52.1577
-66.3548
-75.2853
-39.6371
-9.76798
12.7581
5.96827
-0.422554
-6.1921
-29.1335
-32.478
-43.5365
-12.9799
4.29445
16.5102
37.517
40.7024
13.5149
-0.49272
-5.69484
-21.8385
-47.3614
-30.6266
-15.1257
-3.73353
-57.7463
-70.5563
-35.6815
4.66738
20.0975
23.6557
47.5895
22.9217
22.8708
28.5093
48.0278
40.122
32.1131
47.9471
89.6492
71.6791
-17.4017
-20.06
5.62498
-2.23788
11.9897
1.40704
-31.7296
-32.806
-34.3881
-103.78
-104.624
-33.666
-8.88766
-49.7735
-78.2703
-33.9572
26.2317
55.5597
23.8059
47.1562
64.6096
26.7854
-12.98
-11.3944
24.2703
41.0181
5.43516
-30.1292
-7.68618
38.1481
18.0016
-4.14859
-25.3902
4.47671
-13.5346
-23.8126
-26.4503
-47.2497
-57.1603
-30.8937
38.553
52.9864
23.0171
47.6906
44.0066
-7.21022
9.54073
19.0007
23.6664
28.7156
-3.28345
10.6124
45.0638
35.9017
28.9023
-5.12852
-15.1024
28.2747
5.30304
-45.8902
-43.8529
-39.7342
-39.1686
-46.4781
-24.7894
-17.6462
-1.75122
11.6148
-31.5131
-73.3507
-21.2901
24.9224
16.0199
-8.68455
-0.599879
10.0947
-17.3405
-33.9364
6.23899
43.3442
31.7137
18.3733
14.4329
22.6329
2.33599
-2.18443
-27.6953
-21.2376
1.41599
14.6869
-2.04495
-31.0883
-7.41626
27.1313
-17.4673
-58.6617
20.6521
78.8014
59.8541
41.7451
10.3276
9.48797
1.21965
1.55291
10.8141
37.5443
42.0214
28.5276
23.1701
32.2247
13.9794
-29.7244
-66.3112
-78.3049
-36.7331
8.70098
-14.0448
-40.7
-36.9733
-41.539
-12.6468
-7.25849
14.8634
8.27411
3.34359
5.53456
27.8008
25.8938
2.08576
7.60723
4.4776
-2.64086
-12.7808
-3.80534
28.7605
4.53011
-87.0386
-110.829
-78.863
-33.0782
-13.2101
29.2303
79.0474
64.8446
35.4436
31.8654
18.5897
2.87129
10.2148
5.4803
15.033
42.3742
37.8743
35.8056
18.8398
-3.09353
-0.0522933
-0.228762
8.81725
17.5654
20.4293
-7.18725
-60.7322
-48.5843
-40.4682
-44.2326
-38.1792
-16.6711
28.6136
82.5614
52.4955
-18.9998
-47.3336
-62.7304
-48.4418
-7.52827
46.9871
79.8197
62.0275
10.3046
-86.1528
-75.0413
-26.6785
-24.8735
-59.6212
-57.1637
3.14011
47.6546
-11.1677
-18.1283
41.182
74.555
88.8594
106.032
117.443
109.39
59.2892
-10.5957
-33.0547
-38.7947
-12.5448
-37.7624
-49.0209
-31.2837
-14.86
-19.9654
-53.7409
-98.4191
-57.8457
-34.4556
-24.5192
-6.80688
18.3157
-31.6605
-59.5989
-76.2265
-55.7674
-42.2873
-45.9788
8.30795
78.3664
133.689
66.2804
33.6655
62.8481
58.2709
21.2986
34.3204
61.5693
53.5984
-12.08
-24.6725
-48.3197
-38.3164
-29.9268
-27.805
-6.90931
56.232
55.716
31.9499
4.501
-38.4534
-11.2418
-6.74261
8.45887
23.1608
-6.9091
-32.2539
-33.8791
-33.2542
4.96988
15.1408
-3.95236
21.5134
16.0595
-17.1557
-22.5899
-29.4389
-19.4445
-30.5444
-26.9815
-14.4528
38.4896
45.3328
21.5096
-6.7096
-0.934575
14.0419
9.58082
-20.6923
-34.252
-37.1779
-44.7527
-51.2615
-21.8771
32.2642
73.1743
59.7259
22.7384
13.8748
-11.7144
-61.3963
-51.6265
-0.788016
5.70349
0.24696
15.0059
29.185
71.276
41.4197
36.216
49.063
69.3853
19.2933
-38.0547
-23.7862
8.76772
-43.4102
-69.2797
-68.1541
-18.4181
12.5162
7.64624
0.394549
-4.7318
-40.7231
-28.542
29.8775
27.8405
4.2397
-14.2943
-0.411638
42.3389
24.5414
-25.3077
-22.1513
-45.7464
-35.4885
22.2747
56.4452
51.0829
13.6068
-75.6375
-95.1442
-41.6884
32.8849
32.5564
-4.74388
-16.0304
21.9346
31.425
18.7191
11.5281
40.2353
49.098
28.2817
37.7286
44.3296
-3.22903
-15.3478
-21.024
-7.28084
27.4647
9.20517
-18.0658
-12.8449
4.69927
-44.2422
-89.1804
-87.9351
-51.2222
-29.4817
-55.4837
-18.0309
68.5404
63.5617
-9.80975
-12.9129
44.2064
32.2478
0.158253
12.2437
7.22495
-9.68978
-9.65904
4.23052
77.8832
81.5867
34.5398
26.5293
7.18203
-12.1102
4.943
12.3237
-16.7909
-33.2406
-58.8094
-43.5428
-22.1534
-16.6609
9.84149
28.1518
10.2165
7.52234
-17.5951
-38.8023
-97.3708
-73.4583
1.25233
34.9488
25.957
32.2351
3.20864
-13.9854
-5.71084
19.1106
74.4933
67.8003
36.7883
37.7302
-3.31324
-31.3946
-23.5794
-31.3912
0.0637019
-28.4129
-46.621
-26.2618
-11.4724
-3.64554
9.73176
2.25876
21.3874
67.4751
51.3379
6.59815
-60.1445
-76.4468
-32.2053
9.85195
33.8819
27.83
29.6765
42.9537
18.5676
19.4263
24.5845
-13.6841
-41.6712
-13.4301
24.3978
34.9444
19.7747
-77.0702
-96.7282
-75.2205
-43.346
-16.7754
-24.5612
-20.9495
9.91047
-9.07684
15.2527
26.1045
26.4124
61.2117
97.5984
118.116
112.735
30.7029
26.4984
14.4282
-24.4397
-23.9942
-12.8929
1.26133
-40.7529
-84.6811
-90.6274
-66.1715
-55.1605
-35.3905
-19.6937
-21.3552
2.50263
33.7371
-15.5224
-44.0376
-22.1977
19.0261
-7.00264
-13.9401
29.2491
60.537
39.1116
17.1878
62.3526
83.5716
46.0277
-1.72974
-11.6735
43.392
52.9504
6.59649
-6.48457
-10.532
-9.16882
-10.8723
-15.3633
-49.1614
-86.9646
-64.8195
-11.0089
-7.98308
-42.1371
2.68357
36.871
56.6437
77.3453
28.1455
1.33586
-35.878
-39.0793
-7.74349
-37.79
-59.9882
-60.3597
-46.4474
-61.7887
-44.4043
-6.62448
31.9677
48.9933
30.7707
74.1836
112.95
40.8639
-15.0699
-2.70879
41.3072
25.7436
16.1512
-0.449045
20.9098
47.1828
18.2892
-4.94905
-2.62143
7.50374
13.8287
-25.455
-66.4176
-56.5045
0.0830761
-6.48795
-59.5833
-40.279
-37.3259
-31.2493
-22.3643
-20.9022
-11.1666
-24.0951
-30.5792
-22.1835
26.1097
66.8306
57.8984
44.6671
61.7578
71.3681
65.0064
-13.3564
-55.4767
-51.6211
-43.1118
15.6379
85.2138
54.0518
37.271
8.70452
-18.7285
-15.8801
-37.9066
-45.499
-36.9848
1.5484
38.7978
7.18401
-43.9012
-38.3012
-35.8332
-24.7109
1.47365
5.02702
-2.64654
-4.20221
-25.9978
-6.59046
-11.4681
2.22401
12.77
7.45854
20.4875
8.0689
-43.3596
-33.8419
-1.12789
31.1867
45.5178
63.8017
74.9125
66.0539
21.8466
2.35301
-18.3269
-1.70802
-18.5081
-43.3656
-29.2933
12.434
36.3129
5.63476
-6.4991
10.7726
21.0511
-26.4685
-75.0518
-82.3575
-39.0385
1.29252
-10.2321
-64.3916
-45.7976
-4.77032
7.94917
-18.4989
-0.507921
53.4176
87.553
40.4524
-0.0665479
28.4325
22.5411
15.1851
46.3718
53.5179
46.9875
-3.77762
-16.3658
-9.22762
-26.9586
-24.0775
-22.2168
-14.5012
-13.0977
-56.7105
-86.2683
-68.7678
-65.2844
-28.2622
31.5729
67.6126
85.9248
51.5042
30.3158
27.2277
41.8866
62.1767
30.5198
-11.9991
-18.2364
-3.12236
8.05405
2.69276
6.94788
40.8381
68.999
45.9548
-2.94213
-40.8407
-74.5976
-72.0189
-60.4728
-38.406
-52.9258
-71.7195
-76.8898
-38.5323
-15.6632
-27.9789
-22.5891
-11.1252
-13.2146
6.29489
15.4289
13.8877
33.1654
17.6736
40.4369
65.8402
56.7161
46.0412
38.788
33.1856
36.9465
48.8424
27.4314
20.0101
24.5761
-18.1348
-21.0204
18.3615
12.1347
0.203401
-9.99906
-61.6897
-50.0109
-26.7496
-28.9158
-23.1952
16.134
22.9607
15.6543
-17.9031
-19.3768
-38.4397
-40.7757
-33.9339
-50.4782
-35.3691
-3.84658
29.3946
24.8156
2.58808
4.36424
39.1938
51.9555
52.9204
51.2679
53.2541
39.099
-8.96367
-18.6325
19.1439
15.6769
2.68544
-6.98816
-13.9052
-4.68596
-11.5034
-33.482
-30.5356
-24.0796
-43.3156
-65.0729
-60.4999
-52.8578
-62.7441
-57.7567
-58.88
-75.5591
7.84898
100.567
122.028
96.3277
23.0764
-16.8843
-15.5925
-7.08821
22.165
33.1092
26.0988
73.5344
94.8919
92.6645
77.3111
15.0852
-46.932
-27.1352
16.5594
15.1604
-2.59213
-58.8165
-70.6695
-80.341
-34.3416
15.8267
4.20622
-16.8897
-7.77974
-19.1024
-38.2895
-44.8759
-16.9851
-10.9917
-2.68924
-0.649053
25.7081
29.6966
15.0676
-10.3097
-15.8287
3.80406
-15.7315
-15.8682
16.6803
34.5635
22.537
-13.6901
13.9221
28.3292
9.95955
8.38595
4.95893
14.3294
16.7949
-3.61461
1.20027
-16.7141
-10.9877
-10.2265
-33.9718
-42.8774
-23.8379
-26.3382
-7.66255
1.20739
15.2881
50.6524
27.4039
2.32385
21.6805
30.872
-1.81319
-14.6026
-33.6214
-17.7649
-5.64487
-5.6827
0.139694
35.636
-2.20426
-60.3086
-55.0563
17.8539
63.3825
57.1441
58.0144
58.1816
16.5509
18.0714
5.55403
-7.49994
9.24676
8.67759
11.1111
11.0849
-36.502
-55.4478
-77.4439
-66.0597
-27.775
7.44029
30.1577
17.5669
-22.7812
-53.5722
-55.1936
-27.8204
-2.16592
-15.0789
-19.1657
12.5289
45.6474
-1.80001
2.24559
-0.39887
15.6261
39.7711
38.1757
30.7244
31.0662
43.6886
32.3218
-7.63261
-20.8016
23.1874
42.6425
16.3842
-17.6278
-16.2227
-1.06059
9.99491
-25.7852
-4.65598
21.1632
15.5783
24.3128
-26.8137
-43.4351
-68.3949
-46.2225
-35.3353
-28.2729
-2.7276
-17.0218
-51.8339
-24.9669
-26.9731
-11.8189
4.24974
17.5801
16.8301
41.8521
90.3891
81.4955
17.9992
14.2602
38.999
47.3297
67.432
49.3906
19.6253
12.1861
-24.253
-14.019
-9.32828
-34.8326
-32.1874
-20.6495
-4.71101
-5.71794
-31.8967
-77.9217
-87.1732
-93.5257
-71.4636
-53.2568
-34.9514
-7.50891
16.3524
-6.06222
2.76382
9.1568
28.3385
33.5664
38.8751
41.3028
75.7348
68.3959
23.4382
7.55183
1.39052
29.85
31.9921
34.9765
66.5706
63.1845
59.7591
10.188
-19.0787
-33.0036
-51.2458
-57.0749
-54.7535
-48.4408
-15.0728
-47.3385
-80.9063
-63.579
-8.81973
6.33319
0.720677
9.46756
39.4672
28.4262
3.65018
-1.74498
-7.69872
6.05647
19.011
32.1368
32.0774
40.1338
58.456
10.1296
-5.38471
18.2243
26.1695
32.6649
25.1596
-5.40285
-16.0226
-57.5826
-95.5362
-71.6774
-6.82086
15.9749
0.207804
-7.6027
-19.3562
-38.5372
-35.8114
-37.9171
-32.9288
8.65444
5.90569
13.8664
27.6319
5.09953
-2.57412
12.4903
22.1468
36.4728
30.7418
46.0946
40.7059
-17.6394
-5.39573
37.5986
43.3402
39.8419
22.6776
-1.95292
-13.7547
-48.8908
-101.902
-103.898
-86.431
-28.5836
11.2149
29.9879
53.0395
73.8847
22.8684
-5.15828
8.46119
50.5359
39.1276
2.30488
-4.2602
26.8759
61.2874
23.3207
7.0224
17.438
23.4912
7.96903
-2.38614
-14.5017
-25.435
-17.7039
-34.7629
-58.1166
-16.0915
-0.901171
-15.2276
-22.1403
-38.255
-44.5231
-54.1061
-90.1274
-90.0735
-46.3864
-7.70581
31.9655
50.9398
62.0328
8.88626
-1.98957
20.1947
11.5393
-1.55911
24.9697
36.1281
37.7879
44.2181
-10.5251
-5.2746
9.48918
30.4394
50.7038
39.4509
36.9703
30.3527
42.3009
33.5867
-11.5698
7.5174
14.1016
-10.3551
-36.0445
-43.6421
-20.5387
7.7115
-52.3371
-62.5803
-35.3111
-43.3017
-38.8297
-26.8302
9.25445
-16.8334
-43.2931
-36.0664
-33.401
-9.87568
14.8466
39.6411
60.2758
37.2875
33.8293
30.328
10.5031
-5.10525
24.7733
40.4267
74.6609
67.8548
18.8409
-13.8047
-7.37435
32.7579
45.0462
21.9836
1.77976
4.12628
-51.5281
-124.897
-146.589
-132.185
-113.964
-69.6649
-21.5088
-13.4453
8.55093
50.0141
51.8477
45.7328
57.3688
47.9454
23.2047
15.8675
28.7064
56.453
59.3142
32.7228
65.4479
88.4841
57.904
46.8007
42.2624
34.4593
10.5581
-67.7909
-97.1683
-141.292
-136.772
-76.2809
-30.7317
8.76771
19.652
-30.1375
-40.1755
-43.9435
-56.7226
-52.07
-21.6494
45.5718
77.35
41.431
44.1157
36.1724
-12.8188
3.91693
24.2272
51.2123
40.5773
10.1651
-1.363
11.8506
42.2256
55.6153
32.6758
19.2963
31.6323
36.2514
-4.99253
-31.0292
-42.7511
-28.4961
-47.5248
-88.0346
-60.4715
-9.27531
-22.225
-38.508
-22.988
-8.25506
-2.18977
-0.553933
25.0391
41.9762
-7.77212
-28.4621
-21.6677
-3.278
7.90947
8.72585
17.2947
39.3995
43.5639
19.7094
24.2788
37.501
34.9289
11.0817
-0.256787
-7.49584
-19.6987
-59.6093
-47.241
-20.0474
0.79115
9.57587
22.7881
52.6306
61.8405
-1.74119
0.372775
-7.82897
-20.7397
0.867987
8.93743
8.1693
2.25433
-8.42765
-30.5757
-15.5106
-13.2651
4.85349
-37.8545
-56.8534
-29.0145
-1.68357
-11.4512
-29.6392
0.257968
57.0786
42.1368
33.105
34.0393
37.1851
-21.5531
-52.3308
-11.5347
32.7991
45.3937
14.4502
15.8928
8.42761
-36.4459
-38.6682
-17.7891
-15.3707
-7.32799
-13.1279
-18.684
-48.8453
-38.3588
-6.8081
-9.60529
-12.066
40.7265
62.2518
63.6044
34.6393
26.2199
5.67286
-2.94835
-11.2482
-38.3229
-46.4986
8.58952
24.7275
31.6726
1.6066
21.4053
39.4866
5.13698
-33.4719
-42.0484
-40.38
-26.777
2.2992
4.74757
-0.908366
25.9637
33.4187
-11.148
-43.3645
-17.6235
40.335
57.8114
26.3473
-21.2578
-20.1461
-40.3886
-37.3371
-18.6532
13.5124
47.6342
53.5887
20.3796
-7.61813
-40.9527
-56.6466
-42.8166
-0.0405956
48.7207
62.9121
40.4332
14.1908
-10.6088
-9.99506
-4.7142
-4.01829
8.25012
13.4498
-10.2194
-5.88943
-10.1348
-18.977
-5.7341
22.186
32.5738
18.8718
-16.7621
-82.6273
-105.061
-95.4768
-56.9984
-19.9133
-13.5416
-15.4999
-1.35068
1.61844
4.49463
16.2779
39.8482
47.6119
72.7064
106.474
121.056
61.4039
8.62467
-19.2247
-46.5679
11.7149
44.8162
58.6121
69.5151
11.8053
-23.7293
-28.3655
-21.8776
-6.75867
-13.0784
5.83536
67.046
22.038
-71.6436
-99.204
-143.999
-162.069
-144.372
-132.898
-71.9799
0.88676
32.4956
45.281
54.4423
71.0473
74.8982
71.2412
41.1909
30.3671
65.533
83.7484
18.7079
10.7541
22.447
20.1612
49.3082
64.4202
68.5953
87.3533
74.5337
-19.7492
-48.9874
-54.1705
-71.3931
-82.1319
-75.9711
-56.0328
-22.9491
-23.9144
-79.994
-90.2466
-75.1101
-49.8728
-5.93453
20.9251
31.4201
-6.47905
11.6803
23.619
-0.404141
22.6519
62.4699
102.347
69.5933
-14.0675
-29.9122
-23.8393
-18.0398
-2.00899
5.99323
13.8387
25.8913
-0.196552
-19.8133
-30.4323
-21.0507
5.34746
-4.28642
12.5687
38.5919
7.59296
-37.3966
-40.3547
-0.0684391
57.5392
61.4039
28.7662
32.4082
61.3033
69.5185
-8.21652
-39.5602
-19.8792
-12.3093
-18.1835
-43.1896
-13.7969
36.926
30.5189
-12.2288
-27.5016
-38.0747
-42.985
-29.6493
-17.0483
-20.3054
10.3051
-14.4546
-47.453
-46.7097
-14.1426
1.01128
7.76452
25.6512
45.5985
17.1949
-4.1545
-25.9034
-20.9793
-2.45484
14.249
39.2422
63.0049
62.7347
18.2183
-27.8116
-24.4064
-25.6651
-48.5108
-52.8535
-13.9324
21.3084
38.7
11.8386
3.68095
31.3452
48.2271
35.2493
27.3823
44.3572
46.16
-1.08494
-34.8473
-45.8985
-27.7977
-23.9318
-43.5263
-10.2752
6.32201
-12.1473
-23.3369
-41.8449
-41.6666
-16.4458
-13.5004
15.4037
26.2411
0.54825
-6.16384
-7.86253
5.43722
23.0033
7.8977
2.18383
33.3082
16.576
17.0825
24.0134
42.7447
57.9781
51.4346
38.4571
32.1886
-5.53152
-76.5945
-89.7859
-76.0319
-45.4584
-31.3806
-19.1149
-3.74914
33.1743
15.7757
-31.8839
-30.2728
9.22895
6.15291
-25.8756
-37.3248
-33.1316
0.362734
21.1721
2.79951
28.9715
62.616
59.5128
48.8507
51.4095
71.1498
28.6383
-2.34111
-17.2249
-7.35016
5.28696
-9.73993
-4.71548
9.1946
1.84377
-16.8724
-18.2757
-36.5765
-46.8007
-40.8891
-30.8435
-5.39453
-17.7769
-31.5572
-28.7907
-35.3021
-8.05453
0.919269
-9.28437
7.73413
40.198
4.76159
-16.4618
-10.3319
10.5363
26.0328
27.873
24.4365
36.3361
55.8029
22.3308
34.6993
47.1082
47.7021
44.8044
32.7443
29.6114
14.2417
-29.0168
-60.318
-79.7299
-56.037
-36.6309
-42.3099
-30.5857
-24.9416
-55.3357
-51.0226
-43.8122
-34.691
-3.26905
-2.90371
17.722
29.3023
-10.859
-19.0469
-16.5518
-13.3342
-3.84303
8.62439
53.4054
114.138
96.7791
64.5299
58.9883
49.8505
56.3716
39.6941
19.5868
4.67006
20.039
17.5043
-38.7662
-69.2048
-45.8764
-54.9404
-67.548
-77.1849
-69.7895
-49.3377
-56.1497
-83.4152
-39.3577
2.53126
15.175
24.7368
37.322
41.184
54.2999
19.3792
-0.482791
-4.88007
12.8557
22.1572
20.2629
32.1594
57.17
72.5625
56.3059
43.1609
29.2152
25.0553
20.7975
15.5934
13.0415
-9.91983
-21.4732
-28.8087
-45.0704
-48.1009
-57.3951
-53.6051
-38.5531
-59.9532
-47.5
-38.2048
-42.679
-33.5914
-7.52793
2.24083
13.6958
17.3923
19.7409
-3.48754
-19.2813
-5.9985
1.498
0.71222
1.94338
36.389
62.0353
19.4187
15.5939
41.0488
56.3573
51.2669
34.1282
37.486
29.428
1.71749
-11.3181
-17.0298
-24.8056
-21.9247
-25.0866
2.33638
31.9731
-17.4658
-36.3759
-43.3202
-44.8096
-25.0884
-18.4004
-10.0346
-6.68122
15.2455
-12.3218
-12.1948
6.50851
19.2528
25.4763
42.2901
55.7741
61.6275
-7.88443
-36.6666
-54.2193
-27.6917
-3.48652
5.41723
5.15117
40.3576
15.8082
-14.4907
-49.8754
-48.4766
-9.22283
-6.72743
1.41752
6.30327
5.42997
29.3245
-9.54028
-36.2077
2.75411
14.4113
11.1551
20.969
18.3162
38.4021
9.204
-10.2413
-1.49547
-0.654446
1.38584
-12.2531
-4.37242
12.4602
-22.2324
-15.4135
-13.0894
-31.7375
-11.4728
6.6137
31.0618
19.6188
-0.444353
11.7615
15.2091
3.50628
13.4306
8.43901
19.0373
6.51458
2.96389
2.27682
8.36567
5.39842
25.0407
18.2238
7.04124
-8.12773
-26.6556
-50.1986
-67.0862
-44.5065
-19.5768
-8.36139
-8.52259
-7.98008
24.1104
-0.0588875
-46.2305
-29.4289
-4.09128
-2.29551
-1.47756
-7.76947
6.26188
17.4946
20.4107
-4.48311
-7.81383
1.15084
12.1272
17.2351
31.9515
42.1724
45.2169
2.17469
-12.4923
10.7508
30.7729
21.8536
12.0123
42.8714
64.2106
29.9405
4.54787
-5.31419
3.86915
18.4581
24.8169
44.5086
32.1034
-24.2079
-50.7144
-71.8125
-78.5882
-56.1304
-39.7606
-10.2818
32.6013
11.1799
-43.6919
-56.6697
-54.3753
-26.1123
-8.22759
-0.726306
4.3376
22.1601
8.04457
-6.05897
-5.29298
7.04734
-0.623264
-2.30208
-14.4954
-6.61885
-6.15167
-8.0653
-35.7608
-16.4446
22.5936
23.2691
44.8031
67.9815
14.4159
-6.12259
-20.4071
-34.2931
-14.0403
-14.573
18.6349
72.1382
63.4313
67.2301
72.8396
74.5626
41.0482
5.30332
33.769
74.9493
-3.71472
-100.275
-110.647
-114.486
-112.917
-108.603
-112.432
-115.522
-63.766
8.91479
55.1973
54.6634
16.2634
0.0678464
3.9894
20.4361
74.4246
122.638
88.0188
59.3884
80.174
100.041
40.4442
8.79935
42.4282
39.3344
4.93437
-24.7265
-64.0631
-48.2833
-60.2514
-50.4311
-1.9718
-6.85498
10.9329
13.0971
-28.9667
-91.1573
-103.388
-79.9521
-31.1361
45.6582
112.218
77.0789
75.3475
108.31
109.824
67.9643
37.3915
-56.1664
-76.2498
-106.21
-168.784
-103.468
-108.995
-168.616
-163.533
-132.125
-94.419
-92.9247
-23.8393
-16.2424
-65.6838
-42.7318
13.2792
89.9527
168.108
274.16
306.248
270.189
156.36
44.8713
-16.786
-95.9603
-21.1137
62.702
57.6549
76.429
93.5878
142.68
118.682
29.8643
-57.9983
-70.2873
-103.986
-131.412
-94.2698
-9.51462
-16.9634
9.19244
26.3238
-36.7723
-29.3233
-10.5253
-11.6792
-21.3368
-63.8878
-103.333
-76.3722
-35.8272
-57.9979
-164.989
-170.981
-209.84
-183.742
-109.285
-94.1015
-109.824
-48.8967
64.4129
120.779
141.94
193.33
161.87
122.953
128.295
131.877
171.605
173.714
129.714
126.079
171.23
307.98
380.655
326.396
117.341
-116.602
-332.82
-381.455
-495.101
-442.241
-218.21
-69.8514
121.255
106.55
-68.0016
-106.461
-187.277
-200.59
-119.752
-97.5571
-33.8124
-63.1879
-133.665
-179.593
-67.7688
213.534
408.531
358.842
306.051
271.876
165.25
120.178
1.9199
-94.9609
-136.624
-79.1796
49.2797
-17.0184
-128.757
-157.398
-13.3762
134.596
282.039
276.169
175.03
27.2567
-93.9653
-63.111
-38.2428
-94.1958
-168.271
-270.748
-206.615
-101.812
9.51127
12.768
-2.36686
74.0481
170.834
137.275
-11.5998
-91.6406
-215.678
-125.289
70.4681
94.8931
56.7576
-113.326
-180.855
-182.451
-149.815
-88.4289
-140.435
-81.0426
65.4516
61.5782
15.8581
-18.4638
-61.8478
-4.55248
130.702
138.309
116.221
87.5907
25.9998
72.2746
184.79
306.145
358.883
297.613
257.123
243.536
137.57
-85.4423
-162.637
-72.0596
73.6627
73.2557
1.86339
-106.658
-216.725
-282.365
-247.391
-157.639
-215.794
-313.422
-389.544
-295.569
-115.292
34.0278
104.508
46.6723
-27.5394
-2.78482
-11.9147
-3.21766
25.5454
218.776
337.391
296.84
118.02
6.92076
173.091
98.0969
-84.6715
-102.661
-50.7163
-78.3976
-71.8724
-97.8847
-174.045
-176.81
-48.0562
-23.6025
0.610826
110.007
149.5
114.555
100.114
168.935
260.567
304.683
174.539
-27.6413
-55.4834
-160.536
-160.928
-80.0574
-104.078
-96.2368
-45.8654
-20.7392
-78.4229
-117.653
-33.468
38.0562
-21.1772
-1.12212
130.033
120.928
-4.07282
-35.9949
15.0121
45.117
29.5078
31.3724
-159.671
-220.224
-116.493
-103.162
-48.6864
80.903
95.9539
62.5524
-20.9481
-116.694
-63.2522
3.61761
-57.5953
-81.1095
74.7259
144.766
58.5167
108.457
136.658
199.8
196.508
66.6896
29.0323
-43.2916
-7.54609
-112.032
-232.37
-132.727
93.3733
80.8825
45.8849
128.183
117.28
-7.5951
-210.421
-331.624
-222.513
-150.323
-71.58
-53.7807
67.5376
142.982
125.127
148.328
114.744
116.444
103.863
51.4771
-70.2985
-94.6127
-81.9846
-58.7837
10.4667
127.948
214.339
243.291
74.8874
-90.3289
-146.279
-130.777
-48.2982
-78.0493
-96.9174
18.1724
-42.1376
-126.982
-103.435
-54.8434
-57.3878
57.7505
82.033
24.9746
32.3326
-42.0993
-85.0312
-56.9273
-40.6055
-13.8448
-3.50511
24.9111
16.293
32.655
51.5379
64.9994
118.541
163.527
138.298
154.88
143.794
45.8552
-74.1695
-131.619
-154.373
-132.741
-51.769
-4.61025
-59.646
-62.8661
9.1365
0.957052
46.0329
79.2904
9.71709
-74.2158
-82.6232
-10.948
22.3323
89.0148
106.906
28.2726
11.6585
5.38421
-20.6722
-13.2894
-13.4682
-69.2246
-6.16154
91.1994
74.6543
-59.8151
-134.944
-19.5234
52.351
55.9352
88.3713
34.3081
-105.331
-182.987
-109.369
-117.476
-56.8127
38.2624
59.5172
27.5272
-7.74361
84.5506
172.926
217.441
69.7995
37.892
-97.3995
-284.126
-317.16
-190.847
-18.4998
9.23203
54.2906
81.8474
42.6528
136.913
126.325
168.98
120.701
54.7829
141.553
173.849
127.009
38.8841
28.5137
64.1645
12.1126
-70.356
-168.605
-174.749
-156.497
-54.4639
19.5436
29.8162
-84.2548
-205.656
-184.779
-149.798
-45.142
38.5764
-22.7532
-211.434
-313.394
-156.368
-61.8447
-38.1784
105.998
235.481
274.749
240.004
192.568
147.402
219.016
162.194
43.3251
-9.40451
85.5282
91.5076
55.6514
-31.8374
-140.047
-83.7937
6.9966
-50.1006
-113.702
-127.877
-29.8001
28.4225
91.1952
43.6356
-12.8395
-105.98
-158.116
-129.439
30.633
125.836
101.444
11.179
-67.5883
-37.7367
36.6859
8.42835
0.805264
24.4802
50.0873
74.8538
-7.69128
-78.1776
-81.7893
-55.5691
-27.8778
25.355
30.7917
24.1858
25.2452
3.33342
-8.90973
-17.1964
-89.9595
-112.997
-72.7598
-0.424017
56.9903
44.9918
19.915
-36.8302
34.5754
36.4245
24.2654
-27.5893
-65.5637
-26.7951
48.6962
-13.0997
-70.7418
-15.9703
-26.6134
-23.4054
21.0552
-50.9414
32.4268
173.925
214.159
66.0797
-44.2673
56.5505
144.159
155.738
92.4628
-11.1354
-42.2102
-40.9664
-106.387
-36.0138
52.5985
-3.92258
-82.7243
-125.237
-183.309
-114.475
-39.6886
23.2376
65.9587
69.9617
110.167
8.5681
-177.875
-162.762
-127.289
-76.8845
-23.7957
-0.397255
22.4324
45.9826
45.5695
25.038
54.4691
-11.3965
17.1984
167.309
149.31
104.253
36.664
-39.5326
20.7219
80.4351
37.319
3.11045
-41.946
41.0017
37.7453
-1.16702
-28.0953
-86.1143
-113.297
-23.5982
-46.0964
-83.6099
-11.4012
11.855
-42.2893
-165.356
-134.921
-15.1873
-25.2076
41.8772
185.319
157.017
179.823
149.687
9.83093
-63.0447
-74.9129
-92.2428
-125.289
-127.32
-26.6787
110.958
160.04
153.11
77.8192
49.1436
60.8775
44.9845
-33.8192
-191.118
-209.831
-130.236
-127.099
-91.5317
-26.7638
-19.6917
-6.21436
56.6531
106.557
156.211
70.8298
6.52837
50.8822
55.8084
49.1834
-1.89901
-111.216
-97.2809
-54.4172
5.47555
3.56991
34.9405
65.0295
70.6374
36.1595
24.1733
23.5769
-39.8455
-71.4572
-52.423
-43.714
-43.6882
-58.8289
-36.8461
3.15682
48.6352
113.349
70.8503
37.4491
76.3565
38.6647
-30.0851
-2.40208
7.66738
23.9626
-14.8851
-82.2639
-100.952
-43.6498
-20.6479
-33.9929
-87.4979
-24.83
128.635
117.227
-9.85884
23.4723
56.813
96.4928
-19.6793
-86.941
-115.12
-157.828
-87.0259
16.5063
29.1921
52.3082
111.601
116.121
85.4005
90.3491
91.7602
36.7603
-160.515
-223.423
-106.28
-63.5033
-82.9561
-54.4778
25.1228
90.4401
116.231
84.6727
30.178
11.7907
53.5961
58.9155
36.6179
-7.11741
-42.8065
-59.1906
-75.9488
-27.6534
-14.7738
-20.4347
5.36738
-23.7781
-35.1828
19.3391
42.3948
25.6162
41.1486
81.777
32.2152
-33.7542
-39.3266
-21.1921
10.903
-2.07883
9.6019
52.351
68.5227
44.108
65.5367
86.0351
-26.0494
-195.631
-185.67
-144.314
-41.0505
-1.4415
23.5906
28.2748
19.8064
39.77
16.7671
-34.2596
-17.9318
-39.9722
-40.8308
-43.3699
-47.9607
-56.277
-33.1865
-1.51204
92.9351
184.344
210.322
204.963
165.127
112.333
18.82
-73.4755
-60.0797
-27.5672
-12.1894
-26.5028
-133.15
-147.559
-120.613
-120.773
-80.8436
-40.4947
96.7514
209.945
129.339
40.3924
-40.7519
-112.977
-111.831
-92.8487
-92.5899
-19.9128
-7.78265
-30.7911
26.6951
98.1742
142.764
143.498
66.4895
51.3401
72.0795
-19.9901
-186.208
-256.812
-174.752
-21.6362
108.237
123.124
59.6517
66.775
63.6385
11.7433
-35.1551
-72.2055
-50.7793
-58.2214
-35.6966
38.3975
185.158
260.158
178.414
43.166
-117.302
-204.538
-125.861
-84.426
-73.0355
-21.3874
54.8006
72.7044
39.4613
35.1133
23.8109
15.6556
-41.5209
-89.9175
-63.4414
-47.8641
-107.834
-134.169
-67.4577
38.9654
134.792
123.556
110.238
82.4829
26.6268
-16.0796
-11.3279
32.1078
54.9736
-15.3478
-148.901
-117.42
-48.8844
11.0775
54.1917
119.711
160.765
51.8263
-73.0538
-78.5465
-161.115
-135.023
-53.3764
-16.8565
-29.5027
43.8744
62.0036
1.90912
26.7234
92.5618
184.158
137.935
89.0301
80.5699
51.3926
-49.1306
-186.521
-139.294
-33.1434
20.8451
132.736
154.112
58.5759
21.0957
49.4643
-42.4278
-122.039
-125.705
-105.532
-74.9725
-85.4468
-98.2662
-51.4627
-77.6183
-86.2949
-31.3277
14.8352
29.4593
74.3572
57.8137
28.0413
47.5693
2.94822
-60.2295
-65.0187
-33.1841
1.09824
-17.1584
-0.29623
53.8256
49.1643
54.4544
69.0553
158.694
136.354
21.0185
22.2373
68.89
3.44339
-46.1364
-41.7712
-32.5458
3.97934
47.2565
47.7191
24.0125
44.9158
67.5015
9.0092
-16.866
-11.3775
-45.9372
-114.653
-91.7035
-83.6883
-85.5675
-107.972
-114.815
-29.0846
13.6242
0.516893
-16.1465
31.4311
-1.30501
-27.3355
18.4091
-11.7145
-17.5383
21.2581
36.7225
116.326
190.314
184.986
42.3847
-15.7603
-48.296
-108.799
-83.7529
-41.0739
-19.246
-18.241
-12.233
-66.7913
-59.6865
-30.169
-1.10696
38.1915
4.93197
-26.2835
35.1347
84.805
42.9452
-27.274
-1.46911
54.8755
90.851
130.637
117.071
30.2152
-65.267
-31.171
1.4127
64.989
71.7907
12.5925
-29.2433
30.3765
65.8686
-17.3961
-169.755
-319.817
-374.767
-304.313
-183.111
-88.5662
31.6292
150.16
141.062
140.748
204.304
210.327
155.736
76.9428
24.7689
13.7911
-41.8487
-132.358
-96.45
-5.5544
92.647
206.728
192.678
151.247
92.7175
-12.1191
-81.85
-103.095
-89.3973
-101.012
-49.827
-46.3749
-90.2126
-114.81
-93.1586
-53.576
-57.9378
-73.5738
-41.1269
-8.40507
53.6988
77.3226
123.949
106.954
62.5404
23.3922
23.4589
-55.0592
-86.6605
2.16782
22.7267
-13.4303
-74.3088
-46.7618
-26.0965
-50.1661
-4.02356
31.4492
54.199
51.2226
-39.9822
-47.4204
25.5623
53.5431
30.7104
16.1541
65.9201
85.5078
3.9348
-42.7374
-7.37923
6.15586
35.2641
63.6149
104.595
16.6128
12.9167
61.2155
50.6073
48.9474
37.9825
-16.6391
-60.3296
-118.268
-124.198
-100.03
-81.1626
-28.9116
62.0048
92.3473
-33.8341
-105.081
-78.9643
-82.9041
-109.968
-62.4017
-44.2058
-46.1507
-61.5698
-83.362
-41.7016
10.106
60.8254
149.945
197.72
234.795
160.246
53.1867
-21.0557
-89.8435
-83.8445
20.383
82.8608
45.1599
-0.137842
-6.88667
24.6721
36.1888
3.85044
3.77606
-43.5212
-55.3773
-15.6147
3.80021
-39.0044
-60.6979
-6.94813
76.493
113.33
66.8033
30.6607
-29.3703
-81.8819
-87.2218
-1.51036
63.3643
10.8515
-84.8974
-121.196
-73.095
-12.0968
-34.4103
-42.7367
-59.5855
-41.2942
-43.5518
-58.0081
-65.1137
-63.6379
34.8478
112.538
114.514
115.024
81.1096
19.352
-11.4037
-39.7974
-43.9991
-39.511
-20.8941
25.0494
56.8542
54.8793
91.4047
103.234
84.7956
27.8681
-17.9281
16.8076
5.59683
-8.73291
-1.44202
11.494
5.09569
9.69684
36.5803
1.84829
-24.5908
8.38075
52.4083
30.9705
-17.7081
-75.8529
-109.319
-118.65
-161.897
-185.349
-101.991
-37.5179
6.71899
85.4312
152.221
98.0233
-5.4346
-46.0735
12.7957
6.03154
13.1449
24.1103
11.5126
-36.4066
-56.288
16.9298
32.3893
33.543
91.8084
108.608
72.9768
-16.3643
-128.397
-179.692
-172.729
-100.57
40.0169
144.534
90.1478
99.3082
88.2789
36.0878
60.6918
100.862
135.675
56.5374
-5.19342
-14.1087
-41.3134
-96.0292
-187.054
-196.35
-69.9358
17.0076
27.2015
-11.2367
11.9353
13.4199
81.0966
76.1161
27.3427
28.1258
-8.62141
-72.9153
-66.8739
-44.0499
-24.9927
-50.1966
-70.1341
-8.72486
86.0103
102.495
43.8638
9.61726
12.4822
37.3224
13.6995
-19.6077
-61.1875
-56.9915
5.64916
49.3614
41.4224
-1.54077
-14.49
26.9326
28.2538
20.4902
33.8876
36.5172
-41.1883
-66.0026
29.6731
-4.80179
-58.4639
-47.6104
-9.61978
9.841
28.7162
-25.2137
-103.564
-85.4052
-12.3252
82.2994
105.553
38.2309
1.10334
-9.47412
-31.7961
18.1029
23.8558
34.768
24.4795
31.5225
14.2785
10.3539
7.24032
-58.0871
-49.287
59.2607
102.764
46.2438
-46.8469
-57.7528
-94.4818
-138.006
-103.815
-4.43981
61.1822
58.9812
104.386
122.288
29.139
6.37284
-32.7042
-40.82
-38.9772
-39.3344
-57.9764
-83.0483
-56.2279
-20.4942
11.0302
30.4444
20.8551
42.2806
50.1009
58.6311
56.8546
-12.5128
-35.8856
26.9853
6.78598
-33.2242
8.58847
41.7601
77.3161
78.8706
61.8325
19.7828
29.4928
-84.0689
-208.333
-206.202
-75.1255
42.7809
63.4135
54.273
2.66982
-11.0642
21.0078
-20.5786
-29.1854
-21.5076
-3.212
29.2732
-23.2019
-16.0083
-14.9968
4.93184
15.8828
66.6694
132.143
143.446
103.698
7.86232
-21.5314
-76.6196
-42.0221
29.087
-9.29241
-34.9394
5.17164
8.83746
-26.8681
-12.1597
13.948
-0.751371
-54.8458
-45.7065
-37.1837
-63.6253
-67.0938
-76.5001
-112.215
-70.7241
-13.9594
21.9807
40.2147
47.8662
72.2973
52.0972
35.8446
32.0733
74.2369
41.7853
18.5522
26.4744
74.8255
51.7336
15.5198
25.6928
53.5379
50.8155
45.2707
0.894124
-38.2009
-23.8985
-43.5321
-37.8602
-31.9101
-23.6261
-43.6624
-97.3845
-111.49
-5.26068
-10.0437
-90.7782
-105.999
-56.0818
-61.6303
-53.2566
-12.6043
22.8682
65.8051
85.432
78.8663
23.8372
20.8063
11.7833
58.9691
89.6381
82.2437
91.7753
79.3772
-7.93132
21.1439
26.0112
6.75949
56.5029
70.0325
56.1543
-2.75356
-91.4386
-149.784
-166.084
-95.8302
-41.8651
-16.5247
-27.1995
-41.328
-9.95013
33.5665
66.6933
16.0524
-23.5906
10.4739
46.5084
6.1357
0.646006
-0.859395
-29.7956
-30.0184
-45.1019
8.00451
64.781
18.7373
-3.19504
-8.44637
-10.3205
-17.8657
-17.0903
11.4025
32.0241
35.275
-5.32154
-36.5554
-67.3908
-32.551
-24.3744
66.2137
187.516
134.833
67.2425
20.2692
-51.9364
-67.5492
-36.7377
-10.245
-27.4905
-70.167
-78.4006
-47.0502
-20.304
-13.6078
-49.0609
-57.6025
69.5866
133.358
71.5067
-26.55
-93.3003
-72.1595
-18.4778
8.02428
13.9885
76.0736
60.8894
47.0081
104.677
126.269
61.7663
-4.40474
-45.6116
-76.3741
-59.4174
-37.5239
-1.2921
-3.59149
-80.406
-87.9276
-13.8689
47.9064
66.1878
48.077
49.6825
-23.4898
-17.6766
-63.2232
-86.577
-70.1394
-47.2385
-40.6177
-39.108
0.152545
68.7207
85.9181
1.12732
-34.3174
-3.29143
22.8067
26.735
-13.0389
-18.8096
-8.67603
26.2586
83.5206
96.716
71.6114
10.5553
5.98574
62.0161
53.0251
-4.16159
-41.7955
-103.008
-114.927
-74.4472
-83.4622
-65.372
-6.90927
-14.8559
24.3253
58.0608
69.3531
53.8983
-3.24545
-18.3538
33.2028
51.3703
-6.47251
-53.2526
-16.6265
48.0658
79.6304
67.6992
13.9003
18.6687
32.4828
46.9598
0.031405
-49.8861
-60.8514
-46.4695
-36.264
1.71938
17.3295
1.31684
-19.335
-80.8597
-48.4054
-37.4925
-55.1719
-33.9728
18.6302
16.9153
24.7746
-5.6927
60.3076
73.2754
7.90748
-58.2092
-100.563
-73.7638
-64.7542
-101.742
-78.6431
-56.0688
-10.8224
104.207
111.005
92.0339
72.9214
47.184
37.2116
65.1196
68.7106
69.2496
12.5016
23.9135
90.3437
101.048
117.059
70.7565
20.9435
39.1685
11.0757
-35.9544
-11.131
-48.8989
-68.8274
-68.0946
-103.223
-137.422
-130.409
-120.792
-88.7442
-64.3008
-45.9024
11.8223
30.867
37.4844
-3.16057
-44.8313
-4.10634
-40.6962
-81.0685
-81.3679
-43.4455
5.92865
-7.65351
14.0079
49.8329
118.037
134.253
87.0405
19.647
15.7003
33.0227
35.5006
32.6341
73.5145
65.2812
43.0955
31.3941
36.8672
32.6135
19.3002
-23.9956
-43.6733
6.03981
37.3829
12.4112
-11.2252
-28.5017
-10.2245
-4.63972
-8.83529
-16.954
-30.4898
-92.3972
-119.134
-79.0736
-29.9288
-31.4567
-14.9233
9.49325
40.0326
3.07317
-17.7067
-26.2023
-42.8352
-4.6418
9.01848
28.3619
64.8154
26.6653
-20.5338
-14.2329
-41.0713
-15.2223
42.6538
89.3609
91.5389
60.7461
25.7432
2.93554
-65.0774
-120.857
-89.7173
-45.9705
-83.4375
-54.2586
21.3329
56.1457
66.2322
72.7113
69.3797
38.8469
40.0194
39.8873
31.2204
18.7696
12.5481
12.3346
27.3788
39.881
53.5267
73.8116
43.381
-17.0307
-23.5178
-50.068
-65.2812
-66.7734
-74.1801
-37.2707
-28.5022
-75.6001
-109.823
-80.9961
-70.8675
-34.7845
20.8016
17.2982
61.1952
126.154
129.891
120.144
47.1427
32.4494
55.452
-28.2869
-157.321
-197.82
-208.674
-210.351
-118.997
5.32039
70.6012
90.6185
56.8253
76.5292
104.967
29.9131
-24.4322
-8.08534
30.9122
9.04889
57.54
107.896
120.472
177.173
184.733
119.913
71.8137
80.2303
39.0102
-2.39456
-59.6991
-61.1091
-30.8961
-80.4756
-119.405
-45.3644
1.29012
-60.8968
-82.8822
-72.2293
-173.162
-272.149
-235.674
-122.319
-26.542
-23.8756
15.1278
103.856
100.447
79.492
91.0697
61.8713
80.5135
72.2039
31.3222
27.4877
-30.7389
-77.0822
-69.3981
-42.6456
35.6238
97.4278
103.73
79.2882
50.0261
62.259
90.186
54.1594
14.8051
-26.9949
-34.2606
-15.5081
-22.2652
-54.5102
-54.8421
-58.8478
-33.6201
-2.53598
13.3311
10.5796
37.9134
73.3787
61.5369
-38.7946
-73.9849
-43.5038
10.2575
18.004
0.104789
-19.9505
-58.8551
-67.4342
-71.8868
-74.3306
-78.6798
-4.10913
38.4823
9.59346
36.201
54.6548
19.6664
11.6401
-15.4666
31.5212
89.5844
87.8161
43.1603
-37.3931
-44.2645
-17.6368
-19.2265
-31.9978
-16.0375
39.4079
52.037
-68.6858
-96.1387
-19.7527
6.9221
32.3038
50.9568
63.5932
105.198
102.175
14.8593
-43.306
-34.8989
-3.75351
-11.7467
-42.8436
-34.8613
-35.4228
-30.7856
-43.1536
-29.8029
6.61093
7.89823
-2.89209
-27.509
41.6729
80.4664
10.2329
-66.2087
-52.4536
-16.6105
32.6534
47.5131
16.9443
-26.553
-5.49796
19.7147
27.9887
-4.32947
-24.0559
-0.49995
69.9555
99.6474
58.6275
2.72734
-51.5366
-56.9208
-71.4996
-100.551
-99.0532
-37.2974
2.28982
-3.86755
17.1741
5.18546
-57.3284
-32.2188
44.3389
71.7489
52.0094
33.6372
33.4638
21.5371
54.6253
65.3679
-14.2546
-7.73832
85.0954
86.7439
29.1974
3.2186
-54.1575
-91.8022
-64.3506
-8.75346
16.3463
-10.037
-19.241
-18.7882
-33.0594
-17.6541
-53.5295
-85.7425
-65.4048
-41.7595
5.08181
29.4033
-35.526
-8.42921
27.0389
24.1605
39.9604
40.0813
32.8168
52.7527
1.05596
26.589
115.61
118.714
108.261
45.1695
10.0396
9.31234
-23.4599
-50.2478
-74.44
-92.5155
-32.1591
-36.7086
-128.852
-190.844
-117.058
-62.5403
-40.7198
76.0329
169.859
100.922
-16.3853
-10.5183
43.7037
75.8116
94.6702
73.3638
57.844
8.24495
-44.7552
-93.948
-53.562
8.38665
41.4919
75.7564
27.1405
-29.0107
-60.3724
-94.8608
-55.887
-35.3027
-35.2884
-48.6167
-70.3025
-58.7439
-26.7589
25.383
52.5582
74.2175
122.213
147.898
99.62
-9.55337
32.0747
98.4597
34.1813
21.9815
52.1657
-11.9767
-66.4689
-62.6482
-104.823
-144.88
-94.2274
-80.3192
-52.7227
18.6342
37.8214
-24.0452
-14.0836
10.6313
7.70726
35.5601
3.59926
-40.7978
30.535
18.38
-15.9992
-31.754
-2.73186
88.6643
112.334
87.7184
48.1031
15.247
-38.978
-111.089
-120.301
-17.51
23.7791
10.7713
36.6704
37.6157
-2.86646
-36.4868
-24.7231
44.4939
45.2411
76.7017
75.3656
-16.1278
-30.4173
-11.0098
-35.6667
-36.4583
14.0226
64.2594
57.508
0.433266
-45.8459
-45.0234
-53.4217
-7.49362
41.4961
-17.0621
-56.1115
-62.9582
-66.1917
-68.6856
-52.7513
-17.6651
53.5255
85.9969
59.0272
77.8253
76.3237
25.6693
-52.3022
-90.9022
-109.077
-100.127
-50.7175
29.5995
116.351
145.578
42.1535
-30.7254
70.9353
108.748
75.4009
36.0379
-17.5302
-42.9196
-102.422
-132.817
-105.791
-63.4113
-20.2623
44.5794
94.172
83.236
8.36447
-36.6758
-44.0241
9.63395
53.9155
70.7399
25.9814
-13.153
-37.054
-83.3279
-113.975
-65.2189
41.2534
55.9282
2.46745
13.975
56.5132
49.6653
26.2891
12.7392
26.8453
-1.37253
-17.6745
4.44766
18.8214
-25.3189
-58.1397
-32.7674
29.9766
62.7539
24.7982
-25.4685
-64.2808
-85.1783
-82.3352
-89.2514
-55.6913
4.11075
63.0403
109.133
119.315
77.9098
32.71
-76.0913
-111.2
-36.9723
0.433828
-8.55069
-20.7561
-22.6301
6.46152
29.0996
36.0956
42.6515
53.1264
79.0314
76.206
77.4306
39.7494
-18.6305
-17.7203
18.5166
12.0159
21.2688
9.86826
-10.7616
-33.8986
-93.8733
-111.128
-72.7531
-115.101
-108.81
11.2073
51.6406
68.0287
51.3836
14.2453
4.89763
8.09291
7.14211
-12.8754
-71.9323
-74.2598
7.71112
28.036
34.4668
22.0752
24.765
29.0257
18.3709
138.681
176.625
59.4826
38.4234
-73.7284
-221.061
-204.541
-118.325
-84.7936
-54.9782
-31.3208
41.9006
78.0925
73.0465
100.833
68.0547
30.8407
72.7982
81.8
55.3478
9.7073
-16.6159
-23.4846
-33.1957
-8.91597
29.9083
30.7314
-14.5571
-36.2601
5.80835
-15.3082
-61.6192
-44.6388
-5.06252
8.69111
39.3516
34.0613
-25.3706
-47.5852
-59.6032
-98.693
-83.9493
-22.9319
-13.0118
-14.644
3.33899
48.059
69.9606
51.9844
34.379
65.244
60.6341
38.7249
-33.6424
-68.6726
-80.1501
-41.8945
-10.9002
13.4688
49.8101
97.1864
124.465
109.459
0.157479
-74.5504
-53.2885
-34.441
-0.254112
30.4695
-24.9953
-98.2883
-113.576
-112.811
-91.4225
-28.2029
49.4811
55.7703
76.681
73.6887
51.2075
47.0138
34.5076
5.56222
49.864
111.921
94.3549
28.0539
-53.8474
-46.856
-38.8639
-14.2398
-3.80606
-55.8159
-33.9792
9.68525
-55.8339
-45.0799
-63.0688
-38.9924
-9.33133
-31.585
-55.671
-20.1663
-17.9663
-26.3824
41.4353
64.9217
10.4826
-45.8441
14.871
-20.886
-46.481
16.8155
39.0147
35.5495
58.315
53.4878
66.1439
59.7624
4.72976
-37.6308
-6.5542
44.5571
96.3958
113.562
25.5333
-65.2996
-98.012
-81.1263
-60.2742
-1.75644
53.6242
72.7246
63.3342
27.5869
-3.41976
-18.8381
-72.6877
-87.0539
-49.9522
-42.6124
-44.6267
-62.1658
-5.97399
79.509
28.311
-13.7434
28.9601
47.6163
33.9758
-1.44027
-62.2013
-58.8048
-78.5273
-86.4056
-70.4059
-40.4308
27.6547
32.7202
71.3214
86.9492
-3.22715
-36.3926
-20.1038
-28.7383
17.1499
89.9112
141.878
140.516
43.8219
0.341809
-0.162607
-41.4905
-70.4119
-34.8825
-66.168
-108.403
-35.1866
60.013
57.3126
60.9953
78.8122
52.8229
18.3985
41.4854
96.0174
-5.92806
-90.6712
-66.6402
-27.6354
-71.6094
-36.1713
13.3882
19.2545
8.48917
21.4558
13.2272
5.88579
-36.4589
-48.6306
-2.91126
10.6705
-74.8549
-65.3225
-81.5201
-163.682
-145.979
-69.6501
-10.4809
42.9201
120.099
135.734
115.078
92.03
70.6701
83.9174
80.3399
51.2236
64.3837
48.7107
-26.5228
-104.762
-131.992
-108.662
-58.806
-12.7024
65.6756
118.457
60.9367
13.8731
-26.695
-42.2721
-28.519
-4.90438
-20.2827
-36.8392
2.64548
7.54795
-33.7907
-32.0123
-14.4095
-18.235
44.0823
57.2174
31.4334
-1.7476
6.31396
-20.7646
-36.7215
-21.9286
59.0954
76.5844
19.0004
-26.3693
-0.196677
34.3392
-12.1513
-53.3071
-83.8417
-72.8798
-27.0271
21.4632
74.2216
50.0133
-14.507
-30.6638
-23.1358
-6.63956
-0.641329
-9.3167
-68.7013
-66.8659
88.8562
210.831
132.789
-12.6016
-63.8749
-72.4914
-101.421
-97.983
-73.1944
0.821963
45.082
18.323
-4.28942
66.3607
84.7986
47.0624
29.4205
37.4217
16.7407
-12.9605
-39.4126
-25.8695
-0.279834
1.46419
-6.31216
-53.3811
-22.0345
-46.3803
-49.5587
-0.462802
41.2077
36.6503
58.452
31.4773
-10.218
-20.6647
-18.4803
-8.70987
30.0258
18.4098
-41.6689
-84.1759
-86.2827
-7.55275
54.0517
96.7195
65.3919
48.2713
0.466634
-60.7023
-83.1746
-54.112
-4.34308
28.4039
23.905
42.8901
38.4449
-39.5529
15.8295
137.584
68.5978
-9.41063
-5.29333
-26.8187
-97.4026
-139.146
-91.8237
-18.4228
36.0907
40.9084
37.3705
44.5593
46.6697
66.0933
68.2987
8.48836
-45.7354
-41.9338
-64.7576
-93.5786
-57.7007
-76.7894
-77.4895
-30.0317
50.982
94.2879
101.777
107.056
68.0734
13.7665
49.6408
20.3929
-41.6379
-50.3193
-37.2855
-48.7187
7.06813
20.7575
-41.9595
-63.9134
-36.3945
-5.90066
41.0665
39.4361
50.1473
71.252
41.8355
-68.7026
-99.2387
-17.4796
17.3199
24.2402
54.4033
54.4185
37.9509
44.6208
-73.7232
-105.701
-42.252
-48.7039
-44.551
1.08974
-1.10397
55.6542
57.9031
-17.5112
-6.66641
83.0184
89.0701
49.706
16.3777
-3.7269
-44.8563
-65.298
-56.3538
-107.967
-107.606
-25.2128
56.2756
94.9078
47.1779
-12.1201
-36.0666
-85.2149
-57.4926
38.1736
55.3054
52.9883
99.5186
67.9303
6.98091
-23.2386
-75.8141
-138.508
-66.512
-9.13803
41.5935
76.3105
95.1869
49.3711
17.6741
40.4717
54.4776
55.5069
28.4979
16.7994
12.4673
-22.8718
-61.1001
-45.4525
-21.6305
1.27508
44.8261
21.3318
-46.4493
-95.1149
-106.898
-114.588
-92.8125
-66.6472
-40.1645
18.8127
28.813
77.3349
82.6766
33.0922
-14.1743
-8.54351
19.8729
59.9527
24.0578
-39.8708
-1.33172
57.3558
33.9259
50.903
85.1203
83.8334
10.8831
-58.0315
-40.3851
-29.655
-68.1117
-125.752
-72.3348
-4.027
-6.718
-3.30377
37.5496
82.5725
6.96392
-31.5486
-31.1805
25.5633
55.7141
78.8944
66.7676
13.3774
-4.69562
76.1022
77.3282
35.3266
54.8526
22.0265
-84.802
-156.958
-165.258
-146.393
-95.5648
-37.2445
47.2723
61.1984
32.5757
22.1518
14.6116
18.3954
48.1514
49.7056
20.5695
-5.29146
5.33579
27.2742
11.0336
-23.1934
-25.4544
-11.0064
39.0102
49.6131
15.7097
-50.7623
-44.5866
22.9327
68.0186
36.7498
-27.4382
-89.7521
-132.316
-129.384
-105.813
-40.4156
-16.8723
-55.7496
9.00491
108.669
149.555
135.458
65.0907
60.8124
44.0232
34.2825
1.78701
-22.6489
-39.221
-34.538
12.8127
82.9803
99.4986
59.56
30.4315
7.44989
-15.9766
-34.2313
-38.8525
-52.7619
-67.6444
-54.9027
-83.812
-136.362
-80.253
-28.0916
-22.3347
0.618216
32.8804
45.4959
17.0552
7.93716
30.2493
51.5113
41.8129
26.5095
9.88625
20.2963
15.2369
-12.9883
11.3433
7.81204
18.509
45.1564
-31.4743
-77.1306
-46.4382
-57.863
-76.4912
-46.6054
-10.2846
-4.38077
32.5107
83.505
112.354
102.569
88.0725
64.8766
-17.1202
-62.0424
-92.8949
-28.499
92.9567
88.8305
51.9345
-24.5927
-59.7788
-31.4201
-42.3994
-65.5751
1.33806
10.4782
-0.807047
5.97003
-29.6316
-98.3422
-108.875
-68.4686
-14.8295
32.2215
30.1535
2.74
-30.7287
-2.88998
24.9942
55.1533
102.528
134.737
103.112
27.6397
9.0247
-56.4411
-98.8249
-116.71
-81.9447
-45.4486
-32.5073
-7.94414
9.93923
76.1454
108.604
41.4591
-2.36955
40.6684
20.1395
-33.4356
-59.6637
-97.3508
-65.174
30.0445
41.0993
107.779
119.108
96.7695
88.4534
85.8523
14.4952
-63.3878
-103.682
-127.993
-86.1847
-26.0633
9.13355
-55.3916
-43.0606
7.76441
10.7651
30.6192
14.4896
4.67655
-35.4447
-70.0561
-88.4014
-86.5994
-47.8015
-25.4227
15.2256
45.1652
88.774
134.907
93.9531
40.1647
58.4509
88.7813
48.5203
44.9027
40.9045
-5.23135
-52.1721
-101.33
-111.447
-104.723
-117.389
-57.1138
-2.95071
34.0568
68.5559
44.0587
51.7188
30.9541
25.7963
10.7366
-26.3841
-32.387
-5.60748
-14.1346
-50.3818
-27.2584
-0.0642599
-6.08061
12.8177
65.0249
125
87.3954
36.2138
-0.760231
22.9051
58.1708
17.4857
-100.073
-77.111
-18.692
-46.414
-126.974
-124.797
-79.6694
-17.0323
-36.183
-15.0708
59.5641
66.0598
72.0957
43.523
12.2316
13.7329
34.4745
4.46677
7.04866
15.6388
9.63542
24.4324
30.7319
22.5567
120.096
131.426
40.1694
-6.41883
0.714208
-41.1418
-62.269
-69.5979
-105.239
-75.1429
-68.7562
-115.56
-88.5668
-8.45163
24.6165
-2.72835
25.4384
-35.3251
-69.3938
-3.63019
17.7631
-7.16977
44.1792
89.8597
103.827
97.5159
89.6088
74.6975
70.0914
61.3497
-3.27956
-40.7754
-76.4293
-129.318
-80.0082
-39.4173
2.91764
80.4405
115.421
38.8956
-14.3981
-51.2851
-49.2947
-66.0979
-111.789
-29.2715
11.2553
3.28181
-0.523534
6.92627
37.7304
67.1876
63.9817
63.1799
2.26841
-24.7045
0.502232
-44.0346
-60.8721
-21.0078
10.18
52.2957
-0.974041
-40.9354
-12.061
-1.11113
7.01589
-11.7823
31.9381
8.98066
19.7083
29.1475
-49.6322
-36.5164
-2.7497
-28.3384
-23.8382
-18.9443
-36.7363
-31.4063
-34.3282
-27.4648
-18.2289
31.4801
78.7703
55.6643
65.1414
101.762
62.733
44.6253
-2.09227
-44.565
-11.8826
5.12754
-44.1617
-1.97797
12.7007
25.9183
41.111
23.5759
4.6323
1.27948
51.5999
53.8918
-6.77431
-86.8987
-131.13
-153.435
-150.365
-112.19
19.7716
80.936
22.0282
-28.2627
10.7012
44.6407
12.46
-38.0122
-66.0035
-47.9851
10.7209
65.1727
50.9958
42.387
38.6579
68.4189
75.6924
103.684
113.46
89.8994
-19.69
-69.4385
-15.3997
-5.87228
-40.5398
-25.5206
-10.1053
-40.3026
-49.7467
-7.71735
-24.649
-66.5322
-41.0489
19.0416
58.2414
46.3054
10.4797
-7.2743
-21.6429
21.9626
48.1319
18.1467
16.0972
-23.7524
-61.6536
-57.0662
-42.8228
-47.189
-7.77194
-31.3575
-43.659
49.056
51.2593
-7.28318
-0.435522
22.6396
44.3068
35.5854
-29.8076
-87.7154
-64.3917
-18.8616
11.9075
39.086
56.2337
32.6107
50.0564
121.1
88.4866
21.5924
-2.97039
-81.1221
-111.093
-111.123
-82.1381
-42.2752
-0.504392
33.495
63.2813
83.0614
62.4857
63.1849
55.4312
38.7623
12.7245
-5.87801
1.97027
27.5927
1.03382
8.97862
-10.6295
-26.2072
-55.2002
-76.2888
-24.9889
-46.9501
-105.347
-78.9904
3.61848
25.4513
-4.48518
-1.59446
-3.86762
-13.3956
-20.4138
-13.6141
-15.7606
-25.9024
24.1071
69.331
119.485
98.6676
75.1976
17.3481
-40.3373
-22.1827
-28.8189
-79.0783
-38.6779
9.26107
27.3116
-20.7484
-41.8352
-14.6737
47.1457
46.1867
15.3943
-1.58722
6.41523
10.9131
-23.1944
-23.5199
-13.3625
60.3793
114.16
67.8496
-4.44916
17.3474
0.573671
-57.277
-38.915
1.47808
-4.89279
-20.8363
-18.4027
-13.6187
-23.0444
-55.8946
-74.9075
-62.4898
-5.72444
44.4266
57.3053
18.0063
-23.4739
-43.1637
15.2995
26.5229
-36.2078
-54.9046
-13.2076
8.31127
45.2481
63.7036
9.47107
-29.3617
-21.7383
3.50544
18.5104
-6.98196
-13.634
-16.9326
-6.96444
35.0069
3.20955
24.7326
64.7383
66.684
49.9614
46.7141
6.49054
-6.17154
-14.4237
-8.5961
29.8604
12.9828
-33.3651
-17.0955
-9.11285
3.41101
-10.5408
-19.2308
-29.5305
-79.2653
-158.025
-129.849
-22.1392
80.5958
79.1402
16.8546
10.9955
21.0242
12.3271
-35.2491
-43.3126
0.365597
51.3364
57.0885
67.872
74.2623
51.4017
27.1767
52.2255
10.8393
-16.0738
-16.9724
-63.3272
-108.854
-122.37
-84.9727
5.91168
51.6018
22.3511
2.0726
9.49833
25.0826
-1.55601
-11.3057
-53.1072
-50.2512
-29.5678
2.04652
10.5042
58.557
116.508
126.717
84.6969
47.3576
82.7286
116.085
18.328
-53.2215
-84.6723
-103.307
-138.502
-127.627
-38.455
-61.6171
-64.5197
-30.2891
15.4299
7.15046
-30.7582
-9.69769
73.9979
89.9858
53.5418
-13.4116
4.10409
-6.46783
-3.95012
25.1633
61.8166
54.9868
75.4824
47.7347
-13.2953
25.7051
42.8058
11.9188
-10.8702
-28.5416
-28.5687
-17.5941
-55.4839
-115.007
-116.561
-87.4541
-90.4141
-77.7669
-9.02384
34.2345
16.1076
53.0006
99.4596
85.8488
48.8375
44.7749
91.1253
88.998
-17.0461
-1.89576
6.39672
-72.9647
-87.6209
-29.8523
-3.18685
-11.1259
11.5446
13.905
-0.774137
3.52081
32.3841
20.0084
2.80783
5.46103
19.4443
-22.953
-33.14
-7.94558
31.0803
8.82496
13.981
-5.53786
-53.304
-74.0075
-50.2936
-13.5703
16.5967
46.9373
35.9642
15.8695
3.10019
25.3699
22.01
-67.7479
-52.1032
22.5588
27.9911
3.11052
-11.814
-28.016
-2.97675
55.3346
76.9938
38.7831
-7.84184
4.91124
-38.3686
-49.8447
-37.4076
-50.3324
-34.0018
-23.3772
-3.08693
57.5438
60.8141
48.8963
-25.7997
-87.5484
-54.4058
-14.3457
36.9668
72.7206
54.5213
78.6599
62.6996
-16.2248
-1.44008
35.5527
37.267
10.8838
4.77772
0.128781
-71.1324
-43.0546
-15.6667
-50.0064
-66.6166
0.306847
14.9368
34.4766
6.76857
-28.702
-36.7014
-42.7603
-64.7368
-39.8582
-69.8219
-69.2383
-6.82717
57.9388
31.7504
50.2136
80.6445
73.3135
34.2508
-15.5363
6.73874
7.00259
35.8057
4.79519
1.98745
27.8984
53.0787
43.8675
33.9376
2.55981
-25.7435
-29.7154
-50.5581
-76.084
-69.0787
-52.5428
-39.2253
-26.8784
-11.5725
3.29956
43.132
58.4469
29.138
28.0974
9.84212
9.78468
20.9609
4.46649
8.90689
34.2577
56.1031
55.7559
42.5507
17.8807
17.0313
-26.9686
-51.976
-30.6648
-37.6952
-29.5055
-25.4376
-18.5408
7.82573
35.545
-24.4639
-152.81
-200.583
-92.0518
-19.2577
-2.2449
34.7428
54.8896
12.5485
-15.5509
13.6554
40.9165
78.8983
77.8941
114.142
123.885
50.712
42.3889
-11.6073
-76.2617
-53.6058
6.53663
46.1035
56.784
26.6031
5.88763
-23.7118
-71.1533
-65.788
-25.9622
-4.72788
-23.3263
4.70686
-15.5735
-28.2662
-47.1098
-65.1764
-32.0283
23.6659
22.194
57.7323
133.186
90.6202
-4.12795
-37.8936
6.38932
14.0033
-8.37813
-28.9314
-21.5169
36.7793
39.1818
-15.7853
-58.1088
-77.5206
-80.6823
-29.7448
-23.2739
-26.1751
-43.8189
-50.9299
-64.7108
-25.0497
5.65359
57.1778
78.2353
70.6844
72.6864
80.4196
45.1742
2.78249
-17.2231
-31.526
4.01633
33.7415
59.8738
83.0604
55.5439
-2.10754
-28.1451
-47.7169
-31.2906
-21.1739
-50.0919
-48.1541
-15.6624
18.8812
9.98095
21.561
76.8125
55.732
-0.717534
-29.125
-60.6264
-90.1753
-69.375
-28.0802
-41.6224
-70.0344
-46.3301
10.2335
45.1365
53.3568
38.0519
22.5028
-2.96015
-6.40712
4.30679
-21.9075
-131.168
-151.309
-47.3874
36.8961
80.7052
84.5997
81.6051
47.615
40.5953
35.4378
71.625
93.3336
87.7548
53.7952
62.1109
83.4991
49.3201
5.76396
-44.0538
-59.722
-55.5276
-63.4656
-24.0098
-3.65788
-29.3036
-47.9859
-90.8079
-97.4034
-111.372
-77.8625
1.31818
-6.65252
-42.6013
36.9439
76.3537
14.2137
-38.9934
-55.5345
-38.6953
7.10941
54.7083
59.3891
28.3198
-18.9821
18.3798
36.2489
65.0946
83.4388
61.9538
61.2907
68.2416
23.6575
2.73719
-60.8532
-129.694
-107.755
-17.7745
24.6227
34.9001
-38.3444
-53.7027
-2.16522
21.3276
22.8856
25.8969
3.3718
8.496
-4.27452
15.1267
8.068
-35.8196
-26.0824
-3.07465
6.9498
2.76115
-10.6265
-47.1259
-28.5395
-7.61889
16.9308
40.6435
60.3896
63.5388
55.7293
-0.989698
0.58849
-27.7358
-13.6216
25.4545
27.8061
-32.2742
-40.9697
-28.4992
-8.24903
-10.9928
-20.6392
-29.2118
-26.4874
9.11799
63.4844
60.2798
-18.2812
-40.725
-61.6075
-59.2124
-18.914
11.6426
-4.59278
-4.31667
14.399
-8.04931
3.24556
24.1112
29.5118
77.9531
97.5117
57.4356
17.206
2.85776
-42.434
-132.116
-105.899
-48.1802
-15.1195
16.7838
30.3536
73.9447
81.1702
43.4988
38.3346
47.4272
24.1632
22.958
6.82068
-31.4862
-39.5721
-82.309
-113.803
-50.8688
-11.05
11.7981
62.64
61.4887
53.8402
26.3604
-1.44253
-44.9008
-66.3497
-91.678
-61.7359
13.4461
8.67378
-59.6178
-51.0333
-5.13781
21.2636
73.7882
110.516
44.6342
39.1414
83.6711
48.6118
10.4631
1.86772
-32.327
-28.1965
8.66206
32.1607
36.7389
-13.6144
-98.9926
-76.721
-56.2559
-113.731
-86.2821
-38.3214
14.1785
7.66455
21.9471
15.6975
53.3204
68.5029
73.0372
112.085
126.647
60.047
-133.663
-144.934
-75.3219
-50.2941
-11.1764
23.5974
51.5386
80.1501
85.5523
41.8074
-37.1642
-11.9336
0.325609
-29.5196
-36.34
-5.09731
-0.246422
-40.2047
-45.1065
8.30642
86.5032
62.9302
33.7556
22.7625
21.848
-22.3554
-59.8525
-55.0131
-66.7777
-21.4122
62.5442
65.16
32.4708
0.0516251
-14.7085
-46.1098
-97.7
-118.686
-45.9593
2.59402
83.4687
127.91
47.1681
-43.6287
-49.3299
-35.1395
18.6384
85.4445
28.704
-59.5991
-84.4884
-71.3824
-44.5714
17.8868
70.7176
84.7564
67.3746
72.0798
70.1755
-13.3478
-109.968
-120.194
-41.0744
8.84753
20.6603
45.4198
22.2386
25.5852
29.8682
21.2031
22.2294
22.0834
12.7771
17.3789
-7.61946
-9.95529
25.7886
7.61083
-23.4391
-51.1986
-19.997
-42.8097
-27.2009
18.0884
73.5585
30.4547
-22.0021
-49.5092
-21.6016
-12.2991
-29.7759
-36.8163
-18.2072
-15.3576
-18.1233
-24.2535
-44.2066
-25.9472
-28.7725
-11.6243
25.326
73.0588
37.1673
17.0471
12.7367
11.0447
0.583936
-21.5035
32.7408
101.519
68.7359
39.2064
43.5371
28.0806
-32.5397
-68.6267
-37.4727
-15.5098
-29.5345
-15.0072
7.9175
6.33751
-0.101996
-20.8092
-21.8001
10.1537
-27.8266
7.7824
-3.7675
6.28737
64.3113
66.8135
29.1494
-7.07035
-26.1915
-17.0875
-19.9025
-13.2458
0.154634
7.33973
-23.6442
-47.7396
-38.4367
-12.9002
-5.81036
-44.8388
-10.5097
-9.35232
24.4545
43.4354
49.3928
8.38005
-58.9116
-18.1647
46.4004
4.0552
-44.7689
-25.8658
22.496
44.0173
42.7143
-14.0168
-13.3521
-25.8053
-42.6998
4.19146
57.1295
49.1032
38.9591
22
36.4447
36.2438
-26.297
-153.156
-169.125
-75.363
10.3562
30.6858
77.9056
104.433
85.3498
62.5515
8.00425
-9.65741
15.5155
16.8252
23.9831
14.7087
-32.8815
-79.1219
-86.6767
-39.5707
32.2882
78.2744
63.4767
17.5557
-28.4404
-66.5163
-86.6188
-90.3305
-63.3422
37.6457
98.0441
109.713
79.9683
45.054
-15.2045
-62.3736
-72.1117
-76.9841
-89.9152
-65.8016
-12.2057
71.7103
123.496
112.119
57.6787
7.68959
-73.02
-89.3715
-39.9183
-44.9226
-25.0659
5.45909
-7.77265
16.9492
56.3344
62.5985
54.0921
57.0566
14.7385
-8.71417
3.09201
14.6676
-32.783
-77.9722
-35.7869
-14.5431
13.5554
35.342
15.336
-1.18513
-7.83502
-19.7003
-71.6778
-117.9
-98.3889
-40.3143
19.0389
56.7466
92.0529
114.745
109.603
56.0019
4.05841
-6.85911
-18.3418
-4.90819
-45.9307
-31.3291
14.7064
27.193
20.3744
16.4228
37.2752
56.6006
11.0872
6.6622
1.91613
-64.1153
-121.489
-135.911
-91.9835
-43.0173
31.9388
54.0079
20.356
14.4894
37.2324
38.1581
26.6691
7.44159
-31.2735
-24.7492
-55.1976
-71.9106
6.30841
40.8256
50.3607
77.4176
83.6415
61.0434
5.462
-39.2835
-41.0774
-27.7446
0.721677
8.05389
14.6344
6.2764
6.3677
34.8269
37.5871
-31.9912
-13.7606
48.7402
28.541
-46.5907
-122.236
-59.4802
42.9306
10.6596
-22.014
-55.972
-149.342
-146.915
-48.4861
6.2449
49.8423
39.873
2.96634
-13.3989
1.6381
72.7764
120.906
137.625
117.49
123.765
177.164
116.598
25.246
5.99842
-45.1848
-69.4613
5.92923
-19.038
-106.112
-111.725
-49.8225
-54.3845
-87.096
-62.4207
-73.2735
-87.7277
-44.9662
-20.2283
2.64558
-3.17432
-25.109
-29.0866
-29.4116
9.0641
44.959
97.9093
123.131
125.758
116.257
68.9153
3.61906
3.78803
-8.13793
-67.4218
-73.2654
-84.2687
-67.9902
-68.2958
-63.5118
-51.7666
-15.9945
75.3974
105.33
53.3323
36.2044
-15.6417
-45.5445
-11.209
36.1037
79.8156
45.087
-13.1224
6.55399
31.8482
45.8939
70.6719
26.8749
9.17974
-54.7316
-94.4835
-153.331
-177.52
-112.773
-42.4635
26.8049
72.2012
75.5731
104.954
78.0332
48.2036
-0.00542262
-27.2061
-40.1068
-37.4299
-2.1803
17.4936
37.69
25.6675
-7.23445
18.291
54.8257
59.1738
60.8527
65.7544
3.26442
-76.6521
-105.502
-73.2925
-76.1887
-56.7789
-12.6489
24.8939
58.7807
96.6045
157.495
99.5636
11.7323
-69.52
-117.206
-156.664
-146.95
-99.8197
-64.9476
-50.3676
5.87762
75.8526
88.0966
58.1324
78.3253
54.1885
61.2426
69.3524
19.1188
-33.522
-69.5147
-66.3036
-74.1771
-57.2593
31.1347
108.304
125.765
57.2792
-25.4255
-46.9255
-58.6226
-4.66699
12.0778
11.0377
28.3055
26.2099
-2.7762
-16.8494
-17.5696
5.42764
3.49636
5.41368
12.9362
17.0162
16.7001
-3.87934
-24.4602
-36.2754
-45.3555
-31.3132
-12.3285
-8.30184
-33.1841
-48.5126
-46.2721
-38.5489
-46.8225
-45.925
50.5072
97.2816
47.8095
33.4055
31.6445
12.1028
49.6346
76.6969
66.6826
76.0725
4.8485
-67.549
-92.4532
-116.935
-85.6056
-23.2675
2.16809
27.6048
61.0754
51.635
2.41501
-32.6277
-36.9477
-10.4048
-12.9995
-2.82842
23.4519
64.3733
49.946
-2.43699
17.9065
19.1188
10.5991
63.7364
96.8318
61.3469
17.6888
-32.2495
-75.7958
-72.7184
-41.6155
-24.6142
-33.477
-7.39488
34.5705
9.83133
-22.0081
-95.6175
-107.576
-68.6822
-24.7024
2.22307
11.2899
28.3197
39.6591
5.46871
-10.3017
-26.4977
-11.4305
57.1587
39.9833
-0.791086
19.6532
45.1926
19.9658
4.85097
-3.39765
37.5624
45.5552
27.4462
-5.51379
14.1142
25.7203
34.2325
13.6643
-30.0685
-30.818
-32.9361
-41.3474
-37.6255
-32.3125
-37.4435
-0.740345
9.29146
-12.9872
-11.1593
9.99426
-36.5146
-32.5537
-6.32696
51.1456
62.5972
53.6431
-18.5203
-82.3212
-32.9837
9.72361
32.2447
16.04
28.0468
54.6178
52.8618
3.35434
-72.4038
-46.012
1.40231
27.9935
51.8797
51.6211
50.3499
49.6336
8.02411
-26.5333
-28.8161
16.7568
18.4135
-7.10533
38.1267
82.2298
31.3333
-22.1338
-90.3001
-116.077
-129.161
-171.158
-185.074
-132.894
-24.0272
44.3421
-1.05801
19.7201
86.6439
89.042
58.4583
68.7861
90.61
96.0478
44.6361
18.6853
-14.9286
-2.43386
45.6856
65.1077
88.891
82.2185
36.9006
-12.1977
-60.0081
-81.6202
-48.8523
-49.4419
-22.9646
3.61007
-15.6306
-45.3485
-88.8322
-107.017
-120.986
-89.3716
-31.7808
-19.64
-20.9796
29.6163
63.4649
103.335
144.86
137.294
127.465
126.285
107.755
-3.81803
-54.5783
-37.7554
-34.0367
-29.4107
-44.8205
-70.7576
-77.949
-62.6849
-66.4334
-45.3482
-10.3062
-15.392
17.7774
63.6111
57.3638
-6.46418
-90.6442
-70.4714
-90.7964
-79.6132
-21.2155
0.0285985
48.47
82.4044
81.2098
77.417
89.5656
109.248
86.1044
71.8672
62.9345
31.301
8.12747
-77.5934
-119.122
-95.9638
-70.518
-83.8086
-52.0055
33.5479
86.3823
85.6363
28.9456
-1.31821
-26.8327
-40.9019
-41.2949
-74.6899
-62.0495
-58.1846
-15.7914
-18.7461
-41.6278
-3.20995
57.4464
75.7008
82.0203
65.5266
82.5272
70.2764
10.9478
12.8005
41.9873
-16.5874
-76.0169
-120.311
-54.5143
-72.5766
-75.3332
-30.312
-26.9675
-5.52339
48.8377
97.7395
119.62
80.3887
40.6408
-15.2657
-47.3151
-47.2442
-53.9966
-26.8872
0.886159
-31.3814
58.657
149.688
93.9959
65.6872
37.9397
-11.8458
-27.5676
-18.7914
-81.6242
-93.8129
-42.3237
-13.4803
-27.6226
-75.8423
-81.8925
-64.5048
-41.8122
-35.3435
-38.0207
-6.1503
-26.4939
-19.4887
31.784
90.4782
102.527
95.9469
84.042
18.1199
-8.71803
-10.2016
0.484251
10.4391
8.58877
77.2521
45.0383
-78.0054
-97.265
-116.408
-72.05
-3.85214
24.654
58.3228
79.0635
68.103
80.2776
50.9296
9.20946
44.1612
106.248
99.8293
-31.1541
-120.863
-81.9724
-36.9586
-14.2248
33.838
34.1026
44.5246
27.0422
-5.07437
-40.9948
-78.6762
-101.619
-137.882
-136.388
-108.704
-70.0508
-48.6443
-10.8928
43.0309
81.3534
115.394
100.41
39.1708
-10.8561
17.642
2.693
-8.36372
-12.7258
-6.46185
12.3251
10.4959
16.2672
42.1719
8.55754
-5.45297
38.62
35.0418
22.5343
3.04782
-15.8143
14.3674
14.7547
4.91745
5.94829
-19.4036
-23.8787
-22.1735
-14.6745
47.7096
99.8114
92.7189
27.0077
-25.81
-34.0299
-23.3663
-70.1413
-92.9986
-105.972
-118.863
-93.9647
-17.6887
-16.202
1.80104
60.0123
86.3004
46.6657
16.7878
31.9626
49.0388
49.6132
-5.28961
-20.1582
11.5
27.1471
15.4049
14.5828
34.7952
56.7747
26.5768
0.763617
-58.1563
-35.4664
-4.57386
-23.2666
-18.1812
8.20316
-0.367051
-39.8824
-99.6561
-108.743
-92.3517
-29.7896
2.82784
8.70668
3.06256
39.2333
69.8009
48.5929
56.8244
67.4428
67.8739
78.0892
20.8805
9.49404
32.4377
26.6365
-5.61571
-20.0613
-1.30743
12.9358
46.6809
27.8849
-43.88
-74.3758
-57.8835
-33.6642
-21.1735
-35.965
-51.4331
-21.93
-64.5627
-105.452
-104.111
-68.0383
-43.0142
-36.9398
-10.6383
73.5459
87.803
62.3115
56.5748
62.4533
94.1042
114.13
101.409
44.8173
7.05946
12.644
-18.7593
-43.3714
-11.8696
13.3798
34.2908
39.9843
26.5595
18.828
0.349485
-32.4701
-44.1232
-59.5296
-59.8013
-57.7687
-13.148
-4.98123
-43.6447
-104.99
-74.672
-92.2841
-33.7298
22.4797
52.3393
28.2337
34.9332
15.8742
15.1465
35.6391
64.6885
47.3636
39.9073
39.1842
27.9722
28.1787
6.31617
-31.412
-7.7546
19.3685
-8.62748
-17.6778
-22.4303
-13.2784
20.933
37.6118
29.7628
41.6526
-19.3837
-41.8239
-5.90814
-26.496
-71.0199
-95.485
-121.398
-113.745
-68.472
-50.8514
-18.6307
68.2091
83.6213
69.6527
68.4745
59.9931
43.5688
52.8363
71.7279
78.1334
63.7389
36.6418
15.4638
3.39945
58.3759
129.353
44.4346
-81.5887
-68.3015
-28.9219
-107.678
-156.579
-103.013
-45.8578
-0.181465
2.33268
-35.462
-7.60642
34.5518
8.25012
-44.8425
-59.7502
-34.6563
10.9808
25.0091
-7.44434
52.1728
106.153
44.4517
33.3559
85.7545
117.598
140.005
91.3545
-23.737
-81.1991
-249.648
-390.458
-315.482
-191.001
-5.23504
84.4019
109.051
130.865
100.594
110.523
135.344
162.699
147.166
115.116
95.9344
58.6754
-24.8391
-54.7182
-37.792
-36.3708
67.3395
146.106
100.6
43.4167
-34.1956
-113.3
-153.59
-180.892
-184.344
-169.515
-76.0148
-10.4834
17.7466
-14.1525
-30.7962
-33.4027
-44.8405
-23.3467
10.9469
48.452
116.531
87.2539
46.6507
66.8726
50.7251
17.5095
-45.5136
-77.4989
-77.9662
-75.4715
-57.3599
-13.8544
25.3421
42.0465
45.833
63.4249
33.232
40.7173
66.8571
54.3102
56.3652
78.9533
24.1291
-16.2099
26.6663
4.3784
-5.37501
-5.44629
20.4119
22.3968
-12.3942
-57.2967
-61.7148
-26.2979
0.844927
5.94847
30.9751
24.8591
-14.1923
-30.2989
-37.3519
-31.2289
-107.145
-154.519
-168.803
-119.479
-44.4372
19.9409
49.6089
94.9732
77.2204
62.2306
49.7086
49.9787
51.1189
29.5969
14.5856
-17.2269
-40.8636
-1.65967
28.0317
46.0932
108.797
180.843
235.82
323.541
349.338
371.988
223.951
-69.6147
-308.229
-530.427
-720.054
-759.613
-644.107
-495.604
-302.817
-59.8849
119.487
192.41
308.621
375.496
310.946
233.028
135.179
1.94095
-30.0661
-53.1134
-34.3228
123.737
259.531
333.442
389.964
353.056
304.562
343.101
487.422
479.878
222.79
-71.7011
-344.19
-496.306
-483.465
-324.679
-189.831
-193.079
-258.707
-440.999
-596.427
-724.194
-717.157
-565.989
-240.164
162.736
358.329
361.366
204.344
86.6843
168.913
287.436
360.97
378.284
388.975
326.619
252.289
255.14
214.801
298.009
443.017
531.529
515.054
411.799
173.803
-96.5803
-290.336
-514.376
-768.195
-900.268
-953.787
-888.057
-708.815
-425.584
-138.087
-8.10411
90.1211
164.859
198.813
194.968
173.987
114.102
127.751
167.455
189.774
208.238
238.373
295.924
350.647
394.177
428.4
407.282
365.592
172.823
-9.48896
-131.834
-180.393
-129.814
-116.753
-165.392
-135.688
-131.319
-291.456
-425.144
-405.647
-252.895
-182.224
-153.493
-87.6515
-40.13
86.0031
197.485
117.964
135.22
223.13
185.196
57.0975
-191.888
-356.218
-455.508
-485.469
-271.674
138.942
501.063
612.999
488.17
281.811
72.0711
-129.643
-227.288
-218.132
-138.095
31.9988
170.548
114.204
107.244
135.328
222.268
323.032
413.909
401.234
296.781
130.326
-81.3418
-175.641
-154.635
-92.4232
-34.9001
-20.9441
-81.1363
-231.436
-435.449
-606.558
-600.994
-439.219
-264.898
-160.95
-88.2117
12.7161
-39.0287
-60.7415
-68.7205
-66.3837
16.8316
52.4179
51.4225
156.533
269.061
405.037
506.248
633.771
534.727
294.692
-28.5016
-336.314
-563.152
-716.519
-434.835
-167.096
9.46355
195.546
327.103
406.986
378.315
285.185
230.128
114.433
17.3999
-89.4164
-184.291
-211.884
-145.021
15.689
184.252
170.93
157.97
197.294
21.8788
-133.668
-236.358
-306.641
-305.612
-282.717
-255.129
-196.28
-165.86
-95.0283
-18.5175
96.7341
176.31
121.642
172.202
205.246
157.748
189.788
181.379
240.374
180.721
-18.8902
-134.535
-218.156
-146.488
-3.68684
2.52685
-67.3739
-223.995
-336.957
-372.548
-444.895
-324.877
-96.486
95.8092
265.935
281.952
267.097
250.673
127.442
54.5231
49.8113
107.013
203.61
202.91
149.718
158.287
183.067
202.164
173.325
118.072
33.1587
-98.204
-173.843
-228.156
-236.715
-141.915
-107.664
-165.174
-182.784
-152.652
-110.267
-2.78357
-0.716086
-92.5589
-149.658
-105.982
-47.4547
-55.4788
-7.73352
100.686
275.62
256.548
-20.5066
-182.982
-160.113
-193.253
-175.567
43.2191
210.819
219.051
177.198
178.55
161.584
110.201
59.4487
-94.3073
-199.282
-90.5123
-28.3272
43.2952
73.1559
88.2956
150.716
182.229
83.4307
43.562
125.549
91.9024
2.58666
-15.0364
-27.4855
-73.562
-88.4466
-101.804
-125.163
-57.6146
-47.1461
-84.2591
-115.202
-147.516
-155.598
-145.811
-109.637
-84.8984
-60.2747
-33.2571
-26.9798
-29.4279
-6.69955
25.2975
71.4515
73.3475
158.866
197.36
126.469
79.3863
-14.7042
-84.9728
-180.639
-152.481
-60.9269
-12.9174
85.955
148.429
135.293
177.855
153.922
241.85
278.246
32.3235
-130.344
-176.784
-251.087
-291.638
-189.719
-89.1331
-16.8958
55.9572
166.016
250.265
279.003
225.796
116.878
8.29291
-38.997
-117.663
-136.592
-231.266
-251.183
-138.143
-22.5814
97.3689
153.953
186.336
99.3723
10.0944
50.274
57.5211
66.881
67.9675
43.7226
-8.92004
-107.737
-199.596
-291.974
-344.85
-309.797
-227.152
-126.467
3.38502
78.8378
114.83
88.4013
24.3164
9.68313
66.8265
137.025
149.547
152.993
69.2155
-2.40108
22.8563
100.353
149.057
184.915
196.927
172.529
73.1117
-92.1599
-270.854
-362.01
-349.565
-236.641
-106.691
43.085
98.6879
88.4688
89.3762
105.362
75.9049
55.9936
100.514
113.388
109.196
126.427
137.714
52.4154
-20.6652
-27.2569
82.5348
150.005
136.832
160.525
158.757
60.5447
-43.9764
-145.802
-278.223
-427.619
-475.531
-410.084
-352.408
-278.419
-131.895
-5.89908
51.8424
41.1929
62.7809
123.429
117.781
93.3321
163.82
264.463
245.652
148.398
76.6481
82.9851
33.3379
-0.959139
-22.0875
-68.8776
-77.8357
32.6203
140.225
82.8788
67.8999
80.537
34.8052
-18.8712
-19.8908
-48.7459
-144.758
-256.37
-230.561
-152.142
-91.2209
9.8533
137.972
217.961
215.954
161.014
130.033
61.8614
-51.9786
-115.397
-159.275
-122.567
-80.1289
-14.7194
52.1684
85.1779
81.3825
52.5769
-23.4244
-63.9483
-8.52411
7.66822
28.3661
44.682
-0.58174
-27.0013
-73.3996
-185.15
-204.538
-148.031
-100.299
-28.5132
74.0607
127.516
126.173
141.481
122.641
76.4347
37.9889
19.861
17.0042
-24.6739
-177.529
-185.979
-92.0601
-62.3041
-35.5913
40.2016
98.9429
144.502
185.56
109.441
73.4996
50.4265
27.8941
2.70913
-22.0008
1.70583
47.7981
38.3779
-54.4337
-111.769
-30.1406
20.5969
21.1229
39.2609
51.1442
-30.6463
-81.4482
-122.609
-177.528
-110.238
-67.7358
-45.4056
31.9511
67.4853
10.4998
8.18714
47.3663
53.4637
38.427
19.8107
21.0858
8.44932
-34.7233
-53.5516
-4.71217
66.5944
40.1324
71.5399
98.8938
46.6852
-12.417
-39.7402
-81.4955
-72.505
15.1203
4.95232
-77.0754
-97.4677
-76.3125
-62.3766
-47.7473
-81.9421
-43.5441
63.4244
129.062
167.92
197.513
171.801
130.653
53.6854
3.60264
-62.408
-117.434
-102.967
-139.559
-194.501
-100.7
21.824
95.2709
119.299
138.991
137.068
68.2452
-25.966
-60.0862
-92.5187
-132.566
-96.6084
-72.744
-26.7907
-8.72365
2.05198
37.5778
51.2205
74.3867
104.303
64.1463
7.05261
-16.2176
9.84247
62.8256
90.5571
71.0554
15.642
-68.7058
-111.979
-119.554
-166.504
-164.379
-83.4465
0.742381
72.1172
50.8473
15.4813
30.0838
10.7896
-48.5972
-53.6856
-42.9286
-32.3753
-78.4396
-41.6785
42.0029
84.6657
110.778
127.621
91.4711
74.7307
82.8326
21.4175
-40.1543
-33.168
42.9182
67.5783
39.495
38.8492
91.1312
127.055
144.407
119.811
60.8726
-59.0181
-217.648
-327.86
-297.757
-270.966
-209.112
-85.9642
25.467
98.4787
84.4856
28.5549
29.876
87.1692
113.931
76.276
24.5369
-21.9929
-25.944
-12.4249
-5.06878
6.02619
45.0741
93.4435
100.985
136.328
143.478
83.5403
0.574086
-34.006
-3.20341
-30.6617
-65.024
-122.763
-154.902
-166.02
-153.787
-74.8885
60.4249
21.9858
-26.9157
-11.5925
18.8316
20.6599
-27.6825
-25.9972
35.3888
10.1228
21.0793
2.42279
3.7456
69.0171
68.6779
57.6955
79.0993
118.456
154.019
74.8965
-70.631
-88.3663
-72.3854
-59.8036
9.6763
-7.48269
-44.5218
-61.1298
-51.1875
-1.75192
26.8033
19.8559
-25.9442
-30.8345
4.33204
-0.535125
27.0392
35.0932
4.88188
1.66055
-23.3913
-31.0031
39.0174
95.5711
41.6536
53.4671
97.9401
113.029
48.5007
-13.4019
-86.1493
-121.104
-123.038
-133.853
-169.288
-135.058
-97.0314
-60.362
-6.60342
48.1041
35.3955
61.0045
83.314
72.163
102.664
97.0323
72.6764
16.4146
-72.3539
-65.5695
-39.9203
11.7283
21.8914
-55.8811
-72.4756
-10.6751
9.86643
65.3508
47.1529
7.70963
17.0373
29.622
24.633
7.29648
44.8319
107.182
89.7923
83.2365
79.3882
0.838347
-46.0058
-49.8731
-25.5272
52.7541
67.4578
25.0146
4.63376
-74.3902
-141.451
-168.465
-158.557
-128.373
-113.281
-95.926
-78.8345
-34.3726
18.7129
39.2378
89.803
145.267
122.79
97.9455
51.974
-11.2504
-27.9866
-28.7824
-15.3814
23.9268
53.3534
42.9126
66.6158
73.4174
63.7615
47.9964
-34.2319
-107.243
-116.532
-89.2896
-57.5246
-39.7797
12.7581
10.8286
4.56019
9.69726
5.762
9.91823
29.7751
11.2966
5.13009
25.4859
-17.1317
-49.0291
-26.4463
-1.39231
20.5331
12.7737
5.28742
12.3443
40.007
54.8574
43.4733
46.7882
33.9431
16.5049
31.9597
36.9311
-7.46161
-77.9178
-97.1091
-77.8087
-41.6808
-53.4286
-26.4825
22.3278
55.535
78.2693
34.0097
2.31692
-76.1781
-150.049
-130.829
-96.1671
-29.5842
47.987
78.04
90.4653
93.0793
136.507
128.223
55.6008
19.2988
37.7694
30.6997
-6.39426
-31.8704
-16.9044
19.1021
-25.707
-51.2623
-75.9856
-87.4771
-68.3911
-44.3185
-18.0857
39.099
40.3397
-29.5141
-35.9339
-5.11104
39.6468
30.1612
-2.8258
-46.066
-53.0017
-7.91798
-19.0529
-20.151
28.1977
56.488
72.5077
31.4672
17.6338
26.7211
-20.7348
-41.4693
13.5342
63.9415
48.789
-12.7617
-61.2689
-48.6022
-47.0429
-39.5252
-30.6029
-24.2607
-28.7288
-2.23496
36.7944
76.5997
90.9951
79.4993
29.6095
-14.4115
-30.4645
-20.1637
-45.0761
-49.8914
-31.6382
8.43767
27.0028
46.1885
58.4776
41.2209
9.07086
-31.1059
-22.4939
-45.4767
-117.89
-117.27
-62.1371
23.9767
88.4799
101.261
104.969
76.2565
37.7237
19.184
-12.8775
-30.7005
-5.13536
-30.7038
-35.4934
-28.381
-60.1305
-47.5473
12.0869
72.2345
94.023
60.314
-7.17029
-57.0208
-63.0579
-52.9867
-38.9786
-59.6591
-87.7424
-63.5199
-41.2855
-6.61122
26.2087
49.1412
37.6825
63.4507
83.3932
24.9576
-60.0712
-91.5779
-31.5722
13.3116
58.3652
93.7878
45.6147
39.9892
28.4621
4.522
-5.8198
-17.0355
7.89924
36.4598
11.4319
10.1065
45.7087
59.1058
50.5482
19.9981
3.31818
-24.5185
-75.9697
-83.132
-72.8712
-60.1382
-7.78434
17.8726
35.3661
-0.53485
-25.6927
-32.9673
-71.6988
-92.4188
-53.3301
-17.9875
3.91649
-1.5411
2.22271
12.0235
3.2497
-18.0123
5.48583
17.4396
12.8255
29.3668
69.4697
36.6056
29.6864
46.0357
52.8605
55.7751
97.8672
107.02
74.7098
10.3417
-50.3681
-65.428
-66.7533
-44.5981
-11.2551
38.8067
58.8276
16.9475
-14.8552
-42.0886
-57.8688
-86.7425
-105.589
-74.9661
-44.574
-38.7146
-25.5135
16.5122
50.5379
31.8687
15.0119
-49.4054
-78.0859
-83.6643
-48.1789
-57.9869
-36.2063
35.1867
102.449
109.088
79.9898
63.5498
42.316
61.4138
78.7723
36.9379
15.9624
39.3989
33.3992
27.3939
47.5241
51.4026
-0.460647
-18.6269
-38.5716
-66.4895
-85.3439
-50.7234
-19.935
-27.0339
-46.5152
-32.6906
23.0615
54.0063
46.3947
28.642
-26.8934
-99.8538
-119.462
-111.122
-120.438
-60.6301
54.3377
91.6091
97.8939
127.365
87.0187
16.7458
-32.4235
-29.0908
-7.10874
21.0541
44.0213
8.65199
-63.4074
-52.0035
-24.4916
-15.5106
-46.1804
-52.6994
8.40017
63.3579
47.4953
35.7741
51.792
67.7208
69.7674
47.1236
20.4192
-7.58515
-34.7497
-49.6822
-92.7545
-93.1942
-38.3639
-15.972
13.7742
27.7012
25.136
17.293
11.2088
21.2872
37.2282
62.2583
53.6502
27.561
-30.8812
-76.0079
-116.213
-145.587
-91.2083
-13.0382
53.4212
52.0981
20.1342
35.8479
60.0775
52.1153
77.5077
64.1041
13.7316
-5.19991
14.2779
34.2124
-7.5867
-48.7175
-9.80365
14.6264
2.34528
-23.1142
-57.2739
-88.9529
-67.3197
-42.0163
16.3319
30.0648
-9.00072
-30.8354
-35.4164
-14.7908
11.7365
10.3301
-11.1885
-33.0972
4.46041
39.3408
48.0025
46.5377
66.6841
105.146
93.739
57.1786
-4.18295
-26.0459
-17.7112
-25.7002
-32.5449
-24.173
-48.536
-21.8412
-6.80078
-33.9261
-25.9652
-2.31003
-8.87261
-10.5933
-39.0859
-31.8506
7.97961
32.6849
17.7778
-13.6968
-7.55516
-6.86074
-50.5375
-48.6993
-17.8212
-18.2683
-19.6731
-9.0745
28.6617
69.7517
84.7326
67.7242
61.8148
50.9277
39.415
30.2753
0.109063
-38.1637
-19.6259
-9.25407
-29.4621
-8.19602
14.0333
10.0116
-1.59888
-2.90763
38.5599
32.8294
-31.2752
-63.1282
-71.889
-66.6444
-83.7051
-52.6209
-4.83139
6.29951
24.1908
18.4188
20.8612
71.766
92.4081
66.3573
11.1045
-6.39009
8.85812
-38.4504
-55.6198
-63.4694
-75.5334
-85.7217
-54.0631
-30.2543
14.153
54.0059
79.8523
58.3028
-1.97378
-0.0682368
13.8087
35.5424
76.3865
74.5263
97.5639
46.7023
-65.3218
-63.6729
-97.8224
-85.9806
-10.1232
57.1239
40.4762
33.9688
35.94
7.17233
-10.9922
-15.223
-4.15061
1.67784
5.18725
-25.8279
-77.7123
-82.4786
-67.9466
-15.586
40.0723
81.8998
103.892
54.1235
13.9164
-38.7779
-75.7942
-102.705
-84.4226
-34.8242
-0.588035
-1.46418
-9.18721
11.8838
10.0424
2.92716
28.7828
74.0347
75.7954
18.574
28.4274
54.3565
73.3875
92.4962
63.8907
28.3247
20.15
11.5782
-39.4726
-104.042
-99.4184
-67.9386
-38.8874
-24.4655
-22.9862
-15.3652
3.31732
-18.3644
-68.6456
-31.3673
8.29589
10.3149
23.8525
57.9371
66.3822
6.09896
-48.8408
-66.9567
-56.3767
-59.4662
-46.3767
0.0304712
57.6792
118.017
102.834
40.8155
-16.9458
-41.957
-32.6166
13.1639
22.2882
13.6188
14.7747
-7.90491
2.38332
11.1019
14.0495
40.5831
46.4984
72.1387
48.2082
8.5821
-11.4685
-62.1669
-66.0473
-23.4113
1.06269
-7.79401
-20.3526
-28.7833
-44.3715
-70.7597
-94.7449
-69.0934
-48.8985
-51.8417
-31.0435
25.105
18.0136
47.6807
98.9326
118.223
97.0131
86.9682
73.6532
43.6419
-39.2919
-67.9421
-61.439
-21.7173
0.19741
5.56703
10.108
23.4751
18.7755
34.7605
21.5116
-35.9333
-33.2878
-20.0026
-4.47475
-22.7453
-36.1206
-24.7395
-22.7218
-19.5486
-15.6463
-20.3389
-15.5731
-55.2297
-69.1934
-43.273
-9.07939
18.0891
28.2781
58.2767
94.3293
81.6799
73.5141
43.7753
16.6748
-18.5633
-41.3839
-38.6918
-41.74
-14.6207
40.7821
34.467
24.7058
1.61368
22.4611
61.1994
45.1544
42.1237
11.5481
-70.7734
-101.928
-88.1612
-83.8674
-71.5979
-51.7167
-6.3047
-2.10138
13.7086
0.353808
-49.3879
-31.5134
30.6713
75.9014
120.372
91.27
51.8634
70.4918
53.3183
-18.1331
-72.1784
-82.1395
-37.8332
26.206
92.5543
44.4512
-7.06293
7.65417
2.52321
16.1857
14.3006
-33.9747
-63.4149
-80.4863
-93.3609
-65.1589
-32.0531
-43.1473
-33.5504
20.6165
66.7054
51.8359
54.9221
37.5459
7.3705
3.99657
3.96422
2.86439
3.54798
20.0293
50.6972
56.5855
29.5674
-10.6357
5.74225
-5.06074
-43.1375
-55.0884
-87.677
-101.055
-36.2998
-7.32215
-47.9097
-83.5725
-71.2258
6.54911
32.5589
53.4401
97.9252
117.144
93.0064
98.7684
93.8789
87.0808
50.04
15.0264
-85.2822
-173.217
-141.59
-53.2878
-6.65777
8.55737
35.3307
60.5055
24.6052
-5.00324
21.2529
44.4769
37.6822
8.50426
-6.14017
-21.6497
-48.0869
-109.166
-121.644
-95.0323
-4.03068
93.2273
133.982
120.448
83.6943
55.0891
-27.2247
-73.8799
-63.1493
-59.3331
-58.2808
-67.6302
-61.4968
-17.1149
-7.76763
17.8373
35.4882
52.2623
69.5011
73.2041
73.6033
89.0907
44.2822
4.93318
11.5031
53.666
50.926
-16.4546
-85.1677
-103.425
-150.723
-127.541
-90.5252
-91.5479
-84.3171
-62.1995
-7.98206
81.6268
81.8032
57.0729
70.0886
40.891
22.7677
9.82164
-9.44709
-31.5242
10.7595
83.4339
86.2667
75.2118
85.1734
49.7951
10.4395
-1.54726
18.3597
-1.64798
-48.7486
-82.0988
-70.9979
-23.995
-13.8792
-10.9484
15.6156
39.7279
-0.0928882
-19.6382
-41.4901
-81.9677
-55.7348
-45.0256
-7.36948
29.6519
61.2824
15.8806
11.7419
10.7852
-10.9077
-28.5963
-11.2224
-11.4546
-19.1617
-0.940128
10.6217
-13.9985
-1.37936
10.8492
44.884
64.0485
49.5804
29.5613
29.7013
15.2234
-31.9097
10.9362
47.9795
22.8504
14.7566
-20.0701
-40.2449
-52.4239
-41.8394
-52.3858
-67.7618
-25.2432
12.5654
-41.701
-68.5407
-11.9235
38.1323
49.4501
38.8615
18.2116
39.4207
41.1825
29.5767
39.761
50.4019
94.4719
53.495
-49.4189
-68.4606
-54.5048
-27.2793
-23.8055
-41.1193
-8.85965
14.4181
8.06523
-11.9911
-39.0063
-27.8315
-6.39527
-20.2132
-22.1527
-24.8064
-15.2586
22.4075
33.8659
10.6228
58.7407
61.9192
47.5249
29.2644
10.1035
-21.6551
-32.7565
-47.1476
-89.3918
-54.5578
10.2798
42.804
17.1808
-32.5688
-20.657
-6.57642
8.17554
-32.2231
-67.2498
-42.7669
5.59337
61.1877
68.7636
53.2444
53.1789
55.6799
77.2414
100.483
98.7921
47.0089
17.6139
11.9483
-17.9008
-85.7327
-134.911
-148.854
-105.512
-44.7169
-9.22573
48.9012
79.6916
21.1432
-27.2573
-60.7249
-98.7514
-92.4648
-54.5672
-0.67891
56.552
47.6394
46.4439
26.5636
41.1076
94.5417
82.4494
48.0536
29.9429
56.1502
39.4649
-4.35048
-34.1784
-59.1875
-65.9771
-27.9301
1.81342
29.7825
16.1377
-18.021
-24.4287
-18.3504
-71.1554
-108.652
-63.2992
19.4216
31.1347
28.1286
25.9745
7.2463
13.7617
28.4489
7.47216
31.7812
42.837
24.4311
13.4684
-30.3376
-58.7357
-32.9857
-18.229
45.57
96.8147
55.6748
2.45926
-52.248
-64.1312
-55.239
-48.1335
-34.8985
17.0052
40.6903
-9.22693
-29.7744
-20.1824
15.6339
42.1052
66.1045
74.1847
25.662
30.4124
0.657336
-22.5152
6.78445
-1.14813
-47.2974
-57.6959
-33.4036
-9.32526
16.4274
-40.8749
-8.31321
53.5397
61.1834
47.2406
9.58744
-14.6771
-48.0179
-49.8558
1.59618
6.08041
5.06109
15.072
-5.88868
-35.5015
-63.8137
-59.5418
-43.0928
-21.5813
-10.0071
27.0723
24.0215
37.6253
-12.1759
-6.97704
39.5716
77.8306
96.965
112.797
92.6269
62.7663
12.1618
-50.9706
-55.3885
-118.074
-108.652
-22.4457
27.9571
-23.9941
-50.0314
-47.7738
-37.8214
-23.0056
13.9615
44.5346
33.5362
17.3778
13.4001
-25.533
-33.6052
-21.1008
34.7446
54.4859
10.1959
64.7522
142.761
100.457
31.1935
0.163004
-27.3149
-26.1893
-34.6385
-53.7232
-61.2645
-65.9839
-66.4469
-109.245
-77.8774
-52.2806
-56.9045
-50.5392
-28.4915
15.2974
62.7338
79.1081
82.2842
85.7378
79.5772
80.6736
36.9112
4.88975
25.046
15.5464
-1.07146
-5.96129
-35.424
-50.6166
-50.9194
-35.2036
-44.6338
-64.928
-37.5476
-11.6028
13.5657
42.3224
57.5132
29.664
6.55287
26.3867
40.7081
16.6567
-1.38064
-15.9192
0.638596
-2.35212
0.593086
25.219
-6.88545
7.70754
48.2654
35.3421
-25.7991
-29.3684
4.94689
21.3741
-19.482
-17.4834
-56.3838
-129.429
-149.335
-74.9983
12.4213
76.959
82.5284
55.2781
69.551
67.6008
39.7338
-26.002
-58.7415
-29.4385
-39.5928
-25.2398
-21.334
5.80331
40.9973
62.7261
90.7621
83.7375
89.7768
55.1207
-48.2979
-87.086
-76.5654
-67.6446
-76.1889
-69.1051
-53.9261
-13.4191
9.75116
2.79062
29.325
50.2091
57.5016
32.0035
11.3416
13.066
52.3056
32.7812
-50.2425
-71.1755
-75.8099
-45.8114
5.7689
25.2205
34.1507
36.1004
7.72617
18.8594
32.5954
24.8894
7.25332
-16.7798
-14.8809
-18.5887
-45.2361
-27.9683
-32.8937
18.2075
75.5162
70.7095
58.5303
53.9155
-3.02561
-57.8182
-55.1085
-39.2105
20.6271
33.8935
0.290437
-31.4436
-36.8755
-73.1487
-95.2317
-58.3147
9.5747
17.9217
4.83733
-11.8143
43.8669
59.0537
31.2334
1.65212
0.558339
24.2532
5.67178
-1.53372
39.3156
16.2395
20.4844
31.8609
37.9954
39.069
3.66858
-37.5678
-43.1324
-49.606
-41.222
-14.999
0.34281
13.9983
12.4983
13.9545
38.3724
38.6455
34.6948
-8.89657
-81.8296
-74.4025
-50.8947
-8.76478
21.1654
42.5696
28.8708
16.1041
10.3378
15.2036
26.6815
22.8004
2.98186
-3.43667
-29.13
-51.1601
-111.398
-132.749
-106.096
-22.0331
72.4493
105.466
76.8165
45.9582
-19.7884
-30.0943
4.02133
25.6204
52.8947
70.4212
55.3177
46.7291
6.69378
-17.5815
-10.1647
-32.6901
11.3536
91.0495
103.717
41.4015
-3.76704
-8.73405
-49.6088
-80.5948
-60.9418
-55.8011
-29.2999
-17.0393
-47.6076
-84.0038
-69.066
-34.9866
-30.7635
-40.6133
17.9579
58.7863
22.0308
-20.8556
-34.6175
-30.9576
-19.5942
-24.6908
8.12983
39.7795
106.053
98.2625
78.5048
65.3221
66.6198
72.8121
55.8933
37.1311
20.3098
-38.5694
-88.9426
-90.7203
-62.6708
-58.5329
-61.9665
-20.7517
16.7622
25.6658
15.5918
-0.873297
3.13589
43.3491
45.9987
30.4085
21.3113
11.9673
-33.8502
-63.3084
-65.6708
-38.7202
-31.987
-21.7043
-0.500665
58.5158
53.6671
35.5673
11.1318
-26.6861
-34.0894
-23.7601
-24.1
-15.7854
16.7054
11.7345
-17.9075
-25.1737
10.928
18.9163
8.40691
-20.2845
21.7498
57.4869
22.6863
10.6953
49.6497
70.6576
56.5308
77.2769
93.8368
52.5391
-57.9784
-151.042
-138.244
-84.9833
-47.5269
-57.6913
-86.1817
-88.387
-68.8417
7.11038
23.7315
23.4772
85.4467
117.462
115.23
31.5145
-18.9673
-61.9148
-85.9819
-68.2551
3.76288
71.545
44.4268
24.9385
13.2648
13.1945
40.373
62.445
81.6436
88.0099
96.8329
68.2262
-13.6459
-63.0942
-71.2306
-37.9326
-48.4065
-61.0164
-52.6723
-25.6918
-1.76772
-7.57194
-39.3344
-44.4807
-58.9902
-62.0054
-39.4921
-8.35864
-6.75181
6.26824
-3.24965
-18.0407
24.4412
14.9796
3.37105
3.41299
2.33691
8.85979
25.8
15.8781
31.1224
51.3938
52.9854
60.4232
92.0101
124.63
70.6918
-48.7961
-117.62
-115.703
-80.6362
-59.3623
-23.6347
-12.1318
-11.6063
-14.9826
51.2709
85.0714
57.7458
48.1053
30.0189
15.3065
-0.514674
-90.4024
-104.893
-83.7392
-37.0174
43.7275
85.4204
92.1097
88.1899
42.4105
12.8421
-7.54699
-37.7316
-21.7437
-43.6871
-63.1059
-37.5383
-20.0872
-33.4694
-32.7873
8.51927
42.3914
41.0996
25.9406
7.99753
-7.48693
27.8196
22.6236
-21.6806
-36.0422
-56.2256
-48.3603
-30.8785
-8.61918
37.5703
42.6533
4.23735
-29.6928
-36.9847
2.02065
38.4114
55.8045
24.7525
-38.3963
-67.1607
-24.9185
8.33373
17.1849
45.069
80.2772
22.0269
-36.986
-19.8364
0.58844
-39.2845
-22.5754
20.3645
62.4158
86.0283
27.4204
-27.8039
-27.3233
-20.6193
0.542552
19.3413
26.2003
18.696
37.7843
-6.99877
-36.0133
-4.34624
13.4309
4.31132
-41.8472
-27.8803
-28.4701
-49.9544
-39.5405
-35.1558
-36.381
-50.7024
-51.1166
-1.72858
20.7116
28.6543
18.181
-2.27735
-32.0168
-4.44829
60.5189
100.199
65.1272
22.0168
22.639
33.3787
35.1868
43.6527
45.7861
67.5593
97.0488
61.0693
-32.4745
-107.822
-124.023
-89.2069
-62.0246
-39.5972
-45.9652
-73.188
-90.7277
-43.5906
22.0482
27.244
16.2552
5.78507
3.73935
2.62425
12.0898
-2.1699
-34.4374
-25.631
20.9355
39.0855
72.8988
112.064
112.283
52.1872
47.4747
65.5707
48.0648
-4.84216
-65.8738
-75.8634
-39.3509
-69.4672
-72.1886
-13.5308
-3.32809
-27.6481
-24.2234
18.0611
71.1501
45.0519
-1.50987
-51.4365
-84.5486
-75.1157
-61.7767
-61.5871
-13.2217
32.5914
27.1871
40.1861
74.2109
104.88
79.1552
30.7466
29.5858
1.71406
-13.7003
-54.8901
-61.2715
-15.043
-0.255294
-32.624
-17.3458
25.5861
30.9795
23.0385
-2.44105
-20.0152
28.5097
63.0358
57.748
45.321
17.8368
-18.2102
-60.9247
-49.5069
-31.8462
-21.5735
-25.7286
-24.3694
-21.7014
-10.8233
-8.95503
-4.9642
-7.92002
-12.7806
-11.9409
5.01263
25.0856
12.3336
-31.3244
-47.6132
-26.2478
-0.459296
-8.35007
-29.8247
-10.4706
35.8694
15.4754
18.858
34.5508
41.7561
31.9847
3.9882
-0.0750837
30.0479
72.6401
45.1665
19.7172
13.3315
11.6986
1.72729
-8.37486
-21.2144
-5.6065
22.1893
-30.4352
-113.508
-43.4267
28.2143
27.5649
-9.1693
-8.78962
41.6156
50.7565
-34.7163
-95.9213
-67.782
-30.3352
-14.8786
17.7894
64.6619
76.7356
19.3855
-12.9847
-13.5274
-35.9954
-16.6674
4.11353
3.3144
13.488
52.2527
32.9027
5.17076
-21.5674
3.96187
34.846
17.2207
4.92945
13.9834
-16.5678
-95.9693
-99.3015
-47.7039
1.71728
13.1485
27.8982
73.1205
73.1703
5.8167
-13.2742
-18.5376
-29.6447
-59.2116
-79.9218
-37.2255
3.75131
18.2117
20.589
17.969
20.2945
43.6309
29.4064
28.4184
45.8872
33.3602
-3.53013
-4.52794
-9.30993
-19.5279
-35.0277
-14.4329
20.0254
20.5624
26.8626
26.5605
-24.0693
-33.0284
-22.4141
-34.3603
-21.1157
-1.5417
1.46061
12.0256
9.74829
25.1178
52.6922
40.4993
13.6567
17.757
29.731
13.2074
-22.2725
-3.59031
-17.0296
-31.383
-59.1398
-75.6859
-60.2774
-11.0137
-5.85689
-82.5044
-103.53
-72.955
-63.0154
-38.1046
25.1806
57.0683
82.1875
82.0402
69.5393
67.9961
100.361
116.61
137.301
149.469
135.04
48.6089
-8.36638
-31.7935
-45.3721
-25.4055
-11.4427
-1.80233
-9.86257
-75.1623
-111.312
-129.217
-146.057
-139.66
-99.9714
-61.8251
-34.6944
-29.2619
-66.7731
-83.2256
-64.9027
-1.71456
27.3117
26.9963
38.3147
109.729
161.354
104.874
66.6322
67.0046
69.7295
73.2965
58.6193
55.0222
29.0903
-17.7895
-56.0628
-59.7475
-18.5856
-21.1162
-33.7162
-4.68947
21.6194
-11.2823
-16.2138
-31.5198
-41.9469
-17.148
-25.8337
-20.9608
-19.4236
10.172
-8.75917
-27.6753
-9.20135
33.9396
46.4749
27.7015
38.8354
58.2322
29.9724
11.4475
-37.1327
-82.0101
-141.339
-107.423
-61.5663
-18.1711
74.2004
100.674
87.4356
44.705
64.6923
53.6455
1.77009
-3.8862
22.3702
35.308
11.2498
-44.2652
-47.577
-61.3077
-45.5611
38.1165
90.3771
73.5441
20.8691
-46.9133
-97.3466
-70.3131
-26.3569
-16.9769
-15.5699
-2.28741
18.0914
-12.0853
-1.26533
4.36635
-11.7785
-17.6088
-2.96734
26.8851
34.5926
17.0148
8.88326
-3.12491
9.17989
1.71983
-15.9987
-6.65719
-15.7408
-18.4233
-17.3178
-11.1382
-14.8926
-26.4749
-43.0581
-42.6989
-24.8951
-7.67587
29.5051
31.8453
36.0322
56.527
78.878
72.7251
67.8129
93.6455
66.4674
-8.82011
-50.2379
-25.4197
-8.60367
3.38704
12.0567
38.9337
39.0189
-25.7578
-60.2323
-54.0853
-61.7972
-79.4916
-107.027
-92.812
-56.6142
-22.2104
-24.3289
-20.0824
-2.55403
17.2
41.3101
40.5203
25.4849
40.209
18.1261
22.6847
-1.8985
14.5463
62.1299
63.3398
42.9128
51.4605
52.1906
63.493
69.8766
4.13003
-55.898
-34.5903
-24.0128
-3.25211
-23.6564
-38.2884
-17.7681
-10.2016
-3.60048
-61.7724
-77.3433
-5.04224
29.7972
-32.9471
-91.1278
-96.9193
-51.8996
-36.5475
-48.7858
4.4081
78.3899
21.5598
24.8883
59.0585
81.0767
76.7466
44.8108
23.1284
44.5609
52.1608
38.1774
-0.276074
-11.8638
37.6006
80.0828
76.8754
50.7805
-0.16723
-12.48
-37.6419
-67.283
-65.0913
-111.707
-158.544
-128.721
-117.242
-110.313
-82.1187
-14.5417
27.2141
50.8251
46.0325
51.0769
102.146
68.9969
59.8057
48.8164
19.0563
-6.71879
-0.353452
26.2415
57.0959
106.32
87.8521
18.967
-14.9356
5.13344
27.0172
9.97397
-18.2999
-32.7149
-36.9064
-75.5048
-93.2757
-81.5056
-82.8225
-53.7217
-23.6684
30.6874
70.6817
13.2091
-9.26971
-37.0866
-26.338
3.17503
15.6329
-7.74612
-10.9024
5.51325
40.5077
47.881
67.0871
65.5144
20.3006
18.8857
0.0103199
-12.2065
-22.4296
-32.9829
-31.4196
-24.0893
-9.91735
6.37574
50.7523
58.3673
26.646
22.6965
8.66196
7.40727
12.9428
11.0022
-17.2211
-13.8093
-23.8342
-74.7197
-92.741
-111.488
-91.0451
-57.2066
-24.139
54.8352
99.5176
47.6929
4.8074
15.528
62.8393
62.508
29.1797
-0.575306
10.6459
5.07775
-13.8293
-35.4295
-26.1653
22.856
46.9028
46.6828
36.4208
6.699
-59.5242
-45.066
-33.7985
3.43502
4.95279
-11.7485
-6.79914
28.6088
38.5415
-7.81941
-38.1031
-31.8224
-37.2574
-4.14518
17.4879
9.57829
23.2314
54.2556
43.8111
6.82509
9.05709
-27.3625
-50.3351
-31.5378
-9.57043
0.926131
7.1714
-24.158
-58.7401
-94.423
-92.6452
-55.3665
2.98986
18.8109
55.134
85.3982
59.3866
29.0153
26.8953
26.4307
22.038
28.221
39.2073
47.4724
11.3685
-5.61198
-62.6424
-75.324
-39.9231
7.64705
49.6703
38.4466
24.8198
20.0328
3.28958
5.69355
29.5706
52.0468
49.6125
32.664
-0.63775
-76.3273
-82.7504
-38.8278
19.7341
23.7018
36.483
47.3806
23.1658
-31.3964
-63.4353
-60.9322
-79.2613
-89.3069
-71.2624
-102.756
-103.078
-62.8389
-56.961
-42.5645
13.99
84.6477
102.733
82.4943
75.9506
85.0457
95.2697
83.6983
73.2122
73.2947
44.6598
17.0252
16.8353
28.9246
41.4785
50.5478
28.3203
-29.3397
-50.6692
-65.0839
-81.8522
-77.4449
-94.6501
-135.088
-122.89
-78.6416
-33.0631
-1.30792
28.3894
78.4337
135.897
146.293
42.7246
-73.4073
-141.821
-93.7959
-26.7568
0.0720291
36.9225
66.5164
75.9118
45.4222
-5.11628
11.7916
41.4385
18.5966
-4.44892
-8.20008
-10.2455
-14.2214
-51.7577
-56.591
-1.30681
77.4967
122.288
94.8726
62.6943
48.3121
5.30911
-68.9541
-125.485
-78.4342
-35.8568
-48.4961
-31.4429
-39.5093
-23.4548
6.24263
-18.8704
-63.1471
-63.7148
-39.383
17.6109
53.6052
80.4117
89.0877
62.4748
23.3897
-2.10223
29.609
36.7589
29.2264
33.3262
5.40153
-49.5357
-34.5897
-26.063
-22.9894
-31.7318
-3.46803
-9.4458
-4.29418
16.9656
6.6751
-25.6405
-17.303
12.0231
26.4603
37.212
53.4938
57.2634
37.2392
12.0333
-16.0551
-65.4822
-54.5529
-0.502896
7.77631
-0.374946
-16.5548
-14.1255
-34.4796
-36.6348
-0.957015
21.7432
44.7836
9.0795
-42.3576
-32.1423
-49.8172
-57.5795
-37.3237
-40.1047
32.9687
93.811
97.0857
60.2532
14.0595
-11.921
-5.60637
5.48974
0.208195
-14.8714
-98.2567
-178.575
-180.021
-92.9276
6.19594
62.4334
105.946
149.062
124.525
123.348
85.4387
52.5186
41.6559
1.6696
-22.6539
7.48992
13.8607
-8.48408
-17.5887
-22.1902
-39.7688
2.24495
24.827
11.4971
23.831
-0.104367
-59.0638
-94.0107
-95.4005
-54.0515
2.94803
6.35268
-26.1708
-9.31771
-28.2732
-42.6479
-11.0184
17.592
17.0383
11.7505
59.9396
121.472
79.2903
37.7759
-14.1047
-63.8569
-34.336
-5.09768
-27.6769
-45.5835
-49.0816
-50.4977
-44.2536
-49.1697
-38.6417
-9.86618
5.01216
18.0031
51.7998
75.8322
80.7463
34.5216
31.2193
73.6117
90.0855
75.2256
16.8805
22.7644
74.7506
30.9096
-33.6389
-61.3413
-72.2812
-102.799
-95.5805
-53.2234
-8.55071
-9.19703
-17.0698
-38.9135
-42.2304
-27.7259
-22.3897
-15.8873
3.44508
-21.2336
-10.5204
-9.34459
-7.84154
37.2481
58.5602
66.4157
88.8378
81.3131
87.1067
54.9249
-12.4766
-51.7442
-56.4281
-63.5313
-53.3793
8.82293
33.098
-34.9808
-95.4771
-66.3114
-54.5756
-32.5934
5.02072
6.71477
13.0628
37.6701
44.1599
68.1402
77.306
86.0593
101.441
100.601
54.6143
-27.2858
-71.5578
-82.659
-58.1922
-29.9902
3.97455
33.8059
48.8414
3.61111
-57.7981
-60.4349
-32.3396
-1.67962
-7.19003
-2.95353
5.04362
-3.80691
-47.7891
-91.5852
-77.8418
7.5019
62.5085
46.0794
28.521
16.8491
14.6255
-20.4289
-47.1738
-15.6663
22.6199
38.3874
14.238
-14.6269
-7.10355
9.5811
5.1616
-37.4993
0.265111
40.2739
12.8703
-16.1143
-11.4932
-14.8356
-5.1305
19.2833
46.1336
88.0692
97.4979
68.3319
26.0822
17.4289
27.2974
-4.58226
-60.7595
-70.4853
-67.8326
-35.4585
-34.1119
-27.1839
-11.0959
-0.486511
0.876713
-30.9649
-74.4905
-79.1561
-74.0764
-44.973
23.2776
40.6144
47.2653
29.0023
-7.24284
-21.9649
16.4231
57.538
59.153
35.6061
14.5255
-0.383386
20.8102
43.3336
40.4863
56.4808
59.8231
44.1558
-20.3764
-27.6376
-23.1484
-24.1144
-45.7014
-32.8576
-3.42945
19.6245
18.7842
-11.2033
-46.4453
-33.6834
-0.979069
30.6444
24.1477
-0.236433
-39.9484
-66.6791
-89.0828
-106.434
-62.0672
-20.4035
14.7018
38.3746
52.79
54.9493
31.3513
17.2447
8.66718
5.14081
32.1605
26.1952
-3.95917
-13.9519
-20.3297
53.0258
81.3908
68.3682
69.6333
60.9029
52.7813
28.651
-6.68091
-23.7353
-58.5766
-92.1642
-117.297
-134.347
-112.035
-66.4188
-9.16404
-19.3827
-17.2446
30.8389
69.6636
60.2809
41.8823
46.1468
70.6283
94.2239
30.0828
-58.4969
-46.3202
16.186
21.5795
10.4334
43.523
44.7879
-10.7563
-76.1223
-96.8187
-13.903
12.0688
-26.0883
-16.9788
9.30835
-25.6726
-25.5329
4.76709
18.1553
38.9242
55.6635
31.4958
0.944643
-31.945
-23.2594
-14.1873
29.7736
57.2051
49.366
44.1928
35.7737
-8.95194
-48.1348
-40.8817
-55.9744
-18.5037
-20.9376
-39.0343
-46.5167
5.3393
4.44659
-31.509
-37.6312
9.50349
3.41871
-26.2332
-12.2698
8.82836
31.7368
43.6243
-18.9462
-16.7222
21.3722
21.2715
26.6587
52.3343
36.4576
19.7524
13.1797
-27.9683
-15.8702
-0.793472
4.70514
27.0971
50.0971
95.246
97.5431
34.3129
-21.6766
-78.2979
-90.494
-70.1161
-67.225
-42.2138
-48.621
-55.5462
-38.2154
-15.242
-2.80565
-2.1216
40.5986
75.7202
36.0994
10.1862
13.7575
-22.9235
-47.1353
-9.67014
16.0272
6.8995
44.5284
38.7706
28.68
9.58654
-7.03179
-20.901
-35.9715
-36.7055
-3.03713
34.3274
20.1312
13.1703
5.66307
12.9164
6.58292
15.2084
27.3912
36.832
6.77685
20.754
44.1337
59.5761
62.4064
12.7172
-42.986
-90.8541
-111.133
-79.9649
-72.2416
-44.9565
-36.1825
-50.5448
-9.54275
7.96289
5.50135
5.48029
-42.6083
-16.3427
46.6179
53.8941
38.8321
25.1495
24.5612
21.9933
42.6284
81.1653
99.1279
72.8232
40.8556
14.8159
-7.5605
-48.2381
-95.8514
-92.1941
-77.6365
-99.3925
-94.1467
-84.2727
-41.7348
6.5065
23.8167
45.5645
51.5759
57.0902
55.8908
63.0092
90.2745
73.0236
51.0923
44.0886
16.8148
-8.61176
-9.22812
-12.9343
-8.70186
2.11262
24.6221
32.7307
-27.636
-64.427
-75.4716
-74.7036
-58.2408
-52.3309
-30.5437
6.4198
7.88141
-11.9558
-24.1647
-37.6007
-28.5749
12.3071
13.8841
5.51995
-1.51375
-20.9506
-11.2024
16.7757
26.5648
4.7824
32.8189
87.1957
112.594
136.589
71.2794
-27.1804
-66.2985
-48.318
-64.1512
-62.6702
-28.8666
22.0988
60.676
39.0856
40.4582
51.7255
52.0101
26.4415
22.4258
-14.6952
-74.8442
-103.642
-123.712
-119.428
-52.5275
-21.9498
-7.42823
0.551995
37.2392
74.1918
52.1487
29.389
-4.85459
-19.2139
-22.5048
12.1923
-5.96678
-52.3493
-57.7751
-29.3044
31.7143
41.8583
7.47872
-23.2973
-19.2183
35.0183
101.901
107.744
60.3031
19.0539
7.99824
7.00091
2.83305
5.68262
0.640891
-1.28183
5.42443
-15.3452
8.12085
37.3258
5.2262
-51.1481
-34.9648
-2.3529
-2.58654
-36.1851
-65.1853
-83.9225
-46.653
-48.3223
-37.8285
-36.6481
-20.118
-22.6788
2.53519
26.8303
21.1728
44.8739
58.6414
78.4209
71.8146
50.7631
25.0831
-3.92356
-29.239
-28.2621
-43.91
-15.4265
27.7034
7.451
12.3199
21.2512
15.8038
14.8371
15.1136
21.728
56.3639
53.8494
-50.5109
-84.3966
-65.3674
-34.701
-17.5719
-60.1859
-68.3692
-16.6002
-21.0112
-20.6548
-14.4117
25.7935
55.7829
49.7965
28.08
2.00369
9.80685
23.3188
-23.2013
-18.3705
22.9903
9.20944
13.4221
33.3552
37.7604
28.7955
13.6946
4.29873
12.2749
-8.00687
4.78834
34.6109
65.3531
30.4667
-28.3282
-33.9414
-75.4517
-96.0899
-54.2792
-31.0489
21.8547
51.8291
69.9254
49.8017
-1.48812
-19.75
-9.89234
-6.41882
3.98304
5.1707
-60.3496
-80.0043
-106.403
-93.0867
-21.4894
37.3507
49.533
65.5076
49.1023
8.58966
11.7026
21.5779
0.918437
-11.8039
-21.5644
44.1048
98.3685
25.7336
-34.8082
-35.8834
-34.5673
-59.2025
-80.2649
-64.2397
-81.8233
-63.5145
-15.2
29.1887
80.4072
114.546
120.519
128.521
115.132
87.3676
88.4996
54.8546
-14.3547
-25.4662
-21.7262
-19.0239
11.2732
7.887
-43.3386
-55.3476
3.77186
18.0834
-28.9366
-120.339
-175.952
-167.803
-123.714
-110.445
-94.6219
-42.82
19.6764
42.2302
41.6244
47.6302
77.129
76.7672
47.976
37.7785
59.2189
75.5198
87.6452
70.2431
54.0979
37.6813
-2.75117
2.05863
-7.51484
-22.8498
-27.9197
-7.76164
13.184
10.2621
-33.0382
-64.4025
-69.8798
-91.5149
-103.004
-46.5319
56.1683
64.4637
51.3806
50.6463
34.1306
26.6477
62.1298
36.9085
-22.6063
-58.6404
-83.6821
-87.7298
-64.5584
-16.7914
29.8681
80.0281
76.5307
89.9747
102.472
37.5554
-45.8317
-64.1701
-60.4694
-60.6771
-41.799
5.23845
50.0413
58.2659
0.303785
-11.6064
-7.57172
-26.6266
-80.8795
-103.872
-71.8727
-26.6376
-41.195
-41.0815
-24.9525
7.78031
58.645
80.5692
77.296
84.7228
121.058
80.3616
46.5953
39.5389
41.3111
30.4251
6.49733
-14.2186
10.8752
-13.7462
-23.4783
-12.8956
-13.2138
-50.2241
-26.6641
-25.4173
-12.9326
-32.1406
-103.719
-118.35
-128.266
-91.6814
-38.6275
0.496269
25.6246
54.5341
85.5091
61.5047
46.9269
45.7894
39.4926
0.508235
-5.51079
31.2697
61.3281
45.3246
1.71182
0.350451
15.7099
1.04073
-18.9037
-23.8808
-32.321
-69.2407
-48.791
-48.1504
-57.8441
-35.7077
-12.1442
21.7166
34.1336
66.42
129.015
99.9031
34.4083
26.8299
-14.6508
-36.0712
-23.8145
-69.7677
-89.021
-64.0773
-39.291
-49.239
-29.7599
33.7437
49.7624
41.8418
49.2474
69.3125
77.2249
54.6817
24.2145
28.47
42.9833
13.1379
-29.9219
-64.271
-69.8528
-30.985
9.88258
12.6135
-8.76529
20.4291
19.9818
-15.9374
-59.2879
-58.7349
-74.2498
-80.1043
-34.3954
-12.3854
-13.0549
-7.33745
-63.625
-19.8492
30.9937
73.4588
80.2906
87.732
94.4649
47.328
-42.0536
-33.6131
-8.46336
-7.98518
-2.67147
35.7455
60.8249
74.9001
13.9773
-54.0492
-37.2779
-23.6421
-10.379
-11.2271
-0.969417
33.1274
4.71929
2.49391
32.4318
72.5452
89.2342
5.13548
-110.769
-142.656
-73.9215
-51.353
-77.6695
-90.1159
-78.6453
-57.7073
-48.249
-15.3787
51.7936
93.3265
67.3126
27.8365
47.9549
58.095
46.7346
45.9817
84.6697
80.3986
70.7817
33.9017
-14.2752
-42.4384
-53.6224
-58.9697
-19.6878
20.002
45.812
43.1695
17.2301
-13.8476
-8.84445
-18.5362
23.835
12.1795
-48.8035
-100.12
-101.02
-60.1516
-18.8505
9.71742
54.0859
69.0386
54.746
5.91917
-25.351
-35.4347
-61.5098
-32.4182
-4.05072
-0.729348
-1.17283
9.03159
2.81752
-22.0505
-7.73223
9.05965
-1.30039
4.47322
28.0124
47.8584
33.4597
8.36356
38.0706
60.4469
46.6217
36.8704
35.7635
14.77
-23.288
-58.0027
-69.9859
-51.7235
-45.9422
-15.8502
7.42004
27.0527
-9.43597
-15.6274
-2.7698
-16.3773
-56.3867
-56.2671
-26.4663
25.5879
40.0799
48.7994
38.0949
0.177901
-15.8872
-15.4097
18.2424
66.8275
65.4267
13.1406
-16.8215
-40.544
-59.9457
-79.6522
-69.881
-46.9813
17.9756
93.7283
83.8825
21.9459
-26.007
-14.8583
11.4166
15.8411
11.0475
28.907
-3.97789
-38.3295
-47.4851
-21.7256
25.8733
59.5346
128.642
142.43
69.912
40.0688
29.3601
-6.78778
-33.3241
-59.1288
-98.0865
-139.474
-126.636
-102.844
-46.3166
-7.87708
-14.7839
-36.535
