-14.4616
5.8333
12.6924
-15.2527
-33.4836
-47.087
-62.0528
-40.5115
-24.9908
-4.35502
10.3788
21.9263
38.7252
51.2189
45.0336
27.3146
9.38725
-7.58816
-12.1546
4.1996
31.8069
37.9856
34.0917
16.9111
-3.30466
-22.643
-30.232
-14.6106
-2.37799
6.01382
11.2539
4.97763
1.16111
-7.33863
-14.3011
-0.118924
3.5589
10.5691
4.55495
12.2159
50.384
55.3723
22.7218
6.76391
-22.5523
-61.2945
-66.7419
-62.2635
-40.3829
-9.61558
14.5946
16.4759
21.1948
16.7173
9.5135
0.850973
-7.45023
-9.2364
-8.14923
-39.434
-84.2391
-92.8474
-59.6308
-40.8358
-14.3553
24.8716
52.1615
57.3151
50.3842
38.857
26.4488
31.2744
34.0505
31.8202
15.589
25.2523
15.4588
11.9897
55.2817
72.6207
48.0742
26.0783
9.27543
-13.025
-33.5422
-40.024
-22.6903
-13.3893
-9.21741
-16.1051
-46.2089
-56.9258
-45.4892
-8.26654
32.3856
23.4962
16.235
34.8148
29.0826
-9.11293
-28.9778
-43.3852
-38.2675
-27.5494
-19.2913
-13.858
-8.89738
11.8408
-3.19129
-32.0578
-29.6544
-34.0322
-39.8408
-28.6659
-27.7421
-36.5794
-8.44029
10.1612
16.4653
26.499
44.077
71.9134
75.0025
64.1844
70.4508
88.7715
84.6391
40.5669
-3.27375
-13.2904
-35.2828
-56.3599
-50.6692
-45.1492
-28.3669
-5.78298
15.9747
23.3894
42.569
55.695
35.6479
18.8345
-32.6086
-79.2526
-71.8997
-62.8429
-53.5812
-44.3473
-39.4163
-34.8432
1.38261
37.6866
16.026
6.86905
21.3146
16.9859
-0.468883
-0.205769
-1.16833
2.88724
1.8958
-9.69653
2.71841
18.9413
9.64406
-11.9977
-7.69205
18.6301
21.9383
35.6917
67.4967
67.9399
14.2369
-22.516
-39.8303
-39.5767
-37.1522
-21.7278
-25.3771
-4.55117
16.6189
9.63373
25.899
54.7659
51.3656
31.1198
-1.83958
-15.1396
-9.58574
-27.7499
-62.8505
-44.5256
46.0655
63.5484
-2.78054
-39.9625
-43.6963
-45.0125
-54.075
-34.6233
-22.3926
-13.0488
-5.21651
8.58913
16.5421
18.4169
11.1636
-10.6925
-17.0489
-4.29242
5.82555
13.6002
11.1518
13.4829
35.962
58.7822
61.994
40.0285
18.668
-19.0773
-17.8963
-9.53724
-12.3888
-18.3677
-23.4685
-2.18191
1.88141
16.2351
33.9378
61.4156
59.6395
16.7038
-10.3657
-12.1456
0.540928
19.4628
5.1264
-37.9785
-53.2718
-49.585
-37.2696
-40.1576
-43.725
-65.9436
-74.1276
-67.6949
-23.5309
13.0941
27.7383
48.7766
34.9396
5.94247
1.39512
5.35148
12.3357
20.0822
24.5164
48.3811
61.303
35.4619
8.8364
15.1184
31.3361
38.1518
37.8966
32.5463
19.6776
-22.1577
-74.0502
-97.029
-88.7833
-62.0108
-36.3041
-16.6546
38.7341
47.2539
50.6337
48.3643
23.3207
2.44984
1.13726
-17.3025
-40.9603
-16.4915
16.5682
36.795
27.2988
-4.07978
-11.3176
-19.1019
-16.8346
8.41786
16.2753
26.5828
7.42167
-0.873892
0.992643
-18.2988
-34.8452
-43.3651
-41.575
-18.8079
-11.8903
-10.1038
2.98295
-8.20363
-24.9068
22.9725
59.291
54.1758
39.3409
21.1056
4.022
-8.00665
-20.7646
-26.5209
-25.4089
-17.9474
-9.82781
-18.8073
-31.8719
-11.4177
28.5856
38.1008
37.0656
63.0692
86.9488
13.3053
-28.564
-30.1483
-32.3775
-24.0732
-20.5458
-21.0914
1.95936
4.96389
3.36293
-5.3157
16.151
34.9609
43.9631
40.5529
30.3126
13.3711
-38.1944
-78.332
-82.4633
-85.3897
-66.2174
-32.9485
7.13995
23.1624
19.6171
9.7391
6.89641
7.32276
1.77116
-1.61715
0.0225821
22.953
22.603
14.0191
31.4624
42.0769
30.0283
23.0097
40.8058
58.9389
33.986
-2.11472
-18.9542
-9.61571
-4.68549
8.35252
2.9342
-34.963
-44.5698
-13.2439
29.499
56.3997
40.2809
-8.00323
-58.401
-97.6869
-110.869
-95.168
-72.6613
-52.8938
-25.8422
9.61762
42.8146
62.4291
83.6319
46.0389
12.1914
11.5037
5.14727
14.1898
1.82638
-15.8196
1.84246
12.5415
-13.1397
-20.4566
8.80031
16.4702
1.04224
51.2185
89.2652
52.4312
19.8241
-13.8544
-36.2915
-16.1509
-11.3137
-7.15119
6.08648
4.01338
-20.4577
-20.6456
-34.7288
-43.8624
-31.6384
-23.6532
-22.0356
-9.02839
10.8673
25.0807
54.036
99.5218
80.4815
27.9375
-14.5372
-19.8725
-15.6063
-20.7082
-33.2891
-61.2877
-61.4276
-49.0617
-20.5854
-0.126512
17.0036
46.2329
49.4814
-1.07958
-36.1126
-41.9722
-49.7059
-77.3184
-62.6447
-18.4683
22.464
23.5455
5.3558
24.577
56.02
76.1492
60.0242
22.8143
17.0326
34.8726
51.52
40.5764
47.4749
47.3845
16.8435
-17.6245
-36.2061
-48.5898
-44.3627
-47.0319
-58.7033
-33.5719
-10.5708
3.9273
-4.50031
4.21292
11.5175
25.4884
46.8701
29.7982
-3.1094
-27.3707
-52.3256
-37.4129
-12.1141
-5.88045
-6.95831
23.1435
54.778
38.4575
3.9575
-13.6063
-1.58308
25.2558
10.2156
-40.0548
-73.5925
-85.1192
-95.2212
-71.8594
-43.2915
-2.74049
53.2321
78.1451
77.8795
51.3839
18.5729
15.3816
3.48505
14.3144
42.774
39.2241
26.5106
3.3728
-13.8695
4.99478
43.3549
57.576
51.0008
41.0631
16.7827
-1.95428
-31.4943
-48.3339
-57.0607
-53.8022
-53.8726
-67.2209
-54.603
-20.9854
-7.15972
-6.48483
5.88013
-26.1697
-43.8693
-13.7401
-2.43486
5.53841
7.5886
26.0123
61.3965
72.759
35.0316
-3.06386
-21.8247
-7.57441
1.70745
-18.2019
-52.8423
-75.0244
-49.2688
4.02707
35.663
84.1668
153.281
157.874
86.8599
12.415
-45.1822
-86.0863
-98.0392
-86.8112
-58.5705
-26.0345
9.16234
34.8751
58.0856
54.8256
18.1588
-14.9668
-44.3906
-58.5613
-61.2192
-39.2091
-38.5237
-19.0475
38.8771
70.3481
86.5908
66.493
31.0664
-2.8381
-14.0442
-42.8395
-73.8755
-70.394
-53.3484
-27.0419
-8.16887
-12.4029
-0.522736
55.728
100.876
70.5441
30.4997
14.0108
-3.03219
-6.3215
19.3456
13.4937
-5.79432
-20.5779
-14.1793
19.8467
42.1378
39.2731
-5.05956
-37.5379
-5.19813
2.08186
-34.8289
-68.4284
-84.1344
-70.7551
-37.4371
-35.831
-17.5113
-12.6266
-15.9378
7.61064
32.1373
36.065
56.0625
64.741
43.6671
31.5575
38.1864
33.7063
17.7335
6.35866
22.3201
5.44019
-20.1138
-39.1236
-52.3105
-57.1264
-36.8329
0.843914
3.66874
6.78603
16.4102
10.8862
1.27758
-6.34704
-6.37814
-10.2462
17.1481
33.313
30.9277
67.4901
103.399
110.353
49.1938
-15.6934
-53.7568
-79.4934
-87.5904
-75.5199
-53.5399
-25.1706
-12.9502
-3.20005
-20.9981
-55.8356
-49.5514
-37.8614
-27.8144
-19.1583
-10.0546
-0.998656
-32.359
-71.0462
-34.6503
32.8213
56.3116
79.0106
109.915
121.548
113.811
56.0435
13.8398
6.53127
-4.14137
-0.107981
-5.39617
-3.54662
0.423542
9.53047
10.6864
-9.23025
-15.028
-21.661
-26.7301
-19.7101
-9.91246
-11.1285
-23.6638
-32.2031
-36.51
-6.45284
-17.4056
-36.0589
-14.2866
11.9409
25.5264
2.71893
-15.9462
1.30327
9.55497
9.60384
9.83904
-7.01881
-5.55582
5.6239
14.3722
36.3405
35.2199
16.0377
-5.9635
-51.2857
-72.1428
-85.3946
-97.6916
-66.8527
-21.5891
27.5248
63.8342
80.0123
91.8727
74.1692
64.2893
67.0766
35.1125
2.91041
-10.3726
-42.0357
-46.1142
-28.7929
-20.1476
18.2249
63.9906
99.7768
110.226
78.4132
13.0874
-32.4227
-83.887
-116.836
-119.914
-112.658
-87.5048
-40.7
22.0109
13.699
-5.50797
-4.52367
-5.5522
-10.1758
-5.30149
-8.95753
-13.7966
-13.985
-11.6308
-13.2002
5.01906
26.4068
46.8612
34.9695
28.2532
58.7392
56.9864
44.8886
26.322
46.8319
54.0964
34.4322
2.6026
-19.9403
-30.7461
-16.5937
1.0669
0.247062
-9.66584
-28.2906
-26.9175
-8.10333
-28.6541
-42.1094
-35.8122
-22.2035
-15.8338
-15.3599
11.4987
28.8524
13.2627
15.7957
22.7545
-11.2282
-29.4334
-6.37104
30.5107
53.5922
43.5194
28.7327
0.00385788
-55.8579
-89.136
-74.3843
-41.0331
-25.5932
-17.8774
-24.5277
-29.3962
-20.9692
9.97137
24.6421
33.2204
52.5762
63.699
49.4379
23.7361
-3.20907
-2.28759
17.9884
38.3104
25.2402
44.3991
67.8835
37.4496
6.90277
-6.46892
-28.863
-55.7412
-56.6306
-49.5768
-46.3078
-40.5164
-11.0503
22.6191
54.3275
70.8378
37.2066
-14.1778
-43.0808
-58.1668
-47.1636
-29.7287
-22.7374
-2.52956
2.40569
1.77906
9.75771
20.4711
0.369887
-33.2251
-32.5546
-16.9448
-2.76863
-6.65071
-4.20169
5.71139
39.6068
69.9487
66.1145
51.4952
42.4293
38.8738
23.3153
-1.98204
-32.2476
-49.0489
-56.3155
-64.5225
-33.1565
9.78798
20.9351
8.41972
6.99756
26.866
23.5143
-18.1424
-27.0422
-19.0735
-16.5437
-14.383
6.30157
24.1053
2.78039
-25.2947
-18.318
21.5212
61.79
33.1951
8.42408
13.7772
11.7577
8.88472
-5.11896
-32.195
-49.7268
-45.5467
-37.4183
-26.0342
-17.845
0.142061
18.6791
23.2614
27.9185
23.1664
22.896
19.7386
25.3026
57.3051
49.6884
5.9031
-23.4235
-48.5118
-62.3397
-70.5937
-69.1452
-37.0645
-5.02211
15.2977
37.9109
55.4848
46.9699
20.4514
9.57747
14.6157
8.57257
-14.3513
-37.1713
-32.0679
-23.115
-8.68823
11.0225
25.6028
29.9488
26.1575
18.6034
17.8275
18.1701
11.6967
6.65519
-15.9989
-26.8405
-33.8587
-35.1965
-29.947
-10.6049
-7.4834
-6.29474
-20.2534
-16.2723
-2.8598
2.19592
27.5259
41.7296
29.3721
23.5599
17.3884
-2.65353
-6.98716
-2.99437
2.21858
-6.80591
-14.8992
-11.9508
8.86616
27.1277
30.8716
27.6954
18.2075
-12.2262
-44.0277
-60.5379
-77.5818
-67.9443
-11.1596
44.2127
68.7419
55.9899
36.7465
15.7308
11.0369
-13.6229
-49.9273
-26.0084
-8.9942
-4.09457
-8.32959
-19.9099
-6.06813
10.8591
40.1444
56.7301
71.5028
63.921
18.4872
-41.3583
-61.887
-47.9872
-34.5583
-44.8855
-38.1814
1.80173
32.8609
38.6302
43.2083
10.4325
-26.4755
-27.6982
-30.1683
-2.87196
34.3807
31.5553
7.67007
3.01633
-8.99322
-25.0916
-35.3586
-40.8015
-26.0104
3.19966
10.8063
29.6227
45.5287
33.6556
0.504024
-21.8755
-32.2258
-40.1647
-45.6315
-39.6945
-27.7591
-8.98237
2.75367
19.7804
66.1445
100.916
108.675
84.009
45.9144
17.9482
-10.7602
-25.9599
-20.5272
-36.7588
-33.5649
-10.1316
-0.0225424
-9.31175
-28.4923
-39.0168
-38.7749
-21.3144
-9.66935
-26.2295
-33.3694
-41.6472
-40.7906
-9.01895
17.004
26.0818
23.9949
3.06866
1.98573
15.8697
26.5344
16.269
14.6678
34.3554
47.9361
23.5548
-8.44646
-25.4975
-27.2477
-11.1444
-6.93303
1.39771
34.7835
42.4563
11.7525
15.2439
19.0643
-10.002
-29.7309
-49.9691
-55.0203
-46.7512
-15.8648
-5.16513
3.75146
23.9948
58.5019
48.4523
10.6103
-18.1439
-39.7107
-51.5392
-50.7931
-43.6997
-19.3319
-10.0378
10.0528
63.8396
76.66
66.5466
54.344
50.0412
28.78
-1.10081
-20.2154
-43.926
-55.8461
-30.1903
10.914
31.841
33.6359
35.3094
12.7708
-7.51385
-11.1734
-22.3032
-57.9993
-88.5984
-84.5919
-54.6256
-9.56873
33.8793
65.9778
67.6204
48.3716
29.1042
-14.5008
-37.9862
-20.1749
17.6366
39.2927
18.2961
1.06925
17.5911
20.2541
-1.38776
-5.24998
-7.66135
-8.13959
-13.0067
-32.6735
-42.7649
-49.5876
-34.6172
-7.40157
11.6627
23.233
29.7522
16.7824
-3.55634
-11.9572
-7.67648
-7.37214
-16.9802
-24.2308
-27.5586
-13.0711
12.5566
16.2252
13.1634
17.2193
33.8531
33.1125
27.9712
17.5778
13.1925
10.531
8.27628
10.4321
6.30324
3.8831
10.8458
8.79343
8.90624
10.3204
21.3321
24.7197
6.19565
-9.58219
-33.9889
-65.6779
-72.8126
-38.9269
0.0279115
23.5718
32.7243
19.1977
1.85843
-19.4114
-28.759
-14.6677
-28.9926
-33.3274
-18.1874
-28.3732
-17.7468
5.47898
32.4048
51.7465
62.0045
81.4051
53.5753
2.10859
-18.6688
-20.8821
-25.1794
-28.807
-25.8495
-24.2184
-27.4613
-22.0837
-7.02199
3.01683
-2.33213
-0.386922
7.15532
4.06035
-5.09138
-2.10236
5.58155
-4.49089
-10.9667
-6.32869
-2.62878
6.01486
19.8693
38.6605
45.4023
40.896
39.4536
18.5719
11.9804
18.4172
-5.46318
-19.4932
-17.0242
-11.011
-16.8728
-33.456
-9.39104
-11.979
-27.9983
-37.0426
-36.4836
-21.0841
-16.1489
9.43928
54.4764
56.1597
39.036
13.4097
2.37478
-5.64976
-7.89318
-3.674
-16.6429
-17.2789
-14.4415
-7.73553
-6.16681
18.0399
56.4371
64.6281
16.5085
-29.549
-53.2064
-64.9796
-69.2284
-46.4115
-34.3455
-15.978
8.08787
27.9227
32.9372
38.9978
28.7894
7.38754
-10.3449
-12.1537
-8.00635
-16.3656
-17.6433
-9.83449
5.31607
23.6116
45.9807
47.2856
29.2286
10.6163
6.58895
9.18811
1.24361
-2.65023
2.09848
0.00583024
22.0091
20.8911
4.21795
16.4883
26.6257
22.9535
-6.30623
-25.5244
-34.3052
-46.0169
-35.8015
-42.4161
-52.9784
-47.9378
-38.9419
-29.9597
-4.09875
15.1627
36.9359
47.3534
7.611
-22.2127
-13.1134
-16.8583
-42.5687
-47.363
-12.1154
42.0866
88.9439
106.101
91.7894
78.7089
56.7778
11.8212
-31.97
-54.1293
-64.2355
-64.4206
-33.8507
-3.26227
13.9878
12.1607
16.3978
19.3429
3.09095
-7.03095
-20.5796
-32.9734
-28.88
-16.2906
-15.024
-13.8899
-25.0105
-15.591
32.3808
44.8236
27.5949
10.2633
-6.93341
-31.8646
-36.4237
-2.323
12.1647
-1.2489
-4.58604
17.0317
24.4181
9.45587
-3.1666
-6.85309
-6.72285
-0.711576
20.2928
30.2197
27.8248
39.9891
35.419
-2.37595
-28.928
-25.735
2.92764
10.7524
11.413
3.03113
-10.1106
-36.1729
-54.2459
-66.2455
-41.8768
7.99036
30.8599
57.7645
70.5102
30.819
-8.09681
-13.8195
2.16391
9.48281
-5.88149
-21.5051
-34.5478
-45.6072
-43.6686
-19.7666
-1.32514
9.10877
15.9754
28.9226
16.336
-5.21364
-13.3447
-15.1529
-17.3706
4.13255
5.81102
-5.80683
7.20383
39.0421
38.6837
17.4355
13.6818
15.1645
3.5773
-4.6056
2.24691
0.674996
1.71781
6.83507
-4.5201
-13.8814
-8.1868
-23.7985
-29.5788
-6.17839
15.6338
8.76941
-9.47689
-19.375
-8.23277
17.1064
22.4172
31.8266
47.9848
28.825
-21.0871
-48.2127
-51.5739
-40.9494
-31.955
-32.4829
-36.5463
-8.05711
31.4764
37.3342
30.7792
24.3421
24.761
11.5897
4.81535
20.6484
35.6658
32.5542
5.02476
-28.9452
-14.2694
3.37306
3.85066
-2.30708
-2.72492
3.94549
6.67116
-7.37933
-19.4569
-9.7579
-8.16821
-2.25378
-21.5895
-48.1891
-46.5321
-37.9976
-32.3996
-9.1795
2.44235
35.0658
55.7458
68.4097
67.8819
41.7271
21.824
-5.13222
-29.3871
-57.4664
-71.1858
-54.3068
-20.0948
9.8394
43.1728
74.7206
60.8722
25.3276
-1.43931
-33.7603
-47.9127
-42.9917
-33.4914
-19.6135
-6.76116
12.0457
19.7078
24.2468
31.9672
33.7281
31.9475
17.8466
11.7566
5.52601
-13.5622
-34.2322
0.257557
1.50886
-29.2884
-35.1925
-8.37292
8.4034
14.9111
-1.46047
-5.90853
-3.72726
2.75398
15.7374
13.3177
14.5401
-4.88432
-13.148
-15.8246
-34.0829
-45.7727
-33.9984
-30.6863
14.4284
36.323
32.9792
23.4339
15.9201
11.7589
12.4575
8.08964
11.9807
12.0386
7.79236
2.49352
-3.21947
4.20451
-0.564476
-15.6248
-12.0036
0.633078
-9.29987
-16.4327
-7.25353
-10.5892
-4.81982
-2.28416
2.86258
0.432958
-16.6681
-16.1842
-7.94374
-6.38455
-6.0122
5.88361
10.8258
3.44097
4.65529
11.5219
14.3159
25.5582
33.3596
38.9169
6.38522
-3.01549
1.92963
25.8389
36.9202
0.0289442
-24.1146
-51.9971
-66.3646
-83.3625
-94.6173
-62.1338
3.74721
51.0742
47.6795
58.6018
68.1746
57.7791
58.7638
45.5349
20.7985
9.29482
-2.6419
-32.9644
-44.8753
-33.6992
-24.7873
-8.00246
10.5354
22.4079
27.222
16.1336
-14.0248
-27.1888
-23.9762
-37.6722
-50.0627
-45.7136
-32.554
-36.0847
-18.3149
10.2962
16.5763
11.6299
-0.480199
-9.96697
-34.0585
-26.7812
22.4844
67.9666
72.5139
44.9277
31.6489
37.4718
32.4804
13.7841
3.31203
-3.55037
-26.369
-36.1636
-18.4545
-8.72546
-9.76289
-13.7472
-17.6933
11.4292
45.9433
48.8315
21.0727
4.63546
1.56655
9.13336
15.7962
-8.1634
-23.2751
-31.4383
-37.5414
-44.8995
-32.7087
-15.365
-7.80001
-5.51366
-7.63457
-5.93576
-1.71893
12.1177
18.361
-2.99711
-28.2627
-37.9327
-29.7061
-22.8148
-18.5889
17.3218
60.6019
69.744
77.1066
68.3368
44.7229
41.673
30.0398
6.53679
7.43801
-23.0071
-82.1333
-107.083
-76.6931
-37.7056
-8.19181
5.09258
8.36987
10.4701
-0.624482
-16.4814
-18.8085
-3.60142
0.386303
13.863
20.525
13.9702
21.011
10.4249
-0.656019
13.162
45.0513
64.5597
47.1139
17.1619
2.60165
2.3672
-4.74845
-11.9714
-10.6455
-6.98283
-6.92669
-22.3613
-38.0487
-42.8679
-53.7047
-69.0575
-59.7326
-21.7711
10.2752
33.1103
61.2481
80.0942
82.7751
72.1978
26.7004
-32.9399
-81.7141
-103.234
-92.9875
-32.0642
5.22011
29.3533
36.5276
16.2371
2.55237
-10.7159
-6.38776
33.1668
35.5212
12.7214
8.82737
-3.49106
-11.6027
13.917
18.5054
25.0554
80.432
128.196
102.245
23.7815
-45.9016
-94.55
-80.6439
-53.2067
-10.02
40.0792
13.6528
-38.6
-71.0624
-84.5185
-79.7251
-74.6507
-64.1288
-67.9475
-33.0141
46.3752
75.8977
49.5188
46.9206
38.8523
33.9736
41.9444
34.0216
25.577
29.374
28.6029
7.45626
-1.52063
5.49683
11.2095
-5.65982
-23.4349
-29.1082
-4.94003
19.6269
10.8916
0.00276838
27.497
35.2727
3.77348
-17.7153
-12.3488
-13.0876
-8.83673
-18.6664
-28.1786
-22.8223
-22.4429
-18.7095
0.21998
3.58119
-3.66407
4.55144
-6.05667
-17.0447
-19.2765
-10.4605
-25.7346
-31.3353
-12.6797
12.9665
22.8522
19.0654
35.7063
40.9888
32.3606
19.6626
-10.6053
-22.0088
-44.4252
-37.277
3.31931
14.6755
20.467
22.0651
16.5443
10.6027
8.76569
6.44979
-3.43131
-13.611
-26.4877
-20.5232
-7.90599
-11.9524
-0.575594
36.7224
84.5653
86.7418
67.412
53.1077
26.1595
17.4092
-20.6242
-54.5541
-55.5956
-64.5723
-65.6196
-62.5043
-62.8797
-24.2528
6.2776
-3.18183
-14.1232
-7.2484
-1.89654
-6.80226
-9.9468
3.93524
23.4153
15.0721
8.258
1.25229
8.47981
18.1786
19.8279
-4.50919
-30.6547
-31.566
-7.95357
-2.82465
17.5255
50.7336
43.5313
31.598
10.503
5.77895
4.8557
-8.21625
-13.8013
-10.6763
-12.4701
13.6896
31.3936
26.5744
-5.41373
-17.5427
-0.880807
18.3637
34.654
38.629
37.8369
14.7394
-7.29842
-19.9608
-29.6239
-38.1847
-50.151
-57.5759
-45.574
-26.7518
-1.09028
-4.29461
-8.49453
1.70252
-1.98387
-1.56299
22.8379
27.2352
12.9468
3.35822
-13.1132
-11.7807
-7.53509
-5.60596
-6.88921
-15.8396
-22.6134
-7.67236
20.0991
15.3948
-4.97183
-11.5119
17.8479
29.1874
29.2661
46.9429
43.0263
9.94002
2.67837
5.67263
-0.282049
-10.221
-7.44907
15.0549
1.77564
-7.61509
2.51293
-10.9789
-19.7101
-19.6987
-12.1029
-4.75644
10.1406
-2.80274
-8.97231
19.1905
40.4971
34.2992
5.76274
-32.6895
-43.2795
-28.634
-15.867
-23.8136
-17.9247
-7.12077
7.9788
19.2228
22.963
28.6276
14.5675
-6.97882
-35.3732
-35.242
-17.4688
-40.3183
-47.5847
-6.83609
4.68699
0.163732
6.56195
19.8735
40.1396
50.4444
32.7081
15.9634
15.5151
-3.55152
-38.6635
-28.8579
3.15095
32.4168
36.5473
40.5282
49.5202
47.7692
5.05595
-24
-22.4362
-32.314
-46.5405
-27.3425
-10.5832
-9.49905
3.99368
23.2133
12.9932
-1.62333
-1.93951
9.71215
6.44124
-13.9951
-26.5356
-45.0735
-55.4554
-41.3184
-13.8115
-3.44085
19.4555
57.3173
61.5308
39.3386
20.2377
2.58991
-6.49326
-14.1716
-17.8891
0.16071
20.1139
19.4817
5.80984
-13.3139
-22.5432
-11.3912
-2.81237
-15.2522
-36.6979
-33.0942
-14.3775
7.65994
18.2537
-0.763036
-15.3875
-5.58642
3.63344
-2.7778
-6.04822
-0.377536
27.274
31.7368
14.5541
4.36682
21.5037
27.839
18.1949
15.4982
11.7328
10.6257
7.14506
1.37663
3.35559
10.2733
0.300672
-14.6494
-35.1804
-45.6548
-30.4829
0.213673
6.64743
7.06619
12.3603
16.3643
2.77599
-16.0028
-31.2288
-37.9843
-33.4576
-23.8512
-9.59626
3.72562
2.56361
-18.7217
-28.1529
-7.551
23.7466
39.6908
45.801
56.0929
68.9074
55.9097
43.1887
26.9493
14.7858
21.3653
24.9986
2.41019
-40.4718
-54.81
-53.8285
-70.1275
-61.313
-35.0629
-12.4677
-13.2131
-11.3697
1.17802
-11.7406
-26.7798
-37.9162
-53.5113
-48.498
-14.0322
22.638
21.7257
5.64539
13.2575
34.5908
42.3681
42.8722
57.0381
59.4387
49.3433
33.6357
23.8826
8.69809
2.9882
12.8479
44.5164
62.1293
56.3949
20.1696
-5.85326
-26.8552
-43.1672
-52.7117
-46.2757
-29.3764
-21.1571
-24.8869
-43.5697
-36.4695
-27.0984
-19.0702
-15.5708
-7.02631
-0.500571
2.64728
-14.6145
-42.5948
-49.4334
-30.6821
-20.2158
-5.03725
23.0946
33.5269
26.4656
13.8114
8.01632
-0.973507
-4.07054
5.24505
25.5537
32.1925
23.4143
21.9388
8.97157
17.7042
41.0286
41.254
38.7908
47.3881
20.7283
-36.131
-44.8203
-36.1039
-21.0105
1.57944
4.01365
13.2033
30.2315
8.65922
-16.9826
-27.3185
-21.752
-7.45758
3.59708
-4.59721
-25.9027
-35.6338
-30.2348
-24.6425
-11.7051
4.61882
3.39999
7.7325
13.0172
20.9791
29.2576
23.1239
15.7543
1.35981
-9.48373
3.18199
2.90555
-25.5941
-29.2598
-16.7337
-24.2588
-37.8921
-21.7218
24.1192
33.6404
35.3002
24.0323
6.33663
-1.49294
5.92865
2.59658
-1.98166
-7.07185
-3.94924
15.0964
16.4931
22.2378
22.159
17.1853
10.7205
0.271915
3.2789
3.54071
-21.7968
-25.7299
-23.1615
-18.7213
-0.132471
0.56729
-9.07479
-6.97701
-15.0991
-5.72397
28.6234
29.0331
-6.48598
-13.0489
-0.650138
5.61841
-1.63382
-14.985
-21.6491
-34.687
-59.8137
-59.031
-24.9786
35.9013
83.663
89.6784
70.8979
35.3907
-17.4946
-68.7103
-76.6829
-63.7027
-17.446
10.709
13.5981
9.24622
1.16946
6.6965
25.8437
42.9033
56.3661
66.9466
56.4108
4.21972
-34.1547
-36.2175
-30.8814
-21.5707
11.1497
32.7705
19.2029
0.803123
25.1514
5.13109
-14.7329
-20.1518
-26.9578
-26.7681
-30.7517
-41.948
-38.1455
-16.9413
-20.4245
-15.4374
20.341
32.6134
16.806
6.86105
5.49282
15.6015
13.0056
-0.4364
-30.8488
-36.9103
-22.7813
-7.298
25.3559
31.3119
9.11223
0.544222
-7.35461
-28.0828
-16.5938
2.75129
-35.8685
-42.5204
-4.98295
31.1913
42.8094
19.9606
25.3151
51.4151
49.3114
56.7358
79.3358
72.3507
20.1118
-20.0822
-20.3258
-20.8756
-22.3895
-22.7755
-31.3064
-36.4196
-24.0486
-7.24159
-22.8359
-40.9367
-42.9486
-26.4497
-25.386
-21.3827
-13.0178
9.29715
14.1631
5.4065
19.9609
22.8738
-4.33591
-26.1441
-29.6643
-12.3302
8.97887
15.2605
7.00453
3.4754
4.98504
6.51187
17.752
34.652
45.0247
38.6151
29.2722
15.8479
-2.88493
-11.7565
-22.4354
-23.7123
-26.6503
-25.4145
-4.95833
1.74204
7.82546
0.811588
-11.2164
6.099
32.009
15.2155
10.0807
16.1827
7.98839
-23.1871
-50.399
-72.0358
-58.6074
-22.155
-13.2239
-0.94165
34.9363
73.4468
77.2758
80.8267
51.4578
-4.15886
-20.7298
-26.4894
-23.7278
-3.09936
-4.55679
-23.0879
-15.7635
19.0045
18.2311
-2.27282
-13.4315
-24.9466
-21.9352
-29.6929
-44.7105
-55.883
-55.9373
-21.9355
16.5472
40.0457
52.6687
43.8445
24.263
15.7349
3.57634
-0.449441
-6.13162
-27.9908
-18.9919
-21.6465
0.98052
13.7606
6.06809
28.488
71.7868
59.5674
38.3953
32.6333
20.0073
-2.36798
-23.3812
-49.4169
-67.0389
-69.2918
-43.4888
-9.25496
10.5727
33.3685
50.7278
63.7605
39.8857
17.038
18.1215
10.3287
-18.5881
-27.8799
-39.7214
-73.4905
-88.9774
-60.402
-34.7851
-17.3053
6.93566
18.6781
17.2203
11.0994
7.97175
16.0295
4.85994
-2.04306
9.11406
16.8999
8.82556
-6.85046
-0.356276
41.7693
44.2724
4.41015
1.69055
20.6063
19.9223
13.4085
0.0374153
0.0620794
5.71193
4.87918
-6.00183
-17.1546
-12.9822
10.9999
22.0513
19.4962
-6.84943
-6.55967
-5.69276
-35.5062
-46.8786
-31.8283
-10.4837
-11.4902
5.45193
37.334
45.845
23.1931
10.3971
3.22277
3.44147
28.0733
43.4373
-6.71455
-41.8475
-53.067
-40.7506
-27.9334
-15.3774
5.31322
30.8851
21.9268
0.965556
4.32225
-0.0684072
-21.6007
-29.3543
-22.3095
-28.5103
-40.4195
-22.3466
-23.5498
-30.6884
-0.972367
24.6036
33.4889
37.0703
26.8994
36.6403
55.5155
30.7123
-5.51221
-19.2484
-5.55462
-20.9208
-28.351
-6.09476
15.839
36.8944
43.5146
22.6191
8.19616
14.4053
24.8209
4.48022
-22.9031
-1.70618
25.9569
8.55893
-9.324
-0.293023
30.0725
25.0376
-6.01591
-9.2525
-9.32463
-29.3685
-44.9935
-38.4647
-34.4994
-45.3179
-43.7319
-28.7342
-11.2127
8.63933
38.5446
22.3708
-5.6627
-9.55845
-15.8065
-18.1688
-11.892
-9.0873
-23.32
-32.2165
-35.8151
-23.0002
18.2121
56.9451
65.1244
50.3823
25.8724
-8.6405
-14.0517
2.86424
23.8031
28.8021
20.2166
-1.09777
-14.8278
1.15649
-4.07259
-17.3313
2.60199
37.6521
68.8124
66.2546
30.1951
-24.5898
-42.5717
-44.4478
-36.0063
-13.6443
1.13635
4.99416
4.52465
7.65683
3.0907
15.6463
45.958
30.2239
-5.72153
-23.53
-29.6819
-37.328
-46.8862
-41.2752
-27.2426
-20.5146
-8.28806
2.83468
-3.79643
-11.1528
-13.4968
-12.1942
-2.67475
4.45627
31.6071
39.1555
10.8675
-11.7945
1.04527
22.8542
22.9761
8.4788
-3.4704
0.121481
-21.2518
-62.5936
-59.3798
-22.8835
-11.1343
-10.68
14.2694
36.8233
48.8284
75.5939
75.6576
32.0466
11.6268
2.91722
-9.74948
-25.0247
-31.9202
-12.1601
24.1769
32.309
34.7216
48.3345
43.5771
28.049
14.1204
5.12259
-12.4816
-37.2246
-65.8304
-76.8446
-79.8185
-67.6786
-44.074
-4.97631
8.58192
18.9418
4.37325
-36.4636
-70.6203
-71.3768
-33.6237
18.8421
66.3777
125.183
159.097
148.529
81.6267
-4.6489
-52.782
-82.8067
-77.109
-67.8483
-75.0578
-54.6227
-18.2247
-10.8269
4.71067
32.8894
35.6827
31.7789
16.9229
6.22098
-7.58866
-24.9482
-27.0069
-25.8169
-14.0965
22.0407
19.0056
16.9357
40.8624
59.8899
47.8647
36.7398
18.4173
-12.7213
-47.1115
-30.5607
15.7991
30.7524
24.3648
32.4679
25.6861
-21.0808
-63.6887
-74.277
-53.3442
-40.0755
-22.6137
-2.42869
3.6711
16.3498
21.0956
16.8638
25.5835
33.2027
36.8835
31.6712
14.037
11.1069
10.642
-16.8801
-47.5534
-57.6515
-45.63
-33.964
-32.7646
-22.7897
8.96526
18.9326
1.44045
2.73895
25.4843
54.3837
81.0521
64.7055
30.7898
-13.8158
-62.679
-85.5328
-78.3394
-63.175
-18.6046
10.3206
31.9088
72.3681
82.3095
52.6996
12.8781
-28.9093
-37.3315
-31.7011
-11.1072
-2.15989
-20.2671
-24.0369
-2.28556
7.39594
4.335
11.7629
28.0933
37.687
41.07
54.4357
41.2798
-1.35206
-22.6323
-8.67457
2.53876
12.73
3.43786
-11.8418
-37.4897
-62.4844
-76.8488
-67.1137
-34.0397
-1.06808
12.685
11.1081
0.222268
1.8506
-11.8982
-16.0658
-1.94548
11.3268
51.7529
82.0461
59.7932
54.0712
42.9151
-13.1849
-39.3142
-51.7415
-56.329
-29.6673
12.2732
6.96693
-2.57121
5.29574
11.9776
23.0644
28.8403
28.8227
19.776
-20.2189
-68.3727
-95.5203
-73.5202
-26.0564
21.7881
58.6173
56.0104
44.8693
47.1831
43.2322
16.2117
-10.7596
-16.3682
-11.3956
4.43239
4.3696
-9.61434
-30.3118
-30.2875
-4.81896
7.44109
8.42734
16.4499
11.3555
5.88847
13.4895
12.0155
-2.08628
-51.4786
-87.3876
-105.607
-80.5881
-25.9611
21.6169
37.8126
63.7615
78.6637
55.3429
17.456
8.88985
21.9689
54.983
64.4335
31.7229
1.23883
-15.3285
-23.1863
-29.5465
-8.23618
21.156
34.2215
34.3901
8.42081
-21.2692
-47.4372
-70.9655
-67.9051
-63.152
-44.0109
-26.7283
-22.9322
-25.6452
-17.5274
-1.64443
15.2706
25.2687
13.6185
22.5648
48.6473
57.234
40.9699
16.2254
2.78044
-14.5548
-29.9968
-19.279
-7.14845
8.50684
14.8705
-0.135166
-11.2506
-7.52559
-16.907
-18.7309
-11.9342
25.6262
59.9148
65.7291
52.4946
31.0309
25.5275
20.9049
12.7984
2.65447
-14.0727
-34.1434
-41.9589
-38.4387
-26.5547
-26.0301
-21.519
-18.5845
-14.3135
-19.9305
-7.13664
20.4243
21.6268
-0.692414
-5.44008
-16.1091
-20.9417
-25.4849
-41.5546
-42.6756
-14.5851
2.00561
-3.08038
11.3149
23.9101
65.4167
90.4318
66.2663
60.1073
36.3984
-55.8067
-145.763
-158.797
-84.9806
-5.34688
47.2059
64.3045
62.0445
54.8021
50.8569
45.7184
25.062
22.9116
23.206
16.7099
-8.78138
-33.0553
-40.8939
-35.367
-10.4167
37.3772
69.2733
78.9635
79.8506
23.4256
-41.836
-45.0399
-43.2539
-38.06
-26.6699
-15.8569
-25.6722
-39.5015
-53.2399
-58.3075
-58.4418
-42.5338
-18.1748
-2.5539
3.93398
6.4546
14.3916
6.65547
-62.3674
-84.7433
-51.7352
14.2501
67.9375
87.674
69.1631
44.7227
47.0161
55.2428
64.8695
59.6174
49.9959
51.4774
31.9942
0.218294
-15.8389
-19.616
-15.7799
-14.4755
-5.98316
11.5611
6.85168
-32.1625
-49.8044
-56.7127
-53.2222
-48.3719
-43.3777
-32.5415
-22.2958
-6.34181
8.42455
5.13218
11.2571
18.3283
25.4769
-9.56062
-45.86
-27.2266
16.4817
38.149
44.3391
49.3061
60.099
71.1238
54.0313
8.15545
-13.3623
-37.7176
-71.199
-88.5492
-92.5565
-78.4922
-53.3918
-21.1681
1.83258
34.5125
55.9292
45.3177
23.5893
16.9533
21.541
19.3285
0.389295
-7.21786
-2.60535
33.5866
53.1846
38.8601
38.4374
50.2066
63.9656
35.1122
9.48286
-24.0375
-47.5963
-42.3916
-36.9213
-37.957
-29.1654
-29.7244
-34.6485
-47.6233
-28.0307
-20.3918
-9.56849
1.18288
1.45786
16.0012
13.7481
-3.68557
-3.92809
7.37221
11.7587
11.216
22.8794
48.2976
49.0484
23.9339
3.35666
-1.55206
0.154928
-10.2239
-35.3067
-46.3095
-64.0157
-79.6231
-29.3028
17.9798
7.15718
10.6077
11.1164
20.2487
25.4907
39.9182
34.7981
39.5889
52.8086
41.7908
15.7645
8.1283
-6.51103
-13.4916
-12.4561
-16.7351
-8.71365
4.54039
-17.2033
-30.597
-13.7219
-7.07319
-9.26401
-16.3379
-23.6526
-32.1092
-27.4609
-36.9752
-32.9265
-12.4163
15.4959
44.8982
72.3193
83.0766
55.2662
5.50212
-20.7373
-29.5435
-44.7609
-44.9915
-31.6016
4.96938
37.4999
30.7148
17.5194
13.7906
-2.30565
-17.4644
-24.3912
-27.6598
-23.9772
-16.5023
-2.73102
15.2338
11.0994
7.96061
8.90948
2.67755
-4.67664
-2.46021
6.02922
-7.16522
-24.8958
-32.8547
-26.1348
-7.33328
18.4631
46.3948
72.028
75.1769
49.4745
3.29498
-28.3852
-22.1274
3.39625
14.7428
19.0082
27.0293
26.9315
5.59545
-2.58921
-26.9078
-60.3299
-67.1101
-58.5084
-45.478
-30.7693
-31.0998
-32.1378
-4.68473
25.43
29.9879
14.6262
-13.0715
-12.7754
7.13474
24.1715
38.0882
40.6287
25.3453
15.2941
4.34517
0.796248
9.72601
1.82355
-14.3657
-10.4613
-12.9336
-21.8357
-17.944
-19.4831
3.39688
18.2448
20.977
12.8766
24.0988
24.4294
12.3799
-12.9817
-24.2976
-13.9384
12.7456
16.6677
-5.56986
-5.43183
-9.14586
-7.78256
23.0374
23.979
10.4571
16.5968
21.3746
6.74988
-42.8373
-51.0665
-32.496
-23.1257
-5.59768
-8.98856
-17.8361
-7.54784
5.13381
21.0485
37.9646
45.2014
38.6277
16.399
-16.657
-31.8922
-26.7347
-26.0884
-47.8633
-55.8451
-29.9692
-10.6181
-10.5285
-18.1763
-22.0577
46.4853
109.675
95.1164
58.3502
25.7728
23.0848
16.5399
4.35432
-3.60472
-8.32059
-18.775
-28.2526
-40.4148
-41.9072
-22.0352
-6.1875
5.18902
13.6204
16.1552
0.567266
-40.0059
-59.2435
-56.0369
-53.9097
-44.7701
-19.6376
9.9498
30.8993
41.3938
30.9947
34.1285
36.9066
33.3271
28.7819
22.8602
13.776
5.49876
5.57519
11.9639
21.2127
26.6736
8.59842
15.8496
26.2365
30.397
14.2799
-27.6156
-36.5921
-10.6674
-12.9532
-18.3698
-5.07688
-18.5754
-43.2733
-49.0927
-39.9828
-39.1498
-37.8335
-30.2168
-15.3135
-11.8002
-6.92253
-2.91297
2.85225
24.2037
33.2773
41.5902
38.8189
22.0605
11.6051
5.94739
-10.8649
-8.62208
16.8737
30.8261
14.7582
-6.51774
-7.82357
1.86676
14.1695
18.3359
5.23604
26.2866
18.7117
-16.6128
-29.7286
-25.39
-1.36556
-8.19736
-12.2347
-10.7976
-0.823716
-1.29317
0.306113
9.71077
30.1619
56.4057
44.3535
24.2728
6.35495
-27.913
-54.4464
-69.7033
-44.9573
-15.2012
-5.90259
-3.40749
-4.73671
4.58963
4.08489
0.322185
-1.26886
1.17057
2.89132
-0.0520652
-0.173778
-12.2493
-17.5083
-21.7855
-24.0821
-21.3757
10.0515
19.4531
29.8492
62.1126
69.7094
47.6071
7.54405
-16.7373
-6.84579
17.8367
12.2549
13.6496
22.6827
0.0570276
-27.6098
-26.5449
-29.9395
-24.477
-11.6763
10.9691
13.3113
-7.13473
-37.3529
-55.5573
-51.0953
-31.3749
5.7274
18.6157
10.4053
0.0767025
4.56238
8.86192
-4.3779
-5.50365
6.51733
24.0956
33.5148
26.886
19.5969
13.8185
11.7519
17.897
19.1637
12.0204
8.56871
12.5687
-0.917326
-14.6363
-13.7107
-15.2787
-19.1474
-16.8416
8.30058
16.7588
-0.471787
-11.7157
-13.3079
-7.483
-24.7984
-24.4096
-18.5895
-27.309
-26.1333
-2.68177
10.5253
9.51875
7.25166
4.28326
5.94826
20.3827
31.6667
41.5338
33.1746
25.9762
9.96336
-3.69151
-3.51497
-7.22859
-12.4794
-25.7148
-24.4905
1.95396
28.7771
40.0045
12.8266
-7.36256
-28.1608
-42.985
-64.824
-92.6892
-80.3846
-74.0049
-43.4776
-15.4013
7.15802
28.0486
38.3422
48.1745
72.3786
89.4937
91.208
89.2163
78.4424
38.9644
30.6116
19.4693
9.31617
3.48695
-13.9873
-39.8015
-39.9991
-28.6704
-47.008
-38.7839
-6.65116
0.976984
14.563
2.48604
-31.7321
-42.4394
-51.2195
-56.1432
-54.4646
-48.0155
-30.9926
-6.84291
5.18752
25.602
45.3142
54.0612
31.7399
19.3216
39.4553
35.6111
-4.64537
-37.9995
-41.4832
-26.1324
-11.2023
-15.3027
-1.42789
-4.93881
-5.80697
13.224
20.608
27.0226
40.3869
42.5549
44.9612
40.4673
26.4001
16.3663
-9.32434
-21.7834
-4.96339
12.2898
14.6795
19.0465
19.2911
5.06982
-27.8454
-66.12
-105.907
-122.142
-77.405
-22.7668
6.73557
23.4171
57.3639
83.9623
76.4294
37.8881
-11.0117
-21.2067
-11.3634
-5.86077
-7.63622
-21.426
-27.4664
-7.31815
8.67802
25.7522
47.9832
51.4437
32.7635
-6.31918
-27.1396
-35.9485
-37.5811
-31.5976
-19.033
-13.3196
-10.759
-16.0432
-21.9511
-29.2844
-35.9589
7.58721
60.6366
64.0242
60.605
80.1436
73.0663
34.1839
-3.38551
-18.2034
-20.9857
-28.5761
-42.0158
-41.9143
-34.9684
-44.87
-39.705
-6.54642
23.6418
30.1864
26.0552
4.25859
-23.8758
-14.2687
-10.2144
-27.9644
-31.0996
-1.97284
-1.28371
-17.0429
-19.6872
11.2951
38.2152
46.6172
36.1227
42.8267
49.602
35.982
17.4641
17.0455
-1.71415
-35.6504
-52.8477
-56.6216
-48.3378
-18.2853
5.7543
24.2449
31.1617
32.9481
21.1305
2.4358
-23.7872
-39.3227
-17.8934
3.2642
6.55538
0.957823
13.4544
-6.15511
-32.7874
-16.4324
-6.6121
-2.49573
18.0167
23.5467
18.5802
20.6693
7.56748
2.2461
8.93385
1.88148
4.85552
-2.88869
-3.41208
-5.62515
-13.6997
-0.596204
-5.2477
-10.7898
7.98023
10.6572
-10.7085
-31.9624
-59.6898
-60.0741
-28.6205
-9.46374
23.3241
60.5731
64.5628
39.9725
16.3823
-3.53972
-13.1977
5.91493
28.2311
9.40952
-6.32266
13.6677
27.469
12.3443
13.8531
0.048687
-6.82772
-20.0966
-46.4709
-64.8726
-42.0117
-22.1479
-16.7429
-3.1631
8.55853
34.6113
41.3921
22.368
-1.36934
-12.8447
-16.1264
-9.5127
-5.60032
-17.5235
-7.22089
19.7811
49.5414
58.4697
65.5325
49.9234
39.3024
24.0774
-15.6142
-23.4012
-15.1216
-31.7735
-56.4867
-64.2362
-66.2685
-67.1122
-59.2001
-44.6009
-20.3043
23.8776
40.0701
33.9389
36.8157
34.6731
24.2012
16.034
0.0243586
-17.7176
-3.49113
0.984711
0.345074
-1.17705
9.91242
31.9091
38.3144
32.804
20.2368
8.46002
-2.16366
-34.2282
-60.3416
-26.5077
17.5603
24.7066
10.6953
2.97182
-9.09254
-20.7741
-15.794
-8.8831
11.1945
20.7269
10.2248
2.46373
0.250267
-1.41105
-0.156159
-6.84569
-4.486
11.9311
24.3094
6.0611
-25.7876
-30.2148
-18.3218
-5.96241
-0.549026
8.88691
8.91411
-17.7888
-53.9028
-40.4751
-4.31957
12.144
-10.8583
14.1215
86.5543
115.143
73.4268
32.5869
-7.89254
-26.0298
-41.9124
-45.2465
-26.6637
-24.6965
-27.2217
-23.3991
-16.2224
1.03113
14.11
7.15526
-9.48127
-15.9164
5.39226
12.7842
-18.2035
-30.1715
-17.8281
-2.94338
18.4815
24.8532
19.0101
10.182
-13.1828
-27.4668
-14.9489
-8.86876
-0.795291
27.7501
48.3608
39.178
34.9172
42.066
29.0484
-1.7601
-22.1122
-14.5159
12.0736
29.053
-4.18956
-52.4836
-74.7307
-54.8016
-22.2985
6.11192
10.3957
8.90296
9.32865
6.87405
12.4141
18.7577
11.2148
-0.291259
7.50561
12.0819
10.0278
-2.94271
-31.3318
-41.8284
-12.4735
15.5574
22.869
8.40574
-9.08997
-7.01472
3.94291
14.382
30.2249
13.3154
10.6304
16.6485
22.1852
-9.90577
-26.6364
-9.06838
-21.975
-43.5941
-34.2106
-24.078
-19.5752
-13.1883
10.5315
31.2011
40.9773
23.8094
11.6437
8.38168
-11.6666
-16.2308
-19.0368
-18.6923
-30.7785
-28.0445
-12.8768
-4.89829
19.1293
40.0028
54.7432
65.6878
64.7153
45.5113
6.78448
-40.9942
-80.9049
-88.7688
-75.7066
-31.7418
8.3133
31.8241
52.4449
80.8868
77.0015
53.6339
31.3281
10.7891
-6.66058
-27.5439
-39.4891
-42.8738
-44.1545
-30.5931
-11.8774
0.996314
6.6897
16.9583
26.1898
3.70019
-28.7631
-24.8122
-32.5967
-48.2547
-21.2375
-5.66408
-18.9966
-9.70666
5.23272
10.7825
3.19385
-7.7084
4.50161
13.4206
17.9246
27.2928
24.4585
37.1927
35.5454
26.5943
33.5178
21.7029
-4.51235
-28.0624
-44.8993
-33.8317
-9.52118
-3.15309
-7.46714
-2.22514
4.18354
12.5745
19.211
15.9418
16.7521
20.0667
27.9008
17.5656
-10.9465
-33.4098
-28.1764
-15.2607
-10.1996
-8.18276
-26.2224
-21.99
-12.8043
-19.5467
-24.0321
-5.27169
-5.58076
-2.95057
7.27525
3.15361
2.84423
9.22083
11.4785
15.7182
38.0715
52.0245
40.3204
37.229
38.9038
28.5697
11.386
-0.494499
15.4547
2.96559
-18.0342
-38.4611
-43.9654
-56.881
-62.9109
-47.1785
-30.6323
-14.3231
5.02717
1.51435
-8.79983
-4.91051
5.02201
11.0229
-3.13922
-16.6808
-2.63277
19.195
25.9645
20.4985
4.67164
-0.720295
-0.404224
-18.2881
-17.5726
12.8222
38.1577
39.4894
30.9929
21.1456
1.86924
-16.7776
-25.5357
-28.5776
-11.0536
14.2676
30.0231
27.5689
13.7343
11.0226
29.6378
43.8426
30.1159
21.17
9.97188
1.85073
-19.3657
-47.1166
-50.2659
-30.8144
-22.6724
-33.8729
-33.3392
-22.3278
-10.573
-6.31775
-13.7833
-21.0934
-20.2792
-13.8872
-1.55831
0.158135
5.38839
19.1913
22.2417
8.85243
9.02206
21.4535
20.732
3.82556
10.6723
28.7535
27.6469
6.26413
-2.02932
1.36345
12.2877
14.3487
-6.90838
-25.9989
-25.9315
-45.5536
-31.7777
-11.8555
2.06088
4.60343
1.87721
6.46249
27.0449
59.2342
54.2046
29.1504
-9.55756
-15.7068
-2.97957
-4.63089
-26.3655
-36.2482
-24.2825
-1.60265
3.12339
6.18422
3.8149
10.189
21.0735
19.3936
-1.33671
-26.1093
-31.4115
-21.5362
-10.9778
5.99848
22.0581
11.8404
-12.0489
-14.0439
4.49981
24.9058
40.9741
41.3579
12.9455
-15.8606
-29.974
-33.2137
-17.3469
-12.4912
-29.8646
-26.4092
-7.43431
-2.08194
-1.18177
-0.797886
-8.8843
-10.5435
5.3855
21.4248
32.3224
22.5668
18.2941
12.9148
16.8323
33.0741
39.0597
11.3628
-25.726
-45.3432
-28.0905
-25.5299
-33.5213
-21.6278
13.5641
48.0817
61.6295
38.6235
14.415
-1.89459
-20.941
-23.3607
-30.7425
-30.9565
-20.4435
-6.562
-4.3198
4.76007
14.5181
7.67147
-1.70109
0.903191
-9.91271
-1.15524
-2.76129
-26.6405
-8.11486
7.36101
-15.2963
-34.8148
-40.0614
-22.017
0.0531828
15.3466
25.9526
24.4891
30.47
42.4761
35.398
28.0373
28.8871
34.0766
32.5291
4.23476
-19.7802
-18.9373
-26.8091
-21.0538
-11.3619
-6.13707
6.40647
13.1467
17.894
15.9182
6.13375
-1.00727
-17.4268
-45.4363
-61.1119
-42.6253
-30.7718
-38.4864
-28.9871
-24.628
-29.3694
-15.0193
18.7413
42.8763
77.6205
105.261
114.991
92.4478
30.2424
-27.8645
-46.8239
-36.6285
-5.0327
-9.39474
-17.034
-16.5262
-12.2039
-25.9877
-38.5572
-25.5842
-19.9084
-15.2164
-7.26945
-2.4844
-29.4423
-53.5127
-45.8904
-36.7673
-7.21764
28.5408
34.2463
25.9598
11.2371
7.05222
3.66762
23.1335
50.7668
62.1556
60.7211
41.3704
28.0861
25.1072
27.2591
6.25529
-9.41283
-8.33852
-15.0068
-23.1368
-39.8024
-41.2753
-35.5377
-39.8084
-47.7196
-22.0722
-2.43505
2.2178
8.04412
31.3866
34.4847
7.31692
4.09267
1.46683
-21.8301
-27.8578
-9.52869
-2.97592
-15.2322
-11.3268
14.6501
18.509
11.3656
0.554107
7.59353
30.9255
51.1381
34.1035
16.6989
-1.67278
-17.125
-5.09804
-31.8595
-59.6803
-43.541
-23.2753
-2.14408
11.7525
15.8161
13.7984
5.32858
3.68925
14.0346
31.5992
27.3006
15.0074
8.62598
-1.68553
-22.1475
-36.4991
-46.4081
-42.5535
-17.1616
17.0657
30.4357
39.4715
47.1939
44.9996
-5.66999
-58.4593
-58.2646
-28.0407
-18.6506
-8.83612
5.6662
-2.0911
-3.68968
-0.16878
13.9555
40.7244
49.4527
47.6881
46.8172
29.0455
0.856443
-17.0507
-28.5374
-36.4768
-13.5521
15.4872
28.642
29.2905
38.401
26.0513
-12.3628
-40.4095
-63.6268
-62.1273
-42.17
-49.2046
-26.8255
1.7402
8.99235
33.4027
42.9807
24.6181
-4.84056
-13.6595
-3.97851
2.76148
-7.57842
-16.3107
-12.6498
-8.99017
5.9776
25.0716
27.5817
29.2979
24.4319
11.2038
-15.8377
-19.2414
15.4802
1.43223
-25.4488
-24.695
-24.9674
-23.2312
-11.8805
2.8486
31.9758
28.6391
6.14716
-8.11367
-9.37418
-14.0366
-9.91132
2.37217
8.72416
25.3815
36.241
22.6856
-2.36974
-9.81701
-0.919071
4.42259
24.1446
19.3302
19.5091
20.3432
2.56336
-10.2532
-14.8619
-15.2942
-3.06645
19.2228
18.8255
-7.4902
-24.1167
-25.7743
-31.9033
-42.8538
-42.1204
-34.9407
-17.0851
12.6388
21.394
25.2926
10.8476
-7.61335
-4.6441
-2.22104
-3.532
-8.81529
-12.2165
-13.1855
-4.96593
26.9016
33.9743
16.5129
-2.40553
-4.728
-9.66029
-11.8254
-4.53124
-7.63938
2.2213
44.5994
61.5412
44.4729
16.8821
5.8843
-5.71499
-18.6245
-11.0928
25.1069
10.9178
-40.9658
-66.2286
-43.9115
-5.66732
7.35796
7.62184
-0.671682
-23.9031
-21.1114
17.8026
33.306
14.0435
21.7162
17.2812
6.54766
0.390039
26.1997
25.7072
-12.9213
-18.1307
-20.2452
-20.0378
-8.3701
-2.00485
-0.389203
1.21413
-2.21305
-0.608424
0.970764
-19.6186
-48.6052
-42.5762
-36.8892
-6.12414
13.4077
27.4638
37.6529
28.8728
17.6234
22.4662
22.8603
10.2933
7.75607
10.3465
3.0246
4.20437
10.0866
-8.31983
-20.4801
-21.861
-17.4503
-18.3041
-4.50382
4.35115
4.43222
8.43251
-6.48838
-16.6767
-15.5721
8.63388
31.1313
36.1337
28.0545
23.7634
4.89378
-30.7336
-54.6478
-32.9195
-11.2911
-12.2084
-2.65497
26.3692
18.1798
8.44992
24.3587
24.2962
5.22704
12.9917
2.89497
-29.1245
-38.4153
-19.4504
9.11552
0.572059
2.13399
18.4647
11.6093
9.22636
3.34617
-14.3337
-32.9389
-27.871
1.84426
10.1779
-14.2691
-26.2095
-18.211
-19.2809
-3.25402
28.9427
35.4146
35.5305
25.4318
10.6073
-2.43171
-6.09732
-3.24659
3.78274
6.58315
3.06425
7.76384
-1.21056
-22.8043
-30.8513
-8.71387
2.00741
9.34593
13.9062
26.8294
15.7178
1.40746
-14.9716
-26.6867
-22.1015
-16.559
-6.49598
17.4404
26.1267
25.5398
25.1325
9.14321
3.27417
-2.89181
-12.9577
-17.5651
2.26844
25.6438
34.1431
26.9699
-8.42486
-44.8645
-70.406
-81.6278
-38.6771
-1.19124
17.2971
36.5764
38.5925
22.1788
32.7219
33.3422
4.1751
-8.76762
-6.78892
-7.22075
-23.8872
-36.2546
-34.0712
-26.1204
-4.7902
24.1806
47.2692
34.4252
-7.50975
-33.4473
-32.1168
-38.5361
-41.9931
-2.03805
18.6962
18.7326
32.6643
53.133
64.0241
37.9608
14.7327
-7.73893
-11.9417
-14.2677
-2.06181
4.33767
-19.7146
-33.0039
-14.3675
19.5543
9.92632
10.1742
21.7718
21.2099
8.28915
1.70779
-6.84017
-13.7143
-32.0389
-30.4953
-24.578
-11.8567
-18.1628
-7.20093
25.2434
24.0409
10.9283
28.1535
34.0343
24.3228
32.3264
3.1245
-32.7916
-56.0288
-74.6655
-67.2545
-36.6941
-16.79
-9.11181
-2.55361
3.77578
21.0425
28.0972
10.6266
-12.2775
3.63412
24.0277
15.7995
7.74672
1.13796
-11.3801
-3.21492
10.9536
13.5116
17.9233
31.3561
38.3001
28.7651
20.8666
31.5015
37.9949
44.2035
33.05
-6.48143
-40.4444
-61.8106
-56.7103
-51.0543
-31.9516
-6.49369
15.1031
30.1842
35.6279
29.0876
17.1389
3.76819
-4.91666
-9.15908
-16.7103
-27.5559
-26.6896
-35.0464
-37.3308
-31.8644
-43.3368
-20.0813
6.27642
28.1492
22.636
5.64049
2.48284
-0.210263
-19.5058
-20.6668
-2.09781
6.49311
6.29451
7.63256
19.718
13.6251
12.0926
8.75914
7.68588
18.7797
58.3677
76.4109
49.7551
22.3055
12.1134
-1.65623
-21.9336
-28.8728
-32.8891
-55.7378
-61.5352
-46.9781
-25.9344
2.41015
17.513
27.6279
24.6007
21.7987
-6.15309
-29.4466
-27.5186
-24.1834
-9.28377
1.88222
12.3363
19.9674
35.7171
45.8085
47.0335
50.0187
31.48
-11.1661
-32.0755
-45.9925
-52.4347
-38.42
-39.1218
-54.9558
-39.384
10.369
26.6763
26.0694
33.6751
27.2701
7.67367
-7.2607
-13.9819
-10.5867
10.0555
40.0023
41.2941
26.3502
10.2824
5.78732
1.02773
-15.0878
-18.081
-16.9368
-12.1876
-16.6862
-15.5087
-13.7677
-0.221001
-0.0625671
9.95162
11.1305
-4.34165
-7.03091
-15.6633
-28.3768
-19.0765
10.1969
19.0468
16.8867
18.8503
29.0103
29.8764
13.6347
-3.31125
-13.1272
-24.8379
-21.3783
-19.2934
-5.85198
7.8301
7.69921
8.9374
4.41477
1.20735
-2.56102
2.53413
-2.31647
5.30674
28.047
29.7888
-4.04555
-15.3558
-2.70353
7.95122
0.996839
-6.67589
-10.2414
-18.9536
-14.9043
-20.4591
-22.0974
-8.59292
7.69734
14.9751
16.5014
14.7914
6.01849
-4.50648
-21.21
-35.0774
-19.7595
-2.92405
-4.0296
15.7118
27.5957
22.6962
14.9309
17.0618
10.0019
-16.6883
-27.6934
-15.0861
-15.1611
-12.0966
1.97632
15.1661
24.3965
31.8639
21.1141
6.90204
-3.88734
-8.43438
-15.0102
-21.5875
-12.0657
3.59894
7.65604
28.9708
54.4683
65.1514
67.9551
42.6357
-10.9018
-29.3103
-25.5346
-22.6775
-19.754
-32.4447
-25.202
-29.5252
-72.9367
-134.981
-130.927
-66.4573
-8.40154
12.5898
7.68264
4.76733
19.0471
35.77
41.5502
48.5061
66.9968
58.1256
45.0998
33.1008
34.5599
29.1209
20.0128
29.2567
58.0092
79.422
81.5769
28.3194
-33.5931
-58.9312
-45.7972
-45.2282
-69.1651
-69.1034
-55.0373
-47.6422
-30.9116
-18.5562
-12.9803
-13.7535
-9.56081
-3.81657
12.4904
2.12695
8.17721
34.5643
39.1355
26.981
31.19
38.4257
20.7702
-1.11991
-8.97437
-1.25048
-8.9788
-23.2099
-18.6814
-11.6162
-19.5501
-21.306
-9.68006
-3.6582
-17.1971
-19.8756
-4.33827
4.47791
17.2555
32.5848
5.16737
-29.3904
-18.0847
3.65166
8.13305
5.73093
19.3062
18.8833
22.9232
24.6189
13.0324
-16.5572
-52.8485
-56.5691
-37.8518
11.3256
46.6508
106.106
144.367
104.48
63.0805
38.1032
-12.4277
-47.5279
-70.7892
-103.085
-97.8606
-58.318
-42.0817
-29.8298
-19.1292
-2.6203
24.1
41.0599
37.8762
2.39485
-29.5295
-69.0692
-115.476
-111.893
-52.9782
-15.8161
-5.73115
10.4741
76.4119
170.881
231.414
192.678
112.325
48.2524
-36.6334
-84.2467
-103.567
-99.7158
-89.7874
-37.4348
-7.22191
-5.86598
30.0792
21.2233
-26.891
-27.7219
-11.5016
-24.0369
-58.7893
-83.57
-118.945
-99.2444
-31.667
6.09472
69.9981
122.476
148.555
129.051
100.674
87.7651
74.582
27.0516
-33.3599
-27.4153
-20.8567
-41.2118
-33.9278
-10.9978
-12.5826
-27.9385
-41.5581
-43.0983
-37.8277
-19.9145
-12.5179
-6.77304
2.47064
0.396334
3.17163
-18.7511
-34.3283
-10.9155
-5.31797
-2.03512
22.4308
43.8213
45.9899
46.2915
25.3618
4.44563
-4.60379
-10.8975
-18.9891
-19.4828
3.19788
12.8908
-3.12714
-14.0295
-6.05544
-24.3388
-25.2939
-3.83192
-3.84825
8.00066
31.0281
21.4389
-2.90679
-20.8281
-19.2967
-40.6475
-46.9536
-28.5312
-8.37306
18.3523
22.405
27.3325
60.9378
65.3545
38.9291
38.1871
24.8529
6.97137
-7.2327
-20.5648
-35.6491
-35.2172
-15.2723
-12.8921
-13.3033
0.0437456
23.3137
19.6717
-3.48456
-10.4328
-14.2654
-16.5145
-32.9589
-22.4626
-15.7226
-15.0253
-17.4229
-27.2505
-29.6897
-17.7535
11.3989
23.2464
24.3635
30.3956
52.1952
46.01
13.0742
5.11622
10.9795
4.35331
2.01873
-2.24508
-8.34312
-18.4908
-20.7602
-15.0254
8.85824
12.2364
13.8921
21.5204
30.8135
29.7292
20.6901
-2.2879
-37.2259
-33.612
-19.8467
2.37094
18.1398
16.9991
6.92916
-15.9065
-34.2952
-36.0813
-26.4324
-43.8424
-41.8791
-19.4111
3.26614
19.7954
4.16834
7.3304
6.49014
-1.84131
14.827
20.9122
9.66098
26.7188
13.2172
1.36507
12.59
17.9793
12.4745
8.12334
5.55695
16.5198
-3.53083
-20.9196
-14.0671
-12.6244
-9.06414
8.80995
24.3975
38.0776
47.6431
37.0932
7.72051
-39.8246
-48.8921
-42.8669
-44.0096
-34.8255
-18.2464
-10.6824
-1.32074
16.0347
53.0127
61.1164
24.4854
-7.20502
-18.0847
-24.1117
-28.8133
-31.3031
-43.3306
-37.7185
-13.8354
0.47497
10.8387
6.4813
-0.0334753
17.7984
32.6777
26.4847
20.3526
12.0634
-6.19145
-7.00768
9.62304
17.1658
21.3104
16.2237
3.53453
2.85717
3.64013
-5.32261
-5.50498
-4.71185
-6.57347
-1.08137
10.5717
-2.27187
-9.40493
-2.44501
2.02292
8.58201
-4.38462
-9.12485
7.45746
7.71195
-16.0738
-28.9592
-13.9724
-4.12597
-8.90388
0.623079
-3.77929
-14.6879
-9.51755
4.49513
-1.80262
-13.0196
-25.0262
-9.61868
2.79669
14.1021
31.2365
36.2657
38.3579
32.3398
7.96724
-12.4845
-19.9812
-24.7656
-34.5917
-40.3302
-18.1433
7.55024
29.0421
39.6511
48.5691
66.0002
58.8515
13.2025
-17.8543
-33.1071
-39.1454
-40.0571
-42.9384
-38.4682
-26.6319
-16.9386
-7.48667
-10.9324
-2.20744
14.9539
21.0684
18.4969
11.0059
-6.69007
-10.3905
-8.50167
-15.9579
-12.6628
4.26932
18.6234
16.3836
8.86687
8.89252
7.37482
15.5054
18.8332
12.0856
18.5479
30.7862
28.681
19.3302
12.8742
-2.84742
-18.0835
-24.6139
-20.7207
-4.31202
4.68206
-8.23984
-12.0671
-14.4401
-18.0631
-8.29948
7.35122
6.26033
-0.272195
-11.6697
-23.0622
-24.5769
-24.1129
-17.251
-16.1839
-13.153
-4.76335
8.39556
1.04515
-10.4557
7.17525
24.3278
25.2533
23.3255
25.1824
32.5237
25.6557
12.8083
8.90694
35.5782
40.5812
3.50737
-15.2804
-8.4317
-3.74207
-23.6933
-40.7176
-66.6804
-65.4227
-52.1071
-41.7431
-33.5789
-17.2214
44.6161
92.5745
64.7475
26.1029
3.73022
-7.23017
-20.44
-12.0977
8.54932
10.7337
4.49906
0.377229
11.8033
27.8673
34.3395
24.7323
26.8126
20.7525
15.1157
1.73692
-27.4895
-53.861
-63.2391
-38.2079
-9.51696
-10.3254
-2.06953
-2.14481
-7.72693
-5.92852
-8.23121
-11.3852
-6.61193
4.8686
16.8305
15.2051
11.8948
9.23811
7.95009
6.79342
-6.48094
-26.0916
-1.92552
22.1536
8.59178
21.3738
8.28917
-3.29614
-5.77466
2.09683
5.73729
-2.69044
0.173189
4.65901
5.8205
7.90639
13.6639
12.3946
8.84804
16.9579
10.0975
-3.16613
-10.0911
-23.7535
-14.777
-11.6168
-10.0174
-7.05343
2.3796
-5.73246
-13.5547
-9.97929
-9.57275
-8.77193
-10.1253
-11.0945
-7.55082
-14.1882
-3.36176
-3.55215
-21.5876
-15.0293
-4.55436
9.61738
33.5165
42.5908
38.4779
42.6977
46.1385
23.1456
0.0995974
-1.17809
-7.51854
-24.9852
-22.4874
-6.7165
9.56362
16.0569
10.5496
-6.81676
-30.1583
-24.7888
-2.92675
-19.6159
-51.7854
-51.8014
-28.3161
2.27573
23.4738
12.4761
18.2435
11.8691
6.74826
14.2028
18.0572
19.1548
13.3169
10.4795
15.4489
5.58532
21.5005
23.1749
0.348886
-3.93232
-0.508873
-4.45896
-4.10495
-14.7943
-27.9984
-14.0988
-6.60777
-1.37155
10.189
0.648963
-16.6412
-25.6275
-17.6968
16.6514
24.6667
13.6286
1.09706
3.84881
13.2882
-1.29229
-17.0783
-21.9355
-18.2212
-17.0423
-12.5742
2.08845
10.3806
8.13777
-5.09544
-2.70562
8.3509
12.1938
4.38584
-8.25058
-10.9705
-1.90431
10.3979
14.225
7.17795
20.2231
35.8632
26.6375
2.01322
-17.4823
-19.9802
-17.3972
-13.9196
-5.88307
-3.43661
4.95245
5.30035
-2.22055
-5.51149
-0.0224635
8.51395
16.8309
2.29414
-12.6958
-9.8102
-10.6389
-11.3541
1.20465
3.84931
3.78217
-6.26952
-7.58286
-3.73754
-8.07869
-8.53098
1.88991
18.0836
23.0952
21.7985
8.04546
-12.3857
-21.1854
-13.3509
2.72865
11.8411
17.2794
22.2314
14.1106
2.55863
-5.69971
-13.6735
-15.1547
0.939106
14.6293
0.414268
-7.02415
-11.8934
-11.4012
-20.345
-20.1502
-20.2357
-9.70518
4.88906
-7.29789
1.9122
19.0969
25.6928
18.109
11.2249
0.261239
-7.01071
-0.696449
-17.55
-26.569
-5.07932
9.31934
6.61802
9.81724
27.2938
35.8195
22.8599
7.63453
12.169
26.1601
8.567
-10.3075
-12.506
-13.2228
-12.0481
-9.64913
-14.7213
-36.608
-42.7323
-28.6552
-12.3814
-0.442886
2.99667
-1.87231
-5.37771
-6.84621
14.4556
23.3825
9.48321
-6.53271
-8.98177
5.21073
1.01907
-1.24135
3.69053
4.94874
18.3669
50.3302
53.0391
15.2485
1.68792
-10.4496
-20.019
-16.5449
-16.7484
-19.2761
-18.1522
-10.4451
11.8507
20.3165
14.7862
2.60117
2.21963
16.2024
10.9508
10.2309
10.8064
-0.995234
-20.3414
-22.1582
-26.7437
-19.6406
-4.25179
-12.86
-9.86982
-8.24091
-5.91354
8.21589
28.4331
23.446
-11.2595
-52.8541
-37.2042
-21.6372
-9.33142
1.79635
0.0682122
-3.50445
5.90188
21.7512
27.7241
11.0765
2.42193
15.1704
23.3248
30.1912
20.8458
7.65935
-7.31763
-10.2467
1.63391
14.4378
7.32957
-0.422322
-8.94472
-10.8585
-5.73125
-6.81501
4.40071
20.5971
13.5991
4.52064
1.08911
7.29717
-5.05415
-20.0036
-12.7622
-1.74355
-9.32238
-21.403
-14.3375
7.58426
6.11622
-4.35617
-10.3348
-16.121
-10.6639
9.37746
7.6047
-7.80793
-3.49936
-0.975437
6.75655
13.3488
12.1411
15.5165
15.0717
-5.15629
-16.841
-7.27972
-10.2348
-6.55913
-4.35106
-4.02655
3.23279
8.92675
10.7104
-0.907518
-9.27008
1.47023
5.47759
2.26603
6.68174
15.8442
15.2128
2.25451
-5.88276
0.343845
5.10869
6.90359
7.34199
-7.92658
-31.8281
-35.2356
-13.0706
-8.62032
-8.80518
1.91211
-1.17151
-0.958965
45.54
68.1416
26.3235
2.7748
-5.55608
23.6893
50.5363
82.5485
90.6707
-6.68248
-81.7394
-38.8109
6.62971
21.247
-3.08117
-61.7495
-134.323
-195.867
-220.903
-162.631
-129.353
-75.0627
-14.0766
-10.6507
31.5449
72.6613
86.706
79.9808
85.7598
169.364
215.992
169.844
134.562
127.23
57.0545
13.3346
56.5978
111.877
159.801
162.157
75.8677
-58.6641
-129.629
-130.486
-131.443
-116.332
-111.37
-180.661
-215.452
-161.455
-86.415
-53.6143
-88.8319
-123.779
-59.6168
5.21551
51.1568
70.9054
55.3714
-12.2032
-39.5698
-5.97811
14.2177
33.4122
76.0764
49.751
37.8002
91.6144
113.459
90.6581
62.6125
12.0071
-3.14045
4.69687
28.1329
71.6584
58.2665
31.7644
26.4085
32.6692
53.9911
72.7306
81.9983
67.0669
7.4968
-50.7302
-87.2225
-129.44
-169.6
-177.76
-143.196
-67.3806
22.6829
73.1265
47.7294
36.7116
43.7973
5.77443
-32.2303
-52.098
-48.4439
-36.3114
-43.4569
-45.4306
-41.7388
-17.724
-7.5203
19.9947
45.0508
39.7395
20.8909
10.5007
12.1449
0.496247
-2.01583
-10.3899
-35.7916
-39.4678
-20.6074
23.8443
9.89602
23.3518
47.6691
44.003
57.633
64.4236
60.8889
51.0653
51.1367
58.1546
61.4574
56.5606
12.4402
-25.0879
-31.3547
-37.5589
-53.8003
-8.49846
46.2594
13.5415
-3.0006
-10.3367
-20.1622
-24.5179
-29.0166
-28.3618
-36.481
-50.5802
-42.9856
-44.0123
-48.7785
-44.7516
-30.6775
-11.3447
-13.2613
-12.7131
-1.4064
-1.51307
-15.636
-1.24726
23.165
14.2661
-1.57028
-6.2165
-24.9882
-26.3478
-9.95935
32.1277
52.6379
51.4739
44.617
35.7525
25.8777
1.09642
-4.27186
4.50176
33.5419
35.6152
19.3042
6.2927
-7.86477
-21.0453
-5.67497
8.1577
24.0666
18.0741
-0.692036
0.910972
-2.05824
-13.6509
-24.4951
-13.6155
10.2743
35.4536
41.5769
33.3705
10.853
-26.5179
-54.1899
-88.0083
-103.542
-99.3734
-75.7818
-27.7948
-6.22627
-4.21437
-1.26553
40.6634
59.2124
64.7671
92.7272
82.5489
33.9182
1.65153
-33.2178
-99.1726
-82.886
1.7309
31.0733
88.496
197.001
240.386
190.638
72.0108
-35.345
-105.686
-142.392
-192.733
-201.94
-131.901
-125.121
-133.698
-89.5245
-47.1797
-6.45332
48.0958
58.5164
38.7045
52.1941
50.0939
-4.86617
-26.8048
4.45586
45.6851
83.442
111.919
116.944
110.858
100.112
50.1502
20.7782
21.332
11.2197
-29.3093
-23.0212
8.30355
1.80652
-35.3983
-58.7813
-62.2118
-57.5045
-66.9162
-61.8231
-46.1252
-31.3468
-12.1406
13.8136
14.7845
17.7318
9.43905
-5.8764
-8.5168
4.05931
7.99788
0.9899
-18.5644
-18.9442
-2.26766
8.44394
-5.10458
-15.9036
-1.15669
5.24979
4.08375
6.95416
13.9637
12.6169
20.4247
26.3582
11.7103
15.2161
9.2497
0.542128
6.05417
5.11867
4.78933
-5.78029
-10.2273
-11.8791
-9.02897
-2.47658
-7.72587
-8.19097
-0.470025
4.88163
3.39139
0.686449
-6.73195
0.38319
6.12201
8.09164
11.4457
10.5181
11.6003
10.577
10.5541
-10.1327
-19.547
-16.6436
-35.7911
-25.6758
-0.57187
26.4203
29.9143
6.70032
-15.7386
-3.46949
14.8372
17.9269
10.5341
-2.65556
-13.1536
-17.8386
-6.79637
5.09106
2.87148
8.50947
-6.35032
-10.2035
13.9929
-5.17439
-20.9473
-22.6767
-16.3778
4.81792
26.4157
22.238
-15.3205
-40.7531
-29.209
-2.47074
14.8127
23.826
38.854
55.0102
38.62
22.4759
25.2379
14.0241
-8.4265
-1.8661
-2.59644
-16.3641
-24.0195
-35.9766
-33.4862
-18.0413
-8.70523
-30.9
-33.2584
-16.2611
-2.79558
-0.630912
-6.89021
-25.5927
-20.9245
-5.63749
7.72692
17.3636
25.4883
27.884
22.8898
9.08148
4.94168
19.7402
37.9156
34.0411
34.2135
47.3625
27.0688
-5.52936
-31.2418
-33.4355
-22.082
-4.75971
7.26011
1.8162
-0.294622
-5.00747
-11.9896
-32.2363
-36.9603
-30.772
-30.5184
-27.4357
-24.0339
-18.7495
3.18191
25.0645
46.209
35.0066
30.472
21.4528
13.9224
6.1004
-3.93871
-9.91208
-18.4504
-27.1986
-14.0925
-1.82927
-1.47904
-3.3351
15.5396
21.6139
12.087
7.36845
0.372784
3.71632
5.52824
-1.19833
-4.21301
-1.28316
-6.8258
-18.4281
-14.414
0.678929
0.161117
-0.0994963
-0.160582
-0.888093
-3.62512
0.677189
10.2171
10.3265
12.2318
11.0305
9.3702
-5.6368
-16.3058
-13.495
-6.67722
-2.46278
-8.38072
-10.7957
-8.17068
-7.16122
0.957154
9.23751
9.71178
13.0658
19.6681
22.1496
16.6494
10.9285
-0.402751
-15.5911
-15.9621
-6.33434
3.66435
-1.45471
-2.44211
-3.05629
2.3423
9.73729
7.28842
-4.90194
-16.2562
-17.2398
-9.49088
0.393674
6.17721
-0.159043
-7.62884
-7.15121
14.1565
21.7565
12.2235
11.3594
9.67799
-3.15664
-9.55173
-21.8118
-28.0628
-28.0595
-13.0437
4.616
6.58697
7.75506
4.19732
-5.55437
-7.31558
-6.81962
0.949717
4.12194
0.773132
0.671588
3.58732
-2.2713
6.04171
18.3531
16.9222
21.0034
23.4357
12.9958
5.13413
3.50133
7.69214
6.41981
-1.76543
-2.63883
2.20288
-7.4738
-14.7617
-8.4935
-12.3317
-17.686
5.78744
21.5981
9.06847
-9.40129
-24.8989
-13.5946
-1.39213
-3.23917
-13.4882
-13.8851
-5.13243
-7.9263
-1.01281
5.42433
-6.83867
-5.39775
-5.46126
-0.73396
13.45
17.4464
5.31352
-7.83432
-2.78765
12.463
10.6087
-0.139011
-3.87178
3.87382
1.61411
-0.636781
-3.53802
7.22418
10.8467
3.69188
6.92311
0.485192
1.06576
-2.70848
-8.30921
1.61361
8.98514
10.8469
-5.04807
-4.7991
5.39207
2.73039
-5.90759
-7.33379
3.52294
7.13899
0.736636
-8.68679
-4.77958
-2.01077
-8.32824
-4.72834
-4.51051
0.822606
-2.20604
-2.4283
-2.37578
-0.486224
7.41257
15.4896
9.9882
-0.213846
-5.56396
-8.12603
-4.53114
-0.297334
4.90781
8.7519
7.28541
4.75114
-0.0216763
-7.63281
-11.7094
-11.4588
-7.43958
-6.00145
-5.50263
-2.34267
4.86694
3.67925
-0.594588
-2.5563
-0.373968
6.07557
6.75777
-6.28055
-8.79673
-13.0378
-13.1336
-0.535524
16.4868
16.5017
18.1358
4.28914
-15.7474
-6.67157
-2.3852
-3.96909
-6.04198
-9.04917
-3.40671
11.7775
24.1251
32.8079
34.9712
27.4576
-4.23211
-11.6638
-4.8725
-6.99787
-15.722
-6.97542
-2.62935
-3.12556
0.529998
-1.47183
-1.41437
-12.2418
-14.8606
-6.84476
3.70961
4.63927
-5.8383
-13.411
-11.1162
-4.74883
3.15957
-1.47589
-8.42846
-13.1297
-14.2672
-5.46383
4.58984
15.6601
24.1674
19.6523
12.3228
16.5462
15.8138
-0.552979
-9.16638
0.225247
-0.226805
-1.50614
-9.78607
-22.132
-6.8489
7.14862
-3.49862
-3.73089
2.20647
-1.19152
-6.48989
8.56113
14.9266
0.300114
2.81516
6.76368
4.01016
9.16582
8.56119
4.88486
2.59463
-4.38986
-9.96973
-13.3889
-10.9834
-1.51349
1.45234
-2.5691
-2.81477
-6.22695
-2.50846
-5.68361
-10.7498
1.29241
-2.96825
-12.0623
-10.6241
-2.96984
6.75841
7.43293
2.82073
-2.56667
4.97455
19.8112
15.5713
0.415415
0.986933
6.27418
11.8644
0.0633248
-4.62459
-4.25086
5.20691
1.29302
-0.687316
-1.26022
5.66626
5.66153
4.24289
-8.68921
-15.3571
-9.97533
-1.73488
-2.71067
-6.47392
-3.63851
5.07638
5.6919
-7.3258
-2.4177
5.978
-5.09539
-14.5054
-7.3913
1.37524
4.98411
5.72693
2.85522
5.09699
-0.0333893
0.876169
6.57082
2.80766
1.13327
8.29729
6.95505
-3.28473
4.89066
6.81139
4.38376
2.43294
4.9695
1.29925
-2.21973
-5.41593
-0.00911015
5.05131
7.04987
-8.70101
-9.10906
0.776579
7.06978
5.59663
-2.65572
-7.55783
-9.88062
-16.8045
-22.1444
-12.8532
-1.6392
9.35671
13.7363
11.6989
3.79479
-4.28069
1.13131
-7.67812
-10.6427
-1.27417
1.04395
1.78897
1.43721
-1.25379
-0.412535
1.11151
12.7882
18.1459
4.93739
-10.8619
-13.4267
-5.27499
7.09413
-0.59663
0.888787
7.57027
-9.69797
-9.08995
3.46336
2.75545
3.04394
4.77738
-1.64473
-6.54006
1.37737
5.8964
0.482764
1.04313
6.358
13.635
15.9291
-1.70077
-15.9724
-3.32125
6.06818
6.10299
-2.60194
-2.69339
0.515522
-8.1705
-11.9272
-2.28018
1.82291
-4.56788
-8.524
-5.63718
-4.03406
-1.70899
1.79463
0.150583
0.911457
0.786724
-5.61999
-6.76015
0.652728
6.78125
8.37067
15.7645
16.645
24.423
18.1369
-1.36363
-14.5691
14.0627
13.9114
-6.35932
-15.0625
-22.769
-19.3714
-7.02245
-3.31994
0.942913
1.21853
2.07386
2.42458
2.39265
1.26642
-6.2454
-7.69344
-1.68763
1.57014
4.41226
-5.47713
-15.8224
-6.09318
-2.32027
4.62888
1.80909
-2.43498
0.841275
9.74434
12.7891
10.8308
7.21349
4.29268
-3.73104
-8.90548
-10.1519
4.43607
5.75916
0.57047
-4.54775
-2.72771
-6.16987
-9.57505
2.85324
7.07117
7.14061
11.7358
13.2449
3.51313
-4.14826
2.31519
1.41917
-6.79315
-7.88864
8.11592
9.11465
-4.10933
-15.3368
-18.6961
-11.5574
5.48069
10.8551
6.40806
4.62892
20.1993
15.9618
-6.24096
-21.8316
-19.6305
-12.9153
-15.7516
-12.3843
-0.897475
3.87651
7.1391
14.0515
9.80479
1.59762
2.69672
6.64436
16.2682
7.71047
-6.76567
-6.26416
-10.465
-6.83675
-1.43073
2.38628
5.70653
7.62735
4.35347
3.50283
-2.242
-0.260378
1.0232
-3.14975
-3.3264
2.45492
4.46678
-6.80821
-5.76271
0.19895
-8.0821
0.0443333
7.15714
10.6387
4.04826
-3.15665
-18.453
-20.0622
-4.93966
4.91553
4.08995
6.79849
7.56732
1.23403
-0.450196
10.8703
14.5409
16.8426
13.0397
-2.05832
2.38285
-3.34673
-14.6692
-14.2134
-9.92705
-6.55618
-0.697192
4.00026
-0.56989
-2.04333
-1.34876
-10.6693
-8.8406
2.00515
2.65469
-1.90469
-1.45678
6.3984
-5.8346
-4.49368
5.03262
-2.65443
-0.876712
6.29556
9.22238
13.9669
10.533
-1.48094
-4.56713
-7.19442
-2.76615
8.54674
15.4908
9.15676
-2.44266
-13.5463
-3.93784
-0.715424
-7.6655
-11.9154
-5.84317
7.58033
6.21791
-1.68868
-1.19847
-2.485
-4.85246
2.04354
-4.92829
-14.1156
4.48956
7.7521
-5.16985
-5.9604
3.0698
7.44641
6.76688
13.3248
15.2013
8.8152
2.14375
-5.96153
-12.0275
-11.3697
-14.3505
-3.94257
12.3069
11.733
-0.917261
-6.1131
-13.3127
-14.749
-17.0202
2.48837
17.3106
11.6326
12.9861
5.78005
-14.8704
-7.94678
5.54422
9.45985
5.05024
8.39511
10.9069
-3.71108
-14.9114
-13.2161
9.3048
21.3375
8.30849
5.45156
5.40288
-2.63337
-5.68966
-8.47864
-11.6801
-14.0563
-9.0974
3.76607
9.62031
4.64341
0.887304
-5.91272
-8.55391
-7.37563
1.22789
-5.36067
-6.09042
-4.4453
-6.98452
-2.28082
6.98581
0.714891
0.832822
17.4478
7.95946
6.93403
19.7118
7.2451
-12.3317
-12.4633
-7.7062
-6.4626
3.84223
0.730588
-0.509499
2.03068
2.83263
2.40493
0.350382
-3.4759
3.21293
7.4741
9.78303
13.8192
7.19492
-7.81963
-13.5548
-24.8948
-15.3869
-3.89839
7.40461
2.31295
0.492004
0.152326
0.827205
-3.57529
-2.87961
6.09615
13.4461
14.2455
9.6972
1.7877
-9.51785
-14.1413
-9.01797
-0.106451
2.60463
4.26071
8.33834
3.09004
-12.9596
-1.62383
6.83571
-0.269477
-0.966436
-4.69141
2.89642
4.45279
-9.56676
-0.34945
-4.80273
-20.4769
-12.2545
-2.39514
9.6063
9.16428
6.12617
10.4964
4.76145
4.87325
12.0993
4.73656
-7.83299
-0.163864
3.35406
12.0121
4.66729
2.58632
6.54996
-5.37206
-3.4279
4.36566
-0.819417
-6.98835
-0.330718
3.816
-8.71284
-8.64979
-8.31379
-11.8406
-15.9905
-10.3653
-0.941472
10.436
2.73772
-7.38807
-9.43567
-4.24644
0.594417
-5.68854
-0.949441
17.3932
19.8494
4.08715
-2.42372
5.82778
9.4724
5.66623
1.99166
1.06728
3.65135
-3.05202
-18.7557
-9.10871
8.72347
14.4888
8.47435
5.53336
2.32209
-0.0813089
-5.88758
-1.31646
0.895398
11.9826
6.12755
-7.44264
-1.58672
0.500578
-4.15966
-5.65959
-3.30166
7.19513
1.96617
-14.2519
-17.0729
-17.1926
-12.0999
-7.82997
-3.48012
4.77808
5.30724
-0.178642
17.6286
14.5968
4.30147
6.9266
1.60859
-8.67628
3.74813
-2.16966
-14.1931
-8.18237
-5.15793
3.08688
1.21915
-3.1754
0.862012
3.73976
5.64954
10.026
10.7988
4.95985
-3.31834
-3.69297
2.06355
-1.53585
0.301331
5.63835
-6.66376
-7.84191
-1.47289
-0.25803
11.3275
30.6205
4.60118
-3.47833
0.0871929
-5.98088
-13.1536
-13.1716
-4.24794
0.29964
-3.25585
2.73204
-7.36155
-8.69134
-1.57854
-1.51517
2.84924
12.2334
13.6606
-2.65223
-4.42663
-14.3274
-12.5698
1.84566
17.2414
7.7008
6.58365
11.9035
4.74464
0.28751
-4.55496
-9.32509
-6.33689
-1.59456
0.756969
2.17117
2.8467
0.507875
-3.70265
-3.15862
-1.91331
-10.8769
-3.13298
2.2139
-4.99622
-2.11047
5.70495
-0.869387
-4.35263
-2.24959
-5.50807
-12.0696
5.8147
11.067
6.68718
4.29118
4.15823
0.617453
-0.0707689
12.6116
12.0712
-3.05378
-8.95972
-12.3658
-20.3169
-18.372
4.08031
28.1422
23.7918
2.24543
-6.55448
1.08272
-2.05018
-3.16446
1.23944
4.9451
-0.25294
9.34701
17.4941
12.5714
-0.0532952
-13.7707
-11.7578
-5.85628
-8.31909
-0.637213
-7.09527
-20.8737
-3.39398
5.25932
-3.97164
-0.00268583
6.79839
6.84471
6.41871
1.57299
-1.02672
-14.1988
-22.8447
-18.7512
-6.25625
8.6767
15.2741
14.1778
14.4645
13.1022
10.6278
4.21856
0.452165
1.93588
9.24142
6.81272
-0.385339
-6.24048
-9.16801
-7.45555
1.36369
-1.17273
-2.95027
-5.72815
-4.8773
-3.26233
-1.21768
-2.27209
-5.3037
-6.9647
-9.17542
-3.36483
0.1169
2.66053
6.86236
4.51763
6.09957
10.1548
5.72956
2.42129
-2.40289
0.246735
-2.09241
-0.245235
1.82397
2.26052
0.74467
-6.88017
-0.0828779
2.82758
4.57234
4.57256
-5.60789
-5.56039
2.9658
-0.568146
-20.8788
-18.2541
16.7694
32.6616
6.80057
-5.29544
-1.71622
-0.16559
3.19022
10.7593
-10.4577
-0.464041
-7.05685
-13.619
-6.58324
-7.20748
-5.48384
5.0903
0.453785
-0.137293
10.1712
5.78862
-9.77183
-17.8288
5.88822
18.2098
12.2303
0.0600485
-7.30231
-6.04268
3.37483
-4.4309
-5.21535
1.22068
-0.187143
3.07338
4.32046
-3.22544
5.10025
10.369
0.943296
2.72128
4.47247
-2.1099
-7.28583
-11.9593
-1.2179
3.6115
0.0914007
-7.13
-8.13428
2.48222
11.1739
14.6824
7.86847
7.59811
1.01754
-11.8181
-0.99415
3.67329
1.45484
-5.23268
-11.1767
-4.74257
-1.05035
-3.49157
-9.01623
-8.00532
-8.34453
-10.2931
0.787577
11.6962
16.0115
13.0991
-3.51528
-0.420631
1.73378
-0.964854
-9.15828
-6.53557
4.00149
6.87801
1.97832
4.44404
7.54536
13.2598
12.8928
5.11781
-7.15578
-5.2869
3.45474
-3.41294
-14.513
-12.1162
-6.50483
-9.66326
-4.5027
3.46733
2.99307
5.0729
9.50308
4.53519
5.8283
5.44371
10.4413
6.36586
-2.7453
-8.10017
-1.59131
-3.92067
-6.2565
-16.5673
-11.8179
-2.95582
-2.4931
-5.1707
0.895958
4.24807
3.11371
9.66076
11.0453
6.37166
-2.90585
-4.0289
-7.77808
-12.153
-9.21266
2.58275
11.3621
9.33986
4.26991
3.17703
6.41112
7.37279
12.4078
4.21978
4.01811
1.74978
-5.86598
-2.66027
-3.0602
-15.6192
-5.16996
-4.51192
-7.93279
-0.731825
-0.780048
-2.37701
0.0165904
4.10411
0.871439
6.02254
3.32437
-13.4301
-13.8855
3.1894
3.91068
7.55137
6.32464
3.52182
-2.62525
5.73473
4.40824
-3.31947
-10.7115
-7.5287
-0.702929
1.60303
-2.51173
4.08014
5.11938
8.89067
10.093
5.34537
4.23209
-2.59457
-5.43647
-2.96169
-0.351383
-7.61063
0.294523
7.99616
1.13224
-3.58422
1.61067
3.26211
-4.11224
-10.4723
-3.4317
-2.57623
-5.05247
-9.54169
-4.38959
6.08792
11.25
13.2794
21.1472
8.55801
1.8301
1.84223
-9.20151
-17.8744
-17.7585
-1.86768
3.94818
5.10434
6.30597
11.4845
9.08522
0.886718
-6.59914
-4.94119
-11.9647
-16.8906
-17.5231
-16.7369
-10.0032
-0.443047
7.165
0.726675
4.95691
19.2748
19.6825
14.7369
6.42519
-4.47032
-5.75364
-2.95934
-0.867376
-0.999012
6.3828
6.82172
-1.52803
-2.13539
-2.43311
-7.38484
-10.1641
-0.625543
4.28031
3.31486
4.19203
-5.2137
8.55256
12.3223
2.56511
-0.103879
2.92109
4.61185
1.98996
-5.81791
-6.76005
-5.47854
-4.39611
-4.30287
-0.764576
4.84415
3.27029
1.87626
-7.49308
-8.46703
-2.09242
0.626543
3.99838
6.74111
3.93615
-8.13357
-12.4869
-13.7711
-15.2558
-4.3967
6.7074
5.00139
7.09865
7.47787
3.38195
2.26589
-0.880486
0.553343
10.6646
13.5924
14.7063
15.2299
0.499132
-13.6845
-11.8229
-5.02636
-9.21426
-10.5846
-9.08642
2.46855
7.73559
11.6909
5.45384
5.02056
1.0881
8.92953
21.5759
12.7552
-7.48499
-21.7756
-18.8086
-3.59039
-17.882
-14.049
1.72682
9.75909
10.422
11.7653
6.84777
-9.33399
-19.6788
-9.81743
0.71698
-6.91461
-0.788587
5.15489
-4.11232
-1.64991
11.761
12.7617
2.89613
-5.43353
2.5267
8.57207
-0.162316
-7.56922
1.94706
0.899301
1.8587
4.08214
2.07906
-7.52173
1.33986
5.60203
10.5664
3.35356
-4.19848
-2.49475
-3.69937
0.604934
0.949968
-5.45462
2.862
6.55164
-3.74007
4.26419
4.3134
-5.06162
-7.84429
-8.45222
-11.5861
-3.04853
0.510664
-1.096
-1.93926
-4.63955
7.15122
25.3459
13.8065
7.56521
4.35507
5.75931
-10.3224
-13.2975
-4.81845
-15.3347
-12.4121
-6.33506
-6.64135
4.39461
5.94117
-3.85687
-9.11402
12.7407
10.3708
-0.703526
-8.69301
-9.14123
-0.36812
5.85093
14.8423
16.841
16.3724
1.09714
2.20991
16.5761
3.60989
-7.20123
-3.62044
-2.10649
2.00664
1.83414
-1.2235
-9.2899
-7.88937
-3.49752
-10.4388
-19.5161
-7.25386
11.1519
-1.06522
-10.0353
-3.94878
5.28634
7.01963
-2.93059
-1.23086
4.86777
10.2076
0.748798
-7.36102
-10.7335
-7.38122
-11.9325
-19.707
-6.09635
15.2604
15.0335
4.43902
-3.41959
6.59738
9.89569
5.18615
6.84062
8.50148
8.36546
5.34216
4.62081
4.61592
-1.48826
0.15747
7.65801
-1.08275
-6.21891
0.378686
-1.97131
-8.49717
-8.35742
-2.09907
-2.76234
-2.26217
-2.63632
-0.285665
2.0984
1.88623
-1.69094
1.70512
4.61406
-16.6902
-20.8006
0.0313526
5.1537
14.9692
18.1975
15.0551
8.55456
6.67121
-5.15164
-13.0305
-14.4324
-12.9594
-12.8273
-18.3814
-13.3304
-6.30109
2.49937
11.119
10.8535
16.8678
17.5862
6.44013
1.1091
-7.36464
-16.5136
9.69718
20.1766
-10.0189
-0.831956
20.1226
9.87484
3.07376
4.66542
4.33698
1.05581
-5.65339
-2.77933
-12.4808
-17.62
1.13026
1.93274
-8.47518
-6.04229
-0.884323
3.31506
-11.3719
-18.0223
0.837545
3.66531
-4.37509
1.30977
5.16803
5.90557
9.37768
7.03666
5.81521
5.36741
-1.11338
-2.22057
-5.37951
-3.95173
-6.05741
-14.4084
-3.41294
10.829
-3.122
-4.72625
3.67548
1.8704
-6.61493
-3.43425
2.46235
7.34452
14.4623
14.3495
8.50006
4.84111
5.27155
-0.634851
-8.76211
-8.8171
-0.983802
0.18154
-4.80473
-7.00614
-1.44567
0.782468
-0.169444
5.80072
2.08124
6.81525
-1.13562
-5.59955
-7.41762
4.12296
1.75775
-0.75532
0.876075
4.33635
3.04218
1.89686
-4.81234
-1.71292
6.90957
0.644628
-3.72555
-6.53635
-5.63668
-5.54569
0.573348
2.15316
7.12086
4.99204
0.675531
-9.73126
-4.68968
-1.07068
0.564898
1.58876
2.94402
6.85662
2.37201
2.34787
-1.26028
-8.6547
-6.61117
-0.809952
-0.211727
-4.743
-5.01449
-12.1752
-1.32386
13.5124
7.93197
2.93018
3.50894
-24.8947
-9.37569
-0.591494
-4.97729
0.169126
0.757065
4.01092
22.7014
12.7848
0.683819
5.03667
8.60859
7.28602
5.17496
-1.45542
0.753509
-5.99567
5.42342
12.6541
11.6222
-3.12192
-2.39608
-4.48038
1.49879
4.26746
0.579431
-8.02374
-16.8675
-12.9546
-3.15491
1.79731
-4.97467
-12.5593
-8.67828
6.74344
10.0509
-1.52424
-4.30803
-5.92157
-9.04797
1.78742
6.53855
1.18288
-0.769817
-5.21301
1.26117
12.961
12.611
5.79149
-5.76859
-7.46782
-5.69848
-2.49913
3.10644
0.146591
-3.42711
6.72261
10.6255
3.50739
-8.89502
-6.82169
1.54968
3.78058
-4.77394
-3.60369
4.81606
6.06846
-8.18428
-10.5678
-12.9623
-8.5615
0.176818
10.4565
10.4409
11.6659
8.66067
0.518737
-1.55002
1.38782
5.83159
4.42102
4.87581
15.4722
3.44887
-0.88485
-5.54944
-6.03277
1.22508
0.908652
0.440296
3.95724
-0.757197
-6.58811
-8.67892
-7.27714
-5.22436
-10.1777
-5.5295
2.81314
6.53622
7.70936
-6.01137
-19.7534
-3.91342
6.17607
-0.482476
-2.34964
0.753949
3.71142
2.28497
-0.345663
-1.96586
3.74387
1.71107
3.62397
2.30867
-1.08434
-0.733988
0.466922
-3.55032
-4.22067
-4.20646
-1.2411
17.3964
18.2239
10.258
3.37974
0.885115
-1.81985
-3.67865
-5.65737
1.41771
10.781
2.20051
-5.5797
-8.22816
-3.16308
-8.77661
-12.9214
-12.4594
-7.22245
7.45628
7.85408
-0.521233
-4.40329
4.78618
18.7955
8.858
-3.41488
3.95254
1.03492
-16.7248
-20.2611
8.09276
0.328531
-12.2167
-5.00815
4.33919
8.78326
3.90872
-4.4349
-5.53698
7.28332
13.0047
-6.86174
-11.4322
-7.05817
6.32864
6.06187
0.766621
5.52072
10.9147
-0.0114567
-6.41825
0.437455
5.07956
-1.87659
12.4631
12.2213
-7.61169
-9.80029
4.04844
8.07078
-7.01792
-5.26387
-3.79602
-2.58512
-0.787456
-1.97187
1.47708
4.51482
2.96688
4.14725
-5.21076
-1.37091
7.75203
-2.28915
-13.8317
-14.9232
1.74515
5.50822
-5.30768
-5.50685
0.614583
8.93025
8.32413
2.57123
4.34649
7.72072
5.35012
0.885854
-3.07412
-9.69514
-5.35504
-3.74394
-1.57299
0.847763
10.6194
7.44059
-9.11923
0.80386
8.13167
6.66445
5.08063
-2.24913
-3.14579
-7.03706
-3.65552
-1.34032
-5.5921
-4.11546
-2.1539
-4.87441
-3.97119
-4.75699
-5.75581
-1.06427
-3.46842
3.47077
6.3842
5.57731
9.65241
-6.2008
-15.4892
-4.99173
5.01314
4.24064
-2.04253
3.12586
13.1317
10.1231
8.35572
11.5369
2.20525
-1.83805
-6.18162
-7.14594
-13.0916
-5.5511
12.1679
3.61696
-3.95891
5.94407
14.5606
15.1149
-0.483618
-11.9933
-9.36679
-8.86043
-14.632
-6.14998
9.70079
4.07676
-17.1517
-12.1902
1.02535
18.0846
15.2647
-7.26071
-9.59278
-4.78065
-3.63197
-4.95502
-3.70563
0.0396769
-0.484888
2.7323
9.86416
6.84459
8.63728
6.9275
-0.323913
4.70098
15.0886
11.9334
6.37455
-12.7464
-20.8322
-9.47931
10.8986
12.2301
-4.21087
-8.57275
-11.0864
-9.67863
-4.85565
-2.91786
-0.545434
1.16233
5.58164
8.22208
2.91856
-5.72801
-0.500375
3.8454
-5.75701
-14.1927
0.839035
10.9599
-4.94147
-6.09941
10.0356
14.5543
16.6483
7.06149
-4.86734
-6.14914
-5.93594
-2.25455
-3.01494
-5.03295
-5.27402
-1.01026
-0.536112
-4.23939
5.05334
2.78684
-1.33944
10.7051
6.54936
-4.92281
-10.7115
-12.2635
-4.26465
5.54779
15.9069
7.89382
4.41008
3.30264
-8.42919
-13.373
-2.77084
6.92221
2.28244
2.24633
-2.08828
-1.65222
-4.5848
-16.0634
-16.8603
-7.89336
0.56516
3.27585
2.80602
6.78125
11.8008
9.77702
15.366
7.59742
6.05457
16.0413
10.0768
-0.520367
-3.75889
-5.96857
-8.14476
-0.324251
2.21324
-4.67768
-10.0452
-9.09587
-7.2019
-4.74652
-0.405006
1.65522
-0.395814
0.660966
-6.89317
-1.69055
0.268497
-2.50071
-3.3186
-5.1971
-2.71202
-8.86544
-5.599
6.24848
14.0534
7.96888
13.3718
12.1047
0.667035
-5.40097
0.690571
2.24115
-2.61593
7.35326
3.64546
-4.07509
7.26071
-2.14729
-14.1544
-6.62312
4.51082
5.05624
-0.712374
-7.05419
-14.1364
-5.64061
-2.76321
-2.95848
11.9853
21.2826
4.84307
-11.4102
-7.65066
1.91142
8.18686
7.72773
-0.517691
-3.63451
-3.93243
-4.75556
-5.02354
-2.41544
1.14806
11.6419
3.95603
-3.14124
-7.743
-6.25016
-0.742282
3.83439
-3.95037
-5.56149
1.98754
7.8026
6.32369
6.56022
2.15576
-1.81753
-5.24211
-0.70169
-1.75168
-0.732291
-0.0270518
-3.65573
0.698686
7.63782
-2.15763
-6.1363
-4.30792
-9.29857
-5.37251
2.66401
12.9171
4.31527
-6.52998
-5.88089
3.2515
8.45827
14.7373
3.25961
-4.65425
-10.4758
-5.47517
2.37965
5.09188
-2.35847
8.39787
8.49003
-1.86187
-1.36677
2.24062
6.84667
-1.29841
-6.81009
3.69541
2.12262
-5.78988
-4.3305
-5.67552
-3.05166
-10.1712
-3.65922
3.38697
2.97361
-4.03247
0.557094
5.22995
3.09349
-4.28049
-8.1083
-1.91754
-0.850384
0.834338
6.08965
1.92308
-0.916667
-0.231294
3.58113
9.20844
5.00502
6.71948
1.59534
-1.25085
0.0476524
-0.884129
-21.1941
-25.2001
-5.64232
14.553
15.8373
-2.19453
-0.0921024
2.23287
-3.61238
-7.14386
8.29295
1.86497
0.866055
4.36091
3.25172
11.3635
18.475
3.90806
-7.89509
-4.00673
3.56907
4.09667
-6.68097
-16.1032
-18.1923
-10.2243
-4.13652
1.99059
8.5674
7.62292
3.30788
10.8701
12.7122
-0.0904929
-1.44201
0.833666
-10.9596
-14.1548
-12.1263
-9.90866
3.80988
14.5038
7.70866
-1.38066
0.0167195
7.49124
7.05048
4.56913
-1.60715
1.57493
-3.92632
-9.1249
-7.19611
-4.66812
-5.12552
-7.49355
4.59042
16.5237
2.98952
-7.89559
-10.5479
-5.82667
3.56178
5.65235
2.71622
5.58174
7.1914
-5.24865
-13.1503
-9.25395
2.33817
10.97
8.03075
-0.0339261
11.0378
7.94575
-6.07877
-9.3093
0.637754
5.66564
7.05228
5.04878
-3.21314
-5.30748
0.952622
11.5452
-1.86641
-5.10884
6.81249
4.33836
-1.90272
-2.91444
-4.45457
-5.41244
-10.7864
-7.25562
-2.8612
0.220253
1.4152
-3.62745
-7.57392
-7.20775
-8.81917
-3.39623
15.388
8.31141
3.1801
2.10055
-3.56627
-0.466435
5.83694
5.67245
6.06611
1.04587
-7.26883
3.20962
14.0829
1.56193
-6.99139
-8.23062
-6.90633
-1.45484
20.2822
23.5666
-3.8006
-8.21102
-7.61951
-6.95391
-7.05275
-5.15695
-4.46393
-4.58036
-2.74119
1.9412
7.39111
-0.107625
-10.8518
-9.10946
-1.52884
3.77098
7.19844
5.85006
-4.34305
-9.1251
-7.46626
-6.44189
-0.118088
10.9893
12.2685
14.183
12.211
1.1502
-3.03222
14.7839
16.6067
-12.0696
-10.1916
16.0521
-2.05001
-6.09945
-11.1153
-19.6446
-13.4987
-3.57312
0.115347
1.87422
3.04735
-0.339428
9.78307
8.59779
9.68094
7.22438
-4.03009
-13.8774
-17.9756
-3.15073
2.14834
-6.58148
6.15974
8.68322
5.81323
5.20304
-0.433559
-1.71199
-1.62658
5.08583
4.31693
1.841
-5.71441
-1.44249
0.648188
-7.82936
1.73793
9.64016
12.5855
3.77175
-0.932508
-3.42718
-5.91234
-5.75083
1.09388
-2.75289
-13.4579
-12.4383
-9.2836
-3.18878
10.229
8.01695
-1.25043
-5.63083
-5.60636
3.12063
3.20536
0.784031
-1.51182
5.4239
6.61006
1.4021
2.87263
2.15131
2.45226
4.21412
5.98746
5.97283
4.71405
-0.604714
-7.47809
-5.92216
-1.25911
-4.60862
-4.06772
11.3008
14.2535
-2.79561
3.83447
-1.98202
-8.37025
-8.14999
-12.4612
-4.72812
1.5974
2.49556
-3.55624
-1.57701
5.64136
8.50357
5.76739
1.87557
6.4153
7.24176
-1.05674
-10.0135
-11.4265
-6.82555
-10.6979
-2.73808
0.384498
-0.720109
6.05539
-0.344176
-0.408917
10.2868
8.62071
2.02523
-3.37181
-1.89146
-1.62446
-4.61666
-6.28459
-4.46013
7.77739
10.6099
10.9968
6.37312
-2.98555
-12.4396
-12.2855
-2.38071
12.5929
8.67314
-10.9123
-13.4846
-0.374102
5.21876
0.5207
-7.46311
-7.26543
1.70228
2.88443
4.51121
2.22699
-0.074529
2.66571
6.94405
16.0034
19.3782
9.6085
-1.04649
-6.73423
-4.64319
-4.83405
-4.8799
-7.25099
-7.70956
-5.99594
-0.453689
8.91669
-5.13249
-2.02169
8.24595
2.15212
-7.94562
-12.6661
-7.6938
-11.2043
-6.98085
3.82844
-2.07567
-6.45394
-2.9342
2.40673
6.99701
11.5805
7.63527
12.0875
11.1502
0.0690132
7.41565
2.8354
-8.60756
2.28228
10.1873
2.45513
1.9059
-1.20154
-3.3734
-3.95677
-5.87522
-5.26019
5.19548
4.35084
-4.82573
-0.171575
1.96054
-5.90887
-6.84317
-7.13211
-1.20622
2.77789
2.74494
1.64736
3.15763
2.19734
-9.34578
-9.1768
-2.77751
-8.11193
-6.97117
0.11105
0.107735
1.11708
2.7461
-0.215365
-6.02368
-0.232465
2.33054
7.48165
8.2766
6.07053
9.31336
3.67027
-2.65923
3.22095
11.9354
14.5388
13.5941
5.32038
8.12491
-3.18814
-17.4775
-16.4087
-9.96706
-6.00245
-7.16232
-5.89423
-3.0428
2.34033
7.418
2.93365
-6.8413
-4.77525
5.08231
0.69361
-0.665745
-2.36374
-9.05333
7.54824
14.0641
-3.79789
-6.53465
1.83986
3.19304
-1.87232
-7.60975
-7.6535
-2.20274
-0.75583
-0.416067
2.44511
8.42707
4.62384
-1.40329
2.09605
1.91095
0.90484
7.57044
1.72269
-12.0993
-4.95746
5.12394
15.6677
4.50552
-9.8325
-5.71586
2.30948
2.61546
9.97806
-0.547981
-7.6307
-6.20407
-4.86768
2.07477
6.57965
0.960679
4.45028
10.4746
-5.13922
-8.84108
0.580487
0.992417
-11.1619
-11.2388
0.0870975
3.60197
2.48572
-0.0266191
-5.75208
-3.40835
0.930712
12.0352
11.3416
3.56052
-2.76691
-3.62834
-6.4827
-5.53519
0.377862
0.245842
1.81141
-2.94699
-2.60905
-1.32052
9.51164
6.35259
-6.7864
-5.27895
-6.30888
1.70387
8.69431
6.33564
0.30166
-1.2701
2.6866
5.96936
0.383244
-7.496
-4.91971
-1.21839
-1.07115
0.792145
-1.21948
0.0422664
-4.75259
2.27261
5.28402
-0.318322
5.02535
15.6432
11.8281
0.984549
-3.26829
-6.9356
-6.67652
-3.7791
-5.81656
-5.25801
1.11129
5.21964
6.69762
-2.708
-7.32527
-6.77683
-4.40408
-1.7473
5.02577
5.90941
-2.12871
-10.6835
-7.5259
-7.31001
4.87678
15.2555
-3.2709
-3.92775
-4.84636
-2.56686
19.68
12.0383
-7.76949
-9.06148
-9.29207
-9.53311
0.117463
6.78026
2.83206
-2.22594
3.75424
10.9733
14.3974
-5.43607
-8.44129
-5.6925
19.5305
35.105
16.038
-2.19313
-17.9115
-17.7889
-14.35
-9.63448
-1.84911
5.04884
-0.550439
-7.5853
-5.27732
-3.37919
-4.28983
2.00539
-1.18129
9.1231
9.73417
3.77502
-8.66009
-11.4908
1.32524
5.78818
-1.34593
-0.227622
4.68838
4.44218
4.81984
3.91589
0.548033
-4.25611
-3.96954
0.533069
3.46978
-3.01324
-3.09405
6.01108
4.28156
0.304359
-3.29406
-11.2863
-6.91826
-10.0422
-7.25597
4.25707
7.77401
0.799244
-0.471851
5.41395
-1.4783
-0.913762
13.5713
16.7146
6.2568
-3.67569
-2.00144
5.66599
-2.80565
-15.7605
-6.27743
12.6921
12.9997
2.37837
3.88655
10.0568
9.03836
-5.78216
-17.4117
-18.7198
-5.59559
1.64911
-14.2692
-19.1879
-15.4922
-10.232
-0.890681
8.16441
7.44214
-5.4868
-5.2474
-5.15644
-3.4585
0.0870098
3.86434
12.4636
14.6888
23.0484
20.9216
4.44311
16.138
10.6184
-5.29767
1.45817
4.07749
8.61476
5.88146
-11.3911
-7.81114
12.719
7.18887
-8.0924
-12.5488
-10.265
-8.48106
-17.7051
-14.7754
-10.3544
-5.13545
-3.74741
-14.7465
-12.7547
3.6013
2.37174
2.58101
0.481581
-5.4407
-5.2924
3.86545
9.47222
9.05534
11.1418
23.6729
37.2863
24.3368
8.99338
10.8739
6.01735
1.7802
3.8656
-9.64623
-19.6073
-14.2247
-10.3211
-16.5781
-24.1982
-14.1095
0.708663
-2.67131
1.65475
5.92817
-9.7351
-15.5612
-20.0411
-9.28219
-6.90425
-10.975
-1.80695
-3.10608
-5.49466
7.97003
16.4439
16.9013
14.3529
21.3126
20.9604
18.0572
14.3139
8.49491
2.39696
-6.80023
7.85472
15.3402
7.63132
-7.35345
-10.7047
-6.86228
-3.34641
-8.43238
-4.19169
-1.3446
-6.96058
3.39732
5.73162
6.58539
-0.209826
-10.0613
-15.5548
-7.90045
-1.7214
-0.178245
-9.98684
-12.7821
-8.17787
-5.39347
-0.67704
-9.63931
-11.5351
-3.58815
-2.58579
7.65923
9.50931
3.97756
11.0159
11.224
12.5117
7.81965
15.7062
14.2003
-4.19572
-6.53538
-7.78729
-8.99559
-7.5796
-1.99499
-0.496551
2.27626
5.70798
8.50045
3.27573
-6.98495
-5.20556
2.06939
1.10012
2.85378
4.65091
3.87194
-5.13882
-7.59852
4.30801
6.21545
-0.343888
1.74253
1.26838
1.54618
0.649997
-0.989422
-3.84082
-0.771612
-5.38446
-18.0463
-1.66317
10.1834
-10.382
-11.1476
-1.84765
1.35086
2.73542
3.63175
6.57631
5.75713
10.6023
11.4801
3.8493
-3.29151
-8.00521
-5.0357
-4.44808
-5.44945
2.39115
6.62555
2.42326
-13.6781
-13.7182
-15.1816
7.12006
21.7553
-1.62912
-2.30622
3.22794
-3.79124
-2.36175
-4.34332
-1.0768
3.8683
7.96805
7.11158
2.14407
4.53418
7.55562
6.66198
-0.105397
-3.01688
4.99872
9.12028
-0.308768
-8.38251
-4.38104
-0.732238
-1.63565
5.91269
1.41114
2.20179
3.98141
-1.08992
-10.4117
-13.7437
-7.8802
2.159
-4.44739
-2.09756
-0.445155
-5.88421
-4.22301
0.468897
-6.98535
-9.74274
0.690178
2.12118
2.36835
5.89271
8.89717
4.77913
3.49693
1.71629
2.15785
9.74979
15.0129
1.12798
-2.61083
-1.79585
6.08151
0.961945
-7.61134
-3.20356
-12.4493
-17.8609
-1.46061
11.3025
10.1396
7.85682
4.90416
-0.804136
-10.4358
-8.11861
-1.19471
-6.32097
-12.56
-5.16004
3.56251
6.88639
3.09912
6.22785
-0.96715
-6.40184
-1.28152
7.29835
0.452531
-5.61364
-0.926948
6.56048
7.23464
3.27901
7.07742
7.57951
7.42103
5.13103
0.69617
-2.45858
-2.9251
-3.19597
-4.93926
-9.97098
3.59971
5.80865
3.52057
3.23856
2.63625
-4.70729
-8.70659
-7.71988
-1.7909
7.05901
0.906421
-6.69976
-5.76821
-7.32914
-4.67905
-4.24797
-5.2797
-2.27039
6.53281
0.641955
1.66854
-1.74316
1.9242
10.0661
9.98707
1.91332
-2.82669
-2.5766
-4.71083
-0.912403
3.3414
6.78772
5.34242
3.13335
-2.73914
-4.94945
-3.72948
-8.43403
-7.73686
-5.04938
-5.23432
-0.733813
3.35976
2.01708
0.405304
2.80997
11.8077
9.03436
-0.650392
2.82256
12.3638
6.46695
-2.05058
-11.7649
-10.1461
-6.71555
10.816
23.4777
-2.37606
-9.7912
-3.57623
-3.34894
-4.65305
0.483648
7.94208
4.16208
-0.374856
-2.6873
3.98242
-4.23486
-12.0249
-7.52044
-1.58505
4.94016
4.87634
-0.426799
-7.24742
-10.5054
-6.19757
-1.14537
4.10404
18.921
44.7254
9.73344
-21.1855
-17.0925
-12.6776
-8.23506
-12.1511
-11.4873
-1.99973
7.07959
3.84494
-0.0555606
6.4689
15.396
1.57159
-14.2924
-7.53866
0.0427432
-0.453677
-2.19844
-8.70906
5.77389
12.0696
6.72026
10.2327
8.7348
6.37171
9.23541
6.33325
1.33966
-0.681075
0.204611
-7.66295
-10.2086
-8.16696
-8.04142
-5.06047
0.486456
14.7263
4.34758
-17.7256
-10.9572
-3.27964
-0.348335
-3.20017
0.921998
9.42673
6.36731
-2.61268
0.562923
0.203047
-0.0391968
-0.185189
-1.88567
-2.04634
-1.96631
6.4498
5.14494
-5.85206
-5.41728
-7.9574
-2.45043
3.20071
8.57543
9.28453
11.6668
8.38649
1.46832
-2.55994
-5.21549
-7.57192
-2.99698
-3.05334
-0.454622
-0.330465
-1.04331
-2.25938
-2.08163
-2.59954
-1.89028
3.69138
0.713758
-2.87805
2.35342
4.95223
2.33215
-2.79736
1.35981
6.52892
3.01307
5.33323
-1.7147
-12.9126
-5.66123
-1.22883
10.0334
15.2528
3.7471
-5.14918
-6.00222
-3.04012
6.36911
0.64377
-2.57031
-3.89868
-7.1287
-11.367
-9.38683
-7.38965
-5.43552
1.32236
9.22399
11.6134
5.2013
8.8031
-4.8906
-11.236
1.68095
2.11494
-2.53479
-6.16476
-3.1125
11.5757
17.4887
9.70004
-1.088
1.49949
6.27584
8.06057
-0.503409
-3.19032
-3.42135
-3.627
-4.6076
-4.38876
-3.36376
-6.74723
-9.53995
-7.60784
-3.40546
-2.00533
2.35984
-1.38099
-6.18024
-4.78935
-0.127746
0.721717
0.623656
-0.0853906
2.94324
2.55058
6.42941
11.2354
0.76872
-3.6958
-3.8429
3.83003
7.2238
4.23708
5.32063
5.73736
1.55337
4.3446
5.84535
-5.09153
-6.44943
-5.38161
-5.99366
0.519276
7.27439
7.9849
-1.97585
2.81119
-0.0593951
-11.122
-11.3514
-7.52999
1.25562
3.80508
5.27594
-0.635341
-2.92175
-1.81035
-4.20325
1.86756
7.46314
6.61479
3.92108
1.76323
-8.08277
-11.7539
-6.09028
2.21754
8.481
-1.76743
2.13779
2.96109
-2.42365
-5.05153
-6.44956
4.54097
7.54557
1.72047
0.981179
2.84949
3.04543
-0.361221
-5.9513
-1.98698
3.20478
-3.38293
-3.49571
-3.34108
0.275811
5.96909
-0.418555
-7.90974
-6.61522
1.32367
7.46828
6.26289
-2.25335
-4.46604
5.04261
13.5526
3.61021
-0.0689663
4.72693
-3.13957
-11.5764
-7.52914
-0.264117
-2.73831
3.17323
12.6352
-2.356
-6.54799
-2.41788
-2.78213
-7.72224
-9.61405
-2.73937
5.49144
0.20102
2.57703
9.89729
2.83773
-2.75496
8.51532
10.646
4.02021
-5.60454
-4.33529
-0.758997
-4.02993
4.69906
2.05464
2.5937
10.086
4.50336
-8.6632
-6.40173
-1.3151
2.06746
-0.00449622
-0.689305
1.22086
-0.178446
-6.96412
-3.80036
5.81072
5.99369
-2.61746
-8.36491
-9.33176
-6.16471
-2.84186
0.402506
-0.687363
-1.31587
-2.39334
-1.22317
3.83859
0.542482
0.0582869
-2.59187
0.861726
9.79658
11.1348
2.3485
-5.29412
-0.222423
-0.0603975
-5.62155
-3.16542
-1.20693
2.76206
12.6978
12.0024
9.8831
-5.37983
-10.44
-6.67812
-2.9439
-5.15388
-2.97717
1.19383
6.422
2.99639
0.530832
2.935
2.6897
1.48557
1.33321
3.50404
1.33379
-4.42597
-9.73501
-17.596
-7.74312
8.4524
8.19909
3.47868
-1.49289
-0.589592
5.8061
6.42928
-5.85994
-4.70386
4.55129
8.78039
5.23896
-2.48536
0.562167
-9.00975
-5.90888
-1.86722
-17.0229
-8.76363
-1.67535
9.92563
8.22536
2.61878
2.91479
3.02455
3.79948
9.01896
6.99876
3.48759
-0.831447
-5.41814
-4.96146
-4.40685
-4.60664
7.79425
8.96103
4.9413
3.3826
-3.82573
-8.61004
-15.4983
-14.2524
1.42374
9.38598
16.5297
2.95404
-7.26498
-6.38876
-8.74097
-8.12467
-4.68267
-1.1613
-1.86773
-2.04945
6.32232
4.31731
-4.48921
-1.70972
-5.23437
-6.14154
12.7748
12.5962
8.60454
5.53018
-4.12231
3.71101
11.2352
6.55818
10.313
8.73638
5.25031
2.27735
3.04985
-6.84602
-20.7425
-20.7707
-9.77632
0.589149
-0.735432
-5.67138
-11.8318
2.0876
13.7959
2.78428
4.25417
3.29796
-1.68897
-5.76649
-1.58895
-0.325942
-5.15707
-9.61029
-5.28052
-2.66422
3.58076
9.38561
4.67597
2.21526
-0.231905
-1.68709
7.42524
14.7803
5.69166
0.0540039
0.328043
9.40408
14.6974
7.20426
-12.4898
-15.316
-15.603
-11.6161
7.29325
18.5538
1.81639
-7.23003
-8.08799
-8.27926
-0.608322
2.02035
-2.15683
-6.50301
-3.28754
0.708613
-6.45253
-11.5489
-6.67855
2.144
8.9617
10.6942
17.0174
14.4383
-3.81527
-14.1826
0.239237
5.76748
0.897345
0.828912
-0.943363
-10.2587
-3.51963
15.143
13.5076
-10.6278
-6.51468
4.76767
-0.335419
-6.23175
-9.78435
-7.38836
-1.93223
-0.470158
-1.74294
-0.64713
1.16057
-0.745907
3.17797
5.01183
6.94222
14.4785
12.0971
-4.18155
-9.88287
6.58247
4.06186
-2.81786
-1.53939
1.83037
9.61871
8.33958
1.01991
-3.35743
-7.93929
-9.05575
-8.54997
-2.85574
1.05252
2.69392
5.9574
2.69221
-8.82412
-13.6148
-6.17203
4.91463
-1.08061
-13.1571
-0.656501
7.84524
7.37959
3.3686
0.492839
0.186345
-3.28457
1.99627
2.96381
-0.6546
-7.90339
-10.51
-4.05179
8.07896
5.21343
3.9399
1.3369
2.90721
6.32271
6.62176
1.50935
2.07978
3.11173
-1.35786
-1.04225
-1.63915
2.09692
8.45531
1.38859
0.495767
2.93413
-5.66064
-17.7591
-11.7022
6.14958
4.5586
-3.3852
-1.15618
-1.26335
1.17121
-2.2095
-6.77923
-9.34222
5.1815
10.5416
1.22182
-3.41306
-7.86588
-4.49884
-0.987286
3.23508
7.64925
8.59478
0.579785
-1.46851
0.600951
-0.432638
-1.8268
2.35858
5.08133
4.16994
8.20534
11.1248
1.59014
2.29251
5.6477
-2.56724
-15.5157
-15.9959
-10.4717
-7.74416
0.359935
5.00509
2.12263
1.74351
-0.218914
3.42222
2.37741
-0.922655
2.65321
8.92483
1.01282
-5.24557
-2.62468
-6.48048
-2.11134
3.39451
2.7533
-2.77735
-5.47644
2.90351
-3.10841
-6.86559
-2.29182
4.30217
7.71677
8.74124
-0.11916
-6.02041
1.89655
1.36061
9.09209
12.7829
-7.7781
-10.4854
-5.13549
-3.6967
-3.28925
0.516211
7.15801
2.15493
-0.508067
10.7979
2.03394
-10.5819
-13.455
-14.443
-0.114143
8.82917
5.40079
2.07995
-3.41467
-0.179322
9.48825
6.4334
2.39664
2.83812
8.654
2.09752
-8.22549
-3.20644
-1.32818
0.793679
7.01081
-13.0625
-10.094
-1.68275
4.93994
5.01932
-3.38059
5.98389
4.49955
-7.41509
7.18001
7.42734
2.93564
6.1471
6.87419
3.37827
-3.57265
-17.2704
-12.4342
-10.1614
-8.84172
5.70691
6.88167
-0.974308
-10.2527
-14.0866
1.57822
8.83277
10.7858
16.3496
4.24854
-6.64268
0.332063
-5.72725
-18.3996
-7.58558
-4.59387
2.84834
10.3292
10.7652
-0.935803
3.70609
5.03839
0.782975
2.8664
11.4626
6.6163
-5.30089
-5.63053
-5.5295
-2.6588
6.78869
2.8207
1.56882
3.0002
3.64495
2.05146
-5.85675
-9.27139
-11.8581
-7.9229
0.171889
1.55076
-3.26646
-0.44464
13.0062
19.5202
-0.376246
-12.9336
0.689256
9.64881
-3.10248
-13.9763
-8.92788
-5.7647
-0.739413
10.1169
3.69078
-1.61866
-1.75105
0.773673
-5.70188
-3.01708
8.89202
9.80017
1.61761
-9.66227
-3.44016
2.64687
-0.734548
-8.56036
2.44518
16.3007
4.1179
1.45118
1.19358
0.0936206
5.02356
2.99803
2.14752
4.55055
1.5705
-4.01813
-7.70878
-9.85258
-6.67956
-5.01437
2.10861
6.68294
-2.20991
-2.35291
-3.1724
-9.25964
2.82684
3.37922
0.274859
-2.61699
-1.07786
-6.46304
-10.3415
-6.34367
1.08341
10.3344
19.33
11.118
-8.11472
-2.3878
8.18995
4.94024
-1.63836
0.602468
8.5628
-0.650573
-6.02731
-3.57093
-1.74388
-0.441426
4.50883
2.55582
-3.8959
-0.667991
1.45454
-3.02306
-9.14217
-3.65302
4.35044
-1.20154
-2.35795
-1.30882
2.78792
1.29012
2.68247
-5.53315
0.00749938
3.74964
-2.94621
-1.45088
2.15437
2.84165
-1.74124
1.89872
17.2943
9.20128
-13.2836
-6.28885
1.16395
-2.1735
-2.67684
2.83696
1.37225
-6.29177
-15.0979
-5.2102
14.0972
12.2299
1.18178
-10.3923
-10.889
1.00987
9.79627
-5.33592
-13.3485
-3.75287
25.159
15.1231
-0.744461
-2.35066
4.83535
-2.21219
-6.03804
1.54191
3.97514
3.60334
-5.99454
0.945634
3.75029
-1.31283
-8.84368
-15.0258
-6.74005
3.36722
-1.47828
-9.42167
-10.6736
4.95277
16.1138
15.3158
0.776966
1.672
3.79464
-0.777267
1.09493
7.94032
2.08618
-6.98111
-9.40324
-0.648241
4.38661
8.2175
0.322253
-9.17708
-9.28076
-1.41741
2.28719
6.23403
2.69579
-10.5207
-5.59236
3.80702
2.5033
0.667438
5.11781
1.18919
-8.0783
-5.55697
-1.00974
0.532484
-0.83638
-4.04086
1.57056
6.16414
7.29847
6.00297
-1.77124
-8.45382
-8.20118
-0.825372
3.49721
13.6528
11.4361
10.819
4.67981
-3.98249
-4.78217
-5.98387
-5.70766
-2.79514
0.0719297
-9.51781
-12.027
1.04658
12.2379
-2.29257
1.268
-4.57701
-2.39988
9.89907
6.0458
-4.28567
-5.18444
-1.33571
2.99416
3.26691
-0.836483
-3.50564
1.50667
7.22279
-0.0710767
-4.14116
0.75257
-0.128423
-1.53427
12.3132
3.50716
-0.275045
1.15027
-3.04515
-4.17487
-3.16782
-7.31162
-8.03795
-7.19293
-3.65969
1.47716
20.4066
20.2237
1.44393
-10.5981
-11.6046
-3.48226
-2.01324
-16.4736
-13.5523
-6.46361
2.20709
6.49002
4.28567
0.33629
-1.24281
8.67766
11.6986
9.85114
8.06931
5.56261
-7.10772
-3.65403
2.18247
-1.39205
6.14
-0.680973
-3.56722
-1.17774
1.31459
2.07098
1.60228
-0.486924
-1.07663
2.6354
4.05046
7.06708
4.35903
-4.48848
-7.05042
-5.22287
-6.27014
-7.48973
1.91725
2.27882
-2.61028
1.57283
4.98518
-7.06504
-13.0857
-12.1526
3.25008
6.07754
0.31559
3.89598
1.20565
-7.12166
-3.917
14.9643
16.8579
1.47408
-7.3148
-8.65028
-6.49909
-1.28879
-6.59278
-1.35847
1.6086
5.32725
14.1744
13.5251
-3.30704
-2.89299
4.09981
3.56653
5.36445
8.54564
1.75352
-13.7258
-15.1399
0.358627
13.8842
6.34893
-7.44874
-6.53983
-0.751057
-5.13854
-11.0892
-11.9002
-0.975387
4.84668
5.24034
-1.30318
-4.6872
-6.52087
-1.42797
5.53159
5.10187
9.54224
3.81759
2.27048
2.77043
-1.94806
-0.0329732
2.91327
5.51821
1.97053
-1.38922
-1.14125
-5.031
0.848145
-1.02418
-8.74736
-2.66786
21.2126
5.47683
-7.12728
-2.11047
0.455393
-0.417099
2.18358
-9.41398
-6.80913
-1.3894
-1.77184
1.3673
4.19408
-2.37552
-1.70773
1.30296
-6.56564
-4.79988
-3.21361
7.97949
7.66493
11.0743
8.49448
-3.69654
-3.53897
-0.0457568
-2.7201
-5.23421
-4.99493
-6.9772
-1.27686
-3.04715
-4.74936
2.72661
-1.30798
-8.64552
-4.57366
2.81221
9.48485
5.4081
-9.67363
-2.46895
28.1273
38.6764
2.24821
-4.42832
5.87408
5.53631
-0.306062
-3.75957
-2.95726
-5.90772
-10.334
-3.9794
-3.8965
-9.61329
-8.97308
0.816576
7.08405
-11.4892
-18.4052
-9.62645
-12.0829
-19.2967
-5.36935
-0.202004
6.19234
15.4355
12.8428
8.17156
-0.892852
4.85806
9.47913
12.1769
9.25342
5.9651
-1.48695
-8.77998
4.96538
13.0336
4.4578
-3.2773
-8.31474
-3.83472
1.82471
5.43972
-3.1965
-13.7106
-10.8278
0.0645938
15.6004
11.0824
-1.69973
-7.74326
-2.334
3.84113
2.75238
-1.50137
-1.06068
6.55632
7.79425
3.81157
-8.33914
-12.8657
-7.04127
-10.9642
-12.0621
-7.02453
4.29497
4.36909
0.193623
4.88813
6.99996
12.9193
17.6277
15.3657
10.0936
-3.48547
-16.0219
-22.0665
-15.0809
-10.3535
0.00205743
2.03029
0.00959362
5.22091
1.00835
1.39431
-4.98062
-9.69186
-12.089
-6.96399
-1.15459
-2.56342
-2.92309
4.02459
14.581
13.7246
14.2107
14.6413
9.99717
10.3443
0.0266424
0.385703
10.2578
1.25301
-9.17204
-17.3788
-14.4844
15.3093
13.6582
-0.78784
1.63134
-6.94099
-18.1683
-14.8105
-11.6298
1.93791
8.49515
8.27333
2.67086
1.16256
4.91034
-0.36573
-12.1324
-6.161
4.76374
3.5684
2.51193
-12.2762
-7.42008
-1.96543
-9.48526
-3.85521
11.0388
8.23592
-2.95753
-0.220196
3.47388
10.0031
4.87794
-0.36974
-4.54144
3.73428
7.50603
8.79649
11.5417
14.9761
1.37536
-7.23342
-9.48843
-17.1031
-14.6181
4.3399
13.4403
0.598966
-2.38336
-1.86583
-0.675729
0.884707
12.3681
4.31986
-3.21626
-6.66031
-5.49086
-2.10843
-3.98853
-6.78019
3.10359
-2.0788
-6.34073
0.938417
1.55906
-8.01617
-17.1735
-13.0796
-6.00857
-1.40776
-6.04345
-3.39254
0.744711
8.90815
19.1999
18.7067
15.014
14.2105
10.3716
7.92885
5.67725
-2.07963
-5.66747
-0.512912
1.96039
-8.15013
-7.17888
0.336559
1.92432
-0.563616
1.7275
-0.318028
-3.50144
-6.41005
-6.46265
-9.46156
-5.99777
-5.74476
-1.88116
-2.36322
-8.12502
-2.26742
13.4363
7.67522
2.62531
8.96156
9.34856
-4.11972
0.183722
4.61482
-5.88094
-10.916
-2.1159
4.74778
7.40181
8.65493
4.7393
-0.785336
-7.851
-6.46348
-3.56962
0.985131
-1.81329
-6.8671
-8.96321
-8.8768
-5.62564
2.85295
6.92476
7.76458
15.3238
16.9644
2.17914
-8.75704
-14.7402
-13.6628
6.03494
5.014
-4.87234
4.49301
10.5455
4.13288
-2.0461
1.31233
-2.26246
1.21316
1.80485
0.420382
-8.72669
-11.7828
2.56518
3.91011
-1.06497
3.95339
10.3805
16.4344
5.39242
4.82525
7.94245
0.983935
-11.4607
-17.724
-8.74127
-5.62355
-6.56912
-6.84464
-4.15114
2.01851
0.308699
4.07306
2.23881
-5.66774
-0.743734
3.44607
1.96357
-3.21097
-9.66523
-6.67986
-0.793467
10.7545
16.2897
14.0816
-4.67871
-7.11984
-2.56415
-3.40817
-7.76026
-10.8347
1.92641
8.91649
-2.30791
3.64641
15.7449
7.38061
3.81691
-0.43876
0.825485
5.67099
1.93053
-4.86635
-0.18168
-1.21492
3.80235
7.59021
5.3458
-4.9142
-8.41458
-7.95662
-3.20851
4.10999
-6.95117
-20.5196
-10.2483
3.0935
6.19471
3.05738
10.636
16.6228
3.89412
-27.0524
-18.1688
14.3734
-5.60091
-7.80486
0.407105
7.70051
10.6067
9.51449
4.12429
-0.554615
-0.38014
4.64681
-1.32787
-4.44858
-3.80562
0.964088
-4.06876
-5.48085
4.63128
20.9215
7.47664
-11.925
6.00781
1.90132
-11.7479
-8.76555
-3.80946
-3.53548
1.79433
-6.99513
-7.42765
1.88025
3.20572
1.56545
2.9477
10.3177
2.35868
-1.44599
14.9024
5.15163
-7.53449
-6.62975
-6.4787
-5.15673
8.32613
4.50067
-5.74806
-3.25873
2.68168
-2.53588
-0.142642
1.45439
1.59156
1.54973
1.37631
-5.41539
-2.26784
-0.844646
-6.3628
-3.85587
2.24046
1.35293
1.58049
4.16128
6.48323
-0.541155
-2.72892
0.912917
-4.85691
10.4423
11.7829
1.19596
-4.43888
-0.681282
0.110837
-1.94757
-4.13362
-9.50235
-12.4934
5.16038
6.02485
-5.20342
-5.77073
2.48076
3.01099
4.87715
5.03081
-0.900131
-4.78467
-11.9134
-5.9565
1.86723
-1.80247
1.82785
8.45634
10.0761
9.81606
8.2429
1.74487
-3.56003
-3.63173
3.88823
10.2336
-1.83522
-13.1537
-6.02029
3.19613
0.128661
-0.319219
-0.628415
9.78162
2.91574
-1.17847
-0.72257
1.91032
0.0841735
-1.34572
6.5501
-0.316949
-15.7745
-8.11155
-4.25249
-8.03512
-4.35873
-2.43762
-5.04308
-3.10077
4.23202
0.795569
-4.68854
-0.526368
16.3405
16.8086
4.56395
-5.61422
-10.4632
-6.47408
-5.77111
-2.34707
1.88735
-3.40004
-6.48666
2.76717
13.9333
10.8776
7.4438
4.73487
2.6409
1.0641
2.36541
-4.31724
-8.51721
-0.939605
14.0027
9.93187
5.60835
1.32785
-5.13117
-4.449
2.59286
-0.490335
-6.05351
-5.53916
-9.14074
-11.1093
-9.33129
1.43311
-2.09406
-3.46463
4.06687
1.51744
-4.32215
-7.04113
-12.335
-3.38385
12.0846
16.9601
9.45419
1.45636
7.50141
9.39344
1.79071
-5.96122
-4.30401
1.90848
-7.21282
-19.3777
-11.4173
0.566575
7.13701
7.19681
1.24163
1.4533
0.0438652
-3.97675
-6.98737
-2.53388
3.38098
6.62025
7.01892
8.72018
10.3007
5.09042
2.17344
-5.58237
-10.314
-6.93629
-7.28911
-10.8495
-5.60759
6.85876
12.6988
25.9057
39.7025
45.3263
28.4147
-10.8858
-24.2337
-9.54133
14.7332
38.7532
23.9513
-8.71734
-35.7481
-69.3619
-72.9104
-47.5004
-31.7806
-27.3014
-2.57437
20.2714
34.5946
11.0928
-8.40649
-1.05042
-3.16145
22.8966
9.60163
-44.592
-82.987
-71.7541
-23.3931
51.0507
116.659
146.085
80.6805
29.056
46.6972
46.0185
3.30681
-31.3946
-51.9213
-69.569
-84.5176
-78.9394
-43.8998
4.84467
31.0722
25.7521
23.2558
34.8667
20.5783
-1.2495
-15.2955
-41.9246
-44.702
-82.4303
-76.634
-10.4756
55.9973
72.4497
67.134
78.1937
62.9373
14.2832
-12.8722
-5.98163
36.1899
49.0364
11.6817
-39.7855
-60.4362
-71.081
-68.9489
-37.4804
12.6756
71.2073
68.2053
-0.619811
-64.0398
-76.8939
-48.0895
-13.3272
10.3301
20.2015
24.2678
-17.5227
-56.7694
-39.0391
2.89155
29.0187
46.136
48.5726
44.0481
47.1277
74.3113
107.86
121.354
68.1056
9.77251
-3.67843
4.40464
11.3203
2.77527
-22.3619
-44.8205
-63.9858
-73.7639
-66.4993
-60.2301
-66.9138
-60.14
-50.9403
-46.851
-26.454
-1.14765
-50.8231
-84.7558
-44.8617
-14.9435
-12.0199
-24.4926
-19.0605
4.07007
21.4315
49.4494
62.2374
60.5357
62.8749
59.2504
47.456
42.1101
50.9168
44.55
11.8182
1.04724
22.691
7.21068
3.80671
16.7414
19.1392
8.43249
-15.3628
-21.0218
2.16418
6.26654
5.43028
11.8326
20.818
20.0597
5.22503
-8.43203
-35.2012
-52.5274
-40.937
-46.4884
-48.9079
-38.9294
-21.0177
-6.11913
-3.8869
1.26009
1.51953
-0.648641
-2.61667
-1.81275
1.66392
1.02399
11.5981
24.8391
18.4517
11.5202
7.8563
0.0229112
-4.36461
-9.39342
-11.9859
-10.2197
-5.54661
0.849892
3.94345
5.4685
10.7447
23.0268
16.1846
8.3533
6.01275
6.61373
-2.34387
-14.6305
-2.93701
8.50303
0.215574
-5.98987
5.13996
-3.12611
-11.5102
-16.8897
-16.5081
-1.54652
12.4239
26.4065
42.5735
34.3369
33.7313
51.7848
50.4137
-1.86404
-29.3442
-39.2793
-40.779
-37.1466
-36.6262
-37.1462
-39.6816
-25.9418
-6.09149
-5.38569
-8.41255
-12.8026
-13.5828
-4.39182
-11.884
-10.2437
3.25885
0.209054
1.12077
23.4719
27.575
22.394
23.4906
23.6681
27.9695
28.0151
18.4796
13.6241
7.16987
10.5853
7.99562
15.3372
16.4075
8.14169
7.91627
5.56624
-3.89636
-19.186
-39.7622
-29.6613
-14.2813
-8.53054
-11.9693
-26.9491
-26.425
-15.3977
-2.83619
4.28
16.2801
29.8344
30.2641
30.64
18.4299
-13.0078
-40.5072
-42.9463
-35.5551
-27.5004
-12.7324
-3.25947
0.535539
10.1539
15.6675
12.3094
15.4414
20.9728
16.181
0.625781
-8.04455
-13.133
-10.4904
-15.81
-12.8693
-2.0161
11.0366
18.974
26.1543
35.4544
19.1867
14.5127
16.0852
11.7641
1.21103
2.62729
8.58594
3.19273
-6.23785
1.8136
-2.75054
-17.0972
-27.9891
-18.5744
-9.17958
-14.2186
-12.9467
-11.5396
-6.77759
-7.36988
4.89771
6.96463
6.139
-3.13349
-12.5142
-9.02034
-8.51111
-10.7443
-11.2786
-10.5164
3.43269
14.689
16.8369
0.44879
-3.54138
1.85815
5.84559
2.91847
2.11494
12.5855
28.191
12.5581
3.13874
0.0624973
-1.86004
0.386154
0.365344
13.5185
10.0097
2.06397
3.87259
-8.39214
-16.9588
-1.99719
13.81
26.5983
38.7641
42.8452
-10.5463
-52.2955
-61.2545
-45.7238
-30.8309
-12.1456
15.3499
21.5742
38.3819
46.1681
32.3665
3.94352
-16.1794
-15.5542
-23.9278
-53.1049
-54.6912
-38.9755
-28.6914
-15.0243
14.1103
32.9019
39.3486
29.5674
23.2798
18.7408
11.438
1.85734
-12.7221
-23.0638
-12.5867
5.50179
10.3581
16.646
27.4488
24.8471
1.85018
-11.2666
-11.1879
-18.5706
-14.8011
3.62149
4.49561
2.5772
5.4322
8.79206
-5.75086
-16.5563
-15.0731
-11.8956
1.30102
16.2619
41.122
48.6245
34.6941
46.2056
26.134
-6.66676
-27.9713
-42.6017
-41.8162
-37.8928
-34.3171
-27.6826
-19.2144
5.60374
42.1412
19.3532
-0.856579
4.7637
-6.29678
-11.4137
-15.4392
-28.1582
-35.8301
-26.2818
-8.88085
6.24491
-1.49128
-0.214604
17.6572
11.9075
16.0537
23.1798
11.2894
-7.66846
-19.4235
0.672424
5.64919
-7.91315
-3.46653
1.34505
-21.6011
-19.7108
5.36045
9.22601
24.0316
42.6085
83.4325
117.848
77.0706
26.4348
-6.6997
-26.1908
-32.8646
-40.2582
-49.9152
-44.6657
-43.4174
-34.0088
-21.1557
-6.67229
11.2839
18.0684
-1.13112
-24.1802
-22.8485
-12.5279
-18.7947
-37.9729
-24.1901
6.84172
17.2115
15.5456
19.7809
17.7772
14.095
15.9778
17.2621
4.88826
-6.84386
-14.0704
-23.4148
-14.5852
3.49635
15.1837
12.8167
2.8095
1.41867
19.7431
16.4376
0.45689
-2.54027
13.1174
27.856
20.4112
7.45749
9.51508
-3.1627
-8.54459
9.24739
17.5485
-4.04304
-15.633
-9.15311
-18.7773
-20.4523
-17.4134
-26.8137
-36.3432
-18.9353
13.0318
32.183
22.5742
8.93675
3.1963
-2.67074
-7.42253
1.97665
14.4621
2.78302
-8.777
-13.7556
-16.3811
-5.71703
0.929903
-4.49355
0.391032
1.22958
-16.1769
-20.8075
-12.3568
2.77699
0.209132
1.57191
6.31887
10.5675
20.7011
25.0004
19.2503
14.3724
12.7145
9.92734
6.4659
10.0406
9.79802
14.2522
2.61708
-8.45943
-14.3678
-9.05189
-11.2616
-23.1849
-7.20556
-16.0599
-21.1838
-7.0105
6.11453
-8.44554
-15.9529
-14.8761
-19.426
-7.65046
-1.96118
2.65081
6.28917
15.5814
18.1802
16.0528
20.6079
20.2004
15.5439
11.4898
2.27833
3.23911
5.15257
5.06492
-2.94575
-5.93551
-11.8995
-9.59908
-5.96247
-0.816618
-4.7893
-16.9972
-16.6397
-7.79666
-2.76313
-2.99064
-0.946938
18.0131
24.87
18.1417
22.2244
17.5389
12.848
9.93253
-1.54289
-15.5855
-15.6859
-17.0259
-22.2691
-12.4884
-5.48271
-0.73669
-0.247837
-11.6051
-19.4275
-14.4428
-10.9051
-13.3345
-9.64485
-1.17605
1.02108
7.10773
22.7337
15.8334
4.07345
14.2996
18.8352
10.9943
10.0142
4.60373
-3.45728
-10.3024
-5.21661
-0.629628
14.7616
24.8173
29.6443
12.4553
-15.1837
-21.0224
-25.718
-35.6987
-26.2499
-15.6661
-1.58399
0.105039
-3.26635
8.22106
10.8871
-2.33698
4.94022
10.7041
12.5837
5.96238
-0.220476
-4.88856
-4.93419
3.86826
7.37899
10.3607
20.8826
20.8945
3.1159
-6.65779
-8.00332
-0.345307
4.6424
0.947748
0.651027
5.86677
0.47202
-5.96758
-15.9393
-7.12576
0.615812
-5.11043
5.06452
12.0632
12.3001
12.7833
-8.77494
-13.4164
-14.5883
-14.9179
-13.7485
-14.0021
-15.0744
-14.8602
-8.76787
-0.683275
4.98662
10.3111
8.48374
6.04589
4.95937
-1.70859
-11.6359
-19.7193
-17.7063
-17.0673
1.58187
18.8484
38.083
44.8993
26.3505
9.83019
2.14432
-8.1832
-8.95668
-3.26216
-8.29517
1.12435
9.75822
11.5177
1.13403
-1.20195
-5.38916
-11.3365
-7.39557
-0.339344
1.80608
-2.74402
-13.898
-19.6556
-11.4983
1.43131
19.1686
11.9079
12.8515
5.21584
3.72398
12.0827
-7.92035
-25.9049
-17.5398
-12.4194
-21.9096
-10.9462
-1.62659
1.16421
11.7028
22.5924
35.3147
31.8517
19.1965
14.914
-2.44962
-5.41163
-7.57381
-8.23044
-9.44629
-16.6251
-10.8893
-9.08972
-13.2268
-4.63154
1.32339
-1.39456
-3.17184
-3.36385
-8.16536
-12.388
-14.2048
-12.5283
-0.333867
1.81415
-2.83187
5.49937
12.9665
14.4249
15.7879
16.0823
18.7957
17.0874
3.42391
-3.49859
2.68025
4.0956
7.09373
6.79437
6.6828
4.98286
-1.82558
-13.2595
-8.20867
1.81666
-7.56085
-10.4605
-9.61985
-3.0209
-3.6076
-20.3475
-19.69
-0.799212
10.2801
3.14258
-0.998769
6.10818
7.15184
-0.858766
-7.8517
-16.1017
-22.8875
-16.6317
-7.62869
4.37249
21.7003
24.204
12.4345
8.14999
15.5954
21.279
12.1939
-0.548892
-3.50966
4.31632
5.71186
-3.86279
-11.1524
-5.7837
-6.17398
-12.7871
-11.6056
-6.85137
-9.75394
-10.1376
-6.27455
-3.83766
8.15771
28.973
24.7378
-3.45194
-11.5072
-15.3495
-5.40875
5.78384
4.82016
5.58286
6.58709
1.92159
7.629
10.0168
6.68322
3.75814
-4.47493
-15.7051
-17.4991
-8.68377
-9.61479
-27.4961
-34.8809
-10.0064
6.3395
16.7904
15.2253
20.368
25.4371
25.8678
27.0556
14.5672
5.86206
13.2
12.6484
-3.06793
-9.14684
4.64779
-0.307478
-11.7765
-12.9448
-25.8952
-30.1927
-14.3651
-12.1514
-9.25337
-6.81976
-12.9423
-16.0873
-9.54606
-10.7266
-9.49359
-4.15073
0.421269
8.33187
17.1435
24.2822
13.3852
10.6869
10.2984
8.14985
14.7103
15.9357
8.50855
12.0369
13.5465
5.32362
0.0468579
7.6398
-3.70841
-18.7934
-3.4667
5.83447
-0.968893
-5.84658
2.30566
-3.46835
-14.0703
-16.5177
-16.5289
-11.5279
-11.5733
-6.71335
-5.35509
4.2555
4.86316
7.57703
9.02595
2.13457
3.17467
4.51315
-9.56959
-19.882
-8.89965
2.60299
1.48889
-2.22472
3.22271
20.9527
35.791
40.9447
20.2035
7.81678
4.92805
-12.7655
-25.27
-25.2054
-26.3946
-23.2476
-14.7769
-15.4067
-1.50791
22.0346
14.4421
-4.52206
6.0987
10.4048
4.44247
-0.667604
-12.2224
-23.1473
-18.0656
-9.00139
7.96149
12.761
9.09059
7.31525
8.51276
11.5651
13.9471
17.2563
16.7485
9.50147
9.5506
13.5279
0.134205
-11.7789
-14.5529
-16.6964
-17.3601
-18.5046
-5.06642
5.02629
-4.1092
-1.76769
2.37005
2.52758
-1.62583
-10.8177
-1.47128
13.1143
2.417
-3.23413
3.83656
0.130142
-3.17172
-2.70295
1.90332
5.69519
8.65839
1.83268
0.326498
-3.26404
-7.9933
-2.51063
5.36172
3.67221
3.03461
3.10699
-5.36089
-8.33153
-7.38877
-15.261
-7.96818
-3.2005
-0.369194
2.65164
7.24049
9.27984
5.35399
5.01946
6.2497
5.13487
6.5701
-1.05003
-6.04828
-10.5662
-14.3857
-10.8397
-10.6654
-3.65564
20.5763
51.3265
31.0118
15.2559
25.4059
36.3924
-10.2476
-35.1659
-30.7693
-26.523
-18.3884
-20.2951
-11.4764
-3.3304
-6.72618
-2.83978
4.04962
14.1097
10.8449
4.53965
-9.14179
-25.1592
-23.5486
-17.4326
-15.8686
-4.19913
19.2592
32.6524
28.4768
12.6629
1.4385
-1.94187
-10.4696
-2.20301
6.95849
4.66644
12.0016
12.1301
11.4299
3.59048
-2.83733
5.14283
8.27318
-2.72382
-11.008
-20.9728
-10.8684
-11.6253
-6.41304
15.555
-4.24554
-11.3896
3.50052
7.61381
7.49899
6.14897
-0.0698358
-3.42668
-0.561183
2.18599
0.57855
-9.54563
1.49039
10.3956
1.72525
-4.24348
4.23263
-2.73382
-8.91468
-12.4781
3.98234
8.22005
-3.35632
-9.19203
-4.22745
2.75906
6.55488
8.75495
8.86809
3.4301
4.39895
7.07735
-5.66637
-9.88326
-4.82151
0.416651
-4.35996
-4.85988
-8.15284
-8.94504
-5.49134
1.44462
4.5508
5.70419
7.89811
12.2209
16.7721
11.2505
0.0828696
-2.73096
-7.9621
-19.3173
-9.40078
-6.27701
-6.18603
-3.1647
0.0214546
8.02352
6.42966
11.5588
15.8486
9.37892
-5.56477
-8.03571
-7.70566
-12.8208
-17.8686
-9.34186
7.7712
-10.5137
-11.1125
7.56153
16.6303
13.7192
20.87
19.4092
15.4031
9.80917
3.40243
-11.3615
-16.8212
-11.5513
1.41547
-4.19407
-18.5309
-12.33
-5.80625
-9.22014
-13.2335
2.31859
16.0388
7.15609
-8.09426
3.65483
8.95213
5.47578
-2.0256
-2.73121
-5.36524
-6.61296
-7.60521
-9.09768
0.69502
-0.549132
8.92393
22.4358
25.3731
8.6425
-3.87454
9.26176
18.153
12.0598
1.1442
-5.80652
-11.2977
-13.7774
-15.6407
-13.6017
-3.28191
2.1248
7.15902
13.1908
-0.200341
-5.28725
-9.39142
-14.1476
-14.0288
1.68441
17.7971
14.2409
-1.49017
-10.4533
-6.92022
-5.03093
-4.31387
-4.38302
-1.66409
3.57713
0.353571
-4.21355
-5.25923
-5.46834
-4.22785
6.11467
11.2236
-3.05221
0.0905733
4.85418
7.92233
3.90321
-3.7844
-3.59328
4.31925
11.133
6.90688
4.52061
6.73497
2.83428
-1.65833
-1.36106
2.92196
5.47013
-3.1493
-7.22187
-4.69953
-6.07867
-13.188
-12.9455
-6.07942
-2.52085
3.54271
18.219
30.2125
19.8231
12.962
4.66798
-9.02511
-17.2473
-1.61471
1.14649
-13.033
-16.2918
-16.0363
-12.5168
-7.75922
-0.774923
1.55556
3.08889
-2.54491
1.31415
-1.80333
-3.62423
-1.1543
3.229
-1.18917
0.268677
-1.77767
-1.90857
0.101139
3.43414
-1.54012
0.55073
12.9463
20.7238
10.0907
0.0396281
8.96615
7.0361
-2.06345
-2.29513
0.136612
4.17575
-2.4404
-2.66648
-1.87789
4.43575
11.5288
4.70653
-6.11138
-0.10926
14.2365
4.52086
0.547004
-13.2654
-16.3573
-10.3783
-10.0992
-7.85198
-6.82894
-5.00136
2.18262
10.8271
5.11708
-9.01703
-15.5515
-27.0871
-17.3172
-2.78736
4.25872
5.88185
11.1272
9.42057
11.3079
28.4544
16.0998
10.0541
6.053
-6.18808
0.560218
3.99724
-14.6203
-28.6783
-22.2544
-1.59216
11.7671
16.0757
16.4143
16.4046
6.23088
-8.49575
-16.2865
-12.312
-9.63226
-11.1617
1.02853
16.69
7.43338
1.70614
-2.94923
0.776356
8.20988
1.25495
-2.60826
0.748068
3.79414
8.85378
3.42986
0.308434
-4.36043
-2.39545
-4.28936
5.26511
3.82986
-8.13678
-7.53118
-14.8581
-6.47964
1.27357
2.40462
3.12398
2.68931
1.49778
9.66112
12.0311
4.5779
1.61769
-2.27018
-0.812826
-0.793075
3.97193
5.01681
1.01091
-6.94782
-12.915
-8.11041
-11.0691
-5.04802
5.79599
0.350784
-3.3531
-4.81518
2.69688
-3.89158
2.62248
-4.59763
-5.76621
2.12461
0.856047
-3.15642
-5.43322
-4.71271
-2.7954
3.111
1.50956
9.71446
10.0006
2.48777
1.68054
2.1265
7.4547
13.1962
13.8487
18.2974
-0.467683
-4.13624
9.01728
2.24496
-2.72129
-6.17683
-5.12097
-3.56089
-7.47048
-13.1002
-13.7128
-16.5524
-5.05298
2.25661
5.48925
5.76722
12.179
33.5891
29.8789
1.24482
-14.473
-18.8856
-28.4258
-23.4252
-13.771
-3.14404
3.41505
-0.506345
1.9198
4.33782
6.57589
6.87812
-1.51845
-5.36059
-1.79344
-0.0214636
-0.359553
-8.59056
-19.8313
2.09765
8.82802
7.42028
4.73173
0.532212
3.77284
8.48842
3.2293
3.07778
3.06177
5.57242
7.12192
8.69652
11.7487
9.77636
6.1226
7.22322
-0.904463
-11.4152
-8.90543
-3.54714
-1.51766
0.610354
12.4371
8.63001
1.0855
-3.61367
-4.4923
-9.29473
-9.01329
-11.027
-7.02517
-11.4671
-17.8957
-5.50645
4.80628
8.15752
3.3398
-2.55107
-0.595561
-9.03118
-9.89151
-7.18747
-7.0952
1.94719
-0.745197
-2.06274
7.46232
16.2296
14.8553
27.1127
24.6029
13.0268
2.54957
-9.84326
-14.5113
-16.091
-12.132
-8.72256
-4.19048
-0.790402
3.28651
7.53556
4.22884
8.30796
12.0774
9.58058
0.528181
-7.44181
-10.8791
-15.901
-14.191
-4.72557
2.8209
9.41305
4.27398
3.04391
2.0227
1.18844
-2.74313
-3.5694
4.28116
8.39836
5.61653
-3.26638
-8.28418
-5.45212
-4.87478
-6.60898
-8.0795
-10.8352
1.33731
18.6028
11.0982
3.8167
-2.88175
-6.29242
-7.24104
-3.9741
10.9113
27.609
13.2188
12.3797
-1.53959
-6.16131
-3.46029
6.39417
3.17003
0.363257
-9.36586
-26.3011
-28.8099
-18.8752
-4.38591
-7.31152
-9.31844
-2.31763
9.47483
19.5863
9.0387
-2.40341
3.46086
0.0664472
11.957
28.2876
18.565
-0.701898
-10.4219
-9.83492
-3.16986
0.609145
-5.94325
-9.93632
-7.8099
-0.859084
5.61344
8.86999
4.81424
-3.89067
-0.419153
6.86076
-0.163708
-7.29077
-2.55218
-2.43327
-7.82206
-13.2001
-16.4751
4.04539
13.8014
15.681
15.3474
10.9931
18.8316
14.5373
12.9016
6.4707
6.13504
5.69825
-6.30297
-27.6914
-17.8892
-11.4984
-14.245
-14.6422
-1.10162
3.72534
8.12025
-2.81336
-9.3713
-5.18547
-10.3911
-14.9003
-19.3395
-14.2911
-12.0687
-3.56352
-0.308125
0.122528
5.23262
8.25565
11.3204
16.6277
18.9217
8.3397
12.6664
19.2179
19.3455
11.767
8.40916
6.35577
1.96153
1.13968
0.260145
2.6266
-3.66044
-7.97106
-0.0542317
-1.66871
0.245343
-0.545825
-4.75056
-9.32448
-8.91311
-5.16345
-9.20185
-10.7678
-8.06514
-7.52911
-8.40922
-8.47117
-12.8002
-5.70123
6.17674
-2.3899
-4.39316
9.58786
12.0558
17.2335
32.7326
24.4735
16.206
-2.31465
-21.6073
-22.9092
-13.6178
-12.4509
-9.32302
-6.63854
0.541036
3.73819
9.77478
3.37661
-4.38603
-2.72952
6.75456
-3.67853
-11.1656
-10.3993
-15.5046
-10.9824
3.05342
7.04484
14.6865
16.844
14.2865
11.9172
4.0242
-2.17676
-6.83569
-8.47795
1.86302
14.6242
11.7537
13.2491
8.46237
1.34358
1.25177
-1.53371
-11.6583
-9.63186
-1.21467
14.9969
9.93116
-0.924607
-5.17572
-5.56309
-4.96761
-0.476629
-5.93697
-10.3047
-11.1528
-16.0509
-14.2292
-9.55789
6.59757
10.5671
10.1782
9.28423
-1.75459
-0.880723
-7.62758
-12.4253
-1.63876
11.5194
2.49094
-3.61001
-6.51961
-5.42208
-1.66598
-2.87313
-1.55057
0.592676
8.87731
15.7773
12.2278
18.1729
10.3263
-10.3777
-4.79911
4.89533
11.7667
3.97085
4.80335
-6.68784
-17.4627
-11.4484
9.52143
4.75606
1.05907
7.25754
4.06647
-8.49318
-16.6531
-17.1653
-13.2353
-13.0131
-0.467648
12.1611
6.8231
5.32133
-6.62234
-8.37676
-5.60334
-4.00831
5.72989
10.4528
0.0459566
2.27393
13.582
9.7154
0.811897
2.98473
4.20621
-1.85016
-6.64532
-6.16555
-6.23383
-1.7121
5.59784
12.6262
-1.48096
-1.01032
0.980375
7.10811
9.00776
0.543331
-7.77377
-3.99083
-10.3215
-4.95334
3.82016
0.399408
-5.21497
-5.36286
-5.07932
-6.92625
-5.92689
6.75787
12.5034
7.46016
10.1849
9.66267
3.66083
0.877304
-13.4793
-9.23443
-1.78186
1.63308
3.75969
1.59562
-2.48905
-1.86544
-0.583564
-3.83865
-0.901941
2.71312
-7.34326
-14.376
-13.9267
-12.4729
2.74072
8.20439
7.60794
11.9531
18.4166
23.29
22.5209
-0.923734
-6.16903
-7.09976
-12.4064
-3.88569
-1.36974
-2.19506
0.526977
-4.36792
-5.01986
-8.48215
-4.55241
-4.07153
-3.43062
0.575817
0.0451143
4.69622
10.0228
-4.19928
-11.7261
2.92051
14.2474
5.39854
4.85119
-4.04909
-3.22813
4.03558
-4.49163
-13.9781
-8.6953
-1.17846
-4.05145
-3.81684
2.60212
11.9128
15.9477
13.6438
25.9196
15.0722
-4.91718
-10.9464
-17.0291
-5.5085
-4.1864
-3.18792
-1.63644
-7.9697
-5.21851
0.998159
0.142789
-5.36704
-2.1563
4.22902
9.84226
-0.183038
-7.74361
1.56615
-9.50263
-17.8481
-6.55674
0.0285667
3.90194
7.34738
11.0656
4.86347
6.29439
9.40805
1.13128
3.73924
11.7618
8.08793
7.38777
-2.79143
-12.9207
-5.96645
-5.18109
-17.494
-22.9149
-7.7027
14.6482
7.59199
-7.21625
-0.0604376
13.9341
9.45919
-1.3861
-7.60812
-2.9454
-0.275545
1.72637
9.67935
7.96058
11.2715
12.7265
11.1039
4.97524
4.32713
8.93206
19.8923
3.98491
-12.5677
-16.2127
-25.6373
-29.9786
-15.7498
-4.62949
-3.59167
-6.85094
-11.8836
-7.05797
0.0222366
-1.61355
-12.9864
-10.3959
9.61033
11.3445
2.3831
-0.872388
4.8168
11.1996
16.7626
18.8651
11.046
10.904
6.81361
-7.05305
-10.1791
-2.61513
3.44387
6.45288
4.73372
-2.51952
-4.01033
-0.731216
-4.2789
-6.40594
-4.13991
-8.85143
0.933619
5.05761
0.218137
0.327616
0.460667
-3.48001
-0.874961
1.85381
-2.0466
2.96417
6.22476
5.61547
2.42054
6.6575
13.0608
8.95348
-4.43312
1.34301
1.52073
1.99965
-7.18829
-18.1167
-17.1428
-13.8896
-5.13415
-3.83249
-6.71902
3.36031
17.3363
12.4858
11.627
1.95402
-5.65607
-9.74243
-13.5982
-18.5752
-21.3709
-18.2573
3.46555
22.3388
23.2826
23.4879
40.1397
35.3357
3.99191
-7.20611
-14.8796
-26.9853
-32.1086
-18.9563
-11.454
-21.1398
-14.5302
2.65976
18.4735
27.3526
20.2411
1.14773
-6.76538
-9.93863
-17.0089
-4.85446
-4.27391
-4.02872
6.64861
8.06559
6.45351
7.79419
12.6028
7.90161
5.27078
9.85627
11.527
11.8623
3.82878
2.10245
9.53461
15.9515
9.68795
-4.74989
-16.3842
-17.9861
-16.7824
-21.0256
-18.6825
-9.51204
-5.27682
-7.81054
-1.55942
0.37841
-3.11283
-0.161486
2.01645
7.62402
12.6653
1.41517
-9.35981
-11.7015
-10.6137
-7.19877
-6.43937
-8.21989
-0.858472
13.8082
32.3376
38.1569
37.2913
37.4231
20.7315
3.46511
-2.57681
-2.44694
-10.5105
-12.8959
-14.5763
-22.9662
-22.9134
-20.3582
-31.6597
-24.29
7.48641
3.67223
-8.91972
1.27776
-13.972
-23.8356
-14.5643
-3.57877
3.04524
12.9119
15.2912
12.4659
10.3824
-2.53869
-0.57531
28.3532
38.9254
27.3265
15.3476
1.2836
-22.2861
-23.5983
-15.5384
-5.70234
3.93004
-1.07834
4.90213
16.153
13.7471
1.4668
-10.1033
-0.811793
10.3494
6.44484
-5.67983
-5.34422
8.18565
14.0484
18.3707
16.3072
-0.667777
-13.4872
-13.6955
-15.2242
-25.6102
-24.733
-16.2252
-12.0222
-2.68567
0.535803
10.1004
18.3145
4.56516
-6.64922
-3.16939
-5.60241
-6.05273
-1.0147
2.48268
0.646147
9.2545
16.0438
8.82347
-8.97097
-7.30949
-4.16467
-8.35289
-14.6305
-12.7875
-1.44544
1.67165
-9.0235
-6.90729
2.07092
15.0751
16.7964
4.26698
2.62379
8.33671
20.1692
18.0372
14.7586
18.1383
14.143
13.5031
6.82456
-6.00409
-14.7721
-13.6807
-17.4489
-23.2872
-15.2768
-5.78596
-4.02869
0.660755
10.2629
5.30407
-7.44994
-17.1827
-18.4307
1.71514
8.71636
1.5726
2.60364
9.00332
7.08378
0.512606
1.86955
0.246363
-3.25674
-8.57373
-14.6816
-7.73713
3.46083
-0.359274
-7.37724
4.40961
23.0627
46.5636
49.3848
25.5866
15.5052
0.310152
-7.61477
-12.6634
-18.7147
-24.1502
-33.5867
-38.3256
-22.2081
-6.92231
-0.439834
5.49804
-3.20681
-4.74706
-3.81198
-6.13205
-9.57983
-8.5532
-11.8472
-17.6627
-22.1343
-7.22096
0.211692
3.91448
15.568
26.8409
32.9238
29.2475
21.5621
24.6041
22.1672
22.5824
26.2988
21.9348
12.2374
-0.560116
-8.96436
-8.19869
-7.90962
-12.0404
-9.02674
-8.77963
-16.0867
-12.3747
-17.8243
-21.5713
-20.529
-3.96834
3.94915
-0.135487
-3.79099
-4.44931
0.232461
-0.800886
-3.92857
5.65894
7.5596
-8.88925
-29.0837
-20.0409
-8.23036
1.52057
18.292
18.9835
16.15
19.2024
30.7305
24.884
-7.06553
-11.899
-10.5375
-12.4113
-8.06744
-4.69304
-6.21802
-7.58716
0.281767
1.5714
5.74234
3.37074
4.11881
-0.474629
-9.95378
-8.12115
2.02174
3.997
-0.42308
-2.27294
5.08395
13.9957
20.0067
6.40577
-0.680719
-3.80204
-2.43374
-0.601875
-6.7416
-7.14256
2.06818
6.46483
6.503
9.28579
3.02057
3.32511
-3.4889
-13.7865
-15.8622
-13.0284
-0.473631
0.62677
-0.257109
7.39169
12.0162
6.88794
6.95017
17.7345
8.69202
-4.91773
-8.45783
-12.3754
-18.6674
-31.7143
-30.2179
-22.1318
-5.87526
8.35506
8.07435
7.92409
20.0876
28.1225
34.3206
23.1202
9.00408
2.71862
-14.3276
-21.0473
-10.523
-9.51281
-8.30019
-3.69797
6.9817
21.789
19.4513
1.59188
-5.10498
-2.29807
-30.0646
-31.3096
-25.1664
-27.3209
-24.8053
-2.75958
26.0819
10.9587
5.84797
6.91818
14.4775
26.6183
23.7183
20.6056
15.753
13.9932
11.8228
9.39157
-0.515792
-4.20019
12.8017
12.9664
1.74879
-5.80405
-14.5344
-24.2513
-33.0428
-24.9201
-16.4742
-2.50753
0.398838
-7.50372
-3.26301
3.11877
7.24343
1.39542
-0.9308
12.306
3.96063
-17.4351
-6.84461
-0.859343
-0.744433
-11.047
-4.66967
10.8402
15.8789
12.701
13.9545
4.91298
-0.658051
-6.82657
-8.86678
-11.2171
-12.7068
-1.16892
-0.426943
-2.81154
11.6887
24.1947
21.3369
8.25746
5.4448
10.3993
7.04564
8.07763
2.06979
-2.58882
-7.70613
-16.0444
-10.3974
-2.26997
-9.33217
-8.05064
-8.58932
-14.3248
-16.5128
-17.689
-13.8733
-10.0967
3.32645
1.11994
-3.97176
12.2646
21.2127
-5.58514
-11.9658
1.49984
8.58555
12.5772
18.2683
21.3428
26.3996
25.7102
16.9316
10.4986
14.8813
5.61094
-7.3715
-9.76508
-17.1785
-11.8751
-10.634
-14.5796
-15.1158
-12.436
-4.43951
-3.99705
-3.69402
-6.74471
-18.31
-23.2304
-11.7836
-3.91376
-12.7269
-9.90602
3.87795
17.5809
15.5806
5.61939
6.48824
17.7576
20.4305
18.6932
10.7193
20.2226
8.75384
-2.17191
-7.15642
1.95301
15.7413
3.86291
-1.57301
-8.93266
-10.5464
-9.81561
-5.89081
-4.14917
-1.51569
-9.07472
-23.7
-23.9649
-12.8213
-10.173
-16.5026
-14.3642
-13.9024
-6.25435
9.88903
15.146
11.9458
21.2286
27.4977
27.0904
24.5074
20.4396
1.58988
-15.3292
-12.6469
0.555721
14.1951
18.9664
3.47888
-11.5172
-12.1165
-14.4453
-10.3357
2.76491
3.03326
-3.66338
-8.84174
-2.01026
-5.55858
-4.32625
-0.771199
-4.86366
-7.21595
-5.74588
6.39279
13.3975
5.01289
-2.5156
0.000442752
5.77951
11.6821
6.58183
2.57385
0.326255
3.45195
2.56381
-11.5899
-13.2012
-11.1612
-8.36648
-4.36203
-4.66156
4.47814
18.4756
17.5325
8.18279
-7.06814
-13.8146
-15.1858
-16.0342
-16.3423
-19.3828
-1.83017
13.6803
10.4505
-3.47179
-5.61784
1.10669
17.4136
29.1579
22.2085
15.3145
5.4946
-4.89697
-11.7252
-14.0359
-8.19171
-2.1223
-8.50989
-11.2867
-4.03706
-3.58019
-9.25744
-7.13424
1.76638
26.8679
43.0094
33.8588
17.129
-0.498688
-2.96023
0.725325
-15.4497
-18.444
-22.9682
-20.718
-15.5767
-9.52813
-2.35965
-7.10951
-3.09896
12.2437
17.7519
12.9625
3.96362
-6.48735
-2.50642
1.05419
-0.798649
3.65709
16.8896
16.2069
0.439007
-10.528
-2.03874
-9.70089
-17.7756
-24.6601
-13.7911
0.173269
4.72209
9.22277
3.55581
0.441005
9.83934
-1.65764
-19.7826
-22.2222
-14.6691
-10.5726
-6.4503
-2.45969
13.5134
20.8974
13.0033
11.6992
27.0461
29.4603
22.8796
13.7981
2.67984
-5.87281
-1.54744
13.5067
-7.0105
-5.00573
8.60544
5.30643
-9.1264
-12.0717
-18.5455
-10.517
5.90151
5.57636
3.02949
14.6132
-1.18939
-14.6662
-19.9429
-14.3939
-3.52299
-2.02244
-8.47937
-9.96762
0.187389
6.02633
1.23087
-3.82003
-3.79044
2.10298
1.72277
-8.52895
-14.8298
-14.6977
-6.88054
-8.22359
-7.31009
2.4993
5.39953
2.70799
3.022
4.52738
8.37516
8.62113
10.5064
20.6584
27.3679
32.78
31.8142
9.24255
-2.73157
-10.993
-12.9482
-10.5142
-7.70834
-8.87844
-5.22932
-1.84603
-1.30681
0.560327
1.53691
1.82533
1.59998
-1.43797
1.99086
-4.40635
-12.8473
-15.4997
-18.9105
-15.112
-12.3335
-6.21019
8.35487
10.4375
3.20036
-3.25911
-1.39927
0.203109
0.738732
10.3394
11.4302
9.97244
10.1019
10.3837
-1.57831
-7.8689
7.2097
2.85332
-10.1148
-1.80467
10.3615
6.27956
-8.42093
-21.0367
-18.2367
-4.37739
9.48835
17.5198
22.6538
18.8159
4.99943
-5.67148
-5.39039
-14.1346
-12.7307
-10.2785
-10.4671
-0.074036
5.28639
0.391088
-1.22727
-2.17789
0.664311
9.9313
16.2803
18.5128
1.37768
-13.7226
-18.2553
-22.6684
-21.6367
-11.14
1.84583
5.88954
10.2348
13.6329
12.8306
15.7191
6.07058
-6.4655
-8.65238
1.15735
5.26884
6.91648
3.4974
-4.74212
-0.945934
2.4655
5.37903
0.381472
1.03014
1.29781
-7.70192
-6.7423
-4.87571
-2.4862
1.75182
-0.406116
0.662556
17.6757
17.96
19.9797
19.5678
1.85636
-18.9685
-25.7481
-23.3888
-23.0855
-20.7247
-21.047
-15.5975
9.82719
27.3059
14.5259
-1.36762
-12.5869
-15.7805
-7.56068
8.64665
14.4188
20.9484
6.20187
-1.40978
1.94593
5.85585
3.3187
1.5249
6.04237
6.26586
2.74632
4.2732
13.9128
6.18009
-6.17101
-8.54517
-4.07747
-2.66679
-9.90173
-6.8601
2.87759
-8.86945
-12.8881
-19.5566
-17.5993
-11.4857
3.66381
13.2681
7.89188
14.8822
32.8261
23.2086
7.89769
4.37454
7.231
11.6165
12.5295
-1.3136
-0.477407
1.05345
-15.0635
-15.7217
-10.042
-6.98661
-7.47917
-7.00524
-9.14806
-22.6307
-19.7814
-15.8652
-18.683
-15.0138
-14.4365
-5.99011
8.08564
11.1422
5.82472
9.96937
13.5964
11.6918
3.7271
-0.411413
12.9902
22.4588
24.4694
20.3828
8.24808
12.661
7.28565
5.43864
-2.1805
-9.91304
-9.02419
0.853271
-1.08533
-5.07671
-1.19415
-2.94348
-9.15096
-14.6181
-8.53706
-0.809495
-9.61414
-10.0246
-1.47498
4.35208
4.70053
-12.5271
-10.0627
3.81552
10.5206
15.2116
8.35037
-0.125817
-0.985222
-4.06239
-2.68175
-18.801
-19.2773
-11.5848
12.5988
20.851
21.8983
2.40564
5.54094
12.0641
-0.898067
-1.53877
-0.468648
-2.42081
-11.9687
-17.7207
-9.83122
0.195145
-0.409525
-8.85513
-8.84233
10.7619
16.7978
14.9228
-0.378218
-7.32449
-8.20793
-1.66465
-6.89113
-4.05068
13.0008
12.223
6.87343
11.001
6.38976
4.34724
-4.88428
-14.213
-18.0141
-11.2228
3.10066
2.74367
-4.11429
-10.7416
-1.19011
7.94337
8.00913
7.69174
9.53078
16.6905
11.2899
-1.42143
0.566186
-0.0531002
-2.39071
-5.72661
-15.1999
-8.46437
-0.28147
1.81401
-5.19166
-9.61234
-9.50383
-5.48666
-4.77747
-15.2346
-13.5448
-1.28416
13.2034
2.88813
10.1813
31.1262
24.5047
16.0725
7.64331
7.82734
11.1933
0.018171
-2.21602
-10.618
-20.0946
-23.0217
-22.8627
-19.6588
-14.4595
3.30136
10.3444
5.66544
-2.46434
5.61687
16.6057
6.67902
-7.61116
-5.87682
11.3689
18.9931
15.4926
8.75137
-3.07243
-9.36454
4.80149
19.3872
-0.313793
-15.5066
-20.9228
-12.8074
-16.5023
-8.10676
-0.281283
-8.82089
-13.7518
-1.95984
8.02093
0.622503
1.73076
11.7085
10.5659
9.36843
5.69865
7.10487
10.1139
1.6748
9.79317
7.1122
-2.66166
-10.0045
-11.1157
-5.47877
-4.64305
-1.30852
5.12013
5.8135
7.48845
13.7194
7.7718
1.35182
0.698701
-7.53152
-4.74601
-7.02968
-21.4812
-24.9996
-19.1778
-8.96727
2.79872
12.4103
19.0845
12.6329
5.10202
4.63556
3.96695
3.16989
0.673907
-6.07098
-10.2759
-9.9918
-4.20268
2.47923
4.42553
-7.53749
-7.52757
9.5042
15.5072
6.32525
-5.08704
-6.6076
-5.46702
-3.38963
-3.22848
0.583492
9.04193
14.2828
8.77855
12.7167
6.25901
-8.40573
-11.2283
-7.53769
-1.32057
15.9824
15.7649
-13.3807
-3.53907
5.53503
6.11717
7.46729
0.182491
-9.96763
-11.5317
-10.4689
-5.20435
-13.7606
-13.7268
-6.22507
-4.77044
1.59945
5.1326
4.08292
4.11349
-0.0517027
2.24597
6.2485
-6.85654
-5.9683
-1.46582
-10.3125
-10.2375
0.784356
8.632
8.93699
2.52836
2.67339
12.0727
17.9834
25.9574
28.8726
34.5064
37.1879
2.2792
-18.8143
-19.5039
-11.374
-7.6522
-16.889
-7.1545
-9.87659
-10.0727
-23.2156
-26.8433
-22.8815
-28.6132
-27.121
-2.70078
12.6583
10.3513
-1.15633
-4.12794
-7.66963
7.52053
22.788
14.9711
10.97
9.70824
6.21977
2.26017
10.4804
15.6102
25.5803
27.3172
23.2167
18.5247
4.55541
-9.90767
-19.6847
-21.539
-18.6897
-21.7496
-22.684
-12.9947
-8.98215
0.052131
3.70594
8.42128
-4.46787
-1.28716
-0.646543
1.54142
6.24952
2.50185
-6.65031
-13.0438
-2.38659
1.03186
9.21747
14.287
6.24762
0.554896
1.68077
12.9735
6.54544
-8.06825
-10.0092
-7.39155
2.23584
-2.0477
-7.95454
-3.88669
-1.55368
4.39761
19.6984
34.3811
14.7882
-1.23015
-13.0572
-17.1859
-9.2818
-5.23238
-8.86945
-14.0611
-9.23353
1.22498
3.34582
5.47698
9.07542
6.00899
9.25872
3.37106
-6.62893
-11.3405
-14.5892
-15.716
-3.79156
9.58805
10.7894
7.81497
3.01297
2.99427
11.0372
9.9748
2.83157
-7.12203
-1.94584
1.55855
1.25939
-2.38709
-1.49112
3.19219
5.16861
0.268419
-7.28094
-15.2489
-6.54996
-6.01979
-14.1682
-7.86352
-2.85981
0.192893
2.59487
1.15419
7.8724
26.0822
27.7387
17.2261
21.1534
6.4991
-17.2371
-16.8488
-4.39733
-1.83004
-19.8829
-16.0976
-15.0228
-5.90118
1.53013
9.81322
21.3309
15.3305
9.33849
9.35043
1.01855
-10.7424
-17.4485
-22.6859
-24.8
-15.5127
-1.52439
-4.0199
-11.551
0.209285
20.8424
24.7242
23.5596
15.6654
12.64
5.59146
-2.11713
-6.51214
-15.728
-12.7615
-2.58765
-7.00466
-13.4457
-9.27747
1.78506
10.2155
15.479
12.4755
11.4062
8.33305
6.49171
7.15134
2.01216
-3.43663
-2.21383
-3.16055
-6.30397
-6.59894
-7.38968
-7.59666
-5.71634
-4.15555
0.38965
0.101998
-2.56897
6.4201
7.85983
-2.41321
-3.49744
-4.89886
-3.12025
-2.57514
1.21763
-5.31384
-10.9099
-15.4264
-10.6313
-5.53774
1.95913
10.6009
15.3239
15.4091
20.4535
30.766
2.05785
-21.4611
-8.04731
4.68034
11.2018
9.81094
1.5116
-2.73383
-0.747489
4.42787
9.70329
10.5198
0.848685
-7.89497
-4.83591
-5.53778
-14.4019
-23.1537
-10.7073
-4.44632
-7.56537
-8.50944
-8.6867
-9.07561
-19.2787
-22.9402
-7.91216
-9.01979
-8.42157
8.91698
22.4262
21.8031
15.7683
15.4055
17.1192
11.8324
10.3011
13.7399
-2.68786
-27.1946
-20.2058
1.77919
11.9629
11.1212
15.9744
27.4505
30.9509
31.0873
22.962
-0.192094
-14.8187
-20.3452
-14.4687
-10.2918
-14.0087
-16.149
-15.3784
-6.09599
